#wls	flux	fluxerr
1.590679E+03	1.307077E-18	6.645716E-20
1.630446E+03	1.349966E-18	6.855053E-20
1.670213E+03	1.393405E-18	7.066397E-20
1.709980E+03	1.437332E-18	7.279403E-20
1.749746E+03	1.481655E-18	7.493564E-20
1.789513E+03	1.526705E-18	7.710512E-20
1.829280E+03	1.571384E-18	7.924674E-20
1.869047E+03	1.615067E-18	8.132874E-20
1.908814E+03	1.657009E-18	8.331368E-20
1.948581E+03	1.697196E-18	8.520084E-20
1.988348E+03	1.734627E-18	8.694024E-20
2.028115E+03	1.770070E-18	8.857071E-20
2.067882E+03	1.806257E-18	9.022892E-20
2.107649E+03	1.848932E-18	9.220083E-20
2.147416E+03	1.903336E-18	9.474535E-20
2.187183E+03	1.973598E-18	9.806407E-20
2.226950E+03	2.060778E-18	1.022047E-19
2.266717E+03	2.161078E-18	1.069740E-19
2.306484E+03	2.270375E-18	1.121637E-19
2.346251E+03	2.386187E-18	1.176480E-19
2.386018E+03	2.505597E-18	1.232806E-19
2.425785E+03	2.627669E-18	1.290134E-19
2.465552E+03	2.752196E-18	1.348347E-19
2.505319E+03	2.880446E-18	1.408045E-19
2.545086E+03	3.011810E-18	1.468909E-19
2.584853E+03	3.146738E-18	1.531136E-19
2.624620E+03	3.286888E-18	1.595508E-19
2.664387E+03	3.431597E-18	1.661674E-19
2.704154E+03	3.581292E-18	1.729811E-19
2.743921E+03	3.736376E-18	1.800082E-19
2.783688E+03	3.898604E-18	1.873296E-19
2.823455E+03	4.067060E-18	1.948973E-19
2.863222E+03	4.243565E-18	2.027943E-19
2.902988E+03	4.427085E-18	2.109666E-19
2.942755E+03	4.617948E-18	2.194251E-19
2.982522E+03	4.816469E-18	2.281799E-19
2.992464E+03	4.867331E-18	2.304160E-19
3.002406E+03	4.920352E-18	2.327497E-19
3.012348E+03	4.972237E-18	2.350250E-19
3.022289E+03	5.024633E-18	2.373198E-19
3.032231E+03	5.077611E-18	2.396373E-19
3.042173E+03	5.131007E-18	2.419697E-19
3.052115E+03	5.186846E-18	2.444124E-19
3.062056E+03	5.241669E-18	2.468022E-19
3.071998E+03	5.297170E-18	2.492188E-19
3.081940E+03	5.355108E-18	2.517449E-19
3.091882E+03	5.411939E-18	2.542137E-19
3.101823E+03	5.469406E-18	2.567070E-19
3.111765E+03	5.529318E-18	2.593096E-19
3.121707E+03	5.588042E-18	2.618509E-19
3.131649E+03	5.647371E-18	2.644151E-19
3.141590E+03	5.709165E-18	2.670889E-19
3.151532E+03	5.769697E-18	2.696980E-19
3.161474E+03	5.832713E-18	2.724172E-19
3.171416E+03	5.894424E-18	2.750695E-19
3.181357E+03	5.958641E-18	2.778327E-19
3.191299E+03	6.021510E-18	2.805270E-19
3.201241E+03	6.086910E-18	2.833330E-19
3.211182E+03	6.150924E-18	2.860681E-19
3.221124E+03	6.217498E-18	2.889158E-19
3.231066E+03	6.284663E-18	2.917845E-19
3.241008E+03	6.350386E-18	2.945797E-19
3.250949E+03	6.418715E-18	2.974891E-19
3.260891E+03	6.485567E-18	3.003233E-19
3.270833E+03	6.555058E-18	3.032729E-19
3.280775E+03	6.625140E-18	3.062428E-19
3.290716E+03	6.693692E-18	3.091349E-19
3.300658E+03	6.764937E-18	3.121444E-19
3.310600E+03	6.836775E-18	3.151739E-19
3.320542E+03	6.909207E-18	3.182234E-19
3.330483E+03	6.980041E-18	3.211919E-19
3.340425E+03	7.053645E-18	3.242805E-19
3.350367E+03	7.127847E-18	3.273888E-19
3.360309E+03	7.202649E-18	3.305170E-19
3.370250E+03	7.278053E-18	3.336649E-19
3.380192E+03	7.351775E-18	3.367278E-19
3.390134E+03	7.428367E-18	3.399142E-19
3.400076E+03	7.505565E-18	3.431202E-19
3.410017E+03	7.583372E-18	3.463458E-19
3.419959E+03	7.661788E-18	3.495908E-19
3.429901E+03	7.740814E-18	3.528552E-19
3.439843E+03	7.820453E-18	3.561389E-19
3.449784E+03	7.900706E-18	3.594420E-19
3.459726E+03	7.981574E-18	3.627642E-19
3.469668E+03	8.063057E-18	3.661055E-19
3.479609E+03	8.145156E-18	3.694658E-19
3.489551E+03	8.227873E-18	3.728450E-19
3.499493E+03	8.311207E-18	3.762429E-19
3.509435E+03	8.395159E-18	3.796595E-19
3.519376E+03	8.479728E-18	3.830947E-19
3.529318E+03	8.564911E-18	3.865479E-19
3.539260E+03	8.650718E-18	3.900197E-19
3.549202E+03	8.737128E-18	3.935089E-19
3.559143E+03	8.824163E-18	3.970164E-19
3.569085E+03	8.914468E-18	4.006609E-19
3.579027E+03	9.002738E-18	4.042038E-19
3.588969E+03	9.091627E-18	4.077641E-19
3.598910E+03	9.181112E-18	4.113409E-19
3.608852E+03	9.271206E-18	4.149346E-19
3.618794E+03	9.364667E-18	4.186682E-19
3.628736E+03	9.455975E-18	4.222948E-19
3.638677E+03	9.547878E-18	4.259371E-19
3.648619E+03	9.640363E-18	4.295945E-19
3.658561E+03	9.736286E-18	4.333940E-19
3.668503E+03	9.829954E-18	4.370818E-19
3.678444E+03	9.924197E-18	4.407839E-19
3.688386E+03	1.001900E-17	4.444996E-19
3.698328E+03	1.011730E-17	4.483586E-19
3.708270E+03	1.021324E-17	4.521014E-19
3.718211E+03	1.030972E-17	4.558566E-19
3.728153E+03	1.040974E-17	4.597561E-19
3.738095E+03	1.050731E-17	4.635350E-19
3.748037E+03	1.060539E-17	4.673248E-19
3.757978E+03	1.070705E-17	4.712598E-19
3.767920E+03	1.080616E-17	4.750702E-19
3.777862E+03	1.090887E-17	4.790264E-19
3.787803E+03	1.100896E-17	4.828551E-19
3.797745E+03	1.111268E-17	4.868297E-19
3.807687E+03	1.121370E-17	4.906736E-19
3.817629E+03	1.131517E-17	4.945242E-19
3.827570E+03	1.142029E-17	4.985211E-19
3.837512E+03	1.152263E-17	5.023833E-19
3.847454E+03	1.162863E-17	5.063916E-19
3.857396E+03	1.173175E-17	5.102615E-19
3.867337E+03	1.183856E-17	5.142781E-19
3.877279E+03	1.194242E-17	5.181530E-19
3.887221E+03	1.204998E-17	5.221747E-19
3.897163E+03	1.215451E-17	5.260511E-19
3.907104E+03	1.226274E-17	5.300739E-19
3.917046E+03	1.236787E-17	5.339486E-19
3.926988E+03	1.247670E-17	5.379686E-19
3.936930E+03	1.258582E-17	5.419868E-19
3.946871E+03	1.269170E-17	5.458513E-19
3.956813E+03	1.280129E-17	5.498608E-19
3.966755E+03	1.290756E-17	5.537133E-19
3.976697E+03	1.301754E-17	5.577106E-19
3.986638E+03	1.312410E-17	5.615464E-19
3.996580E+03	1.323437E-17	5.655262E-19
4.006522E+03	1.334476E-17	5.694964E-19
4.016464E+03	1.345160E-17	5.732999E-19
4.026405E+03	1.356214E-17	5.772460E-19
4.036347E+03	1.367271E-17	5.811784E-19
4.046289E+03	1.377958E-17	5.849384E-19
4.056230E+03	1.389012E-17	5.888393E-19
4.066172E+03	1.399687E-17	5.925639E-19
4.076114E+03	1.410728E-17	5.964285E-19
4.086056E+03	1.421758E-17	6.002726E-19
4.095997E+03	1.432392E-17	6.039345E-19
4.105939E+03	1.443389E-17	6.077341E-19
4.115881E+03	1.454366E-17	6.115093E-19
4.125823E+03	1.464930E-17	6.150957E-19
4.135764E+03	1.475854E-17	6.188177E-19
4.145706E+03	1.486747E-17	6.225112E-19
4.155648E+03	1.497212E-17	6.260096E-19
4.165590E+03	1.508031E-17	6.296407E-19
4.175531E+03	1.518809E-17	6.332388E-19
4.185473E+03	1.529140E-17	6.366353E-19
4.195415E+03	1.539821E-17	6.401619E-19
4.205357E+03	1.550449E-17	6.436506E-19
4.215298E+03	1.560613E-17	6.469313E-19
4.225240E+03	1.571122E-17	6.503393E-19
4.235182E+03	1.581565E-17	6.537046E-19
4.245124E+03	1.591528E-17	6.568559E-19
4.255065E+03	1.601828E-17	6.601308E-19
4.265007E+03	1.612051E-17	6.633588E-19
4.274949E+03	1.621776E-17	6.663662E-19
4.284891E+03	1.631831E-17	6.694942E-19
4.294832E+03	1.641798E-17	6.725709E-19
4.304774E+03	1.651251E-17	6.754214E-19
4.314716E+03	1.661027E-17	6.783897E-19
4.324658E+03	1.670705E-17	6.813021E-19
4.334599E+03	1.679851E-17	6.839834E-19
4.344541E+03	1.689318E-17	6.867801E-19
4.354483E+03	1.698676E-17	6.895178E-19
4.364424E+03	1.707491E-17	6.920208E-19
4.374366E+03	1.716624E-17	6.946377E-19
4.384308E+03	1.725641E-17	6.971936E-19
4.394250E+03	1.734107E-17	6.995126E-19
4.404191E+03	1.742891E-17	7.019456E-19
4.414133E+03	1.751558E-17	7.043171E-19
4.424075E+03	1.759668E-17	7.064509E-19
4.434017E+03	1.768099E-17	7.086997E-19
4.443958E+03	1.776413E-17	7.108878E-19
4.453900E+03	1.784167E-17	7.128381E-19
4.463842E+03	1.792247E-17	7.149051E-19
4.473784E+03	1.799766E-17	7.167349E-19
4.483725E+03	1.807616E-17	7.186828E-19
4.493667E+03	1.815352E-17	7.205720E-19
4.503609E+03	1.822527E-17	7.222248E-19
4.513551E+03	1.830038E-17	7.239979E-19
4.523492E+03	1.836990E-17	7.255364E-19
4.533434E+03	1.844283E-17	7.271963E-19
4.543376E+03	1.851016E-17	7.286226E-19
4.553318E+03	1.858095E-17	7.301720E-19
4.563259E+03	1.864615E-17	7.314891E-19
4.573201E+03	1.871488E-17	7.329313E-19
4.583143E+03	1.877804E-17	7.341427E-19
4.593085E+03	1.884475E-17	7.354802E-19
4.603026E+03	1.890593E-17	7.365891E-19
4.612968E+03	1.897071E-17	7.378258E-19
4.622910E+03	1.902997E-17	7.388350E-19
4.632851E+03	1.909290E-17	7.399740E-19
4.642793E+03	1.915033E-17	7.408875E-19
4.652735E+03	1.921148E-17	7.419323E-19
4.662677E+03	1.926715E-17	7.427533E-19
4.672618E+03	1.932198E-17	7.435297E-19
4.682560E+03	1.938060E-17	7.444395E-19
4.692502E+03	1.943380E-17	7.451289E-19
4.702444E+03	1.949085E-17	7.459534E-19
4.712385E+03	1.954250E-17	7.465593E-19
4.722327E+03	1.959340E-17	7.471246E-19
4.732269E+03	1.964822E-17	7.478276E-19
4.742211E+03	1.969771E-17	7.483152E-19
4.752152E+03	1.974652E-17	7.487651E-19
4.762094E+03	1.979467E-17	7.491786E-19
4.772036E+03	1.984685E-17	7.497324E-19
4.781978E+03	1.989376E-17	7.500750E-19
4.791919E+03	1.994008E-17	7.503839E-19
4.801861E+03	1.998584E-17	7.506599E-19
4.811803E+03	2.003105E-17	7.509039E-19
4.821745E+03	2.008041E-17	7.512916E-19
4.831686E+03	2.012461E-17	7.514742E-19
4.841628E+03	2.016834E-17	7.516275E-19
4.851570E+03	2.021161E-17	7.517523E-19
4.861512E+03	2.025446E-17	7.518498E-19
4.871453E+03	2.029690E-17	7.519208E-19
4.881395E+03	2.033896E-17	7.519658E-19
4.891337E+03	2.038067E-17	7.519866E-19
4.901279E+03	2.042203E-17	7.519832E-19
4.911220E+03	2.046310E-17	7.519572E-19
4.921162E+03	2.050387E-17	7.519089E-19
4.931104E+03	2.054438E-17	7.518394E-19
4.941045E+03	2.058465E-17	7.517496E-19
4.950987E+03	2.062470E-17	7.516404E-19
4.960929E+03	2.066456E-17	7.515127E-19
4.970871E+03	2.070424E-17	7.513669E-19
4.980812E+03	2.074380E-17	7.512047E-19
4.990754E+03	2.077851E-17	7.508562E-19
5.000696E+03	2.081783E-17	7.506628E-19
5.010638E+03	2.085707E-17	7.504549E-19
5.020579E+03	2.089626E-17	7.502335E-19
5.030521E+03	2.093071E-17	7.498306E-19
5.040463E+03	2.096985E-17	7.495847E-19
5.050405E+03	2.100902E-17	7.493278E-19
5.060346E+03	2.104351E-17	7.488923E-19
5.070288E+03	2.108277E-17	7.486156E-19
5.080230E+03	2.112211E-17	7.483296E-19
5.090172E+03	2.115684E-17	7.478689E-19
5.100113E+03	2.119642E-17	7.475681E-19
5.110055E+03	2.123142E-17	7.470941E-19
5.119997E+03	2.127131E-17	7.467805E-19
5.129939E+03	2.130667E-17	7.462962E-19
5.139880E+03	2.134225E-17	7.458082E-19
5.149822E+03	2.138278E-17	7.454814E-19
5.159764E+03	2.141884E-17	7.449869E-19
5.169706E+03	2.145992E-17	7.446548E-19
5.179647E+03	2.149655E-17	7.441567E-19
5.189589E+03	2.153349E-17	7.436578E-19
5.199531E+03	2.157077E-17	7.431587E-19
5.209472E+03	2.161315E-17	7.428232E-19
5.219414E+03	2.165116E-17	7.423254E-19
5.229356E+03	2.168958E-17	7.418294E-19
5.239298E+03	2.172840E-17	7.413355E-19
5.249239E+03	2.176766E-17	7.408445E-19
5.259181E+03	2.180736E-17	7.403566E-19
5.269123E+03	2.184754E-17	7.398724E-19
5.279065E+03	2.188819E-17	7.393924E-19
5.289006E+03	2.192936E-17	7.389172E-19
5.298948E+03	2.197105E-17	7.384473E-19
5.308890E+03	2.201328E-17	7.379833E-19
5.318832E+03	2.205607E-17	7.375253E-19
5.328773E+03	2.209942E-17	7.370736E-19
5.338715E+03	2.214337E-17	7.366289E-19
5.348657E+03	2.218314E-17	7.360330E-19
5.358599E+03	2.222831E-17	7.356038E-19
5.368540E+03	2.227411E-17	7.351826E-19
5.378482E+03	2.231577E-17	7.346119E-19
5.388424E+03	2.236287E-17	7.342080E-19
5.398366E+03	2.241066E-17	7.338133E-19
5.408307E+03	2.245432E-17	7.332707E-19
5.418249E+03	2.250349E-17	7.328950E-19
5.428191E+03	2.254856E-17	7.323728E-19
5.438133E+03	2.259916E-17	7.320172E-19
5.448074E+03	2.264568E-17	7.315162E-19
5.458016E+03	2.269293E-17	7.310261E-19
5.467958E+03	2.274577E-17	7.307025E-19
5.477900E+03	2.279452E-17	7.302344E-19
5.487841E+03	2.284403E-17	7.297776E-19
5.497783E+03	2.289917E-17	7.294870E-19
5.507725E+03	2.295023E-17	7.290529E-19
5.517666E+03	2.300207E-17	7.286304E-19
5.527608E+03	2.305469E-17	7.282192E-19
5.537550E+03	2.310810E-17	7.278199E-19
5.547492E+03	2.316230E-17	7.274317E-19
5.557433E+03	2.321730E-17	7.270552E-19
5.567375E+03	2.327309E-17	7.266902E-19
5.577317E+03	2.332968E-17	7.263363E-19
5.587259E+03	2.338708E-17	7.259940E-19
5.597200E+03	2.344527E-17	7.256626E-19
5.607142E+03	2.350426E-17	7.253423E-19
5.617084E+03	2.355913E-17	7.248817E-19
5.627026E+03	2.361971E-17	7.245833E-19
5.636967E+03	2.368110E-17	7.242958E-19
5.646909E+03	2.373834E-17	7.238682E-19
5.656851E+03	2.380130E-17	7.236017E-19
5.666793E+03	2.386009E-17	7.231950E-19
5.676734E+03	2.392462E-17	7.229491E-19
5.686676E+03	2.398497E-17	7.225631E-19
5.696618E+03	2.405106E-17	7.223369E-19
5.706560E+03	2.411293E-17	7.219704E-19
5.716501E+03	2.418054E-17	7.217626E-19
5.726443E+03	2.424391E-17	7.214151E-19
5.736385E+03	2.430802E-17	7.210764E-19
5.746327E+03	2.437285E-17	7.207466E-19
5.756268E+03	2.443840E-17	7.204254E-19
5.766210E+03	2.450972E-17	7.202610E-19
5.776152E+03	2.457669E-17	7.199559E-19
5.786093E+03	2.464435E-17	7.196587E-19
5.796035E+03	2.471270E-17	7.193688E-19
5.805977E+03	2.478171E-17	7.190862E-19
5.815919E+03	2.485139E-17	7.188106E-19
5.825860E+03	2.491660E-17	7.183941E-19
5.835802E+03	2.498754E-17	7.181315E-19
5.845744E+03	2.505909E-17	7.178748E-19
5.855686E+03	2.513126E-17	7.176237E-19
5.865627E+03	2.519885E-17	7.172311E-19
5.875569E+03	2.527216E-17	7.169904E-19
5.885511E+03	2.534603E-17	7.167545E-19
5.895453E+03	2.541526E-17	7.163767E-19
5.905394E+03	2.549018E-17	7.161490E-19
5.915336E+03	2.556040E-17	7.157792E-19
5.925278E+03	2.563631E-17	7.155590E-19
5.935220E+03	2.570744E-17	7.151958E-19
5.945161E+03	2.577900E-17	7.148355E-19
5.955103E+03	2.585622E-17	7.146231E-19
5.965045E+03	2.592858E-17	7.142676E-19
5.974987E+03	2.600129E-17	7.139139E-19
5.984928E+03	2.607435E-17	7.135618E-19
5.994870E+03	2.614770E-17	7.132105E-19
6.004812E+03	2.622136E-17	7.128604E-19
6.014754E+03	2.629527E-17	7.125103E-19
6.024695E+03	2.636942E-17	7.121606E-19
6.034637E+03	2.644378E-17	7.118104E-19
6.044579E+03	2.651832E-17	7.114594E-19
6.054521E+03	2.659302E-17	7.111076E-19
6.064462E+03	2.666784E-17	7.107543E-19
6.074404E+03	2.673736E-17	7.102558E-19
6.084346E+03	2.681232E-17	7.098985E-19
6.094287E+03	2.688733E-17	7.095390E-19
6.104229E+03	2.695689E-17	7.090336E-19
6.114171E+03	2.703185E-17	7.086679E-19
6.124113E+03	2.710129E-17	7.081562E-19
6.134054E+03	2.717606E-17	7.077831E-19
6.143996E+03	2.724523E-17	7.072635E-19
6.153938E+03	2.731418E-17	7.067393E-19
6.163880E+03	2.738842E-17	7.063523E-19
6.173821E+03	2.745688E-17	7.058179E-19
6.183763E+03	2.752503E-17	7.052780E-19
6.193705E+03	2.759282E-17	7.047321E-19
6.203647E+03	2.766022E-17	7.041799E-19
6.213588E+03	2.772718E-17	7.036209E-19
6.223530E+03	2.779365E-17	7.030545E-19
6.233472E+03	2.785959E-17	7.024805E-19
6.243414E+03	2.792496E-17	7.018986E-19
6.253355E+03	2.798970E-17	7.013082E-19
6.263297E+03	2.805378E-17	7.007089E-19
6.273239E+03	2.811713E-17	7.001003E-19
6.283181E+03	2.817408E-17	6.993422E-19
6.293122E+03	2.823584E-17	6.987141E-19
6.303064E+03	2.829672E-17	6.980752E-19
6.313006E+03	2.835102E-17	6.972862E-19
6.322948E+03	2.841000E-17	6.966254E-19
6.332889E+03	2.846227E-17	6.958140E-19
6.342831E+03	2.851913E-17	6.951295E-19
6.352773E+03	2.856918E-17	6.942944E-19
6.362714E+03	2.861804E-17	6.934473E-19
6.372656E+03	2.867137E-17	6.927258E-19
6.382598E+03	2.871773E-17	6.918539E-19
6.392540E+03	2.876278E-17	6.909696E-19
6.402481E+03	2.880647E-17	6.900732E-19
6.412423E+03	2.884880E-17	6.891651E-19
6.422365E+03	2.888972E-17	6.882454E-19
6.432307E+03	2.892922E-17	6.873147E-19
6.442248E+03	2.896731E-17	6.863741E-19
6.452190E+03	2.900396E-17	6.854238E-19
6.462132E+03	2.903918E-17	6.844652E-19
6.472074E+03	2.907295E-17	6.834988E-19
6.482015E+03	2.910528E-17	6.825254E-19
6.491957E+03	2.913037E-17	6.814098E-19
6.501899E+03	2.915979E-17	6.804227E-19
6.511841E+03	2.918773E-17	6.794275E-19
6.521782E+03	2.920834E-17	6.782886E-19
6.531724E+03	2.923321E-17	6.772751E-19
6.541666E+03	2.925067E-17	6.761165E-19
6.551608E+03	2.927234E-17	6.750809E-19
6.561549E+03	2.928654E-17	6.738990E-19
6.571491E+03	2.929907E-17	6.727046E-19
6.581433E+03	2.931576E-17	6.716307E-19
6.591375E+03	2.932493E-17	6.704097E-19
6.601316E+03	2.933241E-17	6.691751E-19
6.611258E+03	2.933821E-17	6.679268E-19
6.621200E+03	2.934234E-17	6.666647E-19
6.631142E+03	2.934479E-17	6.653888E-19
6.641083E+03	2.934561E-17	6.640994E-19
6.651025E+03	2.934478E-17	6.627965E-19
6.660967E+03	2.934234E-17	6.614801E-19
6.670908E+03	2.933831E-17	6.601507E-19
6.680850E+03	2.933270E-17	6.588084E-19
6.690792E+03	2.931971E-17	6.573226E-19
6.700734E+03	2.931102E-17	6.559553E-19
6.710675E+03	2.930083E-17	6.545759E-19
6.720617E+03	2.928333E-17	6.530545E-19
6.730559E+03	2.927019E-17	6.516516E-19
6.740501E+03	2.925561E-17	6.502370E-19
6.750442E+03	2.923380E-17	6.486822E-19
6.760384E+03	2.921060E-17	6.471167E-19
6.770326E+03	2.919184E-17	6.456694E-19
6.780268E+03	2.916591E-17	6.440830E-19
6.790209E+03	2.913866E-17	6.424865E-19
6.800151E+03	2.911589E-17	6.410079E-19
6.810093E+03	2.908604E-17	6.393917E-19
6.820035E+03	2.905492E-17	6.377659E-19
6.829976E+03	2.902255E-17	6.361307E-19
6.839918E+03	2.898894E-17	6.344862E-19
6.849860E+03	2.895412E-17	6.328326E-19
6.859802E+03	2.891810E-17	6.311698E-19
6.869743E+03	2.888090E-17	6.294985E-19
6.879685E+03	2.884253E-17	6.278183E-19
6.889627E+03	2.880302E-17	6.261295E-19
6.899569E+03	2.876237E-17	6.244323E-19
6.909510E+03	2.871488E-17	6.226025E-19
6.919452E+03	2.867201E-17	6.208889E-19
6.929394E+03	2.862807E-17	6.191675E-19
6.939335E+03	2.857734E-17	6.173148E-19
6.949277E+03	2.853127E-17	6.155780E-19
6.959219E+03	2.848416E-17	6.138336E-19
6.969161E+03	2.843033E-17	6.119593E-19
6.979102E+03	2.837550E-17	6.100784E-19
6.989044E+03	2.832535E-17	6.083127E-19
6.998986E+03	2.826856E-17	6.064188E-19
7.008928E+03	2.821644E-17	6.046395E-19
7.018869E+03	2.815774E-17	6.027332E-19
7.028811E+03	2.809809E-17	6.008209E-19
7.038753E+03	2.803753E-17	5.989032E-19
7.048695E+03	2.797604E-17	5.969799E-19
7.058636E+03	2.791368E-17	5.950517E-19
7.068578E+03	2.785600E-17	5.932372E-19
7.078520E+03	2.779185E-17	5.912988E-19
7.088462E+03	2.772128E-17	5.892377E-19
7.098403E+03	2.765543E-17	5.872908E-19
7.108345E+03	2.758873E-17	5.853398E-19
7.118287E+03	2.752121E-17	5.833849E-19
7.128229E+03	2.745287E-17	5.814267E-19
7.138170E+03	2.738371E-17	5.794648E-19
7.148112E+03	2.730826E-17	5.773841E-19
7.158054E+03	2.723752E-17	5.754168E-19
7.167996E+03	2.716600E-17	5.734471E-19
7.177937E+03	2.708824E-17	5.713599E-19
7.187879E+03	2.701519E-17	5.693862E-19
7.197821E+03	2.693595E-17	5.672964E-19
7.207763E+03	2.686141E-17	5.653200E-19
7.217704E+03	2.678071E-17	5.632287E-19
7.227646E+03	2.670471E-17	5.612507E-19
7.237588E+03	2.662259E-17	5.591593E-19
7.247529E+03	2.653978E-17	5.570681E-19
7.257471E+03	2.646164E-17	5.550901E-19
7.267413E+03	2.637744E-17	5.530004E-19
7.277355E+03	2.629257E-17	5.509121E-19
7.287296E+03	2.620703E-17	5.488256E-19
7.297238E+03	2.612083E-17	5.467410E-19
7.307180E+03	2.603397E-17	5.446588E-19
7.317122E+03	2.595172E-17	5.426893E-19
7.327063E+03	2.586355E-17	5.406123E-19
7.337005E+03	2.576949E-17	5.384290E-19
7.346947E+03	2.568004E-17	5.363592E-19
7.356889E+03	2.558995E-17	5.342932E-19
7.366830E+03	2.549924E-17	5.322314E-19
7.376772E+03	2.540788E-17	5.301740E-19
7.386714E+03	2.531589E-17	5.281213E-19
7.396656E+03	2.521814E-17	5.259665E-19
7.406597E+03	2.512492E-17	5.239247E-19
7.416539E+03	2.503108E-17	5.218886E-19
7.426481E+03	2.493153E-17	5.197522E-19
7.436423E+03	2.483645E-17	5.177285E-19
7.446364E+03	2.474077E-17	5.157115E-19
7.456306E+03	2.463941E-17	5.135958E-19
7.466248E+03	2.454250E-17	5.115930E-19
7.476190E+03	2.443995E-17	5.094927E-19
7.486131E+03	2.433682E-17	5.074009E-19
7.496073E+03	2.423808E-17	5.054213E-19
7.506015E+03	2.413375E-17	5.033462E-19
7.515956E+03	2.403377E-17	5.013831E-19
7.525898E+03	2.392824E-17	4.993257E-19
7.535840E+03	2.382213E-17	4.972778E-19
7.545782E+03	2.371541E-17	4.952392E-19
7.555723E+03	2.360810E-17	4.932103E-19
7.565665E+03	2.350505E-17	4.912929E-19
7.575607E+03	2.339652E-17	4.892836E-19
7.585549E+03	2.328739E-17	4.872846E-19
7.595490E+03	2.317764E-17	4.852957E-19
7.605432E+03	2.306729E-17	4.833173E-19
7.615374E+03	2.295632E-17	4.813493E-19
7.625316E+03	2.284474E-17	4.793921E-19
7.635257E+03	2.273253E-17	4.774453E-19
7.645199E+03	2.261499E-17	4.754103E-19
7.655141E+03	2.250154E-17	4.734852E-19
7.665083E+03	2.238745E-17	4.715708E-19
7.675024E+03	2.227273E-17	4.696671E-19
7.684966E+03	2.215736E-17	4.677742E-19
7.694908E+03	2.203674E-17	4.657945E-19
7.704850E+03	2.192009E-17	4.639231E-19
7.714791E+03	2.180278E-17	4.620620E-19
