#wls	flux	fluxerr
1.600000E+03	1.184726E-16	1.147924E-16
1.640000E+03	1.214723E-16	1.172159E-16
1.680000E+03	1.246044E-16	1.196996E-16
1.720000E+03	1.278754E-16	1.222415E-16
1.760000E+03	1.312917E-16	1.248384E-16
1.800000E+03	1.348719E-16	1.274973E-16
1.840000E+03	1.386118E-16	1.302027E-16
1.880000E+03	1.425186E-16	1.329484E-16
1.920000E+03	1.466116E-16	1.357379E-16
1.960000E+03	1.508986E-16	1.385625E-16
2.000000E+03	1.553876E-16	1.414116E-16
2.040000E+03	1.600863E-16	1.442724E-16
2.080000E+03	1.650024E-16	1.471301E-16
2.120000E+03	1.701561E-16	1.499785E-16
2.160000E+03	1.755417E-16	1.527858E-16
2.200000E+03	1.811920E-16	1.555515E-16
2.240000E+03	1.871000E-16	1.582370E-16
2.280000E+03	1.932842E-16	1.608227E-16
2.320000E+03	1.997627E-16	1.632849E-16
2.360000E+03	2.065236E-16	1.655716E-16
2.400000E+03	2.135958E-16	1.676608E-16
2.440000E+03	2.209772E-16	1.695014E-16
2.480000E+03	2.286774E-16	1.710481E-16
2.520000E+03	2.367022E-16	1.722490E-16
2.560000E+03	2.450369E-16	1.730345E-16
2.600000E+03	2.536763E-16	1.733401E-16
2.640000E+03	2.626241E-16	1.731058E-16
2.680000E+03	2.718255E-16	1.722331E-16
2.720000E+03	2.812806E-16	1.706624E-16
2.760000E+03	2.909428E-16	1.683090E-16
2.800000E+03	3.007306E-16	1.650775E-16
2.840000E+03	3.105762E-16	1.608962E-16
2.880000E+03	3.203692E-16	1.556907E-16
2.920000E+03	3.299863E-16	1.494093E-16
2.960000E+03	3.392672E-16	1.420206E-16
3.000000E+03	3.479880E-16	1.335159E-16
3.010000E+03	3.500548E-16	1.312204E-16
3.020000E+03	3.520734E-16	1.288612E-16
3.030000E+03	3.540200E-16	1.264329E-16
3.040000E+03	3.558886E-16	1.239370E-16
3.050000E+03	3.577103E-16	1.213880E-16
3.060000E+03	3.594416E-16	1.187751E-16
3.070000E+03	3.610944E-16	1.161067E-16
3.080000E+03	3.626615E-16	1.133852E-16
3.090000E+03	3.641172E-16	1.106076E-16
3.100000E+03	3.654905E-16	1.077881E-16
3.110000E+03	3.667366E-16	1.049192E-16
3.120000E+03	3.678654E-16	1.020100E-16
3.130000E+03	3.688679E-16	9.906441E-17
3.140000E+03	3.697350E-16	9.608667E-17
3.150000E+03	3.704568E-16	9.308134E-17
3.160000E+03	3.710414E-16	9.005759E-17
3.170000E+03	3.714423E-16	8.701168E-17
3.180000E+03	3.716844E-16	8.395748E-17
3.190000E+03	3.717212E-16	8.089241E-17
3.200000E+03	3.715765E-16	7.783005E-17
3.210000E+03	3.712209E-16	7.477235E-17
3.220000E+03	3.706598E-16	7.172864E-17
3.230000E+03	3.698470E-16	6.869824E-17
3.240000E+03	3.688217E-16	6.569673E-17
3.250000E+03	3.675216E-16	6.272077E-17
3.260000E+03	3.659692E-16	5.978223E-17
3.270000E+03	3.641541E-16	5.688661E-17
3.280000E+03	3.620507E-16	5.403689E-17
3.290000E+03	3.596676E-16	5.124098E-17
3.300000E+03	3.569834E-16	4.850181E-17
3.310000E+03	3.540263E-16	4.582860E-17
3.320000E+03	3.507503E-16	4.322002E-17
3.330000E+03	3.472051E-16	4.068640E-17
3.340000E+03	3.433831E-16	3.822989E-17
3.350000E+03	3.392828E-16	3.585286E-17
3.360000E+03	3.349368E-16	3.356061E-17
3.370000E+03	3.303815E-16	3.135781E-17
3.380000E+03	3.256174E-16	2.924487E-17
3.390000E+03	3.206914E-16	2.722617E-17
3.400000E+03	3.156540E-16	2.530563E-17
3.401168E+03	3.198967E-16	4.660939E-17
3.403815E+03	3.093152E-16	4.651567E-17
3.406462E+03	2.993063E-16	4.642994E-17
3.409109E+03	2.898104E-16	4.635125E-17
3.411756E+03	2.803381E-16	4.627544E-17
3.414403E+03	2.707343E-16	4.620133E-17
3.417049E+03	2.606529E-16	4.612655E-17
3.419696E+03	2.497119E-16	4.604891E-17
3.422343E+03	2.385439E-16	4.597328E-17
3.424990E+03	2.284975E-16	4.590826E-17
3.427637E+03	2.190716E-16	3.884741E-17
3.430284E+03	2.096454E-16	3.853885E-17
3.432931E+03	2.012096E-16	3.990816E-17
3.435578E+03	1.941105E-16	3.355271E-17
3.438225E+03	1.880140E-16	3.291440E-17
3.440872E+03	1.823589E-16	3.291154E-17
3.443519E+03	1.763813E-16	3.473164E-17
3.446166E+03	1.705469E-16	3.536671E-17
3.448813E+03	1.660493E-16	3.591578E-17
3.451460E+03	1.628289E-16	3.622847E-17
3.454107E+03	1.598949E-16	3.653058E-17
3.456754E+03	1.577965E-16	3.865181E-17
3.459401E+03	1.570232E-16	3.915360E-17
3.462048E+03	1.565484E-16	3.908251E-17
3.464694E+03	1.566228E-16	3.748380E-17
3.467341E+03	1.582373E-16	3.756020E-17
3.469988E+03	1.607832E-16	3.741237E-17
3.472635E+03	1.639141E-16	3.718529E-17
3.475282E+03	1.676303E-16	3.711043E-17
3.477929E+03	1.714302E-16	3.840784E-17
3.480576E+03	1.752661E-16	4.000062E-17
3.483223E+03	1.787918E-16	3.794150E-17
3.485870E+03	1.828191E-16	3.792376E-17
3.488517E+03	1.874317E-16	3.837593E-17
3.491164E+03	1.912325E-16	3.674103E-17
3.493811E+03	1.941977E-16	3.641935E-17
3.496458E+03	1.966376E-16	3.714892E-17
3.499105E+03	1.988387E-16	3.596875E-17
3.501752E+03	2.002758E-16	3.476470E-17
3.504399E+03	2.004351E-16	3.196810E-17
3.507046E+03	2.005109E-16	3.160137E-17
3.509693E+03	2.024378E-16	3.188498E-17
3.512339E+03	2.057980E-16	3.217917E-17
3.514986E+03	2.075700E-16	3.134930E-17
3.517633E+03	2.083746E-16	3.225895E-17
3.520280E+03	2.093585E-16	3.355611E-17
3.522927E+03	2.097931E-16	3.361070E-17
3.525574E+03	2.093677E-16	3.251697E-17
3.528221E+03	2.100652E-16	2.872328E-17
3.530868E+03	2.116585E-16	2.697005E-17
3.533515E+03	2.117111E-16	2.702877E-17
3.536162E+03	2.104140E-16	2.712285E-17
3.538809E+03	2.102516E-16	2.592026E-17
3.541456E+03	2.111047E-16	2.393965E-17
3.544103E+03	2.109782E-16	2.341323E-17
3.546750E+03	2.104457E-16	2.340584E-17
3.549397E+03	2.102118E-16	2.242155E-17
3.552044E+03	2.091178E-16	2.262830E-17
3.554691E+03	2.075459E-16	2.325237E-17
3.557338E+03	2.051257E-16	2.202747E-17
3.559984E+03	2.017137E-16	2.135438E-17
3.562631E+03	1.997235E-16	2.232053E-17
3.565278E+03	1.984262E-16	2.044007E-17
3.567925E+03	1.955636E-16	1.748051E-17
3.570572E+03	1.919481E-16	1.722387E-17
3.573219E+03	1.896469E-16	1.749529E-17
3.575866E+03	1.881701E-16	1.844726E-17
3.578513E+03	1.878883E-16	1.797929E-17
3.581160E+03	1.888374E-16	1.836070E-17
3.583807E+03	1.885198E-16	1.909117E-17
3.586454E+03	1.877720E-16	1.946609E-17
3.589101E+03	1.872155E-16	1.919906E-17
3.591748E+03	1.853682E-16	1.776204E-17
3.594395E+03	1.834610E-16	1.784440E-17
3.597042E+03	1.813387E-16	1.860538E-17
3.599689E+03	1.796466E-16	1.828358E-17
3.602336E+03	1.791377E-16	1.790559E-17
3.604983E+03	1.789636E-16	1.793133E-17
3.607629E+03	1.788493E-16	1.801202E-17
3.610276E+03	1.790577E-16	1.936487E-17
3.612923E+03	1.788120E-16	1.929596E-17
3.615570E+03	1.775979E-16	1.965703E-17
3.618217E+03	1.756187E-16	1.958078E-17
3.620864E+03	1.742014E-16	1.936585E-17
3.623511E+03	1.744936E-16	1.778674E-17
3.626158E+03	1.760652E-16	1.781723E-17
3.628805E+03	1.769435E-16	1.776811E-17
3.631452E+03	1.777143E-16	1.734850E-17
3.634099E+03	1.795613E-16	1.710307E-17
3.636746E+03	1.816237E-16	1.710816E-17
3.639393E+03	1.831960E-16	1.733269E-17
3.642040E+03	1.840749E-16	1.871844E-17
3.644687E+03	1.848702E-16	1.819047E-17
3.647334E+03	1.868136E-16	1.820920E-17
3.649981E+03	1.896303E-16	1.823058E-17
3.652628E+03	1.920764E-16	2.034746E-17
3.655274E+03	1.941998E-16	2.234496E-17
3.657921E+03	1.965627E-16	2.039267E-17
3.660568E+03	1.987702E-16	1.966852E-17
3.663215E+03	2.002603E-16	2.140223E-17
3.665862E+03	2.021572E-16	2.331468E-17
3.668509E+03	2.042098E-16	2.325221E-17
3.671156E+03	2.051979E-16	2.370677E-17
3.673803E+03	2.067006E-16	2.484979E-17
3.676450E+03	2.078804E-16	2.591688E-17
3.679097E+03	2.085339E-16	2.671099E-17
3.681744E+03	2.090200E-16	2.787472E-17
3.684391E+03	2.092909E-16	2.786897E-17
3.687038E+03	2.099567E-16	2.750834E-17
3.689685E+03	2.104191E-16	2.663742E-17
3.692332E+03	2.095295E-16	2.640587E-17
3.694979E+03	2.091305E-16	2.635663E-17
3.697626E+03	2.093418E-16	2.654982E-17
3.700273E+03	2.099362E-16	2.389212E-17
3.702919E+03	2.105786E-16	2.004864E-17
3.705566E+03	2.112809E-16	1.765405E-17
3.708213E+03	2.118277E-16	1.734808E-17
3.710860E+03	2.124824E-16	1.793261E-17
3.713507E+03	2.117965E-16	1.820895E-17
3.716154E+03	2.098417E-16	1.883112E-17
3.718801E+03	2.070968E-16	1.993882E-17
3.721448E+03	2.038489E-16	2.114482E-17
3.724095E+03	2.024924E-16	2.142832E-17
3.726742E+03	2.033028E-16	2.049482E-17
3.729389E+03	2.049754E-16	1.849482E-17
3.732036E+03	2.067320E-16	1.841638E-17
3.734683E+03	2.088001E-16	1.852332E-17
3.737330E+03	2.122934E-16	1.779663E-17
3.739977E+03	2.173318E-16	1.613094E-17
3.742624E+03	2.228975E-16	1.606828E-17
3.745271E+03	2.284159E-16	1.567491E-17
3.747918E+03	2.345816E-16	1.630553E-17
3.750564E+03	2.422450E-16	1.817507E-17
3.753211E+03	2.509152E-16	1.580382E-17
3.755858E+03	2.596101E-16	1.518768E-17
3.758505E+03	2.683898E-16	1.526454E-17
3.761152E+03	2.779729E-16	1.544196E-17
3.763799E+03	2.887787E-16	1.562154E-17
3.766446E+03	3.004842E-16	1.573242E-17
3.769093E+03	3.124543E-16	1.538631E-17
3.771740E+03	3.241979E-16	1.553671E-17
3.774387E+03	3.369851E-16	1.584614E-17
3.777034E+03	3.510796E-16	1.604090E-17
3.779681E+03	3.653072E-16	1.651070E-17
3.782328E+03	3.793925E-16	1.882776E-17
3.784975E+03	3.929758E-16	2.648659E-17
3.787622E+03	4.051582E-16	3.738858E-17
3.790269E+03	4.167666E-16	5.097335E-17
3.792916E+03	4.278608E-16	5.529251E-17
3.795562E+03	4.381891E-16	5.478478E-17
3.798209E+03	4.474395E-16	5.270165E-17
3.800856E+03	4.554683E-16	5.415537E-17
3.803503E+03	4.619395E-16	5.497469E-17
3.806150E+03	4.664573E-16	5.479351E-17
3.808797E+03	4.708197E-16	5.479344E-17
3.811444E+03	4.741156E-16	5.503426E-17
3.814091E+03	4.751937E-16	5.482938E-17
3.816738E+03	4.745574E-16	5.456491E-17
3.819385E+03	4.731297E-16	5.366938E-17
3.822032E+03	4.707665E-16	5.298434E-17
3.824679E+03	4.667482E-16	5.257420E-17
3.827326E+03	4.607388E-16	5.309436E-17
3.829973E+03	4.530497E-16	5.338838E-17
3.832620E+03	4.443525E-16	5.185180E-17
3.835267E+03	4.346948E-16	4.684171E-17
3.837914E+03	4.241486E-16	3.250795E-17
3.840561E+03	4.127257E-16	2.136724E-17
3.843207E+03	4.004979E-16	1.861622E-17
3.845854E+03	3.875852E-16	1.827742E-17
3.848501E+03	3.740832E-16	1.621265E-17
3.851148E+03	3.600160E-16	1.536442E-17
3.853795E+03	3.456235E-16	1.506269E-17
3.856442E+03	3.311096E-16	1.504699E-17
3.859089E+03	3.159341E-16	1.448189E-17
3.861736E+03	3.003252E-16	1.425256E-17
3.864383E+03	2.845226E-16	1.414615E-17
3.867030E+03	2.692826E-16	1.379298E-17
3.869677E+03	2.547011E-16	1.354415E-17
3.872324E+03	2.408264E-16	1.378974E-17
3.874971E+03	2.281507E-16	1.367168E-17
3.877618E+03	2.154616E-16	1.409292E-17
3.880265E+03	2.033956E-16	1.383926E-17
3.882912E+03	1.921327E-16	1.369087E-17
3.885559E+03	1.816610E-16	1.354621E-17
3.888206E+03	1.723770E-16	1.246345E-17
3.890852E+03	1.638125E-16	1.243438E-17
3.893499E+03	1.564480E-16	1.203711E-17
3.896146E+03	1.510402E-16	1.157191E-17
3.898793E+03	1.470371E-16	1.044247E-17
3.901440E+03	1.442946E-16	9.602025E-18
3.904087E+03	1.426568E-16	9.591272E-18
3.906734E+03	1.419919E-16	9.530467E-18
3.909381E+03	1.414951E-16	9.444145E-18
3.912028E+03	1.407219E-16	9.466258E-18
3.914675E+03	1.393240E-16	9.533519E-18
3.917322E+03	1.386708E-16	9.620884E-18
3.919969E+03	1.398919E-16	9.576785E-18
3.922616E+03	1.433481E-16	9.824758E-18
3.925263E+03	1.492080E-16	1.078872E-17
3.927910E+03	1.558616E-16	1.197548E-17
3.930557E+03	1.623358E-16	1.264936E-17
3.933204E+03	1.694837E-16	1.217485E-17
3.935851E+03	1.781949E-16	1.227061E-17
3.938497E+03	1.881932E-16	1.207661E-17
3.941144E+03	1.990220E-16	1.224928E-17
3.943791E+03	2.105373E-16	1.284343E-17
3.946438E+03	2.218615E-16	1.164927E-17
3.949085E+03	2.333553E-16	1.187333E-17
3.951732E+03	2.463413E-16	1.286427E-17
3.954379E+03	2.598097E-16	1.374153E-17
3.957026E+03	2.726304E-16	1.476567E-17
3.959673E+03	2.855967E-16	1.569086E-17
3.962320E+03	2.991298E-16	1.676920E-17
3.964967E+03	3.128328E-16	1.774554E-17
3.967614E+03	3.266577E-16	1.885511E-17
3.970261E+03	3.408329E-16	1.893721E-17
3.972908E+03	3.549376E-16	1.838318E-17
3.975555E+03	3.694168E-16	1.718720E-17
3.978202E+03	3.840300E-16	1.647530E-17
3.980849E+03	3.981156E-16	1.621610E-17
3.983495E+03	4.120464E-16	1.656477E-17
3.986142E+03	4.259547E-16	1.677767E-17
3.988789E+03	4.397203E-16	1.660928E-17
3.991436E+03	4.537762E-16	1.524955E-17
3.994083E+03	4.673645E-16	1.493273E-17
3.996730E+03	4.806293E-16	1.602475E-17
3.999377E+03	4.933783E-16	1.799704E-17
4.002024E+03	5.052861E-16	1.841626E-17
4.004671E+03	5.166297E-16	1.849899E-17
4.007318E+03	5.274690E-16	1.855355E-17
4.009965E+03	5.382614E-16	1.889468E-17
4.012612E+03	5.484170E-16	2.072647E-17
4.015259E+03	5.582126E-16	2.136935E-17
4.017906E+03	5.670100E-16	2.152606E-17
4.020553E+03	5.748452E-16	2.199285E-17
4.023200E+03	5.821997E-16	2.278473E-17
4.025847E+03	5.892900E-16	2.272212E-17
4.028494E+03	5.962006E-16	2.285972E-17
4.031140E+03	6.027748E-16	2.318560E-17
4.033787E+03	6.087957E-16	2.435174E-17
4.036434E+03	6.145282E-16	2.502802E-17
4.039081E+03	6.203337E-16	2.533213E-17
4.041728E+03	6.258628E-16	2.537498E-17
4.044375E+03	6.308625E-16	2.534861E-17
4.047022E+03	6.355013E-16	2.472516E-17
4.049669E+03	6.399117E-16	2.474583E-17
4.052316E+03	6.441902E-16	2.484324E-17
4.054963E+03	6.485293E-16	2.507351E-17
4.057610E+03	6.529052E-16	2.500365E-17
4.060257E+03	6.568838E-16	2.363855E-17
4.062904E+03	6.604893E-16	2.313691E-17
4.065551E+03	6.646135E-16	2.393836E-17
4.068198E+03	6.696181E-16	2.411706E-17
4.070845E+03	6.740447E-16	2.349883E-17
4.073492E+03	6.778931E-16	2.353084E-17
4.076139E+03	6.816817E-16	2.361801E-17
4.078785E+03	6.852417E-16	2.369796E-17
4.081432E+03	6.887418E-16	2.269922E-17
4.084079E+03	6.920614E-16	2.221385E-17
4.086726E+03	6.949835E-16	2.196184E-17
4.089373E+03	6.973632E-16	2.184483E-17
4.092020E+03	6.992005E-16	2.226946E-17
4.094667E+03	7.009536E-16	2.423174E-17
4.097314E+03	7.018626E-16	2.441126E-17
4.099961E+03	7.020721E-16	2.435605E-17
4.102608E+03	7.018715E-16	2.412032E-17
4.105255E+03	7.015502E-16	2.403724E-17
4.107902E+03	7.009394E-16	2.382954E-17
4.110549E+03	6.994959E-16	2.283199E-17
4.113196E+03	6.973887E-16	2.162939E-17
4.115843E+03	6.950641E-16	2.089076E-17
4.118490E+03	6.923288E-16	2.062972E-17
4.121137E+03	6.896536E-16	2.057199E-17
4.123784E+03	6.869660E-16	2.058322E-17
4.126431E+03	6.837590E-16	2.049109E-17
4.129078E+03	6.800327E-16	2.070439E-17
4.131724E+03	6.761490E-16	2.188575E-17
4.134371E+03	6.726028E-16	2.261847E-17
4.137018E+03	6.697322E-16	2.279583E-17
4.139665E+03	6.669578E-16	2.312369E-17
4.142312E+03	6.634949E-16	2.272695E-17
4.144959E+03	6.593312E-16	2.295715E-17
4.147606E+03	6.546841E-16	2.283703E-17
4.150253E+03	6.500847E-16	2.287862E-17
4.152900E+03	6.449655E-16	2.288968E-17
4.155547E+03	6.380463E-16	2.258104E-17
4.158194E+03	6.304499E-16	2.220630E-17
4.160841E+03	6.236619E-16	2.201389E-17
4.163488E+03	6.173440E-16	2.220576E-17
4.166135E+03	6.113758E-16	2.249772E-17
4.168782E+03	6.054068E-16	2.245619E-17
4.171429E+03	5.985672E-16	2.328426E-17
4.174075E+03	5.914007E-16	2.445201E-17
4.176722E+03	5.848132E-16	2.483246E-17
4.179369E+03	5.782250E-16	2.431049E-17
4.182016E+03	5.712613E-16	2.394365E-17
4.184663E+03	5.642969E-16	2.411656E-17
4.187310E+03	5.573799E-16	2.373983E-17
4.189957E+03	5.504742E-16	2.190364E-17
4.192604E+03	5.436039E-16	2.083663E-17
4.195251E+03	5.368658E-16	2.089533E-17
4.197898E+03	5.305137E-16	2.024527E-17
4.200545E+03	5.239069E-16	1.969697E-17
4.203192E+03	5.172510E-16	2.023065E-17
4.205839E+03	5.109208E-16	2.084573E-17
4.208486E+03	5.046019E-16	2.164881E-17
4.211133E+03	4.981492E-16	2.208957E-17
4.213780E+03	4.919255E-16	2.198340E-17
4.216427E+03	4.858703E-16	2.136392E-17
4.219074E+03	4.790284E-16	2.005534E-17
4.221721E+03	4.721857E-16	1.853004E-17
4.224367E+03	4.658864E-16	1.859542E-17
4.227014E+03	4.598887E-16	2.015328E-17
4.229661E+03	4.538662E-16	2.206083E-17
4.232308E+03	4.478187E-16	2.183024E-17
4.234955E+03	4.420245E-16	2.316209E-17
4.237602E+03	4.365080E-16	2.584151E-17
4.240249E+03	4.312690E-16	2.611742E-17
4.242896E+03	4.258479E-16	2.605193E-17
4.245543E+03	4.202567E-16	2.665708E-17
4.248190E+03	4.149917E-16	2.726705E-17
4.250837E+03	4.097986E-16	2.682477E-17
4.253484E+03	4.051252E-16	2.622493E-17
4.256131E+03	4.013831E-16	2.592313E-17
4.258778E+03	3.977617E-16	2.569165E-17
4.261425E+03	3.943092E-16	2.538612E-17
4.264072E+03	3.917761E-16	2.528690E-17
4.266719E+03	3.902354E-16	2.541396E-17
4.269365E+03	3.888880E-16	2.597465E-17
4.272012E+03	3.875284E-16	2.639075E-17
4.274659E+03	3.869192E-16	2.550431E-17
4.277306E+03	3.869999E-16	2.326819E-17
4.279953E+03	3.875407E-16	2.263603E-17
4.282600E+03	3.886264E-16	2.136298E-17
4.285247E+03	3.900632E-16	1.781426E-17
4.287894E+03	3.917666E-16	1.713218E-17
4.290541E+03	3.936396E-16	1.718818E-17
4.293188E+03	3.959487E-16	1.646292E-17
4.295835E+03	3.981974E-16	1.608347E-17
4.298482E+03	4.004584E-16	1.687859E-17
4.301129E+03	4.032405E-16	1.691153E-17
4.303776E+03	4.060590E-16	1.645175E-17
4.306423E+03	4.086113E-16	1.619388E-17
4.309070E+03	4.108851E-16	1.606062E-17
4.311717E+03	4.129411E-16	1.588741E-17
4.314364E+03	4.149123E-16	1.606852E-17
4.317011E+03	4.170896E-16	1.566106E-17
4.319657E+03	4.193035E-16	1.467709E-17
4.322304E+03	4.213720E-16	1.376039E-17
4.324951E+03	4.234892E-16	1.346650E-17
4.327598E+03	4.256186E-16	1.325569E-17
4.330245E+03	4.276996E-16	1.256920E-17
4.332892E+03	4.297929E-16	1.238531E-17
4.335539E+03	4.320803E-16	1.255791E-17
4.338186E+03	4.344647E-16	1.222686E-17
4.340833E+03	4.363766E-16	1.224894E-17
4.343480E+03	4.376218E-16	1.202379E-17
4.346127E+03	4.386125E-16	1.168210E-17
4.348774E+03	4.393243E-16	1.164000E-17
4.351421E+03	4.395512E-16	1.165381E-17
4.354068E+03	4.390869E-16	1.202253E-17
4.356715E+03	4.387073E-16	1.253726E-17
4.359362E+03	4.397221E-16	1.321699E-17
4.362009E+03	4.415493E-16	1.436564E-17
4.364655E+03	4.428794E-16	1.518702E-17
4.367302E+03	4.439548E-16	1.573831E-17
4.369949E+03	4.445815E-16	1.626004E-17
4.372596E+03	4.451597E-16	1.626125E-17
4.375243E+03	4.462836E-16	1.573841E-17
4.377890E+03	4.475288E-16	1.542987E-17
4.380537E+03	4.484586E-16	1.550080E-17
4.383184E+03	4.495825E-16	1.495194E-17
4.385831E+03	4.506336E-16	1.486093E-17
4.388478E+03	4.515877E-16	1.514259E-17
4.391125E+03	4.530877E-16	1.507844E-17
4.393772E+03	4.551336E-16	1.459689E-17
4.396419E+03	4.573980E-16	1.458423E-17
4.399066E+03	4.595048E-16	1.480510E-17
4.401713E+03	4.618786E-16	1.530242E-17
4.404360E+03	4.644467E-16	1.583279E-17
4.407007E+03	4.667964E-16	1.585724E-17
4.409654E+03	4.687093E-16	1.521989E-17
4.412301E+03	4.703916E-16	1.452999E-17
4.414947E+03	4.725716E-16	1.394966E-17
4.417594E+03	4.747517E-16	1.367665E-17
4.420241E+03	4.763006E-16	1.355781E-17
4.422888E+03	4.776675E-16	1.315848E-17
4.425535E+03	4.793742E-16	1.301354E-17
4.428182E+03	4.811295E-16	1.305301E-17
4.430829E+03	4.825813E-16	1.309428E-17
4.433476E+03	4.839967E-16	1.306918E-17
4.436123E+03	4.852543E-16	1.329136E-17
4.438770E+03	4.860868E-16	1.343828E-17
4.441417E+03	4.865794E-16	1.339983E-17
4.444064E+03	4.868532E-16	1.371826E-17
4.446711E+03	4.870298E-16	1.419909E-17
4.449358E+03	4.870606E-16	1.446507E-17
4.452005E+03	4.866541E-16	1.441985E-17
4.454652E+03	4.860045E-16	1.458160E-17
4.457298E+03	4.848933E-16	1.488153E-17
4.459945E+03	4.830045E-16	1.507137E-17
4.462592E+03	4.808119E-16	1.477202E-17
4.465239E+03	4.784854E-16	1.356726E-17
4.467886E+03	4.758306E-16	1.265111E-17
4.470533E+03	4.727140E-16	1.252612E-17
4.473180E+03	4.694634E-16	1.278607E-17
4.475827E+03	4.658358E-16	1.292912E-17
4.478474E+03	4.617463E-16	1.249758E-17
4.481121E+03	4.573162E-16	1.322438E-17
4.483768E+03	4.531894E-16	1.490269E-17
4.486415E+03	4.494510E-16	1.535439E-17
4.489062E+03	4.455664E-16	1.532192E-17
4.491709E+03	4.417787E-16	1.510287E-17
4.494356E+03	4.382822E-16	1.482651E-17
4.497003E+03	4.345910E-16	1.451508E-17
4.499650E+03	4.304862E-16	1.422471E-17
4.502297E+03	4.260773E-16	1.379801E-17
4.504944E+03	4.216802E-16	1.322165E-17
4.507591E+03	4.174285E-16	1.274873E-17
4.510237E+03	4.131400E-16	1.266261E-17
4.512884E+03	4.088998E-16	1.247422E-17
4.515531E+03	4.051210E-16	1.218673E-17
4.518178E+03	4.019618E-16	1.254471E-17
4.520825E+03	3.991426E-16	1.327545E-17
4.523472E+03	3.969917E-16	1.379264E-17
4.526119E+03	3.954605E-16	1.415552E-17
4.528766E+03	3.943302E-16	1.374376E-17
4.531413E+03	3.939900E-16	1.198231E-17
4.534060E+03	3.943912E-16	1.125491E-17
4.536707E+03	3.952421E-16	1.115549E-17
4.539354E+03	3.961903E-16	1.123911E-17
4.542001E+03	3.971507E-16	1.135977E-17
4.544648E+03	3.987432E-16	1.131444E-17
4.547295E+03	4.013814E-16	1.119739E-17
4.549942E+03	4.043966E-16	1.117577E-17
4.552588E+03	4.078496E-16	1.143082E-17
