#wls	flux	fluxerr
1.600000E+03	1.507702E-16	1.460642E-16
1.640000E+03	1.546456E-16	1.492007E-16
1.680000E+03	1.586930E-16	1.524163E-16
1.720000E+03	1.628958E-16	1.556842E-16
1.760000E+03	1.672881E-16	1.590251E-16
1.800000E+03	1.718532E-16	1.624099E-16
1.840000E+03	1.766266E-16	1.658573E-16
1.880000E+03	1.815915E-16	1.693351E-16
1.920000E+03	1.867708E-16	1.728465E-16
1.960000E+03	1.921607E-16	1.763678E-16
2.000000E+03	1.977848E-16	1.798987E-16
2.040000E+03	2.036532E-16	1.834235E-16
2.080000E+03	2.097613E-16	1.869111E-16
2.120000E+03	2.161181E-16	1.903398E-16
2.160000E+03	2.227474E-16	1.936980E-16
2.200000E+03	2.296425E-16	1.969440E-16
2.240000E+03	2.368263E-16	2.000584E-16
2.280000E+03	2.443057E-16	2.030041E-16
2.320000E+03	2.520859E-16	2.057392E-16
2.360000E+03	2.601874E-16	2.082298E-16
2.400000E+03	2.686295E-16	2.104364E-16
2.440000E+03	2.774303E-16	2.123133E-16
2.480000E+03	2.865875E-16	2.137948E-16
2.520000E+03	2.961133E-16	2.148216E-16
2.560000E+03	3.060344E-16	2.153405E-16
2.600000E+03	3.163362E-16	2.152644E-16
2.640000E+03	3.270353E-16	2.145251E-16
2.680000E+03	3.381218E-16	2.130344E-16
2.720000E+03	3.495758E-16	2.106982E-16
2.760000E+03	3.613856E-16	2.074300E-16
2.800000E+03	3.734828E-16	2.031174E-16
2.840000E+03	3.858212E-16	1.976734E-16
2.880000E+03	3.983531E-16	1.910272E-16
2.920000E+03	4.109151E-16	1.830776E-16
2.960000E+03	4.234158E-16	1.737980E-16
3.000000E+03	4.356298E-16	1.631552E-16
3.010000E+03	4.386173E-16	1.602864E-16
3.020000E+03	4.415800E-16	1.573397E-16
3.030000E+03	4.444899E-16	1.543080E-16
3.040000E+03	4.473411E-16	1.511931E-16
3.050000E+03	4.501734E-16	1.480122E-16
3.060000E+03	4.529346E-16	1.447519E-16
3.070000E+03	4.556180E-16	1.414150E-16
3.080000E+03	4.582622E-16	1.380187E-16
3.090000E+03	4.608137E-16	1.345521E-16
3.100000E+03	4.632876E-16	1.310258E-16
3.110000E+03	4.656752E-16	1.274438E-16
3.120000E+03	4.679446E-16	1.238046E-16
3.130000E+03	4.701319E-16	1.201255E-16
3.140000E+03	4.721813E-16	1.164000E-16
3.150000E+03	4.741277E-16	1.126457E-16
3.160000E+03	4.759139E-16	1.088579E-16
3.170000E+03	4.775735E-16	1.050544E-16
3.180000E+03	4.790480E-16	1.012322E-16
3.190000E+03	4.803693E-16	9.740921E-17
3.200000E+03	4.815002E-16	9.358856E-17
3.210000E+03	4.824255E-16	8.977890E-17
3.220000E+03	4.831516E-16	8.599308E-17
3.230000E+03	4.836171E-16	8.223201E-17
3.240000E+03	4.838490E-16	7.851259E-17
3.250000E+03	4.838289E-16	7.484344E-17
3.260000E+03	4.835162E-16	7.122985E-17
3.270000E+03	4.828923E-16	6.768073E-17
3.280000E+03	4.819601E-16	6.420758E-17
3.290000E+03	4.807014E-16	6.081816E-17
3.300000E+03	4.790783E-16	5.751733E-17
3.310000E+03	4.770974E-16	5.431484E-17
3.320000E+03	4.747473E-16	5.121705E-17
3.330000E+03	4.720009E-16	4.822763E-17
3.340000E+03	4.688780E-16	4.535392E-17
3.350000E+03	4.653853E-16	4.260006E-17
3.360000E+03	4.615377E-16	3.996917E-17
3.370000E+03	4.573595E-16	3.746331E-17
3.380000E+03	4.528840E-16	3.508338E-17
3.390000E+03	4.481528E-16	3.282911E-17
3.400000E+03	4.432315E-16	3.070027E-17
3.410000E+03	4.381339E-16	2.869131E-17
3.420000E+03	4.329450E-16	2.679980E-17
3.430000E+03	4.276900E-16	2.501697E-17
3.440000E+03	4.224025E-16	2.333264E-17
3.450000E+03	4.171215E-16	2.173563E-17
3.460000E+03	4.118408E-16	2.021226E-17
3.470000E+03	4.065784E-16	1.875113E-17
3.480000E+03	4.013165E-16	1.734114E-17
3.490000E+03	3.960739E-16	1.597568E-17
3.500000E+03	3.908647E-16	1.465134E-17
3.510000E+03	3.857086E-16	1.336913E-17
3.520000E+03	3.806946E-16	1.213743E-17
3.530000E+03	3.758844E-16	1.096961E-17
3.540000E+03	3.714169E-16	9.888836E-18
3.550000E+03	3.674471E-16	8.926178E-18
3.560000E+03	3.641387E-16	8.116430E-18
3.570000E+03	3.616543E-16	7.496275E-18
3.580000E+03	3.601168E-16	7.113817E-18
3.590000E+03	3.597013E-16	7.025639E-18
3.600000E+03	3.605072E-16	7.252488E-18
3.610000E+03	3.625541E-16	7.734758E-18
3.620000E+03	3.658100E-16	8.372538E-18
3.630000E+03	3.702012E-16	9.079032E-18
3.640000E+03	3.756607E-16	9.794277E-18
3.650000E+03	3.821259E-16	1.048032E-17
3.660000E+03	3.895127E-16	1.111330E-17
3.670000E+03	3.977245E-16	1.167803E-17
3.680000E+03	4.066340E-16	1.216400E-17
3.690000E+03	4.161045E-16	1.256466E-17
3.700000E+03	4.259974E-16	1.287774E-17
3.710000E+03	4.360817E-16	1.310298E-17
3.720000E+03	4.461266E-16	1.324571E-17
3.730000E+03	4.557765E-16	1.331342E-17
3.740000E+03	4.646359E-16	1.331821E-17
3.750000E+03	4.722177E-16	1.327424E-17
3.760000E+03	4.779619E-16	1.319541E-17
3.770000E+03	4.813383E-16	1.309336E-17
3.780000E+03	4.818437E-16	1.297132E-17
3.790000E+03	4.791598E-16	1.282260E-17
3.800000E+03	4.732146E-16	1.263175E-17
3.810000E+03	4.642085E-16	1.238324E-17
3.820000E+03	4.526009E-16	1.207172E-17
3.830000E+03	4.390727E-16	1.170679E-17
3.840000E+03	4.244771E-16	1.131096E-17
3.850000E+03	4.097846E-16	1.091331E-17
3.860000E+03	3.960149E-16	1.054303E-17
3.870000E+03	3.841620E-16	1.022540E-17
3.880000E+03	3.750841E-16	9.978217E-18
3.890000E+03	3.695479E-16	9.813154E-18
3.900000E+03	3.681503E-16	9.735273E-18
3.910000E+03	3.714085E-16	9.746719E-18
3.920000E+03	3.797065E-16	9.845763E-18
3.930000E+03	3.933430E-16	1.002872E-17
3.940000E+03	4.125593E-16	1.029171E-17
3.950000E+03	4.374496E-16	1.062987E-17
3.960000E+03	4.679380E-16	1.103921E-17
3.970000E+03	5.037454E-16	1.151765E-17
3.980000E+03	5.442339E-16	1.206236E-17
3.990000E+03	5.884502E-16	1.267081E-17
4.000000E+03	6.350875E-16	1.333402E-17
4.010000E+03	6.825457E-16	1.402964E-17
4.020000E+03	7.290248E-16	1.472460E-17
4.030000E+03	7.727188E-16	1.537910E-17
4.040000E+03	8.119220E-16	1.594609E-17
4.050000E+03	8.451728E-16	1.638558E-17
4.060000E+03	8.714001E-16	1.667072E-17
4.070000E+03	8.898878E-16	1.677989E-17
4.080000E+03	9.003797E-16	1.671072E-17
4.090000E+03	9.030567E-16	1.648195E-17
4.100000E+03	8.984965E-16	1.612392E-17
4.110000E+03	8.875636E-16	1.568521E-17
4.120000E+03	8.713277E-16	1.522271E-17
4.130000E+03	8.509673E-16	1.478076E-17
4.140000E+03	8.276294E-16	1.440277E-17
4.150000E+03	8.024035E-16	1.411317E-17
4.160000E+03	7.760402E-16	1.388257E-17
4.170000E+03	7.492027E-16	1.367492E-17
4.180000E+03	7.224954E-16	1.347116E-17
4.190000E+03	6.964620E-16	1.325920E-17
4.200000E+03	6.716321E-16	1.303936E-17
4.210000E+03	6.484704E-16	1.281842E-17
4.220000E+03	6.274149E-16	1.259899E-17
4.230000E+03	6.088515E-16	1.238345E-17
4.240000E+03	5.930868E-16	1.217280E-17
4.250000E+03	5.803160E-16	1.196071E-17
4.260000E+03	5.706939E-16	1.174355E-17
4.270000E+03	5.642879E-16	1.152066E-17
4.280000E+03	5.610309E-16	1.128734E-17
4.290000E+03	5.607964E-16	1.104183E-17
4.300000E+03	5.634530E-16	1.078540E-17
4.310000E+03	5.687668E-16	1.051406E-17
4.320000E+03	5.764729E-16	1.022503E-17
4.330000E+03	5.862322E-16	9.913795E-18
4.340000E+03	5.975369E-16	9.567174E-18
4.350000E+03	6.097058E-16	9.182821E-18
4.360000E+03	6.219392E-16	8.787006E-18
4.370000E+03	6.330938E-16	8.444118E-18
4.380000E+03	6.419296E-16	8.281750E-18
4.390000E+03	6.471930E-16	8.422786E-18
4.400000E+03	6.480320E-16	8.819493E-18
4.410000E+03	6.444772E-16	9.294622E-18
4.420000E+03	6.369882E-16	9.696656E-18
4.430000E+03	6.261070E-16	9.941284E-18
4.440000E+03	6.124742E-16	1.000823E-17
4.450000E+03	5.968783E-16	9.919539E-18
4.460000E+03	5.801549E-16	9.713137E-18
4.470000E+03	5.632731E-16	9.437384E-18
4.480000E+03	5.472098E-16	9.139765E-18
4.490000E+03	5.330039E-16	8.858477E-18
4.500000E+03	5.216922E-16	8.630468E-18
4.510000E+03	5.141968E-16	8.486083E-18
4.520000E+03	5.111953E-16	8.435990E-18
4.530000E+03	5.133084E-16	8.493592E-18
4.540000E+03	5.210200E-16	8.674228E-18
4.550000E+03	5.345162E-16	8.975025E-18
4.560000E+03	5.538273E-16	9.389494E-18
4.570000E+03	5.789338E-16	9.910666E-18
4.580000E+03	6.095711E-16	1.051430E-17
4.590000E+03	6.452867E-16	1.116875E-17
4.600000E+03	6.854634E-16	1.183999E-17
4.610000E+03	7.291954E-16	1.248323E-17
4.620000E+03	7.753270E-16	1.305780E-17
4.630000E+03	8.224832E-16	1.353582E-17
4.640000E+03	8.690484E-16	1.389879E-17
4.650000E+03	9.132355E-16	1.415305E-17
4.660000E+03	9.531786E-16	1.432395E-17
4.670000E+03	9.869847E-16	1.443190E-17
4.680000E+03	1.012904E-15	1.451534E-17
4.690000E+03	1.029589E-15	1.460033E-17
4.700000E+03	1.036257E-15	1.463229E-17
4.710000E+03	1.032829E-15	1.454380E-17
4.720000E+03	1.020038E-15	1.428815E-17
4.730000E+03	9.994037E-16	1.381509E-17
4.740000E+03	9.730821E-16	1.312296E-17
4.750000E+03	9.436357E-16	1.227502E-17
4.760000E+03	9.139042E-16	1.137997E-17
4.770000E+03	8.866801E-16	1.062672E-17
4.780000E+03	8.643353E-16	1.023676E-17
4.790000E+03	8.479317E-16	1.027642E-17
4.800000E+03	8.364017E-16	1.059835E-17
4.810000E+03	8.279832E-16	1.101527E-17
4.820000E+03	8.211721E-16	1.139043E-17
4.830000E+03	8.148842E-16	1.166917E-17
4.840000E+03	8.084898E-16	1.185739E-17
4.850000E+03	8.017803E-16	1.197656E-17
4.860000E+03	7.948883E-16	1.207092E-17
4.870000E+03	7.881624E-16	1.218464E-17
4.880000E+03	7.819762E-16	1.231884E-17
4.890000E+03	7.767539E-16	1.246849E-17
4.900000E+03	7.727971E-16	1.263738E-17
4.910000E+03	7.702494E-16	1.282239E-17
4.920000E+03	7.691007E-16	1.302963E-17
4.930000E+03	7.693111E-16	1.326812E-17
4.940000E+03	7.707803E-16	1.352212E-17
4.950000E+03	7.734190E-16	1.377398E-17
4.960000E+03	7.771896E-16	1.400366E-17
4.970000E+03	7.822150E-16	1.416772E-17
4.980000E+03	7.886386E-16	1.422957E-17
4.990000E+03	7.966057E-16	1.418418E-17
5.000000E+03	8.061335E-16	1.405570E-17
5.010000E+03	8.170734E-16	1.390040E-17
5.020000E+03	8.289727E-16	1.378899E-17
5.030000E+03	8.409233E-16	1.378140E-17
5.040000E+03	8.517163E-16	1.393919E-17
5.050000E+03	8.599834E-16	1.428882E-17
5.060000E+03	8.643966E-16	1.476095E-17
5.070000E+03	8.638411E-16	1.525067E-17
5.080000E+03	8.577021E-16	1.566303E-17
5.090000E+03	8.461155E-16	1.591104E-17
5.100000E+03	8.297952E-16	1.593989E-17
5.110000E+03	8.098849E-16	1.573464E-17
5.120000E+03	7.878181E-16	1.530594E-17
5.130000E+03	7.651434E-16	1.469759E-17
5.140000E+03	7.433119E-16	1.397675E-17
5.150000E+03	7.235766E-16	1.321224E-17
5.160000E+03	7.069375E-16	1.247480E-17
5.170000E+03	6.941261E-16	1.182569E-17
5.180000E+03	6.854770E-16	1.129929E-17
5.190000E+03	6.810687E-16	1.092060E-17
5.200000E+03	6.806828E-16	1.069903E-17
5.210000E+03	6.837886E-16	1.061005E-17
5.220000E+03	6.896535E-16	1.062742E-17
5.230000E+03	6.975287E-16	1.072915E-17
5.240000E+03	7.067338E-16	1.087359E-17
5.250000E+03	7.166960E-16	1.102567E-17
5.260000E+03	7.270622E-16	1.116938E-17
5.270000E+03	7.376528E-16	1.129285E-17
5.280000E+03	7.485213E-16	1.139731E-17
5.290000E+03	7.598820E-16	1.149215E-17
5.300000E+03	7.720445E-16	1.157966E-17
5.310000E+03	7.854071E-16	1.166924E-17
5.320000E+03	8.003138E-16	1.177291E-17
5.330000E+03	8.169644E-16	1.188607E-17
5.340000E+03	8.354241E-16	1.201297E-17
5.350000E+03	8.555743E-16	1.216076E-17
5.360000E+03	8.770770E-16	1.230596E-17
5.370000E+03	8.993677E-16	1.243002E-17
5.380000E+03	9.217185E-16	1.252827E-17
5.390000E+03	9.432175E-16	1.258127E-17
5.400000E+03	9.628590E-16	1.258467E-17
5.410000E+03	9.796464E-16	1.253117E-17
5.420000E+03	9.928151E-16	1.235845E-17
5.430000E+03	1.001864E-15	1.201373E-17
5.440000E+03	1.006680E-15	1.148418E-17
5.450000E+03	1.007747E-15	1.077748E-17
5.460000E+03	1.006132E-15	9.983199E-18
5.470000E+03	1.003638E-15	9.242227E-18
5.480000E+03	1.002990E-15	8.674675E-18
5.490000E+03	1.006973E-15	8.506719E-18
5.500000E+03	1.017266E-15	8.886565E-18
5.510000E+03	1.033861E-15	9.598449E-18
5.520000E+03	1.055708E-15	1.040816E-17
5.530000E+03	1.081358E-15	1.121573E-17
5.540000E+03	1.109334E-15	1.191864E-17
5.550000E+03	1.138095E-15	1.247477E-17
5.560000E+03	1.166029E-15	1.290095E-17
5.570000E+03	1.191697E-15	1.317220E-17
5.580000E+03	1.213810E-15	1.330516E-17
5.590000E+03	1.231401E-15	1.335389E-17
5.600000E+03	1.244038E-15	1.330894E-17
5.610000E+03	1.251774E-15	1.321030E-17
5.620000E+03	1.255137E-15	1.313732E-17
5.630000E+03	1.255082E-15	1.308077E-17
5.640000E+03	1.252757E-15	1.308384E-17
5.650000E+03	1.249287E-15	1.322228E-17
5.660000E+03	1.245611E-15	1.343820E-17
5.670000E+03	1.242331E-15	1.368952E-17
5.680000E+03	1.239698E-15	1.397581E-17
5.690000E+03	1.237620E-15	1.421371E-17
5.700000E+03	1.235682E-15	1.433699E-17
5.710000E+03	1.233175E-15	1.432439E-17
5.720000E+03	1.229306E-15	1.413236E-17
5.730000E+03	1.223148E-15	1.377048E-17
5.740000E+03	1.213879E-15	1.329382E-17
5.750000E+03	1.200928E-15	1.272476E-17
5.760000E+03	1.183936E-15	1.216671E-17
5.770000E+03	1.162987E-15	1.174035E-17
5.780000E+03	1.138845E-15	1.141037E-17
5.790000E+03	1.112605E-15	1.117626E-17
5.800000E+03	1.085396E-15	1.108056E-17
5.810000E+03	1.058424E-15	1.105167E-17
5.820000E+03	1.032804E-15	1.105535E-17
5.830000E+03	1.009476E-15	1.111199E-17
5.840000E+03	9.892206E-16	1.117436E-17
5.850000E+03	9.726077E-16	1.122299E-17
5.860000E+03	9.599478E-16	1.127811E-17
5.870000E+03	9.513105E-16	1.131896E-17
5.880000E+03	9.465174E-16	1.134281E-17
5.890000E+03	9.451837E-16	1.136955E-17
5.900000E+03	9.467798E-16	1.138552E-17
5.910000E+03	9.506351E-16	1.139225E-17
5.920000E+03	9.560061E-16	1.139568E-17
5.930000E+03	9.622513E-16	1.134460E-17
5.940000E+03	9.687876E-16	1.120283E-17
5.950000E+03	9.751296E-16	1.097592E-17
5.960000E+03	9.809997E-16	1.067694E-17
5.970000E+03	9.862717E-16	1.038321E-17
5.980000E+03	9.909056E-16	1.017878E-17
5.990000E+03	9.949574E-16	1.003451E-17
6.000000E+03	9.984504E-16	9.949683E-18
6.010000E+03	1.001204E-15	9.953022E-18
6.020000E+03	1.002707E-15	9.968658E-18
6.030000E+03	1.002224E-15	9.969984E-18
6.040000E+03	9.990024E-16	1.000019E-17
6.050000E+03	9.925248E-16	1.004493E-17
6.060000E+03	9.824675E-16	1.014779E-17
6.070000E+03	9.688047E-16	1.037320E-17
6.080000E+03	9.520730E-16	1.064355E-17
6.090000E+03	9.331652E-16	1.087687E-17
6.100000E+03	9.131510E-16	1.104797E-17
6.110000E+03	8.932100E-16	1.112274E-17
6.120000E+03	8.745217E-16	1.110329E-17
6.130000E+03	8.581179E-16	1.103045E-17
6.140000E+03	8.447231E-16	1.093478E-17
6.150000E+03	8.348309E-16	1.086093E-17
6.160000E+03	8.286855E-16	1.083991E-17
6.170000E+03	8.262892E-16	1.083294E-17
6.180000E+03	8.274088E-16	1.079028E-17
6.190000E+03	8.317033E-16	1.068226E-17
6.200000E+03	8.387097E-16	1.048038E-17
6.210000E+03	8.478493E-16	1.019877E-17
6.220000E+03	8.582860E-16	9.905946E-18
6.230000E+03	8.688799E-16	9.705766E-18
6.240000E+03	8.784472E-16	9.744040E-18
6.250000E+03	8.862865E-16	1.006157E-17
6.260000E+03	8.923988E-16	1.049398E-17
6.270000E+03	8.968675E-16	1.087379E-17
6.280000E+03	8.995703E-16	1.112167E-17
6.290000E+03	9.002217E-16	1.120856E-17
6.300000E+03	8.984140E-16	1.116335E-17
6.310000E+03	8.937928E-16	1.103319E-17
6.320000E+03	8.864986E-16	1.082217E-17
6.330000E+03	8.768733E-16	1.054933E-17
6.340000E+03	8.653744E-16	1.025557E-17
6.350000E+03	8.526591E-16	9.954696E-18
6.360000E+03	8.394252E-16	9.689962E-18
6.370000E+03	8.262035E-16	9.504576E-18
6.380000E+03	8.133808E-16	9.361308E-18
6.390000E+03	8.011962E-16	9.230060E-18
6.400000E+03	7.898780E-16	9.112208E-18
6.410000E+03	7.797294E-16	8.989257E-18
6.420000E+03	7.710741E-16	8.879560E-18
6.430000E+03	7.643014E-16	8.827430E-18
6.440000E+03	7.598865E-16	8.834057E-18
6.450000E+03	7.583129E-16	8.912115E-18
6.460000E+03	7.599206E-16	9.066543E-18
6.470000E+03	7.648798E-16	9.216980E-18
6.480000E+03	7.731388E-16	9.271121E-18
6.490000E+03	7.844309E-16	9.174305E-18
6.500000E+03	7.981818E-16	8.901746E-18
6.510000E+03	8.135066E-16	8.506743E-18
6.520000E+03	8.292735E-16	8.140583E-18
6.530000E+03	8.442433E-16	7.990274E-18
6.540000E+03	8.575838E-16	8.161296E-18
6.550000E+03	8.691875E-16	8.572437E-18
6.560000E+03	8.793693E-16	9.034971E-18
6.570000E+03	8.884620E-16	9.452482E-18
6.580000E+03	8.966954E-16	9.823134E-18
6.590000E+03	9.042817E-16	1.012169E-17
6.600000E+03	9.112972E-16	1.035881E-17
6.610000E+03	9.177231E-16	1.057698E-17
6.620000E+03	9.236126E-16	1.076809E-17
6.630000E+03	9.289250E-16	1.095209E-17
6.640000E+03	9.335450E-16	1.118561E-17
6.650000E+03	9.373074E-16	1.148282E-17
6.660000E+03	9.399883E-16	1.187219E-17
6.670000E+03	9.414454E-16	1.237227E-17
6.680000E+03	9.417032E-16	1.289613E-17
6.690000E+03	9.408959E-16	1.333069E-17
6.700000E+03	9.390789E-16	1.359820E-17
6.710000E+03	9.363040E-16	1.365024E-17
6.720000E+03	9.325039E-16	1.347071E-17
6.730000E+03	9.275687E-16	1.307450E-17
6.740000E+03	9.213126E-16	1.249866E-17
6.750000E+03	9.135413E-16	1.181533E-17
6.760000E+03	9.041932E-16	1.111066E-17
6.770000E+03	8.935086E-16	1.045374E-17
6.780000E+03	8.818952E-16	9.945939E-18
6.790000E+03	8.698033E-16	9.659289E-18
6.800000E+03	8.577575E-16	9.529585E-18
6.810000E+03	8.462503E-16	9.496407E-18
6.820000E+03	8.356845E-16	9.539628E-18
6.830000E+03	8.263334E-16	9.596537E-18
6.840000E+03	8.183330E-16	9.636404E-18
6.850000E+03	8.116186E-16	9.663866E-18
6.860000E+03	8.059633E-16	9.649706E-18
6.870000E+03	8.010081E-16	9.587975E-18
6.880000E+03	7.963119E-16	9.497816E-18
6.890000E+03	7.914723E-16	9.369754E-18
6.900000E+03	7.860946E-16	9.222344E-18
6.910000E+03	7.798457E-16	9.091622E-18
6.920000E+03	7.726183E-16	8.965043E-18
6.930000E+03	7.643805E-16	8.850966E-18
6.940000E+03	7.552266E-16	8.776506E-18
6.950000E+03	7.454144E-16	8.717478E-18
6.960000E+03	7.352768E-16	8.664689E-18
6.970000E+03	7.251930E-16	8.623287E-18
6.980000E+03	7.155852E-16	8.549906E-18
6.990000E+03	7.068642E-16	8.419328E-18
7.000000E+03	6.993902E-16	8.244912E-18
7.010000E+03	6.934170E-16	8.041286E-18
7.020000E+03	6.891024E-16	7.862745E-18
7.030000E+03	6.864974E-16	7.769525E-18
7.040000E+03	6.855216E-16	7.750649E-18
7.050000E+03	6.860128E-16	7.801643E-18
7.060000E+03	6.877101E-16	7.928373E-18
7.070000E+03	6.903338E-16	8.076613E-18
7.080000E+03	6.935365E-16	8.203719E-18
7.090000E+03	6.969745E-16	8.302906E-18
7.100000E+03	7.003019E-16	8.357470E-18
7.110000E+03	7.031700E-16	8.381592E-18
7.120000E+03	7.052652E-16	8.407400E-18
7.130000E+03	7.063256E-16	8.424851E-18
7.140000E+03	7.061181E-16	8.437177E-18
7.150000E+03	7.045108E-16	8.461144E-18
7.160000E+03	7.015174E-16	8.469399E-18
7.170000E+03	6.972321E-16	8.448500E-18
7.180000E+03	6.918812E-16	8.406270E-18
7.190000E+03	6.857475E-16	8.322403E-18
7.200000E+03	6.791803E-16	8.200334E-18
7.210000E+03	6.725071E-16	8.074266E-18
7.220000E+03	6.660033E-16	7.969186E-18
7.230000E+03	6.598689E-16	7.936485E-18
7.240000E+03	6.543075E-16	8.017130E-18
7.250000E+03	6.495473E-16	8.162240E-18
7.260000E+03	6.458069E-16	8.311269E-18
7.270000E+03	6.432868E-16	8.432560E-18
7.280000E+03	6.421713E-16	8.494784E-18
7.290000E+03	6.426349E-16	8.489429E-18
7.300000E+03	6.447831E-16	8.429513E-18
7.310000E+03	6.486680E-16	8.325134E-18
7.320000E+03	6.542354E-16	8.205212E-18
7.330000E+03	6.613255E-16	8.104435E-18
7.340000E+03	6.695769E-16	8.023618E-18
7.350000E+03	6.784594E-16	7.975038E-18
7.360000E+03	6.873256E-16	7.971978E-18
7.370000E+03	6.955462E-16	7.971977E-18
7.380000E+03	7.024518E-16	7.943994E-18
7.390000E+03	7.075218E-16	7.886938E-18
7.400000E+03	7.105069E-16	7.783976E-18
7.410000E+03	7.114359E-16	7.659832E-18
7.420000E+03	7.105418E-16	7.560707E-18
7.430000E+03	7.082847E-16	7.475853E-18
7.440000E+03	7.052690E-16	7.420022E-18
7.450000E+03	7.021086E-16	7.425250E-18
7.460000E+03	6.993112E-16	7.450322E-18
7.470000E+03	6.972620E-16	7.469588E-18
7.480000E+03	6.961893E-16	7.490534E-18
7.490000E+03	6.961480E-16	7.489486E-18
7.500000E+03	6.969912E-16	7.476799E-18
7.510000E+03	6.983892E-16	7.493868E-18
7.520000E+03	6.998414E-16	7.543553E-18
7.530000E+03	7.007039E-16	7.660478E-18
7.540000E+03	7.002767E-16	7.874590E-18
7.550000E+03	6.977971E-16	8.092726E-18
7.560000E+03	6.925468E-16	8.205026E-18
7.570000E+03	6.839375E-16	8.145697E-18
7.580000E+03	6.715444E-16	7.867473E-18
7.590000E+03	6.551723E-16	7.404692E-18
7.600000E+03	6.348687E-16	6.909091E-18
7.610000E+03	6.110215E-16	6.600101E-18
7.620000E+03	5.841627E-16	6.611819E-18
7.630000E+03	5.548857E-16	6.820638E-18
7.640000E+03	5.239853E-16	7.015429E-18
7.650000E+03	4.924163E-16	7.084415E-18
7.660000E+03	4.612196E-16	7.006639E-18
7.670000E+03	4.314801E-16	6.794890E-18
7.680000E+03	4.042236E-16	6.485523E-18
7.690000E+03	3.803283E-16	6.125954E-18
7.700000E+03	3.605090E-16	5.757398E-18
7.710000E+03	3.453456E-16	5.418045E-18
7.720000E+03	3.352750E-16	5.140360E-18
7.730000E+03	3.306109E-16	4.946288E-18
7.740000E+03	3.316008E-16	4.857017E-18
7.750000E+03	3.383869E-16	4.885069E-18
7.760000E+03	3.509235E-16	5.016618E-18
