#wls	flux	fluxerr
1.600000E+03	4.985047E-17	4.855963E-17
1.640000E+03	5.106184E-17	4.956629E-17
1.680000E+03	5.230840E-17	5.058402E-17
1.720000E+03	5.359273E-17	5.161277E-17
1.760000E+03	5.491716E-17	5.265202E-17
1.800000E+03	5.627404E-17	5.369143E-17
1.840000E+03	5.766815E-17	5.473234E-17
1.880000E+03	5.909408E-17	5.576613E-17
1.920000E+03	6.055238E-17	5.678961E-17
1.960000E+03	6.203635E-17	5.779255E-17
2.000000E+03	6.354517E-17	5.877005E-17
2.040000E+03	6.507050E-17	5.971005E-17
2.080000E+03	6.661319E-17	6.060884E-17
2.120000E+03	6.815949E-17	6.144924E-17
2.160000E+03	6.970466E-17	6.222241E-17
2.200000E+03	7.124283E-17	6.291842E-17
2.240000E+03	7.275638E-17	6.351719E-17
2.280000E+03	7.424010E-17	6.401000E-17
2.320000E+03	7.567692E-17	6.437822E-17
2.360000E+03	7.705522E-17	6.460869E-17
2.400000E+03	7.835492E-17	6.468199E-17
2.440000E+03	7.955800E-17	6.458176E-17
2.480000E+03	8.064869E-17	6.429488E-17
2.520000E+03	8.160667E-17	6.380621E-17
2.560000E+03	8.240754E-17	6.309947E-17
2.600000E+03	8.303362E-17	6.216598E-17
2.640000E+03	8.346084E-17	6.099469E-17
2.680000E+03	8.367321E-17	5.958330E-17
2.720000E+03	8.365356E-17	5.793134E-17
2.760000E+03	8.338494E-17	5.604134E-17
2.800000E+03	8.286168E-17	5.392616E-17
2.840000E+03	8.208104E-17	5.160264E-17
2.880000E+03	8.104521E-17	4.909240E-17
2.920000E+03	7.976904E-17	4.642577E-17
2.960000E+03	7.828118E-17	4.364071E-17
3.000000E+03	7.661715E-17	4.077715E-17
3.010000E+03	7.617982E-17	4.005450E-17
3.020000E+03	7.573447E-17	3.932993E-17
3.030000E+03	7.528473E-17	3.860555E-17
3.040000E+03	7.482908E-17	3.788079E-17
3.050000E+03	7.437119E-17	3.715769E-17
3.060000E+03	7.390973E-17	3.643574E-17
3.070000E+03	7.344845E-17	3.571693E-17
3.080000E+03	7.298617E-17	3.500081E-17
3.090000E+03	7.252432E-17	3.428817E-17
3.100000E+03	7.206673E-17	3.358090E-17
3.110000E+03	7.161251E-17	3.287860E-17
3.120000E+03	7.116556E-17	3.218309E-17
3.130000E+03	7.072519E-17	3.149401E-17
3.140000E+03	7.029538E-17	3.081308E-17
3.150000E+03	6.987558E-17	3.013997E-17
3.160000E+03	6.946766E-17	2.947536E-17
3.170000E+03	6.907572E-17	2.882086E-17
3.180000E+03	6.869950E-17	2.817613E-17
3.190000E+03	6.834322E-17	2.754267E-17
3.200000E+03	6.800679E-17	2.692016E-17
3.210000E+03	6.769241E-17	2.630917E-17
3.220000E+03	6.740445E-17	2.571104E-17
3.230000E+03	6.714523E-17	2.512622E-17
3.240000E+03	6.691299E-17	2.455363E-17
3.250000E+03	6.671442E-17	2.399525E-17
3.260000E+03	6.655211E-17	2.345147E-17
3.270000E+03	6.642672E-17	2.292194E-17
3.280000E+03	6.634108E-17	2.240705E-17
3.290000E+03	6.629817E-17	2.190717E-17
3.300000E+03	6.630308E-17	2.142329E-17
3.310000E+03	6.635902E-17	2.095571E-17
3.320000E+03	6.646538E-17	2.050348E-17
3.330000E+03	6.662969E-17	2.006818E-17
3.340000E+03	6.685569E-17	1.965009E-17
3.350000E+03	6.714534E-17	1.924895E-17
3.360000E+03	6.750278E-17	1.886514E-17
3.370000E+03	6.793241E-17	1.849906E-17
3.380000E+03	6.844088E-17	1.815170E-17
3.390000E+03	6.903313E-17	1.782354E-17
3.400000E+03	6.971040E-17	1.751411E-17
3.410000E+03	7.048226E-17	1.722514E-17
3.420000E+03	7.135260E-17	1.695691E-17
3.430000E+03	7.232976E-17	1.671083E-17
3.440000E+03	7.341834E-17	1.648750E-17
3.450000E+03	7.462537E-17	1.628820E-17
3.460000E+03	7.595826E-17	1.611441E-17
3.470000E+03	7.742700E-17	1.596827E-17
3.480000E+03	7.903763E-17	1.585123E-17
3.490000E+03	8.080088E-17	1.576591E-17
3.500000E+03	8.272098E-17	1.571380E-17
3.510000E+03	8.481134E-17	1.569840E-17
3.520000E+03	8.708092E-17	1.572246E-17
3.530000E+03	8.953358E-17	1.578798E-17
3.540000E+03	9.218229E-17	1.589871E-17
3.550000E+03	9.503192E-17	1.605699E-17
3.560000E+03	9.809118E-17	1.626577E-17
3.570000E+03	1.013592E-16	1.652627E-17
3.580000E+03	1.048434E-16	1.684088E-17
3.590000E+03	1.085406E-16	1.720987E-17
3.600000E+03	1.124496E-16	1.763347E-17
3.610000E+03	1.165567E-16	1.810945E-17
3.620000E+03	1.208557E-16	1.863624E-17
3.630000E+03	1.253267E-16	1.920964E-17
3.640000E+03	1.299514E-16	1.982519E-17
3.650000E+03	1.346967E-16	2.047570E-17
3.660000E+03	1.395383E-16	2.115499E-17
3.670000E+03	1.444376E-16	2.185434E-17
3.680000E+03	1.493558E-16	2.256483E-17
3.690000E+03	1.542555E-16	2.327755E-17
3.700000E+03	1.590857E-16	2.398154E-17
3.710000E+03	1.638110E-16	2.466818E-17
3.720000E+03	1.683847E-16	2.532724E-17
3.730000E+03	1.727663E-16	2.594963E-17
3.740000E+03	1.769190E-16	2.652697E-17
3.750000E+03	1.808152E-16	2.705258E-17
3.760000E+03	1.844198E-16	2.751894E-17
3.770000E+03	1.877226E-16	2.792261E-17
3.780000E+03	1.907071E-16	2.825954E-17
3.790000E+03	1.933690E-16	2.852792E-17
3.800000E+03	1.957120E-16	2.872738E-17
3.810000E+03	1.977468E-16	2.885905E-17
3.820000E+03	1.994911E-16	2.892532E-17
3.830000E+03	2.009734E-16	2.893046E-17
3.840000E+03	2.022122E-16	2.887753E-17
3.850000E+03	2.032489E-16	2.877313E-17
3.860000E+03	2.041127E-16	2.862219E-17
3.870000E+03	2.048381E-16	2.843055E-17
3.880000E+03	2.054545E-16	2.820339E-17
3.890000E+03	2.060038E-16	2.794767E-17
3.900000E+03	2.065104E-16	2.766794E-17
3.910000E+03	2.069993E-16	2.736890E-17
3.920000E+03	2.074959E-16	2.705528E-17
3.930000E+03	2.080051E-16	2.672923E-17
3.940000E+03	2.085410E-16	2.639414E-17
3.950000E+03	2.091064E-16	2.605217E-17
3.960000E+03	2.096984E-16	2.570486E-17
3.970000E+03	2.103080E-16	2.535328E-17
3.980000E+03	2.109259E-16	2.499869E-17
3.990000E+03	2.115236E-16	2.464026E-17
4.000000E+03	2.120829E-16	2.427873E-17
4.010000E+03	2.125782E-16	2.391409E-17
4.020000E+03	2.129816E-16	2.354622E-17
4.030000E+03	2.132647E-16	2.317492E-17
4.040000E+03	2.133995E-16	2.279994E-17
4.050000E+03	2.133594E-16	2.242092E-17
4.060000E+03	2.131209E-16	2.203749E-17
4.070000E+03	2.126640E-16	2.164919E-17
4.080000E+03	2.119732E-16	2.125551E-17
4.090000E+03	2.110385E-16	2.085596E-17
4.100000E+03	2.098506E-16	2.044962E-17
4.110000E+03	2.084204E-16	2.003707E-17
4.120000E+03	2.067457E-16	1.961717E-17
4.130000E+03	2.048437E-16	1.919033E-17
4.140000E+03	2.027365E-16	1.875709E-17
4.150000E+03	2.004372E-16	1.831694E-17
4.160000E+03	1.979714E-16	1.787037E-17
4.170000E+03	1.953761E-16	1.741876E-17
4.180000E+03	1.926771E-16	1.696234E-17
4.190000E+03	1.899012E-16	1.650142E-17
4.200000E+03	1.870839E-16	1.603704E-17
4.210000E+03	1.842556E-16	1.556981E-17
4.220000E+03	1.814455E-16	1.510032E-17
4.230000E+03	1.786807E-16	1.462913E-17
4.240000E+03	1.759820E-16	1.415650E-17
4.250000E+03	1.733751E-16	1.368343E-17
4.260000E+03	1.708784E-16	1.321071E-17
4.270000E+03	1.685067E-16	1.273944E-17
4.280000E+03	1.662714E-16	1.227114E-17
4.290000E+03	1.641764E-16	1.180764E-17
4.300000E+03	1.622295E-16	1.135210E-17
4.310000E+03	1.604310E-16	1.090836E-17
4.320000E+03	1.587753E-16	1.048122E-17
4.330000E+03	1.572608E-16	1.007719E-17
4.340000E+03	1.558805E-16	9.703825E-18
4.350000E+03	1.546265E-16	9.369729E-18
4.360000E+03	1.534870E-16	9.083807E-18
4.370000E+03	1.524571E-16	8.854869E-18
4.380000E+03	1.515301E-16	8.689681E-18
4.390000E+03	1.506978E-16	8.591341E-18
4.400000E+03	1.499607E-16	8.558233E-18
4.410000E+03	1.493187E-16	8.583681E-18
4.420000E+03	1.487719E-16	8.657765E-18
4.430000E+03	1.483292E-16	8.769622E-18
4.440000E+03	1.479994E-16	8.908364E-18
4.450000E+03	1.477906E-16	9.064037E-18
4.460000E+03	1.477160E-16	9.228489E-18
4.470000E+03	1.477957E-16	9.395730E-18
4.480000E+03	1.480391E-16	9.560744E-18
4.490000E+03	1.484613E-16	9.720377E-18
4.500000E+03	1.490796E-16	9.872915E-18
4.510000E+03	1.499070E-16	1.001742E-17
4.520000E+03	1.509514E-16	1.015349E-17
4.530000E+03	1.522234E-16	1.028158E-17
4.540000E+03	1.537240E-16	1.040208E-17
4.550000E+03	1.554555E-16	1.051591E-17
4.560000E+03	1.574123E-16	1.062387E-17
4.570000E+03	1.595767E-16	1.072630E-17
4.580000E+03	1.619402E-16	1.082447E-17
4.590000E+03	1.644727E-16	1.091843E-17
4.600000E+03	1.671435E-16	1.100840E-17
4.610000E+03	1.699190E-16	1.109444E-17
4.620000E+03	1.727537E-16	1.117575E-17
4.630000E+03	1.756038E-16	1.125142E-17
4.640000E+03	1.784192E-16	1.131978E-17
4.650000E+03	1.811415E-16	1.137826E-17
4.660000E+03	1.837262E-16	1.142483E-17
4.670000E+03	1.861247E-16	1.145697E-17
4.680000E+03	1.882899E-16	1.147219E-17
4.690000E+03	1.901889E-16	1.146910E-17
4.700000E+03	1.917869E-16	1.144664E-17
4.710000E+03	1.930773E-16	1.140615E-17
4.720000E+03	1.940434E-16	1.134919E-17
4.730000E+03	1.947012E-16	1.128018E-17
4.740000E+03	1.950560E-16	1.120368E-17
4.750000E+03	1.951404E-16	1.112634E-17
4.760000E+03	1.949848E-16	1.105468E-17
4.770000E+03	1.946321E-16	1.099536E-17
4.780000E+03	1.941222E-16	1.095352E-17
4.790000E+03	1.934997E-16	1.093275E-17
4.800000E+03	1.928087E-16	1.093441E-17
4.810000E+03	1.920950E-16	1.095815E-17
4.820000E+03	1.913982E-16	1.100204E-17
4.830000E+03	1.907478E-16	1.106292E-17
4.840000E+03	1.901833E-16	1.113811E-17
4.850000E+03	1.897292E-16	1.122444E-17
4.860000E+03	1.894124E-16	1.131950E-17
4.870000E+03	1.892475E-16	1.142092E-17
4.880000E+03	1.892473E-16	1.152709E-17
4.890000E+03	1.894191E-16	1.163691E-17
4.900000E+03	1.897681E-16	1.174993E-17
4.910000E+03	1.902873E-16	1.186570E-17
4.920000E+03	1.909680E-16	1.198428E-17
4.930000E+03	1.917969E-16	1.210596E-17
4.940000E+03	1.927596E-16	1.223137E-17
4.950000E+03	1.938316E-16	1.236070E-17
4.960000E+03	1.949887E-16	1.249423E-17
4.970000E+03	1.962043E-16	1.263192E-17
4.980000E+03	1.974541E-16	1.277352E-17
4.990000E+03	1.987059E-16	1.291778E-17
5.000000E+03	1.999308E-16	1.306305E-17
5.010000E+03	2.011006E-16	1.320707E-17
5.020000E+03	2.021883E-16	1.334700E-17
5.030000E+03	2.031721E-16	1.347983E-17
5.040000E+03	2.040259E-16	1.360183E-17
5.050000E+03	2.047302E-16	1.370947E-17
5.060000E+03	2.052699E-16	1.379944E-17
5.070000E+03	2.056347E-16	1.386883E-17
5.080000E+03	2.058237E-16	1.391564E-17
5.090000E+03	2.058320E-16	1.393797E-17
5.100000E+03	2.056754E-16	1.393578E-17
5.110000E+03	2.053661E-16	1.390928E-17
5.120000E+03	2.049261E-16	1.385985E-17
5.130000E+03	2.043835E-16	1.378970E-17
5.140000E+03	2.037742E-16	1.370194E-17
5.150000E+03	2.031268E-16	1.359945E-17
5.160000E+03	2.024856E-16	1.348625E-17
5.170000E+03	2.018843E-16	1.336565E-17
5.180000E+03	2.013549E-16	1.324078E-17
5.190000E+03	2.009364E-16	1.311500E-17
5.200000E+03	2.006565E-16	1.299075E-17
5.210000E+03	2.005301E-16	1.286937E-17
5.220000E+03	2.005767E-16	1.275225E-17
5.230000E+03	2.008053E-16	1.263991E-17
5.240000E+03	2.012223E-16	1.253246E-17
5.250000E+03	2.018211E-16	1.242903E-17
5.260000E+03	2.025897E-16	1.232828E-17
5.270000E+03	2.035219E-16	1.222912E-17
5.280000E+03	2.045978E-16	1.212946E-17
5.290000E+03	2.057987E-16	1.202708E-17
5.300000E+03	2.071047E-16	1.191942E-17
5.310000E+03	2.084965E-16	1.180352E-17
5.320000E+03	2.099562E-16	1.167593E-17
5.330000E+03	2.114685E-16	1.153268E-17
5.340000E+03	2.130217E-16	1.136924E-17
5.350000E+03	2.146121E-16	1.118070E-17
5.360000E+03	2.162303E-16	1.096110E-17
5.370000E+03	2.178832E-16	1.070476E-17
5.380000E+03	2.195838E-16	1.040589E-17
5.390000E+03	2.213406E-16	1.005850E-17
5.400000E+03	2.231833E-16	9.658101E-18
5.410000E+03	2.251376E-16	9.201218E-18
5.420000E+03	2.272356E-16	8.686995E-18
5.430000E+03	2.295268E-16	8.119250E-18
5.440000E+03	2.320551E-16	7.508259E-18
5.450000E+03	2.348682E-16	6.875613E-18
5.460000E+03	2.380278E-16	6.261427E-18
5.470000E+03	2.415835E-16	5.732663E-18
5.480000E+03	2.455855E-16	5.388182E-18
5.490000E+03	2.500761E-16	5.337833E-18
5.500000E+03	2.550844E-16	5.636903E-18
5.510000E+03	2.606209E-16	6.240715E-18
5.520000E+03	2.666758E-16	7.053838E-18
5.530000E+03	2.732171E-16	7.987441E-18
5.540000E+03	2.801881E-16	8.976803E-18
5.550000E+03	2.875061E-16	9.978189E-18
5.560000E+03	2.950603E-16	1.096205E-17
5.570000E+03	3.027115E-16	1.190782E-17
5.580000E+03	3.102942E-16	1.280061E-17
5.590000E+03	3.176193E-16	1.362925E-17
5.600000E+03	3.244855E-16	1.438537E-17
5.610000E+03	3.306678E-16	1.506173E-17
5.620000E+03	3.359583E-16	1.565311E-17
5.630000E+03	3.401586E-16	1.615531E-17
5.640000E+03	3.430971E-16	1.656535E-17
5.650000E+03	3.446459E-16	1.688207E-17
5.660000E+03	3.447075E-16	1.710528E-17
5.670000E+03	3.432530E-16	1.723757E-17
5.680000E+03	3.403065E-16	1.728351E-17
5.690000E+03	3.359256E-16	1.724847E-17
5.700000E+03	3.302284E-16	1.713990E-17
5.710000E+03	3.233678E-16	1.696593E-17
5.720000E+03	3.155063E-16	1.673419E-17
5.730000E+03	3.068425E-16	1.645345E-17
5.740000E+03	2.975607E-16	1.613147E-17
5.750000E+03	2.878629E-16	1.577705E-17
5.760000E+03	2.779234E-16	1.539805E-17
5.770000E+03	2.679225E-16	1.500331E-17
5.780000E+03	2.580068E-16	1.460049E-17
5.790000E+03	2.483227E-16	1.419780E-17
5.800000E+03	2.389863E-16	1.380205E-17
5.810000E+03	2.300968E-16	1.341924E-17
5.820000E+03	2.217473E-16	1.305502E-17
5.830000E+03	2.140039E-16	1.271341E-17
5.840000E+03	2.069182E-16	1.239754E-17
5.850000E+03	2.005377E-16	1.211028E-17
5.860000E+03	1.948876E-16	1.185319E-17
5.870000E+03	1.899843E-16	1.162744E-17
5.880000E+03	1.858339E-16	1.143368E-17
5.890000E+03	1.824321E-16	1.127207E-17
5.900000E+03	1.797654E-16	1.114231E-17
5.910000E+03	1.778115E-16	1.104365E-17
5.920000E+03	1.765389E-16	1.097480E-17
5.930000E+03	1.759108E-16	1.093414E-17
5.940000E+03	1.758735E-16	1.091895E-17
5.950000E+03	1.763739E-16	1.092650E-17
5.960000E+03	1.773513E-16	1.095357E-17
5.970000E+03	1.787303E-16	1.099601E-17
5.980000E+03	1.804411E-16	1.105006E-17
5.990000E+03	1.823985E-16	1.111118E-17
6.000000E+03	1.845270E-16	1.117552E-17
6.010000E+03	1.867428E-16	1.123896E-17
6.020000E+03	1.889651E-16	1.129771E-17
6.030000E+03	1.911284E-16	1.134899E-17
6.040000E+03	1.931675E-16	1.139006E-17
6.050000E+03	1.950331E-16	1.141891E-17
6.060000E+03	1.966937E-16	1.143432E-17
6.070000E+03	1.981258E-16	1.143507E-17
6.080000E+03	1.993329E-16	1.142109E-17
6.090000E+03	2.003361E-16	1.139286E-17
6.100000E+03	2.011632E-16	1.135098E-17
6.110000E+03	2.018688E-16	1.129743E-17
6.120000E+03	2.025097E-16	1.123431E-17
6.130000E+03	2.031543E-16	1.116463E-17
6.140000E+03	2.038775E-16	1.109209E-17
6.150000E+03	2.047573E-16	1.102103E-17
6.160000E+03	2.058733E-16	1.095644E-17
6.170000E+03	2.073078E-16	1.090406E-17
6.180000E+03	2.091315E-16	1.086967E-17
6.190000E+03	2.114245E-16	1.086019E-17
6.200000E+03	2.142527E-16	1.088236E-17
6.210000E+03	2.176790E-16	1.094324E-17
6.220000E+03	2.217590E-16	1.104961E-17
6.230000E+03	2.265387E-16	1.120753E-17
6.240000E+03	2.320557E-16	1.142170E-17
6.250000E+03	2.383219E-16	1.169394E-17
6.260000E+03	2.453445E-16	1.202387E-17
6.270000E+03	2.530953E-16	1.240754E-17
6.280000E+03	2.615201E-16	1.283828E-17
6.290000E+03	2.705291E-16	1.330659E-17
6.300000E+03	2.799960E-16	1.380049E-17
6.310000E+03	2.897424E-16	1.430502E-17
6.320000E+03	2.995447E-16	1.480287E-17
6.330000E+03	3.091572E-16	1.527576E-17
6.340000E+03	3.182739E-16	1.570267E-17
6.350000E+03	3.265894E-16	1.606303E-17
6.360000E+03	3.337992E-16	1.633688E-17
6.370000E+03	3.396114E-16	1.650563E-17
6.380000E+03	3.437851E-16	1.655417E-17
6.390000E+03	3.461469E-16	1.647199E-17
6.400000E+03	3.466135E-16	1.625461E-17
6.410000E+03	3.451841E-16	1.590346E-17
6.420000E+03	3.419579E-16	1.542689E-17
6.430000E+03	3.371207E-16	1.483949E-17
6.440000E+03	3.309290E-16	1.416118E-17
6.450000E+03	3.236946E-16	1.341628E-17
6.460000E+03	3.157458E-16	1.263176E-17
6.470000E+03	3.074254E-16	1.183729E-17
6.480000E+03	2.990462E-16	1.106386E-17
6.490000E+03	2.909096E-16	1.034502E-17
6.500000E+03	2.832617E-16	9.715271E-18
6.510000E+03	2.763066E-16	9.209434E-18
6.520000E+03	2.702021E-16	8.858848E-18
6.530000E+03	2.650402E-16	8.683350E-18
6.540000E+03	2.608413E-16	8.680355E-18
6.550000E+03	2.575564E-16	8.824396E-18
6.560000E+03	2.550881E-16	9.080379E-18
6.570000E+03	2.533223E-16	9.413866E-18
6.580000E+03	2.521325E-16	9.795255E-18
6.590000E+03	2.513888E-16	1.020109E-17
6.600000E+03	2.509512E-16	1.061315E-17
6.610000E+03	2.506891E-16	1.101804E-17
6.620000E+03	2.504651E-16	1.140527E-17
6.630000E+03	2.501662E-16	1.176746E-17
6.640000E+03	2.496831E-16	1.209850E-17
6.650000E+03	2.489165E-16	1.239313E-17
6.660000E+03	2.477872E-16	1.264681E-17
6.670000E+03	2.462343E-16	1.285544E-17
6.680000E+03	2.442192E-16	1.301558E-17
6.690000E+03	2.417145E-16	1.312401E-17
6.700000E+03	2.387196E-16	1.317887E-17
6.710000E+03	2.352431E-16	1.317913E-17
6.720000E+03	2.313137E-16	1.312548E-17
6.730000E+03	2.269774E-16	1.302036E-17
6.740000E+03	2.222836E-16	1.286728E-17
6.750000E+03	2.172971E-16	1.267147E-17
6.760000E+03	2.120808E-16	1.243870E-17
6.770000E+03	2.067031E-16	1.217560E-17
6.780000E+03	2.012346E-16	1.188935E-17
6.790000E+03	1.957360E-16	1.158678E-17
6.800000E+03	1.902688E-16	1.127495E-17
6.810000E+03	1.848820E-16	1.096020E-17
6.820000E+03	1.796204E-16	1.064854E-17
6.830000E+03	1.745244E-16	1.034548E-17
6.840000E+03	1.696217E-16	1.005537E-17
6.850000E+03	1.649393E-16	9.781976E-18
6.860000E+03	1.604929E-16	9.527732E-18
6.870000E+03	1.562986E-16	9.294395E-18
6.880000E+03	1.523634E-16	9.082469E-18
6.890000E+03	1.486957E-16	8.891941E-18
6.900000E+03	1.452962E-16	8.721870E-18
6.910000E+03	1.421686E-16	8.571165E-18
6.920000E+03	1.393102E-16	8.438215E-18
6.930000E+03	1.367198E-16	8.321478E-18
6.940000E+03	1.343977E-16	8.219589E-18
6.950000E+03	1.323415E-16	8.131157E-18
6.960000E+03	1.305468E-16	8.054795E-18
6.970000E+03	1.290108E-16	7.989394E-18
6.980000E+03	1.277329E-16	7.934107E-18
6.990000E+03	1.267097E-16	7.888092E-18
7.000000E+03	1.259355E-16	7.850531E-18
7.010000E+03	1.254056E-16	7.820906E-18
7.020000E+03	1.251165E-16	7.799007E-18
7.030000E+03	1.250610E-16	7.784690E-18
7.040000E+03	1.252290E-16	7.777871E-18
7.050000E+03	1.256123E-16	7.778884E-18
7.060000E+03	1.261975E-16	7.787933E-18
7.070000E+03	1.269737E-16	7.805553E-18
7.080000E+03	1.279244E-16	7.832030E-18
7.090000E+03	1.290367E-16	7.867861E-18
7.100000E+03	1.302933E-16	7.913181E-18
7.110000E+03	1.316817E-16	7.968253E-18
7.120000E+03	1.331887E-16	8.033064E-18
7.130000E+03	1.348015E-16	8.107328E-18
7.140000E+03	1.365150E-16	8.190907E-18
7.150000E+03	1.383236E-16	8.283312E-18
7.160000E+03	1.402314E-16	8.384282E-18
7.170000E+03	1.422428E-16	8.493285E-18
7.180000E+03	1.443722E-16	8.610120E-18
7.190000E+03	1.466372E-16	8.734551E-18
7.200000E+03	1.490579E-16	8.866349E-18
7.210000E+03	1.516636E-16	9.005786E-18
7.220000E+03	1.544851E-16	9.153257E-18
7.230000E+03	1.575532E-16	9.309326E-18
7.240000E+03	1.609029E-16	9.475060E-18
7.250000E+03	1.645749E-16	9.652208E-18
7.260000E+03	1.685975E-16	9.842185E-18
7.270000E+03	1.730012E-16	1.004688E-17
7.280000E+03	1.778164E-16	1.026850E-17
7.290000E+03	1.830508E-16	1.050807E-17
7.300000E+03	1.887187E-16	1.076700E-17
7.310000E+03	1.948049E-16	1.104490E-17
7.320000E+03	2.012861E-16	1.134070E-17
7.330000E+03	2.081119E-16	1.165162E-17
7.340000E+03	2.152196E-16	1.197403E-17
7.350000E+03	2.225051E-16	1.230205E-17
7.360000E+03	2.298620E-16	1.262989E-17
7.370000E+03	2.371441E-16	1.294991E-17
7.380000E+03	2.441990E-16	1.325456E-17
7.390000E+03	2.508557E-16	1.353550E-17
7.400000E+03	2.569493E-16	1.378475E-17
7.410000E+03	2.623186E-16	1.399415E-17
7.420000E+03	2.668201E-16	1.415577E-17
7.430000E+03	2.703325E-16	1.426193E-17
7.440000E+03	2.727774E-16	1.430631E-17
7.450000E+03	2.741089E-16	1.428366E-17
7.460000E+03	2.743146E-16	1.419023E-17
7.470000E+03	2.734274E-16	1.402494E-17
7.480000E+03	2.715064E-16	1.378883E-17
7.490000E+03	2.686317E-16	1.348525E-17
7.500000E+03	2.649115E-16	1.312051E-17
7.510000E+03	2.604615E-16	1.270304E-17
7.520000E+03	2.554042E-16	1.224333E-17
7.530000E+03	2.498592E-16	1.175343E-17
7.540000E+03	2.439527E-16	1.124717E-17
7.550000E+03	2.378012E-16	1.073905E-17
7.560000E+03	2.315100E-16	1.024383E-17
7.570000E+03	2.251877E-16	9.776571E-18
7.580000E+03	2.189173E-16	9.350726E-18
7.590000E+03	2.127829E-16	8.978412E-18
7.600000E+03	2.068496E-16	8.668487E-18
7.610000E+03	2.011775E-16	8.426095E-18
7.620000E+03	1.958105E-16	8.251399E-18
7.630000E+03	1.907803E-16	8.139852E-18
7.640000E+03	1.861098E-16	8.083598E-18
7.650000E+03	1.818136E-16	8.073205E-18
7.660000E+03	1.779107E-16	8.099617E-18
7.670000E+03	1.744168E-16	8.154671E-18
7.680000E+03	1.713456E-16	8.231489E-18
7.690000E+03	1.687218E-16	8.325067E-18
7.700000E+03	1.665591E-16	8.431083E-18
7.710000E+03	1.648812E-16	8.546675E-18
7.720000E+03	1.637081E-16	8.669641E-18
7.730000E+03	1.630555E-16	8.798241E-18
7.740000E+03	1.629421E-16	8.931519E-18
7.750000E+03	1.633824E-16	9.068888E-18
7.760000E+03	1.643742E-16	9.209374E-18
