#wls	flux	fluxerr
1.600000E+03	5.058578E-17	4.924585E-17
1.640000E+03	5.192148E-17	5.036661E-17
1.680000E+03	5.330473E-17	5.150870E-17
1.720000E+03	5.473881E-17	5.267243E-17
1.760000E+03	5.621986E-17	5.385093E-17
1.800000E+03	5.774702E-17	5.503999E-17
1.840000E+03	5.932611E-17	5.624141E-17
1.880000E+03	6.094832E-17	5.744281E-17
1.920000E+03	6.261847E-17	5.864439E-17
1.960000E+03	6.432632E-17	5.983194E-17
2.000000E+03	6.607895E-17	6.100709E-17
2.040000E+03	6.786438E-17	6.215349E-17
2.080000E+03	6.968050E-17	6.326374E-17
2.120000E+03	7.152039E-17	6.432584E-17
2.160000E+03	7.337581E-17	6.532649E-17
2.200000E+03	7.524081E-17	6.625447E-17
2.240000E+03	7.710033E-17	6.709052E-17
2.280000E+03	7.894508E-17	6.782087E-17
2.320000E+03	8.076018E-17	6.842722E-17
2.360000E+03	8.252873E-17	6.889032E-17
2.400000E+03	8.423567E-17	6.919334E-17
2.440000E+03	8.585237E-17	6.930955E-17
2.480000E+03	8.736744E-17	6.922789E-17
2.520000E+03	8.874850E-17	6.892227E-17
2.560000E+03	8.997313E-17	6.837700E-17
2.600000E+03	9.101026E-17	6.757246E-17
2.640000E+03	9.183968E-17	6.650030E-17
2.680000E+03	9.243023E-17	6.514737E-17
2.720000E+03	9.275600E-17	6.350818E-17
2.760000E+03	9.279744E-17	6.158535E-17
2.800000E+03	9.253221E-17	5.938328E-17
2.840000E+03	9.194788E-17	5.691652E-17
2.880000E+03	9.104366E-17	5.420964E-17
2.920000E+03	8.982261E-17	5.129143E-17
2.960000E+03	8.830715E-17	4.820268E-17
3.000000E+03	8.652848E-17	4.498799E-17
3.010000E+03	8.604914E-17	4.417111E-17
3.020000E+03	8.555832E-17	4.335093E-17
3.030000E+03	8.505426E-17	4.252690E-17
3.040000E+03	8.454093E-17	4.170135E-17
3.050000E+03	8.401950E-17	4.087516E-17
3.060000E+03	8.348853E-17	4.004790E-17
3.070000E+03	8.295212E-17	3.922183E-17
3.080000E+03	8.241171E-17	3.839785E-17
3.090000E+03	8.186878E-17	3.757682E-17
3.100000E+03	8.132233E-17	3.675847E-17
3.110000E+03	8.077666E-17	3.594490E-17
3.120000E+03	8.023353E-17	3.513698E-17
3.130000E+03	7.969226E-17	3.433448E-17
3.140000E+03	7.915731E-17	3.353937E-17
3.150000E+03	7.863069E-17	3.275246E-17
3.160000E+03	7.811205E-17	3.197356E-17
3.170000E+03	7.760603E-17	3.120449E-17
3.180000E+03	7.711489E-17	3.044598E-17
3.190000E+03	7.663861E-17	2.969783E-17
3.200000E+03	7.618434E-17	2.896257E-17
3.210000E+03	7.574765E-17	2.823819E-17
3.220000E+03	7.533809E-17	2.752794E-17
3.230000E+03	7.495382E-17	2.683071E-17
3.240000E+03	7.459994E-17	2.614788E-17
3.250000E+03	7.427716E-17	2.547918E-17
3.260000E+03	7.399294E-17	2.482660E-17
3.270000E+03	7.374388E-17	2.418835E-17
3.280000E+03	7.353980E-17	2.356700E-17
3.290000E+03	7.337979E-17	2.296147E-17
3.300000E+03	7.326957E-17	2.237279E-17
3.310000E+03	7.321075E-17	2.180058E-17
3.320000E+03	7.320935E-17	2.124576E-17
3.330000E+03	7.326944E-17	2.070855E-17
3.340000E+03	7.339531E-17	2.018914E-17
3.350000E+03	7.358939E-17	1.968718E-17
3.360000E+03	7.385646E-17	1.920292E-17
3.370000E+03	7.420363E-17	1.873715E-17
3.380000E+03	7.463625E-17	1.829011E-17
3.390000E+03	7.516000E-17	1.786212E-17
3.400000E+03	7.577885E-17	1.745304E-17
3.410000E+03	7.649922E-17	1.706339E-17
3.420000E+03	7.733221E-17	1.669470E-17
3.430000E+03	7.828099E-17	1.634678E-17
3.440000E+03	7.935342E-17	1.602060E-17
3.450000E+03	8.056009E-17	1.571778E-17
3.460000E+03	8.191006E-17	1.543975E-17
3.470000E+03	8.341082E-17	1.518787E-17
3.480000E+03	8.507262E-17	1.496429E-17
3.490000E+03	8.691090E-17	1.477233E-17
3.500000E+03	8.893274E-17	1.461417E-17
3.510000E+03	9.115013E-17	1.449322E-17
3.520000E+03	9.357791E-17	1.441370E-17
3.530000E+03	9.622637E-17	1.437941E-17
3.540000E+03	9.911055E-17	1.439514E-17
3.550000E+03	1.022426E-16	1.446540E-17
3.560000E+03	1.056309E-16	1.459414E-17
3.570000E+03	1.092845E-16	1.478523E-17
3.580000E+03	1.132124E-16	1.504217E-17
3.590000E+03	1.174175E-16	1.536696E-17
3.600000E+03	1.218945E-16	1.575978E-17
3.610000E+03	1.266352E-16	1.621951E-17
3.620000E+03	1.316279E-16	1.674359E-17
3.630000E+03	1.368471E-16	1.732680E-17
3.640000E+03	1.422666E-16	1.796301E-17
3.650000E+03	1.478458E-16	1.864364E-17
3.660000E+03	1.535439E-16	1.935964E-17
3.670000E+03	1.593067E-16	2.009991E-17
3.680000E+03	1.650818E-16	2.085347E-17
3.690000E+03	1.708048E-16	2.160781E-17
3.700000E+03	1.764130E-16	2.235073E-17
3.710000E+03	1.818470E-16	2.307065E-17
3.720000E+03	1.870412E-16	2.375545E-17
3.730000E+03	1.919377E-16	2.439433E-17
3.740000E+03	1.964892E-16	2.497819E-17
3.750000E+03	2.006476E-16	2.549825E-17
3.760000E+03	2.043840E-16	2.594850E-17
3.770000E+03	2.076710E-16	2.632364E-17
3.780000E+03	2.104981E-16	2.662088E-17
3.790000E+03	2.128719E-16	2.684008E-17
3.800000E+03	2.147966E-16	2.698118E-17
3.810000E+03	2.163075E-16	2.704846E-17
3.820000E+03	2.174401E-16	2.704660E-17
3.830000E+03	2.182339E-16	2.698108E-17
3.840000E+03	2.187348E-16	2.685846E-17
3.850000E+03	2.190130E-16	2.668849E-17
3.860000E+03	2.191117E-16	2.647771E-17
3.870000E+03	2.190986E-16	2.623568E-17
3.880000E+03	2.190248E-16	2.596994E-17
3.890000E+03	2.189423E-16	2.568805E-17
3.900000E+03	2.188972E-16	2.539680E-17
3.910000E+03	2.189334E-16	2.510255E-17
3.920000E+03	2.190722E-16	2.480896E-17
3.930000E+03	2.193446E-16	2.452072E-17
3.940000E+03	2.197580E-16	2.423979E-17
3.950000E+03	2.203146E-16	2.396762E-17
3.960000E+03	2.210073E-16	2.370467E-17
3.970000E+03	2.218241E-16	2.345104E-17
3.980000E+03	2.227311E-16	2.320462E-17
3.990000E+03	2.237053E-16	2.296474E-17
4.000000E+03	2.247039E-16	2.272878E-17
4.010000E+03	2.256793E-16	2.249389E-17
4.020000E+03	2.265949E-16	2.225846E-17
4.030000E+03	2.273987E-16	2.201938E-17
4.040000E+03	2.280439E-16	2.177408E-17
4.050000E+03	2.284860E-16	2.152007E-17
4.060000E+03	2.286845E-16	2.125508E-17
4.070000E+03	2.285995E-16	2.097664E-17
4.080000E+03	2.282122E-16	2.068386E-17
4.090000E+03	2.274975E-16	2.037492E-17
4.100000E+03	2.264438E-16	2.004883E-17
4.110000E+03	2.250483E-16	1.970500E-17
4.120000E+03	2.233129E-16	1.934289E-17
4.130000E+03	2.212614E-16	1.896354E-17
4.140000E+03	2.189081E-16	1.856685E-17
4.150000E+03	2.162915E-16	1.815454E-17
4.160000E+03	2.134390E-16	1.772717E-17
4.170000E+03	2.103951E-16	1.728653E-17
4.180000E+03	2.072033E-16	1.683421E-17
4.190000E+03	2.039086E-16	1.637179E-17
4.200000E+03	2.005521E-16	1.590050E-17
4.210000E+03	1.971857E-16	1.542239E-17
4.220000E+03	1.938434E-16	1.493815E-17
4.230000E+03	1.905674E-16	1.444920E-17
4.240000E+03	1.873916E-16	1.395651E-17
4.250000E+03	1.843418E-16	1.346069E-17
4.260000E+03	1.814454E-16	1.296284E-17
4.270000E+03	1.787203E-16	1.246389E-17
4.280000E+03	1.761789E-16	1.196504E-17
4.290000E+03	1.738241E-16	1.146777E-17
4.300000E+03	1.716601E-16	1.097479E-17
4.310000E+03	1.696824E-16	1.048969E-17
4.320000E+03	1.678785E-16	1.001742E-17
4.330000E+03	1.662385E-16	9.565263E-18
4.340000E+03	1.647462E-16	9.142574E-18
4.350000E+03	1.633806E-16	8.760968E-18
4.360000E+03	1.621264E-16	8.434494E-18
4.370000E+03	1.609632E-16	8.177827E-18
4.380000E+03	1.598791E-16	8.004425E-18
4.390000E+03	1.588628E-16	7.921769E-18
4.400000E+03	1.579054E-16	7.926878E-18
4.410000E+03	1.570060E-16	8.007054E-18
4.420000E+03	1.561747E-16	8.145089E-18
4.430000E+03	1.554129E-16	8.322680E-18
4.440000E+03	1.547405E-16	8.524315E-18
4.450000E+03	1.541756E-16	8.737307E-18
4.460000E+03	1.537366E-16	8.952119E-18
4.470000E+03	1.534470E-16	9.162404E-18
4.480000E+03	1.533339E-16	9.364542E-18
4.490000E+03	1.534197E-16	9.556625E-18
4.500000E+03	1.537312E-16	9.738588E-18
4.510000E+03	1.542885E-16	9.911091E-18
4.520000E+03	1.551117E-16	1.007561E-17
4.530000E+03	1.562200E-16	1.023414E-17
4.540000E+03	1.576226E-16	1.038836E-17
4.550000E+03	1.593256E-16	1.053997E-17
4.560000E+03	1.613315E-16	1.069049E-17
4.570000E+03	1.636296E-16	1.084061E-17
4.580000E+03	1.662037E-16	1.099059E-17
4.590000E+03	1.690316E-16	1.114019E-17
4.600000E+03	1.720765E-16	1.128806E-17
4.610000E+03	1.752951E-16	1.143229E-17
4.620000E+03	1.786358E-16	1.157020E-17
4.630000E+03	1.820425E-16	1.169862E-17
4.640000E+03	1.854444E-16	1.181329E-17
4.650000E+03	1.887790E-16	1.191038E-17
4.660000E+03	1.919740E-16	1.198547E-17
4.670000E+03	1.949653E-16	1.203487E-17
4.680000E+03	1.976846E-16	1.205511E-17
4.690000E+03	2.000851E-16	1.204474E-17
4.700000E+03	2.021185E-16	1.200325E-17
4.710000E+03	2.037637E-16	1.193297E-17
4.720000E+03	2.050049E-16	1.183800E-17
4.730000E+03	2.058458E-16	1.172501E-17
4.740000E+03	2.063054E-16	1.160286E-17
4.750000E+03	2.064171E-16	1.148208E-17
4.760000E+03	2.062260E-16	1.137405E-17
4.770000E+03	2.057858E-16	1.128972E-17
4.780000E+03	2.051548E-16	1.123801E-17
4.790000E+03	2.043952E-16	1.122400E-17
4.800000E+03	2.035562E-16	1.124737E-17
4.810000E+03	2.026931E-16	1.130475E-17
4.820000E+03	2.018541E-16	1.139082E-17
4.830000E+03	2.010832E-16	1.149979E-17
4.840000E+03	2.004195E-16	1.162623E-17
4.850000E+03	1.998971E-16	1.176551E-17
4.860000E+03	1.995442E-16	1.191401E-17
4.870000E+03	1.993831E-16	1.206910E-17
4.880000E+03	1.994301E-16	1.222898E-17
4.890000E+03	1.996947E-16	1.239254E-17
4.900000E+03	2.001773E-16	1.255895E-17
4.910000E+03	2.008809E-16	1.272826E-17
4.920000E+03	2.017903E-16	1.289988E-17
4.930000E+03	2.028934E-16	1.307383E-17
4.940000E+03	2.041699E-16	1.324986E-17
4.950000E+03	2.055945E-16	1.342756E-17
4.960000E+03	2.071376E-16	1.360627E-17
4.970000E+03	2.087630E-16	1.378485E-17
4.980000E+03	2.104409E-16	1.396241E-17
4.990000E+03	2.121271E-16	1.413686E-17
5.000000E+03	2.137856E-16	1.430634E-17
5.010000E+03	2.153740E-16	1.446817E-17
5.020000E+03	2.168606E-16	1.462001E-17
5.030000E+03	2.182027E-16	1.475844E-17
5.040000E+03	2.193710E-16	1.488058E-17
5.050000E+03	2.203375E-16	1.498347E-17
5.060000E+03	2.210775E-16	1.506421E-17
5.070000E+03	2.215800E-16	1.512088E-17
5.080000E+03	2.218392E-16	1.515202E-17
5.090000E+03	2.218589E-16	1.515702E-17
5.100000E+03	2.216487E-16	1.513601E-17
5.110000E+03	2.212343E-16	1.509049E-17
5.120000E+03	2.206465E-16	1.502265E-17
5.130000E+03	2.199230E-16	1.493544E-17
5.140000E+03	2.191039E-16	1.483217E-17
5.150000E+03	2.182388E-16	1.471692E-17
5.160000E+03	2.173724E-16	1.459345E-17
5.170000E+03	2.165542E-16	1.446585E-17
5.180000E+03	2.158279E-16	1.433764E-17
5.190000E+03	2.152288E-16	1.421167E-17
5.200000E+03	2.147930E-16	1.409059E-17
5.210000E+03	2.145458E-16	1.397619E-17
5.220000E+03	2.145055E-16	1.386951E-17
5.230000E+03	2.146794E-16	1.377075E-17
5.240000E+03	2.150708E-16	1.367956E-17
5.250000E+03	2.156792E-16	1.359517E-17
5.260000E+03	2.164952E-16	1.351597E-17
5.270000E+03	2.175041E-16	1.343976E-17
5.280000E+03	2.186846E-16	1.336356E-17
5.290000E+03	2.200157E-16	1.328403E-17
5.300000E+03	2.214811E-16	1.319762E-17
5.310000E+03	2.230487E-16	1.309928E-17
5.320000E+03	2.247060E-16	1.298452E-17
5.330000E+03	2.264270E-16	1.284737E-17
5.340000E+03	2.281981E-16	1.268192E-17
5.350000E+03	2.300034E-16	1.248151E-17
5.360000E+03	2.318389E-16	1.223955E-17
5.370000E+03	2.336997E-16	1.194911E-17
5.380000E+03	2.355947E-16	1.160379E-17
5.390000E+03	2.375338E-16	1.119754E-17
5.400000E+03	2.395421E-16	1.072576E-17
5.410000E+03	2.416500E-16	1.018558E-17
5.420000E+03	2.438939E-16	9.576958E-18
5.430000E+03	2.463254E-16	8.904839E-18
5.440000E+03	2.489972E-16	8.181490E-18
5.450000E+03	2.519749E-16	7.431971E-18
5.460000E+03	2.553240E-16	6.702044E-18
5.470000E+03	2.591056E-16	6.070012E-18
5.480000E+03	2.633786E-16	5.654682E-18
5.490000E+03	2.681944E-16	5.591204E-18
5.500000E+03	2.735842E-16	5.947963E-18
5.510000E+03	2.795551E-16	6.669454E-18
5.520000E+03	2.860972E-16	7.639610E-18
5.530000E+03	2.931649E-16	8.753625E-18
5.540000E+03	3.006923E-16	9.937670E-18
5.550000E+03	3.085801E-16	1.114258E-17
5.560000E+03	3.166964E-16	1.233471E-17
5.570000E+03	3.248906E-16	1.348998E-17
5.580000E+03	3.329792E-16	1.458947E-17
5.590000E+03	3.407637E-16	1.561790E-17
5.600000E+03	3.480431E-16	1.656285E-17
5.610000E+03	3.545941E-16	1.741308E-17
5.620000E+03	3.602098E-16	1.815968E-17
5.630000E+03	3.647064E-16	1.879608E-17
5.640000E+03	3.679235E-16	1.931774E-17
5.650000E+03	3.697336E-16	1.972224E-17
5.660000E+03	3.700634E-16	2.001022E-17
5.670000E+03	3.688774E-16	2.018428E-17
5.680000E+03	3.661979E-16	2.024982E-17
5.690000E+03	3.620823E-16	2.021372E-17
5.700000E+03	3.566422E-16	2.008526E-17
5.710000E+03	3.499964E-16	1.987344E-17
5.720000E+03	3.423172E-16	1.958968E-17
5.730000E+03	3.337637E-16	1.924410E-17
5.740000E+03	3.245316E-16	1.884854E-17
5.750000E+03	3.147951E-16	1.841338E-17
5.760000E+03	3.047385E-16	1.794950E-17
5.770000E+03	2.945301E-16	1.746687E-17
5.780000E+03	2.843357E-16	1.697540E-17
5.790000E+03	2.743045E-16	1.648408E-17
5.800000E+03	2.645678E-16	1.600092E-17
5.810000E+03	2.552491E-16	1.553352E-17
5.820000E+03	2.464496E-16	1.508811E-17
5.830000E+03	2.382611E-16	1.467038E-17
5.840000E+03	2.307562E-16	1.428485E-17
5.850000E+03	2.239890E-16	1.393496E-17
5.860000E+03	2.180077E-16	1.362379E-17
5.870000E+03	2.128309E-16	1.335268E-17
5.880000E+03	2.084814E-16	1.312330E-17
5.890000E+03	2.049543E-16	1.293565E-17
5.900000E+03	2.022411E-16	1.278957E-17
5.910000E+03	2.003158E-16	1.268382E-17
5.920000E+03	1.991468E-16	1.261685E-17
5.930000E+03	1.986890E-16	1.258620E-17
5.940000E+03	1.988867E-16	1.258877E-17
5.950000E+03	1.996720E-16	1.262061E-17
5.960000E+03	2.009729E-16	1.267751E-17
5.970000E+03	2.027068E-16	1.275458E-17
5.980000E+03	2.047818E-16	1.284630E-17
5.990000E+03	2.071070E-16	1.294727E-17
6.000000E+03	2.095867E-16	1.305179E-17
6.010000E+03	2.121263E-16	1.315425E-17
6.020000E+03	2.146329E-16	1.324915E-17
6.030000E+03	2.170278E-16	1.333183E-17
6.040000E+03	2.192411E-16	1.339805E-17
6.050000E+03	2.212181E-16	1.344436E-17
6.060000E+03	2.229216E-16	1.346816E-17
6.070000E+03	2.243311E-16	1.346759E-17
6.080000E+03	2.254521E-16	1.344211E-17
6.090000E+03	2.263069E-16	1.339196E-17
6.100000E+03	2.269360E-16	1.331832E-17
6.110000E+03	2.273927E-16	1.322312E-17
6.120000E+03	2.277530E-16	1.310968E-17
6.130000E+03	2.280897E-16	1.298145E-17
6.140000E+03	2.284918E-16	1.284323E-17
6.150000E+03	2.290482E-16	1.270045E-17
6.160000E+03	2.298482E-16	1.255940E-17
6.170000E+03	2.309786E-16	1.242730E-17
6.180000E+03	2.325187E-16	1.231224E-17
6.190000E+03	2.345506E-16	1.222396E-17
6.200000E+03	2.371357E-16	1.217272E-17
6.210000E+03	2.403349E-16	1.217034E-17
6.220000E+03	2.441942E-16	1.222899E-17
6.230000E+03	2.487492E-16	1.236052E-17
6.240000E+03	2.540093E-16	1.257359E-17
6.250000E+03	2.599754E-16	1.287169E-17
6.260000E+03	2.666191E-16	1.325082E-17
6.270000E+03	2.738966E-16	1.370171E-17
6.280000E+03	2.817229E-16	1.421052E-17
6.290000E+03	2.899825E-16	1.476066E-17
6.300000E+03	2.985237E-16	1.533330E-17
6.310000E+03	3.071590E-16	1.590785E-17
6.320000E+03	3.156635E-16	1.646216E-17
6.330000E+03	3.237987E-16	1.697400E-17
6.340000E+03	3.312974E-16	1.742037E-17
6.350000E+03	3.378950E-16	1.777930E-17
6.360000E+03	3.433416E-16	1.803066E-17
6.370000E+03	3.474158E-16	1.815707E-17
6.380000E+03	3.499611E-16	1.814604E-17
6.390000E+03	3.508718E-16	1.798942E-17
6.400000E+03	3.501212E-16	1.768513E-17
6.410000E+03	3.477658E-16	1.723737E-17
6.420000E+03	3.439218E-16	1.665562E-17
6.430000E+03	3.387850E-16	1.595557E-17
6.440000E+03	3.326012E-16	1.515766E-17
6.450000E+03	3.256355E-16	1.428572E-17
6.460000E+03	3.181858E-16	1.336791E-17
6.470000E+03	3.105344E-16	1.243518E-17
6.480000E+03	3.029477E-16	1.152230E-17
6.490000E+03	2.956813E-16	1.066940E-17
6.500000E+03	2.889314E-16	9.921008E-18
6.510000E+03	2.828714E-16	9.326582E-18
6.520000E+03	2.776312E-16	8.934002E-18
6.530000E+03	2.732836E-16	8.775474E-18
6.540000E+03	2.698384E-16	8.848668E-18
6.550000E+03	2.672600E-16	9.115988E-18
6.560000E+03	2.654529E-16	9.524514E-18
6.570000E+03	2.643186E-16	1.002439E-17
6.580000E+03	2.637308E-16	1.057445E-17
6.590000E+03	2.635695E-16	1.114404E-17
6.600000E+03	2.637036E-16	1.171050E-17
6.610000E+03	2.639941E-16	1.225693E-17
6.620000E+03	2.643202E-16	1.277141E-17
6.630000E+03	2.645565E-16	1.324454E-17
6.640000E+03	2.645913E-16	1.366923E-17
6.650000E+03	2.643294E-16	1.404015E-17
6.660000E+03	2.636840E-16	1.435285E-17
6.670000E+03	2.625897E-16	1.460422E-17
6.680000E+03	2.610039E-16	1.479247E-17
6.690000E+03	2.588968E-16	1.491657E-17
6.700000E+03	2.562618E-16	1.497696E-17
6.710000E+03	2.531113E-16	1.497541E-17
6.720000E+03	2.494780E-16	1.491521E-17
6.730000E+03	2.454022E-16	1.480052E-17
6.740000E+03	2.409425E-16	1.463699E-17
6.750000E+03	2.361589E-16	1.443069E-17
6.760000E+03	2.311200E-16	1.418852E-17
6.770000E+03	2.258992E-16	1.391782E-17
6.780000E+03	2.205622E-16	1.362555E-17
6.790000E+03	2.151746E-16	1.331861E-17
6.800000E+03	2.097995E-16	1.300365E-17
6.810000E+03	2.044903E-16	1.268651E-17
6.820000E+03	1.992872E-16	1.237198E-17
6.830000E+03	1.942378E-16	1.206502E-17
6.840000E+03	1.893651E-16	1.176873E-17
6.850000E+03	1.846998E-16	1.148633E-17
6.860000E+03	1.802607E-16	1.121995E-17
6.870000E+03	1.760592E-16	1.097088E-17
6.880000E+03	1.721050E-16	1.073996E-17
6.890000E+03	1.684072E-16	1.052768E-17
6.900000E+03	1.649693E-16	1.033394E-17
6.910000E+03	1.617887E-16	1.015803E-17
6.920000E+03	1.588729E-16	9.999769E-18
6.930000E+03	1.562174E-16	9.858090E-18
6.940000E+03	1.538215E-16	9.732181E-18
6.950000E+03	1.516871E-16	9.621367E-18
6.960000E+03	1.498112E-16	9.524728E-18
6.970000E+03	1.481952E-16	9.441689E-18
6.980000E+03	1.468383E-16	9.371612E-18
6.990000E+03	1.457368E-16	9.313808E-18
7.000000E+03	1.448907E-16	9.267944E-18
7.010000E+03	1.442949E-16	9.233495E-18
7.020000E+03	1.439467E-16	9.210282E-18
7.030000E+03	1.438376E-16	9.197913E-18
7.040000E+03	1.439613E-16	9.196310E-18
7.050000E+03	1.443051E-16	9.205153E-18
7.060000E+03	1.448586E-16	9.224392E-18
7.070000E+03	1.456069E-16	9.253826E-18
7.080000E+03	1.465317E-16	9.293079E-18
7.090000E+03	1.476179E-16	9.341994E-18
7.100000E+03	1.488457E-16	9.400086E-18
7.110000E+03	1.502027E-16	9.467232E-18
7.120000E+03	1.516672E-16	9.542582E-18
7.130000E+03	1.532334E-16	9.626118E-18
7.140000E+03	1.548886E-16	9.717156E-18
7.150000E+03	1.566288E-16	9.815370E-18
7.160000E+03	1.584605E-16	9.920857E-18
7.170000E+03	1.603844E-16	1.003315E-17
7.180000E+03	1.624215E-16	1.015289E-17
7.190000E+03	1.645864E-16	1.028020E-17
7.200000E+03	1.669065E-16	1.041592E-17
7.210000E+03	1.694113E-16	1.056103E-17
7.220000E+03	1.721308E-16	1.071657E-17
7.230000E+03	1.751024E-16	1.088414E-17
7.240000E+03	1.783609E-16	1.106533E-17
7.250000E+03	1.819375E-16	1.126167E-17
7.260000E+03	1.858652E-16	1.147498E-17
7.270000E+03	1.901688E-16	1.170673E-17
7.280000E+03	1.948631E-16	1.195789E-17
7.290000E+03	1.999582E-16	1.222924E-17
7.300000E+03	2.054496E-16	1.252067E-17
7.310000E+03	2.113181E-16	1.283116E-17
7.320000E+03	2.175244E-16	1.315839E-17
7.330000E+03	2.240176E-16	1.349929E-17
7.340000E+03	2.307242E-16	1.384935E-17
7.350000E+03	2.375476E-16	1.420261E-17
7.360000E+03	2.443836E-16	1.455263E-17
7.370000E+03	2.510978E-16	1.489113E-17
7.380000E+03	2.575509E-16	1.520947E-17
7.390000E+03	2.636055E-16	1.549896E-17
7.400000E+03	2.691088E-16	1.574976E-17
7.410000E+03	2.739271E-16	1.595280E-17
7.420000E+03	2.779382E-16	1.609926E-17
7.430000E+03	2.810364E-16	1.618085E-17
7.440000E+03	2.831558E-16	1.619125E-17
7.450000E+03	2.842432E-16	1.612465E-17
7.460000E+03	2.842895E-16	1.597788E-17
7.470000E+03	2.833071E-16	1.574937E-17
7.480000E+03	2.813491E-16	1.544054E-17
7.490000E+03	2.784749E-16	1.505420E-17
7.500000E+03	2.747756E-16	1.459626E-17
7.510000E+03	2.703519E-16	1.407469E-17
7.520000E+03	2.653131E-16	1.349977E-17
7.530000E+03	2.597690E-16	1.288379E-17
7.540000E+03	2.538385E-16	1.224166E-17
7.550000E+03	2.476343E-16	1.159025E-17
7.560000E+03	2.412647E-16	1.094853E-17
7.570000E+03	2.348322E-16	1.033741E-17
7.580000E+03	2.284289E-16	9.778943E-18
7.590000E+03	2.221495E-16	9.295757E-18
7.600000E+03	2.160649E-16	8.907544E-18
7.610000E+03	2.102443E-16	8.628170E-18
7.620000E+03	2.047309E-16	8.459623E-18
7.630000E+03	1.995560E-16	8.390418E-18
7.640000E+03	1.947248E-16	8.399770E-18
7.650000E+03	1.902523E-16	8.465724E-18
7.660000E+03	1.861435E-16	8.568351E-18
7.670000E+03	1.824171E-16	8.692417E-18
7.680000E+03	1.790905E-16	8.826941E-18
7.690000E+03	1.761937E-16	8.965386E-18
7.700000E+03	1.737486E-16	9.103872E-18
7.710000E+03	1.717898E-16	9.241484E-18
7.720000E+03	1.703408E-16	9.378365E-18
7.730000E+03	1.694314E-16	9.516116E-18
7.740000E+03	1.690853E-16	9.656711E-18
7.750000E+03	1.693205E-16	9.802243E-18
7.760000E+03	1.701450E-16	9.954450E-18
