#wls	flux	fluxerr
1.600000E+03	1.454532E-17	1.427986E-17
1.640000E+03	1.465737E-17	1.435133E-17
1.680000E+03	1.476915E-17	1.441882E-17
1.720000E+03	1.488029E-17	1.448170E-17
1.760000E+03	1.499158E-17	1.454045E-17
1.800000E+03	1.510020E-17	1.459200E-17
1.840000E+03	1.520686E-17	1.463674E-17
1.880000E+03	1.531105E-17	1.467385E-17
1.920000E+03	1.541220E-17	1.470248E-17
1.960000E+03	1.550973E-17	1.472172E-17
2.000000E+03	1.560303E-17	1.473066E-17
2.040000E+03	1.569270E-17	1.472953E-17
2.080000E+03	1.577561E-17	1.471506E-17
2.120000E+03	1.585233E-17	1.468750E-17
2.160000E+03	1.592222E-17	1.464593E-17
2.200000E+03	1.598464E-17	1.458950E-17
2.240000E+03	1.603901E-17	1.451743E-17
2.280000E+03	1.608481E-17	1.442903E-17
2.320000E+03	1.612160E-17	1.432371E-17
2.360000E+03	1.614906E-17	1.420106E-17
2.400000E+03	1.616705E-17	1.406082E-17
2.440000E+03	1.617559E-17	1.390299E-17
2.480000E+03	1.617372E-17	1.372671E-17
2.520000E+03	1.616445E-17	1.353459E-17
2.560000E+03	1.614742E-17	1.332636E-17
2.600000E+03	1.612266E-17	1.310217E-17
2.640000E+03	1.609429E-17	1.286547E-17
2.680000E+03	1.606205E-17	1.261615E-17
2.720000E+03	1.603109E-17	1.235836E-17
2.760000E+03	1.600231E-17	1.209279E-17
2.800000E+03	1.598089E-17	1.182335E-17
2.840000E+03	1.597154E-17	1.155334E-17
2.880000E+03	1.597973E-17	1.128640E-17
2.920000E+03	1.601180E-17	1.102644E-17
2.960000E+03	1.607381E-17	1.077686E-17
3.000000E+03	1.617636E-17	1.054371E-17
3.010000E+03	1.620951E-17	1.048860E-17
3.020000E+03	1.624467E-17	1.043405E-17
3.030000E+03	1.628437E-17	1.038169E-17
3.040000E+03	1.632639E-17	1.033006E-17
3.050000E+03	1.637330E-17	1.028075E-17
3.060000E+03	1.642408E-17	1.023309E-17
3.070000E+03	1.647770E-17	1.018640E-17
3.080000E+03	1.653676E-17	1.014226E-17
3.090000E+03	1.659903E-17	1.009926E-17
3.100000E+03	1.666714E-17	1.005895E-17
3.110000E+03	1.673884E-17	1.001996E-17
3.120000E+03	1.681679E-17	9.983818E-18
3.130000E+03	1.689875E-17	9.949154E-18
3.140000E+03	1.698739E-17	9.917502E-18
3.150000E+03	1.708047E-17	9.887497E-18
3.160000E+03	1.718070E-17	9.860667E-18
3.170000E+03	1.728581E-17	9.835657E-18
3.180000E+03	1.739855E-17	9.813986E-18
3.190000E+03	1.751665E-17	9.794309E-18
3.200000E+03	1.764288E-17	9.778140E-18
3.210000E+03	1.777495E-17	9.764142E-18
3.220000E+03	1.791569E-17	9.753822E-18
3.230000E+03	1.806277E-17	9.745850E-18
3.240000E+03	1.821775E-17	9.741024E-18
3.250000E+03	1.838223E-17	9.740137E-18
3.260000E+03	1.855382E-17	9.741866E-18
3.270000E+03	1.873549E-17	9.747710E-18
3.280000E+03	1.892482E-17	9.756347E-18
3.290000E+03	1.912342E-17	9.768571E-18
3.300000E+03	1.933298E-17	9.785176E-18
3.310000E+03	1.955099E-17	9.804835E-18
3.320000E+03	1.977914E-17	9.828341E-18
3.330000E+03	2.001913E-17	9.856489E-18
3.340000E+03	2.026838E-17	9.887941E-18
3.350000E+03	2.052858E-17	9.923487E-18
3.360000E+03	2.080151E-17	9.963922E-18
3.370000E+03	2.108444E-17	1.000789E-17
3.380000E+03	2.137911E-17	1.005618E-17
3.390000E+03	2.168577E-17	1.010885E-17
3.400000E+03	2.200623E-17	1.016669E-17
3.410000E+03	2.233755E-17	1.022831E-17
3.420000E+03	2.268151E-17	1.029449E-17
3.430000E+03	2.303829E-17	1.036525E-17
3.440000E+03	2.340804E-17	1.044064E-17
3.450000E+03	2.379262E-17	1.052143E-17
3.460000E+03	2.418875E-17	1.060614E-17
3.470000E+03	2.459820E-17	1.069550E-17
3.480000E+03	2.502102E-17	1.078952E-17
3.490000E+03	2.545723E-17	1.088816E-17
3.500000E+03	2.590682E-17	1.099139E-17
3.510000E+03	2.637161E-17	1.109994E-17
3.520000E+03	2.684779E-17	1.121215E-17
3.530000E+03	2.733705E-17	1.132873E-17
3.540000E+03	2.783922E-17	1.144955E-17
3.550000E+03	2.835407E-17	1.157449E-17
3.560000E+03	2.888130E-17	1.170339E-17
3.570000E+03	2.942060E-17	1.183607E-17
3.580000E+03	2.997156E-17	1.197234E-17
3.590000E+03	3.053375E-17	1.211197E-17
3.600000E+03	3.110668E-17	1.225472E-17
3.610000E+03	3.168979E-17	1.240032E-17
3.620000E+03	3.228248E-17	1.254848E-17
3.630000E+03	3.288409E-17	1.269888E-17
3.640000E+03	3.349392E-17	1.285120E-17
3.650000E+03	3.411120E-17	1.300507E-17
3.660000E+03	3.473513E-17	1.316011E-17
3.670000E+03	3.536486E-17	1.331595E-17
3.680000E+03	3.599948E-17	1.347216E-17
3.690000E+03	3.663548E-17	1.362737E-17
3.700000E+03	3.727703E-17	1.378305E-17
3.710000E+03	3.792058E-17	1.393782E-17
3.720000E+03	3.856511E-17	1.409122E-17
3.730000E+03	3.920959E-17	1.424281E-17
3.740000E+03	3.985295E-17	1.439215E-17
3.750000E+03	4.049129E-17	1.453775E-17
3.760000E+03	4.112921E-17	1.468123E-17
3.770000E+03	4.176283E-17	1.482115E-17
3.780000E+03	4.239111E-17	1.495709E-17
3.790000E+03	4.301000E-17	1.508761E-17
3.800000E+03	4.362448E-17	1.521444E-17
3.810000E+03	4.423060E-17	1.533619E-17
3.820000E+03	4.482740E-17	1.545255E-17
3.830000E+03	4.541079E-17	1.556212E-17
3.840000E+03	4.598622E-17	1.566684E-17
3.850000E+03	4.654974E-17	1.576540E-17
3.860000E+03	4.709728E-17	1.585650E-17
3.870000E+03	4.763468E-17	1.594221E-17
3.880000E+03	4.815803E-17	1.602133E-17
3.890000E+03	4.866336E-17	1.609266E-17
3.900000E+03	4.915689E-17	1.615843E-17
3.910000E+03	4.963136E-17	1.621638E-17
3.920000E+03	5.009328E-17	1.626886E-17
3.930000E+03	5.053539E-17	1.631367E-17
3.940000E+03	5.096449E-17	1.635323E-17
3.950000E+03	5.137336E-17	1.638543E-17
3.960000E+03	5.176906E-17	1.641275E-17
3.970000E+03	5.214442E-17	1.643315E-17
3.980000E+03	5.250678E-17	1.644918E-17
3.990000E+03	5.284905E-17	1.645886E-17
4.000000E+03	5.317881E-17	1.646478E-17
4.010000E+03	5.348905E-17	1.646502E-17
4.020000E+03	5.378388E-17	1.646107E-17
4.030000E+03	5.406756E-17	1.645445E-17
4.040000E+03	5.433321E-17	1.644329E-17
4.050000E+03	5.458904E-17	1.643026E-17
4.060000E+03	5.482825E-17	1.641350E-17
4.070000E+03	5.505544E-17	1.639458E-17
4.080000E+03	5.527152E-17	1.637391E-17
4.090000E+03	5.548130E-17	1.635306E-17
4.100000E+03	5.567816E-17	1.633018E-17
4.110000E+03	5.586704E-17	1.630683E-17
4.120000E+03	5.604909E-17	1.628343E-17
4.130000E+03	5.622940E-17	1.626151E-17
4.140000E+03	5.640147E-17	1.623923E-17
4.150000E+03	5.657048E-17	1.621810E-17
4.160000E+03	5.673773E-17	1.619852E-17
4.170000E+03	5.690459E-17	1.618087E-17
4.180000E+03	5.707241E-17	1.616550E-17
4.190000E+03	5.724653E-17	1.615388E-17
4.200000E+03	5.742046E-17	1.614414E-17
4.210000E+03	5.759951E-17	1.613771E-17
4.220000E+03	5.778504E-17	1.613491E-17
4.230000E+03	5.797842E-17	1.613604E-17
4.240000E+03	5.818098E-17	1.614139E-17
4.250000E+03	5.839400E-17	1.615124E-17
4.260000E+03	5.861876E-17	1.616583E-17
4.270000E+03	5.885645E-17	1.618541E-17
4.280000E+03	5.910825E-17	1.621021E-17
4.290000E+03	5.937524E-17	1.624043E-17
4.300000E+03	5.965846E-17	1.627626E-17
4.310000E+03	5.995477E-17	1.631674E-17
4.320000E+03	6.027323E-17	1.636425E-17
4.330000E+03	6.061055E-17	1.641781E-17
4.340000E+03	6.096745E-17	1.647751E-17
4.350000E+03	6.134452E-17	1.654343E-17
4.360000E+03	6.174226E-17	1.661561E-17
4.370000E+03	6.215683E-17	1.669295E-17
4.380000E+03	6.259695E-17	1.677770E-17
4.390000E+03	6.305857E-17	1.686869E-17
4.400000E+03	6.354171E-17	1.696585E-17
4.410000E+03	6.404189E-17	1.706791E-17
4.420000E+03	6.456756E-17	1.717705E-17
4.430000E+03	6.511399E-17	1.729194E-17
4.440000E+03	6.567618E-17	1.741118E-17
4.450000E+03	6.626233E-17	1.753690E-17
4.460000E+03	6.686718E-17	1.766762E-17
4.470000E+03	6.748515E-17	1.780185E-17
4.480000E+03	6.812423E-17	1.794164E-17
4.490000E+03	6.877389E-17	1.808418E-17
4.500000E+03	6.944198E-17	1.823152E-17
4.510000E+03	7.011753E-17	1.838074E-17
4.520000E+03	7.080825E-17	1.853387E-17
4.530000E+03	7.150272E-17	1.868790E-17
4.540000E+03	7.220858E-17	1.884484E-17
4.550000E+03	7.291401E-17	1.900160E-17
4.560000E+03	7.362661E-17	1.916018E-17
4.570000E+03	7.433421E-17	1.931744E-17
4.580000E+03	7.503940E-17	1.947406E-17
4.590000E+03	7.574493E-17	1.963079E-17
4.600000E+03	7.643824E-17	1.978440E-17
4.610000E+03	7.712204E-17	1.993561E-17
4.620000E+03	7.779925E-17	2.008520E-17
4.630000E+03	7.845718E-17	2.022991E-17
4.640000E+03	7.909888E-17	2.037055E-17
4.650000E+03	7.972231E-17	2.050662E-17
4.660000E+03	8.033102E-17	2.063901E-17
4.670000E+03	8.091251E-17	2.076452E-17
4.680000E+03	8.147065E-17	2.088413E-17
4.690000E+03	8.200413E-17	2.099748E-17
4.700000E+03	8.251188E-17	2.110428E-17
4.710000E+03	8.299308E-17	2.120428E-17
4.720000E+03	8.344712E-17	2.129727E-17
4.730000E+03	8.387930E-17	2.138454E-17
4.740000E+03	8.427829E-17	2.146313E-17
4.750000E+03	8.464981E-17	2.153443E-17
4.760000E+03	8.499424E-17	2.159845E-17
4.770000E+03	8.531215E-17	2.165523E-17
4.780000E+03	8.560431E-17	2.170485E-17
4.790000E+03	8.586590E-17	2.174599E-17
4.800000E+03	8.610950E-17	2.178169E-17
4.810000E+03	8.633058E-17	2.181067E-17
4.820000E+03	8.653044E-17	2.183310E-17
4.830000E+03	8.671048E-17	2.184919E-17
4.840000E+03	8.687215E-17	2.185912E-17
4.850000E+03	8.701693E-17	2.186309E-17
4.860000E+03	8.714050E-17	2.185984E-17
4.870000E+03	8.725597E-17	2.185247E-17
4.880000E+03	8.735900E-17	2.183968E-17
4.890000E+03	8.745102E-17	2.182162E-17
4.900000E+03	8.752758E-17	2.179695E-17
4.910000E+03	8.760165E-17	2.176868E-17
4.920000E+03	8.766867E-17	2.173542E-17
4.930000E+03	8.772397E-17	2.169575E-17
4.940000E+03	8.778035E-17	2.165259E-17
4.950000E+03	8.782716E-17	2.160300E-17
4.960000E+03	8.787707E-17	2.154982E-17
4.970000E+03	8.792514E-17	2.149151E-17
4.980000E+03	8.796637E-17	2.142652E-17
4.990000E+03	8.801326E-17	2.135755E-17
5.000000E+03	8.805485E-17	2.128158E-17
5.010000E+03	8.809771E-17	2.119981E-17
5.020000E+03	8.814836E-17	2.111343E-17
5.030000E+03	8.819576E-17	2.101935E-17
5.040000E+03	8.825226E-17	2.092010E-17
5.050000E+03	8.830676E-17	2.081259E-17
5.060000E+03	8.836573E-17	2.069788E-17
5.070000E+03	8.843565E-17	2.057700E-17
5.080000E+03	8.850540E-17	2.044685E-17
5.090000E+03	8.858145E-17	2.030842E-17
5.100000E+03	8.866439E-17	2.016130E-17
5.110000E+03	8.876068E-17	2.000640E-17
5.120000E+03	8.885918E-17	1.984062E-17
5.130000E+03	8.896632E-17	1.966481E-17
5.140000E+03	8.908265E-17	1.947850E-17
5.150000E+03	8.920871E-17	1.928117E-17
5.160000E+03	8.934498E-17	1.907227E-17
5.170000E+03	8.949785E-17	1.885248E-17
5.180000E+03	8.965592E-17	1.861869E-17
5.190000E+03	8.982547E-17	1.837152E-17
5.200000E+03	9.000682E-17	1.811033E-17
5.210000E+03	9.020022E-17	1.783441E-17
5.220000E+03	9.040589E-17	1.754306E-17
5.230000E+03	9.061799E-17	1.723438E-17
5.240000E+03	9.084853E-17	1.690990E-17
5.250000E+03	9.109156E-17	1.656767E-17
5.260000E+03	9.134702E-17	1.620688E-17
5.270000E+03	9.161481E-17	1.582673E-17
5.280000E+03	9.189472E-17	1.542640E-17
5.290000E+03	9.218651E-17	1.500508E-17
5.300000E+03	9.248377E-17	1.456103E-17
5.310000E+03	9.279823E-17	1.409545E-17
5.320000E+03	9.312333E-17	1.360666E-17
5.330000E+03	9.345848E-17	1.309406E-17
5.340000E+03	9.379679E-17	1.255631E-17
5.350000E+03	9.414972E-17	1.199475E-17
5.360000E+03	9.450389E-17	1.140764E-17
5.370000E+03	9.487044E-17	1.079668E-17
5.380000E+03	9.524167E-17	1.016164E-17
5.390000E+03	9.560953E-17	9.503050E-18
5.400000E+03	9.598432E-17	8.824177E-18
5.410000E+03	9.635087E-17	8.127033E-18
5.420000E+03	9.671862E-17	7.417805E-18
5.430000E+03	9.707114E-17	6.703440E-18
5.440000E+03	9.741665E-17	5.997419E-18
5.450000E+03	9.773713E-17	5.318845E-18
5.460000E+03	9.803275E-17	4.699742E-18
5.470000E+03	9.830278E-17	4.188686E-18
5.480000E+03	9.852633E-17	3.850848E-18
5.490000E+03	9.870142E-17	3.752810E-18
5.500000E+03	9.882853E-17	3.920769E-18
5.510000E+03	9.889346E-17	4.317099E-18
5.520000E+03	9.890309E-17	4.873740E-18
5.530000E+03	9.885756E-17	5.528120E-18
5.540000E+03	9.875640E-17	6.235224E-18
5.550000E+03	9.860502E-17	6.965727E-18
5.560000E+03	9.838910E-17	7.699276E-18
5.570000E+03	9.811344E-17	8.423252E-18
5.580000E+03	9.777630E-17	9.128673E-18
5.590000E+03	9.737606E-17	9.809141E-18
5.600000E+03	9.691134E-17	1.045998E-17
5.610000E+03	9.638117E-17	1.107771E-17
5.620000E+03	9.578508E-17	1.165976E-17
5.630000E+03	9.512322E-17	1.220424E-17
5.640000E+03	9.439642E-17	1.270986E-17
5.650000E+03	9.360631E-17	1.317580E-17
5.660000E+03	9.275526E-17	1.360172E-17
5.670000E+03	9.184048E-17	1.398680E-17
5.680000E+03	9.087796E-17	1.433328E-17
5.690000E+03	8.986636E-17	1.464110E-17
5.700000E+03	8.881105E-17	1.491143E-17
5.710000E+03	8.771802E-17	1.514572E-17
5.720000E+03	8.658813E-17	1.534473E-17
5.730000E+03	8.543961E-17	1.551241E-17
5.740000E+03	8.427395E-17	1.564997E-17
5.750000E+03	8.309315E-17	1.575874E-17
5.760000E+03	8.191555E-17	1.584324E-17
5.770000E+03	8.073786E-17	1.590400E-17
5.780000E+03	7.957798E-17	1.594571E-17
5.790000E+03	7.843770E-17	1.596999E-17
5.800000E+03	7.731883E-17	1.597842E-17
5.810000E+03	7.623796E-17	1.597568E-17
5.820000E+03	7.519119E-17	1.596221E-17
5.830000E+03	7.418920E-17	1.594147E-17
5.840000E+03	7.324190E-17	1.591682E-17
5.850000E+03	7.234446E-17	1.588838E-17
5.860000E+03	7.151056E-17	1.586030E-17
5.870000E+03	7.073467E-17	1.583244E-17
5.880000E+03	7.002481E-17	1.580761E-17
5.890000E+03	6.938391E-17	1.578746E-17
5.900000E+03	6.881893E-17	1.577454E-17
5.910000E+03	6.832312E-17	1.576817E-17
5.920000E+03	6.790283E-17	1.577064E-17
5.930000E+03	6.755964E-17	1.578308E-17
5.940000E+03	6.729489E-17	1.580653E-17
5.950000E+03	6.711407E-17	1.584296E-17
5.960000E+03	6.700948E-17	1.589116E-17
5.970000E+03	6.698635E-17	1.595293E-17
5.980000E+03	6.704546E-17	1.602900E-17
5.990000E+03	6.718756E-17	1.612000E-17
6.000000E+03	6.741337E-17	1.622655E-17
6.010000E+03	6.772361E-17	1.634923E-17
6.020000E+03	6.811904E-17	1.648858E-17
6.030000E+03	6.860046E-17	1.664510E-17
6.040000E+03	6.916426E-17	1.681823E-17
6.050000E+03	6.982024E-17	1.701060E-17
6.060000E+03	7.056498E-17	1.722160E-17
6.070000E+03	7.139949E-17	1.745170E-17
6.080000E+03	7.232487E-17	1.770132E-17
6.090000E+03	7.333745E-17	1.796974E-17
6.100000E+03	7.444770E-17	1.825964E-17
6.110000E+03	7.565195E-17	1.857022E-17
6.120000E+03	7.695109E-17	1.890180E-17
6.130000E+03	7.834076E-17	1.925337E-17
6.140000E+03	7.983141E-17	1.962754E-17
6.150000E+03	8.141294E-17	2.002188E-17
6.160000E+03	8.309539E-17	2.043888E-17
6.170000E+03	8.486726E-17	2.087570E-17
6.180000E+03	8.673784E-17	2.133465E-17
6.190000E+03	8.869374E-17	2.181241E-17
6.200000E+03	9.074305E-17	2.231097E-17
6.210000E+03	9.286995E-17	2.282641E-17
6.220000E+03	9.508089E-17	2.336032E-17
6.230000E+03	9.735710E-17	2.390805E-17
6.240000E+03	9.969656E-17	2.446911E-17
6.250000E+03	1.020963E-16	2.504278E-17
6.260000E+03	1.045325E-16	2.562319E-17
6.270000E+03	1.069989E-16	2.620889E-17
6.280000E+03	1.094885E-16	2.679818E-17
6.290000E+03	1.119720E-16	2.738395E-17
6.300000E+03	1.144392E-16	2.796384E-17
6.310000E+03	1.168720E-16	2.853355E-17
6.320000E+03	1.192513E-16	2.908856E-17
6.330000E+03	1.215570E-16	2.962420E-17
6.340000E+03	1.237687E-16	3.013572E-17
6.350000E+03	1.258738E-16	3.062034E-17
6.360000E+03	1.278360E-16	3.106949E-17
6.370000E+03	1.296432E-16	3.148063E-17
6.380000E+03	1.312766E-16	3.184954E-17
6.390000E+03	1.327101E-16	3.217030E-17
6.400000E+03	1.339451E-16	3.244361E-17
6.410000E+03	1.349592E-16	3.266452E-17
6.420000E+03	1.357411E-16	3.283069E-17
6.430000E+03	1.362818E-16	3.294038E-17
6.440000E+03	1.365753E-16	3.299250E-17
6.450000E+03	1.366181E-16	3.298660E-17
6.460000E+03	1.364007E-16	3.292073E-17
6.470000E+03	1.359428E-16	3.279993E-17
6.480000E+03	1.352402E-16	3.262343E-17
6.490000E+03	1.342912E-16	3.239101E-17
6.500000E+03	1.331224E-16	3.210919E-17
6.510000E+03	1.317359E-16	3.177857E-17
6.520000E+03	1.301361E-16	3.140015E-17
6.530000E+03	1.283537E-16	3.098122E-17
6.540000E+03	1.263867E-16	3.052118E-17
6.550000E+03	1.242672E-16	3.002743E-17
6.560000E+03	1.219950E-16	2.949961E-17
6.570000E+03	1.196021E-16	2.894505E-17
6.580000E+03	1.170891E-16	2.836352E-17
6.590000E+03	1.144873E-16	2.776216E-17
6.600000E+03	1.117977E-16	2.714076E-17
6.610000E+03	1.090431E-16	2.650444E-17
6.620000E+03	1.062451E-16	2.585803E-17
6.630000E+03	1.034042E-16	2.520125E-17
6.640000E+03	1.005409E-16	2.453871E-17
6.650000E+03	9.767422E-17	2.387473E-17
6.660000E+03	9.480364E-17	2.320884E-17
6.670000E+03	9.194682E-17	2.254510E-17
6.680000E+03	8.911427E-17	2.188584E-17
6.690000E+03	8.631565E-17	2.123324E-17
6.700000E+03	8.355985E-17	2.058931E-17
6.710000E+03	8.086010E-17	1.995720E-17
6.720000E+03	7.821317E-17	1.933601E-17
6.730000E+03	7.563088E-17	1.872862E-17
6.740000E+03	7.311897E-17	1.813640E-17
6.750000E+03	7.068241E-17	1.756061E-17
6.760000E+03	6.832547E-17	1.700233E-17
6.770000E+03	6.604749E-17	1.646144E-17
6.780000E+03	6.386001E-17	1.594090E-17
6.790000E+03	6.176094E-17	1.544027E-17
6.800000E+03	5.975202E-17	1.496009E-17
6.810000E+03	5.783444E-17	1.450076E-17
6.820000E+03	5.600892E-17	1.406258E-17
6.830000E+03	5.427223E-17	1.364487E-17
6.840000E+03	5.263131E-17	1.324948E-17
6.850000E+03	5.108209E-17	1.287553E-17
6.860000E+03	4.962378E-17	1.252293E-17
6.870000E+03	4.825228E-17	1.219077E-17
6.880000E+03	4.697258E-17	1.188042E-17
6.890000E+03	4.578009E-17	1.159085E-17
6.900000E+03	4.467041E-17	1.132104E-17
6.910000E+03	4.364768E-17	1.107213E-17
6.920000E+03	4.270454E-17	1.084236E-17
6.930000E+03	4.184478E-17	1.063277E-17
6.940000E+03	4.106126E-17	1.044164E-17
6.950000E+03	4.035759E-17	1.026995E-17
6.960000E+03	3.972689E-17	1.011603E-17
6.970000E+03	3.917018E-17	9.980197E-18
6.980000E+03	3.868844E-17	9.862753E-18
6.990000E+03	3.827527E-17	9.762122E-18
7.000000E+03	3.793186E-17	9.678656E-18
7.010000E+03	3.765944E-17	9.612706E-18
7.020000E+03	3.745209E-17	9.562804E-18
7.030000E+03	3.731132E-17	9.529360E-18
7.040000E+03	3.723631E-17	9.512193E-18
7.050000E+03	3.722875E-17	9.511761E-18
7.060000E+03	3.728334E-17	9.526726E-18
7.070000E+03	3.740203E-17	9.557600E-18
7.080000E+03	3.758451E-17	9.604314E-18
7.090000E+03	3.783059E-17	9.666823E-18
7.100000E+03	3.814016E-17	9.745104E-18
7.110000E+03	3.851322E-17	9.839152E-18
7.120000E+03	3.894984E-17	9.948976E-18
7.130000E+03	3.945014E-17	1.007460E-17
7.140000E+03	4.001427E-17	1.021604E-17
7.150000E+03	4.064243E-17	1.037334E-17
7.160000E+03	4.133476E-17	1.054650E-17
7.170000E+03	4.209139E-17	1.073554E-17
7.180000E+03	4.291237E-17	1.094042E-17
7.190000E+03	4.379481E-17	1.116040E-17
7.200000E+03	4.474403E-17	1.139678E-17
7.210000E+03	4.575687E-17	1.164872E-17
7.220000E+03	4.683267E-17	1.191600E-17
7.230000E+03	4.796740E-17	1.219757E-17
7.240000E+03	4.916581E-17	1.249459E-17
7.250000E+03	5.042322E-17	1.280582E-17
7.260000E+03	5.173417E-17	1.312983E-17
7.270000E+03	5.310258E-17	1.346757E-17
7.280000E+03	5.452205E-17	1.381739E-17
7.290000E+03	5.598527E-17	1.417738E-17
7.300000E+03	5.749499E-17	1.454821E-17
7.310000E+03	5.903899E-17	1.492675E-17
7.320000E+03	6.061916E-17	1.531346E-17
7.330000E+03	6.222168E-17	1.570482E-17
7.340000E+03	6.384354E-17	1.610008E-17
7.350000E+03	6.548165E-17	1.649843E-17
7.360000E+03	6.711996E-17	1.689583E-17
7.370000E+03	6.875876E-17	1.729238E-17
7.380000E+03	7.038091E-17	1.768378E-17
7.390000E+03	7.198204E-17	1.806896E-17
7.400000E+03	7.355814E-17	1.844695E-17
7.410000E+03	7.509130E-17	1.881331E-17
7.420000E+03	7.657770E-17	1.916714E-17
7.430000E+03	7.800935E-17	1.950650E-17
7.440000E+03	7.937876E-17	1.982958E-17
7.450000E+03	8.067909E-17	2.013476E-17
7.460000E+03	8.190953E-17	2.042190E-17
7.470000E+03	8.305455E-17	2.068722E-17
7.480000E+03	8.411515E-17	2.093104E-17
7.490000E+03	8.508821E-17	2.115269E-17
7.500000E+03	8.597173E-17	2.135172E-17
7.510000E+03	8.676481E-17	2.152801E-17
7.520000E+03	8.746766E-17	2.168166E-17
7.530000E+03	8.808153E-17	2.181305E-17
7.540000E+03	8.860871E-17	2.192280E-17
7.550000E+03	8.905240E-17	2.201174E-17
7.560000E+03	8.941090E-17	2.207948E-17
7.570000E+03	8.970040E-17	2.213004E-17
7.580000E+03	8.992056E-17	2.216332E-17
7.590000E+03	9.007719E-17	2.218076E-17
7.600000E+03	9.017646E-17	2.218384E-17
7.610000E+03	9.021897E-17	2.217267E-17
7.620000E+03	9.022271E-17	2.215162E-17
7.630000E+03	9.018830E-17	2.212076E-17
7.640000E+03	9.012197E-17	2.208153E-17
7.650000E+03	9.002390E-17	2.203388E-17
7.660000E+03	8.991124E-17	2.198191E-17
7.670000E+03	8.977762E-17	2.192395E-17
7.680000E+03	8.963919E-17	2.186384E-17
7.690000E+03	8.949424E-17	2.180104E-17
7.700000E+03	8.934046E-17	2.173489E-17
7.710000E+03	8.919203E-17	2.166874E-17
7.720000E+03	8.903952E-17	2.160021E-17
7.730000E+03	8.889563E-17	2.153232E-17
7.740000E+03	8.874945E-17	2.146235E-17
7.750000E+03	8.860645E-17	2.139160E-17
7.760000E+03	8.847131E-17	2.132117E-17
