#wls	flux	fluxerr
1.592040E+03	6.882503E-18	5.351145E-19
1.631841E+03	7.065020E-18	5.457463E-19
1.671642E+03	7.239854E-18	5.555242E-19
1.711443E+03	7.408455E-18	5.645637E-19
1.751244E+03	7.567985E-18	5.726530E-19
1.791045E+03	7.714048E-18	5.794698E-19
1.830846E+03	7.841920E-18	5.846778E-19
1.870647E+03	7.942821E-18	5.876523E-19
1.910448E+03	8.011407E-18	5.880427E-19
1.950249E+03	8.039817E-18	5.853297E-19
1.990050E+03	8.027998E-18	5.795793E-19
2.029851E+03	7.991550E-18	5.719808E-19
2.069652E+03	7.965276E-18	5.650496E-19
2.109453E+03	8.008803E-18	5.629574E-19
2.149254E+03	8.181022E-18	5.696672E-19
2.189055E+03	8.520062E-18	5.875460E-19
2.228856E+03	9.024749E-18	6.161631E-19
2.268657E+03	9.664661E-18	6.531015E-19
2.308458E+03	1.040399E-17	6.956579E-19
2.348259E+03	1.120808E-17	7.412972E-19
2.388060E+03	1.206134E-17	7.888264E-19
2.427861E+03	1.295618E-17	8.376109E-19
2.467662E+03	1.389435E-17	8.876337E-19
2.507463E+03	1.488201E-17	9.391443E-19
2.547264E+03	1.592277E-17	9.922132E-19
2.587065E+03	1.702456E-17	1.047161E-18
2.626866E+03	1.819716E-17	1.104388E-18
2.666667E+03	1.944676E-17	1.164046E-18
2.706468E+03	2.077186E-17	1.225806E-18
2.746269E+03	2.217255E-17	1.289430E-18
2.786070E+03	2.365057E-17	1.354771E-18
2.825871E+03	2.519398E-17	1.420899E-18
2.865672E+03	2.678666E-17	1.486691E-18
2.905473E+03	2.840408E-17	1.550619E-18
2.945274E+03	3.001847E-17	1.611073E-18
2.985075E+03	3.158124E-17	1.665446E-18
2.995025E+03	3.195660E-17	1.677720E-18
3.004975E+03	3.232650E-17	1.689507E-18
3.014925E+03	3.268645E-17	1.700578E-18
3.024876E+03	3.303539E-17	1.710886E-18
3.034826E+03	3.337989E-17	1.720775E-18
3.044776E+03	3.370824E-17	1.729647E-18
3.054726E+03	3.402817E-17	1.737908E-18
3.064677E+03	3.433808E-17	1.745483E-18
3.074627E+03	3.463292E-17	1.752123E-18
3.084577E+03	3.491806E-17	1.758109E-18
3.094527E+03	3.518161E-17	1.762851E-18
3.104478E+03	3.543249E-17	1.766810E-18
3.114428E+03	3.566247E-17	1.769586E-18
3.124378E+03	3.587376E-17	1.771305E-18
3.134328E+03	3.606191E-17	1.771759E-18
3.144279E+03	3.623291E-17	1.771260E-18
3.154229E+03	3.638280E-17	1.769628E-18
3.164179E+03	3.650800E-17	1.766704E-18
3.174129E+03	3.661211E-17	1.762681E-18
3.184080E+03	3.669916E-17	1.757766E-18
3.194030E+03	3.676374E-17	1.751717E-18
3.203980E+03	3.681430E-17	1.744949E-18
3.213930E+03	3.684670E-17	1.737278E-18
3.223881E+03	3.687043E-17	1.729164E-18
3.233831E+03	3.688573E-17	1.720624E-18
3.243781E+03	3.689648E-17	1.711845E-18
3.253731E+03	3.690998E-17	1.703168E-18
3.263682E+03	3.692736E-17	1.694643E-18
3.273632E+03	3.695296E-17	1.686466E-18
3.283582E+03	3.699406E-17	1.678960E-18
3.293532E+03	3.705161E-17	1.672158E-18
3.303483E+03	3.712942E-17	1.666218E-18
3.313433E+03	3.723686E-17	1.661543E-18
3.323383E+03	3.737107E-17	1.657984E-18
3.333333E+03	3.753482E-17	1.655643E-18
3.343284E+03	3.773342E-17	1.654730E-18
3.353234E+03	3.796877E-17	1.655302E-18
3.363184E+03	3.824243E-17	1.657398E-18
3.373134E+03	3.855547E-17	1.661035E-18
3.383085E+03	3.890847E-17	1.666207E-18
3.393035E+03	3.929860E-17	1.672764E-18
3.402985E+03	3.973100E-17	1.680894E-18
3.412935E+03	4.020167E-17	1.690397E-18
3.422886E+03	4.070886E-17	1.701169E-18
3.432836E+03	4.125022E-17	1.713084E-18
3.442786E+03	4.182287E-17	1.725999E-18
3.452736E+03	4.242609E-17	1.739859E-18
3.462687E+03	4.305231E-17	1.754331E-18
3.472637E+03	4.369833E-17	1.769269E-18
3.482587E+03	4.435439E-17	1.784265E-18
3.492537E+03	4.501373E-17	1.799041E-18
3.502488E+03	4.567604E-17	1.813583E-18
3.512438E+03	4.633037E-17	1.827457E-18
3.522388E+03	4.697251E-17	1.840505E-18
3.532338E+03	4.760489E-17	1.852830E-18
3.542289E+03	4.821896E-17	1.864110E-18
3.552239E+03	4.881812E-17	1.874491E-18
3.562189E+03	4.939420E-17	1.883673E-18
3.572139E+03	4.995054E-17	1.891802E-18
3.582090E+03	5.047862E-17	1.898573E-18
3.592040E+03	5.098126E-17	1.904114E-18
3.601990E+03	5.145251E-17	1.908225E-18
3.611940E+03	5.189227E-17	1.910929E-18
3.621891E+03	5.229508E-17	1.912051E-18
3.631841E+03	5.265897E-17	1.911550E-18
3.641791E+03	5.298569E-17	1.909520E-18
3.651741E+03	5.327526E-17	1.905992E-18
3.661692E+03	5.352628E-17	1.900947E-18
3.671642E+03	5.374439E-17	1.894615E-18
3.681592E+03	5.393406E-17	1.887180E-18
3.691542E+03	5.409887E-17	1.878789E-18
3.701493E+03	5.425226E-17	1.869927E-18
3.711443E+03	5.439893E-17	1.860764E-18
3.721393E+03	5.455607E-17	1.851891E-18
3.731343E+03	5.473491E-17	1.843679E-18
3.741294E+03	5.495109E-17	1.836635E-18
3.751244E+03	5.522182E-17	1.831302E-18
3.761194E+03	5.556557E-17	1.828248E-18
3.771144E+03	5.600409E-17	1.828126E-18
3.781095E+03	5.655453E-17	1.831422E-18
3.791045E+03	5.723637E-17	1.838675E-18
3.800995E+03	5.807079E-17	1.850461E-18
3.810945E+03	5.907525E-17	1.867216E-18
3.820896E+03	6.026285E-17	1.889223E-18
3.830846E+03	6.164915E-17	1.916827E-18
3.840796E+03	6.324169E-17	1.950112E-18
3.850746E+03	6.504929E-17	1.989195E-18
3.860697E+03	6.707404E-17	2.033978E-18
3.870647E+03	6.931048E-17	2.084137E-18
3.880597E+03	7.175300E-17	2.139351E-18
3.890547E+03	7.438765E-17	2.199059E-18
3.900498E+03	7.719478E-17	2.262546E-18
3.910448E+03	8.014886E-17	2.328952E-18
3.920398E+03	8.321632E-17	2.397207E-18
3.930348E+03	8.636487E-17	2.466319E-18
3.940299E+03	8.955601E-17	2.535147E-18
3.950249E+03	9.274938E-17	2.602542E-18
3.960199E+03	9.590376E-17	2.667370E-18
3.970149E+03	9.897538E-17	2.728468E-18
3.980100E+03	1.019292E-16	2.784955E-18
3.990050E+03	1.047266E-16	2.835889E-18
4.000000E+03	1.073402E-16	2.880664E-18
4.009950E+03	1.097445E-16	2.918753E-18
4.019900E+03	1.119168E-16	2.949723E-18
4.029851E+03	1.138477E-16	2.973513E-18
4.039801E+03	1.155281E-16	2.990073E-18
4.049751E+03	1.169590E-16	2.999626E-18
4.059701E+03	1.181483E-16	3.002559E-18
4.069652E+03	1.191093E-16	2.999391E-18
4.079602E+03	1.198602E-16	2.990748E-18
4.089552E+03	1.204227E-16	2.977323E-18
4.099502E+03	1.208206E-16	2.959840E-18
4.109453E+03	1.210757E-16	2.938954E-18
4.119403E+03	1.212135E-16	2.915381E-18
4.129353E+03	1.212589E-16	2.889803E-18
4.139303E+03	1.212388E-16	2.862927E-18
4.149254E+03	1.211693E-16	2.835184E-18
4.159204E+03	1.210745E-16	2.807171E-18
4.169154E+03	1.209703E-16	2.779281E-18
4.179104E+03	1.208745E-16	2.751932E-18
4.189055E+03	1.208058E-16	2.725553E-18
4.199005E+03	1.207728E-16	2.700329E-18
4.208955E+03	1.207888E-16	2.676541E-18
4.218905E+03	1.208653E-16	2.654427E-18
4.228856E+03	1.210151E-16	2.634239E-18
4.238806E+03	1.212403E-16	2.615992E-18
4.248756E+03	1.215460E-16	2.599764E-18
4.258706E+03	1.219334E-16	2.585554E-18
4.268657E+03	1.223997E-16	2.573268E-18
4.278607E+03	1.229366E-16	2.562708E-18
4.288557E+03	1.235282E-16	2.553526E-18
4.298507E+03	1.241536E-16	2.545281E-18
4.308458E+03	1.247924E-16	2.537558E-18
4.318408E+03	1.254153E-16	2.529783E-18
4.328358E+03	1.259937E-16	2.521404E-18
4.338308E+03	1.264974E-16	2.511865E-18
4.348259E+03	1.268922E-16	2.500543E-18
4.358209E+03	1.271581E-16	2.487109E-18
4.368159E+03	1.272766E-16	2.471279E-18
4.378109E+03	1.272591E-16	2.453344E-18
4.388060E+03	1.271427E-16	2.434084E-18
4.398010E+03	1.269688E-16	2.414332E-18
4.407960E+03	1.267869E-16	2.395051E-18
4.417910E+03	1.266491E-16	2.377211E-18
4.427861E+03	1.265990E-16	2.361590E-18
4.437811E+03	1.266819E-16	2.348980E-18
4.447761E+03	1.269412E-16	2.340120E-18
4.457711E+03	1.274098E-16	2.335540E-18
4.467662E+03	1.281159E-16	2.335675E-18
4.477612E+03	1.290765E-16	2.340749E-18
4.487562E+03	1.303000E-16	2.350834E-18
4.497512E+03	1.317857E-16	2.365834E-18
4.507463E+03	1.335124E-16	2.385295E-18
4.517413E+03	1.354528E-16	2.408663E-18
4.527363E+03	1.375637E-16	2.435119E-18
4.537313E+03	1.397858E-16	2.463569E-18
4.547264E+03	1.420598E-16	2.492943E-18
4.557214E+03	1.443137E-16	2.521965E-18
4.567164E+03	1.464763E-16	2.549396E-18
4.577114E+03	1.484789E-16	2.574054E-18
4.587065E+03	1.502599E-16	2.594898E-18
4.597015E+03	1.517652E-16	2.611029E-18
4.606965E+03	1.529556E-16	2.621812E-18
4.616915E+03	1.538074E-16	2.626887E-18
4.626866E+03	1.543070E-16	2.626066E-18
4.636816E+03	1.544494E-16	2.619308E-18
4.646766E+03	1.542410E-16	2.606763E-18
4.656716E+03	1.536971E-16	2.588729E-18
4.666667E+03	1.528328E-16	2.565498E-18
4.676617E+03	1.516713E-16	2.537486E-18
4.686567E+03	1.502308E-16	2.505027E-18
4.696517E+03	1.485430E-16	2.468673E-18
4.706468E+03	1.466277E-16	2.428775E-18
4.716418E+03	1.445204E-16	2.385937E-18
4.726368E+03	1.422474E-16	2.340606E-18
4.736318E+03	1.398419E-16	2.293339E-18
4.746269E+03	1.373412E-16	2.244751E-18
4.756219E+03	1.347839E-16	2.195478E-18
4.766169E+03	1.322049E-16	2.146083E-18
4.776119E+03	1.296460E-16	2.097236E-18
4.786070E+03	1.271481E-16	2.049586E-18
4.796020E+03	1.247550E-16	2.003819E-18
4.805970E+03	1.225069E-16	1.960557E-18
4.815920E+03	1.204461E-16	1.920442E-18
4.825871E+03	1.186175E-16	1.884152E-18
4.835821E+03	1.170580E-16	1.852226E-18
4.845771E+03	1.158095E-16	1.825270E-18
4.855721E+03	1.149042E-16	1.803731E-18
4.865672E+03	1.143778E-16	1.788096E-18
4.875622E+03	1.142562E-16	1.778693E-18
4.885572E+03	1.145631E-16	1.775803E-18
4.895522E+03	1.153132E-16	1.779560E-18
4.905473E+03	1.165133E-16	1.789971E-18
4.915423E+03	1.181543E-16	1.806794E-18
4.925373E+03	1.202178E-16	1.829646E-18
4.935323E+03	1.226706E-16	1.857915E-18
4.945274E+03	1.254608E-16	1.890724E-18
4.955224E+03	1.285207E-16	1.926966E-18
4.965174E+03	1.317685E-16	1.965342E-18
4.975124E+03	1.351119E-16	2.004424E-18
4.985075E+03	1.384538E-16	2.042739E-18
4.995025E+03	1.416984E-16	2.078867E-18
5.004975E+03	1.447616E-16	2.111593E-18
5.014925E+03	1.475639E-16	2.139795E-18
5.024876E+03	1.500554E-16	2.162813E-18
5.034826E+03	1.521991E-16	2.180186E-18
5.044776E+03	1.539784E-16	2.191769E-18
5.054726E+03	1.554019E-16	2.197776E-18
5.064677E+03	1.564872E-16	2.198552E-18
5.074627E+03	1.572668E-16	2.194645E-18
5.084577E+03	1.577735E-16	2.186600E-18
5.094527E+03	1.580508E-16	2.175101E-18
5.104478E+03	1.581371E-16	2.160745E-18
5.114428E+03	1.580661E-16	2.144055E-18
5.124378E+03	1.578715E-16	2.125542E-18
5.134328E+03	1.575788E-16	2.105593E-18
5.144279E+03	1.572114E-16	2.084563E-18
5.154229E+03	1.567939E-16	2.062811E-18
5.164179E+03	1.563395E-16	2.040538E-18
5.174129E+03	1.558636E-16	2.017972E-18
5.184080E+03	1.553815E-16	1.995332E-18
5.194030E+03	1.549025E-16	1.972752E-18
5.203980E+03	1.544379E-16	1.950393E-18
5.213930E+03	1.539923E-16	1.928325E-18
5.223881E+03	1.535716E-16	1.906636E-18
5.233831E+03	1.531749E-16	1.885322E-18
5.243781E+03	1.527999E-16	1.864370E-18
5.253731E+03	1.524414E-16	1.843729E-18
5.263682E+03	1.520915E-16	1.823323E-18
5.273632E+03	1.517401E-16	1.803048E-18
5.283582E+03	1.513758E-16	1.782794E-18
5.293532E+03	1.509865E-16	1.762448E-18
5.303483E+03	1.505593E-16	1.741891E-18
5.313433E+03	1.500866E-16	1.721072E-18
5.323383E+03	1.495615E-16	1.699952E-18
5.333333E+03	1.489787E-16	1.678509E-18
5.343284E+03	1.483388E-16	1.656793E-18
5.353234E+03	1.476468E-16	1.634901E-18
5.363184E+03	1.469150E-16	1.613004E-18
5.373134E+03	1.461549E-16	1.591265E-18
5.383085E+03	1.453917E-16	1.569986E-18
5.393035E+03	1.446485E-16	1.549436E-18
5.402985E+03	1.439591E-16	1.529992E-18
5.412935E+03	1.433605E-16	1.512053E-18
5.422886E+03	1.428839E-16	1.495946E-18
5.432836E+03	1.425605E-16	1.481989E-18
5.442786E+03	1.424150E-16	1.470425E-18
5.452736E+03	1.424492E-16	1.461258E-18
5.462687E+03	1.426507E-16	1.454351E-18
5.472637E+03	1.429875E-16	1.449369E-18
5.482587E+03	1.434134E-16	1.445806E-18
5.492537E+03	1.438667E-16	1.443002E-18
5.502488E+03	1.442726E-16	1.440179E-18
5.512438E+03	1.445511E-16	1.436520E-18
5.522388E+03	1.446265E-16	1.431260E-18
5.532338E+03	1.444359E-16	1.423771E-18
5.542289E+03	1.439369E-16	1.413630E-18
5.552239E+03	1.431076E-16	1.400619E-18
5.562189E+03	1.419467E-16	1.384719E-18
5.572139E+03	1.404766E-16	1.366138E-18
5.582090E+03	1.387322E-16	1.345202E-18
5.592040E+03	1.367641E-16	1.322381E-18
5.601990E+03	1.346233E-16	1.298150E-18
5.611940E+03	1.323672E-16	1.273035E-18
5.621891E+03	1.300501E-16	1.247533E-18
5.631841E+03	1.277305E-16	1.222177E-18
5.641791E+03	1.254660E-16	1.197486E-18
5.651741E+03	1.233227E-16	1.174062E-18
5.661692E+03	1.213677E-16	1.152509E-18
5.671642E+03	1.196755E-16	1.133498E-18
5.681592E+03	1.183264E-16	1.117752E-18
5.691542E+03	1.174054E-16	1.106028E-18
5.701493E+03	1.169970E-16	1.099070E-18
5.711443E+03	1.171811E-16	1.097571E-18
5.721393E+03	1.180351E-16	1.102191E-18
5.731343E+03	1.196257E-16	1.113473E-18
5.741294E+03	1.220082E-16	1.131847E-18
5.751244E+03	1.252174E-16	1.157541E-18
5.761194E+03	1.292736E-16	1.190635E-18
5.771144E+03	1.341664E-16	1.230918E-18
5.781095E+03	1.398544E-16	1.277894E-18
5.791045E+03	1.462598E-16	1.330729E-18
5.800995E+03	1.532561E-16	1.388158E-18
5.810945E+03	1.606733E-16	1.448536E-18
5.820896E+03	1.682925E-16	1.509806E-18
5.830846E+03	1.758522E-16	1.569567E-18
5.840796E+03	1.830657E-16	1.625246E-18
5.850746E+03	1.896413E-16	1.674287E-18
5.860697E+03	1.953010E-16	1.714320E-18
5.870647E+03	1.998052E-16	1.743376E-18
5.880597E+03	2.029821E-16	1.760142E-18
5.890547E+03	2.047318E-16	1.763977E-18
5.900498E+03	2.050435E-16	1.755038E-18
5.910448E+03	2.039806E-16	1.734135E-18
5.920398E+03	2.016776E-16	1.702671E-18
5.930348E+03	1.983219E-16	1.662476E-18
5.940299E+03	1.941291E-16	1.615575E-18
5.950249E+03	1.893209E-16	1.563997E-18
5.960199E+03	1.841247E-16	1.509767E-18
5.970149E+03	1.787397E-16	1.454622E-18
5.980100E+03	1.733497E-16	1.400126E-18
5.990050E+03	1.681009E-16	1.347495E-18
6.000000E+03	1.631115E-16	1.297684E-18
6.009950E+03	1.584683E-16	1.251369E-18
6.019900E+03	1.542391E-16	1.209057E-18
6.029851E+03	1.504612E-16	1.171001E-18
6.039801E+03	1.471589E-16	1.137348E-18
6.049751E+03	1.443449E-16	1.108152E-18
6.059701E+03	1.420202E-16	1.083384E-18
6.069652E+03	1.401775E-16	1.062954E-18
6.079602E+03	1.388093E-16	1.046781E-18
6.089552E+03	1.379003E-16	1.034737E-18
6.099502E+03	1.374426E-16	1.026762E-18
6.109453E+03	1.374256E-16	1.022788E-18
6.119403E+03	1.378361E-16	1.022742E-18
6.129353E+03	1.386679E-16	1.026620E-18
6.139303E+03	1.399153E-16	1.034436E-18
6.149254E+03	1.415651E-16	1.046164E-18
6.159204E+03	1.436052E-16	1.061805E-18
6.169154E+03	1.460124E-16	1.081294E-18
6.179104E+03	1.487498E-16	1.104478E-18
6.189055E+03	1.517601E-16	1.131067E-18
6.199005E+03	1.549623E-16	1.160571E-18
6.208955E+03	1.582576E-16	1.192303E-18
6.218905E+03	1.615529E-16	1.225589E-18
6.228856E+03	1.647801E-16	1.259923E-18
6.238806E+03	1.678728E-16	1.294781E-18
6.248756E+03	1.707594E-16	1.329572E-18
6.258706E+03	1.733680E-16	1.363663E-18
6.268657E+03	1.756325E-16	1.396435E-18
6.278607E+03	1.775107E-16	1.427417E-18
6.288557E+03	1.789716E-16	1.456204E-18
6.298507E+03	1.800154E-16	1.482617E-18
6.308458E+03	1.806645E-16	1.506655E-18
6.318408E+03	1.809533E-16	1.528416E-18
6.328358E+03	1.809374E-16	1.548190E-18
6.338308E+03	1.806801E-16	1.566353E-18
6.348259E+03	1.802384E-16	1.583250E-18
6.358209E+03	1.796751E-16	1.599310E-18
6.368159E+03	1.790367E-16	1.614842E-18
6.378109E+03	1.783605E-16	1.630095E-18
6.388060E+03	1.776730E-16	1.645243E-18
6.398010E+03	1.769820E-16	1.660297E-18
6.407960E+03	1.762878E-16	1.675207E-18
6.417910E+03	1.755753E-16	1.689776E-18
6.427861E+03	1.748266E-16	1.703777E-18
6.437811E+03	1.740176E-16	1.716916E-18
6.447761E+03	1.731239E-16	1.728887E-18
6.457711E+03	1.721248E-16	1.739414E-18
6.467662E+03	1.710070E-16	1.748287E-18
6.477612E+03	1.697666E-16	1.755397E-18
6.487562E+03	1.684110E-16	1.760750E-18
6.497512E+03	1.669603E-16	1.764493E-18
6.507463E+03	1.654415E-16	1.766864E-18
6.517413E+03	1.638848E-16	1.768147E-18
6.527363E+03	1.623269E-16	1.768714E-18
6.537313E+03	1.607966E-16	1.768867E-18
6.547264E+03	1.593225E-16	1.768924E-18
6.557214E+03	1.579144E-16	1.769001E-18
6.567164E+03	1.565708E-16	1.769092E-18
6.577114E+03	1.552749E-16	1.769020E-18
6.587065E+03	1.539981E-16	1.768460E-18
6.597015E+03	1.526966E-16	1.766909E-18
6.606965E+03	1.513162E-16	1.763726E-18
6.616915E+03	1.498030E-16	1.758256E-18
6.626866E+03	1.481027E-16	1.749828E-18
6.636816E+03	1.461675E-16	1.737834E-18
6.646766E+03	1.439642E-16	1.721834E-18
6.656716E+03	1.414685E-16	1.701491E-18
6.666667E+03	1.386851E-16	1.676823E-18
6.676617E+03	1.356251E-16	1.647928E-18
6.686567E+03	1.323299E-16	1.615291E-18
6.696517E+03	1.288460E-16	1.579471E-18
6.706468E+03	1.252377E-16	1.541264E-18
6.716418E+03	1.215746E-16	1.501549E-18
6.726368E+03	1.179297E-16	1.461260E-18
6.736318E+03	1.143751E-16	1.421337E-18
6.746269E+03	1.109797E-16	1.382684E-18
6.756219E+03	1.078082E-16	1.346162E-18
6.766169E+03	1.049154E-16	1.312515E-18
6.776119E+03	1.023530E-16	1.282438E-18
6.786070E+03	1.001628E-16	1.256510E-18
6.796020E+03	9.838524E-17	1.235278E-18
6.805970E+03	9.705331E-17	1.219190E-18
6.815920E+03	9.620028E-17	1.208690E-18
6.825871E+03	9.585603E-17	1.204165E-18
6.835821E+03	9.604804E-17	1.205960E-18
6.845771E+03	9.680562E-17	1.214431E-18
6.855721E+03	9.815767E-17	1.229909E-18
6.865672E+03	1.001266E-16	1.252631E-18
6.875622E+03	1.027369E-16	1.282841E-18
6.885572E+03	1.060050E-16	1.320666E-18
6.895522E+03	1.099457E-16	1.366189E-18
6.905473E+03	1.145580E-16	1.419286E-18
6.915423E+03	1.198283E-16	1.479655E-18
6.925373E+03	1.257226E-16	1.546733E-18
6.935323E+03	1.321901E-16	1.619739E-18
6.945274E+03	1.391453E-16	1.697466E-18
6.955224E+03	1.464797E-16	1.778435E-18
6.965174E+03	1.540527E-16	1.860797E-18
6.975124E+03	1.616964E-16	1.942402E-18
6.985075E+03	1.692177E-16	2.020844E-18
6.995025E+03	1.764160E-16	2.093689E-18
7.004975E+03	1.830877E-16	2.158532E-18
7.014925E+03	1.890437E-16	2.213218E-18
7.024876E+03	1.941221E-16	2.255987E-18
7.034826E+03	1.982076E-16	2.285697E-18
7.044776E+03	2.012439E-16	2.301942E-18
7.054726E+03	2.032285E-16	2.304978E-18
7.064677E+03	2.042225E-16	2.295797E-18
7.074627E+03	2.043439E-16	2.276028E-18
7.084577E+03	2.037431E-16	2.247625E-18
7.094527E+03	2.026119E-16	2.212951E-18
7.104478E+03	2.011412E-16	2.174284E-18
7.114428E+03	1.995293E-16	2.133908E-18
7.124378E+03	1.979563E-16	2.093825E-18
7.134328E+03	1.965733E-16	2.055657E-18
7.144279E+03	1.955058E-16	2.020684E-18
7.154229E+03	1.948367E-16	1.989691E-18
7.164179E+03	1.946131E-16	1.963061E-18
7.174129E+03	1.948438E-16	1.940770E-18
7.184080E+03	1.954996E-16	1.922421E-18
7.194030E+03	1.965165E-16	1.907296E-18
7.203980E+03	1.977990E-16	1.894410E-18
7.213930E+03	1.992220E-16	1.882558E-18
7.223881E+03	2.006439E-16	1.870454E-18
7.233831E+03	2.019151E-16	1.856819E-18
7.243781E+03	2.028776E-16	1.840381E-18
7.253731E+03	2.033861E-16	1.820071E-18
7.263682E+03	2.033148E-16	1.795065E-18
7.273632E+03	2.025672E-16	1.764855E-18
7.283582E+03	2.010838E-16	1.729290E-18
7.293532E+03	1.988428E-16	1.688556E-18
7.303483E+03	1.958677E-16	1.643208E-18
7.313433E+03	1.922237E-16	1.594114E-18
7.323383E+03	1.880020E-16	1.542298E-18
7.333333E+03	1.833234E-16	1.488964E-18
7.343284E+03	1.783128E-16	1.435271E-18
7.353234E+03	1.731105E-16	1.382433E-18
7.363184E+03	1.678399E-16	1.331465E-18
7.373134E+03	1.626233E-16	1.283320E-18
7.383085E+03	1.575554E-16	1.238692E-18
7.393035E+03	1.527201E-16	1.198169E-18
7.402985E+03	1.481771E-16	1.162135E-18
7.412935E+03	1.439767E-16	1.130896E-18
7.422886E+03	1.401439E-16	1.104572E-18
7.432836E+03	1.366976E-16	1.083243E-18
7.442786E+03	1.336519E-16	1.066958E-18
7.452736E+03	1.310055E-16	1.055608E-18
7.462687E+03	1.287565E-16	1.049098E-18
7.472637E+03	1.269009E-16	1.047342E-18
7.482587E+03	1.254277E-16	1.050225E-18
7.492537E+03	1.243182E-16	1.057593E-18
7.502488E+03	1.235504E-16	1.069281E-18
7.512438E+03	1.230895E-16	1.085025E-18
7.522388E+03	1.228948E-16	1.104509E-18
7.532338E+03	1.229127E-16	1.127292E-18
7.542289E+03	1.230798E-16	1.152819E-18
7.552239E+03	1.233232E-16	1.180403E-18
7.562189E+03	1.235699E-16	1.209308E-18
7.572139E+03	1.237469E-16	1.238737E-18
7.582090E+03	1.238137E-16	1.268160E-18
7.592040E+03	1.237646E-16	1.297375E-18
7.601990E+03	1.236298E-16	1.326554E-18
7.611940E+03	1.234447E-16	1.355957E-18
7.621891E+03	1.232422E-16	1.385854E-18
7.631841E+03	1.230479E-16	1.416468E-18
7.641791E+03	1.228758E-16	1.447914E-18
7.651741E+03	1.227343E-16	1.480261E-18
7.661692E+03	1.226113E-16	1.513340E-18
7.671642E+03	1.224922E-16	1.546937E-18
7.681592E+03	1.223445E-16	1.580594E-18
7.691542E+03	1.221348E-16	1.613808E-18
7.701493E+03	1.218237E-16	1.645956E-18
7.711443E+03	1.213711E-16	1.676357E-18
7.721393E+03	1.207393E-16	1.704320E-18
