#wls	flux	fluxerr
1.592040E+03	2.794187E-18	6.675176E-20
1.631841E+03	2.862343E-18	6.823670E-20
1.671642E+03	2.928062E-18	6.965345E-20
1.711443E+03	2.989381E-18	7.095546E-20
1.751244E+03	3.046675E-18	7.215210E-20
1.791045E+03	3.097628E-18	7.318898E-20
1.830846E+03	3.140311E-18	7.402148E-20
1.870647E+03	3.171176E-18	7.456733E-20
1.910448E+03	3.187526E-18	7.476515E-20
1.950249E+03	3.186224E-18	7.454401E-20
1.990050E+03	3.167828E-18	7.392000E-20
2.029851E+03	3.137419E-18	7.301457E-20
2.069652E+03	3.109099E-18	7.215731E-20
2.109453E+03	3.105753E-18	7.187759E-20
2.149254E+03	3.148156E-18	7.264987E-20
2.189055E+03	3.250383E-18	7.478871E-20
2.228856E+03	3.407995E-18	7.817968E-20
2.268657E+03	3.608535E-18	8.252575E-20
2.308458E+03	3.833622E-18	8.739791E-20
2.348259E+03	4.069034E-18	9.246678E-20
2.388060E+03	4.307010E-18	9.755327E-20
2.427861E+03	4.540575E-18	1.024984E-19
2.467662E+03	4.769908E-18	1.073062E-19
2.507463E+03	4.992985E-18	1.119313E-19
2.547264E+03	5.210796E-18	1.163964E-19
2.587065E+03	5.422894E-18	1.206920E-19
2.626866E+03	5.630566E-18	1.248471E-19
2.666667E+03	5.834187E-18	1.288704E-19
2.706468E+03	6.033072E-18	1.327469E-19
2.746269E+03	6.228419E-18	1.365036E-19
2.786070E+03	6.420567E-18	1.401480E-19
2.825871E+03	6.608913E-18	1.436673E-19
2.865672E+03	6.795216E-18	1.470999E-19
2.905473E+03	6.979459E-18	1.504456E-19
2.945274E+03	7.165447E-18	1.537860E-19
2.985075E+03	7.353114E-18	1.571189E-19
2.995025E+03	7.400611E-18	1.579577E-19
3.004975E+03	7.448435E-18	1.588006E-19
3.014925E+03	7.496646E-18	1.596489E-19
3.024876E+03	7.545329E-18	1.605045E-19
3.034826E+03	7.594732E-18	1.613725E-19
3.044776E+03	7.646086E-18	1.622790E-19
3.054726E+03	7.697520E-18	1.631842E-19
3.064677E+03	7.750214E-18	1.641130E-19
3.074627E+03	7.805402E-18	1.650916E-19
3.084577E+03	7.860630E-18	1.660678E-19
3.094527E+03	7.918387E-18	1.670941E-19
3.104478E+03	7.976225E-18	1.681188E-19
3.114428E+03	8.036660E-18	1.691949E-19
3.124378E+03	8.097246E-18	1.702706E-19
3.134328E+03	8.160550E-18	1.714000E-19
3.144279E+03	8.225382E-18	1.725578E-19
3.154229E+03	8.290519E-18	1.737182E-19
3.164179E+03	8.358620E-18	1.749370E-19
3.174129E+03	8.428479E-18	1.761886E-19
3.184080E+03	8.500203E-18	1.774752E-19
3.194030E+03	8.572555E-18	1.787709E-19
3.203980E+03	8.648291E-18	1.801329E-19
3.213930E+03	8.726213E-18	1.815361E-19
3.223881E+03	8.806435E-18	1.829828E-19
3.233831E+03	8.889079E-18	1.844752E-19
3.243781E+03	8.974289E-18	1.860161E-19
3.253731E+03	9.062197E-18	1.876082E-19
3.263682E+03	9.152946E-18	1.892540E-19
3.273632E+03	9.246691E-18	1.909568E-19
3.283582E+03	9.345003E-18	1.927485E-19
3.293532E+03	9.445205E-18	1.945737E-19
3.303483E+03	9.548875E-18	1.964647E-19
3.313433E+03	9.656176E-18	1.984246E-19
3.323383E+03	9.768768E-18	2.004872E-19
3.333333E+03	9.883870E-18	2.025950E-19
3.343284E+03	1.000312E-17	2.047816E-19
3.353234E+03	1.012826E-17	2.070819E-19
3.363184E+03	1.025640E-17	2.094368E-19
3.373134E+03	1.038926E-17	2.118808E-19
3.383085E+03	1.052861E-17	2.144500E-19
3.393035E+03	1.067149E-17	2.170833E-19
3.402985E+03	1.082129E-17	2.198496E-19
3.412935E+03	1.097663E-17	2.227200E-19
3.422886E+03	1.113601E-17	2.256642E-19
3.432836E+03	1.130298E-17	2.287532E-19
3.442786E+03	1.147435E-17	2.319223E-19
3.452736E+03	1.165375E-17	2.352442E-19
3.462687E+03	1.183966E-17	2.386878E-19
3.472637E+03	1.203230E-17	2.422570E-19
3.482587E+03	1.223003E-17	2.459181E-19
3.492537E+03	1.243664E-17	2.497473E-19
3.502488E+03	1.265056E-17	2.537118E-19
3.512438E+03	1.287193E-17	2.578144E-19
3.522388E+03	1.310094E-17	2.620581E-19
3.532338E+03	1.333579E-17	2.664063E-19
3.542289E+03	1.358054E-17	2.709397E-19
3.552239E+03	1.383340E-17	2.756218E-19
3.562189E+03	1.409452E-17	2.804549E-19
3.572139E+03	1.436401E-17	2.854406E-19
3.582090E+03	1.464198E-17	2.905807E-19
3.592040E+03	1.492854E-17	2.958764E-19
3.601990E+03	1.522374E-17	3.013283E-19
3.611940E+03	1.552766E-17	3.069370E-19
3.621891E+03	1.584033E-17	3.127029E-19
3.631841E+03	1.616175E-17	3.186251E-19
3.641791E+03	1.649193E-17	3.247031E-19
3.651741E+03	1.683080E-17	3.309352E-19
3.661692E+03	1.718082E-17	3.373687E-19
3.671642E+03	1.753691E-17	3.439033E-19
3.681592E+03	1.790140E-17	3.505844E-19
3.691542E+03	1.827412E-17	3.574079E-19
3.701493E+03	1.865486E-17	3.643691E-19
3.711443E+03	1.904337E-17	3.714627E-19
3.721393E+03	1.944218E-17	3.787374E-19
3.731343E+03	1.984537E-17	3.860774E-19
3.741294E+03	2.025534E-17	3.935290E-19
3.751244E+03	2.067168E-17	4.010838E-19
3.761194E+03	2.109695E-17	4.087912E-19
3.771144E+03	2.152462E-17	4.165241E-19
3.781095E+03	2.195715E-17	4.243298E-19
3.791045E+03	2.239391E-17	4.321962E-19
3.800995E+03	2.283756E-17	4.401742E-19
3.810945E+03	2.328092E-17	4.481255E-19
3.820896E+03	2.372651E-17	4.560983E-19
3.830846E+03	2.417356E-17	4.640780E-19
3.840796E+03	2.462481E-17	4.721171E-19
3.850746E+03	2.507250E-17	4.800669E-19
3.860697E+03	2.551924E-17	4.879778E-19
3.870647E+03	2.596786E-17	4.959041E-19
3.880597E+03	2.641021E-17	5.036902E-19
3.890547E+03	2.684903E-17	5.113893E-19
3.900498E+03	2.728734E-17	5.190589E-19
3.910448E+03	2.771659E-17	5.265373E-19
3.920398E+03	2.813978E-17	5.338818E-19
3.930348E+03	2.855606E-17	5.410771E-19
3.940299E+03	2.896873E-17	5.481865E-19
3.950249E+03	2.936892E-17	5.550428E-19
3.960199E+03	2.975996E-17	5.617099E-19
3.970149E+03	3.014540E-17	5.682557E-19
3.980100E+03	3.051622E-17	5.745111E-19
3.990050E+03	3.087606E-17	5.805456E-19
4.000000E+03	3.122443E-17	5.863511E-19
4.009950E+03	3.156533E-17	5.920036E-19
4.019900E+03	3.188964E-17	5.973332E-19
4.029851E+03	3.220146E-17	6.024181E-19
4.039801E+03	3.250061E-17	6.072559E-19
4.049751E+03	3.279154E-17	6.119305E-19
4.059701E+03	3.306515E-17	6.162737E-19
4.069652E+03	3.332602E-17	6.203715E-19
4.079602E+03	3.357427E-17	6.242280E-19
4.089552E+03	3.381013E-17	6.278480E-19
4.099502E+03	3.403389E-17	6.312379E-19
4.109453E+03	3.425061E-17	6.344929E-19
4.119403E+03	3.445131E-17	6.374476E-19
4.129353E+03	3.464120E-17	6.401991E-19
4.139303E+03	3.482082E-17	6.427584E-19
4.149254E+03	3.499077E-17	6.451378E-19
4.159204E+03	3.515172E-17	6.473503E-19
4.169154E+03	3.530438E-17	6.494097E-19
4.179104E+03	3.544949E-17	6.513305E-19
4.189055E+03	3.558782E-17	6.531274E-19
4.199005E+03	3.572020E-17	6.548162E-19
4.208955E+03	3.584743E-17	6.564123E-19
4.218905E+03	3.597038E-17	6.579322E-19
4.228856E+03	3.608991E-17	6.593920E-19
4.238806E+03	3.620198E-17	6.607183E-19
4.248756E+03	3.631726E-17	6.621063E-19
4.258706E+03	3.643172E-17	6.634828E-19
4.268657E+03	3.654621E-17	6.648634E-19
4.278607E+03	3.666159E-17	6.662641E-19
4.288557E+03	3.677371E-17	6.676096E-19
4.298507E+03	3.689327E-17	6.690944E-19
4.308458E+03	3.701608E-17	6.706426E-19
4.318408E+03	3.713791E-17	6.721772E-19
4.328358E+03	3.726937E-17	6.738909E-19
4.338308E+03	3.740111E-17	6.756143E-19
4.348259E+03	3.754369E-17	6.775381E-19
4.358209E+03	3.768755E-17	6.794900E-19
4.368159E+03	3.784313E-17	6.816578E-19
4.378109E+03	3.800057E-17	6.838640E-19
4.388060E+03	3.817008E-17	6.862925E-19
4.398010E+03	3.834151E-17	6.887604E-19
4.407960E+03	3.851982E-17	6.913571E-19
4.417910E+03	3.870998E-17	6.941716E-19
4.427861E+03	3.890151E-17	6.970159E-19
4.437811E+03	3.909924E-17	6.999765E-19
4.447761E+03	3.930284E-17	7.030473E-19
4.457711E+03	3.951196E-17	7.062217E-19
4.467662E+03	3.972619E-17	7.094923E-19
4.477612E+03	3.995039E-17	7.129455E-19
4.487562E+03	4.017360E-17	7.163858E-19
4.497512E+03	4.040063E-17	7.198988E-19
4.507463E+03	4.062567E-17	7.233808E-19
4.517413E+03	4.085892E-17	7.270138E-19
4.527363E+03	4.109461E-17	7.306945E-19
4.537313E+03	4.133230E-17	7.344153E-19
4.547264E+03	4.157154E-17	7.381681E-19
4.557214E+03	4.180646E-17	7.418487E-19
4.567164E+03	4.204755E-17	7.456436E-19
4.577114E+03	4.228903E-17	7.494497E-19
4.587065E+03	4.252499E-17	7.531627E-19
4.597015E+03	4.276619E-17	7.569731E-19
4.606965E+03	4.300124E-17	7.606795E-19
4.616915E+03	4.324108E-17	7.644752E-19
4.626866E+03	4.347428E-17	7.681583E-19
4.636816E+03	4.370627E-17	7.718250E-19
4.646766E+03	4.393693E-17	7.754732E-19
4.656716E+03	4.417190E-17	7.792021E-19
4.666667E+03	4.439970E-17	7.828098E-19
4.676617E+03	4.462604E-17	7.863965E-19
4.686567E+03	4.485092E-17	7.899628E-19
4.696517E+03	4.507439E-17	7.935093E-19
4.706468E+03	4.529654E-17	7.970377E-19
4.716418E+03	4.551747E-17	8.005498E-19
4.726368E+03	4.573729E-17	8.040475E-19
4.736318E+03	4.595614E-17	8.075333E-19
4.746269E+03	4.616822E-17	8.109054E-19
4.756219E+03	4.638552E-17	8.143744E-19
4.766169E+03	4.660226E-17	8.178388E-19
4.776119E+03	4.681259E-17	8.211959E-19
4.786070E+03	4.702857E-17	8.246574E-19
4.796020E+03	4.723831E-17	8.280146E-19
4.805970E+03	4.745391E-17	8.314800E-19
4.815920E+03	4.766333E-17	8.348420E-19
4.825871E+03	4.787261E-17	8.382068E-19
4.835821E+03	4.808171E-17	8.415738E-19
4.845771E+03	4.829672E-17	8.450494E-19
4.855721E+03	4.850522E-17	8.484163E-19
4.865672E+03	4.871321E-17	8.517794E-19
4.875622E+03	4.892046E-17	8.551347E-19
4.885572E+03	4.912673E-17	8.584779E-19
4.895522E+03	4.933171E-17	8.618038E-19
4.905473E+03	4.953508E-17	8.651068E-19
4.915423E+03	4.973014E-17	8.682699E-19
4.925373E+03	4.992908E-17	8.715058E-19
4.935323E+03	5.012517E-17	8.746972E-19
4.945274E+03	5.031157E-17	8.777247E-19
4.955224E+03	5.050050E-17	8.808015E-19
4.965174E+03	5.067871E-17	8.836967E-19
4.975124E+03	5.085848E-17	8.866242E-19
4.985075E+03	5.102647E-17	8.893516E-19
4.995025E+03	5.118856E-17	8.919816E-19
5.004975E+03	5.135074E-17	8.946183E-19
5.014925E+03	5.149959E-17	8.970283E-19
5.024876E+03	5.164111E-17	8.993159E-19
5.034826E+03	5.177486E-17	9.014735E-19
5.044776E+03	5.190044E-17	9.034943E-19
5.054726E+03	5.201748E-17	9.053720E-19
5.064677E+03	5.212567E-17	9.071010E-19
5.074627E+03	5.222471E-17	9.086764E-19
5.084577E+03	5.231438E-17	9.100941E-19
5.094527E+03	5.238792E-17	9.112368E-19
5.104478E+03	5.245831E-17	9.123301E-19
5.114428E+03	5.251890E-17	9.132587E-19
5.124378E+03	5.256309E-17	9.139075E-19
5.134328E+03	5.260402E-17	9.145053E-19
5.144279E+03	5.262861E-17	9.148247E-19
5.154229E+03	5.264356E-17	9.149819E-19
5.164179E+03	5.265557E-17	9.150937E-19
5.174129E+03	5.265173E-17	9.149355E-19
5.184080E+03	5.263884E-17	9.146256E-19
5.194030E+03	5.261721E-17	9.141694E-19
5.203980E+03	5.258715E-17	9.135721E-19
5.213930E+03	5.254904E-17	9.128406E-19
5.223881E+03	5.250326E-17	9.119813E-19
5.233831E+03	5.245026E-17	9.110019E-19
5.243781E+03	5.239046E-17	9.099099E-19
5.253731E+03	5.231787E-17	9.086011E-19
5.263682E+03	5.224596E-17	9.073096E-19
5.273632E+03	5.216876E-17	9.059313E-19
5.283582E+03	5.208030E-17	9.043629E-19
5.293532E+03	5.199405E-17	9.028381E-19
5.303483E+03	5.189763E-17	9.011419E-19
5.313433E+03	5.180444E-17	8.995070E-19
5.323383E+03	5.170216E-17	8.977194E-19
5.333333E+03	5.159772E-17	8.958995E-19
5.343284E+03	5.149801E-17	8.941666E-19
5.353234E+03	5.139076E-17	8.923079E-19
5.363184E+03	5.128281E-17	8.904422E-19
5.373134E+03	5.117462E-17	8.885773E-19
5.383085E+03	5.106663E-17	8.867207E-19
5.393035E+03	5.095925E-17	8.848797E-19
5.402985E+03	5.085286E-17	8.830608E-19
5.412935E+03	5.074781E-17	8.812702E-19
5.422886E+03	5.063821E-17	8.794053E-19
5.432836E+03	5.053686E-17	8.776887E-19
5.442786E+03	5.043779E-17	8.760164E-19
5.452736E+03	5.033502E-17	8.742849E-19
5.462687E+03	5.024116E-17	8.727129E-19
5.472637E+03	5.014395E-17	8.710873E-19
5.482587E+03	5.005577E-17	8.696233E-19
5.492537E+03	4.996428E-17	8.681062E-19
5.502488E+03	4.988174E-17	8.667489E-19
5.512438E+03	4.979577E-17	8.653366E-19
5.522388E+03	4.971246E-17	8.639747E-19
5.532338E+03	4.963174E-17	8.626619E-19
5.542289E+03	4.955352E-17	8.613968E-19
5.552239E+03	4.947774E-17	8.601782E-19
5.562189E+03	4.940435E-17	8.590051E-19
5.572139E+03	4.933330E-17	8.578767E-19
5.582090E+03	4.926453E-17	8.567919E-19
5.592040E+03	4.919803E-17	8.557503E-19
5.601990E+03	4.913374E-17	8.547510E-19
5.611940E+03	4.907163E-17	8.537936E-19
5.621891E+03	4.900566E-17	8.527724E-19
5.631841E+03	4.894777E-17	8.518957E-19
5.641791E+03	4.889190E-17	8.510578E-19
5.651741E+03	4.883196E-17	8.501527E-19
5.661692E+03	4.877982E-17	8.493869E-19
5.671642E+03	4.872336E-17	8.485495E-19
5.681592E+03	4.866840E-17	8.477417E-19
5.691542E+03	4.862068E-17	8.470637E-19
5.701493E+03	4.856805E-17	8.463035E-19
5.711443E+03	4.851619E-17	8.455601E-19
5.721393E+03	4.846477E-17	8.448279E-19
5.731343E+03	4.841938E-17	8.442043E-19
5.741294E+03	4.836780E-17	8.434761E-19
5.751244E+03	4.831555E-17	8.427397E-19
5.761194E+03	4.826222E-17	8.419877E-19
5.771144E+03	4.820739E-17	8.412130E-19
5.781095E+03	4.815065E-17	8.404081E-19
5.791045E+03	4.809157E-17	8.395658E-19
5.800995E+03	4.802390E-17	8.385767E-19
5.810945E+03	4.795904E-17	8.376400E-19
5.820896E+03	4.789078E-17	8.366470E-19
5.830846E+03	4.781886E-17	8.355934E-19
5.840796E+03	4.773726E-17	8.343735E-19
5.850746E+03	4.765751E-17	8.331893E-19
5.860697E+03	4.757374E-17	8.319377E-19
5.870647E+03	4.748019E-17	8.305181E-19
5.880597E+03	4.738861E-17	8.291359E-19
5.890547E+03	4.728764E-17	8.275924E-19
5.900498E+03	4.718342E-17	8.259950E-19
5.910448E+03	4.708213E-17	8.244517E-19
5.920398E+03	4.697278E-17	8.227700E-19
5.930348E+03	4.686174E-17	8.210617E-19
5.940299E+03	4.675542E-17	8.194390E-19
5.950249E+03	4.664315E-17	8.177147E-19
5.960199E+03	4.653148E-17	8.160038E-19
5.970149E+03	4.642128E-17	8.143216E-19
5.980100E+03	4.631347E-17	8.126841E-19
5.990050E+03	4.620896E-17	8.111076E-19
6.000000E+03	4.610871E-17	8.096087E-19
6.009950E+03	4.601362E-17	8.082037E-19
6.019900E+03	4.592461E-17	8.069085E-19
6.029851E+03	4.584252E-17	8.057383E-19
6.039801E+03	4.576817E-17	8.047074E-19
6.049751E+03	4.570229E-17	8.038289E-19
6.059701E+03	4.563997E-17	8.030167E-19
6.069652E+03	4.559292E-17	8.024770E-19
6.079602E+03	4.555603E-17	8.021200E-19
6.089552E+03	4.552966E-17	8.019523E-19
6.099502E+03	4.550849E-17	8.018807E-19
6.109453E+03	4.550378E-17	8.021035E-19
6.119403E+03	4.550439E-17	8.024250E-19
6.129353E+03	4.552135E-17	8.030396E-19
6.139303E+03	4.554328E-17	8.037472E-19
6.149254E+03	4.558099E-17	8.047385E-19
6.159204E+03	4.562287E-17	8.058091E-19
6.169154E+03	4.567951E-17	8.071463E-19
6.179104E+03	4.573910E-17	8.085416E-19
6.189055E+03	4.580647E-17	8.100807E-19
6.199005E+03	4.588640E-17	8.118481E-19
6.208955E+03	4.596673E-17	8.136291E-19
6.218905E+03	4.605202E-17	8.155042E-19
6.228856E+03	4.614675E-17	8.175529E-19
6.238806E+03	4.623841E-17	8.195535E-19
6.248756E+03	4.633136E-17	8.215830E-19
6.258706E+03	4.642433E-17	8.236194E-19
6.268657E+03	4.651609E-17	8.256402E-19
6.278607E+03	4.660543E-17	8.276242E-19
6.288557E+03	4.669119E-17	8.295506E-19
6.298507E+03	4.677229E-17	8.314000E-19
6.308458E+03	4.684772E-17	8.331541E-19
6.318408E+03	4.691653E-17	8.347960E-19
6.328358E+03	4.697788E-17	8.363102E-19
6.338308E+03	4.703099E-17	8.376830E-19
6.348259E+03	4.707520E-17	8.389019E-19
6.358209E+03	4.710991E-17	8.399561E-19
6.368159E+03	4.712886E-17	8.407337E-19
6.378109E+03	4.714318E-17	8.414326E-19
6.388060E+03	4.714679E-17	8.419440E-19
6.398010E+03	4.713941E-17	8.422627E-19
6.407960E+03	4.711511E-17	8.422822E-19
6.417910E+03	4.708532E-17	8.422065E-19
6.427861E+03	4.704421E-17	8.419309E-19
6.437811E+03	4.698605E-17	8.413523E-19
6.447761E+03	4.692241E-17	8.406776E-19
6.457711E+03	4.684764E-17	8.398052E-19
6.467662E+03	4.675614E-17	8.386342E-19
6.477612E+03	4.665960E-17	8.373738E-19
6.487562E+03	4.654676E-17	8.358217E-19
6.497512E+03	4.642934E-17	8.341878E-19
6.507463E+03	4.629622E-17	8.322720E-19
6.517413E+03	4.615344E-17	8.301824E-19
6.527363E+03	4.600702E-17	8.280270E-19
6.537313E+03	4.584605E-17	8.256089E-19
6.547264E+03	4.568224E-17	8.231389E-19
6.557214E+03	4.550481E-17	8.204224E-19
6.567164E+03	4.531992E-17	8.175699E-19
6.577114E+03	4.513367E-17	8.146912E-19
6.587065E+03	4.493553E-17	8.115962E-19
6.597015E+03	4.473172E-17	8.083965E-19
6.606965E+03	4.452291E-17	8.051043E-19
6.616915E+03	4.430982E-17	8.017323E-19
6.626866E+03	4.409865E-17	7.983927E-19
6.636816E+03	4.387933E-17	7.949027E-19
6.646766E+03	4.365814E-17	7.913761E-19
6.656716E+03	4.343597E-17	7.878287E-19
6.666667E+03	4.321371E-17	7.842769E-19
6.676617E+03	4.299228E-17	7.807372E-19
6.686567E+03	4.277265E-17	7.772270E-19
6.696517E+03	4.255575E-17	7.737635E-19
6.706468E+03	4.234255E-17	7.703642E-19
6.716418E+03	4.213399E-17	7.670464E-19
6.726368E+03	4.193100E-17	7.638272E-19
6.736318E+03	4.173449E-17	7.607232E-19
6.746269E+03	4.154533E-17	7.577505E-19
6.756219E+03	4.136434E-17	7.549244E-19
6.766169E+03	4.119230E-17	7.522593E-19
6.776119E+03	4.102991E-17	7.497682E-19
6.786070E+03	4.087275E-17	7.473708E-19
6.796020E+03	4.073149E-17	7.452622E-19
6.805970E+03	4.060151E-17	7.433587E-19
6.815920E+03	4.048320E-17	7.416676E-19
6.825871E+03	4.037180E-17	7.401022E-19
6.835821E+03	4.027750E-17	7.388494E-19
6.845771E+03	4.019533E-17	7.378186E-19
6.855721E+03	4.012521E-17	7.370090E-19
6.865672E+03	4.006201E-17	7.363268E-19
6.875622E+03	4.001540E-17	7.359498E-19
6.885572E+03	3.997504E-17	7.356884E-19
6.895522E+03	3.995036E-17	7.357166E-19
6.905473E+03	3.993581E-17	7.359326E-19
6.915423E+03	3.992576E-17	7.362330E-19
6.925373E+03	3.992936E-17	7.367868E-19
6.935323E+03	3.993585E-17	7.373960E-19
6.945274E+03	3.995428E-17	7.382276E-19
6.955224E+03	3.997375E-17	7.390810E-19
6.965174E+03	4.000324E-17	7.401220E-19
6.975124E+03	4.003180E-17	7.411484E-19
6.985075E+03	4.006338E-17	7.422336E-19
6.995025E+03	4.010194E-17	7.434510E-19
7.004975E+03	4.013654E-17	7.445977E-19
7.014925E+03	4.017614E-17	7.458403E-19
7.024876E+03	4.020981E-17	7.469759E-19
7.034826E+03	4.024164E-17	7.480802E-19
7.044776E+03	4.027074E-17	7.491368E-19
7.054726E+03	4.030132E-17	7.502239E-19
7.064677E+03	4.032258E-17	7.511403E-19
7.074627E+03	4.033881E-17	7.519659E-19
7.084577E+03	4.034935E-17	7.526881E-19
7.094527E+03	4.035360E-17	7.532955E-19
7.104478E+03	4.035603E-17	7.538715E-19
7.114428E+03	4.034605E-17	7.542181E-19
7.124378E+03	4.032825E-17	7.544207E-19
7.134328E+03	4.030219E-17	7.544707E-19
7.144279E+03	4.026749E-17	7.543610E-19
7.154229E+03	4.022382E-17	7.540846E-19
7.164179E+03	4.017085E-17	7.536356E-19
7.174129E+03	4.010834E-17	7.530086E-19
7.184080E+03	4.003605E-17	7.521991E-19
7.194030E+03	3.995378E-17	7.512030E-19
7.203980E+03	3.986141E-17	7.500174E-19
7.213930E+03	3.975883E-17	7.486399E-19
7.223881E+03	3.964600E-17	7.470697E-19
7.233831E+03	3.952295E-17	7.453066E-19
7.243781E+03	3.938482E-17	7.432585E-19
7.253731E+03	3.924166E-17	7.411150E-19
7.263682E+03	3.908874E-17	7.387861E-19
7.273632E+03	3.892639E-17	7.362777E-19
7.283582E+03	3.875010E-17	7.335041E-19
7.293532E+03	3.857012E-17	7.306591E-19
7.303483E+03	3.838212E-17	7.276601E-19
7.313433E+03	3.818672E-17	7.245187E-19
7.323383E+03	3.797984E-17	7.211573E-19
7.333333E+03	3.777186E-17	7.177724E-19
7.343284E+03	3.755407E-17	7.141984E-19
7.353234E+03	3.733688E-17	7.106329E-19
7.363184E+03	3.711645E-17	7.070028E-19
7.373134E+03	3.688911E-17	7.032383E-19
7.383085E+03	3.666521E-17	6.995361E-19
7.393035E+03	3.643647E-17	6.957385E-19
7.402985E+03	3.621314E-17	6.920412E-19
7.412935E+03	3.598706E-17	6.882884E-19
7.422886E+03	3.576385E-17	6.845873E-19
7.432836E+03	3.554896E-17	6.810425E-19
7.442786E+03	3.533432E-17	6.774999E-19
7.452736E+03	3.512535E-17	6.740635E-19
7.462687E+03	3.492736E-17	6.708351E-19
7.472637E+03	3.473225E-17	6.676601E-19
7.482587E+03	3.454525E-17	6.646389E-19
7.492537E+03	3.436704E-17	6.617853E-19
7.502488E+03	3.420260E-17	6.591954E-19
7.512438E+03	3.404379E-17	6.567131E-19
7.522388E+03	3.389548E-17	6.544326E-19
7.532338E+03	3.375808E-17	6.523623E-19
7.542289E+03	3.363193E-17	6.505098E-19
7.552239E+03	3.351731E-17	6.488806E-19
7.562189E+03	3.341436E-17	6.474782E-19
7.572139E+03	3.332314E-17	6.463046E-19
7.582090E+03	3.324360E-17	6.453591E-19
7.592040E+03	3.317552E-17	6.446382E-19
7.601990E+03	3.311859E-17	6.441363E-19
7.611940E+03	3.307241E-17	6.438461E-19
7.621891E+03	3.303653E-17	6.437591E-19
7.631841E+03	3.301042E-17	6.438656E-19
7.641791E+03	3.299355E-17	6.441559E-19
7.651741E+03	3.298536E-17	6.446193E-19
7.661692E+03	3.298108E-17	6.451629E-19
7.671642E+03	3.298858E-17	6.459409E-19
7.681592E+03	3.300312E-17	6.468610E-19
7.691542E+03	3.301992E-17	6.478299E-19
7.701493E+03	3.304698E-17	6.490046E-19
7.711443E+03	3.307959E-17	6.502930E-19
7.721393E+03	3.311308E-17	6.516035E-19
