#wls	flux	fluxerr
1.600000E+03	1.895087E-14	1.980352E-16
1.640000E+03	1.957688E-14	2.039167E-16
1.680000E+03	2.025612E-14	2.102936E-16
1.720000E+03	2.099484E-14	2.172235E-16
1.760000E+03	2.179749E-14	2.247442E-16
1.800000E+03	2.267106E-14	2.329185E-16
1.840000E+03	2.362078E-14	2.417901E-16
1.880000E+03	2.465667E-14	2.514501E-16
1.920000E+03	2.578719E-14	2.619721E-16
1.960000E+03	2.701931E-14	2.734128E-16
2.000000E+03	2.836507E-14	2.858781E-16
2.040000E+03	2.983296E-14	2.994363E-16
2.080000E+03	3.143235E-14	3.141622E-16
2.120000E+03	3.317809E-14	3.301828E-16
2.160000E+03	3.507482E-14	3.475210E-16
2.200000E+03	3.712794E-14	3.662057E-16
2.240000E+03	3.933667E-14	3.862032E-16
2.280000E+03	4.168377E-14	4.073185E-16
2.320000E+03	4.420759E-14	4.298998E-16
2.360000E+03	4.695435E-14	4.543635E-16
2.400000E+03	4.996629E-14	4.810780E-16
2.440000E+03	5.328399E-14	5.103863E-16
2.480000E+03	5.695141E-14	5.426546E-16
2.520000E+03	6.101342E-14	5.782475E-16
2.560000E+03	6.551288E-14	6.175001E-16
2.600000E+03	7.049840E-14	6.607903E-16
2.640000E+03	7.601853E-14	7.084846E-16
2.680000E+03	8.212087E-14	7.609277E-16
2.720000E+03	8.885061E-14	8.184304E-16
2.760000E+03	9.625490E-14	8.813098E-16
2.800000E+03	1.043619E-13	9.496981E-16
2.840000E+03	1.131926E-13	1.023654E-15
2.880000E+03	1.227674E-13	1.103226E-15
2.920000E+03	1.331051E-13	1.188441E-15
2.960000E+03	1.442390E-13	1.279453E-15
3.000000E+03	1.562092E-13	1.376462E-15
3.010000E+03	1.593358E-13	1.401664E-15
3.020000E+03	1.625173E-13	1.427250E-15
3.030000E+03	1.657567E-13	1.453246E-15
3.040000E+03	1.690537E-13	1.479647E-15
3.050000E+03	1.724080E-13	1.506445E-15
3.060000E+03	1.758230E-13	1.533670E-15
3.070000E+03	1.792949E-13	1.561285E-15
3.080000E+03	1.828313E-13	1.589353E-15
3.090000E+03	1.864284E-13	1.617839E-15
3.100000E+03	1.900909E-13	1.646780E-15
3.110000E+03	1.938197E-13	1.676180E-15
3.120000E+03	1.976197E-13	1.706081E-15
3.130000E+03	2.014928E-13	1.736494E-15
3.140000E+03	2.054415E-13	1.767438E-15
3.150000E+03	2.094727E-13	1.798969E-15
3.160000E+03	2.135861E-13	1.831080E-15
3.170000E+03	2.177945E-13	1.863877E-15
3.180000E+03	2.220999E-13	1.897373E-15
3.190000E+03	2.265129E-13	1.931655E-15
3.200000E+03	2.310422E-13	1.966791E-15
3.210000E+03	2.356975E-13	2.002858E-15
3.220000E+03	2.404944E-13	2.039985E-15
3.230000E+03	2.454464E-13	2.078278E-15
3.240000E+03	2.505645E-13	2.117823E-15
3.250000E+03	2.558788E-13	2.158868E-15
3.260000E+03	2.613963E-13	2.201462E-15
3.270000E+03	2.671511E-13	2.245884E-15
3.280000E+03	2.731585E-13	2.292250E-15
3.290000E+03	2.794477E-13	2.340795E-15
3.300000E+03	2.860498E-13	2.391766E-15
3.310000E+03	2.929827E-13	2.445300E-15
3.320000E+03	3.002819E-13	2.501675E-15
3.330000E+03	3.079717E-13	2.561080E-15
3.340000E+03	3.160684E-13	2.623632E-15
3.350000E+03	3.245860E-13	2.689428E-15
3.360000E+03	3.335282E-13	2.758482E-15
3.370000E+03	3.428891E-13	2.830726E-15
3.380000E+03	3.526298E-13	2.905821E-15
3.390000E+03	3.627061E-13	2.983388E-15
3.400000E+03	3.730269E-13	3.062663E-15
3.410000E+03	3.834792E-13	3.142712E-15
3.420000E+03	3.939238E-13	3.222391E-15
3.430000E+03	4.041719E-13	3.300159E-15
3.440000E+03	4.140331E-13	3.374475E-15
3.450000E+03	4.232822E-13	3.443525E-15
3.460000E+03	4.317115E-13	3.505652E-15
3.470000E+03	4.392884E-13	3.560630E-15
3.480000E+03	4.460059E-13	3.608440E-15
3.490000E+03	4.518927E-13	3.649355E-15
3.500000E+03	4.570226E-13	3.684008E-15
3.510000E+03	4.614675E-13	3.713013E-15
3.520000E+03	4.652950E-13	3.736942E-15
3.530000E+03	4.684738E-13	3.755576E-15
3.540000E+03	4.709392E-13	3.768425E-15
3.550000E+03	4.726134E-13	3.774901E-15
3.560000E+03	4.733829E-13	3.774135E-15
3.570000E+03	4.731685E-13	3.765536E-15
3.580000E+03	4.719927E-13	3.749328E-15
3.590000E+03	4.700415E-13	3.727028E-15
3.600000E+03	4.676211E-13	3.701094E-15
3.610000E+03	4.650022E-13	3.673684E-15
3.620000E+03	4.623728E-13	3.646292E-15
3.630000E+03	4.599629E-13	3.620728E-15
3.640000E+03	4.579791E-13	3.598606E-15
3.650000E+03	4.564220E-13	3.579914E-15
3.660000E+03	4.552773E-13	3.564522E-15
3.670000E+03	4.545549E-13	3.552490E-15
3.680000E+03	4.540765E-13	3.542410E-15
3.690000E+03	4.537022E-13	3.533183E-15
3.700000E+03	4.533534E-13	3.524194E-15
3.710000E+03	4.528210E-13	3.513821E-15
3.720000E+03	4.519825E-13	3.501122E-15
3.730000E+03	4.508997E-13	3.486589E-15
3.740000E+03	4.496641E-13	3.470939E-15
3.750000E+03	4.485366E-13	3.456187E-15
3.760000E+03	4.478067E-13	3.444559E-15
3.770000E+03	4.473840E-13	3.435343E-15
3.780000E+03	4.471643E-13	3.427731E-15
3.790000E+03	4.471260E-13	3.421549E-15
3.800000E+03	4.473963E-13	3.417761E-15
3.810000E+03	4.481087E-13	3.417377E-15
3.820000E+03	4.493463E-13	3.421011E-15
3.830000E+03	4.511131E-13	3.428675E-15
3.840000E+03	4.532893E-13	3.439441E-15
3.850000E+03	4.555970E-13	3.451190E-15
3.860000E+03	4.576630E-13	3.461096E-15
3.870000E+03	4.589255E-13	3.464928E-15
3.880000E+03	4.587997E-13	3.458309E-15
3.890000E+03	4.571618E-13	3.440360E-15
3.900000E+03	4.539501E-13	3.410674E-15
3.910000E+03	4.491838E-13	3.369452E-15
3.920000E+03	4.432941E-13	3.319978E-15
3.930000E+03	4.368458E-13	3.266516E-15
3.940000E+03	4.304054E-13	3.213313E-15
3.950000E+03	4.244971E-13	3.164276E-15
3.960000E+03	4.196861E-13	3.123591E-15
3.970000E+03	4.164248E-13	3.094583E-15
3.980000E+03	4.146843E-13	3.076982E-15
3.990000E+03	4.143389E-13	3.069808E-15
4.000000E+03	4.151732E-13	3.071420E-15
4.010000E+03	4.165633E-13	3.077172E-15
4.020000E+03	4.177115E-13	3.081165E-15
4.030000E+03	4.179096E-13	3.078189E-15
4.040000E+03	4.169875E-13	3.067027E-15
4.050000E+03	4.148468E-13	3.046990E-15
4.060000E+03	4.114960E-13	3.018180E-15
4.070000E+03	4.076277E-13	2.985705E-15
4.080000E+03	4.039972E-13	2.955106E-15
4.090000E+03	4.011400E-13	2.930287E-15
4.100000E+03	3.993069E-13	2.913054E-15
4.110000E+03	3.985399E-13	2.903684E-15
4.120000E+03	3.986607E-13	2.900850E-15
4.130000E+03	3.991540E-13	2.900783E-15
4.140000E+03	3.992014E-13	2.897535E-15
4.150000E+03	3.979754E-13	2.885119E-15
4.160000E+03	3.954115E-13	2.863103E-15
4.170000E+03	3.913194E-13	2.830144E-15
4.180000E+03	3.855206E-13	2.784992E-15
4.190000E+03	3.791111E-13	2.735595E-15
4.200000E+03	3.730528E-13	2.688899E-15
4.210000E+03	3.677557E-13	2.647846E-15
4.220000E+03	3.635923E-13	2.615095E-15
4.230000E+03	3.604845E-13	2.590058E-15
4.240000E+03	3.579837E-13	2.569489E-15
4.250000E+03	3.558832E-13	2.551895E-15
4.260000E+03	3.536832E-13	2.533685E-15
4.270000E+03	3.507621E-13	2.510413E-15
4.280000E+03	3.473949E-13	2.484057E-15
4.290000E+03	3.437885E-13	2.456105E-15
4.300000E+03	3.399886E-13	2.426885E-15
4.310000E+03	3.364777E-13	2.399842E-15
4.320000E+03	3.336428E-13	2.377725E-15
4.330000E+03	3.316404E-13	2.361639E-15
4.340000E+03	3.303238E-13	2.350523E-15
4.350000E+03	3.294153E-13	2.342391E-15
4.360000E+03	3.287402E-13	2.335993E-15
4.370000E+03	3.283518E-13	2.331704E-15
4.380000E+03	3.283939E-13	2.330539E-15
4.390000E+03	3.290379E-13	2.333706E-15
4.400000E+03	3.303434E-13	2.341622E-15
4.410000E+03	3.319670E-13	2.351843E-15
4.420000E+03	3.334179E-13	2.360891E-15
4.430000E+03	3.344781E-13	2.367226E-15
4.440000E+03	3.347876E-13	2.368305E-15
4.450000E+03	3.339199E-13	2.361118E-15
4.460000E+03	3.321401E-13	2.347549E-15
4.470000E+03	3.296465E-13	2.329007E-15
4.480000E+03	3.264527E-13	2.305588E-15
4.490000E+03	3.227766E-13	2.278837E-15
4.500000E+03	3.187798E-13	2.249894E-15
4.510000E+03	3.145276E-13	2.219219E-15
4.520000E+03	3.101277E-13	2.187571E-15
4.530000E+03	3.057109E-13	2.155869E-15
4.540000E+03	3.013843E-13	2.124868E-15
4.550000E+03	2.971394E-13	2.094501E-15
4.560000E+03	2.930065E-13	2.064982E-15
4.570000E+03	2.890605E-13	2.036835E-15
4.580000E+03	2.852939E-13	2.010002E-15
4.590000E+03	2.817603E-13	1.984859E-15
4.600000E+03	2.785424E-13	1.961987E-15
4.610000E+03	2.756243E-13	1.941269E-15
4.620000E+03	2.730231E-13	1.922824E-15
4.630000E+03	2.707618E-13	1.906812E-15
4.640000E+03	2.687577E-13	1.892648E-15
4.650000E+03	2.669174E-13	1.879674E-15
4.660000E+03	2.651923E-13	1.867545E-15
4.670000E+03	2.636388E-13	1.856659E-15
4.680000E+03	2.623007E-13	1.847321E-15
4.690000E+03	2.612155E-13	1.839795E-15
4.700000E+03	2.605470E-13	1.835234E-15
4.710000E+03	2.603958E-13	1.834348E-15
4.720000E+03	2.607767E-13	1.837240E-15
4.730000E+03	2.617061E-13	1.844027E-15
4.740000E+03	2.631153E-13	1.854226E-15
4.750000E+03	2.649033E-13	1.867127E-15
4.760000E+03	2.670255E-13	1.882417E-15
4.770000E+03	2.694429E-13	1.899822E-15
4.780000E+03	2.720830E-13	1.918831E-15
4.790000E+03	2.747437E-13	1.938022E-15
4.800000E+03	2.771920E-13	1.955749E-15
4.810000E+03	2.792353E-13	1.970654E-15
4.820000E+03	2.807809E-13	1.982079E-15
4.830000E+03	2.817683E-13	1.989595E-15
4.840000E+03	2.822176E-13	1.993340E-15
4.850000E+03	2.823396E-13	1.994800E-15
4.860000E+03	2.824064E-13	1.995895E-15
4.870000E+03	2.826596E-13	1.998333E-15
4.880000E+03	2.831111E-13	2.002198E-15
4.890000E+03	2.837189E-13	2.007194E-15
4.900000E+03	2.844151E-13	2.012842E-15
4.910000E+03	2.850106E-13	2.017803E-15
4.920000E+03	2.852773E-13	2.020462E-15
4.930000E+03	2.850348E-13	2.019536E-15
4.940000E+03	2.842801E-13	2.014999E-15
4.950000E+03	2.830586E-13	2.007169E-15
4.960000E+03	2.814354E-13	1.996502E-15
4.970000E+03	2.795103E-13	1.983703E-15
4.980000E+03	2.773830E-13	1.969476E-15
4.990000E+03	2.751466E-13	1.954479E-15
5.000000E+03	2.729525E-13	1.939786E-15
5.010000E+03	2.709142E-13	1.926205E-15
5.020000E+03	2.690905E-13	1.914154E-15
5.030000E+03	2.675881E-13	1.904394E-15
5.040000E+03	2.664318E-13	1.897105E-15
5.050000E+03	2.655339E-13	1.891664E-15
5.060000E+03	2.648922E-13	1.888058E-15
5.070000E+03	2.643912E-13	1.885467E-15
5.080000E+03	2.638239E-13	1.882414E-15
5.090000E+03	2.631601E-13	1.878684E-15
5.100000E+03	2.622920E-13	1.873502E-15
5.110000E+03	2.610732E-13	1.865822E-15
5.120000E+03	2.595934E-13	1.856281E-15
5.130000E+03	2.578942E-13	1.845171E-15
5.140000E+03	2.559761E-13	1.832494E-15
5.150000E+03	2.540498E-13	1.819755E-15
5.160000E+03	2.522739E-13	1.808090E-15
5.170000E+03	2.507151E-13	1.797981E-15
5.180000E+03	2.494380E-13	1.789892E-15
5.190000E+03	2.484419E-13	1.783821E-15
5.200000E+03	2.476446E-13	1.779181E-15
5.210000E+03	2.469502E-13	1.775286E-15
5.220000E+03	2.462043E-13	1.771025E-15
5.230000E+03	2.452605E-13	1.765344E-15
5.240000E+03	2.441670E-13	1.758588E-15
5.250000E+03	2.429693E-13	1.751081E-15
5.260000E+03	2.416595E-13	1.742765E-15
5.270000E+03	2.403446E-13	1.734411E-15
5.280000E+03	2.390465E-13	1.726176E-15
5.290000E+03	2.376943E-13	1.717548E-15
5.300000E+03	2.363760E-13	1.709162E-15
5.310000E+03	2.350720E-13	1.700876E-15
5.320000E+03	2.337023E-13	1.692111E-15
5.330000E+03	2.323568E-13	1.683518E-15
5.340000E+03	2.310599E-13	1.675273E-15
5.350000E+03	2.297347E-13	1.666819E-15
5.360000E+03	2.284488E-13	1.658647E-15
5.370000E+03	2.271700E-13	1.650522E-15
5.380000E+03	2.258008E-13	1.641735E-15
5.390000E+03	2.245682E-13	1.633937E-15
5.400000E+03	2.236109E-13	1.628139E-15
5.410000E+03	2.229109E-13	1.624215E-15
5.420000E+03	2.225013E-13	1.622410E-15
5.430000E+03	2.221973E-13	1.621380E-15
5.440000E+03	2.216523E-13	1.618594E-15
5.450000E+03	2.208628E-13	1.614023E-15
5.460000E+03	2.196631E-13	1.606452E-15
5.470000E+03	2.178360E-13	1.594282E-15
5.480000E+03	2.157151E-13	1.579947E-15
5.490000E+03	2.134934E-13	1.564856E-15
5.500000E+03	2.111711E-13	1.549007E-15
5.510000E+03	2.090401E-13	1.534542E-15
5.520000E+03	2.072019E-13	1.522208E-15
5.530000E+03	2.055309E-13	1.511088E-15
5.540000E+03	2.040465E-13	1.501324E-15
5.550000E+03	2.025854E-13	1.491720E-15
5.560000E+03	2.008739E-13	1.480256E-15
5.570000E+03	1.990918E-13	1.468254E-15
5.580000E+03	1.973035E-13	1.456188E-15
5.590000E+03	1.954185E-13	1.443390E-15
5.600000E+03	1.936481E-13	1.431418E-15
5.610000E+03	1.920937E-13	1.421025E-15
5.620000E+03	1.906929E-13	1.411753E-15
5.630000E+03	1.895281E-13	1.404213E-15
5.640000E+03	1.885216E-13	1.397833E-15
5.650000E+03	1.874825E-13	1.391200E-15
5.660000E+03	1.865240E-13	1.385153E-15
5.670000E+03	1.856250E-13	1.379536E-15
5.680000E+03	1.846517E-13	1.373355E-15
5.690000E+03	1.837785E-13	1.367907E-15
5.700000E+03	1.830624E-13	1.363617E-15
5.710000E+03	1.824344E-13	1.359974E-15
5.720000E+03	1.820278E-13	1.357973E-15
5.730000E+03	1.818562E-13	1.357719E-15
5.740000E+03	1.818060E-13	1.358369E-15
5.750000E+03	1.818883E-13	1.360005E-15
5.760000E+03	1.819985E-13	1.361847E-15
5.770000E+03	1.819556E-13	1.362541E-15
5.780000E+03	1.817937E-13	1.362338E-15
5.790000E+03	1.814904E-13	1.361070E-15
5.800000E+03	1.809485E-13	1.358003E-15
5.810000E+03	1.802414E-13	1.353685E-15
5.820000E+03	1.794003E-13	1.348348E-15
5.830000E+03	1.783886E-13	1.341713E-15
5.840000E+03	1.772544E-13	1.334141E-15
5.850000E+03	1.760065E-13	1.325695E-15
5.860000E+03	1.746246E-13	1.316220E-15
5.870000E+03	1.731966E-13	1.306377E-15
5.880000E+03	1.717873E-13	1.296654E-15
5.890000E+03	1.704289E-13	1.287296E-15
5.900000E+03	1.691798E-13	1.278743E-15
5.910000E+03	1.680573E-13	1.271129E-15
5.920000E+03	1.670314E-13	1.264227E-15
5.930000E+03	1.661004E-13	1.258029E-15
5.940000E+03	1.652152E-13	1.252161E-15
5.950000E+03	1.642893E-13	1.245969E-15
5.960000E+03	1.633458E-13	1.239628E-15
5.970000E+03	1.623773E-13	1.233081E-15
5.980000E+03	1.613431E-13	1.226018E-15
5.990000E+03	1.602816E-13	1.218730E-15
6.000000E+03	1.592032E-13	1.211298E-15
6.010000E+03	1.580838E-13	1.203535E-15
6.020000E+03	1.569720E-13	1.195812E-15
6.030000E+03	1.558826E-13	1.188242E-15
6.040000E+03	1.547899E-13	1.180630E-15
6.050000E+03	1.537424E-13	1.173345E-15
6.060000E+03	1.527512E-13	1.166474E-15
6.070000E+03	1.517788E-13	1.159729E-15
6.080000E+03	1.508694E-13	1.153451E-15
6.090000E+03	1.500198E-13	1.147614E-15
6.100000E+03	1.491917E-13	1.141926E-15
6.110000E+03	1.484157E-13	1.136623E-15
6.120000E+03	1.476869E-13	1.131667E-15
6.130000E+03	1.469648E-13	1.126749E-15
6.140000E+03	1.462840E-13	1.122134E-15
6.150000E+03	1.456437E-13	1.117817E-15
6.160000E+03	1.450076E-13	1.113518E-15
6.170000E+03	1.444207E-13	1.109585E-15
6.180000E+03	1.438802E-13	1.105996E-15
6.190000E+03	1.433323E-13	1.102339E-15
6.200000E+03	1.428123E-13	1.098883E-15
6.210000E+03	1.422898E-13	1.095397E-15
6.220000E+03	1.416862E-13	1.091274E-15
6.230000E+03	1.410609E-13	1.086971E-15
6.240000E+03	1.404246E-13	1.082572E-15
6.250000E+03	1.397423E-13	1.077806E-15
6.260000E+03	1.391099E-13	1.073411E-15
6.270000E+03	1.385762E-13	1.069767E-15
6.280000E+03	1.381272E-13	1.066765E-15
6.290000E+03	1.378413E-13	1.065012E-15
6.300000E+03	1.377308E-13	1.064605E-15
6.310000E+03	1.377278E-13	1.065021E-15
6.320000E+03	1.378893E-13	1.066702E-15
6.330000E+03	1.381943E-13	1.069486E-15
6.340000E+03	1.385572E-13	1.072713E-15
6.350000E+03	1.390437E-13	1.076891E-15
6.360000E+03	1.396586E-13	1.082059E-15
6.370000E+03	1.403242E-13	1.087615E-15
6.380000E+03	1.410607E-13	1.093716E-15
6.390000E+03	1.418177E-13	1.099973E-15
6.400000E+03	1.424880E-13	1.105553E-15
6.410000E+03	1.430936E-13	1.110626E-15
6.420000E+03	1.436235E-13	1.115106E-15
6.430000E+03	1.440167E-13	1.118519E-15
6.440000E+03	1.443099E-13	1.121148E-15
6.450000E+03	1.445102E-13	1.123049E-15
6.460000E+03	1.445774E-13	1.123908E-15
6.470000E+03	1.445680E-13	1.124162E-15
6.480000E+03	1.444984E-13	1.123941E-15
6.490000E+03	1.443454E-13	1.123062E-15
6.500000E+03	1.441782E-13	1.122063E-15
6.510000E+03	1.440272E-13	1.121180E-15
6.520000E+03	1.438937E-13	1.120425E-15
6.530000E+03	1.438780E-13	1.120579E-15
6.540000E+03	1.439800E-13	1.121642E-15
6.550000E+03	1.440845E-13	1.122716E-15
6.560000E+03	1.441690E-13	1.123625E-15
6.570000E+03	1.441870E-13	1.124009E-15
6.580000E+03	1.440498E-13	1.123174E-15
6.590000E+03	1.437892E-13	1.121369E-15
6.600000E+03	1.433996E-13	1.118548E-15
6.610000E+03	1.428369E-13	1.114367E-15
6.620000E+03	1.421650E-13	1.109324E-15
6.630000E+03	1.414030E-13	1.103569E-15
6.640000E+03	1.405271E-13	1.096913E-15
6.650000E+03	1.396012E-13	1.089858E-15
6.660000E+03	1.386440E-13	1.082549E-15
6.670000E+03	1.376216E-13	1.074720E-15
6.680000E+03	1.365963E-13	1.066859E-15
6.690000E+03	1.355835E-13	1.059086E-15
6.700000E+03	1.345480E-13	1.051127E-15
6.710000E+03	1.335360E-13	1.043341E-15
6.720000E+03	1.325552E-13	1.035792E-15
6.730000E+03	1.315584E-13	1.028108E-15
6.740000E+03	1.305924E-13	1.020656E-15
6.750000E+03	1.296517E-13	1.013394E-15
6.760000E+03	1.286882E-13	1.005946E-15
6.770000E+03	1.277491E-13	9.986816E-16
6.780000E+03	1.268285E-13	9.915539E-16
6.790000E+03	1.258833E-13	9.842265E-16
6.800000E+03	1.249509E-13	9.769919E-16
6.810000E+03	1.240256E-13	9.698063E-16
6.820000E+03	1.230631E-13	9.623234E-16
6.830000E+03	1.221178E-13	9.549689E-16
6.840000E+03	1.212054E-13	9.478646E-16
6.850000E+03	1.203069E-13	9.408637E-16
6.860000E+03	1.194723E-13	9.343568E-16
6.870000E+03	1.187197E-13	9.284863E-16
6.880000E+03	1.180330E-13	9.231250E-16
6.890000E+03	1.174369E-13	9.184682E-16
6.900000E+03	1.169290E-13	9.144959E-16
6.910000E+03	1.164632E-13	9.108479E-16
6.920000E+03	1.160468E-13	9.075824E-16
6.930000E+03	1.156504E-13	9.044680E-16
6.940000E+03	1.152170E-13	9.010607E-16
6.950000E+03	1.147667E-13	8.975173E-16
6.960000E+03	1.143000E-13	8.938415E-16
6.970000E+03	1.137876E-13	8.898045E-16
6.980000E+03	1.132685E-13	8.857116E-16
6.990000E+03	1.127498E-13	8.816190E-16
7.000000E+03	1.122210E-13	8.774439E-16
7.010000E+03	1.117200E-13	8.734835E-16
7.020000E+03	1.112665E-13	8.698913E-16
7.030000E+03	1.108404E-13	8.665108E-16
7.040000E+03	1.104731E-13	8.635867E-16
7.050000E+03	1.101629E-13	8.611073E-16
7.060000E+03	1.098777E-13	8.588212E-16
7.070000E+03	1.096351E-13	8.568649E-16
7.080000E+03	1.094269E-13	8.551763E-16
7.090000E+03	1.092131E-13	8.534417E-16
7.100000E+03	1.090023E-13	8.517279E-16
7.110000E+03	1.087779E-13	8.499072E-16
7.120000E+03	1.084938E-13	8.476185E-16
7.130000E+03	1.081672E-13	8.449964E-16
7.140000E+03	1.077907E-13	8.419831E-16
7.150000E+03	1.073355E-13	8.383549E-16
7.160000E+03	1.068299E-13	8.343329E-16
7.170000E+03	1.062830E-13	8.299876E-16
7.180000E+03	1.056822E-13	8.252214E-16
7.190000E+03	1.050570E-13	8.202650E-16
7.200000E+03	1.044157E-13	8.151834E-16
7.210000E+03	1.037451E-13	8.098740E-16
7.220000E+03	1.030796E-13	8.046049E-16
7.230000E+03	1.024320E-13	7.994765E-16
7.240000E+03	1.017933E-13	7.944194E-16
7.250000E+03	1.012104E-13	7.897988E-16
7.260000E+03	1.007065E-13	7.857958E-16
7.270000E+03	1.002639E-13	7.822725E-16
7.280000E+03	9.990762E-14	7.794241E-16
7.290000E+03	9.961965E-14	7.771105E-16
7.300000E+03	9.935061E-14	7.749461E-16
7.310000E+03	9.909319E-14	7.728742E-16
7.320000E+03	9.880787E-14	7.705868E-16
7.330000E+03	9.844233E-14	7.676759E-16
7.340000E+03	9.800412E-14	7.642009E-16
7.350000E+03	9.749157E-14	7.601490E-16
7.360000E+03	9.689104E-14	7.554141E-16
7.370000E+03	9.625464E-14	7.504028E-16
7.380000E+03	9.561836E-14	7.453957E-16
7.390000E+03	9.499966E-14	7.405293E-16
7.400000E+03	9.442759E-14	7.360299E-16
7.410000E+03	9.390105E-14	7.318892E-16
7.420000E+03	9.340453E-14	7.279863E-16
7.430000E+03	9.294584E-14	7.243823E-16
7.440000E+03	9.251450E-14	7.209954E-16
7.450000E+03	9.207732E-14	7.175672E-16
7.460000E+03	9.164781E-14	7.142032E-16
7.470000E+03	9.121159E-14	7.107914E-16
7.480000E+03	9.074587E-14	7.071544E-16
7.490000E+03	9.025835E-14	7.033522E-16
7.500000E+03	8.974384E-14	6.993447E-16
7.510000E+03	8.916806E-14	6.948647E-16
7.520000E+03	8.852931E-14	6.898992E-16
7.530000E+03	8.780682E-14	6.842863E-16
7.540000E+03	8.695792E-14	6.776934E-16
7.550000E+03	8.600601E-14	6.703030E-16
7.560000E+03	8.495860E-14	6.621734E-16
7.570000E+03	8.382391E-14	6.533687E-16
7.580000E+03	8.268132E-14	6.445073E-16
7.590000E+03	8.161327E-14	6.362320E-16
7.600000E+03	8.067119E-14	6.289438E-16
7.610000E+03	7.987739E-14	6.228168E-16
7.620000E+03	7.923680E-14	6.178899E-16
7.630000E+03	7.873522E-14	6.140528E-16
7.640000E+03	7.834303E-14	6.110748E-16
7.650000E+03	7.801495E-14	6.086032E-16
7.660000E+03	7.771355E-14	6.063463E-16
7.670000E+03	7.739918E-14	6.039947E-16
7.680000E+03	7.704143E-14	6.013114E-16
7.690000E+03	7.661824E-14	5.981240E-16
7.700000E+03	7.612912E-14	5.944283E-16
7.710000E+03	7.558510E-14	5.903103E-16
7.720000E+03	7.500487E-14	5.859157E-16
7.730000E+03	7.439855E-14	5.813233E-16
7.740000E+03	7.378828E-14	5.767061E-16
7.750000E+03	7.318418E-14	5.721433E-16
7.760000E+03	7.259758E-14	5.677232E-16
