#wls	flux	fluxerr
1.600000E+03	3.557387E-14	8.792132E-16
1.640000E+03	3.685431E-14	9.059141E-16
1.680000E+03	3.824743E-14	9.349003E-16
1.720000E+03	3.975778E-14	9.662202E-16
1.760000E+03	4.140568E-14	1.000298E-15
1.800000E+03	4.319713E-14	1.037199E-15
1.840000E+03	4.514660E-14	1.077184E-15
1.880000E+03	4.727745E-14	1.120713E-15
1.920000E+03	4.959872E-14	1.167890E-15
1.960000E+03	5.213251E-14	1.219113E-15
2.000000E+03	5.489455E-14	1.274615E-15
2.040000E+03	5.791030E-14	1.334837E-15
2.080000E+03	6.119084E-14	1.399866E-15
2.120000E+03	6.475292E-14	1.469907E-15
2.160000E+03	6.861107E-14	1.545095E-15
2.200000E+03	7.276000E-14	1.625105E-15
2.240000E+03	7.719066E-14	1.709525E-15
2.280000E+03	8.191211E-14	1.798342E-15
2.320000E+03	8.695271E-14	1.891949E-15
2.360000E+03	9.239425E-14	1.991860E-15
2.400000E+03	9.831565E-14	2.099456E-15
2.440000E+03	1.047977E-13	2.216080E-15
2.480000E+03	1.119376E-13	2.343344E-15
2.520000E+03	1.198109E-13	2.482308E-15
2.560000E+03	1.285089E-13	2.634283E-15
2.600000E+03	1.381191E-13	2.800399E-15
2.640000E+03	1.487393E-13	2.981902E-15
2.680000E+03	1.604556E-13	3.179688E-15
2.720000E+03	1.733547E-13	3.394578E-15
2.760000E+03	1.875164E-13	3.627147E-15
2.800000E+03	2.030087E-13	3.877653E-15
2.840000E+03	2.198888E-13	4.146061E-15
2.880000E+03	2.382116E-13	4.432222E-15
2.920000E+03	2.580271E-13	4.735821E-15
2.960000E+03	2.793929E-13	5.056620E-15
3.000000E+03	3.023739E-13	5.394441E-15
3.010000E+03	3.083888E-13	5.481698E-15
3.020000E+03	3.145039E-13	5.569897E-15
3.030000E+03	3.207336E-13	5.659265E-15
3.040000E+03	3.270708E-13	5.749657E-15
3.050000E+03	3.335229E-13	5.841177E-15
3.060000E+03	3.400980E-13	5.933944E-15
3.070000E+03	3.467827E-13	6.027697E-15
3.080000E+03	3.536001E-13	6.122813E-15
3.090000E+03	3.605378E-13	6.219051E-15
3.100000E+03	3.676132E-13	6.316684E-15
3.110000E+03	3.748226E-13	6.415618E-15
3.120000E+03	3.821701E-13	6.515898E-15
3.130000E+03	3.896763E-13	6.617842E-15
3.140000E+03	3.973331E-13	6.721281E-15
3.150000E+03	4.051712E-13	6.826702E-15
3.160000E+03	4.131778E-13	6.933851E-15
3.170000E+03	4.213876E-13	7.043274E-15
3.180000E+03	4.297992E-13	7.154905E-15
3.190000E+03	4.384442E-13	7.269230E-15
3.200000E+03	4.473341E-13	7.386386E-15
3.210000E+03	4.564986E-13	7.506816E-15
3.220000E+03	4.659629E-13	7.630874E-15
3.230000E+03	4.757556E-13	7.758966E-15
3.240000E+03	4.859008E-13	7.891418E-15
3.250000E+03	4.964506E-13	8.029001E-15
3.260000E+03	5.074366E-13	8.172142E-15
3.270000E+03	5.189101E-13	8.321575E-15
3.280000E+03	5.309092E-13	8.477810E-15
3.290000E+03	5.434827E-13	8.641516E-15
3.300000E+03	5.566891E-13	8.813506E-15
3.310000E+03	5.705701E-13	8.994308E-15
3.320000E+03	5.851826E-13	9.184678E-15
3.330000E+03	6.005694E-13	9.385140E-15
3.340000E+03	6.167474E-13	9.595802E-15
3.350000E+03	6.337552E-13	9.817102E-15
3.360000E+03	6.515854E-13	1.004876E-14
3.370000E+03	6.702129E-13	1.029022E-14
3.380000E+03	6.895797E-13	1.054046E-14
3.390000E+03	7.095675E-13	1.079751E-14
3.400000E+03	7.300485E-13	1.105932E-14
3.410000E+03	7.508147E-13	1.132267E-14
3.420000E+03	7.716052E-13	1.158358E-14
3.430000E+03	7.921168E-13	1.183753E-14
3.440000E+03	8.120053E-13	1.207947E-14
3.450000E+03	8.308946E-13	1.230396E-14
3.460000E+03	8.485137E-13	1.250723E-14
3.470000E+03	8.647175E-13	1.268742E-14
3.480000E+03	8.794987E-13	1.284472E-14
3.490000E+03	8.929062E-13	1.298015E-14
3.500000E+03	9.050459E-13	1.309552E-14
3.510000E+03	9.160368E-13	1.319283E-14
3.520000E+03	9.259416E-13	1.327321E-14
3.530000E+03	9.347035E-13	1.333609E-14
3.540000E+03	9.421681E-13	1.337952E-14
3.550000E+03	9.481052E-13	1.340052E-14
3.560000E+03	9.521784E-13	1.339467E-14
3.570000E+03	9.539897E-13	1.335679E-14
3.580000E+03	9.533112E-13	1.328417E-14
3.590000E+03	9.504741E-13	1.318190E-14
3.600000E+03	9.458860E-13	1.305605E-14
3.610000E+03	9.400667E-13	1.291410E-14
3.620000E+03	9.336391E-13	1.276483E-14
3.630000E+03	9.271138E-13	1.261530E-14
3.639960E+03	8.712574E-13	1.179902E-14
3.644890E+03	8.733179E-13	1.179910E-14
3.649820E+03	8.740395E-13	1.178106E-14
3.654770E+03	8.754269E-13	1.177187E-14
3.659720E+03	8.768542E-13	1.176318E-14
3.664680E+03	8.772594E-13	1.174072E-14
3.669640E+03	8.774415E-13	1.171531E-14
3.674610E+03	8.754513E-13	1.166096E-14
3.679590E+03	8.726890E-13	1.159647E-14
3.684580E+03	8.700928E-13	1.153437E-14
3.689570E+03	8.680002E-13	1.147914E-14
3.694570E+03	8.662881E-13	1.142908E-14
3.699570E+03	8.652920E-13	1.138860E-14
3.704580E+03	8.629282E-13	1.133023E-14
3.709600E+03	8.611356E-13	1.127950E-14
3.714630E+03	8.602465E-13	1.124070E-14
3.719660E+03	8.576618E-13	1.117991E-14
3.724700E+03	8.566947E-13	1.114033E-14
3.729740E+03	8.565811E-13	1.111194E-14
3.734800E+03	8.560789E-13	1.107849E-14
3.739860E+03	8.531995E-13	1.101444E-14
3.744920E+03	8.494203E-13	1.093905E-14
3.750000E+03	8.451673E-13	1.085777E-14
3.755080E+03	8.408241E-13	1.077566E-14
3.760160E+03	8.371001E-13	1.070181E-14
3.765260E+03	8.327386E-13	1.062002E-14
3.770360E+03	8.292782E-13	1.055004E-14
3.775470E+03	8.269262E-13	1.049435E-14
3.780580E+03	8.249750E-13	1.044395E-14
3.785700E+03	8.241030E-13	1.040732E-14
3.790830E+03	8.253631E-13	1.039762E-14
3.795970E+03	8.258874E-13	1.037862E-14
3.801110E+03	8.270857E-13	1.036810E-14
3.806260E+03	8.277369E-13	1.035070E-14
3.811420E+03	8.259503E-13	1.030286E-14
3.816580E+03	8.241404E-13	1.025492E-14
3.821750E+03	8.214426E-13	1.019610E-14
3.826930E+03	8.194207E-13	1.014584E-14
3.832110E+03	8.187254E-13	1.011216E-14
3.837300E+03	8.181886E-13	1.008051E-14
3.842500E+03	8.185990E-13	1.006056E-14
3.847710E+03	8.191649E-13	1.004252E-14
3.852920E+03	8.197489E-13	1.002476E-14
3.858140E+03	8.192160E-13	9.993361E-15
3.863370E+03	8.173160E-13	9.945399E-15
3.868600E+03	8.144250E-13	9.885608E-15
3.873840E+03	8.102681E-13	9.810701E-15
3.879090E+03	8.062309E-13	9.737531E-15
3.884340E+03	8.022690E-13	9.665597E-15
3.889610E+03	8.019602E-13	9.637799E-15
3.894870E+03	8.027514E-13	9.623341E-15
3.900150E+03	7.987698E-13	9.551761E-15
3.905430E+03	7.912035E-13	9.437750E-15
3.910730E+03	7.808844E-13	9.291438E-15
3.916020E+03	7.685131E-13	9.121516E-15
3.921330E+03	7.566900E-13	8.958821E-15
3.926640E+03	7.476703E-13	8.830025E-15
3.931960E+03	7.391461E-13	8.707647E-15
3.937290E+03	7.311156E-13	8.591623E-15
3.942620E+03	7.245086E-13	8.492847E-15
3.947960E+03	7.201107E-13	8.420343E-15
3.953310E+03	7.171450E-13	8.364854E-15
3.958670E+03	7.154704E-13	8.324616E-15
3.964030E+03	7.142716E-13	8.290094E-15
3.969400E+03	7.113366E-13	8.235601E-15
3.974780E+03	7.059072E-13	8.152529E-15
3.980160E+03	6.994107E-13	8.057574E-15
3.985550E+03	6.986738E-13	8.029242E-15
3.990950E+03	7.000425E-13	8.025157E-15
3.996360E+03	7.001054E-13	8.006129E-15
4.001770E+03	6.988470E-13	7.972132E-15
4.007190E+03	6.967620E-13	7.928869E-15
4.012620E+03	6.941661E-13	7.879996E-15
4.018060E+03	6.921080E-13	7.837433E-15
4.023500E+03	6.920337E-13	7.817505E-15
4.028950E+03	6.921562E-13	7.799878E-15
4.034410E+03	6.918980E-13	7.778045E-15
4.039880E+03	6.913272E-13	7.752803E-15
4.045350E+03	6.899821E-13	7.719048E-15
4.050830E+03	6.884384E-13	7.683237E-15
4.056320E+03	6.861675E-13	7.639501E-15
4.061810E+03	6.835929E-13	7.592636E-15
4.067320E+03	6.811966E-13	7.547944E-15
4.072830E+03	6.780362E-13	7.495059E-15
4.078340E+03	6.757393E-13	7.451992E-15
4.083870E+03	6.750012E-13	7.426260E-15
4.089400E+03	6.745051E-13	7.403353E-15
4.094940E+03	6.735924E-13	7.376014E-15
4.100490E+03	6.722866E-13	7.344531E-15
4.106040E+03	6.708091E-13	7.311381E-15
4.111610E+03	6.699199E-13	7.284782E-15
4.117180E+03	6.684669E-13	7.252252E-15
4.122750E+03	6.670173E-13	7.219976E-15
4.128340E+03	6.648303E-13	7.179894E-15
4.133930E+03	6.628871E-13	7.142692E-15
4.139530E+03	6.602981E-13	7.098763E-15
4.145140E+03	6.571524E-13	7.049110E-15
4.150750E+03	6.540364E-13	7.000078E-15
4.156380E+03	6.491368E-13	6.932245E-15
4.162010E+03	6.427219E-13	6.848651E-15
4.167650E+03	6.360647E-13	6.762911E-15
4.173290E+03	6.282876E-13	6.665754E-15
4.178950E+03	6.194779E-13	6.558127E-15
4.184610E+03	6.106276E-13	6.450630E-15
4.190280E+03	6.025053E-13	6.351337E-15
4.195950E+03	5.943196E-13	6.251896E-15
4.201640E+03	5.876675E-13	6.169026E-15
4.207330E+03	5.807567E-13	6.083893E-15
4.213030E+03	5.751820E-13	6.013162E-15
4.218740E+03	5.700038E-13	5.946944E-15
4.224450E+03	5.646704E-13	5.879486E-15
4.230180E+03	5.595823E-13	5.814919E-15
4.235910E+03	5.550163E-13	5.756136E-15
4.241640E+03	5.509703E-13	5.703083E-15
4.247390E+03	5.475665E-13	5.656951E-15
4.253150E+03	5.452251E-13	5.622053E-15
4.258910E+03	5.435645E-13	5.594419E-15
4.264680E+03	5.423077E-13	5.571146E-15
4.270450E+03	5.410344E-13	5.547920E-15
4.276240E+03	5.403923E-13	5.531337E-15
4.282030E+03	5.398998E-13	5.516479E-15
4.287830E+03	5.393253E-13	5.500960E-15
4.293640E+03	5.392329E-13	5.490529E-15
4.299460E+03	5.392456E-13	5.481333E-15
4.305280E+03	5.396348E-13	5.476137E-15
4.311120E+03	5.390656E-13	5.461370E-15
4.316960E+03	5.390399E-13	5.452303E-15
4.322800E+03	5.402818E-13	5.456221E-15
4.328660E+03	5.423491E-13	5.468573E-15
4.334520E+03	5.450961E-13	5.487883E-15
4.340400E+03	5.478149E-13	5.506977E-15
4.346280E+03	5.500334E-13	5.521145E-15
4.352160E+03	5.519800E-13	5.532699E-15
4.358060E+03	5.532832E-13	5.537904E-15
4.363960E+03	5.542147E-13	5.539529E-15
4.369880E+03	5.539933E-13	5.529767E-15
4.375800E+03	5.526461E-13	5.508957E-15
4.381720E+03	5.514066E-13	5.489421E-15
4.387660E+03	5.499652E-13	5.468048E-15
4.393600E+03	5.483044E-13	5.444694E-15
4.399560E+03	5.473824E-13	5.428843E-15
4.405520E+03	5.470557E-13	5.419068E-15
4.411480E+03	5.469355E-13	5.411495E-15
4.417460E+03	5.461441E-13	5.397420E-15
4.423450E+03	5.444210E-13	5.374306E-15
4.429440E+03	5.427852E-13	5.352234E-15
4.435440E+03	5.406070E-13	5.324988E-15
4.441450E+03	5.384552E-13	5.298177E-15
4.447460E+03	5.365531E-13	5.274002E-15
4.453490E+03	5.339082E-13	5.242687E-15
4.459520E+03	5.313119E-13	5.212030E-15
4.465560E+03	5.292262E-13	5.186548E-15
4.471610E+03	5.262008E-13	5.152019E-15
4.477670E+03	5.219577E-13	5.105749E-15
4.483740E+03	5.177254E-13	5.059771E-15
4.489810E+03	5.136052E-13	5.015076E-15
4.495890E+03	5.093555E-13	4.969292E-15
4.501980E+03	5.048166E-13	4.920863E-15
4.508080E+03	5.005888E-13	4.875635E-15
4.514190E+03	4.955137E-13	4.822324E-15
4.520310E+03	4.906507E-13	4.771247E-15
4.526430E+03	4.861988E-13	4.724335E-15
4.532560E+03	4.815195E-13	4.675366E-15
4.538700E+03	4.770504E-13	4.628589E-15
4.544850E+03	4.721560E-13	4.577832E-15
4.551010E+03	4.677097E-13	4.531561E-15
4.557170E+03	4.634136E-13	4.486887E-15
4.563350E+03	4.590682E-13	4.441858E-15
4.569530E+03	4.543986E-13	4.393826E-15
4.575720E+03	4.500559E-13	4.349080E-15
4.581920E+03	4.452708E-13	4.300179E-15
4.588130E+03	4.407531E-13	4.253979E-15
4.594340E+03	4.360112E-13	4.205734E-15
4.600570E+03	4.316532E-13	4.161296E-15
4.606800E+03	4.276595E-13	4.120478E-15
4.613040E+03	4.235971E-13	4.079095E-15
4.619290E+03	4.205035E-13	4.047130E-15
4.625550E+03	4.176521E-13	4.017578E-15
4.631810E+03	4.148866E-13	3.988931E-15
4.638090E+03	4.122249E-13	3.961351E-15
4.644370E+03	4.098043E-13	3.936160E-15
4.650660E+03	4.080320E-13	3.917259E-15
4.656960E+03	4.062838E-13	3.898646E-15
4.663270E+03	4.049869E-13	3.884417E-15
4.669590E+03	4.038876E-13	3.872131E-15
4.675920E+03	4.030821E-13	3.862708E-15
4.682250E+03	4.022992E-13	3.853545E-15
4.688590E+03	4.015381E-13	3.844631E-15
4.694940E+03	4.006249E-13	3.834300E-15
4.701300E+03	4.007563E-13	3.834001E-15
4.707670E+03	4.013509E-13	3.838161E-15
4.714050E+03	4.023879E-13	3.846574E-15
4.720440E+03	4.037697E-13	3.858302E-15
4.726830E+03	4.049003E-13	3.867650E-15
4.733240E+03	4.067196E-13	3.883588E-15
4.739650E+03	4.088242E-13	3.902264E-15
4.746070E+03	4.107721E-13	3.919454E-15
4.752500E+03	4.125445E-13	3.934981E-15
4.758940E+03	4.138937E-13	3.946481E-15
4.765380E+03	4.158335E-13	3.963626E-15
4.771840E+03	4.176551E-13	3.979650E-15
4.778300E+03	4.195698E-13	3.996570E-15
4.784780E+03	4.216140E-13	4.014728E-15
4.791260E+03	4.233895E-13	4.030335E-15
4.797750E+03	4.257321E-13	4.051346E-15
4.804250E+03	4.278811E-13	4.070517E-15
4.810760E+03	4.295908E-13	4.085513E-15
4.817280E+03	4.318282E-13	4.105532E-15
4.823800E+03	4.339683E-13	4.124629E-15
4.830340E+03	4.357640E-13	4.140454E-15
4.836880E+03	4.372370E-13	4.153219E-15
4.843430E+03	4.384062E-13	4.163104E-15
4.849990E+03	4.394987E-13	4.172267E-15
4.856560E+03	4.399501E-13	4.175353E-15
4.863140E+03	4.405145E-13	4.179519E-15
4.869730E+03	4.405151E-13	4.178348E-15
4.876330E+03	4.404042E-13	4.176130E-15
4.882940E+03	4.409884E-13	4.180513E-15
4.889550E+03	4.416669E-13	4.185800E-15
4.896170E+03	4.421580E-13	4.189319E-15
4.902810E+03	4.427047E-13	4.193372E-15
4.909450E+03	4.434950E-13	4.199741E-15
4.916100E+03	4.440235E-13	4.203639E-15
4.922760E+03	4.444404E-13	4.206489E-15
4.929430E+03	4.439635E-13	4.200891E-15
4.936110E+03	4.431722E-13	4.192334E-15
4.942790E+03	4.415106E-13	4.175562E-15
4.949490E+03	4.393510E-13	4.154100E-15
4.956200E+03	4.368256E-13	4.129204E-15
4.962910E+03	4.342138E-13	4.103518E-15
4.969630E+03	4.312377E-13	4.074413E-15
4.976370E+03	4.282121E-13	4.044869E-15
4.983110E+03	4.252308E-13	4.015770E-15
4.989860E+03	4.216651E-13	3.981184E-15
4.996620E+03	4.185131E-13	3.950532E-15
5.003390E+03	4.151651E-13	3.918061E-15
5.010170E+03	4.114376E-13	3.882039E-15
5.016950E+03	4.079209E-13	3.848041E-15
5.023750E+03	4.045767E-13	3.815701E-15
5.030550E+03	4.015892E-13	3.786757E-15
5.037370E+03	3.987913E-13	3.759632E-15
5.044190E+03	3.971187E-13	3.743146E-15
5.051030E+03	3.953581E-13	3.725858E-15
5.057870E+03	3.940599E-13	3.712958E-15
5.064720E+03	3.929665E-13	3.702016E-15
5.071580E+03	3.910721E-13	3.683558E-15
5.078450E+03	3.895657E-13	3.668787E-15
5.085330E+03	3.880995E-13	3.654427E-15
5.092220E+03	3.861996E-13	3.636019E-15
5.099120E+03	3.846685E-13	3.621118E-15
5.106030E+03	3.829773E-13	3.604747E-15
5.112950E+03	3.810358E-13	3.586059E-15
5.119870E+03	3.792809E-13	3.569166E-15
5.126810E+03	3.777476E-13	3.554398E-15
5.133750E+03	3.755476E-13	3.533400E-15
5.140710E+03	3.738957E-13	3.517601E-15
5.147670E+03	3.721758E-13	3.501208E-15
5.154650E+03	3.702787E-13	3.483192E-15
5.161630E+03	3.685670E-13	3.466970E-15
5.168620E+03	3.668415E-13	3.450664E-15
5.175620E+03	3.650479E-13	3.433768E-15
5.182640E+03	3.634925E-13	3.419163E-15
5.189660E+03	3.621576E-13	3.406686E-15
5.196690E+03	3.602139E-13	3.388536E-15
5.203730E+03	3.585985E-13	3.373530E-15
5.210780E+03	3.571488E-13	3.360139E-15
5.217840E+03	3.554334E-13	3.344307E-15
5.224910E+03	3.539372E-13	3.330598E-15
5.231980E+03	3.523196E-13	3.315808E-15
5.239070E+03	3.502754E-13	3.297065E-15
5.246170E+03	3.478956E-13	3.275226E-15
5.253280E+03	3.462006E-13	3.259899E-15
5.260390E+03	3.441703E-13	3.241480E-15
5.267520E+03	3.426800E-13	3.228215E-15
5.274660E+03	3.411755E-13	3.214889E-15
5.281800E+03	3.398535E-13	3.203353E-15
5.288960E+03	3.387662E-13	3.194106E-15
5.296120E+03	3.377714E-13	3.185808E-15
5.303300E+03	3.365834E-13	3.175769E-15
5.310480E+03	3.352210E-13	3.164164E-15
5.317670E+03	3.338442E-13	3.152504E-15
5.324880E+03	3.320620E-13	3.137098E-15
5.332090E+03	3.303373E-13	3.122315E-15
5.339320E+03	3.287050E-13	3.108490E-15
5.346550E+03	3.269704E-13	3.093780E-15
5.353790E+03	3.253815E-13	3.080533E-15
5.361050E+03	3.240615E-13	3.069923E-15
5.368310E+03	3.225152E-13	3.057258E-15
5.375580E+03	3.210432E-13	3.045388E-15
5.382860E+03	3.194335E-13	3.032303E-15
5.390160E+03	3.176505E-13	3.017667E-15
5.397460E+03	3.161189E-13	3.005509E-15
5.404770E+03	3.135153E-13	2.983244E-15
5.412090E+03	3.111635E-13	2.963456E-15
5.419420E+03	3.091683E-13	2.947149E-15
5.426770E+03	3.074059E-13	2.933153E-15
5.434120E+03	3.058585E-13	2.921294E-15
5.441480E+03	3.044201E-13	2.910563E-15
5.448850E+03	3.032486E-13	2.902472E-15
5.456230E+03	3.020098E-13	2.893823E-15
5.463620E+03	3.010723E-13	2.888146E-15
5.471030E+03	2.996989E-13	2.878373E-15
5.478440E+03	2.981887E-13	2.867352E-15
5.485860E+03	2.964540E-13	2.854235E-15
5.493290E+03	2.944253E-13	2.838341E-15
5.500730E+03	2.923303E-13	2.821852E-15
5.508180E+03	2.904489E-13	2.807466E-15
5.515650E+03	2.882737E-13	2.790283E-15
5.523120E+03	2.865215E-13	2.777225E-15
5.530600E+03	2.851042E-13	2.767453E-15
5.538090E+03	2.828699E-13	2.749782E-15
5.545600E+03	2.808657E-13	2.734372E-15
5.553110E+03	2.789175E-13	2.719520E-15
5.560630E+03	2.769376E-13	2.704375E-15
5.568170E+03	2.749608E-13	2.689279E-15
5.575710E+03	2.727091E-13	2.671491E-15
5.583260E+03	2.704956E-13	2.654074E-15
5.590830E+03	2.684243E-13	2.638054E-15
5.598400E+03	2.663910E-13	2.622398E-15
5.605980E+03	2.642047E-13	2.605223E-15
5.613580E+03	2.624898E-13	2.592696E-15
5.621180E+03	2.610204E-13	2.582589E-15
5.628800E+03	2.598306E-13	2.575260E-15
5.636420E+03	2.592667E-13	2.574148E-15
5.644060E+03	2.588944E-13	2.574975E-15
5.651710E+03	2.586616E-13	2.577226E-15
5.659360E+03	2.583609E-13	2.578828E-15
5.667030E+03	2.577845E-13	2.577710E-15
5.674710E+03	2.571057E-13	2.575585E-15
5.682390E+03	2.562384E-13	2.571576E-15
5.690090E+03	2.553035E-13	2.566897E-15
5.697800E+03	2.546634E-13	2.565186E-15
5.705520E+03	2.540246E-13	2.563497E-15
5.713250E+03	2.536455E-13	2.564440E-15
5.720990E+03	2.538705E-13	2.571515E-15
5.728740E+03	2.544229E-13	2.581950E-15
5.736500E+03	2.548033E-13	2.590680E-15
5.744270E+03	2.552870E-13	2.600501E-15
5.752050E+03	2.559772E-13	2.612469E-15
5.759840E+03	2.564093E-13	2.621846E-15
5.767650E+03	2.564460E-13	2.627213E-15
5.775460E+03	2.564489E-13	2.632245E-15
5.783290E+03	2.563662E-13	2.636419E-15
5.791120E+03	2.563871E-13	2.641663E-15
5.798970E+03	2.563909E-13	2.646751E-15
5.806820E+03	2.560352E-13	2.648124E-15
5.814690E+03	2.556456E-13	2.649147E-15
5.822570E+03	2.551024E-13	2.648568E-15
5.830450E+03	2.544230E-13	2.646551E-15
5.838350E+03	2.536760E-13	2.643812E-15
5.846260E+03	2.526217E-13	2.637838E-15
5.854180E+03	2.515856E-13	2.632016E-15
5.862110E+03	2.505848E-13	2.626521E-15
5.870050E+03	2.490210E-13	2.615075E-15
5.878010E+03	2.472197E-13	2.601070E-15
5.885970E+03	2.453687E-13	2.586462E-15
5.893940E+03	2.436048E-13	2.572695E-15
5.901930E+03	2.415863E-13	2.556165E-15
5.909920E+03	2.394504E-13	2.538298E-15
5.917930E+03	2.375206E-13	2.522534E-15
5.925950E+03	2.357626E-13	2.508512E-15
5.933970E+03	2.342614E-13	2.497145E-15
5.942010E+03	2.330505E-13	2.488812E-15
5.950060E+03	2.319084E-13	2.481157E-15
5.958120E+03	2.307840E-13	2.473636E-15
5.966200E+03	2.296262E-13	2.465704E-15
5.974280E+03	2.283844E-13	2.456804E-15
5.982370E+03	2.269226E-13	2.445471E-15
5.990480E+03	2.255464E-13	2.434996E-15
5.998590E+03	2.242391E-13	2.425190E-15
6.006720E+03	2.230171E-13	2.416249E-15
6.014850E+03	2.215077E-13	2.404119E-15
6.023000E+03	2.201009E-13	2.393034E-15
6.031160E+03	2.189656E-13	2.384834E-15
6.039330E+03	2.177123E-13	2.375287E-15
6.047520E+03	2.163242E-13	2.364205E-15
6.055710E+03	2.151228E-13	2.355090E-15
6.063910E+03	2.140063E-13	2.346841E-15
6.072130E+03	2.130084E-13	2.339839E-15
6.080350E+03	2.121458E-13	2.334263E-15
6.088590E+03	2.112158E-13	2.327896E-15
6.096840E+03	2.103869E-13	2.322591E-15
6.105100E+03	2.095581E-13	2.317235E-15
6.113370E+03	2.088304E-13	2.312947E-15
6.121650E+03	2.081192E-13	2.308794E-15
6.129940E+03	2.072228E-13	2.302536E-15
6.138250E+03	2.062927E-13	2.295852E-15
6.146560E+03	2.051103E-13	2.286298E-15
6.154890E+03	2.040290E-13	2.277811E-15
6.163230E+03	2.030989E-13	2.270956E-15
6.171580E+03	2.021518E-13	2.263855E-15
6.179940E+03	2.016745E-13	2.261969E-15
6.188310E+03	2.008947E-13	2.256645E-15
6.196690E+03	1.999805E-13	2.249760E-15
6.205090E+03	1.989655E-13	2.241691E-15
6.213500E+03	1.984526E-13	2.239229E-15
6.221910E+03	1.979727E-13	2.237097E-15
6.230340E+03	1.969232E-13	2.228486E-15
6.238780E+03	1.952554E-13	2.212809E-15
6.247230E+03	1.933711E-13	2.194599E-15
6.255700E+03	1.912371E-13	2.173472E-15
6.264170E+03	1.892544E-13	2.153973E-15
6.272660E+03	1.876227E-13	2.138395E-15
6.281160E+03	1.863247E-13	2.126551E-15
6.289670E+03	1.854265E-13	2.119215E-15
6.298190E+03	1.844448E-13	2.110875E-15
6.306720E+03	1.836457E-13	2.104577E-15
6.315260E+03	1.832615E-13	2.102995E-15
6.323820E+03	1.832580E-13	2.105761E-15
6.332380E+03	1.834356E-13	2.110588E-15
6.340960E+03	1.833790E-13	2.112704E-15
6.349550E+03	1.830885E-13	2.112103E-15
6.358150E+03	1.824820E-13	2.107825E-15
