#wls	flux	fluxerr
1.600000E+03	3.477068E-15	4.092674E-17
1.640000E+03	3.462432E-15	4.071173E-17
1.680000E+03	3.447894E-15	4.049717E-17
1.720000E+03	3.434109E-15	4.029076E-17
1.760000E+03	3.421062E-15	4.009227E-17
1.800000E+03	3.408742E-15	3.990154E-17
1.840000E+03	3.397140E-15	3.971843E-17
1.880000E+03	3.386903E-15	3.955048E-17
1.920000E+03	3.378026E-15	3.939754E-17
1.960000E+03	3.369861E-15	3.925201E-17
2.000000E+03	3.363713E-15	3.912904E-17
2.040000E+03	3.358949E-15	3.902116E-17
2.080000E+03	3.356236E-15	3.893606E-17
2.120000E+03	3.354980E-15	3.886673E-17
2.160000E+03	3.355874E-15	3.882111E-17
2.200000E+03	3.359618E-15	3.880717E-17
2.240000E+03	3.365685E-15	3.881866E-17
2.280000E+03	3.374826E-15	3.886412E-17
2.320000E+03	3.386594E-15	3.893820E-17
2.360000E+03	3.403036E-15	3.906425E-17
2.400000E+03	3.422583E-15	3.922400E-17
2.440000E+03	3.447382E-15	3.944182E-17
2.480000E+03	3.477228E-15	3.971503E-17
2.520000E+03	3.513217E-15	4.005579E-17
2.560000E+03	3.555954E-15	4.047058E-17
2.600000E+03	3.606776E-15	4.097413E-17
2.640000E+03	3.667174E-15	4.158280E-17
2.680000E+03	3.737648E-15	4.230158E-17
2.720000E+03	3.820708E-15	4.315808E-17
2.760000E+03	3.919139E-15	4.418282E-17
2.800000E+03	4.034259E-15	4.538950E-17
2.840000E+03	4.169541E-15	4.681589E-17
2.880000E+03	4.328883E-15	4.850416E-17
2.920000E+03	4.516012E-15	5.049414E-17
2.960000E+03	4.735039E-15	5.282958E-17
3.000000E+03	4.992269E-15	5.557821E-17
3.010000E+03	5.063138E-15	5.633616E-17
3.020000E+03	5.137141E-15	5.712801E-17
3.030000E+03	5.213677E-15	5.794699E-17
3.040000E+03	5.292788E-15	5.879352E-17
3.050000E+03	5.375183E-15	5.967543E-17
3.060000E+03	5.460228E-15	6.058563E-17
3.070000E+03	5.549313E-15	6.153946E-17
3.080000E+03	5.641103E-15	6.252205E-17
3.090000E+03	5.735600E-15	6.353337E-17
3.100000E+03	5.834188E-15	6.458868E-17
3.110000E+03	5.935464E-15	6.567240E-17
3.120000E+03	6.040803E-15	6.679965E-17
3.130000E+03	6.148743E-15	6.795420E-17
3.140000E+03	6.259918E-15	6.914299E-17
3.150000E+03	6.374962E-15	7.037299E-17
3.160000E+03	6.492306E-15	7.162676E-17
3.170000E+03	6.613261E-15	7.291874E-17
3.180000E+03	6.736920E-15	7.423885E-17
3.190000E+03	6.863069E-15	7.558468E-17
3.200000E+03	6.992220E-15	7.696182E-17
3.210000E+03	7.124112E-15	7.836732E-17
3.220000E+03	7.256913E-15	7.978098E-17
3.230000E+03	7.392596E-15	8.122447E-17
3.240000E+03	7.529274E-15	8.267701E-17
3.250000E+03	7.667371E-15	8.414322E-17
3.260000E+03	7.806547E-15	8.561933E-17
3.270000E+03	7.946495E-15	8.710198E-17
3.280000E+03	8.086973E-15	8.858846E-17
3.290000E+03	8.227839E-15	9.007723E-17
3.300000E+03	8.369084E-15	9.156819E-17
3.310000E+03	8.510861E-15	9.306297E-17
3.320000E+03	8.654288E-15	9.457379E-17
3.330000E+03	8.799787E-15	9.610522E-17
3.340000E+03	8.946999E-15	9.765330E-17
3.350000E+03	9.096301E-15	9.922212E-17
3.360000E+03	9.249530E-15	1.008316E-16
3.370000E+03	9.404876E-15	1.024621E-16
3.380000E+03	9.562539E-15	1.041155E-16
3.390000E+03	9.722151E-15	1.057880E-16
3.400000E+03	9.880201E-15	1.074412E-16
3.410000E+03	1.003592E-14	1.090669E-16
3.420000E+03	1.018638E-14	1.106332E-16
3.430000E+03	1.032755E-14	1.120966E-16
3.440000E+03	1.045632E-14	1.134234E-16
3.450000E+03	1.057165E-14	1.146028E-16
3.460000E+03	1.066996E-14	1.155962E-16
3.470000E+03	1.075218E-14	1.164138E-16
3.480000E+03	1.081727E-14	1.170450E-16
3.490000E+03	1.086905E-14	1.175312E-16
3.500000E+03	1.091102E-14	1.179107E-16
3.510000E+03	1.094711E-14	1.182260E-16
3.520000E+03	1.098351E-14	1.185441E-16
3.530000E+03	1.102591E-14	1.189264E-16
3.540000E+03	1.107987E-14	1.194328E-16
3.550000E+03	1.115051E-14	1.201179E-16
3.560000E+03	1.124214E-14	1.210280E-16
3.570000E+03	1.135890E-14	1.222073E-16
3.580000E+03	1.150242E-14	1.236725E-16
3.590000E+03	1.167571E-14	1.254557E-16
3.600000E+03	1.187848E-14	1.275531E-16
3.610000E+03	1.211278E-14	1.299861E-16
3.620000E+03	1.238100E-14	1.327795E-16
3.630000E+03	1.268413E-14	1.359435E-16
3.640000E+03	1.302427E-14	1.394998E-16
3.650000E+03	1.340088E-14	1.434416E-16
3.660000E+03	1.381348E-14	1.477634E-16
3.670000E+03	1.425509E-14	1.523898E-16
3.680000E+03	1.471737E-14	1.572308E-16
3.690000E+03	1.518608E-14	1.621343E-16
3.700000E+03	1.564188E-14	1.668937E-16
3.710000E+03	1.606757E-14	1.713258E-16
3.720000E+03	1.644384E-14	1.752256E-16
3.730000E+03	1.675670E-14	1.784451E-16
3.740000E+03	1.699951E-14	1.809149E-16
3.750000E+03	1.717484E-14	1.826638E-16
3.760000E+03	1.729612E-14	1.838360E-16
3.770000E+03	1.738111E-14	1.846213E-16
3.780000E+03	1.745466E-14	1.852841E-16
3.790000E+03	1.754169E-14	1.860890E-16
3.800000E+03	1.766434E-14	1.872706E-16
3.810000E+03	1.784159E-14	1.890292E-16
3.820000E+03	1.809098E-14	1.915494E-16
3.830000E+03	1.843620E-14	1.950805E-16
3.840000E+03	1.889649E-14	1.998241E-16
3.850000E+03	1.948881E-14	2.059570E-16
3.860000E+03	2.022608E-14	2.136130E-16
3.870000E+03	2.111286E-14	2.228376E-16
3.880000E+03	2.214019E-14	2.335332E-16
3.890000E+03	2.328092E-14	2.454108E-16
3.900000E+03	2.449533E-14	2.580499E-16
3.910000E+03	2.573763E-14	2.709670E-16
3.920000E+03	2.696793E-14	2.837419E-16
3.930000E+03	2.816277E-14	2.961283E-16
3.940000E+03	2.932040E-14	3.081086E-16
3.950000E+03	3.046359E-14	3.199227E-16
3.960000E+03	3.164281E-14	3.321006E-16
3.970000E+03	3.292419E-14	3.453356E-16
3.980000E+03	3.438060E-14	3.603895E-16
3.990000E+03	3.607904E-14	3.779609E-16
4.000000E+03	3.805072E-14	3.983720E-16
4.010000E+03	4.027141E-14	4.213644E-16
4.020000E+03	4.265253E-14	4.460071E-16
4.030000E+03	4.506048E-14	4.709012E-16
4.040000E+03	4.732497E-14	4.942678E-16
4.050000E+03	4.925579E-14	5.141246E-16
4.060000E+03	5.068958E-14	5.287739E-16
4.067320E+03	4.377874E-14	4.564835E-16
4.072830E+03	4.441472E-14	4.629633E-16
4.078340E+03	4.407755E-14	4.592987E-16
4.083870E+03	4.212726E-14	4.388328E-16
4.089400E+03	4.013926E-14	4.179878E-16
4.094940E+03	3.746144E-14	3.899754E-16
4.100490E+03	3.495596E-14	3.637749E-16
4.106040E+03	3.238486E-14	3.369091E-16
4.111610E+03	2.907264E-14	3.023528E-16
4.117180E+03	2.848767E-14	2.961734E-16
4.122750E+03	2.987818E-14	3.105296E-16
4.128340E+03	3.562425E-14	3.701302E-16
4.133930E+03	4.134969E-14	4.294783E-16
4.139530E+03	4.963729E-14	5.153917E-16
4.145140E+03	5.566178E-14	5.777595E-16
4.150750E+03	5.918734E-14	6.141579E-16
4.156380E+03	5.832904E-14	6.050582E-16
4.162010E+03	5.642758E-14	5.851475E-16
4.167650E+03	5.202214E-14	5.392921E-16
4.173290E+03	4.657602E-14	4.826814E-16
4.178950E+03	4.039235E-14	4.184656E-16
4.184610E+03	3.441199E-14	3.563965E-16
4.190280E+03	2.909810E-14	3.012669E-16
4.195950E+03	2.376708E-14	2.459951E-16
4.201640E+03	2.063548E-14	2.135154E-16
4.207330E+03	1.843037E-14	1.906396E-16
4.213030E+03	1.848812E-14	1.911775E-16
4.218740E+03	1.975638E-14	2.042284E-16
4.224450E+03	2.102648E-14	2.172908E-16
4.230180E+03	2.162717E-14	2.234294E-16
4.241640E+03	2.026790E-14	2.092584E-16
4.247390E+03	1.882743E-14	1.943268E-16
4.253150E+03	1.936520E-14	1.998164E-16
4.258910E+03	2.200107E-14	2.269454E-16
4.264680E+03	2.549954E-14	2.629535E-16
4.270450E+03	3.036716E-14	3.130547E-16
4.276240E+03	3.642701E-14	3.754131E-16
4.282030E+03	4.282683E-14	4.412374E-16
4.287830E+03	4.724145E-14	4.865758E-16
4.293640E+03	5.026846E-14	5.176002E-16
4.299460E+03	5.206894E-14	5.359813E-16
4.305280E+03	5.413839E-14	5.571202E-16
4.311120E+03	5.481417E-14	5.639097E-16
4.316960E+03	5.526669E-14	5.684000E-16
4.322800E+03	5.546811E-14	5.703068E-16
4.328660E+03	5.453622E-14	5.605642E-16
4.334520E+03	5.426034E-14	5.575690E-16
4.340400E+03	5.541098E-14	5.692306E-16
4.346280E+03	5.770002E-14	5.925779E-16
4.352160E+03	5.713824E-14	5.866435E-16
4.358060E+03	5.358708E-14	5.500295E-16
4.363960E+03	4.664832E-14	4.786754E-16
4.369880E+03	4.009423E-14	4.113076E-16
4.375800E+03	3.177186E-14	3.258429E-16
4.381720E+03	2.507001E-14	2.570406E-16
4.387660E+03	1.948291E-14	1.997023E-16
4.393600E+03	1.603258E-14	1.642917E-16
4.399560E+03	1.464682E-14	1.500512E-16
4.405520E+03	1.517799E-14	1.554515E-16
4.411480E+03	1.732050E-14	1.773480E-16
4.417460E+03	2.105564E-14	2.155365E-16
4.423450E+03	2.369651E-14	2.425067E-16
4.429440E+03	2.475798E-14	2.533042E-16
4.435440E+03	2.497407E-14	2.554498E-16
4.441450E+03	2.512442E-14	2.569224E-16
4.447460E+03	2.479687E-14	2.535091E-16
4.453490E+03	2.523482E-14	2.579220E-16
4.459520E+03	2.560387E-14	2.616294E-16
4.465560E+03	2.686339E-14	2.744323E-16
4.471610E+03	2.817394E-14	2.877508E-16
4.477670E+03	3.017822E-14	3.081471E-16
4.483740E+03	3.190191E-14	3.256699E-16
4.489810E+03	3.230692E-14	3.297267E-16
4.495890E+03	3.232619E-14	3.298463E-16
4.501980E+03	3.209252E-14	3.273862E-16
4.508080E+03	3.259485E-14	3.324344E-16
4.514190E+03	3.390337E-14	3.457016E-16
4.520310E+03	3.590961E-14	3.660762E-16
4.526430E+03	3.924376E-14	3.999769E-16
4.532560E+03	4.496896E-14	4.582280E-16
4.538700E+03	5.277828E-14	5.376869E-16
4.544850E+03	5.950277E-14	6.060630E-16
4.551010E+03	6.486057E-14	6.604936E-16
4.557170E+03	6.804494E-14	6.927749E-16
4.563350E+03	7.062125E-14	7.188544E-16
4.569530E+03	7.239368E-14	7.367439E-16
4.575720E+03	7.369445E-14	7.498286E-16
4.581920E+03	7.260683E-14	7.386130E-16
4.588130E+03	6.984814E-14	7.104075E-16
4.594340E+03	6.662821E-14	6.775247E-16
4.600570E+03	6.466944E-14	6.574780E-16
4.606800E+03	6.402855E-14	6.508367E-16
4.613040E+03	6.364161E-14	6.467802E-16
4.619290E+03	6.432216E-14	6.535732E-16
4.625550E+03	6.444173E-14	6.546661E-16
4.631810E+03	6.529415E-14	6.632040E-16
4.638090E+03	6.630083E-14	6.733064E-16
4.644370E+03	6.629813E-14	6.731582E-16
4.650660E+03	6.534859E-14	6.633994E-16
4.656960E+03	6.418579E-14	6.514809E-16
4.663270E+03	6.295340E-14	6.388618E-16
4.669590E+03	6.103909E-14	6.193293E-16
4.675920E+03	5.832221E-14	5.916629E-16
4.682250E+03	5.406457E-14	5.483791E-16
4.688590E+03	4.860651E-14	4.929370E-16
4.694940E+03	4.287758E-14	4.347673E-16
4.701300E+03	3.780517E-14	3.832733E-16
4.707670E+03	3.345204E-14	3.390874E-16
4.714050E+03	3.015451E-14	3.056144E-16
4.720440E+03	2.894983E-14	2.933601E-16
4.726830E+03	2.930643E-14	2.969289E-16
4.733240E+03	3.105982E-14	3.146473E-16
4.739650E+03	3.436625E-14	3.480917E-16
4.746070E+03	3.898991E-14	3.948672E-16
4.752500E+03	4.334095E-14	4.388697E-16
4.758940E+03	4.735330E-14	4.794316E-16
4.765380E+03	5.100042E-14	5.162861E-16
4.771840E+03	5.413203E-14	5.479136E-16
4.778300E+03	5.596542E-14	5.663954E-16
4.784780E+03	5.631341E-14	5.698424E-16
4.791260E+03	5.492349E-14	5.557061E-16
4.797750E+03	5.280111E-14	5.341645E-16
4.804250E+03	5.164314E-14	5.223848E-16
4.810760E+03	5.071763E-14	5.129603E-16
4.817280E+03	4.954092E-14	5.009987E-16
4.823800E+03	4.889332E-14	4.943914E-16
4.830340E+03	4.918399E-14	4.972729E-16
4.836880E+03	5.040483E-14	5.095582E-16
4.843430E+03	5.182954E-14	5.239027E-16
4.849990E+03	5.301223E-14	5.357990E-16
4.856560E+03	5.377128E-14	5.434126E-16
4.863140E+03	5.436734E-14	5.493787E-16
4.869730E+03	5.513471E-14	5.570756E-16
4.876330E+03	5.500947E-14	5.557543E-16
4.882940E+03	5.429159E-14	5.484477E-16
4.889550E+03	5.211740E-14	5.264336E-16
4.896170E+03	4.848186E-14	4.896652E-16
4.902810E+03	4.521439E-14	4.566219E-16
4.909450E+03	4.302000E-14	4.344217E-16
4.916100E+03	4.248533E-14	4.289850E-16
4.922760E+03	4.280363E-14	4.321620E-16
4.929430E+03	4.485668E-14	4.528528E-16
4.936110E+03	4.864539E-14	4.910621E-16
4.942790E+03	5.312285E-14	5.362186E-16
4.949490E+03	5.823665E-14	5.877919E-16
4.956200E+03	6.429113E-14	6.488524E-16
4.962910E+03	7.066840E-14	7.131629E-16
4.969630E+03	7.756999E-14	7.827567E-16
4.976370E+03	8.321433E-14	8.396565E-16
4.983110E+03	8.659903E-14	8.737517E-16
4.989860E+03	8.806201E-14	8.884562E-16
4.996620E+03	8.793417E-14	8.871120E-16
5.003390E+03	8.631994E-14	8.707756E-16
5.010170E+03	8.371490E-14	8.444485E-16
5.016950E+03	8.185874E-14	8.256799E-16
5.023750E+03	7.929133E-14	7.997414E-16
5.030550E+03	7.533696E-14	7.598190E-16
5.037370E+03	7.018625E-14	7.078368E-16
5.044190E+03	6.432297E-14	6.486752E-16
5.051030E+03	5.842854E-14	5.892062E-16
5.057870E+03	5.317885E-14	5.362450E-16
5.064720E+03	4.919711E-14	4.960745E-16
5.071580E+03	4.605975E-14	4.644220E-16
5.078450E+03	4.409318E-14	4.445776E-16
5.085330E+03	4.406360E-14	4.442650E-16
5.092220E+03	4.528405E-14	4.565562E-16
5.099120E+03	4.729813E-14	4.768490E-16
5.106030E+03	5.127273E-14	5.169068E-16
5.112950E+03	5.680145E-14	5.726312E-16
5.119870E+03	6.212653E-14	6.263016E-16
5.126810E+03	6.744875E-14	6.799425E-16
5.133750E+03	7.160128E-14	7.217918E-16
5.140710E+03	7.395125E-14	7.454704E-16
5.147670E+03	7.413774E-14	7.473415E-16
5.154650E+03	7.368163E-14	7.427365E-16
5.161630E+03	7.248612E-14	7.306800E-16
5.168620E+03	7.121324E-14	7.178455E-16
5.175620E+03	6.901776E-14	6.957128E-16
5.182640E+03	6.700280E-14	6.754014E-16
5.189660E+03	6.515663E-14	6.567930E-16
5.196690E+03	6.411714E-14	6.463176E-16
5.203730E+03	6.401929E-14	6.453356E-16
5.210780E+03	6.476613E-14	6.528700E-16
5.217840E+03	6.638505E-14	6.691972E-16
5.224910E+03	6.869241E-14	6.924663E-16
5.231980E+03	7.059103E-14	7.116174E-16
5.239070E+03	7.181053E-14	7.239246E-16
5.246170E+03	7.310372E-14	7.369770E-16
5.253280E+03	7.466573E-14	7.527418E-16
5.260390E+03	7.539647E-14	7.601286E-16
5.267520E+03	7.636320E-14	7.698970E-16
5.274660E+03	7.722569E-14	7.786169E-16
5.281800E+03	7.788736E-14	7.853145E-16
5.288960E+03	7.841806E-14	7.906938E-16
5.296120E+03	7.961583E-14	8.028021E-16
5.303300E+03	8.044913E-14	8.112379E-16
5.310480E+03	8.107721E-14	8.176072E-16
5.317670E+03	8.103806E-14	8.172501E-16
5.324880E+03	8.097000E-14	8.166036E-16
5.332090E+03	8.053028E-14	8.122107E-16
5.339320E+03	8.001096E-14	8.070166E-16
5.346550E+03	7.995738E-14	8.065218E-16
5.353790E+03	8.015120E-14	8.085247E-16
5.361050E+03	8.034277E-14	8.105074E-16
5.368310E+03	8.100621E-14	8.172529E-16
5.375580E+03	8.162785E-14	8.235799E-16
5.382860E+03	8.212648E-14	8.286686E-16
5.390160E+03	8.280313E-14	8.355569E-16
5.397460E+03	8.354093E-14	8.430655E-16
5.404770E+03	8.409102E-14	8.486830E-16
5.412090E+03	8.443817E-14	8.522554E-16
5.419420E+03	8.450811E-14	8.530327E-16
5.426770E+03	8.393707E-14	8.473418E-16
5.434120E+03	8.364533E-14	8.444721E-16
5.441480E+03	8.358568E-14	8.439475E-16
5.448850E+03	8.318021E-14	8.399333E-16
5.456230E+03	8.323283E-14	8.405467E-16
5.463620E+03	8.379940E-14	8.463536E-16
5.471030E+03	8.507577E-14	8.593336E-16
5.478440E+03	8.621049E-14	8.708879E-16
5.485860E+03	8.698996E-14	8.788582E-16
5.493290E+03	8.917074E-14	9.009917E-16
5.500730E+03	9.231775E-14	9.328970E-16
5.508180E+03	9.446462E-14	9.547046E-16
5.515650E+03	9.512655E-14	9.615109E-16
5.523120E+03	9.644857E-14	9.749943E-16
5.530600E+03	9.808414E-14	9.916538E-16
5.538090E+03	9.881933E-14	9.992160E-16
5.545600E+03	9.834219E-14	9.945230E-16
5.553110E+03	9.644044E-14	9.754224E-16
5.560630E+03	9.316443E-14	9.424176E-16
5.568170E+03	8.888735E-14	8.992784E-16
5.575710E+03	8.390009E-14	8.489432E-16
5.583260E+03	7.859068E-14	7.953356E-16
5.590830E+03	7.429103E-14	7.519345E-16
5.598400E+03	7.082865E-14	7.169980E-16
5.605980E+03	6.813154E-14	6.898005E-16
5.613580E+03	6.549082E-14	6.631676E-16
5.621180E+03	6.336203E-14	6.417124E-16
5.628800E+03	6.169065E-14	6.248852E-16
5.636420E+03	6.007397E-14	6.086081E-16
5.644060E+03	5.943838E-14	6.022683E-16
5.651710E+03	5.925813E-14	6.005423E-16
5.659360E+03	5.754915E-14	5.833215E-16
5.667030E+03	5.375769E-14	5.449845E-16
5.674710E+03	4.982813E-14	5.052352E-16
5.682390E+03	4.580676E-14	4.645419E-16
5.690090E+03	4.088996E-14	4.147526E-16
5.697800E+03	3.539515E-14	3.590827E-16
5.705520E+03	2.994139E-14	3.038097E-16
5.713250E+03	2.526526E-14	2.564090E-16
5.720990E+03	2.100154E-14	2.131776E-16
5.728740E+03	1.751735E-14	1.778444E-16
5.736500E+03	1.546082E-14	1.569954E-16
5.744270E+03	1.619684E-14	1.645007E-16
5.752050E+03	1.910483E-14	1.940728E-16
5.759840E+03	2.329539E-14	2.366881E-16
5.767650E+03	2.800176E-14	2.845622E-16
5.775460E+03	3.371885E-14	3.427291E-16
5.783290E+03	3.897100E-14	3.961931E-16
5.791120E+03	4.409188E-14	4.483444E-16
5.798970E+03	4.926705E-14	5.010698E-16
5.806820E+03	5.399275E-14	5.492451E-16
5.814690E+03	5.940996E-14	6.044771E-16
5.822570E+03	6.539871E-14	6.655495E-16
5.830450E+03	7.179989E-14	7.308463E-16
5.838350E+03	7.888939E-14	8.031797E-16
5.846260E+03	8.576746E-14	8.733917E-16
5.854180E+03	9.174891E-14	9.345025E-16
5.862110E+03	9.604529E-14	9.784739E-16
5.870050E+03	9.934814E-14	1.012342E-15
5.878010E+03	1.013982E-13	1.033457E-15
5.885970E+03	1.022784E-13	1.042657E-15
5.893940E+03	1.020048E-13	1.040098E-15
5.901930E+03	1.007514E-13	1.027546E-15
5.909920E+03	9.859638E-14	1.005791E-15
5.917930E+03	9.585800E-14	9.780758E-16
5.925950E+03	9.349951E-14	9.542262E-16
5.933970E+03	9.195915E-14	9.387183E-16
5.942010E+03	8.946857E-14	9.135022E-16
5.950060E+03	8.708427E-14	8.893610E-16
5.958120E+03	8.448662E-14	8.630303E-16
5.966200E+03	8.104573E-14	8.280727E-16
5.974280E+03	7.796979E-14	7.968291E-16
5.982370E+03	7.504327E-14	7.670990E-16
5.990480E+03	7.244956E-14	7.407588E-16
5.998590E+03	7.051005E-14	7.210970E-16
6.006720E+03	6.931755E-14	7.090681E-16
6.014850E+03	6.802188E-14	6.959782E-16
6.023000E+03	6.562520E-14	6.716149E-16
6.031160E+03	6.327017E-14	6.476669E-16
6.039330E+03	6.133323E-14	6.279888E-16
6.047520E+03	5.943072E-14	6.086544E-16
6.055710E+03	5.754739E-14	5.895074E-16
6.063910E+03	5.567193E-14	5.704322E-16
6.072130E+03	5.442452E-14	5.577849E-16
6.080350E+03	5.429669E-14	5.566089E-16
6.088590E+03	5.467731E-14	5.606462E-16
6.096840E+03	5.587340E-14	5.730493E-16
6.105100E+03	5.766374E-14	5.915548E-16
6.113370E+03	5.960241E-14	6.115917E-16
6.121650E+03	6.111453E-14	6.272605E-16
6.129940E+03	6.142490E-14	6.305997E-16
6.138250E+03	6.079608E-14	6.242967E-16
6.146560E+03	5.992070E-14	6.154581E-16
6.154890E+03	5.902016E-14	6.063571E-16
6.163230E+03	5.857380E-14	6.019190E-16
6.171580E+03	5.888806E-14	6.052970E-16
6.179940E+03	5.941711E-14	6.108851E-16
6.188310E+03	6.049725E-14	6.221434E-16
6.196690E+03	6.241924E-14	6.420670E-16
6.205090E+03	6.478573E-14	6.665739E-16
6.213500E+03	6.629001E-14	6.822197E-16
6.221910E+03	6.670060E-14	6.866146E-16
6.230340E+03	6.537269E-14	6.731114E-16
6.238780E+03	6.322021E-14	6.511091E-16
6.247230E+03	6.120792E-14	6.305403E-16
6.255700E+03	5.947952E-14	6.128866E-16
6.264170E+03	5.839672E-14	6.018780E-16
6.272660E+03	5.813583E-14	5.993375E-16
6.281160E+03	5.858433E-14	6.041107E-16
6.289670E+03	5.968194E-14	6.155813E-16
6.298190E+03	6.007406E-14	6.197791E-16
6.306720E+03	5.925129E-14	6.114419E-16
6.315260E+03	5.772903E-14	5.958802E-16
6.323820E+03	5.573127E-14	5.754017E-16
6.332380E+03	5.296942E-14	5.470218E-16
6.340960E+03	4.867115E-14	5.027572E-16
6.349550E+03	4.351852E-14	4.496433E-16
6.358150E+03	3.946675E-14	4.078801E-16
6.366770E+03	3.817724E-14	3.946507E-16
6.375390E+03	4.016884E-14	4.153408E-16
6.384030E+03	4.482103E-14	4.635581E-16
6.392680E+03	5.141917E-14	5.319298E-16
6.401340E+03	5.941211E-14	6.147678E-16
6.410010E+03	6.853591E-14	7.093507E-16
6.418700E+03	7.822462E-14	8.098283E-16
6.427390E+03	8.783174E-14	9.095099E-16
6.436100E+03	9.641572E-14	9.986429E-16
6.444820E+03	1.038742E-13	1.076159E-15
6.453550E+03	1.100934E-13	1.140870E-15
6.462290E+03	1.143766E-13	1.185545E-15
6.471040E+03	1.162380E-13	1.205133E-15
6.479810E+03	1.154614E-13	1.197373E-15
6.488590E+03	1.123238E-13	1.165118E-15
6.497380E+03	1.081655E-13	1.122258E-15
6.506180E+03	1.030023E-13	1.068947E-15
6.515000E+03	9.601576E-14	9.966827E-16
6.523820E+03	8.776511E-14	9.112579E-16
6.532660E+03	8.002854E-14	8.311305E-16
6.541510E+03	7.497768E-14	7.788629E-16
6.550370E+03	7.324434E-14	7.610404E-16
6.559250E+03	7.473988E-14	7.767664E-16
6.568130E+03	7.811177E-14	8.120048E-16
6.577030E+03	8.435769E-14	8.771438E-16
6.585940E+03	9.265627E-14	9.636620E-16
6.594860E+03	1.013349E-13	1.054174E-15
6.603800E+03	1.087590E-13	1.131675E-15
6.612740E+03	1.143846E-13	1.190495E-15
6.621700E+03	1.181349E-13	1.229818E-15
6.630670E+03	1.197487E-13	1.246912E-15
6.639650E+03	1.196608E-13	1.246290E-15
6.648650E+03	1.183960E-13	1.233408E-15
6.657660E+03	1.164161E-13	1.213066E-15
6.666680E+03	1.133701E-13	1.181603E-15
6.675710E+03	1.097353E-13	1.143986E-15
6.684750E+03	1.067158E-13	1.112767E-15
6.693810E+03	1.033984E-13	1.078424E-15
6.702880E+03	9.958658E-14	1.038908E-15
6.711960E+03	9.571828E-14	9.987834E-16
