#wls	flux	fluxerr
1.600000E+03	9.810162E-16	4.399835E-17
1.640000E+03	9.813873E-16	4.386548E-17
1.680000E+03	9.820850E-16	4.374341E-17
1.720000E+03	9.833313E-16	4.364177E-17
1.760000E+03	9.851827E-16	4.356271E-17
1.800000E+03	9.875309E-16	4.350108E-17
1.840000E+03	9.906178E-16	4.346717E-17
1.880000E+03	9.943509E-16	4.345646E-17
1.920000E+03	9.989901E-16	4.347981E-17
1.960000E+03	1.004463E-15	4.353347E-17
2.000000E+03	1.011225E-15	4.363657E-17
2.040000E+03	1.019059E-15	4.377882E-17
2.080000E+03	1.028104E-15	4.396547E-17
2.120000E+03	1.038872E-15	4.421738E-17
2.160000E+03	1.051195E-15	4.452623E-17
2.200000E+03	1.065457E-15	4.490707E-17
2.240000E+03	1.081898E-15	4.536847E-17
2.280000E+03	1.100610E-15	4.591259E-17
2.320000E+03	1.122272E-15	4.656587E-17
2.360000E+03	1.146880E-15	4.732582E-17
2.400000E+03	1.175042E-15	4.821498E-17
2.440000E+03	1.207249E-15	4.925050E-17
2.480000E+03	1.244079E-15	5.045248E-17
2.520000E+03	1.286209E-15	5.184435E-17
2.560000E+03	1.334437E-15	5.345354E-17
2.600000E+03	1.389712E-15	5.531253E-17
2.640000E+03	1.453159E-15	5.745971E-17
2.680000E+03	1.526126E-15	5.994072E-17
2.720000E+03	1.609972E-15	6.280004E-17
2.760000E+03	1.707140E-15	6.612242E-17
2.800000E+03	1.819741E-15	6.997678E-17
2.840000E+03	1.950627E-15	7.445765E-17
2.880000E+03	2.103273E-15	7.967955E-17
2.920000E+03	2.281928E-15	8.578157E-17
2.960000E+03	2.491814E-15	9.293353E-17
3.000000E+03	2.739378E-15	1.013438E-16
3.010000E+03	2.808096E-15	1.036734E-16
3.020000E+03	2.879778E-15	1.061011E-16
3.030000E+03	2.954573E-15	1.086316E-16
3.040000E+03	3.032641E-15	1.112701E-16
3.050000E+03	3.114149E-15	1.140218E-16
3.060000E+03	3.199273E-15	1.168923E-16
3.070000E+03	3.288703E-15	1.199059E-16
3.080000E+03	3.381651E-15	1.230330E-16
3.090000E+03	3.478817E-15	1.262979E-16
3.100000E+03	3.580964E-15	1.297274E-16
3.110000E+03	3.687264E-15	1.332902E-16
3.120000E+03	3.799065E-15	1.370340E-16
3.130000E+03	3.916095E-15	1.409476E-16
3.140000E+03	4.038639E-15	1.450399E-16
3.150000E+03	4.166371E-15	1.492979E-16
3.160000E+03	4.300835E-15	1.537755E-16
3.170000E+03	4.441758E-15	1.584612E-16
3.180000E+03	4.589487E-15	1.633659E-16
3.190000E+03	4.744387E-15	1.685008E-16
3.200000E+03	4.906837E-15	1.738774E-16
3.210000E+03	5.077983E-15	1.795345E-16
3.220000E+03	5.256749E-15	1.854318E-16
3.230000E+03	5.444277E-15	1.916077E-16
3.240000E+03	5.640982E-15	1.980746E-16
3.250000E+03	5.848139E-15	2.048747E-16
3.260000E+03	6.064463E-15	2.119605E-16
3.270000E+03	6.292095E-15	2.194044E-16
3.280000E+03	6.529570E-15	2.271525E-16
3.290000E+03	6.779073E-15	2.352783E-16
3.300000E+03	7.039917E-15	2.437547E-16
3.310000E+03	7.312235E-15	2.525836E-16
3.320000E+03	7.594924E-15	2.617240E-16
3.330000E+03	7.889979E-15	2.712419E-16
3.340000E+03	8.195936E-15	2.810838E-16
3.350000E+03	8.512103E-15	2.912234E-16
3.360000E+03	8.837422E-15	3.016219E-16
3.370000E+03	9.170369E-15	3.122250E-16
3.380000E+03	9.510213E-15	3.230060E-16
3.390000E+03	9.851464E-15	3.337770E-16
3.400000E+03	1.019184E-14	3.444605E-16
3.410000E+03	1.052687E-14	3.549060E-16
3.420000E+03	1.085284E-14	3.649896E-16
3.430000E+03	1.116078E-14	3.744131E-16
3.440000E+03	1.144759E-14	3.830768E-16
3.450000E+03	1.170399E-14	3.906762E-16
3.460000E+03	1.192790E-14	3.971502E-16
3.470000E+03	1.211199E-14	4.022632E-16
3.480000E+03	1.225763E-14	4.060707E-16
3.490000E+03	1.236355E-14	4.085404E-16
3.500000E+03	1.243107E-14	4.097262E-16
3.510000E+03	1.246940E-14	4.099403E-16
3.520000E+03	1.248474E-14	4.093936E-16
3.530000E+03	1.248656E-14	4.084014E-16
3.540000E+03	1.248498E-14	4.072981E-16
3.550000E+03	1.248984E-14	4.064043E-16
3.560000E+03	1.250975E-14	4.059978E-16
3.570000E+03	1.255139E-14	4.062914E-16
3.580000E+03	1.261899E-14	4.074160E-16
3.590000E+03	1.271406E-14	4.094144E-16
3.600000E+03	1.283711E-14	4.122953E-16
3.610000E+03	1.298058E-14	4.158104E-16
3.620000E+03	1.313963E-14	4.197993E-16
3.630000E+03	1.330518E-14	4.239691E-16
3.640000E+03	1.346762E-14	4.280130E-16
3.650000E+03	1.360964E-14	4.313836E-16
3.660000E+03	1.371768E-14	4.336567E-16
3.670000E+03	1.377704E-14	4.343782E-16
3.680000E+03	1.376710E-14	4.329120E-16
3.690000E+03	1.367584E-14	4.288985E-16
3.700000E+03	1.348643E-14	4.218316E-16
3.710000E+03	1.319405E-14	4.115861E-16
3.720000E+03	1.279477E-14	3.980651E-16
3.730000E+03	1.229279E-14	3.814260E-16
3.740000E+03	1.170598E-14	3.622469E-16
3.750000E+03	1.105510E-14	3.411896E-16
3.760000E+03	1.036739E-14	3.191086E-16
3.770000E+03	9.677456E-15	2.970745E-16
3.780000E+03	9.014967E-15	2.759962E-16
3.790000E+03	8.406357E-15	2.566739E-16
3.800000E+03	7.875982E-15	2.398354E-16
3.810000E+03	7.438646E-15	2.259111E-16
3.820000E+03	7.105020E-15	2.152010E-16
3.830000E+03	6.881862E-15	2.078840E-16
3.840000E+03	6.773682E-15	2.040688E-16
3.850000E+03	6.783342E-15	2.038137E-16
3.860000E+03	6.916623E-15	2.072635E-16
3.870000E+03	7.177263E-15	2.145003E-16
3.880000E+03	7.570210E-15	2.256415E-16
3.890000E+03	8.099696E-15	2.407817E-16
3.900000E+03	8.767568E-15	2.599440E-16
3.910000E+03	9.571124E-15	2.830165E-16
3.920000E+03	1.050084E-14	3.096874E-16
3.930000E+03	1.153863E-14	3.393962E-16
3.940000E+03	1.265719E-14	3.713184E-16
3.950000E+03	1.382112E-14	4.044010E-16
3.960000E+03	1.498961E-14	4.374438E-16
3.970000E+03	1.612046E-14	4.692197E-16
3.980000E+03	1.717462E-14	4.986052E-16
3.990000E+03	1.811758E-14	5.246205E-16
4.000000E+03	1.893112E-14	5.467653E-16
4.010000E+03	1.960039E-14	5.646431E-16
4.020000E+03	2.012251E-14	5.782042E-16
4.030000E+03	2.050293E-14	5.876385E-16
4.040000E+03	2.075355E-14	5.933181E-16
4.050000E+03	2.089069E-14	5.957374E-16
4.060000E+03	2.093314E-14	5.954561E-16
4.070000E+03	2.090036E-14	5.930467E-16
4.080000E+03	2.081093E-14	5.890518E-16
4.090000E+03	2.068131E-14	5.839481E-16
4.100000E+03	2.052499E-14	5.781238E-16
4.110000E+03	2.034950E-14	5.717962E-16
4.120000E+03	2.016686E-14	5.653063E-16
4.130000E+03	1.997880E-14	5.587035E-16
4.140000E+03	1.978830E-14	5.520724E-16
4.150000E+03	1.959833E-14	5.454960E-16
4.160000E+03	1.941069E-14	5.390239E-16
4.170000E+03	1.923638E-14	5.329601E-16
4.180000E+03	1.908109E-14	5.274601E-16
4.190000E+03	1.895203E-14	5.227185E-16
4.200000E+03	1.886379E-14	5.191320E-16
4.210000E+03	1.882273E-14	5.168682E-16
4.220000E+03	1.883306E-14	5.160338E-16
4.230000E+03	1.890293E-14	5.168431E-16
4.240000E+03	1.902763E-14	5.191579E-16
4.250000E+03	1.920797E-14	5.229911E-16
4.260000E+03	1.943097E-14	5.279816E-16
4.270000E+03	1.968617E-14	5.338397E-16
4.280000E+03	1.995888E-14	5.401635E-16
4.290000E+03	2.022380E-14	5.462682E-16
4.300000E+03	2.046156E-14	5.516339E-16
4.310000E+03	2.065418E-14	5.557821E-16
4.320000E+03	2.078028E-14	5.581464E-16
4.330000E+03	2.083275E-14	5.585469E-16
4.340000E+03	2.081004E-14	5.569536E-16
4.350000E+03	2.071855E-14	5.535478E-16
4.360000E+03	2.057104E-14	5.486801E-16
4.370000E+03	2.038461E-14	5.428132E-16
4.380000E+03	2.017834E-14	5.364590E-16
4.390000E+03	1.997075E-14	5.301115E-16
4.400000E+03	1.977739E-14	5.241824E-16
4.410000E+03	1.960805E-14	5.189286E-16
4.420000E+03	1.947733E-14	5.147331E-16
4.430000E+03	1.939135E-14	5.117525E-16
4.440000E+03	1.935530E-14	5.101178E-16
4.450000E+03	1.938030E-14	5.101163E-16
4.460000E+03	1.946724E-14	5.117650E-16
4.470000E+03	1.962524E-14	5.152969E-16
4.480000E+03	1.985282E-14	5.206669E-16
4.490000E+03	2.015361E-14	5.279645E-16
4.500000E+03	2.052848E-14	5.372062E-16
4.510000E+03	2.096679E-14	5.481090E-16
4.520000E+03	2.145966E-14	5.604368E-16
4.530000E+03	2.198945E-14	5.737266E-16
4.540000E+03	2.253219E-14	5.873520E-16
4.550000E+03	2.305838E-14	6.005455E-16
4.560000E+03	2.353513E-14	6.124533E-16
4.570000E+03	2.392631E-14	6.221403E-16
4.580000E+03	2.420717E-14	6.289701E-16
4.590000E+03	2.435101E-14	6.322555E-16
4.600000E+03	2.433984E-14	6.315381E-16
4.610000E+03	2.417458E-14	6.268493E-16
4.620000E+03	2.385537E-14	6.181997E-16
4.630000E+03	2.340047E-14	6.060679E-16
4.640000E+03	2.283574E-14	5.911275E-16
4.650000E+03	2.218456E-14	5.739866E-16
4.660000E+03	2.148158E-14	5.555419E-16
4.670000E+03	2.075941E-14	5.366366E-16
4.680000E+03	2.004933E-14	5.180768E-16
4.690000E+03	1.937940E-14	5.005853E-16
4.700000E+03	1.877322E-14	4.847678E-16
4.710000E+03	1.824688E-14	4.710370E-16
4.720000E+03	1.781703E-14	4.598186E-16
4.730000E+03	1.748599E-14	4.511694E-16
4.740000E+03	1.725863E-14	4.452123E-16
4.750000E+03	1.712655E-14	4.417280E-16
4.760000E+03	1.708259E-14	4.405301E-16
4.770000E+03	1.711537E-14	4.413236E-16
4.780000E+03	1.720424E-14	4.435757E-16
4.790000E+03	1.733185E-14	4.468385E-16
4.800000E+03	1.747740E-14	4.505757E-16
4.810000E+03	1.761795E-14	4.541953E-16
4.820000E+03	1.773794E-14	4.572971E-16
4.830000E+03	1.781905E-14	4.594079E-16
4.840000E+03	1.784781E-14	4.601810E-16
4.850000E+03	1.782337E-14	4.595934E-16
4.860000E+03	1.774415E-14	4.576039E-16
4.870000E+03	1.762433E-14	4.545775E-16
4.880000E+03	1.747691E-14	4.508486E-16
4.890000E+03	1.732604E-14	4.470396E-16
4.900000E+03	1.719649E-14	4.437889E-16
4.910000E+03	1.711263E-14	4.417258E-16
4.920000E+03	1.709526E-14	4.413877E-16
4.930000E+03	1.715851E-14	4.431408E-16
4.940000E+03	1.730550E-14	4.470667E-16
4.950000E+03	1.753433E-14	4.531189E-16
4.960000E+03	1.782404E-14	4.607572E-16
4.970000E+03	1.815136E-14	4.693822E-16
4.980000E+03	1.847808E-14	4.780063E-16
4.990000E+03	1.877040E-14	4.857551E-16
5.000000E+03	1.899697E-14	4.918163E-16
5.010000E+03	1.913670E-14	4.956417E-16
5.020000E+03	1.918256E-14	4.970464E-16
5.030000E+03	1.914291E-14	4.962438E-16
5.040000E+03	1.903996E-14	4.938065E-16
5.050000E+03	1.890378E-14	4.905125E-16
5.060000E+03	1.877583E-14	4.874361E-16
5.070000E+03	1.868910E-14	4.854348E-16
5.080000E+03	1.868060E-14	4.854711E-16
5.090000E+03	1.877134E-14	4.880949E-16
5.100000E+03	1.897874E-14	4.937634E-16
5.110000E+03	1.930696E-14	5.025902E-16
5.120000E+03	1.974860E-14	5.143881E-16
5.130000E+03	2.028536E-14	5.286856E-16
5.140000E+03	2.088992E-14	5.447751E-16
5.150000E+03	2.152634E-14	5.617225E-16
5.160000E+03	2.216322E-14	5.787102E-16
5.170000E+03	2.276119E-14	5.947098E-16
5.180000E+03	2.329584E-14	6.090815E-16
5.190000E+03	2.374053E-14	6.211258E-16
5.200000E+03	2.408505E-14	6.305706E-16
5.210000E+03	2.432506E-14	6.372970E-16
5.220000E+03	2.446318E-14	6.413681E-16
5.230000E+03	2.450697E-14	6.429770E-16
5.240000E+03	2.446677E-14	6.423893E-16
5.250000E+03	2.435378E-14	6.398943E-16
5.260000E+03	2.417590E-14	6.356956E-16
5.270000E+03	2.394740E-14	6.301647E-16
5.280000E+03	2.366989E-14	6.233404E-16
5.290000E+03	2.335344E-14	6.154848E-16
5.300000E+03	2.299616E-14	6.065457E-16
5.310000E+03	2.260320E-14	5.966555E-16
5.320000E+03	2.217729E-14	5.858843E-16
5.330000E+03	2.172211E-14	5.743268E-16
5.340000E+03	2.124282E-14	5.621170E-16
5.350000E+03	2.074622E-14	5.494329E-16
5.360000E+03	2.023848E-14	5.364367E-16
5.370000E+03	1.973383E-14	5.235049E-16
5.380000E+03	1.923890E-14	5.108130E-16
5.390000E+03	1.876989E-14	4.987919E-16
5.400000E+03	1.833551E-14	4.876746E-16
5.410000E+03	1.795143E-14	4.778803E-16
5.420000E+03	1.763359E-14	4.698372E-16
5.430000E+03	1.739214E-14	4.638202E-16
5.440000E+03	1.724231E-14	4.602411E-16
5.450000E+03	1.719562E-14	4.594140E-16
5.460000E+03	1.725869E-14	4.615235E-16
5.470000E+03	1.743920E-14	4.667827E-16
5.480000E+03	1.773290E-14	4.750864E-16
5.490000E+03	1.812697E-14	4.860992E-16
5.500000E+03	1.860337E-14	4.993445E-16
5.510000E+03	1.912369E-14	5.137962E-16
5.520000E+03	1.964499E-14	5.283029E-16
5.530000E+03	2.011836E-14	5.415482E-16
5.540000E+03	2.048776E-14	5.520180E-16
5.550000E+03	2.070916E-14	5.585165E-16
5.560000E+03	2.074792E-14	5.600975E-16
5.570000E+03	2.058514E-14	5.562356E-16
5.580000E+03	2.021669E-14	5.468028E-16
5.590000E+03	1.966021E-14	5.322609E-16
5.600000E+03	1.893803E-14	5.131998E-16
5.610000E+03	1.807938E-14	4.903994E-16
5.620000E+03	1.712181E-14	4.648682E-16
5.630000E+03	1.609442E-14	4.373896E-16
5.640000E+03	1.502986E-14	4.088459E-16
5.650000E+03	1.395768E-14	3.800389E-16
5.660000E+03	1.290026E-14	3.515780E-16
5.670000E+03	1.188244E-14	3.241423E-16
5.680000E+03	1.092513E-14	2.983055E-16
5.690000E+03	1.004655E-14	2.745708E-16
5.700000E+03	9.261841E-15	2.533580E-16
5.710000E+03	8.581700E-15	2.349676E-16
5.720000E+03	8.016137E-15	2.196820E-16
5.730000E+03	7.569049E-15	2.076168E-16
5.740000E+03	7.242023E-15	1.988244E-16
5.750000E+03	7.037337E-15	1.933764E-16
5.760000E+03	6.953265E-15	1.912342E-16
5.770000E+03	6.990042E-15	1.924132E-16
5.780000E+03	7.147597E-15	1.969199E-16
5.790000E+03	7.422803E-15	2.046765E-16
5.800000E+03	7.812964E-15	2.156166E-16
5.810000E+03	8.311330E-15	2.295614E-16
5.820000E+03	8.906222E-15	2.461952E-16
5.830000E+03	9.579647E-15	2.650262E-16
5.840000E+03	1.030657E-14	2.853658E-16
5.850000E+03	1.105524E-14	3.063370E-16
5.860000E+03	1.178759E-14	3.268848E-16
5.870000E+03	1.246709E-14	3.459938E-16
5.880000E+03	1.305496E-14	3.625825E-16
5.890000E+03	1.351723E-14	3.757005E-16
5.900000E+03	1.383254E-14	3.847452E-16
5.910000E+03	1.398400E-14	3.892372E-16
5.920000E+03	1.397025E-14	3.891283E-16
5.930000E+03	1.380052E-14	3.846663E-16
5.940000E+03	1.348875E-14	3.762305E-16
5.950000E+03	1.306037E-14	3.645236E-16
5.960000E+03	1.254381E-14	3.503331E-16
5.970000E+03	1.196940E-14	3.345026E-16
5.980000E+03	1.136697E-14	3.178634E-16
5.990000E+03	1.076382E-14	3.011786E-16
6.000000E+03	1.018339E-14	2.851055E-16
6.010000E+03	9.644442E-15	2.701713E-16
6.020000E+03	9.160004E-15	2.567435E-16
6.030000E+03	8.741696E-15	2.451515E-16
6.040000E+03	8.394428E-15	2.355362E-16
6.050000E+03	8.120513E-15	2.279663E-16
6.060000E+03	7.923089E-15	2.225334E-16
6.070000E+03	7.800886E-15	2.192051E-16
6.080000E+03	7.755945E-15	2.180420E-16
6.090000E+03	7.787526E-15	2.190262E-16
6.100000E+03	7.899422E-15	2.222672E-16
6.110000E+03	8.093740E-15	2.278270E-16
6.120000E+03	8.377192E-15	2.358971E-16
6.130000E+03	8.758029E-15	2.467123E-16
6.140000E+03	9.247024E-15	2.605787E-16
6.150000E+03	9.857353E-15	2.778700E-16
6.160000E+03	1.060411E-14	2.990143E-16
6.170000E+03	1.150329E-14	3.244653E-16
6.180000E+03	1.257015E-14	3.546554E-16
6.190000E+03	1.381662E-14	3.899238E-16
6.200000E+03	1.524805E-14	4.304235E-16
6.210000E+03	1.685939E-14	4.760128E-16
6.220000E+03	1.863118E-14	5.261432E-16
6.230000E+03	2.052421E-14	5.797067E-16
6.240000E+03	2.248669E-14	6.352390E-16
6.250000E+03	2.444299E-14	6.906007E-16
6.260000E+03	2.630400E-14	7.432706E-16
6.270000E+03	2.798458E-14	7.908385E-16
6.280000E+03	2.939478E-14	8.307575E-16
6.290000E+03	3.047406E-14	8.613121E-16
6.300000E+03	3.117565E-14	8.811767E-16
6.310000E+03	3.149349E-14	8.901778E-16
6.320000E+03	3.145243E-14	8.890162E-16
6.330000E+03	3.109259E-14	8.788259E-16
6.340000E+03	3.048125E-14	8.615097E-16
6.350000E+03	2.969280E-14	8.391719E-16
6.360000E+03	2.879034E-14	8.135981E-16
6.370000E+03	2.783843E-14	7.866147E-16
6.380000E+03	2.688611E-14	7.596092E-16
6.390000E+03	2.596890E-14	7.335867E-16
6.400000E+03	2.510952E-14	7.091902E-16
6.410000E+03	2.431977E-14	6.867536E-16
6.420000E+03	2.360282E-14	6.663667E-16
6.430000E+03	2.295562E-14	6.479433E-16
6.440000E+03	2.237108E-14	6.312830E-16
6.450000E+03	2.183989E-14	6.161229E-16
6.460000E+03	2.134971E-14	6.021145E-16
6.470000E+03	2.089562E-14	5.891194E-16
6.480000E+03	2.046700E-14	5.768376E-16
6.490000E+03	2.005739E-14	5.650874E-16
6.500000E+03	1.966025E-14	5.536850E-16
6.510000E+03	1.927746E-14	5.426830E-16
6.520000E+03	1.890591E-14	5.319946E-16
6.530000E+03	1.854337E-14	5.215572E-16
6.540000E+03	1.819326E-14	5.114674E-16
6.550000E+03	1.785001E-14	5.015682E-16
6.560000E+03	1.751516E-14	4.919041E-16
6.570000E+03	1.718203E-14	4.822870E-16
6.580000E+03	1.685083E-14	4.727241E-16
6.590000E+03	1.651368E-14	4.629945E-16
6.600000E+03	1.616753E-14	4.530137E-16
6.610000E+03	1.580866E-14	4.426789E-16
6.620000E+03	1.542786E-14	4.317334E-16
6.630000E+03	1.502124E-14	4.200704E-16
6.640000E+03	1.458529E-14	4.075942E-16
6.650000E+03	1.411280E-14	3.941062E-16
6.660000E+03	1.360307E-14	3.795891E-16
6.670000E+03	1.305575E-14	3.640374E-16
6.680000E+03	1.247290E-14	3.475115E-16
6.690000E+03	1.185902E-14	3.301400E-16
6.700000E+03	1.122215E-14	3.121497E-16
6.710000E+03	1.056849E-14	2.937163E-16
6.720000E+03	9.909498E-15	2.751597E-16
6.730000E+03	9.255995E-15	2.567821E-16
6.740000E+03	8.618834E-15	2.388849E-16
6.750000E+03	8.007311E-15	2.217255E-16
6.760000E+03	7.432186E-15	2.056007E-16
6.770000E+03	6.899874E-15	1.906859E-16
6.780000E+03	6.415960E-15	1.771326E-16
6.790000E+03	5.984262E-15	1.650431E-16
6.800000E+03	5.607009E-15	1.544750E-16
6.810000E+03	5.285113E-15	1.454493E-16
6.820000E+03	5.017976E-15	1.379452E-16
6.830000E+03	4.806061E-15	1.319710E-16
6.840000E+03	4.647874E-15	1.274809E-16
6.850000E+03	4.542017E-15	1.244319E-16
6.860000E+03	4.488822E-15	1.228281E-16
6.870000E+03	4.487464E-15	1.226420E-16
6.880000E+03	4.537509E-15	1.238567E-16
6.890000E+03	4.640308E-15	1.265036E-16
6.900000E+03	4.795346E-15	1.305632E-16
6.910000E+03	5.004007E-15	1.360674E-16
6.920000E+03	5.265053E-15	1.429767E-16
6.930000E+03	5.578532E-15	1.512863E-16
6.940000E+03	5.940824E-15	1.608918E-16
6.950000E+03	6.349038E-15	1.717094E-16
6.960000E+03	6.795677E-15	1.835306E-16
6.970000E+03	7.273189E-15	1.961468E-16
6.980000E+03	7.772364E-15	2.093059E-16
6.990000E+03	8.280109E-15	2.226524E-16
7.000000E+03	8.785115E-15	2.358810E-16
7.010000E+03	9.275496E-15	2.486728E-16
7.020000E+03	9.741564E-15	2.607695E-16
7.030000E+03	1.017239E-14	2.718815E-16
7.040000E+03	1.056271E-14	2.818720E-16
7.050000E+03	1.090906E-14	2.906535E-16
7.060000E+03	1.121087E-14	2.982162E-16
7.070000E+03	1.147031E-14	3.046231E-16
7.080000E+03	1.169184E-14	3.099972E-16
7.090000E+03	1.188177E-14	3.145108E-16
7.100000E+03	1.204784E-14	3.183724E-16
7.110000E+03	1.219882E-14	3.218164E-16
7.120000E+03	1.234411E-14	3.250925E-16
7.130000E+03	1.249357E-14	3.284603E-16
7.140000E+03	1.265718E-14	3.321816E-16
7.150000E+03	1.284482E-14	3.365127E-16
7.160000E+03	1.306593E-14	3.416973E-16
7.170000E+03	1.332911E-14	3.479555E-16
7.180000E+03	1.364010E-14	3.554305E-16
7.190000E+03	1.400711E-14	3.643289E-16
7.200000E+03	1.443106E-14	3.746666E-16
7.210000E+03	1.490903E-14	3.863597E-16
7.220000E+03	1.543845E-14	3.993335E-16
7.230000E+03	1.600666E-14	4.132537E-16
7.240000E+03	1.659515E-14	4.276375E-16
7.250000E+03	1.718542E-14	4.420056E-16
7.260000E+03	1.774695E-14	4.555741E-16
7.270000E+03	1.825381E-14	4.676832E-16
7.280000E+03	1.867149E-14	4.774584E-16
7.290000E+03	1.897572E-14	4.842934E-16
7.300000E+03	1.913896E-14	4.875039E-16
7.310000E+03	1.914970E-14	4.868189E-16
7.320000E+03	1.899716E-14	4.819876E-16
7.330000E+03	1.868668E-14	4.731706E-16
7.340000E+03	1.823045E-14	4.607000E-16
7.350000E+03	1.764976E-14	4.451352E-16
7.360000E+03	1.696464E-14	4.269995E-16
7.370000E+03	1.620319E-14	4.070150E-16
7.380000E+03	1.539110E-14	3.858377E-16
7.390000E+03	1.455178E-14	3.640615E-16
7.400000E+03	1.370524E-14	3.421901E-16
7.410000E+03	1.286752E-14	3.206244E-16
7.420000E+03	1.205075E-14	2.996652E-16
7.430000E+03	1.126365E-14	2.795252E-16
7.440000E+03	1.051208E-14	2.603457E-16
7.450000E+03	9.799832E-15	2.422149E-16
7.460000E+03	9.129256E-15	2.251845E-16
7.470000E+03	8.501802E-15	2.092841E-16
7.480000E+03	7.918436E-15	1.945308E-16
7.490000E+03	7.379085E-15	1.809160E-16
7.500000E+03	6.886152E-15	1.684919E-16
7.510000E+03	6.439431E-15	1.572464E-16
7.520000E+03	6.038925E-15	1.471725E-16
7.530000E+03	5.686712E-15	1.383139E-16
7.540000E+03	5.382116E-15	1.306470E-16
7.550000E+03	5.127026E-15	1.242104E-16
7.560000E+03	4.920904E-15	1.189841E-16
7.570000E+03	4.765611E-15	1.150057E-16
7.580000E+03	4.660922E-15	1.122628E-16
7.590000E+03	4.609014E-15	1.108005E-16
7.600000E+03	4.610241E-15	1.106201E-16
7.610000E+03	4.666853E-15	1.117683E-16
7.620000E+03	4.781383E-15	1.142985E-16
7.630000E+03	4.954841E-15	1.182274E-16
7.640000E+03	5.189562E-15	1.236032E-16
7.650000E+03	5.486517E-15	1.304416E-16
7.660000E+03	5.845035E-15	1.387195E-16
7.670000E+03	6.261800E-15	1.483514E-16
7.680000E+03	6.729726E-15	1.591636E-16
7.690000E+03	7.236907E-15	1.708698E-16
7.700000E+03	7.765914E-15	1.830559E-16
7.710000E+03	8.293782E-15	1.951804E-16
7.720000E+03	8.793014E-15	2.065988E-16
7.730000E+03	9.233721E-15	2.166149E-16
7.740000E+03	9.585699E-15	2.245289E-16
7.750000E+03	9.826477E-15	2.298260E-16
7.760000E+03	9.938294E-15	2.321042E-16
