#wls	flux	fluxerr
1.600000E+03	8.226024E-16	5.232342E-17
1.640000E+03	8.238282E-16	5.217945E-17
1.680000E+03	8.253279E-16	5.204648E-17
1.720000E+03	8.274487E-16	5.194595E-17
1.760000E+03	8.301084E-16	5.187203E-17
1.800000E+03	8.333770E-16	5.182844E-17
1.840000E+03	8.374796E-16	5.182841E-17
1.880000E+03	8.423585E-16	5.186740E-17
1.920000E+03	8.481124E-16	5.195051E-17
1.960000E+03	8.550013E-16	5.209251E-17
2.000000E+03	8.630032E-16	5.229070E-17
2.040000E+03	8.722602E-16	5.255218E-17
2.080000E+03	8.830862E-16	5.289417E-17
2.120000E+03	8.955146E-16	5.331660E-17
2.160000E+03	9.099117E-16	5.383902E-17
2.200000E+03	9.263653E-16	5.446393E-17
2.240000E+03	9.451516E-16	5.520463E-17
2.280000E+03	9.667559E-16	5.608596E-17
2.320000E+03	9.913887E-16	5.711607E-17
2.360000E+03	1.019655E-15	5.832514E-17
2.400000E+03	1.051894E-15	5.972705E-17
2.440000E+03	1.088880E-15	6.135953E-17
2.480000E+03	1.131137E-15	6.324457E-17
2.520000E+03	1.179488E-15	6.541960E-17
2.560000E+03	1.235114E-15	6.793998E-17
2.600000E+03	1.299202E-15	7.085882E-17
2.640000E+03	1.372707E-15	7.421399E-17
2.680000E+03	1.457974E-15	7.811546E-17
2.720000E+03	1.556284E-15	8.261160E-17
2.760000E+03	1.670778E-15	8.784527E-17
2.800000E+03	1.803491E-15	9.389447E-17
2.840000E+03	1.958343E-15	1.009293E-16
2.880000E+03	2.139351E-15	1.091153E-16
2.920000E+03	2.350819E-15	1.186224E-16
2.960000E+03	2.598032E-15	1.296588E-16
3.000000E+03	2.887405E-15	1.424745E-16
3.010000E+03	2.967397E-15	1.459994E-16
3.020000E+03	3.050038E-15	1.496298E-16
3.030000E+03	3.135909E-15	1.533927E-16
3.040000E+03	3.225648E-15	1.573177E-16
3.050000E+03	3.318333E-15	1.613581E-16
3.060000E+03	3.415144E-15	1.655697E-16
3.070000E+03	3.515107E-15	1.699036E-16
3.080000E+03	3.618879E-15	1.743898E-16
3.090000E+03	3.727189E-15	1.790613E-16
3.100000E+03	3.839591E-15	1.838949E-16
3.110000E+03	3.955577E-15	1.888642E-16
3.120000E+03	4.076541E-15	1.940337E-16
3.130000E+03	4.201320E-15	1.993458E-16
3.140000E+03	4.331390E-15	2.048685E-16
3.150000E+03	4.466240E-15	2.105751E-16
3.160000E+03	4.605279E-15	2.164353E-16
3.170000E+03	4.750120E-15	2.225228E-16
3.180000E+03	4.900203E-15	2.288084E-16
3.190000E+03	5.054878E-15	2.352593E-16
3.200000E+03	5.215906E-15	2.419548E-16
3.210000E+03	5.382664E-15	2.488630E-16
3.220000E+03	5.555313E-15	2.559883E-16
3.230000E+03	5.734004E-15	2.633348E-16
3.240000E+03	5.917936E-15	2.708627E-16
3.250000E+03	6.109092E-15	2.786597E-16
3.260000E+03	6.306655E-15	2.866850E-16
3.270000E+03	6.510686E-15	2.949382E-16
3.280000E+03	6.721208E-15	3.034168E-16
3.290000E+03	6.938182E-15	3.121159E-16
3.300000E+03	7.161498E-15	3.210270E-16
3.310000E+03	7.390963E-15	3.301384E-16
3.320000E+03	7.626283E-15	3.394336E-16
3.330000E+03	7.867043E-15	3.488911E-16
3.340000E+03	8.112683E-15	3.584833E-16
3.350000E+03	8.362477E-15	3.681755E-16
3.360000E+03	8.616857E-15	3.779844E-16
3.370000E+03	8.871974E-15	3.877392E-16
3.380000E+03	9.127681E-15	3.974329E-16
3.390000E+03	9.382163E-15	4.069862E-16
3.400000E+03	9.633205E-15	4.163036E-16
3.410000E+03	9.878173E-15	4.252731E-16
3.420000E+03	1.011563E-14	4.338358E-16
3.430000E+03	1.033912E-14	4.417193E-16
3.440000E+03	1.054673E-14	4.488494E-16
3.450000E+03	1.073514E-14	4.550924E-16
3.460000E+03	1.090313E-14	4.604061E-16
3.470000E+03	1.104512E-14	4.645665E-16
3.480000E+03	1.116167E-14	4.676092E-16
3.490000E+03	1.125467E-14	4.696263E-16
3.500000E+03	1.132223E-14	4.705506E-16
3.510000E+03	1.137079E-14	4.706620E-16
3.520000E+03	1.140096E-14	4.699948E-16
3.530000E+03	1.141940E-14	4.688317E-16
3.540000E+03	1.143304E-14	4.674627E-16
3.550000E+03	1.144322E-14	4.659443E-16
3.560000E+03	1.145746E-14	4.645836E-16
3.570000E+03	1.147490E-14	4.633439E-16
3.580000E+03	1.150014E-14	4.624082E-16
3.590000E+03	1.152884E-14	4.615994E-16
3.600000E+03	1.156200E-14	4.609554E-16
3.610000E+03	1.159187E-14	4.601666E-16
3.620000E+03	1.161642E-14	4.591545E-16
3.630000E+03	1.162538E-14	4.575178E-16
3.640000E+03	1.161490E-14	4.551138E-16
3.650000E+03	1.157363E-14	4.515096E-16
3.660000E+03	1.149747E-14	4.465623E-16
3.670000E+03	1.137583E-14	4.398807E-16
3.680000E+03	1.120632E-14	4.313960E-16
3.690000E+03	1.098135E-14	4.208431E-16
3.700000E+03	1.070248E-14	4.083095E-16
3.710000E+03	1.036892E-14	3.937940E-16
3.720000E+03	9.983226E-15	3.774216E-16
3.730000E+03	9.555863E-15	3.596135E-16
3.740000E+03	9.095740E-15	3.407253E-16
3.750000E+03	8.614655E-15	3.212141E-16
3.760000E+03	8.130134E-15	3.017415E-16
3.770000E+03	7.655015E-15	2.827837E-16
3.780000E+03	7.206318E-15	2.649617E-16
3.790000E+03	6.795603E-15	2.486851E-16
3.800000E+03	6.432207E-15	2.342743E-16
3.810000E+03	6.125819E-15	2.220560E-16
3.820000E+03	5.880804E-15	2.121582E-16
3.830000E+03	5.699912E-15	2.046478E-16
3.840000E+03	5.587299E-15	1.996403E-16
3.850000E+03	5.543871E-15	1.971326E-16
3.860000E+03	5.570384E-15	1.971157E-16
3.870000E+03	5.670130E-15	1.996695E-16
3.880000E+03	5.843947E-15	2.047858E-16
3.890000E+03	6.092418E-15	2.124470E-16
3.900000E+03	6.418198E-15	2.227071E-16
3.910000E+03	6.818986E-15	2.354473E-16
3.920000E+03	7.294256E-15	2.506115E-16
3.930000E+03	7.837698E-15	2.679465E-16
3.940000E+03	8.439145E-15	2.870723E-16
3.950000E+03	9.088189E-15	3.076080E-16
3.960000E+03	9.767264E-15	3.289387E-16
3.970000E+03	1.045590E-14	3.503644E-16
3.980000E+03	1.113715E-14	3.713163E-16
3.990000E+03	1.179036E-14	3.911144E-16
4.000000E+03	1.239701E-14	4.091631E-16
4.010000E+03	1.294785E-14	4.251834E-16
4.020000E+03	1.343088E-14	4.388118E-16
4.030000E+03	1.384614E-14	4.500857E-16
4.040000E+03	1.418976E-14	4.589142E-16
4.050000E+03	1.446928E-14	4.655765E-16
4.060000E+03	1.468851E-14	4.702277E-16
4.070000E+03	1.485267E-14	4.730643E-16
4.080000E+03	1.497426E-14	4.745099E-16
4.090000E+03	1.505704E-14	4.747052E-16
4.100000E+03	1.511299E-14	4.740450E-16
4.110000E+03	1.514427E-14	4.726109E-16
4.120000E+03	1.516082E-14	4.707232E-16
4.130000E+03	1.516266E-14	4.683906E-16
4.140000E+03	1.515793E-14	4.658705E-16
4.150000E+03	1.514549E-14	4.631320E-16
4.160000E+03	1.513304E-14	4.604135E-16
4.170000E+03	1.511974E-14	4.576900E-16
4.180000E+03	1.511186E-14	4.551515E-16
4.190000E+03	1.511614E-14	4.529977E-16
4.200000E+03	1.513312E-14	4.512404E-16
4.210000E+03	1.517242E-14	4.501595E-16
4.220000E+03	1.523470E-14	4.497656E-16
4.230000E+03	1.532620E-14	4.502327E-16
4.240000E+03	1.545120E-14	4.516743E-16
4.250000E+03	1.560453E-14	4.539267E-16
4.260000E+03	1.578480E-14	4.569386E-16
4.270000E+03	1.598572E-14	4.605193E-16
4.280000E+03	1.620106E-14	4.644829E-16
4.290000E+03	1.641577E-14	4.683956E-16
4.300000E+03	1.662059E-14	4.719971E-16
4.310000E+03	1.680376E-14	4.749605E-16
4.320000E+03	1.695448E-14	4.769920E-16
4.330000E+03	1.706649E-14	4.779313E-16
4.340000E+03	1.712977E-14	4.775151E-16
4.350000E+03	1.714654E-14	4.758251E-16
4.360000E+03	1.712283E-14	4.730463E-16
4.370000E+03	1.707086E-14	4.695304E-16
4.380000E+03	1.700680E-14	4.657310E-16
4.390000E+03	1.694671E-14	4.620908E-16
4.400000E+03	1.690203E-14	4.589196E-16
4.410000E+03	1.687891E-14	4.563784E-16
4.420000E+03	1.688069E-14	4.545510E-16
4.430000E+03	1.690962E-14	4.534899E-16
4.440000E+03	1.696493E-14	4.531667E-16
4.450000E+03	1.705284E-14	4.537390E-16
4.460000E+03	1.717235E-14	4.551702E-16
4.470000E+03	1.732501E-14	4.574918E-16
4.480000E+03	1.751276E-14	4.607453E-16
4.490000E+03	1.773541E-14	4.649169E-16
4.500000E+03	1.800047E-14	4.701930E-16
4.510000E+03	1.830762E-14	4.765553E-16
4.520000E+03	1.865513E-14	4.839481E-16
4.530000E+03	1.904620E-14	4.924458E-16
4.540000E+03	1.947128E-14	5.017926E-16
4.550000E+03	1.991427E-14	5.115681E-16
4.560000E+03	2.036120E-14	5.214126E-16
4.570000E+03	2.078195E-14	5.305579E-16
4.580000E+03	2.115491E-14	5.384619E-16
4.590000E+03	2.144684E-14	5.442940E-16
4.600000E+03	2.163700E-14	5.475480E-16
4.610000E+03	2.171114E-14	5.478871E-16
4.620000E+03	2.165379E-14	5.449465E-16
4.630000E+03	2.146703E-14	5.388043E-16
4.640000E+03	2.116082E-14	5.297347E-16
4.650000E+03	2.074310E-14	5.179569E-16
4.660000E+03	2.023630E-14	5.040482E-16
4.670000E+03	1.966387E-14	4.886046E-16
4.680000E+03	1.905148E-14	4.722713E-16
4.690000E+03	1.842554E-14	4.557046E-16
4.700000E+03	1.781410E-14	4.395956E-16
4.710000E+03	1.723526E-14	4.243841E-16
4.720000E+03	1.671090E-14	4.105991E-16
4.730000E+03	1.625347E-14	3.985351E-16
4.740000E+03	1.587713E-14	3.885255E-16
4.750000E+03	1.558370E-14	3.806008E-16
4.760000E+03	1.537209E-14	3.747207E-16
4.770000E+03	1.523666E-14	3.707358E-16
4.780000E+03	1.516799E-14	3.684058E-16
4.790000E+03	1.515159E-14	3.673706E-16
4.800000E+03	1.517723E-14	3.673748E-16
4.810000E+03	1.522739E-14	3.679904E-16
4.820000E+03	1.528467E-14	3.687942E-16
4.830000E+03	1.533912E-14	3.695460E-16
4.840000E+03	1.537460E-14	3.698575E-16
4.850000E+03	1.538670E-14	3.696248E-16
4.860000E+03	1.536652E-14	3.686369E-16
4.870000E+03	1.531813E-14	3.669939E-16
4.880000E+03	1.524155E-14	3.646989E-16
4.890000E+03	1.514920E-14	3.620505E-16
4.900000E+03	1.504800E-14	3.592149E-16
4.910000E+03	1.495279E-14	3.565464E-16
4.920000E+03	1.487640E-14	3.543494E-16
4.930000E+03	1.483229E-14	3.529424E-16
4.940000E+03	1.482503E-14	3.524320E-16
4.950000E+03	1.486117E-14	3.529704E-16
4.960000E+03	1.493991E-14	3.545366E-16
4.970000E+03	1.505489E-14	3.569770E-16
4.980000E+03	1.519458E-14	3.600168E-16
4.990000E+03	1.534328E-14	3.632838E-16
5.000000E+03	1.548310E-14	3.663545E-16
5.010000E+03	1.559697E-14	3.688265E-16
5.020000E+03	1.567014E-14	3.703525E-16
5.030000E+03	1.570124E-14	3.709021E-16
5.040000E+03	1.569057E-14	3.704843E-16
5.050000E+03	1.564842E-14	3.693432E-16
5.060000E+03	1.558930E-14	3.678223E-16
5.070000E+03	1.553779E-14	3.665016E-16
5.080000E+03	1.551068E-14	3.657764E-16
5.090000E+03	1.553149E-14	3.662016E-16
5.100000E+03	1.561369E-14	3.680941E-16
5.110000E+03	1.576549E-14	3.716477E-16
5.120000E+03	1.599340E-14	3.770159E-16
5.130000E+03	1.629749E-14	3.842016E-16
5.140000E+03	1.666449E-14	3.928940E-16
5.150000E+03	1.708123E-14	4.027846E-16
5.160000E+03	1.752982E-14	4.134541E-16
5.170000E+03	1.798260E-14	4.242524E-16
5.180000E+03	1.841862E-14	4.346878E-16
5.190000E+03	1.881669E-14	4.442616E-16
5.200000E+03	1.915983E-14	4.525739E-16
5.210000E+03	1.943662E-14	4.593550E-16
5.220000E+03	1.964117E-14	4.644649E-16
5.230000E+03	1.977237E-14	4.678753E-16
5.240000E+03	1.983266E-14	4.696419E-16
5.250000E+03	1.982670E-14	4.698723E-16
5.260000E+03	1.976014E-14	4.686969E-16
5.270000E+03	1.963865E-14	4.662473E-16
5.280000E+03	1.946487E-14	4.625819E-16
5.290000E+03	1.924870E-14	4.579326E-16
5.300000E+03	1.899153E-14	4.523287E-16
5.310000E+03	1.869443E-14	4.457911E-16
5.320000E+03	1.836577E-14	4.385155E-16
5.330000E+03	1.800637E-14	4.305171E-16
5.340000E+03	1.761768E-14	4.218264E-16
5.350000E+03	1.720933E-14	4.126695E-16
5.360000E+03	1.678262E-14	4.030737E-16
5.370000E+03	1.634707E-14	3.932639E-16
5.380000E+03	1.591294E-14	3.834841E-16
5.390000E+03	1.548469E-14	3.738405E-16
5.400000E+03	1.507369E-14	3.646061E-16
5.410000E+03	1.469099E-14	3.560495E-16
5.420000E+03	1.434145E-14	3.482906E-16
5.430000E+03	1.403550E-14	3.415865E-16
5.440000E+03	1.378101E-14	3.361330E-16
5.450000E+03	1.358505E-14	3.321093E-16
5.460000E+03	1.345357E-14	3.296686E-16
5.470000E+03	1.339072E-14	3.289229E-16
5.480000E+03	1.339829E-14	3.299272E-16
5.490000E+03	1.347454E-14	3.326506E-16
5.500000E+03	1.361230E-14	3.369282E-16
5.510000E+03	1.379773E-14	3.424284E-16
5.520000E+03	1.401085E-14	3.486633E-16
5.530000E+03	1.422479E-14	3.549682E-16
5.540000E+03	1.441490E-14	3.607264E-16
5.550000E+03	1.455000E-14	3.651506E-16
5.560000E+03	1.460142E-14	3.675065E-16
5.570000E+03	1.455217E-14	3.673470E-16
5.580000E+03	1.438778E-14	3.642816E-16
5.590000E+03	1.410343E-14	3.581611E-16
5.600000E+03	1.370951E-14	3.492202E-16
5.610000E+03	1.321633E-14	3.376955E-16
5.620000E+03	1.264642E-14	3.241387E-16
5.630000E+03	1.201753E-14	3.089856E-16
5.640000E+03	1.135267E-14	2.928129E-16
5.650000E+03	1.067301E-14	2.761580E-16
5.660000E+03	9.993186E-15	2.593943E-16
5.670000E+03	9.329970E-15	2.429570E-16
5.680000E+03	8.696590E-15	2.271939E-16
5.690000E+03	8.105439E-15	2.124358E-16
5.700000E+03	7.563759E-15	1.988824E-16
5.710000E+03	7.080390E-15	1.867783E-16
5.720000E+03	6.661241E-15	1.762939E-16
5.730000E+03	6.310485E-15	1.675557E-16
5.740000E+03	6.030709E-15	1.606497E-16
5.750000E+03	5.823207E-15	1.556284E-16
5.760000E+03	5.688252E-15	1.525174E-16
5.770000E+03	5.625307E-15	1.513210E-16
5.780000E+03	5.633126E-15	1.520241E-16
5.790000E+03	5.709677E-15	1.545901E-16
5.800000E+03	5.851030E-15	1.589300E-16
5.810000E+03	6.053977E-15	1.649731E-16
5.820000E+03	6.310949E-15	1.725286E-16
5.830000E+03	6.612621E-15	1.813545E-16
5.840000E+03	6.945926E-15	1.911028E-16
5.850000E+03	7.297800E-15	2.014207E-16
5.860000E+03	7.650310E-15	2.118162E-16
5.870000E+03	7.984104E-15	2.217515E-16
5.880000E+03	8.283064E-15	2.307721E-16
5.890000E+03	8.528410E-15	2.383435E-16
5.900000E+03	8.708806E-15	2.441335E-16
5.910000E+03	8.812552E-15	2.477959E-16
5.920000E+03	8.837427E-15	2.492481E-16
5.930000E+03	8.781595E-15	2.484175E-16
5.940000E+03	8.651499E-15	2.454663E-16
5.950000E+03	8.457564E-15	2.406723E-16
5.960000E+03	8.209821E-15	2.343057E-16
5.970000E+03	7.923630E-15	2.267929E-16
5.980000E+03	7.614961E-15	2.185830E-16
5.990000E+03	7.296400E-15	2.100332E-16
6.000000E+03	6.982524E-15	2.015622E-16
6.010000E+03	6.685155E-15	1.935137E-16
6.020000E+03	6.414127E-15	1.861777E-16
6.030000E+03	6.177261E-15	1.797884E-16
6.040000E+03	5.981336E-15	1.745522E-16
6.050000E+03	5.829218E-15	1.705626E-16
6.060000E+03	5.725131E-15	1.679540E-16
6.070000E+03	5.671827E-15	1.668185E-16
6.080000E+03	5.671836E-15	1.672422E-16
6.090000E+03	5.727874E-15	1.693171E-16
6.100000E+03	5.842425E-15	1.731290E-16
6.110000E+03	6.021122E-15	1.788576E-16
6.120000E+03	6.268395E-15	1.866480E-16
6.130000E+03	6.590718E-15	1.967071E-16
6.140000E+03	6.995912E-15	2.092837E-16
6.150000E+03	7.493083E-15	2.246667E-16
6.160000E+03	8.091255E-15	2.431442E-16
6.170000E+03	8.802989E-15	2.651131E-16
6.180000E+03	9.637153E-15	2.908608E-16
6.190000E+03	1.060146E-14	3.206420E-16
6.200000E+03	1.169788E-14	3.545375E-16
6.210000E+03	1.292639E-14	3.925683E-16
6.220000E+03	1.427364E-14	4.343477E-16
6.230000E+03	1.571448E-14	4.791261E-16
6.240000E+03	1.721757E-14	5.259576E-16
6.250000E+03	1.873142E-14	5.732715E-16
6.260000E+03	2.020428E-14	6.194774E-16
6.270000E+03	2.156939E-14	6.625127E-16
6.280000E+03	2.277176E-14	7.006623E-16
6.290000E+03	2.375266E-14	7.320849E-16
6.300000E+03	2.447914E-14	7.557252E-16
6.310000E+03	2.492371E-14	7.706907E-16
6.320000E+03	2.508812E-14	7.769922E-16
6.330000E+03	2.499279E-14	7.752207E-16
6.340000E+03	2.466282E-14	7.661197E-16
6.350000E+03	2.414629E-14	7.511532E-16
6.360000E+03	2.348225E-14	7.315144E-16
6.370000E+03	2.271859E-14	7.086809E-16
6.380000E+03	2.189536E-14	6.838930E-16
6.390000E+03	2.104867E-14	6.582768E-16
6.400000E+03	2.019878E-14	6.324661E-16
6.410000E+03	1.936746E-14	6.071473E-16
6.420000E+03	1.856753E-14	5.827269E-16
6.430000E+03	1.780691E-14	5.594611E-16
6.440000E+03	1.708997E-14	5.374939E-16
6.450000E+03	1.642076E-14	5.169601E-16
6.460000E+03	1.579513E-14	4.977355E-16
6.470000E+03	1.521477E-14	4.798807E-16
6.480000E+03	1.467878E-14	4.633730E-16
6.490000E+03	1.418625E-14	4.481894E-16
6.500000E+03	1.373643E-14	4.343114E-16
6.510000E+03	1.332879E-14	4.217273E-16
6.520000E+03	1.296275E-14	4.104234E-16
6.530000E+03	1.263671E-14	4.003531E-16
6.540000E+03	1.234617E-14	3.913772E-16
6.550000E+03	1.208363E-14	3.832614E-16
6.560000E+03	1.184064E-14	3.757396E-16
6.570000E+03	1.160752E-14	3.685068E-16
6.580000E+03	1.137997E-14	3.614274E-16
6.590000E+03	1.114968E-14	3.542388E-16
6.600000E+03	1.091071E-14	3.467533E-16
6.610000E+03	1.065798E-14	3.388099E-16
6.620000E+03	1.038735E-14	3.302774E-16
6.630000E+03	1.009428E-14	3.210129E-16
6.640000E+03	9.779516E-15	3.110404E-16
6.650000E+03	9.440845E-15	3.002909E-16
6.660000E+03	9.078758E-15	2.887815E-16
6.670000E+03	8.693884E-15	2.765335E-16
6.680000E+03	8.291678E-15	2.637223E-16
6.690000E+03	7.875151E-15	2.504455E-16
6.700000E+03	7.448473E-15	2.368377E-16
6.710000E+03	7.019552E-15	2.231524E-16
6.720000E+03	6.592653E-15	2.095272E-16
6.730000E+03	6.175821E-15	1.962195E-16
6.740000E+03	5.774030E-15	1.833889E-16
6.750000E+03	5.391888E-15	1.711830E-16
6.760000E+03	5.035432E-15	1.597943E-16
6.770000E+03	4.706882E-15	1.492939E-16
6.780000E+03	4.410225E-15	1.398083E-16
6.790000E+03	4.146003E-15	1.313543E-16
6.800000E+03	3.916336E-15	1.239984E-16
6.810000E+03	3.720470E-15	1.177158E-16
6.820000E+03	3.559295E-15	1.125332E-16
6.830000E+03	3.431404E-15	1.084045E-16
6.840000E+03	3.336734E-15	1.053258E-16
6.850000E+03	3.275176E-15	1.032916E-16
6.860000E+03	3.245392E-15	1.022571E-16
6.870000E+03	3.247975E-15	1.022383E-16
6.880000E+03	3.281920E-15	1.032008E-16
6.890000E+03	3.347643E-15	1.051543E-16
6.900000E+03	3.445615E-15	1.081102E-16
6.910000E+03	3.574833E-15	1.120332E-16
6.920000E+03	3.735398E-15	1.169224E-16
6.930000E+03	3.926534E-15	1.227493E-16
6.940000E+03	4.147443E-15	1.294846E-16
6.950000E+03	4.394974E-15	1.370254E-16
6.960000E+03	4.666795E-15	1.452946E-16
6.970000E+03	4.959252E-15	1.541743E-16
6.980000E+03	5.267986E-15	1.635252E-16
6.990000E+03	5.588104E-15	1.731919E-16
7.000000E+03	5.915224E-15	1.830361E-16
7.010000E+03	6.242639E-15	1.928481E-16
7.020000E+03	6.566289E-15	2.025012E-16
7.030000E+03	6.881986E-15	2.118660E-16
7.040000E+03	7.186423E-15	2.208409E-16
7.050000E+03	7.477351E-15	2.293575E-16
7.060000E+03	7.753667E-15	2.373833E-16
7.070000E+03	8.015448E-15	2.449221E-16
7.080000E+03	8.263904E-15	2.520125E-16
7.090000E+03	8.501295E-15	2.587248E-16
7.100000E+03	8.730822E-15	2.651575E-16
7.110000E+03	8.956501E-15	2.714331E-16
7.120000E+03	9.183031E-15	2.776935E-16
7.130000E+03	9.415650E-15	2.840960E-16
7.140000E+03	9.659953E-15	2.908070E-16
7.150000E+03	9.921640E-15	2.979947E-16
7.160000E+03	1.020629E-14	3.058216E-16
7.170000E+03	1.051749E-14	3.143896E-16
7.180000E+03	1.086205E-14	3.238950E-16
7.190000E+03	1.124108E-14	3.343622E-16
7.200000E+03	1.165485E-14	3.457906E-16
7.210000E+03	1.210085E-14	3.580969E-16
7.220000E+03	1.257143E-14	3.710470E-16
7.230000E+03	1.306018E-14	3.844447E-16
7.240000E+03	1.355172E-14	3.978335E-16
7.250000E+03	1.402863E-14	4.107011E-16
7.260000E+03	1.446855E-14	4.223971E-16
7.270000E+03	1.485330E-14	4.324008E-16
7.280000E+03	1.515894E-14	4.400301E-16
7.290000E+03	1.536335E-14	4.446641E-16
7.300000E+03	1.545469E-14	4.459864E-16
7.310000E+03	1.542049E-14	4.436678E-16
7.320000E+03	1.525500E-14	4.375763E-16
7.330000E+03	1.496573E-14	4.279618E-16
7.340000E+03	1.455837E-14	4.150206E-16
7.350000E+03	1.405203E-14	3.993282E-16
7.360000E+03	1.346152E-14	3.813325E-16
7.370000E+03	1.281107E-14	3.617424E-16
7.380000E+03	1.211770E-14	3.410544E-16
7.390000E+03	1.140407E-14	3.199183E-16
7.400000E+03	1.068402E-14	2.987282E-16
7.410000E+03	9.974849E-15	2.779693E-16
7.420000E+03	9.285060E-15	2.578766E-16
7.430000E+03	8.624714E-15	2.387242E-16
7.440000E+03	8.001055E-15	2.207050E-16
7.450000E+03	7.415932E-15	2.038604E-16
7.460000E+03	6.873988E-15	1.883076E-16
7.470000E+03	6.374567E-15	1.740171E-16
7.480000E+03	5.919090E-15	1.610162E-16
7.490000E+03	5.507340E-15	1.492868E-16
7.500000E+03	5.139383E-15	1.388187E-16
7.510000E+03	4.812860E-15	1.295361E-16
7.520000E+03	4.527489E-15	1.214198E-16
7.530000E+03	4.282194E-15	1.144294E-16
7.540000E+03	4.076503E-15	1.085411E-16
7.550000E+03	3.908352E-15	1.036887E-16
7.560000E+03	3.777564E-15	9.985696E-17
7.570000E+03	3.683569E-15	9.702030E-17
7.580000E+03	3.626013E-15	9.515900E-17
7.590000E+03	3.604760E-15	9.425925E-17
7.600000E+03	3.619866E-15	9.431241E-17
7.610000E+03	3.671523E-15	9.531340E-17
7.620000E+03	3.759966E-15	9.725833E-17
7.630000E+03	3.885318E-15	1.001405E-16
7.640000E+03	4.047342E-15	1.039440E-16
7.650000E+03	4.245087E-15	1.086351E-16
7.660000E+03	4.476427E-15	1.141506E-16
7.670000E+03	4.737564E-15	1.203858E-16
7.680000E+03	5.022581E-15	1.271839E-16
7.690000E+03	5.323142E-15	1.343295E-16
7.700000E+03	5.628424E-15	1.415478E-16
7.710000E+03	5.925418E-15	1.485131E-16
7.720000E+03	6.199683E-15	1.548682E-16
7.730000E+03	6.436509E-15	1.602544E-16
7.740000E+03	6.621457E-15	1.643240E-16
7.750000E+03	6.745557E-15	1.668692E-16
7.760000E+03	6.801179E-15	1.677175E-16
