#wls	flux	fluxerr
1.600000E+03	8.688401E-16	5.643649E-17
1.640000E+03	8.700108E-16	5.630473E-17
1.680000E+03	8.715785E-16	5.619228E-17
1.720000E+03	8.737516E-16	5.611208E-17
1.760000E+03	8.765921E-16	5.606748E-17
1.800000E+03	8.798625E-16	5.604265E-17
1.840000E+03	8.839469E-16	5.606140E-17
1.880000E+03	8.889329E-16	5.612840E-17
1.920000E+03	8.946080E-16	5.622930E-17
1.960000E+03	9.015480E-16	5.639927E-17
2.000000E+03	9.094083E-16	5.661543E-17
2.040000E+03	9.188004E-16	5.691454E-17
2.080000E+03	9.294084E-16	5.727535E-17
2.120000E+03	9.417296E-16	5.772679E-17
2.160000E+03	9.559730E-16	5.827950E-17
2.200000E+03	9.722110E-16	5.893545E-17
2.240000E+03	9.908799E-16	5.971834E-17
2.280000E+03	1.012124E-15	6.063367E-17
2.320000E+03	1.036476E-15	6.170964E-17
2.360000E+03	1.064181E-15	6.295653E-17
2.400000E+03	1.095719E-15	6.439801E-17
2.440000E+03	1.132038E-15	6.608381E-17
2.480000E+03	1.173440E-15	6.802475E-17
2.520000E+03	1.220709E-15	7.025851E-17
2.560000E+03	1.274983E-15	7.284134E-17
2.600000E+03	1.337387E-15	7.582650E-17
2.640000E+03	1.409034E-15	7.926409E-17
2.680000E+03	1.491486E-15	8.322686E-17
2.720000E+03	1.587138E-15	8.783027E-17
2.760000E+03	1.697772E-15	9.315087E-17
2.800000E+03	1.826080E-15	9.931058E-17
2.840000E+03	1.975593E-15	1.064704E-16
2.880000E+03	2.150214E-15	1.148032E-16
2.920000E+03	2.354197E-15	1.244911E-16
2.960000E+03	2.593325E-15	1.357860E-16
3.000000E+03	2.873554E-15	1.489351E-16
3.010000E+03	2.950752E-15	1.525407E-16
3.020000E+03	3.031577E-15	1.563109E-16
3.030000E+03	3.115204E-15	1.602016E-16
3.040000E+03	3.202754E-15	1.642690E-16
3.050000E+03	3.293885E-15	1.684938E-16
3.060000E+03	3.388206E-15	1.728546E-16
3.070000E+03	3.486938E-15	1.774120E-16
3.080000E+03	3.589149E-15	1.821167E-16
3.090000E+03	3.696131E-15	1.870325E-16
3.100000E+03	3.807508E-15	1.921382E-16
3.110000E+03	3.923467E-15	1.974412E-16
3.120000E+03	4.043557E-15	2.029168E-16
3.130000E+03	4.169245E-15	2.086365E-16
3.140000E+03	4.300119E-15	2.145772E-16
3.150000E+03	4.436397E-15	2.207473E-16
3.160000E+03	4.578309E-15	2.271557E-16
3.170000E+03	4.726089E-15	2.338113E-16
3.180000E+03	4.879979E-15	2.407234E-16
3.190000E+03	5.040228E-15	2.479013E-16
3.200000E+03	5.207084E-15	2.553542E-16
3.210000E+03	5.380799E-15	2.630913E-16
3.220000E+03	5.561620E-15	2.711214E-16
3.230000E+03	5.749783E-15	2.794527E-16
3.240000E+03	5.946440E-15	2.881374E-16
3.250000E+03	6.149961E-15	2.970928E-16
3.260000E+03	6.361414E-15	3.063669E-16
3.270000E+03	6.580922E-15	3.159621E-16
3.280000E+03	6.809617E-15	3.259284E-16
3.290000E+03	7.045416E-15	3.361622E-16
3.300000E+03	7.289264E-15	3.467050E-16
3.310000E+03	7.542155E-15	3.575998E-16
3.320000E+03	7.801501E-15	3.687200E-16
3.330000E+03	8.069265E-15	3.801549E-16
3.340000E+03	8.342440E-15	3.917591E-16
3.350000E+03	8.622860E-15	4.036157E-16
3.360000E+03	8.907039E-15	4.155584E-16
3.370000E+03	9.196634E-15	4.276623E-16
3.380000E+03	9.487574E-15	4.397360E-16
3.390000E+03	9.781088E-15	4.518352E-16
3.400000E+03	1.007196E-14	4.637185E-16
3.410000E+03	1.036019E-14	4.753865E-16
3.420000E+03	1.064040E-14	4.865944E-16
3.430000E+03	1.090630E-14	4.970593E-16
3.440000E+03	1.115594E-14	5.066989E-16
3.450000E+03	1.138216E-14	5.151962E-16
3.460000E+03	1.157971E-14	5.223258E-16
3.470000E+03	1.174420E-14	5.279036E-16
3.480000E+03	1.187087E-14	5.317316E-16
3.490000E+03	1.196245E-14	5.339499E-16
3.500000E+03	1.201901E-14	5.345783E-16
3.510000E+03	1.204504E-14	5.338319E-16
3.520000E+03	1.204739E-14	5.320284E-16
3.530000E+03	1.203503E-14	5.295733E-16
3.540000E+03	1.201784E-14	5.269072E-16
3.550000E+03	1.200520E-14	5.244427E-16
3.560000E+03	1.200494E-14	5.225182E-16
3.570000E+03	1.202262E-14	5.213691E-16
3.580000E+03	1.206084E-14	5.210998E-16
3.590000E+03	1.211875E-14	5.216629E-16
3.600000E+03	1.219249E-14	5.228850E-16
3.610000E+03	1.227617E-14	5.245057E-16
3.620000E+03	1.236223E-14	5.261994E-16
3.630000E+03	1.244186E-14	5.275911E-16
3.640000E+03	1.250526E-14	5.282705E-16
3.650000E+03	1.254199E-14	5.278057E-16
3.660000E+03	1.254318E-14	5.258381E-16
3.670000E+03	1.249454E-14	5.217889E-16
3.680000E+03	1.238819E-14	5.153540E-16
3.690000E+03	1.221574E-14	5.062142E-16
3.700000E+03	1.197093E-14	4.941425E-16
3.710000E+03	1.165029E-14	4.790322E-16
3.720000E+03	1.125562E-14	4.609937E-16
3.730000E+03	1.078812E-14	4.401115E-16
3.740000E+03	1.025910E-14	4.168807E-16
3.750000E+03	9.683521E-15	3.919364E-16
3.760000E+03	9.083306E-15	3.661851E-16
3.770000E+03	8.480579E-15	3.405269E-16
3.775470E+03	6.937010E-15	2.779389E-16
3.780580E+03	6.964791E-15	2.784821E-16
3.785700E+03	7.024897E-15	2.803099E-16
3.790830E+03	7.104935E-15	2.829208E-16
3.795970E+03	7.168407E-15	2.848595E-16
3.801110E+03	7.207048E-15	2.858036E-16
3.806260E+03	7.190556E-15	2.845587E-16
3.811420E+03	7.117554E-15	2.810844E-16
3.816580E+03	6.997682E-15	2.757754E-16
3.821750E+03	6.829430E-15	2.685829E-16
3.826930E+03	6.614797E-15	2.595973E-16
3.832110E+03	6.382298E-15	2.499480E-16
3.837300E+03	6.140751E-15	2.399828E-16
3.842500E+03	5.906066E-15	2.303247E-16
3.847710E+03	5.708678E-15	2.221563E-16
3.852920E+03	5.555401E-15	2.157340E-16
3.858140E+03	5.442581E-15	2.109045E-16
3.863370E+03	5.327329E-15	2.059992E-16
3.868600E+03	5.217011E-15	2.013039E-16
3.873840E+03	5.088159E-15	1.959129E-16
3.879090E+03	4.960876E-15	1.906033E-16
3.884340E+03	4.849819E-15	1.859374E-16
3.889610E+03	4.738335E-15	1.812726E-16
3.894870E+03	4.641426E-15	1.771839E-16
3.900150E+03	4.530744E-15	1.725857E-16
3.905430E+03	4.403066E-15	1.673604E-16
3.910730E+03	4.291135E-15	1.627527E-16
3.916020E+03	4.209321E-15	1.593044E-16
3.921330E+03	4.107557E-15	1.551156E-16
3.926640E+03	4.186169E-15	1.577411E-16
3.931960E+03	4.483836E-15	1.685901E-16
3.937290E+03	4.898253E-15	1.837707E-16
3.942620E+03	5.472292E-15	2.048599E-16
3.947960E+03	6.251668E-15	2.335257E-16
3.953310E+03	7.192083E-15	2.680667E-16
3.958670E+03	8.261071E-15	3.072363E-16
3.964030E+03	9.483998E-15	3.519460E-16
3.969400E+03	1.068982E-14	3.958240E-16
3.974780E+03	1.175639E-14	4.343614E-16
3.980160E+03	1.266729E-14	4.669900E-16
3.985550E+03	1.332868E-14	4.902933E-16
3.990950E+03	1.370366E-14	5.029788E-16
3.996360E+03	1.384114E-14	5.069072E-16
4.001770E+03	1.378036E-14	5.035718E-16
4.007190E+03	1.359480E-14	4.956980E-16
4.012620E+03	1.338662E-14	4.870322E-16
4.018060E+03	1.310585E-14	4.757668E-16
4.023500E+03	1.296133E-14	4.694852E-16
4.028950E+03	1.297824E-14	4.690631E-16
4.034410E+03	1.310238E-14	4.725075E-16
4.039880E+03	1.331998E-14	4.792967E-16
4.045350E+03	1.365621E-14	4.903150E-16
4.050830E+03	1.392577E-14	4.988942E-16
4.056320E+03	1.410754E-14	5.042954E-16
4.061810E+03	1.431087E-14	5.104415E-16
4.067320E+03	1.450499E-14	5.162289E-16
4.072830E+03	1.465036E-14	5.202598E-16
4.078340E+03	1.481589E-14	5.249878E-16
4.083870E+03	1.502266E-14	5.311495E-16
4.089400E+03	1.519163E-14	5.359510E-16
4.094940E+03	1.532482E-14	5.394711E-16
4.100490E+03	1.540463E-14	5.410992E-16
4.106040E+03	1.549709E-14	5.431649E-16
4.111610E+03	1.566200E-14	5.477524E-16
4.117180E+03	1.582588E-14	5.522854E-16
4.122750E+03	1.591128E-14	5.540676E-16
4.128340E+03	1.583479E-14	5.502145E-16
4.133930E+03	1.564827E-14	5.425650E-16
4.139530E+03	1.543395E-14	5.339864E-16
4.145140E+03	1.530708E-14	5.284638E-16
4.150750E+03	1.520523E-14	5.238292E-16
4.156380E+03	1.512289E-14	5.198837E-16
4.162010E+03	1.518452E-14	5.208967E-16
4.167650E+03	1.546219E-14	5.293019E-16
4.173290E+03	1.587306E-14	5.422248E-16
4.178950E+03	1.628853E-14	5.552501E-16
4.184610E+03	1.667218E-14	5.671423E-16
4.190280E+03	1.696672E-14	5.759621E-16
4.195950E+03	1.718244E-14	5.820799E-16
4.201640E+03	1.700639E-14	5.749286E-16
4.207330E+03	1.669647E-14	5.632953E-16
4.213030E+03	1.619045E-14	5.451098E-16
4.218740E+03	1.545989E-14	5.194571E-16
4.224450E+03	1.464163E-14	4.909724E-16
4.230180E+03	1.390554E-14	4.653536E-16
4.235910E+03	1.354100E-14	4.522517E-16
4.241640E+03	1.366762E-14	4.555787E-16
4.247390E+03	1.422125E-14	4.730999E-16
4.253150E+03	1.500895E-14	4.983283E-16
4.258910E+03	1.584508E-14	5.250704E-16
4.264680E+03	1.653731E-14	5.469548E-16
4.270450E+03	1.706067E-14	5.631887E-16
4.276240E+03	1.733296E-14	5.710932E-16
4.282030E+03	1.730305E-14	5.690379E-16
4.287830E+03	1.698304E-14	5.574748E-16
4.293640E+03	1.655707E-14	5.424901E-16
4.299460E+03	1.628818E-14	5.327047E-16
4.305280E+03	1.616597E-14	5.277526E-16
4.311120E+03	1.660697E-14	5.411780E-16
4.316960E+03	1.753006E-14	5.702478E-16
4.322800E+03	1.864038E-14	6.053062E-16
4.328660E+03	1.977155E-14	6.409265E-16
4.334520E+03	2.077126E-14	6.721832E-16
4.340400E+03	2.156147E-14	6.965755E-16
4.346280E+03	2.197724E-14	7.088243E-16
4.352160E+03	2.197980E-14	7.077427E-16
4.358060E+03	2.156923E-14	6.933956E-16
4.363960E+03	2.088275E-14	6.702550E-16
4.369880E+03	2.007706E-14	6.433799E-16
4.375800E+03	1.924160E-14	6.156518E-16
4.381720E+03	1.861081E-14	5.945630E-16
4.387660E+03	1.821904E-14	5.811744E-16
4.393600E+03	1.808170E-14	5.759451E-16
4.399560E+03	1.814113E-14	5.770022E-16
4.405520E+03	1.833429E-14	5.823194E-16
4.411480E+03	1.858477E-14	5.894562E-16
4.417460E+03	1.880290E-14	5.955631E-16
4.423450E+03	1.886479E-14	5.967272E-16
4.429440E+03	1.874342E-14	5.921172E-16
4.435440E+03	1.855359E-14	5.853756E-16
4.441450E+03	1.842425E-14	5.805744E-16
4.447460E+03	1.841041E-14	5.794384E-16
4.453490E+03	1.850499E-14	5.817299E-16
4.459520E+03	1.863393E-14	5.851143E-16
4.465560E+03	1.870436E-14	5.866736E-16
4.471610E+03	1.878034E-14	5.884213E-16
4.477670E+03	1.889747E-14	5.914716E-16
4.483740E+03	1.901356E-14	5.945015E-16
4.489810E+03	1.918133E-14	5.991588E-16
4.495890E+03	1.929528E-14	6.021463E-16
4.501980E+03	1.932407E-14	6.024917E-16
4.508080E+03	1.907887E-14	5.943201E-16
4.514190E+03	1.864564E-14	5.803289E-16
4.520310E+03	1.824425E-14	5.673693E-16
4.526430E+03	1.798125E-14	5.587492E-16
4.532560E+03	1.787021E-14	5.548779E-16
4.538700E+03	1.799396E-14	5.583146E-16
4.544850E+03	1.825563E-14	5.660402E-16
4.551010E+03	1.866434E-14	5.783285E-16
4.557170E+03	1.933651E-14	5.987778E-16
4.563350E+03	2.021331E-14	6.255521E-16
4.569530E+03	2.131014E-14	6.591205E-16
4.575720E+03	2.245391E-14	6.941223E-16
4.581920E+03	2.348599E-14	7.256576E-16
4.588130E+03	2.422462E-14	7.481213E-16
4.594340E+03	2.469694E-14	7.623660E-16
4.600570E+03	2.495098E-14	7.698855E-16
4.606800E+03	2.511527E-14	7.746541E-16
4.613040E+03	2.524083E-14	7.782477E-16
4.619290E+03	2.518406E-14	7.762419E-16
4.625550E+03	2.493659E-14	7.683833E-16
4.631810E+03	2.456273E-14	7.566587E-16
4.638090E+03	2.420846E-14	7.455649E-16
4.644370E+03	2.399648E-14	7.388787E-16
4.650660E+03	2.390346E-14	7.358785E-16
4.656960E+03	2.380652E-14	7.327794E-16
4.663270E+03	2.362937E-14	7.272328E-16
4.669590E+03	2.334406E-14	7.183791E-16
4.675920E+03	2.281917E-14	7.021746E-16
4.682250E+03	2.217270E-14	6.822503E-16
4.688590E+03	2.147524E-14	6.607768E-16
4.694940E+03	2.076433E-14	6.389071E-16
4.701300E+03	2.002901E-14	6.163023E-16
4.707670E+03	1.929296E-14	5.936891E-16
4.714050E+03	1.850722E-14	5.695590E-16
4.720440E+03	1.760360E-14	5.418105E-16
4.726830E+03	1.667324E-14	5.132454E-16
4.733240E+03	1.577184E-14	4.855765E-16
4.739650E+03	1.500327E-14	4.620003E-16
4.746070E+03	1.442277E-14	4.442185E-16
4.752500E+03	1.409531E-14	4.342348E-16
4.758940E+03	1.399353E-14	4.312112E-16
4.765380E+03	1.407959E-14	4.339858E-16
4.771840E+03	1.434654E-14	4.423498E-16
4.778300E+03	1.474582E-14	4.548104E-16
4.784780E+03	1.524667E-14	4.704241E-16
4.791260E+03	1.577557E-14	4.869252E-16
4.797750E+03	1.620296E-14	5.003154E-16
4.804250E+03	1.652524E-14	5.104807E-16
4.810760E+03	1.679140E-14	5.189312E-16
4.817280E+03	1.705699E-14	5.273826E-16
4.823800E+03	1.738086E-14	5.376556E-16
4.830340E+03	1.771969E-14	5.484134E-16
4.836880E+03	1.796880E-14	5.564145E-16
4.843430E+03	1.817066E-14	5.629715E-16
4.849990E+03	1.823485E-14	5.652792E-16
4.856560E+03	1.815452E-14	5.631178E-16
4.863140E+03	1.802847E-14	5.595453E-16
4.869730E+03	1.790319E-14	5.560033E-16
4.876330E+03	1.779818E-14	5.530966E-16
4.882940E+03	1.772290E-14	5.511210E-16
4.889550E+03	1.772276E-14	5.514902E-16
4.896170E+03	1.780493E-14	5.544325E-16
4.902810E+03	1.795728E-14	5.595763E-16
4.909450E+03	1.809163E-14	5.641752E-16
4.916100E+03	1.809433E-14	5.646816E-16
4.922760E+03	1.789974E-14	5.590366E-16
4.929430E+03	1.745479E-14	5.455665E-16
4.936110E+03	1.673283E-14	5.234185E-16
4.942790E+03	1.580685E-14	4.948554E-16
4.949490E+03	1.468310E-14	4.600569E-16
4.956200E+03	1.353066E-14	4.243073E-16
4.962910E+03	1.266590E-14	3.975313E-16
4.969630E+03	1.219682E-14	3.831439E-16
4.976370E+03	1.218057E-14	3.829750E-16
4.983110E+03	1.273950E-14	4.009114E-16
4.989860E+03	1.386313E-14	4.366736E-16
4.996620E+03	1.546866E-14	4.877015E-16
5.003390E+03	1.734160E-14	5.472711E-16
5.010170E+03	1.924794E-14	6.080169E-16
5.016950E+03	2.089011E-14	6.605341E-16
5.023750E+03	2.208245E-14	6.989263E-16
5.030550E+03	2.266501E-14	7.180831E-16
5.037370E+03	2.265872E-14	7.186133E-16
5.044190E+03	2.219090E-14	7.044998E-16
5.051030E+03	2.145790E-14	6.819382E-16
5.057870E+03	2.063055E-14	6.563347E-16
5.064720E+03	1.980796E-14	6.308359E-16
5.071580E+03	1.894690E-14	6.040628E-16
5.078450E+03	1.816313E-14	5.797050E-16
5.085330E+03	1.750793E-14	5.594081E-16
5.092220E+03	1.683235E-14	5.384197E-16
5.099120E+03	1.596578E-14	5.112740E-16
5.106030E+03	1.500826E-14	4.811564E-16
5.112950E+03	1.403027E-14	4.503175E-16
5.119870E+03	1.318264E-14	4.236001E-16
5.126810E+03	1.278610E-14	4.113373E-16
5.133750E+03	1.289893E-14	4.154548E-16
5.140710E+03	1.354354E-14	4.367347E-16
5.147670E+03	1.470775E-14	4.748439E-16
5.154650E+03	1.625859E-14	5.255471E-16
5.161630E+03	1.802708E-14	5.834210E-16
5.168620E+03	1.976978E-14	6.406053E-16
5.175620E+03	2.129666E-14	6.909337E-16
5.182640E+03	2.247580E-14	7.300983E-16
5.189660E+03	2.318824E-14	7.541861E-16
5.196690E+03	2.344164E-14	7.633915E-16
5.203730E+03	2.334339E-14	7.611599E-16
5.210780E+03	2.303564E-14	7.520884E-16
5.217840E+03	2.260372E-14	7.389398E-16
5.224910E+03	2.204690E-14	7.216740E-16
5.231980E+03	2.162439E-14	7.087696E-16
5.239070E+03	2.139059E-14	7.020307E-16
5.246170E+03	2.130154E-14	7.000360E-16
5.253280E+03	2.139638E-14	7.040917E-16
5.260390E+03	2.150737E-14	7.086942E-16
5.267520E+03	2.152136E-14	7.101146E-16
5.274660E+03	2.139579E-14	7.069325E-16
5.281800E+03	2.120592E-14	7.016174E-16
5.288960E+03	2.095313E-14	6.942086E-16
5.296120E+03	2.065469E-14	6.852684E-16
5.303300E+03	2.034041E-14	6.757825E-16
5.310480E+03	2.012511E-14	6.695660E-16
5.317670E+03	2.004906E-14	6.679756E-16
5.324880E+03	2.008229E-14	6.700322E-16
5.332090E+03	2.014181E-14	6.729756E-16
5.339320E+03	2.015299E-14	6.743157E-16
5.346550E+03	2.008577E-14	6.730350E-16
5.353790E+03	1.984747E-14	6.660136E-16
5.361050E+03	1.950992E-14	6.556417E-16
5.368310E+03	1.908477E-14	6.422940E-16
5.375580E+03	1.859060E-14	6.265841E-16
5.382860E+03	1.807322E-14	6.100483E-16
5.390160E+03	1.754303E-14	5.930345E-16
5.397460E+03	1.707549E-14	5.780933E-16
5.404770E+03	1.671193E-14	5.666362E-16
5.412090E+03	1.649196E-14	5.600232E-16
5.419420E+03	1.630472E-14	5.545066E-16
5.426770E+03	1.610376E-14	5.485101E-16
5.434120E+03	1.584912E-14	5.406651E-16
5.441480E+03	1.561959E-14	5.336568E-16
5.448850E+03	1.537095E-14	5.259749E-16
5.456230E+03	1.506198E-14	5.162035E-16
5.463620E+03	1.467443E-14	5.037058E-16
5.471030E+03	1.423215E-14	4.892901E-16
5.478440E+03	1.379365E-14	4.749594E-16
5.485860E+03	1.336153E-14	4.608042E-16
5.493290E+03	1.284875E-14	4.438191E-16
5.500730E+03	1.248585E-14	4.319664E-16
5.508180E+03	1.242790E-14	4.306427E-16
5.515650E+03	1.252426E-14	4.346720E-16
5.523120E+03	1.286440E-14	4.471867E-16
5.530600E+03	1.358876E-14	4.731187E-16
5.538090E+03	1.474328E-14	5.141334E-16
5.545600E+03	1.609775E-14	5.622636E-16
5.553110E+03	1.748296E-14	6.116205E-16
5.560630E+03	1.866061E-14	6.538612E-16
5.568170E+03	1.963224E-14	6.890059E-16
5.575710E+03	2.031441E-14	7.140844E-16
5.583260E+03	2.050439E-14	7.219118E-16
5.590830E+03	2.009421E-14	7.085994E-16
5.598400E+03	1.912267E-14	6.754125E-16
5.605980E+03	1.776454E-14	6.284410E-16
5.613580E+03	1.627542E-14	5.766769E-16
5.621180E+03	1.485880E-14	5.273171E-16
5.628800E+03	1.346754E-14	4.787003E-16
5.636420E+03	1.243470E-14	4.426859E-16
5.644060E+03	1.180144E-14	4.208040E-16
5.651710E+03	1.147743E-14	4.098943E-16
5.659360E+03	1.129111E-14	4.038719E-16
5.667030E+03	1.121374E-14	4.017314E-16
5.674710E+03	1.122460E-14	4.027471E-16
5.682390E+03	1.116641E-14	4.012807E-16
5.690090E+03	1.095249E-14	3.942019E-16
5.697800E+03	1.046978E-14	3.774089E-16
5.705520E+03	9.910857E-15	3.578093E-16
5.713250E+03	9.335570E-15	3.375546E-16
5.720990E+03	8.729366E-15	3.161154E-16
5.728740E+03	8.074634E-15	2.928481E-16
5.736500E+03	7.370249E-15	2.677040E-16
5.744270E+03	6.623941E-15	2.409565E-16
5.752050E+03	5.894594E-15	2.147445E-16
5.759840E+03	5.221175E-15	1.904928E-16
5.767650E+03	4.544505E-15	1.660489E-16
5.775460E+03	3.937244E-15	1.440708E-16
5.783290E+03	3.444094E-15	1.262087E-16
5.791120E+03	3.218760E-15	1.181214E-16
5.798970E+03	3.167364E-15	1.164019E-16
5.806820E+03	3.328341E-15	1.224917E-16
5.814690E+03	3.687592E-15	1.359047E-16
5.822570E+03	4.234512E-15	1.562798E-16
5.830450E+03	4.897341E-15	1.809932E-16
5.838350E+03	5.663327E-15	2.095905E-16
5.846260E+03	6.552951E-15	2.428452E-16
5.854180E+03	7.492288E-15	2.780319E-16
5.862110E+03	8.551157E-15	3.177511E-16
5.870050E+03	9.600097E-15	3.572024E-16
5.878010E+03	1.041994E-14	3.882179E-16
5.885970E+03	1.100007E-14	4.103658E-16
5.893940E+03	1.136704E-14	4.246021E-16
5.901930E+03	1.155053E-14	4.320071E-16
5.909920E+03	1.153224E-14	4.318667E-16
5.917930E+03	1.137553E-14	4.265301E-16
5.925950E+03	1.112818E-14	4.177703E-16
5.933970E+03	1.082513E-14	4.068879E-16
5.942010E+03	1.055127E-14	3.970719E-16
5.950060E+03	1.033477E-14	3.893865E-16
5.958120E+03	1.023518E-14	3.860864E-16
5.966200E+03	1.019718E-14	3.850991E-16
5.974280E+03	1.012768E-14	3.829106E-16
5.982370E+03	9.968181E-15	3.773044E-16
5.990480E+03	9.668963E-15	3.663850E-16
5.998590E+03	9.191617E-15	3.486774E-16
6.006720E+03	8.674510E-15	3.294156E-16
6.014850E+03	8.113164E-15	3.084244E-16
6.023000E+03	7.462189E-15	2.839730E-16
6.031160E+03	6.807889E-15	2.593392E-16
6.039330E+03	6.191329E-15	2.360895E-16
6.047520E+03	5.683119E-15	2.169248E-16
6.055710E+03	5.257028E-15	2.008557E-16
6.063910E+03	4.955915E-15	1.895314E-16
6.072130E+03	4.763435E-15	1.823406E-16
6.080350E+03	4.685411E-15	1.795181E-16
6.088590E+03	4.688175E-15	1.797851E-16
6.096840E+03	4.753364E-15	1.824450E-16
6.105100E+03	4.920731E-15	1.890311E-16
6.113370E+03	5.184000E-15	1.993118E-16
6.121650E+03	5.532680E-15	2.128919E-16
6.129940E+03	5.952417E-15	2.292260E-16
6.138250E+03	6.386848E-15	2.461476E-16
6.146560E+03	6.814769E-15	2.628389E-16
6.154890E+03	7.277529E-15	2.808945E-16
6.163230E+03	7.501011E-15	2.897283E-16
6.171580E+03	7.409448E-15	2.863912E-16
6.179940E+03	7.278283E-15	2.815116E-16
6.188310E+03	7.179234E-15	2.778624E-16
6.196690E+03	7.213453E-15	2.793636E-16
6.205090E+03	7.494558E-15	2.904280E-16
6.213500E+03	8.547920E-15	3.314434E-16
6.221910E+03	1.052319E-14	4.082658E-16
6.230340E+03	1.321406E-14	5.129427E-16
6.238780E+03	1.630678E-14	6.333275E-16
6.247230E+03	1.953301E-14	7.590090E-16
6.255700E+03	2.293021E-14	8.914432E-16
6.264170E+03	2.620576E-14	1.019249E-15
6.272660E+03	2.885930E-14	1.122942E-15
6.281160E+03	3.082502E-14	1.199921E-15
6.289670E+03	3.212911E-14	1.251168E-15
6.298190E+03	3.272446E-14	1.274814E-15
6.306720E+03	3.251792E-14	1.267198E-15
6.315260E+03	3.194223E-14	1.245155E-15
6.323820E+03	3.048209E-14	1.188583E-15
6.332380E+03	2.841351E-14	1.108218E-15
6.340960E+03	2.592826E-14	1.011530E-15
6.349550E+03	2.311430E-14	9.019464E-16
6.358150E+03	2.027097E-14	7.911489E-16
6.366770E+03	1.806881E-14	7.053200E-16
6.375390E+03	1.671911E-14	6.527272E-16
6.384030E+03	1.614239E-14	6.302858E-16
6.392680E+03	1.613990E-14	6.302463E-16
6.401340E+03	1.651206E-14	6.448215E-16
6.410010E+03	1.730087E-14	6.756533E-16
6.418700E+03	1.814777E-14	7.087376E-16
6.427390E+03	1.861050E-14	7.268005E-16
6.436100E+03	1.876749E-14	7.329037E-16
6.444820E+03	1.872825E-14	7.313244E-16
6.453550E+03	1.847869E-14	7.215133E-16
6.462290E+03	1.793114E-14	7.000514E-16
6.471040E+03	1.784033E-14	6.964053E-16
