#wls	flux	fluxerr
1.600000E+03	7.095186E-16	3.626422E-17
1.640000E+03	7.111708E-16	3.622324E-17
1.680000E+03	7.132334E-16	3.619946E-17
1.720000E+03	7.158862E-16	3.620166E-17
1.760000E+03	7.190632E-16	3.622610E-17
1.800000E+03	7.228311E-16	3.627575E-17
1.840000E+03	7.273927E-16	3.636028E-17
1.880000E+03	7.325768E-16	3.647060E-17
1.920000E+03	7.387346E-16	3.662360E-17
1.960000E+03	7.459756E-16	3.682395E-17
2.000000E+03	7.541605E-16	3.706397E-17
2.040000E+03	7.636891E-16	3.736240E-17
2.080000E+03	7.745867E-16	3.771943E-17
2.120000E+03	7.871688E-16	3.814917E-17
2.160000E+03	8.015066E-16	3.865366E-17
2.200000E+03	8.178358E-16	3.924269E-17
2.240000E+03	8.364272E-16	3.992744E-17
2.280000E+03	8.577435E-16	4.072785E-17
2.320000E+03	8.821607E-16	4.165925E-17
2.360000E+03	9.098062E-16	4.272478E-17
2.400000E+03	9.414899E-16	4.395922E-17
2.440000E+03	9.776494E-16	4.537908E-17
2.480000E+03	1.019154E-15	4.702017E-17
2.520000E+03	1.066669E-15	4.890775E-17
2.560000E+03	1.121173E-15	5.108054E-17
2.600000E+03	1.184036E-15	5.359346E-17
2.640000E+03	1.256472E-15	5.649269E-17
2.680000E+03	1.340150E-15	5.984285E-17
2.720000E+03	1.437309E-15	6.373147E-17
2.760000E+03	1.550125E-15	6.824010E-17
2.800000E+03	1.681719E-15	7.348848E-17
2.840000E+03	1.835220E-15	7.959186E-17
2.880000E+03	2.014565E-15	8.669579E-17
2.920000E+03	2.224284E-15	9.496491E-17
2.960000E+03	2.469855E-15	1.045972E-16
3.000000E+03	2.756871E-15	1.157868E-16
3.010000E+03	2.835469E-15	1.188374E-16
3.020000E+03	2.917057E-15	1.219983E-16
3.030000E+03	3.002216E-15	1.252928E-16
3.040000E+03	3.090049E-15	1.286826E-16
3.050000E+03	3.181120E-15	1.321903E-16
3.060000E+03	3.276044E-15	1.358405E-16
3.070000E+03	3.373828E-15	1.395910E-16
3.080000E+03	3.475642E-15	1.434891E-16
3.090000E+03	3.580423E-15	1.474901E-16
3.100000E+03	3.689398E-15	1.516433E-16
3.110000E+03	3.802056E-15	1.559266E-16
3.120000E+03	3.917815E-15	1.603151E-16
3.130000E+03	4.037998E-15	1.648619E-16
3.140000E+03	4.161358E-15	1.695149E-16
3.150000E+03	4.289294E-15	1.743299E-16
3.160000E+03	4.421205E-15	1.792813E-16
3.170000E+03	4.556405E-15	1.843400E-16
3.180000E+03	4.696426E-15	1.895669E-16
3.190000E+03	4.840613E-15	1.949342E-16
3.200000E+03	4.988228E-15	2.004109E-16
3.210000E+03	5.140948E-15	2.060632E-16
3.220000E+03	5.298069E-15	2.118615E-16
3.230000E+03	5.459671E-15	2.178075E-16
3.240000E+03	5.624926E-15	2.238670E-16
3.250000E+03	5.795715E-15	2.301134E-16
3.260000E+03	5.971214E-15	2.365125E-16
3.270000E+03	6.151473E-15	2.430648E-16
3.280000E+03	6.336511E-15	2.497696E-16
3.290000E+03	6.526306E-15	2.566245E-16
3.300000E+03	6.720776E-15	2.636249E-16
3.310000E+03	6.918650E-15	2.707196E-16
3.320000E+03	7.121884E-15	2.779838E-16
3.330000E+03	7.329027E-15	2.853594E-16
3.340000E+03	7.539567E-15	2.928253E-16
3.350000E+03	7.752830E-15	3.003542E-16
3.360000E+03	7.967940E-15	3.079116E-16
3.370000E+03	8.183809E-15	3.154547E-16
3.380000E+03	8.399106E-15	3.229322E-16
3.390000E+03	8.612255E-15	3.302836E-16
3.400000E+03	8.821441E-15	3.374402E-16
3.410000E+03	9.024644E-15	3.443259E-16
3.420000E+03	9.219703E-15	3.508602E-16
3.430000E+03	9.404396E-15	3.569613E-16
3.440000E+03	9.578111E-15	3.626089E-16
3.450000E+03	9.735875E-15	3.676184E-16
3.460000E+03	9.877630E-15	3.719926E-16
3.470000E+03	1.000234E-14	3.756970E-16
3.480000E+03	1.010960E-14	3.787218E-16
3.490000E+03	1.019972E-14	3.810839E-16
3.500000E+03	1.027374E-14	3.828268E-16
3.510000E+03	1.033333E-14	3.840176E-16
3.520000E+03	1.038230E-14	3.848022E-16
3.530000E+03	1.041981E-14	3.851525E-16
3.540000E+03	1.044999E-14	3.852239E-16
3.550000E+03	1.047503E-14	3.850998E-16
3.560000E+03	1.049660E-14	3.848431E-16
3.570000E+03	1.051729E-14	3.845490E-16
3.580000E+03	1.053373E-14	3.840951E-16
3.590000E+03	1.054646E-14	3.835030E-16
3.600000E+03	1.055333E-14	3.826953E-16
3.610000E+03	1.055279E-14	3.816182E-16
3.620000E+03	1.053743E-14	3.800065E-16
3.630000E+03	1.050416E-14	3.777539E-16
3.640000E+03	1.044948E-14	3.747402E-16
3.650000E+03	1.036494E-14	3.706695E-16
3.660000E+03	1.024739E-14	3.654391E-16
3.670000E+03	1.009287E-14	3.589180E-16
3.680000E+03	9.900233E-15	3.510763E-16
3.690000E+03	9.665268E-15	3.417771E-16
3.700000E+03	9.390486E-15	3.311215E-16
3.710000E+03	9.080383E-15	3.192797E-16
3.720000E+03	8.737313E-15	3.063447E-16
3.730000E+03	8.369978E-15	2.926306E-16
3.740000E+03	7.988462E-15	2.784963E-16
3.750000E+03	7.600103E-15	2.642011E-16
3.760000E+03	7.216521E-15	2.501497E-16
3.770000E+03	6.848866E-15	2.367260E-16
3.780000E+03	6.504231E-15	2.241697E-16
3.790000E+03	6.191813E-15	2.127899E-16
3.800000E+03	5.919189E-15	2.028365E-16
3.810000E+03	5.689715E-15	1.944125E-16
3.820000E+03	5.508307E-15	1.876725E-16
3.830000E+03	5.378737E-15	1.827304E-16
3.840000E+03	5.301526E-15	1.795886E-16
3.850000E+03	5.279274E-15	1.783196E-16
3.860000E+03	5.314286E-15	1.789850E-16
3.870000E+03	5.406271E-15	1.815583E-16
3.880000E+03	5.557225E-15	1.860900E-16
3.890000E+03	5.768922E-15	1.926225E-16
3.900000E+03	6.039955E-15	2.010915E-16
3.910000E+03	6.370585E-15	2.114889E-16
3.920000E+03	6.759901E-15	2.237681E-16
3.930000E+03	7.202135E-15	2.377221E-16
3.940000E+03	7.692337E-15	2.531738E-16
3.950000E+03	8.223483E-15	2.698795E-16
3.960000E+03	8.782553E-15	2.874024E-16
3.970000E+03	9.358239E-15	3.053666E-16
3.980000E+03	9.938365E-15	3.233720E-16
3.990000E+03	1.050599E-14	3.408686E-16
4.000000E+03	1.104928E-14	3.574783E-16
4.010000E+03	1.155844E-14	3.728927E-16
4.020000E+03	1.202090E-14	3.867174E-16
4.030000E+03	1.243210E-14	3.988205E-16
4.040000E+03	1.278887E-14	4.091148E-16
4.050000E+03	1.309286E-14	4.176684E-16
4.060000E+03	1.334222E-14	4.244379E-16
4.070000E+03	1.354294E-14	4.296280E-16
4.080000E+03	1.370035E-14	4.334215E-16
4.090000E+03	1.382265E-14	4.360886E-16
4.100000E+03	1.391203E-14	4.377075E-16
4.110000E+03	1.397679E-14	4.385482E-16
4.120000E+03	1.402278E-14	4.388005E-16
4.130000E+03	1.405536E-14	4.386365E-16
4.140000E+03	1.408149E-14	4.382767E-16
4.150000E+03	1.410125E-14	4.377255E-16
4.160000E+03	1.412071E-14	4.371728E-16
4.170000E+03	1.414346E-14	4.367297E-16
4.180000E+03	1.417283E-14	4.364985E-16
4.190000E+03	1.421182E-14	4.365700E-16
4.200000E+03	1.426312E-14	4.370248E-16
4.210000E+03	1.433103E-14	4.379920E-16
4.220000E+03	1.441271E-14	4.393814E-16
4.230000E+03	1.451078E-14	4.412700E-16
4.240000E+03	1.462449E-14	4.436320E-16
4.250000E+03	1.475172E-14	4.464004E-16
4.260000E+03	1.488887E-14	4.494643E-16
4.270000E+03	1.503106E-14	4.526751E-16
4.280000E+03	1.517227E-14	4.558517E-16
4.290000E+03	1.530592E-14	4.587978E-16
4.300000E+03	1.542530E-14	4.613152E-16
4.310000E+03	1.552438E-14	4.632272E-16
4.320000E+03	1.559849E-14	4.644003E-16
4.330000E+03	1.564281E-14	4.646964E-16
4.340000E+03	1.566236E-14	4.642704E-16
4.350000E+03	1.565842E-14	4.631660E-16
4.360000E+03	1.563800E-14	4.615946E-16
4.370000E+03	1.561111E-14	4.598543E-16
4.380000E+03	1.558960E-14	4.582949E-16
4.390000E+03	1.558235E-14	4.571761E-16
4.400000E+03	1.560112E-14	4.568405E-16
4.410000E+03	1.564633E-14	4.572960E-16
4.420000E+03	1.571873E-14	4.585608E-16
4.430000E+03	1.581635E-14	4.605734E-16
4.440000E+03	1.594423E-14	4.634774E-16
4.450000E+03	1.610055E-14	4.672160E-16
4.460000E+03	1.628345E-14	4.717313E-16
4.470000E+03	1.649814E-14	4.771709E-16
4.480000E+03	1.674246E-14	4.834682E-16
4.490000E+03	1.701357E-14	4.905383E-16
4.500000E+03	1.731527E-14	4.984873E-16
4.510000E+03	1.764003E-14	5.070961E-16
4.520000E+03	1.798873E-14	5.163877E-16
4.530000E+03	1.834955E-14	5.260216E-16
4.540000E+03	1.871853E-14	5.358839E-16
4.550000E+03	1.907813E-14	5.454733E-16
4.560000E+03	1.941925E-14	5.545316E-16
4.570000E+03	1.971982E-14	5.624327E-16
4.580000E+03	1.996570E-14	5.687785E-16
4.590000E+03	2.014388E-14	5.732051E-16
4.600000E+03	2.023512E-14	5.751718E-16
4.610000E+03	2.023302E-14	5.745052E-16
4.620000E+03	2.013624E-14	5.711757E-16
4.630000E+03	1.994016E-14	5.650592E-16
4.640000E+03	1.965440E-14	5.564360E-16
4.650000E+03	1.929047E-14	5.456372E-16
4.660000E+03	1.886362E-14	5.330987E-16
4.670000E+03	1.839433E-14	5.194015E-16
4.680000E+03	1.789619E-14	5.049301E-16
4.690000E+03	1.739083E-14	4.902950E-16
4.700000E+03	1.689600E-14	4.759947E-16
4.710000E+03	1.642728E-14	4.624655E-16
4.720000E+03	1.599751E-14	4.500653E-16
4.730000E+03	1.561631E-14	4.390610E-16
4.740000E+03	1.528995E-14	4.296250E-16
4.750000E+03	1.502138E-14	4.218358E-16
4.760000E+03	1.480825E-14	4.156244E-16
4.770000E+03	1.465194E-14	4.110258E-16
4.780000E+03	1.454494E-14	4.078261E-16
4.790000E+03	1.448004E-14	4.058212E-16
4.800000E+03	1.444874E-14	4.047706E-16
4.810000E+03	1.443975E-14	4.043568E-16
4.820000E+03	1.444797E-14	4.044360E-16
4.830000E+03	1.446265E-14	4.047067E-16
4.840000E+03	1.447426E-14	4.049018E-16
4.850000E+03	1.448129E-14	4.049790E-16
4.860000E+03	1.447815E-14	4.047820E-16
4.870000E+03	1.446156E-14	4.042191E-16
4.880000E+03	1.443685E-14	4.034394E-16
4.890000E+03	1.440302E-14	4.024149E-16
4.900000E+03	1.436892E-14	4.013924E-16
4.910000E+03	1.433593E-14	4.004106E-16
4.920000E+03	1.431380E-14	3.997410E-16
4.930000E+03	1.430338E-14	3.994073E-16
4.940000E+03	1.431027E-14	3.995657E-16
4.950000E+03	1.433821E-14	4.003203E-16
4.960000E+03	1.438254E-14	4.015405E-16
4.970000E+03	1.444247E-14	4.032042E-16
4.980000E+03	1.451322E-14	4.051780E-16
4.990000E+03	1.458873E-14	4.072922E-16
5.000000E+03	1.466462E-14	4.094251E-16
5.010000E+03	1.473106E-14	4.113022E-16
5.020000E+03	1.478634E-14	4.128749E-16
5.030000E+03	1.482942E-14	4.141148E-16
5.040000E+03	1.486247E-14	4.150822E-16
5.050000E+03	1.489082E-14	4.159254E-16
5.060000E+03	1.492240E-14	4.168661E-16
5.070000E+03	1.496677E-14	4.181714E-16
5.080000E+03	1.503402E-14	4.201230E-16
5.090000E+03	1.513358E-14	4.229852E-16
5.100000E+03	1.527099E-14	4.269131E-16
5.110000E+03	1.545571E-14	4.321720E-16
5.120000E+03	1.568748E-14	4.387557E-16
5.130000E+03	1.596462E-14	4.466184E-16
5.140000E+03	1.627944E-14	4.555459E-16
5.150000E+03	1.662768E-14	4.654200E-16
5.160000E+03	1.699530E-14	4.758488E-16
5.170000E+03	1.736605E-14	4.863780E-16
5.180000E+03	1.773008E-14	4.967318E-16
5.190000E+03	1.806790E-14	5.063646E-16
5.200000E+03	1.837146E-14	5.150497E-16
5.210000E+03	1.862468E-14	5.223358E-16
5.220000E+03	1.882464E-14	5.281396E-16
5.230000E+03	1.896083E-14	5.321641E-16
5.240000E+03	1.903609E-14	5.344878E-16
5.250000E+03	1.904494E-14	5.349542E-16
5.260000E+03	1.899181E-14	5.336856E-16
5.270000E+03	1.888245E-14	5.308414E-16
5.280000E+03	1.871551E-14	5.263812E-16
5.290000E+03	1.849830E-14	5.205083E-16
5.300000E+03	1.823580E-14	5.133611E-16
5.310000E+03	1.793335E-14	5.050877E-16
5.320000E+03	1.759656E-14	4.958439E-16
5.330000E+03	1.723380E-14	4.858642E-16
5.340000E+03	1.684647E-14	4.751869E-16
5.350000E+03	1.644385E-14	4.640716E-16
5.360000E+03	1.603306E-14	4.527193E-16
5.370000E+03	1.562163E-14	4.413411E-16
5.380000E+03	1.521723E-14	4.301536E-16
5.390000E+03	1.482543E-14	4.193145E-16
5.400000E+03	1.445792E-14	4.091549E-16
5.410000E+03	1.411961E-14	3.998142E-16
5.420000E+03	1.381688E-14	3.914748E-16
5.430000E+03	1.355538E-14	3.842980E-16
5.440000E+03	1.333978E-14	3.784179E-16
5.450000E+03	1.317176E-14	3.738847E-16
5.460000E+03	1.305728E-14	3.708696E-16
5.470000E+03	1.299513E-14	3.693406E-16
5.480000E+03	1.298219E-14	3.692116E-16
5.490000E+03	1.301823E-14	3.704787E-16
5.500000E+03	1.309197E-14	3.728232E-16
5.510000E+03	1.319494E-14	3.760056E-16
5.520000E+03	1.330773E-14	3.794741E-16
5.530000E+03	1.341600E-14	3.828197E-16
5.540000E+03	1.349687E-14	3.853885E-16
5.550000E+03	1.353521E-14	3.867470E-16
5.560000E+03	1.351027E-14	3.862985E-16
5.570000E+03	1.341047E-14	3.837085E-16
5.580000E+03	1.322908E-14	3.787792E-16
5.590000E+03	1.295945E-14	3.713149E-16
5.600000E+03	1.260635E-14	3.614473E-16
5.610000E+03	1.217965E-14	3.494541E-16
5.620000E+03	1.168816E-14	3.355841E-16
5.630000E+03	1.114876E-14	3.203176E-16
5.640000E+03	1.057789E-14	3.041251E-16
5.650000E+03	9.992113E-15	2.874806E-16
5.660000E+03	9.407112E-15	2.708348E-16
5.670000E+03	8.837033E-15	2.545954E-16
5.680000E+03	8.294094E-15	2.391154E-16
5.690000E+03	7.788421E-15	2.246886E-16
5.700000E+03	7.328044E-15	2.115490E-16
5.710000E+03	6.919005E-15	1.998739E-16
5.720000E+03	6.565562E-15	1.897893E-16
5.730000E+03	6.270430E-15	1.813770E-16
5.740000E+03	6.035055E-15	1.746823E-16
5.750000E+03	5.859877E-15	1.697213E-16
5.760000E+03	5.744540E-15	1.664871E-16
5.770000E+03	5.688033E-15	1.649537E-16
5.780000E+03	5.687933E-15	1.650540E-16
5.790000E+03	5.743508E-15	1.667698E-16
5.800000E+03	5.850767E-15	1.699879E-16
5.810000E+03	6.004534E-15	1.745606E-16
5.820000E+03	6.200683E-15	1.803701E-16
5.830000E+03	6.430900E-15	1.871764E-16
5.840000E+03	6.684873E-15	1.946808E-16
5.850000E+03	6.953228E-15	2.026110E-16
5.860000E+03	7.221306E-15	2.105401E-16
5.870000E+03	7.477402E-15	2.181263E-16
5.880000E+03	7.705683E-15	2.249067E-16
5.890000E+03	7.895437E-15	2.305669E-16
5.900000E+03	8.033657E-15	2.347249E-16
5.910000E+03	8.114698E-15	2.372131E-16
5.920000E+03	8.132060E-15	2.378387E-16
5.930000E+03	8.087703E-15	2.366562E-16
5.940000E+03	7.982889E-15	2.337000E-16
5.950000E+03	7.825653E-15	2.292029E-16
5.960000E+03	7.626573E-15	2.234728E-16
5.970000E+03	7.394690E-15	2.167733E-16
5.980000E+03	7.143070E-15	2.094865E-16
5.990000E+03	6.883605E-15	2.019607E-16
6.000000E+03	6.628366E-15	1.945504E-16
6.010000E+03	6.385408E-15	1.874922E-16
6.020000E+03	6.164220E-15	1.810657E-16
6.030000E+03	5.971879E-15	1.754798E-16
6.040000E+03	5.814155E-15	1.709050E-16
6.050000E+03	5.695760E-15	1.674813E-16
6.060000E+03	5.620661E-15	1.653266E-16
6.070000E+03	5.593196E-15	1.645698E-16
6.080000E+03	5.615292E-15	1.652690E-16
6.090000E+03	5.691462E-15	1.675583E-16
6.100000E+03	5.825955E-15	1.715640E-16
6.110000E+03	6.023766E-15	1.774345E-16
6.120000E+03	6.289930E-15	1.853193E-16
6.130000E+03	6.633089E-15	1.954742E-16
6.140000E+03	7.060323E-15	2.081091E-16
6.150000E+03	7.580388E-15	2.234829E-16
6.160000E+03	8.202497E-15	2.418685E-16
6.170000E+03	8.935684E-15	2.635330E-16
6.180000E+03	9.787841E-15	2.887102E-16
6.190000E+03	1.076440E-14	3.175604E-16
6.200000E+03	1.186500E-14	3.500740E-16
6.210000E+03	1.308811E-14	3.862051E-16
6.220000E+03	1.441958E-14	4.255360E-16
6.230000E+03	1.583729E-14	4.674133E-16
6.240000E+03	1.730642E-14	5.108079E-16
6.250000E+03	1.878926E-14	5.546048E-16
6.260000E+03	2.023319E-14	5.972495E-16
6.270000E+03	2.158023E-14	6.370282E-16
6.280000E+03	2.278141E-14	6.724932E-16
6.290000E+03	2.378124E-14	7.020053E-16
6.300000E+03	2.454754E-14	7.246126E-16
6.310000E+03	2.505285E-14	7.395047E-16
6.320000E+03	2.528586E-14	7.463474E-16
6.330000E+03	2.526217E-14	7.456024E-16
6.340000E+03	2.499741E-14	7.377321E-16
6.350000E+03	2.453172E-14	7.239231E-16
6.360000E+03	2.389746E-14	7.051325E-16
6.370000E+03	2.314261E-14	6.827783E-16
6.380000E+03	2.230023E-14	6.578379E-16
6.390000E+03	2.140923E-14	6.314611E-16
6.400000E+03	2.050244E-14	6.046179E-16
6.410000E+03	1.959793E-14	5.778423E-16
6.420000E+03	1.871937E-14	5.518335E-16
6.430000E+03	1.787426E-14	5.268134E-16
6.440000E+03	1.707387E-14	5.031139E-16
6.450000E+03	1.632562E-14	4.809545E-16
6.460000E+03	1.562748E-14	4.602745E-16
6.470000E+03	1.498272E-14	4.411708E-16
6.480000E+03	1.439113E-14	4.236361E-16
6.490000E+03	1.385377E-14	4.077017E-16
6.500000E+03	1.336552E-14	3.932157E-16
6.510000E+03	1.292706E-14	3.801972E-16
6.520000E+03	1.253678E-14	3.685984E-16
6.530000E+03	1.219364E-14	3.583875E-16
6.540000E+03	1.188856E-14	3.492970E-16
6.550000E+03	1.161486E-14	3.411293E-16
6.560000E+03	1.136327E-14	3.336117E-16
6.570000E+03	1.112504E-14	3.264873E-16
6.580000E+03	1.089227E-14	3.195238E-16
6.590000E+03	1.065798E-14	3.125167E-16
6.600000E+03	1.041612E-14	3.052890E-16
6.610000E+03	1.016167E-14	2.976940E-16
6.620000E+03	9.892027E-15	2.896567E-16
6.630000E+03	9.601548E-15	2.810126E-16
6.640000E+03	9.290036E-15	2.717574E-16
6.650000E+03	8.957134E-15	2.618819E-16
6.660000E+03	8.603751E-15	2.514141E-16
6.670000E+03	8.230873E-15	2.403842E-16
6.680000E+03	7.844140E-15	2.289584E-16
6.690000E+03	7.446568E-15	2.172258E-16
6.700000E+03	7.043121E-15	2.053322E-16
6.710000E+03	6.639219E-15	1.934364E-16
6.720000E+03	6.240455E-15	1.817020E-16
6.730000E+03	5.852300E-15	1.702883E-16
6.740000E+03	5.479836E-15	1.593431E-16
6.750000E+03	5.127556E-15	1.489965E-16
6.760000E+03	4.798538E-15	1.393372E-16
6.770000E+03	4.497117E-15	1.304901E-16
6.780000E+03	4.224699E-15	1.224945E-16
6.790000E+03	3.982660E-15	1.153890E-16
6.800000E+03	3.771723E-15	1.091926E-16
6.810000E+03	3.591585E-15	1.038950E-16
6.820000E+03	3.443107E-15	9.951916E-17
6.830000E+03	3.325349E-15	9.603584E-17
6.840000E+03	3.237786E-15	9.342792E-17
6.850000E+03	3.179438E-15	9.166504E-17
6.860000E+03	3.150727E-15	9.075728E-17
6.870000E+03	3.150820E-15	9.067844E-17
6.880000E+03	3.179000E-15	9.140566E-17
6.890000E+03	3.235961E-15	9.295666E-17
6.900000E+03	3.321096E-15	9.531164E-17
6.910000E+03	3.433700E-15	9.844790E-17
6.920000E+03	3.574341E-15	1.023793E-16
6.930000E+03	3.741364E-15	1.070560E-16
6.940000E+03	3.934758E-15	1.124751E-16
6.950000E+03	4.151899E-15	1.185592E-16
6.960000E+03	4.391837E-15	1.252787E-16
6.970000E+03	4.651346E-15	1.325395E-16
6.980000E+03	4.926515E-15	1.402279E-16
6.990000E+03	5.215029E-15	1.482765E-16
7.000000E+03	5.511496E-15	1.565305E-16
7.010000E+03	5.813386E-15	1.649170E-16
7.020000E+03	6.115207E-15	1.732794E-16
7.030000E+03	6.414234E-15	1.815405E-16
7.040000E+03	6.708533E-15	1.896454E-16
7.050000E+03	6.994164E-15	1.974830E-16
7.060000E+03	7.271918E-15	2.050762E-16
7.070000E+03	7.539636E-15	2.123648E-16
7.080000E+03	7.799196E-15	2.194024E-16
7.090000E+03	8.053605E-15	2.262741E-16
7.100000E+03	8.303378E-15	2.329947E-16
7.110000E+03	8.553141E-15	2.396941E-16
7.120000E+03	8.808268E-15	2.465226E-16
7.130000E+03	9.070823E-15	2.535370E-16
7.140000E+03	9.346724E-15	2.609016E-16
7.150000E+03	9.641950E-15	2.687813E-16
7.160000E+03	9.958024E-15	2.772163E-16
7.170000E+03	1.029974E-14	2.863372E-16
7.180000E+03	1.066939E-14	2.962048E-16
7.190000E+03	1.106925E-14	3.068785E-16
7.200000E+03	1.149487E-14	3.182313E-16
7.210000E+03	1.194383E-14	3.301936E-16
7.220000E+03	1.240933E-14	3.425744E-16
7.230000E+03	1.288139E-14	3.550965E-16
7.240000E+03	1.334686E-14	3.673970E-16
7.250000E+03	1.379170E-14	3.790908E-16
7.260000E+03	1.419388E-14	3.895755E-16
7.270000E+03	1.453604E-14	3.983809E-16
7.280000E+03	1.479924E-14	4.049955E-16
7.290000E+03	1.496646E-14	4.089639E-16
7.300000E+03	1.502413E-14	4.099281E-16
7.310000E+03	1.496357E-14	4.076649E-16
7.320000E+03	1.478182E-14	4.021086E-16
7.330000E+03	1.448192E-14	3.933571E-16
7.340000E+03	1.407263E-14	3.816628E-16
7.350000E+03	1.356745E-14	3.674048E-16
7.360000E+03	1.298336E-14	3.510543E-16
7.370000E+03	1.233926E-14	3.331319E-16
7.380000E+03	1.165451E-14	3.141671E-16
7.390000E+03	1.094773E-14	2.946657E-16
7.400000E+03	1.023570E-14	2.750819E-16
7.410000E+03	9.532861E-15	2.558040E-16
7.420000E+03	8.850990E-15	2.371461E-16
7.430000E+03	8.198037E-15	2.193185E-16
7.440000E+03	7.583090E-15	2.025602E-16
7.450000E+03	7.009385E-15	1.869529E-16
7.460000E+03	6.479628E-15	1.725636E-16
7.470000E+03	5.995109E-15	1.594209E-16
7.480000E+03	5.556035E-15	1.475249E-16
7.490000E+03	5.161090E-15	1.368351E-16
7.500000E+03	4.810699E-15	1.273573E-16
7.510000E+03	4.502629E-15	1.190270E-16
7.520000E+03	4.235280E-15	1.117970E-16
7.530000E+03	4.006437E-15	1.056039E-16
7.540000E+03	3.815690E-15	1.004324E-16
7.550000E+03	3.660981E-15	9.622409E-17
7.560000E+03	3.540534E-15	9.292813E-17
7.570000E+03	3.454329E-15	9.054015E-17
7.580000E+03	3.401023E-15	8.902129E-17
7.590000E+03	3.379534E-15	8.833969E-17
7.600000E+03	3.390420E-15	8.850669E-17
7.610000E+03	3.432401E-15	8.948564E-17
7.620000E+03	3.506157E-15	9.129123E-17
7.630000E+03	3.610747E-15	9.389605E-17
7.640000E+03	3.744805E-15	9.726195E-17
7.650000E+03	3.907932E-15	1.013761E-16
7.660000E+03	4.096637E-15	1.061459E-16
7.670000E+03	4.308471E-15	1.115060E-16
7.680000E+03	4.537149E-15	1.172926E-16
7.690000E+03	4.777265E-15	1.233653E-16
7.700000E+03	5.019221E-15	1.294765E-16
7.710000E+03	5.254116E-15	1.353972E-16
7.720000E+03	5.472413E-15	1.408836E-16
7.730000E+03	5.662242E-15	1.456322E-16
7.740000E+03	5.815808E-15	1.494457E-16
7.750000E+03	5.923942E-15	1.520919E-16
7.760000E+03	5.982661E-15	1.534722E-16
