#wls	flux	fluxerr
1.600000E+03	4.626408E-16	2.991992E-17
1.640000E+03	4.662930E-16	3.005319E-17
1.680000E+03	4.703541E-16	3.020872E-17
1.720000E+03	4.747888E-16	3.038390E-17
1.760000E+03	4.798228E-16	3.059273E-17
1.800000E+03	4.855221E-16	3.083887E-17
1.840000E+03	4.917859E-16	3.111534E-17
1.880000E+03	4.987813E-16	3.143211E-17
1.920000E+03	5.066007E-16	3.179426E-17
1.960000E+03	5.154408E-16	3.221329E-17
2.000000E+03	5.253331E-16	3.269017E-17
2.040000E+03	5.363203E-16	3.322648E-17
2.080000E+03	5.487497E-16	3.384252E-17
2.120000E+03	5.627107E-16	3.454232E-17
2.160000E+03	5.784151E-16	3.533721E-17
2.200000E+03	5.961087E-16	3.624029E-17
2.240000E+03	6.160784E-16	3.726679E-17
2.280000E+03	6.387730E-16	3.844125E-17
2.320000E+03	6.643643E-16	3.977099E-17
2.360000E+03	6.935495E-16	4.129424E-17
2.400000E+03	7.266384E-16	4.302533E-17
2.440000E+03	7.645371E-16	4.501311E-17
2.480000E+03	8.079037E-16	4.729054E-17
2.520000E+03	8.576715E-16	4.990553E-17
2.560000E+03	9.149593E-16	5.291515E-17
2.600000E+03	9.811108E-16	5.638759E-17
2.640000E+03	1.057929E-15	6.041501E-17
2.680000E+03	1.147004E-15	6.507451E-17
2.720000E+03	1.251070E-15	7.050488E-17
2.760000E+03	1.372525E-15	7.682145E-17
2.800000E+03	1.515201E-15	8.421498E-17
2.840000E+03	1.682887E-15	9.286726E-17
2.880000E+03	1.880287E-15	1.030034E-16
2.920000E+03	2.112819E-15	1.148788E-16
2.960000E+03	2.386543E-15	1.287738E-16
3.000000E+03	2.707871E-15	1.449763E-16
3.010000E+03	2.796132E-15	1.494061E-16
3.020000E+03	2.888324E-15	1.540260E-16
3.030000E+03	2.984048E-15	1.588133E-16
3.040000E+03	3.082829E-15	1.637417E-16
3.050000E+03	3.185763E-15	1.688680E-16
3.060000E+03	3.291776E-15	1.741342E-16
3.070000E+03	3.401980E-15	1.795979E-16
3.080000E+03	3.515767E-15	1.852254E-16
3.090000E+03	3.632395E-15	1.909767E-16
3.100000E+03	3.752938E-15	1.969070E-16
3.110000E+03	3.875858E-15	2.029344E-16
3.120000E+03	4.002133E-15	2.091093E-16
3.130000E+03	4.130659E-15	2.153727E-16
3.140000E+03	4.260129E-15	2.216558E-16
3.150000E+03	4.391312E-15	2.279983E-16
3.160000E+03	4.521916E-15	2.342806E-16
3.170000E+03	4.652604E-15	2.405373E-16
3.180000E+03	4.781685E-15	2.466808E-16
3.190000E+03	4.907365E-15	2.526194E-16
3.200000E+03	5.030437E-15	2.583947E-16
3.210000E+03	5.149284E-15	2.639248E-16
3.220000E+03	5.262370E-15	2.691324E-16
3.230000E+03	5.371080E-15	2.740901E-16
3.240000E+03	5.474345E-15	2.787448E-16
3.250000E+03	5.571274E-15	2.830531E-16
3.260000E+03	5.664099E-15	2.871302E-16
3.270000E+03	5.752420E-15	2.909574E-16
3.280000E+03	5.835957E-15	2.945218E-16
3.290000E+03	5.917584E-15	2.979700E-16
3.300000E+03	5.997257E-15	3.013002E-16
3.310000E+03	6.074897E-15	3.045091E-16
3.320000E+03	6.153516E-15	3.077481E-16
3.330000E+03	6.232875E-15	3.110050E-16
3.340000E+03	6.313568E-15	3.143090E-16
3.350000E+03	6.394825E-15	3.176215E-16
3.360000E+03	6.478914E-15	3.210546E-16
3.370000E+03	6.564577E-15	3.245452E-16
3.380000E+03	6.650266E-15	3.280164E-16
3.390000E+03	6.737574E-15	3.315465E-16
3.400000E+03	6.824339E-15	3.350290E-16
3.410000E+03	6.909160E-15	3.383953E-16
3.420000E+03	6.989136E-15	3.415044E-16
3.430000E+03	7.064812E-15	3.443847E-16
3.440000E+03	7.133138E-15	3.468892E-16
3.450000E+03	7.191155E-15	3.488771E-16
3.460000E+03	7.239894E-15	3.504019E-16
3.470000E+03	7.277140E-15	3.513598E-16
3.480000E+03	7.302491E-15	3.517357E-16
3.490000E+03	7.315027E-15	3.514895E-16
3.500000E+03	7.318433E-15	3.508024E-16
3.510000E+03	7.313442E-15	3.497126E-16
3.520000E+03	7.302765E-15	3.483525E-16
3.530000E+03	7.288387E-15	3.468187E-16
3.540000E+03	7.276236E-15	3.453938E-16
3.550000E+03	7.268247E-15	3.441688E-16
3.560000E+03	7.267016E-15	3.432650E-16
3.570000E+03	7.273057E-15	3.427043E-16
3.580000E+03	7.289588E-15	3.426354E-16
3.590000E+03	7.314959E-15	3.429775E-16
3.600000E+03	7.347649E-15	3.436564E-16
3.610000E+03	7.383843E-15	3.444917E-16
3.620000E+03	7.422564E-15	3.454368E-16
3.630000E+03	7.458184E-15	3.462296E-16
3.640000E+03	7.485574E-15	3.466337E-16
3.650000E+03	7.497725E-15	3.463286E-16
3.660000E+03	7.491150E-15	3.451587E-16
3.670000E+03	7.458550E-15	3.427953E-16
3.680000E+03	7.394358E-15	3.389922E-16
3.690000E+03	7.293907E-15	3.335471E-16
3.700000E+03	7.152674E-15	3.262661E-16
3.710000E+03	6.971668E-15	3.172094E-16
3.720000E+03	6.750464E-15	3.063712E-16
3.730000E+03	6.492513E-15	2.939216E-16
3.740000E+03	6.203013E-15	2.801079E-16
3.750000E+03	5.893108E-15	2.654426E-16
3.760000E+03	5.572996E-15	2.503908E-16
3.770000E+03	5.255413E-15	2.355266E-16
3.780000E+03	4.952337E-15	2.213843E-16
3.790000E+03	4.677172E-15	2.085566E-16
3.800000E+03	4.438793E-15	1.974285E-16
3.810000E+03	4.244793E-15	1.883244E-16
3.820000E+03	4.099986E-15	1.814422E-16
3.830000E+03	4.009677E-15	1.769995E-16
3.840000E+03	3.976114E-15	1.750772E-16
3.850000E+03	4.001957E-15	1.757732E-16
3.860000E+03	4.089228E-15	1.791566E-16
3.870000E+03	4.242186E-15	1.853933E-16
3.880000E+03	4.462983E-15	1.945559E-16
3.890000E+03	4.753782E-15	2.067167E-16
3.900000E+03	5.114311E-15	2.218416E-16
3.910000E+03	5.544065E-15	2.398868E-16
3.920000E+03	6.035983E-15	2.605260E-16
3.930000E+03	6.578729E-15	2.832521E-16
3.940000E+03	7.154402E-15	3.072812E-16
3.950000E+03	7.743899E-15	3.317855E-16
3.960000E+03	8.321422E-15	3.556593E-16
3.970000E+03	8.861447E-15	3.778193E-16
3.980000E+03	9.338897E-15	3.972120E-16
3.990000E+03	9.737870E-15	4.131831E-16
4.000000E+03	1.004407E-14	4.251529E-16
4.010000E+03	1.025176E-14	4.329077E-16
4.020000E+03	1.036032E-14	4.364530E-16
4.030000E+03	1.038044E-14	4.362675E-16
4.040000E+03	1.032233E-14	4.328064E-16
4.050000E+03	1.019962E-14	4.266627E-16
4.060000E+03	1.003285E-14	4.187134E-16
4.070000E+03	9.837738E-15	4.096246E-16
4.080000E+03	9.631583E-15	4.001234E-16
4.083870E+03	7.044572E-15	2.923937E-16
4.089400E+03	7.084515E-15	2.936827E-16
4.094940E+03	7.098655E-15	2.939007E-16
4.100490E+03	7.103691E-15	2.937421E-16
4.106040E+03	7.117435E-15	2.939449E-16
4.111610E+03	7.166709E-15	2.956126E-16
4.117180E+03	7.256007E-15	2.989264E-16
4.122750E+03	7.374841E-15	3.034488E-16
4.128340E+03	7.533899E-15	3.096132E-16
4.133930E+03	7.726656E-15	3.171473E-16
4.139530E+03	7.938403E-15	3.254425E-16
4.145140E+03	8.117802E-15	3.323940E-16
4.150750E+03	8.246001E-15	3.372367E-16
4.156380E+03	8.299092E-15	3.390002E-16
4.162010E+03	8.301952E-15	3.387120E-16
4.167650E+03	8.261101E-15	3.366446E-16
4.173290E+03	8.204461E-15	3.339415E-16
4.178950E+03	8.142162E-15	3.310155E-16
4.184610E+03	8.078444E-15	3.280409E-16
4.190280E+03	8.089759E-15	3.281180E-16
4.195950E+03	8.167872E-15	3.309034E-16
4.201640E+03	8.346107E-15	3.377349E-16
4.207330E+03	8.603848E-15	3.477669E-16
4.213030E+03	8.883735E-15	3.586720E-16
4.218740E+03	9.146183E-15	3.688512E-16
4.224450E+03	9.357853E-15	3.769648E-16
4.230180E+03	9.489370E-15	3.818368E-16
4.235910E+03	9.523772E-15	3.827976E-16
4.241640E+03	9.490591E-15	3.810462E-16
4.247390E+03	9.390750E-15	3.766269E-16
4.253150E+03	9.301266E-15	3.726348E-16
4.258910E+03	9.278599E-15	3.713286E-16
4.264680E+03	9.376834E-15	3.748614E-16
4.270450E+03	9.555581E-15	3.816055E-16
4.276240E+03	9.841755E-15	3.926235E-16
4.282030E+03	1.023045E-14	4.077083E-16
4.287830E+03	1.066489E-14	4.245864E-16
4.293640E+03	1.110568E-14	4.416868E-16
4.299460E+03	1.149880E-14	4.568623E-16
4.305280E+03	1.179534E-14	4.681790E-16
4.311120E+03	1.196122E-14	4.742963E-16
4.316960E+03	1.198977E-14	4.749664E-16
4.322800E+03	1.188094E-14	4.702037E-16
4.328660E+03	1.169104E-14	4.622489E-16
4.334520E+03	1.149988E-14	4.542646E-16
4.340400E+03	1.131187E-14	4.464241E-16
4.346280E+03	1.115947E-14	4.400070E-16
4.352160E+03	1.108550E-14	4.366972E-16
4.358060E+03	1.110529E-14	4.370876E-16
4.363960E+03	1.115120E-14	4.385103E-16
4.369880E+03	1.126265E-14	4.425107E-16
4.375800E+03	1.136692E-14	4.462280E-16
4.381720E+03	1.146650E-14	4.497613E-16
4.387660E+03	1.153932E-14	4.522451E-16
4.393600E+03	1.160391E-14	4.544091E-16
4.399560E+03	1.164789E-14	4.557683E-16
4.405520E+03	1.165754E-14	4.557904E-16
4.411480E+03	1.163682E-14	4.546327E-16
4.417460E+03	1.158466E-14	4.522553E-16
4.423450E+03	1.152859E-14	4.497352E-16
4.429440E+03	1.149496E-14	4.481008E-16
4.435440E+03	1.145164E-14	4.460979E-16
4.441450E+03	1.139976E-14	4.437715E-16
4.447460E+03	1.137790E-14	4.426235E-16
4.453490E+03	1.137888E-14	4.423708E-16
4.459520E+03	1.135459E-14	4.411441E-16
4.465560E+03	1.131300E-14	4.392543E-16
4.471610E+03	1.125255E-14	4.366411E-16
4.477670E+03	1.119367E-14	4.340992E-16
4.483740E+03	1.119839E-14	4.340318E-16
4.489810E+03	1.132689E-14	4.387660E-16
4.495890E+03	1.159071E-14	4.487408E-16
4.501980E+03	1.200356E-14	4.644784E-16
4.508080E+03	1.252165E-14	4.842767E-16
4.514190E+03	1.311322E-14	5.069032E-16
4.520310E+03	1.374237E-14	5.309668E-16
4.526430E+03	1.435819E-14	5.545011E-16
4.532560E+03	1.494070E-14	5.767363E-16
4.538700E+03	1.541182E-14	5.946622E-16
4.544850E+03	1.578344E-14	6.087446E-16
4.551010E+03	1.607229E-14	6.196330E-16
4.557170E+03	1.621496E-14	6.248889E-16
4.563350E+03	1.619819E-14	6.240073E-16
4.569530E+03	1.603167E-14	6.173694E-16
4.575720E+03	1.571589E-14	6.049991E-16
4.581920E+03	1.533213E-14	5.900303E-16
4.588130E+03	1.490415E-14	5.733783E-16
4.594340E+03	1.446818E-14	5.564379E-16
4.600570E+03	1.406313E-14	5.407043E-16
4.606800E+03	1.369454E-14	5.263890E-16
4.613040E+03	1.336680E-14	5.136584E-16
4.619290E+03	1.305721E-14	5.016387E-16
4.625550E+03	1.272538E-14	4.887778E-16
4.631810E+03	1.240428E-14	4.763417E-16
4.638090E+03	1.206210E-14	4.631079E-16
4.644370E+03	1.171455E-14	4.496799E-16
4.650660E+03	1.141129E-14	4.379624E-16
4.656960E+03	1.111814E-14	4.266431E-16
4.663270E+03	1.083875E-14	4.158609E-16
4.669590E+03	1.055970E-14	4.051003E-16
4.675920E+03	1.027205E-14	3.940179E-16
4.682250E+03	9.991856E-15	3.832297E-16
4.688590E+03	9.704949E-15	3.721910E-16
4.694940E+03	9.417902E-15	3.611538E-16
4.701300E+03	9.145876E-15	3.506989E-16
4.707670E+03	8.943339E-15	3.429142E-16
4.714050E+03	8.813925E-15	3.379383E-16
4.720440E+03	8.778933E-15	3.365872E-16
4.726830E+03	8.807600E-15	3.376811E-16
4.733240E+03	8.886913E-15	3.407210E-16
4.739650E+03	8.989755E-15	3.446672E-16
4.746070E+03	9.092208E-15	3.486029E-16
4.752500E+03	9.204602E-15	3.529242E-16
4.758940E+03	9.304709E-15	3.567790E-16
4.765380E+03	9.394145E-15	3.602293E-16
4.771840E+03	9.468796E-15	3.631173E-16
4.778300E+03	9.545719E-15	3.660971E-16
4.784780E+03	9.609984E-15	3.685962E-16
4.791260E+03	9.640690E-15	3.698128E-16
4.797750E+03	9.641287E-15	3.698787E-16
4.804250E+03	9.626717E-15	3.693668E-16
4.810760E+03	9.618466E-15	3.691015E-16
4.817280E+03	9.622108E-15	3.692966E-16
4.823800E+03	9.680059E-15	3.715804E-16
4.830340E+03	9.780356E-15	3.754949E-16
4.836880E+03	9.908405E-15	3.804803E-16
4.843430E+03	1.006658E-14	3.866288E-16
4.849990E+03	1.026814E-14	3.944502E-16
4.856560E+03	1.049370E-14	4.032013E-16
4.863140E+03	1.071671E-14	4.118622E-16
4.869730E+03	1.096608E-14	4.215443E-16
4.876330E+03	1.118772E-14	4.301692E-16
4.882940E+03	1.133361E-14	4.358893E-16
4.889550E+03	1.135582E-14	4.368587E-16
4.896170E+03	1.118271E-14	4.303164E-16
4.902810E+03	1.083988E-14	4.172422E-16
4.909450E+03	1.035409E-14	3.986597E-16
4.916100E+03	9.770289E-15	3.762950E-16
4.922760E+03	9.195224E-15	3.542568E-16
4.929430E+03	8.756541E-15	3.374637E-16
4.936110E+03	8.512002E-15	3.281473E-16
4.942790E+03	8.520497E-15	3.285853E-16
4.949490E+03	8.836515E-15	3.408901E-16
4.956200E+03	9.417937E-15	3.634487E-16
4.962910E+03	1.014029E-14	3.914669E-16
4.969630E+03	1.090343E-14	4.210839E-16
4.976370E+03	1.164730E-14	4.499824E-16
4.983110E+03	1.229448E-14	4.751697E-16
4.989860E+03	1.274134E-14	4.926349E-16
4.996620E+03	1.297203E-14	5.017568E-16
5.003390E+03	1.294720E-14	5.010020E-16
5.010170E+03	1.274225E-14	4.932774E-16
5.016950E+03	1.242388E-14	4.811574E-16
5.023750E+03	1.202287E-14	4.658290E-16
5.030550E+03	1.160648E-14	4.498936E-16
5.037370E+03	1.122059E-14	4.351305E-16
5.044190E+03	1.083066E-14	4.202002E-16
5.051030E+03	1.044122E-14	4.052784E-16
5.057870E+03	1.006772E-14	3.909638E-16
5.064720E+03	9.721083E-15	3.776822E-16
5.071580E+03	9.375564E-15	3.644337E-16
5.078450E+03	9.104553E-15	3.540723E-16
5.085330E+03	8.980710E-15	3.494290E-16
5.092220E+03	9.086216E-15	3.537114E-16
5.099120E+03	9.435379E-15	3.674902E-16
5.106030E+03	1.004692E-14	3.915097E-16
5.112950E+03	1.086784E-14	4.237196E-16
5.119870E+03	1.185024E-14	4.622646E-16
5.126810E+03	1.291176E-14	5.039411E-16
5.133750E+03	1.393080E-14	5.440057E-16
5.140710E+03	1.480626E-14	5.785070E-16
5.147670E+03	1.548555E-14	6.053799E-16
5.154650E+03	1.591538E-14	6.225283E-16
5.161630E+03	1.609262E-14	6.298128E-16
5.168620E+03	1.605264E-14	6.286028E-16
5.175620E+03	1.586544E-14	6.216261E-16
5.182640E+03	1.559233E-14	6.112767E-16
5.189660E+03	1.530944E-14	6.005344E-16
5.196690E+03	1.511904E-14	5.934122E-16
5.203730E+03	1.502251E-14	5.899710E-16
5.210780E+03	1.501615E-14	5.900720E-16
5.217840E+03	1.507479E-14	5.927311E-16
5.224910E+03	1.513695E-14	5.955344E-16
5.231980E+03	1.517221E-14	5.972840E-16
5.239070E+03	1.513671E-14	5.962515E-16
5.246170E+03	1.501889E-14	5.919755E-16
5.253280E+03	1.482306E-14	5.846197E-16
5.260390E+03	1.459863E-14	5.761277E-16
5.267520E+03	1.437127E-14	5.675123E-16
5.274660E+03	1.417640E-14	5.601716E-16
5.281800E+03	1.403281E-14	5.548507E-16
5.288960E+03	1.391289E-14	5.504620E-16
5.296120E+03	1.379206E-14	5.460332E-16
5.303300E+03	1.362676E-14	5.398390E-16
5.310480E+03	1.343897E-14	5.327464E-16
5.317670E+03	1.317182E-14	5.224986E-16
5.324880E+03	1.282905E-14	5.092374E-16
5.332090E+03	1.245546E-14	4.947354E-16
5.339320E+03	1.205764E-14	4.792535E-16
5.346550E+03	1.166071E-14	4.637868E-16
5.353790E+03	1.128907E-14	4.493074E-16
5.361050E+03	1.094928E-14	4.360787E-16
5.368310E+03	1.063791E-14	4.239655E-16
5.375580E+03	1.036372E-14	4.133197E-16
5.382860E+03	1.011428E-14	4.036479E-16
5.390160E+03	9.885451E-15	3.947874E-16
5.397460E+03	9.672739E-15	3.865595E-16
5.404770E+03	9.458291E-15	3.782516E-16
5.412090E+03	9.233252E-15	3.695092E-16
5.419420E+03	9.006739E-15	3.606965E-16
5.426770E+03	8.788017E-15	3.521847E-16
5.434120E+03	8.552375E-15	3.429828E-16
5.441480E+03	8.310218E-15	3.335071E-16
5.448850E+03	8.104027E-15	3.254630E-16
5.456230E+03	7.945067E-15	3.193062E-16
5.463620E+03	7.811638E-15	3.141678E-16
5.471030E+03	7.769119E-15	3.126815E-16
5.478440E+03	7.841666E-15	3.158275E-16
5.485860E+03	8.043219E-15	3.241777E-16
5.493290E+03	8.389188E-15	3.383649E-16
5.500730E+03	8.862880E-15	3.577279E-16
5.508180E+03	9.431812E-15	3.809657E-16
5.515650E+03	1.004845E-14	4.061658E-16
5.523120E+03	1.065362E-14	4.309378E-16
5.530600E+03	1.115589E-14	4.515802E-16
5.538090E+03	1.150415E-14	4.660131E-16
5.545600E+03	1.164341E-14	4.719948E-16
5.553110E+03	1.154467E-14	4.683297E-16
5.560630E+03	1.119137E-14	4.543240E-16
5.568170E+03	1.061865E-14	4.313842E-16
5.575710E+03	9.927811E-15	4.036085E-16
5.583260E+03	9.167397E-15	3.729614E-16
5.590830E+03	8.452447E-15	3.441211E-16
5.598400E+03	7.860634E-15	3.202552E-16
5.605980E+03	7.434964E-15	3.031283E-16
5.613580E+03	7.178897E-15	2.928963E-16
5.621180E+03	7.067292E-15	2.885469E-16
5.628800E+03	7.034965E-15	2.874298E-16
5.636420E+03	7.013877E-15	2.867696E-16
5.644060E+03	6.970752E-15	2.852061E-16
5.651710E+03	6.852921E-15	2.805807E-16
5.659360E+03	6.670834E-15	2.733150E-16
5.667030E+03	6.446961E-15	2.643252E-16
5.674710E+03	6.202220E-15	2.544657E-16
5.682390E+03	5.923543E-15	2.431982E-16
5.690090E+03	5.595781E-15	2.298979E-16
5.697800E+03	5.247829E-15	2.157484E-16
5.705520E+03	4.860315E-15	1.999513E-16
5.713250E+03	4.450643E-15	1.832198E-16
5.720990E+03	4.022451E-15	1.657023E-16
5.728740E+03	3.597042E-15	1.482754E-16
5.736500E+03	3.211409E-15	1.324656E-16
5.744270E+03	2.909548E-15	1.200921E-16
5.752050E+03	2.692675E-15	1.112122E-16
5.759840E+03	2.571657E-15	1.062817E-16
5.767650E+03	2.551036E-15	1.054962E-16
5.775460E+03	2.617142E-15	1.082978E-16
5.783290E+03	2.777258E-15	1.149949E-16
5.791120E+03	3.025500E-15	1.253506E-16
5.798970E+03	3.357040E-15	1.391715E-16
5.806820E+03	3.748102E-15	1.554772E-16
5.814690E+03	4.177073E-15	1.733749E-16
5.822570E+03	4.659693E-15	1.935207E-16
5.830450E+03	5.162559E-15	2.145300E-16
5.838350E+03	5.653613E-15	2.350710E-16
5.846260E+03	6.078695E-15	2.528892E-16
5.854180E+03	6.399588E-15	2.663886E-16
5.862110E+03	6.603076E-15	2.750111E-16
5.870050E+03	6.688202E-15	2.787087E-16
5.878010E+03	6.681125E-15	2.785638E-16
5.885970E+03	6.618687E-15	2.761069E-16
5.893940E+03	6.516514E-15	2.719866E-16
5.901930E+03	6.401541E-15	2.673254E-16
5.909920E+03	6.316118E-15	2.638916E-16
5.917930E+03	6.250474E-15	2.612789E-16
5.925950E+03	6.218584E-15	2.600730E-16
5.933970E+03	6.176096E-15	2.584200E-16
5.942010E+03	6.090293E-15	2.549499E-16
5.950060E+03	5.945226E-15	2.489922E-16
5.958120E+03	5.739777E-15	2.404966E-16
5.966200E+03	5.473648E-15	2.294477E-16
5.974280E+03	5.162152E-15	2.164841E-16
5.982370E+03	4.817465E-15	2.021148E-16
5.990480E+03	4.454607E-15	1.869688E-16
5.998590E+03	4.090202E-15	1.717435E-16
6.006720E+03	3.769900E-15	1.583569E-16
6.014850E+03	3.502006E-15	1.471603E-16
6.023000E+03	3.277003E-15	1.377569E-16
6.031160E+03	3.100331E-15	1.303775E-16
6.039330E+03	2.984769E-15	1.255622E-16
6.047520E+03	2.915509E-15	1.226907E-16
6.055710E+03	2.900225E-15	1.220880E-16
6.063910E+03	2.946578E-15	1.240791E-16
6.072130E+03	3.052019E-15	1.285591E-16
6.080350E+03	3.215646E-15	1.354919E-16
6.088590E+03	3.411713E-15	1.437946E-16
6.096840E+03	3.630000E-15	1.530371E-16
6.105100E+03	3.859293E-15	1.627470E-16
6.113370E+03	4.063999E-15	1.714228E-16
6.121650E+03	4.226684E-15	1.783280E-16
6.129940E+03	4.338677E-15	1.830951E-16
6.138250E+03	4.404921E-15	1.859311E-16
6.146560E+03	4.428937E-15	1.869832E-16
6.154890E+03	4.465345E-15	1.885567E-16
6.163230E+03	4.382331E-15	1.850848E-16
6.171580E+03	4.258080E-15	1.798674E-16
6.179940E+03	4.264044E-15	1.801474E-16
6.188310E+03	4.537376E-15	1.917227E-16
6.196690E+03	5.395404E-15	2.280076E-16
6.205090E+03	7.079298E-15	2.992035E-16
6.213500E+03	9.675160E-15	4.089593E-16
6.221910E+03	1.302471E-14	5.505919E-16
6.230340E+03	1.687656E-14	7.134766E-16
6.238780E+03	2.078208E-14	8.786443E-16
6.247230E+03	2.434476E-14	1.029324E-15
6.255700E+03	2.732572E-14	1.155407E-15
6.264170E+03	2.968322E-14	1.255119E-15
6.272660E+03	3.141185E-14	1.328227E-15
6.281160E+03	3.261312E-14	1.379018E-15
6.289670E+03	3.343275E-14	1.413652E-15
6.298190E+03	3.375415E-14	1.427199E-15
6.306720E+03	3.362813E-14	1.421808E-15
6.315260E+03	3.285149E-14	1.388890E-15
6.323820E+03	3.113658E-14	1.316291E-15
6.332380E+03	2.849011E-14	1.204308E-15
6.340960E+03	2.515840E-14	1.063365E-15
6.349550E+03	2.157472E-14	9.117893E-16
6.358150E+03	1.824648E-14	7.710308E-16
6.366770E+03	1.565159E-14	6.612843E-16
6.375390E+03	1.393504E-14	5.886656E-16
6.384030E+03	1.305220E-14	5.512751E-16
6.392680E+03	1.281487E-14	5.411492E-16
6.401340E+03	1.301356E-14	5.494274E-16
6.410010E+03	1.333295E-14	5.627885E-16
6.418700E+03	1.350537E-14	5.699332E-16
6.427390E+03	1.337110E-14	5.641264E-16
6.436100E+03	1.290695E-14	5.444002E-16
6.444820E+03	1.236667E-14	5.214660E-16
6.453550E+03	1.185456E-14	4.997243E-16
6.462290E+03	1.145076E-14	4.825527E-16
6.471040E+03	1.115181E-14	4.698017E-16
6.479810E+03	1.090845E-14	4.593930E-16
6.488590E+03	1.066182E-14	4.488461E-16
6.497380E+03	1.037254E-14	4.365054E-16
6.506180E+03	1.002192E-14	4.215871E-16
6.515000E+03	9.636501E-15	4.052101E-16
6.523820E+03	9.257426E-15	3.891072E-16
6.532660E+03	8.937899E-15	3.755134E-16
6.541510E+03	8.710231E-15	3.657832E-16
6.550370E+03	8.566372E-15	3.595740E-16
6.559250E+03	8.474386E-15	3.555411E-16
6.568130E+03	8.392709E-15	3.519388E-16
6.577030E+03	8.285600E-15	3.472685E-16
6.585940E+03	8.149244E-15	3.413721E-16
6.594860E+03	7.958540E-15	3.332012E-16
6.603800E+03	7.721315E-15	3.230871E-16
6.612740E+03	7.456233E-15	3.118144E-16
6.621700E+03	7.195610E-15	3.007361E-16
6.630670E+03	6.959720E-15	2.906993E-16
6.639650E+03	6.764021E-15	2.823477E-16
6.648650E+03	6.580402E-15	2.745059E-16
6.657660E+03	6.419903E-15	2.676335E-16
6.666680E+03	6.261438E-15	2.608507E-16
6.675710E+03	6.092353E-15	2.536306E-16
6.684750E+03	5.899584E-15	2.454312E-16
6.693810E+03	5.676294E-15	2.359705E-16
6.702880E+03	5.419055E-15	2.251094E-16
6.711960E+03	5.136089E-15	2.131930E-16
