#wls	flux	fluxerr
1.600000E+03	3.736384E-16	7.496685E-18
1.640000E+03	3.759462E-16	7.536809E-18
1.680000E+03	3.786714E-16	7.585083E-18
1.720000E+03	3.817196E-16	7.639591E-18
1.760000E+03	3.852736E-16	7.703969E-18
1.800000E+03	3.893173E-16	7.777861E-18
1.840000E+03	3.939097E-16	7.862412E-18
1.880000E+03	3.991171E-16	7.958909E-18
1.920000E+03	4.050144E-16	8.068805E-18
1.960000E+03	4.116875E-16	8.193757E-18
2.000000E+03	4.192338E-16	8.335652E-18
2.040000E+03	4.277650E-16	8.496644E-18
2.080000E+03	4.374094E-16	8.679208E-18
2.120000E+03	4.483147E-16	8.886194E-18
2.160000E+03	4.606518E-16	9.120891E-18
2.200000E+03	4.746189E-16	9.387113E-18
2.240000E+03	4.905350E-16	9.691037E-18
2.280000E+03	5.084978E-16	1.003444E-17
2.320000E+03	5.290039E-16	1.042696E-17
2.360000E+03	5.522420E-16	1.087211E-17
2.400000E+03	5.788478E-16	1.138216E-17
2.440000E+03	6.091440E-16	1.196319E-17
2.480000E+03	6.439673E-16	1.263131E-17
2.520000E+03	6.839618E-16	1.339876E-17
2.560000E+03	7.298914E-16	1.428006E-17
2.600000E+03	7.830799E-16	1.530057E-17
2.640000E+03	8.446951E-16	1.648246E-17
2.680000E+03	9.162885E-16	1.785525E-17
2.720000E+03	9.997274E-16	1.945441E-17
2.760000E+03	1.097256E-15	2.132251E-17
2.800000E+03	1.211563E-15	2.351050E-17
2.840000E+03	1.345854E-15	2.607899E-17
2.880000E+03	1.503921E-15	2.909955E-17
2.920000E+03	1.690484E-15	3.266126E-17
2.960000E+03	1.910052E-15	3.684850E-17
3.000000E+03	2.168525E-15	4.177189E-17
3.010000E+03	2.240019E-15	4.313269E-17
3.020000E+03	2.314422E-15	4.454839E-17
3.030000E+03	2.391401E-15	4.601254E-17
3.040000E+03	2.471884E-15	4.754290E-17
3.050000E+03	2.555551E-15	4.913325E-17
3.060000E+03	2.642487E-15	5.078515E-17
3.070000E+03	2.732776E-15	5.250014E-17
3.080000E+03	2.826493E-15	5.427957E-17
3.090000E+03	2.923187E-15	5.611473E-17
3.100000E+03	3.023932E-15	5.802612E-17
3.110000E+03	3.128259E-15	6.000468E-17
3.120000E+03	3.236145E-15	6.204987E-17
3.130000E+03	3.347431E-15	6.415857E-17
3.140000E+03	3.461719E-15	6.632305E-17
3.150000E+03	3.578366E-15	6.853096E-17
3.160000E+03	3.695763E-15	7.075142E-17
3.170000E+03	3.813845E-15	7.298316E-17
3.180000E+03	3.930319E-15	7.518231E-17
3.190000E+03	4.043393E-15	7.731465E-17
3.200000E+03	4.151298E-15	7.934641E-17
3.210000E+03	4.252376E-15	8.124605E-17
3.220000E+03	4.345309E-15	8.298855E-17
3.230000E+03	4.428590E-15	8.454531E-17
3.240000E+03	4.503577E-15	8.594249E-17
3.250000E+03	4.569819E-15	8.717166E-17
3.260000E+03	4.628210E-15	8.825006E-17
3.270000E+03	4.680052E-15	8.920271E-17
3.280000E+03	4.726824E-15	9.005790E-17
3.290000E+03	4.770062E-15	9.084505E-17
3.300000E+03	4.811283E-15	9.159309E-17
3.310000E+03	4.850988E-15	9.231161E-17
3.320000E+03	4.891965E-15	9.305367E-17
3.330000E+03	4.934209E-15	9.381915E-17
3.340000E+03	4.978319E-15	9.461943E-17
3.350000E+03	5.024602E-15	9.546026E-17
3.360000E+03	5.073124E-15	9.634286E-17
3.370000E+03	5.123738E-15	9.726440E-17
3.380000E+03	5.176057E-15	9.821750E-17
3.390000E+03	5.228566E-15	9.917336E-17
3.400000E+03	5.282291E-15	1.001514E-16
3.410000E+03	5.335264E-15	1.011144E-16
3.420000E+03	5.386255E-15	1.020390E-16
3.430000E+03	5.433975E-15	1.029008E-16
3.440000E+03	5.477128E-15	1.036754E-16
3.450000E+03	5.514469E-15	1.043394E-16
3.460000E+03	5.544964E-15	1.048733E-16
3.470000E+03	5.567954E-15	1.052649E-16
3.480000E+03	5.583117E-15	1.055082E-16
3.490000E+03	5.589604E-15	1.055873E-16
3.500000E+03	5.590149E-15	1.055542E-16
3.510000E+03	5.584986E-15	1.054133E-16
3.520000E+03	5.575665E-15	1.051940E-16
3.530000E+03	5.564087E-15	1.049324E-16
3.540000E+03	5.552241E-15	1.046659E-16
3.550000E+03	5.541880E-15	1.044276E-16
3.560000E+03	5.534356E-15	1.042429E-16
3.570000E+03	5.530546E-15	1.041282E-16
3.580000E+03	5.530751E-15	1.040892E-16
3.590000E+03	5.533601E-15	1.041000E-16
3.600000E+03	5.540028E-15	1.041781E-16
3.610000E+03	5.547523E-15	1.042762E-16
3.620000E+03	5.554054E-15	1.043560E-16
3.630000E+03	5.557156E-15	1.043714E-16
3.640000E+03	5.554028E-15	1.042699E-16
3.650000E+03	5.541633E-15	1.039946E-16
3.660000E+03	5.516838E-15	1.034869E-16
3.670000E+03	5.476621E-15	1.026904E-16
3.680000E+03	5.418288E-15	1.015551E-16
3.690000E+03	5.338676E-15	1.000221E-16
3.700000E+03	5.238066E-15	9.809709E-17
3.710000E+03	5.114692E-15	9.574757E-17
3.720000E+03	4.968777E-15	9.297820E-17
3.730000E+03	4.801947E-15	8.981991E-17
3.740000E+03	4.617439E-15	8.633368E-17
3.750000E+03	4.419901E-15	8.260681E-17
3.760000E+03	4.215476E-15	7.875432E-17
3.770000E+03	4.011707E-15	7.491725E-17
3.780000E+03	3.816436E-15	7.124195E-17
3.790000E+03	3.636379E-15	6.785354E-17
3.800000E+03	3.479487E-15	6.489995E-17
3.810000E+03	3.350705E-15	6.247291E-17
3.820000E+03	3.254317E-15	6.065159E-17
3.830000E+03	3.193374E-15	5.949209E-17
3.840000E+03	3.170287E-15	5.903854E-17
3.850000E+03	3.187147E-15	5.932903E-17
3.860000E+03	3.245765E-15	6.039638E-17
3.870000E+03	3.347937E-15	6.227305E-17
3.880000E+03	3.495326E-15	6.498906E-17
3.890000E+03	3.688306E-15	6.855034E-17
3.900000E+03	3.928185E-15	7.298026E-17
3.910000E+03	4.212850E-15	7.823855E-17
3.920000E+03	4.538240E-15	8.424890E-17
3.930000E+03	4.897338E-15	9.088022E-17
3.940000E+03	5.280429E-15	9.795165E-17
3.950000E+03	5.675665E-15	1.052430E-16
3.960000E+03	6.069545E-15	1.125038E-16
3.970000E+03	6.448204E-15	1.194772E-16
3.980000E+03	6.798096E-15	1.259128E-16
3.990000E+03	7.111501E-15	1.316681E-16
4.000000E+03	7.380181E-15	1.365916E-16
4.010000E+03	7.600676E-15	1.406201E-16
4.020000E+03	7.772963E-15	1.437544E-16
4.030000E+03	7.899840E-15	1.460470E-16
4.040000E+03	7.986412E-15	1.475935E-16
4.050000E+03	8.039393E-15	1.485185E-16
4.060000E+03	8.065021E-15	1.489380E-16
4.070000E+03	8.074129E-15	1.490525E-16
4.080000E+03	8.073111E-15	1.489804E-16
4.090000E+03	8.068978E-15	1.488512E-16
4.100000E+03	8.067548E-15	1.487723E-16
4.110000E+03	8.073229E-15	1.488248E-16
4.120000E+03	8.088682E-15	1.490577E-16
4.130000E+03	8.113243E-15	1.494586E-16
4.140000E+03	8.149260E-15	1.500706E-16
4.150000E+03	8.194589E-15	1.508539E-16
4.160000E+03	8.248844E-15	1.518014E-16
4.170000E+03	8.312175E-15	1.529155E-16
4.180000E+03	8.385271E-15	1.542089E-16
4.190000E+03	8.469291E-15	1.557027E-16
4.200000E+03	8.564098E-15	1.573942E-16
4.210000E+03	8.673621E-15	1.593554E-16
4.220000E+03	8.796443E-15	1.615601E-16
4.230000E+03	8.931743E-15	1.639929E-16
4.240000E+03	9.078091E-15	1.666275E-16
4.250000E+03	9.233500E-15	1.694272E-16
4.260000E+03	9.393433E-15	1.723087E-16
4.270000E+03	9.556625E-15	1.752488E-16
4.280000E+03	9.714993E-15	1.780992E-16
4.290000E+03	9.860611E-15	1.807148E-16
4.300000E+03	9.985036E-15	1.829412E-16
4.310000E+03	1.007850E-14	1.845997E-16
4.320000E+03	1.013817E-14	1.856393E-16
4.330000E+03	1.015973E-14	1.859812E-16
4.340000E+03	1.014580E-14	1.856743E-16
4.350000E+03	1.010326E-14	1.848446E-16
4.360000E+03	1.004163E-14	1.836670E-16
4.370000E+03	9.970302E-15	1.823133E-16
4.380000E+03	9.904130E-15	1.810554E-16
4.390000E+03	9.851324E-15	1.800431E-16
4.400000E+03	9.818487E-15	1.793969E-16
4.410000E+03	9.807226E-15	1.791460E-16
4.420000E+03	9.823432E-15	1.793975E-16
4.430000E+03	9.868972E-15	1.801852E-16
4.440000E+03	9.948240E-15	1.815889E-16
4.450000E+03	1.006590E-14	1.836933E-16
4.460000E+03	1.022481E-14	1.865501E-16
4.470000E+03	1.043193E-14	1.902858E-16
4.480000E+03	1.068550E-14	1.948675E-16
4.490000E+03	1.097991E-14	2.001928E-16
4.500000E+03	1.130222E-14	2.060250E-16
4.510000E+03	1.164014E-14	2.121401E-16
4.520000E+03	1.197046E-14	2.181149E-16
4.530000E+03	1.226807E-14	2.234922E-16
4.540000E+03	1.250469E-14	2.277574E-16
4.550000E+03	1.266050E-14	2.305500E-16
4.560000E+03	1.271401E-14	2.314799E-16
4.570000E+03	1.265436E-14	2.303505E-16
4.580000E+03	1.247961E-14	2.271275E-16
4.590000E+03	1.220404E-14	2.220718E-16
4.600000E+03	1.184239E-14	2.154528E-16
4.610000E+03	1.141634E-14	2.076653E-16
4.620000E+03	1.094734E-14	1.991000E-16
4.630000E+03	1.046138E-14	1.902300E-16
4.640000E+03	9.975540E-15	1.813657E-16
4.650000E+03	9.503902E-15	1.727631E-16
4.660000E+03	9.062193E-15	1.647077E-16
4.670000E+03	8.657672E-15	1.573312E-16
4.680000E+03	8.295148E-15	1.507205E-16
4.690000E+03	7.981337E-15	1.449972E-16
4.700000E+03	7.716192E-15	1.401600E-16
4.710000E+03	7.498232E-15	1.361816E-16
4.720000E+03	7.328501E-15	1.330805E-16
4.730000E+03	7.202598E-15	1.307765E-16
4.740000E+03	7.115293E-15	1.291742E-16
4.750000E+03	7.064520E-15	1.282358E-16
4.760000E+03	7.044025E-15	1.278475E-16
4.770000E+03	7.047432E-15	1.278935E-16
4.780000E+03	7.072390E-15	1.283309E-16
4.790000E+03	7.113612E-15	1.290636E-16
4.800000E+03	7.166309E-15	1.300047E-16
4.810000E+03	7.229582E-15	1.311377E-16
4.820000E+03	7.298849E-15	1.323795E-16
4.830000E+03	7.369372E-15	1.336442E-16
4.840000E+03	7.439804E-15	1.349073E-16
4.850000E+03	7.504418E-15	1.360650E-16
4.860000E+03	7.557457E-15	1.370130E-16
4.870000E+03	7.597942E-15	1.377336E-16
4.880000E+03	7.621195E-15	1.381420E-16
4.890000E+03	7.629718E-15	1.382836E-16
4.900000E+03	7.624736E-15	1.381809E-16
4.910000E+03	7.610454E-15	1.379099E-16
4.920000E+03	7.596655E-15	1.376481E-16
4.930000E+03	7.587724E-15	1.374748E-16
4.940000E+03	7.591909E-15	1.375395E-16
4.950000E+03	7.611257E-15	1.378792E-16
4.960000E+03	7.644007E-15	1.384618E-16
4.970000E+03	7.687523E-15	1.392397E-16
4.980000E+03	7.730961E-15	1.400164E-16
4.990000E+03	7.768799E-15	1.406918E-16
5.000000E+03	7.792320E-15	1.411082E-16
5.010000E+03	7.801195E-15	1.412596E-16
5.020000E+03	7.793842E-15	1.411174E-16
5.030000E+03	7.778937E-15	1.408388E-16
5.040000E+03	7.764781E-15	1.405740E-16
5.050000E+03	7.761685E-15	1.405099E-16
5.060000E+03	7.784888E-15	1.409220E-16
5.070000E+03	7.843879E-15	1.419821E-16
5.080000E+03	7.951223E-15	1.439176E-16
5.090000E+03	8.110242E-15	1.467885E-16
5.100000E+03	8.325896E-15	1.506843E-16
5.110000E+03	8.592917E-15	1.555097E-16
5.120000E+03	8.905778E-15	1.611644E-16
5.130000E+03	9.247905E-15	1.673485E-16
5.140000E+03	9.605757E-15	1.738169E-16
5.150000E+03	9.957971E-15	1.801830E-16
5.160000E+03	1.028974E-14	1.861791E-16
5.170000E+03	1.058156E-14	1.914522E-16
5.180000E+03	1.082546E-14	1.958582E-16
5.190000E+03	1.101071E-14	1.992032E-16
5.200000E+03	1.113772E-14	2.014948E-16
5.210000E+03	1.120251E-14	2.026609E-16
5.220000E+03	1.120922E-14	2.027765E-16
5.230000E+03	1.116343E-14	2.019427E-16
5.240000E+03	1.106557E-14	2.001675E-16
5.250000E+03	1.092414E-14	1.976043E-16
5.260000E+03	1.074031E-14	1.942749E-16
5.270000E+03	1.052300E-14	1.903400E-16
5.280000E+03	1.027380E-14	1.858291E-16
5.290000E+03	9.999788E-15	1.808696E-16
5.300000E+03	9.707778E-15	1.755850E-16
5.310000E+03	9.399536E-15	1.700073E-16
5.320000E+03	9.083645E-15	1.642917E-16
5.330000E+03	8.762448E-15	1.584805E-16
5.340000E+03	8.444572E-15	1.527296E-16
5.350000E+03	8.132498E-15	1.470841E-16
5.360000E+03	7.832951E-15	1.416654E-16
5.370000E+03	7.552022E-15	1.365837E-16
5.380000E+03	7.291228E-15	1.318664E-16
5.390000E+03	7.055351E-15	1.275999E-16
5.400000E+03	6.848378E-15	1.238564E-16
5.410000E+03	6.670191E-15	1.206337E-16
5.420000E+03	6.524858E-15	1.180053E-16
5.430000E+03	6.411346E-15	1.159526E-16
5.440000E+03	6.331400E-15	1.145071E-16
5.450000E+03	6.285888E-15	1.136844E-16
5.460000E+03	6.271463E-15	1.134242E-16
5.470000E+03	6.286548E-15	1.136977E-16
5.480000E+03	6.327548E-15	1.144401E-16
5.490000E+03	6.385733E-15	1.154934E-16
5.500000E+03	6.453760E-15	1.167249E-16
5.510000E+03	6.522428E-15	1.179681E-16
5.520000E+03	6.578125E-15	1.189768E-16
5.530000E+03	6.610867E-15	1.195704E-16
5.540000E+03	6.611084E-15	1.195759E-16
5.550000E+03	6.572736E-15	1.188839E-16
5.560000E+03	6.489786E-15	1.173852E-16
5.570000E+03	6.363633E-15	1.151051E-16
5.580000E+03	6.198900E-15	1.121272E-16
5.590000E+03	5.999102E-15	1.085149E-16
5.600000E+03	5.772195E-15	1.044123E-16
5.610000E+03	5.525360E-15	9.994901E-17
5.620000E+03	5.266132E-15	9.526145E-17
5.630000E+03	4.998254E-15	9.041730E-17
5.640000E+03	4.727468E-15	8.552039E-17
5.650000E+03	4.458131E-15	8.064953E-17
5.660000E+03	4.195041E-15	7.589154E-17
5.670000E+03	3.940619E-15	7.129020E-17
5.680000E+03	3.699513E-15	6.692959E-17
5.690000E+03	3.475623E-15	6.288029E-17
5.700000E+03	3.273148E-15	5.921828E-17
5.710000E+03	3.094169E-15	5.598124E-17
5.720000E+03	2.942117E-15	5.323126E-17
5.730000E+03	2.819280E-15	5.100978E-17
5.740000E+03	2.727741E-15	4.935448E-17
5.750000E+03	2.667535E-15	4.826605E-17
5.760000E+03	2.639666E-15	4.776268E-17
5.770000E+03	2.644110E-15	4.784398E-17
5.780000E+03	2.680081E-15	4.849576E-17
5.790000E+03	2.746582E-15	4.969998E-17
5.800000E+03	2.840382E-15	5.139823E-17
5.810000E+03	2.958367E-15	5.353415E-17
5.820000E+03	3.095560E-15	5.601772E-17
5.830000E+03	3.245634E-15	5.873446E-17
5.840000E+03	3.400973E-15	6.154654E-17
5.850000E+03	3.553517E-15	6.430811E-17
5.860000E+03	3.693008E-15	6.683350E-17
5.870000E+03	3.811460E-15	6.897818E-17
5.880000E+03	3.901399E-15	7.060685E-17
5.890000E+03	3.957054E-15	7.161504E-17
5.900000E+03	3.974972E-15	7.194026E-17
5.910000E+03	3.954156E-15	7.156440E-17
5.920000E+03	3.896631E-15	7.052408E-17
5.930000E+03	3.804556E-15	6.885840E-17
5.940000E+03	3.683863E-15	6.667465E-17
5.950000E+03	3.541092E-15	6.409120E-17
5.960000E+03	3.383576E-15	6.124081E-17
5.970000E+03	3.218822E-15	5.825929E-17
5.980000E+03	3.054005E-15	5.527656E-17
5.990000E+03	2.895660E-15	5.241088E-17
6.000000E+03	2.749363E-15	4.976318E-17
6.010000E+03	2.620003E-15	4.742197E-17
6.020000E+03	2.510026E-15	4.543154E-17
6.030000E+03	2.422401E-15	4.384562E-17
6.040000E+03	2.358955E-15	4.269729E-17
6.050000E+03	2.321039E-15	4.201101E-17
6.060000E+03	2.309899E-15	4.180935E-17
6.070000E+03	2.326933E-15	4.211759E-17
6.080000E+03	2.373851E-15	4.296666E-17
6.090000E+03	2.452986E-15	4.439883E-17
6.100000E+03	2.567611E-15	4.647330E-17
6.110000E+03	2.722180E-15	4.927065E-17
6.120000E+03	2.922591E-15	5.289764E-17
6.130000E+03	3.176475E-15	5.749233E-17
6.140000E+03	3.493468E-15	6.322911E-17
6.150000E+03	3.885374E-15	7.032153E-17
6.160000E+03	4.366030E-15	7.901999E-17
6.170000E+03	4.950843E-15	8.960322E-17
6.180000E+03	5.656009E-15	1.023642E-16
6.190000E+03	6.496881E-15	1.175807E-16
6.200000E+03	7.485188E-15	1.354648E-16
6.210000E+03	8.625768E-15	1.561038E-16
6.220000E+03	9.912692E-15	1.793902E-16
6.230000E+03	1.132501E-14	2.049447E-16
6.240000E+03	1.282365E-14	2.320597E-16
6.250000E+03	1.435118E-14	2.596961E-16
6.260000E+03	1.583502E-14	2.865403E-16
6.270000E+03	1.719350E-14	3.111142E-16
6.280000E+03	1.834557E-14	3.319516E-16
6.290000E+03	1.922266E-14	3.478118E-16
6.300000E+03	1.977769E-14	3.578436E-16
6.310000E+03	1.999118E-14	3.616947E-16
6.320000E+03	1.987345E-14	3.595527E-16
6.330000E+03	1.946059E-14	3.520709E-16
6.340000E+03	1.880706E-14	3.402355E-16
6.350000E+03	1.797728E-14	3.252119E-16
6.360000E+03	1.703638E-14	3.081789E-16
6.370000E+03	1.604256E-14	2.901896E-16
6.380000E+03	1.504267E-14	2.720915E-16
6.390000E+03	1.407157E-14	2.545153E-16
6.400000E+03	1.315269E-14	2.378848E-16
6.410000E+03	1.229939E-14	2.224415E-16
6.420000E+03	1.151774E-14	2.082949E-16
6.430000E+03	1.080891E-14	1.954664E-16
6.440000E+03	1.017087E-14	1.839191E-16
6.450000E+03	9.597970E-15	1.735504E-16
6.460000E+03	9.088359E-15	1.643269E-16
6.470000E+03	8.634439E-15	1.561111E-16
6.480000E+03	8.230204E-15	1.487942E-16
6.490000E+03	7.869839E-15	1.422710E-16
6.500000E+03	7.547828E-15	1.364417E-16
6.510000E+03	7.259030E-15	1.312133E-16
6.520000E+03	6.998676E-15	1.264994E-16
6.530000E+03	6.762301E-15	1.222193E-16
6.540000E+03	6.545703E-15	1.182970E-16
6.550000E+03	6.343800E-15	1.146406E-16
6.560000E+03	6.154969E-15	1.112208E-16
6.570000E+03	5.974501E-15	1.079523E-16
6.580000E+03	5.799126E-15	1.047762E-16
6.590000E+03	5.625930E-15	1.016398E-16
6.600000E+03	5.452372E-15	9.849714E-17
6.610000E+03	5.276295E-15	9.530930E-17
6.620000E+03	5.095060E-15	9.202864E-17
6.630000E+03	4.909091E-15	8.866286E-17
6.640000E+03	4.716549E-15	8.517877E-17
6.650000E+03	4.516932E-15	8.156738E-17
6.660000E+03	4.310231E-15	7.782853E-17
6.670000E+03	4.096981E-15	7.397193E-17
6.680000E+03	3.877614E-15	7.000544E-17
6.690000E+03	3.655113E-15	6.598295E-17
6.700000E+03	3.430876E-15	6.192973E-17
6.710000E+03	3.207400E-15	5.789085E-17
6.720000E+03	2.987409E-15	5.391551E-17
6.730000E+03	2.773717E-15	5.005447E-17
6.740000E+03	2.568645E-15	4.634960E-17
6.750000E+03	2.375625E-15	4.286279E-17
6.760000E+03	2.196329E-15	3.962418E-17
6.770000E+03	2.032483E-15	3.666483E-17
6.780000E+03	1.885308E-15	3.400669E-17
6.790000E+03	1.755186E-15	3.165658E-17
6.800000E+03	1.642948E-15	2.962942E-17
6.810000E+03	1.548131E-15	2.791676E-17
6.820000E+03	1.470334E-15	2.651130E-17
6.830000E+03	1.408986E-15	2.540264E-17
6.840000E+03	1.363257E-15	2.457574E-17
6.850000E+03	1.333089E-15	2.402950E-17
6.860000E+03	1.317815E-15	2.375178E-17
6.870000E+03	1.317150E-15	2.373737E-17
6.880000E+03	1.330715E-15	2.397937E-17
6.890000E+03	1.358895E-15	2.448464E-17
6.900000E+03	1.401454E-15	2.524883E-17
6.910000E+03	1.458356E-15	2.627123E-17
6.920000E+03	1.529166E-15	2.754391E-17
6.930000E+03	1.614014E-15	2.906913E-17
6.940000E+03	1.712004E-15	3.083069E-17
6.950000E+03	1.822164E-15	3.281098E-17
6.960000E+03	1.942836E-15	3.498009E-17
6.970000E+03	2.073066E-15	3.732079E-17
6.980000E+03	2.210804E-15	3.979612E-17
6.990000E+03	2.354249E-15	4.237359E-17
7.000000E+03	2.501229E-15	4.501410E-17
7.010000E+03	2.651076E-15	4.770561E-17
7.020000E+03	2.802185E-15	5.041922E-17
7.030000E+03	2.953150E-15	5.312960E-17
7.040000E+03	3.104371E-15	5.584400E-17
7.050000E+03	3.255095E-15	5.854881E-17
7.060000E+03	3.405328E-15	6.124420E-17
7.070000E+03	3.554711E-15	6.392369E-17
7.080000E+03	3.704980E-15	6.661850E-17
7.090000E+03	3.856456E-15	6.933440E-17
7.100000E+03	4.009791E-15	7.208313E-17
7.110000E+03	4.168215E-15	7.492270E-17
7.120000E+03	4.333634E-15	7.788737E-17
7.130000E+03	4.508658E-15	8.102398E-17
7.140000E+03	4.699001E-15	8.443518E-17
7.150000E+03	4.908886E-15	8.819674E-17
7.160000E+03	5.143960E-15	9.241001E-17
7.170000E+03	5.409293E-15	9.716590E-17
7.180000E+03	5.712348E-15	1.025983E-16
7.190000E+03	6.056737E-15	1.087718E-16
7.200000E+03	6.444023E-15	1.157143E-16
7.210000E+03	6.876049E-15	1.234587E-16
7.220000E+03	7.345758E-15	1.318780E-16
7.230000E+03	7.845629E-15	1.408370E-16
7.240000E+03	8.358968E-15	1.500359E-16
7.250000E+03	8.863033E-15	1.590664E-16
7.260000E+03	9.334688E-15	1.675136E-16
7.270000E+03	9.743807E-15	1.748370E-16
7.280000E+03	1.006057E-14	1.805020E-16
7.290000E+03	1.026387E-14	1.841306E-16
7.300000E+03	1.033441E-14	1.853772E-16
7.310000E+03	1.026264E-14	1.840712E-16
7.320000E+03	1.005463E-14	1.803223E-16
7.330000E+03	9.720679E-15	1.743159E-16
7.340000E+03	9.279156E-15	1.663821E-16
7.350000E+03	8.758181E-15	1.570255E-16
7.360000E+03	8.181164E-15	1.466662E-16
7.370000E+03	7.576571E-15	1.358148E-16
7.380000E+03	6.965483E-15	1.248492E-16
7.390000E+03	6.365162E-15	1.140787E-16
7.400000E+03	5.791596E-15	1.037898E-16
7.410000E+03	5.252022E-15	9.411203E-17
7.420000E+03	4.753839E-15	8.517770E-17
7.430000E+03	4.298431E-15	7.701141E-17
7.440000E+03	3.885326E-15	6.960445E-17
7.450000E+03	3.514714E-15	6.296000E-17
7.460000E+03	3.183223E-15	5.701748E-17
7.470000E+03	2.889446E-15	5.175144E-17
7.480000E+03	2.629574E-15	4.709354E-17
7.490000E+03	2.401789E-15	4.301100E-17
7.500000E+03	2.202941E-15	3.944731E-17
7.510000E+03	2.030211E-15	3.635185E-17
7.520000E+03	1.882074E-15	3.369722E-17
7.530000E+03	1.755884E-15	3.143592E-17
7.540000E+03	1.650603E-15	2.954929E-17
7.550000E+03	1.564292E-15	2.800255E-17
7.560000E+03	1.496452E-15	2.678668E-17
7.570000E+03	1.446014E-15	2.588250E-17
7.580000E+03	1.412179E-15	2.527565E-17
7.590000E+03	1.395138E-15	2.496950E-17
7.600000E+03	1.394363E-15	2.495456E-17
7.610000E+03	1.410516E-15	2.524265E-17
7.620000E+03	1.443469E-15	2.583144E-17
7.630000E+03	1.494168E-15	2.673781E-17
7.640000E+03	1.562489E-15	2.795957E-17
7.650000E+03	1.649080E-15	2.950827E-17
7.660000E+03	1.752953E-15	3.136622E-17
7.670000E+03	1.873379E-15	3.352037E-17
7.680000E+03	2.007197E-15	3.591420E-17
7.690000E+03	2.151080E-15	3.848818E-17
7.700000E+03	2.298723E-15	4.112953E-17
7.710000E+03	2.443827E-15	4.372558E-17
7.720000E+03	2.577969E-15	4.612563E-17
7.730000E+03	2.692449E-15	4.817410E-17
7.740000E+03	2.780628E-15	4.975219E-17
7.750000E+03	2.835750E-15	5.073903E-17
7.760000E+03	2.855650E-15	5.109591E-17
