#wls	flux	fluxerr
1.600000E+03	1.606769E-16	4.219284E-18
1.640000E+03	1.646921E-16	4.306189E-18
1.680000E+03	1.688804E-16	4.396291E-18
1.720000E+03	1.732514E-16	4.489749E-18
1.760000E+03	1.778155E-16	4.586727E-18
1.800000E+03	1.825831E-16	4.687392E-18
1.840000E+03	1.875515E-16	4.791560E-18
1.880000E+03	1.927316E-16	4.899391E-18
1.920000E+03	1.981645E-16	5.011800E-18
1.960000E+03	2.038185E-16	5.127852E-18
2.000000E+03	2.097356E-16	5.248464E-18
2.040000E+03	2.159138E-16	5.373434E-18
2.080000E+03	2.223819E-16	5.503315E-18
2.120000E+03	2.291215E-16	5.637489E-18
2.160000E+03	2.361777E-16	5.776887E-18
2.200000E+03	2.435645E-16	5.921662E-18
2.240000E+03	2.512790E-16	6.071540E-18
2.280000E+03	2.593509E-16	6.227034E-18
2.320000E+03	2.678111E-16	6.388659E-18
2.360000E+03	2.766547E-16	6.556062E-18
2.400000E+03	2.859487E-16	6.730578E-18
2.440000E+03	2.956869E-16	6.911787E-18
2.480000E+03	3.058987E-16	7.100094E-18
2.520000E+03	3.166126E-16	7.295862E-18
2.560000E+03	3.278763E-16	7.499868E-18
2.600000E+03	3.396952E-16	7.711896E-18
2.640000E+03	3.521122E-16	7.932567E-18
2.680000E+03	3.651461E-16	8.161932E-18
2.720000E+03	3.788095E-16	8.399887E-18
2.760000E+03	3.931070E-16	8.646144E-18
2.800000E+03	4.080323E-16	8.900177E-18
2.840000E+03	4.236143E-16	9.162222E-18
2.880000E+03	4.398186E-16	9.431145E-18
2.920000E+03	4.565887E-16	9.705369E-18
2.960000E+03	4.738648E-16	9.983298E-18
3.000000E+03	4.915266E-16	1.026212E-17
3.010000E+03	4.959997E-16	1.033189E-17
3.020000E+03	5.004735E-16	1.040121E-17
3.030000E+03	5.049704E-16	1.047055E-17
3.040000E+03	5.094601E-16	1.053928E-17
3.050000E+03	5.139648E-16	1.060785E-17
3.060000E+03	5.184800E-16	1.067618E-17
3.070000E+03	5.229740E-16	1.074361E-17
3.080000E+03	5.274685E-16	1.081059E-17
3.090000E+03	5.319577E-16	1.087700E-17
3.100000E+03	5.364086E-16	1.094217E-17
3.110000E+03	5.408694E-16	1.100709E-17
3.120000E+03	5.452785E-16	1.107050E-17
3.130000E+03	5.496559E-16	1.113282E-17
3.140000E+03	5.539663E-16	1.119335E-17
3.150000E+03	5.582563E-16	1.125303E-17
3.160000E+03	5.624891E-16	1.131112E-17
3.170000E+03	5.666553E-16	1.136746E-17
3.180000E+03	5.707166E-16	1.142127E-17
3.190000E+03	5.747169E-16	1.147346E-17
3.200000E+03	5.786164E-16	1.152325E-17
3.210000E+03	5.824018E-16	1.157037E-17
3.220000E+03	5.860863E-16	1.161513E-17
3.230000E+03	5.895988E-16	1.165612E-17
3.240000E+03	5.929777E-16	1.169413E-17
3.250000E+03	5.961765E-16	1.172827E-17
3.260000E+03	5.992026E-16	1.175871E-17
3.270000E+03	6.019789E-16	1.178396E-17
3.280000E+03	6.045645E-16	1.180523E-17
3.290000E+03	6.068791E-16	1.182098E-17
3.300000E+03	6.088964E-16	1.183073E-17
3.310000E+03	6.106167E-16	1.183455E-17
3.320000E+03	6.119853E-16	1.183141E-17
3.330000E+03	6.130036E-16	1.182140E-17
3.340000E+03	6.136501E-16	1.180415E-17
3.350000E+03	6.139113E-16	1.177948E-17
3.360000E+03	6.137628E-16	1.174696E-17
3.370000E+03	6.132555E-16	1.170763E-17
3.380000E+03	6.124382E-16	1.166247E-17
3.390000E+03	6.113808E-16	1.161286E-17
3.400000E+03	6.101676E-16	1.156044E-17
3.410000E+03	6.088862E-16	1.150687E-17
3.420000E+03	6.076405E-16	1.145415E-17
3.430000E+03	6.064390E-16	1.140241E-17
3.440000E+03	6.053371E-16	1.135270E-17
3.450000E+03	6.043549E-16	1.130538E-17
3.460000E+03	6.034037E-16	1.125878E-17
3.470000E+03	6.024850E-16	1.121293E-17
3.480000E+03	6.014324E-16	1.116473E-17
3.490000E+03	6.001918E-16	1.111321E-17
3.500000E+03	5.986459E-16	1.105623E-17
3.510000E+03	5.967524E-16	1.099305E-17
3.520000E+03	5.944926E-16	1.092338E-17
3.530000E+03	5.918858E-16	1.084763E-17
3.540000E+03	5.890636E-16	1.076825E-17
3.550000E+03	5.861769E-16	1.068804E-17
3.560000E+03	5.834994E-16	1.061198E-17
3.570000E+03	5.813688E-16	1.054616E-17
3.580000E+03	5.801495E-16	1.049710E-17
3.590000E+03	5.801728E-16	1.047066E-17
3.600000E+03	5.816749E-16	1.047092E-17
3.610000E+03	5.847121E-16	1.049869E-17
3.620000E+03	5.892788E-16	1.055365E-17
3.630000E+03	5.952504E-16	1.063337E-17
3.640000E+03	6.025032E-16	1.073546E-17
3.650000E+03	6.109168E-16	1.085759E-17
3.660000E+03	6.204047E-16	1.099809E-17
3.670000E+03	6.308340E-16	1.115445E-17
3.680000E+03	6.421646E-16	1.132585E-17
3.690000E+03	6.542810E-16	1.151014E-17
3.700000E+03	6.670657E-16	1.170514E-17
3.710000E+03	6.802701E-16	1.190643E-17
3.720000E+03	6.935557E-16	1.210803E-17
3.730000E+03	7.063654E-16	1.230025E-17
3.740000E+03	7.179684E-16	1.247045E-17
3.750000E+03	7.274809E-16	1.260348E-17
3.760000E+03	7.338882E-16	1.268210E-17
3.770000E+03	7.361651E-16	1.268903E-17
3.780000E+03	7.334825E-16	1.261058E-17
3.790000E+03	7.253996E-16	1.243984E-17
3.800000E+03	7.118559E-16	1.217646E-17
3.810000E+03	6.933500E-16	1.182968E-17
3.820000E+03	6.708722E-16	1.141699E-17
3.830000E+03	6.457559E-16	1.096153E-17
3.840000E+03	6.195564E-16	1.048998E-17
3.850000E+03	5.938834E-16	1.002964E-17
3.860000E+03	5.703201E-16	9.607109E-18
3.870000E+03	5.502713E-16	9.245715E-18
3.880000E+03	5.349154E-16	8.964745E-18
3.890000E+03	5.252477E-16	8.780229E-18
3.900000E+03	5.220668E-16	8.704745E-18
3.910000E+03	5.260322E-16	8.748432E-18
3.920000E+03	5.376748E-16	8.919180E-18
3.930000E+03	5.574267E-16	9.223162E-18
3.940000E+03	5.855086E-16	9.662994E-18
3.950000E+03	6.218981E-16	1.023725E-17
3.960000E+03	6.661880E-16	1.093821E-17
3.970000E+03	7.175145E-16	1.175073E-17
3.980000E+03	7.744823E-16	1.265114E-17
3.990000E+03	8.352037E-16	1.360800E-17
4.000000E+03	8.973955E-16	1.458374E-17
4.010000E+03	9.585102E-16	1.553689E-17
4.020000E+03	1.015945E-15	1.642554E-17
4.030000E+03	1.067341E-15	1.721211E-17
4.040000E+03	1.110694E-15	1.786512E-17
4.050000E+03	1.144577E-15	1.836272E-17
4.060000E+03	1.168229E-15	1.869388E-17
4.070000E+03	1.181478E-15	1.885718E-17
4.080000E+03	1.184782E-15	1.886116E-17
4.090000E+03	1.179131E-15	1.872278E-17
4.100000E+03	1.165811E-15	1.846351E-17
4.110000E+03	1.146426E-15	1.810963E-17
4.120000E+03	1.122534E-15	1.768643E-17
4.130000E+03	1.095682E-15	1.721877E-17
4.140000E+03	1.067218E-15	1.672814E-17
4.150000E+03	1.038160E-15	1.623062E-17
4.160000E+03	1.009289E-15	1.573846E-17
4.170000E+03	9.812068E-16	1.526101E-17
4.180000E+03	9.542807E-16	1.480386E-17
4.190000E+03	9.289075E-16	1.437299E-17
4.200000E+03	9.054176E-16	1.397331E-17
4.210000E+03	8.841168E-16	1.360931E-17
4.220000E+03	8.653196E-16	1.328553E-17
4.230000E+03	8.492922E-16	1.300576E-17
4.240000E+03	8.362900E-16	1.277356E-17
4.250000E+03	8.264355E-16	1.259044E-17
4.260000E+03	8.197628E-16	1.245655E-17
4.270000E+03	8.162442E-16	1.237107E-17
4.280000E+03	8.157310E-16	1.233141E-17
4.290000E+03	8.180317E-16	1.233432E-17
4.300000E+03	8.228517E-16	1.237503E-17
4.310000E+03	8.298975E-16	1.244888E-17
4.320000E+03	8.387621E-16	1.254950E-17
4.330000E+03	8.489418E-16	1.266918E-17
4.340000E+03	8.598320E-16	1.279878E-17
4.350000E+03	8.706545E-16	1.292666E-17
4.360000E+03	8.804396E-16	1.303848E-17
4.370000E+03	8.880611E-16	1.311773E-17
4.380000E+03	8.922805E-16	1.314643E-17
4.390000E+03	8.919471E-16	1.310803E-17
4.400000E+03	8.864516E-16	1.299414E-17
4.410000E+03	8.758798E-16	1.280658E-17
4.420000E+03	8.607629E-16	1.255367E-17
4.430000E+03	8.420370E-16	1.224952E-17
4.440000E+03	8.208503E-16	1.191118E-17
4.450000E+03	7.985135E-16	1.155788E-17
4.460000E+03	7.763812E-16	1.120929E-17
4.470000E+03	7.557646E-16	1.088426E-17
4.480000E+03	7.378467E-16	1.059961E-17
4.490000E+03	7.237139E-16	1.037061E-17
4.500000E+03	7.142515E-16	1.020950E-17
4.510000E+03	7.101691E-16	1.012589E-17
4.520000E+03	7.119846E-16	1.012656E-17
4.530000E+03	7.200262E-16	1.021555E-17
4.540000E+03	7.344608E-16	1.039457E-17
4.550000E+03	7.552420E-16	1.066229E-17
4.560000E+03	7.821570E-16	1.101507E-17
4.570000E+03	8.148353E-16	1.144707E-17
4.580000E+03	8.527422E-16	1.195021E-17
4.590000E+03	8.951522E-16	1.251383E-17
4.600000E+03	9.411504E-16	1.312473E-17
4.610000E+03	9.896157E-16	1.376697E-17
4.620000E+03	1.039180E-15	1.442133E-17
4.630000E+03	1.088296E-15	1.506631E-17
4.640000E+03	1.135277E-15	1.567867E-17
4.650000E+03	1.178362E-15	1.623441E-17
4.660000E+03	1.215873E-15	1.671088E-17
4.670000E+03	1.246275E-15	1.708759E-17
4.680000E+03	1.268352E-15	1.734863E-17
4.690000E+03	1.281303E-15	1.748391E-17
4.700000E+03	1.284835E-15	1.749035E-17
4.710000E+03	1.279207E-15	1.737238E-17
4.720000E+03	1.265219E-15	1.714175E-17
4.730000E+03	1.244217E-15	1.681743E-17
4.740000E+03	1.217951E-15	1.642368E-17
4.750000E+03	1.188507E-15	1.598907E-17
4.760000E+03	1.158148E-15	1.554424E-17
4.770000E+03	1.129104E-15	1.511916E-17
4.780000E+03	1.103246E-15	1.473865E-17
4.790000E+03	1.081410E-15	1.441358E-17
4.800000E+03	1.063057E-15	1.413637E-17
4.810000E+03	1.047103E-15	1.389233E-17
4.820000E+03	1.032537E-15	1.366782E-17
4.830000E+03	1.018644E-15	1.345329E-17
4.840000E+03	1.005083E-15	1.324416E-17
4.850000E+03	9.917896E-16	1.303955E-17
4.860000E+03	9.789854E-16	1.284234E-17
4.870000E+03	9.669445E-16	1.265605E-17
4.880000E+03	9.560279E-16	1.248533E-17
4.890000E+03	9.465222E-16	1.233380E-17
4.900000E+03	9.386430E-16	1.220415E-17
4.910000E+03	9.325210E-16	1.209793E-17
4.920000E+03	9.281848E-16	1.201534E-17
4.930000E+03	9.256791E-16	1.195681E-17
4.940000E+03	9.250291E-16	1.192251E-17
4.950000E+03	9.263142E-16	1.191331E-17
4.960000E+03	9.296675E-16	1.193075E-17
4.970000E+03	9.352566E-16	1.197682E-17
4.980000E+03	9.431622E-16	1.205235E-17
4.990000E+03	9.533444E-16	1.215666E-17
5.000000E+03	9.654705E-16	1.228534E-17
5.010000E+03	9.789034E-16	1.243015E-17
5.020000E+03	9.926383E-16	1.257826E-17
5.030000E+03	1.005384E-15	1.271333E-17
5.040000E+03	1.015693E-15	1.281718E-17
5.050000E+03	1.022182E-15	1.287258E-17
5.060000E+03	1.023730E-15	1.286577E-17
5.070000E+03	1.019675E-15	1.278880E-17
5.080000E+03	1.009956E-15	1.264135E-17
5.090000E+03	9.951449E-16	1.243100E-17
5.100000E+03	9.762832E-16	1.217110E-17
5.110000E+03	9.547756E-16	1.187943E-17
5.120000E+03	9.322018E-16	1.157577E-17
5.130000E+03	9.100886E-16	1.127914E-17
5.140000E+03	8.897994E-16	1.100633E-17
5.150000E+03	8.724636E-16	1.077116E-17
5.160000E+03	8.588592E-16	1.058299E-17
5.170000E+03	8.494180E-16	1.044687E-17
5.180000E+03	8.442218E-16	1.036350E-17
5.190000E+03	8.430557E-16	1.032996E-17
5.200000E+03	8.454500E-16	1.034023E-17
5.210000E+03	8.507861E-16	1.038653E-17
5.220000E+03	8.584088E-16	1.046068E-17
5.230000E+03	8.676800E-16	1.055477E-17
5.240000E+03	8.781223E-16	1.066293E-17
5.250000E+03	8.894254E-16	1.078132E-17
5.260000E+03	9.014483E-16	1.090820E-17
5.270000E+03	9.142326E-16	1.104404E-17
5.280000E+03	9.279021E-16	1.119030E-17
5.290000E+03	9.426532E-16	1.134932E-17
5.300000E+03	9.586495E-16	1.152302E-17
5.310000E+03	9.760386E-16	1.171311E-17
5.320000E+03	9.948465E-16	1.191985E-17
5.330000E+03	1.014942E-15	1.214162E-17
5.340000E+03	1.036044E-15	1.237500E-17
5.350000E+03	1.057666E-15	1.261419E-17
5.360000E+03	1.079137E-15	1.285117E-17
5.370000E+03	1.099608E-15	1.307592E-17
5.380000E+03	1.118166E-15	1.327764E-17
5.390000E+03	1.133848E-15	1.344508E-17
5.400000E+03	1.145813E-15	1.356841E-17
5.410000E+03	1.153475E-15	1.364093E-17
5.420000E+03	1.156589E-15	1.365997E-17
5.430000E+03	1.155422E-15	1.362888E-17
5.440000E+03	1.150693E-15	1.355636E-17
5.450000E+03	1.143666E-15	1.345743E-17
5.460000E+03	1.136126E-15	1.335316E-17
5.470000E+03	1.130319E-15	1.326994E-17
5.480000E+03	1.128851E-15	1.323827E-17
5.490000E+03	1.134266E-15	1.328780E-17
5.500000E+03	1.147681E-15	1.343135E-17
5.510000E+03	1.167653E-15	1.365180E-17
5.520000E+03	1.191567E-15	1.391841E-17
5.530000E+03	1.216842E-15	1.420094E-17
5.540000E+03	1.241264E-15	1.447356E-17
5.550000E+03	1.263096E-15	1.471608E-17
5.560000E+03	1.281221E-15	1.491557E-17
5.570000E+03	1.295111E-15	1.506602E-17
5.580000E+03	1.304724E-15	1.516705E-17
5.590000E+03	1.310473E-15	1.522357E-17
5.600000E+03	1.312986E-15	1.524294E-17
5.610000E+03	1.313060E-15	1.523449E-17
5.620000E+03	1.311432E-15	1.520679E-17
5.630000E+03	1.308771E-15	1.516762E-17
5.640000E+03	1.305521E-15	1.512213E-17
5.650000E+03	1.301976E-15	1.507371E-17
5.660000E+03	1.298172E-15	1.502278E-17
5.670000E+03	1.294023E-15	1.496832E-17
5.680000E+03	1.289311E-15	1.490781E-17
5.690000E+03	1.283747E-15	1.483789E-17
5.700000E+03	1.277001E-15	1.475476E-17
5.710000E+03	1.268720E-15	1.465431E-17
5.720000E+03	1.258581E-15	1.453285E-17
5.730000E+03	1.246294E-15	1.438700E-17
5.740000E+03	1.231639E-15	1.421424E-17
5.750000E+03	1.214557E-15	1.401388E-17
5.760000E+03	1.195142E-15	1.378701E-17
5.770000E+03	1.173745E-15	1.353765E-17
5.780000E+03	1.150923E-15	1.327225E-17
5.790000E+03	1.127427E-15	1.299941E-17
5.800000E+03	1.104050E-15	1.272828E-17
5.810000E+03	1.081622E-15	1.246840E-17
5.820000E+03	1.060873E-15	1.222815E-17
5.830000E+03	1.042431E-15	1.201474E-17
5.840000E+03	1.026736E-15	1.183325E-17
5.850000E+03	1.014090E-15	1.168710E-17
5.860000E+03	1.004556E-15	1.157701E-17
5.870000E+03	9.980435E-16	1.150195E-17
5.880000E+03	9.942969E-16	1.145894E-17
5.890000E+03	9.929576E-16	1.144384E-17
5.900000E+03	9.936129E-16	1.145190E-17
5.910000E+03	9.958409E-16	1.147826E-17
5.920000E+03	9.992434E-16	1.151832E-17
5.930000E+03	1.003503E-15	1.156843E-17
5.940000E+03	1.008344E-15	1.162541E-17
5.950000E+03	1.013567E-15	1.168696E-17
5.960000E+03	1.018994E-15	1.175102E-17
5.970000E+03	1.024431E-15	1.181537E-17
5.980000E+03	1.029703E-15	1.187797E-17
5.990000E+03	1.034517E-15	1.193547E-17
6.000000E+03	1.038515E-15	1.198369E-17
6.010000E+03	1.041234E-15	1.201733E-17
6.020000E+03	1.042151E-15	1.203030E-17
6.030000E+03	1.040725E-15	1.201637E-17
6.040000E+03	1.036558E-15	1.197091E-17
6.050000E+03	1.029472E-15	1.189184E-17
6.060000E+03	1.019572E-15	1.178037E-17
6.070000E+03	1.007218E-15	1.164059E-17
6.080000E+03	9.930592E-16	1.148000E-17
6.090000E+03	9.778918E-16	1.130779E-17
6.100000E+03	9.625972E-16	1.113413E-17
6.110000E+03	9.480093E-16	1.096867E-17
6.120000E+03	9.349078E-16	1.082042E-17
6.130000E+03	9.239414E-16	1.069692E-17
6.140000E+03	9.155850E-16	1.060368E-17
6.150000E+03	9.101632E-16	1.054449E-17
6.160000E+03	9.078438E-16	1.052132E-17
6.170000E+03	9.086414E-16	1.053440E-17
6.180000E+03	9.123687E-16	1.058157E-17
6.190000E+03	9.186786E-16	1.065886E-17
6.200000E+03	9.269827E-16	1.075948E-17
6.210000E+03	9.364805E-16	1.087416E-17
6.220000E+03	9.461368E-16	1.099090E-17
6.230000E+03	9.547887E-16	1.109618E-17
6.240000E+03	9.613254E-16	1.117709E-17
6.250000E+03	9.649185E-16	1.122394E-17
6.260000E+03	9.651573E-16	1.123192E-17
6.270000E+03	9.620280E-16	1.120080E-17
6.280000E+03	9.557919E-16	1.113359E-17
6.290000E+03	9.469600E-16	1.103617E-17
6.300000E+03	9.361552E-16	1.091576E-17
6.310000E+03	9.241253E-16	1.078105E-17
6.320000E+03	9.116072E-16	1.064060E-17
6.330000E+03	8.993096E-16	1.050269E-17
6.340000E+03	8.878189E-16	1.037416E-17
6.350000E+03	8.775505E-16	1.025989E-17
6.360000E+03	8.687756E-16	1.016306E-17
6.370000E+03	8.615965E-16	1.008490E-17
6.380000E+03	8.560072E-16	1.002537E-17
6.390000E+03	8.519488E-16	9.983805E-18
6.400000E+03	8.493523E-16	9.959436E-18
6.410000E+03	8.481855E-16	9.951913E-18
6.420000E+03	8.484488E-16	9.961271E-18
6.430000E+03	8.501929E-16	9.988137E-18
6.440000E+03	8.534315E-16	1.003270E-17
6.450000E+03	8.581673E-16	1.009501E-17
6.460000E+03	8.642913E-16	1.017382E-17
6.470000E+03	8.716029E-16	1.026679E-17
6.480000E+03	8.798210E-16	1.037063E-17
6.490000E+03	8.886375E-16	1.048171E-17
6.500000E+03	8.977528E-16	1.059650E-17
6.510000E+03	9.069321E-16	1.071224E-17
6.520000E+03	9.160797E-16	1.082777E-17
6.530000E+03	9.252471E-16	1.094371E-17
6.540000E+03	9.343599E-16	1.105916E-17
6.550000E+03	9.432013E-16	1.117155E-17
6.560000E+03	9.516439E-16	1.127934E-17
6.570000E+03	9.596163E-16	1.138167E-17
6.580000E+03	9.671181E-16	1.147852E-17
6.590000E+03	9.741024E-16	1.156931E-17
6.600000E+03	9.805289E-16	1.165353E-17
6.610000E+03	9.863450E-16	1.173053E-17
6.620000E+03	9.914673E-16	1.179931E-17
6.630000E+03	9.958425E-16	1.185919E-17
6.640000E+03	9.993561E-16	1.190878E-17
6.650000E+03	1.001873E-15	1.194645E-17
6.660000E+03	1.003249E-15	1.197044E-17
6.670000E+03	1.003366E-15	1.197931E-17
6.680000E+03	1.002183E-15	1.197253E-17
6.690000E+03	9.996827E-16	1.194986E-17
6.700000E+03	9.959006E-16	1.191168E-17
6.710000E+03	9.908465E-16	1.185809E-17
6.720000E+03	9.845838E-16	1.178980E-17
6.730000E+03	9.771234E-16	1.170693E-17
6.740000E+03	9.685694E-16	1.161069E-17
6.750000E+03	9.590245E-16	1.150229E-17
6.760000E+03	9.487428E-16	1.138476E-17
6.770000E+03	9.380148E-16	1.126157E-17
6.780000E+03	9.271874E-16	1.113688E-17
6.790000E+03	9.165865E-16	1.101461E-17
6.800000E+03	9.064496E-16	1.089762E-17
6.810000E+03	8.969072E-16	1.078749E-17
6.820000E+03	8.880148E-16	1.068488E-17
6.830000E+03	8.797387E-16	1.058942E-17
6.840000E+03	8.719775E-16	1.049988E-17
6.850000E+03	8.645639E-16	1.041427E-17
6.860000E+03	8.573119E-16	1.033034E-17
6.870000E+03	8.500166E-16	1.024562E-17
6.880000E+03	8.424885E-16	1.015784E-17
6.890000E+03	8.346176E-16	1.006567E-17
6.900000E+03	8.263271E-16	9.968172E-18
6.910000E+03	8.176452E-16	9.865698E-18
6.920000E+03	8.086676E-16	9.759400E-18
6.930000E+03	7.995491E-16	9.651147E-18
6.940000E+03	7.904811E-16	9.543254E-18
6.950000E+03	7.816724E-16	9.438248E-18
6.960000E+03	7.733285E-16	9.338617E-18
6.970000E+03	7.656358E-16	9.246619E-18
6.980000E+03	7.587428E-16	9.164053E-18
6.990000E+03	7.527859E-16	9.092575E-18
7.000000E+03	7.478340E-16	9.033022E-18
7.010000E+03	7.439124E-16	8.985703E-18
7.020000E+03	7.410257E-16	8.950677E-18
7.030000E+03	7.391017E-16	8.927071E-18
7.040000E+03	7.380618E-16	8.913938E-18
7.050000E+03	7.377693E-16	8.909622E-18
7.060000E+03	7.380619E-16	8.912163E-18
7.070000E+03	7.387869E-16	8.919714E-18
7.080000E+03	7.397601E-16	8.930049E-18
7.090000E+03	7.408064E-16	8.941050E-18
7.100000E+03	7.417565E-16	8.950677E-18
7.110000E+03	7.424519E-16	8.957016E-18
7.120000E+03	7.427471E-16	8.958313E-18
7.130000E+03	7.425137E-16	8.953026E-18
7.140000E+03	7.416453E-16	8.939878E-18
7.150000E+03	7.400728E-16	8.918043E-18
7.160000E+03	7.377416E-16	8.886878E-18
7.170000E+03	7.346814E-16	8.846749E-18
7.180000E+03	7.309460E-16	8.798320E-18
7.190000E+03	7.266844E-16	8.743396E-18
7.200000E+03	7.220651E-16	8.684019E-18
7.210000E+03	7.173312E-16	8.623122E-18
7.220000E+03	7.127249E-16	8.563620E-18
7.230000E+03	7.085094E-16	8.508681E-18
7.240000E+03	7.049529E-16	8.461521E-18
7.250000E+03	7.023163E-16	8.425261E-18
7.260000E+03	7.008258E-16	8.402603E-18
7.270000E+03	7.006465E-16	8.395503E-18
7.280000E+03	7.018724E-16	8.405062E-18
7.290000E+03	7.044835E-16	8.431012E-18
7.300000E+03	7.083910E-16	8.472262E-18
7.310000E+03	7.134137E-16	8.526616E-18
7.320000E+03	7.192583E-16	8.590544E-18
7.330000E+03	7.255823E-16	8.659937E-18
7.340000E+03	7.319887E-16	8.730047E-18
7.350000E+03	7.380333E-16	8.795581E-18
7.360000E+03	7.433345E-16	8.852003E-18
7.370000E+03	7.475500E-16	8.895260E-18
7.380000E+03	7.504834E-16	8.923051E-18
7.390000E+03	7.520420E-16	8.934313E-18
7.400000E+03	7.523220E-16	8.930233E-18
7.410000E+03	7.515156E-16	8.913131E-18
7.420000E+03	7.499352E-16	8.886749E-18
7.430000E+03	7.479426E-16	8.855400E-18
7.440000E+03	7.458736E-16	8.823074E-18
7.450000E+03	7.440431E-16	8.793504E-18
7.460000E+03	7.426795E-16	8.769384E-18
7.470000E+03	7.418750E-16	8.751793E-18
7.480000E+03	7.416298E-16	8.740721E-18
7.490000E+03	7.418079E-16	8.734555E-18
7.500000E+03	7.421445E-16	8.730172E-18
7.510000E+03	7.422514E-16	8.723010E-18
7.520000E+03	7.416404E-16	8.707351E-18
7.530000E+03	7.397124E-16	8.676201E-18
7.540000E+03	7.358504E-16	8.622383E-18
7.550000E+03	7.294314E-16	8.538673E-18
7.560000E+03	7.198918E-16	8.418575E-18
7.570000E+03	7.067924E-16	8.257072E-18
7.580000E+03	6.898702E-16	8.051225E-18
7.590000E+03	6.691249E-16	7.801174E-18
7.600000E+03	6.447996E-16	7.509889E-18
7.610000E+03	6.174202E-16	7.183626E-18
7.620000E+03	5.877651E-16	6.831546E-18
7.630000E+03	5.568156E-16	6.465131E-18
7.640000E+03	5.256473E-16	6.096909E-18
7.650000E+03	4.953505E-16	5.739526E-18
7.660000E+03	4.669102E-16	5.404356E-18
7.670000E+03	4.411783E-16	5.101186E-18
7.680000E+03	4.188603E-16	4.838069E-18
7.690000E+03	4.004658E-16	4.620765E-18
7.700000E+03	3.863710E-16	4.453469E-18
7.710000E+03	3.768059E-16	4.338675E-18
7.720000E+03	3.719237E-16	4.277986E-18
7.730000E+03	3.717802E-16	4.271874E-18
7.740000E+03	3.763715E-16	4.320129E-18
7.750000E+03	3.856041E-16	4.421509E-18
7.760000E+03	3.992497E-16	4.573240E-18
