#wls	flux	fluxerr
1.600000E+03	3.914064E-17	3.321462E-18
1.640000E+03	4.011465E-17	3.395730E-18
1.680000E+03	4.112111E-17	3.472116E-18
1.720000E+03	4.215974E-17	3.550556E-18
1.760000E+03	4.322751E-17	3.630753E-18
1.800000E+03	4.432600E-17	3.712797E-18
1.840000E+03	4.545151E-17	3.796334E-18
1.880000E+03	4.660751E-17	3.881610E-18
1.920000E+03	4.778685E-17	3.967982E-18
1.960000E+03	4.898950E-17	4.055406E-18
2.000000E+03	5.021494E-17	4.143792E-18
2.040000E+03	5.145409E-17	4.232348E-18
2.080000E+03	5.270766E-17	4.321091E-18
2.120000E+03	5.396758E-17	4.409319E-18
2.160000E+03	5.522754E-17	4.496482E-18
2.200000E+03	5.648022E-17	4.581954E-18
2.240000E+03	5.771995E-17	4.665252E-18
2.280000E+03	5.893727E-17	4.745593E-18
2.320000E+03	6.011877E-17	4.821887E-18
2.360000E+03	6.125255E-17	4.893187E-18
2.400000E+03	6.233115E-17	4.958911E-18
2.440000E+03	6.333487E-17	5.017523E-18
2.480000E+03	6.424860E-17	5.067874E-18
2.520000E+03	6.505920E-17	5.108997E-18
2.560000E+03	6.575028E-17	5.139693E-18
2.600000E+03	6.630531E-17	5.158779E-18
2.640000E+03	6.670552E-17	5.164930E-18
2.680000E+03	6.693859E-17	5.157354E-18
2.720000E+03	6.698875E-17	5.135020E-18
2.760000E+03	6.684831E-17	5.097547E-18
2.800000E+03	6.651074E-17	5.044664E-18
2.840000E+03	6.597214E-17	4.976319E-18
2.880000E+03	6.523989E-17	4.893324E-18
2.920000E+03	6.432411E-17	4.796694E-18
2.960000E+03	6.324853E-17	4.688445E-18
3.000000E+03	6.204014E-17	4.570799E-18
3.010000E+03	6.172357E-17	4.540406E-18
3.020000E+03	6.140142E-17	4.509640E-18
3.030000E+03	6.107452E-17	4.478564E-18
3.040000E+03	6.074583E-17	4.447398E-18
3.050000E+03	6.041421E-17	4.416059E-18
3.060000E+03	6.008265E-17	4.384767E-18
3.070000E+03	5.975013E-17	4.353449E-18
3.080000E+03	5.941774E-17	4.322183E-18
3.090000E+03	5.908860E-17	4.291198E-18
3.100000E+03	5.875992E-17	4.260290E-18
3.110000E+03	5.843882E-17	4.229976E-18
3.120000E+03	5.812264E-17	4.200059E-18
3.130000E+03	5.781272E-17	4.170637E-18
3.140000E+03	5.751046E-17	4.141808E-18
3.150000E+03	5.721919E-17	4.113809E-18
3.160000E+03	5.693850E-17	4.086607E-18
3.170000E+03	5.666996E-17	4.060311E-18
3.180000E+03	5.641702E-17	4.035163E-18
3.190000E+03	5.617951E-17	4.011147E-18
3.200000E+03	5.596096E-17	3.988508E-18
3.210000E+03	5.576137E-17	3.967239E-18
3.220000E+03	5.558261E-17	3.947468E-18
3.230000E+03	5.542663E-17	3.929322E-18
3.240000E+03	5.529721E-17	3.913063E-18
3.250000E+03	5.519468E-17	3.898703E-18
3.260000E+03	5.512295E-17	3.886508E-18
3.270000E+03	5.508258E-17	3.876505E-18
3.280000E+03	5.507593E-17	3.868848E-18
3.290000E+03	5.510551E-17	3.863699E-18
3.300000E+03	5.517561E-17	3.861345E-18
3.310000E+03	5.528725E-17	3.861840E-18
3.320000E+03	5.544330E-17	3.865368E-18
3.330000E+03	5.564846E-17	3.872238E-18
3.340000E+03	5.590420E-17	3.882532E-18
3.350000E+03	5.621387E-17	3.896462E-18
3.360000E+03	5.658271E-17	3.914366E-18
3.370000E+03	5.701275E-17	3.936361E-18
3.380000E+03	5.750796E-17	3.962694E-18
3.390000E+03	5.807252E-17	3.993626E-18
3.400000E+03	5.871261E-17	4.029551E-18
3.410000E+03	5.943124E-17	4.070642E-18
3.420000E+03	6.023339E-17	4.117207E-18
3.430000E+03	6.112617E-17	4.169693E-18
3.440000E+03	6.211160E-17	4.228197E-18
3.450000E+03	6.319919E-17	4.293328E-18
3.460000E+03	6.439524E-17	4.365464E-18
3.470000E+03	6.570255E-17	4.444748E-18
3.480000E+03	6.713165E-17	4.531841E-18
3.490000E+03	6.868769E-17	4.627035E-18
3.500000E+03	7.037779E-17	4.730751E-18
3.510000E+03	7.221122E-17	4.843550E-18
3.520000E+03	7.419105E-17	4.965570E-18
3.530000E+03	7.632830E-17	5.097483E-18
3.540000E+03	7.862737E-17	5.239507E-18
3.550000E+03	8.109624E-17	5.392097E-18
3.560000E+03	8.373510E-17	5.555188E-18
3.570000E+03	8.655187E-17	5.729222E-18
3.580000E+03	8.954575E-17	5.914063E-18
3.590000E+03	9.271614E-17	6.109588E-18
3.600000E+03	9.606237E-17	6.315666E-18
3.610000E+03	9.957294E-17	6.531458E-18
3.620000E+03	1.032436E-16	6.756608E-18
3.630000E+03	1.070587E-16	6.990004E-18
3.640000E+03	1.110013E-16	7.230484E-18
3.650000E+03	1.150509E-16	7.476644E-18
3.660000E+03	1.191866E-16	7.727077E-18
3.670000E+03	1.233751E-16	7.979570E-18
3.680000E+03	1.275925E-16	8.232565E-18
3.690000E+03	1.318038E-16	8.483770E-18
3.700000E+03	1.359750E-16	8.731019E-18
3.710000E+03	1.400725E-16	8.972152E-18
3.720000E+03	1.440664E-16	9.205292E-18
3.730000E+03	1.479170E-16	9.427957E-18
3.740000E+03	1.516027E-16	9.638828E-18
3.750000E+03	1.550895E-16	9.835825E-18
3.760000E+03	1.583637E-16	1.001817E-17
3.770000E+03	1.614045E-16	1.018464E-17
3.780000E+03	1.642009E-16	1.033465E-17
3.790000E+03	1.667474E-16	1.046798E-17
3.800000E+03	1.690445E-16	1.058478E-17
3.810000E+03	1.711026E-16	1.068580E-17
3.820000E+03	1.729244E-16	1.077133E-17
3.830000E+03	1.745302E-16	1.084274E-17
3.840000E+03	1.759441E-16	1.090164E-17
3.850000E+03	1.771800E-16	1.094897E-17
3.860000E+03	1.782712E-16	1.098687E-17
3.870000E+03	1.792389E-16	1.101671E-17
3.880000E+03	1.801037E-16	1.103984E-17
3.890000E+03	1.808987E-16	1.105829E-17
3.900000E+03	1.816414E-16	1.107320E-17
3.910000E+03	1.823465E-16	1.108546E-17
3.920000E+03	1.830384E-16	1.109659E-17
3.930000E+03	1.837246E-16	1.110703E-17
3.940000E+03	1.844119E-16	1.111721E-17
3.950000E+03	1.851030E-16	1.112729E-17
3.960000E+03	1.857915E-16	1.113687E-17
3.970000E+03	1.864799E-16	1.114611E-17
3.980000E+03	1.871530E-16	1.115410E-17
3.990000E+03	1.877964E-16	1.115999E-17
4.000000E+03	1.883883E-16	1.116251E-17
4.010000E+03	1.889178E-16	1.116104E-17
4.020000E+03	1.893589E-16	1.115409E-17
4.030000E+03	1.896852E-16	1.114014E-17
4.040000E+03	1.898840E-16	1.111851E-17
4.050000E+03	1.899259E-16	1.108757E-17
4.060000E+03	1.897973E-16	1.104658E-17
4.070000E+03	1.894872E-16	1.099502E-17
4.080000E+03	1.889752E-16	1.093180E-17
4.090000E+03	1.882581E-16	1.085684E-17
4.100000E+03	1.873333E-16	1.077010E-17
4.110000E+03	1.862021E-16	1.067177E-17
4.120000E+03	1.848667E-16	1.056210E-17
4.130000E+03	1.833461E-16	1.044228E-17
4.140000E+03	1.816507E-16	1.031299E-17
4.150000E+03	1.797942E-16	1.017513E-17
4.160000E+03	1.778016E-16	1.003017E-17
4.170000E+03	1.756960E-16	9.879504E-18
4.180000E+03	1.735016E-16	9.724556E-18
4.190000E+03	1.712438E-16	9.566789E-18
4.200000E+03	1.689477E-16	9.407647E-18
4.210000E+03	1.666347E-16	9.248337E-18
4.220000E+03	1.643326E-16	9.090413E-18
4.230000E+03	1.620641E-16	8.935118E-18
4.240000E+03	1.598497E-16	8.783573E-18
4.250000E+03	1.577083E-16	8.636786E-18
4.260000E+03	1.556526E-16	8.495411E-18
4.270000E+03	1.536996E-16	8.360327E-18
4.280000E+03	1.518602E-16	8.232072E-18
4.290000E+03	1.501421E-16	8.111002E-18
4.300000E+03	1.485502E-16	7.997317E-18
4.310000E+03	1.470835E-16	7.890893E-18
4.320000E+03	1.457448E-16	7.791818E-18
4.330000E+03	1.445316E-16	7.699890E-18
4.340000E+03	1.434367E-16	7.614651E-18
4.350000E+03	1.424579E-16	7.535926E-18
4.360000E+03	1.415893E-16	7.463341E-18
4.370000E+03	1.408255E-16	7.396546E-18
4.380000E+03	1.401584E-16	7.335070E-18
4.390000E+03	1.395878E-16	7.278846E-18
4.400000E+03	1.391120E-16	7.227731E-18
4.410000E+03	1.387313E-16	7.181686E-18
4.420000E+03	1.384455E-16	7.140654E-18
4.430000E+03	1.382628E-16	7.104999E-18
4.440000E+03	1.381875E-16	7.074889E-18
4.450000E+03	1.382319E-16	7.050889E-18
4.460000E+03	1.384071E-16	7.033492E-18
4.470000E+03	1.387222E-16	7.023091E-18
4.480000E+03	1.391931E-16	7.020403E-18
4.490000E+03	1.398324E-16	7.025981E-18
4.500000E+03	1.406494E-16	7.040190E-18
4.510000E+03	1.416581E-16	7.063627E-18
4.520000E+03	1.428641E-16	7.096469E-18
4.530000E+03	1.442770E-16	7.139071E-18
4.540000E+03	1.458993E-16	7.191439E-18
4.550000E+03	1.477268E-16	7.253255E-18
4.560000E+03	1.497567E-16	7.324259E-18
4.570000E+03	1.519747E-16	7.403645E-18
4.580000E+03	1.543676E-16	7.490656E-18
4.590000E+03	1.569125E-16	7.584102E-18
4.600000E+03	1.595786E-16	7.682404E-18
4.610000E+03	1.623351E-16	7.784018E-18
4.620000E+03	1.651402E-16	7.886902E-18
4.630000E+03	1.679510E-16	7.988993E-18
4.640000E+03	1.707288E-16	8.088447E-18
4.650000E+03	1.734163E-16	8.182593E-18
4.660000E+03	1.759741E-16	8.269630E-18
4.670000E+03	1.783583E-16	8.347582E-18
4.680000E+03	1.805262E-16	8.414559E-18
4.690000E+03	1.824483E-16	8.469323E-18
4.700000E+03	1.840962E-16	8.510712E-18
4.710000E+03	1.854582E-16	8.538333E-18
4.720000E+03	1.865251E-16	8.551946E-18
4.730000E+03	1.873054E-16	8.552109E-18
4.740000E+03	1.878099E-16	8.539477E-18
4.750000E+03	1.880617E-16	8.515255E-18
4.760000E+03	1.880943E-16	8.481111E-18
4.770000E+03	1.879435E-16	8.438774E-18
4.780000E+03	1.876447E-16	8.389937E-18
4.790000E+03	1.872387E-16	8.336500E-18
4.800000E+03	1.867658E-16	8.280324E-18
4.810000E+03	1.862725E-16	8.223494E-18
4.820000E+03	1.857853E-16	8.167199E-18
4.830000E+03	1.853456E-16	8.113243E-18
4.840000E+03	1.849807E-16	8.062799E-18
4.850000E+03	1.847211E-16	8.017150E-18
4.860000E+03	1.845853E-16	7.977047E-18
4.870000E+03	1.845946E-16	7.943340E-18
4.880000E+03	1.847544E-16	7.916178E-18
4.890000E+03	1.850820E-16	7.896233E-18
4.900000E+03	1.855689E-16	7.883052E-18
4.910000E+03	1.862188E-16	7.876706E-18
4.920000E+03	1.870196E-16	7.876615E-18
4.930000E+03	1.879622E-16	7.882310E-18
4.940000E+03	1.890260E-16	7.892872E-18
4.950000E+03	1.901908E-16	7.907397E-18
4.960000E+03	1.914372E-16	7.925044E-18
4.970000E+03	1.927370E-16	7.944609E-18
4.980000E+03	1.940642E-16	7.965009E-18
4.990000E+03	1.953959E-16	7.985307E-18
5.000000E+03	1.967025E-16	8.004306E-18
5.010000E+03	1.979583E-16	8.020987E-18
5.020000E+03	1.991391E-16	8.034412E-18
5.030000E+03	2.002255E-16	8.043853E-18
5.040000E+03	2.011933E-16	8.048404E-18
5.050000E+03	2.020242E-16	8.047404E-18
5.060000E+03	2.027076E-16	8.040513E-18
5.070000E+03	2.032290E-16	8.027249E-18
5.080000E+03	2.035836E-16	8.007510E-18
5.090000E+03	2.037756E-16	7.981550E-18
5.100000E+03	2.038045E-16	7.949448E-18
5.110000E+03	2.036914E-16	7.912112E-18
5.120000E+03	2.034564E-16	7.870392E-18
5.130000E+03	2.031183E-16	7.825079E-18
5.140000E+03	2.027150E-16	7.777687E-18
5.150000E+03	2.022774E-16	7.729434E-18
5.160000E+03	2.018416E-16	7.681720E-18
5.170000E+03	2.014482E-16	7.636087E-18
5.180000E+03	2.011252E-16	7.593582E-18
5.190000E+03	2.009123E-16	7.555673E-18
5.200000E+03	2.008337E-16	7.523230E-18
5.210000E+03	2.009154E-16	7.497173E-18
5.220000E+03	2.011663E-16	7.477772E-18
5.230000E+03	2.016032E-16	7.465586E-18
5.240000E+03	2.022250E-16	7.460515E-18
5.250000E+03	2.030284E-16	7.462373E-18
5.260000E+03	2.040082E-16	7.470910E-18
5.270000E+03	2.051435E-16	7.485313E-18
5.280000E+03	2.064244E-16	7.505173E-18
5.290000E+03	2.078280E-16	7.529627E-18
5.300000E+03	2.093338E-16	7.557912E-18
5.310000E+03	2.109223E-16	7.589304E-18
5.320000E+03	2.125791E-16	7.623282E-18
5.330000E+03	2.142857E-16	7.659186E-18
5.340000E+03	2.160308E-16	7.696620E-18
5.350000E+03	2.178082E-16	7.735379E-18
5.360000E+03	2.196165E-16	7.775424E-18
5.370000E+03	2.214600E-16	7.816924E-18
5.380000E+03	2.233526E-16	7.860389E-18
5.390000E+03	2.253068E-16	7.906269E-18
5.400000E+03	2.273453E-16	7.955368E-18
5.410000E+03	2.294973E-16	8.008709E-18
5.420000E+03	2.317985E-16	8.067540E-18
5.430000E+03	2.342908E-16	8.133306E-18
5.440000E+03	2.370260E-16	8.207779E-18
5.450000E+03	2.400519E-16	8.292597E-18
5.460000E+03	2.434234E-16	8.389612E-18
5.470000E+03	2.471963E-16	8.500711E-18
5.480000E+03	2.514242E-16	8.627692E-18
5.490000E+03	2.561546E-16	8.772138E-18
5.500000E+03	2.614263E-16	8.935330E-18
5.510000E+03	2.672431E-16	9.117357E-18
5.520000E+03	2.736066E-16	9.318249E-18
5.530000E+03	2.804829E-16	9.536829E-18
5.540000E+03	2.878182E-16	9.771248E-18
5.550000E+03	2.955316E-16	1.001875E-17
5.560000E+03	3.035120E-16	1.027560E-17
5.570000E+03	3.116230E-16	1.053720E-17
5.580000E+03	3.196874E-16	1.079762E-17
5.590000E+03	3.275004E-16	1.105003E-17
5.600000E+03	3.348524E-16	1.128744E-17
5.610000E+03	3.415056E-16	1.150195E-17
5.620000E+03	3.472276E-16	1.168582E-17
5.630000E+03	3.518056E-16	1.183203E-17
5.640000E+03	3.550376E-16	1.193387E-17
5.650000E+03	3.567877E-16	1.198686E-17
5.660000E+03	3.569477E-16	1.198746E-17
5.670000E+03	3.554921E-16	1.193483E-17
5.680000E+03	3.524358E-16	1.182950E-17
5.690000E+03	3.478555E-16	1.167404E-17
5.700000E+03	3.418818E-16	1.147280E-17
5.710000E+03	3.346655E-16	1.123078E-17
5.720000E+03	3.264021E-16	1.095445E-17
5.730000E+03	3.173014E-16	1.065078E-17
5.740000E+03	3.075674E-16	1.032651E-17
5.750000E+03	2.974052E-16	9.988432E-18
5.760000E+03	2.870096E-16	9.642976E-18
5.770000E+03	2.765598E-16	9.296074E-18
5.780000E+03	2.662173E-16	8.953066E-18
5.790000E+03	2.561285E-16	8.618798E-18
5.800000E+03	2.464079E-16	8.297065E-18
5.810000E+03	2.371681E-16	7.991606E-18
5.820000E+03	2.284918E-16	7.705173E-18
5.830000E+03	2.204493E-16	7.440123E-18
5.840000E+03	2.130960E-16	7.198315E-18
5.850000E+03	2.064765E-16	6.981269E-18
5.860000E+03	2.006129E-16	6.789752E-18
5.870000E+03	1.955288E-16	6.624602E-18
5.880000E+03	1.912243E-16	6.485863E-18
5.890000E+03	1.877019E-16	6.373678E-18
5.900000E+03	1.849455E-16	6.287562E-18
5.910000E+03	1.829355E-16	6.226923E-18
5.920000E+03	1.816347E-16	6.190566E-18
5.930000E+03	1.810053E-16	6.177281E-18
5.940000E+03	1.810013E-16	6.185573E-18
5.950000E+03	1.815620E-16	6.213444E-18
5.960000E+03	1.826217E-16	6.258720E-18
5.970000E+03	1.841079E-16	6.318986E-18
5.980000E+03	1.859424E-16	6.391610E-18
5.990000E+03	1.880457E-16	6.473914E-18
6.000000E+03	1.903301E-16	6.562914E-18
6.010000E+03	1.927079E-16	6.655611E-18
6.020000E+03	1.951068E-16	6.749524E-18
6.030000E+03	1.974419E-16	6.841713E-18
6.040000E+03	1.996505E-16	6.929991E-18
6.050000E+03	2.016830E-16	7.012611E-18
6.060000E+03	2.034961E-16	7.088032E-18
6.070000E+03	2.050776E-16	7.155786E-18
6.080000E+03	2.064246E-16	7.215724E-18
6.090000E+03	2.075597E-16	7.268601E-18
6.100000E+03	2.085127E-16	7.315406E-18
6.110000E+03	2.093417E-16	7.358147E-18
6.120000E+03	2.101066E-16	7.398907E-18
6.130000E+03	2.108796E-16	7.440215E-18
6.140000E+03	2.117394E-16	7.484851E-18
6.150000E+03	2.127681E-16	7.535735E-18
6.160000E+03	2.140532E-16	7.596004E-18
6.170000E+03	2.156749E-16	7.668561E-18
6.180000E+03	2.177157E-16	7.756415E-18
6.190000E+03	2.202554E-16	7.862496E-18
6.200000E+03	2.233735E-16	7.989757E-18
6.210000E+03	2.271370E-16	8.140725E-18
6.220000E+03	2.316101E-16	8.317845E-18
6.230000E+03	2.368483E-16	8.523274E-18
6.240000E+03	2.428961E-16	8.758782E-18
6.250000E+03	2.497875E-16	9.025788E-18
6.260000E+03	2.575296E-16	9.324739E-18
6.270000E+03	2.661085E-16	9.655325E-18
6.280000E+03	2.754826E-16	1.001623E-17
6.290000E+03	2.855580E-16	1.040423E-17
6.300000E+03	2.962127E-16	1.081503E-17
6.310000E+03	3.072595E-16	1.124192E-17
6.320000E+03	3.184666E-16	1.167651E-17
6.330000E+03	3.295356E-16	1.210787E-17
6.340000E+03	3.401461E-16	1.252419E-17
6.350000E+03	3.499397E-16	1.291214E-17
6.360000E+03	3.585396E-16	1.325760E-17
6.370000E+03	3.656121E-16	1.354795E-17
6.380000E+03	3.708548E-16	1.377157E-17
6.390000E+03	3.740459E-16	1.391980E-17
6.400000E+03	3.750679E-16	1.398775E-17
6.410000E+03	3.739005E-16	1.397416E-17
6.420000E+03	3.706424E-16	1.388218E-17
6.430000E+03	3.655032E-16	1.371917E-17
6.440000E+03	3.587608E-16	1.349514E-17
6.450000E+03	3.507790E-16	1.322338E-17
6.460000E+03	3.419437E-16	1.291819E-17
6.470000E+03	3.326415E-16	1.259396E-17
6.480000E+03	3.232470E-16	1.226479E-17
6.490000E+03	3.140981E-16	1.194349E-17
6.500000E+03	3.054883E-16	1.164130E-17
6.510000E+03	2.976442E-16	1.136697E-17
6.520000E+03	2.907392E-16	1.112734E-17
6.530000E+03	2.848907E-16	1.092713E-17
6.540000E+03	2.801176E-16	1.076732E-17
6.550000E+03	2.763517E-16	1.064553E-17
6.560000E+03	2.734917E-16	1.055811E-17
6.570000E+03	2.714051E-16	1.050014E-17
6.580000E+03	2.699541E-16	1.046648E-17
6.590000E+03	2.689802E-16	1.045112E-17
6.600000E+03	2.683410E-16	1.044862E-17
6.610000E+03	2.678874E-16	1.045325E-17
6.620000E+03	2.674733E-16	1.045933E-17
6.630000E+03	2.669671E-16	1.046172E-17
6.640000E+03	2.662555E-16	1.045593E-17
6.650000E+03	2.652323E-16	1.043773E-17
6.660000E+03	2.638142E-16	1.040376E-17
6.670000E+03	2.619417E-16	1.035156E-17
6.680000E+03	2.595670E-16	1.027912E-17
6.690000E+03	2.566716E-16	1.018559E-17
6.700000E+03	2.532480E-16	1.007052E-17
6.710000E+03	2.493117E-16	9.934422E-18
6.720000E+03	2.448990E-16	9.778600E-18
6.730000E+03	2.400562E-16	9.604795E-18
6.740000E+03	2.348336E-16	9.414920E-18
6.750000E+03	2.293064E-16	9.211902E-18
6.760000E+03	2.235469E-16	8.998579E-18
6.770000E+03	2.176261E-16	8.777758E-18
6.780000E+03	2.116171E-16	8.552367E-18
6.790000E+03	2.055931E-16	8.325340E-18
6.800000E+03	1.996132E-16	8.099083E-18
6.810000E+03	1.937365E-16	7.876010E-18
6.820000E+03	1.880068E-16	7.657932E-18
6.830000E+03	1.824667E-16	7.446626E-18
6.840000E+03	1.771445E-16	7.243305E-18
6.850000E+03	1.720686E-16	7.049177E-18
6.860000E+03	1.672546E-16	6.864950E-18
6.870000E+03	1.627163E-16	6.691262E-18
6.880000E+03	1.584657E-16	6.528662E-18
6.890000E+03	1.545082E-16	6.377454E-18
6.900000E+03	1.508439E-16	6.237708E-18
6.910000E+03	1.474733E-16	6.109517E-18
6.920000E+03	1.443976E-16	5.993004E-18
6.930000E+03	1.416149E-16	5.888152E-18
6.940000E+03	1.391198E-16	5.794811E-18
6.950000E+03	1.369094E-16	5.712925E-18
6.960000E+03	1.349829E-16	5.642527E-18
6.970000E+03	1.333370E-16	5.583544E-18
6.980000E+03	1.319661E-16	5.535804E-18
6.990000E+03	1.308666E-16	5.499219E-18
7.000000E+03	1.300364E-16	5.473759E-18
7.010000E+03	1.294705E-16	5.459276E-18
7.020000E+03	1.291605E-16	5.455473E-18
7.030000E+03	1.291014E-16	5.462191E-18
7.040000E+03	1.292822E-16	5.479019E-18
7.050000E+03	1.296946E-16	5.505654E-18
7.060000E+03	1.303241E-16	5.541535E-18
7.070000E+03	1.311591E-16	5.586211E-18
7.080000E+03	1.321823E-16	5.638981E-18
7.090000E+03	1.333797E-16	5.699289E-18
7.100000E+03	1.347345E-16	5.766454E-18
7.110000E+03	1.362286E-16	5.839729E-18
7.120000E+03	1.378495E-16	5.918611E-18
7.130000E+03	1.395832E-16	6.002511E-18
7.140000E+03	1.414234E-16	6.091194E-18
7.150000E+03	1.433639E-16	6.184401E-18
7.160000E+03	1.454109E-16	6.282427E-18
7.170000E+03	1.475638E-16	6.385265E-18
7.180000E+03	1.498401E-16	6.493695E-18
7.190000E+03	1.522582E-16	6.608535E-18
7.200000E+03	1.548421E-16	6.730857E-18
7.210000E+03	1.576177E-16	6.861826E-18
7.220000E+03	1.606180E-16	7.002913E-18
7.230000E+03	1.638849E-16	7.155987E-18
7.240000E+03	1.674513E-16	7.322550E-18
7.250000E+03	1.713568E-16	7.504381E-18
7.260000E+03	1.756425E-16	7.703354E-18
7.270000E+03	1.803443E-16	7.921116E-18
7.280000E+03	1.854893E-16	8.158945E-18
7.290000E+03	1.911029E-16	8.418033E-18
7.300000E+03	1.971956E-16	8.698943E-18
7.310000E+03	2.037626E-16	9.001549E-18
7.320000E+03	2.107726E-16	9.324552E-18
7.330000E+03	2.181890E-16	9.666426E-18
7.340000E+03	2.259317E-16	1.002368E-17
7.350000E+03	2.339037E-16	1.039208E-17
7.360000E+03	2.419761E-16	1.076594E-17
7.370000E+03	2.499899E-16	1.113818E-17
7.380000E+03	2.577730E-16	1.150112E-17
7.390000E+03	2.651357E-16	1.184624E-17
7.400000E+03	2.718795E-16	1.216459E-17
7.410000E+03	2.778245E-16	1.244800E-17
7.420000E+03	2.828072E-16	1.268899E-17
7.430000E+03	2.866910E-16	1.288123E-17
7.440000E+03	2.893899E-16	1.302067E-17
7.450000E+03	2.908569E-16	1.310496E-17
7.460000E+03	2.910841E-16	1.313352E-17
7.470000E+03	2.901141E-16	1.310805E-17
7.480000E+03	2.880191E-16	1.303160E-17
7.490000E+03	2.848984E-16	1.290845E-17
7.500000E+03	2.808655E-16	1.274357E-17
7.510000E+03	2.760557E-16	1.254293E-17
7.520000E+03	2.706045E-16	1.231254E-17
7.530000E+03	2.646424E-16	1.205824E-17
7.540000E+03	2.583055E-16	1.178615E-17
7.550000E+03	2.517181E-16	1.150185E-17
7.560000E+03	2.449908E-16	1.121037E-17
7.570000E+03	2.382377E-16	1.091692E-17
7.580000E+03	2.315448E-16	1.062542E-17
7.590000E+03	2.249948E-16	1.033969E-17
7.600000E+03	2.186668E-16	1.006340E-17
7.610000E+03	2.126109E-16	9.798893E-18
7.620000E+03	2.068772E-16	9.548542E-18
7.630000E+03	2.015001E-16	9.313990E-18
7.640000E+03	1.965017E-16	9.096330E-18
7.650000E+03	1.919096E-16	8.896922E-18
7.660000E+03	1.877345E-16	8.716343E-18
7.670000E+03	1.839936E-16	8.555476E-18
7.680000E+03	1.807116E-16	8.415562E-18
7.690000E+03	1.779014E-16	8.297291E-18
7.700000E+03	1.755870E-16	8.201890E-18
7.710000E+03	1.737897E-16	8.130460E-18
7.720000E+03	1.725303E-16	8.084091E-18
7.730000E+03	1.718249E-16	8.063650E-18
7.740000E+03	1.716924E-16	8.070154E-18
7.750000E+03	1.721447E-16	8.104300E-18
7.760000E+03	1.731883E-16	8.166523E-18
