#wls	flux	fluxerr
1.600000E+03	2.973253E-17	5.420378E-18
1.640000E+03	3.035993E-17	5.518839E-18
1.680000E+03	3.100130E-17	5.618777E-18
1.720000E+03	3.165780E-17	5.720349E-18
1.760000E+03	3.232867E-17	5.823356E-18
1.800000E+03	3.301107E-17	5.927228E-18
1.840000E+03	3.370556E-17	6.032008E-18
1.880000E+03	3.440875E-17	6.137031E-18
1.920000E+03	3.512067E-17	6.242245E-18
1.960000E+03	3.583914E-17	6.347208E-18
2.000000E+03	3.655970E-17	6.451075E-18
2.040000E+03	3.728129E-17	6.553613E-18
2.080000E+03	3.799853E-17	6.653833E-18
2.120000E+03	3.870949E-17	6.751358E-18
2.160000E+03	3.940780E-17	6.845050E-18
2.200000E+03	4.009052E-17	6.934381E-18
2.240000E+03	4.075020E-17	7.018054E-18
2.280000E+03	4.138290E-17	7.095396E-18
2.320000E+03	4.198013E-17	7.164973E-18
2.360000E+03	4.253699E-17	7.225991E-18
2.400000E+03	4.304417E-17	7.276926E-18
2.440000E+03	4.349612E-17	7.316925E-18
2.480000E+03	4.388311E-17	7.344457E-18
2.520000E+03	4.419752E-17	7.358381E-18
2.560000E+03	4.443205E-17	7.357648E-18
2.600000E+03	4.458202E-17	7.341666E-18
2.640000E+03	4.463966E-17	7.309375E-18
2.680000E+03	4.460061E-17	7.260302E-18
2.720000E+03	4.446236E-17	7.194307E-18
2.760000E+03	4.422476E-17	7.111646E-18
2.800000E+03	4.389050E-17	7.013049E-18
2.840000E+03	4.346577E-17	6.899799E-18
2.880000E+03	4.295892E-17	6.773510E-18
2.920000E+03	4.238825E-17	6.637329E-18
2.960000E+03	4.176993E-17	6.494002E-18
3.000000E+03	4.113089E-17	6.347872E-18
3.010000E+03	4.097088E-17	6.311374E-18
3.020000E+03	4.081345E-17	6.275303E-18
3.030000E+03	4.065592E-17	6.239245E-18
3.040000E+03	4.050212E-17	6.203789E-18
3.050000E+03	4.034946E-17	6.168535E-18
3.060000E+03	4.020179E-17	6.134069E-18
3.070000E+03	4.005817E-17	6.100247E-18
3.080000E+03	3.991931E-17	6.067171E-18
3.090000E+03	3.978594E-17	6.034949E-18
3.100000E+03	3.965882E-17	6.003691E-18
3.110000E+03	3.953874E-17	5.973511E-18
3.120000E+03	3.942651E-17	5.944526E-18
3.130000E+03	3.932298E-17	5.916857E-18
3.140000E+03	3.923055E-17	5.890855E-18
3.150000E+03	3.914710E-17	5.866193E-18
3.160000E+03	3.907660E-17	5.843458E-18
3.170000E+03	3.901702E-17	5.822332E-18
3.180000E+03	3.897238E-17	5.803406E-18
3.190000E+03	3.894224E-17	5.786602E-18
3.200000E+03	3.892772E-17	5.772067E-18
3.210000E+03	3.892993E-17	5.759956E-18
3.220000E+03	3.895011E-17	5.750431E-18
3.230000E+03	3.898948E-17	5.743656E-18
3.240000E+03	3.904933E-17	5.739804E-18
3.250000E+03	3.913103E-17	5.739052E-18
3.260000E+03	3.923598E-17	5.741583E-18
3.270000E+03	3.936711E-17	5.747805E-18
3.280000E+03	3.952304E-17	5.757486E-18
3.290000E+03	3.970831E-17	5.771261E-18
3.300000E+03	3.992166E-17	5.788919E-18
3.310000E+03	4.016780E-17	5.811111E-18
3.320000E+03	4.044563E-17	5.837642E-18
3.330000E+03	4.076005E-17	5.869187E-18
3.340000E+03	4.111162E-17	5.905784E-18
3.350000E+03	4.150245E-17	5.947698E-18
3.360000E+03	4.193325E-17	5.994986E-18
3.370000E+03	4.240939E-17	6.048371E-18
3.380000E+03	4.293181E-17	6.107937E-18
3.390000E+03	4.350303E-17	6.173990E-18
3.400000E+03	4.412571E-17	6.246853E-18
3.410000E+03	4.480261E-17	6.326858E-18
3.420000E+03	4.553658E-17	6.414345E-18
3.430000E+03	4.633224E-17	6.509898E-18
3.440000E+03	4.718932E-17	6.613409E-18
3.450000E+03	4.811256E-17	6.725469E-18
3.460000E+03	4.910511E-17	6.846442E-18
3.470000E+03	5.017189E-17	6.976931E-18
3.480000E+03	5.131255E-17	7.116801E-18
3.490000E+03	5.253192E-17	7.266633E-18
3.500000E+03	5.383490E-17	7.427008E-18
3.510000E+03	5.522059E-17	7.597703E-18
3.520000E+03	5.669346E-17	7.779232E-18
3.530000E+03	5.825784E-17	7.972084E-18
3.540000E+03	5.991168E-17	8.175864E-18
3.550000E+03	6.166057E-17	8.391226E-18
3.560000E+03	6.350117E-17	8.617597E-18
3.570000E+03	6.543807E-17	8.855485E-18
3.580000E+03	6.746626E-17	9.104092E-18
3.590000E+03	6.958893E-17	9.363732E-18
3.600000E+03	7.179899E-17	9.633331E-18
3.610000E+03	7.409789E-17	9.912972E-18
3.620000E+03	7.647611E-17	1.020127E-17
3.630000E+03	7.893315E-17	1.049804E-17
3.640000E+03	8.145687E-17	1.080158E-17
3.650000E+03	8.404477E-17	1.111146E-17
3.660000E+03	8.668218E-17	1.142567E-17
3.670000E+03	8.936473E-17	1.174353E-17
3.680000E+03	9.207874E-17	1.206321E-17
3.690000E+03	9.480925E-17	1.238269E-17
3.700000E+03	9.755029E-17	1.270115E-17
3.710000E+03	1.002830E-16	1.301613E-17
3.720000E+03	1.030013E-16	1.332682E-17
3.730000E+03	1.056860E-16	1.363076E-17
3.740000E+03	1.083284E-16	1.392686E-17
3.750000E+03	1.109209E-16	1.421418E-17
3.760000E+03	1.134459E-16	1.449051E-17
3.770000E+03	1.159014E-16	1.475567E-17
3.780000E+03	1.182720E-16	1.500779E-17
3.790000E+03	1.205547E-16	1.524658E-17
3.800000E+03	1.227486E-16	1.547202E-17
3.810000E+03	1.248420E-16	1.568273E-17
3.820000E+03	1.268368E-16	1.587908E-17
3.830000E+03	1.287323E-16	1.606109E-17
3.840000E+03	1.305289E-16	1.622893E-17
3.850000E+03	1.322325E-16	1.638346E-17
3.860000E+03	1.338371E-16	1.652403E-17
3.870000E+03	1.353500E-16	1.665167E-17
3.880000E+03	1.367747E-16	1.676692E-17
3.890000E+03	1.381105E-16	1.686979E-17
3.900000E+03	1.393696E-16	1.696190E-17
3.910000E+03	1.405509E-16	1.704319E-17
3.920000E+03	1.416571E-16	1.711408E-17
3.930000E+03	1.426901E-16	1.717492E-17
3.940000E+03	1.436465E-16	1.722537E-17
3.950000E+03	1.445354E-16	1.726663E-17
3.960000E+03	1.453469E-16	1.729759E-17
3.970000E+03	1.460882E-16	1.731922E-17
3.980000E+03	1.467470E-16	1.733015E-17
3.990000E+03	1.473287E-16	1.733114E-17
4.000000E+03	1.478192E-16	1.732064E-17
4.010000E+03	1.482179E-16	1.729868E-17
4.020000E+03	1.485189E-16	1.726472E-17
4.030000E+03	1.487162E-16	1.721820E-17
4.040000E+03	1.488050E-16	1.715869E-17
4.050000E+03	1.487807E-16	1.708585E-17
4.060000E+03	1.486400E-16	1.699943E-17
4.070000E+03	1.483766E-16	1.689890E-17
4.080000E+03	1.479995E-16	1.678545E-17
4.090000E+03	1.475057E-16	1.665891E-17
4.100000E+03	1.468944E-16	1.651934E-17
4.110000E+03	1.461753E-16	1.636803E-17
4.120000E+03	1.453552E-16	1.620588E-17
4.130000E+03	1.444466E-16	1.603444E-17
4.140000E+03	1.434503E-16	1.585393E-17
4.150000E+03	1.423807E-16	1.566605E-17
4.160000E+03	1.412439E-16	1.547161E-17
4.170000E+03	1.400597E-16	1.527287E-17
4.180000E+03	1.388348E-16	1.507062E-17
4.190000E+03	1.375764E-16	1.486572E-17
4.200000E+03	1.363001E-16	1.465990E-17
4.210000E+03	1.350207E-16	1.445478E-17
4.220000E+03	1.337414E-16	1.425071E-17
4.230000E+03	1.324770E-16	1.404928E-17
4.240000E+03	1.312387E-16	1.385163E-17
4.250000E+03	1.300376E-16	1.365892E-17
4.260000E+03	1.288811E-16	1.347187E-17
4.270000E+03	1.277876E-16	1.329233E-17
4.280000E+03	1.267593E-16	1.312044E-17
4.290000E+03	1.258091E-16	1.295743E-17
4.300000E+03	1.249445E-16	1.280396E-17
4.310000E+03	1.241720E-16	1.266056E-17
4.320000E+03	1.234963E-16	1.252757E-17
4.330000E+03	1.229207E-16	1.240520E-17
4.340000E+03	1.224438E-16	1.229312E-17
4.350000E+03	1.220733E-16	1.219196E-17
4.360000E+03	1.218017E-16	1.210084E-17
4.370000E+03	1.216318E-16	1.201985E-17
4.380000E+03	1.215620E-16	1.194869E-17
4.390000E+03	1.215914E-16	1.188711E-17
4.400000E+03	1.217162E-16	1.183460E-17
4.410000E+03	1.219440E-16	1.179172E-17
4.420000E+03	1.222692E-16	1.175778E-17
4.430000E+03	1.226974E-16	1.173316E-17
4.440000E+03	1.232317E-16	1.171800E-17
4.450000E+03	1.238758E-16	1.171246E-17
4.460000E+03	1.246336E-16	1.171675E-17
4.470000E+03	1.255058E-16	1.173072E-17
4.480000E+03	1.265005E-16	1.175497E-17
4.490000E+03	1.276229E-16	1.178976E-17
4.500000E+03	1.288778E-16	1.183533E-17
4.510000E+03	1.302692E-16	1.189182E-17
4.520000E+03	1.317992E-16	1.195920E-17
4.530000E+03	1.334641E-16	1.203689E-17
4.540000E+03	1.352652E-16	1.212480E-17
4.550000E+03	1.371966E-16	1.222219E-17
4.560000E+03	1.392496E-16	1.232803E-17
4.570000E+03	1.414078E-16	1.244071E-17
4.580000E+03	1.436636E-16	1.255937E-17
4.590000E+03	1.459892E-16	1.268144E-17
4.600000E+03	1.483660E-16	1.280520E-17
4.610000E+03	1.507672E-16	1.292825E-17
4.620000E+03	1.531588E-16	1.304765E-17
4.630000E+03	1.555173E-16	1.316145E-17
4.640000E+03	1.578021E-16	1.326627E-17
4.650000E+03	1.599841E-16	1.335982E-17
4.660000E+03	1.620315E-16	1.343964E-17
4.670000E+03	1.639105E-16	1.350316E-17
4.680000E+03	1.656032E-16	1.354922E-17
4.690000E+03	1.670792E-16	1.357567E-17
4.700000E+03	1.683291E-16	1.358211E-17
4.710000E+03	1.693409E-16	1.356799E-17
4.720000E+03	1.701238E-16	1.353444E-17
4.730000E+03	1.706767E-16	1.348177E-17
4.740000E+03	1.710192E-16	1.341193E-17
4.750000E+03	1.711700E-16	1.332674E-17
4.760000E+03	1.711474E-16	1.322795E-17
4.770000E+03	1.709814E-16	1.311816E-17
4.780000E+03	1.706992E-16	1.299972E-17
4.790000E+03	1.703294E-16	1.287499E-17
4.800000E+03	1.699016E-16	1.274634E-17
4.810000E+03	1.694396E-16	1.261568E-17
4.820000E+03	1.689751E-16	1.248540E-17
4.830000E+03	1.685334E-16	1.235739E-17
4.840000E+03	1.681378E-16	1.223332E-17
4.850000E+03	1.678046E-16	1.211431E-17
4.860000E+03	1.675568E-16	1.200190E-17
4.870000E+03	1.674089E-16	1.189700E-17
4.880000E+03	1.673704E-16	1.180013E-17
4.890000E+03	1.674424E-16	1.171120E-17
4.900000E+03	1.676304E-16	1.163043E-17
4.910000E+03	1.679297E-16	1.155732E-17
4.920000E+03	1.683268E-16	1.149077E-17
4.930000E+03	1.688188E-16	1.143047E-17
4.940000E+03	1.693808E-16	1.137460E-17
4.950000E+03	1.699952E-16	1.132188E-17
4.960000E+03	1.706517E-16	1.127160E-17
4.970000E+03	1.713219E-16	1.122185E-17
4.980000E+03	1.719910E-16	1.117167E-17
4.990000E+03	1.726419E-16	1.111999E-17
5.000000E+03	1.732597E-16	1.106594E-17
5.010000E+03	1.738415E-16	1.100939E-17
5.020000E+03	1.743794E-16	1.094998E-17
5.030000E+03	1.748668E-16	1.088738E-17
5.040000E+03	1.752919E-16	1.082098E-17
5.050000E+03	1.756508E-16	1.075069E-17
5.060000E+03	1.759332E-16	1.067602E-17
5.070000E+03	1.761236E-16	1.059621E-17
5.080000E+03	1.762185E-16	1.051122E-17
5.090000E+03	1.762125E-16	1.042093E-17
5.100000E+03	1.761002E-16	1.032521E-17
5.110000E+03	1.758947E-16	1.022503E-17
5.120000E+03	1.755999E-16	1.012079E-17
5.130000E+03	1.752339E-16	1.001370E-17
5.140000E+03	1.748281E-16	9.905689E-18
5.150000E+03	1.744007E-16	9.797874E-18
5.160000E+03	1.739861E-16	9.692242E-18
5.170000E+03	1.736111E-16	9.590299E-18
5.180000E+03	1.733126E-16	9.494060E-18
5.190000E+03	1.731221E-16	9.405165E-18
5.200000E+03	1.730660E-16	9.324957E-18
5.210000E+03	1.731591E-16	9.254085E-18
5.220000E+03	1.734184E-16	9.193319E-18
5.230000E+03	1.738463E-16	9.142641E-18
5.240000E+03	1.744492E-16	9.102233E-18
5.250000E+03	1.752102E-16	9.071092E-18
5.260000E+03	1.761168E-16	9.048451E-18
5.270000E+03	1.771589E-16	9.033725E-18
5.280000E+03	1.783051E-16	9.025261E-18
5.290000E+03	1.795367E-16	9.022105E-18
5.300000E+03	1.808267E-16	9.022924E-18
5.310000E+03	1.821584E-16	9.026937E-18
5.320000E+03	1.835142E-16	9.033351E-18
5.330000E+03	1.848785E-16	9.041500E-18
5.340000E+03	1.862496E-16	9.051417E-18
5.350000E+03	1.876254E-16	9.063120E-18
5.360000E+03	1.890094E-16	9.076896E-18
5.370000E+03	1.904036E-16	9.092965E-18
5.380000E+03	1.918213E-16	9.112085E-18
5.390000E+03	1.932685E-16	9.134648E-18
5.400000E+03	1.947624E-16	9.161587E-18
5.410000E+03	1.963203E-16	9.193817E-18
5.420000E+03	1.979693E-16	9.232702E-18
5.430000E+03	1.997365E-16	9.279602E-18
5.440000E+03	2.016634E-16	9.336526E-18
5.450000E+03	2.037889E-16	9.405351E-18
5.460000E+03	2.061650E-16	9.488561E-18
5.470000E+03	2.088415E-16	9.588528E-18
5.480000E+03	2.118723E-16	9.707819E-18
5.490000E+03	2.153039E-16	9.848679E-18
5.500000E+03	2.191812E-16	1.001331E-17
5.510000E+03	2.235212E-16	1.020266E-17
5.520000E+03	2.283371E-16	1.041756E-17
5.530000E+03	2.336197E-16	1.065779E-17
5.540000E+03	2.393390E-16	1.092220E-17
5.550000E+03	2.454377E-16	1.120845E-17
5.560000E+03	2.518371E-16	1.151321E-17
5.570000E+03	2.584354E-16	1.183214E-17
5.580000E+03	2.650736E-16	1.215824E-17
5.590000E+03	2.715814E-16	1.248392E-17
5.600000E+03	2.777437E-16	1.279947E-17
5.610000E+03	2.833346E-16	1.309452E-17
5.620000E+03	2.881128E-16	1.335781E-17
5.630000E+03	2.918366E-16	1.357786E-17
5.640000E+03	2.942954E-16	1.374436E-17
5.650000E+03	2.953260E-16	1.384898E-17
5.660000E+03	2.948569E-16	1.388746E-17
5.670000E+03	2.929018E-16	1.385939E-17
5.680000E+03	2.895107E-16	1.376597E-17
5.690000E+03	2.848107E-16	1.361204E-17
5.700000E+03	2.789378E-16	1.340287E-17
5.710000E+03	2.720671E-16	1.314570E-17
5.720000E+03	2.644026E-16	1.284929E-17
5.730000E+03	2.561458E-16	1.252246E-17
5.740000E+03	2.474814E-16	1.217341E-17
5.750000E+03	2.385940E-16	1.181053E-17
5.760000E+03	2.296187E-16	1.143999E-17
5.770000E+03	2.207064E-16	1.106893E-17
5.780000E+03	2.119600E-16	1.070226E-17
5.790000E+03	2.034759E-16	1.034475E-17
5.800000E+03	1.953454E-16	1.000104E-17
5.810000E+03	1.876276E-16	9.674308E-18
5.820000E+03	1.803801E-16	9.367733E-18
5.830000E+03	1.736543E-16	9.084313E-18
5.840000E+03	1.674887E-16	8.826468E-18
5.850000E+03	1.619146E-16	8.596321E-18
5.860000E+03	1.569504E-16	8.395403E-18
5.870000E+03	1.526145E-16	8.225286E-18
5.880000E+03	1.489111E-16	8.086849E-18
5.890000E+03	1.458462E-16	7.981085E-18
5.900000E+03	1.434124E-16	7.908300E-18
5.910000E+03	1.415944E-16	7.868366E-18
5.920000E+03	1.403755E-16	7.861062E-18
5.930000E+03	1.397223E-16	7.885233E-18
5.940000E+03	1.395904E-16	7.939042E-18
5.950000E+03	1.399361E-16	8.020643E-18
5.960000E+03	1.407038E-16	8.127422E-18
5.970000E+03	1.418286E-16	8.256152E-18
5.980000E+03	1.432508E-16	8.403782E-18
5.990000E+03	1.449027E-16	8.566699E-18
6.000000E+03	1.467254E-16	8.741697E-18
6.010000E+03	1.486428E-16	8.924420E-18
6.020000E+03	1.506019E-16	9.111790E-18
6.030000E+03	1.525341E-16	9.299659E-18
6.040000E+03	1.543833E-16	9.484527E-18
6.050000E+03	1.561113E-16	9.663907E-18
6.060000E+03	1.576760E-16	9.834980E-18
6.070000E+03	1.590598E-16	9.996397E-18
6.080000E+03	1.602748E-16	1.014864E-17
6.090000E+03	1.613477E-16	1.029317E-17
6.100000E+03	1.623166E-16	1.043220E-17
6.110000E+03	1.632260E-16	1.056845E-17
6.120000E+03	1.641359E-16	1.070573E-17
6.130000E+03	1.651017E-16	1.084766E-17
6.140000E+03	1.661883E-16	1.099860E-17
6.150000E+03	1.674588E-16	1.116292E-17
6.160000E+03	1.689742E-16	1.134495E-17
6.170000E+03	1.708048E-16	1.154979E-17
6.180000E+03	1.730194E-16	1.178255E-17
6.190000E+03	1.756846E-16	1.204835E-17
6.200000E+03	1.788776E-16	1.235314E-17
6.210000E+03	1.826746E-16	1.270297E-17
6.220000E+03	1.871460E-16	1.310362E-17
6.230000E+03	1.923634E-16	1.356109E-17
6.240000E+03	1.983918E-16	1.408105E-17
6.250000E+03	2.052913E-16	1.466891E-17
6.260000E+03	2.131248E-16	1.533046E-17
6.270000E+03	2.219388E-16	1.607034E-17
6.280000E+03	2.317684E-16	1.689250E-17
6.290000E+03	2.426010E-16	1.779743E-17
6.300000E+03	2.543732E-16	1.878184E-17
6.310000E+03	2.669759E-16	1.983892E-17
6.320000E+03	2.802100E-16	2.095491E-17
6.330000E+03	2.937879E-16	2.210901E-17
6.340000E+03	3.073606E-16	2.327523E-17
6.350000E+03	3.204988E-16	2.442079E-17
6.360000E+03	3.327081E-16	2.550712E-17
6.370000E+03	3.434999E-16	2.649517E-17
6.380000E+03	3.524225E-16	2.734785E-17
6.390000E+03	3.590758E-16	2.803125E-17
6.400000E+03	3.631817E-16	2.852035E-17
6.410000E+03	3.646126E-16	2.880148E-17
6.420000E+03	3.634094E-16	2.887415E-17
6.430000E+03	3.597163E-16	2.874623E-17
6.440000E+03	3.538524E-16	2.843996E-17
6.450000E+03	3.462406E-16	2.798652E-17
6.460000E+03	3.373468E-16	2.742143E-17
6.470000E+03	3.276761E-16	2.678423E-17
6.480000E+03	3.177109E-16	2.611356E-17
6.490000E+03	3.078797E-16	2.544447E-17
6.500000E+03	2.985019E-16	2.480372E-17
6.510000E+03	2.898319E-16	2.421320E-17
6.520000E+03	2.820366E-16	2.368792E-17
6.530000E+03	2.751868E-16	2.323506E-17
6.540000E+03	2.693026E-16	2.285762E-17
6.550000E+03	2.643435E-16	2.255344E-17
6.560000E+03	2.602110E-16	2.231533E-17
6.570000E+03	2.567675E-16	2.213254E-17
6.580000E+03	2.538744E-16	2.199396E-17
6.590000E+03	2.513695E-16	2.188621E-17
6.600000E+03	2.491015E-16	2.179657E-17
6.610000E+03	2.469259E-16	2.171265E-17
6.620000E+03	2.447147E-16	2.162325E-17
6.630000E+03	2.423741E-16	2.152003E-17
6.640000E+03	2.397974E-16	2.139330E-17
6.650000E+03	2.369327E-16	2.123812E-17
6.660000E+03	2.337158E-16	2.104835E-17
6.670000E+03	2.301159E-16	2.082079E-17
6.680000E+03	2.261124E-16	2.055308E-17
6.690000E+03	2.217102E-16	2.024520E-17
6.700000E+03	2.169216E-16	1.989779E-17
6.710000E+03	2.117742E-16	1.951295E-17
6.720000E+03	2.062998E-16	1.909320E-17
6.730000E+03	2.005488E-16	1.864286E-17
6.740000E+03	1.945773E-16	1.816685E-17
6.750000E+03	1.884423E-16	1.767029E-17
6.760000E+03	1.822151E-16	1.715972E-17
6.770000E+03	1.759646E-16	1.664160E-17
6.780000E+03	1.697711E-16	1.612354E-17
6.790000E+03	1.636875E-16	1.561071E-17
6.800000E+03	1.577618E-16	1.510786E-17
6.810000E+03	1.520387E-16	1.461951E-17
6.820000E+03	1.465399E-16	1.414803E-17
6.830000E+03	1.412912E-16	1.369623E-17
6.840000E+03	1.363063E-16	1.326575E-17
6.850000E+03	1.316005E-16	1.285842E-17
6.860000E+03	1.271809E-16	1.247529E-17
6.870000E+03	1.230507E-16	1.211704E-17
6.880000E+03	1.192080E-16	1.178382E-17
6.890000E+03	1.156534E-16	1.147606E-17
6.900000E+03	1.123800E-16	1.119340E-17
6.910000E+03	1.093876E-16	1.093616E-17
6.920000E+03	1.066641E-16	1.070347E-17
6.930000E+03	1.042025E-16	1.049493E-17
6.940000E+03	1.020012E-16	1.031069E-17
6.950000E+03	1.000499E-16	1.014999E-17
6.960000E+03	9.834668E-17	1.001295E-17
6.970000E+03	9.688547E-17	9.899205E-18
6.980000E+03	9.566733E-17	9.809144E-18
6.990000E+03	9.468455E-17	9.742243E-18
7.000000E+03	9.393407E-17	9.698444E-18
7.010000E+03	9.341633E-17	9.678047E-18
7.020000E+03	9.312262E-17	9.680397E-18
7.030000E+03	9.305037E-17	9.705465E-18
7.040000E+03	9.319075E-17	9.752560E-18
7.050000E+03	9.354069E-17	9.821583E-18
7.060000E+03	9.408741E-17	9.911404E-18
7.070000E+03	9.482070E-17	1.002114E-17
7.080000E+03	9.573360E-17	1.015026E-17
7.090000E+03	9.680840E-17	1.029703E-17
7.100000E+03	9.803164E-17	1.046020E-17
7.110000E+03	9.938405E-17	1.063785E-17
7.120000E+03	1.008550E-16	1.082895E-17
7.130000E+03	1.024279E-16	1.103182E-17
7.140000E+03	1.040937E-16	1.124559E-17
7.150000E+03	1.058525E-16	1.147036E-17
7.160000E+03	1.076993E-16	1.170566E-17
7.170000E+03	1.096413E-16	1.195235E-17
7.180000E+03	1.116871E-16	1.221146E-17
7.190000E+03	1.138477E-16	1.248430E-17
7.200000E+03	1.161444E-16	1.277330E-17
7.210000E+03	1.185998E-16	1.308107E-17
7.220000E+03	1.212420E-16	1.341086E-17
7.230000E+03	1.241006E-16	1.376613E-17
7.240000E+03	1.272169E-16	1.415166E-17
7.250000E+03	1.306202E-16	1.457095E-17
7.260000E+03	1.343606E-16	1.502985E-17
7.270000E+03	1.384741E-16	1.553270E-17
7.280000E+03	1.430092E-16	1.608529E-17
7.290000E+03	1.479962E-16	1.669142E-17
7.300000E+03	1.534796E-16	1.735647E-17
7.310000E+03	1.594696E-16	1.808207E-17
7.320000E+03	1.659763E-16	1.886978E-17
7.330000E+03	1.729692E-16	1.971657E-17
7.340000E+03	1.804102E-16	2.061851E-17
7.350000E+03	1.882093E-16	2.156563E-17
7.360000E+03	1.962629E-16	2.254634E-17
7.370000E+03	2.044115E-16	2.354245E-17
7.380000E+03	2.124699E-16	2.453264E-17
7.390000E+03	2.202389E-16	2.549374E-17
7.400000E+03	2.274837E-16	2.639822E-17
7.410000E+03	2.339814E-16	2.721966E-17
7.420000E+03	2.395268E-16	2.793349E-17
7.430000E+03	2.439967E-16	2.852444E-17
7.440000E+03	2.472997E-16	2.898089E-17
7.450000E+03	2.494112E-16	2.929892E-17
7.460000E+03	2.503559E-16	2.948045E-17
7.470000E+03	2.501984E-16	2.953212E-17
7.480000E+03	2.490231E-16	2.946297E-17
7.490000E+03	2.469463E-16	2.928597E-17
7.500000E+03	2.440892E-16	2.901477E-17
7.510000E+03	2.405747E-16	2.866339E-17
7.520000E+03	2.365169E-16	2.824493E-17
7.530000E+03	2.320414E-16	2.777399E-17
7.540000E+03	2.272410E-16	2.726139E-17
7.550000E+03	2.222077E-16	2.671792E-17
7.560000E+03	2.170347E-16	2.615466E-17
7.570000E+03	2.117876E-16	2.557945E-17
7.580000E+03	2.065485E-16	2.500217E-17
7.590000E+03	2.013731E-16	2.442962E-17
7.600000E+03	1.963194E-16	2.386890E-17
7.610000E+03	1.914472E-16	2.332742E-17
7.620000E+03	1.867885E-16	2.280927E-17
7.630000E+03	1.823829E-16	2.231946E-17
7.640000E+03	1.782583E-16	2.186164E-17
7.650000E+03	1.744381E-16	2.143891E-17
7.660000E+03	1.709428E-16	2.105405E-17
7.670000E+03	1.677869E-16	2.070913E-17
7.680000E+03	1.649944E-16	2.040739E-17
7.690000E+03	1.625893E-16	2.015209E-17
7.700000E+03	1.606026E-16	1.994739E-17
7.710000E+03	1.590649E-16	1.979744E-17
7.720000E+03	1.580155E-16	1.970749E-17
7.730000E+03	1.574711E-16	1.968001E-17
7.740000E+03	1.574558E-16	1.971842E-17
7.750000E+03	1.579858E-16	1.982516E-17
7.760000E+03	1.590659E-16	2.000124E-17
