#wls	flux	fluxerr
1.600000E+03	1.683382E-17	6.800197E-18
1.640000E+03	1.708552E-17	6.881028E-18
1.680000E+03	1.734120E-17	6.962323E-18
1.720000E+03	1.759923E-17	7.043379E-18
1.760000E+03	1.785904E-17	7.123927E-18
1.800000E+03	1.811997E-17	7.203656E-18
1.840000E+03	1.838247E-17	7.282704E-18
1.880000E+03	1.864571E-17	7.360698E-18
1.920000E+03	1.890630E-17	7.436261E-18
1.960000E+03	1.916561E-17	7.509896E-18
2.000000E+03	1.942245E-17	7.581111E-18
2.040000E+03	1.967300E-17	7.648389E-18
2.080000E+03	1.991835E-17	7.712132E-18
2.120000E+03	2.015567E-17	7.771234E-18
2.160000E+03	2.038459E-17	7.825545E-18
2.200000E+03	2.060205E-17	7.873904E-18
2.240000E+03	2.080624E-17	7.915629E-18
2.280000E+03	2.099525E-17	7.950026E-18
2.320000E+03	2.116718E-17	7.976422E-18
2.360000E+03	2.132146E-17	7.994655E-18
2.400000E+03	2.145499E-17	8.003629E-18
2.440000E+03	2.156613E-17	8.002820E-18
2.480000E+03	2.165346E-17	7.991796E-18
2.520000E+03	2.171585E-17	7.970264E-18
2.560000E+03	2.175394E-17	7.938574E-18
2.600000E+03	2.176625E-17	7.896320E-18
2.640000E+03	2.175201E-17	7.843365E-18
2.680000E+03	2.171505E-17	7.781246E-18
2.720000E+03	2.165634E-17	7.710438E-18
2.760000E+03	2.157915E-17	7.632240E-18
2.800000E+03	2.148801E-17	7.548364E-18
2.840000E+03	2.138881E-17	7.460959E-18
2.880000E+03	2.128898E-17	7.372651E-18
2.920000E+03	2.119639E-17	7.286148E-18
2.960000E+03	2.112439E-17	7.205939E-18
3.000000E+03	2.108468E-17	7.135816E-18
3.010000E+03	2.108210E-17	7.120609E-18
3.020000E+03	2.108156E-17	7.106012E-18
3.030000E+03	2.108449E-17	7.092505E-18
3.040000E+03	2.109237E-17	7.080576E-18
3.050000E+03	2.110311E-17	7.069515E-18
3.060000E+03	2.111938E-17	7.060210E-18
3.070000E+03	2.113912E-17	7.051960E-18
3.080000E+03	2.116385E-17	7.045261E-18
3.090000E+03	2.119507E-17	7.040602E-18
3.100000E+03	2.123077E-17	7.037304E-18
3.110000E+03	2.127367E-17	7.036253E-18
3.120000E+03	2.132178E-17	7.036776E-18
3.130000E+03	2.137667E-17	7.039381E-18
3.140000E+03	2.143990E-17	7.044565E-18
3.150000E+03	2.150955E-17	7.051673E-18
3.160000E+03	2.158720E-17	7.061216E-18
3.170000E+03	2.167452E-17	7.073710E-18
3.180000E+03	2.176955E-17	7.088502E-18
3.190000E+03	2.187398E-17	7.106118E-18
3.200000E+03	2.198951E-17	7.127085E-18
3.210000E+03	2.211423E-17	7.150765E-18
3.220000E+03	2.224989E-17	7.177691E-18
3.230000E+03	2.239701E-17	7.208012E-18
3.240000E+03	2.255742E-17	7.242279E-18
3.250000E+03	2.272923E-17	7.279863E-18
3.260000E+03	2.291429E-17	7.321316E-18
3.270000E+03	2.311320E-17	7.366804E-18
3.280000E+03	2.332664E-17	7.416504E-18
3.290000E+03	2.355654E-17	7.470989E-18
3.300000E+03	2.380105E-17	7.529636E-18
3.310000E+03	2.406214E-17	7.593026E-18
3.320000E+03	2.434056E-17	7.661349E-18
3.330000E+03	2.463703E-17	7.734793E-18
3.340000E+03	2.495235E-17	7.813552E-18
3.350000E+03	2.528729E-17	7.897820E-18
3.360000E+03	2.564265E-17	7.987795E-18
3.370000E+03	2.602065E-17	8.084112E-18
3.380000E+03	2.641933E-17	8.186099E-18
3.390000E+03	2.684092E-17	8.294388E-18
3.400000E+03	2.728624E-17	8.409174E-18
3.410000E+03	2.775614E-17	8.530646E-18
3.420000E+03	2.825146E-17	8.658997E-18
3.430000E+03	2.877302E-17	8.794406E-18
3.440000E+03	2.932006E-17	8.936565E-18
3.450000E+03	2.989649E-17	9.086588E-18
3.460000E+03	3.050151E-17	9.244155E-18
3.470000E+03	3.113584E-17	9.409396E-18
3.480000E+03	3.180017E-17	9.582433E-18
3.490000E+03	3.249508E-17	9.763359E-18
3.500000E+03	3.322116E-17	9.952251E-18
3.510000E+03	3.397705E-17	1.014862E-17
3.520000E+03	3.476670E-17	1.035354E-17
3.530000E+03	3.558859E-17	1.056647E-17
3.540000E+03	3.644292E-17	1.078737E-17
3.550000E+03	3.732774E-17	1.101555E-17
3.560000E+03	3.824682E-17	1.125204E-17
3.570000E+03	3.919799E-17	1.149610E-17
3.580000E+03	4.017872E-17	1.174687E-17
3.590000E+03	4.119259E-17	1.200532E-17
3.600000E+03	4.223680E-17	1.227051E-17
3.610000E+03	4.330810E-17	1.254141E-17
3.620000E+03	4.440984E-17	1.281889E-17
3.630000E+03	4.553610E-17	1.310115E-17
3.640000E+03	4.669006E-17	1.338902E-17
3.650000E+03	4.786519E-17	1.368052E-17
3.660000E+03	4.906454E-17	1.397647E-17
3.670000E+03	5.028097E-17	1.427473E-17
3.680000E+03	5.151743E-17	1.457607E-17
3.690000E+03	5.276624E-17	1.487827E-17
3.700000E+03	5.402751E-17	1.518128E-17
3.710000E+03	5.530145E-17	1.548512E-17
3.720000E+03	5.657970E-17	1.578739E-17
3.730000E+03	5.786222E-17	1.608805E-17
3.740000E+03	5.914619E-17	1.638629E-17
3.750000E+03	6.043183E-17	1.668215E-17
3.760000E+03	6.171010E-17	1.697311E-17
3.770000E+03	6.298118E-17	1.725923E-17
3.780000E+03	6.424225E-17	1.753973E-17
3.790000E+03	6.549052E-17	1.781387E-17
3.800000E+03	6.672332E-17	1.808095E-17
3.810000E+03	6.793804E-17	1.834029E-17
3.820000E+03	6.913218E-17	1.859125E-17
3.830000E+03	7.030335E-17	1.883324E-17
3.840000E+03	7.144929E-17	1.906571E-17
3.850000E+03	7.256785E-17	1.928815E-17
3.860000E+03	7.365703E-17	1.950009E-17
3.870000E+03	7.471493E-17	1.970111E-17
3.880000E+03	7.573595E-17	1.988983E-17
3.890000E+03	7.672610E-17	2.006790E-17
3.900000E+03	7.768004E-17	2.023404E-17
3.910000E+03	7.859639E-17	2.038798E-17
3.920000E+03	7.946982E-17	2.052844E-17
3.930000E+03	8.030717E-17	2.065732E-17
3.940000E+03	8.109928E-17	2.077237E-17
3.950000E+03	8.185337E-17	2.087557E-17
3.960000E+03	8.256039E-17	2.096473E-17
3.970000E+03	8.322793E-17	2.104192E-17
3.980000E+03	8.384708E-17	2.110501E-17
3.990000E+03	8.442581E-17	2.115615E-17
4.000000E+03	8.495544E-17	2.119330E-17
4.010000E+03	8.544440E-17	2.121871E-17
4.020000E+03	8.588429E-17	2.123044E-17
4.030000E+03	8.627971E-17	2.122977E-17
4.040000E+03	8.663127E-17	2.121701E-17
4.050000E+03	8.693979E-17	2.119248E-17
4.060000E+03	8.721071E-17	2.115767E-17
4.070000E+03	8.743674E-17	2.111092E-17
4.080000E+03	8.762383E-17	2.105383E-17
4.090000E+03	8.777392E-17	2.098699E-17
4.100000E+03	8.788919E-17	2.091104E-17
4.110000E+03	8.797212E-17	2.082670E-17
4.120000E+03	8.802541E-17	2.073470E-17
4.130000E+03	8.804765E-17	2.063484E-17
4.140000E+03	8.805073E-17	2.052998E-17
4.150000E+03	8.803366E-17	2.041996E-17
4.160000E+03	8.799997E-17	2.030568E-17
4.170000E+03	8.794899E-17	2.018704E-17
4.180000E+03	8.789320E-17	2.006695E-17
4.190000E+03	8.783216E-17	1.994533E-17
4.200000E+03	8.776550E-17	1.982212E-17
4.210000E+03	8.770583E-17	1.970017E-17
4.220000E+03	8.764855E-17	1.957843E-17
4.230000E+03	8.760623E-17	1.945967E-17
4.240000E+03	8.757421E-17	1.934282E-17
4.250000E+03	8.756067E-17	1.922964E-17
4.260000E+03	8.757362E-17	1.912180E-17
4.270000E+03	8.760817E-17	1.901814E-17
4.280000E+03	8.767209E-17	1.892025E-17
4.290000E+03	8.776873E-17	1.882874E-17
4.300000E+03	8.790125E-17	1.874416E-17
4.310000E+03	8.807260E-17	1.866700E-17
4.320000E+03	8.828558E-17	1.859767E-17
4.330000E+03	8.854272E-17	1.853656E-17
4.340000E+03	8.884635E-17	1.848397E-17
4.350000E+03	8.919860E-17	1.844015E-17
4.360000E+03	8.960137E-17	1.840530E-17
4.370000E+03	9.005633E-17	1.837955E-17
4.380000E+03	9.056057E-17	1.836210E-17
4.390000E+03	9.112407E-17	1.835475E-17
4.400000E+03	9.174347E-17	1.835658E-17
4.410000E+03	9.241508E-17	1.836664E-17
4.420000E+03	9.314834E-17	1.838655E-17
4.430000E+03	9.393457E-17	1.841436E-17
4.440000E+03	9.478282E-17	1.845160E-17
4.450000E+03	9.568371E-17	1.849619E-17
4.460000E+03	9.664127E-17	1.854868E-17
4.470000E+03	9.765906E-17	1.860950E-17
4.480000E+03	9.872666E-17	1.867640E-17
4.490000E+03	9.984671E-17	1.874968E-17
4.500000E+03	1.010170E-16	1.882867E-17
4.510000E+03	1.022348E-16	1.891266E-17
4.520000E+03	1.034968E-16	1.900079E-17
4.530000E+03	1.047988E-16	1.909213E-17
4.540000E+03	1.061363E-16	1.918566E-17
4.550000E+03	1.075041E-16	1.928029E-17
4.560000E+03	1.088912E-16	1.937388E-17
4.570000E+03	1.103012E-16	1.946701E-17
4.580000E+03	1.117220E-16	1.955742E-17
4.590000E+03	1.131407E-16	1.964280E-17
4.600000E+03	1.145599E-16	1.972360E-17
4.610000E+03	1.159606E-16	1.979657E-17
4.620000E+03	1.173453E-16	1.986217E-17
4.630000E+03	1.186944E-16	1.991718E-17
4.640000E+03	1.200110E-16	1.996223E-17
4.650000E+03	1.212758E-16	1.999431E-17
4.660000E+03	1.224870E-16	2.001332E-17
4.670000E+03	1.236381E-16	2.001842E-17
4.680000E+03	1.247232E-16	2.000894E-17
4.690000E+03	1.257373E-16	1.998437E-17
4.700000E+03	1.266771E-16	1.994448E-17
4.710000E+03	1.275401E-16	1.988923E-17
4.720000E+03	1.283249E-16	1.981873E-17
4.730000E+03	1.290317E-16	1.973338E-17
4.740000E+03	1.296557E-16	1.963278E-17
4.750000E+03	1.302116E-16	1.951953E-17
4.760000E+03	1.306967E-16	1.939353E-17
4.770000E+03	1.311095E-16	1.925489E-17
4.780000E+03	1.314673E-16	1.910647E-17
4.790000E+03	1.317635E-16	1.894759E-17
4.800000E+03	1.320107E-16	1.878030E-17
4.810000E+03	1.322213E-16	1.860661E-17
4.820000E+03	1.323893E-16	1.842587E-17
4.830000E+03	1.325274E-16	1.824000E-17
4.840000E+03	1.326416E-16	1.805002E-17
4.850000E+03	1.327373E-16	1.785677E-17
4.860000E+03	1.328201E-16	1.766106E-17
4.870000E+03	1.328942E-16	1.746357E-17
4.880000E+03	1.329634E-16	1.726485E-17
4.890000E+03	1.330310E-16	1.706534E-17
4.900000E+03	1.330993E-16	1.686537E-17
4.910000E+03	1.331638E-16	1.666440E-17
4.920000E+03	1.332377E-16	1.646410E-17
4.930000E+03	1.333089E-16	1.626299E-17
4.940000E+03	1.333895E-16	1.606258E-17
4.950000E+03	1.334665E-16	1.586127E-17
4.960000E+03	1.335446E-16	1.565969E-17
4.970000E+03	1.336287E-16	1.545844E-17
4.980000E+03	1.337046E-16	1.525589E-17
4.990000E+03	1.337767E-16	1.505264E-17
5.000000E+03	1.338434E-16	1.484854E-17
5.010000E+03	1.339030E-16	1.464349E-17
5.020000E+03	1.339537E-16	1.443738E-17
5.030000E+03	1.339946E-16	1.423022E-17
5.040000E+03	1.340247E-16	1.402198E-17
5.050000E+03	1.340373E-16	1.381210E-17
5.060000E+03	1.340446E-16	1.360196E-17
5.070000E+03	1.340410E-16	1.339108E-17
5.080000E+03	1.340213E-16	1.317908E-17
5.090000E+03	1.339930E-16	1.296684E-17
5.100000E+03	1.339643E-16	1.275526E-17
5.110000E+03	1.339253E-16	1.254350E-17
5.120000E+03	1.338850E-16	1.233253E-17
5.130000E+03	1.338529E-16	1.212332E-17
5.140000E+03	1.338203E-16	1.191514E-17
5.150000E+03	1.337968E-16	1.170897E-17
5.160000E+03	1.337862E-16	1.150521E-17
5.170000E+03	1.337862E-16	1.130373E-17
5.180000E+03	1.338122E-16	1.110591E-17
5.190000E+03	1.338613E-16	1.091154E-17
5.200000E+03	1.339360E-16	1.072089E-17
5.210000E+03	1.340323E-16	1.053369E-17
5.220000E+03	1.341639E-16	1.035112E-17
5.230000E+03	1.343195E-16	1.017235E-17
5.240000E+03	1.345055E-16	9.997977E-18
5.250000E+03	1.347274E-16	9.828519E-18
5.260000E+03	1.349723E-16	9.663167E-18
5.270000E+03	1.352450E-16	9.502429E-18
5.280000E+03	1.355440E-16	9.346391E-18
5.290000E+03	1.358676E-16	9.195153E-18
5.300000E+03	1.362139E-16	9.048847E-18
5.310000E+03	1.365819E-16	8.907674E-18
5.320000E+03	1.369701E-16	8.771866E-18
5.330000E+03	1.373721E-16	8.641353E-18
5.340000E+03	1.378005E-16	8.517311E-18
5.350000E+03	1.382501E-16	8.399801E-18
5.360000E+03	1.387167E-16	8.288995E-18
5.370000E+03	1.392098E-16	8.185915E-18
5.380000E+03	1.397399E-16	8.091627E-18
5.390000E+03	1.402999E-16	8.006173E-18
5.400000E+03	1.409029E-16	7.930788E-18
5.410000E+03	1.415564E-16	7.866382E-18
5.420000E+03	1.422692E-16	7.813920E-18
5.430000E+03	1.430507E-16	7.774413E-18
5.440000E+03	1.439110E-16	7.748890E-18
5.450000E+03	1.448600E-16	7.738381E-18
5.460000E+03	1.459073E-16	7.743896E-18
5.470000E+03	1.470547E-16	7.766025E-18
5.480000E+03	1.483213E-16	7.806291E-18
5.490000E+03	1.496963E-16	7.864632E-18
5.500000E+03	1.511881E-16	7.942014E-18
5.510000E+03	1.527697E-16	8.037366E-18
5.520000E+03	1.544267E-16	8.150145E-18
5.530000E+03	1.561331E-16	8.279151E-18
5.540000E+03	1.578581E-16	8.422867E-18
5.550000E+03	1.595680E-16	8.579512E-18
5.560000E+03	1.612258E-16	8.747025E-18
5.570000E+03	1.627930E-16	8.923108E-18
5.580000E+03	1.642299E-16	9.105228E-18
5.590000E+03	1.654969E-16	9.290670E-18
5.600000E+03	1.665481E-16	9.476161E-18
5.610000E+03	1.673620E-16	9.659601E-18
5.620000E+03	1.678915E-16	9.837216E-18
5.630000E+03	1.681237E-16	1.000702E-17
5.640000E+03	1.680220E-16	1.016544E-17
5.650000E+03	1.675790E-16	1.031050E-17
5.660000E+03	1.667874E-16	1.044010E-17
5.670000E+03	1.656476E-16	1.055255E-17
5.680000E+03	1.641676E-16	1.064661E-17
5.690000E+03	1.623634E-16	1.072154E-17
5.700000E+03	1.602574E-16	1.077712E-17
5.710000E+03	1.578782E-16	1.081359E-17
5.720000E+03	1.552523E-16	1.083121E-17
5.730000E+03	1.524306E-16	1.083212E-17
5.740000E+03	1.494391E-16	1.081691E-17
5.750000E+03	1.463319E-16	1.078840E-17
5.760000E+03	1.431366E-16	1.074776E-17
5.770000E+03	1.398998E-16	1.069776E-17
5.780000E+03	1.366595E-16	1.064078E-17
5.790000E+03	1.334573E-16	1.057977E-17
5.800000E+03	1.303137E-16	1.051622E-17
5.810000E+03	1.272586E-16	1.045254E-17
5.820000E+03	1.243291E-16	1.039195E-17
5.830000E+03	1.215415E-16	1.033617E-17
5.840000E+03	1.189147E-16	1.028722E-17
5.850000E+03	1.164585E-16	1.024650E-17
5.860000E+03	1.141951E-16	1.021659E-17
5.870000E+03	1.121232E-16	1.019809E-17
5.880000E+03	1.102587E-16	1.019320E-17
5.890000E+03	1.085953E-16	1.020213E-17
5.900000E+03	1.071387E-16	1.022625E-17
5.910000E+03	1.058881E-16	1.026633E-17
5.920000E+03	1.048404E-16	1.032291E-17
5.930000E+03	1.039913E-16	1.039641E-17
5.940000E+03	1.033351E-16	1.048709E-17
5.950000E+03	1.028648E-16	1.059508E-17
5.960000E+03	1.025685E-16	1.071990E-17
5.970000E+03	1.024470E-16	1.086238E-17
5.980000E+03	1.024826E-16	1.102140E-17
5.990000E+03	1.026760E-16	1.119768E-17
6.000000E+03	1.030097E-16	1.138998E-17
6.010000E+03	1.034803E-16	1.159853E-17
6.020000E+03	1.040809E-16	1.182311E-17
6.030000E+03	1.048097E-16	1.206409E-17
6.040000E+03	1.056530E-16	1.232041E-17
6.050000E+03	1.066071E-16	1.259212E-17
6.060000E+03	1.076795E-16	1.288060E-17
6.070000E+03	1.088656E-16	1.318577E-17
6.080000E+03	1.101675E-16	1.350837E-17
6.090000E+03	1.115841E-16	1.384876E-17
6.100000E+03	1.131306E-16	1.420934E-17
6.110000E+03	1.148049E-16	1.459037E-17
6.120000E+03	1.166213E-16	1.499422E-17
6.130000E+03	1.185956E-16	1.542355E-17
6.140000E+03	1.207297E-16	1.587927E-17
6.150000E+03	1.230417E-16	1.636445E-17
6.160000E+03	1.255456E-16	1.688172E-17
6.170000E+03	1.282552E-16	1.743374E-17
6.180000E+03	1.311844E-16	1.802329E-17
6.190000E+03	1.343405E-16	1.865227E-17
6.200000E+03	1.377465E-16	1.932487E-17
6.210000E+03	1.414065E-16	2.004266E-17
6.220000E+03	1.453208E-16	2.080675E-17
6.230000E+03	1.494985E-16	2.161948E-17
6.240000E+03	1.539446E-16	2.248263E-17
6.250000E+03	1.586390E-16	2.339431E-17
6.260000E+03	1.635742E-16	2.435441E-17
6.270000E+03	1.687292E-16	2.536068E-17
6.280000E+03	1.740745E-16	2.640951E-17
6.290000E+03	1.795718E-16	2.749573E-17
6.300000E+03	1.851739E-16	2.861259E-17
6.310000E+03	1.908244E-16	2.975165E-17
6.320000E+03	1.964498E-16	3.090145E-17
6.330000E+03	2.019951E-16	3.205304E-17
6.340000E+03	2.073650E-16	3.319076E-17
6.350000E+03	2.124966E-16	3.430362E-17
6.360000E+03	2.172901E-16	3.537429E-17
6.370000E+03	2.216754E-16	3.638982E-17
6.380000E+03	2.255795E-16	3.733636E-17
6.390000E+03	2.289382E-16	3.820116E-17
6.400000E+03	2.316996E-16	3.897322E-17
6.410000E+03	2.338251E-16	3.964356E-17
6.420000E+03	2.352925E-16	4.020580E-17
6.430000E+03	2.360958E-16	4.065621E-17
6.440000E+03	2.362343E-16	4.099203E-17
6.450000E+03	2.357532E-16	4.121851E-17
6.460000E+03	2.346690E-16	4.133614E-17
6.470000E+03	2.330495E-16	4.135459E-17
6.480000E+03	2.309289E-16	4.127789E-17
6.490000E+03	2.283760E-16	4.111652E-17
6.500000E+03	2.254505E-16	4.087969E-17
6.510000E+03	2.222109E-16	4.057666E-17
6.520000E+03	2.187116E-16	4.021633E-17
6.530000E+03	2.150024E-16	3.980694E-17
6.540000E+03	2.111260E-16	3.935574E-17
6.550000E+03	2.071092E-16	3.886718E-17
6.560000E+03	2.029988E-16	3.834966E-17
6.570000E+03	1.988083E-16	3.780544E-17
6.580000E+03	1.945457E-16	3.723588E-17
6.590000E+03	1.902320E-16	3.664478E-17
6.600000E+03	1.858834E-16	3.603517E-17
6.610000E+03	1.814889E-16	3.540488E-17
6.620000E+03	1.770606E-16	3.475618E-17
6.630000E+03	1.726011E-16	3.408955E-17
6.640000E+03	1.681133E-16	3.340552E-17
6.650000E+03	1.636008E-16	3.270477E-17
6.660000E+03	1.590608E-16	3.198678E-17
6.670000E+03	1.545136E-16	3.125558E-17
6.680000E+03	1.499594E-16	3.051132E-17
6.690000E+03	1.454012E-16	2.975463E-17
6.700000E+03	1.408625E-16	2.899043E-17
6.710000E+03	1.363430E-16	2.821882E-17
6.720000E+03	1.318621E-16	2.744395E-17
6.730000E+03	1.274336E-16	2.666895E-17
6.740000E+03	1.230772E-16	2.589820E-17
6.750000E+03	1.187961E-16	2.513273E-17
6.760000E+03	1.146049E-16	2.437596E-17
6.770000E+03	1.105267E-16	2.363322E-17
6.780000E+03	1.065685E-16	2.290647E-17
6.790000E+03	1.027416E-16	2.219860E-17
6.800000E+03	9.905110E-17	2.151127E-17
6.810000E+03	9.551406E-17	2.084867E-17
6.820000E+03	9.212872E-17	2.021102E-17
6.830000E+03	8.890837E-17	1.960180E-17
6.840000E+03	8.584897E-17	1.902072E-17
6.850000E+03	8.295687E-17	1.846975E-17
6.860000E+03	8.023322E-17	1.794976E-17
6.870000E+03	7.767811E-17	1.746136E-17
6.880000E+03	7.529060E-17	1.700492E-17
6.890000E+03	7.306903E-17	1.658064E-17
6.900000E+03	7.101101E-17	1.618854E-17
6.910000E+03	6.911366E-17	1.582852E-17
6.920000E+03	6.737078E-17	1.549968E-17
6.930000E+03	6.578469E-17	1.520309E-17
6.940000E+03	6.434587E-17	1.493703E-17
6.950000E+03	6.305611E-17	1.470242E-17
6.960000E+03	6.190598E-17	1.449752E-17
6.970000E+03	6.089445E-17	1.432255E-17
6.980000E+03	6.001773E-17	1.417704E-17
6.990000E+03	5.927217E-17	1.406056E-17
7.000000E+03	5.865426E-17	1.397267E-17
7.010000E+03	5.816065E-17	1.391298E-17
7.020000E+03	5.778822E-17	1.388110E-17
7.030000E+03	5.753401E-17	1.387670E-17
7.040000E+03	5.739281E-17	1.389887E-17
7.050000E+03	5.736707E-17	1.394854E-17
7.060000E+03	5.744958E-17	1.402429E-17
7.070000E+03	5.764330E-17	1.412716E-17
7.080000E+03	5.794154E-17	1.425582E-17
7.090000E+03	5.834539E-17	1.441084E-17
7.100000E+03	5.885631E-17	1.459288E-17
7.110000E+03	5.946857E-17	1.480082E-17
7.120000E+03	6.018441E-17	1.503548E-17
7.130000E+03	6.100397E-17	1.529719E-17
7.140000E+03	6.192517E-17	1.558571E-17
7.150000E+03	6.295439E-17	1.590292E-17
7.160000E+03	6.409055E-17	1.624882E-17
7.170000E+03	6.533565E-17	1.662421E-17
7.180000E+03	6.668921E-17	1.702926E-17
7.190000E+03	6.815974E-17	1.746640E-17
7.200000E+03	6.974444E-17	1.793524E-17
7.210000E+03	7.144943E-17	1.843762E-17
7.220000E+03	7.328104E-17	1.897550E-17
7.230000E+03	7.523604E-17	1.954835E-17
7.240000E+03	7.732008E-17	2.015793E-17
7.250000E+03	7.953502E-17	2.080506E-17
7.260000E+03	8.188169E-17	2.149026E-17
7.270000E+03	8.435953E-17	2.221370E-17
7.280000E+03	8.696251E-17	2.297410E-17
7.290000E+03	8.969358E-17	2.377254E-17
7.300000E+03	9.254221E-17	2.460649E-17
7.310000E+03	9.549446E-17	2.547252E-17
7.320000E+03	9.854557E-17	2.636958E-17
7.330000E+03	1.016709E-16	2.729125E-17
7.340000E+03	1.048547E-16	2.823347E-17
7.350000E+03	1.080789E-16	2.919144E-17
7.360000E+03	1.113077E-16	3.015553E-17
7.370000E+03	1.145169E-16	3.111914E-17
7.380000E+03	1.176751E-16	3.207363E-17
7.390000E+03	1.207499E-16	3.300996E-17
7.400000E+03	1.237082E-16	3.391885E-17
7.410000E+03	1.265118E-16	3.478946E-17
7.420000E+03	1.291409E-16	3.561590E-17
7.430000E+03	1.315614E-16	3.638833E-17
7.440000E+03	1.337429E-16	3.709778E-17
7.450000E+03	1.356765E-16	3.774115E-17
7.460000E+03	1.373349E-16	3.831029E-17
7.470000E+03	1.387202E-16	3.880505E-17
7.480000E+03	1.398160E-16	3.922024E-17
7.490000E+03	1.406296E-16	3.955717E-17
7.500000E+03	1.411673E-16	3.981701E-17
7.510000E+03	1.414408E-16	4.000238E-17
7.520000E+03	1.414655E-16	4.011709E-17
7.530000E+03	1.412611E-16	4.016616E-17
7.540000E+03	1.408497E-16	4.015537E-17
7.550000E+03	1.402559E-16	4.009129E-17
7.560000E+03	1.395058E-16	3.998102E-17
7.570000E+03	1.386204E-16	3.983024E-17
7.580000E+03	1.376390E-16	3.964999E-17
7.590000E+03	1.365770E-16	3.944450E-17
7.600000E+03	1.354725E-16	3.922469E-17
7.610000E+03	1.343397E-16	3.899454E-17
7.620000E+03	1.332086E-16	3.876279E-17
7.630000E+03	1.321081E-16	3.853783E-17
7.640000E+03	1.310478E-16	3.832262E-17
7.650000E+03	1.300532E-16	3.812470E-17
7.660000E+03	1.291423E-16	3.794951E-17
7.670000E+03	1.283312E-16	3.780200E-17
7.680000E+03	1.276341E-16	3.768658E-17
7.690000E+03	1.270580E-16	3.760559E-17
7.700000E+03	1.266246E-16	3.756569E-17
7.710000E+03	1.263367E-16	3.756804E-17
7.720000E+03	1.261952E-16	3.761325E-17
7.730000E+03	1.262152E-16	3.770610E-17
7.740000E+03	1.263876E-16	3.784420E-17
7.750000E+03	1.267225E-16	3.803093E-17
7.760000E+03	1.272055E-16	3.826227E-17
