#wls	flux	fluxerr
1.600000E+03	2.806169E-17	2.014694E-17
1.640000E+03	2.877523E-17	2.051258E-17
1.680000E+03	2.953725E-17	2.090621E-17
1.720000E+03	3.035021E-17	2.132886E-17
1.760000E+03	3.120764E-17	2.177523E-17
1.800000E+03	3.213047E-17	2.225915E-17
1.840000E+03	3.311268E-17	2.277543E-17
1.880000E+03	3.415745E-17	2.332529E-17
1.920000E+03	3.526813E-17	2.390997E-17
1.960000E+03	3.644828E-17	2.453075E-17
2.000000E+03	3.771150E-17	2.519551E-17
2.040000E+03	3.904223E-17	2.589249E-17
2.080000E+03	4.046451E-17	2.663622E-17
2.120000E+03	4.197291E-17	2.742149E-17
2.160000E+03	4.357210E-17	2.824967E-17
2.200000E+03	4.526695E-17	2.912209E-17
2.240000E+03	4.707348E-17	3.004703E-17
2.280000E+03	4.897547E-17	3.101194E-17
2.320000E+03	5.100054E-17	3.203205E-17
2.360000E+03	5.313213E-17	3.309437E-17
2.400000E+03	5.539927E-17	3.421433E-17
2.440000E+03	5.779702E-17	3.538580E-17
2.480000E+03	6.031969E-17	3.660215E-17
2.520000E+03	6.299861E-17	3.787900E-17
2.560000E+03	6.581592E-17	3.920177E-17
2.600000E+03	6.879134E-17	4.057830E-17
2.640000E+03	7.193247E-17	4.200866E-17
2.680000E+03	7.523316E-17	4.348460E-17
2.720000E+03	7.871458E-17	4.501339E-17
2.760000E+03	8.238479E-17	4.659409E-17
2.800000E+03	8.623683E-17	4.821691E-17
2.840000E+03	9.027760E-17	4.987958E-17
2.880000E+03	9.454551E-17	5.159654E-17
2.920000E+03	9.901696E-17	5.334741E-17
2.960000E+03	1.037314E-16	5.514566E-17
3.000000E+03	1.087142E-16	5.699580E-17
3.010000E+03	1.099921E-16	5.746021E-17
3.020000E+03	1.113003E-16	5.793422E-17
3.030000E+03	1.126218E-16	5.840871E-17
3.040000E+03	1.139566E-16	5.888354E-17
3.050000E+03	1.153224E-16	5.936775E-17
3.060000E+03	1.167198E-16	5.986130E-17
3.070000E+03	1.181129E-16	6.034569E-17
3.080000E+03	1.195378E-16	6.083919E-17
3.090000E+03	1.209948E-16	6.134173E-17
3.100000E+03	1.224660E-16	6.184394E-17
3.110000E+03	1.239697E-16	6.235498E-17
3.120000E+03	1.254879E-16	6.286542E-17
3.130000E+03	1.270391E-16	6.338446E-17
3.140000E+03	1.286050E-16	6.390259E-17
3.150000E+03	1.302044E-16	6.442906E-17
3.160000E+03	1.318377E-16	6.496374E-17
3.170000E+03	1.335054E-16	6.550652E-17
3.180000E+03	1.352076E-16	6.605724E-17
3.190000E+03	1.369252E-16	6.660625E-17
3.200000E+03	1.386779E-16	6.716286E-17
3.210000E+03	1.404658E-16	6.772692E-17
3.220000E+03	1.422894E-16	6.829823E-17
3.230000E+03	1.441691E-16	6.888623E-17
3.240000E+03	1.460649E-16	6.947152E-17
3.250000E+03	1.479973E-16	7.006348E-17
3.260000E+03	1.499869E-16	7.067155E-17
3.270000E+03	1.519931E-16	7.127620E-17
3.280000E+03	1.540574E-16	7.189652E-17
3.290000E+03	1.561803E-16	7.253230E-17
3.300000E+03	1.583204E-16	7.316387E-17
3.310000E+03	1.605410E-16	7.382011E-17
3.320000E+03	1.627792E-16	7.447154E-17
3.330000E+03	1.650776E-16	7.513735E-17
3.340000E+03	1.674368E-16	7.581725E-17
3.350000E+03	1.698355E-16	7.650113E-17
3.360000E+03	1.722959E-16	7.719843E-17
3.370000E+03	1.748183E-16	7.790880E-17
3.380000E+03	1.774032E-16	7.863188E-17
3.390000E+03	1.800511E-16	7.936727E-17
3.400000E+03	1.827400E-16	8.010472E-17
3.410000E+03	1.855149E-16	8.086347E-17
3.420000E+03	1.883541E-16	8.163323E-17
3.430000E+03	1.912349E-16	8.240367E-17
3.440000E+03	1.942261E-16	8.320382E-17
3.450000E+03	1.972596E-16	8.400363E-17
3.460000E+03	2.003817E-16	8.482223E-17
3.470000E+03	2.035695E-16	8.564920E-17
3.480000E+03	2.068467E-16	8.649379E-17
3.490000E+03	2.102139E-16	8.735534E-17
3.500000E+03	2.136477E-16	8.822336E-17
3.510000E+03	2.171721E-16	8.910699E-17
3.520000E+03	2.207634E-16	8.999568E-17
3.530000E+03	2.244698E-16	9.090830E-17
3.540000E+03	2.282677E-16	9.183424E-17
3.550000E+03	2.321574E-16	9.277265E-17
3.560000E+03	2.361389E-16	9.372269E-17
3.570000E+03	2.402123E-16	9.468344E-17
3.580000E+03	2.444024E-16	9.566372E-17
3.590000E+03	2.486846E-16	9.665279E-17
3.600000E+03	2.530587E-16	9.764966E-17
3.610000E+03	2.575498E-16	9.866296E-17
3.620000E+03	2.621578E-16	9.969156E-17
3.630000E+03	2.668828E-16	1.007343E-16
3.640000E+03	2.716991E-16	1.017804E-16
3.650000E+03	2.766574E-16	1.028477E-16
3.660000E+03	2.817321E-16	1.039255E-16
3.670000E+03	2.868967E-16	1.050029E-16
3.680000E+03	2.922025E-16	1.060975E-16
3.690000E+03	2.976491E-16	1.072079E-16
3.700000E+03	3.032100E-16	1.083231E-16
3.710000E+03	3.088842E-16	1.094418E-16
3.720000E+03	3.146972E-16	1.105716E-16
3.730000E+03	3.206482E-16	1.117111E-16
3.740000E+03	3.267363E-16	1.128585E-16
3.750000E+03	3.329603E-16	1.140122E-16
3.760000E+03	3.393192E-16	1.151704E-16
3.770000E+03	3.458114E-16	1.163314E-16
3.780000E+03	3.524356E-16	1.174934E-16
3.790000E+03	3.592171E-16	1.186636E-16
3.800000E+03	3.661271E-16	1.198311E-16
3.810000E+03	3.731911E-16	1.210031E-16
3.820000E+03	3.804070E-16	1.221774E-16
3.830000E+03	3.877728E-16	1.233521E-16
3.840000E+03	3.952588E-16	1.245166E-16
3.850000E+03	4.029174E-16	1.256861E-16
3.860000E+03	4.107187E-16	1.268501E-16
3.870000E+03	4.186874E-16	1.280150E-16
3.880000E+03	4.267931E-16	1.291701E-16
3.890000E+03	4.350326E-16	1.303137E-16
3.900000E+03	4.434304E-16	1.314520E-16
3.910000E+03	4.520110E-16	1.325912E-16
3.920000E+03	4.607151E-16	1.337126E-16
3.930000E+03	4.695669E-16	1.348227E-16
3.940000E+03	4.785901E-16	1.359274E-16
3.950000E+03	4.877529E-16	1.370166E-16
3.960000E+03	4.970509E-16	1.380887E-16
3.970000E+03	5.065076E-16	1.391495E-16
3.980000E+03	5.161182E-16	1.401972E-16
3.990000E+03	5.258779E-16	1.412299E-16
4.000000E+03	5.357816E-16	1.422460E-16
4.010000E+03	5.458242E-16	1.432439E-16
4.020000E+03	5.560001E-16	1.442222E-16
4.030000E+03	5.663318E-16	1.451866E-16
4.040000E+03	5.767855E-16	1.461286E-16
4.050000E+03	5.873832E-16	1.470542E-16
4.060000E+03	5.981187E-16	1.479623E-16
4.070000E+03	6.089579E-16	1.488450E-16
4.080000E+03	6.199500E-16	1.497153E-16
4.090000E+03	6.310606E-16	1.505656E-16
4.100000E+03	6.422552E-16	1.513889E-16
4.110000E+03	6.535824E-16	1.521982E-16
4.120000E+03	6.650353E-16	1.529931E-16
4.130000E+03	6.765789E-16	1.537673E-16
4.140000E+03	6.882338E-16	1.545274E-16
4.150000E+03	6.999650E-16	1.552675E-16
4.160000E+03	7.117928E-16	1.559944E-16
4.170000E+03	7.236823E-16	1.567030E-16
4.180000E+03	7.356809E-16	1.574062E-16
4.190000E+03	7.477535E-16	1.580990E-16
4.200000E+03	7.598657E-16	1.587772E-16
4.210000E+03	7.720372E-16	1.594482E-16
4.220000E+03	7.842875E-16	1.601191E-16
4.230000E+03	7.965555E-16	1.607807E-16
4.240000E+03	8.088609E-16	1.614407E-16
4.250000E+03	8.211966E-16	1.621012E-16
4.260000E+03	8.335822E-16	1.627696E-16
4.270000E+03	8.459578E-16	1.634378E-16
4.280000E+03	8.583435E-16	1.641135E-16
4.290000E+03	8.707327E-16	1.647992E-16
4.300000E+03	8.830936E-16	1.654923E-16
4.310000E+03	8.954463E-16	1.662003E-16
4.320000E+03	9.077854E-16	1.669255E-16
4.330000E+03	9.200799E-16	1.676655E-16
4.340000E+03	9.323254E-16	1.684227E-16
4.350000E+03	9.445431E-16	1.692038E-16
4.360000E+03	9.566783E-16	1.700016E-16
4.370000E+03	9.687532E-16	1.708225E-16
4.380000E+03	9.807648E-16	1.716680E-16
4.390000E+03	9.926860E-16	1.725352E-16
4.400000E+03	1.004515E-15	1.734253E-16
4.410000E+03	1.016226E-15	1.743350E-16
4.420000E+03	1.027868E-15	1.752732E-16
4.430000E+03	1.039368E-15	1.762280E-16
4.440000E+03	1.050775E-15	1.772076E-16
4.450000E+03	1.062041E-15	1.782039E-16
4.460000E+03	1.073194E-15	1.792205E-16
4.470000E+03	1.084188E-15	1.802487E-16
4.480000E+03	1.095051E-15	1.812919E-16
4.490000E+03	1.105763E-15	1.823450E-16
4.500000E+03	1.116329E-15	1.834069E-16
4.510000E+03	1.126731E-15	1.844725E-16
4.520000E+03	1.136976E-15	1.855402E-16
4.530000E+03	1.147070E-15	1.866084E-16
4.540000E+03	1.156998E-15	1.876718E-16
4.550000E+03	1.166746E-15	1.887251E-16
4.560000E+03	1.176322E-15	1.897665E-16
4.570000E+03	1.185737E-15	1.907945E-16
4.580000E+03	1.194977E-15	1.918036E-16
4.590000E+03	1.204054E-15	1.927924E-16
4.600000E+03	1.212936E-15	1.937523E-16
4.610000E+03	1.221676E-15	1.946887E-16
4.620000E+03	1.230223E-15	1.955902E-16
4.630000E+03	1.238611E-15	1.964589E-16
4.640000E+03	1.246811E-15	1.972872E-16
4.650000E+03	1.254858E-15	1.980776E-16
4.660000E+03	1.262743E-15	1.988259E-16
4.670000E+03	1.270462E-15	1.995286E-16
4.680000E+03	1.278028E-15	2.001852E-16
4.690000E+03	1.285435E-15	2.007925E-16
4.700000E+03	1.292700E-15	2.013504E-16
4.710000E+03	1.299817E-15	2.018562E-16
4.720000E+03	1.306801E-15	2.023102E-16
4.730000E+03	1.313648E-15	2.027100E-16
4.740000E+03	1.320374E-15	2.030562E-16
4.750000E+03	1.326975E-15	2.033469E-16
4.760000E+03	1.333447E-15	2.035802E-16
4.770000E+03	1.339825E-15	2.037602E-16
4.780000E+03	1.346086E-15	2.038824E-16
4.790000E+03	1.352266E-15	2.039513E-16
4.800000E+03	1.358360E-15	2.039655E-16
4.810000E+03	1.364384E-15	2.039266E-16
4.820000E+03	1.370334E-15	2.038337E-16
4.830000E+03	1.376206E-15	2.036858E-16
4.840000E+03	1.382053E-15	2.034902E-16
4.850000E+03	1.387833E-15	2.032407E-16
4.860000E+03	1.393598E-15	2.029447E-16
4.870000E+03	1.399325E-15	2.025987E-16
4.880000E+03	1.405046E-15	2.022075E-16
4.890000E+03	1.410774E-15	2.017729E-16
4.900000E+03	1.416486E-15	2.012916E-16
4.910000E+03	1.422233E-15	2.007709E-16
4.920000E+03	1.428007E-15	2.002101E-16
4.930000E+03	1.433804E-15	1.996084E-16
4.940000E+03	1.439671E-15	1.989728E-16
4.950000E+03	1.445584E-15	1.983001E-16
4.960000E+03	1.451573E-15	1.975944E-16
4.970000E+03	1.457649E-15	1.968574E-16
4.980000E+03	1.463823E-15	1.960907E-16
4.990000E+03	1.470105E-15	1.952958E-16
5.000000E+03	1.476506E-15	1.944742E-16
5.010000E+03	1.483035E-15	1.936273E-16
5.020000E+03	1.489719E-15	1.927587E-16
5.030000E+03	1.496551E-15	1.918674E-16
5.040000E+03	1.503574E-15	1.909590E-16
5.050000E+03	1.510762E-15	1.900303E-16
5.060000E+03	1.518159E-15	1.890866E-16
5.070000E+03	1.525753E-15	1.881268E-16
5.080000E+03	1.533570E-15	1.871540E-16
5.090000E+03	1.541618E-15	1.861690E-16
5.100000E+03	1.549919E-15	1.851749E-16
5.110000E+03	1.558480E-15	1.841724E-16
5.120000E+03	1.567306E-15	1.831622E-16
5.130000E+03	1.576418E-15	1.821472E-16
5.140000E+03	1.585804E-15	1.811260E-16
5.150000E+03	1.595521E-15	1.801056E-16
5.160000E+03	1.605533E-15	1.790827E-16
5.170000E+03	1.615881E-15	1.780621E-16
5.180000E+03	1.626545E-15	1.770427E-16
5.190000E+03	1.637563E-15	1.760294E-16
5.200000E+03	1.648916E-15	1.750213E-16
5.210000E+03	1.660638E-15	1.740236E-16
5.220000E+03	1.672708E-15	1.730357E-16
5.230000E+03	1.685141E-15	1.720611E-16
5.240000E+03	1.697969E-15	1.711053E-16
5.250000E+03	1.711150E-15	1.701666E-16
5.260000E+03	1.724714E-15	1.692510E-16
5.270000E+03	1.738654E-15	1.683610E-16
5.280000E+03	1.752979E-15	1.675015E-16
5.290000E+03	1.767680E-15	1.666757E-16
5.300000E+03	1.782765E-15	1.658889E-16
5.310000E+03	1.798222E-15	1.651452E-16
5.320000E+03	1.814037E-15	1.644490E-16
5.330000E+03	1.830236E-15	1.638086E-16
5.340000E+03	1.846785E-15	1.632273E-16
5.350000E+03	1.863706E-15	1.627142E-16
5.360000E+03	1.880963E-15	1.622734E-16
5.370000E+03	1.898558E-15	1.619129E-16
5.380000E+03	1.916473E-15	1.616390E-16
5.390000E+03	1.934728E-15	1.614617E-16
5.400000E+03	1.953263E-15	1.613845E-16
5.410000E+03	1.972118E-15	1.614192E-16
5.420000E+03	1.991231E-15	1.615689E-16
5.430000E+03	2.010622E-15	1.618437E-16
5.440000E+03	2.030246E-15	1.622478E-16
5.450000E+03	2.050125E-15	1.627905E-16
5.460000E+03	2.070213E-15	1.634751E-16
5.470000E+03	2.090488E-15	1.643058E-16
5.480000E+03	2.110970E-15	1.652895E-16
5.490000E+03	2.131614E-15	1.664268E-16
5.500000E+03	2.152399E-15	1.677185E-16
5.510000E+03	2.173301E-15	1.691644E-16
5.520000E+03	2.194343E-15	1.707661E-16
5.530000E+03	2.215461E-15	1.725171E-16
5.540000E+03	2.236655E-15	1.744150E-16
5.550000E+03	2.257928E-15	1.764564E-16
5.560000E+03	2.279216E-15	1.786317E-16
5.570000E+03	2.300524E-15	1.809358E-16
5.580000E+03	2.321856E-15	1.833630E-16
5.590000E+03	2.343174E-15	1.859033E-16
5.600000E+03	2.364462E-15	1.885484E-16
5.610000E+03	2.385681E-15	1.912873E-16
5.620000E+03	2.406866E-15	1.941149E-16
5.630000E+03	2.427956E-15	1.970181E-16
5.640000E+03	2.448940E-15	1.999876E-16
5.650000E+03	2.469832E-15	2.030161E-16
5.660000E+03	2.490597E-15	2.060927E-16
5.670000E+03	2.511227E-15	2.092082E-16
5.680000E+03	2.531689E-15	2.123519E-16
5.690000E+03	2.551978E-15	2.155152E-16
5.700000E+03	2.572109E-15	2.186919E-16
5.710000E+03	2.592004E-15	2.218677E-16
5.720000E+03	2.611707E-15	2.250388E-16
5.730000E+03	2.631162E-15	2.281937E-16
5.740000E+03	2.650389E-15	2.313271E-16
5.750000E+03	2.669334E-15	2.344278E-16
5.760000E+03	2.688016E-15	2.374913E-16
5.770000E+03	2.706379E-15	2.405065E-16
5.780000E+03	2.724444E-15	2.434694E-16
5.790000E+03	2.742154E-15	2.463695E-16
5.800000E+03	2.759503E-15	2.492009E-16
5.810000E+03	2.776457E-15	2.519556E-16
5.820000E+03	2.793035E-15	2.546303E-16
5.830000E+03	2.809178E-15	2.572152E-16
5.840000E+03	2.824851E-15	2.597025E-16
5.850000E+03	2.840044E-15	2.620873E-16
5.860000E+03	2.854723E-15	2.643622E-16
5.870000E+03	2.868876E-15	2.665225E-16
5.880000E+03	2.882468E-15	2.685613E-16
5.890000E+03	2.895461E-15	2.704717E-16
5.900000E+03	2.907820E-15	2.722469E-16
5.910000E+03	2.919532E-15	2.738831E-16
5.920000E+03	2.930562E-15	2.753737E-16
5.930000E+03	2.940874E-15	2.767129E-16
5.940000E+03	2.950458E-15	2.778971E-16
5.950000E+03	2.959256E-15	2.789185E-16
5.960000E+03	2.967260E-15	2.797740E-16
5.970000E+03	2.974438E-15	2.804587E-16
5.980000E+03	2.980787E-15	2.809703E-16
5.990000E+03	2.986277E-15	2.813046E-16
6.000000E+03	2.990858E-15	2.814550E-16
6.010000E+03	2.994556E-15	2.814228E-16
6.020000E+03	2.997324E-15	2.812024E-16
6.030000E+03	2.999167E-15	2.807934E-16
6.040000E+03	3.000093E-15	2.801958E-16
6.050000E+03	3.000062E-15	2.794053E-16
6.060000E+03	2.999086E-15	2.784228E-16
6.070000E+03	2.997155E-15	2.772474E-16
6.080000E+03	2.994310E-15	2.758831E-16
6.090000E+03	2.990497E-15	2.743252E-16
6.100000E+03	2.985785E-15	2.725812E-16
6.110000E+03	2.980149E-15	2.706497E-16
6.120000E+03	2.973615E-15	2.685344E-16
6.130000E+03	2.966233E-15	2.662418E-16
6.140000E+03	2.957960E-15	2.637696E-16
6.150000E+03	2.948874E-15	2.611276E-16
6.160000E+03	2.938984E-15	2.583190E-16
6.170000E+03	2.928323E-15	2.553499E-16
6.180000E+03	2.916949E-15	2.522288E-16
6.190000E+03	2.904850E-15	2.489583E-16
6.200000E+03	2.892086E-15	2.455478E-16
6.210000E+03	2.878720E-15	2.420069E-16
6.220000E+03	2.864763E-15	2.383418E-16
6.230000E+03	2.850278E-15	2.345628E-16
6.240000E+03	2.835328E-15	2.306807E-16
6.250000E+03	2.819926E-15	2.267027E-16
6.260000E+03	2.804135E-15	2.226401E-16
6.270000E+03	2.787991E-15	2.185030E-16
6.280000E+03	2.771580E-15	2.143053E-16
6.290000E+03	2.754939E-15	2.100577E-16
6.300000E+03	2.738103E-15	2.057711E-16
6.310000E+03	2.721130E-15	2.014590E-16
6.320000E+03	2.704079E-15	1.971349E-16
6.330000E+03	2.687028E-15	1.928149E-16
6.340000E+03	2.669963E-15	1.885085E-16
6.350000E+03	2.653008E-15	1.842358E-16
6.360000E+03	2.636145E-15	1.800080E-16
6.370000E+03	2.619471E-15	1.758446E-16
6.380000E+03	2.603013E-15	1.717612E-16
6.390000E+03	2.586818E-15	1.677756E-16
6.400000E+03	2.570910E-15	1.639049E-16
6.410000E+03	2.555380E-15	1.601712E-16
6.420000E+03	2.540225E-15	1.565914E-16
6.430000E+03	2.525487E-15	1.531859E-16
6.440000E+03	2.511228E-15	1.499768E-16
6.450000E+03	2.497464E-15	1.469836E-16
6.460000E+03	2.484209E-15	1.442257E-16
6.470000E+03	2.471543E-15	1.417259E-16
6.480000E+03	2.459430E-15	1.394996E-16
6.490000E+03	2.447947E-15	1.375671E-16
6.500000E+03	2.437074E-15	1.359415E-16
6.510000E+03	2.426836E-15	1.346353E-16
6.520000E+03	2.417272E-15	1.336586E-16
6.530000E+03	2.408326E-15	1.330118E-16
6.540000E+03	2.400044E-15	1.326954E-16
6.550000E+03	2.392375E-15	1.326994E-16
6.560000E+03	2.385304E-15	1.330114E-16
6.570000E+03	2.378769E-15	1.336128E-16
6.580000E+03	2.372794E-15	1.344872E-16
6.590000E+03	2.367290E-15	1.356102E-16
6.600000E+03	2.362260E-15	1.369616E-16
6.610000E+03	2.357638E-15	1.385168E-16
6.620000E+03	2.353406E-15	1.402539E-16
6.630000E+03	2.349503E-15	1.421488E-16
6.640000E+03	2.345936E-15	1.441825E-16
6.650000E+03	2.342673E-15	1.463344E-16
6.660000E+03	2.339635E-15	1.485821E-16
6.670000E+03	2.336862E-15	1.509119E-16
6.680000E+03	2.334281E-15	1.533043E-16
6.690000E+03	2.331915E-15	1.557472E-16
6.700000E+03	2.329697E-15	1.582236E-16
6.710000E+03	2.327631E-15	1.607227E-16
6.720000E+03	2.325725E-15	1.632351E-16
6.730000E+03	2.323919E-15	1.657476E-16
6.740000E+03	2.322248E-15	1.682549E-16
6.750000E+03	2.320680E-15	1.707476E-16
6.760000E+03	2.319232E-15	1.732210E-16
6.770000E+03	2.317874E-15	1.756675E-16
6.780000E+03	2.316603E-15	1.780821E-16
6.790000E+03	2.315417E-15	1.804606E-16
6.800000E+03	2.314338E-15	1.828014E-16
6.810000E+03	2.313320E-15	1.850977E-16
6.820000E+03	2.312411E-15	1.873509E-16
6.830000E+03	2.311591E-15	1.895570E-16
6.840000E+03	2.310885E-15	1.917165E-16
6.850000E+03	2.310248E-15	1.938239E-16
6.860000E+03	2.309709E-15	1.958804E-16
6.870000E+03	2.309271E-15	1.978851E-16
6.880000E+03	2.308940E-15	1.998376E-16
6.890000E+03	2.308718E-15	2.017373E-16
6.900000E+03	2.308586E-15	2.035818E-16
6.910000E+03	2.308572E-15	2.053732E-16
6.920000E+03	2.308680E-15	2.071112E-16
6.930000E+03	2.308890E-15	2.087937E-16
6.940000E+03	2.309203E-15	2.104205E-16
6.950000E+03	2.309649E-15	2.119938E-16
6.960000E+03	2.310178E-15	2.135090E-16
6.970000E+03	2.310844E-15	2.149707E-16
6.980000E+03	2.311622E-15	2.163763E-16
6.990000E+03	2.312513E-15	2.177257E-16
7.000000E+03	2.313492E-15	2.190163E-16
7.010000E+03	2.314583E-15	2.202501E-16
7.020000E+03	2.315785E-15	2.214268E-16
7.030000E+03	2.317070E-15	2.225435E-16
7.040000E+03	2.318435E-15	2.235996E-16
7.050000E+03	2.319903E-15	2.245970E-16
7.060000E+03	2.321444E-15	2.255325E-16
7.070000E+03	2.323052E-15	2.264053E-16
7.080000E+03	2.324694E-15	2.272119E-16
7.090000E+03	2.326419E-15	2.279566E-16
7.100000E+03	2.328163E-15	2.286330E-16
7.110000E+03	2.329948E-15	2.292427E-16
7.120000E+03	2.331737E-15	2.297819E-16
7.130000E+03	2.333521E-15	2.302494E-16
7.140000E+03	2.335316E-15	2.306467E-16
7.150000E+03	2.337087E-15	2.309699E-16
7.160000E+03	2.338821E-15	2.312177E-16
7.170000E+03	2.340509E-15	2.313891E-16
7.180000E+03	2.342111E-15	2.314803E-16
7.190000E+03	2.343644E-15	2.314930E-16
7.200000E+03	2.345096E-15	2.314265E-16
7.210000E+03	2.346428E-15	2.312774E-16
7.220000E+03	2.347630E-15	2.310454E-16
7.230000E+03	2.348691E-15	2.307302E-16
7.240000E+03	2.349628E-15	2.303349E-16
7.250000E+03	2.350376E-15	2.298543E-16
7.260000E+03	2.350983E-15	2.292950E-16
7.270000E+03	2.351384E-15	2.286525E-16
7.280000E+03	2.351572E-15	2.279285E-16
7.290000E+03	2.351570E-15	2.271280E-16
7.300000E+03	2.351373E-15	2.262534E-16
7.310000E+03	2.350949E-15	2.253050E-16
7.320000E+03	2.350296E-15	2.242863E-16
7.330000E+03	2.349411E-15	2.232012E-16
7.340000E+03	2.348295E-15	2.220541E-16
7.350000E+03	2.346949E-15	2.208498E-16
7.360000E+03	2.345375E-15	2.195935E-16
7.370000E+03	2.343548E-15	2.182877E-16
7.380000E+03	2.341499E-15	2.169411E-16
7.390000E+03	2.339234E-15	2.155595E-16
7.400000E+03	2.336758E-15	2.141488E-16
7.410000E+03	2.334048E-15	2.127124E-16
7.420000E+03	2.331109E-15	2.112562E-16
7.430000E+03	2.327977E-15	2.097885E-16
7.440000E+03	2.324628E-15	2.083119E-16
7.450000E+03	2.321096E-15	2.068341E-16
7.460000E+03	2.317358E-15	2.053567E-16
7.470000E+03	2.313446E-15	2.038861E-16
7.480000E+03	2.309336E-15	2.024224E-16
7.490000E+03	2.305029E-15	2.009679E-16
7.500000E+03	2.300556E-15	1.995262E-16
7.510000E+03	2.295887E-15	1.980950E-16
7.520000E+03	2.291053E-15	1.966761E-16
7.530000E+03	2.286049E-15	1.952677E-16
7.540000E+03	2.280845E-15	1.938645E-16
7.550000E+03	2.275464E-15	1.924656E-16
7.560000E+03	2.269903E-15	1.910664E-16
7.570000E+03	2.264124E-15	1.896593E-16
7.580000E+03	2.258180E-15	1.882433E-16
7.590000E+03	2.252004E-15	1.868072E-16
7.600000E+03	2.245647E-15	1.853491E-16
7.610000E+03	2.239071E-15	1.838595E-16
7.620000E+03	2.232298E-15	1.823335E-16
7.630000E+03	2.225258E-15	1.807591E-16
7.640000E+03	2.218034E-15	1.791364E-16
7.650000E+03	2.210556E-15	1.774535E-16
7.660000E+03	2.202819E-15	1.757039E-16
7.670000E+03	2.194874E-15	1.738862E-16
7.680000E+03	2.186656E-15	1.719899E-16
7.690000E+03	2.178220E-15	1.700147E-16
7.700000E+03	2.169504E-15	1.679514E-16
7.710000E+03	2.160563E-15	1.658011E-16
7.720000E+03	2.151370E-15	1.635585E-16
7.730000E+03	2.141924E-15	1.612215E-16
7.740000E+03	2.132258E-15	1.587913E-16
7.750000E+03	2.122349E-15	1.562653E-16
7.760000E+03	2.112233E-15	1.536464E-16
