#wls	flux	fluxerr
1.600000E+03	3.252752E-18	2.509611E-18
1.640000E+03	3.337200E-18	2.559344E-18
1.680000E+03	3.427131E-18	2.612457E-18
1.720000E+03	3.521831E-18	2.668326E-18
1.760000E+03	3.622567E-18	2.727827E-18
1.800000E+03	3.729652E-18	2.791101E-18
1.840000E+03	3.843422E-18	2.858293E-18
1.880000E+03	3.964231E-18	2.929553E-18
1.920000E+03	4.091402E-18	3.004267E-18
1.960000E+03	4.227430E-18	3.084141E-18
2.000000E+03	4.370614E-18	3.167788E-18
2.040000E+03	4.523559E-18	3.256950E-18
2.080000E+03	4.685669E-18	3.351027E-18
2.120000E+03	4.857447E-18	3.450200E-18
2.160000E+03	5.040586E-18	3.555476E-18
2.200000E+03	5.234523E-18	3.666243E-18
2.240000E+03	5.439850E-18	3.782690E-18
2.280000E+03	5.658419E-18	3.905860E-18
2.320000E+03	5.889699E-18	4.035112E-18
2.360000E+03	6.135659E-18	4.171506E-18
2.400000E+03	6.398411E-18	4.316146E-18
2.440000E+03	6.676198E-18	4.467486E-18
2.480000E+03	6.971181E-18	4.626604E-18
2.520000E+03	7.285679E-18	4.794620E-18
2.560000E+03	7.619306E-18	4.970816E-18
2.600000E+03	7.974526E-18	5.156307E-18
2.640000E+03	8.352469E-18	5.351274E-18
2.680000E+03	8.755855E-18	5.556857E-18
2.720000E+03	9.184416E-18	5.772225E-18
2.760000E+03	9.641018E-18	5.998472E-18
2.800000E+03	1.012872E-17	6.236710E-18
2.840000E+03	1.064733E-17	6.485961E-18
2.880000E+03	1.120180E-17	6.748308E-18
2.920000E+03	1.179383E-17	7.023722E-18
2.960000E+03	1.242698E-17	7.313182E-18
3.000000E+03	1.310116E-17	7.615394E-18
3.010000E+03	1.327806E-17	7.693914E-18
3.020000E+03	1.345682E-17	7.772719E-18
3.030000E+03	1.363941E-17	7.852924E-18
3.040000E+03	1.382390E-17	7.933395E-18
3.050000E+03	1.401229E-17	8.015254E-18
3.060000E+03	1.420262E-17	8.097359E-18
3.070000E+03	1.439692E-17	8.180838E-18
3.080000E+03	1.459522E-17	8.265688E-18
3.090000E+03	1.479757E-17	8.351903E-18
3.100000E+03	1.500197E-17	8.438324E-18
3.110000E+03	1.521048E-17	8.526091E-18
3.120000E+03	1.542106E-17	8.614034E-18
3.130000E+03	1.563582E-17	8.703302E-18
3.140000E+03	1.585480E-17	8.793884E-18
3.150000E+03	1.607804E-17	8.885772E-18
3.160000E+03	1.630558E-17	8.978955E-18
3.170000E+03	1.653531E-17	9.072241E-18
3.180000E+03	1.676939E-17	9.166790E-18
3.190000E+03	1.700787E-17	9.262591E-18
3.200000E+03	1.725078E-17	9.359627E-18
3.210000E+03	1.749595E-17	9.456689E-18
3.220000E+03	1.774783E-17	9.556148E-18
3.230000E+03	1.800201E-17	9.655592E-18
3.240000E+03	1.826074E-17	9.756197E-18
3.250000E+03	1.852633E-17	9.859153E-18
3.260000E+03	1.879428E-17	9.962024E-18
3.270000E+03	1.906687E-17	1.006599E-17
3.280000E+03	1.934415E-17	1.017104E-17
3.290000E+03	1.962613E-17	1.027714E-17
3.300000E+03	1.991285E-17	1.038426E-17
3.310000E+03	2.020432E-17	1.049238E-17
3.320000E+03	2.050058E-17	1.060147E-17
3.330000E+03	2.080165E-17	1.071151E-17
3.340000E+03	2.110995E-17	1.082368E-17
3.350000E+03	2.142070E-17	1.093551E-17
3.360000E+03	2.173876E-17	1.104941E-17
3.370000E+03	2.205927E-17	1.116289E-17
3.380000E+03	2.238714E-17	1.127839E-17
3.390000E+03	2.272242E-17	1.139587E-17
3.400000E+03	2.306017E-17	1.151281E-17
3.410000E+03	2.340287E-17	1.163040E-17
3.420000E+03	2.375304E-17	1.174987E-17
3.430000E+03	2.411075E-17	1.187117E-17
3.440000E+03	2.447089E-17	1.199175E-17
3.450000E+03	2.483859E-17	1.211408E-17
3.460000E+03	2.521128E-17	1.223685E-17
3.470000E+03	2.559156E-17	1.236127E-17
3.480000E+03	2.597684E-17	1.248604E-17
3.490000E+03	2.636710E-17	1.261110E-17
3.500000E+03	2.676499E-17	1.273766E-17
3.510000E+03	2.716784E-17	1.286441E-17
3.520000E+03	2.757832E-17	1.299256E-17
3.530000E+03	2.799374E-17	1.312078E-17
3.540000E+03	2.841678E-17	1.325028E-17
3.550000E+03	2.884746E-17	1.338101E-17
3.560000E+03	2.928302E-17	1.351164E-17
3.570000E+03	2.972618E-17	1.364337E-17
3.580000E+03	3.017416E-17	1.377486E-17
3.590000E+03	3.062970E-17	1.390733E-17
3.600000E+03	3.109278E-17	1.404071E-17
3.610000E+03	3.156339E-17	1.417493E-17
3.620000E+03	3.203866E-17	1.430864E-17
3.630000E+03	3.252136E-17	1.444306E-17
3.640000E+03	3.301148E-17	1.457811E-17
3.650000E+03	3.350608E-17	1.471245E-17
3.660000E+03	3.401088E-17	1.484854E-17
3.670000E+03	3.452005E-17	1.498377E-17
3.680000E+03	3.503933E-17	1.512060E-17
3.690000E+03	3.556284E-17	1.525642E-17
3.700000E+03	3.609341E-17	1.539242E-17
3.710000E+03	3.663099E-17	1.552852E-17
3.720000E+03	3.717847E-17	1.566591E-17
3.730000E+03	3.772983E-17	1.580198E-17
3.740000E+03	3.828794E-17	1.593792E-17
3.750000E+03	3.885272E-17	1.607364E-17
3.760000E+03	3.942709E-17	1.621032E-17
3.770000E+03	4.000491E-17	1.634539E-17
3.780000E+03	4.059213E-17	1.648124E-17
3.790000E+03	4.118561E-17	1.661656E-17
3.800000E+03	4.178523E-17	1.675128E-17
3.810000E+03	4.239394E-17	1.688653E-17
3.820000E+03	4.300548E-17	1.701980E-17
3.830000E+03	4.362586E-17	1.715345E-17
3.840000E+03	4.425186E-17	1.728618E-17
3.850000E+03	4.488335E-17	1.741793E-17
3.860000E+03	4.552329E-17	1.754983E-17
3.870000E+03	4.616842E-17	1.768059E-17
3.880000E+03	4.682173E-17	1.781135E-17
3.890000E+03	4.747675E-17	1.793965E-17
3.900000E+03	4.814279E-17	1.806899E-17
3.910000E+03	4.881021E-17	1.819575E-17
3.920000E+03	4.948516E-17	1.832223E-17
3.930000E+03	5.016747E-17	1.844838E-17
3.940000E+03	5.085379E-17	1.857294E-17
3.950000E+03	5.154393E-17	1.869588E-17
3.960000E+03	5.224090E-17	1.881831E-17
3.970000E+03	5.294452E-17	1.894016E-17
3.980000E+03	5.365139E-17	1.906024E-17
3.990000E+03	5.436131E-17	1.917852E-17
4.000000E+03	5.508053E-17	1.929722E-17
4.010000E+03	5.579917E-17	1.941291E-17
4.020000E+03	5.652348E-17	1.952783E-17
4.030000E+03	5.725328E-17	1.964192E-17
4.040000E+03	5.798512E-17	1.975406E-17
4.050000E+03	5.872204E-17	1.986532E-17
4.060000E+03	5.946383E-17	1.997570E-17
4.070000E+03	6.020705E-17	2.008406E-17
4.080000E+03	6.095475E-17	2.019150E-17
4.090000E+03	6.170346E-17	2.029693E-17
4.100000E+03	6.245625E-17	2.040142E-17
4.110000E+03	6.321291E-17	2.050497E-17
4.120000E+03	6.396999E-17	2.060651E-17
4.130000E+03	6.472730E-17	2.070607E-17
4.140000E+03	6.549117E-17	2.080574E-17
4.150000E+03	6.625163E-17	2.090243E-17
4.160000E+03	6.701829E-17	2.099924E-17
4.170000E+03	6.778444E-17	2.109414E-17
4.180000E+03	6.854992E-17	2.118717E-17
4.190000E+03	6.932109E-17	2.128036E-17
4.200000E+03	7.008800E-17	2.137073E-17
4.210000E+03	7.085703E-17	2.146032E-17
4.220000E+03	7.162804E-17	2.154915E-17
4.230000E+03	7.239763E-17	2.163628E-17
4.240000E+03	7.316894E-17	2.172271E-17
4.250000E+03	7.393860E-17	2.180751E-17
4.260000E+03	7.470652E-17	2.189073E-17
4.270000E+03	7.547583E-17	2.197337E-17
4.280000E+03	7.624323E-17	2.205451E-17
4.290000E+03	7.701187E-17	2.213514E-17
4.300000E+03	7.777524E-17	2.221343E-17
4.310000E+03	7.854297E-17	2.229220E-17
4.320000E+03	7.930537E-17	2.236873E-17
4.330000E+03	8.006885E-17	2.244489E-17
4.340000E+03	8.082700E-17	2.251890E-17
4.350000E+03	8.158623E-17	2.259260E-17
4.360000E+03	8.234338E-17	2.266514E-17
4.370000E+03	8.310167E-17	2.273741E-17
4.380000E+03	8.385478E-17	2.280770E-17
4.390000E+03	8.460598E-17	2.287692E-17
4.400000E+03	8.535537E-17	2.294509E-17
4.410000E+03	8.610304E-17	2.301224E-17
4.420000E+03	8.684912E-17	2.307839E-17
4.430000E+03	8.759376E-17	2.314355E-17
4.440000E+03	8.833395E-17	2.320690E-17
4.450000E+03	8.907617E-17	2.327013E-17
4.460000E+03	8.981432E-17	2.333158E-17
4.470000E+03	9.054863E-17	2.339129E-17
4.480000E+03	9.128245E-17	2.345005E-17
4.490000E+03	9.201602E-17	2.350788E-17
4.500000E+03	9.274648E-17	2.356397E-17
4.510000E+03	9.347413E-17	2.361833E-17
4.520000E+03	9.420234E-17	2.367174E-17
4.530000E+03	9.492835E-17	2.372341E-17
4.540000E+03	9.565248E-17	2.377333E-17
4.550000E+03	9.637814E-17	2.382226E-17
4.560000E+03	9.710262E-17	2.386941E-17
4.570000E+03	9.782325E-17	2.391402E-17
4.580000E+03	9.854652E-17	2.395758E-17
4.590000E+03	9.926674E-17	2.399858E-17
4.600000E+03	9.999039E-17	2.403847E-17
4.610000E+03	1.007119E-16	2.407577E-17
4.620000E+03	1.014346E-16	2.411117E-17
4.630000E+03	1.021561E-16	2.414395E-17
4.640000E+03	1.028827E-16	2.417548E-17
4.650000E+03	1.036061E-16	2.420364E-17
4.660000E+03	1.043356E-16	2.423048E-17
4.670000E+03	1.050628E-16	2.425390E-17
4.680000E+03	1.057941E-16	2.427525E-17
4.690000E+03	1.065301E-16	2.429448E-17
4.700000E+03	1.072654E-16	2.431022E-17
4.710000E+03	1.080064E-16	2.432376E-17
4.720000E+03	1.087478E-16	2.433375E-17
4.730000E+03	1.094959E-16	2.434147E-17
4.740000E+03	1.102485E-16	2.434622E-17
4.750000E+03	1.110060E-16	2.434796E-17
4.760000E+03	1.117661E-16	2.434601E-17
4.770000E+03	1.125323E-16	2.434096E-17
4.780000E+03	1.133052E-16	2.433278E-17
4.790000E+03	1.140852E-16	2.432139E-17
4.800000E+03	1.148702E-16	2.430615E-17
4.810000E+03	1.156635E-16	2.428760E-17
4.820000E+03	1.164628E-16	2.426509E-17
4.830000E+03	1.172715E-16	2.423916E-17
4.840000E+03	1.180875E-16	2.420915E-17
4.850000E+03	1.189140E-16	2.417559E-17
4.860000E+03	1.197489E-16	2.413782E-17
4.870000E+03	1.205925E-16	2.409577E-17
4.880000E+03	1.214456E-16	2.404938E-17
4.890000E+03	1.223086E-16	2.399855E-17
4.900000E+03	1.231821E-16	2.394323E-17
4.910000E+03	1.240694E-16	2.388386E-17
4.920000E+03	1.249654E-16	2.381926E-17
4.930000E+03	1.258735E-16	2.374988E-17
4.940000E+03	1.267941E-16	2.367562E-17
4.950000E+03	1.277306E-16	2.359691E-17
4.960000E+03	1.286749E-16	2.351204E-17
4.970000E+03	1.296361E-16	2.342250E-17
4.980000E+03	1.306088E-16	2.332711E-17
4.990000E+03	1.315994E-16	2.322679E-17
5.000000E+03	1.325995E-16	2.311987E-17
5.010000E+03	1.336182E-16	2.300776E-17
5.020000E+03	1.346502E-16	2.288930E-17
5.030000E+03	1.356958E-16	2.276439E-17
5.040000E+03	1.367611E-16	2.263385E-17
5.050000E+03	1.378379E-16	2.249609E-17
5.060000E+03	1.389322E-16	2.235195E-17
5.070000E+03	1.400443E-16	2.220126E-17
5.080000E+03	1.411717E-16	2.204343E-17
5.090000E+03	1.423174E-16	2.187879E-17
5.100000E+03	1.434788E-16	2.170674E-17
5.110000E+03	1.446560E-16	2.152716E-17
5.120000E+03	1.458523E-16	2.134039E-17
5.130000E+03	1.470647E-16	2.114586E-17
5.140000E+03	1.482934E-16	2.094348E-17
5.150000E+03	1.495415E-16	2.073360E-17
5.160000E+03	1.508061E-16	2.051573E-17
5.170000E+03	1.520902E-16	2.029022E-17
5.180000E+03	1.533878E-16	2.005626E-17
5.190000E+03	1.547049E-16	1.981466E-17
5.200000E+03	1.560414E-16	1.956544E-17
5.210000E+03	1.573914E-16	1.930792E-17
5.220000E+03	1.587606E-16	1.904301E-17
5.230000E+03	1.601459E-16	1.877050E-17
5.240000E+03	1.615473E-16	1.849065E-17
5.250000E+03	1.629675E-16	1.820413E-17
5.260000E+03	1.644001E-16	1.791065E-17
5.270000E+03	1.658513E-16	1.761139E-17
5.280000E+03	1.673175E-16	1.730662E-17
5.290000E+03	1.688016E-16	1.699738E-17
5.300000E+03	1.702971E-16	1.668390E-17
5.310000E+03	1.718100E-16	1.636784E-17
5.320000E+03	1.733367E-16	1.605008E-17
5.330000E+03	1.748769E-16	1.573203E-17
5.340000E+03	1.764303E-16	1.541530E-17
5.350000E+03	1.779997E-16	1.510204E-17
5.360000E+03	1.795815E-16	1.479407E-17
5.370000E+03	1.811754E-16	1.449383E-17
5.380000E+03	1.827810E-16	1.420403E-17
5.390000E+03	1.843979E-16	1.392768E-17
5.400000E+03	1.860257E-16	1.366813E-17
5.410000E+03	1.876673E-16	1.342925E-17
5.420000E+03	1.893160E-16	1.321443E-17
5.430000E+03	1.909778E-16	1.302824E-17
5.440000E+03	1.926491E-16	1.287464E-17
5.450000E+03	1.943297E-16	1.275782E-17
5.460000E+03	1.960192E-16	1.268181E-17
5.470000E+03	1.977172E-16	1.265032E-17
5.480000E+03	1.994267E-16	1.266668E-17
5.490000E+03	2.011403E-16	1.273280E-17
5.500000E+03	2.028642E-16	1.285034E-17
5.510000E+03	2.045903E-16	1.301893E-17
5.520000E+03	2.063242E-16	1.323793E-17
5.530000E+03	2.080575E-16	1.350495E-17
5.540000E+03	2.097957E-16	1.381780E-17
5.550000E+03	2.115301E-16	1.417290E-17
5.560000E+03	2.132663E-16	1.456725E-17
5.570000E+03	2.149956E-16	1.499676E-17
5.580000E+03	2.167234E-16	1.545820E-17
5.590000E+03	2.184410E-16	1.594739E-17
5.600000E+03	2.201505E-16	1.646101E-17
5.610000E+03	2.218540E-16	1.699589E-17
5.620000E+03	2.235390E-16	1.754793E-17
5.630000E+03	2.252150E-16	1.811489E-17
5.640000E+03	2.268769E-16	1.869360E-17
5.650000E+03	2.285195E-16	1.928106E-17
5.660000E+03	2.301452E-16	1.987505E-17
5.670000E+03	2.317527E-16	2.047324E-17
5.680000E+03	2.333406E-16	2.107344E-17
5.690000E+03	2.349040E-16	2.167329E-17
5.700000E+03	2.364453E-16	2.227124E-17
5.710000E+03	2.379597E-16	2.286517E-17
5.720000E+03	2.394498E-16	2.345378E-17
5.730000E+03	2.409107E-16	2.403515E-17
5.740000E+03	2.423453E-16	2.460823E-17
5.750000E+03	2.437526E-16	2.517167E-17
5.760000E+03	2.451277E-16	2.572381E-17
5.770000E+03	2.464700E-16	2.626343E-17
5.780000E+03	2.477823E-16	2.678984E-17
5.790000E+03	2.490563E-16	2.730114E-17
5.800000E+03	2.503027E-16	2.779759E-17
5.810000E+03	2.515095E-16	2.827700E-17
5.820000E+03	2.526836E-16	2.873934E-17
5.830000E+03	2.538207E-16	2.918336E-17
5.840000E+03	2.549203E-16	2.960828E-17
5.850000E+03	2.559820E-16	3.001338E-17
5.860000E+03	2.570055E-16	3.039796E-17
5.870000E+03	2.579942E-16	3.076188E-17
5.880000E+03	2.589402E-16	3.110361E-17
5.890000E+03	2.598471E-16	3.142306E-17
5.900000E+03	2.607188E-16	3.172022E-17
5.910000E+03	2.615474E-16	3.199367E-17
5.920000E+03	2.623366E-16	3.224346E-17
5.930000E+03	2.630867E-16	3.246920E-17
5.940000E+03	2.637937E-16	3.267007E-17
5.950000E+03	2.644658E-16	3.284673E-17
5.960000E+03	2.650953E-16	3.299793E-17
5.970000E+03	2.656864E-16	3.312392E-17
5.980000E+03	2.662355E-16	3.322401E-17
5.990000E+03	2.667510E-16	3.329902E-17
6.000000E+03	2.672254E-16	3.334783E-17
6.010000E+03	2.676592E-16	3.337035E-17
6.020000E+03	2.680572E-16	3.336699E-17
6.030000E+03	2.684198E-16	3.333773E-17
6.040000E+03	2.687439E-16	3.328206E-17
6.050000E+03	2.690342E-16	3.320052E-17
6.060000E+03	2.692877E-16	3.309265E-17
6.070000E+03	2.695091E-16	3.295905E-17
6.080000E+03	2.696994E-16	3.279981E-17
6.090000E+03	2.698517E-16	3.261412E-17
6.100000E+03	2.699789E-16	3.240359E-17
6.110000E+03	2.700742E-16	3.216744E-17
6.120000E+03	2.701387E-16	3.190591E-17
6.130000E+03	2.701737E-16	3.161925E-17
6.140000E+03	2.701882E-16	3.130864E-17
6.150000E+03	2.701717E-16	3.097300E-17
6.160000E+03	2.701334E-16	3.061355E-17
6.170000E+03	2.700746E-16	3.023064E-17
6.180000E+03	2.699926E-16	2.982417E-17
6.190000E+03	2.698889E-16	2.939454E-17
6.200000E+03	2.697688E-16	2.894259E-17
6.210000E+03	2.696298E-16	2.846833E-17
6.220000E+03	2.694772E-16	2.797263E-17
6.230000E+03	2.693085E-16	2.745558E-17
6.240000E+03	2.691290E-16	2.691810E-17
6.250000E+03	2.689403E-16	2.636073E-17
6.260000E+03	2.687398E-16	2.578367E-17
6.270000E+03	2.685328E-16	2.518795E-17
6.280000E+03	2.683167E-16	2.457387E-17
6.290000E+03	2.680970E-16	2.394255E-17
6.300000E+03	2.678748E-16	2.329479E-17
6.310000E+03	2.676477E-16	2.263114E-17
6.320000E+03	2.674208E-16	2.195295E-17
6.330000E+03	2.671953E-16	2.126130E-17
6.340000E+03	2.669686E-16	2.055716E-17
6.350000E+03	2.667495E-16	1.984254E-17
6.360000E+03	2.665314E-16	1.911851E-17
6.370000E+03	2.663230E-16	1.838751E-17
6.380000E+03	2.661176E-16	1.765122E-17
6.390000E+03	2.659197E-16	1.691254E-17
6.400000E+03	2.657304E-16	1.617455E-17
6.410000E+03	2.655541E-16	1.544118E-17
6.420000E+03	2.653836E-16	1.471640E-17
6.430000E+03	2.652274E-16	1.400598E-17
6.440000E+03	2.650817E-16	1.331608E-17
6.450000E+03	2.649470E-16	1.265439E-17
6.460000E+03	2.648272E-16	1.203022E-17
6.470000E+03	2.647186E-16	1.145408E-17
6.480000E+03	2.646210E-16	1.093826E-17
6.490000E+03	2.645380E-16	1.049649E-17
6.500000E+03	2.644654E-16	1.014279E-17
6.510000E+03	2.644067E-16	9.890979E-18
6.520000E+03	2.643613E-16	9.752425E-18
6.530000E+03	2.643250E-16	9.734157E-18
6.540000E+03	2.643016E-16	9.837711E-18
6.550000E+03	2.642916E-16	1.005841E-17
6.560000E+03	2.642915E-16	1.038655E-17
6.570000E+03	2.643098E-16	1.080988E-17
6.580000E+03	2.643390E-16	1.131435E-17
6.590000E+03	2.643874E-16	1.188675E-17
6.600000E+03	2.644475E-16	1.251425E-17
6.610000E+03	2.645272E-16	1.318618E-17
6.620000E+03	2.646227E-16	1.389288E-17
6.630000E+03	2.647340E-16	1.462639E-17
6.640000E+03	2.648608E-16	1.538006E-17
6.650000E+03	2.650071E-16	1.614862E-17
6.660000E+03	2.651685E-16	1.692731E-17
6.670000E+03	2.653448E-16	1.771238E-17
6.680000E+03	2.655396E-16	1.850098E-17
6.690000E+03	2.657524E-16	1.929059E-17
6.700000E+03	2.659789E-16	2.007877E-17
6.710000E+03	2.662185E-16	2.086374E-17
6.720000E+03	2.664748E-16	2.164430E-17
6.730000E+03	2.667473E-16	2.241921E-17
6.740000E+03	2.670355E-16	2.318744E-17
6.750000E+03	2.673389E-16	2.394808E-17
6.760000E+03	2.676527E-16	2.470001E-17
6.770000E+03	2.679806E-16	2.544294E-17
6.780000E+03	2.683221E-16	2.617630E-17
6.790000E+03	2.686807E-16	2.690004E-17
6.800000E+03	2.690477E-16	2.761292E-17
6.810000E+03	2.694266E-16	2.831499E-17
6.820000E+03	2.698169E-16	2.900593E-17
6.830000E+03	2.702224E-16	2.968594E-17
6.840000E+03	2.706341E-16	3.035384E-17
6.850000E+03	2.710599E-16	3.101037E-17
6.860000E+03	2.714953E-16	3.165488E-17
6.870000E+03	2.719396E-16	3.228719E-17
6.880000E+03	2.723967E-16	3.290767E-17
6.890000E+03	2.728620E-16	3.351569E-17
6.900000E+03	2.733349E-16	3.411111E-17
6.910000E+03	2.738193E-16	3.469438E-17
6.920000E+03	2.743104E-16	3.526485E-17
6.930000E+03	2.748124E-16	3.582301E-17
6.940000E+03	2.753202E-16	3.636820E-17
6.950000E+03	2.758335E-16	3.690034E-17
6.960000E+03	2.763564E-16	3.741996E-17
6.970000E+03	2.768884E-16	3.792699E-17
6.980000E+03	2.774247E-16	3.842077E-17
6.990000E+03	2.779694E-16	3.890185E-17
7.000000E+03	2.785176E-16	3.936956E-17
7.010000E+03	2.790734E-16	3.982446E-17
7.020000E+03	2.796364E-16	4.026652E-17
7.030000E+03	2.802017E-16	4.069502E-17
7.040000E+03	2.807735E-16	4.111057E-17
7.050000E+03	2.813514E-16	4.151313E-17
7.060000E+03	2.819350E-16	4.190264E-17
7.070000E+03	2.825193E-16	4.227838E-17
7.080000E+03	2.831086E-16	4.264097E-17
7.090000E+03	2.836977E-16	4.298966E-17
7.100000E+03	2.842958E-16	4.332582E-17
7.110000E+03	2.848929E-16	4.364798E-17
7.120000E+03	2.854935E-16	4.395679E-17
7.130000E+03	2.860972E-16	4.425222E-17
7.140000E+03	2.867036E-16	4.453423E-17
7.150000E+03	2.873124E-16	4.480276E-17
7.160000E+03	2.879183E-16	4.505701E-17
7.170000E+03	2.885258E-16	4.529770E-17
7.180000E+03	2.891347E-16	4.552478E-17
7.190000E+03	2.897445E-16	4.573820E-17
7.200000E+03	2.903549E-16	4.593794E-17
7.210000E+03	2.909656E-16	4.612395E-17
7.220000E+03	2.915763E-16	4.629619E-17
7.230000E+03	2.921818E-16	4.645385E-17
7.240000E+03	2.927916E-16	4.659846E-17
7.250000E+03	2.933956E-16	4.672841E-17
7.260000E+03	2.939984E-16	4.684446E-17
7.270000E+03	2.946050E-16	4.694738E-17
7.280000E+03	2.952049E-16	4.703554E-17
7.290000E+03	2.958029E-16	4.710971E-17
7.300000E+03	2.963990E-16	4.716987E-17
7.310000E+03	2.969929E-16	4.721598E-17
7.320000E+03	2.975844E-16	4.724801E-17
7.330000E+03	2.981682E-16	4.726510E-17
7.340000E+03	2.987545E-16	4.726888E-17
7.350000E+03	2.993381E-16	4.725848E-17
7.360000E+03	2.999136E-16	4.723301E-17
7.370000E+03	3.004913E-16	4.719412E-17
7.380000E+03	3.010607E-16	4.714006E-17
7.390000E+03	3.016323E-16	4.707246E-17
7.400000E+03	3.021954E-16	4.698958E-17
7.410000E+03	3.027552E-16	4.689218E-17
7.420000E+03	3.033173E-16	4.678103E-17
7.430000E+03	3.038706E-16	4.665434E-17
7.440000E+03	3.044206E-16	4.651286E-17
7.450000E+03	3.049674E-16	4.635647E-17
7.460000E+03	3.055164E-16	4.618590E-17
7.470000E+03	3.060566E-16	4.599932E-17
7.480000E+03	3.065936E-16	4.579743E-17
7.490000E+03	3.071273E-16	4.558006E-17
7.500000E+03	3.076579E-16	4.534704E-17
7.510000E+03	3.081853E-16	4.509819E-17
7.520000E+03	3.087095E-16	4.483329E-17
7.530000E+03	3.092250E-16	4.455132E-17
7.540000E+03	3.097432E-16	4.425368E-17
7.550000E+03	3.102583E-16	4.393932E-17
7.560000E+03	3.107705E-16	4.360799E-17
7.570000E+03	3.112799E-16	4.325940E-17
7.580000E+03	3.117806E-16	4.289250E-17
7.590000E+03	3.122844E-16	4.250860E-17
7.600000E+03	3.127855E-16	4.210660E-17
7.610000E+03	3.132780E-16	4.168541E-17
7.620000E+03	3.137739E-16	4.124630E-17
7.630000E+03	3.142673E-16	4.078817E-17
7.640000E+03	3.147523E-16	4.030993E-17
7.650000E+03	3.152410E-16	3.981281E-17
7.660000E+03	3.157213E-16	3.929496E-17
7.670000E+03	3.162054E-16	3.875757E-17
7.680000E+03	3.166813E-16	3.819885E-17
7.690000E+03	3.171611E-16	3.761995E-17
7.700000E+03	3.176326E-16	3.701913E-17
7.710000E+03	3.181021E-16	3.639683E-17
7.720000E+03	3.185755E-16	3.575349E-17
7.730000E+03	3.190405E-16	3.508744E-17
7.740000E+03	3.195033E-16	3.439918E-17
7.750000E+03	3.199698E-16	3.368915E-17
7.760000E+03	3.204275E-16	3.295587E-17
