#wls	flux	fluxerr
1.600000E+03	3.229966E-18	2.583182E-18
1.640000E+03	3.310156E-18	2.632663E-18
1.680000E+03	3.394718E-18	2.684812E-18
1.720000E+03	3.484899E-18	2.740543E-18
1.760000E+03	3.580982E-18	2.799986E-18
1.800000E+03	3.681182E-18	2.861661E-18
1.840000E+03	3.788905E-18	2.928126E-18
1.880000E+03	3.902392E-18	2.997907E-18
1.920000E+03	4.023041E-18	3.071972E-18
1.960000E+03	4.151233E-18	3.150486E-18
2.000000E+03	4.286255E-18	3.232776E-18
2.040000E+03	4.429618E-18	3.319850E-18
2.080000E+03	4.581775E-18	3.411889E-18
2.120000E+03	4.743204E-18	3.509085E-18
2.160000E+03	4.915609E-18	3.612510E-18
2.200000E+03	5.097154E-18	3.720618E-18
2.240000E+03	5.290824E-18	3.835381E-18
2.280000E+03	5.496019E-18	3.956129E-18
2.320000E+03	5.713372E-18	4.083072E-18
2.360000E+03	5.944866E-18	4.217360E-18
2.400000E+03	6.191281E-18	4.359241E-18
2.440000E+03	6.452058E-18	4.508003E-18
2.480000E+03	6.730789E-18	4.665808E-18
2.520000E+03	7.027026E-18	4.831950E-18
2.560000E+03	7.340230E-18	5.005656E-18
2.600000E+03	7.675826E-18	5.190181E-18
2.640000E+03	8.031941E-18	5.383751E-18
2.680000E+03	8.411229E-18	5.587618E-18
2.720000E+03	8.814900E-18	5.802003E-18
2.760000E+03	9.244202E-18	6.027102E-18
2.800000E+03	9.700414E-18	6.263074E-18
2.840000E+03	1.018838E-17	6.512305E-18
2.880000E+03	1.070789E-17	6.773825E-18
2.920000E+03	1.126044E-17	7.047707E-18
2.960000E+03	1.184751E-17	7.333957E-18
3.000000E+03	1.247453E-17	7.634922E-18
3.010000E+03	1.263706E-17	7.712042E-18
3.020000E+03	1.280334E-17	7.790761E-18
3.030000E+03	1.297141E-17	7.869861E-18
3.040000E+03	1.314127E-17	7.949332E-18
3.050000E+03	1.331499E-17	8.030400E-18
3.060000E+03	1.349055E-17	8.111831E-18
3.070000E+03	1.367004E-17	8.194858E-18
3.080000E+03	1.385141E-17	8.278237E-18
3.090000E+03	1.403468E-17	8.361957E-18
3.100000E+03	1.422197E-17	8.447265E-18
3.110000E+03	1.441333E-17	8.534164E-18
3.120000E+03	1.460667E-17	8.621386E-18
3.130000E+03	1.480198E-17	8.708920E-18
3.140000E+03	1.500146E-17	8.798029E-18
3.150000E+03	1.520296E-17	8.887432E-18
3.160000E+03	1.540869E-17	8.978401E-18
3.170000E+03	1.561647E-17	9.069643E-18
3.180000E+03	1.582856E-17	9.162439E-18
3.190000E+03	1.604499E-17	9.256788E-18
3.200000E+03	1.626128E-17	9.350073E-18
3.210000E+03	1.648424E-17	9.446197E-18
3.220000E+03	1.670936E-17	9.542538E-18
3.230000E+03	1.693664E-17	9.639077E-18
3.240000E+03	1.716841E-17	9.737119E-18
3.250000E+03	1.740471E-17	9.836660E-18
3.260000E+03	1.764323E-17	9.936357E-18
3.270000E+03	1.788397E-17	1.003619E-17
3.280000E+03	1.812930E-17	1.013748E-17
3.290000E+03	1.837929E-17	1.024021E-17
3.300000E+03	1.863398E-17	1.034439E-17
3.310000E+03	1.888849E-17	1.044727E-17
3.320000E+03	1.915018E-17	1.055292E-17
3.330000E+03	1.941417E-17	1.065859E-17
3.340000E+03	1.968295E-17	1.076564E-17
3.350000E+03	1.995404E-17	1.087267E-17
3.360000E+03	2.022995E-17	1.098103E-17
3.370000E+03	2.051073E-17	1.109072E-17
3.380000E+03	2.079384E-17	1.120032E-17
3.390000E+03	2.108185E-17	1.131119E-17
3.400000E+03	2.137480E-17	1.142333E-17
3.410000E+03	2.167008E-17	1.153531E-17
3.420000E+03	2.197033E-17	1.164850E-17
3.430000E+03	2.227290E-17	1.176147E-17
3.440000E+03	2.258313E-17	1.187702E-17
3.450000E+03	2.289571E-17	1.199230E-17
3.460000E+03	2.321062E-17	1.210728E-17
3.470000E+03	2.353326E-17	1.222476E-17
3.480000E+03	2.385824E-17	1.234188E-17
3.490000E+03	2.418828E-17	1.246004E-17
3.500000E+03	2.452061E-17	1.257778E-17
3.510000E+03	2.485801E-17	1.269649E-17
3.520000E+03	2.520048E-17	1.281615E-17
3.530000E+03	2.554803E-17	1.293672E-17
3.540000E+03	2.590068E-17	1.305817E-17
3.550000E+03	2.625557E-17	1.317903E-17
3.560000E+03	2.661553E-17	1.330072E-17
3.570000E+03	2.698058E-17	1.342318E-17
3.580000E+03	2.734780E-17	1.354496E-17
3.590000E+03	2.772301E-17	1.366889E-17
3.600000E+03	2.810035E-17	1.379205E-17
3.610000E+03	2.848274E-17	1.391587E-17
3.620000E+03	2.887017E-17	1.404028E-17
3.630000E+03	2.925964E-17	1.416382E-17
3.640000E+03	2.965712E-17	1.428935E-17
3.650000E+03	3.005658E-17	1.441392E-17
3.660000E+03	3.046101E-17	1.453895E-17
3.670000E+03	3.087039E-17	1.466440E-17
3.680000E+03	3.128471E-17	1.479024E-17
3.690000E+03	3.170394E-17	1.491642E-17
3.700000E+03	3.212495E-17	1.504144E-17
3.710000E+03	3.255393E-17	1.516820E-17
3.720000E+03	3.298460E-17	1.529372E-17
3.730000E+03	3.342005E-17	1.541943E-17
3.740000E+03	3.386026E-17	1.554529E-17
3.750000E+03	3.430518E-17	1.567126E-17
3.760000E+03	3.475478E-17	1.579731E-17
3.770000E+03	3.520903E-17	1.592338E-17
3.780000E+03	3.566789E-17	1.604946E-17
3.790000E+03	3.612805E-17	1.617403E-17
3.800000E+03	3.659598E-17	1.629997E-17
3.810000E+03	3.706510E-17	1.642434E-17
3.820000E+03	3.753863E-17	1.654856E-17
3.830000E+03	3.801982E-17	1.667403E-17
3.840000E+03	3.850202E-17	1.679782E-17
3.850000E+03	3.898846E-17	1.692135E-17
3.860000E+03	3.947911E-17	1.704458E-17
3.870000E+03	3.997390E-17	1.716747E-17
3.880000E+03	4.047278E-17	1.728999E-17
3.890000E+03	4.097570E-17	1.741212E-17
3.900000E+03	4.148259E-17	1.753381E-17
3.910000E+03	4.198995E-17	1.765359E-17
3.920000E+03	4.250460E-17	1.777433E-17
3.930000E+03	4.302303E-17	1.789453E-17
3.940000E+03	4.354173E-17	1.801275E-17
3.950000E+03	4.406755E-17	1.813183E-17
3.960000E+03	4.459698E-17	1.825030E-17
3.970000E+03	4.512644E-17	1.836671E-17
3.980000E+03	4.566288E-17	1.848390E-17
3.990000E+03	4.619920E-17	1.859898E-17
4.000000E+03	4.674239E-17	1.871479E-17
4.010000E+03	4.728532E-17	1.882846E-17
4.020000E+03	4.783145E-17	1.894140E-17
4.030000E+03	4.838431E-17	1.905499E-17
4.040000E+03	4.893668E-17	1.916640E-17
4.050000E+03	4.949207E-17	1.927702E-17
4.060000E+03	5.005043E-17	1.938685E-17
4.070000E+03	5.061532E-17	1.949725E-17
4.080000E+03	5.117945E-17	1.960544E-17
4.090000E+03	5.174639E-17	1.971278E-17
4.100000E+03	5.231607E-17	1.981928E-17
4.110000E+03	5.288846E-17	1.992492E-17
4.120000E+03	5.346350E-17	2.002971E-17
4.130000E+03	5.403747E-17	2.013225E-17
4.140000E+03	5.461768E-17	2.023529E-17
4.150000E+03	5.520042E-17	2.033745E-17
4.160000E+03	5.578566E-17	2.043872E-17
4.170000E+03	5.636965E-17	2.053776E-17
4.180000E+03	5.695979E-17	2.063726E-17
4.190000E+03	5.754861E-17	2.073452E-17
4.200000E+03	5.813981E-17	2.083090E-17
4.210000E+03	5.873338E-17	2.092640E-17
4.220000E+03	5.932930E-17	2.102101E-17
4.230000E+03	5.992757E-17	2.111473E-17
4.240000E+03	6.052819E-17	2.120757E-17
4.250000E+03	6.113117E-17	2.129952E-17
4.260000E+03	6.173273E-17	2.138928E-17
4.270000E+03	6.234044E-17	2.147946E-17
4.280000E+03	6.294676E-17	2.156747E-17
4.290000E+03	6.355550E-17	2.165459E-17
4.300000E+03	6.416668E-17	2.174085E-17
4.310000E+03	6.478035E-17	2.182622E-17
4.320000E+03	6.539275E-17	2.190945E-17
4.330000E+03	6.600771E-17	2.199180E-17
4.340000E+03	6.662913E-17	2.207455E-17
4.350000E+03	6.724562E-17	2.215390E-17
4.360000E+03	6.786869E-17	2.223363E-17
4.370000E+03	6.849078E-17	2.231123E-17
4.380000E+03	6.911579E-17	2.238795E-17
4.390000E+03	6.974383E-17	2.246378E-17
4.400000E+03	7.037499E-17	2.253872E-17
4.410000E+03	7.100553E-17	2.261153E-17
4.420000E+03	7.163941E-17	2.268343E-17
4.430000E+03	7.227290E-17	2.275320E-17
4.440000E+03	7.291383E-17	2.282326E-17
4.450000E+03	7.355077E-17	2.288996E-17
4.460000E+03	7.419543E-17	2.295691E-17
4.470000E+03	7.484024E-17	2.302170E-17
4.480000E+03	7.548923E-17	2.308551E-17
4.490000E+03	7.613869E-17	2.314712E-17
4.500000E+03	7.679265E-17	2.320772E-17
4.510000E+03	7.744743E-17	2.326610E-17
4.520000E+03	7.810709E-17	2.332341E-17
4.530000E+03	7.876793E-17	2.337846E-17
4.540000E+03	7.943404E-17	2.343239E-17
4.550000E+03	8.010565E-17	2.348517E-17
4.560000E+03	8.077905E-17	2.353561E-17
4.570000E+03	8.145448E-17	2.358369E-17
4.580000E+03	8.213606E-17	2.363051E-17
4.590000E+03	8.282012E-17	2.367490E-17
4.600000E+03	8.350689E-17	2.371684E-17
4.610000E+03	8.420053E-17	2.375740E-17
4.620000E+03	8.490131E-17	2.379652E-17
4.630000E+03	8.560163E-17	2.383196E-17
4.640000E+03	8.630960E-17	2.386586E-17
4.650000E+03	8.702156E-17	2.389709E-17
4.660000E+03	8.774172E-17	2.392666E-17
4.670000E+03	8.846642E-17	2.395344E-17
4.680000E+03	8.919594E-17	2.397738E-17
4.690000E+03	8.993057E-17	2.399842E-17
4.700000E+03	9.067454E-17	2.401754E-17
4.710000E+03	9.142023E-17	2.403257E-17
4.720000E+03	9.217587E-17	2.404554E-17
4.730000E+03	9.293778E-17	2.405532E-17
4.740000E+03	9.370626E-17	2.406184E-17
4.750000E+03	9.448561E-17	2.406604E-17
4.760000E+03	9.526816E-17	2.406578E-17
4.770000E+03	9.606220E-17	2.406301E-17
4.780000E+03	9.686003E-17	2.405563E-17
4.790000E+03	9.766997E-17	2.404552E-17
4.800000E+03	9.848431E-17	2.403061E-17
4.810000E+03	9.931139E-17	2.401276E-17
4.820000E+03	1.001435E-16	2.398990E-17
4.830000E+03	1.009889E-16	2.396385E-17
4.840000E+03	1.018400E-16	2.393257E-17
4.850000E+03	1.027050E-16	2.389785E-17
4.860000E+03	1.035763E-16	2.385765E-17
4.870000E+03	1.044580E-16	2.381278E-17
4.880000E+03	1.053506E-16	2.376312E-17
4.890000E+03	1.062544E-16	2.370850E-17
4.900000E+03	1.071695E-16	2.364879E-17
4.910000E+03	1.080923E-16	2.358291E-17
4.920000E+03	1.090270E-16	2.351161E-17
4.930000E+03	1.099739E-16	2.343474E-17
4.940000E+03	1.109334E-16	2.335212E-17
4.950000E+03	1.119056E-16	2.326355E-17
4.960000E+03	1.128867E-16	2.316801E-17
4.970000E+03	1.138810E-16	2.306617E-17
4.980000E+03	1.148889E-16	2.295784E-17
4.990000E+03	1.159062E-16	2.284199E-17
5.000000E+03	1.169374E-16	2.271925E-17
5.010000E+03	1.179828E-16	2.258942E-17
5.020000E+03	1.190382E-16	2.245149E-17
5.030000E+03	1.201039E-16	2.230525E-17
5.040000E+03	1.211885E-16	2.215209E-17
5.050000E+03	1.222836E-16	2.199020E-17
5.060000E+03	1.233893E-16	2.181939E-17
5.070000E+03	1.245101E-16	2.164021E-17
5.080000E+03	1.256461E-16	2.145244E-17
5.090000E+03	1.267930E-16	2.125511E-17
5.100000E+03	1.279509E-16	2.104802E-17
5.110000E+03	1.291242E-16	2.083171E-17
5.120000E+03	1.303086E-16	2.060524E-17
5.130000E+03	1.315084E-16	2.036912E-17
5.140000E+03	1.327193E-16	2.012247E-17
5.150000E+03	1.339456E-16	1.986579E-17
5.160000E+03	1.351830E-16	1.959824E-17
5.170000E+03	1.364312E-16	1.931967E-17
5.180000E+03	1.376948E-16	1.903061E-17
5.190000E+03	1.389691E-16	1.873031E-17
5.200000E+03	1.402540E-16	1.841868E-17
5.210000E+03	1.415539E-16	1.809627E-17
5.220000E+03	1.428595E-16	1.776191E-17
5.230000E+03	1.441844E-16	1.741733E-17
5.240000E+03	1.455146E-16	1.706092E-17
5.250000E+03	1.468591E-16	1.669392E-17
5.260000E+03	1.482131E-16	1.631598E-17
5.270000E+03	1.495762E-16	1.592742E-17
5.280000E+03	1.509482E-16	1.552861E-17
5.290000E+03	1.523336E-16	1.512054E-17
5.300000E+03	1.537273E-16	1.470336E-17
5.310000E+03	1.551241E-16	1.427743E-17
5.320000E+03	1.565383E-16	1.384506E-17
5.330000E+03	1.579548E-16	1.340615E-17
5.340000E+03	1.593783E-16	1.296263E-17
5.350000E+03	1.608132E-16	1.251672E-17
5.360000E+03	1.622493E-16	1.206982E-17
5.370000E+03	1.636961E-16	1.162536E-17
5.380000E+03	1.651433E-16	1.118580E-17
5.390000E+03	1.666004E-16	1.075568E-17
5.400000E+03	1.680620E-16	1.033919E-17
5.410000E+03	1.695277E-16	9.941726E-18
5.420000E+03	1.709971E-16	9.569526E-18
5.430000E+03	1.724696E-16	9.229729E-18
5.440000E+03	1.739450E-16	8.930276E-18
5.450000E+03	1.754226E-16	8.679686E-18
5.460000E+03	1.769020E-16	8.486645E-18
5.470000E+03	1.783827E-16	8.359398E-18
5.480000E+03	1.798641E-16	8.304969E-18
5.490000E+03	1.813405E-16	8.328079E-18
5.500000E+03	1.828216E-16	8.431427E-18
5.510000E+03	1.843017E-16	8.613973E-18
5.520000E+03	1.857801E-16	8.872174E-18
5.530000E+03	1.872506E-16	9.200134E-18
5.540000E+03	1.887232E-16	9.591424E-18
5.550000E+03	1.901864E-16	1.003797E-17
5.560000E+03	1.916449E-16	1.053248E-17
5.570000E+03	1.930977E-16	1.106774E-17
5.580000E+03	1.945442E-16	1.163711E-17
5.590000E+03	1.959836E-16	1.223462E-17
5.600000E+03	1.974151E-16	1.285498E-17
5.610000E+03	1.988324E-16	1.349313E-17
5.620000E+03	2.002402E-16	1.414533E-17
5.630000E+03	2.016379E-16	1.480800E-17
5.640000E+03	2.030247E-16	1.547797E-17
5.650000E+03	2.043999E-16	1.615248E-17
5.660000E+03	2.057630E-16	1.682904E-17
5.670000E+03	2.071075E-16	1.750499E-17
5.680000E+03	2.084385E-16	1.817879E-17
5.690000E+03	2.097554E-16	1.884867E-17
5.700000E+03	2.110519E-16	1.951246E-17
5.710000E+03	2.123332E-16	2.016920E-17
5.720000E+03	2.135987E-16	2.081753E-17
5.730000E+03	2.148481E-16	2.145620E-17
5.740000E+03	2.160807E-16	2.208403E-17
5.750000E+03	2.172905E-16	2.269936E-17
5.760000E+03	2.184828E-16	2.330175E-17
5.770000E+03	2.196514E-16	2.388962E-17
5.780000E+03	2.208018E-16	2.446269E-17
5.790000E+03	2.219337E-16	2.502013E-17
5.800000E+03	2.230469E-16	2.556117E-17
5.810000E+03	2.241352E-16	2.608438E-17
5.820000E+03	2.252043E-16	2.658971E-17
5.830000E+03	2.262541E-16	2.707653E-17
5.840000E+03	2.272784E-16	2.754348E-17
5.850000E+03	2.282832E-16	2.799069E-17
5.860000E+03	2.292623E-16	2.841685E-17
5.870000E+03	2.302218E-16	2.882218E-17
5.880000E+03	2.311617E-16	2.920620E-17
5.890000E+03	2.320758E-16	2.956767E-17
5.900000E+03	2.329705E-16	2.990692E-17
5.910000E+03	2.338457E-16	3.022355E-17
5.920000E+03	2.346955E-16	3.051641E-17
5.930000E+03	2.355262E-16	3.078592E-17
5.940000E+03	2.363318E-16	3.103095E-17
5.950000E+03	2.371188E-16	3.125202E-17
5.960000E+03	2.378812E-16	3.144803E-17
5.970000E+03	2.386254E-16	3.161954E-17
5.980000E+03	2.393519E-16	3.176634E-17
5.990000E+03	2.400547E-16	3.188739E-17
6.000000E+03	2.407405E-16	3.198334E-17
6.010000E+03	2.414034E-16	3.205320E-17
6.020000E+03	2.420501E-16	3.209765E-17
6.030000E+03	2.426810E-16	3.211659E-17
6.040000E+03	2.432905E-16	3.210908E-17
6.050000E+03	2.438790E-16	3.207505E-17
6.060000E+03	2.444595E-16	3.201607E-17
6.070000E+03	2.450138E-16	3.192965E-17
6.080000E+03	2.455612E-16	3.181820E-17
6.090000E+03	2.460836E-16	3.167929E-17
6.100000E+03	2.466003E-16	3.151535E-17
6.110000E+03	2.470994E-16	3.132477E-17
6.120000E+03	2.475815E-16	3.110761E-17
6.130000E+03	2.480536E-16	3.086472E-17
6.140000E+03	2.485162E-16	3.059614E-17
6.150000E+03	2.489637E-16	3.030119E-17
6.160000E+03	2.494030E-16	2.998072E-17
6.170000E+03	2.498285E-16	2.963408E-17
6.180000E+03	2.502471E-16	2.926215E-17
6.190000E+03	2.506594E-16	2.886504E-17
6.200000E+03	2.510598E-16	2.844218E-17
6.210000E+03	2.514552E-16	2.799445E-17
6.220000E+03	2.518399E-16	2.752132E-17
6.230000E+03	2.522207E-16	2.702368E-17
6.240000E+03	2.525919E-16	2.650109E-17
6.250000E+03	2.529603E-16	2.595443E-17
6.260000E+03	2.533265E-16	2.538398E-17
6.270000E+03	2.536846E-16	2.478937E-17
6.280000E+03	2.540414E-16	2.417156E-17
6.290000E+03	2.543909E-16	2.353033E-17
6.300000E+03	2.547399E-16	2.286667E-17
6.310000E+03	2.550888E-16	2.218105E-17
6.320000E+03	2.554313E-16	2.147346E-17
6.330000E+03	2.557742E-16	2.074507E-17
6.340000E+03	2.561176E-16	1.999661E-17
6.350000E+03	2.564553E-16	1.922843E-17
6.360000E+03	2.567938E-16	1.844207E-17
6.370000E+03	2.571330E-16	1.763876E-17
6.380000E+03	2.574666E-16	1.681954E-17
6.390000E+03	2.578008E-16	1.598672E-17
6.400000E+03	2.581355E-16	1.514257E-17
6.410000E+03	2.584705E-16	1.428992E-17
6.420000E+03	2.587991E-16	1.343208E-17
6.430000E+03	2.591274E-16	1.257408E-17
6.440000E+03	2.594486E-16	1.172168E-17
6.450000E+03	2.597753E-16	1.088344E-17
6.460000E+03	2.600941E-16	1.006930E-17
6.470000E+03	2.604110E-16	9.293526E-18
6.480000E+03	2.607256E-16	8.574522E-18
6.490000E+03	2.610310E-16	7.935854E-18
6.500000E+03	2.613332E-16	7.407013E-18
6.510000E+03	2.616320E-16	7.020918E-18
6.520000E+03	2.619272E-16	6.809006E-18
6.530000E+03	2.622187E-16	6.792998E-18
6.540000E+03	2.625069E-16	6.977351E-18
6.550000E+03	2.627853E-16	7.347641E-18
6.560000E+03	2.630679E-16	7.877111E-18
6.570000E+03	2.633421E-16	8.533859E-18
6.580000E+03	2.636152E-16	9.288476E-18
6.590000E+03	2.638882E-16	1.011618E-17
6.600000E+03	2.641620E-16	1.099746E-17
6.610000E+03	2.644374E-16	1.191738E-17
6.620000E+03	2.647153E-16	1.286465E-17
6.630000E+03	2.649899E-16	1.383041E-17
6.640000E+03	2.652755E-16	1.480883E-17
6.650000E+03	2.655662E-16	1.579461E-17
6.660000E+03	2.658628E-16	1.678391E-17
6.670000E+03	2.661592E-16	1.777325E-17
6.680000E+03	2.664697E-16	1.876112E-17
6.690000E+03	2.667882E-16	1.974520E-17
6.700000E+03	2.671152E-16	2.072394E-17
6.710000E+03	2.674446E-16	2.169555E-17
6.720000E+03	2.677903E-16	2.266008E-17
6.730000E+03	2.681460E-16	2.361617E-17
6.740000E+03	2.685123E-16	2.456312E-17
6.750000E+03	2.688961E-16	2.550098E-17
6.760000E+03	2.692843E-16	2.642800E-17
6.770000E+03	2.696838E-16	2.734439E-17
6.780000E+03	2.701018E-16	2.825051E-17
6.790000E+03	2.705248E-16	2.914464E-17
6.800000E+03	2.709666E-16	3.002799E-17
6.810000E+03	2.714205E-16	3.089961E-17
6.820000E+03	2.718936E-16	3.176011E-17
6.830000E+03	2.723719E-16	3.260772E-17
6.840000E+03	2.728695E-16	3.344392E-17
6.850000E+03	2.733794E-16	3.426777E-17
6.860000E+03	2.739016E-16	3.507912E-17
6.870000E+03	2.744360E-16	3.587787E-17
6.880000E+03	2.749897E-16	3.666484E-17
6.890000E+03	2.755483E-16	3.743806E-17
6.900000E+03	2.761331E-16	3.820033E-17
6.910000E+03	2.767227E-16	3.894865E-17
6.920000E+03	2.773312E-16	3.968492E-17
6.930000E+03	2.779514E-16	4.040804E-17
6.940000E+03	2.785829E-16	4.111794E-17
6.950000E+03	2.792330E-16	4.181559E-17
6.960000E+03	2.798941E-16	4.249986E-17
6.970000E+03	2.805662E-16	4.317064E-17
6.980000E+03	2.812563E-16	4.382898E-17
6.990000E+03	2.819569E-16	4.447366E-17
7.000000E+03	2.826752E-16	4.510576E-17
7.010000E+03	2.834035E-16	4.572403E-17
7.020000E+03	2.841417E-16	4.632836E-17
7.030000E+03	2.848970E-16	4.691985E-17
7.040000E+03	2.856616E-16	4.749720E-17
7.050000E+03	2.864429E-16	4.806155E-17
7.060000E+03	2.872331E-16	4.861153E-17
7.070000E+03	2.880319E-16	4.914702E-17
7.080000E+03	2.888467E-16	4.966920E-17
7.090000E+03	2.896773E-16	5.017798E-17
7.100000E+03	2.905159E-16	5.067190E-17
7.110000E+03	2.913620E-16	5.115084E-17
7.120000E+03	2.922232E-16	5.161601E-17
7.130000E+03	2.930995E-16	5.206730E-17
7.140000E+03	2.939746E-16	5.250179E-17
7.150000E+03	2.948722E-16	5.292353E-17
7.160000E+03	2.957761E-16	5.332957E-17
7.170000E+03	2.966861E-16	5.371974E-17
7.180000E+03	2.976179E-16	5.409679E-17
7.190000E+03	2.985473E-16	5.445619E-17
7.200000E+03	2.994901E-16	5.480070E-17
7.210000E+03	3.004461E-16	5.513017E-17
7.220000E+03	3.014069E-16	5.544292E-17
7.230000E+03	3.023806E-16	5.574030E-17
7.240000E+03	3.033669E-16	5.602212E-17
7.250000E+03	3.043573E-16	5.628668E-17
7.260000E+03	3.053601E-16	5.653532E-17
7.270000E+03	3.063664E-16	5.676628E-17
7.280000E+03	3.073847E-16	5.698094E-17
7.290000E+03	3.084061E-16	5.717751E-17
7.300000E+03	3.094477E-16	5.735895E-17
7.310000E+03	3.104834E-16	5.752026E-17
7.320000E+03	3.115390E-16	5.766603E-17
7.330000E+03	3.125969E-16	5.779281E-17
7.340000E+03	3.136657E-16	5.790197E-17
7.350000E+03	3.147364E-16	5.799166E-17
7.360000E+03	3.158176E-16	5.806325E-17
7.370000E+03	3.169092E-16	5.811648E-17
7.380000E+03	3.180022E-16	5.814945E-17
7.390000E+03	3.191051E-16	5.816353E-17
7.400000E+03	3.202180E-16	5.815845E-17
7.410000E+03	3.213406E-16	5.813391E-17
7.420000E+03	3.224637E-16	5.808797E-17
7.430000E+03	3.235870E-16	5.802032E-17
7.440000E+03	3.247287E-16	5.793396E-17
7.450000E+03	3.258702E-16	5.782524E-17
7.460000E+03	3.270205E-16	5.769551E-17
7.470000E+03	3.281795E-16	5.754440E-17
7.480000E+03	3.293374E-16	5.736992E-17
7.490000E+03	3.305035E-16	5.717336E-17
7.500000E+03	3.316775E-16	5.695434E-17
7.510000E+03	3.328593E-16	5.671249E-17
7.520000E+03	3.340388E-16	5.644576E-17
7.530000E+03	3.352255E-16	5.615539E-17
7.540000E+03	3.364189E-16	5.584098E-17
7.550000E+03	3.376088E-16	5.550047E-17
7.560000E+03	3.388048E-16	5.513506E-17
7.570000E+03	3.400063E-16	5.474431E-17
7.580000E+03	3.412130E-16	5.432776E-17
7.590000E+03	3.424244E-16	5.388495E-17
7.600000E+03	3.436297E-16	5.341382E-17
7.610000E+03	3.448385E-16	5.291549E-17
7.620000E+03	3.460501E-16	5.238947E-17
7.630000E+03	3.472535E-16	5.183373E-17
7.640000E+03	3.484685E-16	5.125087E-17
7.650000E+03	3.496735E-16	5.063731E-17
7.660000E+03	3.508780E-16	4.999409E-17
7.670000E+03	3.520703E-16	4.931922E-17
7.680000E+03	3.532705E-16	4.861519E-17
7.690000E+03	3.544561E-16	4.787853E-17
7.700000E+03	3.556363E-16	4.711026E-17
7.710000E+03	3.568097E-16	4.630987E-17
7.720000E+03	3.579637E-16	4.547552E-17
7.730000E+03	3.591185E-16	4.460955E-17
7.740000E+03	3.602502E-16	4.370877E-17
7.750000E+03	3.613677E-16	4.277418E-17
7.760000E+03	3.624688E-16	4.180541E-17
