#wls	flux	fluxerr
1.600000E+03	2.617460E-18	2.217722E-18
1.640000E+03	2.669540E-18	2.250299E-18
1.680000E+03	2.723895E-18	2.284184E-18
1.720000E+03	2.781649E-18	2.320274E-18
1.760000E+03	2.842967E-18	2.358646E-18
1.800000E+03	2.908023E-18	2.399384E-18
1.840000E+03	2.975967E-18	2.441728E-18
1.880000E+03	3.046958E-18	2.485749E-18
1.920000E+03	3.123291E-18	2.533255E-18
1.960000E+03	3.203073E-18	2.582623E-18
2.000000E+03	3.287587E-18	2.634819E-18
2.040000E+03	3.375970E-18	2.689066E-18
2.080000E+03	3.470698E-18	2.747247E-18
2.120000E+03	3.569804E-18	2.807701E-18
2.160000E+03	3.674699E-18	2.871443E-18
2.200000E+03	3.785699E-18	2.938606E-18
2.240000E+03	3.901923E-18	3.008393E-18
2.280000E+03	4.026133E-18	3.082810E-18
2.320000E+03	4.156249E-18	3.160124E-18
2.360000E+03	4.295171E-18	3.242400E-18
2.400000E+03	4.440766E-18	3.327867E-18
2.440000E+03	4.594739E-18	3.417653E-18
2.480000E+03	4.757561E-18	3.511933E-18
2.520000E+03	4.929725E-18	3.610886E-18
2.560000E+03	5.113196E-18	3.715746E-18
2.600000E+03	5.305677E-18	3.824623E-18
2.640000E+03	5.509156E-18	3.938744E-18
2.680000E+03	5.724246E-18	4.058309E-18
2.720000E+03	5.953182E-18	4.184642E-18
2.760000E+03	6.193496E-18	4.315728E-18
2.800000E+03	6.449128E-18	4.454039E-18
2.840000E+03	6.719232E-18	4.598667E-18
2.880000E+03	7.004592E-18	4.749827E-18
2.920000E+03	7.307851E-18	4.908959E-18
2.960000E+03	7.626262E-18	5.073847E-18
3.000000E+03	7.964423E-18	5.247179E-18
3.010000E+03	8.052543E-18	5.292104E-18
3.020000E+03	8.139779E-18	5.336134E-18
3.030000E+03	8.230057E-18	5.381838E-18
3.040000E+03	8.321440E-18	5.427937E-18
3.050000E+03	8.413942E-18	5.474434E-18
3.060000E+03	8.507573E-18	5.521329E-18
3.070000E+03	8.602348E-18	5.568626E-18
3.080000E+03	8.698279E-18	5.616326E-18
3.090000E+03	8.797450E-18	5.665764E-18
3.100000E+03	8.895748E-18	5.714281E-18
3.110000E+03	8.997343E-18	5.764554E-18
3.120000E+03	9.098061E-18	5.813896E-18
3.130000E+03	9.202135E-18	5.865010E-18
3.140000E+03	9.307478E-18	5.916551E-18
3.150000E+03	9.411935E-18	5.967147E-18
3.160000E+03	9.519838E-18	6.019539E-18
3.170000E+03	9.629052E-18	6.072363E-18
3.180000E+03	9.739589E-18	6.125620E-18
3.190000E+03	9.851464E-18	6.179311E-18
3.200000E+03	9.966945E-18	6.234847E-18
3.210000E+03	1.008156E-17	6.289418E-18
3.220000E+03	1.019755E-17	6.344427E-18
3.230000E+03	1.031725E-17	6.401306E-18
3.240000E+03	1.043607E-17	6.457202E-18
3.250000E+03	1.055865E-17	6.514985E-18
3.260000E+03	1.068272E-17	6.573225E-18
3.270000E+03	1.080827E-17	6.631924E-18
3.280000E+03	1.093534E-17	6.691081E-18
3.290000E+03	1.106393E-17	6.750698E-18
3.300000E+03	1.119405E-17	6.810776E-18
3.310000E+03	1.132573E-17	6.871315E-18
3.320000E+03	1.145898E-17	6.932316E-18
3.330000E+03	1.159382E-17	6.993780E-18
3.340000E+03	1.173278E-17	7.057221E-18
3.350000E+03	1.187085E-17	7.119618E-18
3.360000E+03	1.201312E-17	7.184009E-18
3.370000E+03	1.215708E-17	7.248880E-18
3.380000E+03	1.230275E-17	7.314230E-18
3.390000E+03	1.244752E-17	7.378507E-18
3.400000E+03	1.259663E-17	7.444810E-18
3.410000E+03	1.274750E-17	7.511592E-18
3.420000E+03	1.290284E-17	7.580433E-18
3.430000E+03	1.305730E-17	7.648183E-18
3.440000E+03	1.321357E-17	7.716412E-18
3.450000E+03	1.337442E-17	7.786724E-18
3.460000E+03	1.353438E-17	7.855919E-18
3.470000E+03	1.369901E-17	7.927212E-18
3.480000E+03	1.386274E-17	7.997371E-18
3.490000E+03	1.403121E-17	8.069643E-18
3.500000E+03	1.420164E-17	8.142407E-18
3.510000E+03	1.437405E-17	8.215664E-18
3.520000E+03	1.454847E-17	8.289411E-18
3.530000E+03	1.472490E-17	8.363648E-18
3.540000E+03	1.490337E-17	8.438373E-18
3.550000E+03	1.508688E-17	8.515273E-18
3.560000E+03	1.526950E-17	8.590981E-18
3.570000E+03	1.545422E-17	8.667173E-18
3.580000E+03	1.564412E-17	8.745562E-18
3.590000E+03	1.583620E-17	8.824450E-18
3.600000E+03	1.602737E-17	8.902104E-18
3.610000E+03	1.622385E-17	8.981976E-18
3.620000E+03	1.642258E-17	9.062342E-18
3.630000E+03	1.662358E-17	9.143199E-18
3.640000E+03	1.682686E-17	9.224546E-18
3.650000E+03	1.703245E-17	9.306381E-18
3.660000E+03	1.724038E-17	9.388701E-18
3.670000E+03	1.745395E-17	9.473297E-18
3.680000E+03	1.766663E-17	9.556589E-18
3.690000E+03	1.788506E-17	9.642170E-18
3.700000E+03	1.810258E-17	9.726425E-18
3.710000E+03	1.832595E-17	9.812980E-18
3.720000E+03	1.855185E-17	9.900023E-18
3.730000E+03	1.878029E-17	9.987551E-18
3.740000E+03	1.901130E-17	1.007556E-17
3.750000E+03	1.924491E-17	1.016405E-17
3.760000E+03	1.948114E-17	1.025301E-17
3.770000E+03	1.972001E-17	1.034244E-17
3.780000E+03	1.996155E-17	1.043235E-17
3.790000E+03	2.020579E-17	1.052271E-17
3.800000E+03	2.045643E-17	1.061545E-17
3.810000E+03	2.070617E-17	1.070674E-17
3.820000E+03	2.096243E-17	1.080042E-17
3.830000E+03	2.122156E-17	1.089456E-17
3.840000E+03	2.147978E-17	1.098721E-17
3.850000E+03	2.174470E-17	1.108226E-17
3.860000E+03	2.201258E-17	1.117777E-17
3.870000E+03	2.228345E-17	1.127372E-17
3.880000E+03	2.255733E-17	1.137011E-17
3.890000E+03	2.283426E-17	1.146695E-17
3.900000E+03	2.311828E-17	1.156621E-17
3.910000E+03	2.340144E-17	1.166392E-17
3.920000E+03	2.368775E-17	1.176204E-17
3.930000E+03	2.398135E-17	1.186261E-17
3.940000E+03	2.427410E-17	1.196157E-17
3.950000E+03	2.457427E-17	1.206298E-17
3.960000E+03	2.487781E-17	1.216480E-17
3.970000E+03	2.518050E-17	1.226497E-17
3.980000E+03	2.549084E-17	1.236759E-17
3.990000E+03	2.580466E-17	1.247061E-17
4.000000E+03	2.612199E-17	1.257402E-17
4.010000E+03	2.644289E-17	1.267781E-17
4.020000E+03	2.676738E-17	1.278196E-17
4.030000E+03	2.709553E-17	1.288648E-17
4.040000E+03	2.742736E-17	1.299135E-17
4.050000E+03	2.776747E-17	1.309871E-17
4.060000E+03	2.810687E-17	1.320427E-17
4.070000E+03	2.845471E-17	1.331231E-17
4.080000E+03	2.880185E-17	1.341852E-17
4.090000E+03	2.915762E-17	1.352721E-17
4.100000E+03	2.951271E-17	1.363403E-17
4.110000E+03	2.987661E-17	1.374332E-17
4.120000E+03	3.024468E-17	1.385291E-17
4.130000E+03	3.061698E-17	1.396276E-17
4.140000E+03	3.098866E-17	1.407066E-17
4.150000E+03	3.136954E-17	1.418102E-17
4.160000E+03	3.175481E-17	1.429162E-17
4.170000E+03	3.214455E-17	1.440244E-17
4.180000E+03	3.254387E-17	1.451572E-17
4.190000E+03	3.294277E-17	1.462694E-17
4.200000E+03	3.334632E-17	1.473834E-17
4.210000E+03	3.375459E-17	1.484989E-17
4.220000E+03	3.417289E-17	1.496387E-17
4.230000E+03	3.459085E-17	1.507568E-17
4.240000E+03	3.501376E-17	1.518760E-17
4.250000E+03	3.544704E-17	1.530191E-17
4.260000E+03	3.588008E-17	1.541397E-17
4.270000E+03	3.632374E-17	1.552841E-17
4.280000E+03	3.676723E-17	1.564052E-17
4.290000E+03	3.722159E-17	1.575498E-17
4.300000E+03	3.768146E-17	1.586942E-17
4.310000E+03	3.814690E-17	1.598381E-17
4.320000E+03	3.861232E-17	1.609575E-17
4.330000E+03	3.908914E-17	1.620996E-17
4.340000E+03	3.957182E-17	1.632403E-17
4.350000E+03	4.006044E-17	1.643794E-17
4.360000E+03	4.055509E-17	1.655165E-17
4.370000E+03	4.105588E-17	1.666513E-17
4.380000E+03	4.156290E-17	1.677835E-17
4.390000E+03	4.207625E-17	1.689126E-17
4.400000E+03	4.259604E-17	1.700383E-17
4.410000E+03	4.312236E-17	1.711602E-17
4.420000E+03	4.365532E-17	1.722778E-17
4.430000E+03	4.419503E-17	1.733908E-17
4.440000E+03	4.474160E-17	1.744986E-17
4.450000E+03	4.530153E-17	1.756256E-17
4.460000E+03	4.586220E-17	1.767218E-17
4.470000E+03	4.643008E-17	1.778114E-17
4.480000E+03	4.700527E-17	1.788938E-17
4.490000E+03	4.759450E-17	1.799936E-17
4.500000E+03	4.818473E-17	1.810602E-17
4.510000E+03	4.878263E-17	1.821178E-17
4.520000E+03	4.939512E-17	1.831912E-17
4.530000E+03	5.000880E-17	1.842293E-17
4.540000E+03	5.063052E-17	1.852566E-17
4.550000E+03	5.126739E-17	1.862977E-17
4.560000E+03	5.190565E-17	1.873012E-17
4.570000E+03	5.255234E-17	1.882918E-17
4.580000E+03	5.321475E-17	1.892940E-17
4.590000E+03	5.387876E-17	1.902562E-17
4.600000E+03	5.455890E-17	1.912285E-17
4.610000E+03	5.524076E-17	1.921589E-17
4.620000E+03	5.593172E-17	1.930721E-17
4.630000E+03	5.663941E-17	1.939928E-17
4.640000E+03	5.734903E-17	1.948686E-17
4.650000E+03	5.806816E-17	1.957243E-17
4.660000E+03	5.880463E-17	1.965845E-17
4.670000E+03	5.954324E-17	1.973967E-17
4.680000E+03	6.029962E-17	1.982113E-17
4.690000E+03	6.105827E-17	1.989755E-17
4.700000E+03	6.182710E-17	1.997139E-17
4.710000E+03	6.261433E-17	2.004511E-17
4.720000E+03	6.340401E-17	2.011342E-17
4.730000E+03	6.420429E-17	2.017876E-17
4.740000E+03	6.501528E-17	2.024100E-17
4.750000E+03	6.584551E-17	2.030259E-17
4.760000E+03	6.667842E-17	2.035820E-17
4.770000E+03	6.752245E-17	2.041028E-17
4.780000E+03	6.837771E-17	2.045868E-17
4.790000E+03	6.924433E-17	2.050322E-17
4.800000E+03	7.013122E-17	2.054633E-17
4.810000E+03	7.102101E-17	2.058268E-17
4.820000E+03	7.192252E-17	2.061467E-17
4.830000E+03	7.283585E-17	2.064214E-17
4.840000E+03	7.376112E-17	2.066490E-17
4.850000E+03	7.469842E-17	2.068275E-17
4.860000E+03	7.564787E-17	2.069552E-17
4.870000E+03	7.660016E-17	2.070046E-17
4.880000E+03	7.757407E-17	2.070246E-17
4.890000E+03	7.856039E-17	2.069876E-17
4.900000E+03	7.955920E-17	2.068916E-17
4.910000E+03	8.056081E-17	2.067094E-17
4.920000E+03	8.158471E-17	2.064889E-17
4.930000E+03	8.262130E-17	2.062027E-17
4.940000E+03	8.366057E-17	2.058239E-17
4.950000E+03	8.472258E-17	2.053997E-17
4.960000E+03	8.578716E-17	2.048783E-17
4.970000E+03	8.686440E-17	2.042822E-17
4.980000E+03	8.796473E-17	2.036330E-17
4.990000E+03	8.906741E-17	2.028799E-17
5.000000E+03	9.018275E-17	2.020445E-17
5.010000E+03	9.131076E-17	2.011244E-17
5.020000E+03	9.245141E-17	2.001170E-17
5.030000E+03	9.360467E-17	1.990197E-17
5.040000E+03	9.477049E-17	1.978299E-17
5.050000E+03	9.594881E-17	1.965449E-17
5.060000E+03	9.713959E-17	1.951622E-17
5.070000E+03	9.834272E-17	1.936790E-17
5.080000E+03	9.954663E-17	1.920706E-17
5.090000E+03	1.007741E-16	1.903787E-17
5.100000E+03	1.020019E-16	1.885568E-17
5.110000E+03	1.032532E-16	1.866457E-17
5.120000E+03	1.045044E-16	1.845998E-17
5.130000E+03	1.057669E-16	1.824382E-17
5.140000E+03	1.070406E-16	1.801584E-17
5.150000E+03	1.083376E-16	1.777780E-17
5.160000E+03	1.096333E-16	1.752539E-17
5.170000E+03	1.109271E-16	1.725849E-17
5.180000E+03	1.122436E-16	1.698080E-17
5.190000E+03	1.135701E-16	1.669011E-17
5.200000E+03	1.149065E-16	1.638622E-17
5.210000E+03	1.162395E-16	1.606716E-17
5.220000E+03	1.175814E-16	1.573463E-17
5.230000E+03	1.189453E-16	1.539018E-17
5.240000E+03	1.203043E-16	1.503023E-17
5.250000E+03	1.216714E-16	1.465645E-17
5.260000E+03	1.230460E-16	1.426876E-17
5.270000E+03	1.244279E-16	1.386715E-17
5.280000E+03	1.258166E-16	1.345164E-17
5.290000E+03	1.272116E-16	1.302233E-17
5.300000E+03	1.285985E-16	1.257799E-17
5.310000E+03	1.300048E-16	1.212166E-17
5.320000E+03	1.314017E-16	1.165100E-17
5.330000E+03	1.328029E-16	1.116788E-17
5.340000E+03	1.342078E-16	1.067294E-17
5.350000E+03	1.356159E-16	1.016706E-17
5.360000E+03	1.370265E-16	9.651378E-18
5.370000E+03	1.384391E-16	9.127403E-18
5.380000E+03	1.398531E-16	8.597124E-18
5.390000E+03	1.412527E-16	8.062314E-18
5.400000E+03	1.426675E-16	7.528262E-18
5.410000E+03	1.440664E-16	6.998007E-18
5.420000E+03	1.454637E-16	6.478760E-18
5.430000E+03	1.468589E-16	5.979110E-18
5.440000E+03	1.482512E-16	5.510645E-18
5.450000E+03	1.496399E-16	5.088741E-18
5.460000E+03	1.510083E-16	4.732510E-18
5.470000E+03	1.523875E-16	4.466120E-18
5.480000E+03	1.537448E-16	4.312223E-18
5.490000E+03	1.551117E-16	4.290140E-18
5.500000E+03	1.564554E-16	4.405886E-18
5.510000E+03	1.577915E-16	4.652958E-18
5.520000E+03	1.591031E-16	5.013448E-18
5.530000E+03	1.604230E-16	5.466777E-18
5.540000E+03	1.617345E-16	5.991730E-18
5.550000E+03	1.630205E-16	6.570127E-18
5.560000E+03	1.642975E-16	7.188697E-18
5.570000E+03	1.655653E-16	7.836818E-18
5.580000E+03	1.668238E-16	8.506399E-18
5.590000E+03	1.680730E-16	9.191240E-18
5.600000E+03	1.693125E-16	9.886531E-18
5.610000E+03	1.705249E-16	1.058739E-17
5.620000E+03	1.717449E-16	1.129287E-17
5.630000E+03	1.729374E-16	1.199823E-17
5.640000E+03	1.741197E-16	1.270246E-17
5.650000E+03	1.752917E-16	1.340380E-17
5.660000E+03	1.764534E-16	1.410071E-17
5.670000E+03	1.775867E-16	1.479035E-17
5.680000E+03	1.787275E-16	1.547445E-17
5.690000E+03	1.798396E-16	1.614887E-17
5.700000E+03	1.809409E-16	1.681414E-17
5.710000E+03	1.820315E-16	1.746935E-17
5.720000E+03	1.831113E-16	1.811369E-17
5.730000E+03	1.841803E-16	1.874636E-17
5.740000E+03	1.852200E-16	1.936471E-17
5.750000E+03	1.862673E-16	1.997188E-17
5.760000E+03	1.872852E-16	2.056328E-17
5.770000E+03	1.882923E-16	2.114024E-17
5.780000E+03	1.892884E-16	2.170218E-17
5.790000E+03	1.902549E-16	2.224635E-17
5.800000E+03	1.912296E-16	2.277657E-17
5.810000E+03	1.921745E-16	2.328789E-17
5.820000E+03	1.931088E-16	2.378203E-17
5.830000E+03	1.940324E-16	2.425853E-17
5.840000E+03	1.949456E-16	2.471697E-17
5.850000E+03	1.958485E-16	2.515691E-17
5.860000E+03	1.967217E-16	2.557543E-17
5.870000E+03	1.976042E-16	2.597716E-17
5.880000E+03	1.984572E-16	2.635665E-17
5.890000E+03	1.993003E-16	2.671606E-17
5.900000E+03	2.001141E-16	2.705243E-17
5.910000E+03	2.009379E-16	2.737070E-17
5.920000E+03	2.017326E-16	2.766525E-17
5.930000E+03	2.025377E-16	2.794116E-17
5.940000E+03	2.033140E-16	2.819274E-17
5.950000E+03	2.040815E-16	2.842243E-17
5.960000E+03	2.048402E-16	2.862999E-17
5.970000E+03	2.055705E-16	2.881239E-17
5.980000E+03	2.062925E-16	2.897217E-17
5.990000E+03	2.070264E-16	2.911198E-17
6.000000E+03	2.077325E-16	2.922597E-17
6.010000E+03	2.084309E-16	2.931678E-17
6.020000E+03	2.091017E-16	2.938141E-17
6.030000E+03	2.097856E-16	2.942538E-17
6.040000E+03	2.104424E-16	2.944288E-17
6.050000E+03	2.110924E-16	2.943660E-17
6.060000E+03	2.117361E-16	2.940645E-17
6.070000E+03	2.123736E-16	2.935230E-17
6.080000E+03	2.129848E-16	2.927126E-17
6.090000E+03	2.136108E-16	2.916887E-17
6.100000E+03	2.142111E-16	2.903944E-17
6.110000E+03	2.148062E-16	2.888575E-17
6.120000E+03	2.153967E-16	2.870772E-17
6.130000E+03	2.159826E-16	2.850533E-17
6.140000E+03	2.165437E-16	2.827584E-17
6.150000E+03	2.171010E-16	2.802198E-17
6.160000E+03	2.176754E-16	2.774640E-17
6.170000E+03	2.182258E-16	2.744379E-17
6.180000E+03	2.187525E-16	2.711424E-17
6.190000E+03	2.192974E-16	2.676299E-17
6.200000E+03	2.198191E-16	2.638496E-17
6.210000E+03	2.203389E-16	2.598279E-17
6.220000E+03	2.208781E-16	2.555898E-17
6.230000E+03	2.213740E-16	2.510632E-17
6.240000E+03	2.218901E-16	2.463221E-17
6.250000E+03	2.223846E-16	2.413205E-17
6.260000E+03	2.229000E-16	2.361061E-17
6.270000E+03	2.233945E-16	2.306352E-17
6.280000E+03	2.238896E-16	2.249327E-17
6.290000E+03	2.243857E-16	2.190008E-17
6.300000E+03	2.248619E-16	2.128221E-17
6.310000E+03	2.253399E-16	2.064207E-17
6.320000E+03	2.258412E-16	1.998193E-17
6.330000E+03	2.263239E-16	1.929835E-17
6.340000E+03	2.268094E-16	1.859379E-17
6.350000E+03	2.272769E-16	1.786716E-17
6.360000E+03	2.277696E-16	1.712260E-17
6.370000E+03	2.282450E-16	1.635769E-17
6.380000E+03	2.287249E-16	1.557517E-17
6.390000E+03	2.292097E-16	1.477639E-17
6.400000E+03	2.296999E-16	1.396301E-17
6.410000E+03	2.301741E-16	1.313592E-17
6.420000E+03	2.306761E-16	1.230043E-17
6.430000E+03	2.311627E-16	1.145779E-17
6.440000E+03	2.316561E-16	1.061407E-17
6.450000E+03	2.321565E-16	9.775884E-18
6.460000E+03	2.326424E-16	8.951481E-18
6.470000E+03	2.331578E-16	8.155351E-18
6.480000E+03	2.336591E-16	7.403787E-18
6.490000E+03	2.341685E-16	6.722639E-18
6.500000E+03	2.346862E-16	6.145703E-18
6.510000E+03	2.352124E-16	5.715126E-18
6.520000E+03	2.357252E-16	5.474934E-18
6.530000E+03	2.362689E-16	5.459633E-18
6.540000E+03	2.367997E-16	5.675824E-18
6.550000E+03	2.373399E-16	6.102676E-18
6.560000E+03	2.378899E-16	6.701450E-18
6.570000E+03	2.384275E-16	7.430222E-18
6.580000E+03	2.389979E-16	8.255259E-18
6.590000E+03	2.395566E-16	9.148350E-18
6.600000E+03	2.401262E-16	1.009077E-17
6.610000E+03	2.407069E-16	1.106861E-17
6.620000E+03	2.412991E-16	1.207191E-17
6.630000E+03	2.419030E-16	1.309344E-17
6.640000E+03	2.424959E-16	1.412655E-17
6.650000E+03	2.431007E-16	1.516838E-17
6.660000E+03	2.437405E-16	1.621741E-17
6.670000E+03	2.443697E-16	1.726833E-17
6.680000E+03	2.449882E-16	1.831898E-17
6.690000E+03	2.456422E-16	1.937123E-17
6.700000E+03	2.462856E-16	2.042030E-17
6.710000E+03	2.469648E-16	2.146895E-17
6.720000E+03	2.476334E-16	2.251240E-17
6.730000E+03	2.483148E-16	2.355186E-17
6.740000E+03	2.489856E-16	2.458441E-17
6.750000E+03	2.496926E-16	2.561404E-17
6.760000E+03	2.503891E-16	2.663557E-17
6.770000E+03	2.511220E-16	2.765350E-17
6.780000E+03	2.518444E-16	2.866235E-17
6.790000E+03	2.525798E-16	2.966428E-17
6.800000E+03	2.533044E-16	3.065610E-17
6.810000E+03	2.540660E-16	3.164320E-17
6.820000E+03	2.548168E-16	3.261943E-17
6.830000E+03	2.556048E-16	3.359061E-17
6.840000E+03	2.563820E-16	3.455024E-17
6.850000E+03	2.571725E-16	3.550116E-17
6.860000E+03	2.579763E-16	3.644316E-17
6.870000E+03	2.587689E-16	3.737249E-17
6.880000E+03	2.595994E-16	3.829590E-17
6.890000E+03	2.604187E-16	3.920603E-17
6.900000E+03	2.612513E-16	4.010621E-17
6.910000E+03	2.620973E-16	4.099624E-17
6.920000E+03	2.629566E-16	4.187590E-17
6.930000E+03	2.638294E-16	4.274500E-17
6.940000E+03	2.646906E-16	4.359920E-17
6.950000E+03	2.655902E-16	4.444647E-17
6.960000E+03	2.664779E-16	4.527826E-17
6.970000E+03	2.673790E-16	4.609849E-17
6.980000E+03	2.682932E-16	4.690694E-17
6.990000E+03	2.692207E-16	4.770340E-17
7.000000E+03	2.701357E-16	4.848304E-17
7.010000E+03	2.710894E-16	4.925477E-17
7.020000E+03	2.720303E-16	5.000906E-17
7.030000E+03	2.729839E-16	5.075030E-17
7.040000E+03	2.739503E-16	5.147823E-17
7.050000E+03	2.749293E-16	5.219261E-17
7.060000E+03	2.759208E-16	5.289319E-17
7.070000E+03	2.769246E-16	5.357970E-17
7.080000E+03	2.779141E-16	5.424670E-17
7.090000E+03	2.789154E-16	5.489895E-17
7.100000E+03	2.799552E-16	5.554148E-17
7.110000E+03	2.809797E-16	5.616345E-17
7.120000E+03	2.820155E-16	5.676981E-17
7.130000E+03	2.830351E-16	5.735475E-17
7.140000E+03	2.840924E-16	5.792889E-17
7.150000E+03	2.851602E-16	5.848648E-17
7.160000E+03	2.862107E-16	5.902151E-17
7.170000E+03	2.872707E-16	5.953920E-17
7.180000E+03	2.883400E-16	6.003920E-17
7.190000E+03	2.894182E-16	6.052116E-17
7.200000E+03	2.905049E-16	6.098472E-17
7.210000E+03	2.915996E-16	6.142951E-17
7.220000E+03	2.926738E-16	6.184916E-17
7.230000E+03	2.937832E-16	6.225520E-17
7.240000E+03	2.948708E-16	6.263523E-17
7.250000E+03	2.959644E-16	6.299483E-17
7.260000E+03	2.970633E-16	6.333359E-17
7.270000E+03	2.981671E-16	6.365109E-17
7.280000E+03	2.992750E-16	6.394691E-17
7.290000E+03	3.003574E-16	6.421437E-17
7.300000E+03	3.014719E-16	6.446549E-17
7.310000E+03	3.025592E-16	6.468731E-17
7.320000E+03	3.036774E-16	6.489196E-17
7.330000E+03	3.047667E-16	6.506635E-17
7.340000E+03	3.058560E-16	6.521634E-17
7.350000E+03	3.069443E-16	6.534147E-17
7.360000E+03	3.080308E-16	6.544127E-17
7.370000E+03	3.090845E-16	6.550885E-17
7.380000E+03	3.101650E-16	6.555660E-17
7.390000E+03	3.112106E-16	6.557118E-17
7.400000E+03	3.122814E-16	6.556501E-17
7.410000E+03	3.133152E-16	6.552473E-17
7.420000E+03	3.143416E-16	6.545634E-17
7.430000E+03	3.153597E-16	6.535939E-17
7.440000E+03	3.163684E-16	6.523341E-17
7.450000E+03	3.173353E-16	6.507153E-17
7.460000E+03	3.183221E-16	6.488620E-17
7.470000E+03	3.192963E-16	6.467056E-17
7.480000E+03	3.202252E-16	6.441776E-17
7.490000E+03	3.211390E-16	6.413386E-17
7.500000E+03	3.220690E-16	6.382481E-17
7.510000E+03	3.229497E-16	6.347750E-17
7.520000E+03	3.238122E-16	6.309795E-17
7.530000E+03	3.246552E-16	6.268582E-17
7.540000E+03	3.254449E-16	6.223455E-17
7.550000E+03	3.262454E-16	6.175634E-17
7.560000E+03	3.270229E-16	6.124463E-17
7.570000E+03	3.277434E-16	6.069307E-17
7.580000E+03	3.284383E-16	6.010761E-17
7.590000E+03	3.291399E-16	5.949406E-17
7.600000E+03	3.297806E-16	5.884018E-17
7.610000E+03	3.303925E-16	5.815190E-17
7.620000E+03	3.309743E-16	5.742908E-17
7.630000E+03	3.315251E-16	5.667166E-17
7.640000E+03	3.320101E-16	5.587390E-17
7.650000E+03	3.324955E-16	5.504724E-17
7.660000E+03	3.329467E-16	5.418594E-17
7.670000E+03	3.333287E-16	5.328463E-17
7.680000E+03	3.337086E-16	5.235438E-17
7.690000E+03	3.340173E-16	5.138456E-17
7.700000E+03	3.342880E-16	5.038080E-17
7.710000E+03	3.345198E-16	4.934335E-17
7.720000E+03	3.347121E-16	4.827250E-17
7.730000E+03	3.348641E-16	4.716858E-17
7.740000E+03	3.349751E-16	4.603198E-17
7.750000E+03	3.350445E-16	4.486314E-17
7.760000E+03	3.350719E-16	4.366254E-17
