#wls	flux	fluxerr
1.600000E+03	1.867951E-18	1.623384E-18
1.640000E+03	1.892763E-18	1.635764E-18
1.680000E+03	1.918754E-18	1.648736E-18
1.720000E+03	1.945985E-18	1.662324E-18
1.760000E+03	1.974518E-18	1.676556E-18
1.800000E+03	2.004420E-18	1.691459E-18
1.840000E+03	2.036691E-18	1.707839E-18
1.880000E+03	2.069558E-18	1.724175E-18
1.920000E+03	2.104971E-18	1.742060E-18
1.960000E+03	2.142085E-18	1.760749E-18
2.000000E+03	2.180994E-18	1.780280E-18
2.040000E+03	2.221795E-18	1.800691E-18
2.080000E+03	2.265591E-18	1.822830E-18
2.120000E+03	2.311521E-18	1.845945E-18
2.160000E+03	2.358674E-18	1.869269E-18
2.200000E+03	2.409223E-18	1.894479E-18
2.240000E+03	2.463351E-18	1.921647E-18
2.280000E+03	2.519095E-18	1.949179E-18
2.320000E+03	2.577657E-18	1.977961E-18
2.360000E+03	2.640320E-18	2.008910E-18
2.400000E+03	2.706184E-18	2.041261E-18
2.440000E+03	2.775442E-18	2.075092E-18
2.480000E+03	2.848300E-18	2.110484E-18
2.520000E+03	2.924976E-18	2.147526E-18
2.560000E+03	3.006947E-18	2.187214E-18
2.600000E+03	3.092014E-18	2.227859E-18
2.640000E+03	3.182958E-18	2.271385E-18
2.680000E+03	3.278834E-18	2.317011E-18
2.720000E+03	3.379960E-18	2.364864E-18
2.760000E+03	3.488070E-18	2.416049E-18
2.800000E+03	3.600777E-18	2.468797E-18
2.840000E+03	3.721303E-18	2.525214E-18
2.880000E+03	3.848681E-18	2.584510E-18
2.920000E+03	3.981819E-18	2.645839E-18
2.960000E+03	4.125870E-18	2.712494E-18
3.000000E+03	4.276706E-18	2.781594E-18
3.010000E+03	4.315784E-18	2.799439E-18
3.020000E+03	4.355429E-18	2.817520E-18
3.030000E+03	4.395649E-18	2.835839E-18
3.040000E+03	4.436454E-18	2.854401E-18
3.050000E+03	4.477854E-18	2.873210E-18
3.060000E+03	4.521583E-18	2.893373E-18
3.070000E+03	4.564218E-18	2.912693E-18
3.080000E+03	4.607478E-18	2.932272E-18
3.090000E+03	4.651376E-18	2.952115E-18
3.100000E+03	4.695920E-18	2.972225E-18
3.110000E+03	4.741124E-18	2.992606E-18
3.120000E+03	4.788805E-18	3.014402E-18
3.130000E+03	4.835374E-18	3.035347E-18
3.140000E+03	4.882636E-18	3.056576E-18
3.150000E+03	4.930603E-18	3.078096E-18
3.160000E+03	4.979287E-18	3.099909E-18
3.170000E+03	5.030585E-18	3.123192E-18
3.180000E+03	5.080755E-18	3.145615E-18
3.190000E+03	5.131681E-18	3.168348E-18
3.200000E+03	5.183374E-18	3.191394E-18
3.210000E+03	5.237799E-18	3.215956E-18
3.220000E+03	5.291084E-18	3.239651E-18
3.230000E+03	5.345178E-18	3.263676E-18
3.240000E+03	5.402097E-18	3.289254E-18
3.250000E+03	5.457868E-18	3.313960E-18
3.260000E+03	5.514490E-18	3.339012E-18
3.270000E+03	5.571979E-18	3.364414E-18
3.280000E+03	5.632422E-18	3.391420E-18
3.290000E+03	5.691708E-18	3.417548E-18
3.300000E+03	5.751905E-18	3.444043E-18
3.310000E+03	5.815162E-18	3.472184E-18
3.320000E+03	5.877253E-18	3.499439E-18
3.330000E+03	5.942475E-18	3.528368E-18
3.340000E+03	6.006525E-18	3.556408E-18
3.350000E+03	6.071571E-18	3.584845E-18
3.360000E+03	6.139862E-18	3.615000E-18
3.370000E+03	6.206973E-18	3.644258E-18
3.380000E+03	6.275133E-18	3.673933E-18
3.390000E+03	6.346657E-18	3.705370E-18
3.400000E+03	6.416993E-18	3.735904E-18
3.410000E+03	6.490776E-18	3.768233E-18
3.420000E+03	6.563366E-18	3.799653E-18
3.430000E+03	6.639488E-18	3.832900E-18
3.440000E+03	6.714413E-18	3.865233E-18
3.450000E+03	6.790525E-18	3.898029E-18
3.460000E+03	6.870302E-18	3.932700E-18
3.470000E+03	6.948875E-18	3.966450E-18
3.480000E+03	7.031206E-18	4.002110E-18
3.490000E+03	7.112328E-18	4.036842E-18
3.500000E+03	7.197305E-18	4.073520E-18
3.510000E+03	7.281068E-18	4.109264E-18
3.520000E+03	7.368785E-18	4.146989E-18
3.530000E+03	7.455285E-18	4.183773E-18
3.540000E+03	7.545842E-18	4.222575E-18
3.550000E+03	7.635177E-18	4.260430E-18
3.560000E+03	7.728675E-18	4.300340E-18
3.570000E+03	7.820947E-18	4.339295E-18
3.580000E+03	7.917493E-18	4.380343E-18
3.590000E+03	8.012809E-18	4.420429E-18
3.600000E+03	8.112512E-18	4.462648E-18
3.610000E+03	8.213852E-18	4.505469E-18
3.620000E+03	8.313957E-18	4.547316E-18
3.630000E+03	8.418628E-18	4.591355E-18
3.640000E+03	8.522061E-18	4.634409E-18
3.650000E+03	8.630183E-18	4.679698E-18
3.660000E+03	8.737064E-18	4.723993E-18
3.670000E+03	8.848762E-18	4.770563E-18
3.680000E+03	8.962314E-18	4.817794E-18
3.690000E+03	9.074622E-18	4.864014E-18
3.700000E+03	9.191947E-18	4.912575E-18
3.710000E+03	9.308026E-18	4.960115E-18
3.720000E+03	9.429261E-18	5.010039E-18
3.730000E+03	9.552523E-18	5.060664E-18
3.740000E+03	9.674537E-18	5.110249E-18
3.750000E+03	9.801925E-18	5.162286E-18
3.760000E+03	9.928063E-18	5.213269E-18
3.770000E+03	1.005973E-17	5.266750E-18
3.780000E+03	1.019361E-17	5.320973E-18
3.790000E+03	1.032624E-17	5.374120E-18
3.800000E+03	1.046463E-17	5.429834E-18
3.810000E+03	1.060536E-17	5.486315E-18
3.820000E+03	1.074484E-17	5.541696E-18
3.830000E+03	1.089034E-17	5.599715E-18
3.840000E+03	1.103458E-17	5.656618E-18
3.850000E+03	1.118501E-17	5.716207E-18
3.860000E+03	1.133800E-17	5.776600E-18
3.870000E+03	1.148974E-17	5.835849E-18
3.880000E+03	1.164794E-17	5.897857E-18
3.890000E+03	1.180883E-17	5.960691E-18
3.900000E+03	1.196849E-17	6.022350E-18
3.910000E+03	1.213488E-17	6.086841E-18
3.920000E+03	1.230413E-17	6.152180E-18
3.930000E+03	1.247213E-17	6.216309E-18
3.940000E+03	1.264718E-17	6.283344E-18
3.950000E+03	1.282524E-17	6.351248E-18
3.960000E+03	1.300206E-17	6.417902E-18
3.970000E+03	1.318624E-17	6.487539E-18
3.980000E+03	1.337360E-17	6.558061E-18
3.990000E+03	1.355972E-17	6.627292E-18
4.000000E+03	1.375355E-17	6.699580E-18
4.010000E+03	1.395072E-17	6.772769E-18
4.020000E+03	1.414667E-17	6.844620E-18
4.030000E+03	1.435067E-17	6.919603E-18
4.040000E+03	1.455820E-17	6.995501E-18
4.050000E+03	1.476452E-17	7.070009E-18
4.060000E+03	1.497926E-17	7.147723E-18
4.070000E+03	1.519773E-17	7.226361E-18
4.080000E+03	1.541499E-17	7.303554E-18
4.090000E+03	1.564107E-17	7.384025E-18
4.100000E+03	1.587108E-17	7.465427E-18
4.110000E+03	1.610510E-17	7.547760E-18
4.120000E+03	1.633793E-17	7.628564E-18
4.130000E+03	1.658012E-17	7.712740E-18
4.140000E+03	1.682654E-17	7.797848E-18
4.150000E+03	1.707179E-17	7.881357E-18
4.160000E+03	1.732683E-17	7.968305E-18
4.170000E+03	1.758634E-17	8.056181E-18
4.180000E+03	1.784469E-17	8.142380E-18
4.190000E+03	1.811329E-17	8.232081E-18
4.200000E+03	1.838661E-17	8.322702E-18
4.210000E+03	1.865878E-17	8.411559E-18
4.220000E+03	1.894169E-17	8.503979E-18
4.230000E+03	1.922957E-17	8.597301E-18
4.240000E+03	1.951632E-17	8.688766E-18
4.250000E+03	1.981433E-17	8.783847E-18
4.260000E+03	2.011757E-17	8.879808E-18
4.270000E+03	2.041970E-17	8.973807E-18
4.280000E+03	2.073362E-17	9.071471E-18
4.290000E+03	2.104643E-17	9.167098E-18
4.300000E+03	2.137141E-17	9.266418E-18
4.310000E+03	2.170210E-17	9.366560E-18
4.320000E+03	2.203171E-17	9.464542E-18
4.330000E+03	2.237406E-17	9.566254E-18
4.340000E+03	2.272244E-17	9.668738E-18
4.350000E+03	2.306976E-17	9.768930E-18
4.360000E+03	2.343041E-17	9.872875E-18
4.370000E+03	2.379742E-17	9.977535E-18
4.380000E+03	2.416339E-17	1.007975E-17
4.390000E+03	2.454333E-17	1.018574E-17
4.400000E+03	2.492225E-17	1.028919E-17
4.410000E+03	2.531557E-17	1.039640E-17
4.420000E+03	2.571582E-17	1.050420E-17
4.430000E+03	2.611506E-17	1.060928E-17
4.440000E+03	2.652939E-17	1.071813E-17
4.450000E+03	2.694273E-17	1.082413E-17
4.460000E+03	2.737163E-17	1.093389E-17
4.470000E+03	2.779954E-17	1.104067E-17
4.480000E+03	2.824351E-17	1.115119E-17
4.490000E+03	2.869526E-17	1.126203E-17
4.500000E+03	2.914603E-17	1.136969E-17
4.510000E+03	2.961361E-17	1.148102E-17
4.520000E+03	3.008021E-17	1.158902E-17
4.530000E+03	3.056415E-17	1.170066E-17
4.540000E+03	3.104710E-17	1.180880E-17
4.550000E+03	3.154793E-17	1.192052E-17
4.560000E+03	3.204777E-17	1.202857E-17
4.570000E+03	3.256603E-17	1.214014E-17
4.580000E+03	3.308330E-17	1.224786E-17
4.590000E+03	3.361955E-17	1.235902E-17
4.600000E+03	3.415479E-17	1.246613E-17
4.610000E+03	3.470960E-17	1.257659E-17
4.620000E+03	3.526338E-17	1.268280E-17
4.630000E+03	3.582656E-17	1.278843E-17
4.640000E+03	3.641019E-17	1.289726E-17
4.650000E+03	3.699275E-17	1.300151E-17
4.660000E+03	3.759637E-17	1.310882E-17
4.670000E+03	3.819888E-17	1.321132E-17
4.680000E+03	3.882307E-17	1.331676E-17
4.690000E+03	3.944611E-17	1.341712E-17
4.700000E+03	4.007954E-17	1.351624E-17
4.710000E+03	4.073560E-17	1.361807E-17
4.720000E+03	4.139042E-17	1.371442E-17
4.730000E+03	4.205605E-17	1.380920E-17
4.740000E+03	4.274528E-17	1.390640E-17
4.750000E+03	4.343314E-17	1.399769E-17
4.760000E+03	4.413225E-17	1.408703E-17
4.770000E+03	4.485593E-17	1.417847E-17
4.780000E+03	4.557811E-17	1.426354E-17
4.790000E+03	4.631192E-17	1.434624E-17
4.800000E+03	4.707132E-17	1.443067E-17
4.810000E+03	4.782902E-17	1.450823E-17
4.820000E+03	4.859875E-17	1.458296E-17
4.830000E+03	4.938064E-17	1.465472E-17
4.840000E+03	5.018945E-17	1.472763E-17
4.850000E+03	5.099623E-17	1.479294E-17
4.860000E+03	5.181553E-17	1.485476E-17
4.870000E+03	5.264745E-17	1.491290E-17
4.880000E+03	5.349211E-17	1.496718E-17
4.890000E+03	5.436538E-17	1.502177E-17
4.900000E+03	5.523604E-17	1.506776E-17
4.910000E+03	5.611973E-17	1.510931E-17
4.920000E+03	5.701654E-17	1.514619E-17
4.930000E+03	5.792654E-17	1.517822E-17
4.940000E+03	5.884982E-17	1.520516E-17
4.950000E+03	5.978644E-17	1.522680E-17
4.960000E+03	6.073647E-17	1.524292E-17
4.970000E+03	6.169995E-17	1.525328E-17
4.980000E+03	6.267693E-17	1.525766E-17
4.990000E+03	6.368572E-17	1.526019E-17
5.000000E+03	6.469007E-17	1.525186E-17
5.010000E+03	6.570801E-17	1.523683E-17
5.020000E+03	6.673954E-17	1.521483E-17
5.030000E+03	6.776532E-17	1.518128E-17
5.040000E+03	6.882374E-17	1.514461E-17
5.050000E+03	6.989571E-17	1.510022E-17
5.060000E+03	7.098118E-17	1.504784E-17
5.070000E+03	7.208012E-17	1.498722E-17
5.080000E+03	7.319244E-17	1.491809E-17
5.090000E+03	7.431807E-17	1.484020E-17
5.100000E+03	7.545692E-17	1.475327E-17
5.110000E+03	7.660887E-17	1.465706E-17
5.120000E+03	7.777380E-17	1.455129E-17
5.130000E+03	7.892927E-17	1.443165E-17
5.140000E+03	8.011938E-17	1.430606E-17
5.150000E+03	8.132198E-17	1.417017E-17
5.160000E+03	8.253685E-17	1.402375E-17
5.170000E+03	8.374023E-17	1.386266E-17
5.180000E+03	8.497864E-17	1.369453E-17
5.190000E+03	8.622859E-17	1.351520E-17
5.200000E+03	8.748979E-17	1.332449E-17
5.210000E+03	8.873706E-17	1.311854E-17
5.220000E+03	9.001943E-17	1.290462E-17
5.230000E+03	9.131202E-17	1.267886E-17
5.240000E+03	9.258856E-17	1.243770E-17
5.250000E+03	9.389998E-17	1.218808E-17
5.260000E+03	9.519379E-17	1.192313E-17
5.270000E+03	9.652220E-17	1.164961E-17
5.280000E+03	9.785848E-17	1.136420E-17
5.290000E+03	9.917451E-17	1.106401E-17
5.300000E+03	1.005244E-16	1.075551E-17
5.310000E+03	1.018521E-16	1.043302E-17
5.320000E+03	1.032131E-16	1.010289E-17
5.330000E+03	1.045497E-16	9.760098E-18
5.340000E+03	1.058894E-16	9.408363E-18
5.350000E+03	1.072609E-16	9.051268E-18
5.360000E+03	1.086045E-16	8.685080E-18
5.370000E+03	1.099787E-16	8.316429E-18
5.380000E+03	1.113223E-16	7.942820E-18
5.390000E+03	1.126641E-16	7.569414E-18
5.400000E+03	1.140342E-16	7.201670E-18
5.410000E+03	1.153692E-16	6.839886E-18
5.420000E+03	1.166985E-16	6.491579E-18
5.430000E+03	1.180209E-16	6.163437E-18
5.440000E+03	1.193675E-16	5.865158E-18
5.450000E+03	1.206717E-16	5.602951E-18
5.460000E+03	1.219643E-16	5.389138E-18
5.470000E+03	1.232434E-16	5.234786E-18
5.480000E+03	1.245077E-16	5.150166E-18
5.490000E+03	1.257555E-16	5.143088E-18
5.500000E+03	1.270207E-16	5.218734E-18
5.510000E+03	1.282338E-16	5.373266E-18
5.520000E+03	1.294292E-16	5.602789E-18
5.530000E+03	1.306071E-16	5.899161E-18
5.540000E+03	1.317679E-16	6.252955E-18
5.550000E+03	1.329120E-16	6.654694E-18
5.560000E+03	1.340399E-16	7.095609E-18
5.570000E+03	1.351519E-16	7.567985E-18
5.580000E+03	1.362485E-16	8.065238E-18
5.590000E+03	1.373302E-16	8.581836E-18
5.600000E+03	1.383598E-16	9.110705E-18
5.610000E+03	1.394124E-16	9.652783E-18
5.620000E+03	1.404512E-16	1.020254E-17
5.630000E+03	1.414765E-16	1.075726E-17
5.640000E+03	1.424887E-16	1.131467E-17
5.650000E+03	1.434494E-16	1.186960E-17
5.660000E+03	1.444361E-16	1.242660E-17
5.670000E+03	1.454107E-16	1.298114E-17
5.680000E+03	1.463735E-16	1.353194E-17
5.690000E+03	1.472852E-16	1.407405E-17
5.700000E+03	1.482250E-16	1.461386E-17
5.710000E+03	1.491539E-16	1.514680E-17
5.720000E+03	1.500319E-16	1.566783E-17
5.730000E+03	1.509397E-16	1.618444E-17
5.740000E+03	1.517967E-16	1.668738E-17
5.750000E+03	1.526844E-16	1.718481E-17
5.760000E+03	1.535216E-16	1.766704E-17
5.770000E+03	1.543903E-16	1.814285E-17
5.780000E+03	1.552088E-16	1.860212E-17
5.790000E+03	1.560598E-16	1.905417E-17
5.800000E+03	1.568606E-16	1.948848E-17
5.810000E+03	1.576529E-16	1.990959E-17
5.820000E+03	1.584792E-16	2.032250E-17
5.830000E+03	1.592556E-16	2.071608E-17
5.840000E+03	1.600243E-16	2.109529E-17
5.850000E+03	1.608283E-16	2.146546E-17
5.860000E+03	1.615828E-16	2.181494E-17
5.870000E+03	1.623303E-16	2.214903E-17
5.880000E+03	1.630714E-16	2.246742E-17
5.890000E+03	1.638495E-16	2.277584E-17
5.900000E+03	1.645784E-16	2.306204E-17
5.910000E+03	1.653015E-16	2.333169E-17
5.920000E+03	1.660192E-16	2.358454E-17
5.930000E+03	1.667316E-16	2.382035E-17
5.940000E+03	1.674390E-16	2.403889E-17
5.950000E+03	1.681418E-16	2.423992E-17
5.960000E+03	1.688400E-16	2.442323E-17
5.970000E+03	1.695341E-16	2.458862E-17
5.980000E+03	1.702242E-16	2.473588E-17
5.990000E+03	1.709106E-16	2.486483E-17
6.000000E+03	1.715935E-16	2.497528E-17
6.010000E+03	1.722732E-16	2.506705E-17
6.020000E+03	1.729498E-16	2.513998E-17
6.030000E+03	1.735780E-16	2.518728E-17
6.040000E+03	1.742491E-16	2.522203E-17
6.050000E+03	1.749179E-16	2.523748E-17
6.060000E+03	1.755845E-16	2.523347E-17
6.070000E+03	1.762029E-16	2.520326E-17
6.080000E+03	1.768657E-16	2.515997E-17
6.090000E+03	1.775269E-16	2.509683E-17
6.100000E+03	1.781400E-16	2.500718E-17
6.110000E+03	1.787985E-16	2.490405E-17
6.120000E+03	1.794560E-16	2.478076E-17
6.130000E+03	1.800655E-16	2.463075E-17
6.140000E+03	1.807212E-16	2.446689E-17
6.150000E+03	1.813289E-16	2.427623E-17
6.160000E+03	1.819835E-16	2.407149E-17
6.170000E+03	1.825900E-16	2.383995E-17
6.180000E+03	1.831960E-16	2.358792E-17
6.190000E+03	1.838497E-16	2.332148E-17
6.200000E+03	1.844552E-16	2.302835E-17
6.210000E+03	1.850604E-16	2.271469E-17
6.220000E+03	1.857139E-16	2.238636E-17
6.230000E+03	1.863190E-16	2.203161E-17
6.240000E+03	1.869240E-16	2.165643E-17
6.250000E+03	1.875779E-16	2.126645E-17
6.260000E+03	1.881829E-16	2.085057E-17
6.270000E+03	1.887878E-16	2.041458E-17
6.280000E+03	1.893925E-16	1.995866E-17
6.290000E+03	1.899971E-16	1.948302E-17
6.300000E+03	1.906013E-16	1.898794E-17
6.310000E+03	1.912052E-16	1.847376E-17
6.320000E+03	1.918084E-16	1.794090E-17
6.330000E+03	1.924109E-16	1.738985E-17
6.340000E+03	1.930124E-16	1.682123E-17
6.350000E+03	1.936127E-16	1.623581E-17
6.360000E+03	1.942115E-16	1.563451E-17
6.370000E+03	1.948083E-16	1.501846E-17
6.380000E+03	1.954028E-16	1.438907E-17
6.390000E+03	1.959945E-16	1.374810E-17
6.400000E+03	1.965830E-16	1.309772E-17
6.410000E+03	1.971163E-16	1.243743E-17
6.420000E+03	1.976960E-16	1.177733E-17
6.430000E+03	1.982704E-16	1.111842E-17
6.440000E+03	1.988385E-16	1.046632E-17
6.450000E+03	1.993476E-16	9.825698E-18
6.460000E+03	1.998999E-16	9.211084E-18
6.470000E+03	2.004427E-16	8.631582E-18
6.480000E+03	2.009224E-16	8.099953E-18
6.490000E+03	2.014416E-16	7.638649E-18
6.500000E+03	2.018945E-16	7.264503E-18
6.510000E+03	2.023840E-16	7.003480E-18
6.520000E+03	2.028038E-16	6.871815E-18
6.530000E+03	2.032582E-16	6.886451E-18
6.540000E+03	2.036417E-16	7.046727E-18
6.550000E+03	2.040607E-16	7.348191E-18
6.560000E+03	2.044110E-16	7.770963E-18
6.570000E+03	2.047471E-16	8.297065E-18
6.580000E+03	2.051240E-16	8.909026E-18
6.590000E+03	2.054372E-16	9.584736E-18
6.600000E+03	2.057414E-16	1.031154E-17
6.610000E+03	2.060381E-16	1.107749E-17
6.620000E+03	2.063823E-16	1.187617E-17
6.630000E+03	2.066684E-16	1.269417E-17
6.640000E+03	2.069510E-16	1.352850E-17
6.650000E+03	2.072312E-16	1.437452E-17
6.660000E+03	2.075101E-16	1.522854E-17
6.670000E+03	2.077886E-16	1.608761E-17
6.680000E+03	2.080677E-16	1.694935E-17
6.690000E+03	2.083481E-16	1.781181E-17
6.700000E+03	2.086307E-16	1.867340E-17
6.710000E+03	2.089161E-16	1.953281E-17
6.720000E+03	2.092050E-16	2.038894E-17
6.730000E+03	2.094981E-16	2.124086E-17
6.740000E+03	2.097960E-16	2.208779E-17
6.750000E+03	2.100991E-16	2.292907E-17
6.760000E+03	2.104081E-16	2.376412E-17
6.770000E+03	2.107233E-16	2.459246E-17
6.780000E+03	2.109906E-16	2.540707E-17
6.790000E+03	2.113197E-16	2.622053E-17
6.800000E+03	2.116563E-16	2.702615E-17
6.810000E+03	2.119460E-16	2.781643E-17
6.820000E+03	2.122988E-16	2.860532E-17
6.830000E+03	2.126602E-16	2.938558E-17
6.840000E+03	2.129754E-16	3.014919E-17
6.850000E+03	2.133549E-16	3.091141E-17
6.860000E+03	2.137439E-16	3.166442E-17
6.870000E+03	2.140872E-16	3.239968E-17
6.880000E+03	2.144959E-16	3.313364E-17
6.890000E+03	2.148590E-16	3.384917E-17
6.900000E+03	2.152883E-16	3.456352E-17
6.910000E+03	2.156722E-16	3.525881E-17
6.920000E+03	2.160666E-16	3.594370E-17
6.930000E+03	2.165280E-16	3.662760E-17
6.940000E+03	2.169442E-16	3.729154E-17
6.950000E+03	2.173714E-16	3.794476E-17
6.960000E+03	2.178663E-16	3.859715E-17
6.970000E+03	2.183159E-16	3.922874E-17
6.980000E+03	2.187769E-16	3.984926E-17
6.990000E+03	2.193062E-16	4.046911E-17
7.000000E+03	2.197901E-16	4.106732E-17
7.010000E+03	2.202855E-16	4.165410E-17
7.020000E+03	2.207924E-16	4.222934E-17
7.030000E+03	2.213109E-16	4.279292E-17
7.040000E+03	2.218409E-16	4.334470E-17
7.050000E+03	2.223825E-16	4.388456E-17
7.060000E+03	2.229357E-16	4.441234E-17
7.070000E+03	2.235003E-16	4.492790E-17
7.080000E+03	2.240764E-16	4.543110E-17
7.090000E+03	2.246640E-16	4.592177E-17
7.100000E+03	2.252629E-16	4.639976E-17
7.110000E+03	2.258731E-16	4.686490E-17
7.120000E+03	2.264945E-16	4.731701E-17
7.130000E+03	2.271269E-16	4.775591E-17
7.140000E+03	2.277703E-16	4.818141E-17
7.150000E+03	2.284246E-16	4.859333E-17
7.160000E+03	2.290298E-16	4.897866E-17
7.170000E+03	2.297051E-16	4.936268E-17
7.180000E+03	2.303907E-16	4.973248E-17
7.190000E+03	2.310866E-16	5.008785E-17
7.200000E+03	2.317319E-16	5.041538E-17
7.210000E+03	2.324473E-16	5.074110E-17
7.220000E+03	2.331722E-16	5.105168E-17
7.230000E+03	2.338453E-16	5.133345E-17
7.240000E+03	2.345885E-16	5.161292E-17
7.250000E+03	2.353404E-16	5.187649E-17
7.260000E+03	2.360390E-16	5.211025E-17
7.270000E+03	2.368074E-16	5.234114E-17
7.280000E+03	2.375215E-16	5.254153E-17
7.290000E+03	2.383052E-16	5.273863E-17
7.300000E+03	2.390334E-16	5.290454E-17
7.310000E+03	2.398310E-16	5.306669E-17
7.320000E+03	2.405720E-16	5.319696E-17
7.330000E+03	2.413186E-16	5.330895E-17
7.340000E+03	2.421340E-16	5.341638E-17
7.350000E+03	2.428910E-16	5.349091E-17
7.360000E+03	2.436523E-16	5.354624E-17
7.370000E+03	2.444818E-16	5.359614E-17
7.380000E+03	2.452508E-16	5.361212E-17
7.390000E+03	2.460227E-16	5.360794E-17
7.400000E+03	2.467970E-16	5.358327E-17
7.410000E+03	2.476386E-16	5.355192E-17
7.420000E+03	2.484165E-16	5.348530E-17
7.430000E+03	2.491952E-16	5.339723E-17
7.440000E+03	2.499742E-16	5.328737E-17
7.450000E+03	2.507529E-16	5.315540E-17
7.460000E+03	2.515306E-16	5.300099E-17
7.470000E+03	2.523066E-16	5.282381E-17
7.480000E+03	2.530804E-16	5.262355E-17
7.490000E+03	2.538513E-16	5.239989E-17
7.500000E+03	2.546185E-16	5.215251E-17
7.510000E+03	2.553814E-16	5.188110E-17
7.520000E+03	2.561391E-16	5.158535E-17
7.530000E+03	2.568910E-16	5.126497E-17
7.540000E+03	2.576363E-16	5.091966E-17
7.550000E+03	2.583742E-16	5.054914E-17
7.560000E+03	2.591038E-16	5.015313E-17
7.570000E+03	2.598242E-16	4.973136E-17
7.580000E+03	2.605348E-16	4.928359E-17
7.590000E+03	2.611649E-16	4.879657E-17
7.600000E+03	2.618525E-16	4.829619E-17
7.610000E+03	2.625275E-16	4.776912E-17
7.620000E+03	2.631887E-16	4.721517E-17
7.630000E+03	2.637650E-16	4.662171E-17
7.640000E+03	2.643957E-16	4.601362E-17
7.650000E+03	2.650098E-16	4.537817E-17
7.660000E+03	2.656061E-16	4.471524E-17
7.670000E+03	2.661123E-16	4.401298E-17
7.680000E+03	2.666697E-16	4.329504E-17
7.690000E+03	2.671344E-16	4.253804E-17
7.700000E+03	2.676483E-16	4.176497E-17
7.710000E+03	2.681387E-16	4.096427E-17
7.720000E+03	2.685325E-16	4.012524E-17
7.730000E+03	2.689723E-16	3.926974E-17
7.740000E+03	2.693126E-16	3.837662E-17
7.750000E+03	2.696967E-16	3.746696E-17
7.760000E+03	2.699785E-16	3.652062E-17
