#wls	flux	fluxerr
1.590916E+03	2.438281E-04	6.286063E-09
1.630689E+03	2.442954E-04	6.298110E-09
1.670462E+03	2.435064E-04	6.277770E-09
1.710235E+03	2.414135E-04	6.223812E-09
1.750007E+03	2.380183E-04	6.136282E-09
1.789780E+03	2.331360E-04	6.010413E-09
1.829553E+03	2.266010E-04	5.841935E-09
1.869326E+03	2.182441E-04	5.626487E-09
1.909099E+03	2.080818E-04	5.364496E-09
1.948872E+03	1.962510E-04	5.059490E-09
1.988645E+03	1.834548E-04	4.729594E-09
2.028418E+03	1.709587E-04	4.407434E-09
2.068191E+03	1.607077E-04	4.143158E-09
2.107964E+03	1.382088E-04	3.563119E-09
2.147736E+03	1.539690E-04	3.969427E-09
2.187509E+03	1.586579E-04	4.090311E-09
2.227282E+03	1.679150E-04	4.328964E-09
2.267055E+03	1.802910E-04	4.648028E-09
2.306828E+03	1.943666E-04	5.010904E-09
2.346601E+03	2.089213E-04	5.386134E-09
2.386374E+03	2.233004E-04	5.756837E-09
2.426147E+03	2.372295E-04	6.115939E-09
2.465920E+03	2.508832E-04	6.467940E-09
2.505692E+03	2.649324E-04	6.830138E-09
2.545465E+03	2.806506E-04	7.235362E-09
2.585238E+03	3.002721E-04	7.741218E-09
2.625011E+03	3.266439E-04	8.421100E-09
2.664784E+03	3.608275E-04	9.302375E-09
2.704557E+03	4.020638E-04	1.036547E-08
2.744330E+03	4.492437E-04	1.158180E-08
2.784103E+03	5.014473E-04	1.292765E-08
2.823876E+03	5.576839E-04	1.437746E-08
2.863649E+03	6.168544E-04	1.590292E-08
2.903421E+03	6.777256E-04	1.747221E-08
2.943194E+03	7.389139E-04	1.904969E-08
2.982967E+03	7.989331E-04	2.059702E-08
2.992910E+03	8.135864E-04	2.097479E-08
3.002854E+03	8.280100E-04	2.134664E-08
3.012797E+03	8.422015E-04	2.171251E-08
3.022740E+03	8.561375E-04	2.207179E-08
3.032683E+03	8.698689E-04	2.242579E-08
3.042627E+03	8.834135E-04	2.277498E-08
3.052570E+03	8.966788E-04	2.311697E-08
3.062513E+03	9.096802E-04	2.345215E-08
3.072456E+03	9.223246E-04	2.377813E-08
3.082399E+03	9.345915E-04	2.409438E-08
3.092343E+03	9.464236E-04	2.439942E-08
3.102286E+03	9.578002E-04	2.469272E-08
3.112229E+03	9.686287E-04	2.497188E-08
3.122172E+03	9.789252E-04	2.523733E-08
3.132116E+03	9.885629E-04	2.548580E-08
3.142059E+03	9.975952E-04	2.571865E-08
3.152002E+03	1.005933E-03	2.593361E-08
3.161945E+03	1.013526E-03	2.612937E-08
3.171889E+03	1.020361E-03	2.630558E-08
3.181832E+03	1.026426E-03	2.646193E-08
3.191775E+03	1.031643E-03	2.659642E-08
3.201718E+03	1.036006E-03	2.670891E-08
3.211661E+03	1.039481E-03	2.679849E-08
3.221605E+03	1.042103E-03	2.686608E-08
3.231548E+03	1.043812E-03	2.691016E-08
3.241491E+03	1.044591E-03	2.693024E-08
3.251434E+03	1.044492E-03	2.692767E-08
3.261378E+03	1.043479E-03	2.690155E-08
3.271321E+03	1.041589E-03	2.685283E-08
3.281264E+03	1.038839E-03	2.678194E-08
3.291207E+03	1.035289E-03	2.669041E-08
3.301150E+03	1.030980E-03	2.657933E-08
3.311094E+03	1.026000E-03	2.645094E-08
3.321037E+03	1.020398E-03	2.630651E-08
3.330980E+03	1.014325E-03	2.614994E-08
3.340923E+03	1.007875E-03	2.598366E-08
3.350867E+03	1.001221E-03	2.581211E-08
3.360810E+03	9.945394E-04	2.563986E-08
3.370753E+03	9.880179E-04	2.547173E-08
3.380696E+03	9.819547E-04	2.531542E-08
3.390639E+03	9.765959E-04	2.517727E-08
3.400583E+03	9.723277E-04	2.506723E-08
3.410526E+03	9.694962E-04	2.499423E-08
3.420469E+03	9.685619E-04	2.497014E-08
3.430412E+03	9.699563E-04	2.500609E-08
3.440356E+03	9.741768E-04	2.511490E-08
3.450299E+03	9.816138E-04	2.530663E-08
3.460242E+03	9.924536E-04	2.558609E-08
3.470185E+03	1.006637E-03	2.595175E-08
3.480128E+03	1.023853E-03	2.639557E-08
3.490072E+03	1.043702E-03	2.690731E-08
3.500015E+03	1.065825E-03	2.747763E-08
3.509958E+03	1.089838E-03	2.809672E-08
3.519901E+03	1.115477E-03	2.875770E-08
3.529845E+03	1.142420E-03	2.945232E-08
3.539788E+03	1.170301E-03	3.017109E-08
3.549731E+03	1.198207E-03	3.089054E-08
3.559674E+03	1.225110E-03	3.158411E-08
3.569617E+03	1.249945E-03	3.222438E-08
3.579561E+03	1.271681E-03	3.278473E-08
3.589504E+03	1.289389E-03	3.324127E-08
3.599447E+03	1.302353E-03	3.357549E-08
3.609390E+03	1.310016E-03	3.377303E-08
3.619334E+03	1.312047E-03	3.382540E-08
3.629277E+03	1.308345E-03	3.372996E-08
3.639220E+03	1.299043E-03	3.349014E-08
3.649163E+03	1.284505E-03	3.311534E-08
3.659107E+03	1.265316E-03	3.262063E-08
3.669050E+03	1.242269E-03	3.202648E-08
3.678993E+03	1.216298E-03	3.135691E-08
3.688936E+03	1.188432E-03	3.063851E-08
3.698879E+03	1.159808E-03	2.990057E-08
3.708823E+03	1.131573E-03	2.917265E-08
3.718766E+03	1.104850E-03	2.848371E-08
3.728709E+03	1.080766E-03	2.786282E-08
3.738652E+03	1.060292E-03	2.733498E-08
3.748596E+03	1.044308E-03	2.692291E-08
3.758539E+03	1.033602E-03	2.664689E-08
3.768482E+03	1.028895E-03	2.652554E-08
3.778425E+03	1.030889E-03	2.657695E-08
3.788368E+03	1.040240E-03	2.681803E-08
3.798312E+03	1.057640E-03	2.726661E-08
3.808255E+03	1.083634E-03	2.793675E-08
3.818198E+03	1.118835E-03	2.884425E-08
3.828141E+03	1.163872E-03	3.000534E-08
3.838085E+03	1.219295E-03	3.143417E-08
3.848028E+03	1.285621E-03	3.314410E-08
3.848246E+03	9.355330E-04	2.411862E-08
3.850156E+03	9.611760E-04	2.477971E-08
3.852066E+03	9.866438E-04	2.543629E-08
3.853976E+03	1.003516E-03	2.587126E-08
3.855886E+03	1.030760E-03	2.657364E-08
3.857796E+03	1.054411E-03	2.718335E-08
3.859706E+03	1.070841E-03	2.760694E-08
3.861617E+03	1.075726E-03	2.773288E-08
3.863527E+03	1.096402E-03	2.826592E-08
3.865437E+03	1.123205E-03	2.895693E-08
3.867347E+03	1.141736E-03	2.943467E-08
3.869258E+03	1.156855E-03	2.982443E-08
3.871168E+03	1.186907E-03	3.059918E-08
3.873078E+03	1.213056E-03	3.127333E-08
3.874988E+03	1.226836E-03	3.162859E-08
3.876898E+03	1.248398E-03	3.218446E-08
3.878809E+03	1.272271E-03	3.279994E-08
3.880719E+03	1.292230E-03	3.331450E-08
3.882629E+03	1.324724E-03	3.415220E-08
3.884539E+03	1.361837E-03	3.510901E-08
3.886449E+03	1.391550E-03	3.587500E-08
3.888359E+03	1.426133E-03	3.676659E-08
3.890270E+03	1.452557E-03	3.744782E-08
3.892181E+03	1.484005E-03	3.825855E-08
3.894091E+03	1.502083E-03	3.872462E-08
3.896001E+03	1.536686E-03	3.961670E-08
3.897911E+03	1.569520E-03	4.046319E-08
3.899821E+03	1.603287E-03	4.133373E-08
3.901731E+03	1.621309E-03	4.179834E-08
3.903641E+03	1.630680E-03	4.203992E-08
3.905551E+03	1.657257E-03	4.272510E-08
3.907461E+03	1.688275E-03	4.352476E-08
3.909372E+03	1.715409E-03	4.422430E-08
3.911283E+03	1.719275E-03	4.432395E-08
3.913193E+03	1.754740E-03	4.523828E-08
3.915103E+03	1.787879E-03	4.609261E-08
3.917013E+03	1.834977E-03	4.730683E-08
3.918923E+03	1.868943E-03	4.818249E-08
3.920833E+03	1.904150E-03	4.909016E-08
3.922743E+03	1.940652E-03	5.003120E-08
3.924654E+03	1.976787E-03	5.096279E-08
3.926564E+03	2.013967E-03	5.192130E-08
3.928474E+03	2.064546E-03	5.322525E-08
3.930385E+03	2.110131E-03	5.440046E-08
3.932295E+03	2.152127E-03	5.548316E-08
3.934205E+03	2.191491E-03	5.649798E-08
3.936115E+03	2.229126E-03	5.746824E-08
3.938025E+03	2.277616E-03	5.871835E-08
3.939935E+03	2.319431E-03	5.979635E-08
3.941846E+03	2.361997E-03	6.089372E-08
3.943756E+03	2.415388E-03	6.227017E-08
3.945666E+03	2.465541E-03	6.356317E-08
3.947576E+03	2.510073E-03	6.471121E-08
3.949486E+03	2.550493E-03	6.575328E-08
3.951397E+03	2.599781E-03	6.702394E-08
3.953307E+03	2.641306E-03	6.809449E-08
3.955217E+03	2.682621E-03	6.915961E-08
3.957127E+03	2.699854E-03	6.960388E-08
3.959038E+03	2.746327E-03	7.080198E-08
3.960948E+03	2.789899E-03	7.192531E-08
3.962858E+03	2.826703E-03	7.287412E-08
3.964768E+03	2.863647E-03	7.382658E-08
3.966678E+03	2.910307E-03	7.502950E-08
3.968588E+03	2.962060E-03	7.636372E-08
3.970498E+03	3.010862E-03	7.762186E-08
3.972409E+03	3.057525E-03	7.882486E-08
3.974320E+03	3.096123E-03	7.981994E-08
3.976230E+03	3.126649E-03	8.060691E-08
3.978140E+03	3.155164E-03	8.134206E-08
3.980050E+03	3.188264E-03	8.219541E-08
3.981960E+03	3.217410E-03	8.294680E-08
3.983870E+03	3.248431E-03	8.374655E-08
3.985780E+03	3.291313E-03	8.485205E-08
3.987690E+03	3.331014E-03	8.587557E-08
3.989600E+03	3.354265E-03	8.647500E-08
3.991511E+03	3.380052E-03	8.713981E-08
3.993422E+03	3.416386E-03	8.807652E-08
3.995332E+03	3.443013E-03	8.876298E-08
3.997242E+03	3.461149E-03	8.923052E-08
3.999152E+03	3.471601E-03	8.950000E-08
4.001062E+03	3.481966E-03	8.976721E-08
4.002972E+03	3.506539E-03	9.040071E-08
4.004883E+03	3.520181E-03	9.075242E-08
4.006793E+03	3.529055E-03	9.098118E-08
4.008703E+03	3.532588E-03	9.107227E-08
4.010613E+03	3.551742E-03	9.156607E-08
4.012523E+03	3.569682E-03	9.202859E-08
4.014434E+03	3.581816E-03	9.234139E-08
4.016344E+03	3.582664E-03	9.236327E-08
4.018254E+03	3.584134E-03	9.240116E-08
4.020164E+03	3.585511E-03	9.243667E-08
4.022075E+03	3.574225E-03	9.214569E-08
4.023985E+03	3.575189E-03	9.217056E-08
4.025895E+03	3.578180E-03	9.224767E-08
4.027805E+03	3.563621E-03	9.187232E-08
4.029715E+03	3.557911E-03	9.172511E-08
4.031625E+03	3.554582E-03	9.163928E-08
4.033536E+03	3.547158E-03	9.144790E-08
4.035446E+03	3.522446E-03	9.081079E-08
4.037357E+03	3.497817E-03	9.017586E-08
4.039267E+03	3.473890E-03	8.955900E-08
4.041177E+03	3.457532E-03	8.913729E-08
4.043087E+03	3.427686E-03	8.836782E-08
4.044997E+03	3.411189E-03	8.794253E-08
4.046907E+03	3.384520E-03	8.725498E-08
4.048817E+03	3.354752E-03	8.648755E-08
4.050727E+03	3.327510E-03	8.578524E-08
4.052637E+03	3.286158E-03	8.471916E-08
4.054549E+03	3.253895E-03	8.388739E-08
4.056459E+03	3.222958E-03	8.308983E-08
4.058369E+03	3.198572E-03	8.246112E-08
4.060279E+03	3.148021E-03	8.115789E-08
4.062189E+03	3.111910E-03	8.022693E-08
4.064099E+03	3.078636E-03	7.936911E-08
4.066009E+03	3.040091E-03	7.837540E-08
4.067919E+03	2.990083E-03	7.708615E-08
4.069829E+03	2.949406E-03	7.603747E-08
4.071740E+03	2.911833E-03	7.506881E-08
4.073650E+03	2.873537E-03	7.408152E-08
4.075561E+03	2.846020E-03	7.337211E-08
4.077471E+03	2.814585E-03	7.256170E-08
4.079381E+03	2.766710E-03	7.132745E-08
4.081291E+03	2.737040E-03	7.056255E-08
4.083201E+03	2.711708E-03	6.990948E-08
4.085112E+03	2.680819E-03	6.911315E-08
4.087022E+03	2.661071E-03	6.860403E-08
4.088932E+03	2.641040E-03	6.808761E-08
4.090842E+03	2.617821E-03	6.748902E-08
4.092752E+03	2.597483E-03	6.696468E-08
4.094662E+03	2.552976E-03	6.581728E-08
4.096573E+03	2.515028E-03	6.483895E-08
4.098483E+03	2.485661E-03	6.408184E-08
4.100393E+03	2.469230E-03	6.365825E-08
4.102303E+03	2.444732E-03	6.302666E-08
4.104214E+03	2.407646E-03	6.207058E-08
4.106124E+03	2.362405E-03	6.090422E-08
4.108034E+03	2.359721E-03	6.083505E-08
4.109944E+03	2.333623E-03	6.016220E-08
4.111854E+03	2.301385E-03	5.933109E-08
4.113764E+03	2.281337E-03	5.881426E-08
4.115674E+03	2.270525E-03	5.853551E-08
4.117585E+03	2.246714E-03	5.792165E-08
4.119496E+03	2.235660E-03	5.763668E-08
4.121406E+03	2.209140E-03	5.695295E-08
4.123316E+03	2.182002E-03	5.625333E-08
4.125226E+03	2.155047E-03	5.555842E-08
4.127136E+03	2.126673E-03	5.482691E-08
4.129046E+03	2.105586E-03	5.428328E-08
4.130956E+03	2.094580E-03	5.399954E-08
4.132866E+03	2.084527E-03	5.374036E-08
4.134777E+03	2.063061E-03	5.318696E-08
4.136688E+03	2.048695E-03	5.281660E-08
4.138598E+03	2.024773E-03	5.219987E-08
4.140508E+03	2.004631E-03	5.168060E-08
4.142418E+03	1.989404E-03	5.128803E-08
4.144328E+03	1.964923E-03	5.065689E-08
4.146238E+03	1.945625E-03	5.015940E-08
4.148148E+03	1.929694E-03	4.974868E-08
4.150059E+03	1.919234E-03	4.947902E-08
4.151969E+03	1.909302E-03	4.922296E-08
4.153879E+03	1.892840E-03	4.879855E-08
4.155789E+03	1.885418E-03	4.860720E-08
4.157700E+03	1.877826E-03	4.841150E-08
4.159610E+03	1.883241E-03	4.855110E-08
4.161520E+03	1.877968E-03	4.841516E-08
4.163430E+03	1.880964E-03	4.849238E-08
4.165340E+03	1.887158E-03	4.865208E-08
4.167251E+03	1.889955E-03	4.872417E-08
4.169161E+03	1.889940E-03	4.872380E-08
4.171071E+03	1.896706E-03	4.889822E-08
4.172981E+03	1.912218E-03	4.929814E-08
4.174891E+03	1.916789E-03	4.941598E-08
4.176801E+03	1.919958E-03	4.949767E-08
4.178712E+03	1.929821E-03	4.975194E-08
4.180622E+03	1.928059E-03	4.970652E-08
4.182532E+03	1.926679E-03	4.967095E-08
4.184443E+03	1.928625E-03	4.972111E-08
4.186353E+03	1.940334E-03	5.002299E-08
4.188263E+03	1.942026E-03	5.006660E-08
4.190173E+03	1.957044E-03	5.045378E-08
4.192083E+03	1.960397E-03	5.054021E-08
4.193993E+03	1.967202E-03	5.071565E-08
4.195903E+03	1.975388E-03	5.092670E-08
4.197813E+03	1.988791E-03	5.127222E-08
4.199725E+03	1.996574E-03	5.147288E-08
4.201635E+03	1.997354E-03	5.149300E-08
4.203545E+03	2.018769E-03	5.204508E-08
4.205455E+03	2.032697E-03	5.240415E-08
4.207365E+03	2.045495E-03	5.273410E-08
4.209275E+03	2.034563E-03	5.245225E-08
4.211185E+03	2.048325E-03	5.280704E-08
4.213095E+03	2.060184E-03	5.311278E-08
4.215006E+03	2.071073E-03	5.339352E-08
4.216916E+03	2.093178E-03	5.396338E-08
4.218827E+03	2.110021E-03	5.439762E-08
4.220737E+03	2.120653E-03	5.467172E-08
4.222647E+03	2.139818E-03	5.516579E-08
4.224557E+03	2.156139E-03	5.558657E-08
4.226467E+03	2.173929E-03	5.604520E-08
4.228377E+03	2.193690E-03	5.655464E-08
4.230288E+03	2.226291E-03	5.739513E-08
4.232198E+03	2.244467E-03	5.786371E-08
4.234108E+03	2.256957E-03	5.818570E-08
4.236018E+03	2.274805E-03	5.864583E-08
4.237928E+03	2.292908E-03	5.911255E-08
4.239839E+03	2.306370E-03	5.945960E-08
4.241749E+03	2.320414E-03	5.982168E-08
4.243659E+03	2.330808E-03	6.008962E-08
4.245569E+03	2.353104E-03	6.066444E-08
4.247480E+03	2.371311E-03	6.113382E-08
4.249390E+03	2.386646E-03	6.152917E-08
4.251300E+03	2.396699E-03	6.178835E-08
4.253210E+03	2.401682E-03	6.191680E-08
4.255120E+03	2.411887E-03	6.217989E-08
4.257030E+03	2.435341E-03	6.278455E-08
4.258940E+03	2.449135E-03	6.314017E-08
4.260851E+03	2.460936E-03	6.344441E-08
4.262761E+03	2.479954E-03	6.393471E-08
4.264672E+03	2.492825E-03	6.426651E-08
4.266582E+03	2.501220E-03	6.448295E-08
4.268492E+03	2.523660E-03	6.506146E-08
4.270402E+03	2.535263E-03	6.536061E-08
4.272312E+03	2.540067E-03	6.548444E-08
4.274222E+03	2.537488E-03	6.541797E-08
4.276132E+03	2.535477E-03	6.536613E-08
4.278043E+03	2.538787E-03	6.545145E-08
4.279953E+03	2.542448E-03	6.554582E-08
4.281864E+03	2.547594E-03	6.567850E-08
4.283774E+03	2.551793E-03	6.578675E-08
4.285684E+03	2.555324E-03	6.587779E-08
4.287594E+03	2.548760E-03	6.570855E-08
4.289504E+03	2.551684E-03	6.578394E-08
4.291414E+03	2.560423E-03	6.600924E-08
4.293324E+03	2.561213E-03	6.602960E-08
4.295235E+03	2.554261E-03	6.585038E-08
4.297145E+03	2.547304E-03	6.567103E-08
4.299055E+03	2.552046E-03	6.579328E-08
4.300965E+03	2.560175E-03	6.600284E-08
4.302876E+03	2.563465E-03	6.608765E-08
4.304786E+03	2.568485E-03	6.621708E-08
4.306696E+03	2.574152E-03	6.636318E-08
4.308606E+03	2.590389E-03	6.678177E-08
4.310517E+03	2.601612E-03	6.707112E-08
4.312427E+03	2.611944E-03	6.733747E-08
4.314337E+03	2.626730E-03	6.771866E-08
4.316247E+03	2.633379E-03	6.789007E-08
4.318157E+03	2.650647E-03	6.833526E-08
4.320067E+03	2.662709E-03	6.864622E-08
4.321978E+03	2.658584E-03	6.853988E-08
4.323888E+03	2.649262E-03	6.829955E-08
4.325798E+03	2.645134E-03	6.819314E-08
4.327709E+03	2.646622E-03	6.823150E-08
4.329619E+03	2.640069E-03	6.806255E-08
4.331529E+03	2.639948E-03	6.805944E-08
4.333439E+03	2.642912E-03	6.813585E-08
4.335349E+03	2.644148E-03	6.816770E-08
4.337259E+03	2.629811E-03	6.779810E-08
4.339169E+03	2.621218E-03	6.757657E-08
4.341079E+03	2.618677E-03	6.751106E-08
4.342990E+03	2.617307E-03	6.747572E-08
4.344901E+03	2.623006E-03	6.762266E-08
4.346811E+03	2.628375E-03	6.776107E-08
4.348721E+03	2.615516E-03	6.742955E-08
4.350631E+03	2.616457E-03	6.745382E-08
4.352541E+03	2.622626E-03	6.761285E-08
4.354451E+03	2.617436E-03	6.747905E-08
4.356361E+03	2.605786E-03	6.717871E-08
4.358272E+03	2.599119E-03	6.700684E-08
4.360182E+03	2.600333E-03	6.703812E-08
4.362092E+03	2.593430E-03	6.686018E-08
4.364003E+03	2.593363E-03	6.685845E-08
4.365913E+03	2.590945E-03	6.679611E-08
4.367823E+03	2.584574E-03	6.663185E-08
4.369733E+03	2.586775E-03	6.668859E-08
4.371643E+03	2.587510E-03	6.670755E-08
4.373553E+03	2.580494E-03	6.652667E-08
4.375464E+03	2.579169E-03	6.649252E-08
4.377374E+03	2.575417E-03	6.639578E-08
4.379284E+03	2.580644E-03	6.653054E-08
4.381194E+03	2.576252E-03	6.641730E-08
4.383104E+03	2.571086E-03	6.628413E-08
4.385015E+03	2.567590E-03	6.619399E-08
4.386925E+03	2.566425E-03	6.616397E-08
4.388835E+03	2.563416E-03	6.608640E-08
4.390745E+03	2.558377E-03	6.595649E-08
4.392656E+03	2.559868E-03	6.599493E-08
4.394566E+03	2.558495E-03	6.595951E-08
4.396476E+03	2.553287E-03	6.582524E-08
4.398386E+03	2.548559E-03	6.570337E-08
4.400296E+03	2.550752E-03	6.575990E-08
4.402206E+03	2.550311E-03	6.574852E-08
4.404116E+03	2.553739E-03	6.583692E-08
4.406027E+03	2.565036E-03	6.612815E-08
4.407937E+03	2.572683E-03	6.632530E-08
4.409848E+03	2.573402E-03	6.634383E-08
4.411758E+03	2.586492E-03	6.668129E-08
4.413668E+03	2.598897E-03	6.700110E-08
4.415578E+03	2.600352E-03	6.703861E-08
4.417488E+03	2.603707E-03	6.712511E-08
4.419398E+03	2.602822E-03	6.710230E-08
4.421308E+03	2.594513E-03	6.688809E-08
4.423218E+03	2.600474E-03	6.704176E-08
4.425130E+03	2.612815E-03	6.735993E-08
4.427040E+03	2.625320E-03	6.768232E-08
4.428950E+03	2.642094E-03	6.811476E-08
4.430860E+03	2.663459E-03	6.866555E-08
4.432770E+03	2.675129E-03	6.896641E-08
4.434680E+03	2.684077E-03	6.919708E-08
4.436590E+03	2.701305E-03	6.964124E-08
4.438500E+03	2.723396E-03	7.021076E-08
4.440411E+03	2.740993E-03	7.066441E-08
4.442321E+03	2.756856E-03	7.107337E-08
4.444231E+03	2.770856E-03	7.143432E-08
4.446142E+03	2.790047E-03	7.192905E-08
4.448052E+03	2.821143E-03	7.273074E-08
4.449962E+03	2.851342E-03	7.350927E-08
4.451872E+03	2.877904E-03	7.419406E-08
4.453782E+03	2.907538E-03	7.495805E-08
4.455693E+03	2.946678E-03	7.596711E-08
4.457603E+03	2.996670E-03	7.725592E-08
4.459513E+03	3.038937E-03	7.834559E-08
4.461423E+03	3.078392E-03	7.936278E-08
4.463333E+03	3.129123E-03	8.067065E-08
4.465243E+03	3.181514E-03	8.202132E-08
4.467154E+03	3.235196E-03	8.340527E-08
4.469064E+03	3.279354E-03	8.454369E-08
4.470974E+03	3.315903E-03	8.548594E-08
4.472885E+03	3.362164E-03	8.667857E-08
4.474795E+03	3.419182E-03	8.814852E-08
4.476705E+03	3.463537E-03	8.929204E-08
4.478615E+03	3.497716E-03	9.017318E-08
4.480525E+03	3.549896E-03	9.151842E-08
4.482435E+03	3.596022E-03	9.270758E-08
4.484345E+03	3.639500E-03	9.382846E-08
4.486255E+03	3.676434E-03	9.478063E-08
4.488166E+03	3.720771E-03	9.592367E-08
4.490077E+03	3.772674E-03	9.726177E-08
4.491987E+03	3.817514E-03	9.841777E-08
4.493897E+03	3.857643E-03	9.945231E-08
4.495807E+03	3.897332E-03	1.004755E-07
4.497717E+03	3.928097E-03	1.012687E-07
4.499627E+03	3.963742E-03	1.021876E-07
4.501537E+03	4.004733E-03	1.032444E-07
4.503448E+03	4.047164E-03	1.043383E-07
4.505358E+03	4.079785E-03	1.051793E-07
4.507268E+03	4.119907E-03	1.062136E-07
4.509179E+03	4.156476E-03	1.071564E-07
4.511089E+03	4.198503E-03	1.082399E-07
4.512999E+03	4.242370E-03	1.093708E-07
4.514909E+03	4.281960E-03	1.103915E-07
4.516819E+03	4.328021E-03	1.115789E-07
4.518729E+03	4.374176E-03	1.127688E-07
4.520640E+03	4.407209E-03	1.136205E-07
4.522550E+03	4.448228E-03	1.146779E-07
4.524460E+03	4.492411E-03	1.158170E-07
4.526370E+03	4.540041E-03	1.170449E-07
4.528281E+03	4.586715E-03	1.182482E-07
4.530191E+03	4.621876E-03	1.191547E-07
4.532101E+03	4.658087E-03	1.200882E-07
4.534011E+03	4.696615E-03	1.210815E-07
4.535922E+03	4.738596E-03	1.221638E-07
4.537832E+03	4.779924E-03	1.232293E-07
4.539742E+03	4.820934E-03	1.242865E-07
4.541652E+03	4.866216E-03	1.254539E-07
4.543562E+03	4.912528E-03	1.266479E-07
4.545472E+03	4.952647E-03	1.276822E-07
4.547382E+03	4.998736E-03	1.288704E-07
4.549293E+03	5.057991E-03	1.303980E-07
4.551203E+03	5.105630E-03	1.316261E-07
4.553114E+03	5.155320E-03	1.329072E-07
4.555024E+03	5.216701E-03	1.344896E-07
4.556934E+03	5.272826E-03	1.359366E-07
4.558844E+03	5.316631E-03	1.370659E-07
4.560754E+03	5.363980E-03	1.382866E-07
4.562664E+03	5.409995E-03	1.394729E-07
4.564574E+03	5.446449E-03	1.404127E-07
4.566484E+03	5.491745E-03	1.415804E-07
4.568394E+03	5.539172E-03	1.428031E-07
4.570306E+03	5.578837E-03	1.438257E-07
4.572216E+03	5.629720E-03	1.451375E-07
4.574126E+03	5.676457E-03	1.463424E-07
4.576036E+03	5.727332E-03	1.476540E-07
4.577946E+03	5.776934E-03	1.489327E-07
4.579856E+03	5.833385E-03	1.503881E-07
4.581766E+03	5.878639E-03	1.515548E-07
4.583677E+03	5.925568E-03	1.527646E-07
4.585587E+03	5.968771E-03	1.538784E-07
4.587497E+03	6.004836E-03	1.548082E-07
4.589407E+03	6.040114E-03	1.557177E-07
