#wls	flux	fluxerr
1.590916E+03	7.985303E-06	3.353289E-07
1.630689E+03	8.073188E-06	3.379953E-07
1.670462E+03	8.137576E-06	3.396335E-07
1.710235E+03	8.179342E-06	3.402879E-07
1.750007E+03	8.195348E-06	3.398366E-07
1.789780E+03	8.180332E-06	3.380721E-07
1.829553E+03	8.125526E-06	3.346460E-07
1.869326E+03	8.018100E-06	3.290487E-07
1.909099E+03	7.852887E-06	3.210928E-07
1.948872E+03	7.622946E-06	3.105227E-07
1.988645E+03	7.338815E-06	2.977978E-07
2.028418E+03	7.032163E-06	2.842262E-07
2.068191E+03	6.766559E-06	2.723806E-07
2.107964E+03	6.622251E-06	2.654602E-07
2.147736E+03	6.672442E-06	2.663270E-07
2.187509E+03	6.950330E-06	2.761991E-07
2.227282E+03	7.442112E-06	2.944070E-07
2.267055E+03	8.101542E-06	3.190083E-07
2.306828E+03	8.878138E-06	3.479243E-07
2.346601E+03	9.730860E-06	3.794787E-07
2.386374E+03	1.063336E-05	4.125944E-07
2.426147E+03	1.157727E-05	4.469077E-07
2.465920E+03	1.256323E-05	4.824056E-07
2.505692E+03	1.359844E-05	5.193243E-07
2.545465E+03	1.469392E-05	5.580379E-07
2.585238E+03	1.586036E-05	5.988965E-07
2.625011E+03	1.711462E-05	6.424705E-07
2.664784E+03	1.847229E-05	6.892671E-07
2.704557E+03	1.994986E-05	7.398082E-07
2.744330E+03	2.156463E-05	7.946279E-07
2.784103E+03	2.333098E-05	8.541340E-07
2.823876E+03	2.527500E-05	9.191419E-07
2.863649E+03	2.740855E-05	9.899224E-07
2.903421E+03	2.975540E-05	1.067157E-06
2.943194E+03	3.233591E-05	1.151376E-06
2.982967E+03	3.517012E-05	1.243072E-06
2.992910E+03	3.591693E-05	1.267088E-06
3.002854E+03	3.668629E-05	1.291787E-06
3.012797E+03	3.747297E-05	1.316983E-06
3.022740E+03	3.827195E-05	1.342494E-06
3.032683E+03	3.909775E-05	1.368825E-06
3.042627E+03	3.994738E-05	1.395866E-06
3.052570E+03	4.082061E-05	1.423603E-06
3.062513E+03	4.171709E-05	1.452018E-06
3.072456E+03	4.263649E-05	1.481096E-06
3.082399E+03	4.357857E-05	1.510820E-06
3.092343E+03	4.454302E-05	1.541177E-06
3.102286E+03	4.552954E-05	1.572148E-06
3.112229E+03	4.654498E-05	1.603967E-06
3.122172E+03	4.757494E-05	1.636129E-06
3.132116E+03	4.862612E-05	1.668861E-06
3.142059E+03	4.969818E-05	1.702147E-06
3.152002E+03	5.079856E-05	1.736235E-06
3.161945E+03	5.191161E-05	1.770584E-06
3.171889E+03	5.305264E-05	1.805712E-06
3.181832E+03	5.420533E-05	1.841058E-06
3.191775E+03	5.538555E-05	1.877156E-06
3.201718E+03	5.658489E-05	1.913714E-06
3.211661E+03	5.779419E-05	1.950419E-06
3.221605E+03	5.903025E-05	1.987833E-06
3.231548E+03	6.028409E-05	2.025647E-06
3.241491E+03	6.155520E-05	2.063840E-06
3.251434E+03	6.284304E-05	2.102388E-06
3.261378E+03	6.414704E-05	2.141269E-06
3.271321E+03	6.546664E-05	2.180457E-06
3.281264E+03	6.680115E-05	2.219927E-06
3.291207E+03	6.814999E-05	2.259654E-06
3.301150E+03	6.951239E-05	2.299609E-06
3.311094E+03	7.088764E-05	2.339764E-06
3.321037E+03	7.227501E-05	2.380092E-06
3.330980E+03	7.367365E-05	2.420559E-06
3.340923E+03	7.509391E-05	2.461503E-06
3.350867E+03	7.651283E-05	2.502166E-06
3.360810E+03	7.794049E-05	2.542877E-06
3.370753E+03	7.938764E-05	2.583981E-06
3.380696E+03	8.083015E-05	2.624691E-06
3.390639E+03	8.229065E-05	2.665739E-06
3.400583E+03	8.374419E-05	2.706314E-06
3.410526E+03	8.521411E-05	2.747168E-06
3.420469E+03	8.668738E-05	2.787879E-06
3.430412E+03	8.815011E-05	2.827997E-06
3.440356E+03	8.962684E-05	2.868311E-06
3.450299E+03	9.110391E-05	2.908380E-06
3.460242E+03	9.256690E-05	2.947744E-06
3.470185E+03	9.404155E-05	2.987222E-06
3.480128E+03	9.551367E-05	3.026362E-06
3.490072E+03	9.698242E-05	3.065136E-06
3.500015E+03	9.844695E-05	3.103517E-06
3.509958E+03	9.990648E-05	3.141482E-06
3.519901E+03	1.013602E-04	3.179006E-06
3.529845E+03	1.028076E-04	3.216071E-06
3.539788E+03	1.042480E-04	3.252658E-06
3.549731E+03	1.056809E-04	3.288754E-06
3.559674E+03	1.071059E-04	3.324344E-06
3.569617E+03	1.085226E-04	3.359421E-06
3.579561E+03	1.099308E-04	3.393977E-06
3.589504E+03	1.113461E-04	3.428494E-06
3.599447E+03	1.127369E-04	3.462002E-06
3.609390E+03	1.141189E-04	3.494986E-06
3.619334E+03	1.154922E-04	3.527447E-06
3.629277E+03	1.168734E-04	3.559898E-06
3.639220E+03	1.182300E-04	3.591342E-06
3.649163E+03	1.195785E-04	3.622293E-06
3.659107E+03	1.209364E-04	3.653275E-06
3.669050E+03	1.222703E-04	3.683281E-06
3.678993E+03	1.236148E-04	3.713358E-06
3.688936E+03	1.249361E-04	3.742486E-06
3.698879E+03	1.262696E-04	3.771731E-06
3.708823E+03	1.275809E-04	3.800064E-06
3.718766E+03	1.289061E-04	3.828562E-06
3.728709E+03	1.302103E-04	3.856189E-06
3.738652E+03	1.315303E-04	3.884037E-06
3.748596E+03	1.328307E-04	3.911057E-06
3.758539E+03	1.341491E-04	3.938358E-06
3.768482E+03	1.354493E-04	3.964878E-06
3.778425E+03	1.367696E-04	3.991739E-06
3.788368E+03	1.380926E-04	4.018425E-06
3.798312E+03	1.394000E-04	4.044409E-06
3.808255E+03	1.407310E-04	4.070829E-06
3.818198E+03	1.420678E-04	4.097161E-06
3.828141E+03	1.433918E-04	4.122874E-06
3.838085E+03	1.447433E-04	4.149123E-06
3.848028E+03	1.461039E-04	4.175377E-06
3.857971E+03	1.474548E-04	4.201096E-06
3.867914E+03	1.488373E-04	4.227456E-06
3.877857E+03	1.502325E-04	4.253918E-06
3.887801E+03	1.516214E-04	4.279935E-06
3.897744E+03	1.530461E-04	4.306701E-06
3.907687E+03	1.544877E-04	4.333671E-06
3.917630E+03	1.559265E-04	4.360292E-06
3.927574E+03	1.574058E-04	4.387775E-06
3.937517E+03	1.589063E-04	4.415569E-06
3.947460E+03	1.604295E-04	4.443712E-06
3.957403E+03	1.619553E-04	4.471642E-06
3.967346E+03	1.635284E-04	4.500592E-06
3.977290E+03	1.651291E-04	4.530006E-06
3.987233E+03	1.667365E-04	4.559312E-06
3.997176E+03	1.683970E-04	4.589764E-06
4.007119E+03	1.700899E-04	4.620795E-06
4.017063E+03	1.717943E-04	4.651826E-06
4.027006E+03	1.735573E-04	4.684129E-06
4.036949E+03	1.753581E-04	4.717125E-06
4.046892E+03	1.771748E-04	4.750224E-06
4.056835E+03	1.790559E-04	4.784713E-06
4.066779E+03	1.809558E-04	4.819367E-06
4.076722E+03	1.829238E-04	4.855483E-06
4.086665E+03	1.849375E-04	4.892459E-06
4.096608E+03	1.869740E-04	4.929674E-06
4.106552E+03	1.890832E-04	4.968440E-06
4.116495E+03	1.912172E-04	5.007479E-06
4.126438E+03	1.934265E-04	5.048110E-06
4.136381E+03	1.956618E-04	5.089026E-06
4.146324E+03	1.979744E-04	5.131555E-06
4.156268E+03	2.003134E-04	5.174363E-06
4.166211E+03	2.027044E-04	5.218103E-06
4.176154E+03	2.051739E-04	5.263441E-06
4.186097E+03	2.076683E-04	5.308994E-06
4.196041E+03	2.102134E-04	5.355406E-06
4.205984E+03	2.128354E-04	5.403336E-06
4.215927E+03	2.154781E-04	5.451344E-06
4.225870E+03	2.181668E-04	5.500065E-06
4.235814E+03	2.209276E-04	5.550145E-06
4.245757E+03	2.237014E-04	5.600084E-06
4.255700E+03	2.265131E-04	5.650507E-06
4.265643E+03	2.293591E-04	5.701317E-06
4.275586E+03	2.322353E-04	5.752406E-06
4.285530E+03	2.351375E-04	5.803663E-06
4.295473E+03	2.380606E-04	5.854963E-06
4.305416E+03	2.409993E-04	5.906172E-06
4.315359E+03	2.439481E-04	5.957154E-06
4.325303E+03	2.469007E-04	6.007759E-06
4.335246E+03	2.498507E-04	6.057835E-06
4.345189E+03	2.527915E-04	6.107225E-06
4.355132E+03	2.556838E-04	6.154991E-06
4.365075E+03	2.585849E-04	6.202522E-06
4.375019E+03	2.614560E-04	6.248895E-06
4.384962E+03	2.642577E-04	6.293182E-06
4.394905E+03	2.670499E-04	6.336830E-06
4.404848E+03	2.697597E-04	6.378119E-06
4.414792E+03	2.724484E-04	6.418520E-06
4.424735E+03	2.750419E-04	6.456305E-06
4.434678E+03	2.776029E-04	6.492968E-06
4.444621E+03	2.800567E-04	6.526776E-06
4.454564E+03	2.824321E-04	6.558428E-06
4.464508E+03	2.847595E-04	6.588646E-06
4.474451E+03	2.869633E-04	6.615699E-06
4.484394E+03	2.890741E-04	6.640320E-06
4.494337E+03	2.910879E-04	6.662441E-06
4.504281E+03	2.930010E-04	6.681999E-06
4.514224E+03	2.948101E-04	6.698948E-06
4.524167E+03	2.965127E-04	6.713252E-06
4.534110E+03	2.981067E-04	6.724892E-06
4.544053E+03	2.995907E-04	6.733860E-06
4.553997E+03	3.009268E-04	6.739336E-06
4.563940E+03	3.021890E-04	6.743002E-06
4.573883E+03	3.033408E-04	6.744070E-06
4.583826E+03	3.043462E-04	6.741762E-06
4.593770E+03	3.052818E-04	6.737806E-06
4.603713E+03	3.060754E-04	6.730629E-06
4.613656E+03	3.068053E-04	6.721981E-06
4.623599E+03	3.074003E-04	6.710321E-06
4.633542E+03	3.079025E-04	6.696596E-06
4.643486E+03	3.083171E-04	6.680939E-06
4.653429E+03	3.086872E-04	6.664300E-06
4.663372E+03	3.089437E-04	6.645205E-06
4.673315E+03	3.091308E-04	6.624624E-06
4.683259E+03	3.092552E-04	6.602716E-06
4.693202E+03	3.092865E-04	6.578851E-06
4.703145E+03	3.093073E-04	6.554796E-06
4.713088E+03	3.092874E-04	6.529917E-06
4.723031E+03	3.092345E-04	6.504384E-06
4.732975E+03	3.091189E-04	6.477581E-06
4.742918E+03	3.090229E-04	6.451241E-06
4.752861E+03	3.088795E-04	6.423965E-06
4.762804E+03	3.087706E-04	6.397459E-06
4.772748E+03	3.086292E-04	6.370331E-06
4.782691E+03	3.084993E-04	6.343496E-06
4.792634E+03	3.083878E-04	6.317090E-06
4.802577E+03	3.083013E-04	6.291241E-06
4.812521E+03	3.082458E-04	6.266066E-06
4.822464E+03	3.082272E-04	6.241678E-06
4.832407E+03	3.082508E-04	6.218175E-06
4.842350E+03	3.083218E-04	6.195648E-06
4.852293E+03	3.084446E-04	6.174179E-06
4.862237E+03	3.085868E-04	6.153108E-06
4.872180E+03	3.088257E-04	6.133964E-06
4.882123E+03	3.090910E-04	6.115335E-06
4.892066E+03	3.094592E-04	6.098722E-06
4.902010E+03	3.098589E-04	6.082704E-06
4.911953E+03	3.103291E-04	6.068032E-06
4.921896E+03	3.109080E-04	6.055436E-06
4.931839E+03	3.115228E-04	6.043482E-06
4.941782E+03	3.122110E-04	6.032884E-06
4.951726E+03	3.129726E-04	6.023628E-06
4.961669E+03	3.138072E-04	6.015689E-06
4.971612E+03	3.146767E-04	6.008327E-06
4.981555E+03	3.156542E-04	6.002921E-06
4.991499E+03	3.167005E-04	5.998711E-06
5.001442E+03	3.177761E-04	5.994932E-06
5.011385E+03	3.189528E-04	5.992934E-06
5.021328E+03	3.201525E-04	5.991231E-06
5.031271E+03	3.214466E-04	5.991151E-06
5.041215E+03	3.227556E-04	5.991200E-06
5.051158E+03	3.241124E-04	5.991986E-06
5.061101E+03	3.255120E-04	5.993407E-06
5.071044E+03	3.269488E-04	5.995356E-06
5.080988E+03	3.284170E-04	5.997719E-06
5.090931E+03	3.299103E-04	6.000379E-06
5.100874E+03	3.314219E-04	6.003212E-06
5.110817E+03	3.329060E-04	6.005388E-06
5.120760E+03	3.344328E-04	6.008181E-06
5.130704E+03	3.359561E-04	6.010757E-06
5.140647E+03	3.374285E-04	6.012279E-06
5.150590E+03	3.389208E-04	6.014014E-06
5.160533E+03	3.403457E-04	6.014425E-06
5.170477E+03	3.417345E-04	6.014078E-06
5.180420E+03	3.430789E-04	6.012840E-06
5.190363E+03	3.443705E-04	6.010582E-06
5.200306E+03	3.456012E-04	6.007179E-06
5.210249E+03	3.467630E-04	6.002508E-06
5.220193E+03	3.478480E-04	5.996455E-06
5.230136E+03	3.488486E-04	5.988912E-06
5.240079E+03	3.497577E-04	5.979778E-06
5.250022E+03	3.505277E-04	5.968270E-06
5.259966E+03	3.512335E-04	5.955693E-06
5.269909E+03	3.517879E-04	5.940592E-06
5.279852E+03	3.522671E-04	5.924288E-06
5.289795E+03	3.525852E-04	5.905360E-06
5.299738E+03	3.527790E-04	5.884464E-06
5.309682E+03	3.528457E-04	5.861581E-06
5.319625E+03	3.528239E-04	5.837386E-06
5.329568E+03	3.526313E-04	5.810540E-06
5.339511E+03	3.523085E-04	5.781754E-06
5.349455E+03	3.518165E-04	5.750419E-06
5.359398E+03	3.512392E-04	5.717940E-06
5.369341E+03	3.505400E-04	5.683745E-06
5.379284E+03	3.497244E-04	5.647952E-06
5.389228E+03	3.487595E-04	5.610058E-06
5.399171E+03	3.477340E-04	5.571517E-06
5.409114E+03	3.465772E-04	5.531216E-06
5.419057E+03	3.453393E-04	5.489983E-06
5.429000E+03	3.440695E-04	5.448613E-06
5.438944E+03	3.426964E-04	5.405994E-06
5.448887E+03	3.412653E-04	5.362854E-06
5.458830E+03	3.397767E-04	5.319220E-06
5.468773E+03	3.382338E-04	5.275151E-06
5.478717E+03	3.366548E-04	5.230938E-06
5.488660E+03	3.350563E-04	5.186835E-06
5.498603E+03	3.334504E-04	5.143026E-06
5.508546E+03	3.318467E-04	5.099647E-06
5.518489E+03	3.302148E-04	5.056228E-06
5.528433E+03	3.286377E-04	5.014030E-06
5.538376E+03	3.270469E-04	4.971993E-06
5.548319E+03	3.255249E-04	4.931362E-06
5.558262E+03	3.240046E-04	4.891104E-06
5.568206E+03	3.225316E-04	4.851899E-06
5.578149E+03	3.211510E-04	4.814407E-06
5.588092E+03	3.197976E-04	4.777633E-06
5.598035E+03	3.185168E-04	4.742241E-06
5.607978E+03	3.173170E-04	4.708337E-06
5.617922E+03	3.162061E-04	4.676021E-06
5.627865E+03	3.151916E-04	4.645383E-06
5.637808E+03	3.142805E-04	4.616508E-06
5.647751E+03	3.134795E-04	4.589470E-06
5.657695E+03	3.127586E-04	4.563812E-06
5.667638E+03	3.121946E-04	4.540633E-06
5.677581E+03	3.117562E-04	4.519454E-06
5.687524E+03	3.114118E-04	4.499796E-06
5.697467E+03	3.112359E-04	4.482713E-06
5.707411E+03	3.111599E-04	4.467196E-06
5.717354E+03	3.112216E-04	4.453765E-06
5.727297E+03	3.114579E-04	4.442926E-06
5.737240E+03	3.117986E-04	4.433656E-06
5.747184E+03	3.122797E-04	4.426448E-06
5.757127E+03	3.129015E-04	4.421282E-06
5.767070E+03	3.136635E-04	4.418134E-06
5.777013E+03	3.145652E-04	4.416976E-06
5.786956E+03	3.156058E-04	4.417775E-06
5.796900E+03	3.167842E-04	4.420500E-06
5.806843E+03	3.180995E-04	4.425117E-06
5.816786E+03	3.195505E-04	4.431594E-06
5.826729E+03	3.211362E-04	4.439896E-06
5.836673E+03	3.228187E-04	4.449487E-06
5.846616E+03	3.246707E-04	4.461354E-06
5.856559E+03	3.266178E-04	4.474457E-06
5.866502E+03	3.287339E-04	4.489792E-06
5.876445E+03	3.309441E-04	4.506325E-06
5.886389E+03	3.333242E-04	4.525071E-06
5.896332E+03	3.357991E-04	4.544996E-06
5.906275E+03	3.384074E-04	4.566614E-06
5.916218E+03	3.411896E-04	4.590454E-06
5.926162E+03	3.440700E-04	4.615485E-06
5.936105E+03	3.470893E-04	4.642243E-06
5.946048E+03	3.502500E-04	4.670750E-06
5.955991E+03	3.535546E-04	4.701027E-06
5.965935E+03	3.570061E-04	4.733101E-06
5.975878E+03	3.606073E-04	4.767000E-06
5.985821E+03	3.643612E-04	4.802751E-06
5.995764E+03	3.682704E-04	4.840378E-06
6.005707E+03	3.723374E-04	4.879905E-06
6.015651E+03	3.765642E-04	4.921348E-06
6.025594E+03	3.809090E-04	4.964152E-06
6.035537E+03	3.854586E-04	5.009445E-06
6.045480E+03	3.901701E-04	5.056655E-06
6.055424E+03	3.949972E-04	5.105179E-06
6.065367E+03	4.000268E-04	5.156138E-06
6.075310E+03	4.051644E-04	5.208306E-06
6.085253E+03	4.104963E-04	5.262791E-06
6.095196E+03	4.159221E-04	5.318307E-06
6.105140E+03	4.214787E-04	5.375329E-06
6.115083E+03	4.272037E-04	5.434336E-06
6.125026E+03	4.329868E-04	5.493932E-06
6.134969E+03	4.388604E-04	5.554537E-06
6.144913E+03	4.448572E-04	5.616575E-06
6.154856E+03	4.508563E-04	5.678532E-06
6.164799E+03	4.568849E-04	5.740770E-06
6.174742E+03	4.629183E-04	5.802997E-06
6.184685E+03	4.689293E-04	5.864898E-06
6.194629E+03	4.748890E-04	5.926134E-06
6.204572E+03	4.807664E-04	5.986350E-06
6.214515E+03	4.865292E-04	6.045174E-06
6.224458E+03	4.921435E-04	6.102222E-06
6.234402E+03	4.975749E-04	6.157104E-06
6.244345E+03	5.027307E-04	6.208714E-06
6.254288E+03	5.076896E-04	6.258072E-06
6.264231E+03	5.123598E-04	6.304087E-06
6.274174E+03	5.167066E-04	6.346378E-06
6.284118E+03	5.206380E-04	6.383865E-06
6.294061E+03	5.242404E-04	6.417657E-06
6.304004E+03	5.274249E-04	6.446713E-06
6.313947E+03	5.301044E-04	6.470018E-06
6.323891E+03	5.323751E-04	6.488794E-06
6.333834E+03	5.340954E-04	6.501362E-06
6.343777E+03	5.353698E-04	6.509037E-06
6.353720E+03	5.360628E-04	6.510216E-06
6.363663E+03	5.362873E-04	6.506308E-06
6.373607E+03	5.359166E-04	6.495812E-06
6.383550E+03	5.350118E-04	6.479500E-06
6.393493E+03	5.336380E-04	6.458190E-06
6.403436E+03	5.316829E-04	6.430544E-06
6.413380E+03	5.292217E-04	6.397494E-06
6.423323E+03	5.262719E-04	6.359262E-06
6.433266E+03	5.229150E-04	6.316844E-06
6.443209E+03	5.190548E-04	6.269080E-06
6.453152E+03	5.147764E-04	6.216975E-06
6.463096E+03	5.101029E-04	6.160771E-06
6.473039E+03	5.050524E-04	6.100643E-06
6.482982E+03	4.996346E-04	6.036669E-06
6.492925E+03	4.938492E-04	5.968798E-06
6.502869E+03	4.877219E-04	5.897295E-06
6.512812E+03	4.813196E-04	5.822921E-06
6.522755E+03	4.746985E-04	5.746309E-06
6.532698E+03	4.679029E-04	5.667951E-06
6.542642E+03	4.609691E-04	5.588238E-06
6.552585E+03	4.539277E-04	5.507501E-06
6.562528E+03	4.468064E-04	5.426033E-06
6.572471E+03	4.395807E-04	5.343494E-06
6.582414E+03	4.323773E-04	5.261387E-06
6.592358E+03	4.251694E-04	5.179349E-06
6.602301E+03	4.179805E-04	5.097634E-06
6.612244E+03	4.107861E-04	5.015912E-06
6.622187E+03	4.037036E-04	4.935584E-06
6.632131E+03	3.967055E-04	4.856291E-06
6.642074E+03	3.897665E-04	4.777698E-06
6.652017E+03	3.829949E-04	4.701112E-06
6.661960E+03	3.763186E-04	4.625629E-06
6.671903E+03	3.698399E-04	4.552490E-06
6.681847E+03	3.634866E-04	4.480794E-06
6.691790E+03	3.573553E-04	4.411719E-06
6.701733E+03	3.513738E-04	4.344367E-06
6.711676E+03	3.456334E-04	4.279856E-06
6.721620E+03	3.400620E-04	4.217291E-06
6.731563E+03	3.347460E-04	4.157740E-06
6.741506E+03	3.296136E-04	4.100308E-06
6.751449E+03	3.247092E-04	4.045546E-06
6.761392E+03	3.200740E-04	3.993971E-06
6.771336E+03	3.156371E-04	3.944700E-06
6.781279E+03	3.114385E-04	3.898236E-06
6.791222E+03	3.075159E-04	3.855054E-06
6.801165E+03	3.037990E-04	3.814281E-06
6.811109E+03	3.003248E-04	3.776384E-06
6.821052E+03	2.970935E-04	3.741372E-06
6.830995E+03	2.941049E-04	3.709250E-06
6.840938E+03	2.913583E-04	3.680017E-06
6.850881E+03	2.888527E-04	3.653668E-06
6.860825E+03	2.866200E-04	3.630612E-06
6.870768E+03	2.845918E-04	3.609993E-06
6.880711E+03	2.827994E-04	3.592214E-06
6.890654E+03	2.812404E-04	3.577253E-06
6.900598E+03	2.799122E-04	3.565082E-06
6.910541E+03	2.788117E-04	3.555670E-06
6.920484E+03	2.779034E-04	3.548572E-06
6.930427E+03	2.772483E-04	3.544570E-06
6.940370E+03	2.768102E-04	3.543210E-06
6.950314E+03	2.765848E-04	3.544443E-06
6.960257E+03	2.765676E-04	3.548215E-06
6.970200E+03	2.767537E-04	3.554469E-06
6.980143E+03	2.771378E-04	3.563139E-06
6.990087E+03	2.776818E-04	3.573741E-06
7.000030E+03	2.784442E-04	3.587028E-06
7.009973E+03	2.793860E-04	3.602503E-06
7.019916E+03	2.804676E-04	3.619655E-06
7.029860E+03	2.817464E-04	3.639226E-06
7.039803E+03	2.831816E-04	3.660690E-06
7.049746E+03	2.847311E-04	3.683503E-06
7.059689E+03	2.864516E-04	3.708397E-06
7.069632E+03	2.882999E-04	3.734813E-06
7.079576E+03	2.902313E-04	3.762168E-06
7.089519E+03	2.923016E-04	3.791185E-06
7.099462E+03	2.944305E-04	3.820819E-06
7.109405E+03	2.966735E-04	3.851788E-06
7.119349E+03	2.989477E-04	3.883012E-06
7.129292E+03	3.012732E-04	3.914748E-06
7.139235E+03	3.036707E-04	3.947261E-06
7.149178E+03	3.060535E-04	3.979421E-06
7.159121E+03	3.084411E-04	4.011478E-06
7.169065E+03	3.108534E-04	4.043688E-06
7.179008E+03	3.132013E-04	4.074886E-06
7.188951E+03	3.155041E-04	4.105322E-06
7.198894E+03	3.177450E-04	4.134775E-06
7.208838E+03	3.199453E-04	4.163518E-06
7.218781E+03	3.220140E-04	4.190365E-06
7.228724E+03	3.239725E-04	4.215597E-06
7.238667E+03	3.258064E-04	4.239022E-06
7.248610E+03	3.275016E-04	4.260461E-06
7.258554E+03	3.290456E-04	4.279750E-06
7.268497E+03	3.304269E-04	4.296745E-06
7.278440E+03	3.316358E-04	4.311321E-06
7.288383E+03	3.326642E-04	4.323377E-06
7.298327E+03	3.335057E-04	4.332836E-06
7.308270E+03	3.341558E-04	4.339648E-06
7.318213E+03	3.346122E-04	4.343787E-06
7.328156E+03	3.348744E-04	4.345257E-06
7.338099E+03	3.349441E-04	4.344091E-06
7.348043E+03	3.347854E-04	4.339830E-06
7.357986E+03	3.344833E-04	4.333590E-06
7.367929E+03	3.340057E-04	4.324964E-06
7.377872E+03	3.333619E-04	4.314087E-06
7.387816E+03	3.325236E-04	4.300604E-06
7.397759E+03	3.315822E-04	4.285708E-06
7.407702E+03	3.305119E-04	4.269081E-06
7.417645E+03	3.292883E-04	4.250421E-06
7.427588E+03	3.280056E-04	4.230955E-06
7.437532E+03	3.266021E-04	4.209901E-06
7.447475E+03	3.251723E-04	4.188491E-06
7.457418E+03	3.236556E-04	4.165956E-06
7.467361E+03	3.221463E-04	4.143522E-06
7.477305E+03	3.205844E-04	4.120430E-06
7.487248E+03	3.190248E-04	4.097397E-06
7.497191E+03	3.175213E-04	4.075127E-06
7.507134E+03	3.160134E-04	4.052851E-06
7.517077E+03	3.145535E-04	4.031255E-06
7.527021E+03	3.131926E-04	4.011004E-06
7.536964E+03	3.118684E-04	3.991308E-06
7.546907E+03	3.106299E-04	3.972805E-06
7.556850E+03	3.094875E-04	3.955641E-06
7.566794E+03	3.084505E-04	3.939942E-06
7.576737E+03	3.075268E-04	3.925821E-06
7.586680E+03	3.067233E-04	3.913377E-06
7.596623E+03	3.060455E-04	3.902692E-06
7.606567E+03	3.054978E-04	3.893831E-06
7.616510E+03	3.050832E-04	3.886847E-06
7.626453E+03	3.048036E-04	3.881775E-06
7.636396E+03	3.046598E-04	3.878639E-06
7.646339E+03	3.046511E-04	3.877445E-06
7.656283E+03	3.047759E-04	3.878187E-06
7.666226E+03	3.050314E-04	3.880845E-06
7.676169E+03	3.053767E-04	3.884915E-06
7.686112E+03	3.058803E-04	3.891288E-06
7.696056E+03	3.064993E-04	3.899435E-06
7.705999E+03	3.071893E-04	3.908814E-06
7.715942E+03	3.080162E-04	3.920281E-06
