#wls	flux	fluxerr
1.600000E+03	8.891164E-16	4.240158E-16
1.640000E+03	8.861461E-16	4.167840E-16
1.680000E+03	8.829215E-16	4.093229E-16
1.720000E+03	8.794970E-16	4.016622E-16
1.760000E+03	8.759827E-16	3.938557E-16
1.800000E+03	8.726576E-16	3.860291E-16
1.840000E+03	8.695758E-16	3.782023E-16
1.880000E+03	8.669605E-16	3.704655E-16
1.920000E+03	8.650347E-16	3.629022E-16
1.960000E+03	8.639095E-16	3.555422E-16
2.000000E+03	8.638085E-16	3.484566E-16
2.040000E+03	8.650119E-16	3.417307E-16
2.080000E+03	8.676315E-16	3.353746E-16
2.120000E+03	8.720044E-16	3.294780E-16
2.160000E+03	8.783551E-16	3.240764E-16
2.200000E+03	8.868522E-16	3.191751E-16
2.240000E+03	8.977203E-16	3.147914E-16
2.280000E+03	9.112966E-16	3.109704E-16
2.320000E+03	9.276924E-16	3.076677E-16
2.360000E+03	9.470742E-16	3.048500E-16
2.400000E+03	9.695510E-16	3.024573E-16
2.440000E+03	9.951737E-16	3.004056E-16
2.480000E+03	1.023934E-15	2.985899E-16
2.520000E+03	1.056049E-15	2.969667E-16
2.560000E+03	1.091506E-15	2.954200E-16
2.600000E+03	1.130513E-15	2.938913E-16
2.640000E+03	1.173165E-15	2.922830E-16
2.680000E+03	1.219775E-15	2.905463E-16
2.720000E+03	1.270540E-15	2.885915E-16
2.760000E+03	1.325820E-15	2.863566E-16
2.800000E+03	1.385964E-15	2.837631E-16
2.840000E+03	1.451428E-15	2.807391E-16
2.880000E+03	1.522598E-15	2.771835E-16
2.920000E+03	1.600014E-15	2.730083E-16
2.960000E+03	1.684202E-15	2.681050E-16
3.000000E+03	1.775606E-15	2.623380E-16
3.010000E+03	1.799571E-15	2.607349E-16
3.020000E+03	1.824049E-15	2.590707E-16
3.030000E+03	1.848982E-15	2.573338E-16
3.040000E+03	1.874424E-15	2.555284E-16
3.050000E+03	1.900315E-15	2.536433E-16
3.060000E+03	1.926653E-15	2.516753E-16
3.070000E+03	1.953434E-15	2.496213E-16
3.080000E+03	1.980712E-15	2.474852E-16
3.090000E+03	2.008483E-15	2.452638E-16
3.100000E+03	2.036687E-15	2.429469E-16
3.110000E+03	2.065322E-15	2.405320E-16
3.120000E+03	2.094382E-15	2.380165E-16
3.130000E+03	2.123921E-15	2.354042E-16
3.140000E+03	2.153823E-15	2.326802E-16
3.150000E+03	2.184194E-15	2.298546E-16
3.160000E+03	2.214975E-15	2.269192E-16
3.170000E+03	2.246162E-15	2.238721E-16
3.180000E+03	2.277693E-15	2.207064E-16
3.190000E+03	2.309675E-15	2.174315E-16
3.200000E+03	2.341992E-15	2.140354E-16
3.210000E+03	2.374638E-15	2.105176E-16
3.220000E+03	2.407609E-15	2.068776E-16
3.230000E+03	2.440953E-15	2.031199E-16
3.240000E+03	2.474555E-15	1.992353E-16
3.250000E+03	2.508518E-15	1.952331E-16
3.260000E+03	2.542670E-15	1.911011E-16
3.270000E+03	2.577116E-15	1.868493E-16
3.280000E+03	2.611794E-15	1.824751E-16
3.290000E+03	2.646695E-15	1.779807E-16
3.300000E+03	2.681814E-15	1.733688E-16
3.310000E+03	2.717088E-15	1.686391E-16
3.320000E+03	2.752508E-15	1.637957E-16
3.330000E+03	2.788068E-15	1.588435E-16
3.340000E+03	2.823759E-15	1.537881E-16
3.350000E+03	2.859518E-15	1.486329E-16
3.360000E+03	2.895336E-15	1.433860E-16
3.370000E+03	2.931152E-15	1.380538E-16
3.380000E+03	2.967065E-15	1.326524E-16
3.390000E+03	3.002957E-15	1.271891E-16
3.400000E+03	3.038767E-15	1.216768E-16
3.410000E+03	3.074594E-15	1.161377E-16
3.420000E+03	3.110323E-15	1.105887E-16
3.430000E+03	3.146000E-15	1.050574E-16
3.440000E+03	3.181512E-15	9.957071E-17
3.450000E+03	3.216960E-15	9.416950E-17
3.460000E+03	3.252233E-15	8.889559E-17
3.470000E+03	3.287383E-15	8.380532E-17
3.480000E+03	3.322355E-15	7.896324E-17
3.490000E+03	3.357207E-15	7.444915E-17
3.500000E+03	3.391890E-15	7.035295E-17
3.510000E+03	3.426413E-15	6.677665E-17
3.520000E+03	3.460786E-15	6.382744E-17
3.530000E+03	3.495027E-15	6.160740E-17
3.540000E+03	3.529153E-15	6.019889E-17
3.550000E+03	3.563134E-15	5.964766E-17
3.560000E+03	3.597101E-15	5.995465E-17
3.570000E+03	3.630923E-15	6.106662E-17
3.580000E+03	3.664736E-15	6.289356E-17
3.590000E+03	3.698524E-15	6.531738E-17
3.600000E+03	3.732322E-15	6.821213E-17
3.610000E+03	3.766120E-15	7.145532E-17
3.620000E+03	3.799963E-15	7.493769E-17
3.630000E+03	3.833898E-15	7.856577E-17
3.640000E+03	3.867924E-15	8.226114E-17
3.650000E+03	3.902095E-15	8.596132E-17
3.660000E+03	3.936464E-15	8.961685E-17
3.670000E+03	3.971037E-15	9.318809E-17
3.680000E+03	4.005922E-15	9.664698E-17
3.690000E+03	4.041072E-15	9.996935E-17
3.700000E+03	4.076597E-15	1.031410E-16
3.710000E+03	4.112550E-15	1.061517E-16
3.720000E+03	4.148885E-15	1.089927E-16
3.730000E+03	4.185756E-15	1.116642E-16
3.740000E+03	4.223110E-15	1.141639E-16
3.750000E+03	4.260995E-15	1.164945E-16
3.760000E+03	4.299455E-15	1.186605E-16
3.770000E+03	4.338583E-15	1.206695E-16
3.780000E+03	4.378312E-15	1.225262E-16
3.790000E+03	4.418677E-15	1.242386E-16
3.800000E+03	4.459756E-15	1.258171E-16
3.810000E+03	4.501521E-15	1.272693E-16
3.820000E+03	4.543988E-15	1.286045E-16
3.830000E+03	4.587116E-15	1.298302E-16
3.840000E+03	4.630960E-15	1.309566E-16
3.850000E+03	4.675462E-15	1.319904E-16
3.860000E+03	4.720658E-15	1.329404E-16
3.870000E+03	4.766472E-15	1.338120E-16
3.880000E+03	4.812817E-15	1.346095E-16
3.890000E+03	4.859696E-15	1.353394E-16
3.900000E+03	4.907051E-15	1.360059E-16
3.910000E+03	4.954760E-15	1.366108E-16
3.920000E+03	5.002740E-15	1.371567E-16
3.930000E+03	5.050953E-15	1.376464E-16
3.940000E+03	5.099243E-15	1.380793E-16
3.950000E+03	5.147446E-15	1.384538E-16
3.960000E+03	5.195550E-15	1.387717E-16
3.970000E+03	5.243328E-15	1.390284E-16
3.980000E+03	5.290706E-15	1.392224E-16
3.990000E+03	5.337505E-15	1.393492E-16
4.000000E+03	5.383599E-15	1.394045E-16
4.010000E+03	5.428919E-15	1.393853E-16
4.020000E+03	5.473292E-15	1.392852E-16
4.030000E+03	5.516607E-15	1.390993E-16
4.040000E+03	5.558811E-15	1.388237E-16
4.050000E+03	5.599697E-15	1.384509E-16
4.060000E+03	5.639230E-15	1.379774E-16
4.070000E+03	5.677331E-15	1.373988E-16
4.080000E+03	5.713934E-15	1.367110E-16
4.090000E+03	5.748928E-15	1.359090E-16
4.100000E+03	5.782382E-15	1.349920E-16
4.110000E+03	5.814163E-15	1.339540E-16
4.120000E+03	5.844263E-15	1.327919E-16
4.130000E+03	5.872806E-15	1.315050E-16
4.140000E+03	5.899658E-15	1.300860E-16
4.150000E+03	5.925039E-15	1.285351E-16
4.160000E+03	5.948914E-15	1.268461E-16
4.170000E+03	5.971435E-15	1.250164E-16
4.180000E+03	5.992667E-15	1.230410E-16
4.190000E+03	6.012801E-15	1.209175E-16
4.200000E+03	6.031991E-15	1.186427E-16
4.210000E+03	6.050352E-15	1.162132E-16
4.220000E+03	6.068173E-15	1.136299E-16
4.230000E+03	6.085530E-15	1.108910E-16
4.240000E+03	6.102666E-15	1.079999E-16
4.250000E+03	6.119711E-15	1.049611E-16
4.260000E+03	6.136951E-15	1.017852E-16
4.270000E+03	6.154498E-15	9.848528E-17
4.280000E+03	6.172502E-15	9.508166E-17
4.290000E+03	6.191041E-15	9.160225E-17
4.300000E+03	6.210341E-15	8.808786E-17
4.310000E+03	6.230444E-15	8.458973E-17
4.320000E+03	6.251434E-15	8.117500E-17
4.330000E+03	6.273382E-15	7.792742E-17
4.340000E+03	6.296349E-15	7.494720E-17
4.350000E+03	6.320438E-15	7.234836E-17
4.360000E+03	6.345585E-15	7.024848E-17
4.370000E+03	6.371872E-15	6.875936E-17
4.380000E+03	6.399366E-15	6.796791E-17
4.390000E+03	6.427951E-15	6.791745E-17
4.400000E+03	6.457701E-15	6.860100E-17
4.410000E+03	6.488497E-15	6.995728E-17
4.420000E+03	6.520248E-15	7.188387E-17
4.430000E+03	6.552834E-15	7.425374E-17
4.440000E+03	6.586166E-15	7.693303E-17
4.450000E+03	6.620020E-15	7.979237E-17
4.460000E+03	6.654260E-15	8.271745E-17
4.470000E+03	6.688665E-15	8.561064E-17
4.480000E+03	6.722879E-15	8.839075E-17
4.490000E+03	6.756741E-15	9.099625E-17
4.500000E+03	6.789895E-15	9.337846E-17
4.510000E+03	6.822015E-15	9.550234E-17
4.520000E+03	6.852754E-15	9.734384E-17
4.530000E+03	6.881689E-15	9.888724E-17
4.540000E+03	6.908444E-15	1.001251E-16
4.550000E+03	6.932644E-15	1.010559E-16
4.560000E+03	6.953870E-15	1.016821E-16
4.570000E+03	6.971730E-15	1.020095E-16
4.580000E+03	6.985989E-15	1.020481E-16
4.590000E+03	6.996242E-15	1.018054E-16
4.600000E+03	7.002388E-15	1.012931E-16
4.610000E+03	7.004301E-15	1.005205E-16
4.620000E+03	7.001951E-15	9.949670E-17
4.630000E+03	6.995409E-15	9.822990E-17
4.640000E+03	6.984793E-15	9.672776E-17
4.650000E+03	6.970429E-15	9.500084E-17
4.660000E+03	6.952616E-15	9.306105E-17
4.670000E+03	6.931781E-15	9.092612E-17
4.680000E+03	6.908467E-15	8.862164E-17
4.690000E+03	6.883090E-15	8.618038E-17
4.700000E+03	6.856205E-15	8.364797E-17
4.710000E+03	6.828493E-15	8.108428E-17
4.720000E+03	6.800517E-15	7.856138E-17
4.730000E+03	6.772876E-15	7.616502E-17
4.740000E+03	6.746188E-15	7.399177E-17
4.750000E+03	6.721069E-15	7.214330E-17
4.760000E+03	6.697949E-15	7.071559E-17
4.770000E+03	6.677276E-15	6.978956E-17
4.780000E+03	6.659384E-15	6.941768E-17
4.790000E+03	6.644427E-15	6.961438E-17
4.800000E+03	6.632437E-15	7.035403E-17
4.810000E+03	6.623377E-15	7.157656E-17
4.820000E+03	6.616998E-15	7.319630E-17
4.830000E+03	6.613133E-15	7.511755E-17
4.840000E+03	6.611334E-15	7.724141E-17
4.850000E+03	6.611340E-15	7.947864E-17
4.860000E+03	6.612655E-15	8.174905E-17
4.870000E+03	6.614957E-15	8.398782E-17
4.880000E+03	6.617835E-15	8.614218E-17
4.890000E+03	6.621029E-15	8.817334E-17
4.900000E+03	6.624211E-15	9.005219E-17
4.910000E+03	6.627102E-15	9.175934E-17
4.920000E+03	6.629593E-15	9.328528E-17
4.930000E+03	6.631455E-15	9.462512E-17
4.940000E+03	6.632683E-15	9.578213E-17
4.950000E+03	6.633144E-15	9.676170E-17
4.960000E+03	6.632921E-15	9.757517E-17
4.970000E+03	6.631962E-15	9.823395E-17
4.980000E+03	6.630424E-15	9.875379E-17
4.990000E+03	6.628318E-15	9.914905E-17
5.000000E+03	6.625801E-15	9.943646E-17
5.010000E+03	6.622999E-15	9.963221E-17
5.020000E+03	6.620118E-15	9.975334E-17
5.030000E+03	6.617330E-15	9.981580E-17
5.040000E+03	6.614825E-15	9.983509E-17
5.050000E+03	6.612808E-15	9.982621E-17
5.060000E+03	6.611611E-15	9.980528E-17
5.070000E+03	6.611389E-15	9.978496E-17
5.080000E+03	6.612349E-15	9.977779E-17
5.090000E+03	6.614737E-15	9.979605E-17
5.100000E+03	6.618710E-15	9.984963E-17
5.110000E+03	6.624447E-15	9.994762E-17
5.120000E+03	6.631951E-15	1.000952E-16
5.130000E+03	6.641295E-15	1.002973E-16
5.140000E+03	6.652428E-15	1.005551E-16
5.150000E+03	6.665240E-15	1.008673E-16
5.160000E+03	6.679626E-15	1.012307E-16
5.170000E+03	6.695304E-15	1.016374E-16
5.180000E+03	6.712136E-15	1.020795E-16
5.190000E+03	6.729763E-15	1.025440E-16
5.200000E+03	6.747860E-15	1.030167E-16
5.210000E+03	6.766145E-15	1.034826E-16
5.220000E+03	6.784200E-15	1.039237E-16
5.230000E+03	6.801789E-15	1.043244E-16
5.240000E+03	6.818483E-15	1.046656E-16
5.250000E+03	6.833915E-15	1.049297E-16
5.260000E+03	6.847723E-15	1.050998E-16
5.270000E+03	6.859620E-15	1.051612E-16
5.280000E+03	6.869333E-15	1.051004E-16
5.290000E+03	6.876409E-15	1.049033E-16
5.300000E+03	6.880626E-15	1.045605E-16
5.310000E+03	6.881733E-15	1.040645E-16
5.320000E+03	6.879597E-15	1.034110E-16
5.330000E+03	6.874004E-15	1.025970E-16
5.340000E+03	6.864938E-15	1.016244E-16
5.350000E+03	6.852382E-15	1.004977E-16
5.360000E+03	6.836316E-15	9.922455E-17
5.370000E+03	6.816917E-15	9.781903E-17
5.380000E+03	6.794344E-15	9.629933E-17
5.390000E+03	6.768804E-15	9.468899E-17
5.400000E+03	6.740534E-15	9.301701E-17
5.410000E+03	6.709795E-15	9.131748E-17
5.420000E+03	6.676856E-15	8.962879E-17
5.430000E+03	6.641989E-15	8.799239E-17
5.440000E+03	6.605325E-15	8.644925E-17
5.450000E+03	6.567112E-15	8.504116E-17
5.460000E+03	6.527515E-15	8.380542E-17
5.470000E+03	6.486806E-15	8.277455E-17
5.480000E+03	6.445172E-15	8.197093E-17
5.490000E+03	6.402776E-15	8.140557E-17
5.500000E+03	6.359762E-15	8.107709E-17
5.510000E+03	6.316261E-15	8.097216E-17
5.520000E+03	6.272328E-15	8.106662E-17
5.530000E+03	6.228076E-15	8.133011E-17
5.540000E+03	6.183550E-15	8.172773E-17
5.550000E+03	6.138861E-15	8.222477E-17
5.560000E+03	6.094181E-15	8.278927E-17
5.570000E+03	6.049505E-15	8.339039E-17
5.580000E+03	6.004953E-15	8.400360E-17
5.590000E+03	5.960653E-15	8.460948E-17
5.600000E+03	5.916677E-15	8.519279E-17
5.610000E+03	5.873218E-15	8.574471E-17
5.620000E+03	5.830354E-15	8.625874E-17
5.630000E+03	5.788161E-15	8.673178E-17
5.640000E+03	5.746778E-15	8.716425E-17
5.650000E+03	5.706341E-15	8.755855E-17
5.660000E+03	5.666926E-15	8.791753E-17
5.670000E+03	5.628670E-15	8.824579E-17
5.680000E+03	5.591707E-15	8.854833E-17
5.690000E+03	5.556114E-15	8.882936E-17
5.700000E+03	5.522080E-15	8.909480E-17
5.710000E+03	5.489568E-15	8.934663E-17
5.720000E+03	5.458818E-15	8.959103E-17
5.730000E+03	5.429896E-15	8.983099E-17
5.740000E+03	5.402917E-15	9.006996E-17
5.750000E+03	5.377875E-15	9.030900E-17
5.760000E+03	5.354969E-15	9.055235E-17
5.770000E+03	5.334107E-15	9.079896E-17
5.780000E+03	5.315450E-15	9.105174E-17
5.790000E+03	5.298972E-15	9.131007E-17
5.800000E+03	5.284617E-15	9.157244E-17
5.810000E+03	5.272358E-15	9.183728E-17
5.820000E+03	5.262137E-15	9.210197E-17
5.830000E+03	5.253867E-15	9.236264E-17
5.840000E+03	5.247381E-15	9.261320E-17
5.850000E+03	5.242490E-15	9.284620E-17
5.860000E+03	5.239094E-15	9.305484E-17
5.870000E+03	5.236970E-15	9.322925E-17
5.880000E+03	5.235944E-15	9.335958E-17
5.890000E+03	5.235837E-15	9.343536E-17
5.900000E+03	5.236415E-15	9.344488E-17
5.910000E+03	5.237559E-15	9.337853E-17
5.920000E+03	5.238992E-15	9.322443E-17
5.930000E+03	5.240665E-15	9.297575E-17
5.940000E+03	5.242319E-15	9.262330E-17
5.950000E+03	5.243812E-15	9.216186E-17
5.960000E+03	5.245069E-15	9.158942E-17
5.970000E+03	5.245856E-15	9.090343E-17
5.980000E+03	5.246171E-15	9.010747E-17
5.990000E+03	5.245855E-15	8.920421E-17
6.000000E+03	5.244815E-15	8.819887E-17
6.010000E+03	5.242912E-15	8.709683E-17
6.020000E+03	5.240186E-15	8.590694E-17
6.030000E+03	5.236466E-15	8.463455E-17
6.040000E+03	5.231815E-15	8.328868E-17
6.050000E+03	5.226081E-15	8.187459E-17
6.060000E+03	5.219291E-15	8.040009E-17
6.070000E+03	5.211479E-15	7.887287E-17
6.080000E+03	5.202573E-15	7.729892E-17
6.090000E+03	5.192619E-15	7.568622E-17
6.100000E+03	5.181611E-15	7.404239E-17
6.110000E+03	5.169490E-15	7.237515E-17
6.120000E+03	5.156373E-15	7.069599E-17
6.130000E+03	5.142269E-15	6.901656E-17
6.140000E+03	5.127134E-15	6.735021E-17
6.150000E+03	5.111051E-15	6.571483E-17
6.160000E+03	5.094113E-15	6.413161E-17
6.170000E+03	5.076369E-15	6.262450E-17
6.180000E+03	5.057830E-15	6.122003E-17
6.190000E+03	5.038754E-15	5.994995E-17
6.200000E+03	5.019132E-15	5.884343E-17
6.210000E+03	4.999205E-15	5.793120E-17
6.220000E+03	4.979122E-15	5.723870E-17
6.230000E+03	4.959047E-15	5.678462E-17
6.240000E+03	4.939165E-15	5.657856E-17
6.250000E+03	4.919670E-15	5.661979E-17
6.260000E+03	4.900881E-15	5.689902E-17
6.270000E+03	4.882884E-15	5.739630E-17
6.280000E+03	4.866047E-15	5.808996E-17
6.290000E+03	4.850491E-15	5.895354E-17
6.300000E+03	4.836427E-15	5.996239E-17
6.310000E+03	4.823981E-15	6.109331E-17
6.320000E+03	4.813245E-15	6.232612E-17
6.330000E+03	4.804336E-15	6.364470E-17
6.340000E+03	4.797338E-15	6.503607E-17
6.350000E+03	4.792181E-15	6.648835E-17
6.360000E+03	4.788825E-15	6.799258E-17
6.370000E+03	4.787322E-15	6.954320E-17
6.380000E+03	4.787462E-15	7.113246E-17
6.390000E+03	4.789314E-15	7.275792E-17
6.400000E+03	4.792567E-15	7.441228E-17
6.410000E+03	4.797258E-15	7.609420E-17
6.420000E+03	4.803105E-15	7.779773E-17
6.430000E+03	4.810056E-15	7.952088E-17
6.440000E+03	4.817862E-15	8.125851E-17
6.450000E+03	4.826317E-15	8.300622E-17
6.460000E+03	4.835268E-15	8.476034E-17
6.470000E+03	4.844547E-15	8.651694E-17
6.480000E+03	4.853848E-15	8.826936E-17
6.490000E+03	4.862982E-15	9.001280E-17
6.500000E+03	4.871757E-15	9.174216E-17
6.510000E+03	4.879914E-15	9.345079E-17
6.520000E+03	4.887199E-15	9.513177E-17
6.530000E+03	4.893363E-15	9.677797E-17
6.540000E+03	4.898241E-15	9.838356E-17
6.550000E+03	4.901551E-15	9.994011E-17
6.560000E+03	4.903167E-15	1.014421E-16
6.570000E+03	4.902923E-15	1.028830E-16
6.580000E+03	4.900610E-15	1.042552E-16
6.590000E+03	4.896258E-15	1.055561E-16
6.600000E+03	4.889649E-15	1.067779E-16
6.610000E+03	4.880804E-15	1.079179E-16
6.620000E+03	4.869774E-15	1.089744E-16
6.630000E+03	4.856358E-15	1.099401E-16
6.640000E+03	4.840802E-15	1.108181E-16
6.650000E+03	4.823024E-15	1.116046E-16
6.660000E+03	4.803177E-15	1.123012E-16
6.670000E+03	4.781291E-15	1.129072E-16
6.680000E+03	4.757553E-15	1.134260E-16
6.690000E+03	4.732024E-15	1.138582E-16
6.700000E+03	4.704849E-15	1.142069E-16
6.710000E+03	4.676179E-15	1.144754E-16
6.720000E+03	4.646245E-15	1.146693E-16
6.730000E+03	4.615070E-15	1.147893E-16
6.740000E+03	4.582890E-15	1.148416E-16
6.750000E+03	4.549802E-15	1.148288E-16
6.760000E+03	4.516041E-15	1.147576E-16
6.770000E+03	4.481698E-15	1.146306E-16
6.780000E+03	4.447000E-15	1.144543E-16
6.790000E+03	4.412028E-15	1.142315E-16
6.800000E+03	4.376859E-15	1.139649E-16
6.810000E+03	4.341764E-15	1.136622E-16
6.820000E+03	4.306737E-15	1.133239E-16
6.830000E+03	4.271964E-15	1.129558E-16
6.840000E+03	4.237490E-15	1.125597E-16
6.850000E+03	4.203415E-15	1.121390E-16
6.860000E+03	4.169900E-15	1.116986E-16
6.870000E+03	4.136962E-15	1.112398E-16
6.880000E+03	4.104676E-15	1.107653E-16
6.890000E+03	4.073045E-15	1.102757E-16
6.900000E+03	4.042194E-15	1.097750E-16
6.910000E+03	4.012173E-15	1.092651E-16
6.920000E+03	3.982963E-15	1.087461E-16
6.930000E+03	3.954599E-15	1.082195E-16
6.940000E+03	3.927114E-15	1.076866E-16
6.950000E+03	3.900593E-15	1.071501E-16
6.960000E+03	3.874926E-15	1.066074E-16
6.970000E+03	3.850188E-15	1.060609E-16
6.980000E+03	3.826385E-15	1.055111E-16
6.990000E+03	3.803453E-15	1.049564E-16
7.000000E+03	3.781452E-15	1.043987E-16
7.010000E+03	3.760309E-15	1.038361E-16
7.020000E+03	3.740011E-15	1.032685E-16
7.030000E+03	3.720605E-15	1.026971E-16
7.040000E+03	3.701946E-15	1.021181E-16
7.050000E+03	3.684137E-15	1.015343E-16
7.060000E+03	3.667029E-15	1.009415E-16
7.070000E+03	3.650658E-15	1.003407E-16
7.080000E+03	3.634936E-15	9.972947E-17
7.090000E+03	3.619896E-15	9.910846E-17
7.100000E+03	3.605509E-15	9.847678E-17
7.110000E+03	3.591685E-15	9.783174E-17
7.120000E+03	3.578395E-15	9.717230E-17
7.130000E+03	3.565670E-15	9.649907E-17
7.140000E+03	3.553357E-15	9.580759E-17
7.150000E+03	3.541551E-15	9.510006E-17
7.160000E+03	3.530159E-15	9.437363E-17
7.170000E+03	3.519154E-15	9.362709E-17
7.180000E+03	3.508504E-15	9.285922E-17
7.190000E+03	3.498182E-15	9.206875E-17
7.200000E+03	3.488156E-15	9.125442E-17
7.210000E+03	3.478336E-15	9.041333E-17
7.220000E+03	3.468816E-15	8.954741E-17
7.230000E+03	3.459442E-15	8.865218E-17
7.240000E+03	3.450309E-15	8.772952E-17
7.250000E+03	3.441263E-15	8.677500E-17
7.260000E+03	3.432336E-15	8.578896E-17
7.270000E+03	3.423499E-15	8.477014E-17
7.280000E+03	3.414662E-15	8.371582E-17
7.290000E+03	3.405918E-15	8.262790E-17
7.300000E+03	3.397116E-15	8.150221E-17
7.310000E+03	3.388353E-15	8.034070E-17
7.320000E+03	3.379476E-15	7.913940E-17
7.330000E+03	3.370583E-15	7.790034E-17
7.340000E+03	3.361524E-15	7.661983E-17
7.350000E+03	3.352334E-15	7.529866E-17
7.360000E+03	3.343051E-15	7.393771E-17
7.370000E+03	3.333587E-15	7.253523E-17
7.380000E+03	3.323920E-15	7.109116E-17
7.390000E+03	3.314025E-15	6.960569E-17
7.400000E+03	3.303880E-15	6.807939E-17
7.410000E+03	3.293529E-15	6.651449E-17
7.420000E+03	3.282827E-15	6.490990E-17
7.430000E+03	3.271945E-15	6.327141E-17
7.440000E+03	3.260682E-15	6.159812E-17
7.450000E+03	3.249153E-15	5.989611E-17
7.460000E+03	3.237349E-15	5.817004E-17
7.470000E+03	3.225205E-15	5.642477E-17
7.480000E+03	3.212721E-15	5.466784E-17
7.490000E+03	3.200027E-15	5.291066E-17
7.500000E+03	3.186945E-15	5.116153E-17
7.510000E+03	3.173615E-15	4.943636E-17
7.520000E+03	3.159994E-15	4.775077E-17
7.530000E+03	3.146171E-15	4.612531E-17
7.540000E+03	3.132115E-15	4.458177E-17
7.550000E+03	3.117929E-15	4.314679E-17
7.560000E+03	3.103596E-15	4.184783E-17
7.570000E+03	3.089175E-15	4.071486E-17
7.580000E+03	3.074792E-15	3.977867E-17
7.590000E+03	3.060523E-15	3.906698E-17
7.600000E+03	3.046451E-15	3.860268E-17
7.610000E+03	3.032544E-15	3.839949E-17
7.620000E+03	3.019081E-15	3.846551E-17
7.630000E+03	3.006036E-15	3.879460E-17
7.640000E+03	2.993560E-15	3.937349E-17
7.650000E+03	2.981738E-15	4.018071E-17
7.660000E+03	2.970641E-15	4.119011E-17
7.670000E+03	2.960265E-15	4.237265E-17
7.680000E+03	2.950712E-15	4.370124E-17
7.690000E+03	2.942007E-15	4.514971E-17
7.700000E+03	2.934219E-15	4.669554E-17
7.710000E+03	2.927218E-15	4.831634E-17
7.720000E+03	2.921045E-15	4.999558E-17
7.730000E+03	2.915667E-15	5.171861E-17
7.740000E+03	2.911043E-15	5.347325E-17
7.750000E+03	2.907184E-15	5.525064E-17
7.760000E+03	2.903974E-15	5.704145E-17
