#wls	flux	fluxerr
1.600000E+03	2.669344E-17	1.346907E-17
1.640000E+03	2.689764E-17	1.341980E-17
1.680000E+03	2.712201E-17	1.337411E-17
1.720000E+03	2.736660E-17	1.333154E-17
1.760000E+03	2.762115E-17	1.328660E-17
1.800000E+03	2.789615E-17	1.324396E-17
1.840000E+03	2.818153E-17	1.319830E-17
1.880000E+03	2.849796E-17	1.315883E-17
1.920000E+03	2.882526E-17	1.311553E-17
1.960000E+03	2.917394E-17	1.307272E-17
2.000000E+03	2.954434E-17	1.302991E-17
2.040000E+03	2.993687E-17	1.298662E-17
2.080000E+03	3.035199E-17	1.294235E-17
2.120000E+03	3.080023E-17	1.290081E-17
2.160000E+03	3.126221E-17	1.285307E-17
2.200000E+03	3.175858E-17	1.280694E-17
2.240000E+03	3.228017E-17	1.275776E-17
2.280000E+03	3.282787E-17	1.270507E-17
2.320000E+03	3.340269E-17	1.264841E-17
2.360000E+03	3.400576E-17	1.258733E-17
2.400000E+03	3.464815E-17	1.252494E-17
2.440000E+03	3.532139E-17	1.245706E-17
2.480000E+03	3.602698E-17	1.238328E-17
2.520000E+03	3.677645E-17	1.230646E-17
2.560000E+03	3.755193E-17	1.221953E-17
2.600000E+03	3.837512E-17	1.212860E-17
2.640000E+03	3.924823E-17	1.203305E-17
2.680000E+03	4.015392E-17	1.192641E-17
2.720000E+03	4.111451E-17	1.181435E-17
2.760000E+03	4.213286E-17	1.169636E-17
2.800000E+03	4.321210E-17	1.157199E-17
2.840000E+03	4.435560E-17	1.144089E-17
2.880000E+03	4.556702E-17	1.130282E-17
2.920000E+03	4.687051E-17	1.116247E-17
2.960000E+03	4.826051E-17	1.101708E-17
3.000000E+03	4.976228E-17	1.087117E-17
3.010000E+03	5.016161E-17	1.083583E-17
3.020000E+03	5.056453E-17	1.079960E-17
3.030000E+03	5.097110E-17	1.076251E-17
3.040000E+03	5.139175E-17	1.072673E-17
3.050000E+03	5.181623E-17	1.069010E-17
3.060000E+03	5.225502E-17	1.065477E-17
3.070000E+03	5.270824E-17	1.062070E-17
3.080000E+03	5.315521E-17	1.058373E-17
3.090000E+03	5.362726E-17	1.055010E-17
3.100000E+03	5.410369E-17	1.051568E-17
3.110000E+03	5.459506E-17	1.048251E-17
3.120000E+03	5.509102E-17	1.044859E-17
3.130000E+03	5.561273E-17	1.041791E-17
3.140000E+03	5.612875E-17	1.038454E-17
3.150000E+03	5.667084E-17	1.035440E-17
3.160000E+03	5.721804E-17	1.032358E-17
3.170000E+03	5.779171E-17	1.029595E-17
3.180000E+03	5.837079E-17	1.026770E-17
3.190000E+03	5.896605E-17	1.024075E-17
3.200000E+03	5.957770E-17	1.021511E-17
3.210000E+03	6.019517E-17	1.018897E-17
3.220000E+03	6.084012E-17	1.016603E-17
3.230000E+03	6.150203E-17	1.014447E-17
3.240000E+03	6.218110E-17	1.012432E-17
3.250000E+03	6.287754E-17	1.010562E-17
3.260000E+03	6.359155E-17	1.008840E-17
3.270000E+03	6.433429E-17	1.007444E-17
3.280000E+03	6.508412E-17	1.006034E-17
3.290000E+03	6.586319E-17	1.004956E-17
3.300000E+03	6.666077E-17	1.004047E-17
3.310000E+03	6.748818E-17	1.003479E-17
3.320000E+03	6.833464E-17	1.003090E-17
3.330000E+03	6.921154E-17	1.003052E-17
3.340000E+03	7.010805E-17	1.003209E-17
3.350000E+03	7.103563E-17	1.003728E-17
3.360000E+03	7.198338E-17	1.004460E-17
3.370000E+03	7.296287E-17	1.005570E-17
3.380000E+03	7.397448E-17	1.007066E-17
3.390000E+03	7.501858E-17	1.008957E-17
3.400000E+03	7.609557E-17	1.011252E-17
3.410000E+03	7.719435E-17	1.013809E-17
3.420000E+03	7.833825E-17	1.016941E-17
3.430000E+03	7.951623E-17	1.020508E-17
3.440000E+03	8.072869E-17	1.024521E-17
3.450000E+03	8.197605E-17	1.028991E-17
3.460000E+03	8.327044E-17	1.034078E-17
3.470000E+03	8.458889E-17	1.039500E-17
3.480000E+03	8.596711E-17	1.045705E-17
3.490000E+03	8.738210E-17	1.052416E-17
3.500000E+03	8.883429E-17	1.059645E-17
3.510000E+03	9.034801E-17	1.067688E-17
3.520000E+03	9.189999E-17	1.076274E-17
3.530000E+03	9.350271E-17	1.085554E-17
3.540000E+03	9.515675E-17	1.095540E-17
3.550000E+03	9.686271E-17	1.106241E-17
3.560000E+03	9.862116E-17	1.117666E-17
3.570000E+03	1.004327E-16	1.129816E-17
3.580000E+03	1.023100E-16	1.142828E-17
3.590000E+03	1.042416E-16	1.156560E-17
3.600000E+03	1.062403E-16	1.171144E-17
3.610000E+03	1.082944E-16	1.186438E-17
3.620000E+03	1.104168E-16	1.202571E-17
3.630000E+03	1.126083E-16	1.219532E-17
3.640000E+03	1.148695E-16	1.237311E-17
3.650000E+03	1.172010E-16	1.255895E-17
3.660000E+03	1.195907E-16	1.275132E-17
3.670000E+03	1.220775E-16	1.295414E-17
3.680000E+03	1.246237E-16	1.316314E-17
3.690000E+03	1.272556E-16	1.338084E-17
3.700000E+03	1.299739E-16	1.360702E-17
3.710000E+03	1.327663E-16	1.384007E-17
3.720000E+03	1.356464E-16	1.408110E-17
3.730000E+03	1.386149E-16	1.432982E-17
3.740000E+03	1.416724E-16	1.458594E-17
3.750000E+03	1.448195E-16	1.484912E-17
3.760000E+03	1.480569E-16	1.511904E-17
3.770000E+03	1.513984E-16	1.539669E-17
3.780000E+03	1.548448E-16	1.568170E-17
3.790000E+03	1.583832E-16	1.597229E-17
3.800000E+03	1.620277E-16	1.626941E-17
3.810000E+03	1.657650E-16	1.657125E-17
3.820000E+03	1.696231E-16	1.688007E-17
3.830000E+03	1.736025E-16	1.719539E-17
3.840000E+03	1.776762E-16	1.751397E-17
3.850000E+03	1.818721E-16	1.783801E-17
3.860000E+03	1.861908E-16	1.816695E-17
3.870000E+03	1.906187E-16	1.849887E-17
3.880000E+03	1.951840E-16	1.883588E-17
3.890000E+03	1.998590E-16	1.917466E-17
3.900000E+03	2.046720E-16	1.951729E-17
3.910000E+03	2.096092E-16	1.986176E-17
3.920000E+03	2.146848E-16	2.020874E-17
3.930000E+03	2.198847E-16	2.055619E-17
3.940000E+03	2.252230E-16	2.090476E-17
3.950000E+03	2.307143E-16	2.125504E-17
3.960000E+03	2.363295E-16	2.160363E-17
3.970000E+03	2.420972E-16	2.195244E-17
3.980000E+03	2.480028E-16	2.229937E-17
3.990000E+03	2.540602E-16	2.264498E-17
4.000000E+03	2.602692E-16	2.298846E-17
4.010000E+03	2.666291E-16	2.332904E-17
4.020000E+03	2.731245E-16	2.366464E-17
4.030000E+03	2.797840E-16	2.399706E-17
4.040000E+03	2.866068E-16	2.432549E-17
4.050000E+03	2.935771E-16	2.464790E-17
4.060000E+03	3.007085E-16	2.496479E-17
4.070000E+03	3.079998E-16	2.527542E-17
4.080000E+03	3.154496E-16	2.557907E-17
4.090000E+03	3.230563E-16	2.587506E-17
4.100000E+03	3.308333E-16	2.616393E-17
4.110000E+03	3.387635E-16	2.644388E-17
4.120000E+03	3.468451E-16	2.671436E-17
4.130000E+03	3.551061E-16	2.697720E-17
4.140000E+03	3.635138E-16	2.722961E-17
4.150000E+03	3.720963E-16	2.747352E-17
4.160000E+03	3.808355E-16	2.770746E-17
4.170000E+03	3.897287E-16	2.793123E-17
4.180000E+03	3.987729E-16	2.814470E-17
4.190000E+03	4.079801E-16	2.834895E-17
4.200000E+03	4.173471E-16	2.854402E-17
4.210000E+03	4.268703E-16	2.873009E-17
4.220000E+03	4.365307E-16	2.890644E-17
4.230000E+03	4.463552E-16	2.907556E-17
4.240000E+03	4.563089E-16	2.923598E-17
4.250000E+03	4.664186E-16	2.939039E-17
4.260000E+03	4.766643E-16	2.953864E-17
4.270000E+03	4.870417E-16	2.968169E-17
4.280000E+03	4.975461E-16	2.982065E-17
4.290000E+03	5.081883E-16	2.995769E-17
4.300000E+03	5.189478E-16	3.009321E-17
4.310000E+03	5.298197E-16	3.022868E-17
4.320000E+03	5.407990E-16	3.036566E-17
4.330000E+03	5.518960E-16	3.050666E-17
4.340000E+03	5.630901E-16	3.065248E-17
4.350000E+03	5.743760E-16	3.080485E-17
4.360000E+03	5.857485E-16	3.096549E-17
4.370000E+03	5.972024E-16	3.113609E-17
4.380000E+03	6.087325E-16	3.131828E-17
4.390000E+03	6.203184E-16	3.151276E-17
4.400000E+03	6.319717E-16	3.172056E-17
4.410000E+03	6.436753E-16	3.193987E-17
4.420000E+03	6.554276E-16	3.216931E-17
4.430000E+03	6.672427E-16	3.240798E-17
4.440000E+03	6.790738E-16	3.265172E-17
4.450000E+03	6.909663E-16	3.290062E-17
4.460000E+03	7.028894E-16	3.315091E-17
4.470000E+03	7.148436E-16	3.340015E-17
4.480000E+03	7.268296E-16	3.364579E-17
4.490000E+03	7.388635E-16	3.388594E-17
4.500000E+03	7.509165E-16	3.411661E-17
4.510000E+03	7.630207E-16	3.433663E-17
4.520000E+03	7.751783E-16	3.454352E-17
4.530000E+03	7.873917E-16	3.473497E-17
4.540000E+03	7.996639E-16	3.490883E-17
4.550000E+03	8.120279E-16	3.506451E-17
4.560000E+03	8.244425E-16	3.519848E-17
4.570000E+03	8.369268E-16	3.531019E-17
4.580000E+03	8.494849E-16	3.539883E-17
4.590000E+03	8.620774E-16	3.546227E-17
4.600000E+03	8.747098E-16	3.550086E-17
4.610000E+03	8.873731E-16	3.551494E-17
4.620000E+03	9.000734E-16	3.550622E-17
4.630000E+03	9.127881E-16	3.547600E-17
4.640000E+03	9.255241E-16	3.542767E-17
4.650000E+03	9.382452E-16	3.536390E-17
4.660000E+03	9.509880E-16	3.529119E-17
4.670000E+03	9.637170E-16	3.521442E-17
4.680000E+03	9.764260E-16	3.514075E-17
4.690000E+03	9.891093E-16	3.507861E-17
4.700000E+03	1.001761E-15	3.503760E-17
4.710000E+03	1.014376E-15	3.502857E-17
4.720000E+03	1.026935E-15	3.506294E-17
4.730000E+03	1.039446E-15	3.515407E-17
4.740000E+03	1.051892E-15	3.531504E-17
4.750000E+03	1.064251E-15	3.555931E-17
4.760000E+03	1.076534E-15	3.590127E-17
4.770000E+03	1.088708E-15	3.635338E-17
4.780000E+03	1.100782E-15	3.692858E-17
4.790000E+03	1.112735E-15	3.763497E-17
4.800000E+03	1.124562E-15	3.847247E-17
4.810000E+03	1.136228E-15	3.943679E-17
4.820000E+03	1.147739E-15	4.052324E-17
4.830000E+03	1.159073E-15	4.172470E-17
4.840000E+03	1.170209E-15	4.303283E-17
4.850000E+03	1.181167E-15	4.444004E-17
4.860000E+03	1.191923E-15	4.593665E-17
4.870000E+03	1.202483E-15	4.751376E-17
4.880000E+03	1.212836E-15	4.916188E-17
4.890000E+03	1.222987E-15	5.087214E-17
4.900000E+03	1.232939E-15	5.263591E-17
4.910000E+03	1.242681E-15	5.444429E-17
4.920000E+03	1.252214E-15	5.628927E-17
4.930000E+03	1.261529E-15	5.816262E-17
4.940000E+03	1.270639E-15	6.005774E-17
4.950000E+03	1.279531E-15	6.196719E-17
4.960000E+03	1.288208E-15	6.388453E-17
4.970000E+03	1.296681E-15	6.580441E-17
4.980000E+03	1.304925E-15	6.771977E-17
4.990000E+03	1.312965E-15	6.962671E-17
5.000000E+03	1.320773E-15	7.151878E-17
5.010000E+03	1.328389E-15	7.339359E-17
5.020000E+03	1.335784E-15	7.524530E-17
5.030000E+03	1.342970E-15	7.707062E-17
5.040000E+03	1.349957E-15	7.886664E-17
5.050000E+03	1.356744E-15	8.062988E-17
5.060000E+03	1.363326E-15	8.235715E-17
5.070000E+03	1.369716E-15	8.404631E-17
5.080000E+03	1.375909E-15	8.569467E-17
5.090000E+03	1.381914E-15	8.730060E-17
5.100000E+03	1.387743E-15	8.886275E-17
5.110000E+03	1.393405E-15	9.038001E-17
5.120000E+03	1.398880E-15	9.184966E-17
5.130000E+03	1.404192E-15	9.327191E-17
5.140000E+03	1.409351E-15	9.464630E-17
5.150000E+03	1.414350E-15	9.597164E-17
5.160000E+03	1.419213E-15	9.724882E-17
5.170000E+03	1.423919E-15	9.847603E-17
5.180000E+03	1.428492E-15	9.965456E-17
5.190000E+03	1.432939E-15	1.007849E-16
5.200000E+03	1.437269E-15	1.018679E-16
5.210000E+03	1.441475E-15	1.029032E-16
5.220000E+03	1.445566E-15	1.038920E-16
5.230000E+03	1.449548E-15	1.048354E-16
5.240000E+03	1.453445E-15	1.057359E-16
5.250000E+03	1.457249E-15	1.065939E-16
5.260000E+03	1.460955E-15	1.074101E-16
5.270000E+03	1.464598E-15	1.081885E-16
5.280000E+03	1.468158E-15	1.089288E-16
5.290000E+03	1.471656E-15	1.096343E-16
5.300000E+03	1.475088E-15	1.103061E-16
5.310000E+03	1.478474E-15	1.109478E-16
5.320000E+03	1.481794E-15	1.115596E-16
5.330000E+03	1.485085E-15	1.121464E-16
5.340000E+03	1.488342E-15	1.127097E-16
5.350000E+03	1.491558E-15	1.132512E-16
5.360000E+03	1.494756E-15	1.137750E-16
5.370000E+03	1.497931E-15	1.142829E-16
5.380000E+03	1.501092E-15	1.147780E-16
5.390000E+03	1.504234E-15	1.152621E-16
5.400000E+03	1.507382E-15	1.157396E-16
5.410000E+03	1.510530E-15	1.162125E-16
5.420000E+03	1.513689E-15	1.166838E-16
5.430000E+03	1.516854E-15	1.171556E-16
5.440000E+03	1.520053E-15	1.176323E-16
5.450000E+03	1.523251E-15	1.181132E-16
5.460000E+03	1.526490E-15	1.186039E-16
5.470000E+03	1.529752E-15	1.191050E-16
5.480000E+03	1.533050E-15	1.196193E-16
5.490000E+03	1.536397E-15	1.201496E-16
5.500000E+03	1.539776E-15	1.206958E-16
5.510000E+03	1.543216E-15	1.212597E-16
5.520000E+03	1.546701E-15	1.218394E-16
5.530000E+03	1.550232E-15	1.224338E-16
5.540000E+03	1.553824E-15	1.230430E-16
5.550000E+03	1.557477E-15	1.236659E-16
5.560000E+03	1.561176E-15	1.242999E-16
5.570000E+03	1.564955E-15	1.249462E-16
5.580000E+03	1.568784E-15	1.256008E-16
5.590000E+03	1.572665E-15	1.262622E-16
5.600000E+03	1.576632E-15	1.269315E-16
5.610000E+03	1.580640E-15	1.276033E-16
5.620000E+03	1.584725E-15	1.282786E-16
5.630000E+03	1.588875E-15	1.289546E-16
5.640000E+03	1.593077E-15	1.296284E-16
5.650000E+03	1.597337E-15	1.302985E-16
5.660000E+03	1.601658E-15	1.309634E-16
5.670000E+03	1.606045E-15	1.316216E-16
5.680000E+03	1.610472E-15	1.322692E-16
5.690000E+03	1.614977E-15	1.329072E-16
5.700000E+03	1.619516E-15	1.335305E-16
5.710000E+03	1.624112E-15	1.341392E-16
5.720000E+03	1.628755E-15	1.347308E-16
5.730000E+03	1.633450E-15	1.353041E-16
5.740000E+03	1.638188E-15	1.358569E-16
5.750000E+03	1.642974E-15	1.363881E-16
5.760000E+03	1.647784E-15	1.368944E-16
5.770000E+03	1.652640E-15	1.373762E-16
5.780000E+03	1.657514E-15	1.378302E-16
5.790000E+03	1.662415E-15	1.382559E-16
5.800000E+03	1.667347E-15	1.386528E-16
5.810000E+03	1.672285E-15	1.390179E-16
5.820000E+03	1.677250E-15	1.393523E-16
5.830000E+03	1.682216E-15	1.396532E-16
5.840000E+03	1.687173E-15	1.399194E-16
5.850000E+03	1.692141E-15	1.401521E-16
5.860000E+03	1.697079E-15	1.403478E-16
5.870000E+03	1.702022E-15	1.405094E-16
5.880000E+03	1.706927E-15	1.406336E-16
5.890000E+03	1.711798E-15	1.407210E-16
5.900000E+03	1.716625E-15	1.407712E-16
5.910000E+03	1.721425E-15	1.407864E-16
5.920000E+03	1.726155E-15	1.407640E-16
5.930000E+03	1.730834E-15	1.407065E-16
5.940000E+03	1.735434E-15	1.406131E-16
5.950000E+03	1.739955E-15	1.404852E-16
5.960000E+03	1.744402E-15	1.403250E-16
5.970000E+03	1.748744E-15	1.401319E-16
5.980000E+03	1.752982E-15	1.399084E-16
5.990000E+03	1.757103E-15	1.396556E-16
6.000000E+03	1.761107E-15	1.393764E-16
6.010000E+03	1.764995E-15	1.390738E-16
6.020000E+03	1.768736E-15	1.387485E-16
6.030000E+03	1.772331E-15	1.384038E-16
6.040000E+03	1.775779E-15	1.380436E-16
6.050000E+03	1.779065E-15	1.376703E-16
6.060000E+03	1.782187E-15	1.372881E-16
6.070000E+03	1.785147E-15	1.369012E-16
6.080000E+03	1.787909E-15	1.365117E-16
6.090000E+03	1.790506E-15	1.361265E-16
6.100000E+03	1.792904E-15	1.357480E-16
6.110000E+03	1.795118E-15	1.353822E-16
6.120000E+03	1.797146E-15	1.350340E-16
6.130000E+03	1.798970E-15	1.347073E-16
6.140000E+03	1.800604E-15	1.344081E-16
6.150000E+03	1.802028E-15	1.341403E-16
6.160000E+03	1.803274E-15	1.339111E-16
6.170000E+03	1.804338E-15	1.337253E-16
6.180000E+03	1.805218E-15	1.335875E-16
6.190000E+03	1.805910E-15	1.335020E-16
6.200000E+03	1.806459E-15	1.334766E-16
6.210000E+03	1.806846E-15	1.335138E-16
6.220000E+03	1.807101E-15	1.336195E-16
6.230000E+03	1.807251E-15	1.337992E-16
6.240000E+03	1.807277E-15	1.340543E-16
6.250000E+03	1.807225E-15	1.343893E-16
6.260000E+03	1.807091E-15	1.348027E-16
6.270000E+03	1.806858E-15	1.352912E-16
6.280000E+03	1.806522E-15	1.358521E-16
6.290000E+03	1.806079E-15	1.364824E-16
6.300000E+03	1.805526E-15	1.371786E-16
6.310000E+03	1.804840E-15	1.379359E-16
6.320000E+03	1.804052E-15	1.387526E-16
6.330000E+03	1.803139E-15	1.396233E-16
6.340000E+03	1.802112E-15	1.405446E-16
6.350000E+03	1.800965E-15	1.415121E-16
6.360000E+03	1.799692E-15	1.425207E-16
6.370000E+03	1.798302E-15	1.435670E-16
6.380000E+03	1.796805E-15	1.446474E-16
6.390000E+03	1.795176E-15	1.457554E-16
6.400000E+03	1.793424E-15	1.468874E-16
6.410000E+03	1.791558E-15	1.480398E-16
6.420000E+03	1.789568E-15	1.492077E-16
6.430000E+03	1.787446E-15	1.503860E-16
6.440000E+03	1.785199E-15	1.515715E-16
6.450000E+03	1.782817E-15	1.527592E-16
6.460000E+03	1.780291E-15	1.539446E-16
6.470000E+03	1.777627E-15	1.551245E-16
6.480000E+03	1.774816E-15	1.562944E-16
6.490000E+03	1.771846E-15	1.574501E-16
6.500000E+03	1.768708E-15	1.585873E-16
6.510000E+03	1.765408E-15	1.597034E-16
6.520000E+03	1.761955E-15	1.607961E-16
6.530000E+03	1.758321E-15	1.618600E-16
6.540000E+03	1.754531E-15	1.628947E-16
6.550000E+03	1.750558E-15	1.638951E-16
6.560000E+03	1.746429E-15	1.648613E-16
6.570000E+03	1.742135E-15	1.657901E-16
6.580000E+03	1.737687E-15	1.666803E-16
6.590000E+03	1.733058E-15	1.675275E-16
6.600000E+03	1.728277E-15	1.683324E-16
6.610000E+03	1.723321E-15	1.690910E-16
6.620000E+03	1.718220E-15	1.698046E-16
6.630000E+03	1.712949E-15	1.704694E-16
6.640000E+03	1.707524E-15	1.710852E-16
6.650000E+03	1.701922E-15	1.716486E-16
6.660000E+03	1.696177E-15	1.721618E-16
6.670000E+03	1.690286E-15	1.726234E-16
6.680000E+03	1.684212E-15	1.730286E-16
6.690000E+03	1.678010E-15	1.733820E-16
6.700000E+03	1.671642E-15	1.736791E-16
6.710000E+03	1.665146E-15	1.739230E-16
6.720000E+03	1.658487E-15	1.741095E-16
6.730000E+03	1.651687E-15	1.742401E-16
6.740000E+03	1.644748E-15	1.743148E-16
6.750000E+03	1.637675E-15	1.743336E-16
6.760000E+03	1.630490E-15	1.742985E-16
6.770000E+03	1.623162E-15	1.742060E-16
6.780000E+03	1.615715E-15	1.740585E-16
6.790000E+03	1.608174E-15	1.738585E-16
6.800000E+03	1.600510E-15	1.736028E-16
6.810000E+03	1.592747E-15	1.732942E-16
6.820000E+03	1.584895E-15	1.729337E-16
6.830000E+03	1.576961E-15	1.725222E-16
6.840000E+03	1.568936E-15	1.720589E-16
6.850000E+03	1.560847E-15	1.715470E-16
6.860000E+03	1.552685E-15	1.709858E-16
6.870000E+03	1.544478E-15	1.703786E-16
6.880000E+03	1.536217E-15	1.697249E-16
6.890000E+03	1.527929E-15	1.690281E-16
6.900000E+03	1.519589E-15	1.682858E-16
6.910000E+03	1.511242E-15	1.675034E-16
6.920000E+03	1.502862E-15	1.666786E-16
6.930000E+03	1.494476E-15	1.658149E-16
6.940000E+03	1.486095E-15	1.649140E-16
6.950000E+03	1.477709E-15	1.639756E-16
6.960000E+03	1.469346E-15	1.630031E-16
6.970000E+03	1.460996E-15	1.619963E-16
6.980000E+03	1.452669E-15	1.609568E-16
6.990000E+03	1.444373E-15	1.598861E-16
7.000000E+03	1.436117E-15	1.587860E-16
7.010000E+03	1.427908E-15	1.576578E-16
7.020000E+03	1.419736E-15	1.565013E-16
7.030000E+03	1.411643E-15	1.553218E-16
7.040000E+03	1.403585E-15	1.541151E-16
7.050000E+03	1.395603E-15	1.528864E-16
7.060000E+03	1.387684E-15	1.516353E-16
7.070000E+03	1.379836E-15	1.503631E-16
7.080000E+03	1.372081E-15	1.490731E-16
7.090000E+03	1.364389E-15	1.477630E-16
7.100000E+03	1.356766E-15	1.464340E-16
7.110000E+03	1.349250E-15	1.450911E-16
7.120000E+03	1.341810E-15	1.437320E-16
7.130000E+03	1.334451E-15	1.423578E-16
7.140000E+03	1.327192E-15	1.409716E-16
7.150000E+03	1.320004E-15	1.395710E-16
7.160000E+03	1.312921E-15	1.381607E-16
7.170000E+03	1.305930E-15	1.367403E-16
7.180000E+03	1.299017E-15	1.353090E-16
7.190000E+03	1.292215E-15	1.338715E-16
7.200000E+03	1.285494E-15	1.324256E-16
7.210000E+03	1.278854E-15	1.309725E-16
7.220000E+03	1.272314E-15	1.295150E-16
7.230000E+03	1.265856E-15	1.280526E-16
7.240000E+03	1.259499E-15	1.265883E-16
7.250000E+03	1.253226E-15	1.251216E-16
7.260000E+03	1.247021E-15	1.236522E-16
7.270000E+03	1.240916E-15	1.221847E-16
7.280000E+03	1.234895E-15	1.207188E-16
7.290000E+03	1.228941E-15	1.192544E-16
7.300000E+03	1.223071E-15	1.177944E-16
7.310000E+03	1.217283E-15	1.163405E-16
7.320000E+03	1.211560E-15	1.148927E-16
7.330000E+03	1.205919E-15	1.134541E-16
7.340000E+03	1.200359E-15	1.120264E-16
7.350000E+03	1.194861E-15	1.106100E-16
7.360000E+03	1.189442E-15	1.092082E-16
7.370000E+03	1.184085E-15	1.078215E-16
7.380000E+03	1.178788E-15	1.064520E-16
7.390000E+03	1.173567E-15	1.051031E-16
7.400000E+03	1.168420E-15	1.037770E-16
7.410000E+03	1.163332E-15	1.024747E-16
7.420000E+03	1.158331E-15	1.012012E-16
7.430000E+03	1.153387E-15	9.995619E-17
7.440000E+03	1.148529E-15	9.874484E-17
7.450000E+03	1.143741E-15	9.756833E-17
7.460000E+03	1.139038E-15	9.643056E-17
7.470000E+03	1.134434E-15	9.533547E-17
7.480000E+03	1.129914E-15	9.428434E-17
7.490000E+03	1.125476E-15	9.327983E-17
7.500000E+03	1.121120E-15	9.232461E-17
7.510000E+03	1.116845E-15	9.142132E-17
7.520000E+03	1.112651E-15	9.057257E-17
7.530000E+03	1.108538E-15	8.978092E-17
7.540000E+03	1.104488E-15	8.904757E-17
7.550000E+03	1.100519E-15	8.837616E-17
7.560000E+03	1.096613E-15	8.776767E-17
7.570000E+03	1.092771E-15	8.722419E-17
7.580000E+03	1.089024E-15	8.675006E-17
7.590000E+03	1.085340E-15	8.634449E-17
7.600000E+03	1.081718E-15	8.600893E-17
7.610000E+03	1.078191E-15	8.574702E-17
7.620000E+03	1.074742E-15	8.555816E-17
7.630000E+03	1.071355E-15	8.544020E-17
7.640000E+03	1.068061E-15	8.539399E-17
7.650000E+03	1.064844E-15	8.541651E-17
7.660000E+03	1.061717E-15	8.550700E-17
7.670000E+03	1.058666E-15	8.566204E-17
7.680000E+03	1.055705E-15	8.588055E-17
7.690000E+03	1.052834E-15	8.616008E-17
7.700000E+03	1.050036E-15	8.649683E-17
7.710000E+03	1.047342E-15	8.689072E-17
7.720000E+03	1.044736E-15	8.733783E-17
7.730000E+03	1.042217E-15	8.783547E-17
7.740000E+03	1.039784E-15	8.838097E-17
7.750000E+03	1.037453E-15	8.897298E-17
7.760000E+03	1.035222E-15	8.960889E-17
