#wls	flux	fluxerr
1.600000E+03	2.570062E-17	1.301921E-17
1.640000E+03	2.590679E-17	1.297838E-17
1.680000E+03	2.612158E-17	1.293564E-17
1.720000E+03	2.636455E-17	1.290026E-17
1.760000E+03	2.661628E-17	1.286220E-17
1.800000E+03	2.687700E-17	1.282124E-17
1.840000E+03	2.716611E-17	1.278619E-17
1.880000E+03	2.746457E-17	1.274748E-17
1.920000E+03	2.778222E-17	1.270926E-17
1.960000E+03	2.811931E-17	1.267107E-17
2.000000E+03	2.847615E-17	1.263247E-17
2.040000E+03	2.885312E-17	1.259301E-17
2.080000E+03	2.925066E-17	1.255225E-17
2.120000E+03	2.966926E-17	1.250977E-17
2.160000E+03	3.010951E-17	1.246512E-17
2.200000E+03	3.057206E-17	1.241789E-17
2.240000E+03	3.105766E-17	1.236766E-17
2.280000E+03	3.156715E-17	1.231401E-17
2.320000E+03	3.210146E-17	1.225655E-17
2.360000E+03	3.266162E-17	1.219488E-17
2.400000E+03	3.324881E-17	1.212861E-17
2.440000E+03	3.385515E-17	1.205411E-17
2.480000E+03	3.450033E-17	1.197762E-17
2.520000E+03	3.517674E-17	1.189544E-17
2.560000E+03	3.587696E-17	1.180424E-17
2.600000E+03	3.662106E-17	1.170979E-17
2.640000E+03	3.739281E-17	1.160590E-17
2.680000E+03	3.820349E-17	1.149530E-17
2.720000E+03	3.905547E-17	1.137779E-17
2.760000E+03	3.996049E-17	1.125578E-17
2.800000E+03	4.091216E-17	1.112641E-17
2.840000E+03	4.191350E-17	1.098968E-17
2.880000E+03	4.298627E-17	1.085033E-17
2.920000E+03	4.412489E-17	1.070584E-17
2.960000E+03	4.534263E-17	1.055852E-17
3.000000E+03	4.665331E-17	1.041057E-17
3.010000E+03	4.699814E-17	1.037395E-17
3.020000E+03	4.735569E-17	1.033871E-17
3.030000E+03	4.770708E-17	1.030073E-17
3.040000E+03	4.808088E-17	1.026618E-17
3.050000E+03	4.844866E-17	1.022893E-17
3.060000E+03	4.883909E-17	1.019506E-17
3.070000E+03	4.922365E-17	1.015855E-17
3.080000E+03	4.962152E-17	1.012340E-17
3.090000E+03	5.003286E-17	1.008960E-17
3.100000E+03	5.045778E-17	1.005712E-17
3.110000E+03	5.087714E-17	1.002214E-17
3.120000E+03	5.131997E-17	9.990409E-18
3.130000E+03	5.176708E-17	9.958129E-18
3.140000E+03	5.222829E-17	9.927189E-18
3.150000E+03	5.270374E-17	9.897583E-18
3.160000E+03	5.318382E-17	9.867495E-18
3.170000E+03	5.368821E-17	9.840565E-18
3.180000E+03	5.419752E-17	9.813191E-18
3.190000E+03	5.472167E-17	9.787189E-18
3.200000E+03	5.525097E-17	9.760826E-18
3.210000E+03	5.580531E-17	9.737618E-18
3.220000E+03	5.637502E-17	9.715822E-18
3.230000E+03	5.695035E-17	9.693766E-18
3.240000E+03	5.755133E-17	9.674878E-18
3.250000E+03	5.816826E-17	9.657479E-18
3.260000E+03	5.880131E-17	9.641602E-18
3.270000E+03	5.945070E-17	9.627286E-18
3.280000E+03	6.012672E-17	9.616190E-18
3.290000E+03	6.080942E-17	9.605118E-18
3.300000E+03	6.151923E-17	9.597337E-18
3.310000E+03	6.225646E-17	9.592862E-18
3.320000E+03	6.300100E-17	9.588602E-18
3.330000E+03	6.378373E-17	9.589296E-18
3.340000E+03	6.457421E-17	9.590349E-18
3.350000E+03	6.540355E-17	9.596428E-18
3.360000E+03	6.625148E-17	9.604536E-18
3.370000E+03	6.711825E-17	9.614763E-18
3.380000E+03	6.802496E-17	9.630161E-18
3.390000E+03	6.895115E-17	9.647826E-18
3.400000E+03	6.990759E-17	9.669321E-18
3.410000E+03	7.089464E-17	9.694721E-18
3.420000E+03	7.192329E-17	9.725541E-18
3.430000E+03	7.297277E-17	9.758994E-18
3.440000E+03	7.405403E-17	9.796616E-18
3.450000E+03	7.517817E-17	9.839905E-18
3.460000E+03	7.633497E-17	9.887539E-18
3.470000E+03	7.752484E-17	9.939623E-18
3.480000E+03	7.875903E-17	9.997636E-18
3.490000E+03	8.002720E-17	1.006029E-17
3.500000E+03	8.134069E-17	1.012905E-17
3.510000E+03	8.268907E-17	1.020264E-17
3.520000E+03	8.408380E-17	1.028251E-17
3.530000E+03	8.553649E-17	1.037006E-17
3.540000E+03	8.702561E-17	1.046267E-17
3.550000E+03	8.856274E-17	1.056174E-17
3.560000E+03	9.014842E-17	1.066731E-17
3.570000E+03	9.178321E-17	1.077939E-17
3.580000E+03	9.347895E-17	1.089933E-17
3.590000E+03	9.522498E-17	1.102577E-17
3.600000E+03	9.703324E-17	1.116002E-17
3.610000E+03	9.889293E-17	1.130071E-17
3.620000E+03	1.008161E-16	1.144909E-17
3.630000E+03	1.027918E-16	1.160376E-17
3.640000E+03	1.048438E-16	1.176726E-17
3.650000E+03	1.069496E-16	1.193685E-17
3.660000E+03	1.091214E-16	1.211371E-17
3.670000E+03	1.113715E-16	1.229900E-17
3.680000E+03	1.136890E-16	1.249124E-17
3.690000E+03	1.160743E-16	1.269027E-17
3.700000E+03	1.185401E-16	1.289719E-17
3.710000E+03	1.210751E-16	1.311049E-17
3.720000E+03	1.236919E-16	1.333123E-17
3.730000E+03	1.263912E-16	1.355917E-17
3.740000E+03	1.291736E-16	1.379405E-17
3.750000E+03	1.320399E-16	1.403558E-17
3.760000E+03	1.349783E-16	1.428217E-17
3.770000E+03	1.380263E-16	1.453740E-17
3.780000E+03	1.411477E-16	1.479704E-17
3.790000E+03	1.443802E-16	1.506462E-17
3.800000E+03	1.476871E-16	1.533588E-17
3.810000E+03	1.511064E-16	1.561432E-17
3.820000E+03	1.546262E-16	1.589823E-17
3.830000E+03	1.582344E-16	1.618589E-17
3.840000E+03	1.619570E-16	1.647944E-17
3.850000E+03	1.657816E-16	1.677710E-17
3.860000E+03	1.697216E-16	1.707970E-17
3.870000E+03	1.737646E-16	1.738542E-17
3.880000E+03	1.779108E-16	1.769374E-17
3.890000E+03	1.821867E-16	1.800669E-17
3.900000E+03	1.865796E-16	1.832241E-17
3.910000E+03	1.910767E-16	1.863904E-17
3.920000E+03	1.957044E-16	1.895855E-17
3.930000E+03	2.004629E-16	1.928030E-17
3.940000E+03	2.053393E-16	1.960239E-17
3.950000E+03	2.103335E-16	1.992418E-17
3.960000E+03	2.154721E-16	2.024752E-17
3.970000E+03	2.207284E-16	2.056922E-17
3.980000E+03	2.261155E-16	2.088987E-17
3.990000E+03	2.316468E-16	2.120999E-17
4.000000E+03	2.373085E-16	2.152766E-17
4.010000E+03	2.431137E-16	2.184339E-17
4.020000E+03	2.490483E-16	2.215526E-17
4.030000E+03	2.551253E-16	2.246377E-17
4.040000E+03	2.613442E-16	2.276824E-17
4.050000E+03	2.677039E-16	2.306796E-17
4.060000E+03	2.742176E-16	2.336344E-17
4.070000E+03	2.808564E-16	2.365165E-17
4.080000E+03	2.876468E-16	2.393431E-17
4.090000E+03	2.945877E-16	2.421080E-17
4.100000E+03	3.016776E-16	2.448050E-17
4.110000E+03	3.089009E-16	2.474175E-17
4.120000E+03	3.162699E-16	2.499517E-17
4.130000E+03	3.237827E-16	2.524032E-17
4.140000E+03	3.314515E-16	2.547790E-17
4.150000E+03	3.392457E-16	2.570536E-17
4.160000E+03	3.472055E-16	2.592571E-17
4.170000E+03	3.552859E-16	2.613553E-17
4.180000E+03	3.635268E-16	2.633788E-17
4.190000E+03	3.718825E-16	2.652963E-17
4.200000E+03	3.803930E-16	2.671396E-17
4.210000E+03	3.890408E-16	2.689001E-17
4.220000E+03	3.978225E-16	2.705807E-17
4.230000E+03	4.067202E-16	2.721758E-17
4.240000E+03	4.157591E-16	2.737101E-17
4.250000E+03	4.249208E-16	2.751805E-17
4.260000E+03	4.342014E-16	2.765946E-17
4.270000E+03	4.436112E-16	2.779704E-17
4.280000E+03	4.531314E-16	2.793088E-17
4.290000E+03	4.627723E-16	2.806296E-17
4.300000E+03	4.725147E-16	2.819358E-17
4.310000E+03	4.823542E-16	2.832403E-17
4.320000E+03	4.923152E-16	2.845729E-17
4.330000E+03	5.023640E-16	2.859300E-17
4.340000E+03	5.124960E-16	2.873247E-17
4.350000E+03	5.227359E-16	2.887857E-17
4.360000E+03	5.330646E-16	2.903156E-17
4.370000E+03	5.434636E-16	2.919160E-17
4.380000E+03	5.539580E-16	2.936094E-17
4.390000E+03	5.645296E-16	2.953920E-17
4.400000E+03	5.751754E-16	2.972643E-17
4.410000E+03	5.858925E-16	2.992235E-17
4.420000E+03	5.966932E-16	3.012705E-17
4.430000E+03	6.075755E-16	3.033948E-17
4.440000E+03	6.185093E-16	3.055689E-17
4.450000E+03	6.295367E-16	3.077981E-17
4.460000E+03	6.406428E-16	3.100568E-17
4.470000E+03	6.518131E-16	3.123178E-17
4.480000E+03	6.630622E-16	3.145663E-17
4.490000E+03	6.744048E-16	3.167866E-17
4.500000E+03	6.858136E-16	3.189424E-17
4.510000E+03	6.973040E-16	3.210180E-17
4.520000E+03	7.088636E-16	3.229851E-17
4.530000E+03	7.205088E-16	3.248297E-17
4.540000E+03	7.322277E-16	3.265266E-17
4.550000E+03	7.440233E-16	3.280597E-17
4.560000E+03	7.558847E-16	3.294093E-17
4.570000E+03	7.678434E-16	3.305778E-17
4.580000E+03	7.798752E-16	3.315470E-17
4.590000E+03	7.919982E-16	3.323218E-17
4.600000E+03	8.041892E-16	3.328946E-17
4.610000E+03	8.164531E-16	3.332759E-17
4.620000E+03	8.287949E-16	3.334829E-17
4.630000E+03	8.411927E-16	3.335295E-17
4.640000E+03	8.536385E-16	3.334438E-17
4.650000E+03	8.661387E-16	3.332685E-17
4.660000E+03	8.786722E-16	3.330456E-17
4.670000E+03	8.912324E-16	3.328332E-17
4.680000E+03	9.038127E-16	3.327000E-17
4.690000E+03	9.163932E-16	3.327207E-17
4.700000E+03	9.289545E-16	3.329806E-17
4.710000E+03	9.415044E-16	3.335842E-17
4.720000E+03	9.540237E-16	3.346339E-17
4.730000E+03	9.665071E-16	3.362423E-17
4.740000E+03	9.789223E-16	3.385142E-17
4.750000E+03	9.912774E-16	3.415664E-17
4.760000E+03	1.003554E-15	3.454990E-17
4.770000E+03	1.015746E-15	3.504045E-17
4.780000E+03	1.027821E-15	3.563493E-17
4.790000E+03	1.039801E-15	3.633979E-17
4.800000E+03	1.051666E-15	3.715776E-17
4.810000E+03	1.063410E-15	3.808975E-17
4.820000E+03	1.075025E-15	3.913439E-17
4.830000E+03	1.086506E-15	4.028837E-17
4.840000E+03	1.097844E-15	4.154671E-17
4.850000E+03	1.109031E-15	4.290309E-17
4.860000E+03	1.120061E-15	4.435026E-17
4.870000E+03	1.130910E-15	4.587973E-17
4.880000E+03	1.141570E-15	4.748314E-17
4.890000E+03	1.152046E-15	4.915247E-17
4.900000E+03	1.162300E-15	5.087800E-17
4.910000E+03	1.172336E-15	5.265176E-17
4.920000E+03	1.182143E-15	5.446542E-17
4.930000E+03	1.191724E-15	5.631147E-17
4.940000E+03	1.201066E-15	5.818213E-17
4.950000E+03	1.210159E-15	6.006988E-17
4.960000E+03	1.219015E-15	6.196884E-17
4.970000E+03	1.227636E-15	6.387289E-17
4.980000E+03	1.235994E-15	6.577481E-17
4.990000E+03	1.244116E-15	6.767049E-17
5.000000E+03	1.251987E-15	6.955407E-17
5.010000E+03	1.259620E-15	7.142144E-17
5.020000E+03	1.266999E-15	7.326730E-17
5.030000E+03	1.274163E-15	7.508972E-17
5.040000E+03	1.281068E-15	7.688243E-17
5.050000E+03	1.287753E-15	7.864409E-17
5.060000E+03	1.294213E-15	8.037134E-17
5.070000E+03	1.300460E-15	8.206187E-17
5.080000E+03	1.306475E-15	8.371194E-17
5.090000E+03	1.312296E-15	8.532144E-17
5.100000E+03	1.317904E-15	8.688711E-17
5.110000E+03	1.323309E-15	8.840763E-17
5.120000E+03	1.328533E-15	8.988283E-17
5.130000E+03	1.333571E-15	9.131095E-17
5.140000E+03	1.338432E-15	9.269140E-17
5.150000E+03	1.343124E-15	9.402376E-17
5.160000E+03	1.347655E-15	9.530785E-17
5.170000E+03	1.352034E-15	9.654370E-17
5.180000E+03	1.356256E-15	9.773055E-17
5.190000E+03	1.360341E-15	9.886979E-17
5.200000E+03	1.364299E-15	9.996204E-17
5.210000E+03	1.368136E-15	1.010081E-16
5.220000E+03	1.371862E-15	1.020090E-16
5.230000E+03	1.375470E-15	1.029648E-16
5.240000E+03	1.378983E-15	1.038779E-16
5.250000E+03	1.382394E-15	1.047487E-16
5.260000E+03	1.385740E-15	1.055811E-16
5.270000E+03	1.389001E-15	1.063747E-16
5.280000E+03	1.392185E-15	1.071315E-16
5.290000E+03	1.395315E-15	1.078546E-16
5.300000E+03	1.398400E-15	1.085465E-16
5.310000E+03	1.401434E-15	1.092082E-16
5.320000E+03	1.404426E-15	1.098425E-16
5.330000E+03	1.407399E-15	1.104529E-16
5.340000E+03	1.410349E-15	1.110412E-16
5.350000E+03	1.413284E-15	1.116101E-16
5.360000E+03	1.416201E-15	1.121615E-16
5.370000E+03	1.419123E-15	1.126994E-16
5.380000E+03	1.422061E-15	1.132269E-16
5.390000E+03	1.425009E-15	1.137459E-16
5.400000E+03	1.427966E-15	1.142584E-16
5.410000E+03	1.430955E-15	1.147686E-16
5.420000E+03	1.433989E-15	1.152796E-16
5.430000E+03	1.437049E-15	1.157922E-16
5.440000E+03	1.440161E-15	1.163103E-16
5.450000E+03	1.443323E-15	1.168357E-16
5.460000E+03	1.446548E-15	1.173710E-16
5.470000E+03	1.449833E-15	1.179176E-16
5.480000E+03	1.453192E-15	1.184777E-16
5.490000E+03	1.456622E-15	1.190522E-16
5.500000E+03	1.460153E-15	1.196438E-16
5.510000E+03	1.463782E-15	1.202530E-16
5.520000E+03	1.467511E-15	1.208795E-16
5.530000E+03	1.471325E-15	1.215219E-16
5.540000E+03	1.475252E-15	1.221820E-16
5.550000E+03	1.479264E-15	1.228565E-16
5.560000E+03	1.483362E-15	1.235444E-16
5.570000E+03	1.487561E-15	1.242457E-16
5.580000E+03	1.491847E-15	1.249579E-16
5.590000E+03	1.496223E-15	1.256797E-16
5.600000E+03	1.500690E-15	1.264094E-16
5.610000E+03	1.505235E-15	1.271444E-16
5.620000E+03	1.509874E-15	1.278843E-16
5.630000E+03	1.514596E-15	1.286261E-16
5.640000E+03	1.519403E-15	1.293683E-16
5.650000E+03	1.524283E-15	1.301080E-16
5.660000E+03	1.529238E-15	1.308436E-16
5.670000E+03	1.534272E-15	1.315734E-16
5.680000E+03	1.539374E-15	1.322947E-16
5.690000E+03	1.544530E-15	1.330045E-16
5.700000E+03	1.549760E-15	1.337028E-16
5.710000E+03	1.555038E-15	1.343855E-16
5.720000E+03	1.560367E-15	1.350513E-16
5.730000E+03	1.565750E-15	1.356988E-16
5.740000E+03	1.571178E-15	1.363256E-16
5.750000E+03	1.576638E-15	1.369293E-16
5.760000E+03	1.582119E-15	1.375075E-16
5.770000E+03	1.587641E-15	1.380605E-16
5.780000E+03	1.593176E-15	1.385849E-16
5.790000E+03	1.598715E-15	1.390786E-16
5.800000E+03	1.604276E-15	1.395424E-16
5.810000E+03	1.609832E-15	1.399731E-16
5.820000E+03	1.615373E-15	1.403689E-16
5.830000E+03	1.620901E-15	1.407297E-16
5.840000E+03	1.626391E-15	1.410526E-16
5.850000E+03	1.631860E-15	1.413389E-16
5.860000E+03	1.637298E-15	1.415877E-16
5.870000E+03	1.642676E-15	1.417964E-16
5.880000E+03	1.647999E-15	1.419656E-16
5.890000E+03	1.653269E-15	1.420960E-16
5.900000E+03	1.658458E-15	1.421857E-16
5.910000E+03	1.663553E-15	1.422345E-16
5.920000E+03	1.668573E-15	1.422448E-16
5.930000E+03	1.673474E-15	1.422142E-16
5.940000E+03	1.678273E-15	1.421455E-16
5.950000E+03	1.682972E-15	1.420405E-16
5.960000E+03	1.687527E-15	1.418974E-16
5.970000E+03	1.691954E-15	1.417198E-16
5.980000E+03	1.696223E-15	1.415074E-16
5.990000E+03	1.700352E-15	1.412644E-16
6.000000E+03	1.704325E-15	1.409923E-16
6.010000E+03	1.708128E-15	1.406930E-16
6.020000E+03	1.711760E-15	1.403700E-16
6.030000E+03	1.715206E-15	1.400255E-16
6.040000E+03	1.718467E-15	1.396635E-16
6.050000E+03	1.721541E-15	1.392880E-16
6.060000E+03	1.724413E-15	1.389020E-16
6.070000E+03	1.727096E-15	1.385112E-16
6.080000E+03	1.729575E-15	1.381189E-16
6.090000E+03	1.731848E-15	1.377301E-16
6.100000E+03	1.733913E-15	1.373494E-16
6.110000E+03	1.735785E-15	1.369833E-16
6.120000E+03	1.737445E-15	1.366355E-16
6.130000E+03	1.738907E-15	1.363123E-16
6.140000E+03	1.740168E-15	1.360187E-16
6.150000E+03	1.741243E-15	1.357610E-16
6.160000E+03	1.742127E-15	1.355439E-16
6.170000E+03	1.742850E-15	1.353746E-16
6.180000E+03	1.743393E-15	1.352561E-16
6.190000E+03	1.743769E-15	1.351939E-16
6.200000E+03	1.744006E-15	1.351938E-16
6.210000E+03	1.744101E-15	1.352590E-16
6.220000E+03	1.744083E-15	1.353946E-16
6.230000E+03	1.743932E-15	1.356011E-16
6.240000E+03	1.743693E-15	1.358835E-16
6.250000E+03	1.743347E-15	1.362410E-16
6.260000E+03	1.742891E-15	1.366732E-16
6.270000E+03	1.742353E-15	1.371816E-16
6.280000E+03	1.741699E-15	1.377619E-16
6.290000E+03	1.740956E-15	1.384142E-16
6.300000E+03	1.740090E-15	1.391330E-16
6.310000E+03	1.739129E-15	1.399175E-16
6.320000E+03	1.738052E-15	1.407625E-16
6.330000E+03	1.736856E-15	1.416639E-16
6.340000E+03	1.735535E-15	1.426171E-16
6.350000E+03	1.734086E-15	1.436175E-16
6.360000E+03	1.732504E-15	1.446602E-16
6.370000E+03	1.730799E-15	1.457416E-16
6.380000E+03	1.728950E-15	1.468552E-16
6.390000E+03	1.726969E-15	1.479973E-16
6.400000E+03	1.724831E-15	1.491614E-16
6.410000E+03	1.722549E-15	1.503438E-16
6.420000E+03	1.720099E-15	1.515380E-16
6.430000E+03	1.717492E-15	1.527404E-16
6.440000E+03	1.714720E-15	1.539461E-16
6.450000E+03	1.711762E-15	1.551486E-16
6.460000E+03	1.708610E-15	1.563433E-16
6.470000E+03	1.705274E-15	1.575270E-16
6.480000E+03	1.701731E-15	1.586935E-16
6.490000E+03	1.697973E-15	1.598386E-16
6.500000E+03	1.694012E-15	1.609594E-16
6.510000E+03	1.689857E-15	1.620536E-16
6.520000E+03	1.685485E-15	1.631155E-16
6.530000E+03	1.680924E-15	1.641447E-16
6.540000E+03	1.676202E-15	1.651410E-16
6.550000E+03	1.671279E-15	1.660978E-16
6.560000E+03	1.666218E-15	1.670187E-16
6.570000E+03	1.660997E-15	1.678990E-16
6.580000E+03	1.655629E-15	1.687377E-16
6.590000E+03	1.650144E-15	1.695360E-16
6.600000E+03	1.644503E-15	1.702878E-16
6.610000E+03	1.638754E-15	1.709964E-16
6.620000E+03	1.632895E-15	1.716598E-16
6.630000E+03	1.626923E-15	1.722762E-16
6.640000E+03	1.620836E-15	1.728441E-16
6.650000E+03	1.614648E-15	1.733638E-16
6.660000E+03	1.608360E-15	1.738340E-16
6.670000E+03	1.601987E-15	1.742556E-16
6.680000E+03	1.595512E-15	1.746255E-16
6.690000E+03	1.588953E-15	1.749450E-16
6.700000E+03	1.582309E-15	1.752133E-16
6.710000E+03	1.575582E-15	1.754299E-16
6.720000E+03	1.568773E-15	1.755944E-16
6.730000E+03	1.561885E-15	1.757066E-16
6.740000E+03	1.554937E-15	1.757682E-16
6.750000E+03	1.547897E-15	1.757754E-16
6.760000E+03	1.540803E-15	1.757322E-16
6.770000E+03	1.533641E-15	1.756367E-16
6.780000E+03	1.526416E-15	1.754894E-16
6.790000E+03	1.519130E-15	1.752907E-16
6.800000E+03	1.511790E-15	1.750411E-16
6.810000E+03	1.504400E-15	1.747412E-16
6.820000E+03	1.496965E-15	1.743918E-16
6.830000E+03	1.489490E-15	1.739935E-16
6.840000E+03	1.481964E-15	1.735454E-16
6.850000E+03	1.474410E-15	1.730504E-16
6.860000E+03	1.466834E-15	1.725093E-16
6.870000E+03	1.459208E-15	1.719194E-16
6.880000E+03	1.451590E-15	1.712877E-16
6.890000E+03	1.443934E-15	1.706095E-16
6.900000E+03	1.436264E-15	1.698878E-16
6.910000E+03	1.428604E-15	1.691260E-16
6.920000E+03	1.420926E-15	1.683214E-16
6.930000E+03	1.413237E-15	1.674752E-16
6.940000E+03	1.405560E-15	1.665909E-16
6.950000E+03	1.397902E-15	1.656697E-16
6.960000E+03	1.390251E-15	1.647110E-16
6.970000E+03	1.382615E-15	1.637164E-16
6.980000E+03	1.374999E-15	1.626870E-16
6.990000E+03	1.367410E-15	1.616244E-16
7.000000E+03	1.359852E-15	1.605300E-16
7.010000E+03	1.352317E-15	1.594031E-16
7.020000E+03	1.344825E-15	1.582472E-16
7.030000E+03	1.337381E-15	1.570636E-16
7.040000E+03	1.329959E-15	1.558499E-16
7.050000E+03	1.322596E-15	1.546112E-16
7.060000E+03	1.315280E-15	1.533471E-16
7.070000E+03	1.308000E-15	1.520570E-16
7.080000E+03	1.300793E-15	1.507461E-16
7.090000E+03	1.293629E-15	1.494118E-16
7.100000E+03	1.286514E-15	1.480557E-16
7.110000E+03	1.279466E-15	1.466808E-16
7.120000E+03	1.272490E-15	1.452884E-16
7.130000E+03	1.265556E-15	1.438762E-16
7.140000E+03	1.258700E-15	1.424493E-16
7.150000E+03	1.251908E-15	1.410069E-16
7.160000E+03	1.245167E-15	1.395488E-16
7.170000E+03	1.238511E-15	1.380796E-16
7.180000E+03	1.231911E-15	1.365974E-16
7.190000E+03	1.225385E-15	1.351050E-16
7.200000E+03	1.218917E-15	1.336021E-16
7.210000E+03	1.212527E-15	1.320918E-16
7.220000E+03	1.206199E-15	1.305737E-16
7.230000E+03	1.199951E-15	1.290509E-16
7.240000E+03	1.193768E-15	1.275232E-16
7.250000E+03	1.187650E-15	1.259919E-16
7.260000E+03	1.181600E-15	1.244587E-16
7.270000E+03	1.175632E-15	1.229265E-16
7.280000E+03	1.169717E-15	1.213938E-16
7.290000E+03	1.163886E-15	1.198653E-16
7.300000E+03	1.158124E-15	1.183412E-16
7.310000E+03	1.152430E-15	1.168230E-16
7.320000E+03	1.146806E-15	1.153127E-16
7.330000E+03	1.141252E-15	1.138119E-16
7.340000E+03	1.135766E-15	1.123226E-16
7.350000E+03	1.130365E-15	1.108483E-16
7.360000E+03	1.125033E-15	1.093894E-16
7.370000E+03	1.119770E-15	1.079481E-16
7.380000E+03	1.114590E-15	1.065279E-16
7.390000E+03	1.109479E-15	1.051297E-16
7.400000E+03	1.104465E-15	1.037586E-16
7.410000E+03	1.099519E-15	1.024142E-16
7.420000E+03	1.094671E-15	1.011016E-16
7.430000E+03	1.089904E-15	9.982206E-17
7.440000E+03	1.085218E-15	9.857808E-17
7.450000E+03	1.080643E-15	9.737499E-17
7.460000E+03	1.076149E-15	9.621275E-17
7.470000E+03	1.071764E-15	9.509673E-17
7.480000E+03	1.067473E-15	9.402831E-17
7.490000E+03	1.063292E-15	9.301152E-17
7.500000E+03	1.059189E-15	9.204650E-17
7.510000E+03	1.055194E-15	9.113853E-17
7.520000E+03	1.051277E-15	9.028771E-17
7.530000E+03	1.047468E-15	8.949913E-17
7.540000E+03	1.043736E-15	8.877272E-17
7.550000E+03	1.040081E-15	8.811082E-17
7.560000E+03	1.036518E-15	8.751677E-17
7.570000E+03	1.033031E-15	8.699122E-17
7.580000E+03	1.029635E-15	8.653700E-17
7.590000E+03	1.026315E-15	8.615415E-17
7.600000E+03	1.023071E-15	8.584357E-17
7.610000E+03	1.019916E-15	8.560701E-17
7.620000E+03	1.016837E-15	8.544330E-17
7.630000E+03	1.013832E-15	8.535210E-17
7.640000E+03	1.010915E-15	8.533383E-17
7.650000E+03	1.008072E-15	8.538611E-17
7.660000E+03	1.005316E-15	8.550864E-17
7.670000E+03	1.002632E-15	8.569836E-17
7.680000E+03	1.000035E-15	8.595442E-17
7.690000E+03	9.975236E-16	8.627452E-17
7.700000E+03	9.950826E-16	8.665496E-17
7.710000E+03	9.927408E-16	8.709569E-17
7.720000E+03	9.904828E-16	8.759278E-17
7.730000E+03	9.882935E-16	8.814223E-17
7.740000E+03	9.862015E-16	8.874390E-17
7.750000E+03	9.842061E-16	8.939509E-17
7.760000E+03	9.822776E-16	9.009045E-17
