#wls	flux	fluxerr
1.570321E+03	2.130686E-17	6.644860E-20
1.609579E+03	2.217828E-17	6.916626E-20
1.648837E+03	2.303819E-17	7.184800E-20
1.688095E+03	2.388899E-17	7.450134E-20
1.727353E+03	2.471934E-17	7.709092E-20
1.766611E+03	2.551598E-17	7.957536E-20
1.805869E+03	2.624758E-17	8.185698E-20
1.845127E+03	2.688161E-17	8.383427E-20
1.884385E+03	2.736868E-17	8.535327E-20
1.923643E+03	2.768053E-17	8.632584E-20
1.962901E+03	2.781238E-17	8.673702E-20
2.002159E+03	2.783521E-17	8.680823E-20
2.041417E+03	2.793314E-17	8.711364E-20
2.080675E+03	2.839779E-17	8.856270E-20
2.119933E+03	2.957959E-17	9.224832E-20
2.159191E+03	3.174796E-17	9.901069E-20
2.198449E+03	3.502351E-17	1.092260E-19
2.237707E+03	3.939090E-17	1.228463E-19
2.276965E+03	4.474374E-17	1.395400E-19
2.316223E+03	5.098132E-17	1.589928E-19
2.355481E+03	5.803719E-17	1.809975E-19
2.394739E+03	6.591564E-17	2.055677E-19
2.433997E+03	7.467052E-17	2.328710E-19
2.473255E+03	8.438297E-17	2.631607E-19
2.512513E+03	9.517900E-17	2.968297E-19
2.551772E+03	1.072098E-16	3.343495E-19
2.591030E+03	1.206567E-16	3.762857E-19
2.630288E+03	1.356881E-16	4.231633E-19
2.669546E+03	1.525135E-16	4.756360E-19
2.708804E+03	1.713406E-16	5.343509E-19
2.748062E+03	1.923757E-16	5.999519E-19
2.787320E+03	2.157819E-16	6.729477E-19
2.826578E+03	2.416942E-16	7.537591E-19
2.865836E+03	2.702075E-16	8.426818E-19
2.905094E+03	3.013027E-16	9.396568E-19
2.944352E+03	3.348501E-16	1.044279E-18
2.954166E+03	3.435891E-16	1.071533E-18
2.963981E+03	3.524450E-16	1.099152E-18
2.973795E+03	3.614045E-16	1.127093E-18
2.983610E+03	3.704763E-16	1.155385E-18
2.993424E+03	3.796391E-16	1.183960E-18
3.003239E+03	3.889305E-16	1.212937E-18
3.013053E+03	3.982865E-16	1.242115E-18
3.022868E+03	4.077005E-16	1.271474E-18
3.032682E+03	4.171708E-16	1.301009E-18
3.042497E+03	4.266308E-16	1.330511E-18
3.052311E+03	4.360955E-16	1.360028E-18
3.062126E+03	4.455273E-16	1.389442E-18
3.071940E+03	4.548860E-16	1.418629E-18
3.081755E+03	4.641080E-16	1.447389E-18
3.091569E+03	4.732133E-16	1.475785E-18
3.101384E+03	4.821119E-16	1.503537E-18
3.111198E+03	4.907786E-16	1.530565E-18
3.121013E+03	4.991626E-16	1.556712E-18
3.130827E+03	5.072374E-16	1.581894E-18
3.140642E+03	5.149291E-16	1.605882E-18
3.150456E+03	5.222099E-16	1.628589E-18
3.160271E+03	5.290303E-16	1.649859E-18
3.170085E+03	5.353405E-16	1.669538E-18
3.179900E+03	5.411171E-16	1.687553E-18
3.189714E+03	5.463145E-16	1.703762E-18
3.199529E+03	5.509126E-16	1.718102E-18
3.209343E+03	5.548502E-16	1.730382E-18
3.219158E+03	5.581137E-16	1.740560E-18
3.228972E+03	5.606704E-16	1.748533E-18
3.238787E+03	5.625132E-16	1.754280E-18
3.248601E+03	5.635955E-16	1.757655E-18
3.258416E+03	5.639382E-16	1.758724E-18
3.268230E+03	5.635232E-16	1.757430E-18
3.278045E+03	5.623151E-16	1.753662E-18
3.287859E+03	5.603442E-16	1.747516E-18
3.297674E+03	5.575824E-16	1.738903E-18
3.307488E+03	5.540647E-16	1.727932E-18
3.317303E+03	5.497712E-16	1.714542E-18
3.327117E+03	5.447060E-16	1.698746E-18
3.336932E+03	5.389141E-16	1.680683E-18
3.346746E+03	5.323906E-16	1.660338E-18
3.356561E+03	5.251726E-16	1.637828E-18
3.366376E+03	5.172867E-16	1.613235E-18
3.376190E+03	5.087675E-16	1.586666E-18
3.386005E+03	4.996611E-16	1.558266E-18
3.395819E+03	4.900369E-16	1.528252E-18
3.405634E+03	4.799491E-16	1.496792E-18
3.415448E+03	4.694915E-16	1.464178E-18
3.425263E+03	4.587447E-16	1.430663E-18
3.435077E+03	4.478170E-16	1.396583E-18
3.444892E+03	4.368174E-16	1.362279E-18
3.454706E+03	4.258920E-16	1.328207E-18
3.464521E+03	4.151636E-16	1.294749E-18
3.474335E+03	4.047900E-16	1.262397E-18
3.484150E+03	3.949302E-16	1.231648E-18
3.493964E+03	3.857558E-16	1.203036E-18
3.503779E+03	3.774705E-16	1.177197E-18
3.513593E+03	3.702577E-16	1.154703E-18
3.523408E+03	3.643849E-16	1.136388E-18
3.533222E+03	3.599115E-16	1.122437E-18
3.543037E+03	3.564695E-16	1.111703E-18
3.552851E+03	3.537193E-16	1.103126E-18
3.562666E+03	3.513836E-16	1.095841E-18
3.572480E+03	3.492491E-16	1.089185E-18
3.582295E+03	3.471199E-16	1.082544E-18
3.592109E+03	3.448518E-16	1.075471E-18
3.601924E+03	3.423352E-16	1.067622E-18
3.611738E+03	3.394883E-16	1.058744E-18
3.621553E+03	3.362783E-16	1.048733E-18
3.631367E+03	3.326872E-16	1.037534E-18
3.641182E+03	3.287521E-16	1.025262E-18
3.650996E+03	3.245299E-16	1.012094E-18
3.660811E+03	3.201154E-16	9.983268E-19
3.670625E+03	3.156298E-16	9.843379E-19
3.680440E+03	3.112116E-16	9.705591E-19
3.690254E+03	3.070285E-16	9.575133E-19
3.700069E+03	3.032492E-16	9.457272E-19
3.709883E+03	3.000513E-16	9.357539E-19
3.719698E+03	2.976268E-16	9.281929E-19
3.729512E+03	2.110067E-16	6.580554E-19
3.731005E+03	2.101013E-16	6.552316E-19
3.732497E+03	2.096018E-16	6.536740E-19
3.733990E+03	2.093787E-16	6.529782E-19
3.735482E+03	2.090578E-16	6.519773E-19
3.736975E+03	2.086063E-16	6.505694E-19
3.738467E+03	2.074699E-16	6.470254E-19
3.739960E+03	2.058110E-16	6.418519E-19
3.741453E+03	2.038083E-16	6.356061E-19
3.742944E+03	2.015591E-16	6.285916E-19
3.744437E+03	1.998305E-16	6.232007E-19
3.745930E+03	1.984924E-16	6.190276E-19
3.747423E+03	1.970552E-16	6.145455E-19
3.748915E+03	1.955840E-16	6.099575E-19
3.750407E+03	1.937030E-16	6.040912E-19
3.751900E+03	1.915587E-16	5.974039E-19
3.753392E+03	1.905253E-16	5.941811E-19
3.754885E+03	1.903261E-16	5.935597E-19
3.756377E+03	1.900120E-16	5.925804E-19
3.757869E+03	1.895993E-16	5.912934E-19
3.759362E+03	1.890061E-16	5.894432E-19
3.760855E+03	1.882648E-16	5.871313E-19
3.762348E+03	1.875557E-16	5.849199E-19
3.763839E+03	1.868787E-16	5.828087E-19
3.765332E+03	1.861849E-16	5.806449E-19
3.766825E+03	1.854904E-16	5.784790E-19
3.768317E+03	1.849596E-16	5.768238E-19
3.769810E+03	1.845272E-16	5.754750E-19
3.771302E+03	1.841601E-16	5.743303E-19
3.772794E+03	1.838255E-16	5.732868E-19
3.774287E+03	1.834907E-16	5.722428E-19
3.775780E+03	1.831228E-16	5.710952E-19
3.777273E+03	1.821779E-16	5.681484E-19
3.778764E+03	1.808037E-16	5.638627E-19
3.780257E+03	1.796757E-16	5.603450E-19
3.781750E+03	1.788106E-16	5.576472E-19
3.783242E+03	1.781758E-16	5.556674E-19
3.784735E+03	1.777551E-16	5.543553E-19
3.786227E+03	1.776148E-16	5.539177E-19
3.787719E+03	1.776890E-16	5.541492E-19
3.789212E+03	1.777799E-16	5.544328E-19
3.790705E+03	1.778709E-16	5.547164E-19
3.792197E+03	1.773664E-16	5.531431E-19
3.793689E+03	1.764311E-16	5.502263E-19
3.795182E+03	1.760249E-16	5.489594E-19
3.796675E+03	1.760655E-16	5.490860E-19
3.798167E+03	1.763049E-16	5.498327E-19
3.799659E+03	1.767435E-16	5.512005E-19
3.801152E+03	1.778126E-16	5.545346E-19
3.802645E+03	1.793306E-16	5.592687E-19
3.804137E+03	1.811484E-16	5.649380E-19
3.805630E+03	1.836321E-16	5.726836E-19
3.807122E+03	1.858021E-16	5.794512E-19
3.808614E+03	1.866611E-16	5.821301E-19
3.810107E+03	1.869056E-16	5.828927E-19
3.811600E+03	1.879986E-16	5.863012E-19
3.813093E+03	1.895418E-16	5.911138E-19
3.814584E+03	1.907365E-16	5.948398E-19
3.816077E+03	1.917658E-16	5.980498E-19
3.817570E+03	1.926959E-16	6.009505E-19
3.819062E+03	1.945601E-16	6.067642E-19
3.820555E+03	1.984102E-16	6.187712E-19
3.822047E+03	2.035312E-16	6.347419E-19
3.823539E+03	2.081892E-16	6.492685E-19
3.825032E+03	2.127843E-16	6.635991E-19
3.826525E+03	2.167318E-16	6.759099E-19
3.828017E+03	2.194294E-16	6.843228E-19
3.829509E+03	2.223130E-16	6.933157E-19
3.831002E+03	2.256339E-16	7.036724E-19
3.832495E+03	2.291081E-16	7.145072E-19
3.833987E+03	2.319658E-16	7.234193E-19
3.835479E+03	2.340724E-16	7.299891E-19
3.836972E+03	2.356781E-16	7.349967E-19
3.838465E+03	2.368494E-16	7.386497E-19
3.839957E+03	2.376696E-16	7.412074E-19
3.841450E+03	2.390103E-16	7.453888E-19
3.842942E+03	2.418120E-16	7.541261E-19
3.844434E+03	2.450020E-16	7.640746E-19
3.845927E+03	2.477580E-16	7.726696E-19
3.847420E+03	2.507010E-16	7.818480E-19
3.848912E+03	2.542347E-16	7.928683E-19
3.850404E+03	2.585281E-16	8.062577E-19
3.851897E+03	2.633464E-16	8.212843E-19
3.853389E+03	2.679498E-16	8.356408E-19
3.854882E+03	2.713113E-16	8.461240E-19
3.856375E+03	2.744228E-16	8.558276E-19
3.857867E+03	2.789353E-16	8.699008E-19
3.859359E+03	2.847495E-16	8.880332E-19
3.860852E+03	2.924911E-16	9.121765E-19
3.862345E+03	3.011839E-16	9.392862E-19
3.863836E+03	3.101875E-16	9.673653E-19
3.865329E+03	3.198572E-16	9.975216E-19
3.866822E+03	3.283186E-16	1.023910E-18
3.868315E+03	3.362800E-16	1.048739E-18
3.869807E+03	3.452454E-16	1.076698E-18
3.871299E+03	3.544211E-16	1.105314E-18
3.872792E+03	3.639429E-16	1.135009E-18
3.874284E+03	3.742340E-16	1.167104E-18
3.875777E+03	3.853804E-16	1.201865E-18
3.877270E+03	3.972476E-16	1.238875E-18
3.878761E+03	4.088194E-16	1.274963E-18
3.880254E+03	4.196207E-16	1.308649E-18
3.881747E+03	4.304988E-16	1.342574E-18
3.883240E+03	4.416065E-16	1.377215E-18
3.884732E+03	4.528249E-16	1.412201E-18
3.886224E+03	4.647320E-16	1.449335E-18
3.887717E+03	4.761050E-16	1.484803E-18
3.889209E+03	4.872323E-16	1.519505E-18
3.890702E+03	5.003243E-16	1.560335E-18
3.892195E+03	5.142948E-16	1.603904E-18
3.893687E+03	5.269488E-16	1.643367E-18
3.895179E+03	5.390003E-16	1.680952E-18
3.896672E+03	5.512320E-16	1.719098E-18
3.898165E+03	5.642236E-16	1.759614E-18
3.899656E+03	5.785039E-16	1.804149E-18
3.901149E+03	5.925065E-16	1.847818E-18
3.902642E+03	6.065711E-16	1.891681E-18
3.904135E+03	6.212103E-16	1.937335E-18
3.905627E+03	6.347685E-16	1.979619E-18
3.907119E+03	6.475692E-16	2.019539E-18
3.908612E+03	6.609100E-16	2.061145E-18
3.910104E+03	6.744492E-16	2.103369E-18
3.911597E+03	6.884787E-16	2.147122E-18
3.913090E+03	7.027590E-16	2.191657E-18
3.914581E+03	7.153388E-16	2.230889E-18
3.916074E+03	7.263360E-16	2.265185E-18
3.917567E+03	7.365713E-16	2.297106E-18
3.919060E+03	7.460605E-16	2.326699E-18
3.920552E+03	7.555054E-16	2.356155E-18
3.922044E+03	7.646831E-16	2.384776E-18
3.923537E+03	7.727361E-16	2.409891E-18
3.925029E+03	7.804687E-16	2.434006E-18
3.926522E+03	7.886197E-16	2.459426E-18
3.928015E+03	7.965368E-16	2.484117E-18
3.929506E+03	8.040471E-16	2.507539E-18
3.930999E+03	8.110471E-16	2.529369E-18
3.932492E+03	8.172959E-16	2.548857E-18
3.933985E+03	8.226723E-16	2.565624E-18
3.935476E+03	8.272596E-16	2.579930E-18
3.936969E+03	8.311965E-16	2.592208E-18
3.938462E+03	8.348090E-16	2.603474E-18
3.939954E+03	8.388545E-16	2.616091E-18
3.941447E+03	8.426617E-16	2.627964E-18
3.942939E+03	8.455576E-16	2.636996E-18
3.944431E+03	8.490930E-16	2.648021E-18
3.945924E+03	8.532360E-16	2.660942E-18
3.947417E+03	8.567776E-16	2.671987E-18
3.948910E+03	8.591810E-16	2.679482E-18
3.950401E+03	8.603235E-16	2.683045E-18
3.951894E+03	8.601697E-16	2.682566E-18
3.953387E+03	8.583550E-16	2.676906E-18
3.954879E+03	8.562437E-16	2.670322E-18
3.956372E+03	8.552216E-16	2.667134E-18
3.957864E+03	8.543885E-16	2.664536E-18
3.959357E+03	8.538659E-16	2.662906E-18
3.960849E+03	8.541919E-16	2.663923E-18
3.962342E+03	8.541365E-16	2.663750E-18
3.963835E+03	8.539069E-16	2.663034E-18
3.965326E+03	8.542148E-16	2.663994E-18
3.966819E+03	8.539320E-16	2.663112E-18
3.968312E+03	8.531280E-16	2.660605E-18
3.969805E+03	8.526874E-16	2.659231E-18
3.971296E+03	8.519157E-16	2.656824E-18
3.972789E+03	8.503082E-16	2.651811E-18
3.974282E+03	8.493075E-16	2.648690E-18
3.975774E+03	8.487757E-16	2.647031E-18
3.977267E+03	8.479126E-16	2.644340E-18
3.978759E+03	8.463858E-16	2.639578E-18
3.980251E+03	8.428713E-16	2.628618E-18
3.981744E+03	8.385513E-16	2.615145E-18
3.983237E+03	8.352912E-16	2.604978E-18
3.984730E+03	8.328486E-16	2.597361E-18
3.986221E+03	8.300011E-16	2.588480E-18
3.987714E+03	8.269596E-16	2.578995E-18
3.989207E+03	8.242994E-16	2.570698E-18
3.990699E+03	8.211120E-16	2.560758E-18
3.992192E+03	8.177995E-16	2.550428E-18
3.993684E+03	8.148517E-16	2.541234E-18
3.995177E+03	8.115154E-16	2.530830E-18
3.996669E+03	8.074233E-16	2.518068E-18
3.998162E+03	8.029254E-16	2.504041E-18
3.999655E+03	7.983183E-16	2.489673E-18
4.001146E+03	7.929358E-16	2.472886E-18
4.002639E+03	7.882328E-16	2.458220E-18
4.004132E+03	7.857696E-16	2.450538E-18
4.005624E+03	7.840235E-16	2.445092E-18
4.007116E+03	7.823457E-16	2.439860E-18
4.008609E+03	7.797355E-16	2.431720E-18
4.010101E+03	7.755420E-16	2.418641E-18
4.011594E+03	7.698342E-16	2.400841E-18
4.013087E+03	7.619594E-16	2.376282E-18
4.014579E+03	7.542359E-16	2.352195E-18
4.016071E+03	7.482479E-16	2.333521E-18
4.017564E+03	7.427119E-16	2.316256E-18
4.019057E+03	7.369599E-16	2.298318E-18
4.020550E+03	7.307280E-16	2.278882E-18
4.022041E+03	7.238383E-16	2.257396E-18
4.023534E+03	7.161147E-16	2.233309E-18
4.025027E+03	7.085082E-16	2.209587E-18
4.026519E+03	7.019888E-16	2.189255E-18
4.028012E+03	6.954816E-16	2.168962E-18
4.029504E+03	6.881749E-16	2.146174E-18
4.030996E+03	6.796079E-16	2.119457E-18
4.032489E+03	6.698154E-16	2.088918E-18
4.033982E+03	6.600324E-16	2.058408E-18
4.035474E+03	6.516738E-16	2.032340E-18
4.036966E+03	6.448114E-16	2.010939E-18
4.038459E+03	6.371823E-16	1.987146E-18
4.039952E+03	6.281493E-16	1.958976E-18
4.041444E+03	6.197814E-16	1.932879E-18
4.042937E+03	6.118142E-16	1.908032E-18
4.044429E+03	6.039473E-16	1.883498E-18
4.045922E+03	5.971196E-16	1.862205E-18
4.047414E+03	5.909419E-16	1.842939E-18
4.048907E+03	5.849366E-16	1.824211E-18
4.050399E+03	5.782170E-16	1.803254E-18
4.051891E+03	5.702844E-16	1.778516E-18
4.053384E+03	5.629498E-16	1.755641E-18
4.054877E+03	5.569057E-16	1.736792E-18
4.056369E+03	5.508922E-16	1.718038E-18
4.057861E+03	5.446426E-16	1.698548E-18
4.059354E+03	5.374990E-16	1.676270E-18
4.060846E+03	5.293354E-16	1.650810E-18
4.062339E+03	5.221444E-16	1.628384E-18
4.063832E+03	5.157488E-16	1.608438E-18
4.065324E+03	5.096865E-16	1.589532E-18
4.066816E+03	5.047772E-16	1.574222E-18
4.068309E+03	5.000958E-16	1.559622E-18
4.069802E+03	4.956780E-16	1.545845E-18
4.071294E+03	4.922017E-16	1.535003E-18
4.072786E+03	4.887583E-16	1.524264E-18
4.074279E+03	4.849192E-16	1.512292E-18
4.075772E+03	4.814876E-16	1.501590E-18
4.077264E+03	4.784460E-16	1.492104E-18
4.078757E+03	4.752411E-16	1.482109E-18
4.080249E+03	4.721407E-16	1.472440E-18
4.081741E+03	4.689302E-16	1.462428E-18
4.083234E+03	4.656277E-16	1.452128E-18
4.084727E+03	4.633960E-16	1.445168E-18
4.086219E+03	4.616098E-16	1.439598E-18
4.087711E+03	4.591593E-16	1.431956E-18
4.089204E+03	4.571724E-16	1.425759E-18
4.090697E+03	4.559364E-16	1.421904E-18
4.092189E+03	4.538205E-16	1.415306E-18
4.093681E+03	4.512186E-16	1.407192E-18
4.095174E+03	4.490810E-16	1.400525E-18
4.096666E+03	4.467438E-16	1.393236E-18
4.098159E+03	4.443868E-16	1.385885E-18
4.099652E+03	4.423150E-16	1.379424E-18
4.101143E+03	4.410315E-16	1.375422E-18
4.102636E+03	4.400164E-16	1.372256E-18
4.104129E+03	4.383171E-16	1.366956E-18
4.105622E+03	4.367241E-16	1.361988E-18
4.107114E+03	4.345717E-16	1.355276E-18
4.108606E+03	4.309241E-16	1.343900E-18
4.110099E+03	4.272735E-16	1.332515E-18
4.111592E+03	4.244843E-16	1.323816E-18
4.113084E+03	4.220888E-16	1.316346E-18
4.114577E+03	4.194572E-16	1.308139E-18
4.116069E+03	4.164448E-16	1.298744E-18
4.117561E+03	4.140068E-16	1.291141E-18
4.119054E+03	4.129737E-16	1.287919E-18
4.120547E+03	4.134912E-16	1.289533E-18
4.122038E+03	4.137558E-16	1.290358E-18
4.123531E+03	4.122327E-16	1.285608E-18
4.125024E+03	4.096246E-16	1.277474E-18
4.126516E+03	4.065623E-16	1.267924E-18
4.128009E+03	4.045641E-16	1.261693E-18
4.129501E+03	4.042274E-16	1.260642E-18
4.130994E+03	4.037091E-16	1.259026E-18
4.132486E+03	4.025567E-16	1.255432E-18
4.133979E+03	4.020185E-16	1.253753E-18
4.135472E+03	4.021492E-16	1.254161E-18
4.136964E+03	4.026961E-16	1.255867E-18
4.138456E+03	4.044745E-16	1.261413E-18
4.139949E+03	4.066160E-16	1.268092E-18
4.141442E+03	4.081785E-16	1.272964E-18
4.142934E+03	4.099045E-16	1.278347E-18
4.144426E+03	4.121390E-16	1.285316E-18
4.145919E+03	4.144289E-16	1.292457E-18
4.147411E+03	4.170100E-16	1.300507E-18
4.148904E+03	4.205364E-16	1.311504E-18
4.150397E+03	4.242642E-16	1.323130E-18
4.151888E+03	4.270491E-16	1.331815E-18
4.153381E+03	4.290357E-16	1.338011E-18
4.154874E+03	4.306231E-16	1.342961E-18
4.156367E+03	4.325563E-16	1.348990E-18
4.157858E+03	4.350358E-16	1.356723E-18
4.159351E+03	4.372252E-16	1.363551E-18
4.160844E+03	4.398521E-16	1.371743E-18
4.162337E+03	4.433903E-16	1.382778E-18
4.163829E+03	4.466022E-16	1.392794E-18
4.165321E+03	4.493419E-16	1.401338E-18
4.166814E+03	4.521919E-16	1.410227E-18
4.168306E+03	4.545325E-16	1.417526E-18
4.169799E+03	4.567464E-16	1.424431E-18
4.171292E+03	4.596904E-16	1.433612E-18
4.172783E+03	4.619969E-16	1.440805E-18
4.174276E+03	4.631546E-16	1.444416E-18
4.175769E+03	4.642758E-16	1.447912E-18
4.177262E+03	4.655247E-16	1.451807E-18
4.178754E+03	4.675772E-16	1.458208E-18
4.180246E+03	4.706900E-16	1.467916E-18
4.181739E+03	4.735663E-16	1.476886E-18
4.183231E+03	4.755293E-16	1.483008E-18
4.184724E+03	4.766701E-16	1.486566E-18
4.186217E+03	4.779570E-16	1.490579E-18
4.187708E+03	4.794268E-16	1.495163E-18
4.189201E+03	4.808237E-16	1.499519E-18
4.190694E+03	4.826598E-16	1.505245E-18
4.192187E+03	4.843498E-16	1.510516E-18
4.193678E+03	4.851239E-16	1.512930E-18
4.195171E+03	4.858429E-16	1.515172E-18
4.196664E+03	4.867813E-16	1.518099E-18
4.198156E+03	4.871328E-16	1.519195E-18
4.199649E+03	4.873187E-16	1.519775E-18
4.201141E+03	4.875040E-16	1.520353E-18
4.202634E+03	4.873583E-16	1.519898E-18
4.204126E+03	4.873584E-16	1.519899E-18
4.205619E+03	4.875780E-16	1.520584E-18
4.207112E+03	4.880907E-16	1.522182E-18
4.208603E+03	4.885844E-16	1.523722E-18
4.210096E+03	4.884897E-16	1.523427E-18
4.211589E+03	4.884676E-16	1.523358E-18
4.213081E+03	4.889591E-16	1.524891E-18
4.214574E+03	4.892847E-16	1.525906E-18
4.216066E+03	4.887820E-16	1.524338E-18
4.217558E+03	4.872665E-16	1.519612E-18
4.219051E+03	4.849032E-16	1.512242E-18
4.220544E+03	4.828323E-16	1.505783E-18
4.222037E+03	4.827105E-16	1.505404E-18
4.223528E+03	4.833793E-16	1.507489E-18
4.225021E+03	4.834400E-16	1.507678E-18
4.226514E+03	4.834077E-16	1.507578E-18
4.228007E+03	4.827295E-16	1.505463E-18
4.229498E+03	4.820868E-16	1.503458E-18
4.230991E+03	4.828071E-16	1.505705E-18
4.232484E+03	4.835083E-16	1.507892E-18
4.233976E+03	4.836002E-16	1.508178E-18
4.235469E+03	4.839863E-16	1.509382E-18
4.236961E+03	4.853864E-16	1.513749E-18
4.238453E+03	4.876349E-16	1.520761E-18
4.239946E+03	4.899020E-16	1.527831E-18
4.241439E+03	4.914305E-16	1.532598E-18
4.242932E+03	4.919431E-16	1.534197E-18
4.244423E+03	4.920300E-16	1.534468E-18
4.245916E+03	4.925039E-16	1.535946E-18
4.247409E+03	4.929954E-16	1.537479E-18
4.248901E+03	4.925804E-16	1.536184E-18
4.250394E+03	4.922382E-16	1.535117E-18
4.251886E+03	4.924679E-16	1.535833E-18
4.253378E+03	4.924561E-16	1.535797E-18
4.254871E+03	4.924433E-16	1.535757E-18
4.256364E+03	4.930769E-16	1.537733E-18
4.257857E+03	4.937651E-16	1.539879E-18
4.259348E+03	4.940082E-16	1.540637E-18
4.260841E+03	4.948427E-16	1.543240E-18
4.262334E+03	4.968983E-16	1.549650E-18
4.263826E+03	4.994718E-16	1.557676E-18
4.265318E+03	5.015637E-16	1.564200E-18
4.266811E+03	5.038219E-16	1.571242E-18
4.268304E+03	5.058758E-16	1.577648E-18
4.269796E+03	5.064467E-16	1.579428E-18
4.271289E+03	5.070538E-16	1.581321E-18
4.272781E+03	5.086238E-16	1.586218E-18
4.274273E+03	5.105267E-16	1.592152E-18
4.275766E+03	5.118173E-16	1.596177E-18
4.277259E+03	5.123838E-16	1.597944E-18
4.278751E+03	5.136912E-16	1.602021E-18
4.280243E+03	5.157586E-16	1.608469E-18
4.281736E+03	5.175472E-16	1.614047E-18
4.283229E+03	5.193723E-16	1.619739E-18
4.284721E+03	5.212710E-16	1.625660E-18
4.286214E+03	5.224824E-16	1.629438E-18
4.287706E+03	5.236929E-16	1.633213E-18
4.289198E+03	5.255155E-16	1.638897E-18
4.290691E+03	5.271147E-16	1.643885E-18
4.292184E+03	5.283604E-16	1.647769E-18
4.293677E+03	5.293266E-16	1.650783E-18
4.295168E+03	5.296416E-16	1.651765E-18
4.296661E+03	5.297142E-16	1.651991E-18
4.298154E+03	5.304548E-16	1.654301E-18
4.299646E+03	5.314732E-16	1.657477E-18
4.301138E+03	5.327141E-16	1.661347E-18
4.302631E+03	5.347165E-16	1.667592E-18
4.304123E+03	5.364394E-16	1.672965E-18
4.305616E+03	5.373807E-16	1.675900E-18
4.307109E+03	5.383027E-16	1.678776E-18
4.308600E+03	5.387401E-16	1.680140E-18
4.310093E+03	5.385628E-16	1.679587E-18
4.311586E+03	5.389985E-16	1.680946E-18
4.313079E+03	5.397124E-16	1.683172E-18
4.314571E+03	5.398114E-16	1.683481E-18
4.316063E+03	5.400397E-16	1.684193E-18
4.317556E+03	5.405836E-16	1.685889E-18
4.319048E+03	5.406984E-16	1.686247E-18
4.320541E+03	5.399374E-16	1.683874E-18
