#wls	flux	fluxerr
1.570321E+03	1.598101E-17	3.105241E-19
1.609579E+03	1.658213E-17	3.203319E-19
1.648837E+03	1.717036E-17	3.297136E-19
1.688095E+03	1.774524E-17	3.386601E-19
1.727353E+03	1.830684E-17	3.471725E-19
1.766611E+03	1.883781E-17	3.549236E-19
1.805869E+03	1.932139E-17	3.616065E-19
1.845127E+03	1.972902E-17	3.667040E-19
1.884385E+03	2.003141E-17	3.697007E-19
1.923643E+03	2.020385E-17	3.701826E-19
1.962901E+03	2.024755E-17	3.682216E-19
2.002159E+03	2.021301E-17	3.647813E-19
2.041417E+03	2.023513E-17	3.623094E-19
2.080675E+03	2.053063E-17	3.646302E-19
2.119933E+03	2.134368E-17	3.759229E-19
2.159191E+03	2.286659E-17	3.993097E-19
2.198449E+03	2.518409E-17	4.359239E-19
2.237707E+03	2.828077E-17	4.851168E-19
2.276965E+03	3.207949E-17	5.451865E-19
2.316223E+03	3.650538E-17	6.145060E-19
2.355481E+03	4.151272E-17	6.919717E-19
2.394739E+03	4.709873E-17	7.772091E-19
2.433997E+03	5.330575E-17	8.705722E-19
2.473255E+03	6.020939E-17	9.729152E-19
2.512513E+03	6.789148E-17	1.085128E-18
2.551772E+03	7.647854E-17	1.208738E-18
2.591030E+03	8.610252E-17	1.345256E-18
2.630288E+03	9.691081E-17	1.496318E-18
2.669546E+03	1.090929E-16	1.664080E-18
2.708804E+03	1.228085E-16	1.850091E-18
2.748062E+03	1.382748E-16	2.056611E-18
2.787320E+03	1.556731E-16	2.285194E-18
2.826578E+03	1.751715E-16	2.537033E-18
2.865836E+03	1.969167E-16	2.812863E-18
2.905094E+03	2.210053E-16	3.112580E-18
2.944352E+03	2.474355E-16	3.434613E-18
2.954166E+03	2.543903E-16	3.518167E-18
2.963981E+03	2.614767E-16	3.602795E-18
2.973795E+03	2.687047E-16	3.688608E-18
2.983610E+03	2.760521E-16	3.775280E-18
2.993424E+03	2.835197E-16	3.862803E-18
3.003239E+03	2.911081E-16	3.951162E-18
3.013053E+03	2.988190E-16	4.040362E-18
3.022868E+03	3.066352E-16	4.130148E-18
3.032682E+03	3.145230E-16	4.220051E-18
3.042497E+03	3.224677E-16	4.309860E-18
3.052311E+03	3.304658E-16	4.399520E-18
3.062126E+03	3.384894E-16	4.488652E-18
3.071940E+03	3.465085E-16	4.576850E-18
3.081755E+03	3.545099E-16	4.663943E-18
3.091569E+03	3.624394E-16	4.749221E-18
3.101384E+03	3.702597E-16	4.832207E-18
3.111198E+03	3.779517E-16	4.912671E-18
3.121013E+03	3.854756E-16	4.990114E-18
3.130827E+03	3.928101E-16	5.064289E-18
3.140642E+03	3.998708E-16	5.134143E-18
3.150456E+03	4.066566E-16	5.199703E-18
3.160271E+03	4.131037E-16	5.260201E-18
3.170085E+03	4.191903E-16	5.315414E-18
3.179900E+03	4.248761E-16	5.364891E-18
3.189714E+03	4.301214E-16	5.408197E-18
3.199529E+03	4.349102E-16	5.445202E-18
3.209343E+03	4.391862E-16	5.475279E-18
3.219158E+03	4.429388E-16	5.498378E-18
3.228972E+03	4.461384E-16	5.514219E-18
3.238787E+03	4.487796E-16	5.522826E-18
3.248601E+03	4.508183E-16	5.523749E-18
3.258416E+03	4.522546E-16	5.517087E-18
3.268230E+03	4.530704E-16	5.502719E-18
3.278045E+03	4.532695E-16	5.480792E-18
3.287859E+03	4.528179E-16	5.450998E-18
3.297674E+03	4.517429E-16	5.413773E-18
3.307488E+03	4.500142E-16	5.368855E-18
3.317303E+03	4.476421E-16	5.316476E-18
3.327117E+03	4.446191E-16	5.256651E-18
3.336932E+03	4.409595E-16	5.189657E-18
3.346746E+03	4.366615E-16	5.115576E-18
3.356561E+03	4.317278E-16	5.034547E-18
3.366376E+03	4.261849E-16	4.946979E-18
3.376190E+03	4.200633E-16	4.853327E-18
3.386005E+03	4.133705E-16	4.753771E-18
3.395819E+03	4.061729E-16	4.649165E-18
3.405634E+03	3.985014E-16	4.539943E-18
3.415448E+03	3.904449E-16	4.427193E-18
3.425263E+03	3.820911E-16	4.311967E-18
3.435077E+03	3.735035E-16	4.195025E-18
3.444892E+03	3.648293E-16	4.078053E-18
3.454706E+03	3.561794E-16	3.962299E-18
3.464521E+03	3.477080E-16	3.849466E-18
3.474335E+03	3.395626E-16	3.741151E-18
3.484150E+03	3.319415E-16	3.639477E-18
3.493964E+03	3.250038E-16	3.546095E-18
3.503779E+03	3.189513E-16	3.463088E-18
3.513593E+03	3.139839E-16	3.392475E-18
3.523408E+03	3.102041E-16	3.335184E-18
3.533222E+03	3.076212E-16	3.291124E-18
3.543037E+03	3.060650E-16	3.258294E-18
3.552851E+03	3.053089E-16	3.234129E-18
3.562666E+03	3.050859E-16	3.215689E-18
3.572480E+03	3.051562E-16	3.200374E-18
3.582295E+03	3.053165E-16	3.186017E-18
3.592109E+03	3.053936E-16	3.170806E-18
3.601924E+03	3.052301E-16	3.153127E-18
3.611738E+03	3.047166E-16	3.131895E-18
3.621553E+03	3.037694E-16	3.106309E-18
3.631367E+03	3.023467E-16	3.076011E-18
3.641182E+03	3.004341E-16	3.040929E-18
3.650996E+03	2.980601E-16	3.001427E-18
3.660811E+03	2.952871E-16	2.958203E-18
3.670625E+03	2.921967E-16	2.912130E-18
3.680440E+03	2.889141E-16	2.864499E-18
3.690254E+03	2.855900E-16	2.816826E-18
3.700069E+03	2.824014E-16	2.770852E-18
3.709883E+03	2.795167E-16	2.728201E-18
3.719698E+03	2.771397E-16	2.690804E-18
3.729512E+03	2.754689E-16	2.660500E-18
3.739327E+03	2.747165E-16	2.639221E-18
3.749141E+03	2.750763E-16	2.628676E-18
3.758956E+03	2.767559E-16	2.630671E-18
3.768770E+03	2.799509E-16	2.646856E-18
3.778585E+03	2.848589E-16	2.678860E-18
3.788399E+03	2.916916E-16	2.728406E-18
3.798214E+03	3.006540E-16	2.797113E-18
3.808028E+03	3.119489E-16	2.886543E-18
3.817843E+03	3.257806E-16	2.998228E-18
3.827657E+03	3.423252E-16	3.133407E-18
3.837472E+03	3.617292E-16	3.293015E-18
3.847286E+03	3.840980E-16	3.477591E-18
3.857101E+03	4.094417E-16	3.686794E-18
3.866915E+03	4.376446E-16	3.919161E-18
3.876730E+03	4.684308E-16	4.171826E-18
3.886544E+03	5.013025E-16	4.440017E-18
3.896359E+03	5.355414E-16	4.717118E-18
3.906173E+03	5.701883E-16	4.994548E-18
3.915988E+03	6.040935E-16	5.262254E-18
3.925802E+03	6.359818E-16	5.509318E-18
3.935617E+03	6.645539E-16	5.724861E-18
3.945431E+03	6.885768E-16	5.898820E-18
3.955246E+03	7.070710E-16	6.023524E-18
3.965060E+03	7.193336E-16	6.093823E-18
3.974875E+03	7.250614E-16	6.108065E-18
3.984689E+03	7.243479E-16	6.067969E-18
3.994504E+03	7.176733E-16	5.978449E-18
4.004318E+03	7.058197E-16	5.846821E-18
4.014133E+03	6.897996E-16	5.682147E-18
4.023947E+03	6.707541E-16	5.494347E-18
4.033762E+03	6.498256E-16	5.293135E-18
4.043576E+03	6.281165E-16	5.087687E-18
4.053391E+03	6.065649E-16	4.885655E-18
4.063205E+03	5.859409E-16	4.693173E-18
4.073020E+03	5.668354E-16	4.514808E-18
4.082834E+03	5.496498E-16	4.353525E-18
4.092649E+03	5.346493E-16	4.211146E-18
4.102463E+03	5.219680E-16	4.088424E-18
4.112278E+03	5.116286E-16	3.985223E-18
4.122092E+03	5.036010E-16	3.901000E-18
4.131907E+03	4.977851E-16	3.834682E-18
4.141721E+03	4.940408E-16	3.784912E-18
4.151536E+03	4.921679E-16	3.749900E-18
4.161350E+03	4.919531E-16	3.727800E-18
4.171165E+03	4.931131E-16	3.716274E-18
4.180979E+03	4.953585E-16	3.712991E-18
4.190794E+03	4.983556E-16	3.715337E-18
4.200608E+03	5.017751E-16	3.720790E-18
4.210423E+03	5.052830E-16	3.726845E-18
4.220238E+03	5.085352E-16	3.730978E-18
4.230052E+03	5.112130E-16	3.730905E-18
4.239867E+03	5.129881E-16	3.724318E-18
4.249681E+03	5.135893E-16	3.709370E-18
4.259496E+03	5.127297E-16	3.684140E-18
4.269310E+03	5.101945E-16	3.647259E-18
4.279125E+03	5.058407E-16	3.597897E-18
4.288939E+03	4.996067E-16	3.535809E-18
4.298754E+03	4.915380E-16	3.461505E-18
4.308568E+03	4.818074E-16	3.376376E-18
4.318383E+03	4.707157E-16	3.282675E-18
4.328197E+03	4.586544E-16	3.183238E-18
4.338012E+03	4.461160E-16	3.081546E-18
4.347826E+03	4.336444E-16	2.981364E-18
4.357641E+03	4.218024E-16	2.886518E-18
4.367455E+03	4.111306E-16	2.800610E-18
4.377270E+03	4.021220E-16	2.726857E-18
4.387084E+03	3.951997E-16	2.667946E-18
4.396899E+03	3.906920E-16	2.625885E-18
4.406713E+03	3.888359E-16	2.602035E-18
4.416528E+03	3.897882E-16	2.597206E-18
4.426342E+03	3.936547E-16	2.611859E-18
4.436157E+03	4.004776E-16	2.646031E-18
4.445971E+03	4.102442E-16	2.699405E-18
4.455786E+03	4.228867E-16	2.771309E-18
4.465600E+03	4.382316E-16	2.860402E-18
4.475415E+03	4.560070E-16	2.964727E-18
4.485229E+03	4.758323E-16	3.081660E-18
4.495044E+03	4.971979E-16	3.207789E-18
4.504858E+03	5.194454E-16	3.338801E-18
4.514673E+03	5.417915E-16	3.469653E-18
4.524487E+03	5.632911E-16	3.594341E-18
4.534302E+03	5.829483E-16	3.706625E-18
4.544116E+03	5.997896E-16	3.800492E-18
4.553931E+03	6.129982E-16	3.870999E-18
4.563745E+03	6.219897E-16	3.914722E-18
4.573560E+03	6.264906E-16	3.930227E-18
4.583374E+03	6.265720E-16	3.918242E-18
4.593189E+03	6.226399E-16	3.881565E-18
4.603003E+03	6.153906E-16	3.824749E-18
4.612818E+03	6.057608E-16	3.753780E-18
4.622632E+03	5.946685E-16	3.674444E-18
4.632447E+03	5.828518E-16	3.591349E-18
4.642261E+03	5.707198E-16	3.507020E-18
4.652076E+03	5.583592E-16	3.421976E-18
4.661890E+03	5.456186E-16	3.335277E-18
4.671705E+03	5.322359E-16	3.245317E-18
4.681519E+03	5.179832E-16	3.150712E-18
4.691334E+03	5.027537E-16	3.050827E-18
4.701148E+03	4.866073E-16	2.946038E-18
4.710963E+03	4.697686E-16	2.837715E-18
4.720777E+03	4.525640E-16	2.727826E-18
4.730592E+03	4.354087E-16	2.618855E-18
4.740406E+03	4.187328E-16	2.513358E-18
4.750221E+03	4.029756E-16	2.413923E-18
4.760035E+03	3.885156E-16	2.322759E-18
4.769850E+03	3.756782E-16	2.241742E-18
4.779664E+03	3.647166E-16	2.172308E-18
4.789479E+03	3.557880E-16	2.115314E-18
4.799293E+03	3.489762E-16	2.071181E-18
4.809108E+03	3.442817E-16	2.039834E-18
4.818922E+03	3.416245E-16	2.020729E-18
4.828737E+03	3.408602E-16	2.012948E-18
4.838551E+03	3.418089E-16	2.015370E-18
4.848366E+03	3.442568E-16	2.026689E-18
4.858180E+03	3.479772E-16	2.045528E-18
4.867995E+03	3.527427E-16	2.070521E-18
4.877809E+03	3.583256E-16	2.100304E-18
4.887624E+03	3.645163E-16	2.133634E-18
4.897438E+03	3.710927E-16	2.169198E-18
4.907253E+03	3.778123E-16	2.205574E-18
4.917067E+03	3.844170E-16	2.241255E-18
4.926882E+03	3.906094E-16	2.274514E-18
4.936696E+03	3.960674E-16	2.303488E-18
4.946511E+03	4.004814E-16	2.326398E-18
4.956325E+03	4.035805E-16	2.341691E-18
4.966140E+03	4.052052E-16	2.348472E-18
4.975954E+03	4.053154E-16	2.346538E-18
4.985769E+03	4.040299E-16	2.336602E-18
4.995583E+03	4.016182E-16	2.320246E-18
5.005398E+03	3.984681E-16	2.299727E-18
5.015212E+03	3.950496E-16	2.277766E-18
5.025027E+03	3.918632E-16	2.257248E-18
5.034841E+03	3.893808E-16	2.240884E-18
5.044656E+03	3.880306E-16	2.231124E-18
5.054471E+03	3.881321E-16	2.229784E-18
5.064285E+03	3.898939E-16	2.238043E-18
5.074100E+03	3.933903E-16	2.256304E-18
5.083914E+03	3.985526E-16	2.284151E-18
5.093729E+03	4.052021E-16	2.320544E-18
5.103543E+03	4.131037E-16	2.364124E-18
5.113358E+03	4.219897E-16	2.413349E-18
5.123172E+03	4.316226E-16	2.466859E-18
5.132987E+03	4.418126E-16	2.523568E-18
5.142801E+03	4.524439E-16	2.582818E-18
5.152616E+03	4.634737E-16	2.644370E-18
5.162430E+03	4.749206E-16	2.708335E-18
5.172245E+03	4.868178E-16	2.774910E-18
5.182059E+03	4.991893E-16	2.844239E-18
5.191874E+03	5.120216E-16	2.916253E-18
5.201688E+03	5.252198E-16	2.990422E-18
5.211503E+03	5.385740E-16	3.065564E-18
5.221317E+03	5.517891E-16	3.140011E-18
5.231132E+03	5.644328E-16	3.211319E-18
5.240946E+03	5.759986E-16	3.276624E-18
5.250761E+03	5.859298E-16	3.332776E-18
5.260575E+03	5.936651E-16	3.376600E-18
5.270390E+03	5.986951E-16	3.405210E-18
5.280204E+03	6.006141E-16	3.416311E-18
5.290019E+03	5.991824E-16	3.408541E-18
5.299833E+03	5.943411E-16	3.381555E-18
5.309648E+03	5.862973E-16	3.336510E-18
5.319462E+03	5.755138E-16	3.276016E-18
5.329277E+03	5.626602E-16	3.203854E-18
5.339091E+03	5.485038E-16	3.124367E-18
5.348906E+03	5.338656E-16	3.042208E-18
5.358720E+03	5.195394E-16	2.961883E-18
5.368535E+03	5.062302E-16	2.887397E-18
5.378349E+03	4.945082E-16	2.821999E-18
5.388164E+03	4.847536E-16	2.767861E-18
5.397978E+03	4.771474E-16	2.726024E-18
5.407793E+03	4.716478E-16	2.696260E-18
5.417607E+03	4.680556E-16	2.677446E-18
5.427422E+03	4.660689E-16	2.667867E-18
5.437236E+03	4.653140E-16	2.665395E-18
5.447051E+03	4.654000E-16	2.667799E-18
5.456865E+03	4.659685E-16	2.673031E-18
5.466680E+03	4.666983E-16	2.679246E-18
5.476494E+03	4.673083E-16	2.684829E-18
5.486309E+03	4.675949E-16	2.688604E-18
5.496123E+03	4.673914E-16	2.689604E-18
5.505938E+03	4.665991E-16	2.687249E-18
5.515752E+03	4.651644E-16	2.681219E-18
5.525567E+03	4.630815E-16	2.671469E-18
5.535381E+03	4.603762E-16	2.658134E-18
5.545196E+03	4.570972E-16	2.641482E-18
5.555010E+03	4.532994E-16	2.621821E-18
5.564825E+03	4.490306E-16	2.599416E-18
5.574639E+03	4.443361E-16	2.574520E-18
5.584454E+03	4.392502E-16	2.547323E-18
5.594268E+03	4.337820E-16	2.517870E-18
5.604083E+03	4.279463E-16	2.486238E-18
5.613897E+03	4.217599E-16	2.452518E-18
5.623712E+03	4.152427E-16	2.416820E-18
5.633526E+03	4.084473E-16	2.379442E-18
5.643341E+03	4.014583E-16	2.340873E-18
5.653155E+03	3.943947E-16	2.301802E-18
5.662970E+03	3.874254E-16	2.263216E-18
5.672784E+03	3.807576E-16	2.226327E-18
5.682599E+03	3.746306E-16	2.192540E-18
5.692413E+03	3.693048E-16	2.163388E-18
5.702228E+03	3.650526E-16	2.140483E-18
5.712042E+03	3.621411E-16	2.125410E-18
5.721857E+03	3.608140E-16	2.119624E-18
5.731671E+03	3.612818E-16	2.124389E-18
5.741486E+03	3.636933E-16	2.140614E-18
5.751300E+03	3.681244E-16	2.168778E-18
5.761115E+03	3.745560E-16	2.208806E-18
5.770929E+03	3.828470E-16	2.259902E-18
5.780744E+03	3.927289E-16	2.320515E-18
5.790558E+03	4.037734E-16	2.388142E-18
5.800373E+03	4.154215E-16	2.459499E-18
5.810187E+03	4.270237E-16	2.530753E-18
5.820002E+03	4.378798E-16	2.597754E-18
5.829816E+03	4.473215E-16	2.656524E-18
5.839631E+03	4.548019E-16	2.703792E-18
5.849445E+03	4.599532E-16	2.737338E-18
5.859260E+03	4.626218E-16	2.756206E-18
5.869074E+03	4.628520E-16	2.760619E-18
5.878889E+03	4.608343E-16	2.751669E-18
5.888704E+03	4.568878E-16	2.731221E-18
5.898518E+03	4.513846E-16	2.701467E-18
5.908333E+03	4.447061E-16	2.664659E-18
5.918147E+03	4.372079E-16	2.622909E-18
5.927962E+03	4.292123E-16	2.578134E-18
5.937776E+03	4.209973E-16	2.531994E-18
5.947591E+03	4.127748E-16	2.485763E-18
5.957405E+03	4.047259E-16	2.440529E-18
5.967220E+03	3.969682E-16	2.397007E-18
5.977034E+03	3.895926E-16	2.355753E-18
5.986849E+03	3.826694E-16	2.317202E-18
5.996663E+03	3.762445E-16	2.281643E-18
6.006478E+03	3.703556E-16	2.249318E-18
6.016292E+03	3.650137E-16	2.220307E-18
6.026107E+03	3.602155E-16	2.194605E-18
6.035921E+03	3.559441E-16	2.172126E-18
6.045736E+03	3.521476E-16	2.152568E-18
6.055550E+03	3.487476E-16	2.135466E-18
6.065365E+03	3.456352E-16	2.120165E-18
6.075179E+03	3.426795E-16	2.105866E-18
6.084994E+03	3.397344E-16	2.091668E-18
6.094808E+03	3.366386E-16	2.076568E-18
6.104623E+03	3.332437E-16	2.059637E-18
6.114437E+03	3.294115E-16	2.040000E-18
6.124252E+03	3.250540E-16	2.017087E-18
6.134066E+03	3.201185E-16	1.990541E-18
6.143881E+03	3.146279E-16	1.960477E-18
6.153695E+03	3.086617E-16	1.927361E-18
6.163510E+03	3.023567E-16	1.892021E-18
6.173324E+03	2.959253E-16	1.855769E-18
6.183139E+03	2.896007E-16	1.820058E-18
6.192953E+03	2.836584E-16	1.786620E-18
6.202768E+03	2.783609E-16	1.757122E-18
6.212582E+03	2.739666E-16	1.733219E-18
6.222397E+03	2.706987E-16	1.716360E-18
6.232211E+03	2.687339E-16	1.707711E-18
6.242026E+03	2.682089E-16	1.708193E-18
6.251840E+03	2.691996E-16	1.718349E-18
6.261655E+03	2.717358E-16	1.738431E-18
6.271469E+03	2.757845E-16	1.768291E-18
6.281284E+03	2.812535E-16	1.807397E-18
6.291098E+03	2.879892E-16	1.854819E-18
6.300913E+03	2.957697E-16	1.909175E-18
6.310727E+03	3.043208E-16	1.968733E-18
6.320542E+03	3.133237E-16	2.031454E-18
6.330356E+03	3.224152E-16	2.094994E-18
6.340171E+03	3.312383E-16	2.157026E-18
6.349985E+03	3.394313E-16	2.215174E-18
6.359800E+03	3.466813E-16	2.267360E-18
6.369614E+03	3.527433E-16	2.311932E-18
6.379429E+03	3.574633E-16	2.347825E-18
6.389243E+03	3.607756E-16	2.374546E-18
6.399058E+03	3.626921E-16	2.392110E-18
6.408872E+03	3.632898E-16	2.400967E-18
6.418687E+03	3.626868E-16	2.401840E-18
6.428501E+03	3.610331E-16	2.395675E-18
6.438316E+03	3.584906E-16	2.383505E-18
6.448130E+03	3.552364E-16	2.366474E-18
6.457945E+03	3.514403E-16	2.345684E-18
6.467759E+03	3.472895E-16	2.322369E-18
6.477574E+03	3.429741E-16	2.297786E-18
6.487388E+03	3.386743E-16	2.273141E-18
6.497203E+03	3.345798E-16	2.249710E-18
6.507017E+03	3.308699E-16	2.228709E-18
6.516832E+03	3.277165E-16	2.211311E-18
6.526646E+03	3.252661E-16	2.198528E-18
6.536461E+03	3.236421E-16	2.191220E-18
6.546275E+03	3.229350E-16	2.190027E-18
6.556090E+03	3.231671E-16	2.195133E-18
6.565904E+03	3.243188E-16	2.206432E-18
6.575719E+03	3.263128E-16	2.223427E-18
6.585533E+03	3.290039E-16	2.245152E-18
6.595348E+03	3.322013E-16	2.270320E-18
6.605162E+03	3.356774E-16	2.297390E-18
6.614977E+03	3.391876E-16	2.324689E-18
6.624791E+03	3.424785E-16	2.350476E-18
6.634606E+03	3.453092E-16	2.373089E-18
6.644420E+03	3.474803E-16	2.391140E-18
6.654235E+03	3.488485E-16	2.403623E-18
6.664049E+03	3.493060E-16	2.409774E-18
6.673864E+03	3.488135E-16	2.409297E-18
6.683678E+03	3.473947E-16	2.402333E-18
6.693493E+03	3.450997E-16	2.389208E-18
6.703307E+03	3.420321E-16	2.370622E-18
6.713122E+03	3.383096E-16	2.347376E-18
6.722937E+03	3.340736E-16	2.320442E-18
6.732751E+03	3.294467E-16	2.290665E-18
6.742566E+03	3.245595E-16	2.258947E-18
6.752380E+03	3.195271E-16	2.226092E-18
6.762195E+03	3.144491E-16	2.192793E-18
6.772009E+03	3.094205E-16	2.159719E-18
6.781824E+03	3.045170E-16	2.127404E-18
6.791638E+03	2.997957E-16	2.096252E-18
6.801453E+03	2.953110E-16	2.066654E-18
6.811267E+03	2.911037E-16	2.038903E-18
6.821082E+03	2.872040E-16	2.013219E-18
6.830896E+03	2.836480E-16	1.989865E-18
6.840711E+03	2.804684E-16	1.969080E-18
6.850525E+03	2.776972E-16	1.951099E-18
6.860340E+03	2.753744E-16	1.936212E-18
6.870154E+03	2.735488E-16	1.924774E-18
6.879969E+03	2.722692E-16	1.917138E-18
6.889783E+03	2.715729E-16	1.913580E-18
6.899598E+03	2.715050E-16	1.914429E-18
6.909412E+03	2.720863E-16	1.919844E-18
6.919227E+03	2.733061E-16	1.929762E-18
6.929041E+03	2.751389E-16	1.944016E-18
6.938856E+03	2.775097E-16	1.962086E-18
6.948670E+03	2.803098E-16	1.983217E-18
6.958485E+03	2.834006E-16	2.006434E-18
6.968299E+03	2.865994E-16	2.030453E-18
6.978114E+03	2.897216E-16	2.053971E-18
6.987928E+03	2.925601E-16	2.075523E-18
6.997743E+03	2.949393E-16	2.093861E-18
7.007557E+03	2.966923E-16	2.107800E-18
7.017372E+03	2.977139E-16	2.116585E-18
7.027186E+03	2.979595E-16	2.119895E-18
7.037001E+03	2.974294E-16	2.117723E-18
7.046815E+03	2.961890E-16	2.110528E-18
7.056630E+03	2.943415E-16	2.099039E-18
7.066444E+03	2.920178E-16	2.084184E-18
7.076259E+03	2.893577E-16	2.066956E-18
7.086073E+03	2.864922E-16	2.048290E-18
7.095888E+03	2.835565E-16	2.029154E-18
7.105702E+03	2.806550E-16	2.010295E-18
7.115517E+03	2.778904E-16	1.992455E-18
7.125331E+03	2.753409E-16	1.976202E-18
7.135146E+03	2.730579E-16	1.961910E-18
7.144960E+03	2.710624E-16	1.949742E-18
7.154775E+03	2.693469E-16	1.939654E-18
7.164589E+03	2.678711E-16	1.931366E-18
7.174404E+03	2.665838E-16	1.924517E-18
7.184218E+03	2.654037E-16	1.918531E-18
7.194033E+03	2.642456E-16	1.912796E-18
7.203847E+03	2.630429E-16	1.906835E-18
7.213662E+03	2.617258E-16	1.900144E-18
7.223476E+03	2.602436E-16	1.892354E-18
7.233291E+03	2.585632E-16	1.883221E-18
7.243105E+03	2.566691E-16	1.872628E-18
7.252920E+03	2.545663E-16	1.860606E-18
7.262734E+03	2.522644E-16	1.847220E-18
7.272549E+03	2.497981E-16	1.832717E-18
7.282363E+03	2.471940E-16	1.817286E-18
7.292178E+03	2.445029E-16	1.801295E-18
7.301992E+03	2.417714E-16	1.785086E-18
7.311807E+03	2.390494E-16	1.769023E-18
7.321621E+03	2.363799E-16	1.753428E-18
7.331436E+03	2.338130E-16	1.738674E-18
7.341250E+03	2.313997E-16	1.725145E-18
7.351065E+03	2.291718E-16	1.713088E-18
7.360879E+03	2.271662E-16	1.702790E-18
7.370694E+03	2.253861E-16	1.694289E-18
7.380508E+03	2.238248E-16	1.687548E-18
7.390323E+03	2.224574E-16	1.682394E-18
7.400137E+03	2.212514E-16	1.678597E-18
7.409952E+03	2.201640E-16	1.675841E-18
7.419766E+03	2.191614E-16	1.673878E-18
7.429581E+03	2.182240E-16	1.672567E-18
7.439395E+03	2.173518E-16	1.671909E-18
7.449210E+03	2.165585E-16	1.672009E-18
7.459024E+03	2.158595E-16	1.672988E-18
7.468839E+03	2.152783E-16	1.675033E-18
7.478653E+03	2.148311E-16	1.678276E-18
7.488468E+03	2.145279E-16	1.682804E-18
7.498282E+03	2.143702E-16	1.688639E-18
7.508097E+03	2.143475E-16	1.695708E-18
7.517911E+03	2.144449E-16	1.703904E-18
7.527726E+03	2.146485E-16	1.713124E-18
7.537540E+03	2.149246E-16	1.723106E-18
7.547355E+03	2.152484E-16	1.733657E-18
7.557169E+03	2.156044E-16	1.744653E-18
7.566984E+03	2.159788E-16	1.755982E-18
7.576799E+03	2.163593E-16	1.767545E-18
7.586613E+03	2.167442E-16	1.779324E-18
7.596428E+03	2.171407E-16	1.791378E-18
7.606242E+03	2.175546E-16	1.803752E-18
7.616057E+03	2.179882E-16	1.816466E-18
