#wls	flux	fluxerr
1.595708E+03	1.511757E-05	9.026899E-07
1.635600E+03	1.550786E-05	9.258429E-07
1.675493E+03	1.592357E-05	9.505001E-07
1.715386E+03	1.636133E-05	9.764599E-07
1.755278E+03	1.683177E-05	1.004355E-06
1.795171E+03	1.732699E-05	1.033712E-06
1.835064E+03	1.785802E-05	1.065187E-06
1.874956E+03	1.841689E-05	1.098304E-06
1.914849E+03	1.901506E-05	1.133743E-06
1.954742E+03	1.964956E-05	1.171326E-06
1.994634E+03	2.031728E-05	1.210864E-06
2.034527E+03	2.103033E-05	1.253077E-06
2.074420E+03	2.179113E-05	1.298106E-06
2.114312E+03	2.259160E-05	1.345466E-06
2.154205E+03	2.344470E-05	1.395927E-06
2.194098E+03	2.434775E-05	1.449325E-06
2.233991E+03	2.530343E-05	1.505815E-06
2.273883E+03	2.631452E-05	1.565559E-06
2.313776E+03	2.738978E-05	1.629073E-06
2.353669E+03	2.852667E-05	1.696201E-06
2.393561E+03	2.973450E-05	1.767491E-06
2.433454E+03	3.101075E-05	1.842788E-06
2.473347E+03	3.235890E-05	1.922291E-06
2.513239E+03	3.378903E-05	2.006593E-06
2.553132E+03	3.530534E-05	2.095935E-06
2.593025E+03	3.691212E-05	2.190564E-06
2.632917E+03	3.860684E-05	2.290320E-06
2.672810E+03	4.040784E-05	2.396281E-06
2.712703E+03	4.231294E-05	2.508309E-06
2.752596E+03	4.432688E-05	2.626671E-06
2.792488E+03	4.646982E-05	2.752550E-06
2.832381E+03	4.873976E-05	2.885813E-06
2.872274E+03	5.115017E-05	3.027243E-06
2.912166E+03	5.371523E-05	3.177662E-06
2.952059E+03	5.644134E-05	3.337430E-06
2.991952E+03	5.935229E-05	3.507933E-06
3.001925E+03	6.010313E-05	3.551892E-06
3.011898E+03	6.087046E-05	3.596811E-06
3.021871E+03	6.165447E-05	3.642703E-06
3.031844E+03	6.244634E-05	3.689045E-06
3.041818E+03	6.325516E-05	3.736374E-06
3.051791E+03	6.408114E-05	3.784702E-06
3.061764E+03	6.491525E-05	3.833494E-06
3.071737E+03	6.576677E-05	3.883299E-06
3.081710E+03	6.662657E-05	3.933577E-06
3.091683E+03	6.751342E-05	3.985436E-06
3.101657E+03	6.840880E-05	4.037782E-06
3.111630E+03	6.931267E-05	4.090612E-06
3.121603E+03	7.024422E-05	4.145058E-06
3.131576E+03	7.118451E-05	4.200002E-06
3.141549E+03	7.214322E-05	4.256014E-06
3.151522E+03	7.312055E-05	4.313107E-06
3.161496E+03	7.411664E-05	4.371287E-06
3.171469E+03	7.513165E-05	4.430563E-06
3.181442E+03	7.616576E-05	4.490946E-06
3.191415E+03	7.721911E-05	4.552442E-06
3.201388E+03	7.828173E-05	4.614464E-06
3.211361E+03	7.937393E-05	4.678208E-06
3.221335E+03	8.048579E-05	4.743089E-06
3.231308E+03	8.161744E-05	4.809114E-06
3.241281E+03	8.276902E-05	4.876290E-06
3.251254E+03	8.394063E-05	4.944622E-06
3.261227E+03	8.514291E-05	5.014737E-06
3.271200E+03	8.635498E-05	5.085403E-06
3.281174E+03	8.759805E-05	5.157870E-06
3.291147E+03	8.887241E-05	5.232152E-06
3.301120E+03	9.015676E-05	5.306996E-06
3.311093E+03	9.147268E-05	5.383671E-06
3.321066E+03	9.282042E-05	5.462191E-06
3.331040E+03	9.418924E-05	5.541923E-06
3.341013E+03	9.557920E-05	5.622869E-06
3.350986E+03	9.700143E-05	5.705682E-06
3.360959E+03	9.845615E-05	5.790377E-06
3.370932E+03	9.993234E-05	5.876301E-06
3.380905E+03	1.014413E-04	5.964118E-06
3.390879E+03	1.029831E-04	6.053839E-06
3.400852E+03	1.045466E-04	6.144797E-06
3.410825E+03	1.061548E-04	6.238344E-06
3.420798E+03	1.077847E-04	6.333135E-06
3.430771E+03	1.094480E-04	6.429850E-06
3.440744E+03	1.111448E-04	6.528492E-06
3.450718E+03	1.128751E-04	6.629067E-06
3.460691E+03	1.146390E-04	6.731575E-06
3.470664E+03	1.164366E-04	6.836018E-06
3.480637E+03	1.182798E-04	6.943101E-06
3.490610E+03	1.201448E-04	7.051416E-06
3.500583E+03	1.220556E-04	7.162376E-06
3.510557E+03	1.239999E-04	7.275263E-06
3.520530E+03	1.259904E-04	7.390805E-06
3.530503E+03	1.280145E-04	7.508275E-06
3.540476E+03	1.300722E-04	7.627665E-06
3.550449E+03	1.321757E-04	7.749693E-06
3.560422E+03	1.343251E-04	7.874363E-06
3.570396E+03	1.365078E-04	8.000927E-06
3.580369E+03	1.387362E-04	8.130120E-06
3.590342E+03	1.410102E-04	8.261929E-06
3.600315E+03	1.433169E-04	8.395602E-06
3.610288E+03	1.456818E-04	8.532619E-06
3.620261E+03	1.480787E-04	8.671459E-06
3.630235E+03	1.505336E-04	8.813627E-06
3.640208E+03	1.530200E-04	8.957582E-06
3.650181E+03	1.555639E-04	9.104836E-06
3.660154E+03	1.581517E-04	9.254596E-06
3.670127E+03	1.607832E-04	9.406843E-06
3.680101E+03	1.634577E-04	9.561545E-06
3.690074E+03	1.661884E-04	9.719459E-06
3.700047E+03	1.689616E-04	9.879785E-06
3.710020E+03	1.717898E-04	1.004326E-05
3.719993E+03	1.746592E-04	1.020906E-05
3.729966E+03	1.775828E-04	1.037796E-05
3.739940E+03	1.805600E-04	1.054991E-05
3.749913E+03	1.835766E-04	1.072408E-05
3.759886E+03	1.866590E-04	1.090202E-05
3.769859E+03	1.897794E-04	1.108209E-05
3.779832E+03	1.929505E-04	1.126503E-05
3.789805E+03	1.961716E-04	1.145080E-05
3.799779E+03	1.994555E-04	1.164016E-05
3.809752E+03	2.027739E-04	1.183143E-05
3.819725E+03	2.061534E-04	1.202617E-05
3.829698E+03	2.095790E-04	1.222351E-05
3.839671E+03	2.130499E-04	1.242339E-05
3.849644E+03	2.165786E-04	1.262655E-05
3.859618E+03	2.201503E-04	1.283211E-05
3.869591E+03	2.237776E-04	1.304080E-05
3.879564E+03	2.274593E-04	1.325257E-05
3.889537E+03	2.311801E-04	1.346650E-05
3.899510E+03	2.349527E-04	1.368334E-05
3.909483E+03	2.387756E-04	1.390300E-05
3.919457E+03	2.426476E-04	1.412539E-05
3.929430E+03	2.465528E-04	1.434962E-05
3.939403E+03	2.505181E-04	1.457721E-05
3.949376E+03	2.545134E-04	1.480644E-05
3.959349E+03	2.585654E-04	1.503884E-05
3.969323E+03	2.626584E-04	1.527350E-05
3.979296E+03	2.667905E-04	1.551031E-05
3.989269E+03	2.709601E-04	1.574916E-05
3.999242E+03	2.751794E-04	1.599078E-05
4.009215E+03	2.794322E-04	1.623421E-05
4.019188E+03	2.837169E-04	1.647936E-05
4.029162E+03	2.880456E-04	1.672693E-05
4.039135E+03	2.924163E-04	1.697679E-05
4.049108E+03	2.967986E-04	1.722720E-05
4.059081E+03	3.012332E-04	1.748049E-05
4.069054E+03	3.056894E-04	1.773490E-05
4.079027E+03	3.101654E-04	1.799030E-05
4.089001E+03	3.146732E-04	1.824740E-05
4.098974E+03	3.192105E-04	1.850606E-05
4.108947E+03	3.237754E-04	1.876617E-05
4.118920E+03	3.283516E-04	1.902678E-05
4.128893E+03	3.329510E-04	1.928858E-05
4.138866E+03	3.375716E-04	1.955145E-05
4.148840E+03	3.421973E-04	1.981445E-05
4.158813E+03	3.468400E-04	2.007829E-05
4.168786E+03	3.514976E-04	2.034282E-05
4.178759E+03	3.561542E-04	2.060712E-05
4.188732E+03	3.608356E-04	2.087270E-05
4.198705E+03	3.654983E-04	2.113703E-05
4.208679E+03	3.701819E-04	2.140240E-05
4.218652E+03	3.748569E-04	2.166711E-05
4.228625E+03	3.795353E-04	2.193184E-05
4.238598E+03	3.842018E-04	2.219571E-05
4.248571E+03	3.888682E-04	2.245941E-05
4.258545E+03	3.935198E-04	2.272208E-05
4.268518E+03	3.981682E-04	2.298439E-05
4.278491E+03	4.027853E-04	2.324472E-05
4.288464E+03	4.074103E-04	2.350532E-05
4.298437E+03	4.120017E-04	2.376381E-05
4.308410E+03	4.165851E-04	2.402167E-05
4.318384E+03	4.211332E-04	2.427731E-05
4.328357E+03	4.256716E-04	2.453221E-05
4.338330E+03	4.301734E-04	2.478483E-05
4.348303E+03	4.346511E-04	2.503587E-05
4.358276E+03	4.391045E-04	2.528534E-05
4.368249E+03	4.435202E-04	2.553246E-05
4.378223E+03	4.479113E-04	2.577799E-05
4.388196E+03	4.522650E-04	2.602118E-05
4.398169E+03	4.565814E-04	2.626204E-05
4.408142E+03	4.608612E-04	2.650062E-05
4.418115E+03	4.651048E-04	2.673694E-05
4.428088E+03	4.693133E-04	2.697106E-05
4.438062E+03	4.734747E-04	2.720230E-05
4.448035E+03	4.776029E-04	2.743145E-05
4.458008E+03	4.816867E-04	2.765787E-05
4.467981E+03	4.857276E-04	2.788165E-05
4.477954E+03	4.897273E-04	2.810288E-05
4.487927E+03	4.936754E-04	2.832098E-05
4.497901E+03	4.975982E-04	2.853745E-05
4.507874E+03	5.014616E-04	2.875033E-05
4.517847E+03	5.052920E-04	2.896115E-05
4.527820E+03	5.090800E-04	2.916936E-05
4.537793E+03	5.128279E-04	2.937510E-05
4.547767E+03	5.165272E-04	2.957787E-05
4.557740E+03	5.201807E-04	2.977785E-05
4.567713E+03	5.238033E-04	2.997588E-05
4.577686E+03	5.273863E-04	3.017148E-05
4.587659E+03	5.309219E-04	3.036420E-05
4.597632E+03	5.344250E-04	3.055488E-05
4.607606E+03	5.378995E-04	3.074375E-05
4.617579E+03	5.413258E-04	3.092969E-05
4.627552E+03	5.447197E-04	3.111361E-05
4.637525E+03	5.480963E-04	3.129638E-05
4.647498E+03	5.514260E-04	3.147629E-05
4.657471E+03	5.547352E-04	3.165487E-05
4.667445E+03	5.580172E-04	3.183171E-05
4.677418E+03	5.612763E-04	3.200709E-05
4.687391E+03	5.645059E-04	3.218060E-05
4.697364E+03	5.677214E-04	3.235315E-05
4.707337E+03	5.709274E-04	3.252498E-05
4.717310E+03	5.741065E-04	3.269511E-05
4.727284E+03	5.772743E-04	3.286443E-05
4.737257E+03	5.804354E-04	3.303319E-05
4.747230E+03	5.835838E-04	3.320105E-05
4.757203E+03	5.867346E-04	3.336888E-05
4.767176E+03	5.898820E-04	3.353635E-05
4.777149E+03	5.930201E-04	3.370311E-05
4.787123E+03	5.961747E-04	3.387063E-05
4.797096E+03	5.993291E-04	3.403796E-05
4.807069E+03	6.024987E-04	3.420599E-05
4.817042E+03	6.056776E-04	3.437436E-05
4.827015E+03	6.088703E-04	3.454333E-05
4.836989E+03	6.120815E-04	3.471318E-05
4.846962E+03	6.153258E-04	3.488471E-05
4.856935E+03	6.185870E-04	3.505703E-05
4.866908E+03	6.218800E-04	3.523095E-05
4.876881E+03	6.251987E-04	3.540615E-05
4.886854E+03	6.285578E-04	3.558344E-05
4.896828E+03	6.319512E-04	3.576248E-05
4.906801E+03	6.353932E-04	3.594407E-05
4.916774E+03	6.388775E-04	3.612787E-05
4.926747E+03	6.424186E-04	3.631467E-05
4.936720E+03	6.460000E-04	3.650355E-05
4.946693E+03	6.496456E-04	3.669585E-05
4.956667E+03	6.533492E-04	3.689121E-05
4.966640E+03	6.571043E-04	3.708927E-05
4.976613E+03	6.609346E-04	3.729136E-05
4.986586E+03	6.648334E-04	3.749709E-05
4.996559E+03	6.688040E-04	3.770664E-05
5.006532E+03	6.728596E-04	3.792076E-05
5.016506E+03	6.769833E-04	3.813849E-05
5.026479E+03	6.811880E-04	3.836055E-05
5.036452E+03	6.854865E-04	3.858764E-05
5.046425E+03	6.898615E-04	3.881879E-05
5.056398E+03	6.943354E-04	3.905526E-05
5.066371E+03	6.989007E-04	3.929662E-05
5.076345E+03	7.035695E-04	3.954353E-05
5.086318E+03	7.083338E-04	3.979554E-05
5.096291E+03	7.131954E-04	4.005276E-05
5.106264E+03	7.181660E-04	4.031581E-05
5.116237E+03	7.232470E-04	4.058478E-05
5.126210E+03	7.284296E-04	4.085916E-05
5.136184E+03	7.337251E-04	4.113958E-05
5.146157E+03	7.391338E-04	4.142605E-05
5.156130E+03	7.446669E-04	4.171918E-05
5.166103E+03	7.503043E-04	4.201784E-05
5.176076E+03	7.560662E-04	4.232316E-05
5.186050E+03	7.619426E-04	4.263456E-05
5.196023E+03	7.679328E-04	4.295200E-05
5.205996E+03	7.740464E-04	4.327600E-05
5.215969E+03	7.802825E-04	4.360650E-05
5.225942E+03	7.866400E-04	4.394343E-05
5.235915E+03	7.931173E-04	4.428671E-05
5.245889E+03	7.997127E-04	4.463621E-05
5.255862E+03	8.064242E-04	4.499182E-05
5.265835E+03	8.132493E-04	4.535338E-05
5.275808E+03	8.201960E-04	4.572135E-05
5.285781E+03	8.272616E-04	4.609555E-05
5.295754E+03	8.344428E-04	4.647580E-05
5.305728E+03	8.417256E-04	4.686130E-05
5.315701E+03	8.491171E-04	4.725243E-05
5.325674E+03	8.566241E-04	4.764959E-05
5.335647E+03	8.642316E-04	4.805191E-05
5.345620E+03	8.719351E-04	4.845914E-05
5.355593E+03	8.797411E-04	4.887163E-05
5.365567E+03	8.876334E-04	4.928848E-05
5.375540E+03	8.956182E-04	4.971001E-05
5.385513E+03	9.036899E-04	5.013592E-05
5.395486E+03	9.118319E-04	5.056527E-05
5.405459E+03	9.200607E-04	5.099898E-05
5.415432E+03	9.283591E-04	5.143609E-05
5.425406E+03	9.367210E-04	5.187623E-05
5.435379E+03	9.451399E-04	5.231907E-05
5.445352E+03	9.536091E-04	5.276421E-05
5.455325E+03	9.621336E-04	5.321194E-05
5.465298E+03	9.706946E-04	5.366120E-05
5.475272E+03	9.792971E-04	5.411227E-05
5.485245E+03	9.879218E-04	5.456407E-05
5.495218E+03	9.965613E-04	5.501621E-05
5.505191E+03	1.005231E-03	5.546954E-05
5.515164E+03	1.013888E-03	5.592167E-05
5.525137E+03	1.022561E-03	5.637414E-05
5.535111E+03	1.031204E-03	5.682453E-05
5.545084E+03	1.039847E-03	5.727439E-05
5.555057E+03	1.048457E-03	5.772197E-05
5.565030E+03	1.057027E-03	5.816682E-05
5.575003E+03	1.065560E-03	5.860918E-05
5.584976E+03	1.074049E-03	5.904866E-05
5.594950E+03	1.082463E-03	5.948345E-05
5.604923E+03	1.090817E-03	5.991454E-05
5.614896E+03	1.099105E-03	6.034150E-05
5.624869E+03	1.107295E-03	6.076260E-05
5.634842E+03	1.115405E-03	6.117884E-05
5.644815E+03	1.123403E-03	6.158846E-05
5.654789E+03	1.131307E-03	6.199250E-05
5.664762E+03	1.139087E-03	6.238926E-05
5.674735E+03	1.146747E-03	6.277903E-05
5.684708E+03	1.154272E-03	6.316091E-05
5.694681E+03	1.161666E-03	6.353525E-05
5.704654E+03	1.168897E-03	6.390026E-05
5.714628E+03	1.175990E-03	6.425727E-05
5.724601E+03	1.182923E-03	6.460512E-05
5.734574E+03	1.189693E-03	6.494370E-05
5.744547E+03	1.196282E-03	6.527199E-05
5.754520E+03	1.202697E-03	6.559045E-05
5.764494E+03	1.208924E-03	6.589823E-05
5.774467E+03	1.214956E-03	6.619506E-05
5.784440E+03	1.220791E-03	6.648078E-05
5.794413E+03	1.226410E-03	6.675443E-05
5.804386E+03	1.231825E-03	6.701666E-05
5.814359E+03	1.237018E-03	6.726646E-05
5.824333E+03	1.241987E-03	6.750379E-05
5.834306E+03	1.246726E-03	6.772838E-05
5.844279E+03	1.251224E-03	6.793954E-05
5.854252E+03	1.255487E-03	6.813772E-05
5.864225E+03	1.259502E-03	6.832223E-05
5.874198E+03	1.263267E-03	6.849291E-05
5.884172E+03	1.266780E-03	6.864970E-05
5.894145E+03	1.270026E-03	6.879183E-05
5.904118E+03	1.273016E-03	6.891994E-05
5.914091E+03	1.275725E-03	6.903263E-05
5.924064E+03	1.278178E-03	6.913139E-05
5.934037E+03	1.280349E-03	6.921469E-05
5.944011E+03	1.282236E-03	6.928255E-05
5.953984E+03	1.283856E-03	6.933589E-05
5.963957E+03	1.285196E-03	6.937401E-05
5.973930E+03	1.286258E-03	6.939707E-05
5.983903E+03	1.287030E-03	6.940441E-05
5.993876E+03	1.287529E-03	6.939701E-05
6.003850E+03	1.287743E-03	6.937428E-05
6.013823E+03	1.287692E-03	6.933721E-05
6.023796E+03	1.287351E-03	6.928458E-05
6.033769E+03	1.286753E-03	6.921812E-05
6.043742E+03	1.285876E-03	6.913674E-05
6.053716E+03	1.284726E-03	6.904072E-05
6.063689E+03	1.283334E-03	6.893183E-05
6.073662E+03	1.281670E-03	6.880839E-05
6.083635E+03	1.279765E-03	6.867217E-05
6.093608E+03	1.277616E-03	6.852291E-05
6.103581E+03	1.275228E-03	6.836107E-05
6.113555E+03	1.272627E-03	6.818789E-05
6.123528E+03	1.269791E-03	6.800238E-05
6.133501E+03	1.266758E-03	6.780644E-05
6.143474E+03	1.263511E-03	6.759931E-05
6.153447E+03	1.260086E-03	6.738283E-05
6.163420E+03	1.256468E-03	6.715624E-05
6.173394E+03	1.252692E-03	6.692149E-05
6.183367E+03	1.248743E-03	6.667777E-05
6.193340E+03	1.244659E-03	6.642706E-05
6.203313E+03	1.240424E-03	6.616856E-05
6.213286E+03	1.236075E-03	6.590424E-05
6.223259E+03	1.231623E-03	6.563473E-05
6.233233E+03	1.227053E-03	6.535927E-05
6.243206E+03	1.222404E-03	6.507989E-05
6.253179E+03	1.217685E-03	6.479708E-05
6.263152E+03	1.212908E-03	6.451149E-05
6.273125E+03	1.208072E-03	6.422308E-05
6.283098E+03	1.203199E-03	6.393305E-05
6.293072E+03	1.198315E-03	6.364274E-05
6.303045E+03	1.193415E-03	6.335194E-05
6.313018E+03	1.188513E-03	6.306134E-05
6.322991E+03	1.183629E-03	6.277201E-05
6.332964E+03	1.178775E-03	6.248466E-05
6.342937E+03	1.173960E-03	6.219968E-05
6.352911E+03	1.169193E-03	6.191760E-05
6.362884E+03	1.164498E-03	6.163965E-05
6.372857E+03	1.159870E-03	6.136559E-05
6.382830E+03	1.155343E-03	6.109720E-05
6.392803E+03	1.150901E-03	6.083361E-05
6.402777E+03	1.146577E-03	6.057661E-05
6.412750E+03	1.142366E-03	6.032590E-05
6.422723E+03	1.138289E-03	6.008257E-05
6.432696E+03	1.134352E-03	5.984694E-05
6.442669E+03	1.130574E-03	5.962004E-05
6.452642E+03	1.126950E-03	5.940151E-05
6.462616E+03	1.123485E-03	5.919167E-05
6.472589E+03	1.120207E-03	5.899200E-05
6.482562E+03	1.117109E-03	5.880208E-05
6.492535E+03	1.114195E-03	5.862211E-05
6.502508E+03	1.111478E-03	5.845276E-05
6.512481E+03	1.108948E-03	5.829354E-05
6.522455E+03	1.106626E-03	5.814545E-05
6.532428E+03	1.104493E-03	5.800756E-05
6.542401E+03	1.102538E-03	5.787925E-05
6.552374E+03	1.100767E-03	5.776080E-05
6.562347E+03	1.099167E-03	5.765154E-05
6.572320E+03	1.097730E-03	5.755099E-05
6.582294E+03	1.096444E-03	5.745856E-05
6.592267E+03	1.095297E-03	5.737360E-05
6.602240E+03	1.094305E-03	5.729695E-05
6.612213E+03	1.093430E-03	5.722659E-05
6.622186E+03	1.092677E-03	5.716279E-05
6.632159E+03	1.092035E-03	5.710491E-05
6.642133E+03	1.091493E-03	5.705242E-05
6.652106E+03	1.091055E-03	5.700553E-05
6.662079E+03	1.090699E-03	5.696305E-05
6.672052E+03	1.090431E-03	5.692530E-05
6.682025E+03	1.090241E-03	5.689176E-05
6.691999E+03	1.090122E-03	5.686208E-05
6.701972E+03	1.090069E-03	5.683592E-05
6.711945E+03	1.090073E-03	5.681293E-05
6.721918E+03	1.090130E-03	5.679276E-05
6.731891E+03	1.090246E-03	5.677580E-05
6.741864E+03	1.090404E-03	5.676115E-05
6.751838E+03	1.090612E-03	5.674920E-05
6.761811E+03	1.090864E-03	5.673971E-05
6.771784E+03	1.091148E-03	5.673195E-05
6.781757E+03	1.091483E-03	5.672694E-05
6.791730E+03	1.091840E-03	5.672321E-05
6.801703E+03	1.092231E-03	5.672136E-05
6.811677E+03	1.092652E-03	5.672119E-05
6.821650E+03	1.093103E-03	5.672263E-05
6.831623E+03	1.093580E-03	5.672557E-05
6.841596E+03	1.094095E-03	5.673062E-05
6.851569E+03	1.094621E-03	5.673633E-05
6.861542E+03	1.095183E-03	5.674398E-05
6.871516E+03	1.095778E-03	5.675347E-05
6.881489E+03	1.096381E-03	5.676350E-05
6.891462E+03	1.097017E-03	5.677531E-05
6.901435E+03	1.097671E-03	5.678817E-05
6.911408E+03	1.098355E-03	5.680269E-05
6.921381E+03	1.099043E-03	5.681755E-05
6.931355E+03	1.099772E-03	5.683462E-05
6.941328E+03	1.100503E-03	5.685192E-05
6.951301E+03	1.101275E-03	5.687144E-05
6.961274E+03	1.102047E-03	5.689107E-05
6.971247E+03	1.102844E-03	5.691210E-05
6.981221E+03	1.103651E-03	5.693375E-05
6.991194E+03	1.104481E-03	5.695673E-05
7.001167E+03	1.105321E-03	5.698029E-05
7.011140E+03	1.106167E-03	5.700431E-05
7.021113E+03	1.107031E-03	5.702940E-05
7.031086E+03	1.107899E-03	5.705480E-05
7.041060E+03	1.108770E-03	5.708044E-05
7.051033E+03	1.109641E-03	5.710624E-05
7.061006E+03	1.110523E-03	5.713274E-05
7.070979E+03	1.111402E-03	5.715922E-05
7.080952E+03	1.112275E-03	5.718549E-05
7.090925E+03	1.113155E-03	5.721225E-05
7.100899E+03	1.114010E-03	5.723787E-05
7.110872E+03	1.114865E-03	5.726366E-05
7.120845E+03	1.115692E-03	5.728811E-05
7.130818E+03	1.116515E-03	5.731253E-05
7.140791E+03	1.117318E-03	5.733606E-05
7.150764E+03	1.118099E-03	5.735859E-05
7.160738E+03	1.118839E-03	5.737921E-05
7.170711E+03	1.119568E-03	5.739939E-05
7.180684E+03	1.120250E-03	5.741735E-05
7.190657E+03	1.120916E-03	5.743462E-05
7.200630E+03	1.121532E-03	5.744953E-05
7.210603E+03	1.122112E-03	5.746274E-05
7.220577E+03	1.122652E-03	5.747408E-05
7.230550E+03	1.123137E-03	5.748277E-05
7.240523E+03	1.123592E-03	5.749017E-05
7.250496E+03	1.123974E-03	5.749396E-05
7.260469E+03	1.124323E-03	5.749632E-05
7.270443E+03	1.124610E-03	5.749568E-05
7.280416E+03	1.124848E-03	5.749271E-05
7.290389E+03	1.125020E-03	5.748662E-05
7.300362E+03	1.125141E-03	5.747811E-05
7.310335E+03	1.125195E-03	5.746639E-05
7.320308E+03	1.125195E-03	5.745217E-05
7.330282E+03	1.125127E-03	5.743466E-05
7.340255E+03	1.124990E-03	5.741387E-05
7.350228E+03	1.124813E-03	5.739131E-05
7.360201E+03	1.124552E-03	5.736464E-05
7.370174E+03	1.124235E-03	5.733542E-05
7.380147E+03	1.123849E-03	5.730292E-05
7.390121E+03	1.123393E-03	5.726709E-05
7.400094E+03	1.122881E-03	5.722870E-05
7.410067E+03	1.122299E-03	5.718696E-05
7.420040E+03	1.121648E-03	5.714198E-05
7.430013E+03	1.120940E-03	5.709442E-05
7.439986E+03	1.120162E-03	5.704355E-05
7.449960E+03	1.119313E-03	5.698931E-05
7.459933E+03	1.118407E-03	5.693253E-05
7.469906E+03	1.117415E-03	5.687161E-05
7.479879E+03	1.116366E-03	5.680812E-05
7.489852E+03	1.115259E-03	5.674196E-05
7.499825E+03	1.114063E-03	5.667158E-05
7.509799E+03	1.112807E-03	5.659846E-05
7.519772E+03	1.111475E-03	5.652179E-05
7.529745E+03	1.110065E-03	5.644148E-05
7.539718E+03	1.108593E-03	5.635835E-05
7.549691E+03	1.107024E-03	5.627058E-05
7.559665E+03	1.105389E-03	5.617985E-05
7.569638E+03	1.103688E-03	5.608606E-05
7.579611E+03	1.101884E-03	5.598742E-05
7.589584E+03	1.100011E-03	5.588557E-05
7.599557E+03	1.098065E-03	5.578037E-05
7.609530E+03	1.096013E-03	5.567014E-05
7.619504E+03	1.093886E-03	5.555647E-05
7.629477E+03	1.091666E-03	5.543842E-05
7.639450E+03	1.089367E-03	5.531675E-05
7.649423E+03	1.086974E-03	5.519066E-05
7.659396E+03	1.084484E-03	5.506001E-05
7.669369E+03	1.081915E-03	5.492571E-05
7.679343E+03	1.079248E-03	5.478682E-05
7.689316E+03	1.076484E-03	5.464339E-05
7.699289E+03	1.073639E-03	5.449623E-05
7.709262E+03	1.070699E-03	5.434460E-05
7.719235E+03	1.067678E-03	5.418931E-05
7.729208E+03	1.064566E-03	5.402973E-05
7.739182E+03	1.061379E-03	5.386676E-05
