#wls	flux	fluxerr
1.595708E+03	6.796944E-06	9.553575E-07
1.635600E+03	6.966543E-06	9.789487E-07
1.675493E+03	7.149239E-06	1.004357E-06
1.715386E+03	7.341510E-06	1.031086E-06
1.755278E+03	7.545959E-06	1.059499E-06
1.795171E+03	7.763204E-06	1.089678E-06
1.835064E+03	7.993901E-06	1.121715E-06
1.874956E+03	8.236590E-06	1.155399E-06
1.914849E+03	8.496297E-06	1.191433E-06
1.954742E+03	8.769459E-06	1.229314E-06
1.994634E+03	9.061300E-06	1.269769E-06
2.034527E+03	9.370512E-06	1.312609E-06
2.074420E+03	9.698020E-06	1.357961E-06
2.114312E+03	1.004479E-05	1.405953E-06
2.154205E+03	1.041425E-05	1.457058E-06
2.194098E+03	1.080517E-05	1.511098E-06
2.233991E+03	1.121867E-05	1.568223E-06
2.273883E+03	1.165849E-05	1.628946E-06
2.313776E+03	1.212343E-05	1.693092E-06
2.353669E+03	1.261743E-05	1.761202E-06
2.393561E+03	1.314202E-05	1.833479E-06
2.433454E+03	1.369881E-05	1.910133E-06
2.473347E+03	1.428944E-05	1.991385E-06
2.513239E+03	1.491853E-05	2.077859E-06
2.553132E+03	1.558511E-05	2.169411E-06
2.593025E+03	1.629108E-05	2.266283E-06
2.632917E+03	1.704447E-05	2.369579E-06
2.672810E+03	1.784139E-05	2.478733E-06
2.712703E+03	1.869352E-05	2.595351E-06
2.752596E+03	1.959703E-05	2.718872E-06
2.792488E+03	2.055758E-05	2.850059E-06
2.832381E+03	2.158471E-05	2.990201E-06
2.872274E+03	2.267795E-05	3.139204E-06
2.912166E+03	2.384015E-05	3.297423E-06
2.952059E+03	2.508532E-05	3.466761E-06
2.991952E+03	2.640936E-05	3.646604E-06
3.001925E+03	2.675655E-05	3.693733E-06
3.011898E+03	2.710722E-05	3.741315E-06
3.021871E+03	2.746532E-05	3.789895E-06
3.031844E+03	2.782699E-05	3.838938E-06
3.041818E+03	2.819619E-05	3.888991E-06
3.051791E+03	2.857302E-05	3.940065E-06
3.061764E+03	2.895355E-05	3.991619E-06
3.071737E+03	2.934181E-05	4.044207E-06
3.081710E+03	2.973790E-05	4.097841E-06
3.091683E+03	3.013779E-05	4.151966E-06
3.101657E+03	3.054561E-05	4.207149E-06
3.111630E+03	3.096144E-05	4.263401E-06
3.121603E+03	3.138117E-05	4.320154E-06
3.131576E+03	3.181323E-05	4.378567E-06
3.141549E+03	3.224928E-05	4.437494E-06
3.151522E+03	3.269360E-05	4.497518E-06
3.161496E+03	3.314193E-05	4.558057E-06
3.171469E+03	3.360296E-05	4.620301E-06
3.181442E+03	3.406809E-05	4.683068E-06
3.191415E+03	3.454608E-05	4.747562E-06
3.201388E+03	3.502827E-05	4.812587E-06
3.211361E+03	3.551907E-05	4.878753E-06
3.221335E+03	3.601852E-05	4.946063E-06
3.231308E+03	3.652671E-05	5.014525E-06
3.241281E+03	3.704368E-05	5.084146E-06
3.251254E+03	3.756947E-05	5.154930E-06
3.261227E+03	3.810417E-05	5.226884E-06
3.271200E+03	3.864777E-05	5.300011E-06
3.281174E+03	3.920037E-05	5.374319E-06
3.291147E+03	3.976663E-05	5.450446E-06
3.301120E+03	4.033731E-05	5.527126E-06
3.311093E+03	4.092180E-05	5.605642E-06
3.321066E+03	4.151070E-05	5.684704E-06
3.331040E+03	4.211354E-05	5.765617E-06
3.341013E+03	4.272559E-05	5.847730E-06
3.350986E+03	4.334687E-05	5.931047E-06
3.360959E+03	4.398228E-05	6.016234E-06
3.370932E+03	4.462700E-05	6.102630E-06
3.380905E+03	4.528104E-05	6.190234E-06
3.390879E+03	4.594439E-05	6.279044E-06
3.400852E+03	4.662205E-05	6.369742E-06
3.410825E+03	4.730907E-05	6.461647E-06
3.420798E+03	4.801046E-05	6.555443E-06
3.430771E+03	4.872123E-05	6.650447E-06
3.440744E+03	4.944135E-05	6.746649E-06
3.450718E+03	5.017590E-05	6.844745E-06
3.460691E+03	5.092494E-05	6.944739E-06
3.470664E+03	5.168331E-05	7.045923E-06
3.480637E+03	5.245095E-05	7.148289E-06
3.490610E+03	5.323830E-05	7.253255E-06
3.500583E+03	5.403490E-05	7.359396E-06
3.510557E+03	5.484068E-05	7.466699E-06
3.520530E+03	5.566089E-05	7.575875E-06
3.530503E+03	5.649551E-05	7.686921E-06
3.540476E+03	5.734453E-05	7.799830E-06
3.550449E+03	5.820793E-05	7.914599E-06
3.560422E+03	5.908021E-05	8.030475E-06
3.570396E+03	5.996672E-05	8.148185E-06
3.580369E+03	6.086741E-05	8.267719E-06
3.590342E+03	6.178221E-05	8.389062E-06
3.600315E+03	6.271105E-05	8.512205E-06
3.610288E+03	6.365385E-05	8.637132E-06
3.620261E+03	6.461050E-05	8.763824E-06
3.630235E+03	6.557529E-05	8.891507E-06
3.640208E+03	6.655930E-05	9.021678E-06
3.650181E+03	6.755683E-05	9.153559E-06
3.660154E+03	6.856772E-05	9.287131E-06
3.670127E+03	6.959755E-05	9.423140E-06
3.680101E+03	7.063475E-05	9.560020E-06
3.690074E+03	7.169060E-05	9.699292E-06
3.700047E+03	7.275917E-05	9.840154E-06
3.710020E+03	7.384031E-05	9.982578E-06
3.719993E+03	7.493379E-05	1.012653E-05
3.729966E+03	7.604525E-05	1.027277E-05
3.739940E+03	7.716863E-05	1.042048E-05
3.749913E+03	7.830960E-05	1.057042E-05
3.759886E+03	7.946203E-05	1.072175E-05
3.769859E+03	8.062566E-05	1.087444E-05
3.779832E+03	8.180618E-05	1.102926E-05
3.789805E+03	8.300333E-05	1.118615E-05
3.799779E+03	8.421087E-05	1.134429E-05
3.809752E+03	8.542851E-05	1.150362E-05
3.819725E+03	8.666192E-05	1.166490E-05
3.829698E+03	8.791083E-05	1.182811E-05
3.839671E+03	8.916886E-05	1.199236E-05
3.849644E+03	9.044174E-05	1.215843E-05
3.859618E+03	9.172913E-05	1.232628E-05
3.869591E+03	9.303071E-05	1.249585E-05
3.879564E+03	9.433998E-05	1.266626E-05
3.889537E+03	9.566270E-05	1.283829E-05
3.899510E+03	9.699846E-05	1.301188E-05
3.909483E+03	9.834075E-05	1.318615E-05
3.919457E+03	9.970147E-05	1.336269E-05
3.929430E+03	1.010679E-04	1.353979E-05
3.939403E+03	1.024457E-04	1.371822E-05
3.949376E+03	1.038407E-04	1.389875E-05
3.959349E+03	1.052402E-04	1.407965E-05
3.969323E+03	1.066498E-04	1.426169E-05
3.979296E+03	1.080690E-04	1.444480E-05
3.989269E+03	1.094913E-04	1.462811E-05
3.999242E+03	1.109285E-04	1.481319E-05
4.009215E+03	1.123741E-04	1.499915E-05
4.019188E+03	1.138275E-04	1.518593E-05
4.029162E+03	1.152883E-04	1.537346E-05
4.039135E+03	1.167560E-04	1.556168E-05
4.049108E+03	1.182301E-04	1.575051E-05
4.059081E+03	1.197101E-04	1.593989E-05
4.069054E+03	1.211956E-04	1.612975E-05
4.079027E+03	1.226861E-04	1.632004E-05
4.089001E+03	1.241812E-04	1.651067E-05
4.098974E+03	1.256865E-04	1.670242E-05
4.108947E+03	1.271892E-04	1.689357E-05
4.118920E+03	1.286950E-04	1.708487E-05
4.128893E+03	1.302098E-04	1.727710E-05
4.138866E+03	1.317206E-04	1.746854E-05
4.148840E+03	1.332332E-04	1.765995E-05
4.158813E+03	1.347535E-04	1.785211E-05
4.168786E+03	1.362685E-04	1.804330E-05
4.178759E+03	1.377903E-04	1.823512E-05
4.188732E+03	1.393062E-04	1.842588E-05
4.198705E+03	1.408282E-04	1.861716E-05
4.208679E+03	1.423434E-04	1.880728E-05
4.218652E+03	1.438640E-04	1.899782E-05
4.228625E+03	1.453774E-04	1.918712E-05
4.238598E+03	1.468893E-04	1.937594E-05
4.248571E+03	1.483997E-04	1.956426E-05
4.258545E+03	1.499081E-04	1.975205E-05
4.268518E+03	1.514082E-04	1.993844E-05
4.278491E+03	1.529122E-04	2.012506E-05
4.288464E+03	1.544075E-04	2.031023E-05
4.298437E+03	1.559004E-04	2.049478E-05
4.308410E+03	1.573845E-04	2.067788E-05
4.318384E+03	1.588657E-04	2.086030E-05
4.328357E+03	1.603442E-04	2.104206E-05
4.338330E+03	1.618137E-04	2.122234E-05
4.348303E+03	1.632806E-04	2.140197E-05
4.358276E+03	1.647387E-04	2.158013E-05
4.368249E+03	1.661941E-04	2.175765E-05
4.378223E+03	1.676410E-04	2.193372E-05
4.388196E+03	1.690797E-04	2.210843E-05
4.398169E+03	1.705102E-04	2.228173E-05
4.408142E+03	1.719388E-04	2.245449E-05
4.418115E+03	1.733599E-04	2.262595E-05
4.428088E+03	1.747737E-04	2.279614E-05
4.438062E+03	1.761749E-04	2.296436E-05
4.448035E+03	1.775755E-04	2.313219E-05
4.458008E+03	1.789700E-04	2.329891E-05
4.467981E+03	1.803531E-04	2.346382E-05
4.477954E+03	1.817312E-04	2.362776E-05
4.487927E+03	1.831049E-04	2.379080E-05
4.497901E+03	1.844747E-04	2.395301E-05
4.507874E+03	1.858354E-04	2.411371E-05
4.517847E+03	1.871878E-04	2.427301E-05
4.527820E+03	1.885382E-04	2.443172E-05
4.537793E+03	1.898819E-04	2.458923E-05
4.547767E+03	1.912193E-04	2.474560E-05
4.557740E+03	1.925571E-04	2.490167E-05
4.567713E+03	1.938848E-04	2.505611E-05
4.577686E+03	1.952146E-04	2.521049E-05
4.587659E+03	1.965360E-04	2.536344E-05
4.597632E+03	1.978556E-04	2.551582E-05
4.607606E+03	1.991745E-04	2.566777E-05
4.617579E+03	2.004934E-04	2.581937E-05
4.627552E+03	2.018079E-04	2.597006E-05
4.637525E+03	2.031247E-04	2.612070E-05
4.647498E+03	2.044392E-04	2.627069E-05
4.657471E+03	2.057578E-04	2.642086E-05
4.667445E+03	2.070762E-04	2.657065E-05
4.677418E+03	2.083958E-04	2.672023E-05
4.687391E+03	2.097175E-04	2.686972E-05
4.697364E+03	2.110425E-04	2.701927E-05
4.707337E+03	2.123718E-04	2.716901E-05
4.717310E+03	2.137068E-04	2.731909E-05
4.727284E+03	2.150484E-04	2.746967E-05
4.737257E+03	2.163980E-04	2.762087E-05
4.747230E+03	2.177515E-04	2.777219E-05
4.757203E+03	2.191152E-04	2.792444E-05
4.767176E+03	2.204852E-04	2.807709E-05
4.777149E+03	2.218678E-04	2.823097E-05
4.787123E+03	2.232591E-04	2.838555E-05
4.797096E+03	2.246602E-04	2.854097E-05
4.807069E+03	2.260778E-04	2.869808E-05
4.817042E+03	2.275023E-04	2.885565E-05
4.827015E+03	2.289453E-04	2.901517E-05
4.836989E+03	2.304031E-04	2.917613E-05
4.846962E+03	2.318715E-04	2.933800E-05
4.856935E+03	2.333620E-04	2.950224E-05
4.866908E+03	2.348708E-04	2.966834E-05
4.876881E+03	2.363935E-04	2.983576E-05
4.886854E+03	2.379367E-04	3.000532E-05
4.896828E+03	2.394962E-04	3.017647E-05
4.906801E+03	2.410836E-04	3.035067E-05
4.916774E+03	2.426843E-04	3.052607E-05
4.926747E+03	2.443149E-04	3.070475E-05
4.936720E+03	2.459662E-04	3.088554E-05
4.946693E+03	2.476390E-04	3.106854E-05
4.956667E+03	2.493345E-04	3.125388E-05
4.966640E+03	2.510639E-04	3.144294E-05
4.976613E+03	2.528126E-04	3.163391E-05
4.986586E+03	2.545868E-04	3.182755E-05
4.996559E+03	2.563923E-04	3.202454E-05
5.006532E+03	2.582250E-04	3.222439E-05
5.016506E+03	2.600906E-04	3.242780E-05
5.026479E+03	2.619798E-04	3.263356E-05
5.036452E+03	2.639035E-04	3.284305E-05
5.046425E+03	2.658520E-04	3.305504E-05
5.056398E+03	2.678363E-04	3.327088E-05
5.066371E+03	2.698519E-04	3.349000E-05
5.076345E+03	2.718992E-04	3.371244E-05
5.086318E+03	2.739787E-04	3.393824E-05
5.096291E+03	2.760910E-04	3.416745E-05
5.106264E+03	2.782363E-04	3.440010E-05
5.116237E+03	2.804149E-04	3.463621E-05
5.126210E+03	2.826273E-04	3.487580E-05
5.136184E+03	2.848788E-04	3.511954E-05
5.146157E+03	2.871590E-04	3.536612E-05
5.156130E+03	2.894733E-04	3.561619E-05
5.166103E+03	2.918219E-04	3.586975E-05
5.176076E+03	2.942046E-04	3.612677E-05
5.186050E+03	2.966214E-04	3.638724E-05
5.196023E+03	2.990722E-04	3.665112E-05
5.205996E+03	3.015567E-04	3.691836E-05
5.215969E+03	3.040748E-04	3.718891E-05
5.225942E+03	3.066261E-04	3.746275E-05
5.235915E+03	3.092102E-04	3.773979E-05
5.245889E+03	3.118267E-04	3.801995E-05
5.255862E+03	3.144752E-04	3.830319E-05
5.265835E+03	3.171550E-04	3.858941E-05
5.275808E+03	3.198658E-04	3.887854E-05
5.285781E+03	3.226068E-04	3.917047E-05
5.295754E+03	3.253774E-04	3.946512E-05
5.305728E+03	3.281768E-04	3.976238E-05
5.315701E+03	3.310044E-04	4.006215E-05
5.325674E+03	3.338595E-04	4.036434E-05
5.335647E+03	3.367412E-04	4.066883E-05
5.345620E+03	3.396543E-04	4.097617E-05
5.355593E+03	3.425868E-04	4.128491E-05
5.365567E+03	3.455435E-04	4.159561E-05
5.375540E+03	3.485292E-04	4.190883E-05
5.385513E+03	3.515317E-04	4.222311E-05
5.395486E+03	3.545615E-04	4.253968E-05
5.405459E+03	3.576062E-04	4.285704E-05
5.415432E+03	3.606767E-04	4.317648E-05
5.425406E+03	3.637661E-04	4.349718E-05
5.435379E+03	3.668676E-04	4.381831E-05
5.445352E+03	3.699919E-04	4.414112E-05
5.455325E+03	3.731319E-04	4.446478E-05
5.465298E+03	3.762864E-04	4.478911E-05
5.475272E+03	3.794539E-04	4.511394E-05
5.485245E+03	3.826325E-04	4.543902E-05
5.495218E+03	3.858202E-04	4.576412E-05
5.505191E+03	3.890147E-04	4.608895E-05
5.515164E+03	3.922134E-04	4.641321E-05
5.525137E+03	3.954137E-04	4.673656E-05
5.535111E+03	3.986126E-04	4.705867E-05
5.545084E+03	4.018012E-04	4.737848E-05
5.555057E+03	4.049888E-04	4.769708E-05
5.565030E+03	4.081663E-04	4.801339E-05
5.575003E+03	4.113244E-04	4.832634E-05
5.584976E+03	4.144725E-04	4.863704E-05
5.594950E+03	4.175956E-04	4.894370E-05
5.604923E+03	4.206967E-04	4.924670E-05
5.614896E+03	4.237731E-04	4.954574E-05
5.624869E+03	4.268158E-04	4.983976E-05
5.634842E+03	4.298281E-04	5.012918E-05
5.644815E+03	4.328077E-04	5.041372E-05
5.654789E+03	4.357521E-04	5.069309E-05
5.664762E+03	4.386522E-04	5.096628E-05
5.674735E+03	4.415122E-04	5.123377E-05
5.684708E+03	4.443231E-04	5.149455E-05
5.694681E+03	4.470829E-04	5.174840E-05
5.704654E+03	4.497959E-04	5.199583E-05
5.714628E+03	4.524601E-04	5.223665E-05
5.724601E+03	4.550670E-04	5.246987E-05
5.734574E+03	4.576148E-04	5.269534E-05
5.744547E+03	4.601016E-04	5.291283E-05
5.754520E+03	4.625327E-04	5.312301E-05
5.764494E+03	4.648929E-04	5.332416E-05
5.774467E+03	4.671943E-04	5.351766E-05
5.784440E+03	4.694289E-04	5.370267E-05
5.794413E+03	4.715954E-04	5.387902E-05
5.804386E+03	4.736926E-04	5.404666E-05
5.814359E+03	4.757198E-04	5.420550E-05
5.824333E+03	4.776691E-04	5.435469E-05
5.834306E+03	4.795530E-04	5.449569E-05
5.844279E+03	4.813577E-04	5.462696E-05
5.854252E+03	4.830893E-04	5.474921E-05
5.864225E+03	4.847402E-04	5.486166E-05
5.874198E+03	4.863172E-04	5.496507E-05
5.884172E+03	4.878199E-04	5.505946E-05
5.894145E+03	4.892413E-04	5.514407E-05
5.904118E+03	4.905883E-04	5.521972E-05
5.914091E+03	4.918542E-04	5.528568E-05
5.924064E+03	4.930392E-04	5.534202E-05
5.934037E+03	4.941505E-04	5.538960E-05
5.944011E+03	4.951817E-04	5.542772E-05
5.953984E+03	4.961403E-04	5.545727E-05
5.963957E+03	4.970131E-04	5.547682E-05
5.973930E+03	4.978149E-04	5.548805E-05
5.983903E+03	4.985329E-04	5.548959E-05
5.993876E+03	4.991820E-04	5.548311E-05
6.003850E+03	4.997563E-04	5.546802E-05
6.013823E+03	5.002573E-04	5.544451E-05
6.023796E+03	5.006864E-04	5.541278E-05
6.033769E+03	5.010384E-04	5.537229E-05
6.043742E+03	5.013287E-04	5.532478E-05
6.053716E+03	5.015522E-04	5.526973E-05
6.063689E+03	5.017039E-04	5.520662E-05
6.073662E+03	5.017996E-04	5.513723E-05
6.083635E+03	5.018278E-04	5.506031E-05
6.093608E+03	5.017975E-04	5.497691E-05
6.103581E+03	5.017111E-04	5.488732E-05
6.113555E+03	5.015641E-04	5.479107E-05
6.123528E+03	5.013727E-04	5.468997E-05
6.133501E+03	5.011259E-04	5.458283E-05
6.143474E+03	5.008330E-04	5.447071E-05
6.153447E+03	5.004969E-04	5.435396E-05
6.163420E+03	5.001202E-04	5.423288E-05
6.173394E+03	4.996990E-04	5.410707E-05
6.183367E+03	4.992499E-04	5.397835E-05
6.193340E+03	4.987620E-04	5.384557E-05
6.203313E+03	4.982451E-04	5.370981E-05
6.213286E+03	4.977022E-04	5.357140E-05
6.223259E+03	4.971362E-04	5.343070E-05
6.233233E+03	4.965501E-04	5.328802E-05
6.243206E+03	4.959468E-04	5.314369E-05
6.253179E+03	4.953226E-04	5.299734E-05
6.263152E+03	4.946938E-04	5.285072E-05
6.273125E+03	4.940567E-04	5.270345E-05
6.283098E+03	4.934139E-04	5.255582E-05
6.293072E+03	4.927684E-04	5.240815E-05
6.303045E+03	4.921230E-04	5.226074E-05
6.313018E+03	4.914868E-04	5.211458E-05
6.322991E+03	4.908493E-04	5.196854E-05
6.332964E+03	4.902261E-04	5.182429E-05
6.342937E+03	4.896198E-04	5.168209E-05
6.352911E+03	4.890259E-04	5.154149E-05
6.362884E+03	4.884467E-04	5.140271E-05
6.372857E+03	4.878907E-04	5.126666E-05
6.382830E+03	4.873534E-04	5.113285E-05
6.392803E+03	4.868430E-04	5.100214E-05
6.402777E+03	4.863613E-04	5.087471E-05
6.412750E+03	4.859097E-04	5.075072E-05
6.422723E+03	4.854826E-04	5.062955E-05
6.432696E+03	4.850880E-04	5.051204E-05
6.442669E+03	4.847333E-04	5.039896E-05
6.452642E+03	4.844061E-04	5.028900E-05
6.462616E+03	4.841135E-04	5.018290E-05
6.472589E+03	4.838625E-04	5.008137E-05
6.482562E+03	4.836471E-04	4.998378E-05
6.492535E+03	4.834673E-04	4.989012E-05
6.502508E+03	4.833235E-04	4.980043E-05
6.512481E+03	4.832225E-04	4.971539E-05
6.522455E+03	4.831642E-04	4.963498E-05
6.532428E+03	4.831418E-04	4.955849E-05
6.542401E+03	4.831617E-04	4.948658E-05
6.552374E+03	4.832168E-04	4.941851E-05
6.562347E+03	4.833136E-04	4.935492E-05
6.572320E+03	4.834513E-04	4.929573E-05
6.582294E+03	4.836297E-04	4.924089E-05
6.592267E+03	4.838479E-04	4.919030E-05
6.602240E+03	4.841122E-04	4.914456E-05
6.612213E+03	4.844079E-04	4.910219E-05
6.622186E+03	4.847410E-04	4.906376E-05
6.632159E+03	4.851172E-04	4.902984E-05
6.642133E+03	4.855285E-04	4.899960E-05
6.652106E+03	4.859808E-04	4.897361E-05
6.662079E+03	4.864588E-04	4.895033E-05
6.672052E+03	4.869822E-04	4.893171E-05
6.682025E+03	4.875357E-04	4.891621E-05
6.691999E+03	4.881250E-04	4.890439E-05
6.701972E+03	4.887418E-04	4.889539E-05
6.711945E+03	4.893917E-04	4.888978E-05
6.721918E+03	4.900734E-04	4.888739E-05
6.731891E+03	4.907857E-04	4.888811E-05
6.741864E+03	4.915272E-04	4.889178E-05
6.751838E+03	4.922967E-04	4.889828E-05
6.761811E+03	4.930860E-04	4.890677E-05
6.771784E+03	4.939079E-04	4.891852E-05
6.781757E+03	4.947542E-04	4.893271E-05
6.791730E+03	4.956237E-04	4.894921E-05
6.801703E+03	4.965227E-04	4.896863E-05
6.811677E+03	4.974355E-04	4.898943E-05
6.821650E+03	4.983755E-04	4.901291E-05
6.831623E+03	4.993421E-04	4.903900E-05
6.841596E+03	5.003194E-04	4.906615E-05
6.851569E+03	5.013211E-04	4.909568E-05
6.861542E+03	5.023465E-04	4.912753E-05
6.871516E+03	5.033873E-04	4.916088E-05
6.881489E+03	5.044500E-04	4.919636E-05
6.891462E+03	5.055263E-04	4.923316E-05
6.901435E+03	5.066230E-04	4.927194E-05
6.911408E+03	5.077316E-04	4.931187E-05
6.921381E+03	5.088592E-04	4.935363E-05
6.931355E+03	5.100046E-04	4.939711E-05
6.941328E+03	5.111598E-04	4.944154E-05
6.951301E+03	5.123390E-04	4.948828E-05
6.961274E+03	5.135187E-04	4.953507E-05
6.971247E+03	5.147213E-04	4.958407E-05
6.981221E+03	5.159382E-04	4.963445E-05
6.991194E+03	5.171608E-04	4.968539E-05
7.001167E+03	5.183963E-04	4.973758E-05
7.011140E+03	5.196440E-04	4.979095E-05
7.021113E+03	5.209029E-04	4.984541E-05
7.031086E+03	5.221726E-04	4.990093E-05
7.041060E+03	5.234520E-04	4.995740E-05
7.051033E+03	5.247407E-04	5.001480E-05
7.061006E+03	5.260294E-04	5.007225E-05
7.070979E+03	5.273339E-04	5.013124E-05
7.080952E+03	5.286370E-04	5.019016E-05
7.090925E+03	5.299543E-04	5.025048E-05
7.100899E+03	5.312684E-04	5.031058E-05
7.110872E+03	5.325871E-04	5.037119E-05
7.120845E+03	5.339176E-04	5.043301E-05
7.130818E+03	5.352426E-04	5.049440E-05
7.140791E+03	5.365780E-04	5.055689E-05
7.150764E+03	5.379064E-04	5.061884E-05
7.160738E+03	5.392438E-04	5.068176E-05
7.170711E+03	5.405723E-04	5.074400E-05
7.180684E+03	5.419085E-04	5.080710E-05
7.190657E+03	5.432344E-04	5.086942E-05
7.200630E+03	5.445665E-04	5.093248E-05
7.210603E+03	5.458870E-04	5.099465E-05
7.220577E+03	5.472124E-04	5.105750E-05
7.230550E+03	5.485336E-04	5.112016E-05
7.240523E+03	5.498409E-04	5.118178E-05
7.250496E+03	5.511516E-04	5.124395E-05
7.260469E+03	5.524561E-04	5.130581E-05
7.270443E+03	5.537542E-04	5.136736E-05
7.280416E+03	5.550451E-04	5.142855E-05
7.290389E+03	5.563285E-04	5.148935E-05
7.300362E+03	5.576039E-04	5.154974E-05
7.310335E+03	5.588710E-04	5.160972E-05
7.320308E+03	5.601294E-04	5.166926E-05
7.330282E+03	5.613787E-04	5.172835E-05
7.340255E+03	5.626278E-04	5.178783E-05
7.350228E+03	5.638582E-04	5.184600E-05
7.360201E+03	5.650786E-04	5.190370E-05
7.370174E+03	5.662889E-04	5.196093E-05
7.380147E+03	5.674982E-04	5.201856E-05
7.390121E+03	5.686876E-04	5.207486E-05
7.400094E+03	5.698758E-04	5.213159E-05
7.410067E+03	5.710436E-04	5.218698E-05
7.420040E+03	5.722101E-04	5.224283E-05
7.430013E+03	5.733654E-04	5.229824E-05
7.439986E+03	5.744998E-04	5.235235E-05
7.449960E+03	5.756327E-04	5.240695E-05
7.459933E+03	5.767541E-04	5.246117E-05
7.469906E+03	5.778639E-04	5.251501E-05
7.479879E+03	5.789522E-04	5.256759E-05
7.489852E+03	5.800386E-04	5.262073E-05
7.499825E+03	5.811132E-04	5.267354E-05
7.509799E+03	5.821757E-04	5.272603E-05
7.519772E+03	5.832263E-04	5.277822E-05
7.529745E+03	5.842645E-04	5.283013E-05
7.539718E+03	5.852906E-04	5.288178E-05
7.549691E+03	5.863044E-04	5.293318E-05
7.559665E+03	5.873055E-04	5.298435E-05
7.569638E+03	5.883044E-04	5.303622E-05
7.579611E+03	5.892806E-04	5.308699E-05
7.589584E+03	5.902438E-04	5.313756E-05
7.599557E+03	5.911941E-04	5.318798E-05
7.609530E+03	5.921423E-04	5.323922E-05
7.619504E+03	5.930668E-04	5.328939E-05
7.629477E+03	5.939892E-04	5.334043E-05
7.639450E+03	5.948877E-04	5.339044E-05
7.649423E+03	5.957838E-04	5.344135E-05
7.659396E+03	5.966562E-04	5.349131E-05
7.669369E+03	5.975262E-04	5.354222E-05
7.679343E+03	5.983721E-04	5.359219E-05
7.689316E+03	5.992159E-04	5.364321E-05
7.699289E+03	6.000463E-04	5.369429E-05
7.709262E+03	6.008634E-04	5.374547E-05
7.719235E+03	6.016560E-04	5.379579E-05
7.729208E+03	6.024461E-04	5.384723E-05
7.739182E+03	6.032224E-04	5.389880E-05
