#wls	flux	fluxerr
1.595708E+03	4.320173E-06	1.523941E-07
1.635600E+03	4.422909E-06	1.559276E-07
1.675493E+03	4.532678E-06	1.597018E-07
1.715386E+03	4.648431E-06	1.636792E-07
1.755278E+03	4.770482E-06	1.678701E-07
1.795171E+03	4.900579E-06	1.723353E-07
1.835064E+03	5.037690E-06	1.770375E-07
1.874956E+03	5.182190E-06	1.819891E-07
1.914849E+03	5.335948E-06	1.872547E-07
1.954742E+03	5.499444E-06	1.928501E-07
1.994634E+03	5.673189E-06	1.987919E-07
2.034527E+03	5.856186E-06	2.050438E-07
2.074420E+03	6.050499E-06	2.116769E-07
2.114312E+03	6.255142E-06	2.186551E-07
2.154205E+03	6.473915E-06	2.261095E-07
2.194098E+03	6.705930E-06	2.340073E-07
2.233991E+03	6.951903E-06	2.423715E-07
2.273883E+03	7.212589E-06	2.512262E-07
2.313776E+03	7.488782E-06	2.605969E-07
2.353669E+03	7.783103E-06	2.705720E-07
2.393561E+03	8.094719E-06	2.811200E-07
2.433454E+03	8.424555E-06	2.922698E-07
2.473347E+03	8.777382E-06	3.041838E-07
2.513239E+03	9.150573E-06	3.167671E-07
2.553132E+03	9.547178E-06	3.301216E-07
2.593025E+03	9.968436E-06	3.442857E-07
2.632917E+03	1.041772E-05	3.593715E-07
2.672810E+03	1.089439E-05	3.753510E-07
2.712703E+03	1.139981E-05	3.922665E-07
2.752596E+03	1.193992E-05	4.103161E-07
2.792488E+03	1.251188E-05	4.293956E-07
2.832381E+03	1.312195E-05	4.497124E-07
2.872274E+03	1.376956E-05	4.712393E-07
2.912166E+03	1.445641E-05	4.940262E-07
2.952059E+03	1.518941E-05	5.182997E-07
2.991952E+03	1.596536E-05	5.439410E-07
3.001925E+03	1.616793E-05	5.506276E-07
3.011898E+03	1.637267E-05	5.573810E-07
3.021871E+03	1.657959E-05	5.642020E-07
3.031844E+03	1.679142E-05	5.711827E-07
3.041818E+03	1.700550E-05	5.782333E-07
3.051791E+03	1.722459E-05	5.854462E-07
3.061764E+03	1.744599E-05	5.927303E-07
3.071737E+03	1.766968E-05	6.000848E-07
3.081710E+03	1.789572E-05	6.075108E-07
3.091683E+03	1.812691E-05	6.151041E-07
3.101657E+03	1.836334E-05	6.228669E-07
3.111630E+03	1.859934E-05	6.306065E-07
3.121603E+03	1.884062E-05	6.385170E-07
3.131576E+03	1.908726E-05	6.466001E-07
3.141549E+03	1.933640E-05	6.547591E-07
3.151522E+03	1.958803E-05	6.629936E-07
3.161496E+03	1.984218E-05	6.713040E-07
3.171469E+03	2.010481E-05	6.798921E-07
3.181442E+03	2.036704E-05	6.884567E-07
3.191415E+03	2.063487E-05	6.972011E-07
3.201388E+03	2.090529E-05	7.060228E-07
3.211361E+03	2.118141E-05	7.150271E-07
3.221335E+03	2.146017E-05	7.241100E-07
3.231308E+03	2.174472E-05	7.333773E-07
3.241281E+03	2.203194E-05	7.427243E-07
3.251254E+03	2.232188E-05	7.521517E-07
3.261227E+03	2.261768E-05	7.617655E-07
3.271200E+03	2.291942E-05	7.715677E-07
3.281174E+03	2.322395E-05	7.814519E-07
3.291147E+03	2.353124E-05	7.914172E-07
3.301120E+03	2.384456E-05	8.015733E-07
3.311093E+03	2.416069E-05	8.118112E-07
3.321066E+03	2.448292E-05	8.222417E-07
3.331040E+03	2.480797E-05	8.327538E-07
3.341013E+03	2.513922E-05	8.434608E-07
3.350986E+03	2.547330E-05	8.542494E-07
3.360959E+03	2.581363E-05	8.652339E-07
3.370932E+03	2.615683E-05	8.763006E-07
3.380905E+03	2.650633E-05	8.875645E-07
3.390879E+03	2.685872E-05	8.989103E-07
3.400852E+03	2.721746E-05	9.104541E-07
3.410825E+03	2.757909E-05	9.220796E-07
3.420798E+03	2.794714E-05	9.339042E-07
3.430771E+03	2.831808E-05	9.458098E-07
3.440744E+03	2.869548E-05	9.579154E-07
3.450718E+03	2.907936E-05	9.702213E-07
3.460691E+03	2.946617E-05	9.826082E-07
3.470664E+03	2.985586E-05	9.950743E-07
3.480637E+03	3.025207E-05	1.007741E-06
3.490610E+03	3.065485E-05	1.020609E-06
3.500583E+03	3.106050E-05	1.033554E-06
3.510557E+03	3.147275E-05	1.046702E-06
3.520530E+03	3.188785E-05	1.059925E-06
3.530503E+03	3.230955E-05	1.073350E-06
3.540476E+03	3.273789E-05	1.086976E-06
3.550449E+03	3.316905E-05	1.100676E-06
3.560422E+03	3.360686E-05	1.114577E-06
3.570396E+03	3.404744E-05	1.128550E-06
3.580369E+03	3.449467E-05	1.142723E-06
3.590342E+03	3.494463E-05	1.156966E-06
3.600315E+03	3.540120E-05	1.171407E-06
3.610288E+03	3.586444E-05	1.186047E-06
3.620261E+03	3.633435E-05	1.200886E-06
3.630235E+03	3.680691E-05	1.215790E-06
3.640208E+03	3.728205E-05	1.230756E-06
3.650181E+03	3.776380E-05	1.245918E-06
3.660154E+03	3.825216E-05	1.261275E-06
3.670127E+03	3.874714E-05	1.276827E-06
3.680101E+03	3.924458E-05	1.292435E-06
3.690074E+03	3.974861E-05	1.308236E-06
3.700047E+03	4.025501E-05	1.324091E-06
3.710020E+03	4.076793E-05	1.340134E-06
3.719993E+03	4.128738E-05	1.356367E-06
3.729966E+03	4.180907E-05	1.372647E-06
3.739940E+03	4.233723E-05	1.389114E-06
3.749913E+03	4.287183E-05	1.405765E-06
3.759886E+03	4.340854E-05	1.422457E-06
3.769859E+03	4.395598E-05	1.439474E-06
3.779832E+03	4.450109E-05	1.456386E-06
3.789805E+03	4.505688E-05	1.473620E-06
3.799779E+03	4.561458E-05	1.490888E-06
3.809752E+03	4.617410E-05	1.508185E-06
3.819725E+03	4.674428E-05	1.525801E-06
3.829698E+03	4.731619E-05	1.543443E-06
3.839671E+03	4.789426E-05	1.561256E-06
3.849644E+03	4.847391E-05	1.579090E-06
3.859618E+03	4.905963E-05	1.597090E-06
3.869591E+03	4.965136E-05	1.615253E-06
3.879564E+03	5.024908E-05	1.633580E-06
3.889537E+03	5.084818E-05	1.651918E-06
3.899510E+03	5.145317E-05	1.670416E-06
3.909483E+03	5.205937E-05	1.688918E-06
3.919457E+03	5.267602E-05	1.707726E-06
3.929430E+03	5.329379E-05	1.726536E-06
3.939403E+03	5.391258E-05	1.745344E-06
3.949376E+03	5.454176E-05	1.764454E-06
3.959349E+03	5.517184E-05	1.783556E-06
3.969323E+03	5.580277E-05	1.802651E-06
3.979296E+03	5.644399E-05	1.822041E-06
3.989269E+03	5.708594E-05	1.841418E-06
3.999242E+03	5.773335E-05	1.860933E-06
4.009215E+03	5.838136E-05	1.880430E-06
4.019188E+03	5.903475E-05	1.900062E-06
4.029162E+03	5.969345E-05	1.919827E-06
4.039135E+03	6.035748E-05	1.939723E-06
4.049108E+03	6.102190E-05	1.959593E-06
4.059081E+03	6.169155E-05	1.979590E-06
4.069054E+03	6.236148E-05	1.999557E-06
4.079027E+03	6.304150E-05	2.019806E-06
4.089001E+03	6.372174E-05	2.040020E-06
4.098974E+03	6.440213E-05	2.060198E-06
4.108947E+03	6.508761E-05	2.080496E-06
4.118920E+03	6.577817E-05	2.100914E-06
4.128893E+03	6.647380E-05	2.121451E-06
4.138866E+03	6.716945E-05	2.141945E-06
4.148840E+03	6.787015E-05	2.162557E-06
4.158813E+03	6.857083E-05	2.183123E-06
4.168786E+03	6.928163E-05	2.203967E-06
4.178759E+03	6.998730E-05	2.224602E-06
4.188732E+03	7.070312E-05	2.245515E-06
4.198705E+03	7.141891E-05	2.266380E-06
4.208679E+03	7.213978E-05	2.287360E-06
4.218652E+03	7.286063E-05	2.308291E-06
4.228625E+03	7.358659E-05	2.329338E-06
4.238598E+03	7.431255E-05	2.350337E-06
4.248571E+03	7.504891E-05	2.371617E-06
4.258545E+03	7.578013E-05	2.392685E-06
4.268518E+03	7.652187E-05	2.414036E-06
4.278491E+03	7.725852E-05	2.435177E-06
4.288464E+03	7.800581E-05	2.456603E-06
4.298437E+03	7.875337E-05	2.477987E-06
4.308410E+03	7.950123E-05	2.499329E-06
4.318384E+03	8.026000E-05	2.520963E-06
4.328357E+03	8.101396E-05	2.542394E-06
4.338330E+03	8.177375E-05	2.563955E-06
4.348303E+03	8.253947E-05	2.585650E-06
4.358276E+03	8.330594E-05	2.607314E-06
4.368249E+03	8.407856E-05	2.629117E-06
4.378223E+03	8.485748E-05	2.651063E-06
4.388196E+03	8.563213E-05	2.672820E-06
4.398169E+03	8.641870E-05	2.694894E-06
4.408142E+03	8.720125E-05	2.716786E-06
4.418115E+03	8.799064E-05	2.738836E-06
4.428088E+03	8.878707E-05	2.761048E-06
4.438062E+03	8.958530E-05	2.783257E-06
4.448035E+03	9.039091E-05	2.805639E-06
4.458008E+03	9.119864E-05	2.828028E-06
4.467981E+03	9.200872E-05	2.850430E-06
4.477954E+03	9.282673E-05	2.873018E-06
4.487927E+03	9.364745E-05	2.895630E-06
4.497901E+03	9.447109E-05	2.918271E-06
4.507874E+03	9.530330E-05	2.941117E-06
4.517847E+03	9.614436E-05	2.964172E-06
4.527820E+03	9.698350E-05	2.987106E-06
4.537793E+03	9.783194E-05	3.010264E-06
4.547767E+03	9.868443E-05	3.033482E-06
4.557740E+03	9.954674E-05	3.056937E-06
4.567713E+03	1.004136E-04	3.080467E-06
4.577686E+03	1.012853E-04	3.104079E-06
4.587659E+03	1.021621E-04	3.127780E-06
4.597632E+03	1.030497E-04	3.151748E-06
4.607606E+03	1.039430E-04	3.175820E-06
4.617579E+03	1.048423E-04	3.200004E-06
4.627552E+03	1.057533E-04	3.224479E-06
4.637525E+03	1.066653E-04	3.248912E-06
4.647498E+03	1.075897E-04	3.273652E-06
4.657471E+03	1.085212E-04	3.298537E-06
4.667445E+03	1.094658E-04	3.323747E-06
4.677418E+03	1.104125E-04	3.348947E-06
4.687391E+03	1.113672E-04	3.374317E-06
4.697364E+03	1.123360E-04	3.400039E-06
4.707337E+03	1.133136E-04	3.425948E-06
4.717310E+03	1.143002E-04	3.452054E-06
4.727284E+03	1.152962E-04	3.478366E-06
4.737257E+03	1.163019E-04	3.504891E-06
4.747230E+03	1.173176E-04	3.531640E-06
4.757203E+03	1.183438E-04	3.558621E-06
4.767176E+03	1.193807E-04	3.585842E-06
4.777149E+03	1.204344E-04	3.613488E-06
4.787123E+03	1.214938E-04	3.641218E-06
4.797096E+03	1.225649E-04	3.669215E-06
4.807069E+03	1.236481E-04	3.697488E-06
4.817042E+03	1.247496E-04	3.726221E-06
4.827015E+03	1.258580E-04	3.755072E-06
4.836989E+03	1.269795E-04	3.784224E-06
4.846962E+03	1.281145E-04	3.813687E-06
4.856935E+03	1.292632E-04	3.843467E-06
4.866908E+03	1.304260E-04	3.873572E-06
4.876881E+03	1.316033E-04	3.904015E-06
4.886854E+03	1.327893E-04	3.934622E-06
4.896828E+03	1.339963E-04	3.965751E-06
4.906801E+03	1.352126E-04	3.997061E-06
4.916774E+03	1.364446E-04	4.028736E-06
4.926747E+03	1.376926E-04	4.060780E-06
4.936720E+03	1.389567E-04	4.093199E-06
4.946693E+03	1.402374E-04	4.126005E-06
4.956667E+03	1.415286E-04	4.159013E-06
4.966640E+03	1.428370E-04	4.192422E-06
4.976613E+03	1.441624E-04	4.226225E-06
4.986586E+03	1.455054E-04	4.260435E-06
4.996559E+03	1.468600E-04	4.294872E-06
5.006532E+03	1.482388E-04	4.329906E-06
5.016506E+03	1.496230E-04	4.364987E-06
5.026479E+03	1.510318E-04	4.400672E-06
5.036452E+03	1.524528E-04	4.436597E-06
5.046425E+03	1.538924E-04	4.472944E-06
5.056398E+03	1.553442E-04	4.509533E-06
5.066371E+03	1.568214E-04	4.546736E-06
5.076345E+03	1.583047E-04	4.583996E-06
5.086318E+03	1.598134E-04	4.621868E-06
5.096291E+03	1.613348E-04	4.659984E-06
5.106264E+03	1.628687E-04	4.698337E-06
5.116237E+03	1.644282E-04	4.737303E-06
5.126210E+03	1.659938E-04	4.776315E-06
5.136184E+03	1.675850E-04	4.815936E-06
5.146157E+03	1.691887E-04	4.855787E-06
5.156130E+03	1.708047E-04	4.895856E-06
5.166103E+03	1.724394E-04	4.936332E-06
5.176076E+03	1.740862E-04	4.977018E-06
5.186050E+03	1.757515E-04	5.018100E-06
5.196023E+03	1.774283E-04	5.059373E-06
5.205996E+03	1.791235E-04	5.101031E-06
5.215969E+03	1.808365E-04	5.143061E-06
5.225942E+03	1.825536E-04	5.185064E-06
5.235915E+03	1.842949E-04	5.227614E-06
5.245889E+03	1.860394E-04	5.270114E-06
5.255862E+03	1.878006E-04	5.312945E-06
5.265835E+03	1.895782E-04	5.356098E-06
5.275808E+03	1.913648E-04	5.399356E-06
5.285781E+03	1.931598E-04	5.442707E-06
5.295754E+03	1.949626E-04	5.486134E-06
5.305728E+03	1.967800E-04	5.529825E-06
5.315701E+03	1.986116E-04	5.573765E-06
5.325674E+03	2.004421E-04	5.617527E-06
5.335647E+03	2.022855E-04	5.661504E-06
5.345620E+03	2.041414E-04	5.705682E-06
5.355593E+03	2.059941E-04	5.749620E-06
5.365567E+03	2.078579E-04	5.793719E-06
5.375540E+03	2.097322E-04	5.837959E-06
5.385513E+03	2.116011E-04	5.881901E-06
5.395486E+03	2.134788E-04	5.925938E-06
5.405459E+03	2.153569E-04	5.969836E-06
5.415432E+03	2.172348E-04	6.013579E-06
5.425406E+03	2.191192E-04	6.057354E-06
5.435379E+03	2.210015E-04	6.100920E-06
5.445352E+03	2.228807E-04	6.144255E-06
5.455325E+03	2.247561E-04	6.187335E-06
5.465298E+03	2.266344E-04	6.230349E-06
5.475272E+03	2.284991E-04	6.272844E-06
5.485245E+03	2.303654E-04	6.315234E-06
5.495218E+03	2.322244E-04	6.357282E-06
5.505191E+03	2.340834E-04	6.399186E-06
5.515164E+03	2.359257E-04	6.440493E-06
5.525137E+03	2.377668E-04	6.481623E-06
5.535111E+03	2.395898E-04	6.522123E-06
5.545084E+03	2.414105E-04	6.562419E-06
5.555057E+03	2.432200E-04	6.602277E-06
5.565030E+03	2.450262E-04	6.641906E-06
5.575003E+03	2.468117E-04	6.680841E-06
5.584976E+03	2.485843E-04	6.719297E-06
5.594950E+03	2.503517E-04	6.757477E-06
5.604923E+03	2.520967E-04	6.794923E-06
5.614896E+03	2.538354E-04	6.832070E-06
5.624869E+03	2.555590E-04	6.868683E-06
5.634842E+03	2.572669E-04	6.904748E-06
5.644815E+03	2.589585E-04	6.940250E-06
5.654789E+03	2.606334E-04	6.975180E-06
5.664762E+03	2.622911E-04	7.009529E-06
5.674735E+03	2.639311E-04	7.043284E-06
5.684708E+03	2.655529E-04	7.076436E-06
5.694681E+03	2.671563E-04	7.108980E-06
5.704654E+03	2.687494E-04	7.141134E-06
5.714628E+03	2.703144E-04	7.172431E-06
5.724601E+03	2.718598E-04	7.203095E-06
5.734574E+03	2.733940E-04	7.233353E-06
5.744547E+03	2.748993E-04	7.262737E-06
5.754520E+03	2.763839E-04	7.291471E-06
5.764494E+03	2.778566E-04	7.319788E-06
5.774467E+03	2.792994E-04	7.347218E-06
5.784440E+03	2.807211E-04	7.373991E-06
5.794413E+03	2.821307E-04	7.400349E-06
5.804386E+03	2.835097E-04	7.425812E-06
5.814359E+03	2.848673E-04	7.450621E-06
5.824333E+03	2.862125E-04	7.475015E-06
5.834306E+03	2.875270E-04	7.498521E-06
5.844279E+03	2.888202E-04	7.521385E-06
5.854252E+03	2.900918E-04	7.543603E-06
5.864225E+03	2.913421E-04	7.565189E-06
5.874198E+03	2.925712E-04	7.586144E-06
5.884172E+03	2.937791E-04	7.606473E-06
5.894145E+03	2.949663E-04	7.626192E-06
5.904118E+03	2.961327E-04	7.645304E-06
5.914091E+03	2.972787E-04	7.663818E-06
5.924064E+03	2.984046E-04	7.681749E-06
5.934037E+03	2.995106E-04	7.699104E-06
5.944011E+03	3.005879E-04	7.715658E-06
5.953984E+03	3.016553E-04	7.731900E-06
5.963957E+03	3.026947E-04	7.747367E-06
5.973930E+03	3.037252E-04	7.762552E-06
5.983903E+03	3.047285E-04	7.776988E-06
5.993876E+03	3.057238E-04	7.791172E-06
6.003850E+03	3.066929E-04	7.804642E-06
6.013823E+03	3.076457E-04	7.817650E-06
6.023796E+03	3.085827E-04	7.830213E-06
6.033769E+03	3.095044E-04	7.842352E-06
6.043742E+03	3.104116E-04	7.854082E-06
6.053716E+03	3.113047E-04	7.865420E-06
6.063689E+03	3.121750E-04	7.876147E-06
6.073662E+03	3.130420E-04	7.886764E-06
6.083635E+03	3.138969E-04	7.897044E-06
6.093608E+03	3.147309E-04	7.906770E-06
6.103581E+03	3.155636E-04	7.916440E-06
6.113555E+03	3.163766E-04	7.925595E-06
6.123528E+03	3.171801E-04	7.934489E-06
6.133501E+03	3.179747E-04	7.943144E-06
6.143474E+03	3.187613E-04	7.951583E-06
6.153447E+03	3.195404E-04	7.959819E-06
6.163420E+03	3.203125E-04	7.967870E-06
6.173394E+03	3.210785E-04	7.975760E-06
6.183367E+03	3.218389E-04	7.983500E-06
6.193340E+03	3.225943E-04	7.991113E-06
6.203313E+03	3.233355E-04	7.998368E-06
6.213286E+03	3.240826E-04	8.005768E-06
6.223259E+03	3.248263E-04	8.013082E-06
6.233233E+03	3.255574E-04	8.020089E-06
6.243206E+03	3.262959E-04	8.027281E-06
6.253179E+03	3.270226E-04	8.034188E-06
6.263152E+03	3.277476E-04	8.041062E-06
6.273125E+03	3.284813E-04	8.048158E-06
6.283098E+03	3.292042E-04	8.055001E-06
6.293072E+03	3.299263E-04	8.061838E-06
6.303045E+03	3.306478E-04	8.068676E-06
6.313018E+03	3.313690E-04	8.075524E-06
6.322991E+03	3.320899E-04	8.082385E-06
6.332964E+03	3.328206E-04	8.089506E-06
6.342937E+03	3.335410E-04	8.096401E-06
6.352911E+03	3.342610E-04	8.103311E-06
6.362884E+03	3.349807E-04	8.110242E-06
6.372857E+03	3.356997E-04	8.117185E-06
6.382830E+03	3.364177E-04	8.124139E-06
6.392803E+03	3.371347E-04	8.131102E-06
6.402777E+03	3.378503E-04	8.138069E-06
6.412750E+03	3.385639E-04	8.145028E-06
6.422723E+03	3.392858E-04	8.152228E-06
6.432696E+03	3.399950E-04	8.159165E-06
6.442669E+03	3.407011E-04	8.166079E-06
6.452642E+03	3.414040E-04	8.172962E-06
6.462616E+03	3.421136E-04	8.180059E-06
6.472589E+03	3.428090E-04	8.186871E-06
6.482562E+03	3.435105E-04	8.193887E-06
6.492535E+03	3.441974E-04	8.200614E-06
6.502508E+03	3.448902E-04	8.207545E-06
6.512481E+03	3.455787E-04	8.214438E-06
6.522455E+03	3.462528E-04	8.221060E-06
6.532428E+03	3.469338E-04	8.227916E-06
6.542401E+03	3.476118E-04	8.234777E-06
6.552374E+03	3.482984E-04	8.241916E-06
6.562347E+03	3.489732E-04	8.248855E-06
6.572320E+03	3.496479E-04	8.255875E-06
6.582294E+03	3.503337E-04	8.263243E-06
6.592267E+03	3.510214E-04	8.270743E-06
6.602240E+03	3.517014E-04	8.278153E-06
6.612213E+03	3.524067E-04	8.286251E-06
6.622186E+03	3.531065E-04	8.294314E-06
6.632159E+03	3.538124E-04	8.302620E-06
6.642133E+03	3.545363E-04	8.311449E-06
6.652106E+03	3.552576E-04	8.320317E-06
6.662079E+03	3.559988E-04	8.329755E-06
6.672052E+03	3.567609E-04	8.339779E-06
6.682025E+03	3.575230E-04	8.349905E-06
6.691999E+03	3.583077E-04	8.360654E-06
6.701972E+03	3.591051E-04	8.371796E-06
6.711945E+03	3.599158E-04	8.383345E-06
6.721918E+03	3.607403E-04	8.395311E-06
6.731891E+03	3.615904E-04	8.407967E-06
6.741864E+03	3.624556E-04	8.421067E-06
6.751838E+03	3.633367E-04	8.434628E-06
6.761811E+03	3.642340E-04	8.448655E-06
6.771784E+03	3.651590E-04	8.463417E-06
6.781757E+03	3.661010E-04	8.478662E-06
6.791730E+03	3.670606E-04	8.494401E-06
6.801703E+03	3.680489E-04	8.510894E-06
6.811677E+03	3.690554E-04	8.527892E-06
6.821650E+03	3.700800E-04	8.545396E-06
6.831623E+03	3.711345E-04	8.563675E-06
6.841596E+03	3.722076E-04	8.582468E-06
6.851569E+03	3.732993E-04	8.601771E-06
6.861542E+03	3.744214E-04	8.621859E-06
6.871516E+03	3.755622E-04	8.642460E-06
6.881489E+03	3.767337E-04	8.663846E-06
6.891462E+03	3.779123E-04	8.685480E-06
6.901435E+03	3.791332E-04	8.708164E-06
6.911408E+03	3.803611E-04	8.731090E-06
6.921381E+03	3.816196E-04	8.754798E-06
6.931355E+03	3.829084E-04	8.779282E-06
6.941328E+03	3.842160E-04	8.804272E-06
6.951301E+03	3.855419E-04	8.829763E-06
6.961274E+03	3.868980E-04	8.856022E-06
6.971247E+03	3.882721E-04	8.882772E-06
6.981221E+03	3.896762E-04	8.910289E-06
6.991194E+03	3.910980E-04	8.938286E-06
7.001167E+03	3.925495E-04	8.967041E-06
7.011140E+03	3.940183E-04	8.996267E-06
7.021113E+03	3.955040E-04	9.025960E-06
7.031086E+03	3.970186E-04	9.056391E-06
7.041060E+03	3.985624E-04	9.087565E-06
7.051033E+03	4.001222E-04	9.119184E-06
7.061006E+03	4.017106E-04	9.151535E-06
7.070979E+03	4.033146E-04	9.184321E-06
7.080952E+03	4.049338E-04	9.217532E-06
7.090925E+03	4.065805E-04	9.251453E-06
7.100899E+03	4.082549E-04	9.286083E-06
7.110872E+03	4.099435E-04	9.321120E-06
7.120845E+03	4.116592E-04	9.356854E-06
7.130818E+03	4.133884E-04	9.392981E-06
7.140791E+03	4.151441E-04	9.429794E-06
7.150764E+03	4.169259E-04	9.467286E-06
7.160738E+03	4.187202E-04	9.505148E-06
7.170711E+03	4.205266E-04	9.543373E-06
7.180684E+03	4.223719E-04	9.582568E-06
7.190657E+03	4.242147E-04	9.621799E-06
7.200630E+03	4.260961E-04	9.661997E-06
7.210603E+03	4.279880E-04	9.702524E-06
7.220577E+03	4.298899E-04	9.743372E-06
7.230550E+03	4.318155E-04	9.784855E-06
7.240523E+03	4.337644E-04	9.826963E-06
7.250496E+03	4.357365E-04	9.869695E-06
7.260469E+03	4.377171E-04	9.912722E-06
7.270443E+03	4.397055E-04	9.956027E-06
7.280416E+03	4.417303E-04	1.000026E-05
7.290389E+03	4.437623E-04	1.004477E-05
7.300362E+03	4.458008E-04	1.008952E-05
7.310335E+03	4.478749E-04	1.013520E-05
7.320308E+03	4.499399E-04	1.018078E-05
7.330282E+03	4.520396E-04	1.022727E-05
7.340255E+03	4.541440E-04	1.027397E-05
7.350228E+03	4.562674E-04	1.032123E-05
7.360201E+03	4.584097E-04	1.036904E-05
7.370174E+03	4.605549E-04	1.041704E-05
7.380147E+03	4.627178E-04	1.046557E-05
7.390121E+03	4.648979E-04	1.051461E-05
7.400094E+03	4.670793E-04	1.056382E-05
7.410067E+03	4.692766E-04	1.061353E-05
7.420040E+03	4.714894E-04	1.066372E-05
7.430013E+03	4.737012E-04	1.071404E-05
7.439986E+03	4.759272E-04	1.076482E-05
7.449960E+03	4.781666E-04	1.081606E-05
7.459933E+03	4.804192E-04	1.086774E-05
7.469906E+03	4.826672E-04	1.091948E-05
7.479879E+03	4.849265E-04	1.097163E-05
7.489852E+03	4.871961E-04	1.102418E-05
7.499825E+03	4.894585E-04	1.107673E-05
7.509799E+03	4.917461E-04	1.113002E-05
7.519772E+03	4.940072E-04	1.118289E-05
7.529745E+03	4.962915E-04	1.123646E-05
7.539718E+03	4.985810E-04	1.129033E-05
7.549691E+03	5.008572E-04	1.134408E-05
7.559665E+03	5.031356E-04	1.139807E-05
7.569638E+03	5.053974E-04	1.145189E-05
7.579611E+03	5.076763E-04	1.150628E-05
7.589584E+03	5.099352E-04	1.156043E-05
7.599557E+03	5.121901E-04	1.161469E-05
7.609530E+03	5.144392E-04	1.166903E-05
7.619504E+03	5.166622E-04	1.172299E-05
7.629477E+03	5.188752E-04	1.177695E-05
7.639450E+03	5.210758E-04	1.183085E-05
7.649423E+03	5.232615E-04	1.188464E-05
7.659396E+03	5.254302E-04	1.193827E-05
7.669369E+03	5.275599E-04	1.199126E-05
7.679343E+03	5.296666E-04	1.204397E-05
7.689316E+03	5.317470E-04	1.209632E-05
7.699289E+03	5.337982E-04	1.214826E-05
7.709262E+03	5.358165E-04	1.219970E-05
7.719235E+03	5.377791E-04	1.225013E-05
7.729208E+03	5.397011E-04	1.229990E-05
7.739182E+03	5.415784E-04	1.234892E-05
