#wls	flux	fluxerr
1.595708E+03	2.974247E-06	9.925616E-08
1.635600E+03	3.022594E-06	1.007071E-07
1.675493E+03	3.073133E-06	1.022213E-07
1.715386E+03	3.125983E-06	1.038021E-07
1.755278E+03	3.182569E-06	1.054959E-07
1.795171E+03	3.241741E-06	1.072638E-07
1.835064E+03	3.303633E-06	1.091092E-07
1.874956E+03	3.369747E-06	1.110807E-07
1.914849E+03	3.438913E-06	1.131387E-07
1.954742E+03	3.511296E-06	1.152875E-07
1.994634E+03	3.588478E-06	1.175777E-07
2.034527E+03	3.669273E-06	1.199692E-07
2.074420E+03	3.753879E-06	1.224670E-07
2.114312E+03	3.843978E-06	1.251244E-07
2.154205E+03	3.938365E-06	1.279005E-07
2.194098E+03	4.037277E-06	1.308013E-07
2.233991E+03	4.142515E-06	1.338832E-07
2.273883E+03	4.252854E-06	1.371044E-07
2.313776E+03	4.370187E-06	1.405238E-07
2.353669E+03	4.493272E-06	1.440988E-07
2.393561E+03	4.622436E-06	1.478375E-07
2.433454E+03	4.759734E-06	1.518028E-07
2.473347E+03	4.903898E-06	1.559511E-07
2.513239E+03	5.055324E-06	1.602920E-07
2.553132E+03	5.216256E-06	1.648930E-07
2.593025E+03	5.385400E-06	1.697093E-07
2.632917E+03	5.565147E-06	1.748123E-07
2.672810E+03	5.754186E-06	1.801560E-07
2.712703E+03	5.955075E-06	1.858159E-07
2.752596E+03	6.166488E-06	1.917452E-07
2.792488E+03	6.389046E-06	1.979578E-07
2.832381E+03	6.625589E-06	2.045359E-07
2.872274E+03	6.874761E-06	2.114307E-07
2.912166E+03	7.139623E-06	2.187294E-07
2.952059E+03	7.418804E-06	2.263822E-07
2.991952E+03	7.713163E-06	2.344075E-07
3.001925E+03	7.788616E-06	2.364555E-07
3.011898E+03	7.867558E-06	2.386033E-07
3.021871E+03	7.945067E-06	2.407013E-07
3.031844E+03	8.026132E-06	2.429005E-07
3.041818E+03	8.105757E-06	2.450496E-07
3.051791E+03	8.189008E-06	2.473017E-07
3.061764E+03	8.270813E-06	2.495032E-07
3.071737E+03	8.356316E-06	2.518094E-07
3.081710E+03	8.442981E-06	2.541435E-07
3.091683E+03	8.528187E-06	2.564265E-07
3.101657E+03	8.617206E-06	2.588168E-07
3.111630E+03	8.707437E-06	2.612359E-07
3.121603E+03	8.796198E-06	2.636035E-07
3.131576E+03	8.888889E-06	2.660810E-07
3.141549E+03	8.982846E-06	2.685885E-07
3.151522E+03	9.078091E-06	2.711265E-07
3.161496E+03	9.174642E-06	2.736952E-07
3.171469E+03	9.272518E-06	2.762951E-07
3.181442E+03	9.368902E-06	2.788421E-07
3.191415E+03	9.469464E-06	2.815048E-07
3.201388E+03	9.571411E-06	2.841999E-07
3.211361E+03	9.674763E-06	2.869277E-07
3.221335E+03	9.779543E-06	2.896886E-07
3.231308E+03	9.885770E-06	2.924832E-07
3.241281E+03	9.993466E-06	2.953116E-07
3.251254E+03	1.010265E-05	2.981745E-07
3.261227E+03	1.021336E-05	3.010723E-07
3.271200E+03	1.032865E-05	3.040953E-07
3.281174E+03	1.044247E-05	3.070646E-07
3.291147E+03	1.055788E-05	3.100701E-07
3.301120E+03	1.067489E-05	3.131121E-07
3.311093E+03	1.079353E-05	3.161913E-07
3.321066E+03	1.091383E-05	3.193079E-07
3.331040E+03	1.103903E-05	3.225566E-07
3.341013E+03	1.116273E-05	3.257503E-07
3.350986E+03	1.128817E-05	3.289830E-07
3.360959E+03	1.141868E-05	3.323513E-07
3.370932E+03	1.154769E-05	3.356640E-07
3.380905E+03	1.167850E-05	3.390170E-07
3.390879E+03	1.181456E-05	3.425095E-07
3.400852E+03	1.194911E-05	3.459455E-07
3.410825E+03	1.208901E-05	3.495235E-07
3.420798E+03	1.222740E-05	3.530447E-07
3.430771E+03	1.237127E-05	3.567104E-07
3.440744E+03	1.251363E-05	3.603187E-07
3.450718E+03	1.266159E-05	3.640743E-07
3.460691E+03	1.280803E-05	3.677720E-07
3.470664E+03	1.296020E-05	3.716196E-07
3.480637E+03	1.311454E-05	3.755147E-07
3.490610E+03	1.326737E-05	3.793510E-07
3.500583E+03	1.342611E-05	3.833415E-07
3.510557E+03	1.358713E-05	3.873811E-07
3.520530E+03	1.374662E-05	3.913612E-07
3.530503E+03	1.391226E-05	3.955000E-07
3.540476E+03	1.408028E-05	3.996898E-07
3.550449E+03	1.425070E-05	4.039311E-07
3.560422E+03	1.441959E-05	4.081119E-07
3.570396E+03	1.459491E-05	4.124571E-07
3.580369E+03	1.477277E-05	4.168561E-07
3.590342E+03	1.495318E-05	4.213090E-07
3.600315E+03	1.513620E-05	4.258168E-07
3.610288E+03	1.532186E-05	4.303800E-07
3.620261E+03	1.551021E-05	4.349995E-07
3.630235E+03	1.570130E-05	4.396762E-07
3.640208E+03	1.589084E-05	4.442899E-07
3.650181E+03	1.608746E-05	4.490812E-07
3.660154E+03	1.628693E-05	4.539316E-07
3.670127E+03	1.649373E-05	4.589649E-07
3.680101E+03	1.669909E-05	4.639365E-07
3.690074E+03	1.690745E-05	4.689697E-07
3.700047E+03	1.711885E-05	4.740647E-07
3.710020E+03	1.733332E-05	4.792224E-07
3.719993E+03	1.755094E-05	4.844441E-07
3.729966E+03	1.777174E-05	4.897299E-07
3.739940E+03	1.799576E-05	4.950807E-07
3.749913E+03	1.822308E-05	5.004979E-07
3.759886E+03	1.845860E-05	5.061153E-07
3.769859E+03	1.869268E-05	5.116680E-07
3.779832E+03	1.893022E-05	5.172895E-07
3.789805E+03	1.917125E-05	5.229803E-07
3.799779E+03	1.942091E-05	5.288795E-07
3.809752E+03	1.966916E-05	5.347131E-07
3.819725E+03	1.992109E-05	5.406190E-07
3.829698E+03	2.017675E-05	5.465980E-07
3.839671E+03	2.044145E-05	5.527933E-07
3.849644E+03	2.070480E-05	5.589226E-07
3.859618E+03	2.097744E-05	5.652727E-07
3.869591E+03	2.124873E-05	5.715559E-07
3.879564E+03	2.152406E-05	5.779170E-07
3.889537E+03	2.180906E-05	5.845064E-07
3.899510E+03	2.209272E-05	5.910275E-07
3.909483E+03	2.238630E-05	5.977814E-07
3.919457E+03	2.267858E-05	6.044672E-07
3.929430E+03	2.297523E-05	6.112359E-07
3.939403E+03	2.328221E-05	6.182446E-07
3.949376E+03	2.358791E-05	6.251846E-07
3.959349E+03	2.390419E-05	6.323690E-07
3.969323E+03	2.422530E-05	6.396443E-07
3.979296E+03	2.454516E-05	6.468496E-07
3.989269E+03	2.487604E-05	6.543077E-07
3.999242E+03	2.520572E-05	6.616956E-07
4.009215E+03	2.554671E-05	6.693415E-07
4.019188E+03	2.588654E-05	6.769169E-07
4.029162E+03	2.623798E-05	6.847556E-07
4.039135E+03	2.658828E-05	6.925232E-07
4.049108E+03	2.695055E-05	7.005603E-07
4.059081E+03	2.731838E-05	7.086990E-07
4.069054E+03	2.768512E-05	7.167661E-07
4.079027E+03	2.806431E-05	7.251109E-07
4.089001E+03	2.844938E-05	7.335621E-07
4.098974E+03	2.883340E-05	7.419406E-07
4.108947E+03	2.923039E-05	7.506060E-07
4.118920E+03	2.963357E-05	7.593822E-07
4.128893E+03	3.003576E-05	7.680849E-07
4.138866E+03	3.045149E-05	7.770844E-07
4.148840E+03	3.087371E-05	7.861989E-07
4.158813E+03	3.129503E-05	7.952397E-07
4.168786E+03	3.173046E-05	8.045869E-07
4.178759E+03	3.217271E-05	8.140536E-07
4.188732E+03	3.262189E-05	8.236418E-07
4.198705E+03	3.307029E-05	8.331553E-07
4.208679E+03	3.353361E-05	8.429891E-07
4.218652E+03	3.400423E-05	8.529492E-07
4.228625E+03	3.448227E-05	8.630372E-07
4.238598E+03	3.495966E-05	8.730503E-07
4.248571E+03	3.545284E-05	8.833978E-07
4.258545E+03	3.595382E-05	8.938787E-07
4.268518E+03	3.646275E-05	9.044947E-07
4.278491E+03	3.697115E-05	9.150349E-07
4.288464E+03	3.749627E-05	9.259245E-07
4.298437E+03	3.802974E-05	9.369550E-07
4.308410E+03	3.857171E-05	9.481280E-07
4.318384E+03	3.911331E-05	9.592246E-07
4.328357E+03	3.967261E-05	9.706866E-07
4.338330E+03	4.024083E-05	9.822967E-07
4.348303E+03	4.081816E-05	9.940574E-07
4.358276E+03	4.139526E-05	1.005741E-06
4.368249E+03	4.199111E-05	1.017806E-06
4.378223E+03	4.259651E-05	1.030028E-06
4.388196E+03	4.321162E-05	1.042408E-06
4.398169E+03	4.383662E-05	1.054948E-06
4.408142E+03	4.446161E-05	1.067410E-06
4.418115E+03	4.510673E-05	1.080276E-06
4.428088E+03	4.576223E-05	1.093308E-06
4.438062E+03	4.642828E-05	1.106510E-06
4.448035E+03	4.709451E-05	1.119631E-06
4.458008E+03	4.778204E-05	1.133174E-06
4.467981E+03	4.848064E-05	1.146892E-06
4.477954E+03	4.917956E-05	1.160530E-06
4.487927E+03	4.990071E-05	1.174603E-06
4.497901E+03	5.063347E-05	1.188857E-06
4.507874E+03	5.137802E-05	1.203295E-06
4.517847E+03	5.212306E-05	1.217651E-06
4.527820E+03	5.289161E-05	1.232461E-06
4.537793E+03	5.367253E-05	1.247461E-06
4.547767E+03	5.445405E-05	1.262376E-06
4.557740E+03	5.526009E-05	1.277761E-06
4.567713E+03	5.607906E-05	1.293341E-06
4.577686E+03	5.689874E-05	1.308835E-06
4.587659E+03	5.774396E-05	1.324812E-06
4.597632E+03	5.860269E-05	1.340992E-06
4.607606E+03	5.946224E-05	1.357083E-06
4.617579E+03	6.034838E-05	1.373671E-06
4.627552E+03	6.123541E-05	1.390169E-06
4.637525E+03	6.214974E-05	1.407173E-06
4.647498E+03	6.307853E-05	1.424390E-06
4.657471E+03	6.400826E-05	1.441512E-06
4.667445E+03	6.496638E-05	1.459155E-06
4.677418E+03	6.592546E-05	1.476701E-06
4.687391E+03	6.691367E-05	1.494779E-06
4.697364E+03	6.790283E-05	1.512755E-06
4.707337E+03	6.892185E-05	1.531272E-06
4.717310E+03	6.994183E-05	1.549684E-06
4.727284E+03	7.099236E-05	1.568646E-06
4.737257E+03	7.204384E-05	1.587500E-06
4.747230E+03	7.311123E-05	1.606574E-06
4.757203E+03	7.421025E-05	1.626211E-06
4.767176E+03	7.531011E-05	1.645732E-06
4.777149E+03	7.644233E-05	1.665825E-06
4.787123E+03	7.757529E-05	1.685796E-06
4.797096E+03	7.872491E-05	1.705992E-06
4.807069E+03	7.990794E-05	1.726772E-06
4.817042E+03	8.109150E-05	1.747420E-06
4.827015E+03	8.229209E-05	1.768294E-06
4.836989E+03	8.350982E-05	1.789392E-06
4.846962E+03	8.476230E-05	1.811088E-06
4.856935E+03	8.601487E-05	1.832638E-06
4.866908E+03	8.728488E-05	1.854411E-06
4.876881E+03	8.857238E-05	1.876407E-06
4.886854E+03	8.987745E-05	1.898624E-06
4.896828E+03	9.120014E-05	1.921061E-06
4.906801E+03	9.254049E-05	1.943717E-06
4.916774E+03	9.389851E-05	1.966590E-06
4.926747E+03	9.529359E-05	1.990082E-06
4.936720E+03	9.668725E-05	2.013387E-06
4.946693E+03	9.809857E-05	2.036902E-06
4.956667E+03	9.950740E-05	2.060209E-06
4.966640E+03	1.009537E-04	2.084132E-06
4.976613E+03	1.024175E-04	2.108258E-06
4.986586E+03	1.038987E-04	2.132582E-06
4.996559E+03	1.053973E-04	2.157099E-06
5.006532E+03	1.069130E-04	2.181807E-06
5.016506E+03	1.084458E-04	2.206701E-06
5.026479E+03	1.099735E-04	2.231331E-06
5.036452E+03	1.115396E-04	2.256577E-06
5.046425E+03	1.131222E-04	2.281995E-06
5.056398E+03	1.146983E-04	2.307119E-06
5.066371E+03	1.163128E-04	2.332856E-06
5.076345E+03	1.179431E-04	2.358746E-06
5.086318E+03	1.195651E-04	2.384310E-06
5.096291E+03	1.212255E-04	2.410480E-06
5.106264E+03	1.228765E-04	2.436303E-06
5.116237E+03	1.245657E-04	2.462724E-06
5.126210E+03	1.262441E-04	2.488774E-06
5.136184E+03	1.279353E-04	2.514922E-06
5.146157E+03	1.296644E-04	2.541658E-06
5.156130E+03	1.313803E-04	2.567983E-06
5.166103E+03	1.331077E-04	2.594381E-06
5.176076E+03	1.348721E-04	2.621350E-06
5.186050E+03	1.366211E-04	2.647869E-06
5.196023E+03	1.383797E-04	2.674431E-06
5.205996E+03	1.401475E-04	2.701026E-06
5.215969E+03	1.419239E-04	2.727645E-06
5.225942E+03	1.437081E-04	2.754278E-06
5.235915E+03	1.454996E-04	2.780914E-06
5.245889E+03	1.472976E-04	2.807543E-06
5.255862E+03	1.491014E-04	2.834152E-06
5.265835E+03	1.509104E-04	2.860735E-06
5.275808E+03	1.527238E-04	2.887280E-06
5.285781E+03	1.545410E-04	2.913777E-06
5.295754E+03	1.563613E-04	2.940218E-06
5.305728E+03	1.581539E-04	2.966028E-06
5.315701E+03	1.599780E-04	2.992324E-06
5.325674E+03	1.618033E-04	3.018539E-06
5.335647E+03	1.635980E-04	3.044089E-06
5.345620E+03	1.654233E-04	3.070117E-06
5.355593E+03	1.672481E-04	3.096047E-06
5.365567E+03	1.690399E-04	3.121286E-06
5.375540E+03	1.708295E-04	3.146408E-06
5.385513E+03	1.726494E-04	3.172018E-06
5.395486E+03	1.744346E-04	3.196925E-06
5.405459E+03	1.762501E-04	3.222327E-06
5.415432E+03	1.780299E-04	3.247022E-06
5.425406E+03	1.798072E-04	3.271623E-06
5.435379E+03	1.815819E-04	3.296138E-06
5.445352E+03	1.833544E-04	3.320577E-06
5.455325E+03	1.851250E-04	3.344951E-06
5.465298E+03	1.868940E-04	3.369273E-06
5.475272E+03	1.886616E-04	3.393553E-06
5.485245E+03	1.904273E-04	3.417785E-06
5.495218E+03	1.921907E-04	3.441973E-06
5.505191E+03	1.939504E-04	3.466096E-06
5.515164E+03	1.957054E-04	3.490143E-06
5.525137E+03	1.974543E-04	3.514097E-06
5.535111E+03	1.991591E-04	3.537287E-06
5.545084E+03	2.008917E-04	3.561002E-06
5.555057E+03	2.025771E-04	3.583918E-06
5.565030E+03	2.042886E-04	3.607341E-06
5.575003E+03	2.059502E-04	3.629933E-06
5.584976E+03	2.076364E-04	3.653019E-06
5.594950E+03	2.092706E-04	3.675254E-06
5.604923E+03	2.109284E-04	3.697967E-06
5.614896E+03	2.125320E-04	3.719802E-06
5.624869E+03	2.141196E-04	3.741428E-06
5.634842E+03	2.156903E-04	3.762835E-06
5.644815E+03	2.172440E-04	3.784021E-06
5.654789E+03	2.187801E-04	3.804982E-06
5.664762E+03	2.202985E-04	3.825717E-06
5.674735E+03	2.217989E-04	3.846224E-06
5.684708E+03	2.232813E-04	3.866502E-06
5.694681E+03	2.247453E-04	3.886551E-06
5.704654E+03	2.261910E-04	3.906372E-06
5.714628E+03	2.276183E-04	3.925967E-06
5.724601E+03	2.289856E-04	3.944620E-06
5.734574E+03	2.303762E-04	3.963767E-06
5.744547E+03	2.317483E-04	3.982692E-06
5.754520E+03	2.330604E-04	4.000681E-06
5.764494E+03	2.343541E-04	4.018451E-06
5.774467E+03	2.356721E-04	4.036737E-06
5.784440E+03	2.369298E-04	4.054089E-06
5.794413E+03	2.382127E-04	4.071969E-06
5.804386E+03	2.394353E-04	4.088920E-06
5.814359E+03	2.406407E-04	4.105678E-06
5.824333E+03	2.418292E-04	4.122247E-06
5.834306E+03	2.430011E-04	4.138636E-06
5.844279E+03	2.441565E-04	4.154844E-06
5.854252E+03	2.452960E-04	4.170883E-06
5.864225E+03	2.464197E-04	4.186752E-06
5.874198E+03	2.475280E-04	4.202463E-06
5.884172E+03	2.485771E-04	4.217268E-06
5.894145E+03	2.496554E-04	4.232671E-06
5.904118E+03	2.507196E-04	4.247933E-06
5.914091E+03	2.517250E-04	4.262300E-06
5.924064E+03	2.527613E-04	4.277290E-06
5.934037E+03	2.537394E-04	4.291393E-06
5.944011E+03	2.547494E-04	4.306135E-06
5.953984E+03	2.557017E-04	4.319998E-06
5.963957E+03	2.566414E-04	4.333745E-06
5.973930E+03	2.576146E-04	4.348158E-06
5.983903E+03	2.585307E-04	4.361700E-06
5.993876E+03	2.594353E-04	4.375145E-06
6.003850E+03	2.603290E-04	4.388499E-06
6.013823E+03	2.612119E-04	4.401767E-06
6.023796E+03	2.620845E-04	4.414953E-06
6.033769E+03	2.629471E-04	4.428064E-06
6.043742E+03	2.638001E-04	4.441105E-06
6.053716E+03	2.645973E-04	4.453297E-06
6.063689E+03	2.654319E-04	4.466209E-06
6.073662E+03	2.662579E-04	4.479065E-06
6.083635E+03	2.670286E-04	4.491079E-06
6.093608E+03	2.678382E-04	4.503835E-06
6.103581E+03	2.685928E-04	4.515755E-06
6.113555E+03	2.693398E-04	4.527633E-06
6.123528E+03	2.701271E-04	4.540273E-06
6.133501E+03	2.708600E-04	4.552084E-06
6.143474E+03	2.715862E-04	4.563866E-06
6.153447E+03	2.723061E-04	4.575627E-06
6.163420E+03	2.730200E-04	4.587368E-06
6.173394E+03	2.737281E-04	4.599095E-06
6.183367E+03	2.744307E-04	4.610812E-06
6.193340E+03	2.751283E-04	4.622524E-06
6.203313E+03	2.758210E-04	4.634235E-06
6.213286E+03	2.765093E-04	4.645951E-06
6.223259E+03	2.771449E-04	4.656862E-06
6.233233E+03	2.778252E-04	4.668603E-06
6.243206E+03	2.785020E-04	4.680362E-06
6.253179E+03	2.791270E-04	4.691330E-06
6.263152E+03	2.797979E-04	4.703148E-06
6.273125E+03	2.804178E-04	4.714185E-06
6.283098E+03	2.810358E-04	4.725268E-06
6.293072E+03	2.816522E-04	4.736399E-06
6.303045E+03	2.823168E-04	4.748418E-06
6.313018E+03	2.829318E-04	4.759681E-06
6.322991E+03	2.835470E-04	4.771023E-06
6.332964E+03	2.841631E-04	4.782456E-06
6.342937E+03	2.847808E-04	4.793992E-06
6.352911E+03	2.854008E-04	4.805644E-06
6.362884E+03	2.859743E-04	4.816591E-06
6.372857E+03	2.866014E-04	4.828517E-06
6.382830E+03	2.872338E-04	4.840607E-06
6.392803E+03	2.878224E-04	4.852039E-06
6.402777E+03	2.884683E-04	4.864514E-06
6.412750E+03	2.890730E-04	4.876372E-06
6.422723E+03	2.897379E-04	4.889324E-06
6.432696E+03	2.903644E-04	4.901706E-06
6.442669E+03	2.910042E-04	4.914393E-06
6.452642E+03	2.917096E-04	4.928270E-06
6.462616E+03	2.923817E-04	4.941665E-06
6.472589E+03	2.930726E-04	4.955460E-06
6.482562E+03	2.937847E-04	4.969697E-06
6.492535E+03	2.945195E-04	4.984403E-06
6.502508E+03	2.952790E-04	4.999612E-06
6.512481E+03	2.960643E-04	5.015346E-06
6.522455E+03	2.968762E-04	5.031619E-06
6.532428E+03	2.976632E-04	5.047559E-06
6.542401E+03	2.985272E-04	5.064896E-06
6.552374E+03	2.994161E-04	5.082749E-06
6.562347E+03	3.002767E-04	5.100217E-06
6.572320E+03	3.012118E-04	5.119046E-06
6.582294E+03	3.021164E-04	5.137455E-06
6.592267E+03	3.030412E-04	5.156308E-06
6.602240E+03	3.040379E-04	5.176485E-06
6.612213E+03	3.050009E-04	5.196194E-06
6.622186E+03	3.059818E-04	5.216312E-06
6.632159E+03	3.069798E-04	5.236832E-06
6.642133E+03	3.079945E-04	5.257744E-06
6.652106E+03	3.090255E-04	5.279045E-06
6.662079E+03	3.100721E-04	5.300725E-06
6.672052E+03	3.111341E-04	5.322777E-06
6.682025E+03	3.122112E-04	5.345196E-06
6.691999E+03	3.133032E-04	5.367978E-06
6.701972E+03	3.143554E-04	5.390183E-06
6.711945E+03	3.154765E-04	5.413674E-06
6.721918E+03	3.165574E-04	5.436579E-06
6.731891E+03	3.177074E-04	5.460773E-06
6.741864E+03	3.188168E-04	5.484371E-06
6.751838E+03	3.199958E-04	5.509267E-06
6.761811E+03	3.211340E-04	5.533560E-06
6.771784E+03	3.222868E-04	5.558202E-06
6.781757E+03	3.234541E-04	5.583192E-06
6.791730E+03	3.246925E-04	5.609506E-06
6.801703E+03	3.258899E-04	5.635208E-06
6.811677E+03	3.271025E-04	5.661266E-06
6.821650E+03	3.283305E-04	5.687686E-06
6.831623E+03	3.295170E-04	5.713479E-06
6.841596E+03	3.307763E-04	5.740625E-06
6.851569E+03	3.320515E-04	5.768140E-06
6.861542E+03	3.333430E-04	5.796030E-06
6.871516E+03	3.345931E-04	5.823288E-06
6.881489E+03	3.359177E-04	5.851932E-06
6.891462E+03	3.372590E-04	5.880958E-06
6.901435E+03	3.385589E-04	5.909351E-06
6.911408E+03	3.399347E-04	5.939154E-06
6.921381E+03	3.412688E-04	5.968318E-06
6.931355E+03	3.426199E-04	5.997866E-06
6.941328E+03	3.439886E-04	6.027808E-06
6.951301E+03	3.454347E-04	6.059193E-06
6.961274E+03	3.468387E-04	6.089926E-06
6.971247E+03	3.482605E-04	6.121059E-06
6.981221E+03	3.497002E-04	6.152592E-06
6.991194E+03	3.511578E-04	6.184525E-06
7.001167E+03	3.526335E-04	6.216863E-06
7.011140E+03	3.541272E-04	6.249605E-06
7.021113E+03	3.555771E-04	6.281659E-06
7.031086E+03	3.571067E-04	6.315205E-06
7.041060E+03	3.586544E-04	6.349159E-06
7.051033E+03	3.602202E-04	6.383521E-06
7.061006E+03	3.617407E-04	6.417167E-06
7.070979E+03	3.633421E-04	6.452334E-06
7.080952E+03	3.648973E-04	6.486770E-06
7.090925E+03	3.664698E-04	6.521598E-06
7.100899E+03	3.681233E-04	6.557958E-06
7.110872E+03	3.697293E-04	6.593561E-06
7.120845E+03	3.713520E-04	6.629548E-06
7.130818E+03	3.730559E-04	6.667078E-06
7.140791E+03	3.747106E-04	6.703821E-06
7.150764E+03	3.763810E-04	6.740935E-06
7.160738E+03	3.780665E-04	6.778412E-06
7.170711E+03	3.797667E-04	6.816248E-06
7.180684E+03	3.814813E-04	6.854434E-06
7.190657E+03	3.832098E-04	6.892967E-06
7.200630E+03	3.848841E-04	6.930620E-06
7.210603E+03	3.866384E-04	6.969811E-06
7.220577E+03	3.884051E-04	7.009324E-06
7.230550E+03	3.901836E-04	7.049151E-06
7.240523E+03	3.919041E-04	7.088030E-06
7.250496E+03	3.937036E-04	7.128441E-06
7.260469E+03	3.954431E-04	7.167867E-06
7.270443E+03	3.972608E-04	7.208818E-06
7.280416E+03	3.990163E-04	7.248745E-06
7.290389E+03	4.008491E-04	7.290186E-06
7.300362E+03	4.026171E-04	7.330558E-06
7.310335E+03	4.043899E-04	7.371128E-06
7.320308E+03	4.061666E-04	7.411882E-06
7.330282E+03	4.080184E-04	7.454118E-06
7.340255E+03	4.097999E-04	7.495191E-06
7.350228E+03	4.115821E-04	7.536392E-06
7.360201E+03	4.133639E-04	7.577705E-06
7.370174E+03	4.151441E-04	7.619112E-06
7.380147E+03	4.169214E-04	7.660587E-06
7.390121E+03	4.186945E-04	7.702111E-06
7.400094E+03	4.203875E-04	7.742287E-06
7.410067E+03	4.221481E-04	7.783837E-06
7.420040E+03	4.239006E-04	7.825368E-06
7.430013E+03	4.256434E-04	7.866855E-06
7.439986E+03	4.272990E-04	7.906863E-06
7.449960E+03	4.290178E-04	7.948176E-06
7.459933E+03	4.306455E-04	7.987943E-06
7.469906E+03	4.323342E-04	8.028980E-06
7.479879E+03	4.339278E-04	8.068392E-06
7.489852E+03	4.355796E-04	8.109035E-06
7.499825E+03	4.371323E-04	8.147977E-06
7.509799E+03	4.386619E-04	8.186637E-06
7.519772E+03	4.402454E-04	8.226454E-06
7.529745E+03	4.417234E-04	8.264454E-06
7.539718E+03	4.431728E-04	8.302072E-06
7.549691E+03	4.445916E-04	8.339273E-06
7.559665E+03	4.459781E-04	8.376024E-06
7.569638E+03	4.473301E-04	8.412289E-06
7.579611E+03	4.486458E-04	8.448033E-06
7.589584E+03	4.499231E-04	8.483215E-06
7.599557E+03	4.511602E-04	8.517806E-06
7.609530E+03	4.523551E-04	8.551766E-06
7.619504E+03	4.535054E-04	8.585053E-06
7.629477E+03	4.546094E-04	8.617632E-06
7.639450E+03	4.556651E-04	8.649467E-06
7.649423E+03	4.565872E-04	8.678938E-06
7.659396E+03	4.575395E-04	8.709155E-06
7.669369E+03	4.584372E-04	8.738507E-06
7.679343E+03	4.591947E-04	8.765361E-06
7.689316E+03	4.599768E-04	8.792860E-06
7.699289E+03	4.606143E-04	8.817770E-06
7.709262E+03	4.612732E-04	8.843265E-06
7.719235E+03	4.617831E-04	8.866082E-06
7.729208E+03	4.623108E-04	8.889417E-06
7.739182E+03	4.626854E-04	8.909984E-06
