#wls	flux	fluxerr
1.595708E+03	2.826284E-06	9.104473E-08
1.635600E+03	2.868200E-06	9.225076E-08
1.675493E+03	2.912066E-06	9.351125E-08
1.715386E+03	2.959263E-06	9.486993E-08
1.755278E+03	3.008640E-06	9.628913E-08
1.795171E+03	3.060313E-06	9.777189E-08
1.835064E+03	3.115724E-06	9.936345E-08
1.874956E+03	3.172368E-06	1.009831E-07
1.914849E+03	3.233044E-06	1.027193E-07
1.954742E+03	3.296573E-06	1.045333E-07
1.994634E+03	3.364500E-06	1.064733E-07
2.034527E+03	3.434224E-06	1.084557E-07
2.074420E+03	3.508722E-06	1.105735E-07
2.114312E+03	3.588239E-06	1.128330E-07
2.154205E+03	3.670093E-06	1.151485E-07
2.194098E+03	3.757421E-06	1.176171E-07
2.233991E+03	3.848998E-06	1.201987E-07
2.273883E+03	3.945065E-06	1.228992E-07
2.313776E+03	4.047454E-06	1.257739E-07
2.353669E+03	4.154921E-06	1.287820E-07
2.393561E+03	4.267755E-06	1.319304E-07
2.433454E+03	4.386269E-06	1.352266E-07
2.473347E+03	4.512508E-06	1.387311E-07
2.513239E+03	4.645185E-06	1.424016E-07
2.553132E+03	4.784683E-06	1.462469E-07
2.593025E+03	4.933239E-06	1.503325E-07
2.632917E+03	5.089544E-06	1.546147E-07
2.672810E+03	5.254066E-06	1.591044E-07
2.712703E+03	5.429272E-06	1.638722E-07
2.752596E+03	5.611815E-06	1.688129E-07
2.792488E+03	5.806250E-06	1.740593E-07
2.832381E+03	6.013351E-06	1.796292E-07
2.872274E+03	6.229585E-06	1.854116E-07
2.912166E+03	6.459968E-06	1.915505E-07
2.952059E+03	6.705445E-06	1.980670E-07
2.991952E+03	6.962265E-06	2.048436E-07
3.001925E+03	7.029295E-06	2.066085E-07
3.011898E+03	7.097251E-06	2.083956E-07
3.021871E+03	7.166147E-06	2.102050E-07
3.031844E+03	7.236000E-06	2.120372E-07
3.041818E+03	7.306822E-06	2.138923E-07
3.051791E+03	7.378630E-06	2.157707E-07
3.061764E+03	7.451439E-06	2.176729E-07
3.071737E+03	7.525265E-06	2.195990E-07
3.081710E+03	7.600123E-06	2.215494E-07
3.091683E+03	7.676030E-06	2.235244E-07
3.101657E+03	7.753003E-06	2.255244E-07
3.111630E+03	7.831058E-06	2.275497E-07
3.121603E+03	7.910213E-06	2.296007E-07
3.131576E+03	7.993141E-06	2.317548E-07
3.141549E+03	8.074568E-06	2.338588E-07
3.151522E+03	8.157147E-06	2.359896E-07
3.161496E+03	8.240896E-06	2.381474E-07
3.171469E+03	8.325834E-06	2.403327E-07
3.181442E+03	8.414751E-06	2.426258E-07
3.191415E+03	8.502148E-06	2.448678E-07
3.201388E+03	8.590791E-06	2.471386E-07
3.211361E+03	8.680701E-06	2.494383E-07
3.221335E+03	8.774762E-06	2.518497E-07
3.231308E+03	8.867291E-06	2.542094E-07
3.241281E+03	8.961147E-06	2.565993E-07
3.251254E+03	9.059292E-06	2.591040E-07
3.261227E+03	9.155894E-06	2.615564E-07
3.271200E+03	9.253889E-06	2.640403E-07
3.281174E+03	9.356318E-06	2.666422E-07
3.291147E+03	9.457192E-06	2.691912E-07
3.301120E+03	9.562599E-06	2.718604E-07
3.311093E+03	9.666448E-06	2.744762E-07
3.321066E+03	9.774931E-06	2.772146E-07
3.331040E+03	9.881848E-06	2.798991E-07
3.341013E+03	9.993507E-06	2.827085E-07
3.350986E+03	1.010359E-05	2.854638E-07
3.360959E+03	1.021853E-05	2.883462E-07
3.370932E+03	1.033189E-05	2.911741E-07
3.380905E+03	1.045022E-05	2.941317E-07
3.390879E+03	1.056696E-05	2.970342E-07
3.400852E+03	1.068877E-05	3.000689E-07
3.410825E+03	1.081240E-05	3.031434E-07
3.420798E+03	1.093443E-05	3.061622E-07
3.430771E+03	1.106173E-05	3.093171E-07
3.440744E+03	1.118742E-05	3.124159E-07
3.450718E+03	1.131851E-05	3.156535E-07
3.460691E+03	1.145155E-05	3.189337E-07
3.470664E+03	1.158298E-05	3.221571E-07
3.480637E+03	1.172000E-05	3.255234E-07
3.490610E+03	1.185907E-05	3.289341E-07
3.500583E+03	1.200023E-05	3.323898E-07
3.510557E+03	1.213978E-05	3.357879E-07
3.520530E+03	1.228519E-05	3.393346E-07
3.530503E+03	1.243279E-05	3.429283E-07
3.540476E+03	1.258262E-05	3.465695E-07
3.550449E+03	1.273471E-05	3.502589E-07
3.560422E+03	1.288519E-05	3.538895E-07
3.570396E+03	1.304189E-05	3.576765E-07
3.580369E+03	1.320096E-05	3.615137E-07
3.590342E+03	1.336246E-05	3.654019E-07
3.600315E+03	1.352642E-05	3.693418E-07
3.610288E+03	1.369288E-05	3.733341E-07
3.620261E+03	1.386187E-05	3.773791E-07
3.630235E+03	1.403347E-05	3.814787E-07
3.640208E+03	1.420341E-05	3.855167E-07
3.650181E+03	1.438026E-05	3.897252E-07
3.660154E+03	1.455981E-05	3.939894E-07
3.670127E+03	1.474212E-05	3.983107E-07
3.680101E+03	1.492723E-05	4.026893E-07
3.690074E+03	1.511521E-05	4.071270E-07
3.700047E+03	1.530607E-05	4.116236E-07
3.710020E+03	1.549989E-05	4.161805E-07
3.719993E+03	1.569671E-05	4.207986E-07
3.729966E+03	1.589658E-05	4.254784E-07
3.739940E+03	1.609955E-05	4.302209E-07
3.749913E+03	1.630568E-05	4.350273E-07
3.759886E+03	1.651501E-05	4.398978E-07
3.769859E+03	1.673248E-05	4.449636E-07
3.779832E+03	1.694844E-05	4.499673E-07
3.789805E+03	1.716776E-05	4.550379E-07
3.799779E+03	1.739053E-05	4.601772E-07
3.809752E+03	1.761678E-05	4.653856E-07
3.819725E+03	1.784659E-05	4.706641E-07
3.829698E+03	1.807999E-05	4.760138E-07
3.839671E+03	1.831707E-05	4.814355E-07
3.849644E+03	1.855788E-05	4.869305E-07
3.859618E+03	1.880786E-05	4.926406E-07
3.869591E+03	1.905639E-05	4.982863E-07
3.879564E+03	1.930884E-05	5.040085E-07
3.889537E+03	1.956529E-05	5.098080E-07
3.899510E+03	1.982580E-05	5.156860E-07
3.909483E+03	2.009614E-05	5.217915E-07
3.919457E+03	2.036507E-05	5.278317E-07
3.929430E+03	2.063827E-05	5.339535E-07
3.939403E+03	2.091581E-05	5.401582E-07
3.949376E+03	2.119779E-05	5.464475E-07
3.959349E+03	2.149029E-05	5.529770E-07
3.969323E+03	2.178143E-05	5.594400E-07
3.979296E+03	2.207722E-05	5.659907E-07
3.989269E+03	2.237777E-05	5.726310E-07
3.999242E+03	2.268943E-05	5.795224E-07
4.009215E+03	2.299979E-05	5.863464E-07
4.019188E+03	2.331512E-05	5.932631E-07
4.029162E+03	2.363556E-05	6.002747E-07
4.039135E+03	2.396777E-05	6.075494E-07
4.049108E+03	2.429871E-05	6.147552E-07
4.059081E+03	2.463501E-05	6.220598E-07
4.069054E+03	2.498360E-05	6.296368E-07
4.079027E+03	2.533097E-05	6.371443E-07
4.089001E+03	2.568398E-05	6.447548E-07
4.098974E+03	2.604273E-05	6.524695E-07
4.108947E+03	2.641452E-05	6.604698E-07
4.118920E+03	2.678514E-05	6.683995E-07
4.128893E+03	2.716182E-05	6.764383E-07
4.138866E+03	2.755211E-05	6.847726E-07
4.148840E+03	2.794130E-05	6.930357E-07
4.158813E+03	2.833686E-05	7.014124E-07
4.168786E+03	2.874663E-05	7.100950E-07
4.178759E+03	2.915538E-05	7.187059E-07
4.188732E+03	2.957084E-05	7.274354E-07
4.198705E+03	3.000116E-05	7.364820E-07
4.208679E+03	3.043052E-05	7.454561E-07
4.218652E+03	3.086695E-05	7.545534E-07
4.228625E+03	3.131892E-05	7.639798E-07
4.238598E+03	3.176998E-05	7.733321E-07
4.248571E+03	3.222851E-05	7.828138E-07
4.258545E+03	3.270327E-05	7.926357E-07
4.268518E+03	3.317722E-05	8.023833E-07
4.278491E+03	3.365905E-05	8.122658E-07
4.288464E+03	3.415782E-05	8.225006E-07
4.298437E+03	3.465588E-05	8.326602E-07
4.308410E+03	3.516222E-05	8.429603E-07
4.318384E+03	3.567697E-05	8.534027E-07
4.328357E+03	3.620974E-05	8.642147E-07
4.338330E+03	3.674190E-05	8.749501E-07
4.348303E+03	3.728293E-05	8.858339E-07
4.358276E+03	3.784278E-05	8.971006E-07
4.368249E+03	3.840214E-05	9.082898E-07
4.378223E+03	3.897083E-05	9.196336E-07
4.388196E+03	3.955920E-05	9.313739E-07
4.398169E+03	4.014718E-05	9.430357E-07
4.408142E+03	4.074496E-05	9.548580E-07
4.418115E+03	4.135274E-05	9.668435E-07
4.428088E+03	4.198141E-05	9.792446E-07
4.438062E+03	4.260983E-05	9.915654E-07
4.448035E+03	4.324872E-05	1.004055E-06
4.458008E+03	4.390946E-05	1.016976E-06
4.467981E+03	4.457002E-05	1.029814E-06
4.477954E+03	4.524162E-05	1.042828E-06
4.487927E+03	4.592444E-05	1.056021E-06
4.497901E+03	4.663042E-05	1.069664E-06
4.507874E+03	4.733635E-05	1.083223E-06
4.517847E+03	4.805404E-05	1.096967E-06
4.527820E+03	4.878369E-05	1.110897E-06
4.537793E+03	4.952548E-05	1.125017E-06
4.547767E+03	5.029216E-05	1.139614E-06
4.557740E+03	5.105897E-05	1.154122E-06
4.567713E+03	5.183849E-05	1.168826E-06
4.577686E+03	5.263092E-05	1.183728E-06
4.587659E+03	5.343644E-05	1.198830E-06
4.597632E+03	5.425526E-05	1.214135E-06
4.607606E+03	5.510122E-05	1.229949E-06
4.617579E+03	5.594740E-05	1.245668E-06
4.627552E+03	5.680749E-05	1.261596E-06
4.637525E+03	5.768165E-05	1.277734E-06
4.647498E+03	5.857009E-05	1.294084E-06
4.657471E+03	5.947302E-05	1.310650E-06
4.667445E+03	6.039061E-05	1.327432E-06
4.677418E+03	6.132308E-05	1.344432E-06
4.687391E+03	6.227061E-05	1.361653E-06
4.697364E+03	6.323340E-05	1.379095E-06
4.707337E+03	6.421164E-05	1.396761E-06
4.717310E+03	6.520551E-05	1.414653E-06
4.727284E+03	6.621520E-05	1.432771E-06
4.737257E+03	6.724090E-05	1.451117E-06
4.747230E+03	6.828280E-05	1.469694E-06
4.757203E+03	6.934106E-05	1.488501E-06
4.767176E+03	7.041586E-05	1.507540E-06
4.777149E+03	7.150739E-05	1.526813E-06
4.787123E+03	7.261580E-05	1.546321E-06
4.797096E+03	7.374125E-05	1.566063E-06
4.807069E+03	7.488391E-05	1.586042E-06
4.817042E+03	7.604392E-05	1.606258E-06
4.827015E+03	7.720302E-05	1.626323E-06
4.836989E+03	7.839791E-05	1.647010E-06
4.846962E+03	7.961058E-05	1.667934E-06
4.856935E+03	8.084112E-05	1.689097E-06
4.866908E+03	8.207024E-05	1.710092E-06
4.876881E+03	8.333663E-05	1.731726E-06
4.886854E+03	8.462123E-05	1.753598E-06
4.896828E+03	8.592413E-05	1.775706E-06
4.906801E+03	8.722485E-05	1.797627E-06
4.916774E+03	8.856427E-05	1.820201E-06
4.926747E+03	8.992216E-05	1.843010E-06
4.936720E+03	9.127719E-05	1.865613E-06
4.946693E+03	9.267187E-05	1.888880E-06
4.956667E+03	9.406313E-05	1.911929E-06
4.966640E+03	9.549462E-05	1.935647E-06
4.976613E+03	9.694464E-05	1.959589E-06
4.986586E+03	9.839030E-05	1.983292E-06
4.996559E+03	9.987697E-05	2.007669E-06
5.006532E+03	1.013585E-04	2.031792E-06
5.016506E+03	1.028816E-04	2.056593E-06
5.026479E+03	1.043987E-04	2.081121E-06
5.036452E+03	1.059332E-04	2.105844E-06
5.046425E+03	1.075097E-04	2.131247E-06
5.056398E+03	1.090789E-04	2.156350E-06
5.066371E+03	1.106649E-04	2.181633E-06
5.076345E+03	1.122934E-04	2.207597E-06
5.086318E+03	1.139129E-04	2.233229E-06
5.096291E+03	1.155485E-04	2.259024E-06
5.106264E+03	1.172267E-04	2.285498E-06
5.116237E+03	1.188941E-04	2.311605E-06
5.126210E+03	1.205767E-04	2.337855E-06
5.136184E+03	1.222740E-04	2.364240E-06
5.146157E+03	1.239858E-04	2.390754E-06
5.156130E+03	1.257116E-04	2.417387E-06
5.166103E+03	1.274509E-04	2.444131E-06
5.176076E+03	1.292033E-04	2.470979E-06
5.186050E+03	1.309682E-04	2.497919E-06
5.196023E+03	1.327451E-04	2.524943E-06
5.205996E+03	1.345336E-04	2.552043E-06
5.215969E+03	1.363326E-04	2.579204E-06
5.225942E+03	1.381421E-04	2.606422E-06
5.235915E+03	1.399611E-04	2.633681E-06
5.245889E+03	1.417888E-04	2.660971E-06
5.255862E+03	1.436249E-04	2.688284E-06
5.265835E+03	1.454682E-04	2.715604E-06
5.275808E+03	1.472855E-04	2.742312E-06
5.285781E+03	1.491410E-04	2.769609E-06
5.295754E+03	1.510016E-04	2.796882E-06
5.305728E+03	1.528324E-04	2.823485E-06
5.315701E+03	1.547002E-04	2.850661E-06
5.325674E+03	1.565706E-04	2.877775E-06
5.335647E+03	1.584074E-04	2.904166E-06
5.345620E+03	1.602796E-04	2.931107E-06
5.355593E+03	1.621160E-04	2.957297E-06
5.365567E+03	1.639866E-04	2.984021E-06
5.375540E+03	1.658187E-04	3.009956E-06
5.385513E+03	1.676841E-04	3.036414E-06
5.395486E+03	1.695086E-04	3.062056E-06
5.405459E+03	1.713278E-04	3.087531E-06
5.415432E+03	1.731789E-04	3.113516E-06
5.425406E+03	1.749857E-04	3.138642E-06
5.435379E+03	1.767850E-04	3.163581E-06
5.445352E+03	1.785762E-04	3.188327E-06
5.455325E+03	1.803981E-04	3.213578E-06
5.465298E+03	1.821718E-04	3.237933E-06
5.475272E+03	1.839356E-04	3.262080E-06
5.485245E+03	1.856887E-04	3.286016E-06
5.495218E+03	1.874307E-04	3.309737E-06
5.505191E+03	1.891608E-04	3.333236E-06
5.515164E+03	1.908781E-04	3.356504E-06
5.525137E+03	1.925821E-04	3.379541E-06
5.535111E+03	1.942719E-04	3.402338E-06
5.545084E+03	1.959470E-04	3.424893E-06
5.555057E+03	1.975642E-04	3.446457E-06
5.565030E+03	1.992080E-04	3.468516E-06
5.575003E+03	2.008356E-04	3.490330E-06
5.584976E+03	2.024466E-04	3.511896E-06
5.594950E+03	2.039970E-04	3.532460E-06
5.604923E+03	2.055739E-04	3.553535E-06
5.614896E+03	2.071335E-04	3.574364E-06
5.624869E+03	2.086313E-04	3.594181E-06
5.634842E+03	2.101560E-04	3.614522E-06
5.644815E+03	2.116181E-04	3.633847E-06
5.654789E+03	2.131077E-04	3.653708E-06
5.664762E+03	2.145341E-04	3.672551E-06
5.674735E+03	2.159427E-04	3.691157E-06
5.684708E+03	2.173800E-04	3.710321E-06
5.694681E+03	2.187535E-04	3.728468E-06
5.704654E+03	2.201096E-04	3.746392E-06
5.714628E+03	2.214485E-04	3.764095E-06
5.724601E+03	2.228175E-04	3.782386E-06
5.734574E+03	2.241226E-04	3.799669E-06
5.744547E+03	2.254112E-04	3.816748E-06
5.754520E+03	2.266832E-04	3.833627E-06
5.764494E+03	2.279391E-04	3.850312E-06
5.774467E+03	2.291793E-04	3.866812E-06
5.784440E+03	2.304039E-04	3.883130E-06
5.794413E+03	2.316133E-04	3.899273E-06
5.804386E+03	2.327586E-04	3.914421E-06
5.814359E+03	2.339381E-04	3.930227E-06
5.824333E+03	2.351036E-04	3.945881E-06
5.834306E+03	2.362551E-04	3.961382E-06
5.844279E+03	2.373431E-04	3.975902E-06
5.854252E+03	2.384676E-04	3.991119E-06
5.864225E+03	2.395792E-04	4.006204E-06
5.874198E+03	2.406279E-04	4.020321E-06
5.884172E+03	2.417148E-04	4.035158E-06
5.894145E+03	2.427391E-04	4.049036E-06
5.904118E+03	2.438027E-04	4.063652E-06
5.914091E+03	2.448040E-04	4.077315E-06
5.924064E+03	2.457944E-04	4.090879E-06
5.934037E+03	2.468259E-04	4.105209E-06
5.944011E+03	2.477956E-04	4.118596E-06
5.953984E+03	2.487556E-04	4.131904E-06
5.963957E+03	2.497060E-04	4.145134E-06
5.973930E+03	2.506475E-04	4.158299E-06
5.983903E+03	2.515802E-04	4.171398E-06
5.993876E+03	2.525044E-04	4.184439E-06
6.003850E+03	2.534207E-04	4.197429E-06
6.013823E+03	2.543294E-04	4.210373E-06
6.023796E+03	2.552308E-04	4.223276E-06
6.033769E+03	2.561253E-04	4.236143E-06
6.043742E+03	2.570130E-04	4.248977E-06
6.053716E+03	2.578946E-04	4.261788E-06
6.063689E+03	2.587165E-04	4.273690E-06
6.073662E+03	2.595862E-04	4.286460E-06
6.083635E+03	2.604508E-04	4.299220E-06
6.093608E+03	2.612562E-04	4.311081E-06
6.103581E+03	2.621107E-04	4.323829E-06
6.113555E+03	2.629065E-04	4.335683E-06
6.123528E+03	2.637525E-04	4.348439E-06
6.133501E+03	2.645398E-04	4.360302E-06
6.143474E+03	2.653233E-04	4.372179E-06
6.153447E+03	2.661582E-04	4.384974E-06
6.163420E+03	2.669351E-04	4.396887E-06
6.173394E+03	2.677087E-04	4.408821E-06
6.183367E+03	2.684796E-04	4.420781E-06
6.193340E+03	2.693033E-04	4.433684E-06
6.203313E+03	2.700694E-04	4.445711E-06
6.213286E+03	2.708333E-04	4.457775E-06
6.223259E+03	2.715954E-04	4.469880E-06
6.233233E+03	2.723558E-04	4.482028E-06
6.243206E+03	2.731147E-04	4.494225E-06
6.253179E+03	2.738725E-04	4.506473E-06
6.263152E+03	2.745727E-04	4.517846E-06
6.273125E+03	2.753286E-04	4.530206E-06
6.283098E+03	2.760838E-04	4.542628E-06
6.293072E+03	2.768386E-04	4.555112E-06
6.303045E+03	2.775363E-04	4.566730E-06
6.313018E+03	2.782908E-04	4.579354E-06
6.322991E+03	2.789885E-04	4.591116E-06
6.332964E+03	2.797437E-04	4.603895E-06
6.342937E+03	2.804423E-04	4.615815E-06
6.352911E+03	2.811992E-04	4.628767E-06
6.362884E+03	2.818995E-04	4.640863E-06
6.372857E+03	2.826013E-04	4.653054E-06
6.382830E+03	2.833628E-04	4.666303E-06
6.392803E+03	2.840684E-04	4.678706E-06
6.402777E+03	2.847765E-04	4.691225E-06
6.412750E+03	2.854876E-04	4.703868E-06
6.422723E+03	2.862023E-04	4.716646E-06
6.432696E+03	2.869210E-04	4.729569E-06
6.442669E+03	2.876448E-04	4.742651E-06
6.452642E+03	2.883744E-04	4.755907E-06
6.462616E+03	2.891106E-04	4.769353E-06
6.472589E+03	2.898550E-04	4.783011E-06
6.482562E+03	2.906083E-04	4.796900E-06
6.492535E+03	2.913722E-04	4.811045E-06
6.502508E+03	2.920880E-04	4.824478E-06
6.512481E+03	2.928760E-04	4.839187E-06
6.522455E+03	2.936769E-04	4.854196E-06
6.532428E+03	2.944306E-04	4.868512E-06
6.542401E+03	2.952570E-04	4.884117E-06
6.552374E+03	2.960350E-04	4.899011E-06
6.562347E+03	2.968848E-04	4.915184E-06
6.572320E+03	2.976850E-04	4.930628E-06
6.582294E+03	2.984957E-04	4.946339E-06
6.592267E+03	2.993778E-04	4.963328E-06
6.602240E+03	3.002089E-04	4.979570E-06
6.612213E+03	3.010502E-04	4.996079E-06
6.622186E+03	3.019015E-04	5.012855E-06
6.632159E+03	3.028251E-04	5.030933E-06
6.642133E+03	3.036976E-04	5.048267E-06
6.652106E+03	3.045807E-04	5.065881E-06
6.662079E+03	3.054748E-04	5.083783E-06
6.672052E+03	3.063800E-04	5.101971E-06
6.682025E+03	3.072965E-04	5.120452E-06
6.691999E+03	3.081620E-04	5.138180E-06
6.701972E+03	3.091020E-04	5.157250E-06
6.711945E+03	3.100545E-04	5.176627E-06
6.721918E+03	3.110197E-04	5.196312E-06
6.731891E+03	3.119978E-04	5.216310E-06
6.741864E+03	3.129253E-04	5.235556E-06
6.751838E+03	3.139304E-04	5.256193E-06
6.761811E+03	3.148851E-04	5.276079E-06
6.771784E+03	3.159183E-04	5.297371E-06
6.781757E+03	3.169014E-04	5.317914E-06
6.791730E+03	3.179641E-04	5.339882E-06
6.801703E+03	3.189772E-04	5.361105E-06
6.811677E+03	3.200055E-04	5.382671E-06
6.821650E+03	3.211149E-04	5.405688E-06
6.831623E+03	3.221749E-04	5.427960E-06
6.841596E+03	3.232512E-04	5.450592E-06
6.851569E+03	3.243441E-04	5.473587E-06
6.861542E+03	3.255201E-04	5.498071E-06
6.871516E+03	3.266470E-04	5.521807E-06
6.881489E+03	3.277912E-04	5.545920E-06
6.891462E+03	3.289529E-04	5.570411E-06
6.901435E+03	3.301326E-04	5.595287E-06
6.911408E+03	3.312625E-04	5.619401E-06
6.921381E+03	3.324782E-04	5.645050E-06
6.931355E+03	3.337122E-04	5.671092E-06
6.941328E+03	3.349650E-04	5.697532E-06
6.951301E+03	3.362365E-04	5.724373E-06
6.961274E+03	3.374579E-04	5.750438E-06
6.971247E+03	3.387673E-04	5.778083E-06
6.981221E+03	3.400957E-04	5.806133E-06
6.991194E+03	3.413736E-04	5.833398E-06
7.001167E+03	3.427406E-04	5.862267E-06
7.011140E+03	3.440563E-04	5.890338E-06
7.021113E+03	3.454619E-04	5.920028E-06
7.031086E+03	3.468158E-04	5.948912E-06
7.041060E+03	3.481885E-04	5.978197E-06
7.051033E+03	3.496521E-04	6.009122E-06
7.061006E+03	3.510628E-04	6.039222E-06
7.070979E+03	3.524924E-04	6.069726E-06
7.080952E+03	3.539404E-04	6.100629E-06
7.090925E+03	3.554803E-04	6.133198E-06
7.100899E+03	3.569656E-04	6.164909E-06
7.110872E+03	3.584693E-04	6.197019E-06
7.120845E+03	3.599910E-04	6.229524E-06
7.130818E+03	3.615304E-04	6.262421E-06
7.140791E+03	3.630874E-04	6.295707E-06
7.150764E+03	3.646615E-04	6.329377E-06
7.160738E+03	3.662527E-04	6.363429E-06
7.170711E+03	3.677845E-04	6.396538E-06
7.180684E+03	3.694083E-04	6.431333E-06
7.190657E+03	3.710479E-04	6.466494E-06
7.200630E+03	3.727029E-04	6.502015E-06
7.210603E+03	3.742956E-04	6.536541E-06
7.220577E+03	3.759798E-04	6.572756E-06
7.230550E+03	3.776781E-04	6.609315E-06
7.240523E+03	3.793111E-04	6.644825E-06
7.250496E+03	3.810353E-04	6.682029E-06
7.260469E+03	3.826924E-04	6.718154E-06
7.270443E+03	3.844400E-04	6.755970E-06
7.280416E+03	3.861185E-04	6.792671E-06
7.290389E+03	3.878868E-04	6.831055E-06
7.300362E+03	3.895837E-04	6.868287E-06
7.310335E+03	3.912883E-04	6.905760E-06
7.320308E+03	3.929999E-04	6.943463E-06
7.330282E+03	3.947999E-04	6.982837E-06
7.340255E+03	3.965233E-04	7.020968E-06
7.350228E+03	3.982510E-04	7.059288E-06
7.360201E+03	3.999820E-04	7.097780E-06
7.370174E+03	4.017151E-04	7.136426E-06
7.380147E+03	4.034495E-04	7.175213E-06
7.390121E+03	4.051839E-04	7.214120E-06
7.400094E+03	4.069173E-04	7.253132E-06
7.410067E+03	4.086484E-04	7.292227E-06
7.420040E+03	4.103759E-04	7.331384E-06
7.430013E+03	4.120986E-04	7.370586E-06
7.439986E+03	4.138153E-04	7.409810E-06
7.449960E+03	4.155246E-04	7.449035E-06
7.459933E+03	4.171374E-04	7.486664E-06
7.469906E+03	4.188272E-04	7.525812E-06
7.479879E+03	4.205051E-04	7.564885E-06
7.489852E+03	4.221698E-04	7.603864E-06
7.499825E+03	4.237305E-04	7.641113E-06
7.509799E+03	4.253636E-04	7.679810E-06
7.519772E+03	4.268886E-04	7.716705E-06
7.529745E+03	4.284834E-04	7.755013E-06
7.539718E+03	4.299660E-04	7.791439E-06
7.549691E+03	4.315158E-04	7.829238E-06
7.559665E+03	4.329490E-04	7.865080E-06
7.569638E+03	4.344466E-04	7.902248E-06
7.579611E+03	4.358231E-04	7.937375E-06
7.589584E+03	4.371682E-04	7.972091E-06
7.599557E+03	4.385732E-04	8.008065E-06
7.609530E+03	4.398503E-04	8.041869E-06
7.619504E+03	4.410901E-04	8.075159E-06
7.629477E+03	4.422908E-04	8.107901E-06
7.639450E+03	4.434501E-04	8.140055E-06
7.649423E+03	4.446608E-04	8.173327E-06
7.659396E+03	4.457317E-04	8.204205E-06
7.669369E+03	4.467551E-04	8.234385E-06
7.679343E+03	4.477288E-04	8.263824E-06
7.689316E+03	4.486508E-04	8.292486E-06
7.699289E+03	4.495188E-04	8.320330E-06
7.709262E+03	4.503306E-04	8.347314E-06
7.719235E+03	4.510843E-04	8.373401E-06
7.729208E+03	4.517774E-04	8.398546E-06
7.739182E+03	4.523108E-04	8.420900E-06
