#wls	flux	fluxerr
1.595708E+03	2.727747E-06	8.591944E-08
1.635600E+03	2.764002E-06	8.698832E-08
1.675493E+03	2.800680E-06	8.806648E-08
1.715386E+03	2.840430E-06	8.923691E-08
1.755278E+03	2.882067E-06	9.046207E-08
1.795171E+03	2.925688E-06	9.174466E-08
1.835064E+03	2.971394E-06	9.308749E-08
1.874956E+03	3.019295E-06	9.449366E-08
1.914849E+03	3.070871E-06	9.600900E-08
1.954742E+03	3.123526E-06	9.755191E-08
1.994634E+03	3.180141E-06	9.921198E-08
2.034527E+03	3.239488E-06	1.009503E-07
2.074420E+03	3.303154E-06	1.028156E-07
2.114312E+03	3.368442E-06	1.047235E-07
2.154205E+03	3.438415E-06	1.067686E-07
2.194098E+03	3.511821E-06	1.089112E-07
2.233991E+03	3.588851E-06	1.111565E-07
2.273883E+03	3.669714E-06	1.135103E-07
2.313776E+03	3.754627E-06	1.159783E-07
2.353669E+03	3.845433E-06	1.186166E-07
2.393561E+03	3.939203E-06	1.213338E-07
2.433454E+03	4.039443E-06	1.242368E-07
2.473347E+03	4.144842E-06	1.272841E-07
2.513239E+03	4.257445E-06	1.305372E-07
2.553132E+03	4.374153E-06	1.338995E-07
2.593025E+03	4.498830E-06	1.374881E-07
2.632917E+03	4.630131E-06	1.412600E-07
2.672810E+03	4.768469E-06	1.452263E-07
2.712703E+03	4.914290E-06	1.493985E-07
2.752596E+03	5.070057E-06	1.538494E-07
2.792488E+03	5.232357E-06	1.584734E-07
2.832381E+03	5.405767E-06	1.634066E-07
2.872274E+03	5.588896E-06	1.686043E-07
2.912166E+03	5.782385E-06	1.740831E-07
2.952059E+03	5.986920E-06	1.798605E-07
2.991952E+03	6.205574E-06	1.860254E-07
3.001925E+03	6.261016E-06	1.875840E-07
3.011898E+03	6.319618E-06	1.892347E-07
3.021871E+03	6.376669E-06	1.908364E-07
3.031844E+03	6.436943E-06	1.925320E-07
3.041818E+03	6.495660E-06	1.941783E-07
3.051791E+03	6.555220E-06	1.958472E-07
3.061764E+03	6.618099E-06	1.976125E-07
3.071737E+03	6.679408E-06	1.993280E-07
3.081710E+03	6.744103E-06	2.011418E-07
3.091683E+03	6.807219E-06	2.029055E-07
3.101657E+03	6.873793E-06	2.047693E-07
3.111630E+03	6.938777E-06	2.065827E-07
3.121603E+03	7.007290E-06	2.084982E-07
3.131576E+03	7.074205E-06	2.103629E-07
3.141549E+03	7.144725E-06	2.123315E-07
3.151522E+03	7.216282E-06	2.143277E-07
3.161496E+03	7.286230E-06	2.162728E-07
3.171469E+03	7.359896E-06	2.183248E-07
3.181442E+03	7.431944E-06	2.203254E-07
3.191415E+03	7.507790E-06	2.224350E-07
3.201388E+03	7.584766E-06	2.245745E-07
3.211361E+03	7.660112E-06	2.266620E-07
3.221335E+03	7.739381E-06	2.288619E-07
3.231308E+03	7.817009E-06	2.310094E-07
3.241281E+03	7.898650E-06	2.332716E-07
3.251254E+03	7.981519E-06	2.355661E-07
3.261227E+03	8.062736E-06	2.378078E-07
3.271200E+03	8.148098E-06	2.401677E-07
3.281174E+03	8.234755E-06	2.425614E-07
3.291147E+03	8.319746E-06	2.449018E-07
3.301120E+03	8.409026E-06	2.473640E-07
3.311093E+03	8.499666E-06	2.498618E-07
3.321066E+03	8.591691E-06	2.523957E-07
3.331040E+03	8.682032E-06	2.548755E-07
3.341013E+03	8.776866E-06	2.574824E-07
3.350986E+03	8.873153E-06	2.601272E-07
3.360959E+03	8.967749E-06	2.627174E-07
3.370932E+03	9.066995E-06	2.654388E-07
3.380905E+03	9.167773E-06	2.682000E-07
3.390879E+03	9.270110E-06	2.710014E-07
3.400852E+03	9.374032E-06	2.738438E-07
3.410825E+03	9.476241E-06	2.766308E-07
3.420798E+03	9.583384E-06	2.795563E-07
3.430771E+03	9.692199E-06	2.825248E-07
3.440744E+03	9.802710E-06	2.855370E-07
3.450718E+03	9.914950E-06	2.885936E-07
3.460691E+03	1.002546E-05	2.915938E-07
3.470664E+03	1.014121E-05	2.947404E-07
3.480637E+03	1.025878E-05	2.979336E-07
3.490610E+03	1.037820E-05	3.011742E-07
3.500583E+03	1.049951E-05	3.044628E-07
3.510557E+03	1.062273E-05	3.078004E-07
3.520530E+03	1.074790E-05	3.111876E-07
3.530503E+03	1.087132E-05	3.145171E-07
3.540476E+03	1.100046E-05	3.180051E-07
3.550449E+03	1.113165E-05	3.215452E-07
3.560422E+03	1.126493E-05	3.251384E-07
3.570396E+03	1.140034E-05	3.287854E-07
3.580369E+03	1.153791E-05	3.324871E-07
3.590342E+03	1.167768E-05	3.362444E-07
3.600315E+03	1.181970E-05	3.400582E-07
3.610288E+03	1.196400E-05	3.439295E-07
3.620261E+03	1.211061E-05	3.478592E-07
3.630235E+03	1.225959E-05	3.518482E-07
3.640208E+03	1.241097E-05	3.558975E-07
3.650181E+03	1.256480E-05	3.600081E-07
3.660154E+03	1.272112E-05	3.641810E-07
3.670127E+03	1.287997E-05	3.684172E-07
3.680101E+03	1.304139E-05	3.727177E-07
3.690074E+03	1.320545E-05	3.770836E-07
3.700047E+03	1.337217E-05	3.815159E-07
3.710020E+03	1.354161E-05	3.860158E-07
3.719993E+03	1.371381E-05	3.905844E-07
3.729966E+03	1.388883E-05	3.952226E-07
3.739940E+03	1.406672E-05	3.999318E-07
3.749913E+03	1.424752E-05	4.047130E-07
3.759886E+03	1.443129E-05	4.095677E-07
3.769859E+03	1.461807E-05	4.144964E-07
3.779832E+03	1.480794E-05	4.195011E-07
3.789805E+03	1.500093E-05	4.245825E-07
3.799779E+03	1.519712E-05	4.297423E-07
3.809752E+03	1.539654E-05	4.349813E-07
3.819725E+03	1.559926E-05	4.403010E-07
3.829698E+03	1.580534E-05	4.457029E-07
3.839671E+03	1.601484E-05	4.511882E-07
3.849644E+03	1.622782E-05	4.567581E-07
3.859618E+03	1.644434E-05	4.624141E-07
3.869591E+03	1.666446E-05	4.681577E-07
3.879564E+03	1.688826E-05	4.739903E-07
3.889537E+03	1.711579E-05	4.799131E-07
3.899510E+03	1.734712E-05	4.859280E-07
3.909483E+03	1.758233E-05	4.920363E-07
3.919457E+03	1.782722E-05	4.984003E-07
3.929430E+03	1.807045E-05	5.047017E-07
3.939403E+03	1.831775E-05	5.111009E-07
3.949376E+03	1.856922E-05	5.176001E-07
3.959349E+03	1.882492E-05	5.242007E-07
3.969323E+03	1.908492E-05	5.309041E-07
3.979296E+03	1.934931E-05	5.377120E-07
3.989269E+03	1.961817E-05	5.446266E-07
3.999242E+03	1.989158E-05	5.516492E-07
4.009215E+03	2.016961E-05	5.587815E-07
4.019188E+03	2.045234E-05	5.660253E-07
4.029162E+03	2.074643E-05	5.735642E-07
4.039135E+03	2.103892E-05	5.810387E-07
4.049108E+03	2.133638E-05	5.886308E-07
4.059081E+03	2.163890E-05	5.963416E-07
4.069054E+03	2.194657E-05	6.041738E-07
4.079027E+03	2.225948E-05	6.121287E-07
4.089001E+03	2.257772E-05	6.202085E-07
4.098974E+03	2.290140E-05	6.284154E-07
4.108947E+03	2.323061E-05	6.367514E-07
4.118920E+03	2.356545E-05	6.452187E-07
4.128893E+03	2.391347E-05	6.540228E-07
4.138866E+03	2.425996E-05	6.627609E-07
4.148840E+03	2.461240E-05	6.716368E-07
4.158813E+03	2.497087E-05	6.806523E-07
4.168786E+03	2.533551E-05	6.898100E-07
4.178759E+03	2.570641E-05	6.991121E-07
4.188732E+03	2.608369E-05	7.085611E-07
4.198705E+03	2.646745E-05	7.181588E-07
4.208679E+03	2.685782E-05	7.279080E-07
4.218652E+03	2.725491E-05	7.378109E-07
4.228625E+03	2.766734E-05	7.480998E-07
4.238598E+03	2.807835E-05	7.583203E-07
4.248571E+03	2.849646E-05	7.687025E-07
4.258545E+03	2.892178E-05	7.792484E-07
4.268518E+03	2.935445E-05	7.899607E-07
4.278491E+03	2.979460E-05	8.008421E-07
4.288464E+03	3.024235E-05	8.118949E-07
4.298437E+03	3.069784E-05	8.231222E-07
4.308410E+03	3.116121E-05	8.345266E-07
4.318384E+03	3.163260E-05	8.461111E-07
4.328357E+03	3.211214E-05	8.578779E-07
4.338330E+03	3.259999E-05	8.698302E-07
4.348303E+03	3.309629E-05	8.819710E-07
4.358276E+03	3.360117E-05	8.943029E-07
4.368249E+03	3.411479E-05	9.068285E-07
4.378223E+03	3.464770E-05	9.198273E-07
4.388196E+03	3.517941E-05	9.327537E-07
4.398169E+03	3.572032E-05	9.458830E-07
4.408142E+03	3.627060E-05	9.592187E-07
4.418115E+03	3.683041E-05	9.727638E-07
4.428088E+03	3.739989E-05	9.865207E-07
4.438062E+03	3.797924E-05	1.000493E-06
4.448035E+03	3.856859E-05	1.014685E-06
4.458008E+03	3.916814E-05	1.029097E-06
4.467981E+03	3.977804E-05	1.043735E-06
4.477954E+03	4.039847E-05	1.058601E-06
4.487927E+03	4.102959E-05	1.073698E-06
4.497901E+03	4.167162E-05	1.089031E-06
4.507874E+03	4.232469E-05	1.104601E-06
4.517847E+03	4.297638E-05	1.120083E-06
4.527820E+03	4.365195E-05	1.136135E-06
4.537793E+03	4.433912E-05	1.152435E-06
4.547767E+03	4.503807E-05	1.168986E-06
4.557740E+03	4.574899E-05	1.185792E-06
4.567713E+03	4.647209E-05	1.202855E-06
4.577686E+03	4.720755E-05	1.220180E-06
4.587659E+03	4.795556E-05	1.237770E-06
4.597632E+03	4.871630E-05	1.255627E-06
4.607606E+03	4.948999E-05	1.273757E-06
4.617579E+03	5.027681E-05	1.292161E-06
4.627552E+03	5.106219E-05	1.310464E-06
4.637525E+03	5.187564E-05	1.329422E-06
4.647498E+03	5.270282E-05	1.348666E-06
4.657471E+03	5.354391E-05	1.368197E-06
4.667445E+03	5.439911E-05	1.388019E-06
4.677418E+03	5.526863E-05	1.408136E-06
4.687391E+03	5.613658E-05	1.428142E-06
4.697364E+03	5.703509E-05	1.448852E-06
4.707337E+03	5.794849E-05	1.469866E-06
4.717310E+03	5.887701E-05	1.491186E-06
4.727284E+03	5.982083E-05	1.512817E-06
4.737257E+03	6.076283E-05	1.534324E-06
4.747230E+03	6.173758E-05	1.556577E-06
4.757203E+03	6.272818E-05	1.579149E-06
4.767176E+03	6.373486E-05	1.602042E-06
4.777149E+03	6.473946E-05	1.624798E-06
4.787123E+03	6.577856E-05	1.648335E-06
4.797096E+03	6.683427E-05	1.672200E-06
4.807069E+03	6.788763E-05	1.695918E-06
4.817042E+03	6.897681E-05	1.720440E-06
4.827015E+03	7.008315E-05	1.745298E-06
4.836989E+03	7.118677E-05	1.769995E-06
4.846962E+03	7.232757E-05	1.795522E-06
4.856935E+03	7.346539E-05	1.820878E-06
4.866908E+03	7.464127E-05	1.847079E-06
4.876881E+03	7.583504E-05	1.873623E-06
4.886854E+03	7.702536E-05	1.899980E-06
4.896828E+03	7.825504E-05	1.927205E-06
4.906801E+03	7.948086E-05	1.954231E-06
4.916774E+03	8.074691E-05	1.982140E-06
4.926747E+03	8.200869E-05	2.009836E-06
4.936720E+03	8.331151E-05	2.038428E-06
4.946693E+03	8.460957E-05	2.066793E-06
4.956667E+03	8.594949E-05	2.096068E-06
4.966640E+03	8.728411E-05	2.125099E-06
4.976613E+03	8.866136E-05	2.155052E-06
4.986586E+03	9.003270E-05	2.184744E-06
4.996559E+03	9.142225E-05	2.214760E-06
5.006532E+03	9.285555E-05	2.245714E-06
5.016506E+03	9.428189E-05	2.276377E-06
5.026479E+03	9.572639E-05	2.307356E-06
5.036452E+03	9.721565E-05	2.339288E-06
5.046425E+03	9.869672E-05	2.370896E-06
5.056398E+03	1.001958E-04	2.402807E-06
5.066371E+03	1.017405E-04	2.435683E-06
5.076345E+03	1.032756E-04	2.468197E-06
5.086318E+03	1.048283E-04	2.500999E-06
5.096291E+03	1.063985E-04	2.534085E-06
5.106264E+03	1.080153E-04	2.568144E-06
5.116237E+03	1.096202E-04	2.601783E-06
5.126210E+03	1.112420E-04	2.635684E-06
5.136184E+03	1.128803E-04	2.669838E-06
5.146157E+03	1.145350E-04	2.704238E-06
5.156130E+03	1.162057E-04	2.738873E-06
5.166103E+03	1.179239E-04	2.774483E-06
5.176076E+03	1.196259E-04	2.809567E-06
5.186050E+03	1.213428E-04	2.844857E-06
5.196023E+03	1.230743E-04	2.880339E-06
5.205996E+03	1.248197E-04	2.916001E-06
5.215969E+03	1.265786E-04	2.951830E-06
5.225942E+03	1.283505E-04	2.987812E-06
5.235915E+03	1.301348E-04	3.023933E-06
5.245889E+03	1.319309E-04	3.060176E-06
5.255862E+03	1.337380E-04	3.096525E-06
5.265835E+03	1.355195E-04	3.132128E-06
5.275808E+03	1.373463E-04	3.168628E-06
5.285781E+03	1.391819E-04	3.205179E-06
5.295754E+03	1.410256E-04	3.241762E-06
5.305728E+03	1.428765E-04	3.278357E-06
5.315701E+03	1.447335E-04	3.314938E-06
5.325674E+03	1.465566E-04	3.350591E-06
5.335647E+03	1.484222E-04	3.387064E-06
5.345620E+03	1.502906E-04	3.423448E-06
5.355593E+03	1.521605E-04	3.459714E-06
5.365567E+03	1.539901E-04	3.494911E-06
5.375540E+03	1.558585E-04	3.530841E-06
5.385513E+03	1.577244E-04	3.566562E-06
5.395486E+03	1.595437E-04	3.601083E-06
5.405459E+03	1.613986E-04	3.636260E-06
5.415432E+03	1.632024E-04	3.670141E-06
5.425406E+03	1.650389E-04	3.704612E-06
5.435379E+03	1.668631E-04	3.738666E-06
5.445352E+03	1.686287E-04	3.771265E-06
5.455325E+03	1.704213E-04	3.804331E-06
5.465298E+03	1.721494E-04	3.835821E-06
5.475272E+03	1.738546E-04	3.866670E-06
5.485245E+03	1.755805E-04	3.897851E-06
5.495218E+03	1.772362E-04	3.927347E-06
5.505191E+03	1.789148E-04	3.957226E-06
5.515164E+03	1.805238E-04	3.985446E-06
5.525137E+03	1.821103E-04	4.013052E-06
5.535111E+03	1.837228E-04	4.041118E-06
5.545084E+03	1.852667E-04	4.067561E-06
5.555057E+03	1.867899E-04	4.093445E-06
5.565030E+03	1.882933E-04	4.118788E-06
5.575003E+03	1.897770E-04	4.143601E-06
5.584976E+03	1.912915E-04	4.168985E-06
5.594950E+03	1.927382E-04	4.192793E-06
5.604923E+03	1.941668E-04	4.216113E-06
5.614896E+03	1.955780E-04	4.238965E-06
5.624869E+03	1.969720E-04	4.261352E-06
5.634842E+03	1.983495E-04	4.283293E-06
5.644815E+03	1.997106E-04	4.304794E-06
5.654789E+03	2.010558E-04	4.325866E-06
5.664762E+03	2.023857E-04	4.346523E-06
5.674735E+03	2.037004E-04	4.366772E-06
5.684708E+03	2.050004E-04	4.386626E-06
5.694681E+03	2.062861E-04	4.406094E-06
5.704654E+03	2.075578E-04	4.425185E-06
5.714628E+03	2.088160E-04	4.443912E-06
5.724601E+03	2.100072E-04	4.461139E-06
5.734574E+03	2.112391E-04	4.479160E-06
5.744547E+03	2.124586E-04	4.496845E-06
5.754520E+03	2.136660E-04	4.514203E-06
5.764494E+03	2.148068E-04	4.530086E-06
5.774467E+03	2.159909E-04	4.546818E-06
5.784440E+03	2.171641E-04	4.563251E-06
5.794413E+03	2.182709E-04	4.578226E-06
5.804386E+03	2.194232E-04	4.594093E-06
5.814359E+03	2.205093E-04	4.608513E-06
5.824333E+03	2.216422E-04	4.623849E-06
5.834306E+03	2.227092E-04	4.637754E-06
5.844279E+03	2.238239E-04	4.652595E-06
5.854252E+03	2.248733E-04	4.666021E-06
5.864225E+03	2.259719E-04	4.680411E-06
5.874198E+03	2.270052E-04	4.693398E-06
5.884172E+03	2.280888E-04	4.707369E-06
5.894145E+03	2.291078E-04	4.719955E-06
5.904118E+03	2.301198E-04	4.732349E-06
5.914091E+03	2.311254E-04	4.744565E-06
5.924064E+03	2.321838E-04	4.757815E-06
5.934037E+03	2.331781E-04	4.769705E-06
5.944011E+03	2.341671E-04	4.781441E-06
5.953984E+03	2.351512E-04	4.793034E-06
5.963957E+03	2.361309E-04	4.804494E-06
5.973930E+03	2.371662E-04	4.817045E-06
5.983903E+03	2.381381E-04	4.828265E-06
5.993876E+03	2.391065E-04	4.839375E-06
6.003850E+03	2.400720E-04	4.850386E-06
6.013823E+03	2.410347E-04	4.861308E-06
6.023796E+03	2.419950E-04	4.872143E-06
6.033769E+03	2.429534E-04	4.882906E-06
6.043742E+03	2.439100E-04	4.893598E-06
6.053716E+03	2.448037E-04	4.903000E-06
6.063689E+03	2.457576E-04	4.913577E-06
6.073662E+03	2.467110E-04	4.924112E-06
6.083635E+03	2.476637E-04	4.934606E-06
6.093608E+03	2.486164E-04	4.945071E-06
6.103581E+03	2.495066E-04	4.954269E-06
6.113555E+03	2.504596E-04	4.964689E-06
6.123528E+03	2.514133E-04	4.975101E-06
6.133501E+03	2.523047E-04	4.984255E-06
6.143474E+03	2.532603E-04	4.994658E-06
6.153447E+03	2.542174E-04	5.005071E-06
6.163420E+03	2.551122E-04	5.014239E-06
6.173394E+03	2.560726E-04	5.024680E-06
6.183367E+03	2.569708E-04	5.033884E-06
6.193340E+03	2.579352E-04	5.044373E-06
6.203313E+03	2.588374E-04	5.053632E-06
6.213286E+03	2.597418E-04	5.062925E-06
6.223259E+03	2.607136E-04	5.073521E-06
6.233233E+03	2.616229E-04	5.082893E-06
6.243206E+03	2.625346E-04	5.092307E-06
6.253179E+03	2.635148E-04	5.103044E-06
6.263152E+03	2.644319E-04	5.112556E-06
6.273125E+03	2.653519E-04	5.122122E-06
6.283098E+03	2.662744E-04	5.131739E-06
6.293072E+03	2.672661E-04	5.142692E-06
6.303045E+03	2.681941E-04	5.152420E-06
6.313018E+03	2.691246E-04	5.162202E-06
6.322991E+03	2.700573E-04	5.172035E-06
6.332964E+03	2.709922E-04	5.181922E-06
6.342937E+03	2.719290E-04	5.191855E-06
6.352911E+03	2.728674E-04	5.201832E-06
6.362884E+03	2.738069E-04	5.211849E-06
6.372857E+03	2.747472E-04	5.221898E-06
6.382830E+03	2.756879E-04	5.231974E-06
6.392803E+03	2.765593E-04	5.240760E-06
6.402777E+03	2.774984E-04	5.250855E-06
6.412750E+03	2.784356E-04	5.260943E-06
6.422723E+03	2.793698E-04	5.271004E-06
6.432696E+03	2.803003E-04	5.281026E-06
6.442669E+03	2.811557E-04	5.289670E-06
6.452642E+03	2.820740E-04	5.299539E-06
6.462616E+03	2.829839E-04	5.309290E-06
6.472589E+03	2.838132E-04	5.317573E-06
6.482562E+03	2.847003E-04	5.326990E-06
6.492535E+03	2.855014E-04	5.334848E-06
6.502508E+03	2.863553E-04	5.343751E-06
6.512481E+03	2.871171E-04	5.350992E-06
6.522455E+03	2.879282E-04	5.359215E-06
6.532428E+03	2.886494E-04	5.365831E-06
6.542401E+03	2.894268E-04	5.373562E-06
6.552374E+03	2.901199E-04	5.379800E-06
6.562347E+03	2.908031E-04	5.385932E-06
6.572320E+03	2.915512E-04	5.393347E-06
6.582294E+03	2.922219E-04	5.399410E-06
6.592267E+03	2.928893E-04	5.405501E-06
6.602240E+03	2.936281E-04	5.412998E-06
6.612213E+03	2.942946E-04	5.419253E-06
6.622186E+03	2.949629E-04	5.425636E-06
6.632159E+03	2.956346E-04	5.432179E-06
6.642133E+03	2.963109E-04	5.438907E-06
6.652106E+03	2.969929E-04	5.445844E-06
6.662079E+03	2.976819E-04	5.453011E-06
6.672052E+03	2.983785E-04	5.460420E-06
6.682025E+03	2.990841E-04	5.468095E-06
6.691999E+03	2.997990E-04	5.476042E-06
6.701972E+03	3.005246E-04	5.484283E-06
6.711945E+03	3.012612E-04	5.492823E-06
6.721918E+03	3.020097E-04	5.501680E-06
6.731891E+03	3.027708E-04	5.510863E-06
6.741864E+03	3.035450E-04	5.520379E-06
6.751838E+03	3.042577E-04	5.528873E-06
6.761811E+03	3.050598E-04	5.539089E-06
6.771784E+03	3.058768E-04	5.549668E-06
6.781757E+03	3.066333E-04	5.559242E-06
6.791730E+03	3.074814E-04	5.570569E-06
6.801703E+03	3.083457E-04	5.582282E-06
6.811677E+03	3.091502E-04	5.593002E-06
6.821650E+03	3.100483E-04	5.605505E-06
6.831623E+03	3.108868E-04	5.617021E-06
6.841596E+03	3.118201E-04	5.630339E-06
6.851569E+03	3.126940E-04	5.642671E-06
6.861542E+03	3.136639E-04	5.656823E-06
6.871516E+03	3.145746E-04	5.669993E-06
6.881489E+03	3.155823E-04	5.684997E-06
6.891462E+03	3.165309E-04	5.699023E-06
6.901435E+03	3.174987E-04	5.713479E-06
6.911408E+03	3.185650E-04	5.729790E-06
6.921381E+03	3.195720E-04	5.745121E-06
6.931355E+03	3.205989E-04	5.760892E-06
6.941328E+03	3.216459E-04	5.777106E-06
6.951301E+03	3.227931E-04	5.795205E-06
6.961274E+03	3.238808E-04	5.812317E-06
6.971247E+03	3.249889E-04	5.829877E-06
6.981221E+03	3.261174E-04	5.847885E-06
6.991194E+03	3.272667E-04	5.866349E-06
7.001167E+03	3.284365E-04	5.885263E-06
7.011140E+03	3.296271E-04	5.904630E-06
7.021113E+03	3.308386E-04	5.924453E-06
7.031086E+03	3.320706E-04	5.944727E-06
7.041060E+03	3.333236E-04	5.965458E-06
7.051033E+03	3.345973E-04	5.986642E-06
7.061006E+03	3.358917E-04	6.008279E-06
7.070979E+03	3.372066E-04	6.030366E-06
7.080952E+03	3.385424E-04	6.052908E-06
7.090925E+03	3.398137E-04	6.074381E-06
7.100899E+03	3.411897E-04	6.097811E-06
7.110872E+03	3.425860E-04	6.121689E-06
7.120845E+03	3.440024E-04	6.146009E-06
7.130818E+03	3.453522E-04	6.169228E-06
7.140791E+03	3.468076E-04	6.194419E-06
7.150764E+03	3.482825E-04	6.220045E-06
7.160738E+03	3.496891E-04	6.244540E-06
7.170711E+03	3.512016E-04	6.271016E-06
7.180684E+03	3.526446E-04	6.296341E-06
7.190657E+03	3.541935E-04	6.323649E-06
7.200630E+03	3.557605E-04	6.351371E-06
7.210603E+03	3.572554E-04	6.377902E-06
7.220577E+03	3.587668E-04	6.404820E-06
7.230550E+03	3.603843E-04	6.433731E-06
7.240523E+03	3.619273E-04	6.461409E-06
7.250496E+03	3.635766E-04	6.491082E-06
7.260469E+03	3.651495E-04	6.519494E-06
7.270443E+03	3.667363E-04	6.548256E-06
7.280416E+03	3.684290E-04	6.579013E-06
7.290389E+03	3.700424E-04	6.608458E-06
7.300362E+03	3.716678E-04	6.638228E-06
7.310335E+03	3.733048E-04	6.668313E-06
7.320308E+03	3.750468E-04	6.700386E-06
7.330282E+03	3.767051E-04	6.731077E-06
7.340255E+03	3.783727E-04	6.762050E-06
7.350228E+03	3.800490E-04	6.793296E-06
7.360201E+03	3.817329E-04	6.824798E-06
7.370174E+03	3.834238E-04	6.856547E-06
7.380147E+03	3.851207E-04	6.888528E-06
7.390121E+03	3.868227E-04	6.920728E-06
7.400094E+03	3.885290E-04	6.953135E-06
7.410067E+03	3.902384E-04	6.985730E-06
7.420040E+03	3.919502E-04	7.018501E-06
7.430013E+03	3.936631E-04	7.051432E-06
7.439986E+03	3.953760E-04	7.084500E-06
7.449960E+03	3.970880E-04	7.117697E-06
7.459933E+03	3.987977E-04	7.150999E-06
7.469906E+03	4.004026E-04	7.182570E-06
7.479879E+03	4.021038E-04	7.216020E-06
7.489852E+03	4.037993E-04	7.249521E-06
7.499825E+03	4.054875E-04	7.283049E-06
7.509799E+03	4.070637E-04	7.314728E-06
7.519772E+03	4.087330E-04	7.348241E-06
7.529745E+03	4.103909E-04	7.381718E-06
7.539718E+03	4.120360E-04	7.415134E-06
7.549691E+03	4.135614E-04	7.446568E-06
7.559665E+03	4.151757E-04	7.479780E-06
7.569638E+03	4.166663E-04	7.510941E-06
7.579611E+03	4.182437E-04	7.543850E-06
7.589584E+03	4.196931E-04	7.574635E-06
7.599557E+03	4.212266E-04	7.607128E-06
7.609530E+03	4.226277E-04	7.637421E-06
7.619504E+03	4.241106E-04	7.669386E-06
7.629477E+03	4.254564E-04	7.699071E-06
7.639450E+03	4.268810E-04	7.730383E-06
7.649423E+03	4.281641E-04	7.759335E-06
7.659396E+03	4.295228E-04	7.789866E-06
7.669369E+03	4.307351E-04	7.817951E-06
7.679343E+03	4.319088E-04	7.845548E-06
7.689316E+03	4.331532E-04	7.874643E-06
7.699289E+03	4.342439E-04	7.901163E-06
7.709262E+03	4.352896E-04	7.927082E-06
7.719235E+03	4.362882E-04	7.952366E-06
7.729208E+03	4.373500E-04	7.979026E-06
7.739182E+03	4.382477E-04	8.002921E-06
