#wls	flux	fluxerr
1.595708E+03	2.787636E-06	8.853412E-08
1.635600E+03	2.827545E-06	8.966317E-08
1.675493E+03	2.870599E-06	9.088408E-08
1.715386E+03	2.915650E-06	9.215989E-08
1.755278E+03	2.962800E-06	9.349321E-08
1.795171E+03	3.012160E-06	9.488688E-08
1.835064E+03	3.065164E-06	9.638536E-08
1.874956E+03	3.119307E-06	9.790911E-08
1.914849E+03	3.177378E-06	9.954489E-08
1.954742E+03	3.239562E-06	1.012975E-07
1.994634E+03	3.303288E-06	1.030855E-07
2.034527E+03	3.371470E-06	1.049990E-07
2.074420E+03	3.442908E-06	1.069993E-07
2.114312E+03	3.517781E-06	1.090910E-07
2.154205E+03	3.596277E-06	1.112786E-07
2.194098E+03	3.680096E-06	1.136134E-07
2.233991E+03	3.768006E-06	1.160556E-07
2.273883E+03	3.860239E-06	1.186109E-07
2.313776E+03	3.958617E-06	1.213336E-07
2.353669E+03	4.060283E-06	1.241342E-07
2.393561E+03	4.168698E-06	1.271168E-07
2.433454E+03	4.282590E-06	1.302402E-07
2.473347E+03	4.403986E-06	1.335638E-07
2.513239E+03	4.531597E-06	1.370457E-07
2.553132E+03	4.665799E-06	1.406948E-07
2.593025E+03	4.806986E-06	1.445201E-07
2.632917E+03	4.955583E-06	1.485315E-07
2.672810E+03	5.113949E-06	1.527961E-07
2.712703E+03	5.280754E-06	1.572703E-07
2.752596E+03	5.456520E-06	1.619659E-07
2.792488E+03	5.643867E-06	1.669563E-07
2.832381E+03	5.841441E-06	1.721965E-07
2.872274E+03	6.049891E-06	1.777008E-07
2.912166E+03	6.269906E-06	1.834841E-07
2.952059E+03	6.504528E-06	1.896296E-07
2.991952E+03	6.752383E-06	1.960905E-07
3.001925E+03	6.815318E-06	1.977224E-07
3.011898E+03	6.881537E-06	1.994448E-07
3.021871E+03	6.946258E-06	2.011188E-07
3.031844E+03	7.014326E-06	2.028848E-07
3.041818E+03	7.080888E-06	2.046022E-07
3.051791E+03	7.150864E-06	2.064130E-07
3.061764E+03	7.219326E-06	2.081749E-07
3.071737E+03	7.291272E-06	2.100319E-07
3.081710E+03	7.364237E-06	2.119127E-07
3.091683E+03	7.435676E-06	2.137440E-07
3.101657E+03	7.510706E-06	2.156729E-07
3.111630E+03	7.584203E-06	2.175520E-07
3.121603E+03	7.661365E-06	2.195304E-07
3.131576E+03	7.739630E-06	2.215343E-07
3.141549E+03	7.819014E-06	2.235641E-07
3.151522E+03	7.896851E-06	2.255435E-07
3.161496E+03	7.978508E-06	2.276256E-07
3.171469E+03	8.061342E-06	2.297348E-07
3.181442E+03	8.145369E-06	2.318714E-07
3.191415E+03	8.227831E-06	2.339568E-07
3.201388E+03	8.314282E-06	2.361487E-07
3.211361E+03	8.401985E-06	2.383693E-07
3.221335E+03	8.490962E-06	2.406188E-07
3.231308E+03	8.581233E-06	2.428978E-07
3.241281E+03	8.672820E-06	2.452065E-07
3.251254E+03	8.762818E-06	2.474630E-07
3.261227E+03	8.857074E-06	2.498320E-07
3.271200E+03	8.952709E-06	2.522321E-07
3.281174E+03	9.049749E-06	2.546639E-07
3.291147E+03	9.148214E-06	2.571276E-07
3.301120E+03	9.248128E-06	2.596237E-07
3.311093E+03	9.349514E-06	2.621528E-07
3.321066E+03	9.452398E-06	2.647153E-07
3.331040E+03	9.556803E-06	2.673116E-07
3.341013E+03	9.662756E-06	2.699423E-07
3.350986E+03	9.770280E-06	2.726077E-07
3.360959E+03	9.879403E-06	2.753086E-07
3.370932E+03	9.990149E-06	2.780452E-07
3.380905E+03	1.010255E-05	2.808183E-07
3.390879E+03	1.021662E-05	2.836281E-07
3.400852E+03	1.033241E-05	2.864754E-07
3.410825E+03	1.044992E-05	2.893606E-07
3.420798E+03	1.056920E-05	2.922843E-07
3.430771E+03	1.069027E-05	2.952469E-07
3.440744E+03	1.081665E-05	2.983451E-07
3.450718E+03	1.094143E-05	3.013882E-07
3.460691E+03	1.106809E-05	3.044721E-07
3.470664E+03	1.119667E-05	3.075973E-07
3.480637E+03	1.132719E-05	3.107644E-07
3.490610E+03	1.145970E-05	3.139740E-07
3.500583E+03	1.159790E-05	3.173274E-07
3.510557E+03	1.173449E-05	3.206246E-07
3.520530E+03	1.187317E-05	3.239662E-07
3.530503E+03	1.201397E-05	3.273527E-07
3.540476E+03	1.216074E-05	3.308891E-07
3.550449E+03	1.230591E-05	3.343684E-07
3.560422E+03	1.245330E-05	3.378947E-07
3.570396E+03	1.260296E-05	3.414686E-07
3.580369E+03	1.275890E-05	3.451986E-07
3.590342E+03	1.291323E-05	3.488707E-07
3.600315E+03	1.306994E-05	3.525925E-07
3.610288E+03	1.323318E-05	3.564754E-07
3.620261E+03	1.339480E-05	3.602997E-07
3.630235E+03	1.355893E-05	3.641758E-07
3.640208E+03	1.372985E-05	3.682184E-07
3.650181E+03	1.389914E-05	3.722013E-07
3.660154E+03	1.407108E-05	3.762388E-07
3.670127E+03	1.425005E-05	3.804475E-07
3.680101E+03	1.442743E-05	3.845966E-07
3.690074E+03	1.461204E-05	3.889211E-07
3.700047E+03	1.479504E-05	3.931846E-07
3.710020E+03	1.498546E-05	3.976277E-07
3.719993E+03	1.517429E-05	4.020099E-07
3.729966E+03	1.536608E-05	4.064518E-07
3.739940E+03	1.556559E-05	4.110789E-07
3.749913E+03	1.576350E-05	4.156440E-07
3.759886E+03	1.596935E-05	4.203987E-07
3.769859E+03	1.617360E-05	4.250910E-07
3.779832E+03	1.638600E-05	4.299767E-07
3.789805E+03	1.659681E-05	4.347998E-07
3.799779E+03	1.681600E-05	4.398207E-07
3.809752E+03	1.703360E-05	4.447782E-07
3.819725E+03	1.725980E-05	4.499381E-07
3.829698E+03	1.748443E-05	4.550341E-07
3.839671E+03	1.771789E-05	4.603368E-07
3.849644E+03	1.794978E-05	4.655752E-07
3.859618E+03	1.819077E-05	4.710252E-07
3.869591E+03	1.843564E-05	4.765510E-07
3.879564E+03	1.867896E-05	4.820118E-07
3.889537E+03	1.893174E-05	4.876912E-07
3.899510E+03	1.918299E-05	4.933053E-07
3.909483E+03	1.944396E-05	4.991427E-07
3.919457E+03	1.970918E-05	5.050619E-07
3.929430E+03	1.997288E-05	5.109148E-07
3.939403E+03	2.024673E-05	5.169992E-07
3.949376E+03	2.051906E-05	5.230163E-07
3.959349E+03	2.080184E-05	5.292706E-07
3.969323E+03	2.108925E-05	5.356125E-07
3.979296E+03	2.137518E-05	5.418867E-07
3.989269E+03	2.167200E-05	5.484062E-07
3.999242E+03	2.196735E-05	5.548572E-07
4.009215E+03	2.227392E-05	5.615594E-07
4.019188E+03	2.258554E-05	5.683560E-07
4.029162E+03	2.289572E-05	5.750830E-07
4.039135E+03	2.321761E-05	5.820702E-07
4.049108E+03	2.354481E-05	5.891558E-07
4.059081E+03	2.387061E-05	5.961711E-07
4.069054E+03	2.420864E-05	6.034560E-07
4.079027E+03	2.455226E-05	6.108435E-07
4.089001E+03	2.489455E-05	6.181604E-07
4.098974E+03	2.524958E-05	6.257560E-07
4.108947E+03	2.561052E-05	6.334588E-07
4.118920E+03	2.597016E-05	6.410900E-07
4.128893E+03	2.634313E-05	6.490104E-07
4.138866E+03	2.672232E-05	6.570423E-07
4.148840E+03	2.710026E-05	6.650022E-07
4.158813E+03	2.749214E-05	6.732614E-07
4.168786E+03	2.789056E-05	6.816374E-07
4.178759E+03	2.828779E-05	6.899399E-07
4.188732E+03	2.869960E-05	6.985532E-07
4.198705E+03	2.911831E-05	7.072883E-07
4.208679E+03	2.953588E-05	7.159491E-07
4.218652E+03	2.996867E-05	7.249314E-07
4.228625E+03	3.040876E-05	7.340415E-07
4.238598E+03	3.084777E-05	7.430760E-07
4.248571E+03	3.130271E-05	7.524441E-07
4.258545E+03	3.176533E-05	7.619453E-07
4.268518E+03	3.222692E-05	7.713698E-07
4.278491E+03	3.270519E-05	7.811402E-07
4.288464E+03	3.319154E-05	7.910494E-07
4.298437E+03	3.367695E-05	8.008810E-07
4.308410E+03	3.417980E-05	8.110713E-07
4.318384E+03	3.469117E-05	8.214062E-07
4.328357E+03	3.520167E-05	8.316624E-07
4.338330E+03	3.573040E-05	8.422903E-07
4.348303E+03	3.626811E-05	8.530689E-07
4.358276E+03	3.680502E-05	8.637675E-07
4.368249E+03	3.736101E-05	8.748513E-07
4.378223E+03	3.792647E-05	8.860926E-07
4.388196E+03	3.849120E-05	8.972523E-07
4.398169E+03	3.907589E-05	9.088114E-07
4.408142E+03	3.967053E-05	9.205340E-07
4.418115E+03	4.026454E-05	9.321739E-07
4.428088E+03	4.087943E-05	9.442278E-07
4.438062E+03	4.149375E-05	9.561974E-07
4.448035E+03	4.212958E-05	9.685910E-07
4.458008E+03	4.277621E-05	9.811590E-07
4.467981E+03	4.342236E-05	9.936416E-07
4.477954E+03	4.409098E-05	1.006563E-06
4.487927E+03	4.475919E-05	1.019397E-06
4.497901E+03	4.545057E-05	1.032681E-06
4.507874E+03	4.615366E-05	1.046150E-06
4.517847E+03	4.685640E-05	1.059530E-06
4.527820E+03	4.758337E-05	1.073375E-06
4.537793E+03	4.831000E-05	1.087129E-06
4.547767E+03	4.906159E-05	1.101359E-06
4.557740E+03	4.981289E-05	1.115496E-06
4.567713E+03	5.058987E-05	1.130120E-06
4.577686E+03	5.136661E-05	1.144649E-06
4.587659E+03	5.216977E-05	1.159675E-06
4.597632E+03	5.297273E-05	1.174604E-06
4.607606E+03	5.380288E-05	1.190043E-06
4.617579E+03	5.463284E-05	1.205381E-06
4.627552E+03	5.549077E-05	1.221239E-06
4.637525E+03	5.634853E-05	1.236995E-06
4.647498E+03	5.723503E-05	1.253282E-06
4.657471E+03	5.812137E-05	1.269463E-06
4.667445E+03	5.902220E-05	1.285858E-06
4.677418E+03	5.995299E-05	1.302802E-06
4.687391E+03	6.088357E-05	1.319634E-06
4.697364E+03	6.184496E-05	1.337026E-06
4.707337E+03	6.280609E-05	1.354303E-06
4.717310E+03	6.378268E-05	1.371803E-06
4.727284E+03	6.479131E-05	1.389880E-06
4.737257E+03	6.579959E-05	1.407834E-06
4.747230E+03	6.682388E-05	1.426017E-06
4.757203E+03	6.788147E-05	1.444792E-06
4.767176E+03	6.893857E-05	1.463438E-06
4.777149E+03	7.001221E-05	1.482315E-06
4.787123E+03	7.110257E-05	1.501425E-06
4.797096E+03	7.222787E-05	1.521150E-06
4.807069E+03	7.335240E-05	1.540732E-06
4.817042E+03	7.449413E-05	1.560551E-06
4.827015E+03	7.565320E-05	1.580605E-06
4.836989E+03	7.682977E-05	1.600896E-06
4.846962E+03	7.804334E-05	1.621826E-06
4.856935E+03	7.925556E-05	1.642596E-06
4.866908E+03	8.048566E-05	1.663603E-06
4.876881E+03	8.173375E-05	1.684848E-06
4.886854E+03	8.299995E-05	1.706330E-06
4.896828E+03	8.428433E-05	1.728048E-06
4.906801E+03	8.558700E-05	1.750003E-06
4.916774E+03	8.690801E-05	1.772193E-06
4.926747E+03	8.824746E-05	1.794618E-06
4.936720E+03	8.960535E-05	1.817276E-06
4.946693E+03	9.098177E-05	1.840166E-06
4.956667E+03	9.237672E-05	1.863287E-06
4.966640E+03	9.379020E-05	1.886636E-06
4.976613E+03	9.522224E-05	1.910211E-06
4.986586E+03	9.667278E-05	1.934011E-06
4.996559E+03	9.814184E-05	1.958033E-06
5.006532E+03	9.962931E-05	1.982273E-06
5.016506E+03	1.011107E-04	2.006243E-06
5.026479E+03	1.026345E-04	2.030906E-06
5.036452E+03	1.041765E-04	2.055778E-06
5.046425E+03	1.057365E-04	2.080854E-06
5.056398E+03	1.073144E-04	2.106131E-06
5.066371E+03	1.088839E-04	2.131092E-06
5.076345E+03	1.104968E-04	2.156750E-06
5.086318E+03	1.121269E-04	2.182595E-06
5.096291E+03	1.137470E-04	2.208091E-06
5.106264E+03	1.154107E-04	2.234285E-06
5.116237E+03	1.170911E-04	2.260647E-06
5.126210E+03	1.187593E-04	2.286626E-06
5.136184E+03	1.204714E-04	2.313299E-06
5.146157E+03	1.221699E-04	2.339563E-06
5.156130E+03	1.239123E-04	2.366519E-06
5.166103E+03	1.256396E-04	2.393039E-06
5.176076E+03	1.274106E-04	2.420244E-06
5.186050E+03	1.291648E-04	2.446986E-06
5.196023E+03	1.309625E-04	2.474408E-06
5.205996E+03	1.327416E-04	2.501335E-06
5.215969E+03	1.345639E-04	2.528935E-06
5.225942E+03	1.363656E-04	2.556009E-06
5.235915E+03	1.381774E-04	2.583137E-06
5.245889E+03	1.399987E-04	2.610310E-06
5.255862E+03	1.418622E-04	2.638135E-06
5.265835E+03	1.437007E-04	2.665367E-06
5.275808E+03	1.455466E-04	2.692608E-06
5.285781E+03	1.473989E-04	2.719845E-06
5.295754E+03	1.492569E-04	2.747067E-06
5.305728E+03	1.511549E-04	2.774906E-06
5.315701E+03	1.530219E-04	2.802061E-06
5.325674E+03	1.548919E-04	2.829161E-06
5.335647E+03	1.567640E-04	2.856191E-06
5.345620E+03	1.586369E-04	2.883135E-06
5.355593E+03	1.605098E-04	2.909980E-06
5.365567E+03	1.623816E-04	2.936710E-06
5.375540E+03	1.642510E-04	2.963308E-06
5.385513E+03	1.661173E-04	2.989764E-06
5.395486E+03	1.679402E-04	3.015360E-06
5.405459E+03	1.697959E-04	3.041472E-06
5.415432E+03	1.716446E-04	3.067390E-06
5.425406E+03	1.734853E-04	3.093099E-06
5.435379E+03	1.753170E-04	3.118588E-06
5.445352E+03	1.770976E-04	3.143116E-06
5.455325E+03	1.789071E-04	3.168112E-06
5.465298E+03	1.807041E-04	3.192845E-06
5.475272E+03	1.824460E-04	3.216571E-06
5.485245E+03	1.842151E-04	3.240748E-06
5.495218E+03	1.859269E-04	3.263896E-06
5.505191E+03	1.876652E-04	3.287495E-06
5.515164E+03	1.893444E-04	3.310048E-06
5.525137E+03	1.910500E-04	3.333063E-06
5.535111E+03	1.926952E-04	3.355027E-06
5.545084E+03	1.943669E-04	3.377465E-06
5.555057E+03	1.959771E-04	3.398851E-06
5.565030E+03	1.975695E-04	3.419955E-06
5.575003E+03	1.991889E-04	3.441560E-06
5.584976E+03	2.007457E-04	3.462118E-06
5.594950E+03	2.022845E-04	3.482410E-06
5.604923E+03	2.038053E-04	3.502440E-06
5.614896E+03	2.053082E-04	3.522211E-06
5.624869E+03	2.068398E-04	3.542527E-06
5.634842E+03	2.083074E-04	3.561798E-06
5.644815E+03	2.097575E-04	3.580826E-06
5.654789E+03	2.111900E-04	3.599613E-06
5.664762E+03	2.126052E-04	3.618163E-06
5.674735E+03	2.140032E-04	3.636486E-06
5.684708E+03	2.153843E-04	3.654582E-06
5.694681E+03	2.167000E-04	3.671636E-06
5.704654E+03	2.180475E-04	3.689297E-06
5.714628E+03	2.193786E-04	3.706748E-06
5.724601E+03	2.206936E-04	3.723997E-06
5.734574E+03	2.219927E-04	3.741048E-06
5.744547E+03	2.232267E-04	3.757072E-06
5.754520E+03	2.244947E-04	3.773745E-06
5.764494E+03	2.257478E-04	3.790238E-06
5.774467E+03	2.269357E-04	3.805712E-06
5.784440E+03	2.281596E-04	3.821865E-06
5.794413E+03	2.293185E-04	3.837005E-06
5.804386E+03	2.305144E-04	3.852841E-06
5.814359E+03	2.316454E-04	3.867669E-06
5.824333E+03	2.327631E-04	3.882354E-06
5.834306E+03	2.339196E-04	3.897761E-06
5.844279E+03	2.350116E-04	3.912174E-06
5.854252E+03	2.360914E-04	3.926460E-06
5.864225E+03	2.372115E-04	3.941495E-06
5.874198E+03	2.382678E-04	3.955549E-06
5.884172E+03	2.393130E-04	3.969495E-06
5.894145E+03	2.403473E-04	3.983340E-06
5.904118E+03	2.413710E-04	3.997088E-06
5.914091E+03	2.423848E-04	4.010750E-06
5.924064E+03	2.433888E-04	4.024327E-06
5.934037E+03	2.443835E-04	4.037829E-06
5.944011E+03	2.453693E-04	4.051262E-06
5.953984E+03	2.463465E-04	4.064628E-06
5.963957E+03	2.473155E-04	4.077938E-06
5.973930E+03	2.482768E-04	4.091195E-06
5.983903E+03	2.492306E-04	4.104406E-06
5.993876E+03	2.501225E-04	4.116674E-06
6.003850E+03	2.510622E-04	4.129804E-06
6.013823E+03	2.519957E-04	4.142907E-06
6.023796E+03	2.528678E-04	4.155076E-06
6.033769E+03	2.537895E-04	4.168133E-06
6.043742E+03	2.547059E-04	4.181178E-06
6.053716E+03	2.555614E-04	4.193297E-06
6.063689E+03	2.564678E-04	4.206324E-06
6.073662E+03	2.573138E-04	4.218434E-06
6.083635E+03	2.581556E-04	4.230547E-06
6.093608E+03	2.590496E-04	4.243588E-06
6.103581E+03	2.598838E-04	4.255721E-06
6.113555E+03	2.607145E-04	4.267868E-06
6.123528E+03	2.615420E-04	4.280036E-06
6.133501E+03	2.624238E-04	4.293160E-06
6.143474E+03	2.632460E-04	4.305381E-06
6.153447E+03	2.640659E-04	4.317635E-06
6.163420E+03	2.648837E-04	4.329925E-06
6.173394E+03	2.656998E-04	4.342256E-06
6.183367E+03	2.665143E-04	4.354631E-06
6.193340E+03	2.673274E-04	4.367052E-06
6.203313E+03	2.681395E-04	4.379525E-06
6.213286E+03	2.689506E-04	4.392052E-06
6.223259E+03	2.697027E-04	4.403684E-06
6.233233E+03	2.705125E-04	4.416327E-06
6.243206E+03	2.713220E-04	4.429035E-06
6.253179E+03	2.721315E-04	4.441810E-06
6.263152E+03	2.728819E-04	4.453692E-06
6.273125E+03	2.736916E-04	4.466608E-06
6.283098E+03	2.745016E-04	4.479599E-06
6.293072E+03	2.752526E-04	4.491697E-06
6.303045E+03	2.760636E-04	4.504843E-06
6.313018E+03	2.768157E-04	4.517099E-06
6.322991E+03	2.775684E-04	4.529433E-06
6.332964E+03	2.783819E-04	4.542830E-06
6.342937E+03	2.791364E-04	4.555334E-06
6.352911E+03	2.798917E-04	4.567923E-06
6.362884E+03	2.807086E-04	4.581588E-06
6.372857E+03	2.814661E-04	4.594357E-06
6.382830E+03	2.822248E-04	4.607216E-06
6.392803E+03	2.829848E-04	4.620171E-06
6.402777E+03	2.837459E-04	4.633216E-06
6.412750E+03	2.845084E-04	4.646358E-06
6.422723E+03	2.852723E-04	4.659599E-06
6.432696E+03	2.860376E-04	4.672938E-06
6.442669E+03	2.868047E-04	4.686381E-06
6.452642E+03	2.875733E-04	4.699929E-06
6.462616E+03	2.883442E-04	4.713591E-06
6.472589E+03	2.891175E-04	4.727370E-06
6.482562E+03	2.898313E-04	4.740257E-06
6.492535E+03	2.906110E-04	4.754304E-06
6.502508E+03	2.913955E-04	4.768510E-06
6.512481E+03	2.921230E-04	4.781867E-06
6.522455E+03	2.929194E-04	4.796436E-06
6.532428E+03	2.937218E-04	4.811188E-06
6.542401E+03	2.944665E-04	4.825081E-06
6.552374E+03	2.952160E-04	4.839142E-06
6.562347E+03	2.960342E-04	4.854418E-06
6.572320E+03	2.967944E-04	4.868832E-06
6.582294E+03	2.976241E-04	4.884481E-06
6.592267E+03	2.983960E-04	4.899273E-06
6.602240E+03	2.991744E-04	4.914268E-06
6.612213E+03	2.999601E-04	4.929478E-06
6.622186E+03	3.008178E-04	4.945971E-06
6.632159E+03	3.016195E-04	4.961642E-06
6.642133E+03	3.024299E-04	4.977558E-06
6.652106E+03	3.032496E-04	4.993731E-06
6.662079E+03	3.040790E-04	5.010164E-06
6.672052E+03	3.049187E-04	5.026868E-06
6.682025E+03	3.057691E-04	5.043847E-06
6.691999E+03	3.066307E-04	5.061108E-06
6.701972E+03	3.075040E-04	5.078661E-06
6.711945E+03	3.083232E-04	5.095412E-06
6.721918E+03	3.092209E-04	5.113558E-06
6.731891E+03	3.101318E-04	5.132013E-06
6.741864E+03	3.110560E-04	5.150782E-06
6.751838E+03	3.119270E-04	5.168761E-06
6.761811E+03	3.128790E-04	5.188170E-06
6.771784E+03	3.137783E-04	5.206795E-06
6.781757E+03	3.147599E-04	5.226873E-06
6.791730E+03	3.156889E-04	5.246165E-06
6.801703E+03	3.167014E-04	5.266930E-06
6.811677E+03	3.176616E-04	5.286912E-06
6.821650E+03	3.187065E-04	5.308387E-06
6.831623E+03	3.196993E-04	5.329078E-06
6.841596E+03	3.207089E-04	5.350131E-06
6.851569E+03	3.218045E-04	5.372702E-06
6.861542E+03	3.228484E-04	5.394491E-06
6.871516E+03	3.239099E-04	5.416655E-06
6.881489E+03	3.249891E-04	5.439196E-06
6.891462E+03	3.260863E-04	5.462118E-06
6.901435E+03	3.272019E-04	5.485425E-06
6.911408E+03	3.283360E-04	5.509122E-06
6.921381E+03	3.294886E-04	5.533210E-06
6.931355E+03	3.306603E-04	5.557695E-06
6.941328E+03	3.318510E-04	5.582577E-06
6.951301E+03	3.330609E-04	5.607862E-06
6.961274E+03	3.342901E-04	5.633549E-06
6.971247E+03	3.355391E-04	5.659646E-06
6.981221E+03	3.368074E-04	5.686148E-06
6.991194E+03	3.380227E-04	5.711830E-06
7.001167E+03	3.393302E-04	5.739150E-06
7.011140E+03	3.406577E-04	5.766884E-06
7.021113E+03	3.419313E-04	5.793783E-06
7.031086E+03	3.432983E-04	5.822343E-06
7.041060E+03	3.446107E-04	5.850055E-06
7.051033E+03	3.460171E-04	5.879441E-06
7.061006E+03	3.473683E-04	5.907968E-06
7.070979E+03	3.488141E-04	5.938181E-06
7.080952E+03	3.502036E-04	5.967517E-06
7.090925E+03	3.516123E-04	5.997258E-06
7.100899E+03	3.531160E-04	6.028701E-06
7.110872E+03	3.545623E-04	6.059244E-06
7.120845E+03	3.560270E-04	6.090184E-06
7.130818E+03	3.575098E-04	6.121515E-06
7.140791E+03	3.590886E-04	6.154574E-06
7.150764E+03	3.606074E-04	6.186690E-06
7.160738E+03	3.621436E-04	6.219188E-06
7.170711E+03	3.636970E-04	6.252066E-06
7.180684E+03	3.652671E-04	6.285319E-06
7.190657E+03	3.668536E-04	6.318940E-06
7.200630E+03	3.684560E-04	6.352926E-06
7.210603E+03	3.700741E-04	6.387271E-06
7.220577E+03	3.717071E-04	6.421965E-06
7.230550E+03	3.733547E-04	6.457004E-06
7.240523E+03	3.749346E-04	6.490964E-06
7.250496E+03	3.766094E-04	6.526661E-06
7.260469E+03	3.782971E-04	6.562678E-06
7.270443E+03	3.799970E-04	6.599007E-06
7.280416E+03	3.816254E-04	6.634191E-06
7.290389E+03	3.833475E-04	6.671104E-06
7.300362E+03	3.850798E-04	6.708300E-06
7.310335E+03	3.867372E-04	6.744292E-06
7.320308E+03	3.884872E-04	6.782005E-06
7.330282E+03	3.901598E-04	6.818474E-06
7.340255E+03	3.919244E-04	6.856660E-06
7.350228E+03	3.936088E-04	6.893553E-06
7.360201E+03	3.953841E-04	6.932152E-06
7.370174E+03	3.970764E-04	6.969410E-06
7.380147E+03	3.987712E-04	7.006826E-06
7.390121E+03	4.005552E-04	7.045930E-06
7.400094E+03	4.022517E-04	7.083614E-06
7.410067E+03	4.039473E-04	7.121404E-06
7.420040E+03	4.056408E-04	7.159281E-06
7.430013E+03	4.073309E-04	7.197224E-06
7.439986E+03	4.091065E-04	7.236808E-06
7.449960E+03	4.107865E-04	7.274831E-06
7.459933E+03	4.124592E-04	7.312859E-06
7.469906E+03	4.141235E-04	7.350872E-06
7.479879E+03	4.157777E-04	7.388843E-06
7.489852E+03	4.174204E-04	7.426748E-06
7.499825E+03	4.190501E-04	7.464565E-06
7.509799E+03	4.206653E-04	7.502268E-06
7.519772E+03	4.222645E-04	7.539832E-06
7.529745E+03	4.238461E-04	7.577228E-06
7.539718E+03	4.253139E-04	7.612741E-06
7.549691E+03	4.268547E-04	7.649711E-06
7.559665E+03	4.283727E-04	7.686429E-06
7.569638E+03	4.298662E-04	7.722864E-06
7.579611E+03	4.312375E-04	7.757262E-06
7.589584E+03	4.326761E-04	7.793032E-06
7.599557E+03	4.340848E-04	7.828425E-06
7.609530E+03	4.353644E-04	7.861657E-06
7.619504E+03	4.367068E-04	7.896188E-06
7.629477E+03	4.380134E-04	7.930243E-06
7.639450E+03	4.391839E-04	7.962005E-06
7.649423E+03	4.404123E-04	7.994986E-06
7.659396E+03	4.414999E-04	8.025587E-06
7.669369E+03	4.426419E-04	8.057352E-06
7.679343E+03	4.436381E-04	8.086639E-06
7.689316E+03	4.445854E-04	8.115213E-06
7.699289E+03	4.455818E-04	8.144860E-06
7.709262E+03	4.464250E-04	8.171889E-06
7.719235E+03	4.472126E-04	8.198079E-06
7.729208E+03	4.480436E-04	8.225249E-06
7.739182E+03	4.487140E-04	8.249652E-06
