#wls	flux	fluxerr
1.600000E+03	5.231893E-13	5.201423E-15
1.640000E+03	5.505977E-13	5.455197E-15
1.680000E+03	5.788973E-13	5.715435E-15
1.720000E+03	6.080017E-13	5.981120E-15
1.760000E+03	6.377969E-13	6.250965E-15
1.800000E+03	6.681371E-13	6.523388E-15
1.840000E+03	6.988349E-13	6.796415E-15
1.880000E+03	7.296560E-13	7.067648E-15
1.920000E+03	7.603098E-13	7.334175E-15
1.960000E+03	7.904396E-13	7.592497E-15
2.000000E+03	8.196078E-13	7.838399E-15
2.040000E+03	8.472842E-13	8.066860E-15
2.080000E+03	8.728572E-13	8.272186E-15
2.120000E+03	8.956981E-13	8.448638E-15
2.160000E+03	9.150898E-13	8.589772E-15
2.200000E+03	9.301925E-13	8.688147E-15
2.240000E+03	9.400818E-13	8.735717E-15
2.280000E+03	9.441665E-13	8.727721E-15
2.320000E+03	9.429998E-13	8.670068E-15
2.360000E+03	9.374347E-13	8.571335E-15
2.400000E+03	9.283563E-13	8.440244E-15
2.440000E+03	9.166368E-13	8.285244E-15
2.480000E+03	9.030912E-13	8.114106E-15
2.520000E+03	8.884305E-13	7.933508E-15
2.560000E+03	8.732032E-13	7.748543E-15
2.600000E+03	8.577386E-13	7.562252E-15
2.640000E+03	8.421457E-13	7.375677E-15
2.680000E+03	8.263858E-13	7.188549E-15
2.720000E+03	8.103518E-13	7.000020E-15
2.760000E+03	7.939130E-13	6.809072E-15
2.800000E+03	7.769356E-13	6.614692E-15
2.840000E+03	7.593068E-13	6.416085E-15
2.880000E+03	7.409432E-13	6.212736E-15
2.920000E+03	7.217801E-13	6.004312E-15
2.960000E+03	7.017890E-13	5.790804E-15
3.000000E+03	6.809651E-13	5.572410E-15
3.010000E+03	6.756305E-13	5.517089E-15
3.020000E+03	6.702455E-13	5.461495E-15
3.030000E+03	6.648123E-13	5.405649E-15
3.040000E+03	6.593294E-13	5.349544E-15
3.050000E+03	6.537971E-13	5.293186E-15
3.060000E+03	6.482192E-13	5.236610E-15
3.070000E+03	6.425945E-13	5.179808E-15
3.080000E+03	6.369252E-13	5.122803E-15
3.090000E+03	6.312135E-13	5.065616E-15
3.100000E+03	6.254572E-13	5.008233E-15
3.110000E+03	6.196617E-13	4.950700E-15
3.120000E+03	6.138263E-13	4.893016E-15
3.130000E+03	6.079522E-13	4.835194E-15
3.140000E+03	6.020432E-13	4.777267E-15
3.150000E+03	5.960992E-13	4.719237E-15
3.160000E+03	5.901230E-13	4.661130E-15
3.170000E+03	5.841157E-13	4.602958E-15
3.180000E+03	5.780803E-13	4.544747E-15
3.190000E+03	5.720181E-13	4.486511E-15
3.200000E+03	5.659308E-13	4.428265E-15
3.210000E+03	5.598212E-13	4.370035E-15
3.220000E+03	5.536911E-13	4.311836E-15
3.230000E+03	5.475448E-13	4.253705E-15
3.240000E+03	5.413811E-13	4.195635E-15
3.250000E+03	5.352031E-13	4.137652E-15
3.260000E+03	5.290152E-13	4.079792E-15
3.270000E+03	5.228175E-13	4.022058E-15
3.280000E+03	5.166114E-13	3.964463E-15
3.290000E+03	5.104013E-13	3.907041E-15
3.300000E+03	5.041867E-13	3.849792E-15
3.310000E+03	4.979703E-13	3.792736E-15
3.320000E+03	4.917529E-13	3.735882E-15
3.330000E+03	4.855367E-13	3.679248E-15
3.340000E+03	4.793223E-13	3.622839E-15
3.350000E+03	4.731124E-13	3.566678E-15
3.360000E+03	4.669046E-13	3.510746E-15
3.370000E+03	4.607015E-13	3.455065E-15
3.380000E+03	4.545040E-13	3.399643E-15
3.390000E+03	4.483119E-13	3.344478E-15
3.400000E+03	4.421276E-13	3.289591E-15
3.410000E+03	4.359510E-13	3.234981E-15
3.420000E+03	4.297853E-13	3.180672E-15
3.430000E+03	4.236354E-13	3.126701E-15
3.440000E+03	4.175063E-13	3.073107E-15
3.450000E+03	4.114083E-13	3.019963E-15
3.460000E+03	4.053497E-13	2.967330E-15
3.470000E+03	3.993462E-13	2.915323E-15
3.480000E+03	3.934110E-13	2.864033E-15
3.490000E+03	3.875625E-13	2.813593E-15
3.500000E+03	3.818221E-13	2.764154E-15
3.510000E+03	3.762082E-13	2.715842E-15
3.520000E+03	3.707368E-13	2.668766E-15
3.530000E+03	3.654154E-13	2.622972E-15
3.540000E+03	3.602317E-13	2.578364E-15
3.550000E+03	3.551408E-13	2.534614E-15
3.560000E+03	3.500454E-13	2.491025E-15
3.570000E+03	3.447862E-13	2.446469E-15
3.580000E+03	3.391507E-13	2.399452E-15
3.590000E+03	3.329240E-13	2.348483E-15
3.600000E+03	3.260064E-13	2.292899E-15
3.610000E+03	3.184738E-13	2.233277E-15
3.620000E+03	3.105236E-13	2.171037E-15
3.630000E+03	3.023611E-13	2.107636E-15
3.640000E+03	2.941347E-13	2.044121E-15
3.650000E+03	2.859280E-13	1.981076E-15
3.660000E+03	2.777876E-13	1.918824E-15
3.670000E+03	2.697353E-13	1.857512E-15
3.680000E+03	2.617889E-13	1.797256E-15
3.690000E+03	2.539726E-13	1.738218E-15
3.700000E+03	2.463162E-13	1.680593E-15
3.710000E+03	2.388596E-13	1.624644E-15
3.720000E+03	2.316477E-13	1.570663E-15
3.730000E+03	2.247338E-13	1.518997E-15
3.740000E+03	2.181695E-13	1.469973E-15
3.750000E+03	2.120096E-13	1.423941E-15
3.760000E+03	2.063020E-13	1.381193E-15
3.770000E+03	2.010953E-13	1.342027E-15
3.780000E+03	1.964287E-13	1.306672E-15
3.790000E+03	1.923368E-13	1.275323E-15
3.800000E+03	1.888462E-13	1.248119E-15
3.810000E+03	1.859757E-13	1.225147E-15
3.820000E+03	1.837342E-13	1.206425E-15
3.830000E+03	1.821225E-13	1.191917E-15
3.840000E+03	1.811318E-13	1.181526E-15
3.850000E+03	1.807418E-13	1.175081E-15
3.860000E+03	1.809244E-13	1.172360E-15
3.870000E+03	1.816407E-13	1.173075E-15
3.880000E+03	1.828441E-13	1.176893E-15
3.890000E+03	1.844799E-13	1.183431E-15
3.900000E+03	1.864897E-13	1.192286E-15
3.910000E+03	1.888119E-13	1.203044E-15
3.920000E+03	1.913852E-13	1.215295E-15
3.930000E+03	1.941522E-13	1.228659E-15
3.940000E+03	1.970596E-13	1.242788E-15
3.950000E+03	2.000588E-13	1.257368E-15
3.960000E+03	2.031097E-13	1.272142E-15
3.970000E+03	2.061749E-13	1.286873E-15
3.980000E+03	2.092190E-13	1.301341E-15
3.990000E+03	2.122048E-13	1.315317E-15
4.000000E+03	2.150910E-13	1.328550E-15
4.010000E+03	2.178262E-13	1.340730E-15
4.020000E+03	2.203541E-13	1.351523E-15
4.030000E+03	2.226152E-13	1.360579E-15
4.040000E+03	2.245516E-13	1.367562E-15
4.050000E+03	2.261105E-13	1.372175E-15
4.060000E+03	2.272451E-13	1.374159E-15
4.070000E+03	2.279217E-13	1.373339E-15
4.080000E+03	2.281186E-13	1.369614E-15
4.090000E+03	2.278302E-13	1.362983E-15
4.100000E+03	2.270671E-13	1.353541E-15
4.110000E+03	2.258598E-13	1.341500E-15
4.120000E+03	2.242571E-13	1.327177E-15
4.130000E+03	2.223292E-13	1.311012E-15
4.140000E+03	2.201628E-13	1.293536E-15
4.150000E+03	2.178593E-13	1.275358E-15
4.160000E+03	2.155312E-13	1.257142E-15
4.170000E+03	2.132900E-13	1.239540E-15
4.180000E+03	2.112353E-13	1.223121E-15
4.190000E+03	2.094493E-13	1.208349E-15
4.200000E+03	2.079858E-13	1.195516E-15
4.210000E+03	2.068650E-13	1.184717E-15
4.220000E+03	2.060733E-13	1.175855E-15
4.230000E+03	2.055649E-13	1.168647E-15
4.240000E+03	2.052710E-13	1.162686E-15
4.250000E+03	2.051145E-13	1.157525E-15
4.260000E+03	2.050143E-13	1.152700E-15
4.270000E+03	2.049041E-13	1.147836E-15
4.280000E+03	2.047364E-13	1.142668E-15
4.290000E+03	2.044911E-13	1.137090E-15
4.300000E+03	2.041698E-13	1.131115E-15
4.310000E+03	2.037921E-13	1.124857E-15
4.320000E+03	2.033946E-13	1.118520E-15
4.330000E+03	2.030206E-13	1.112344E-15
4.340000E+03	2.027125E-13	1.106558E-15
4.350000E+03	2.024982E-13	1.101312E-15
4.360000E+03	2.023678E-13	1.096544E-15
4.370000E+03	2.022203E-13	1.091705E-15
4.380000E+03	2.017466E-13	1.085132E-15
4.390000E+03	2.004259E-13	1.074054E-15
4.400000E+03	1.982861E-13	1.058669E-15
4.410000E+03	1.958496E-13	1.041804E-15
4.420000E+03	1.933982E-13	1.024968E-15
4.430000E+03	1.910218E-13	1.008637E-15
4.440000E+03	1.887351E-13	9.928826E-16
4.450000E+03	1.865206E-13	9.776071E-16
4.460000E+03	1.843594E-13	9.627075E-16
4.470000E+03	1.822383E-13	9.481099E-16
4.480000E+03	1.801701E-13	9.338787E-16
4.490000E+03	1.781859E-13	9.201707E-16
4.500000E+03	1.763292E-13	9.072039E-16
4.510000E+03	1.746266E-13	8.951066E-16
4.520000E+03	1.730796E-13	8.838777E-16
4.530000E+03	1.716726E-13	8.734278E-16
4.540000E+03	1.703835E-13	8.636372E-16
4.550000E+03	1.691952E-13	8.544112E-16
4.560000E+03	1.680942E-13	8.456770E-16
4.570000E+03	1.670641E-13	8.373458E-16
4.580000E+03	1.660756E-13	8.292683E-16
4.590000E+03	1.650956E-13	8.212756E-16
4.600000E+03	1.640808E-13	8.131535E-16
4.610000E+03	1.629922E-13	8.047108E-16
4.620000E+03	1.618001E-13	7.958049E-16
4.630000E+03	1.604982E-13	7.864109E-16
4.640000E+03	1.591141E-13	7.766685E-16
4.650000E+03	1.577027E-13	7.668498E-16
4.660000E+03	1.563374E-13	7.573113E-16
4.670000E+03	1.551029E-13	7.484588E-16
4.680000E+03	1.540844E-13	7.406941E-16
4.690000E+03	1.533554E-13	7.343574E-16
4.700000E+03	1.529707E-13	7.296933E-16
4.710000E+03	1.529630E-13	7.268386E-16
4.720000E+03	1.533360E-13	7.257896E-16
4.730000E+03	1.540673E-13	7.264189E-16
4.740000E+03	1.551040E-13	7.284595E-16
4.750000E+03	1.563710E-13	7.315422E-16
4.760000E+03	1.577725E-13	7.352082E-16
4.770000E+03	1.592022E-13	7.389571E-16
4.780000E+03	1.605463E-13	7.422605E-16
4.790000E+03	1.616989E-13	7.446356E-16
4.800000E+03	1.625684E-13	7.456731E-16
4.810000E+03	1.630840E-13	7.450643E-16
4.820000E+03	1.632072E-13	7.426546E-16
4.830000E+03	1.629282E-13	7.384196E-16
4.840000E+03	1.622700E-13	7.324861E-16
4.850000E+03	1.612822E-13	7.250972E-16
4.860000E+03	1.600307E-13	7.165664E-16
4.870000E+03	1.585938E-13	7.072561E-16
4.880000E+03	1.570477E-13	6.975161E-16
4.890000E+03	1.554613E-13	6.876563E-16
4.900000E+03	1.538912E-13	6.779284E-16
4.910000E+03	1.523720E-13	6.684834E-16
4.920000E+03	1.509236E-13	6.594049E-16
4.930000E+03	1.495547E-13	6.507275E-16
4.940000E+03	1.482655E-13	6.424478E-16
4.950000E+03	1.470482E-13	6.345275E-16
4.960000E+03	1.458930E-13	6.269209E-16
4.970000E+03	1.447877E-13	6.195725E-16
4.980000E+03	1.437166E-13	6.124124E-16
4.990000E+03	1.426678E-13	6.053890E-16
5.000000E+03	1.416263E-13	5.984371E-16
5.010000E+03	1.405817E-13	5.915130E-16
5.020000E+03	1.395257E-13	5.845821E-16
5.030000E+03	1.384515E-13	5.776168E-16
5.040000E+03	1.373543E-13	5.705982E-16
5.050000E+03	1.362321E-13	5.635194E-16
5.060000E+03	1.350833E-13	5.563753E-16
5.070000E+03	1.339080E-13	5.491677E-16
5.080000E+03	1.327064E-13	5.418986E-16
5.090000E+03	1.314811E-13	5.345810E-16
5.100000E+03	1.302358E-13	5.272301E-16
5.110000E+03	1.289722E-13	5.198547E-16
5.120000E+03	1.276953E-13	5.124756E-16
5.130000E+03	1.264117E-13	5.051199E-16
5.140000E+03	1.251250E-13	4.978030E-16
5.150000E+03	1.238404E-13	4.905448E-16
5.160000E+03	1.225661E-13	4.833784E-16
5.170000E+03	1.213038E-13	4.763093E-16
5.180000E+03	1.200591E-13	4.693598E-16
5.190000E+03	1.188317E-13	4.625269E-16
5.200000E+03	1.176269E-13	4.558314E-16
5.210000E+03	1.164483E-13	4.492851E-16
5.220000E+03	1.152998E-13	4.429022E-16
5.230000E+03	1.141912E-13	4.367190E-16
5.240000E+03	1.131306E-13	4.307638E-16
5.250000E+03	1.121245E-13	4.250596E-16
5.260000E+03	1.111767E-13	4.196178E-16
5.270000E+03	1.102851E-13	4.144273E-16
5.280000E+03	1.094434E-13	4.094626E-16
5.290000E+03	1.086381E-13	4.046704E-16
5.300000E+03	1.078592E-13	4.000126E-16
5.310000E+03	1.070919E-13	3.954327E-16
5.320000E+03	1.063244E-13	3.908875E-16
5.330000E+03	1.055464E-13	3.863391E-16
5.340000E+03	1.047431E-13	3.817344E-16
5.350000E+03	1.038947E-13	3.770030E-16
5.360000E+03	1.029709E-13	3.720369E-16
5.370000E+03	1.019438E-13	3.667398E-16
5.380000E+03	1.007917E-13	3.610387E-16
5.390000E+03	9.950743E-14	3.549141E-16
5.400000E+03	9.810404E-14	3.484178E-16
5.410000E+03	9.660847E-14	3.416495E-16
5.420000E+03	9.506170E-14	3.347568E-16
5.430000E+03	9.351499E-14	3.279207E-16
5.440000E+03	9.201221E-14	3.212933E-16
5.450000E+03	9.058703E-14	3.149888E-16
5.460000E+03	8.924918E-14	3.090366E-16
5.470000E+03	8.797221E-14	3.033409E-16
5.480000E+03	8.668352E-14	2.976488E-16
5.490000E+03	8.526437E-14	2.915542E-16
5.500000E+03	8.363145E-14	2.847782E-16
5.510000E+03	8.193186E-14	2.778280E-16
5.520000E+03	8.028629E-14	2.711132E-16
5.530000E+03	7.876370E-14	2.648628E-16
5.540000E+03	7.738932E-14	2.591554E-16
5.550000E+03	7.615662E-14	2.539625E-16
5.560000E+03	7.504052E-14	2.491943E-16
5.570000E+03	7.400328E-14	2.447206E-16
5.580000E+03	7.300705E-14	2.404132E-16
5.590000E+03	7.202239E-14	2.361732E-16
5.600000E+03	7.103450E-14	2.319517E-16
5.610000E+03	7.004136E-14	2.277417E-16
5.620000E+03	6.905089E-14	2.235688E-16
5.630000E+03	6.808119E-14	2.194910E-16
5.640000E+03	6.715371E-14	2.155760E-16
5.650000E+03	6.629119E-14	2.118945E-16
5.660000E+03	6.551759E-14	2.085198E-16
5.670000E+03	6.485450E-14	2.055166E-16
5.680000E+03	6.431683E-14	2.029270E-16
5.690000E+03	6.391735E-14	2.007859E-16
5.700000E+03	6.365894E-14	1.990965E-16
5.710000E+03	6.354105E-14	1.978510E-16
5.720000E+03	6.355461E-14	1.970154E-16
5.730000E+03	6.368664E-14	1.965442E-16
5.740000E+03	6.391862E-14	1.963753E-16
5.750000E+03	6.423108E-14	1.964450E-16
5.760000E+03	6.459987E-14	1.966763E-16
5.770000E+03	6.500065E-14	1.969932E-16
5.780000E+03	6.540664E-14	1.973134E-16
5.790000E+03	6.579214E-14	1.975594E-16
5.800000E+03	6.613182E-14	1.976565E-16
5.810000E+03	6.640035E-14	1.975313E-16
5.820000E+03	6.657724E-14	1.971259E-16
5.830000E+03	6.664579E-14	1.963953E-16
5.840000E+03	6.659925E-14	1.953242E-16
5.850000E+03	6.643688E-14	1.939154E-16
5.860000E+03	6.616779E-14	1.922004E-16
5.870000E+03	6.580936E-14	1.902341E-16
5.880000E+03	6.538530E-14	1.880887E-16
5.890000E+03	6.491588E-14	1.858252E-16
5.900000E+03	6.442036E-14	1.835006E-16
5.910000E+03	6.391210E-14	1.811542E-16
5.920000E+03	6.339911E-14	1.788093E-16
5.930000E+03	6.288462E-14	1.764755E-16
5.940000E+03	6.237027E-14	1.741576E-16
5.950000E+03	6.185644E-14	1.718573E-16
5.960000E+03	6.134655E-14	1.695840E-16
5.970000E+03	6.084674E-14	1.673550E-16
5.980000E+03	6.036233E-14	1.651848E-16
5.990000E+03	5.990000E-14	1.630913E-16
6.000000E+03	5.946403E-14	1.610855E-16
6.010000E+03	5.905841E-14	1.591775E-16
6.020000E+03	5.868586E-14	1.573739E-16
6.030000E+03	5.834710E-14	1.556757E-16
6.040000E+03	5.804345E-14	1.540856E-16
6.050000E+03	5.777455E-14	1.526015E-16
6.060000E+03	5.753774E-14	1.512158E-16
6.070000E+03	5.733141E-14	1.499236E-16
6.080000E+03	5.715439E-14	1.487212E-16
6.090000E+03	5.700262E-14	1.475976E-16
6.100000E+03	5.687325E-14	1.465452E-16
6.110000E+03	5.676225E-14	1.455536E-16
6.120000E+03	5.666653E-14	1.446149E-16
6.130000E+03	5.658276E-14	1.437209E-16
6.140000E+03	5.651022E-14	1.428702E-16
6.150000E+03	5.644678E-14	1.420579E-16
6.160000E+03	5.639373E-14	1.412879E-16
6.170000E+03	5.635199E-14	1.405629E-16
6.180000E+03	5.632292E-14	1.398871E-16
6.190000E+03	5.630562E-14	1.392587E-16
6.200000E+03	5.629632E-14	1.386692E-16
6.210000E+03	5.629175E-14	1.381114E-16
6.220000E+03	5.628526E-14	1.375699E-16
6.230000E+03	5.627230E-14	1.370351E-16
6.240000E+03	5.624819E-14	1.364968E-16
6.250000E+03	5.621733E-14	1.359671E-16
6.260000E+03	5.618636E-14	1.354633E-16
6.270000E+03	5.616997E-14	1.350220E-16
6.280000E+03	5.618541E-14	1.346855E-16
6.290000E+03	5.625062E-14	1.344972E-16
6.300000E+03	5.638631E-14	1.345072E-16
6.310000E+03	5.660798E-14	1.347525E-16
6.320000E+03	5.693078E-14	1.352696E-16
6.330000E+03	5.736601E-14	1.360859E-16
6.340000E+03	5.792093E-14	1.372194E-16
6.350000E+03	5.860178E-14	1.386861E-16
6.360000E+03	5.940631E-14	1.404825E-16
6.370000E+03	6.033004E-14	1.426004E-16
6.380000E+03	6.135813E-14	1.450075E-16
6.390000E+03	6.246771E-14	1.476533E-16
6.400000E+03	6.362673E-14	1.504660E-16
6.410000E+03	6.479015E-14	1.533431E-16
6.420000E+03	6.590204E-14	1.561563E-16
6.430000E+03	6.689359E-14	1.587458E-16
6.440000E+03	6.768529E-14	1.609251E-16
6.450000E+03	6.819043E-14	1.624880E-16
6.460000E+03	6.832383E-14	1.632291E-16
6.470000E+03	6.801888E-14	1.629831E-16
6.480000E+03	6.725504E-14	1.616917E-16
6.490000E+03	6.608387E-14	1.594665E-16
6.500000E+03	6.465551E-14	1.566564E-16
6.510000E+03	6.323548E-14	1.538951E-16
6.520000E+03	6.223892E-14	1.521933E-16
6.530000E+03	6.213468E-14	1.527144E-16
6.540000E+03	6.302654E-14	1.557469E-16
6.550000E+03	6.459722E-14	1.605431E-16
6.560000E+03	6.645370E-14	1.661518E-16
6.570000E+03	6.832724E-14	1.719131E-16
6.580000E+03	7.003723E-14	1.773731E-16
6.590000E+03	7.146435E-14	1.822222E-16
6.600000E+03	7.254509E-14	1.862843E-16
6.610000E+03	7.325844E-14	1.894872E-16
6.620000E+03	7.361531E-14	1.918387E-16
6.630000E+03	7.364889E-14	1.934043E-16
6.640000E+03	7.340493E-14	1.942843E-16
6.650000E+03	7.293411E-14	1.945946E-16
6.660000E+03	7.228571E-14	1.944510E-16
6.670000E+03	7.150965E-14	1.939744E-16
6.680000E+03	7.064626E-14	1.932637E-16
6.690000E+03	6.972972E-14	1.924045E-16
6.700000E+03	6.879063E-14	1.914752E-16
6.710000E+03	6.785093E-14	1.905330E-16
6.720000E+03	6.692972E-14	1.896293E-16
6.730000E+03	6.603869E-14	1.887963E-16
6.740000E+03	6.518780E-14	1.880627E-16
6.750000E+03	6.438003E-14	1.874379E-16
6.760000E+03	6.362105E-14	1.869398E-16
6.770000E+03	6.291133E-14	1.865718E-16
6.780000E+03	6.225177E-14	1.863386E-16
6.790000E+03	6.164178E-14	1.862410E-16
6.800000E+03	6.108314E-14	1.862869E-16
6.810000E+03	6.057650E-14	1.864811E-16
6.820000E+03	6.012123E-14	1.868247E-16
6.830000E+03	5.971759E-14	1.873217E-16
6.840000E+03	5.936651E-14	1.879785E-16
6.850000E+03	5.906589E-14	1.887917E-16
6.860000E+03	5.881381E-14	1.897588E-16
6.870000E+03	5.860620E-14	1.908699E-16
6.880000E+03	5.844139E-14	1.921227E-16
6.890000E+03	5.831215E-14	1.934962E-16
6.900000E+03	5.821391E-14	1.949778E-16
6.910000E+03	5.813945E-14	1.965450E-16
6.920000E+03	5.808255E-14	1.981784E-16
6.930000E+03	5.803847E-14	1.998624E-16
6.940000E+03	5.799954E-14	2.015711E-16
6.950000E+03	5.796358E-14	2.032967E-16
6.960000E+03	5.792468E-14	2.050181E-16
6.970000E+03	5.788138E-14	2.067290E-16
6.980000E+03	5.783195E-14	2.084224E-16
6.990000E+03	5.777438E-14	2.100898E-16
7.000000E+03	5.770861E-14	2.117296E-16
7.010000E+03	5.763639E-14	2.133471E-16
7.020000E+03	5.755669E-14	2.149373E-16
7.030000E+03	5.747363E-14	2.165146E-16
7.040000E+03	5.738824E-14	2.180820E-16
7.050000E+03	5.730181E-14	2.196439E-16
7.060000E+03	5.721787E-14	2.212133E-16
7.070000E+03	5.713732E-14	2.227937E-16
7.080000E+03	5.706307E-14	2.243964E-16
7.090000E+03	5.699510E-14	2.260216E-16
7.100000E+03	5.693402E-14	2.276721E-16
7.110000E+03	5.687981E-14	2.293481E-16
7.120000E+03	5.683171E-14	2.310469E-16
7.130000E+03	5.678820E-14	2.327626E-16
7.140000E+03	5.674701E-14	2.344858E-16
7.150000E+03	5.670392E-14	2.361991E-16
7.160000E+03	5.665652E-14	2.378918E-16
7.170000E+03	5.659853E-14	2.395366E-16
7.180000E+03	5.652992E-14	2.411321E-16
7.190000E+03	5.644412E-14	2.426488E-16
7.200000E+03	5.634016E-14	2.440804E-16
7.210000E+03	5.621785E-14	2.454242E-16
7.220000E+03	5.607430E-14	2.466653E-16
7.230000E+03	5.590957E-14	2.478017E-16
7.240000E+03	5.572647E-14	2.488436E-16
7.250000E+03	5.552199E-14	2.497755E-16
7.260000E+03	5.530054E-14	2.506151E-16
7.270000E+03	5.505954E-14	2.513487E-16
7.280000E+03	5.480292E-14	2.519923E-16
7.290000E+03	5.453009E-14	2.525415E-16
7.300000E+03	5.424563E-14	2.530158E-16
7.310000E+03	5.395081E-14	2.534201E-16
7.320000E+03	5.364707E-14	2.537601E-16
7.330000E+03	5.333841E-14	2.540536E-16
7.340000E+03	5.302639E-14	2.543078E-16
7.350000E+03	5.271494E-14	2.545411E-16
7.360000E+03	5.240650E-14	2.547654E-16
7.370000E+03	5.210084E-14	2.549798E-16
7.380000E+03	5.180204E-14	2.552047E-16
7.390000E+03	5.151016E-14	2.554408E-16
7.400000E+03	5.122594E-14	2.556926E-16
7.410000E+03	5.094849E-14	2.559563E-16
7.420000E+03	5.068010E-14	2.562441E-16
7.430000E+03	5.041807E-14	2.565431E-16
7.440000E+03	5.016423E-14	2.568632E-16
7.450000E+03	4.991546E-14	2.571891E-16
7.460000E+03	4.967090E-14	2.575169E-16
7.470000E+03	4.943198E-14	2.578543E-16
7.480000E+03	4.919653E-14	2.581906E-16
7.490000E+03	4.896366E-14	2.585213E-16
7.500000E+03	4.873376E-14	2.588488E-16
7.510000E+03	4.850624E-14	2.591701E-16
7.520000E+03	4.828071E-14	2.594834E-16
7.530000E+03	4.805827E-14	2.597947E-16
7.540000E+03	4.783917E-14	2.601059E-16
7.550000E+03	4.762514E-14	2.604266E-16
7.560000E+03	4.741576E-14	2.607551E-16
7.570000E+03	4.721194E-14	2.610967E-16
7.580000E+03	4.701691E-14	2.614700E-16
7.590000E+03	4.683019E-14	2.618731E-16
7.600000E+03	4.665333E-14	2.623156E-16
7.610000E+03	4.648637E-14	2.627984E-16
7.620000E+03	4.632883E-14	2.633200E-16
7.630000E+03	4.617983E-14	2.638760E-16
7.640000E+03	4.603804E-14	2.644596E-16
7.650000E+03	4.590411E-14	2.650753E-16
7.660000E+03	4.577326E-14	2.656960E-16
7.670000E+03	4.564510E-14	2.663197E-16
7.680000E+03	4.551517E-14	2.669205E-16
7.690000E+03	4.538001E-14	2.674780E-16
7.700000E+03	4.523869E-14	2.679860E-16
7.710000E+03	4.508540E-14	2.684095E-16
7.720000E+03	4.491841E-14	2.687372E-16
7.730000E+03	4.473524E-14	2.689528E-16
7.740000E+03	4.453521E-14	2.690510E-16
7.750000E+03	4.431580E-14	2.690150E-16
7.760000E+03	4.407767E-14	2.688471E-16
