#wls	flux	fluxerr
1.600000E+03	6.252670E-13	4.566114E-15
1.640000E+03	6.598369E-13	4.803254E-15
1.680000E+03	6.953617E-13	5.045326E-15
1.720000E+03	7.316611E-13	5.290891E-15
1.760000E+03	7.685014E-13	5.538138E-15
1.800000E+03	8.055920E-13	5.784868E-15
1.840000E+03	8.425769E-13	6.028439E-15
1.880000E+03	8.790289E-13	6.265736E-15
1.920000E+03	9.144417E-13	6.493133E-15
1.960000E+03	9.482315E-13	6.706509E-15
2.000000E+03	9.797439E-13	6.901316E-15
2.040000E+03	1.008267E-12	7.072682E-15
2.080000E+03	1.033064E-12	7.215664E-15
2.120000E+03	1.053414E-12	7.325515E-15
2.160000E+03	1.068658E-12	7.398038E-15
2.200000E+03	1.078271E-12	7.430051E-15
2.240000E+03	1.081950E-12	7.419980E-15
2.280000E+03	1.079686E-12	7.368335E-15
2.320000E+03	1.071795E-12	7.277851E-15
2.360000E+03	1.058861E-12	7.153060E-15
2.400000E+03	1.041646E-12	6.999631E-15
2.440000E+03	1.020982E-12	6.823610E-15
2.480000E+03	9.976773E-13	6.630779E-15
2.520000E+03	9.724538E-13	6.426256E-15
2.560000E+03	9.459083E-13	6.214229E-15
2.600000E+03	9.184975E-13	5.997888E-15
2.640000E+03	8.905550E-13	5.779560E-15
2.680000E+03	8.623094E-13	5.560844E-15
2.720000E+03	8.339066E-13	5.342774E-15
2.760000E+03	8.054323E-13	5.125981E-15
2.800000E+03	7.769312E-13	4.910821E-15
2.840000E+03	7.484269E-13	4.697514E-15
2.880000E+03	7.199297E-13	4.486189E-15
2.920000E+03	6.914522E-13	4.276994E-15
2.960000E+03	6.630079E-13	4.070076E-15
3.000000E+03	6.346243E-13	3.865670E-15
3.010000E+03	6.275416E-13	3.814990E-15
3.020000E+03	6.204662E-13	3.764494E-15
3.030000E+03	6.133980E-13	3.714180E-15
3.040000E+03	6.063376E-13	3.664055E-15
3.050000E+03	5.992870E-13	3.614130E-15
3.060000E+03	5.922462E-13	3.564405E-15
3.070000E+03	5.852169E-13	3.514893E-15
3.080000E+03	5.781994E-13	3.465596E-15
3.090000E+03	5.711954E-13	3.416524E-15
3.100000E+03	5.642063E-13	3.367687E-15
3.110000E+03	5.572330E-13	3.319089E-15
3.120000E+03	5.502757E-13	3.270735E-15
3.130000E+03	5.433378E-13	3.222642E-15
3.140000E+03	5.364193E-13	3.174813E-15
3.150000E+03	5.295218E-13	3.127257E-15
3.160000E+03	5.226476E-13	3.079987E-15
3.170000E+03	5.157968E-13	3.033005E-15
3.180000E+03	5.089721E-13	2.986326E-15
3.190000E+03	5.021748E-13	2.939958E-15
3.200000E+03	4.954062E-13	2.893910E-15
3.210000E+03	4.886691E-13	2.848196E-15
3.220000E+03	4.819637E-13	2.802818E-15
3.230000E+03	4.752936E-13	2.757797E-15
3.240000E+03	4.686579E-13	2.713127E-15
3.250000E+03	4.620603E-13	2.668830E-15
3.260000E+03	4.555021E-13	2.624912E-15
3.270000E+03	4.489847E-13	2.581380E-15
3.280000E+03	4.425100E-13	2.538246E-15
3.290000E+03	4.360794E-13	2.495516E-15
3.300000E+03	4.296939E-13	2.453195E-15
3.310000E+03	4.233566E-13	2.411301E-15
3.320000E+03	4.170672E-13	2.369829E-15
3.330000E+03	4.108275E-13	2.328791E-15
3.340000E+03	4.046393E-13	2.288195E-15
3.350000E+03	3.985040E-13	2.248047E-15
3.360000E+03	3.924221E-13	2.208350E-15
3.370000E+03	3.863963E-13	2.169116E-15
3.380000E+03	3.804269E-13	2.130347E-15
3.390000E+03	3.745165E-13	2.092056E-15
3.400000E+03	3.686649E-13	2.054239E-15
3.410000E+03	3.628771E-13	2.016923E-15
3.420000E+03	3.571534E-13	1.980109E-15
3.430000E+03	3.514977E-13	1.943815E-15
3.440000E+03	3.459133E-13	1.908058E-15
3.450000E+03	3.404044E-13	1.872859E-15
3.460000E+03	3.349773E-13	1.838249E-15
3.470000E+03	3.296349E-13	1.804244E-15
3.480000E+03	3.243821E-13	1.770865E-15
3.490000E+03	3.192239E-13	1.738138E-15
3.500000E+03	3.141596E-13	1.706055E-15
3.510000E+03	3.091846E-13	1.674588E-15
3.520000E+03	3.042864E-13	1.643666E-15
3.530000E+03	2.994380E-13	1.613142E-15
3.540000E+03	2.945955E-13	1.582779E-15
3.550000E+03	2.896941E-13	1.552228E-15
3.560000E+03	2.846420E-13	1.521003E-15
3.570000E+03	2.793339E-13	1.488551E-15
3.580000E+03	2.736619E-13	1.454309E-15
3.590000E+03	2.675478E-13	1.417881E-15
3.600000E+03	2.609726E-13	1.379186E-15
3.610000E+03	2.539862E-13	1.338508E-15
3.620000E+03	2.466957E-13	1.296430E-15
3.630000E+03	2.392262E-13	1.253621E-15
3.640000E+03	2.316975E-13	1.210716E-15
3.650000E+03	2.242065E-13	1.168224E-15
3.660000E+03	2.168252E-13	1.126519E-15
3.670000E+03	2.096059E-13	1.085866E-15
3.680000E+03	2.025858E-13	1.046452E-15
3.690000E+03	1.957968E-13	1.008433E-15
3.700000E+03	1.892659E-13	9.719372E-16
3.710000E+03	1.830187E-13	9.370861E-16
3.720000E+03	1.770819E-13	9.040028E-16
3.730000E+03	1.714807E-13	8.728023E-16
3.740000E+03	1.662400E-13	8.435965E-16
3.750000E+03	1.613826E-13	8.164850E-16
3.760000E+03	1.569304E-13	7.915609E-16
3.770000E+03	1.529011E-13	7.688952E-16
3.780000E+03	1.493101E-13	7.485461E-16
3.790000E+03	1.461691E-13	7.305524E-16
3.800000E+03	1.434848E-13	7.149269E-16
3.810000E+03	1.412606E-13	7.016657E-16
3.820000E+03	1.394948E-13	6.907400E-16
3.830000E+03	1.381804E-13	6.820936E-16
3.840000E+03	1.373061E-13	6.756504E-16
3.850000E+03	1.368566E-13	6.713148E-16
3.860000E+03	1.368098E-13	6.689593E-16
3.870000E+03	1.371407E-13	6.684432E-16
3.880000E+03	1.378202E-13	6.696076E-16
3.890000E+03	1.388142E-13	6.722717E-16
3.900000E+03	1.400889E-13	6.762571E-16
3.910000E+03	1.416063E-13	6.813680E-16
3.920000E+03	1.433303E-13	6.874198E-16
3.930000E+03	1.452238E-13	6.942256E-16
3.940000E+03	1.472513E-13	7.016083E-16
3.950000E+03	1.493783E-13	7.093977E-16
3.960000E+03	1.515720E-13	7.174343E-16
3.970000E+03	1.538004E-13	7.255639E-16
3.980000E+03	1.560298E-13	7.336262E-16
3.990000E+03	1.582248E-13	7.414555E-16
4.000000E+03	1.603486E-13	7.488813E-16
4.010000E+03	1.623589E-13	7.557112E-16
4.020000E+03	1.642129E-13	7.617510E-16
4.030000E+03	1.658680E-13	7.668123E-16
4.040000E+03	1.672811E-13	7.707051E-16
4.050000E+03	1.684164E-13	7.732776E-16
4.060000E+03	1.692427E-13	7.743995E-16
4.070000E+03	1.697379E-13	7.739853E-16
4.080000E+03	1.698894E-13	7.719932E-16
4.090000E+03	1.696959E-13	7.684345E-16
4.100000E+03	1.691686E-13	7.633761E-16
4.110000E+03	1.683301E-13	7.569351E-16
4.120000E+03	1.672171E-13	7.492911E-16
4.130000E+03	1.658736E-13	7.406542E-16
4.140000E+03	1.643558E-13	7.312850E-16
4.150000E+03	1.627259E-13	7.214675E-16
4.160000E+03	1.610460E-13	7.114827E-16
4.170000E+03	1.593793E-13	7.016097E-16
4.180000E+03	1.577778E-13	6.920773E-16
4.190000E+03	1.562838E-13	6.830673E-16
4.200000E+03	1.549253E-13	6.746962E-16
4.210000E+03	1.537104E-13	6.669934E-16
4.220000E+03	1.526327E-13	6.599246E-16
4.230000E+03	1.516715E-13	6.533937E-16
4.240000E+03	1.507938E-13	6.472543E-16
4.250000E+03	1.499659E-13	6.413587E-16
4.260000E+03	1.491519E-13	6.355513E-16
4.270000E+03	1.483252E-13	6.297186E-16
4.280000E+03	1.474657E-13	6.237762E-16
4.290000E+03	1.465653E-13	6.176928E-16
4.300000E+03	1.456265E-13	6.114795E-16
4.310000E+03	1.446581E-13	6.051755E-16
4.320000E+03	1.436735E-13	5.988388E-16
4.330000E+03	1.426868E-13	5.925278E-16
4.340000E+03	1.417084E-13	5.862860E-16
4.350000E+03	1.407427E-13	5.801319E-16
4.360000E+03	1.397813E-13	5.740299E-16
4.370000E+03	1.387997E-13	5.678787E-16
4.380000E+03	1.377625E-13	5.615353E-16
4.390000E+03	1.367589E-13	5.553641E-16
4.400000E+03	1.357717E-13	5.492942E-16
4.410000E+03	1.347091E-13	5.429537E-16
4.420000E+03	1.335959E-13	5.364460E-16
4.430000E+03	1.324521E-13	5.298533E-16
4.440000E+03	1.312871E-13	5.232138E-16
4.450000E+03	1.301073E-13	5.165537E-16
4.460000E+03	1.289183E-13	5.098960E-16
4.470000E+03	1.277290E-13	5.032755E-16
4.480000E+03	1.265571E-13	4.967616E-16
4.490000E+03	1.254232E-13	4.904343E-16
4.500000E+03	1.243493E-13	4.843767E-16
4.510000E+03	1.233532E-13	4.786555E-16
4.520000E+03	1.224445E-13	4.733043E-16
4.530000E+03	1.216241E-13	4.683221E-16
4.540000E+03	1.208891E-13	4.636938E-16
4.550000E+03	1.202336E-13	4.593932E-16
4.560000E+03	1.196483E-13	4.553807E-16
4.570000E+03	1.191224E-13	4.516125E-16
4.580000E+03	1.186412E-13	4.480305E-16
4.590000E+03	1.181872E-13	4.445663E-16
4.600000E+03	1.177412E-13	4.411469E-16
4.610000E+03	1.172884E-13	4.377167E-16
4.620000E+03	1.168190E-13	4.342393E-16
4.630000E+03	1.163352E-13	4.307234E-16
4.640000E+03	1.158508E-13	4.272211E-16
4.650000E+03	1.153887E-13	4.238156E-16
4.660000E+03	1.149817E-13	4.206264E-16
4.670000E+03	1.146689E-13	4.177932E-16
4.680000E+03	1.144887E-13	4.154513E-16
4.690000E+03	1.144740E-13	4.137135E-16
4.700000E+03	1.146521E-13	4.126710E-16
4.710000E+03	1.150338E-13	4.123535E-16
4.720000E+03	1.156196E-13	4.127541E-16
4.730000E+03	1.163927E-13	4.138042E-16
4.740000E+03	1.173225E-13	4.153868E-16
4.750000E+03	1.183655E-13	4.173421E-16
4.760000E+03	1.194702E-13	4.194836E-16
4.770000E+03	1.205751E-13	4.215941E-16
4.780000E+03	1.216216E-13	4.234695E-16
4.790000E+03	1.225501E-13	4.249052E-16
4.800000E+03	1.233132E-13	4.257436E-16
4.810000E+03	1.238734E-13	4.258623E-16
4.820000E+03	1.242080E-13	4.251930E-16
4.830000E+03	1.243117E-13	4.237275E-16
4.840000E+03	1.241964E-13	4.215162E-16
4.850000E+03	1.238857E-13	4.186483E-16
4.860000E+03	1.234142E-13	4.152493E-16
4.870000E+03	1.228232E-13	4.114645E-16
4.880000E+03	1.221530E-13	4.074332E-16
4.890000E+03	1.214413E-13	4.032849E-16
4.900000E+03	1.207207E-13	3.991285E-16
4.910000E+03	1.200145E-13	3.950410E-16
4.920000E+03	1.193364E-13	3.910674E-16
4.930000E+03	1.186963E-13	3.872384E-16
4.940000E+03	1.180939E-13	3.835516E-16
4.950000E+03	1.175297E-13	3.800069E-16
4.960000E+03	1.169957E-13	3.765770E-16
4.970000E+03	1.164850E-13	3.732383E-16
4.980000E+03	1.159879E-13	3.699592E-16
4.990000E+03	1.154953E-13	3.667103E-16
5.000000E+03	1.149973E-13	3.634602E-16
5.010000E+03	1.144844E-13	3.601791E-16
5.020000E+03	1.139483E-13	3.568419E-16
5.030000E+03	1.133844E-13	3.534351E-16
5.040000E+03	1.127853E-13	3.499375E-16
5.050000E+03	1.121504E-13	3.463488E-16
5.060000E+03	1.114760E-13	3.426588E-16
5.070000E+03	1.107635E-13	3.388739E-16
5.080000E+03	1.100132E-13	3.349967E-16
5.090000E+03	1.092284E-13	3.310393E-16
5.100000E+03	1.084141E-13	3.270179E-16
5.110000E+03	1.075749E-13	3.229476E-16
5.120000E+03	1.067160E-13	3.188455E-16
5.130000E+03	1.058432E-13	3.147296E-16
5.140000E+03	1.049641E-13	3.106228E-16
5.150000E+03	1.040834E-13	3.065396E-16
5.160000E+03	1.032070E-13	3.024974E-16
5.170000E+03	1.023394E-13	2.985090E-16
5.180000E+03	1.014850E-13	2.945872E-16
5.190000E+03	1.006471E-13	2.907409E-16
5.200000E+03	9.982878E-14	2.869786E-16
5.210000E+03	9.903449E-14	2.833119E-16
5.220000E+03	9.826903E-14	2.797537E-16
5.230000E+03	9.753569E-14	2.763121E-16
5.240000E+03	9.683918E-14	2.729993E-16
5.250000E+03	9.618291E-14	2.698234E-16
5.260000E+03	9.556603E-14	2.667803E-16
5.270000E+03	9.498732E-14	2.638653E-16
5.280000E+03	9.444064E-14	2.610597E-16
5.290000E+03	9.391713E-14	2.583382E-16
5.300000E+03	9.340603E-14	2.556704E-16
5.310000E+03	9.289621E-14	2.530254E-16
5.320000E+03	9.237475E-14	2.503686E-16
5.330000E+03	9.182863E-14	2.476651E-16
5.340000E+03	9.124223E-14	2.448743E-16
5.350000E+03	9.059803E-14	2.419509E-16
5.360000E+03	8.987853E-14	2.388510E-16
5.370000E+03	8.906735E-14	2.355340E-16
5.380000E+03	8.815463E-14	2.319777E-16
5.390000E+03	8.713762E-14	2.281788E-16
5.400000E+03	8.602455E-14	2.241625E-16
5.410000E+03	8.483413E-14	2.199804E-16
5.420000E+03	8.359017E-14	2.156963E-16
5.430000E+03	8.232223E-14	2.113874E-16
5.440000E+03	8.105680E-14	2.071218E-16
5.450000E+03	7.980867E-14	2.029365E-16
5.460000E+03	7.857320E-14	1.988184E-16
5.470000E+03	7.732509E-14	1.947029E-16
5.480000E+03	7.602102E-14	1.904814E-16
5.490000E+03	7.461669E-14	1.860450E-16
5.500000E+03	7.310125E-14	1.813701E-16
5.510000E+03	7.152412E-14	1.765822E-16
5.520000E+03	6.995164E-14	1.718462E-16
5.530000E+03	6.843658E-14	1.672905E-16
5.540000E+03	6.700977E-14	1.629877E-16
5.550000E+03	6.567979E-14	1.589548E-16
5.560000E+03	6.443943E-14	1.551709E-16
5.570000E+03	6.327215E-14	1.515926E-16
5.580000E+03	6.215917E-14	1.481722E-16
5.590000E+03	6.108528E-14	1.448716E-16
5.600000E+03	6.004124E-14	1.416672E-16
5.610000E+03	5.902413E-14	1.385510E-16
5.620000E+03	5.803882E-14	1.355332E-16
5.630000E+03	5.709255E-14	1.326292E-16
5.640000E+03	5.619849E-14	1.298679E-16
5.650000E+03	5.536996E-14	1.272780E-16
5.660000E+03	5.462013E-14	1.248870E-16
5.670000E+03	5.396183E-14	1.227212E-16
5.680000E+03	5.340314E-14	1.207953E-16
5.690000E+03	5.294980E-14	1.191186E-16
5.700000E+03	5.260223E-14	1.176879E-16
5.710000E+03	5.235927E-14	1.164968E-16
5.720000E+03	5.221252E-14	1.155227E-16
5.730000E+03	5.215199E-14	1.147399E-16
5.740000E+03	5.216478E-14	1.141169E-16
5.750000E+03	5.223438E-14	1.136150E-16
5.760000E+03	5.234394E-14	1.131955E-16
5.770000E+03	5.247555E-14	1.128185E-16
5.780000E+03	5.260953E-14	1.124407E-16
5.790000E+03	5.272843E-14	1.120252E-16
5.800000E+03	5.281290E-14	1.115315E-16
5.810000E+03	5.284821E-14	1.109300E-16
5.820000E+03	5.282036E-14	1.101933E-16
5.830000E+03	5.272062E-14	1.093059E-16
5.840000E+03	5.254429E-14	1.082608E-16
5.850000E+03	5.229182E-14	1.070620E-16
5.860000E+03	5.196946E-14	1.057253E-16
5.870000E+03	5.158686E-14	1.042730E-16
5.880000E+03	5.115541E-14	1.027305E-16
5.890000E+03	5.068939E-14	1.011282E-16
5.900000E+03	5.019903E-14	9.948802E-17
5.910000E+03	4.969615E-14	9.783435E-17
5.920000E+03	4.918647E-14	9.617906E-17
5.930000E+03	4.867578E-14	9.453382E-17
5.940000E+03	4.816771E-14	9.290594E-17
5.950000E+03	4.766548E-14	9.130164E-17
5.960000E+03	4.717315E-14	8.972866E-17
5.970000E+03	4.669446E-14	8.819389E-17
5.980000E+03	4.623324E-14	8.670421E-17
5.990000E+03	4.579320E-14	8.526610E-17
6.000000E+03	4.537759E-14	8.388496E-17
6.010000E+03	4.499048E-14	8.256756E-17
6.020000E+03	4.463236E-14	8.131391E-17
6.030000E+03	4.430588E-14	8.012795E-17
6.040000E+03	4.401161E-14	7.900975E-17
6.050000E+03	4.374958E-14	7.795839E-17
6.060000E+03	4.351938E-14	7.697220E-17
6.070000E+03	4.332164E-14	7.605142E-17
6.080000E+03	4.315459E-14	7.519201E-17
6.090000E+03	4.301687E-14	7.439084E-17
6.100000E+03	4.290837E-14	7.364700E-17
6.110000E+03	4.282744E-14	7.295700E-17
6.120000E+03	4.277314E-14	7.231867E-17
6.130000E+03	4.274255E-14	7.172663E-17
6.140000E+03	4.273594E-14	7.118095E-17
6.150000E+03	4.275091E-14	7.067737E-17
6.160000E+03	4.278598E-14	7.021328E-17
6.170000E+03	4.283885E-14	6.978489E-17
6.180000E+03	4.290915E-14	6.939163E-17
6.190000E+03	4.299293E-14	6.902733E-17
6.200000E+03	4.308705E-14	6.868727E-17
6.210000E+03	4.318948E-14	6.836875E-17
6.220000E+03	4.329529E-14	6.806462E-17
6.230000E+03	4.340357E-14	6.777426E-17
6.240000E+03	4.351377E-14	6.749770E-17
6.250000E+03	4.362730E-14	6.723805E-17
6.260000E+03	4.375027E-14	6.700560E-17
6.270000E+03	4.389168E-14	6.681488E-17
6.280000E+03	4.406186E-14	6.668213E-17
6.290000E+03	4.427220E-14	6.662495E-17
6.300000E+03	4.453573E-14	6.666309E-17
6.310000E+03	4.486124E-14	6.680978E-17
6.320000E+03	4.525987E-14	6.708165E-17
6.330000E+03	4.573721E-14	6.748709E-17
6.340000E+03	4.629790E-14	6.803321E-17
6.350000E+03	4.694359E-14	6.872294E-17
6.360000E+03	4.767154E-14	6.955313E-17
6.370000E+03	4.847674E-14	7.051772E-17
6.380000E+03	4.934765E-14	7.160163E-17
6.390000E+03	5.026909E-14	7.278499E-17
6.400000E+03	5.121697E-14	7.403551E-17
6.410000E+03	5.216418E-14	7.531700E-17
6.420000E+03	5.307267E-14	7.657771E-17
6.430000E+03	5.390151E-14	7.776183E-17
6.440000E+03	5.460277E-14	7.880322E-17
6.450000E+03	5.512640E-14	7.963205E-17
6.460000E+03	5.542920E-14	8.018737E-17
6.470000E+03	5.548620E-14	8.043326E-17
6.480000E+03	5.529721E-14	8.036827E-17
6.490000E+03	5.490762E-14	8.005612E-17
6.500000E+03	5.440867E-14	7.962696E-17
6.510000E+03	5.394184E-14	7.928513E-17
6.520000E+03	5.369329E-14	7.930424E-17
6.530000E+03	5.383021E-14	7.993575E-17
6.540000E+03	5.438821E-14	8.124148E-17
6.550000E+03	5.528511E-14	8.310933E-17
6.560000E+03	5.635769E-14	8.530297E-17
6.570000E+03	5.746806E-14	8.761891E-17
6.580000E+03	5.850080E-14	8.988233E-17
6.590000E+03	5.937445E-14	9.196531E-17
6.600000E+03	6.003847E-14	9.378348E-17
6.610000E+03	6.046743E-14	9.528853E-17
6.620000E+03	6.065822E-14	9.646529E-17
6.630000E+03	6.062793E-14	9.732992E-17
6.640000E+03	6.040193E-14	9.791215E-17
6.650000E+03	6.000897E-14	9.824818E-17
6.660000E+03	5.948458E-14	9.838664E-17
6.670000E+03	5.885983E-14	9.837075E-17
6.680000E+03	5.816436E-14	9.824316E-17
6.690000E+03	5.742546E-14	9.804441E-17
6.700000E+03	5.666403E-14	9.780598E-17
6.710000E+03	5.589814E-14	9.755595E-17
6.720000E+03	5.514322E-14	9.731920E-17
6.730000E+03	5.440781E-14	9.710961E-17
6.740000E+03	5.370315E-14	9.694678E-17
6.750000E+03	5.303133E-14	9.683459E-17
6.760000E+03	5.239707E-14	9.678218E-17
6.770000E+03	5.180378E-14	9.679671E-17
6.780000E+03	5.125171E-14	9.687990E-17
6.790000E+03	5.074069E-14	9.703276E-17
6.800000E+03	5.027339E-14	9.726191E-17
6.810000E+03	4.984898E-14	9.756757E-17
6.820000E+03	4.946751E-14	9.795163E-17
6.830000E+03	4.912758E-14	9.841333E-17
6.840000E+03	4.883057E-14	9.895737E-17
6.850000E+03	4.857306E-14	9.957899E-17
6.860000E+03	4.835421E-14	1.002784E-16
6.870000E+03	4.817039E-14	1.010501E-16
6.880000E+03	4.802045E-14	1.018935E-16
6.890000E+03	4.789750E-14	1.027956E-16
6.900000E+03	4.779941E-14	1.037533E-16
6.910000E+03	4.772174E-14	1.047580E-16
6.920000E+03	4.765900E-14	1.057986E-16
6.930000E+03	4.760694E-14	1.068662E-16
6.940000E+03	4.756166E-14	1.079523E-16
6.950000E+03	4.751979E-14	1.090492E-16
6.960000E+03	4.747862E-14	1.101505E-16
6.970000E+03	4.743707E-14	1.112533E-16
6.980000E+03	4.739160E-14	1.123489E-16
6.990000E+03	4.734136E-14	1.134345E-16
7.000000E+03	4.728820E-14	1.145140E-16
7.010000E+03	4.723022E-14	1.155820E-16
7.020000E+03	4.716918E-14	1.166423E-16
7.030000E+03	4.710499E-14	1.176942E-16
7.040000E+03	4.703896E-14	1.187404E-16
7.050000E+03	4.697350E-14	1.197866E-16
7.060000E+03	4.690892E-14	1.208333E-16
7.070000E+03	4.684641E-14	1.218836E-16
7.080000E+03	4.678694E-14	1.229399E-16
7.090000E+03	4.673109E-14	1.240037E-16
7.100000E+03	4.667909E-14	1.250757E-16
7.110000E+03	4.663069E-14	1.261553E-16
7.120000E+03	4.658513E-14	1.272405E-16
7.130000E+03	4.654010E-14	1.283250E-16
7.140000E+03	4.649498E-14	1.294070E-16
7.150000E+03	4.644655E-14	1.304771E-16
7.160000E+03	4.639349E-14	1.315312E-16
7.170000E+03	4.633222E-14	1.325586E-16
7.180000E+03	4.626036E-14	1.335515E-16
7.190000E+03	4.617587E-14	1.345031E-16
7.200000E+03	4.607823E-14	1.354108E-16
7.210000E+03	4.596416E-14	1.362636E-16
7.220000E+03	4.583527E-14	1.370650E-16
7.230000E+03	4.569027E-14	1.378098E-16
7.240000E+03	4.552822E-14	1.384938E-16
7.250000E+03	4.535069E-14	1.391204E-16
7.260000E+03	4.515835E-14	1.396903E-16
7.270000E+03	4.495217E-14	1.402055E-16
7.280000E+03	4.473226E-14	1.406651E-16
7.290000E+03	4.450119E-14	1.410760E-16
7.300000E+03	4.426068E-14	1.414430E-16
7.310000E+03	4.401155E-14	1.417678E-16
7.320000E+03	4.375586E-14	1.420565E-16
7.330000E+03	4.349680E-14	1.423189E-16
7.340000E+03	4.323654E-14	1.425618E-16
7.350000E+03	4.297602E-14	1.427884E-16
7.360000E+03	4.271826E-14	1.430086E-16
7.370000E+03	4.246383E-14	1.432246E-16
7.380000E+03	4.221415E-14	1.434414E-16
7.390000E+03	4.197141E-14	1.436669E-16
7.400000E+03	4.173635E-14	1.439040E-16
7.410000E+03	4.150836E-14	1.441513E-16
7.420000E+03	4.128870E-14	1.444138E-16
7.430000E+03	4.107734E-14	1.446917E-16
7.440000E+03	4.087401E-14	1.449850E-16
7.450000E+03	4.067725E-14	1.452889E-16
7.460000E+03	4.048868E-14	1.456096E-16
7.470000E+03	4.030662E-14	1.459419E-16
7.480000E+03	4.013150E-14	1.462876E-16
7.490000E+03	3.996045E-14	1.466367E-16
7.500000E+03	3.979612E-14	1.469994E-16
7.510000E+03	3.963686E-14	1.473701E-16
7.520000E+03	3.948109E-14	1.477430E-16
7.530000E+03	3.933064E-14	1.481255E-16
7.540000E+03	3.918309E-14	1.485087E-16
7.550000E+03	3.904056E-14	1.489009E-16
7.560000E+03	3.890297E-14	1.493022E-16
7.570000E+03	3.876926E-14	1.497088E-16
7.580000E+03	3.863939E-14	1.501209E-16
7.590000E+03	3.851546E-14	1.505469E-16
7.600000E+03	3.839610E-14	1.509820E-16
7.610000E+03	3.827976E-14	1.514202E-16
7.620000E+03	3.816919E-14	1.518728E-16
7.630000E+03	3.806017E-14	1.523233E-16
7.640000E+03	3.795390E-14	1.527766E-16
7.650000E+03	3.784916E-14	1.532279E-16
7.660000E+03	3.774446E-14	1.536714E-16
7.670000E+03	3.763814E-14	1.541003E-16
7.680000E+03	3.752953E-14	1.545116E-16
7.690000E+03	3.741441E-14	1.548878E-16
7.700000E+03	3.729439E-14	1.552351E-16
7.710000E+03	3.716415E-14	1.555311E-16
7.720000E+03	3.702560E-14	1.557829E-16
7.730000E+03	3.687619E-14	1.559794E-16
7.740000E+03	3.671370E-14	1.561103E-16
7.750000E+03	3.653978E-14	1.561820E-16
7.760000E+03	3.635297E-14	1.561873E-16
