#wls	flux	fluxerr
1.600000E+03	3.038868E-14	3.314260E-16
1.640000E+03	3.076271E-14	3.339016E-16
1.680000E+03	3.115493E-14	3.365016E-16
1.720000E+03	3.157003E-14	3.392721E-16
1.760000E+03	3.201420E-14	3.422741E-16
1.800000E+03	3.249246E-14	3.455544E-16
1.840000E+03	3.300995E-14	3.491599E-16
1.880000E+03	3.357612E-14	3.531815E-16
1.920000E+03	3.419656E-14	3.576670E-16
1.960000E+03	3.487981E-14	3.626936E-16
2.000000E+03	3.563615E-14	3.683536E-16
2.040000E+03	3.647328E-14	3.747104E-16
2.080000E+03	3.740064E-14	3.818421E-16
2.120000E+03	3.842940E-14	3.898421E-16
2.160000E+03	3.956665E-14	3.987589E-16
2.200000E+03	4.082263E-14	4.086699E-16
2.240000E+03	4.220786E-14	4.196523E-16
2.280000E+03	4.374070E-14	4.318569E-16
2.320000E+03	4.544467E-14	4.454795E-16
2.360000E+03	4.733923E-14	4.606687E-16
2.400000E+03	4.943792E-14	4.775097E-16
2.440000E+03	5.174629E-14	4.960062E-16
2.480000E+03	5.427268E-14	5.161860E-16
2.520000E+03	5.701997E-14	5.380223E-16
2.560000E+03	5.999013E-14	5.614778E-16
2.600000E+03	6.318228E-14	5.864879E-16
2.640000E+03	6.659904E-14	6.130202E-16
2.680000E+03	7.023977E-14	6.410112E-16
2.720000E+03	7.411036E-14	6.704568E-16
2.760000E+03	7.821646E-14	7.013488E-16
2.800000E+03	8.256833E-14	7.337190E-16
2.840000E+03	8.718596E-14	7.676816E-16
2.880000E+03	9.207792E-14	8.032460E-16
2.920000E+03	9.725117E-14	8.404060E-16
2.960000E+03	1.027125E-13	8.791526E-16
3.000000E+03	1.084663E-13	9.194579E-16
3.010000E+03	1.099498E-13	9.297638E-16
3.020000E+03	1.114538E-13	9.401819E-16
3.030000E+03	1.129745E-13	9.506773E-16
3.040000E+03	1.145132E-13	9.612605E-16
3.050000E+03	1.160708E-13	9.719394E-16
3.060000E+03	1.176471E-13	9.827091E-16
3.070000E+03	1.192414E-13	9.935643E-16
3.080000E+03	1.208531E-13	1.004499E-15
3.090000E+03	1.224833E-13	1.015521E-15
3.100000E+03	1.241298E-13	1.026612E-15
3.110000E+03	1.257937E-13	1.037780E-15
3.120000E+03	1.274763E-13	1.049034E-15
3.130000E+03	1.291752E-13	1.060354E-15
3.140000E+03	1.308899E-13	1.071736E-15
3.150000E+03	1.326233E-13	1.083203E-15
3.160000E+03	1.343714E-13	1.094720E-15
3.170000E+03	1.361356E-13	1.106300E-15
3.180000E+03	1.379154E-13	1.117937E-15
3.190000E+03	1.397105E-13	1.129628E-15
3.200000E+03	1.415223E-13	1.141384E-15
3.210000E+03	1.433490E-13	1.153190E-15
3.220000E+03	1.451903E-13	1.165044E-15
3.230000E+03	1.470464E-13	1.176945E-15
3.240000E+03	1.489192E-13	1.188911E-15
3.250000E+03	1.508071E-13	1.200926E-15
3.260000E+03	1.527088E-13	1.212980E-15
3.270000E+03	1.546269E-13	1.225095E-15
3.280000E+03	1.565623E-13	1.237275E-15
3.290000E+03	1.585124E-13	1.249501E-15
3.300000E+03	1.604824E-13	1.261813E-15
3.310000E+03	1.624702E-13	1.274195E-15
3.320000E+03	1.644780E-13	1.286662E-15
3.330000E+03	1.665079E-13	1.299232E-15
3.340000E+03	1.685594E-13	1.311899E-15
3.350000E+03	1.706368E-13	1.324697E-15
3.360000E+03	1.727403E-13	1.337626E-15
3.370000E+03	1.748733E-13	1.350712E-15
3.380000E+03	1.770379E-13	1.363971E-15
3.390000E+03	1.792363E-13	1.377417E-15
3.400000E+03	1.814710E-13	1.391071E-15
3.410000E+03	1.837440E-13	1.404945E-15
3.420000E+03	1.860574E-13	1.419054E-15
3.430000E+03	1.884105E-13	1.433393E-15
3.440000E+03	1.908020E-13	1.447950E-15
3.450000E+03	1.932341E-13	1.462740E-15
3.460000E+03	1.956988E-13	1.477703E-15
3.470000E+03	1.981923E-13	1.492808E-15
3.480000E+03	2.007045E-13	1.507980E-15
3.490000E+03	2.032203E-13	1.523106E-15
3.500000E+03	2.057250E-13	1.538077E-15
3.510000E+03	2.081999E-13	1.552757E-15
3.520000E+03	2.106266E-13	1.567010E-15
3.530000E+03	2.129918E-13	1.580742E-15
3.540000E+03	2.152972E-13	1.593971E-15
3.550000E+03	2.175735E-13	1.606929E-15
3.560000E+03	2.199030E-13	1.620224E-15
3.570000E+03	2.224536E-13	1.635090E-15
3.580000E+03	2.254889E-13	1.653449E-15
3.590000E+03	2.293334E-13	1.677652E-15
3.600000E+03	2.341845E-13	1.709099E-15
3.610000E+03	2.398710E-13	1.746494E-15
3.620000E+03	2.459570E-13	1.786633E-15
3.630000E+03	2.519751E-13	1.826109E-15
3.640000E+03	2.575265E-13	1.862046E-15
3.650000E+03	2.623029E-13	1.892244E-15
3.660000E+03	2.660724E-13	1.915076E-15
3.670000E+03	2.686693E-13	1.929402E-15
3.680000E+03	2.699883E-13	1.934525E-15
3.690000E+03	2.699729E-13	1.930105E-15
3.700000E+03	2.686249E-13	1.916218E-15
3.710000E+03	2.660001E-13	1.893323E-15
3.720000E+03	2.622138E-13	1.862297E-15
3.730000E+03	2.574075E-13	1.824198E-15
3.740000E+03	2.517092E-13	1.779974E-15
3.750000E+03	2.452915E-13	1.730881E-15
3.760000E+03	2.383674E-13	1.678450E-15
3.770000E+03	2.311753E-13	1.624375E-15
3.780000E+03	2.239881E-13	1.570579E-15
3.790000E+03	2.170946E-13	1.519080E-15
3.800000E+03	2.107579E-13	1.471698E-15
3.810000E+03	2.052285E-13	1.430153E-15
3.820000E+03	2.007316E-13	1.395973E-15
3.830000E+03	1.974344E-13	1.370274E-15
3.840000E+03	1.954604E-13	1.353860E-15
3.850000E+03	1.948821E-13	1.347175E-15
3.860000E+03	1.956894E-13	1.350091E-15
3.870000E+03	1.978086E-13	1.362045E-15
3.880000E+03	2.010923E-13	1.381972E-15
3.890000E+03	2.052964E-13	1.408153E-15
3.900000E+03	2.101057E-13	1.438394E-15
3.910000E+03	2.151702E-13	1.470282E-15
3.920000E+03	2.201413E-13	1.501432E-15
3.930000E+03	2.246969E-13	1.529657E-15
3.940000E+03	2.285753E-13	1.553195E-15
3.950000E+03	2.316236E-13	1.571039E-15
3.960000E+03	2.338003E-13	1.582937E-15
3.970000E+03	2.351582E-13	1.589280E-15
3.980000E+03	2.358294E-13	1.590990E-15
3.990000E+03	2.360099E-13	1.589412E-15
4.000000E+03	2.359089E-13	1.585970E-15
4.010000E+03	2.356791E-13	1.581698E-15
4.020000E+03	2.354552E-13	1.577503E-15
4.030000E+03	2.353282E-13	1.573994E-15
4.040000E+03	2.352980E-13	1.571167E-15
4.050000E+03	2.353245E-13	1.568751E-15
4.060000E+03	2.353521E-13	1.566375E-15
4.070000E+03	2.352771E-13	1.563350E-15
4.080000E+03	2.349865E-13	1.558929E-15
4.090000E+03	2.343604E-13	1.552326E-15
4.100000E+03	2.332518E-13	1.542577E-15
4.110000E+03	2.315315E-13	1.528846E-15
4.120000E+03	2.291005E-13	1.510497E-15
4.130000E+03	2.258946E-13	1.487129E-15
4.140000E+03	2.219273E-13	1.458851E-15
4.150000E+03	2.173091E-13	1.426408E-15
4.160000E+03	2.122433E-13	1.391153E-15
4.170000E+03	2.070229E-13	1.355012E-15
4.180000E+03	2.020148E-13	1.320385E-15
4.190000E+03	1.976184E-13	1.289873E-15
4.200000E+03	1.942420E-13	1.266117E-15
4.210000E+03	1.922409E-13	1.251403E-15
4.220000E+03	1.918588E-13	1.247277E-15
4.230000E+03	1.932521E-13	1.254714E-15
4.240000E+03	1.964233E-13	1.273686E-15
4.250000E+03	2.010991E-13	1.302382E-15
4.260000E+03	2.068182E-13	1.337784E-15
4.270000E+03	2.130050E-13	1.376150E-15
4.280000E+03	2.189924E-13	1.413167E-15
4.290000E+03	2.240804E-13	1.444334E-15
4.300000E+03	2.276853E-13	1.465912E-15
4.310000E+03	2.294721E-13	1.475784E-15
4.320000E+03	2.293390E-13	1.473334E-15
4.330000E+03	2.273599E-13	1.459076E-15
4.340000E+03	2.237710E-13	1.434563E-15
4.350000E+03	2.189434E-13	1.402202E-15
4.360000E+03	2.133695E-13	1.365162E-15
4.370000E+03	2.076487E-13	1.327288E-15
4.380000E+03	2.023804E-13	1.292404E-15
4.390000E+03	1.980159E-13	1.263381E-15
4.400000E+03	1.947256E-13	1.241284E-15
4.410000E+03	1.924795E-13	1.225904E-15
4.420000E+03	1.911712E-13	1.216543E-15
4.430000E+03	1.906684E-13	1.212345E-15
4.440000E+03	1.908411E-13	1.212469E-15
4.450000E+03	1.915877E-13	1.216260E-15
4.460000E+03	1.928279E-13	1.223200E-15
4.470000E+03	1.944542E-13	1.232599E-15
4.480000E+03	1.963314E-13	1.243597E-15
4.490000E+03	1.983364E-13	1.255410E-15
4.500000E+03	2.003180E-13	1.267080E-15
4.510000E+03	2.020902E-13	1.277432E-15
4.520000E+03	2.034576E-13	1.285234E-15
4.530000E+03	2.042572E-13	1.289462E-15
4.540000E+03	2.043891E-13	1.289492E-15
4.550000E+03	2.038359E-13	1.285222E-15
4.560000E+03	2.026677E-13	1.277100E-15
4.570000E+03	2.009882E-13	1.265786E-15
4.580000E+03	1.988672E-13	1.251724E-15
4.590000E+03	1.963611E-13	1.235271E-15
4.600000E+03	1.934968E-13	1.216600E-15
4.610000E+03	1.902324E-13	1.195450E-15
4.620000E+03	1.865032E-13	1.171416E-15
4.630000E+03	1.822760E-13	1.144294E-15
4.640000E+03	1.775670E-13	1.114189E-15
4.650000E+03	1.724505E-13	1.081569E-15
4.660000E+03	1.670697E-13	1.047334E-15
4.670000E+03	1.616333E-13	1.012794E-15
4.680000E+03	1.564020E-13	9.795790E-16
4.690000E+03	1.516729E-13	9.495460E-16
4.700000E+03	1.477714E-13	9.247270E-16
4.710000E+03	1.450091E-13	9.070630E-16
4.720000E+03	1.436304E-13	8.980723E-16
4.730000E+03	1.437842E-13	8.986745E-16
4.740000E+03	1.455226E-13	9.091828E-16
4.750000E+03	1.487865E-13	9.292176E-16
4.760000E+03	1.533520E-13	9.573699E-16
4.770000E+03	1.588500E-13	9.913269E-16
4.780000E+03	1.648151E-13	1.028180E-15
4.790000E+03	1.707642E-13	1.064913E-15
4.800000E+03	1.761904E-13	1.098367E-15
4.810000E+03	1.806335E-13	1.125677E-15
4.820000E+03	1.838077E-13	1.145070E-15
4.830000E+03	1.855721E-13	1.155677E-15
4.840000E+03	1.859113E-13	1.157410E-15
4.850000E+03	1.849809E-13	1.151245E-15
4.860000E+03	1.830309E-13	1.138747E-15
4.870000E+03	1.803498E-13	1.121715E-15
4.880000E+03	1.772503E-13	1.102097E-15
4.890000E+03	1.740160E-13	1.081657E-15
4.900000E+03	1.708688E-13	1.061775E-15
4.910000E+03	1.679677E-13	1.043438E-15
4.920000E+03	1.653917E-13	1.027135E-15
4.930000E+03	1.631504E-13	1.012923E-15
4.940000E+03	1.612100E-13	1.000591E-15
4.950000E+03	1.594851E-13	9.896053E-16
4.960000E+03	1.578597E-13	9.792461E-16
4.970000E+03	1.562263E-13	9.688468E-16
4.980000E+03	1.544839E-13	9.577802E-16
4.990000E+03	1.525643E-13	9.456240E-16
5.000000E+03	1.504667E-13	9.323742E-16
5.010000E+03	1.482396E-13	9.183321E-16
5.020000E+03	1.459719E-13	9.040483E-16
5.030000E+03	1.437926E-13	8.903218E-16
5.040000E+03	1.418386E-13	8.779996E-16
5.050000E+03	1.402228E-13	8.677784E-16
5.060000E+03	1.390256E-13	8.601553E-16
5.070000E+03	1.382751E-13	8.553011E-16
5.080000E+03	1.379500E-13	8.530825E-16
5.090000E+03	1.379970E-13	8.531676E-16
5.100000E+03	1.383176E-13	8.549466E-16
5.110000E+03	1.387902E-13	8.576664E-16
5.120000E+03	1.393047E-13	8.606458E-16
5.130000E+03	1.397561E-13	8.632372E-16
5.140000E+03	1.400541E-13	8.648832E-16
5.150000E+03	1.401625E-13	8.653601E-16
5.160000E+03	1.400727E-13	8.646157E-16
5.170000E+03	1.397980E-13	8.627342E-16
5.180000E+03	1.393714E-13	8.599193E-16
5.190000E+03	1.388339E-13	8.564240E-16
5.200000E+03	1.382246E-13	8.524911E-16
5.210000E+03	1.375769E-13	8.483260E-16
5.220000E+03	1.369095E-13	8.440442E-16
5.230000E+03	1.362285E-13	8.396841E-16
5.240000E+03	1.355325E-13	8.352372E-16
5.250000E+03	1.348086E-13	8.306232E-16
5.260000E+03	1.340292E-13	8.256733E-16
5.270000E+03	1.331670E-13	8.202189E-16
5.280000E+03	1.321977E-13	8.141106E-16
5.290000E+03	1.311006E-13	8.072223E-16
5.300000E+03	1.298759E-13	7.995548E-16
5.310000E+03	1.285375E-13	7.911945E-16
5.320000E+03	1.271187E-13	7.823464E-16
5.330000E+03	1.256706E-13	7.733251E-16
5.340000E+03	1.242550E-13	7.645112E-16
5.350000E+03	1.229193E-13	7.561963E-16
5.360000E+03	1.216768E-13	7.484621E-16
5.370000E+03	1.205247E-13	7.412905E-16
5.380000E+03	1.194521E-13	7.346154E-16
5.390000E+03	1.184222E-13	7.282091E-16
5.400000E+03	1.173984E-13	7.218476E-16
5.410000E+03	1.163687E-13	7.154567E-16
5.420000E+03	1.153617E-13	7.092131E-16
5.430000E+03	1.144235E-13	7.033986E-16
5.440000E+03	1.135971E-13	6.982780E-16
5.450000E+03	1.129109E-13	6.940259E-16
5.460000E+03	1.123736E-13	6.906943E-16
5.470000E+03	1.119214E-13	6.878918E-16
5.480000E+03	1.113801E-13	6.845464E-16
5.490000E+03	1.105994E-13	6.797343E-16
5.500000E+03	1.095532E-13	6.732951E-16
5.510000E+03	1.083203E-13	6.657121E-16
5.520000E+03	1.070712E-13	6.580336E-16
5.530000E+03	1.059776E-13	6.513141E-16
5.540000E+03	1.051028E-13	6.459424E-16
5.550000E+03	1.044503E-13	6.419397E-16
5.560000E+03	1.039922E-13	6.391344E-16
5.570000E+03	1.036512E-13	6.370507E-16
5.580000E+03	1.033326E-13	6.351069E-16
5.590000E+03	1.029594E-13	6.328294E-16
5.600000E+03	1.024834E-13	6.299216E-16
5.610000E+03	1.018846E-13	6.262599E-16
5.620000E+03	1.011666E-13	6.218669E-16
5.630000E+03	1.003555E-13	6.169026E-16
5.640000E+03	9.949269E-14	6.116204E-16
5.650000E+03	9.862446E-14	6.063054E-16
5.660000E+03	9.778674E-14	6.011781E-16
5.670000E+03	9.701080E-14	5.964306E-16
5.680000E+03	9.632320E-14	5.922260E-16
5.690000E+03	9.574171E-14	5.886734E-16
5.700000E+03	9.527731E-14	5.858404E-16
5.710000E+03	9.494226E-14	5.838023E-16
5.720000E+03	9.473974E-14	5.825786E-16
5.730000E+03	9.467570E-14	5.822058E-16
5.740000E+03	9.475472E-14	5.827120E-16
5.750000E+03	9.496452E-14	5.840217E-16
5.760000E+03	9.529203E-14	5.860545E-16
5.770000E+03	9.572036E-14	5.887064E-16
5.780000E+03	9.620929E-14	5.917299E-16
5.790000E+03	9.671172E-14	5.948354E-16
5.800000E+03	9.718399E-14	5.977541E-16
5.810000E+03	9.757941E-14	6.001987E-16
5.820000E+03	9.785734E-14	6.019190E-16
5.830000E+03	9.798769E-14	6.027299E-16
5.840000E+03	9.796190E-14	6.025786E-16
5.850000E+03	9.778737E-14	6.015104E-16
5.860000E+03	9.749193E-14	5.996965E-16
5.870000E+03	9.711703E-14	5.973918E-16
5.880000E+03	9.671405E-14	5.949123E-16
5.890000E+03	9.632523E-14	5.925177E-16
5.900000E+03	9.596902E-14	5.903216E-16
5.910000E+03	9.564667E-14	5.883316E-16
5.920000E+03	9.534526E-14	5.864682E-16
5.930000E+03	9.503659E-14	5.845578E-16
5.940000E+03	9.468902E-14	5.824060E-16
5.950000E+03	9.428106E-14	5.798805E-16
5.960000E+03	9.381008E-14	5.769653E-16
5.970000E+03	9.328516E-14	5.737161E-16
5.980000E+03	9.272389E-14	5.702413E-16
5.990000E+03	9.214418E-14	5.666511E-16
6.000000E+03	9.156295E-14	5.630495E-16
6.010000E+03	9.099719E-14	5.595410E-16
6.020000E+03	9.045809E-14	5.561946E-16
6.030000E+03	8.995397E-14	5.530613E-16
6.040000E+03	8.949230E-14	5.501872E-16
6.050000E+03	8.907059E-14	5.475569E-16
6.060000E+03	8.868580E-14	5.451517E-16
6.070000E+03	8.832947E-14	5.429197E-16
6.080000E+03	8.798443E-14	5.407554E-16
6.090000E+03	8.763170E-14	5.385420E-16
6.100000E+03	8.724664E-14	5.361284E-16
6.110000E+03	8.680070E-14	5.333391E-16
6.120000E+03	8.626103E-14	5.299727E-16
6.130000E+03	8.560221E-14	5.258731E-16
6.140000E+03	8.480830E-14	5.209428E-16
6.150000E+03	8.387274E-14	5.151418E-16
6.160000E+03	8.280749E-14	5.085441E-16
6.170000E+03	8.164458E-14	5.013465E-16
6.180000E+03	8.043333E-14	4.938524E-16
6.190000E+03	7.923256E-14	4.864229E-16
6.200000E+03	7.809590E-14	4.793876E-16
6.210000E+03	7.708064E-14	4.730979E-16
6.220000E+03	7.623078E-14	4.678237E-16
6.230000E+03	7.556091E-14	4.636544E-16
6.240000E+03	7.507076E-14	4.605879E-16
6.250000E+03	7.474515E-14	4.585308E-16
6.260000E+03	7.454092E-14	4.572181E-16
6.270000E+03	7.440298E-14	4.563118E-16
6.280000E+03	7.427108E-14	4.554422E-16
6.290000E+03	7.407954E-14	4.542067E-16
6.300000E+03	7.377647E-14	4.522875E-16
6.310000E+03	7.333862E-14	4.495426E-16
6.320000E+03	7.279713E-14	4.461631E-16
6.330000E+03	7.223085E-14	4.426326E-16
6.340000E+03	7.177672E-14	4.397903E-16
6.350000E+03	7.163796E-14	4.388811E-16
6.360000E+03	7.204948E-14	4.413432E-16
6.370000E+03	7.323499E-14	4.485457E-16
6.380000E+03	7.536765E-14	4.615471E-16
6.390000E+03	7.857138E-14	4.811041E-16
6.400000E+03	8.287574E-14	5.073953E-16
6.410000E+03	8.813799E-14	5.395444E-16
6.420000E+03	9.405001E-14	5.756631E-16
6.430000E+03	1.001801E-13	6.131075E-16
6.440000E+03	1.060587E-13	6.490041E-16
6.450000E+03	1.111987E-13	6.803722E-16
6.460000E+03	1.151804E-13	7.046466E-16
6.470000E+03	1.177634E-13	7.203575E-16
6.480000E+03	1.188886E-13	7.271480E-16
6.490000E+03	1.186682E-13	7.257065E-16
6.500000E+03	1.174075E-13	7.179025E-16
6.510000E+03	1.155378E-13	7.063758E-16
6.520000E+03	1.136280E-13	6.946054E-16
6.530000E+03	1.123067E-13	6.864331E-16
6.540000E+03	1.117583E-13	6.829842E-16
6.550000E+03	1.116556E-13	6.822572E-16
6.560000E+03	1.116091E-13	6.818706E-16
6.570000E+03	1.113148E-13	6.799680E-16
6.580000E+03	1.105734E-13	6.753317E-16
6.590000E+03	1.093293E-13	6.676244E-16
6.600000E+03	1.076312E-13	6.571435E-16
6.610000E+03	1.055608E-13	6.443908E-16
6.620000E+03	1.032219E-13	6.299995E-16
6.630000E+03	1.007144E-13	6.145812E-16
6.640000E+03	9.812309E-14	5.986533E-16
6.650000E+03	9.552425E-14	5.826818E-16
6.660000E+03	9.297240E-14	5.669994E-16
6.670000E+03	9.050591E-14	5.518400E-16
6.680000E+03	8.815359E-14	5.373792E-16
6.690000E+03	8.592763E-14	5.236908E-16
6.700000E+03	8.383446E-14	5.108139E-16
6.710000E+03	8.187370E-14	4.987457E-16
6.720000E+03	8.004099E-14	4.874592E-16
6.730000E+03	7.833000E-14	4.769156E-16
6.740000E+03	7.673323E-14	4.670687E-16
6.750000E+03	7.524199E-14	4.578653E-16
6.760000E+03	7.384859E-14	4.492583E-16
6.770000E+03	7.254547E-14	4.412012E-16
6.780000E+03	7.132349E-14	4.336383E-16
6.790000E+03	7.017456E-14	4.265200E-16
6.800000E+03	6.909270E-14	4.198098E-16
6.810000E+03	6.807142E-14	4.134680E-16
6.820000E+03	6.710911E-14	4.074846E-16
6.830000E+03	6.620197E-14	4.018362E-16
6.840000E+03	6.535319E-14	3.965421E-16
6.850000E+03	6.456416E-14	3.916103E-16
6.860000E+03	6.384065E-14	3.870756E-16
6.870000E+03	6.318769E-14	3.829683E-16
6.880000E+03	6.260698E-14	3.792980E-16
6.890000E+03	6.210133E-14	3.760815E-16
6.900000E+03	6.166732E-14	3.732976E-16
6.910000E+03	6.129778E-14	3.709025E-16
6.920000E+03	6.098418E-14	3.688441E-16
6.930000E+03	6.071187E-14	3.670335E-16
6.940000E+03	6.046670E-14	3.653849E-16
6.950000E+03	6.023713E-14	3.638285E-16
6.960000E+03	6.001165E-14	3.622948E-16
6.970000E+03	5.977840E-14	3.607121E-16
6.980000E+03	5.953330E-14	3.590560E-16
6.990000E+03	5.927056E-14	3.572919E-16
7.000000E+03	5.899048E-14	3.554217E-16
7.010000E+03	5.869067E-14	3.534315E-16
7.020000E+03	5.837646E-14	3.513534E-16
7.030000E+03	5.804809E-14	3.491892E-16
7.040000E+03	5.771245E-14	3.469806E-16
7.050000E+03	5.737373E-14	3.447530E-16
7.060000E+03	5.703674E-14	3.425354E-16
7.070000E+03	5.670496E-14	3.403487E-16
7.080000E+03	5.638415E-14	3.382277E-16
7.090000E+03	5.607392E-14	3.361699E-16
7.100000E+03	5.577914E-14	3.342047E-16
7.110000E+03	5.549766E-14	3.323190E-16
7.120000E+03	5.523139E-14	3.305243E-16
7.130000E+03	5.497817E-14	3.288077E-16
7.140000E+03	5.473509E-14	3.271518E-16
7.150000E+03	5.450160E-14	3.255533E-16
7.160000E+03	5.427340E-14	3.239865E-16
7.170000E+03	5.404590E-14	3.224241E-16
7.180000E+03	5.381596E-14	3.208477E-16
7.190000E+03	5.358248E-14	3.192506E-16
7.200000E+03	5.334389E-14	3.176240E-16
7.210000E+03	5.309820E-14	3.159561E-16
7.220000E+03	5.284530E-14	3.142465E-16
7.230000E+03	5.258656E-14	3.125034E-16
7.240000E+03	5.232028E-14	3.107173E-16
7.250000E+03	5.204870E-14	3.089014E-16
7.260000E+03	5.177104E-14	3.070516E-16
7.270000E+03	5.148679E-14	3.051648E-16
7.280000E+03	5.119868E-14	3.032577E-16
7.290000E+03	5.090685E-14	3.013312E-16
7.300000E+03	5.061168E-14	2.993878E-16
7.310000E+03	5.031683E-14	2.974492E-16
7.320000E+03	5.002228E-14	2.955156E-16
7.330000E+03	4.973076E-14	2.936033E-16
7.340000E+03	4.944344E-14	2.917193E-16
7.350000E+03	4.916116E-14	2.898687E-16
7.360000E+03	4.888435E-14	2.880540E-16
7.370000E+03	4.861272E-14	2.862737E-16
7.380000E+03	4.834457E-14	2.845180E-16
7.390000E+03	4.808081E-14	2.827923E-16
7.400000E+03	4.781906E-14	2.810827E-16
7.410000E+03	4.755769E-14	2.793799E-16
7.420000E+03	4.729499E-14	2.776739E-16
7.430000E+03	4.702883E-14	2.759525E-16
7.440000E+03	4.675798E-14	2.742086E-16
7.450000E+03	4.647908E-14	2.724227E-16
7.460000E+03	4.619015E-14	2.705836E-16
7.470000E+03	4.588720E-14	2.686680E-16
7.480000E+03	4.556679E-14	2.666562E-16
7.490000E+03	4.522589E-14	2.645307E-16
7.500000E+03	4.486005E-14	2.622659E-16
7.510000E+03	4.446771E-14	2.598529E-16
7.520000E+03	4.404680E-14	2.572800E-16
7.530000E+03	4.359860E-14	2.545551E-16
7.540000E+03	4.312731E-14	2.517028E-16
7.550000E+03	4.264077E-14	2.487691E-16
7.560000E+03	4.214763E-14	2.458048E-16
7.570000E+03	4.166435E-14	2.429058E-16
7.580000E+03	4.120413E-14	2.401490E-16
7.590000E+03	4.078495E-14	2.376391E-16
7.600000E+03	4.042484E-14	2.354811E-16
7.610000E+03	4.013885E-14	2.337624E-16
7.620000E+03	3.994048E-14	2.325613E-16
7.630000E+03	3.983659E-14	2.319177E-16
7.640000E+03	3.982910E-14	2.318427E-16
7.650000E+03	3.991405E-14	2.323132E-16
7.660000E+03	4.007936E-14	2.332591E-16
7.670000E+03	4.030827E-14	2.345831E-16
7.680000E+03	4.058143E-14	2.361730E-16
7.690000E+03	4.087371E-14	2.378830E-16
7.700000E+03	4.116215E-14	2.395798E-16
7.710000E+03	4.142783E-14	2.411539E-16
7.720000E+03	4.165170E-14	2.424946E-16
7.730000E+03	4.182308E-14	2.435402E-16
7.740000E+03	4.193291E-14	2.442382E-16
7.750000E+03	4.197970E-14	2.445799E-16
7.760000E+03	4.196460E-14	2.445721E-16
