#wls	flux	fluxerr
1.600000E+03	3.976673E-16	4.193307E-17
1.640000E+03	4.033027E-16	4.217481E-17
1.680000E+03	4.092629E-16	4.243221E-17
1.720000E+03	4.157782E-16	4.272764E-17
1.760000E+03	4.226469E-16	4.303857E-17
1.800000E+03	4.298855E-16	4.336521E-17
1.840000E+03	4.375130E-16	4.370789E-17
1.880000E+03	4.457674E-16	4.408853E-17
1.920000E+03	4.544552E-16	4.448576E-17
1.960000E+03	4.638206E-16	4.492137E-17
2.000000E+03	4.738939E-16	4.539559E-17
2.040000E+03	4.847092E-16	4.590882E-17
2.080000E+03	4.960841E-16	4.644094E-17
2.120000E+03	5.085017E-16	4.703420E-17
2.160000E+03	5.217898E-16	4.766873E-17
2.200000E+03	5.360016E-16	4.834570E-17
2.240000E+03	5.511964E-16	4.906653E-17
2.280000E+03	5.676671E-16	4.985283E-17
2.320000E+03	5.854925E-16	5.070622E-17
2.360000E+03	6.047598E-16	5.162859E-17
2.400000E+03	6.255668E-16	5.262224E-17
2.440000E+03	6.482571E-16	5.370937E-17
2.480000E+03	6.727199E-16	5.487332E-17
2.520000E+03	6.990873E-16	5.611754E-17
2.560000E+03	7.279933E-16	5.748451E-17
2.600000E+03	7.593682E-16	5.895883E-17
2.640000E+03	7.933944E-16	6.054489E-17
2.680000E+03	8.305237E-16	6.226654E-17
2.720000E+03	8.709759E-16	6.412847E-17
2.760000E+03	9.149789E-16	6.613522E-17
2.800000E+03	9.630344E-16	6.831014E-17
2.840000E+03	1.015381E-15	7.065639E-17
2.880000E+03	1.072520E-15	7.319470E-17
2.920000E+03	1.134354E-15	7.590450E-17
2.960000E+03	1.201278E-15	7.879953E-17
3.000000E+03	1.273592E-15	8.188750E-17
3.010000E+03	1.292575E-15	8.269232E-17
3.020000E+03	1.311728E-15	8.349780E-17
3.030000E+03	1.331352E-15	8.432293E-17
3.040000E+03	1.351131E-15	8.514759E-17
3.050000E+03	1.371369E-15	8.599090E-17
3.060000E+03	1.391739E-15	8.683237E-17
3.070000E+03	1.412548E-15	8.769101E-17
3.080000E+03	1.433464E-15	8.854632E-17
3.090000E+03	1.454790E-15	8.941701E-17
3.100000E+03	1.476513E-15	9.030218E-17
3.110000E+03	1.498291E-15	9.118098E-17
3.120000E+03	1.520426E-15	9.207195E-17
3.130000E+03	1.542567E-15	9.295392E-17
3.140000E+03	1.565015E-15	9.384531E-17
3.150000E+03	1.587743E-15	9.474455E-17
3.160000E+03	1.610384E-15	9.563006E-17
3.170000E+03	1.632903E-15	9.650011E-17
3.180000E+03	1.655928E-15	9.739220E-17
3.190000E+03	1.678748E-15	9.826466E-17
3.200000E+03	1.701311E-15	9.911510E-17
3.210000E+03	1.724245E-15	9.998055E-17
3.220000E+03	1.746816E-15	1.008188E-16
3.230000E+03	1.768962E-15	1.016270E-16
3.240000E+03	1.791302E-15	1.024414E-16
3.250000E+03	1.813080E-15	1.032194E-16
3.260000E+03	1.834567E-15	1.039772E-16
3.270000E+03	1.855336E-15	1.046914E-16
3.280000E+03	1.875647E-15	1.053777E-16
3.290000E+03	1.895410E-15	1.060319E-16
3.300000E+03	1.914529E-15	1.066496E-16
3.310000E+03	1.932558E-15	1.072070E-16
3.320000E+03	1.950082E-15	1.077378E-16
3.330000E+03	1.966303E-15	1.081988E-16
3.340000E+03	1.981105E-15	1.085853E-16
3.350000E+03	1.995063E-15	1.089298E-16
3.360000E+03	2.007371E-15	1.091897E-16
3.370000E+03	2.018252E-15	1.093786E-16
3.380000E+03	2.027587E-15	1.094913E-16
3.390000E+03	2.035259E-15	1.095229E-16
3.400000E+03	2.041154E-15	1.094687E-16
3.410000E+03	2.044834E-15	1.093066E-16
3.420000E+03	2.046869E-15	1.090685E-16
3.430000E+03	2.046513E-15	1.087159E-16
3.440000E+03	2.044033E-15	1.082644E-16
3.450000E+03	2.039382E-15	1.077129E-16
3.460000E+03	2.032543E-15	1.070615E-16
3.470000E+03	2.023220E-15	1.062957E-16
3.480000E+03	2.012079E-15	1.054516E-16
3.490000E+03	1.998904E-15	1.045186E-16
3.500000E+03	1.983541E-15	1.034893E-16
3.510000E+03	1.966774E-15	1.024053E-16
3.520000E+03	1.948274E-15	1.012497E-16
3.530000E+03	1.928917E-15	1.000684E-16
3.540000E+03	1.908509E-15	9.885124E-17
3.550000E+03	1.887998E-15	9.764731E-17
3.560000E+03	1.867284E-15	9.645112E-17
3.570000E+03	1.847313E-15	9.531129E-17
3.580000E+03	1.827949E-15	9.422034E-17
3.590000E+03	1.809961E-15	9.321747E-17
3.600000E+03	1.792975E-15	9.228276E-17
3.610000E+03	1.777438E-15	9.143844E-17
3.620000E+03	1.762936E-15	9.066255E-17
3.630000E+03	1.749198E-15	8.994054E-17
3.640000E+03	1.735706E-15	8.924517E-17
3.650000E+03	1.722620E-15	8.858416E-17
3.660000E+03	1.709483E-15	8.793344E-17
3.670000E+03	1.696337E-15	8.729468E-17
3.680000E+03	1.682671E-15	8.664101E-17
3.690000E+03	1.668675E-15	8.598166E-17
3.700000E+03	1.654589E-15	8.532839E-17
3.710000E+03	1.640312E-15	8.467544E-17
3.720000E+03	1.625996E-15	8.403012E-17
3.730000E+03	1.611830E-15	8.340163E-17
3.740000E+03	1.598036E-15	8.280099E-17
3.750000E+03	1.585036E-15	8.224966E-17
3.760000E+03	1.572904E-15	8.175124E-17
3.770000E+03	1.561741E-15	8.131068E-17
3.780000E+03	1.552334E-15	8.096884E-17
3.790000E+03	1.544447E-15	8.071345E-17
3.800000E+03	1.538689E-15	8.057658E-17
3.810000E+03	1.535164E-15	8.056396E-17
3.820000E+03	1.534144E-15	8.069034E-17
3.830000E+03	1.535892E-15	8.097028E-17
3.840000E+03	1.540824E-15	8.142651E-17
3.850000E+03	1.549042E-15	8.206547E-17
3.860000E+03	1.560793E-15	8.290154E-17
3.870000E+03	1.576474E-15	8.395713E-17
3.880000E+03	1.595998E-15	8.522930E-17
3.890000E+03	1.620018E-15	8.675468E-17
3.900000E+03	1.648206E-15	8.851778E-17
3.910000E+03	1.680932E-15	9.054045E-17
3.920000E+03	1.717997E-15	9.281426E-17
3.930000E+03	1.759398E-15	9.534133E-17
3.940000E+03	1.804685E-15	9.809950E-17
3.950000E+03	1.853429E-15	1.010676E-16
3.960000E+03	1.905073E-15	1.042171E-16
3.970000E+03	1.959110E-15	1.075220E-16
3.980000E+03	2.014752E-15	1.109403E-16
3.990000E+03	2.070753E-15	1.144042E-16
4.000000E+03	2.126464E-15	1.178783E-16
4.010000E+03	2.180794E-15	1.213018E-16
4.020000E+03	2.232188E-15	1.245872E-16
4.030000E+03	2.279927E-15	1.276927E-16
4.040000E+03	2.322126E-15	1.305103E-16
4.050000E+03	2.357828E-15	1.329827E-16
4.060000E+03	2.385769E-15	1.350345E-16
4.070000E+03	2.404469E-15	1.365767E-16
4.080000E+03	2.413474E-15	1.375779E-16
4.090000E+03	2.412322E-15	1.380054E-16
4.100000E+03	2.400813E-15	1.378413E-16
4.110000E+03	2.379428E-15	1.371065E-16
4.120000E+03	2.349304E-15	1.358604E-16
4.130000E+03	2.311641E-15	1.341668E-16
4.140000E+03	2.268311E-15	1.321297E-16
4.150000E+03	2.221046E-15	1.298463E-16
4.160000E+03	2.171818E-15	1.274295E-16
4.170000E+03	2.122696E-15	1.249997E-16
4.180000E+03	2.075296E-15	1.226521E-16
4.190000E+03	2.031183E-15	1.204802E-16
4.200000E+03	1.991829E-15	1.185738E-16
4.210000E+03	1.958205E-15	1.169935E-16
4.220000E+03	1.931352E-15	1.158054E-16
4.230000E+03	1.911877E-15	1.150501E-16
4.240000E+03	1.900376E-15	1.147683E-16
4.250000E+03	1.897429E-15	1.150001E-16
4.260000E+03	1.903241E-15	1.157633E-16
4.270000E+03	1.918005E-15	1.170755E-16
4.280000E+03	1.941881E-15	1.189518E-16
4.290000E+03	1.974621E-15	1.213829E-16
4.300000E+03	2.015922E-15	1.243557E-16
4.310000E+03	2.065411E-15	1.278524E-16
4.320000E+03	2.122270E-15	1.318273E-16
4.330000E+03	2.185605E-15	1.362293E-16
4.340000E+03	2.254468E-15	1.410029E-16
4.350000E+03	2.327372E-15	1.460582E-16
4.360000E+03	2.403284E-15	1.513324E-16
4.370000E+03	2.480953E-15	1.567482E-16
4.380000E+03	2.559049E-15	1.622220E-16
4.390000E+03	2.637212E-15	1.677308E-16
4.400000E+03	2.715248E-15	1.732621E-16
4.410000E+03	2.793802E-15	1.788567E-16
4.420000E+03	2.874205E-15	1.846000E-16
4.430000E+03	2.958414E-15	1.906190E-16
4.440000E+03	3.049095E-15	1.970880E-16
4.450000E+03	3.148891E-15	2.041819E-16
4.460000E+03	3.261466E-15	2.121441E-16
4.470000E+03	3.390267E-15	2.212069E-16
4.480000E+03	3.539062E-15	2.316260E-16
4.490000E+03	3.711620E-15	2.436604E-16
4.500000E+03	3.911509E-15	2.575583E-16
4.510000E+03	4.141837E-15	2.735404E-16
4.520000E+03	4.404923E-15	2.917772E-16
4.530000E+03	4.701930E-15	3.123640E-16
4.540000E+03	5.032472E-15	3.352936E-16
4.550000E+03	5.394241E-15	3.604294E-16
4.560000E+03	5.782447E-15	3.874666E-16
4.570000E+03	6.190756E-15	4.159931E-16
4.580000E+03	6.609450E-15	4.453630E-16
4.590000E+03	7.027941E-15	4.748649E-16
4.600000E+03	7.432882E-15	5.035922E-16
4.610000E+03	7.811012E-15	5.306344E-16
4.620000E+03	8.148405E-15	5.550262E-16
4.630000E+03	8.433171E-15	5.759319E-16
4.640000E+03	8.653951E-15	5.925436E-16
4.650000E+03	8.803409E-15	6.043227E-16
4.660000E+03	8.877218E-15	6.109326E-16
4.670000E+03	8.876458E-15	6.124079E-16
4.680000E+03	8.804711E-15	6.089577E-16
4.690000E+03	8.671888E-15	6.012331E-16
4.700000E+03	8.489374E-15	5.899950E-16
4.710000E+03	8.271614E-15	5.762255E-16
4.720000E+03	8.034502E-15	5.610182E-16
4.730000E+03	7.793237E-15	5.454286E-16
4.740000E+03	7.562704E-15	5.304997E-16
4.750000E+03	7.355772E-15	5.171430E-16
4.760000E+03	7.182657E-15	5.060902E-16
4.770000E+03	7.052431E-15	4.979988E-16
4.780000E+03	6.971264E-15	4.933258E-16
4.790000E+03	6.942605E-15	4.923384E-16
4.800000E+03	6.968981E-15	4.952401E-16
4.810000E+03	7.050577E-15	5.020680E-16
4.820000E+03	7.185410E-15	5.127044E-16
4.830000E+03	7.371073E-15	5.269994E-16
4.840000E+03	7.602705E-15	5.446252E-16
4.850000E+03	7.875281E-15	5.652390E-16
4.860000E+03	8.181796E-15	5.883523E-16
4.870000E+03	8.514481E-15	6.134175E-16
4.880000E+03	8.864683E-15	6.398183E-16
4.890000E+03	9.223374E-15	6.669069E-16
4.900000E+03	9.580148E-15	6.939306E-16
4.910000E+03	9.925597E-15	7.202036E-16
4.920000E+03	1.025063E-14	7.450593E-16
4.930000E+03	1.054711E-14	7.678943E-16
4.940000E+03	1.080971E-14	7.883092E-16
4.950000E+03	1.103394E-14	8.059615E-16
4.960000E+03	1.121682E-14	8.206187E-16
4.970000E+03	1.135697E-14	8.321638E-16
4.980000E+03	1.145266E-14	8.404544E-16
4.990000E+03	1.150112E-14	8.452710E-16
5.000000E+03	1.150001E-14	8.464265E-16
5.010000E+03	1.144506E-14	8.435890E-16
5.020000E+03	1.133536E-14	8.366759E-16
5.030000E+03	1.117067E-14	8.256525E-16
5.040000E+03	1.095543E-14	8.108316E-16
5.050000E+03	1.069740E-14	7.927742E-16
5.060000E+03	1.040845E-14	7.723512E-16
5.070000E+03	1.010391E-14	7.506940E-16
5.080000E+03	9.798930E-15	7.289267E-16
5.090000E+03	9.510167E-15	7.082925E-16
5.100000E+03	9.252243E-15	6.898874E-16
5.110000E+03	9.036806E-15	6.745906E-16
5.120000E+03	8.873612E-15	6.631434E-16
5.130000E+03	8.768566E-15	6.560014E-16
5.140000E+03	8.724099E-15	6.533617E-16
5.150000E+03	8.739973E-15	6.552209E-16
5.160000E+03	8.813478E-15	6.613895E-16
5.170000E+03	8.940006E-15	6.715339E-16
5.180000E+03	9.113898E-15	6.852394E-16
5.190000E+03	9.327983E-15	7.019754E-16
5.200000E+03	9.575963E-15	7.212746E-16
5.210000E+03	9.851050E-15	7.426304E-16
5.220000E+03	1.014743E-14	7.656082E-16
5.230000E+03	1.046032E-14	7.898482E-16
5.240000E+03	1.078644E-14	8.151053E-16
5.250000E+03	1.112297E-14	8.411650E-16
5.260000E+03	1.146923E-14	8.679768E-16
5.270000E+03	1.182535E-14	8.955493E-16
5.280000E+03	1.219220E-14	9.239492E-16
5.290000E+03	1.257105E-14	9.532714E-16
5.300000E+03	1.296307E-14	9.836042E-16
5.310000E+03	1.336912E-14	1.015013E-15
5.320000E+03	1.378911E-14	1.047491E-15
5.330000E+03	1.422339E-14	1.081063E-15
5.340000E+03	1.467017E-14	1.115594E-15
5.350000E+03	1.512802E-14	1.150972E-15
5.360000E+03	1.559428E-14	1.186995E-15
5.370000E+03	1.606483E-14	1.223348E-15
5.380000E+03	1.653571E-14	1.259726E-15
5.390000E+03	1.700010E-14	1.295607E-15
5.400000E+03	1.745122E-14	1.330470E-15
5.410000E+03	1.788307E-14	1.363857E-15
5.420000E+03	1.828883E-14	1.395242E-15
5.430000E+03	1.866522E-14	1.424371E-15
5.440000E+03	1.901116E-14	1.451157E-15
5.450000E+03	1.933009E-14	1.475860E-15
5.460000E+03	1.962800E-14	1.498935E-15
5.470000E+03	1.991185E-14	1.520910E-15
5.480000E+03	2.018877E-14	1.542328E-15
5.490000E+03	2.046132E-14	1.563383E-15
5.500000E+03	2.072715E-14	1.583895E-15
5.510000E+03	2.097606E-14	1.603083E-15
5.520000E+03	2.119331E-14	1.619818E-15
5.530000E+03	2.136117E-14	1.632743E-15
5.540000E+03	2.146252E-14	1.640550E-15
5.550000E+03	2.148550E-14	1.642330E-15
5.560000E+03	2.142607E-14	1.637774E-15
5.570000E+03	2.128751E-14	1.627135E-15
5.580000E+03	2.108161E-14	1.611315E-15
5.590000E+03	2.082417E-14	1.591522E-15
5.600000E+03	2.053340E-14	1.569150E-15
5.610000E+03	2.022408E-14	1.545331E-15
5.620000E+03	1.990566E-14	1.520788E-15
5.630000E+03	1.957986E-14	1.495655E-15
5.640000E+03	1.923846E-14	1.469307E-15
5.650000E+03	1.886626E-14	1.440583E-15
5.660000E+03	1.844195E-14	1.407862E-15
5.670000E+03	1.794407E-14	1.369509E-15
5.680000E+03	1.735568E-14	1.324240E-15
5.690000E+03	1.666972E-14	1.271523E-15
5.700000E+03	1.589130E-14	1.211760E-15
5.710000E+03	1.503829E-14	1.146323E-15
5.720000E+03	1.414168E-14	1.077583E-15
5.730000E+03	1.323905E-14	1.008411E-15
5.740000E+03	1.237139E-14	9.419338E-16
5.750000E+03	1.157718E-14	8.810808E-16
5.760000E+03	1.088992E-14	8.283966E-16
5.770000E+03	1.033613E-14	7.858910E-16
5.780000E+03	9.935696E-15	7.550627E-16
5.790000E+03	9.702179E-15	7.369265E-16
5.800000E+03	9.646331E-15	7.322795E-16
5.810000E+03	9.775264E-15	7.416393E-16
5.820000E+03	1.009580E-14	7.654984E-16
5.830000E+03	1.061266E-14	8.041855E-16
5.840000E+03	1.132797E-14	8.578321E-16
5.850000E+03	1.223867E-14	9.261738E-16
5.860000E+03	1.333361E-14	1.008331E-15
5.870000E+03	1.458951E-14	1.102510E-15
5.880000E+03	1.596942E-14	1.205889E-15
5.890000E+03	1.742232E-14	1.314588E-15
5.900000E+03	1.888611E-14	1.423905E-15
5.910000E+03	2.029156E-14	1.528614E-15
5.920000E+03	2.157316E-14	1.623789E-15
5.930000E+03	2.267236E-14	1.705042E-15
5.940000E+03	2.354835E-14	1.769337E-15
5.950000E+03	2.417981E-14	1.815114E-15
5.960000E+03	2.456402E-14	1.842216E-15
5.970000E+03	2.471571E-14	1.851796E-15
5.980000E+03	2.466234E-14	1.845961E-15
5.990000E+03	2.443985E-14	1.827444E-15
6.000000E+03	2.408680E-14	1.799165E-15
6.010000E+03	2.364256E-14	1.764093E-15
6.020000E+03	2.314451E-14	1.725039E-15
6.030000E+03	2.262658E-14	1.684546E-15
6.040000E+03	2.211900E-14	1.644868E-15
6.050000E+03	2.164650E-14	1.607844E-15
6.060000E+03	2.122975E-14	1.574999E-15
6.070000E+03	2.088463E-14	1.547499E-15
6.080000E+03	2.062257E-14	1.526171E-15
6.090000E+03	2.044884E-14	1.511383E-15
6.100000E+03	2.036373E-14	1.503133E-15
6.110000E+03	2.036207E-14	1.501014E-15
6.120000E+03	2.043377E-14	1.504260E-15
6.130000E+03	2.056526E-14	1.511849E-15
6.140000E+03	2.073984E-14	1.522538E-15
6.150000E+03	2.094080E-14	1.535087E-15
6.160000E+03	2.115345E-14	1.548412E-15
6.170000E+03	2.136516E-14	1.561584E-15
6.180000E+03	2.156725E-14	1.573969E-15
6.190000E+03	2.175401E-14	1.585154E-15
6.200000E+03	2.192134E-14	1.594844E-15
6.210000E+03	2.206541E-14	1.602767E-15
6.220000E+03	2.217945E-14	1.608440E-15
6.230000E+03	2.225422E-14	1.611204E-15
6.240000E+03	2.227581E-14	1.610066E-15
6.250000E+03	2.222752E-14	1.603842E-15
6.260000E+03	2.209079E-14	1.591220E-15
6.270000E+03	2.184714E-14	1.570907E-15
6.280000E+03	2.148110E-14	1.541832E-15
6.290000E+03	2.098177E-14	1.503265E-15
6.300000E+03	2.034491E-14	1.454957E-15
6.310000E+03	1.957740E-14	1.397458E-15
6.320000E+03	1.869504E-14	1.331947E-15
6.330000E+03	1.772425E-14	1.260356E-15
6.340000E+03	1.669867E-14	1.185115E-15
6.350000E+03	1.565748E-14	1.109025E-15
6.360000E+03	1.464169E-14	1.034999E-15
6.370000E+03	1.368996E-14	9.657556E-16
6.380000E+03	1.283702E-14	9.037205E-16
6.390000E+03	1.211260E-14	8.509411E-16
6.400000E+03	1.154082E-14	8.090574E-16
6.410000E+03	1.114151E-14	7.793893E-16
6.420000E+03	1.093340E-14	7.631707E-16
6.430000E+03	1.093512E-14	7.616115E-16
6.440000E+03	1.116762E-14	7.760715E-16
6.450000E+03	1.165640E-14	8.082101E-16
6.460000E+03	1.243246E-14	8.600496E-16
6.470000E+03	1.353154E-14	9.339161E-16
6.480000E+03	1.499201E-14	1.032291E-15
6.490000E+03	1.685079E-14	1.157530E-15
6.500000E+03	1.913571E-14	1.311335E-15
6.510000E+03	2.185303E-14	1.493912E-15
6.520000E+03	2.497443E-14	1.703103E-15
6.530000E+03	2.841934E-14	1.933208E-15
6.540000E+03	3.204447E-14	2.174322E-15
6.550000E+03	3.564241E-14	2.412298E-15
6.560000E+03	3.896224E-14	2.630192E-15
6.570000E+03	4.175122E-14	2.811115E-15
6.580000E+03	4.379857E-14	2.941179E-15
6.590000E+03	4.497841E-14	3.012338E-15
6.600000E+03	4.526534E-14	3.023354E-15
6.610000E+03	4.473209E-14	2.979556E-15
6.620000E+03	4.352089E-14	2.890842E-15
6.630000E+03	4.180890E-14	2.769328E-15
6.640000E+03	3.977846E-14	2.627348E-15
6.650000E+03	3.759011E-14	2.475663E-15
6.660000E+03	3.537432E-14	2.322943E-15
6.670000E+03	3.322289E-14	2.175225E-15
6.680000E+03	3.119681E-14	2.036466E-15
6.690000E+03	2.933192E-14	1.908934E-15
6.700000E+03	2.764192E-14	1.793434E-15
6.710000E+03	2.612854E-14	1.689982E-15
6.720000E+03	2.478604E-14	1.598109E-15
6.730000E+03	2.360166E-14	1.516899E-15
6.740000E+03	2.256183E-14	1.445390E-15
6.750000E+03	2.165168E-14	1.382552E-15
6.760000E+03	2.085647E-14	1.327367E-15
6.770000E+03	2.016176E-14	1.278852E-15
6.780000E+03	1.955499E-14	1.236153E-15
6.790000E+03	1.902431E-14	1.198470E-15
6.800000E+03	1.855913E-14	1.165092E-15
6.810000E+03	1.815010E-14	1.135392E-15
6.820000E+03	1.778875E-14	1.108809E-15
6.830000E+03	1.746897E-14	1.084933E-15
6.840000E+03	1.718437E-14	1.063341E-15
6.850000E+03	1.693086E-14	1.043760E-15
6.860000E+03	1.670507E-14	1.025963E-15
6.870000E+03	1.650458E-14	1.009783E-15
6.880000E+03	1.632787E-14	9.951110E-16
6.890000E+03	1.617394E-14	9.818709E-16
6.900000E+03	1.604193E-14	9.699952E-16
6.910000E+03	1.593221E-14	9.594901E-16
6.920000E+03	1.584415E-14	9.503039E-16
6.930000E+03	1.577706E-14	9.423784E-16
6.940000E+03	1.573098E-14	9.357015E-16
6.950000E+03	1.570463E-14	9.301818E-16
6.960000E+03	1.569624E-14	9.257000E-16
6.970000E+03	1.570449E-14	9.221654E-16
6.980000E+03	1.572648E-14	9.193955E-16
6.990000E+03	1.575916E-14	9.172013E-16
7.000000E+03	1.579881E-14	9.153598E-16
7.010000E+03	1.584266E-14	9.137046E-16
7.020000E+03	1.588715E-14	9.120280E-16
7.030000E+03	1.592955E-14	9.101733E-16
7.040000E+03	1.596788E-14	9.080296E-16
7.050000E+03	1.600136E-14	9.055559E-16
7.060000E+03	1.602916E-14	9.027090E-16
7.070000E+03	1.605238E-14	8.995555E-16
7.080000E+03	1.607304E-14	8.962116E-16
7.090000E+03	1.609324E-14	8.927962E-16
7.100000E+03	1.611606E-14	8.894796E-16
7.110000E+03	1.614499E-14	8.864513E-16
7.120000E+03	1.618382E-14	8.839133E-16
7.130000E+03	1.623668E-14	8.820808E-16
7.140000E+03	1.630684E-14	8.811190E-16
7.150000E+03	1.639753E-14	8.811858E-16
7.160000E+03	1.651131E-14	8.823990E-16
7.170000E+03	1.664991E-14	8.848310E-16
7.180000E+03	1.681434E-14	8.885112E-16
7.190000E+03	1.700369E-14	8.933686E-16
7.200000E+03	1.721612E-14	8.992839E-16
7.210000E+03	1.744850E-14	9.060723E-16
7.220000E+03	1.769684E-14	9.135089E-16
7.230000E+03	1.795522E-14	9.212746E-16
7.240000E+03	1.821702E-14	9.290212E-16
7.250000E+03	1.847509E-14	9.363823E-16
7.260000E+03	1.872061E-14	9.429174E-16
7.270000E+03	1.894466E-14	9.481907E-16
7.280000E+03	1.913852E-14	9.517887E-16
7.290000E+03	1.929294E-14	9.532838E-16
7.300000E+03	1.940009E-14	9.523291E-16
7.310000E+03	1.945417E-14	9.486878E-16
7.320000E+03	1.945066E-14	9.421941E-16
7.330000E+03	1.938851E-14	9.328544E-16
7.340000E+03	1.926844E-14	9.207621E-16
7.350000E+03	1.909411E-14	9.061489E-16
7.360000E+03	1.887160E-14	8.893576E-16
7.370000E+03	1.860756E-14	8.707490E-16
7.380000E+03	1.830979E-14	8.507287E-16
7.390000E+03	1.798652E-14	8.297128E-16
7.400000E+03	1.764500E-14	8.080604E-16
7.410000E+03	1.729111E-14	7.860607E-16
7.420000E+03	1.692998E-14	7.639592E-16
7.430000E+03	1.656591E-14	7.419580E-16
7.440000E+03	1.620136E-14	7.201722E-16
7.450000E+03	1.583874E-14	6.987105E-16
7.460000E+03	1.547922E-14	6.776245E-16
7.470000E+03	1.512455E-14	6.569886E-16
7.480000E+03	1.477618E-14	6.368631E-16
7.490000E+03	1.443556E-14	6.173051E-16
7.500000E+03	1.410495E-14	5.984043E-16
7.510000E+03	1.378736E-14	5.802791E-16
7.520000E+03	1.348562E-14	5.630358E-16
7.530000E+03	1.320379E-14	5.468287E-16
7.540000E+03	1.294460E-14	5.317505E-16
7.550000E+03	1.271227E-14	5.179527E-16
7.560000E+03	1.251022E-14	5.055474E-16
7.570000E+03	1.234116E-14	4.946145E-16
7.580000E+03	1.220776E-14	4.852290E-16
7.590000E+03	1.211175E-14	4.774250E-16
7.600000E+03	1.205368E-14	4.711899E-16
7.610000E+03	1.203387E-14	4.664999E-16
7.620000E+03	1.205113E-14	4.632753E-16
7.630000E+03	1.210389E-14	4.614226E-16
7.640000E+03	1.218934E-14	4.608048E-16
7.650000E+03	1.230348E-14	4.612445E-16
7.660000E+03	1.244208E-14	4.625615E-16
7.670000E+03	1.260001E-14	4.645480E-16
7.680000E+03	1.277138E-14	4.669761E-16
7.690000E+03	1.295079E-14	4.696436E-16
7.700000E+03	1.313270E-14	4.723494E-16
7.710000E+03	1.331155E-14	4.748997E-16
7.720000E+03	1.348291E-14	4.771464E-16
7.730000E+03	1.364240E-14	4.789496E-16
7.740000E+03	1.378564E-14	4.801733E-16
7.750000E+03	1.390902E-14	4.807140E-16
7.760000E+03	1.400887E-14	4.804681E-16
