#wls	flux	fluxerr
1.600000E+03	5.047700E-17	7.817973E-18
1.640000E+03	5.041388E-17	7.769499E-18
1.680000E+03	5.035153E-17	7.720295E-18
1.720000E+03	5.025073E-17	7.664374E-18
1.760000E+03	5.019169E-17	7.613997E-18
1.800000E+03	5.013500E-17	7.563110E-18
1.840000E+03	5.008125E-17	7.511797E-18
1.880000E+03	5.003109E-17	7.460148E-18
1.920000E+03	4.998522E-17	7.408256E-18
1.960000E+03	4.994440E-17	7.356226E-18
2.000000E+03	4.994744E-17	7.309727E-18
2.040000E+03	4.991901E-17	7.257689E-18
2.080000E+03	4.989829E-17	7.205868E-18
2.120000E+03	4.992366E-17	7.159752E-18
2.160000E+03	4.995850E-17	7.114004E-18
2.200000E+03	5.000408E-17	7.068783E-18
2.240000E+03	5.002497E-17	7.019101E-18
2.280000E+03	5.009640E-17	6.975528E-18
2.320000E+03	5.018302E-17	6.933040E-18
2.360000E+03	5.028662E-17	6.891858E-18
2.400000E+03	5.044534E-17	6.857137E-18
2.440000E+03	5.058880E-17	6.819234E-18
2.480000E+03	5.075567E-17	6.783405E-18
2.520000E+03	5.098446E-17	6.754712E-18
2.560000E+03	5.120603E-17	6.723906E-18
2.600000E+03	5.149539E-17	6.700825E-18
2.640000E+03	5.182003E-17	6.681096E-18
2.680000E+03	5.218373E-17	6.665140E-18
2.720000E+03	5.259060E-17	6.653413E-18
2.760000E+03	5.304510E-17	6.646400E-18
2.800000E+03	5.355202E-17	6.644621E-18
2.840000E+03	5.411647E-17	6.648620E-18
2.880000E+03	5.474378E-17	6.658960E-18
2.920000E+03	5.543947E-17	6.676219E-18
2.960000E+03	5.624616E-17	6.705389E-18
3.000000E+03	5.709546E-17	6.738181E-18
3.010000E+03	5.734893E-17	6.751010E-18
3.020000E+03	5.757030E-17	6.759968E-18
3.030000E+03	5.779706E-17	6.769477E-18
3.040000E+03	5.806707E-17	6.783961E-18
3.050000E+03	5.830492E-17	6.794595E-18
3.060000E+03	5.858638E-17	6.810222E-18
3.070000E+03	5.883560E-17	6.822010E-18
3.080000E+03	5.909055E-17	6.834385E-18
3.090000E+03	5.938966E-17	6.851780E-18
3.100000E+03	5.965638E-17	6.865351E-18
3.110000E+03	5.996765E-17	6.883964E-18
3.120000E+03	6.024642E-17	6.898762E-18
3.130000E+03	6.057015E-17	6.918626E-18
3.140000E+03	6.086129E-17	6.934686E-18
3.150000E+03	6.115866E-17	6.951388E-18
3.160000E+03	6.150168E-17	6.973201E-18
3.170000E+03	6.181199E-17	6.991231E-18
3.180000E+03	6.216848E-17	7.014410E-18
3.190000E+03	6.249225E-17	7.033827E-18
3.200000E+03	6.286285E-17	7.058448E-18
3.210000E+03	6.320082E-17	7.079339E-18
3.220000E+03	6.358642E-17	7.105502E-18
3.230000E+03	6.393962E-17	7.127985E-18
3.240000E+03	6.434147E-17	7.155833E-18
3.250000E+03	6.471138E-17	7.180075E-18
3.260000E+03	6.513124E-17	7.209808E-18
3.270000E+03	6.551994E-17	7.236043E-18
3.280000E+03	6.596031E-17	7.267938E-18
3.290000E+03	6.637071E-17	7.296488E-18
3.300000E+03	6.683505E-17	7.330926E-18
3.310000E+03	6.727118E-17	7.362233E-18
3.320000E+03	6.776423E-17	7.399734E-18
3.330000E+03	6.823158E-17	7.434394E-18
3.340000E+03	6.875976E-17	7.475650E-18
3.350000E+03	6.926572E-17	7.514458E-18
3.360000E+03	6.983758E-17	7.560384E-18
3.370000E+03	7.039190E-17	7.604381E-18
3.380000E+03	7.101861E-17	7.656166E-18
3.390000E+03	7.163402E-17	7.706699E-18
3.400000E+03	7.233011E-17	7.765877E-18
3.410000E+03	7.302280E-17	7.824649E-18
3.420000E+03	7.380669E-17	7.893149E-18
3.430000E+03	7.459718E-17	7.962305E-18
3.440000E+03	7.549174E-17	8.042513E-18
3.450000E+03	7.640539E-17	8.124689E-18
3.460000E+03	7.743876E-17	8.219521E-18
3.470000E+03	7.855432E-17	8.322982E-18
3.480000E+03	7.971269E-17	8.430881E-18
3.490000E+03	8.102016E-17	8.554439E-18
3.500000E+03	8.238992E-17	8.684446E-18
3.510000E+03	8.393237E-17	8.832515E-18
3.520000E+03	8.555890E-17	8.989274E-18
3.530000E+03	8.738478E-17	9.166801E-18
3.540000E+03	8.937253E-17	9.361108E-18
3.550000E+03	9.148083E-17	9.567831E-18
3.560000E+03	9.383229E-17	9.799758E-18
3.570000E+03	9.632926E-17	1.004664E-17
3.580000E+03	9.909922E-17	1.032174E-17
3.590000E+03	1.020376E-16	1.061411E-17
3.600000E+03	1.052760E-16	1.093742E-17
3.610000E+03	1.087645E-16	1.128642E-17
3.620000E+03	1.124429E-16	1.165486E-17
3.630000E+03	1.164473E-16	1.205682E-17
3.640000E+03	1.206432E-16	1.247837E-17
3.650000E+03	1.251700E-16	1.293392E-17
3.660000E+03	1.299543E-16	1.341588E-17
3.670000E+03	1.349085E-16	1.391524E-17
3.680000E+03	1.401772E-16	1.444696E-17
3.690000E+03	1.455828E-16	1.499277E-17
3.700000E+03	1.512746E-16	1.556810E-17
3.710000E+03	1.571482E-16	1.616230E-17
3.720000E+03	1.630849E-16	1.676323E-17
3.730000E+03	1.692498E-16	1.738796E-17
3.740000E+03	1.755307E-16	1.802507E-17
3.750000E+03	1.818075E-16	1.866230E-17
3.760000E+03	1.882820E-16	1.932048E-17
3.770000E+03	1.947426E-16	1.997797E-17
3.780000E+03	2.014270E-16	2.065926E-17
3.790000E+03	2.082526E-16	2.135596E-17
3.800000E+03	2.151337E-16	2.205937E-17
3.810000E+03	2.223649E-16	2.279981E-17
3.820000E+03	2.298849E-16	2.357109E-17
3.830000E+03	2.376243E-16	2.436620E-17
3.840000E+03	2.459258E-16	2.522038E-17
3.850000E+03	2.547329E-16	2.612798E-17
3.860000E+03	2.639700E-16	2.708139E-17
3.870000E+03	2.740064E-16	2.811865E-17
3.880000E+03	2.845969E-16	2.921477E-17
3.890000E+03	2.961125E-16	3.040805E-17
3.900000E+03	3.084320E-16	3.168629E-17
3.910000E+03	3.213882E-16	3.303254E-17
3.920000E+03	3.353325E-16	3.448319E-17
3.930000E+03	3.500576E-16	3.601721E-17
3.940000E+03	3.653004E-16	3.760783E-17
3.950000E+03	3.813868E-16	3.928889E-17
3.960000E+03	3.980185E-16	4.102994E-17
3.970000E+03	4.148443E-16	4.279507E-17
3.980000E+03	4.321936E-16	4.461848E-17
3.990000E+03	4.497032E-16	4.646295E-17
4.000000E+03	4.669678E-16	4.828674E-17
4.010000E+03	4.843567E-16	5.012819E-17
4.020000E+03	5.014713E-16	5.194618E-17
4.030000E+03	5.178768E-16	5.369569E-17
4.040000E+03	5.339990E-16	5.542082E-17
4.050000E+03	5.494108E-16	5.707724E-17
4.060000E+03	5.636486E-16	5.861662E-17
4.070000E+03	5.771777E-16	6.008709E-17
4.080000E+03	5.895329E-16	6.144003E-17
4.090000E+03	6.002231E-16	6.262384E-17
4.100000E+03	6.097587E-16	6.369130E-17
4.110000E+03	6.173435E-16	6.455876E-17
4.120000E+03	6.235649E-16	6.528700E-17
4.130000E+03	6.280438E-16	6.583578E-17
4.140000E+03	6.304512E-16	6.616987E-17
4.150000E+03	6.315618E-16	6.636985E-17
4.160000E+03	6.311720E-16	6.641372E-17
4.170000E+03	6.291326E-16	6.628510E-17
4.180000E+03	6.263705E-16	6.608102E-17
4.190000E+03	6.228017E-16	6.579225E-17
4.200000E+03	6.183642E-16	6.541181E-17
4.210000E+03	6.140119E-16	6.504028E-17
4.220000E+03	6.096740E-16	6.467013E-17
4.230000E+03	6.052797E-16	6.429375E-17
4.240000E+03	6.017312E-16	6.400702E-17
4.250000E+03	5.989234E-16	6.379907E-17
4.260000E+03	5.967419E-16	6.365794E-17
4.270000E+03	5.960203E-16	6.367294E-17
4.280000E+03	5.962786E-16	6.379333E-17
4.290000E+03	5.983009E-16	6.410352E-17
4.300000E+03	6.018830E-16	6.458242E-17
4.310000E+03	6.067935E-16	6.520585E-17
4.320000E+03	6.137557E-16	6.605226E-17
4.330000E+03	6.225069E-16	6.709428E-17
4.340000E+03	6.327622E-16	6.830202E-17
4.350000E+03	6.452446E-16	6.975433E-17
4.360000E+03	6.596806E-16	7.142269E-17
4.370000E+03	6.757834E-16	7.327693E-17
4.380000E+03	6.943545E-16	7.540488E-17
4.390000E+03	7.147770E-16	7.774065E-17
4.400000E+03	7.379382E-16	8.038180E-17
4.410000E+03	7.636387E-16	8.330792E-17
4.420000E+03	7.916581E-16	8.649615E-17
4.430000E+03	8.230497E-16	9.006287E-17
4.440000E+03	8.576720E-16	9.399424E-17
4.450000E+03	8.953495E-16	9.827256E-17
4.460000E+03	9.373274E-16	1.030362E-16
4.470000E+03	9.829807E-16	1.082185E-16
4.480000E+03	1.033665E-15	1.139705E-16
4.490000E+03	1.089215E-15	1.202767E-16
4.500000E+03	1.149306E-15	1.271032E-16
4.510000E+03	1.215273E-15	1.346002E-16
4.520000E+03	1.285887E-15	1.426343E-16
4.530000E+03	1.362250E-15	1.513298E-16
4.540000E+03	1.443266E-15	1.605676E-16
4.550000E+03	1.527380E-15	1.701766E-16
4.560000E+03	1.615068E-15	1.802112E-16
4.570000E+03	1.703341E-15	1.903389E-16
4.580000E+03	1.792326E-15	2.005741E-16
4.590000E+03	1.878462E-15	2.105175E-16
4.600000E+03	1.961831E-15	2.201769E-16
4.610000E+03	2.039739E-15	2.292479E-16
4.620000E+03	2.109492E-15	2.374244E-16
4.630000E+03	2.171878E-15	2.447908E-16
4.640000E+03	2.223695E-15	2.509822E-16
4.650000E+03	2.266600E-15	2.561805E-16
4.660000E+03	2.298143E-15	2.601039E-16
4.670000E+03	2.320970E-15	2.630470E-16
4.680000E+03	2.333486E-15	2.648245E-16
4.690000E+03	2.339251E-15	2.658359E-16
4.700000E+03	2.337431E-15	2.659833E-16
4.710000E+03	2.332250E-15	2.657444E-16
4.720000E+03	2.323391E-15	2.650814E-16
4.730000E+03	2.315417E-15	2.645139E-16
4.740000E+03	2.309405E-15	2.641654E-16
4.750000E+03	2.306460E-15	2.641634E-16
4.760000E+03	2.311141E-15	2.650318E-16
4.770000E+03	2.323234E-15	2.667493E-16
4.780000E+03	2.347052E-15	2.698147E-16
4.790000E+03	2.381993E-15	2.741635E-16
4.800000E+03	2.430695E-15	2.801043E-16
4.810000E+03	2.495502E-15	2.879126E-16
4.820000E+03	2.574577E-15	2.973826E-16
4.830000E+03	2.670587E-15	3.088281E-16
4.840000E+03	2.780448E-15	3.218980E-16
4.850000E+03	2.905825E-15	3.367905E-16
4.860000E+03	3.042183E-15	3.529845E-16
4.870000E+03	3.190193E-15	3.705613E-16
4.880000E+03	3.343884E-15	3.888302E-16
4.890000E+03	3.503167E-15	4.077821E-16
4.900000E+03	3.660935E-15	4.265901E-16
4.910000E+03	3.814968E-15	4.449935E-16
4.920000E+03	3.963380E-15	4.627700E-16
4.930000E+03	4.098735E-15	4.790474E-16
4.940000E+03	4.221910E-15	4.939231E-16
4.950000E+03	4.326282E-15	5.066165E-16
4.960000E+03	4.414184E-15	5.173940E-16
4.970000E+03	4.479980E-15	5.255885E-16
4.980000E+03	4.524915E-15	5.313384E-16
4.990000E+03	4.550613E-15	5.348277E-16
5.000000E+03	4.552213E-15	5.354783E-16
5.010000E+03	4.531850E-15	5.335340E-16
5.020000E+03	4.492119E-15	5.292943E-16
5.030000E+03	4.429706E-15	5.223628E-16
5.040000E+03	4.348863E-15	5.132350E-16
5.050000E+03	4.254697E-15	5.025095E-16
5.060000E+03	4.146936E-15	4.901509E-16
5.070000E+03	4.034248E-15	4.771816E-16
5.080000E+03	3.917499E-15	4.637036E-16
5.090000E+03	3.803440E-15	4.505160E-16
5.100000E+03	3.696335E-15	4.381256E-16
5.110000E+03	3.601471E-15	4.271619E-16
5.120000E+03	3.518000E-15	4.175276E-16
5.130000E+03	3.449482E-15	4.096487E-16
5.140000E+03	3.398435E-15	4.038280E-16
5.150000E+03	3.361593E-15	3.996813E-16
5.160000E+03	3.339929E-15	3.973274E-16
5.170000E+03	3.332123E-15	3.966125E-16
5.180000E+03	3.337961E-15	3.975136E-16
5.190000E+03	3.352064E-15	3.993922E-16
5.200000E+03	3.373641E-15	4.021555E-16
5.210000E+03	3.400221E-15	4.055099E-16
5.220000E+03	3.431017E-15	4.093620E-16
5.230000E+03	3.460482E-15	4.130501E-16
5.240000E+03	3.488210E-15	4.165253E-16
5.250000E+03	3.512499E-15	4.195838E-16
5.260000E+03	3.532039E-15	4.220683E-16
5.270000E+03	3.547649E-15	4.240760E-16
5.280000E+03	3.555534E-15	4.251526E-16
5.290000E+03	3.557392E-15	4.255000E-16
5.300000E+03	3.553626E-15	4.251659E-16
5.310000E+03	3.544961E-15	4.242365E-16
5.320000E+03	3.532373E-15	4.228281E-16
5.330000E+03	3.518688E-15	4.212789E-16
5.340000E+03	3.501849E-15	4.193425E-16
5.350000E+03	3.484893E-15	4.173825E-16
5.360000E+03	3.469199E-15	4.155643E-16
5.370000E+03	3.456106E-15	4.140483E-16
5.380000E+03	3.446838E-15	4.129815E-16
5.390000E+03	3.442438E-15	4.124890E-16
5.400000E+03	3.443711E-15	4.126674E-16
5.410000E+03	3.451175E-15	4.135791E-16
5.420000E+03	3.465050E-15	4.152500E-16
5.430000E+03	3.485244E-15	4.176694E-16
5.440000E+03	3.511373E-15	4.207911E-16
5.450000E+03	3.542771E-15	4.245348E-16
5.460000E+03	3.578481E-15	4.287856E-16
5.470000E+03	3.618920E-15	4.335929E-16
5.480000E+03	3.659091E-15	4.383578E-16
5.490000E+03	3.698617E-15	4.430349E-16
5.500000E+03	3.733279E-15	4.471184E-16
5.510000E+03	3.763700E-15	4.506829E-16
5.520000E+03	3.785162E-15	4.531635E-16
5.530000E+03	3.794830E-15	4.542215E-16
5.540000E+03	3.790402E-15	4.535821E-16
5.550000E+03	3.770447E-15	4.510755E-16
5.560000E+03	3.734639E-15	4.466639E-16
5.570000E+03	3.683778E-15	4.404453E-16
5.580000E+03	3.619616E-15	4.326309E-16
5.590000E+03	3.544501E-15	4.235033E-16
5.600000E+03	3.460958E-15	4.133661E-16
5.610000E+03	3.371301E-15	4.024973E-16
5.620000E+03	3.277318E-15	3.911120E-16
5.630000E+03	3.178654E-15	3.791691E-16
5.640000E+03	3.078692E-15	3.670735E-16
5.650000E+03	2.975766E-15	3.546277E-16
5.660000E+03	2.869395E-15	3.417757E-16
5.670000E+03	2.759101E-15	3.284621E-16
5.680000E+03	2.644737E-15	3.146712E-16
5.690000E+03	2.525620E-15	3.003233E-16
5.700000E+03	2.405366E-15	2.858502E-16
5.710000E+03	2.284816E-15	2.713530E-16
5.720000E+03	2.166709E-15	2.571578E-16
5.730000E+03	2.053314E-15	2.435342E-16
5.740000E+03	1.949951E-15	2.311124E-16
5.750000E+03	1.858954E-15	2.201672E-16
5.760000E+03	1.783372E-15	2.110571E-16
5.770000E+03	1.725092E-15	2.040018E-16
5.780000E+03	1.688001E-15	1.994560E-16
5.790000E+03	1.673265E-15	1.975521E-16
5.800000E+03	1.681875E-15	1.984003E-16
5.810000E+03	1.716927E-15	2.023585E-16
5.820000E+03	1.779079E-15	2.094956E-16
5.830000E+03	1.868606E-15	2.198351E-16
5.840000E+03	1.987697E-15	2.336243E-16
5.850000E+03	2.135096E-15	2.507051E-16
5.860000E+03	2.307797E-15	2.707136E-16
5.870000E+03	2.503787E-15	2.934038E-16
5.880000E+03	2.714472E-15	3.177595E-16
5.890000E+03	2.933429E-15	3.430225E-16
5.900000E+03	3.148921E-15	3.678167E-16
5.910000E+03	3.348028E-15	3.906342E-16
5.920000E+03	3.522890E-15	4.105639E-16
5.930000E+03	3.661706E-15	4.262401E-16
5.940000E+03	3.762150E-15	4.374059E-16
5.950000E+03	3.819015E-15	4.434722E-16
5.960000E+03	3.837377E-15	4.450456E-16
5.970000E+03	3.818406E-15	4.422784E-16
5.980000E+03	3.772155E-15	4.363503E-16
5.990000E+03	3.702937E-15	4.277724E-16
6.000000E+03	3.622099E-15	4.178647E-16
6.010000E+03	3.534055E-15	4.071421E-16
6.020000E+03	3.447451E-15	3.966035E-16
6.030000E+03	3.369810E-15	3.871129E-16
6.040000E+03	3.303009E-15	3.788820E-16
6.050000E+03	3.253843E-15	3.726843E-16
6.060000E+03	3.222108E-15	3.684876E-16
6.070000E+03	3.210975E-15	3.666451E-16
6.080000E+03	3.222634E-15	3.673958E-16
6.090000E+03	3.254142E-15	3.703923E-16
6.100000E+03	3.306097E-15	3.756912E-16
6.110000E+03	3.378522E-15	3.832834E-16
6.120000E+03	3.466465E-15	3.925957E-16
6.130000E+03	3.569094E-15	4.035246E-16
6.140000E+03	3.685679E-15	4.159780E-16
6.150000E+03	3.810857E-15	4.293424E-16
6.160000E+03	3.944595E-15	4.436081E-16
6.170000E+03	4.086054E-15	4.586743E-16
6.180000E+03	4.237135E-15	4.747482E-16
6.190000E+03	4.394938E-15	4.914980E-16
6.200000E+03	4.562457E-15	5.092524E-16
6.210000E+03	4.740649E-15	5.281101E-16
6.220000E+03	4.929396E-15	5.480496E-16
6.230000E+03	5.128869E-15	5.690812E-16
6.240000E+03	5.329764E-15	5.901659E-16
6.250000E+03	5.526093E-15	6.106394E-16
6.260000E+03	5.706309E-15	6.292296E-16
6.270000E+03	5.856133E-15	6.443751E-16
6.280000E+03	5.959985E-15	6.543856E-16
6.290000E+03	6.003073E-15	6.576723E-16
6.300000E+03	5.973811E-15	6.530122E-16
6.310000E+03	5.868695E-15	6.400761E-16
6.320000E+03	5.683485E-15	6.184600E-16
6.330000E+03	5.429353E-15	5.894380E-16
6.340000E+03	5.121500E-15	5.547107E-16
6.350000E+03	4.779818E-15	5.164713E-16
6.360000E+03	4.426321E-15	4.771219E-16
6.370000E+03	4.082647E-15	4.390014E-16
6.380000E+03	3.768169E-15	4.041830E-16
6.390000E+03	3.499094E-15	3.743800E-16
6.400000E+03	3.288640E-15	3.509688E-16
6.410000E+03	3.148199E-15	3.351161E-16
6.420000E+03	3.087925E-15	3.278433E-16
6.430000E+03	3.124677E-15	3.308694E-16
6.440000E+03	3.276966E-15	3.460676E-16
6.450000E+03	3.573954E-15	3.764096E-16
6.460000E+03	4.058069E-15	4.262252E-16
6.470000E+03	4.789397E-15	5.016419E-16
6.480000E+03	5.849571E-15	6.109635E-16
6.490000E+03	7.342480E-15	7.647109E-16
6.500000E+03	9.382537E-15	9.743679E-16
6.510000E+03	1.208649E-14	1.251515E-15
6.520000E+03	1.550577E-14	1.600835E-15
6.530000E+03	1.957135E-14	2.014541E-15
6.540000E+03	2.401466E-14	2.464443E-15
6.550000E+03	2.831963E-14	2.897350E-15
6.560000E+03	3.184108E-14	3.247556E-15
6.570000E+03	3.392038E-14	3.448810E-15
6.580000E+03	3.416459E-14	3.462649E-15
6.590000E+03	3.257676E-14	3.291151E-15
6.600000E+03	2.958994E-14	2.979721E-15
6.610000E+03	2.580013E-14	2.589577E-15
6.620000E+03	2.180070E-14	2.180901E-15
6.630000E+03	1.806004E-14	1.800638E-15
6.640000E+03	1.481569E-14	1.472158E-15
6.650000E+03	1.214413E-14	1.202560E-15
6.660000E+03	1.003206E-14	9.899679E-16
6.670000E+03	8.393095E-15	8.253265E-16
6.680000E+03	7.144325E-15	7.000349E-16
6.690000E+03	6.196218E-15	6.049533E-16
6.700000E+03	5.474738E-15	5.325701E-16
6.710000E+03	4.927995E-15	4.776208E-16
6.720000E+03	4.507642E-15	4.352545E-16
6.730000E+03	4.184766E-15	4.025562E-16
6.740000E+03	3.930910E-15	3.766957E-16
6.750000E+03	3.731283E-15	3.561872E-16
6.760000E+03	3.568990E-15	3.393658E-16
6.770000E+03	3.437205E-15	3.255448E-16
6.780000E+03	3.325534E-15	3.137102E-16
6.790000E+03	3.231493E-15	3.036070E-16
6.800000E+03	3.148232E-15	2.945748E-16
6.810000E+03	3.074225E-15	2.864598E-16
6.820000E+03	3.008612E-15	2.791719E-16
6.830000E+03	2.947272E-15	2.723211E-16
6.840000E+03	2.891949E-15	2.660634E-16
6.850000E+03	2.839934E-15	2.601441E-16
6.860000E+03	2.792951E-15	2.547167E-16
6.870000E+03	2.753155E-15	2.499712E-16
6.880000E+03	2.719466E-15	2.458018E-16
6.890000E+03	2.694579E-15	2.424436E-16
6.900000E+03	2.681103E-15	2.401198E-16
6.910000E+03	2.677967E-15	2.387206E-16
6.920000E+03	2.687251E-15	2.384178E-16
6.930000E+03	2.709503E-15	2.392438E-16
6.940000E+03	2.746059E-15	2.412996E-16
6.950000E+03	2.794323E-15	2.443393E-16
6.960000E+03	2.854802E-15	2.483917E-16
6.970000E+03	2.926407E-15	2.533459E-16
6.980000E+03	3.007603E-15	2.590545E-16
6.990000E+03	3.097781E-15	2.654520E-16
7.000000E+03	3.192014E-15	2.721056E-16
7.010000E+03	3.289072E-15	2.789048E-16
7.020000E+03	3.386321E-15	2.856227E-16
7.030000E+03	3.481205E-15	2.920437E-16
7.040000E+03	3.571437E-15	2.979795E-16
7.050000E+03	3.655219E-15	3.032864E-16
7.060000E+03	3.731439E-15	3.078809E-16
7.070000E+03	3.801496E-15	3.118876E-16
7.080000E+03	3.862873E-15	3.151092E-16
7.090000E+03	3.918948E-15	3.178314E-16
7.100000E+03	3.972460E-15	3.202821E-16
7.110000E+03	4.026961E-15	3.227493E-16
7.120000E+03	4.086619E-15	3.255631E-16
7.130000E+03	4.156067E-15	3.290826E-16
7.140000E+03	4.240357E-15	3.336904E-16
7.150000E+03	4.344993E-15	3.397949E-16
7.160000E+03	4.476021E-15	3.478349E-16
7.170000E+03	4.640091E-15	3.582841E-16
7.180000E+03	4.842391E-15	3.714900E-16
7.190000E+03	5.094778E-15	3.882976E-16
7.200000E+03	5.403173E-15	4.090777E-16
7.210000E+03	5.774947E-15	4.342978E-16
7.220000E+03	6.215828E-15	4.642865E-16
7.230000E+03	6.728358E-15	4.991236E-16
7.240000E+03	7.309868E-15	5.384985E-16
7.250000E+03	7.950186E-15	5.815564E-16
7.260000E+03	8.625867E-15	6.264990E-16
7.270000E+03	9.313716E-15	6.715937E-16
7.280000E+03	9.969978E-15	7.136850E-16
7.290000E+03	1.054751E-14	7.494687E-16
7.300000E+03	1.099811E-14	7.756663E-16
7.310000E+03	1.127518E-14	7.892144E-16
7.320000E+03	1.136051E-14	7.891251E-16
7.330000E+03	1.124057E-14	7.747726E-16
7.340000E+03	1.092708E-14	7.472889E-16
7.350000E+03	1.044483E-14	7.086727E-16
7.360000E+03	9.843999E-15	6.625760E-16
7.370000E+03	9.164868E-15	6.118864E-16
7.380000E+03	8.446323E-15	5.593104E-16
7.390000E+03	7.731388E-15	5.077424E-16
7.400000E+03	7.042159E-15	4.586195E-16
7.410000E+03	6.392531E-15	4.128005E-16
7.420000E+03	5.796866E-15	3.711429E-16
7.430000E+03	5.252293E-15	3.333783E-16
7.440000E+03	4.761982E-15	2.996240E-16
7.450000E+03	4.319620E-15	2.693984E-16
7.460000E+03	3.918886E-15	2.422328E-16
7.470000E+03	3.558849E-15	2.180023E-16
7.480000E+03	3.232452E-15	1.962121E-16
7.490000E+03	2.939756E-15	1.768105E-16
7.500000E+03	2.676086E-15	1.594636E-16
7.510000E+03	2.442609E-15	1.441924E-16
7.520000E+03	2.236317E-15	1.307710E-16
7.530000E+03	2.058726E-15	1.192420E-16
7.540000E+03	1.907532E-15	1.094258E-16
7.550000E+03	1.784030E-15	1.013519E-16
7.560000E+03	1.686152E-15	9.485819E-17
7.570000E+03	1.614977E-15	8.996218E-17
7.580000E+03	1.568746E-15	8.652270E-17
7.590000E+03	1.548750E-15	8.456937E-17
7.600000E+03	1.553846E-15	8.399731E-17
7.610000E+03	1.585236E-15	8.483018E-17
7.620000E+03	1.644409E-15	8.710455E-17
7.630000E+03	1.730777E-15	9.074533E-17
7.640000E+03	1.846280E-15	9.581045E-17
7.650000E+03	1.988890E-15	1.021506E-16
7.660000E+03	2.157224E-15	1.096542E-16
7.670000E+03	2.347770E-15	1.181067E-16
7.680000E+03	2.551132E-15	1.270084E-16
7.690000E+03	2.757895E-15	1.358794E-16
7.700000E+03	2.955508E-15	1.441065E-16
7.710000E+03	3.132005E-15	1.511311E-16
7.720000E+03	3.272505E-15	1.562787E-16
7.730000E+03	3.369061E-15	1.592320E-16
7.740000E+03	3.418164E-15	1.598950E-16
7.750000E+03	3.416433E-15	1.581831E-16
7.760000E+03	3.369071E-15	1.544093E-16
