#wls	flux	fluxerr
1.600000E+03	4.081634E-17	8.350023E-19
1.640000E+03	4.096154E-17	8.379213E-19
1.680000E+03	4.110773E-17	8.408604E-19
1.720000E+03	4.125510E-17	8.438235E-19
1.760000E+03	4.140382E-17	8.468142E-19
1.800000E+03	4.155410E-17	8.498368E-19
1.840000E+03	4.170619E-17	8.528965E-19
1.880000E+03	4.189665E-17	8.567408E-19
1.920000E+03	4.205321E-17	8.598915E-19
1.960000E+03	4.221247E-17	8.630975E-19
2.000000E+03	4.237483E-17	8.663670E-19
2.040000E+03	4.257706E-17	8.704514E-19
2.080000E+03	4.274694E-17	8.738742E-19
2.120000E+03	4.292134E-17	8.773895E-19
2.160000E+03	4.313727E-17	8.817536E-19
2.200000E+03	4.332256E-17	8.854912E-19
2.240000E+03	4.355084E-17	8.901075E-19
2.280000E+03	4.374998E-17	8.941280E-19
2.320000E+03	4.399395E-17	8.990645E-19
2.360000E+03	4.421060E-17	9.034427E-19
2.400000E+03	4.447435E-17	9.087831E-19
2.440000E+03	4.474987E-17	9.143637E-19
2.480000E+03	4.500169E-17	9.194599E-19
2.520000E+03	4.530507E-17	9.256092E-19
2.560000E+03	4.562495E-17	9.320953E-19
2.600000E+03	4.596327E-17	9.389579E-19
2.640000E+03	4.628484E-17	9.454779E-19
2.680000E+03	4.666660E-17	9.532270E-19
2.720000E+03	4.707399E-17	9.614993E-19
2.760000E+03	4.750997E-17	9.703549E-19
2.800000E+03	4.797786E-17	9.798617E-19
2.840000E+03	4.848139E-17	9.900959E-19
2.880000E+03	4.902486E-17	1.001145E-18
2.920000E+03	4.961326E-17	1.013111E-18
2.960000E+03	5.025253E-17	1.026115E-18
3.000000E+03	5.095003E-17	1.040306E-18
3.010000E+03	5.112460E-17	1.043858E-18
3.020000E+03	5.130349E-17	1.047498E-18
3.030000E+03	5.152689E-17	1.052047E-18
3.040000E+03	5.171511E-17	1.055877E-18
3.050000E+03	5.190825E-17	1.059808E-18
3.060000E+03	5.210654E-17	1.063843E-18
3.070000E+03	5.235070E-17	1.068816E-18
3.080000E+03	5.256017E-17	1.073079E-18
3.090000E+03	5.277560E-17	1.077465E-18
3.100000E+03	5.303819E-17	1.082813E-18
3.110000E+03	5.326667E-17	1.087465E-18
3.120000E+03	5.350215E-17	1.092259E-18
3.130000E+03	5.374505E-17	1.097205E-18
3.140000E+03	5.403732E-17	1.103159E-18
3.150000E+03	5.429664E-17	1.108440E-18
3.160000E+03	5.456486E-17	1.113902E-18
3.170000E+03	5.488463E-17	1.120417E-18
3.180000E+03	5.517273E-17	1.126285E-18
3.190000E+03	5.547172E-17	1.132376E-18
3.200000E+03	5.578239E-17	1.138704E-18
3.210000E+03	5.614844E-17	1.146163E-18
3.220000E+03	5.648537E-17	1.153028E-18
3.230000E+03	5.683685E-17	1.160189E-18
3.240000E+03	5.724756E-17	1.168559E-18
3.250000E+03	5.763193E-17	1.176392E-18
3.260000E+03	5.803464E-17	1.184598E-18
3.270000E+03	5.845719E-17	1.193210E-18
3.280000E+03	5.894589E-17	1.203171E-18
3.290000E+03	5.941357E-17	1.212703E-18
3.300000E+03	5.990655E-17	1.222752E-18
3.310000E+03	6.047269E-17	1.234293E-18
3.320000E+03	6.102340E-17	1.245519E-18
3.330000E+03	6.160657E-17	1.257408E-18
3.340000E+03	6.227195E-17	1.270974E-18
3.350000E+03	6.292929E-17	1.284376E-18
3.360000E+03	6.362842E-17	1.298631E-18
3.370000E+03	6.437303E-17	1.313813E-18
3.380000E+03	6.521602E-17	1.331003E-18
3.390000E+03	6.606453E-17	1.348305E-18
3.400000E+03	6.697164E-17	1.366803E-18
3.410000E+03	6.799333E-17	1.387639E-18
3.420000E+03	6.903426E-17	1.408867E-18
3.430000E+03	7.015066E-17	1.431635E-18
3.440000E+03	7.140234E-17	1.457163E-18
3.450000E+03	7.269091E-17	1.483444E-18
3.460000E+03	7.407651E-17	1.511704E-18
3.470000E+03	7.556756E-17	1.542115E-18
3.480000E+03	7.723055E-17	1.576035E-18
3.490000E+03	7.896188E-17	1.611348E-18
3.500000E+03	8.082850E-17	1.649422E-18
3.510000E+03	8.290348E-17	1.691747E-18
3.520000E+03	8.507815E-17	1.736104E-18
3.530000E+03	8.742613E-17	1.783998E-18
3.540000E+03	9.002867E-17	1.837085E-18
3.550000E+03	9.277063E-17	1.893016E-18
3.560000E+03	9.573364E-17	1.953456E-18
3.570000E+03	9.900852E-17	2.020259E-18
3.580000E+03	1.024705E-16	2.090877E-18
3.590000E+03	1.062083E-16	2.167122E-18
3.600000E+03	1.103191E-16	2.250977E-18
3.610000E+03	1.146568E-16	2.339461E-18
3.620000E+03	1.193085E-16	2.434347E-18
3.630000E+03	1.242798E-16	2.535754E-18
3.640000E+03	1.296686E-16	2.645677E-18
3.650000E+03	1.352894E-16	2.760331E-18
3.660000E+03	1.412308E-16	2.881526E-18
3.670000E+03	1.475950E-16	3.011341E-18
3.680000E+03	1.541628E-16	3.145310E-18
3.690000E+03	1.610260E-16	3.285302E-18
3.700000E+03	1.682926E-16	3.433522E-18
3.710000E+03	1.757068E-16	3.584750E-18
3.720000E+03	1.833687E-16	3.741029E-18
3.730000E+03	1.914003E-16	3.904846E-18
3.740000E+03	1.995153E-16	4.070362E-18
3.750000E+03	2.078367E-16	4.240084E-18
3.760000E+03	2.165170E-16	4.417127E-18
3.770000E+03	2.252533E-16	4.595308E-18
3.780000E+03	2.342094E-16	4.777968E-18
3.790000E+03	2.435838E-16	4.969160E-18
3.800000E+03	2.530653E-16	5.162531E-18
3.810000E+03	2.628656E-16	5.362402E-18
3.820000E+03	2.730357E-16	5.569814E-18
3.830000E+03	2.838373E-16	5.790105E-18
3.840000E+03	2.949328E-16	6.016384E-18
3.850000E+03	3.065819E-16	6.253955E-18
3.860000E+03	3.190754E-16	6.508742E-18
3.870000E+03	3.320212E-16	6.772753E-18
3.880000E+03	3.456860E-16	7.051424E-18
3.890000E+03	3.603602E-16	7.350682E-18
3.900000E+03	3.755556E-16	7.660564E-18
3.910000E+03	3.915145E-16	7.986014E-18
3.920000E+03	4.084998E-16	8.332393E-18
3.930000E+03	4.258893E-16	8.687009E-18
3.940000E+03	4.438851E-16	9.053987E-18
3.950000E+03	4.627159E-16	9.437989E-18
3.960000E+03	4.816172E-16	9.823421E-18
3.970000E+03	5.007676E-16	1.021393E-17
3.980000E+03	5.200181E-16	1.060647E-17
3.990000E+03	5.395933E-16	1.100562E-17
3.999086E+03	5.031661E-16	1.026256E-17
4.000348E+03	4.961735E-16	1.011993E-17
4.001610E+03	4.951577E-16	1.009920E-17
4.002872E+03	4.940632E-16	1.007686E-17
4.004135E+03	4.922052E-16	1.003895E-17
4.005397E+03	4.752099E-16	9.692306E-18
4.006659E+03	4.622433E-16	9.427830E-18
4.007922E+03	4.476718E-16	9.130622E-18
4.009184E+03	4.485004E-16	9.147510E-18
4.010446E+03	4.567257E-16	9.315260E-18
4.011709E+03	4.598440E-16	9.378848E-18
4.014233E+03	4.706597E-16	9.599419E-18
4.015495E+03	4.650392E-16	9.484773E-18
4.016758E+03	4.604455E-16	9.391070E-18
4.019282E+03	4.642858E-16	9.469372E-18
4.020544E+03	4.768507E-16	9.725629E-18
4.021807E+03	4.891780E-16	9.977039E-18
4.023069E+03	4.963468E-16	1.012324E-17
4.024331E+03	5.016732E-16	1.023186E-17
4.025593E+03	5.046312E-16	1.029218E-17
4.026856E+03	5.051682E-16	1.030312E-17
4.028118E+03	5.101255E-16	1.040421E-17
4.029380E+03	4.996382E-16	1.019031E-17
4.030643E+03	4.866783E-16	9.925973E-18
4.031905E+03	4.728249E-16	9.643415E-18
4.033167E+03	4.667593E-16	9.519695E-18
4.034429E+03	4.832397E-16	9.855806E-18
4.035692E+03	4.912219E-16	1.001859E-17
4.036954E+03	4.962049E-16	1.012021E-17
4.038216E+03	4.947165E-16	1.008984E-17
4.039479E+03	4.947013E-16	1.008952E-17
4.040741E+03	4.902670E-16	9.999068E-18
4.042003E+03	4.862802E-16	9.917745E-18
4.043265E+03	4.873961E-16	9.940492E-18
4.044528E+03	4.844879E-16	9.881167E-18
4.045790E+03	4.863140E-16	9.918397E-18
4.047052E+03	4.946621E-16	1.008865E-17
4.048314E+03	5.053502E-16	1.030662E-17
4.049577E+03	5.115671E-16	1.043340E-17
4.050839E+03	5.158113E-16	1.051995E-17
4.052101E+03	5.132184E-16	1.046705E-17
4.053363E+03	5.118351E-16	1.043883E-17
4.057150E+03	5.179400E-16	1.056330E-17
4.058413E+03	5.294924E-16	1.079889E-17
4.059675E+03	5.395454E-16	1.100391E-17
4.060937E+03	5.512279E-16	1.124216E-17
4.062199E+03	5.595970E-16	1.141283E-17
4.063462E+03	5.511673E-16	1.124090E-17
4.064724E+03	5.377171E-16	1.096657E-17
4.065986E+03	5.361495E-16	1.093458E-17
4.067249E+03	5.269590E-16	1.074713E-17
4.068511E+03	5.191095E-16	1.058703E-17
4.069773E+03	5.069236E-16	1.033850E-17
4.071035E+03	4.995484E-16	1.018807E-17
4.072298E+03	5.013726E-16	1.022526E-17
4.073560E+03	5.005160E-16	1.020778E-17
4.074822E+03	5.033125E-16	1.026480E-17
4.076084E+03	5.025347E-16	1.024892E-17
4.077347E+03	4.874082E-16	9.940416E-18
4.078609E+03	4.744901E-16	9.676947E-18
4.079871E+03	4.720315E-16	9.626793E-18
4.081133E+03	4.646329E-16	9.475891E-18
4.082396E+03	4.678767E-16	9.542036E-18
4.083658E+03	4.641573E-16	9.466169E-18
4.084920E+03	4.698969E-16	9.583213E-18
4.086183E+03	4.816266E-16	9.822421E-18
4.087445E+03	4.972441E-16	1.014092E-17
4.088707E+03	5.070018E-16	1.033991E-17
4.089969E+03	5.104013E-16	1.040922E-17
4.091232E+03	5.243876E-16	1.069445E-17
4.096281E+03	5.370878E-16	1.095341E-17
4.097543E+03	5.465532E-16	1.114643E-17
4.098805E+03	5.636613E-16	1.149532E-17
4.100068E+03	5.789298E-16	1.180669E-17
4.101330E+03	5.891809E-16	1.201574E-17
4.102592E+03	6.129569E-16	1.250061E-17
4.103854E+03	6.269617E-16	1.278621E-17
4.105117E+03	6.262856E-16	1.277240E-17
4.106379E+03	6.368490E-16	1.298782E-17
4.107641E+03	6.465976E-16	1.318662E-17
4.108904E+03	6.400125E-16	1.305231E-17
4.110166E+03	6.346095E-16	1.294210E-17
4.111428E+03	6.423618E-16	1.310018E-17
4.112690E+03	6.576230E-16	1.341140E-17
4.113953E+03	6.691810E-16	1.364710E-17
4.115215E+03	6.719956E-16	1.370448E-17
4.116477E+03	6.727883E-16	1.372063E-17
4.117739E+03	6.740536E-16	1.374642E-17
4.119002E+03	6.746099E-16	1.375775E-17
4.120264E+03	6.686820E-16	1.363684E-17
4.121526E+03	6.735174E-16	1.373543E-17
4.122788E+03	6.763312E-16	1.379280E-17
4.124051E+03	6.729761E-16	1.372436E-17
4.125313E+03	6.735586E-16	1.373623E-17
4.126575E+03	6.751123E-16	1.376789E-17
4.127838E+03	6.778469E-16	1.382365E-17
4.129100E+03	6.769069E-16	1.380446E-17
4.130362E+03	6.858088E-16	1.398598E-17
4.131624E+03	6.981745E-16	1.423815E-17
4.132887E+03	7.015378E-16	1.430672E-17
4.134149E+03	6.956110E-16	1.418583E-17
4.135411E+03	6.847775E-16	1.396489E-17
4.136673E+03	6.685390E-16	1.363371E-17
4.137936E+03	6.526951E-16	1.331059E-17
4.139198E+03	6.487910E-16	1.323096E-17
4.140460E+03	6.447561E-16	1.314865E-17
4.141723E+03	6.481202E-16	1.321724E-17
4.142985E+03	6.533996E-16	1.332489E-17
4.144247E+03	6.543758E-16	1.334479E-17
4.145510E+03	6.419197E-16	1.309075E-17
4.146772E+03	6.268147E-16	1.278270E-17
4.148034E+03	6.129960E-16	1.250088E-17
4.149296E+03	6.030344E-16	1.229771E-17
4.150559E+03	5.927587E-16	1.208815E-17
4.151821E+03	5.903791E-16	1.203961E-17
4.153083E+03	5.855865E-16	1.194186E-17
4.154345E+03	5.719811E-16	1.166439E-17
4.155608E+03	5.673992E-16	1.157094E-17
4.156870E+03	5.602736E-16	1.142561E-17
4.158132E+03	5.498175E-16	1.121237E-17
4.159395E+03	5.443974E-16	1.110182E-17
4.160657E+03	5.421511E-16	1.105600E-17
4.161919E+03	5.302280E-16	1.081284E-17
4.163181E+03	5.308143E-16	1.082479E-17
4.164444E+03	5.375890E-16	1.096293E-17
4.165706E+03	5.380177E-16	1.097166E-17
4.166968E+03	5.312355E-16	1.083334E-17
4.168230E+03	5.148311E-16	1.049879E-17
4.169493E+03	4.960679E-16	1.011615E-17
4.170755E+03	4.821826E-16	9.832979E-18
4.172017E+03	4.799911E-16	9.788279E-18
4.173279E+03	4.817061E-16	9.823241E-18
4.174542E+03	4.750844E-16	9.688194E-18
4.175804E+03	4.705340E-16	9.595390E-18
4.177066E+03	4.703880E-16	9.592400E-18
4.178329E+03	4.793641E-16	9.775436E-18
4.179591E+03	4.894145E-16	9.980375E-18
4.180853E+03	4.873543E-16	9.938351E-18
4.182115E+03	4.812578E-16	9.814017E-18
4.183378E+03	4.793291E-16	9.774675E-18
4.184640E+03	4.757492E-16	9.701662E-18
4.185902E+03	4.743188E-16	9.672481E-18
4.187164E+03	4.856253E-16	9.903035E-18
4.188427E+03	4.971668E-16	1.013838E-17
4.189689E+03	5.027852E-16	1.025294E-17
4.190951E+03	5.114692E-16	1.043002E-17
4.192214E+03	5.140994E-16	1.048364E-17
4.193476E+03	5.011647E-16	1.021986E-17
4.194738E+03	4.954103E-16	1.010250E-17
4.196000E+03	4.999011E-16	1.019407E-17
4.197263E+03	4.871252E-16	9.933530E-18
4.198525E+03	4.737215E-16	9.660187E-18
4.201050E+03	4.613254E-16	9.407385E-18
4.202312E+03	4.578788E-16	9.337090E-18
4.203574E+03	4.601955E-16	9.384321E-18
4.204836E+03	4.549154E-16	9.276639E-18
4.206099E+03	4.454183E-16	9.082962E-18
4.207361E+03	4.269895E-16	8.707153E-18
4.208623E+03	4.089549E-16	8.339382E-18
4.209885E+03	4.089417E-16	8.339104E-18
4.211148E+03	4.047379E-16	8.253370E-18
4.212410E+03	3.959247E-16	8.073643E-18
4.213672E+03	3.973001E-16	8.101681E-18
4.214935E+03	4.034941E-16	8.227978E-18
4.216197E+03	4.083782E-16	8.327565E-18
4.217459E+03	4.150953E-16	8.464528E-18
4.219984E+03	4.174775E-16	8.513086E-18
4.221246E+03	4.233295E-16	8.632408E-18
4.222508E+03	4.295476E-16	8.759196E-18
4.223770E+03	4.328066E-16	8.825642E-18
4.225033E+03	4.335781E-16	8.841365E-18
4.226295E+03	4.403450E-16	8.979343E-18
4.227557E+03	4.568508E-16	9.315911E-18
4.228819E+03	4.676220E-16	9.535543E-18
4.230082E+03	4.703819E-16	9.591809E-18
4.231344E+03	4.659950E-16	9.502342E-18
4.232606E+03	4.543573E-16	9.265021E-18
4.233869E+03	4.459923E-16	9.094437E-18
4.235131E+03	4.447737E-16	9.069578E-18
4.236393E+03	4.435815E-16	9.045257E-18
4.237655E+03	4.422061E-16	9.017200E-18
4.238918E+03	4.433695E-16	9.040913E-18
4.240180E+03	4.470192E-16	9.115325E-18
4.241442E+03	4.546206E-16	9.270317E-18
4.242704E+03	4.616980E-16	9.414624E-18
4.243967E+03	4.551930E-16	9.281968E-18
4.245229E+03	4.478510E-16	9.132244E-18
4.246491E+03	4.465543E-16	9.105791E-18
4.247754E+03	4.468799E-16	9.112421E-18
4.249016E+03	4.430452E-16	9.034217E-18
4.250278E+03	4.496767E-16	9.169430E-18
4.251540E+03	4.516768E-16	9.210203E-18
4.252803E+03	4.524209E-16	9.225366E-18
4.254065E+03	4.568799E-16	9.316281E-18
4.255327E+03	4.647922E-16	9.477610E-18
4.256590E+03	4.732794E-16	9.650661E-18
4.257852E+03	4.789669E-16	9.766624E-18
4.259114E+03	4.858574E-16	9.907118E-18
4.260376E+03	4.898700E-16	9.988927E-18
4.261639E+03	4.813266E-16	9.814708E-18
4.262901E+03	4.700636E-16	9.585032E-18
4.264163E+03	4.651309E-16	9.484439E-18
4.265426E+03	4.686989E-16	9.557184E-18
4.266688E+03	4.755361E-16	9.696590E-18
4.267950E+03	4.777959E-16	9.742658E-18
4.269212E+03	4.736744E-16	9.658605E-18
4.270475E+03	4.664933E-16	9.512167E-18
4.271737E+03	4.593913E-16	9.367340E-18
4.272999E+03	4.447845E-16	9.069487E-18
4.274261E+03	4.292375E-16	8.752461E-18
4.275524E+03	4.203592E-16	8.571417E-18
4.276786E+03	4.114292E-16	8.389318E-18
4.278048E+03	4.092717E-16	8.345316E-18
4.279310E+03	3.968391E-16	8.091798E-18
4.280573E+03	3.911266E-16	7.975307E-18
4.281835E+03	3.827738E-16	7.804980E-18
4.283097E+03	3.731929E-16	7.609611E-18
4.284360E+03	3.728408E-16	7.602423E-18
4.285622E+03	3.613265E-16	7.367631E-18
4.286884E+03	3.427809E-16	6.989471E-18
4.288146E+03	3.262232E-16	6.651843E-18
4.289409E+03	3.130909E-16	6.384062E-18
4.290671E+03	3.026777E-16	6.171725E-18
4.291933E+03	2.916379E-16	5.946612E-18
4.293195E+03	2.821147E-16	5.752424E-18
4.294458E+03	2.702139E-16	5.509755E-18
4.295720E+03	2.576291E-16	5.253140E-18
4.296982E+03	2.477761E-16	5.052229E-18
4.298245E+03	2.342729E-16	4.776890E-18
4.299507E+03	2.185965E-16	4.457239E-18
4.300769E+03	2.029655E-16	4.138514E-18
4.305818E+03	1.846154E-16	3.764335E-18
4.307081E+03	1.647687E-16	3.359654E-18
4.308343E+03	1.542450E-16	3.145070E-18
4.309605E+03	1.468987E-16	2.995276E-18
4.310867E+03	1.386700E-16	2.827488E-18
4.312130E+03	1.320745E-16	2.693002E-18
4.313392E+03	1.171751E-16	2.389201E-18
4.314654E+03	9.793263E-17	1.996844E-18
4.315916E+03	8.851286E-17	1.804773E-18
4.317179E+03	8.502293E-17	1.733612E-18
4.318441E+03	8.750664E-17	1.784253E-18
4.322228E+03	9.109944E-17	1.857503E-18
4.326015E+03	8.958101E-17	1.826537E-18
4.327277E+03	9.605407E-17	1.958519E-18
4.328539E+03	1.045530E-16	2.131807E-18
4.329801E+03	1.005702E-16	2.050597E-18
4.331064E+03	8.875972E-17	1.809783E-18
4.332326E+03	8.771763E-17	1.788533E-18
4.333588E+03	9.351345E-17	1.906705E-18
4.334850E+03	8.830446E-17	1.800494E-18
4.336113E+03	8.514520E-17	1.736076E-18
4.337375E+03	9.865488E-17	2.011530E-18
4.338637E+03	1.142442E-16	2.329388E-18
4.339900E+03	1.225677E-16	2.499097E-18
4.341162E+03	1.236261E-16	2.520675E-18
4.342424E+03	1.239352E-16	2.526974E-18
4.343686E+03	1.299084E-16	2.648762E-18
4.344949E+03	1.420958E-16	2.897253E-18
4.346211E+03	1.584427E-16	3.230553E-18
4.347473E+03	1.707171E-16	3.480818E-18
4.348735E+03	1.899719E-16	3.873407E-18
4.349998E+03	2.157629E-16	4.399264E-18
4.351260E+03	2.379665E-16	4.851975E-18
4.352522E+03	2.405447E-16	4.904536E-18
4.353785E+03	2.414683E-16	4.923362E-18
4.355047E+03	2.529076E-16	5.156597E-18
4.356309E+03	2.684454E-16	5.473394E-18
4.357571E+03	2.734462E-16	5.575350E-18
4.358834E+03	2.785509E-16	5.679426E-18
4.360096E+03	2.862384E-16	5.836160E-18
4.361358E+03	3.011521E-16	6.140230E-18
4.362620E+03	3.186475E-16	6.496940E-18
4.363883E+03	3.282633E-16	6.692990E-18
4.365145E+03	3.416350E-16	6.965619E-18
4.366407E+03	3.604576E-16	7.349387E-18
4.367670E+03	3.769054E-16	7.684734E-18
4.368932E+03	3.936650E-16	8.026437E-18
4.370194E+03	4.146752E-16	8.454804E-18
4.371456E+03	4.235033E-16	8.634790E-18
4.372719E+03	4.312355E-16	8.792431E-18
4.373981E+03	4.462696E-16	9.098951E-18
4.375243E+03	4.644585E-16	9.469792E-18
4.376506E+03	4.817856E-16	9.823062E-18
4.377768E+03	4.903232E-16	9.997122E-18
4.379030E+03	4.855346E-16	9.899477E-18
4.380292E+03	4.827020E-16	9.841714E-18
4.381555E+03	4.869100E-16	9.927499E-18
4.382817E+03	4.985231E-16	1.016426E-17
4.384079E+03	5.100049E-16	1.039835E-17
4.385341E+03	5.188266E-16	1.057820E-17
4.386604E+03	5.336703E-16	1.088083E-17
4.387866E+03	5.535708E-16	1.128657E-17
4.389128E+03	5.597048E-16	1.141162E-17
4.390391E+03	5.623189E-16	1.146491E-17
4.391653E+03	5.710070E-16	1.164203E-17
4.392915E+03	5.844387E-16	1.191587E-17
4.394177E+03	5.918742E-16	1.206746E-17
4.395440E+03	5.958685E-16	1.214888E-17
4.396702E+03	6.076298E-16	1.238866E-17
4.397964E+03	6.261150E-16	1.276554E-17
4.399226E+03	6.448595E-16	1.314769E-17
4.400489E+03	6.573218E-16	1.340176E-17
4.401751E+03	6.590457E-16	1.343690E-17
4.403013E+03	6.546714E-16	1.334770E-17
4.404276E+03	6.517827E-16	1.328879E-17
4.405538E+03	6.549138E-16	1.335261E-17
4.406800E+03	6.675039E-16	1.360929E-17
4.408062E+03	6.807705E-16	1.387976E-17
4.409325E+03	6.834574E-16	1.393452E-17
4.410587E+03	6.889320E-16	1.404612E-17
4.411849E+03	6.969856E-16	1.421031E-17
4.413111E+03	6.996457E-16	1.426453E-17
4.414374E+03	7.017844E-16	1.430811E-17
4.415636E+03	7.028810E-16	1.433046E-17
4.416898E+03	7.038471E-16	1.435014E-17
4.418161E+03	7.161189E-16	1.460032E-17
4.419423E+03	7.241179E-16	1.476339E-17
4.420685E+03	7.293552E-16	1.487015E-17
4.421947E+03	7.360507E-16	1.500664E-17
4.423210E+03	7.411049E-16	1.510967E-17
4.424472E+03	7.518367E-16	1.532846E-17
4.425734E+03	7.744703E-16	1.578989E-17
4.426997E+03	7.973887E-16	1.625714E-17
4.428259E+03	8.113990E-16	1.654276E-17
4.429521E+03	8.193403E-16	1.670465E-17
4.430783E+03	8.214479E-16	1.674760E-17
4.432046E+03	8.205087E-16	1.672843E-17
4.433308E+03	8.203246E-16	1.672466E-17
4.434570E+03	8.167554E-16	1.665188E-17
4.435832E+03	8.153737E-16	1.662369E-17
4.437095E+03	8.287290E-16	1.689595E-17
4.438357E+03	8.442444E-16	1.721226E-17
4.439619E+03	8.518960E-16	1.736824E-17
4.440882E+03	8.569697E-16	1.747166E-17
4.442144E+03	8.575653E-16	1.748379E-17
4.443406E+03	8.597750E-16	1.752882E-17
4.444668E+03	8.640670E-16	1.761630E-17
4.445931E+03	8.713522E-16	1.776481E-17
4.447193E+03	8.840511E-16	1.802369E-17
4.448455E+03	8.903200E-16	1.815148E-17
4.449717E+03	8.982542E-16	1.831322E-17
4.450980E+03	9.051728E-16	1.845425E-17
4.452242E+03	9.086815E-16	1.852577E-17
4.453504E+03	8.980061E-16	1.830810E-17
4.454766E+03	8.826470E-16	1.799495E-17
4.456029E+03	8.775684E-16	1.789139E-17
4.457291E+03	8.846946E-16	1.803666E-17
4.458553E+03	8.916383E-16	1.817820E-17
4.459816E+03	8.908012E-16	1.816111E-17
4.461078E+03	8.865034E-16	1.807347E-17
4.462340E+03	8.869675E-16	1.808292E-17
4.463602E+03	8.836328E-16	1.801491E-17
4.464865E+03	8.702816E-16	1.774270E-17
4.466127E+03	8.599233E-16	1.753150E-17
4.467389E+03	8.571623E-16	1.747519E-17
4.468651E+03	8.622839E-16	1.757959E-17
4.469914E+03	8.720356E-16	1.777838E-17
4.471176E+03	8.749451E-16	1.783768E-17
4.472438E+03	8.675277E-16	1.768644E-17
4.473701E+03	8.566773E-16	1.746521E-17
4.474963E+03	8.532666E-16	1.739566E-17
4.476225E+03	8.538876E-16	1.740830E-17
4.477487E+03	8.456135E-16	1.723960E-17
4.478750E+03	8.248825E-16	1.681693E-17
4.480012E+03	8.146075E-16	1.660744E-17
4.481274E+03	8.142935E-16	1.660102E-17
4.482537E+03	8.073222E-16	1.645888E-17
4.483799E+03	7.950206E-16	1.620807E-17
4.485061E+03	7.864383E-16	1.603308E-17
4.486323E+03	7.823289E-16	1.594929E-17
4.487586E+03	7.806379E-16	1.591479E-17
4.488848E+03	7.744489E-16	1.578860E-17
4.490110E+03	7.718223E-16	1.573504E-17
4.491372E+03	7.744736E-16	1.578907E-17
4.492635E+03	7.721071E-16	1.574081E-17
4.493897E+03	7.683629E-16	1.566446E-17
