#wls	flux	fluxerr
1.600000E+03	1.735294E-15	1.209874E-15
1.640000E+03	1.758931E-15	1.156995E-15
1.680000E+03	1.775076E-15	1.095875E-15
1.720000E+03	1.782692E-15	1.027341E-15
1.760000E+03	1.780838E-15	9.526782E-16
1.800000E+03	1.768754E-15	8.736639E-16
1.840000E+03	1.745816E-15	7.925050E-16
1.880000E+03	1.711927E-15	7.119153E-16
1.920000E+03	1.667740E-15	6.349676E-16
1.960000E+03	1.613888E-15	5.644473E-16
2.000000E+03	1.552336E-15	5.028915E-16
2.040000E+03	1.485422E-15	4.516391E-16
2.080000E+03	1.416388E-15	4.106397E-16
2.120000E+03	1.348647E-15	3.784478E-16
2.160000E+03	1.286120E-15	3.532548E-16
2.200000E+03	1.232124E-15	3.336328E-16
2.240000E+03	1.189021E-15	3.188653E-16
2.280000E+03	1.158136E-15	3.085675E-16
2.320000E+03	1.139494E-15	3.019990E-16
2.360000E+03	1.131837E-15	2.977676E-16
2.400000E+03	1.133386E-15	2.941946E-16
2.440000E+03	1.141547E-15	2.896801E-16
2.480000E+03	1.153610E-15	2.834142E-16
2.520000E+03	1.166780E-15	2.758902E-16
2.560000E+03	1.178413E-15	2.692303E-16
2.600000E+03	1.185988E-15	2.666658E-16
2.640000E+03	1.187663E-15	2.708605E-16
2.680000E+03	1.182317E-15	2.818028E-16
2.720000E+03	1.169655E-15	2.966637E-16
2.760000E+03	1.150056E-15	3.115633E-16
2.800000E+03	1.124400E-15	3.232258E-16
2.840000E+03	1.094035E-15	3.296589E-16
2.880000E+03	1.060371E-15	3.300473E-16
2.920000E+03	1.024891E-15	3.245228E-16
2.960000E+03	9.891022E-16	3.138865E-16
3.000000E+03	9.543583E-16	2.993120E-16
3.010000E+03	9.460136E-16	2.952196E-16
3.020000E+03	9.378105E-16	2.909810E-16
3.030000E+03	9.298157E-16	2.866329E-16
3.040000E+03	9.219964E-16	2.821811E-16
3.050000E+03	9.144174E-16	2.776610E-16
3.060000E+03	9.070939E-16	2.730920E-16
3.070000E+03	8.999944E-16	2.684790E-16
3.080000E+03	8.931811E-16	2.638543E-16
3.090000E+03	8.866684E-16	2.592348E-16
3.100000E+03	8.804264E-16	2.546230E-16
3.110000E+03	8.745592E-16	2.500596E-16
3.120000E+03	8.689924E-16	2.455318E-16
3.130000E+03	8.637848E-16	2.410641E-16
3.140000E+03	8.589079E-16	2.366542E-16
3.150000E+03	8.544613E-16	2.323342E-16
3.160000E+03	8.504156E-16	2.280980E-16
3.170000E+03	8.467841E-16	2.239501E-16
3.180000E+03	8.435385E-16	2.198825E-16
3.190000E+03	8.407730E-16	2.159175E-16
3.200000E+03	8.384574E-16	2.120433E-16
3.210000E+03	8.366014E-16	2.082574E-16
3.220000E+03	8.352527E-16	2.045657E-16
3.230000E+03	8.343385E-16	2.009433E-16
3.240000E+03	8.339420E-16	1.974033E-16
3.250000E+03	8.340261E-16	1.939293E-16
3.260000E+03	8.346294E-16	1.905228E-16
3.270000E+03	8.356724E-16	1.871589E-16
3.280000E+03	8.372660E-16	1.838564E-16
3.290000E+03	8.393274E-16	1.805918E-16
3.300000E+03	8.418499E-16	1.773603E-16
3.310000E+03	8.448645E-16	1.741669E-16
3.320000E+03	8.483277E-16	1.710030E-16
3.330000E+03	8.522743E-16	1.678785E-16
3.340000E+03	8.567057E-16	1.647991E-16
3.350000E+03	8.616302E-16	1.617747E-16
3.360000E+03	8.670271E-16	1.588136E-16
3.370000E+03	8.729620E-16	1.559433E-16
3.380000E+03	8.794758E-16	1.531906E-16
3.390000E+03	8.866244E-16	1.505882E-16
3.400000E+03	8.944793E-16	1.481755E-16
3.410000E+03	9.031278E-16	1.459977E-16
3.420000E+03	9.127092E-16	1.441112E-16
3.430000E+03	9.232603E-16	1.425579E-16
3.440000E+03	9.349350E-16	1.413987E-16
3.450000E+03	9.478827E-16	1.406913E-16
3.460000E+03	9.621198E-16	1.404688E-16
3.470000E+03	9.778214E-16	1.407798E-16
3.480000E+03	9.948828E-16	1.416210E-16
3.490000E+03	1.013336E-15	1.429967E-16
3.500000E+03	1.033037E-15	1.448730E-16
3.510000E+03	1.053867E-15	1.472085E-16
3.520000E+03	1.075627E-15	1.499414E-16
3.530000E+03	1.098044E-15	1.529939E-16
3.540000E+03	1.120911E-15	1.562933E-16
3.550000E+03	1.143936E-15	1.597538E-16
3.560000E+03	1.166919E-15	1.633028E-16
3.570000E+03	1.189640E-15	1.668666E-16
3.580000E+03	1.211915E-15	1.703793E-16
3.590000E+03	1.233605E-15	1.737848E-16
3.600000E+03	1.254628E-15	1.770389E-16
3.610000E+03	1.274923E-15	1.801036E-16
3.620000E+03	1.294631E-15	1.829742E-16
3.630000E+03	1.313834E-15	1.856406E-16
3.640000E+03	1.332728E-15	1.881120E-16
3.650000E+03	1.351578E-15	1.904099E-16
3.660000E+03	1.370754E-15	1.925725E-16
3.670000E+03	1.390538E-15	1.946267E-16
3.680000E+03	1.411434E-15	1.966306E-16
3.690000E+03	1.433831E-15	1.986260E-16
3.700000E+03	1.458222E-15	2.006674E-16
3.710000E+03	1.484995E-15	2.027935E-16
3.720000E+03	1.514616E-15	2.050502E-16
3.730000E+03	1.547412E-15	2.074625E-16
3.740000E+03	1.583704E-15	2.100513E-16
3.750000E+03	1.623792E-15	2.128320E-16
3.760000E+03	1.667839E-15	2.157994E-16
3.770000E+03	1.715849E-15	2.189267E-16
3.780000E+03	1.767757E-15	2.221785E-16
3.790000E+03	1.823472E-15	2.255179E-16
3.800000E+03	1.882544E-15	2.288676E-16
3.810000E+03	1.944476E-15	2.321520E-16
3.820000E+03	2.008677E-15	2.352948E-16
3.830000E+03	2.074358E-15	2.382087E-16
3.840000E+03	2.140600E-15	2.408078E-16
3.850000E+03	2.206316E-15	2.430051E-16
3.860000E+03	2.270464E-15	2.447384E-16
3.870000E+03	2.331908E-15	2.459525E-16
3.880000E+03	2.389450E-15	2.466022E-16
3.890000E+03	2.442079E-15	2.466739E-16
3.900000E+03	2.488828E-15	2.461663E-16
3.910000E+03	2.528889E-15	2.450975E-16
3.920000E+03	2.561589E-15	2.434973E-16
3.930000E+03	2.586628E-15	2.414252E-16
3.940000E+03	2.603817E-15	2.389413E-16
3.950000E+03	2.613352E-15	2.361282E-16
3.960000E+03	2.615587E-15	2.330675E-16
3.970000E+03	2.611067E-15	2.298416E-16
3.980000E+03	2.600430E-15	2.265234E-16
3.990000E+03	2.584483E-15	2.231836E-16
4.000000E+03	2.564159E-15	2.198864E-16
4.010000E+03	2.540341E-15	2.166752E-16
4.020000E+03	2.513830E-15	2.135716E-16
4.030000E+03	2.485492E-15	2.105907E-16
4.040000E+03	2.456000E-15	2.077233E-16
4.050000E+03	2.426008E-15	2.049554E-16
4.060000E+03	2.396153E-15	2.022737E-16
4.070000E+03	2.366892E-15	1.996557E-16
4.080000E+03	2.338685E-15	1.970873E-16
4.090000E+03	2.311995E-15	1.945633E-16
4.100000E+03	2.287089E-15	1.920698E-16
4.110000E+03	2.264398E-15	1.896141E-16
4.120000E+03	2.244118E-15	1.871889E-16
4.130000E+03	2.226556E-15	1.848011E-16
4.140000E+03	2.211985E-15	1.824564E-16
4.150000E+03	2.200508E-15	1.801470E-16
4.160000E+03	2.192301E-15	1.778687E-16
4.170000E+03	2.187612E-15	1.756194E-16
4.180000E+03	2.186448E-15	1.733724E-16
4.190000E+03	2.189032E-15	1.711116E-16
4.200000E+03	2.195491E-15	1.688054E-16
4.210000E+03	2.205904E-15	1.664100E-16
4.220000E+03	2.220385E-15	1.638749E-16
4.230000E+03	2.238997E-15	1.611345E-16
4.240000E+03	2.261910E-15	1.581193E-16
4.250000E+03	2.289134E-15	1.547354E-16
4.260000E+03	2.320627E-15	1.508745E-16
4.270000E+03	2.356360E-15	1.464209E-16
4.280000E+03	2.396122E-15	1.412432E-16
4.290000E+03	2.439672E-15	1.352125E-16
4.300000E+03	2.486503E-15	1.281994E-16
4.310000E+03	2.536150E-15	1.201061E-16
4.320000E+03	2.587895E-15	1.108724E-16
4.330000E+03	2.640936E-15	1.005172E-16
4.340000E+03	2.694549E-15	8.920051E-17
4.350000E+03	2.748066E-15	7.732224E-17
4.360000E+03	2.801049E-15	6.572320E-17
4.370000E+03	2.853635E-15	5.604134E-17
4.380000E+03	2.906559E-15	5.104819E-17
4.390000E+03	2.960721E-15	5.346848E-17
4.400000E+03	3.016633E-15	6.290723E-17
4.410000E+03	3.074216E-15	7.645841E-17
4.420000E+03	3.132874E-15	9.164204E-17
4.430000E+03	3.191976E-15	1.070452E-16
4.440000E+03	3.250619E-15	1.219119E-16
4.450000E+03	3.307891E-15	1.358325E-16
4.460000E+03	3.362849E-15	1.485861E-16
4.470000E+03	3.414554E-15	1.600667E-16
4.480000E+03	3.461998E-15	1.702407E-16
4.490000E+03	3.504453E-15	1.791399E-16
4.500000E+03	3.541143E-15	1.868284E-16
4.510000E+03	3.571497E-15	1.933980E-16
4.520000E+03	3.595117E-15	1.989512E-16
4.530000E+03	3.611746E-15	2.035850E-16
4.540000E+03	3.621434E-15	2.073884E-16
4.550000E+03	3.624308E-15	2.104248E-16
4.560000E+03	3.620708E-15	2.127415E-16
4.570000E+03	3.611104E-15	2.143726E-16
4.580000E+03	3.596059E-15	2.153485E-16
4.590000E+03	3.576150E-15	2.157030E-16
4.600000E+03	3.552044E-15	2.154870E-16
4.610000E+03	3.524481E-15	2.147713E-16
4.620000E+03	3.494106E-15	2.136351E-16
4.630000E+03	3.461612E-15	2.121683E-16
4.640000E+03	3.427674E-15	2.104598E-16
4.650000E+03	3.392891E-15	2.085885E-16
4.660000E+03	3.357905E-15	2.066254E-16
4.670000E+03	3.323208E-15	2.046207E-16
4.680000E+03	3.289260E-15	2.026108E-16
4.690000E+03	3.256437E-15	2.006167E-16
4.700000E+03	3.225030E-15	1.986461E-16
4.710000E+03	3.195250E-15	1.966946E-16
4.720000E+03	3.167202E-15	1.947462E-16
4.730000E+03	3.141018E-15	1.927838E-16
4.740000E+03	3.116706E-15	1.907835E-16
4.750000E+03	3.094282E-15	1.887265E-16
4.760000E+03	3.073733E-15	1.866006E-16
4.770000E+03	3.055024E-15	1.844032E-16
4.780000E+03	3.038103E-15	1.821430E-16
4.790000E+03	3.022909E-15	1.798399E-16
4.800000E+03	3.009347E-15	1.775213E-16
4.810000E+03	2.997406E-15	1.752276E-16
4.820000E+03	2.987059E-15	1.730043E-16
4.830000E+03	2.978264E-15	1.709015E-16
4.840000E+03	2.971072E-15	1.689804E-16
4.850000E+03	2.965440E-15	1.673001E-16
4.860000E+03	2.961506E-15	1.659287E-16
4.870000E+03	2.959191E-15	1.649138E-16
4.880000E+03	2.958574E-15	1.642934E-16
4.890000E+03	2.959603E-15	1.640715E-16
4.900000E+03	2.962232E-15	1.642191E-16
4.910000E+03	2.966409E-15	1.646752E-16
4.920000E+03	2.971947E-15	1.653479E-16
4.930000E+03	2.978765E-15	1.661424E-16
4.940000E+03	2.986655E-15	1.669626E-16
4.950000E+03	2.995440E-15	1.677318E-16
4.960000E+03	3.004954E-15	1.683984E-16
4.970000E+03	3.015108E-15	1.689408E-16
4.980000E+03	3.025775E-15	1.693579E-16
4.990000E+03	3.037059E-15	1.696777E-16
5.000000E+03	3.049058E-15	1.699371E-16
5.010000E+03	3.062030E-15	1.701857E-16
5.020000E+03	3.076222E-15	1.704715E-16
5.030000E+03	3.091938E-15	1.708408E-16
5.040000E+03	3.109459E-15	1.713301E-16
5.050000E+03	3.129046E-15	1.719637E-16
5.060000E+03	3.150854E-15	1.727485E-16
5.070000E+03	3.174929E-15	1.736756E-16
5.080000E+03	3.201299E-15	1.747296E-16
5.090000E+03	3.230031E-15	1.758956E-16
5.100000E+03	3.261045E-15	1.771528E-16
5.110000E+03	3.294331E-15	1.784879E-16
5.120000E+03	3.329964E-15	1.798963E-16
5.130000E+03	3.367912E-15	1.813706E-16
5.140000E+03	3.408135E-15	1.829043E-16
5.150000E+03	3.450672E-15	1.844941E-16
5.160000E+03	3.495412E-15	1.861260E-16
5.170000E+03	3.542232E-15	1.877816E-16
5.180000E+03	3.590951E-15	1.894358E-16
5.190000E+03	3.641377E-15	1.910606E-16
5.200000E+03	3.693204E-15	1.926211E-16
5.210000E+03	3.746132E-15	1.940843E-16
5.220000E+03	3.799920E-15	1.954236E-16
5.230000E+03	3.854148E-15	1.966068E-16
5.240000E+03	3.908489E-15	1.976089E-16
5.250000E+03	3.962533E-15	1.984003E-16
5.260000E+03	4.015770E-15	1.989402E-16
5.270000E+03	4.067736E-15	1.991796E-16
5.280000E+03	4.117769E-15	1.990441E-16
5.290000E+03	4.165223E-15	1.984427E-16
5.300000E+03	4.209292E-15	1.972610E-16
5.310000E+03	4.249353E-15	1.953842E-16
5.320000E+03	4.284777E-15	1.926963E-16
5.330000E+03	4.315032E-15	1.890939E-16
5.340000E+03	4.339882E-15	1.845029E-16
5.350000E+03	4.359317E-15	1.788788E-16
5.360000E+03	4.373657E-15	1.722147E-16
5.370000E+03	4.383566E-15	1.645450E-16
5.380000E+03	4.390258E-15	1.559608E-16
5.390000E+03	4.395238E-15	1.466111E-16
5.400000E+03	4.400435E-15	1.367243E-16
5.410000E+03	4.408102E-15	1.266134E-16
5.420000E+03	4.420463E-15	1.166346E-16
5.430000E+03	4.439674E-15	1.070494E-16
5.440000E+03	4.466483E-15	9.767642E-17
5.450000E+03	4.499890E-15	8.774472E-17
5.460000E+03	4.537860E-15	7.646403E-17
5.470000E+03	4.578290E-15	6.402459E-17
5.480000E+03	4.619570E-15	5.304606E-17
5.490000E+03	4.660587E-15	4.982415E-17
5.500000E+03	4.700338E-15	5.872631E-17
5.510000E+03	4.737385E-15	7.539316E-17
5.520000E+03	4.770124E-15	9.428016E-17
5.530000E+03	4.797448E-15	1.126353E-16
5.540000E+03	4.818614E-15	1.293707E-16
5.550000E+03	4.833043E-15	1.441397E-16
5.560000E+03	4.840596E-15	1.569401E-16
5.570000E+03	4.841459E-15	1.679224E-16
5.580000E+03	4.836057E-15	1.772875E-16
5.590000E+03	4.825430E-15	1.852466E-16
5.600000E+03	4.810856E-15	1.919860E-16
5.610000E+03	4.794168E-15	1.976811E-16
5.620000E+03	4.777270E-15	2.024908E-16
5.630000E+03	4.762394E-15	2.065811E-16
5.640000E+03	4.751603E-15	2.101125E-16
5.650000E+03	4.747076E-15	2.132548E-16
5.660000E+03	4.750646E-15	2.161673E-16
5.670000E+03	4.764066E-15	2.190117E-16
5.680000E+03	4.788769E-15	2.219422E-16
5.690000E+03	4.825867E-15	2.251054E-16
5.700000E+03	4.876110E-15	2.286358E-16
5.710000E+03	4.939803E-15	2.326457E-16
5.720000E+03	5.016911E-15	2.372208E-16
5.730000E+03	5.106897E-15	2.424018E-16
5.740000E+03	5.208704E-15	2.481739E-16
5.750000E+03	5.320913E-15	2.544695E-16
5.760000E+03	5.441568E-15	2.611636E-16
5.770000E+03	5.568439E-15	2.680975E-16
5.780000E+03	5.698890E-15	2.750863E-16
5.790000E+03	5.830199E-15	2.819482E-16
5.800000E+03	5.959398E-15	2.885068E-16
5.810000E+03	6.083801E-15	2.946223E-16
5.820000E+03	6.200736E-15	3.001774E-16
5.830000E+03	6.307959E-15	3.050921E-16
5.840000E+03	6.403461E-15	3.093043E-16
5.850000E+03	6.485970E-15	3.127843E-16
5.860000E+03	6.554491E-15	3.155059E-16
5.870000E+03	6.608712E-15	3.174658E-16
5.880000E+03	6.648670E-15	3.186745E-16
5.890000E+03	6.674667E-15	3.191621E-16
5.900000E+03	6.687127E-15	3.189775E-16
5.910000E+03	6.686453E-15	3.181794E-16
5.920000E+03	6.672886E-15	3.168207E-16
5.930000E+03	6.646684E-15	3.149467E-16
5.940000E+03	6.607934E-15	3.125786E-16
5.950000E+03	6.556929E-15	3.097282E-16
5.960000E+03	6.494085E-15	3.063953E-16
5.970000E+03	6.419954E-15	3.025729E-16
5.980000E+03	6.335676E-15	2.982752E-16
5.990000E+03	6.242328E-15	2.935106E-16
6.000000E+03	6.141296E-15	2.883014E-16
6.010000E+03	6.034067E-15	2.826749E-16
6.020000E+03	5.922215E-15	2.766622E-16
6.030000E+03	5.807171E-15	2.702877E-16
6.040000E+03	5.690366E-15	2.635782E-16
6.050000E+03	5.573154E-15	2.565614E-16
6.060000E+03	5.456855E-15	2.492697E-16
6.070000E+03	5.342552E-15	2.417318E-16
6.080000E+03	5.231486E-15	2.339857E-16
6.090000E+03	5.124713E-15	2.260554E-16
6.100000E+03	5.023393E-15	2.179538E-16
6.110000E+03	4.928558E-15	2.096615E-16
6.120000E+03	4.841380E-15	2.011323E-16
6.130000E+03	4.762977E-15	1.922785E-16
6.140000E+03	4.694222E-15	1.829606E-16
6.150000E+03	4.635766E-15	1.729881E-16
6.160000E+03	4.587820E-15	1.621148E-16
6.170000E+03	4.550017E-15	1.500452E-16
6.180000E+03	4.521047E-15	1.364512E-16
6.190000E+03	4.498798E-15	1.210381E-16
6.200000E+03	4.479955E-15	1.036585E-16
6.210000E+03	4.460255E-15	8.459363E-17
6.220000E+03	4.434525E-15	6.521937E-17
6.230000E+03	4.397388E-15	4.970271E-17
6.240000E+03	4.344766E-15	4.622755E-17
6.250000E+03	4.276442E-15	5.691827E-17
6.260000E+03	4.196544E-15	7.346689E-17
6.270000E+03	4.110867E-15	9.011880E-17
6.280000E+03	4.024642E-15	1.049411E-16
6.290000E+03	3.942073E-15	1.175408E-16
6.300000E+03	3.865989E-15	1.280654E-16
6.310000E+03	3.798299E-15	1.368433E-16
6.320000E+03	3.739917E-15	1.442260E-16
6.330000E+03	3.691253E-15	1.505383E-16
6.340000E+03	3.652308E-15	1.560546E-16
6.350000E+03	3.622757E-15	1.609943E-16
6.360000E+03	3.602216E-15	1.655353E-16
6.370000E+03	3.590170E-15	1.698173E-16
6.380000E+03	3.586129E-15	1.739552E-16
6.390000E+03	3.589644E-15	1.780460E-16
6.400000E+03	3.600241E-15	1.821681E-16
6.410000E+03	3.617453E-15	1.863848E-16
6.420000E+03	3.640782E-15	1.907421E-16
6.430000E+03	3.669836E-15	1.952766E-16
6.440000E+03	3.704081E-15	2.000025E-16
6.450000E+03	3.743125E-15	2.049292E-16
6.460000E+03	3.786457E-15	2.100500E-16
6.470000E+03	3.833592E-15	2.153536E-16
6.480000E+03	3.884024E-15	2.208238E-16
6.490000E+03	3.937261E-15	2.264446E-16
6.500000E+03	3.992744E-15	2.321965E-16
6.510000E+03	4.049841E-15	2.380565E-16
6.520000E+03	4.107933E-15	2.440026E-16
6.530000E+03	4.166465E-15	2.500162E-16
6.540000E+03	4.224708E-15	2.560667E-16
6.550000E+03	4.282012E-15	2.621263E-16
6.560000E+03	4.337828E-15	2.681700E-16
6.570000E+03	4.391450E-15	2.741603E-16
6.580000E+03	4.442369E-15	2.800684E-16
6.590000E+03	4.489926E-15	2.858527E-16
6.600000E+03	4.533635E-15	2.914790E-16
6.610000E+03	4.573063E-15	2.969127E-16
6.620000E+03	4.607698E-15	3.021107E-16
6.630000E+03	4.637300E-15	3.070438E-16
6.640000E+03	4.661585E-15	3.116771E-16
6.650000E+03	4.680425E-15	3.159837E-16
6.660000E+03	4.693811E-15	3.199432E-16
6.670000E+03	4.701850E-15	3.235433E-16
6.680000E+03	4.704812E-15	3.267838E-16
6.690000E+03	4.702974E-15	3.296666E-16
6.700000E+03	4.696799E-15	3.322097E-16
6.710000E+03	4.686679E-15	3.344291E-16
6.720000E+03	4.673313E-15	3.363657E-16
6.730000E+03	4.657157E-15	3.380461E-16
6.740000E+03	4.638998E-15	3.395238E-16
6.750000E+03	4.619356E-15	3.408348E-16
6.760000E+03	4.599064E-15	3.420400E-16
6.770000E+03	4.578715E-15	3.431835E-16
6.780000E+03	4.558992E-15	3.443172E-16
6.790000E+03	4.540604E-15	3.454954E-16
6.800000E+03	4.524177E-15	3.467667E-16
6.810000E+03	4.510237E-15	3.481726E-16
6.820000E+03	4.499343E-15	3.497581E-16
6.830000E+03	4.491935E-15	3.515593E-16
6.840000E+03	4.488372E-15	3.536072E-16
6.850000E+03	4.488879E-15	3.559231E-16
6.860000E+03	4.493689E-15	3.585298E-16
6.870000E+03	4.502900E-15	3.614397E-16
6.880000E+03	4.516470E-15	3.646548E-16
6.890000E+03	4.534417E-15	3.681822E-16
6.900000E+03	4.556481E-15	3.720061E-16
6.910000E+03	4.582474E-15	3.761167E-16
6.920000E+03	4.612087E-15	3.804940E-16
6.930000E+03	4.644956E-15	3.851127E-16
6.940000E+03	4.680669E-15	3.899436E-16
6.950000E+03	4.718779E-15	3.949537E-16
6.960000E+03	4.758819E-15	4.001079E-16
6.970000E+03	4.800308E-15	4.053695E-16
6.980000E+03	4.842710E-15	4.106966E-16
6.990000E+03	4.885658E-15	4.160603E-16
7.000000E+03	4.928636E-15	4.214191E-16
7.010000E+03	4.971147E-15	4.267315E-16
7.020000E+03	5.012876E-15	4.319713E-16
7.030000E+03	5.053312E-15	4.370942E-16
7.040000E+03	5.092185E-15	4.420761E-16
7.050000E+03	5.129077E-15	4.468789E-16
7.060000E+03	5.163579E-15	4.514646E-16
7.070000E+03	5.195470E-15	4.558106E-16
7.080000E+03	5.224361E-15	4.598793E-16
7.090000E+03	5.249928E-15	4.636378E-16
7.100000E+03	5.271853E-15	4.670533E-16
7.110000E+03	5.289824E-15	4.700933E-16
7.120000E+03	5.303535E-15	4.727257E-16
7.130000E+03	5.312688E-15	4.749195E-16
7.140000E+03	5.316997E-15	4.766444E-16
7.150000E+03	5.316247E-15	4.778775E-16
7.160000E+03	5.310054E-15	4.785810E-16
7.170000E+03	5.298300E-15	4.787417E-16
7.180000E+03	5.280645E-15	4.783268E-16
7.190000E+03	5.257022E-15	4.773291E-16
7.200000E+03	5.227156E-15	4.757229E-16
7.210000E+03	5.191054E-15	4.735089E-16
7.220000E+03	5.148586E-15	4.706758E-16
7.230000E+03	5.099733E-15	4.672229E-16
7.240000E+03	5.044530E-15	4.631544E-16
7.250000E+03	4.983074E-15	4.584801E-16
7.260000E+03	4.915524E-15	4.532147E-16
7.270000E+03	4.842104E-15	4.473779E-16
7.280000E+03	4.763158E-15	4.409990E-16
7.290000E+03	4.678926E-15	4.340949E-16
7.300000E+03	4.589881E-15	4.267008E-16
7.310000E+03	4.496546E-15	4.188534E-16
7.320000E+03	4.399339E-15	4.105743E-16
7.330000E+03	4.298884E-15	4.018999E-16
7.340000E+03	4.195840E-15	3.928642E-16
7.350000E+03	4.090743E-15	3.834840E-16
7.360000E+03	3.984353E-15	3.737917E-16
7.370000E+03	3.877244E-15	3.637962E-16
7.380000E+03	3.770184E-15	3.535198E-16
7.390000E+03	3.663745E-15	3.429615E-16
7.400000E+03	3.558662E-15	3.321318E-16
7.410000E+03	3.455464E-15	3.210190E-16
7.420000E+03	3.354772E-15	3.096186E-16
7.430000E+03	3.257152E-15	2.979212E-16
7.440000E+03	3.162991E-15	2.859031E-16
7.450000E+03	3.072729E-15	2.735494E-16
7.460000E+03	2.986733E-15	2.608428E-16
7.470000E+03	2.905191E-15	2.477543E-16
7.480000E+03	2.828339E-15	2.342625E-16
7.490000E+03	2.756325E-15	2.203398E-16
7.500000E+03	2.689249E-15	2.059553E-16
7.510000E+03	2.627177E-15	1.910749E-16
7.520000E+03	2.570181E-15	1.756636E-16
7.530000E+03	2.518220E-15	1.596781E-16
7.540000E+03	2.471339E-15	1.430823E-16
7.550000E+03	2.429542E-15	1.258430E-16
7.560000E+03	2.392835E-15	1.079415E-16
7.570000E+03	2.361220E-15	8.939759E-17
7.580000E+03	2.334672E-15	7.032971E-17
7.590000E+03	2.313258E-15	5.115990E-17
7.600000E+03	2.296973E-15	3.344751E-17
7.610000E+03	2.285828E-15	2.366188E-17
7.620000E+03	2.279662E-15	3.170533E-17
7.630000E+03	2.277978E-15	4.939427E-17
7.640000E+03	2.280056E-15	6.925149E-17
7.650000E+03	2.285242E-15	8.939765E-17
7.660000E+03	2.292811E-15	1.093016E-16
7.670000E+03	2.302046E-15	1.287601E-16
7.680000E+03	2.312323E-15	1.476703E-16
7.690000E+03	2.322909E-15	1.659510E-16
7.700000E+03	2.333209E-15	1.835343E-16
7.710000E+03	2.342528E-15	2.003423E-16
7.720000E+03	2.350322E-15	2.163036E-16
7.730000E+03	2.355963E-15	2.313349E-16
7.740000E+03	2.358961E-15	2.453608E-16
7.750000E+03	2.358875E-15	2.583097E-16
7.760000E+03	2.355235E-15	2.701053E-16
