#wls	flux	fluxerr
1.600000E+03	1.906195E-16	1.779859E-16
1.640000E+03	1.902293E-16	1.741886E-16
1.680000E+03	1.893931E-16	1.700498E-16
1.720000E+03	1.880612E-16	1.655755E-16
1.760000E+03	1.862921E-16	1.608669E-16
1.800000E+03	1.840864E-16	1.559689E-16
1.840000E+03	1.815032E-16	1.509698E-16
1.880000E+03	1.786110E-16	1.459562E-16
1.920000E+03	1.754474E-16	1.409780E-16
1.960000E+03	1.720993E-16	1.361150E-16
2.000000E+03	1.686569E-16	1.314372E-16
2.040000E+03	1.651749E-16	1.269770E-16
2.080000E+03	1.617595E-16	1.227984E-16
2.120000E+03	1.584584E-16	1.189143E-16
2.160000E+03	1.553439E-16	1.153531E-16
2.200000E+03	1.524885E-16	1.121415E-16
2.240000E+03	1.498905E-16	1.092525E-16
2.280000E+03	1.475914E-16	1.066937E-16
2.320000E+03	1.456001E-16	1.044526E-16
2.360000E+03	1.438970E-16	1.025009E-16
2.400000E+03	1.424500E-16	1.008061E-16
2.440000E+03	1.412397E-16	9.934932E-17
2.480000E+03	1.402144E-16	9.809191E-17
2.520000E+03	1.393302E-16	9.700253E-17
2.560000E+03	1.385423E-16	9.604901E-17
2.600000E+03	1.378097E-16	9.519905E-17
2.640000E+03	1.370891E-16	9.441425E-17
2.680000E+03	1.363677E-16	9.367151E-17
2.720000E+03	1.356358E-16	9.294359E-17
2.760000E+03	1.348903E-16	9.220229E-17
2.800000E+03	1.341706E-16	9.144459E-17
2.840000E+03	1.335061E-16	9.065863E-17
2.880000E+03	1.329517E-16	8.984986E-17
2.920000E+03	1.325860E-16	8.904096E-17
2.960000E+03	1.324951E-16	8.826138E-17
3.000000E+03	1.327886E-16	8.755717E-17
3.010000E+03	1.329316E-16	8.739620E-17
3.020000E+03	1.331154E-16	8.724883E-17
3.030000E+03	1.333280E-16	8.710683E-17
3.040000E+03	1.335853E-16	8.698011E-17
3.050000E+03	1.338825E-16	8.686508E-17
3.060000E+03	1.342152E-16	8.675839E-17
3.070000E+03	1.345993E-16	8.666977E-17
3.080000E+03	1.350304E-16	8.659588E-17
3.090000E+03	1.355111E-16	8.653780E-17
3.100000E+03	1.360507E-16	8.650082E-17
3.110000E+03	1.366388E-16	8.647766E-17
3.120000E+03	1.372913E-16	8.647782E-17
3.130000E+03	1.380049E-16	8.649829E-17
3.140000E+03	1.387826E-16	8.654030E-17
3.150000E+03	1.396343E-16	8.660908E-17
3.160000E+03	1.405569E-16	8.670183E-17
3.170000E+03	1.415541E-16	8.681982E-17
3.180000E+03	1.426361E-16	8.696826E-17
3.190000E+03	1.438068E-16	8.714839E-17
3.200000E+03	1.450577E-16	8.735376E-17
3.210000E+03	1.464123E-16	8.759728E-17
3.220000E+03	1.478624E-16	8.787255E-17
3.230000E+03	1.494128E-16	8.818095E-17
3.240000E+03	1.510751E-16	8.852763E-17
3.250000E+03	1.528546E-16	8.891390E-17
3.260000E+03	1.547503E-16	8.933736E-17
3.270000E+03	1.567747E-16	8.980312E-17
3.280000E+03	1.589340E-16	9.031248E-17
3.290000E+03	1.612281E-16	9.086307E-17
3.300000E+03	1.636770E-16	9.146358E-17
3.310000E+03	1.662747E-16	9.210789E-17
3.320000E+03	1.690353E-16	9.280092E-17
3.330000E+03	1.719668E-16	9.354386E-17
3.340000E+03	1.750775E-16	9.433784E-17
3.350000E+03	1.783761E-16	9.518390E-17
3.360000E+03	1.818648E-16	9.607938E-17
3.370000E+03	1.855671E-16	9.703243E-17
3.380000E+03	1.894860E-16	9.804017E-17
3.390000E+03	1.936320E-16	9.910321E-17
3.400000E+03	1.980162E-16	1.002220E-16
3.410000E+03	2.026573E-16	1.014005E-16
3.420000E+03	2.075525E-16	1.026314E-16
3.430000E+03	2.127292E-16	1.039219E-16
3.440000E+03	2.181928E-16	1.052679E-16
3.450000E+03	2.239568E-16	1.066686E-16
3.460000E+03	2.300430E-16	1.081268E-16
3.470000E+03	2.364581E-16	1.096372E-16
3.480000E+03	2.432169E-16	1.111980E-16
3.490000E+03	2.503432E-16	1.128106E-16
3.500000E+03	2.578447E-16	1.144686E-16
3.510000E+03	2.657463E-16	1.161723E-16
3.520000E+03	2.740563E-16	1.179142E-16
3.530000E+03	2.828006E-16	1.196934E-16
3.540000E+03	2.919878E-16	1.215009E-16
3.550000E+03	3.016449E-16	1.233346E-16
3.560000E+03	3.117903E-16	1.251879E-16
3.570000E+03	3.224323E-16	1.270492E-16
3.580000E+03	3.336093E-16	1.289181E-16
3.590000E+03	3.453089E-16	1.307733E-16
3.600000E+03	3.575800E-16	1.326166E-16
3.610000E+03	3.704192E-16	1.344287E-16
3.620000E+03	3.838659E-16	1.362055E-16
3.630000E+03	3.979143E-16	1.379257E-16
3.640000E+03	4.125794E-16	1.395754E-16
3.650000E+03	4.278996E-16	1.411473E-16
3.660000E+03	4.438767E-16	1.426216E-16
3.670000E+03	4.605227E-16	1.439815E-16
3.680000E+03	4.778344E-16	1.452053E-16
3.690000E+03	4.958458E-16	1.462830E-16
3.700000E+03	5.145356E-16	1.471882E-16
3.710000E+03	5.339195E-16	1.479061E-16
3.720000E+03	5.540117E-16	1.484221E-16
3.730000E+03	5.747789E-16	1.487099E-16
3.740000E+03	5.962274E-16	1.487560E-16
3.750000E+03	6.183604E-16	1.485480E-16
3.760000E+03	6.411293E-16	1.480635E-16
3.770000E+03	6.645436E-16	1.472976E-16
3.780000E+03	6.885421E-16	1.462332E-16
3.790000E+03	7.131065E-16	1.448681E-16
3.800000E+03	7.382142E-16	1.432039E-16
3.810000E+03	7.637810E-16	1.412370E-16
3.820000E+03	7.897692E-16	1.389798E-16
3.830000E+03	8.161146E-16	1.364480E-16
3.840000E+03	8.427445E-16	1.336646E-16
3.850000E+03	8.695965E-16	1.306630E-16
3.860000E+03	8.965372E-16	1.274756E-16
3.870000E+03	9.234596E-16	1.241488E-16
3.880000E+03	9.502866E-16	1.207417E-16
3.890000E+03	9.768636E-16	1.173103E-16
3.900000E+03	1.003018E-15	1.139145E-16
3.910000E+03	1.028605E-15	1.106208E-16
3.920000E+03	1.053443E-15	1.074904E-16
3.930000E+03	1.077335E-15	1.045789E-16
3.940000E+03	1.100056E-15	1.019307E-16
3.950000E+03	1.121420E-15	9.958184E-17
3.960000E+03	1.141225E-15	9.755144E-17
3.970000E+03	1.159257E-15	9.584035E-17
3.980000E+03	1.175372E-15	9.443744E-17
3.990000E+03	1.189405E-15	9.331318E-17
4.000000E+03	1.201257E-15	9.242845E-17
4.010000E+03	1.210897E-15	9.173827E-17
4.020000E+03	1.218293E-15	9.119051E-17
4.030000E+03	1.223514E-15	9.073749E-17
4.040000E+03	1.226610E-15	9.033055E-17
4.050000E+03	1.227772E-15	8.993520E-17
4.060000E+03	1.227137E-15	8.951863E-17
4.070000E+03	1.224973E-15	8.906415E-17
4.080000E+03	1.221503E-15	8.855881E-17
4.090000E+03	1.216969E-15	8.799767E-17
4.100000E+03	1.211667E-15	8.738570E-17
4.110000E+03	1.205877E-15	8.673129E-17
4.120000E+03	1.199855E-15	8.604500E-17
4.130000E+03	1.193894E-15	8.534278E-17
4.140000E+03	1.188237E-15	8.463848E-17
4.150000E+03	1.183159E-15	8.394868E-17
4.160000E+03	1.178882E-15	8.328546E-17
4.170000E+03	1.175636E-15	8.265972E-17
4.180000E+03	1.173618E-15	8.207713E-17
4.190000E+03	1.173070E-15	8.154277E-17
4.200000E+03	1.174159E-15	8.105195E-17
4.210000E+03	1.177035E-15	8.059397E-17
4.220000E+03	1.181873E-15	8.015443E-17
4.230000E+03	1.188783E-15	7.970987E-17
4.240000E+03	1.197897E-15	7.923323E-17
4.250000E+03	1.209257E-15	7.868775E-17
4.260000E+03	1.222953E-15	7.803660E-17
4.270000E+03	1.238978E-15	7.723501E-17
4.280000E+03	1.257301E-15	7.623710E-17
4.290000E+03	1.277814E-15	7.499619E-17
4.300000E+03	1.300381E-15	7.347267E-17
4.310000E+03	1.324748E-15	7.163588E-17
4.320000E+03	1.350598E-15	6.947848E-17
4.330000E+03	1.377457E-15	6.702581E-17
4.340000E+03	1.404731E-15	6.435790E-17
4.350000E+03	1.431642E-15	6.162993E-17
4.360000E+03	1.457294E-15	5.909681E-17
4.370000E+03	1.480523E-15	5.711115E-17
4.380000E+03	1.500019E-15	5.608939E-17
4.390000E+03	1.514411E-15	5.639507E-17
4.400000E+03	1.523744E-15	5.804104E-17
4.410000E+03	1.529592E-15	6.069739E-17
4.420000E+03	1.533395E-15	6.396784E-17
4.430000E+03	1.536512E-15	6.751240E-17
4.440000E+03	1.539995E-15	7.108129E-17
4.450000E+03	1.544789E-15	7.452141E-17
4.460000E+03	1.551564E-15	7.774886E-17
4.470000E+03	1.560806E-15	8.073059E-17
4.480000E+03	1.572814E-15	8.346505E-17
4.490000E+03	1.587693E-15	8.596739E-17
4.500000E+03	1.605435E-15	8.826321E-17
4.510000E+03	1.625843E-15	9.037760E-17
4.520000E+03	1.648633E-15	9.233544E-17
4.530000E+03	1.673341E-15	9.415288E-17
4.540000E+03	1.699462E-15	9.584296E-17
4.550000E+03	1.726379E-15	9.741045E-17
4.560000E+03	1.753387E-15	9.885205E-17
4.570000E+03	1.779753E-15	1.001599E-16
4.580000E+03	1.804750E-15	1.013231E-16
4.590000E+03	1.827591E-15	1.023247E-16
4.600000E+03	1.847625E-15	1.031523E-16
4.610000E+03	1.864165E-15	1.037887E-16
4.620000E+03	1.876770E-15	1.042283E-16
4.630000E+03	1.884999E-15	1.044632E-16
4.640000E+03	1.888674E-15	1.044983E-16
4.650000E+03	1.887686E-15	1.043408E-16
4.660000E+03	1.882166E-15	1.040093E-16
4.670000E+03	1.872297E-15	1.035228E-16
4.680000E+03	1.858427E-15	1.029054E-16
4.690000E+03	1.841023E-15	1.021826E-16
4.700000E+03	1.820578E-15	1.013757E-16
4.710000E+03	1.797662E-15	1.005041E-16
4.720000E+03	1.772869E-15	9.958358E-17
4.730000E+03	1.746802E-15	9.862692E-17
4.740000E+03	1.720036E-15	9.764384E-17
4.750000E+03	1.693165E-15	9.664529E-17
4.760000E+03	1.666708E-15	9.563986E-17
4.770000E+03	1.641161E-15	9.463774E-17
4.780000E+03	1.616988E-15	9.365089E-17
4.790000E+03	1.594568E-15	9.268994E-17
4.800000E+03	1.574223E-15	9.176635E-17
4.810000E+03	1.556276E-15	9.089537E-17
4.820000E+03	1.540928E-15	9.008899E-17
4.830000E+03	1.528397E-15	8.936408E-17
4.840000E+03	1.518765E-15	8.873349E-17
4.850000E+03	1.512168E-15	8.821648E-17
4.860000E+03	1.508603E-15	8.782721E-17
4.870000E+03	1.508051E-15	8.758009E-17
4.880000E+03	1.510445E-15	8.748687E-17
4.890000E+03	1.515637E-15	8.755263E-17
4.900000E+03	1.523391E-15	8.777382E-17
4.910000E+03	1.533424E-15	8.813994E-17
4.920000E+03	1.545339E-15	8.862962E-17
4.930000E+03	1.558682E-15	8.921463E-17
4.940000E+03	1.572946E-15	8.986221E-17
4.950000E+03	1.587547E-15	9.053536E-17
4.960000E+03	1.601914E-15	9.120015E-17
4.970000E+03	1.615455E-15	9.182512E-17
4.980000E+03	1.627661E-15	9.238764E-17
4.990000E+03	1.638077E-15	9.287134E-17
5.000000E+03	1.646394E-15	9.327007E-17
5.010000E+03	1.652406E-15	9.358293E-17
5.020000E+03	1.656089E-15	9.381630E-17
5.030000E+03	1.657540E-15	9.397895E-17
5.040000E+03	1.656970E-15	9.408016E-17
5.050000E+03	1.654724E-15	9.413134E-17
5.060000E+03	1.651203E-15	9.414226E-17
5.070000E+03	1.646843E-15	9.412163E-17
5.080000E+03	1.642075E-15	9.407598E-17
5.090000E+03	1.637353E-15	9.401345E-17
5.100000E+03	1.633039E-15	9.393804E-17
5.110000E+03	1.629455E-15	9.385354E-17
5.120000E+03	1.626851E-15	9.376273E-17
5.130000E+03	1.625408E-15	9.366762E-17
5.140000E+03	1.625256E-15	9.357066E-17
5.150000E+03	1.626448E-15	9.347311E-17
5.160000E+03	1.628966E-15	9.337510E-17
5.170000E+03	1.632764E-15	9.327759E-17
5.180000E+03	1.637777E-15	9.318204E-17
5.190000E+03	1.643893E-15	9.308834E-17
5.200000E+03	1.650974E-15	9.299544E-17
5.210000E+03	1.658881E-15	9.290217E-17
5.220000E+03	1.667401E-15	9.280344E-17
5.230000E+03	1.676354E-15	9.269595E-17
5.240000E+03	1.685540E-15	9.257559E-17
5.250000E+03	1.694705E-15	9.243553E-17
5.260000E+03	1.703612E-15	9.226988E-17
5.270000E+03	1.711971E-15	9.206948E-17
5.280000E+03	1.719534E-15	9.182574E-17
5.290000E+03	1.725979E-15	9.152306E-17
5.300000E+03	1.731041E-15	9.114384E-17
5.310000E+03	1.734453E-15	9.066338E-17
5.320000E+03	1.735997E-15	9.005058E-17
5.330000E+03	1.735444E-15	8.926397E-17
5.340000E+03	1.732713E-15	8.825950E-17
5.350000E+03	1.727706E-15	8.698333E-17
5.360000E+03	1.720444E-15	8.538087E-17
5.370000E+03	1.711078E-15	8.340004E-17
5.380000E+03	1.699789E-15	8.098989E-17
5.390000E+03	1.686912E-15	7.811012E-17
5.400000E+03	1.672882E-15	7.473207E-17
5.410000E+03	1.658195E-15	7.084126E-17
5.420000E+03	1.643447E-15	6.644530E-17
5.430000E+03	1.629319E-15	6.158277E-17
5.440000E+03	1.616520E-15	5.633725E-17
5.450000E+03	1.605833E-15	5.086871E-17
5.460000E+03	1.598051E-15	4.546260E-17
5.470000E+03	1.593957E-15	4.061108E-17
5.480000E+03	1.594365E-15	3.709943E-17
5.490000E+03	1.599977E-15	3.593909E-17
5.500000E+03	1.610841E-15	3.766208E-17
5.510000E+03	1.625072E-15	4.148009E-17
5.520000E+03	1.640364E-15	4.634269E-17
5.530000E+03	1.654528E-15	5.145182E-17
5.540000E+03	1.665522E-15	5.629000E-17
5.550000E+03	1.671595E-15	6.054602E-17
5.560000E+03	1.671435E-15	6.405311E-17
5.570000E+03	1.664175E-15	6.674643E-17
5.580000E+03	1.649499E-15	6.863923E-17
5.590000E+03	1.627507E-15	6.979629E-17
5.600000E+03	1.598793E-15	7.031898E-17
5.610000E+03	1.564246E-15	7.032166E-17
5.620000E+03	1.525017E-15	6.991895E-17
5.630000E+03	1.482402E-15	6.921449E-17
5.640000E+03	1.437763E-15	6.829681E-17
5.650000E+03	1.392407E-15	6.723738E-17
5.660000E+03	1.347587E-15	6.609645E-17
5.670000E+03	1.304405E-15	6.492436E-17
5.680000E+03	1.263866E-15	6.376834E-17
5.690000E+03	1.226764E-15	6.266946E-17
5.700000E+03	1.193832E-15	6.167046E-17
5.710000E+03	1.165620E-15	6.080915E-17
5.720000E+03	1.142566E-15	6.012024E-17
5.730000E+03	1.125044E-15	5.963638E-17
5.740000E+03	1.113299E-15	5.938368E-17
5.750000E+03	1.107500E-15	5.938309E-17
5.760000E+03	1.107783E-15	5.965245E-17
5.770000E+03	1.114137E-15	6.020005E-17
5.780000E+03	1.126529E-15	6.103094E-17
5.790000E+03	1.144795E-15	6.214150E-17
5.800000E+03	1.168677E-15	6.352124E-17
5.810000E+03	1.197804E-15	6.515202E-17
5.820000E+03	1.231652E-15	6.700608E-17
5.830000E+03	1.269528E-15	6.904537E-17
5.840000E+03	1.310591E-15	7.122350E-17
5.850000E+03	1.353824E-15	7.348413E-17
5.860000E+03	1.398032E-15	7.576222E-17
5.870000E+03	1.441921E-15	7.798853E-17
5.880000E+03	1.484098E-15	8.009051E-17
5.890000E+03	1.523149E-15	8.199671E-17
5.900000E+03	1.557718E-15	8.364077E-17
5.910000E+03	1.586572E-15	8.496435E-17
5.920000E+03	1.608743E-15	8.592394E-17
5.930000E+03	1.623503E-15	8.648821E-17
5.940000E+03	1.630463E-15	8.664301E-17
5.950000E+03	1.629581E-15	8.639080E-17
5.960000E+03	1.621128E-15	8.574865E-17
5.970000E+03	1.605737E-15	8.475032E-17
5.980000E+03	1.584181E-15	8.343431E-17
5.990000E+03	1.557471E-15	8.184948E-17
6.000000E+03	1.526722E-15	8.004842E-17
6.010000E+03	1.493041E-15	7.808238E-17
6.020000E+03	1.457578E-15	7.600485E-17
6.030000E+03	1.421377E-15	7.386357E-17
6.040000E+03	1.385419E-15	7.170259E-17
6.050000E+03	1.350532E-15	6.955648E-17
6.060000E+03	1.317483E-15	6.745414E-17
6.070000E+03	1.286861E-15	6.541181E-17
6.080000E+03	1.259201E-15	6.343843E-17
6.090000E+03	1.234893E-15	6.153070E-17
6.100000E+03	1.214263E-15	5.967685E-17
6.110000E+03	1.197517E-15	5.785370E-17
6.120000E+03	1.184832E-15	5.603059E-17
6.130000E+03	1.176323E-15	5.416747E-17
6.140000E+03	1.172014E-15	5.221337E-17
6.150000E+03	1.171915E-15	5.011085E-17
6.160000E+03	1.175975E-15	4.779617E-17
6.170000E+03	1.184094E-15	4.520531E-17
6.180000E+03	1.196126E-15	4.228447E-17
6.190000E+03	1.211861E-15	3.900931E-17
6.200000E+03	1.231060E-15	3.542243E-17
6.210000E+03	1.253386E-15	3.169917E-17
6.220000E+03	1.278425E-15	2.826823E-17
6.230000E+03	1.305579E-15	2.596072E-17
6.240000E+03	1.334039E-15	2.593729E-17
6.250000E+03	1.363044E-15	2.862592E-17
6.260000E+03	1.392112E-15	3.312879E-17
6.270000E+03	1.420617E-15	3.846229E-17
6.280000E+03	1.447881E-15	4.396918E-17
6.290000E+03	1.473154E-15	4.926488E-17
6.300000E+03	1.495771E-15	5.413697E-17
6.310000E+03	1.515171E-15	5.847842E-17
6.320000E+03	1.530938E-15	6.225109E-17
6.330000E+03	1.542750E-15	6.546080E-17
6.340000E+03	1.550491E-15	6.814637E-17
6.350000E+03	1.554117E-15	7.036154E-17
6.360000E+03	1.553756E-15	7.216939E-17
6.370000E+03	1.549615E-15	7.363037E-17
6.380000E+03	1.542024E-15	7.479997E-17
6.390000E+03	1.531352E-15	7.572345E-17
6.400000E+03	1.518035E-15	7.643867E-17
6.410000E+03	1.502539E-15	7.697746E-17
6.420000E+03	1.485336E-15	7.736812E-17
6.430000E+03	1.466895E-15	7.763747E-17
6.440000E+03	1.447642E-15	7.781121E-17
6.450000E+03	1.427997E-15	7.791664E-17
6.460000E+03	1.408321E-15	7.797952E-17
6.470000E+03	1.388903E-15	7.802307E-17
6.480000E+03	1.370005E-15	7.806926E-17
6.490000E+03	1.351799E-15	7.813429E-17
6.500000E+03	1.334426E-15	7.823115E-17
6.510000E+03	1.317938E-15	7.836565E-17
6.520000E+03	1.302342E-15	7.853892E-17
6.530000E+03	1.287606E-15	7.874764E-17
6.540000E+03	1.273615E-15	7.898204E-17
6.550000E+03	1.260235E-15	7.923004E-17
6.560000E+03	1.247263E-15	7.947469E-17
6.570000E+03	1.234505E-15	7.969938E-17
6.580000E+03	1.221682E-15	7.988174E-17
6.590000E+03	1.208593E-15	8.000439E-17
6.600000E+03	1.194997E-15	8.004708E-17
6.610000E+03	1.180694E-15	7.999224E-17
6.620000E+03	1.165527E-15	7.982509E-17
6.630000E+03	1.149382E-15	7.953452E-17
6.640000E+03	1.132194E-15	7.911362E-17
6.650000E+03	1.113951E-15	7.856077E-17
6.660000E+03	1.094652E-15	7.787675E-17
6.670000E+03	1.074349E-15	7.706763E-17
6.680000E+03	1.053101E-15	7.614123E-17
6.690000E+03	1.030978E-15	7.510614E-17
6.700000E+03	1.008098E-15	7.397437E-17
6.710000E+03	9.845629E-16	7.275569E-17
6.720000E+03	9.605067E-16	7.146094E-17
6.730000E+03	9.360834E-16	7.010153E-17
6.740000E+03	9.114806E-16	6.869072E-17
6.750000E+03	8.868870E-16	6.724175E-17
6.760000E+03	8.625333E-16	6.577143E-17
6.770000E+03	8.386553E-16	6.429777E-17
6.780000E+03	8.154990E-16	6.284055E-17
6.790000E+03	7.933121E-16	6.142069E-17
6.800000E+03	7.723353E-16	6.005946E-17
6.810000E+03	7.528026E-16	5.877829E-17
6.820000E+03	7.349067E-16	5.759575E-17
6.830000E+03	7.188212E-16	5.652888E-17
6.840000E+03	7.047047E-16	5.559327E-17
6.850000E+03	6.926489E-16	5.479863E-17
6.860000E+03	6.827384E-16	5.415350E-17
6.870000E+03	6.750187E-16	5.366266E-17
6.880000E+03	6.695145E-16	5.332884E-17
6.890000E+03	6.662079E-16	5.315120E-17
6.900000E+03	6.650644E-16	5.312763E-17
6.910000E+03	6.660345E-16	5.325512E-17
6.920000E+03	6.690305E-16	5.352801E-17
6.930000E+03	6.739680E-16	5.394128E-17
6.940000E+03	6.807092E-16	5.448599E-17
6.950000E+03	6.891207E-16	5.515368E-17
6.960000E+03	6.990410E-16	5.593362E-17
6.970000E+03	7.102976E-16	5.681392E-17
6.980000E+03	7.226811E-16	5.777929E-17
6.990000E+03	7.359792E-16	5.881364E-17
7.000000E+03	7.499419E-16	5.989724E-17
7.010000E+03	7.643084E-16	6.100889E-17
7.020000E+03	7.788201E-16	6.212710E-17
7.030000E+03	7.931677E-16	6.322599E-17
7.040000E+03	8.070651E-16	6.428140E-17
7.050000E+03	8.202323E-16	6.526963E-17
7.060000E+03	8.323767E-16	6.616609E-17
7.070000E+03	8.432805E-16	6.695225E-17
7.080000E+03	8.527422E-16	6.761102E-17
7.090000E+03	8.606316E-16	6.813102E-17
7.100000E+03	8.668982E-16	6.850714E-17
7.110000E+03	8.715527E-16	6.873906E-17
7.120000E+03	8.746628E-16	6.883081E-17
7.130000E+03	8.763780E-16	6.879276E-17
7.140000E+03	8.768827E-16	6.863789E-17
7.150000E+03	8.763799E-16	6.838065E-17
7.160000E+03	8.751199E-16	6.803918E-17
7.170000E+03	8.733050E-16	6.762803E-17
7.180000E+03	8.711660E-16	6.716413E-17
7.190000E+03	8.688712E-16	6.665977E-17
7.200000E+03	8.665523E-16	6.612465E-17
7.210000E+03	8.643433E-16	6.556889E-17
7.220000E+03	8.622651E-16	6.499432E-17
7.230000E+03	8.603498E-16	6.440408E-17
7.240000E+03	8.585534E-16	6.379614E-17
7.250000E+03	8.568168E-16	6.316801E-17
7.260000E+03	8.550274E-16	6.251389E-17
7.270000E+03	8.530724E-16	6.182848E-17
7.280000E+03	8.508018E-16	6.110408E-17
7.290000E+03	8.480827E-16	6.033419E-17
7.300000E+03	8.447617E-16	5.951042E-17
7.310000E+03	8.407174E-16	5.862576E-17
7.320000E+03	8.358327E-16	5.767218E-17
7.330000E+03	8.300103E-16	5.664139E-17
7.340000E+03	8.231657E-16	5.552440E-17
7.350000E+03	8.152636E-16	5.431434E-17
7.360000E+03	8.062772E-16	5.300456E-17
7.370000E+03	7.962344E-16	5.159306E-17
7.380000E+03	7.851878E-16	5.008202E-17
7.390000E+03	7.732275E-16	4.847992E-17
7.400000E+03	7.604708E-16	4.680172E-17
7.410000E+03	7.470924E-16	4.507042E-17
7.420000E+03	7.332890E-16	4.331331E-17
7.430000E+03	7.192749E-16	4.155927E-17
7.440000E+03	7.053048E-16	3.983690E-17
7.450000E+03	6.916264E-16	3.816865E-17
7.460000E+03	6.785106E-16	3.657021E-17
7.470000E+03	6.662053E-16	3.504670E-17
7.480000E+03	6.549556E-16	3.359376E-17
7.490000E+03	6.449869E-16	3.219730E-17
7.500000E+03	6.364985E-16	3.083431E-17
7.510000E+03	6.296657E-16	2.947418E-17
7.520000E+03	6.245993E-16	2.807816E-17
7.530000E+03	6.213914E-16	2.660313E-17
7.540000E+03	6.200741E-16	2.500224E-17
7.550000E+03	6.206138E-16	2.322911E-17
7.560000E+03	6.229315E-16	2.124670E-17
7.570000E+03	6.268656E-16	1.904108E-17
7.580000E+03	6.321983E-16	1.665310E-17
7.590000E+03	6.386620E-16	1.424335E-17
7.600000E+03	6.459270E-16	1.222252E-17
7.610000E+03	6.536464E-16	1.138878E-17
7.620000E+03	6.615032E-16	1.248013E-17
7.630000E+03	6.694208E-16	1.510802E-17
7.640000E+03	6.773995E-16	1.852330E-17
7.650000E+03	6.854554E-16	2.225477E-17
7.660000E+03	6.935870E-16	2.606429E-17
7.670000E+03	7.018192E-16	2.983527E-17
7.680000E+03	7.101283E-16	3.350878E-17
7.690000E+03	7.184842E-16	3.705601E-17
7.700000E+03	7.267995E-16	4.046156E-17
7.710000E+03	7.349779E-16	4.371805E-17
7.720000E+03	7.429175E-16	4.682227E-17
7.730000E+03	7.504527E-16	4.976904E-17
7.740000E+03	7.574186E-16	5.255333E-17
7.750000E+03	7.636360E-16	5.516848E-17
7.760000E+03	7.689270E-16	5.760678E-17
