#wls	flux	fluxerr
1.600000E+03	1.638997E-16	1.623244E-16
1.640000E+03	1.635316E-16	1.595857E-16
1.680000E+03	1.628221E-16	1.565652E-16
1.720000E+03	1.617752E-16	1.532961E-16
1.760000E+03	1.604190E-16	1.498327E-16
1.800000E+03	1.587721E-16	1.462166E-16
1.840000E+03	1.568610E-16	1.424930E-16
1.880000E+03	1.547339E-16	1.387212E-16
1.920000E+03	1.524147E-16	1.349336E-16
1.960000E+03	1.499746E-16	1.311984E-16
2.000000E+03	1.474572E-16	1.275535E-16
2.040000E+03	1.449069E-16	1.240327E-16
2.080000E+03	1.423790E-16	1.206749E-16
2.120000E+03	1.399119E-16	1.175010E-16
2.160000E+03	1.375500E-16	1.145355E-16
2.200000E+03	1.353294E-16	1.117943E-16
2.240000E+03	1.332571E-16	1.092696E-16
2.280000E+03	1.313531E-16	1.069651E-16
2.320000E+03	1.296371E-16	1.048857E-16
2.360000E+03	1.280917E-16	1.030077E-16
2.400000E+03	1.267207E-16	1.013261E-16
2.440000E+03	1.255034E-16	9.981794E-17
2.480000E+03	1.244245E-16	9.846544E-17
2.520000E+03	1.234665E-16	9.724921E-17
2.560000E+03	1.226043E-16	9.614355E-17
2.600000E+03	1.218310E-16	9.513546E-17
2.640000E+03	1.211292E-16	9.420163E-17
2.680000E+03	1.205025E-16	9.333257E-17
2.720000E+03	1.199484E-16	9.251146E-17
2.760000E+03	1.194812E-16	9.173179E-17
2.800000E+03	1.191312E-16	9.099746E-17
2.840000E+03	1.189275E-16	9.030930E-17
2.880000E+03	1.189281E-16	8.968914E-17
2.920000E+03	1.191793E-16	8.914857E-17
2.960000E+03	1.197628E-16	8.872422E-17
3.000000E+03	1.207616E-16	8.845126E-17
3.010000E+03	1.210888E-16	8.841258E-17
3.020000E+03	1.214443E-16	8.838281E-17
3.030000E+03	1.218403E-16	8.837027E-17
3.040000E+03	1.222733E-16	8.837184E-17
3.050000E+03	1.227450E-16	8.838826E-17
3.060000E+03	1.232574E-16	8.842029E-17
3.070000E+03	1.238123E-16	8.846870E-17
3.080000E+03	1.244170E-16	8.853792E-17
3.090000E+03	1.250633E-16	8.862149E-17
3.100000E+03	1.257637E-16	8.872747E-17
3.110000E+03	1.265153E-16	8.885309E-17
3.120000E+03	1.273257E-16	8.900275E-17
3.130000E+03	1.281871E-16	8.917024E-17
3.140000E+03	1.291124E-16	8.936349E-17
3.150000E+03	1.301041E-16	8.958334E-17
3.160000E+03	1.311551E-16	8.982376E-17
3.170000E+03	1.322784E-16	9.009255E-17
3.180000E+03	1.334771E-16	9.039059E-17
3.190000E+03	1.347494E-16	9.071535E-17
3.200000E+03	1.360986E-16	9.106776E-17
3.210000E+03	1.375332E-16	9.145207E-17
3.220000E+03	1.390569E-16	9.186916E-17
3.230000E+03	1.406686E-16	9.231653E-17
3.240000E+03	1.423721E-16	9.279507E-17
3.250000E+03	1.441766E-16	9.330894E-17
3.260000E+03	1.460867E-16	9.385892E-17
3.270000E+03	1.481067E-16	9.444579E-17
3.280000E+03	1.502363E-16	9.506699E-17
3.290000E+03	1.524856E-16	9.572650E-17
3.300000E+03	1.548544E-16	9.642170E-17
3.310000E+03	1.573586E-16	9.715971E-17
3.320000E+03	1.599933E-16	9.793449E-17
3.330000E+03	1.627695E-16	9.874975E-17
3.340000E+03	1.656932E-16	9.960583E-17
3.350000E+03	1.687708E-16	1.005030E-16
3.360000E+03	1.720031E-16	1.014380E-16
3.370000E+03	1.754081E-16	1.024175E-16
3.380000E+03	1.789814E-16	1.034348E-16
3.390000E+03	1.827417E-16	1.044960E-16
3.400000E+03	1.866849E-16	1.055942E-16
3.410000E+03	1.908303E-16	1.067352E-16
3.420000E+03	1.951741E-16	1.079115E-16
3.430000E+03	1.997363E-16	1.091286E-16
3.440000E+03	2.045194E-16	1.103818E-16
3.450000E+03	2.095257E-16	1.116661E-16
3.460000E+03	2.147762E-16	1.129860E-16
3.470000E+03	2.202801E-16	1.143394E-16
3.480000E+03	2.260338E-16	1.157167E-16
3.490000E+03	2.320592E-16	1.171216E-16
3.500000E+03	2.383593E-16	1.185473E-16
3.510000E+03	2.449432E-16	1.199898E-16
3.520000E+03	2.518274E-16	1.214481E-16
3.530000E+03	2.590071E-16	1.229105E-16
3.540000E+03	2.665129E-16	1.243817E-16
3.550000E+03	2.743325E-16	1.258457E-16
3.560000E+03	2.824895E-16	1.273027E-16
3.570000E+03	2.909928E-16	1.287455E-16
3.580000E+03	2.998433E-16	1.301631E-16
3.590000E+03	3.090487E-16	1.315472E-16
3.600000E+03	3.186248E-16	1.328923E-16
3.610000E+03	3.285702E-16	1.341855E-16
3.620000E+03	3.388997E-16	1.354200E-16
3.630000E+03	3.496103E-16	1.365819E-16
3.640000E+03	3.607154E-16	1.376632E-16
3.650000E+03	3.722190E-16	1.386524E-16
3.660000E+03	3.841145E-16	1.395338E-16
3.670000E+03	3.964031E-16	1.402951E-16
3.680000E+03	4.090943E-16	1.409267E-16
3.690000E+03	4.221872E-16	1.414158E-16
3.700000E+03	4.356690E-16	1.417461E-16
3.710000E+03	4.495455E-16	1.419080E-16
3.720000E+03	4.638004E-16	1.418856E-16
3.730000E+03	4.784366E-16	1.416702E-16
3.740000E+03	4.934452E-16	1.412505E-16
3.750000E+03	5.088040E-16	1.406126E-16
3.760000E+03	5.245002E-16	1.397476E-16
3.770000E+03	5.405312E-16	1.386511E-16
3.780000E+03	5.568822E-16	1.373174E-16
3.790000E+03	5.735246E-16	1.357400E-16
3.800000E+03	5.904406E-16	1.339185E-16
3.810000E+03	6.076255E-16	1.318586E-16
3.820000E+03	6.250486E-16	1.295637E-16
3.830000E+03	6.427064E-16	1.270474E-16
3.840000E+03	6.605700E-16	1.243227E-16
3.850000E+03	6.786254E-16	1.214111E-16
3.860000E+03	6.968621E-16	1.183403E-16
3.870000E+03	7.152876E-16	1.151476E-16
3.880000E+03	7.338858E-16	1.118732E-16
3.890000E+03	7.526583E-16	1.085675E-16
3.900000E+03	7.716046E-16	1.052869E-16
3.910000E+03	7.907010E-16	1.020874E-16
3.920000E+03	8.098956E-16	9.902067E-17
3.930000E+03	8.290584E-16	9.612900E-17
3.940000E+03	8.480909E-16	9.345547E-17
3.950000E+03	8.668684E-16	9.103084E-17
3.960000E+03	8.852612E-16	8.887751E-17
3.970000E+03	9.031224E-16	8.700724E-17
3.980000E+03	9.203388E-16	8.542211E-17
3.990000E+03	9.367842E-16	8.411274E-17
4.000000E+03	9.523169E-16	8.305887E-17
4.010000E+03	9.668306E-16	8.223127E-17
4.020000E+03	9.802118E-16	8.159362E-17
4.030000E+03	9.923405E-16	8.110498E-17
4.040000E+03	1.003208E-15	8.072782E-17
4.050000E+03	1.012793E-15	8.042387E-17
4.060000E+03	1.021132E-15	8.016265E-17
4.070000E+03	1.028311E-15	7.991826E-17
4.080000E+03	1.034446E-15	7.967276E-17
4.090000E+03	1.039673E-15	7.941486E-17
4.100000E+03	1.044117E-15	7.913369E-17
4.110000E+03	1.047959E-15	7.882729E-17
4.120000E+03	1.051300E-15	7.849094E-17
4.130000E+03	1.054342E-15	7.812619E-17
4.140000E+03	1.057189E-15	7.772956E-17
4.150000E+03	1.060034E-15	7.730706E-17
4.160000E+03	1.063012E-15	7.685858E-17
4.170000E+03	1.066326E-15	7.639113E-17
4.180000E+03	1.070128E-15	7.590882E-17
4.190000E+03	1.074556E-15	7.541123E-17
4.200000E+03	1.079774E-15	7.489921E-17
4.210000E+03	1.085914E-15	7.436953E-17
4.220000E+03	1.093067E-15	7.380890E-17
4.230000E+03	1.101323E-15	7.320190E-17
4.240000E+03	1.110756E-15	7.253182E-17
4.250000E+03	1.121354E-15	7.177189E-17
4.260000E+03	1.133117E-15	7.089797E-17
4.270000E+03	1.145986E-15	6.988507E-17
4.280000E+03	1.159842E-15	6.870448E-17
4.290000E+03	1.174507E-15	6.733101E-17
4.300000E+03	1.189769E-15	6.574805E-17
4.310000E+03	1.205382E-15	6.394598E-17
4.320000E+03	1.221014E-15	6.193216E-17
4.330000E+03	1.236379E-15	5.974677E-17
4.340000E+03	1.251100E-15	5.746000E-17
4.350000E+03	1.264848E-15	5.519417E-17
4.360000E+03	1.277331E-15	5.312938E-17
4.370000E+03	1.288260E-15	5.149065E-17
4.380000E+03	1.297375E-15	5.052760E-17
4.390000E+03	1.304565E-15	5.045802E-17
4.400000E+03	1.310044E-15	5.128877E-17
4.410000E+03	1.314494E-15	5.283329E-17
4.420000E+03	1.318603E-15	5.486636E-17
4.430000E+03	1.323011E-15	5.717494E-17
4.440000E+03	1.328338E-15	5.959578E-17
4.450000E+03	1.335126E-15	6.201966E-17
4.460000E+03	1.343814E-15	6.437809E-17
4.470000E+03	1.354748E-15	6.664053E-17
4.480000E+03	1.368221E-15	6.880639E-17
4.490000E+03	1.384359E-15	7.088294E-17
4.500000E+03	1.403215E-15	7.289132E-17
4.510000E+03	1.424699E-15	7.485620E-17
4.520000E+03	1.448577E-15	7.679235E-17
4.530000E+03	1.474492E-15	7.871240E-17
4.540000E+03	1.501977E-15	8.062503E-17
4.550000E+03	1.530423E-15	8.252046E-17
4.560000E+03	1.559161E-15	8.438569E-17
4.570000E+03	1.587447E-15	8.620456E-17
4.580000E+03	1.614460E-15	8.794663E-17
4.590000E+03	1.639449E-15	8.958548E-17
4.600000E+03	1.661668E-15	9.109460E-17
4.610000E+03	1.680435E-15	9.243720E-17
4.620000E+03	1.695238E-15	9.358441E-17
4.630000E+03	1.705697E-15	9.451392E-17
4.640000E+03	1.711614E-15	9.520108E-17
4.650000E+03	1.712998E-15	9.563454E-17
4.660000E+03	1.709962E-15	9.581430E-17
4.670000E+03	1.702719E-15	9.574150E-17
4.680000E+03	1.691591E-15	9.543094E-17
4.690000E+03	1.676974E-15	9.490939E-17
4.700000E+03	1.659253E-15	9.419874E-17
4.710000E+03	1.638918E-15	9.333236E-17
4.720000E+03	1.616425E-15	9.234451E-17
4.730000E+03	1.592253E-15	9.126062E-17
4.740000E+03	1.566933E-15	9.011098E-17
4.750000E+03	1.540901E-15	8.892320E-17
4.760000E+03	1.514612E-15	8.771862E-17
4.770000E+03	1.488464E-15	8.651910E-17
4.780000E+03	1.462802E-15	8.534737E-17
4.790000E+03	1.437947E-15	8.421927E-17
4.800000E+03	1.414218E-15	8.315400E-17
4.810000E+03	1.391852E-15	8.216814E-17
4.820000E+03	1.371103E-15	8.127179E-17
4.830000E+03	1.352224E-15	8.047701E-17
4.840000E+03	1.335423E-15	7.979537E-17
4.850000E+03	1.320909E-15	7.923253E-17
4.860000E+03	1.308905E-15	7.879822E-17
4.870000E+03	1.299556E-15	7.850157E-17
4.880000E+03	1.293064E-15	7.835212E-17
4.890000E+03	1.289583E-15	7.836085E-17
4.900000E+03	1.289200E-15	7.853814E-17
4.910000E+03	1.291938E-15	7.888607E-17
4.920000E+03	1.297705E-15	7.940251E-17
4.930000E+03	1.306307E-15	8.008088E-17
4.940000E+03	1.317316E-15	8.089466E-17
4.950000E+03	1.330195E-15	8.181223E-17
4.960000E+03	1.344312E-15	8.279915E-17
4.970000E+03	1.358969E-15	8.381225E-17
4.980000E+03	1.373425E-15	8.480860E-17
4.990000E+03	1.387030E-15	8.575311E-17
5.000000E+03	1.399179E-15	8.660765E-17
5.010000E+03	1.409425E-15	8.734519E-17
5.020000E+03	1.417454E-15	8.794892E-17
5.030000E+03	1.423185E-15	8.840942E-17
5.040000E+03	1.426663E-15	8.872667E-17
5.050000E+03	1.428145E-15	8.891526E-17
5.060000E+03	1.428013E-15	8.899092E-17
5.070000E+03	1.426766E-15	8.897851E-17
5.080000E+03	1.424933E-15	8.890746E-17
5.090000E+03	1.423009E-15	8.879976E-17
5.100000E+03	1.421427E-15	8.867693E-17
5.110000E+03	1.420554E-15	8.856026E-17
5.120000E+03	1.420588E-15	8.845690E-17
5.130000E+03	1.421662E-15	8.837381E-17
5.140000E+03	1.423769E-15	8.831213E-17
5.150000E+03	1.426856E-15	8.826472E-17
5.160000E+03	1.430812E-15	8.822324E-17
5.170000E+03	1.435473E-15	8.817855E-17
5.180000E+03	1.440673E-15	8.811615E-17
5.190000E+03	1.446243E-15	8.802394E-17
5.200000E+03	1.452034E-15	8.789400E-17
5.210000E+03	1.457898E-15	8.771336E-17
5.220000E+03	1.463697E-15	8.747287E-17
5.230000E+03	1.469287E-15	8.716602E-17
5.240000E+03	1.474564E-15	8.678311E-17
5.250000E+03	1.479410E-15	8.631698E-17
5.260000E+03	1.483702E-15	8.576318E-17
5.270000E+03	1.487317E-15	8.511149E-17
5.280000E+03	1.490092E-15	8.435248E-17
5.290000E+03	1.491870E-15	8.347925E-17
5.300000E+03	1.492502E-15	8.247751E-17
5.310000E+03	1.491828E-15	8.133421E-17
5.320000E+03	1.489692E-15	8.003821E-17
5.330000E+03	1.486000E-15	7.857330E-17
5.340000E+03	1.480697E-15	7.692691E-17
5.350000E+03	1.473748E-15	7.508818E-17
5.360000E+03	1.465256E-15	7.304361E-17
5.370000E+03	1.455355E-15	7.078226E-17
5.380000E+03	1.444273E-15	6.829881E-17
5.390000E+03	1.432358E-15	6.558390E-17
5.400000E+03	1.420017E-15	6.263501E-17
5.410000E+03	1.407731E-15	5.945936E-17
5.420000E+03	1.396128E-15	5.607002E-17
5.430000E+03	1.385841E-15	5.249922E-17
5.440000E+03	1.377590E-15	4.881527E-17
5.450000E+03	1.372153E-15	4.512797E-17
5.460000E+03	1.370271E-15	4.161885E-17
5.470000E+03	1.372639E-15	3.856988E-17
5.480000E+03	1.379888E-15	3.636869E-17
5.490000E+03	1.392481E-15	3.547365E-17
5.500000E+03	1.410218E-15	3.613562E-17
5.510000E+03	1.431201E-15	3.801732E-17
5.520000E+03	1.453023E-15	4.062826E-17
5.530000E+03	1.473204E-15	4.353306E-17
5.540000E+03	1.489512E-15	4.639623E-17
5.550000E+03	1.499952E-15	4.899772E-17
5.560000E+03	1.502977E-15	5.121159E-17
5.570000E+03	1.497821E-15	5.297129E-17
5.580000E+03	1.484372E-15	5.427184E-17
5.590000E+03	1.462963E-15	5.514839E-17
5.600000E+03	1.434484E-15	5.564769E-17
5.610000E+03	1.400097E-15	5.583353E-17
5.620000E+03	1.361074E-15	5.577714E-17
5.630000E+03	1.318638E-15	5.552919E-17
5.640000E+03	1.273974E-15	5.513870E-17
5.650000E+03	1.228159E-15	5.465222E-17
5.660000E+03	1.182154E-15	5.409868E-17
5.670000E+03	1.136840E-15	5.350727E-17
5.680000E+03	1.092996E-15	5.290881E-17
5.690000E+03	1.051365E-15	5.232773E-17
5.700000E+03	1.012633E-15	5.179278E-17
5.710000E+03	9.773678E-16	5.133433E-17
5.720000E+03	9.461367E-16	5.098150E-17
5.730000E+03	9.194082E-16	5.076411E-17
5.740000E+03	8.975596E-16	5.071267E-17
5.750000E+03	8.808363E-16	5.084817E-17
5.760000E+03	8.693815E-16	5.118882E-17
5.770000E+03	8.632663E-16	5.175233E-17
5.780000E+03	8.623837E-16	5.254409E-17
5.790000E+03	8.665512E-16	5.356608E-17
5.800000E+03	8.754857E-16	5.481421E-17
5.810000E+03	8.887782E-16	5.627157E-17
5.820000E+03	9.059236E-16	5.791411E-17
5.830000E+03	9.263663E-16	5.971372E-17
5.840000E+03	9.494554E-16	6.163112E-17
5.850000E+03	9.745154E-16	6.362482E-17
5.860000E+03	1.000817E-15	6.564961E-17
5.870000E+03	1.027599E-15	6.765342E-17
5.880000E+03	1.054120E-15	6.958552E-17
5.890000E+03	1.079645E-15	7.139646E-17
5.900000E+03	1.103455E-15	7.303355E-17
5.910000E+03	1.124925E-15	7.445154E-17
5.920000E+03	1.143473E-15	7.560949E-17
5.930000E+03	1.158626E-15	7.647045E-17
5.940000E+03	1.170064E-15	7.700949E-17
5.950000E+03	1.177543E-15	7.720960E-17
5.960000E+03	1.181011E-15	7.706421E-17
5.970000E+03	1.180503E-15	7.657543E-17
5.980000E+03	1.176216E-15	7.575965E-17
5.990000E+03	1.168419E-15	7.463571E-17
6.000000E+03	1.157507E-15	7.323370E-17
6.010000E+03	1.143921E-15	7.158905E-17
6.020000E+03	1.128197E-15	6.973964E-17
6.030000E+03	1.110852E-15	6.772380E-17
6.040000E+03	1.092446E-15	6.558303E-17
6.050000E+03	1.073523E-15	6.335245E-17
6.060000E+03	1.054590E-15	6.106486E-17
6.070000E+03	1.036129E-15	5.875043E-17
6.080000E+03	1.018560E-15	5.642832E-17
6.090000E+03	1.002239E-15	5.411286E-17
6.100000E+03	9.874960E-16	5.181466E-17
6.110000E+03	9.745929E-16	4.953246E-17
6.120000E+03	9.637807E-16	4.726260E-17
6.130000E+03	9.552718E-16	4.499685E-17
6.140000E+03	9.492843E-16	4.271823E-17
6.150000E+03	9.460538E-16	4.040959E-17
6.160000E+03	9.457658E-16	3.805137E-17
6.170000E+03	9.486581E-16	3.562173E-17
6.180000E+03	9.549501E-16	3.310769E-17
6.190000E+03	9.648273E-16	3.051470E-17
6.200000E+03	9.784903E-16	2.788122E-17
6.210000E+03	9.960356E-16	2.532711E-17
6.220000E+03	1.017542E-15	2.312313E-17
6.230000E+03	1.042948E-15	2.175378E-17
6.240000E+03	1.072008E-15	2.189941E-17
6.250000E+03	1.104009E-15	2.387007E-17
6.260000E+03	1.137570E-15	2.721822E-17
6.270000E+03	1.171078E-15	3.140794E-17
6.280000E+03	1.202990E-15	3.604760E-17
6.290000E+03	1.232091E-15	4.087320E-17
6.300000E+03	1.257480E-15	4.571933E-17
6.310000E+03	1.278544E-15	5.048408E-17
6.320000E+03	1.294939E-15	5.508764E-17
6.330000E+03	1.306658E-15	5.947868E-17
6.340000E+03	1.313789E-15	6.362490E-17
6.350000E+03	1.316587E-15	6.750182E-17
6.360000E+03	1.315428E-15	7.109942E-17
6.370000E+03	1.310676E-15	7.441580E-17
6.380000E+03	1.302804E-15	7.745465E-17
6.390000E+03	1.292230E-15	8.022233E-17
6.400000E+03	1.279395E-15	8.273341E-17
6.410000E+03	1.264694E-15	8.499873E-17
6.420000E+03	1.248485E-15	8.703152E-17
6.430000E+03	1.231076E-15	8.884658E-17
6.440000E+03	1.212767E-15	9.045785E-17
6.450000E+03	1.193766E-15	9.187605E-17
6.460000E+03	1.174283E-15	9.311591E-17
6.470000E+03	1.154490E-15	9.418855E-17
6.480000E+03	1.134487E-15	9.510199E-17
6.490000E+03	1.114393E-15	9.586796E-17
6.500000E+03	1.094301E-15	9.649560E-17
6.510000E+03	1.074256E-15	9.699092E-17
6.520000E+03	1.054331E-15	9.736461E-17
6.530000E+03	1.034557E-15	9.762193E-17
6.540000E+03	1.014973E-15	9.777023E-17
6.550000E+03	9.955825E-16	9.781443E-17
6.560000E+03	9.764004E-16	9.775914E-17
6.570000E+03	9.574076E-16	9.760630E-17
6.580000E+03	9.385986E-16	9.735969E-17
6.590000E+03	9.199468E-16	9.701975E-17
6.600000E+03	9.014219E-16	9.658684E-17
6.610000E+03	8.829845E-16	9.606061E-17
6.620000E+03	8.646278E-16	9.544317E-17
6.630000E+03	8.463208E-16	9.473426E-17
6.640000E+03	8.280527E-16	9.393616E-17
6.650000E+03	8.098247E-16	9.305173E-17
6.660000E+03	7.916585E-16	9.208655E-17
6.670000E+03	7.735681E-16	9.104572E-17
6.680000E+03	7.555968E-16	8.993724E-17
6.690000E+03	7.377870E-16	8.876948E-17
6.700000E+03	7.201800E-16	8.755102E-17
6.710000E+03	7.028398E-16	8.629285E-17
6.720000E+03	6.858259E-16	8.500578E-17
6.730000E+03	6.692013E-16	8.370143E-17
6.740000E+03	6.530311E-16	8.239138E-17
6.750000E+03	6.373815E-16	8.108765E-17
6.760000E+03	6.223183E-16	7.980252E-17
6.770000E+03	6.079137E-16	7.854880E-17
6.780000E+03	5.942223E-16	7.733728E-17
6.790000E+03	5.813094E-16	7.618037E-17
6.800000E+03	5.692215E-16	7.508771E-17
6.810000E+03	5.580139E-16	7.407017E-17
6.820000E+03	5.477216E-16	7.313612E-17
6.830000E+03	5.383936E-16	7.229536E-17
6.840000E+03	5.300454E-16	7.155324E-17
6.850000E+03	5.227047E-16	7.091676E-17
6.860000E+03	5.163921E-16	7.039151E-17
6.870000E+03	5.111015E-16	6.997938E-17
6.880000E+03	5.068449E-16	6.968465E-17
6.890000E+03	5.036082E-16	6.950754E-17
6.900000E+03	5.013762E-16	6.944801E-17
6.910000E+03	5.001328E-16	6.950575E-17
6.920000E+03	4.998476E-16	6.967803E-17
6.930000E+03	5.004767E-16	6.996008E-17
6.940000E+03	5.019742E-16	7.034666E-17
6.950000E+03	5.042982E-16	7.083264E-17
6.960000E+03	5.073733E-16	7.140806E-17
6.970000E+03	5.111361E-16	7.206441E-17
6.980000E+03	5.155096E-16	7.279083E-17
6.990000E+03	5.204108E-16	7.357545E-17
7.000000E+03	5.257601E-16	7.440673E-17
7.010000E+03	5.314560E-16	7.526957E-17
7.020000E+03	5.374232E-16	7.615248E-17
7.030000E+03	5.435670E-16	7.704113E-17
7.040000E+03	5.498033E-16	7.792230E-17
7.050000E+03	5.560593E-16	7.878432E-17
7.060000E+03	5.622529E-16	7.961421E-17
7.070000E+03	5.683237E-16	8.040173E-17
7.080000E+03	5.742040E-16	8.113566E-17
7.090000E+03	5.798492E-16	8.180807E-17
7.100000E+03	5.852163E-16	8.241104E-17
7.110000E+03	5.902636E-16	8.293688E-17
7.120000E+03	5.949816E-16	8.338260E-17
7.130000E+03	5.993389E-16	8.374185E-17
7.140000E+03	6.033431E-16	8.401387E-17
7.150000E+03	6.069762E-16	8.419450E-17
7.160000E+03	6.102492E-16	8.428332E-17
7.170000E+03	6.131757E-16	8.428048E-17
7.180000E+03	6.157455E-16	8.418292E-17
7.190000E+03	6.179797E-16	8.399170E-17
7.200000E+03	6.198720E-16	8.370430E-17
7.210000E+03	6.214289E-16	8.332011E-17
7.220000E+03	6.226365E-16	8.283559E-17
7.230000E+03	6.234844E-16	8.224795E-17
7.240000E+03	6.239573E-16	8.155401E-17
7.250000E+03	6.240449E-16	8.075115E-17
7.260000E+03	6.237246E-16	7.983548E-17
7.270000E+03	6.229621E-16	7.880204E-17
7.280000E+03	6.217390E-16	7.764793E-17
7.290000E+03	6.200192E-16	7.636855E-17
7.300000E+03	6.177850E-16	7.496217E-17
7.310000E+03	6.150057E-16	7.342568E-17
7.320000E+03	6.116722E-16	7.175932E-17
7.330000E+03	6.077739E-16	6.996386E-17
7.340000E+03	6.033099E-16	6.804156E-17
7.350000E+03	5.982804E-16	6.599575E-17
7.360000E+03	5.927130E-16	6.383370E-17
7.370000E+03	5.866394E-16	6.156345E-17
7.380000E+03	5.801021E-16	5.919514E-17
7.390000E+03	5.731463E-16	5.673996E-17
7.400000E+03	5.658436E-16	5.421206E-17
7.410000E+03	5.582664E-16	5.162626E-17
7.420000E+03	5.504862E-16	4.899796E-17
7.430000E+03	5.425978E-16	4.634443E-17
7.440000E+03	5.346921E-16	4.368305E-17
7.450000E+03	5.268563E-16	4.103119E-17
7.460000E+03	5.191897E-16	3.840660E-17
7.470000E+03	5.117993E-16	3.582799E-17
7.480000E+03	5.047787E-16	3.331307E-17
7.490000E+03	4.982396E-16	3.087951E-17
7.500000E+03	4.922724E-16	2.854366E-17
7.510000E+03	4.869894E-16	2.632166E-17
7.520000E+03	4.825067E-16	2.422511E-17
7.530000E+03	4.789159E-16	2.226051E-17
7.540000E+03	4.763097E-16	2.042398E-17
7.550000E+03	4.747398E-16	1.869397E-17
7.560000E+03	4.742425E-16	1.704909E-17
7.570000E+03	4.747996E-16	1.548353E-17
7.580000E+03	4.763191E-16	1.402663E-17
7.590000E+03	4.786687E-16	1.279383E-17
7.600000E+03	4.817192E-16	1.203986E-17
7.610000E+03	4.853124E-16	1.213472E-17
7.620000E+03	4.893116E-16	1.334191E-17
7.630000E+03	4.936171E-16	1.550812E-17
7.640000E+03	4.981451E-16	1.832640E-17
7.650000E+03	5.028362E-16	2.154908E-17
7.660000E+03	5.076504E-16	2.501255E-17
7.670000E+03	5.125345E-16	2.861172E-17
7.680000E+03	5.174479E-16	3.227835E-17
7.690000E+03	5.223245E-16	3.596427E-17
7.700000E+03	5.271118E-16	3.963453E-17
7.710000E+03	5.317430E-16	4.326111E-17
7.720000E+03	5.361455E-16	4.682039E-17
7.730000E+03	5.402332E-16	5.029020E-17
7.740000E+03	5.439233E-16	5.365040E-17
7.750000E+03	5.471395E-16	5.688264E-17
7.760000E+03	5.497904E-16	5.996751E-17
