#wls	flux	fluxerr
1.600000E+03	1.191228E-15	1.321714E-15
1.640000E+03	1.212880E-15	1.338499E-15
1.680000E+03	1.235306E-15	1.355273E-15
1.720000E+03	1.258377E-15	1.371805E-15
1.760000E+03	1.282213E-15	1.388127E-15
1.800000E+03	1.306844E-15	1.404168E-15
1.840000E+03	1.332301E-15	1.419844E-15
1.880000E+03	1.358612E-15	1.435058E-15
1.920000E+03	1.385803E-15	1.449702E-15
1.960000E+03	1.413897E-15	1.463652E-15
2.000000E+03	1.443077E-15	1.476938E-15
2.040000E+03	1.473207E-15	1.489243E-15
2.080000E+03	1.504544E-15	1.500642E-15
2.120000E+03	1.537032E-15	1.510874E-15
2.160000E+03	1.570774E-15	1.519821E-15
2.200000E+03	1.605951E-15	1.527422E-15
2.240000E+03	1.642518E-15	1.533378E-15
2.280000E+03	1.680740E-15	1.537665E-15
2.320000E+03	1.720736E-15	1.540096E-15
2.360000E+03	1.762563E-15	1.540407E-15
2.400000E+03	1.806440E-15	1.538454E-15
2.440000E+03	1.852599E-15	1.534077E-15
2.480000E+03	1.901291E-15	1.527102E-15
2.520000E+03	1.952652E-15	1.517232E-15
2.560000E+03	2.006992E-15	1.504288E-15
2.600000E+03	2.064800E-15	1.488187E-15
2.640000E+03	2.126265E-15	1.468589E-15
2.680000E+03	2.191986E-15	1.445420E-15
2.720000E+03	2.262506E-15	1.418511E-15
2.760000E+03	2.338341E-15	1.387636E-15
2.800000E+03	2.420488E-15	1.352801E-15
2.840000E+03	2.509739E-15	1.313801E-15
2.880000E+03	2.607430E-15	1.270612E-15
2.920000E+03	2.715214E-15	1.223183E-15
2.960000E+03	2.835157E-15	1.171384E-15
3.000000E+03	2.970148E-15	1.115052E-15
3.010000E+03	3.006701E-15	1.100235E-15
3.020000E+03	3.044485E-15	1.085100E-15
3.030000E+03	3.083644E-15	1.069663E-15
3.040000E+03	3.124196E-15	1.053887E-15
3.050000E+03	3.166231E-15	1.037763E-15
3.060000E+03	3.209847E-15	1.021278E-15
3.070000E+03	3.255216E-15	1.004437E-15
3.080000E+03	3.302385E-15	9.872013E-16
3.090000E+03	3.351544E-15	9.695732E-16
3.100000E+03	3.402687E-15	9.514912E-16
3.110000E+03	3.456159E-15	9.329902E-16
3.120000E+03	3.511905E-15	9.139870E-16
3.130000E+03	3.570223E-15	8.944907E-16
3.140000E+03	3.631215E-15	8.744528E-16
3.150000E+03	3.695061E-15	8.538411E-16
3.160000E+03	3.762027E-15	8.326371E-16
3.170000E+03	3.832246E-15	8.107882E-16
3.180000E+03	3.905934E-15	7.882572E-16
3.190000E+03	3.983318E-15	7.650066E-16
3.200000E+03	4.064637E-15	7.409992E-16
3.210000E+03	4.150218E-15	7.162123E-16
3.220000E+03	4.240173E-15	6.905873E-16
3.230000E+03	4.334928E-15	6.641224E-16
3.240000E+03	4.434615E-15	6.367748E-16
3.250000E+03	4.539685E-15	6.085602E-16
3.260000E+03	4.650290E-15	5.794661E-16
3.270000E+03	4.766827E-15	5.495349E-16
3.280000E+03	4.889632E-15	5.188277E-16
3.290000E+03	5.019056E-15	4.874454E-16
3.300000E+03	5.155391E-15	4.555345E-16
3.310000E+03	5.299129E-15	4.233281E-16
3.320000E+03	5.450639E-15	3.911387E-16
3.330000E+03	5.610447E-15	3.594128E-16
3.340000E+03	5.779264E-15	3.287688E-16
3.342762E+03	6.254389E-15	8.927487E-16
3.345714E+03	6.329673E-15	8.943804E-16
3.348666E+03	6.385475E-15	8.955517E-16
3.351619E+03	6.435320E-15	8.965827E-16
3.354571E+03	6.473664E-15	8.973364E-16
3.357523E+03	6.545007E-15	8.988971E-16
3.360476E+03	6.636093E-15	9.009537E-16
3.363428E+03	6.764370E-15	9.039563E-16
3.366381E+03	6.888311E-15	9.068854E-16
3.369333E+03	6.961254E-15	9.069038E-16
3.372285E+03	7.060025E-15	8.166210E-16
3.375238E+03	7.173667E-15	7.757118E-16
3.378190E+03	7.289195E-15	6.453993E-16
3.381143E+03	7.413777E-15	6.373278E-16
3.384095E+03	7.533482E-15	6.076403E-16
3.387048E+03	7.641413E-15	6.163113E-16
3.390000E+03	7.741492E-15	6.218981E-16
3.392952E+03	7.829392E-15	6.848248E-16
3.395905E+03	7.906601E-15	6.560342E-16
3.398857E+03	7.982045E-15	6.983668E-16
3.401809E+03	8.050585E-15	7.054703E-16
3.404762E+03	8.097481E-15	6.990175E-16
3.407714E+03	8.137204E-15	7.268399E-16
3.410667E+03	8.160559E-15	7.199402E-16
3.413619E+03	8.166736E-15	7.206929E-16
3.416572E+03	8.165335E-15	7.471805E-16
3.419524E+03	8.130803E-15	7.641012E-16
3.422476E+03	8.154137E-15	7.840718E-16
3.425429E+03	8.181927E-15	7.836543E-16
3.428381E+03	8.258519E-15	7.847963E-16
3.431334E+03	8.305899E-15	7.855849E-16
3.434286E+03	8.286756E-15	7.750758E-16
3.437238E+03	8.298298E-15	7.688189E-16
3.440191E+03	8.327408E-15	7.072621E-16
3.443143E+03	8.374626E-15	6.943069E-16
3.446095E+03	8.406290E-15	6.544012E-16
3.449048E+03	8.421051E-15	6.430990E-16
3.452000E+03	8.459731E-15	6.422466E-16
3.454953E+03	8.527465E-15	6.213520E-16
3.457905E+03	8.555316E-15	6.132131E-16
3.460858E+03	8.545586E-15	6.101930E-16
3.463810E+03	8.552339E-15	5.771089E-16
3.466762E+03	8.552465E-15	5.279150E-16
3.469715E+03	8.536097E-15	5.379661E-16
3.472667E+03	8.497157E-15	5.363981E-16
3.475619E+03	8.449700E-15	5.310988E-16
3.478572E+03	8.431835E-15	5.285411E-16
3.481524E+03	8.407479E-15	5.304211E-16
3.484477E+03	8.343799E-15	5.269227E-16
3.487429E+03	8.259446E-15	5.686063E-16
3.490381E+03	8.258188E-15	6.389759E-16
3.493334E+03	8.261652E-15	6.944255E-16
3.496286E+03	8.189725E-15	6.887790E-16
3.499239E+03	8.117527E-15	6.883426E-16
3.502191E+03	8.043439E-15	6.857476E-16
3.505144E+03	8.007850E-15	6.860769E-16
3.508096E+03	7.995358E-15	7.065345E-16
3.511048E+03	8.002041E-15	7.097083E-16
3.514001E+03	7.960094E-15	7.062721E-16
3.516953E+03	7.900047E-15	6.999328E-16
3.519905E+03	7.864985E-15	7.004144E-16
3.522858E+03	7.830327E-15	7.015075E-16
3.525810E+03	7.833477E-15	7.179639E-16
3.528763E+03	7.853232E-15	7.177515E-16
3.531715E+03	7.887833E-15	7.254120E-16
3.534668E+03	7.946999E-15	7.084220E-16
3.537620E+03	8.015065E-15	6.587534E-16
3.540572E+03	8.079744E-15	6.103682E-16
3.543525E+03	8.136175E-15	6.112681E-16
3.546477E+03	8.175989E-15	6.327092E-16
3.549430E+03	8.185421E-15	6.338481E-16
3.552382E+03	8.183642E-15	6.296111E-16
3.555334E+03	8.188336E-15	6.137027E-16
3.558287E+03	8.170348E-15	6.105635E-16
3.561239E+03	8.133867E-15	6.130827E-16
3.564191E+03	8.096169E-15	6.285369E-16
3.567144E+03	8.026892E-15	6.336501E-16
3.570096E+03	7.930899E-15	6.345716E-16
3.573049E+03	7.841522E-15	6.092023E-16
3.576001E+03	7.744864E-15	6.807170E-16
3.578954E+03	7.639442E-15	7.283157E-16
3.581906E+03	7.544549E-15	7.970518E-16
3.584858E+03	7.468952E-15	8.365434E-16
3.587811E+03	7.425058E-15	8.342285E-16
3.590763E+03	7.413536E-15	8.328354E-16
3.593715E+03	7.406729E-15	8.188260E-16
3.596668E+03	7.413000E-15	8.339195E-16
3.599620E+03	7.446370E-15	8.437923E-16
3.602573E+03	7.498339E-15	8.461698E-16
3.605525E+03	7.530069E-15	8.498349E-16
3.608477E+03	7.594687E-15	8.541150E-16
3.611430E+03	7.667784E-15	8.263863E-16
3.614382E+03	7.719969E-15	8.063077E-16
3.617335E+03	7.770927E-15	7.948794E-16
3.620287E+03	7.843978E-15	8.016545E-16
3.623240E+03	7.959064E-15	7.395535E-16
3.626192E+03	8.087335E-15	6.989228E-16
3.629144E+03	8.186202E-15	6.088915E-16
3.632097E+03	8.292055E-15	5.266906E-16
3.635049E+03	8.391418E-15	5.061309E-16
3.638001E+03	8.509486E-15	5.260633E-16
3.640954E+03	8.623757E-15	5.500339E-16
3.643906E+03	8.711465E-15	5.583224E-16
3.646859E+03	8.784469E-15	5.488543E-16
3.649811E+03	8.846814E-15	5.512556E-16
3.652764E+03	8.911161E-15	5.518920E-16
3.655716E+03	8.971989E-15	5.409571E-16
3.658668E+03	9.011792E-15	5.347051E-16
3.661621E+03	9.021150E-15	5.368115E-16
3.664573E+03	9.003437E-15	5.286981E-16
3.667526E+03	8.955966E-15	5.126327E-16
3.670478E+03	8.940803E-15	5.120368E-16
3.673430E+03	8.963188E-15	5.130753E-16
3.676383E+03	8.986907E-15	5.146317E-16
3.679335E+03	9.038203E-15	5.190274E-16
3.682287E+03	9.100651E-15	5.202277E-16
3.685240E+03	9.153794E-15	5.197721E-16
3.688192E+03	9.204095E-15	5.111547E-16
3.691145E+03	9.256126E-15	5.006517E-16
3.694097E+03	9.292267E-15	4.986783E-16
3.697050E+03	9.323281E-15	5.020566E-16
3.700002E+03	9.378356E-15	5.039495E-16
3.702954E+03	9.442690E-15	5.063364E-16
3.705907E+03	9.496112E-15	5.060268E-16
3.708859E+03	9.546289E-15	5.076356E-16
3.711811E+03	9.596044E-15	5.066207E-16
3.714764E+03	9.627364E-15	5.099043E-16
3.717716E+03	9.641733E-15	5.100402E-16
3.720669E+03	9.669531E-15	5.108632E-16
3.723621E+03	9.702018E-15	5.121308E-16
3.726573E+03	9.730056E-15	5.117635E-16
3.729526E+03	9.751900E-15	5.126150E-16
3.732478E+03	9.753578E-15	5.134008E-16
3.735431E+03	9.767875E-15	5.120847E-16
3.738383E+03	9.777862E-15	5.062440E-16
3.741336E+03	9.792808E-15	5.075577E-16
3.744288E+03	9.808145E-15	5.052450E-16
3.747240E+03	9.814205E-15	5.049478E-16
3.750193E+03	9.817303E-15	5.109353E-16
3.753145E+03	9.824418E-15	5.132307E-16
3.756097E+03	9.859310E-15	5.136559E-16
3.759050E+03	9.874724E-15	5.151324E-16
3.762002E+03	9.867447E-15	5.131507E-16
3.764955E+03	9.873179E-15	5.130145E-16
3.767907E+03	9.886952E-15	5.099553E-16
3.770860E+03	9.913458E-15	5.120171E-16
3.773812E+03	9.936060E-15	5.140969E-16
3.776764E+03	9.949662E-15	5.129236E-16
3.779717E+03	9.975188E-15	5.098620E-16
3.782669E+03	9.997617E-15	5.100095E-16
3.785622E+03	1.002271E-14	5.113040E-16
3.788574E+03	1.005423E-14	5.152977E-16
3.791526E+03	1.008117E-14	5.144041E-16
3.794479E+03	1.010314E-14	5.153354E-16
3.797431E+03	1.014400E-14	5.103665E-16
3.800383E+03	1.018483E-14	5.083705E-16
3.803336E+03	1.022592E-14	5.104017E-16
3.806288E+03	1.026618E-14	5.141666E-16
3.809241E+03	1.030482E-14	5.204523E-16
3.812193E+03	1.033620E-14	5.257705E-16
3.815146E+03	1.037440E-14	5.319945E-16
3.818098E+03	1.042584E-14	5.334720E-16
3.821050E+03	1.048168E-14	5.337386E-16
3.824003E+03	1.052437E-14	5.346959E-16
3.826955E+03	1.056370E-14	5.358888E-16
3.829907E+03	1.061211E-14	5.397280E-16
3.832860E+03	1.066130E-14	5.419670E-16
3.835812E+03	1.070994E-14	5.447011E-16
3.838765E+03	1.076498E-14	5.466327E-16
3.841717E+03	1.080434E-14	5.478944E-16
3.844670E+03	1.083767E-14	5.495851E-16
3.847622E+03	1.088355E-14	5.515456E-16
3.850574E+03	1.093756E-14	5.541372E-16
3.853527E+03	1.097458E-14	5.527364E-16
3.856479E+03	1.100329E-14	5.499926E-16
3.859432E+03	1.102824E-14	5.462328E-16
3.862384E+03	1.105665E-14	5.421093E-16
3.865336E+03	1.108972E-14	5.414529E-16
3.868289E+03	1.113800E-14	5.437919E-16
3.871241E+03	1.119815E-14	5.462795E-16
3.874194E+03	1.124865E-14	5.480737E-16
3.877146E+03	1.128912E-14	5.504245E-16
3.880098E+03	1.133505E-14	5.601249E-16
3.883051E+03	1.137962E-14	5.562873E-16
3.886003E+03	1.141922E-14	5.576156E-16
3.888956E+03	1.145427E-14	5.584776E-16
3.891908E+03	1.149664E-14	5.620521E-16
3.894860E+03	1.154153E-14	5.655976E-16
3.897813E+03	1.160000E-14	5.667135E-16
3.900765E+03	1.166498E-14	5.676039E-16
3.903718E+03	1.172300E-14	5.711555E-16
3.906670E+03	1.175139E-14	5.719524E-16
3.909622E+03	1.178603E-14	5.730303E-16
3.912575E+03	1.184571E-14	5.760246E-16
3.915527E+03	1.189431E-14	5.785824E-16
3.918480E+03	1.193435E-14	5.809618E-16
3.921432E+03	1.197464E-14	5.818495E-16
3.924384E+03	1.201491E-14	5.858048E-16
3.927337E+03	1.206208E-14	5.780590E-16
3.930289E+03	1.209152E-14	5.788676E-16
3.933242E+03	1.210669E-14	5.789619E-16
3.936194E+03	1.211532E-14	5.786916E-16
3.939146E+03	1.212261E-14	5.778279E-16
3.942099E+03	1.213083E-14	5.775149E-16
3.945051E+03	1.214316E-14	5.813018E-16
3.948004E+03	1.214722E-14	5.846638E-16
3.950956E+03	1.214795E-14	5.810645E-16
3.953908E+03	1.214309E-14	5.864223E-16
3.956861E+03	1.213782E-14	5.853928E-16
3.959813E+03	1.213933E-14	5.910817E-16
3.962766E+03	1.213644E-14	5.899421E-16
3.965718E+03	1.214098E-14	5.883156E-16
3.968670E+03	1.213940E-14	5.878494E-16
3.971623E+03	1.213490E-14	5.819985E-16
3.974575E+03	1.215217E-14	5.804031E-16
3.977528E+03	1.218285E-14	5.814242E-16
3.980480E+03	1.220899E-14	5.835888E-16
3.983432E+03	1.223273E-14	5.864726E-16
3.986385E+03	1.226017E-14	5.896651E-16
3.989337E+03	1.228546E-14	5.898523E-16
3.992290E+03	1.230968E-14	5.869338E-16
3.995242E+03	1.235419E-14	5.849601E-16
3.998194E+03	1.239376E-14	5.855191E-16
4.001147E+03	1.241395E-14	5.794161E-16
4.004099E+03	1.244287E-14	5.800039E-16
4.007052E+03	1.246992E-14	5.731638E-16
4.010004E+03	1.249761E-14	5.725148E-16
4.012956E+03	1.252847E-14	5.733955E-16
4.015909E+03	1.255679E-14	5.736235E-16
4.018861E+03	1.258072E-14	5.729338E-16
4.021814E+03	1.258768E-14	5.718557E-16
4.024766E+03	1.258998E-14	5.733224E-16
4.027718E+03	1.260155E-14	5.720096E-16
4.030671E+03	1.260543E-14	5.695330E-16
4.033623E+03	1.259897E-14	5.649391E-16
4.036576E+03	1.258310E-14	5.630249E-16
4.039528E+03	1.258603E-14	5.637400E-16
4.042480E+03	1.258855E-14	5.635693E-16
4.045433E+03	1.257863E-14	5.638736E-16
4.048385E+03	1.256235E-14	5.649851E-16
4.051338E+03	1.253866E-14	5.643315E-16
4.054290E+03	1.252965E-14	5.634002E-16
4.057242E+03	1.252342E-14	5.634184E-16
4.060195E+03	1.250488E-14	5.615856E-16
4.063147E+03	1.248555E-14	5.601581E-16
4.066100E+03	1.246847E-14	5.580824E-16
4.069052E+03	1.245931E-14	5.568200E-16
4.072004E+03	1.245847E-14	5.547903E-16
4.074957E+03	1.245749E-14	5.541324E-16
4.077909E+03	1.245492E-14	5.545372E-16
4.080862E+03	1.245472E-14	5.537005E-16
4.083814E+03	1.244567E-14	5.526774E-16
4.086766E+03	1.243252E-14	5.511718E-16
4.089719E+03	1.243217E-14	5.513821E-16
4.092671E+03	1.243339E-14	5.506040E-16
4.095624E+03	1.243145E-14	5.500712E-16
4.098576E+03	1.243529E-14	5.525175E-16
4.101528E+03	1.243636E-14	5.525006E-16
4.104481E+03	1.243914E-14	5.511193E-16
4.107433E+03	1.244797E-14	5.582253E-16
4.110386E+03	1.244993E-14	5.593908E-16
4.113338E+03	1.244241E-14	5.583993E-16
4.116290E+03	1.243909E-14	5.578547E-16
4.119243E+03	1.244933E-14	5.580376E-16
4.122195E+03	1.245351E-14	5.588390E-16
4.125148E+03	1.244635E-14	5.572442E-16
4.128100E+03	1.244748E-14	5.569254E-16
4.131052E+03	1.244426E-14	5.562231E-16
4.134005E+03	1.244117E-14	5.553623E-16
4.136957E+03	1.244044E-14	5.526295E-16
4.139910E+03	1.244088E-14	5.517358E-16
4.142862E+03	1.245408E-14	5.497835E-16
4.145814E+03	1.245621E-14	5.455197E-16
4.148767E+03	1.246229E-14	5.450402E-16
4.151719E+03	1.247637E-14	5.449533E-16
4.154672E+03	1.247611E-14	5.373264E-16
4.157624E+03	1.247414E-14	5.342193E-16
4.160576E+03	1.248740E-14	5.346757E-16
4.163529E+03	1.249185E-14	5.346534E-16
4.166481E+03	1.249288E-14	5.374774E-16
4.169434E+03	1.249797E-14	5.362666E-16
4.172386E+03	1.250751E-14	5.402479E-16
4.175338E+03	1.251822E-14	5.400426E-16
4.178291E+03	1.252157E-14	5.405981E-16
4.181243E+03	1.252020E-14	5.397162E-16
4.184196E+03	1.251986E-14	5.396436E-16
4.187148E+03	1.253106E-14	5.390183E-16
4.190100E+03	1.253136E-14	5.383732E-16
4.193053E+03	1.251790E-14	5.384838E-16
4.196005E+03	1.252475E-14	5.375116E-16
4.198958E+03	1.253041E-14	5.373067E-16
4.201910E+03	1.252112E-14	5.358723E-16
4.204862E+03	1.249115E-14	5.344326E-16
4.207815E+03	1.246066E-14	5.335469E-16
4.210767E+03	1.244405E-14	5.365415E-16
4.213720E+03	1.242534E-14	5.319554E-16
4.216672E+03	1.240559E-14	5.305313E-16
4.219624E+03	1.238401E-14	5.272230E-16
4.222577E+03	1.236884E-14	5.258257E-16
4.225529E+03	1.235694E-14	5.251111E-16
4.228482E+03	1.233916E-14	5.237427E-16
4.231434E+03	1.230870E-14	5.210836E-16
4.234386E+03	1.227471E-14	5.183395E-16
4.237339E+03	1.224884E-14	5.180170E-16
4.240291E+03	1.222179E-14	5.157566E-16
4.243244E+03	1.218861E-14	5.154055E-16
4.246196E+03	1.216419E-14	5.142027E-16
4.249148E+03	1.214042E-14	5.133643E-16
4.252101E+03	1.210870E-14	5.143590E-16
4.255053E+03	1.208298E-14	5.119763E-16
4.258006E+03	1.206575E-14	5.068166E-16
4.260958E+03	1.204644E-14	5.091945E-16
4.263910E+03	1.203977E-14	5.090356E-16
4.266863E+03	1.203101E-14	5.062790E-16
4.269815E+03	1.200883E-14	5.049192E-16
4.272768E+03	1.198808E-14	5.048758E-16
4.275720E+03	1.197671E-14	5.032075E-16
4.278672E+03	1.195623E-14	5.042558E-16
4.281625E+03	1.193419E-14	5.045468E-16
4.284577E+03	1.190968E-14	5.016040E-16
4.287530E+03	1.189025E-14	5.004942E-16
4.290482E+03	1.187563E-14	4.983789E-16
4.293434E+03	1.185946E-14	4.981474E-16
4.296387E+03	1.184315E-14	4.966786E-16
4.299339E+03	1.182698E-14	4.920664E-16
4.302292E+03	1.181276E-14	4.921751E-16
4.305244E+03	1.180309E-14	4.949018E-16
4.308196E+03	1.179718E-14	4.943076E-16
4.311149E+03	1.178581E-14	4.930512E-16
4.314101E+03	1.177185E-14	4.920727E-16
4.317054E+03	1.176204E-14	4.912847E-16
4.320006E+03	1.175898E-14	4.888548E-16
4.322958E+03	1.174943E-14	4.882346E-16
4.325911E+03	1.173715E-14	4.854461E-16
4.328863E+03	1.173200E-14	4.834945E-16
4.331816E+03	1.172426E-14	4.827887E-16
4.334768E+03	1.173039E-14	4.829136E-16
4.337720E+03	1.172951E-14	4.824864E-16
4.340673E+03	1.171670E-14	4.803824E-16
4.343625E+03	1.171685E-14	4.799810E-16
4.346578E+03	1.170689E-14	4.792901E-16
4.349530E+03	1.168074E-14	4.774070E-16
4.352482E+03	1.165329E-14	4.718219E-16
4.355435E+03	1.164036E-14	4.675614E-16
4.358387E+03	1.163920E-14	4.677139E-16
4.361340E+03	1.163183E-14	4.674573E-16
4.364292E+03	1.161953E-14	4.677099E-16
4.367244E+03	1.161190E-14	4.668222E-16
4.370197E+03	1.161150E-14	4.686474E-16
4.373149E+03	1.160244E-14	4.679879E-16
4.376102E+03	1.158213E-14	4.668281E-16
4.379054E+03	1.156595E-14	4.665348E-16
4.382006E+03	1.155056E-14	4.655112E-16
4.384959E+03	1.153530E-14	4.650769E-16
4.387911E+03	1.152417E-14	4.650157E-16
4.390864E+03	1.150413E-14	4.645897E-16
4.393816E+03	1.148977E-14	4.639776E-16
4.396768E+03	1.147451E-14	4.634764E-16
4.399721E+03	1.145861E-14	4.629205E-16
4.402673E+03	1.146193E-14	4.628358E-16
4.405626E+03	1.147195E-14	4.675426E-16
4.408578E+03	1.147577E-14	4.680533E-16
4.411530E+03	1.147971E-14	4.665307E-16
4.414483E+03	1.147978E-14	4.661611E-16
4.417435E+03	1.148422E-14	4.645971E-16
4.420388E+03	1.148698E-14	4.652128E-16
4.423340E+03	1.149424E-14	4.668158E-16
4.426292E+03	1.150111E-14	4.662596E-16
4.429245E+03	1.151182E-14	4.669307E-16
4.432197E+03	1.152523E-14	4.668234E-16
4.435150E+03	1.153426E-14	4.666521E-16
4.438102E+03	1.154070E-14	4.664367E-16
4.441054E+03	1.155035E-14	4.664373E-16
4.444007E+03	1.156089E-14	4.654666E-16
4.446959E+03	1.158067E-14	4.651636E-16
4.449912E+03	1.160198E-14	4.666004E-16
4.452864E+03	1.161929E-14	4.626148E-16
4.455816E+03	1.163504E-14	4.622273E-16
4.458769E+03	1.165335E-14	4.628892E-16
4.461721E+03	1.165997E-14	4.632488E-16
4.464674E+03	1.166093E-14	4.637470E-16
4.467626E+03	1.166933E-14	4.643578E-16
4.470578E+03	1.167657E-14	4.632614E-16
4.473531E+03	1.168315E-14	4.631242E-16
4.476483E+03	1.169742E-14	4.632490E-16
4.479436E+03	1.170296E-14	4.630435E-16
4.482388E+03	1.171183E-14	4.633375E-16
4.485340E+03	1.171197E-14	4.651743E-16
4.488293E+03	1.171250E-14	4.650076E-16
4.491245E+03	1.171737E-14	4.653562E-16
4.494198E+03	1.171226E-14	4.650207E-16
4.497150E+03	1.169971E-14	4.645880E-16
4.500102E+03	1.169280E-14	4.641160E-16
4.503055E+03	1.169446E-14	4.641658E-16
4.506007E+03	1.169215E-14	4.641432E-16
4.508960E+03	1.168140E-14	4.646015E-16
4.511912E+03	1.166413E-14	4.646718E-16
4.514864E+03	1.164853E-14	4.639367E-16
4.517817E+03	1.162501E-14	4.632540E-16
4.520769E+03	1.160022E-14	4.632048E-16
4.523722E+03	1.158195E-14	4.625026E-16
4.526674E+03	1.156802E-14	4.622785E-16
4.529627E+03	1.155232E-14	4.615685E-16
4.532579E+03	1.153865E-14	4.592184E-16
4.535531E+03	1.152435E-14	4.589279E-16
4.538484E+03	1.150368E-14	4.589121E-16
4.541436E+03	1.148659E-14	4.580855E-16
4.544389E+03	1.148059E-14	4.566957E-16
4.547341E+03	1.147472E-14	4.563615E-16
4.550293E+03	1.146922E-14	4.561522E-16
4.553246E+03	1.146666E-14	4.557745E-16
4.556198E+03	1.146014E-14	4.549170E-16
4.559150E+03	1.145541E-14	4.554234E-16
4.562103E+03	1.145030E-14	4.572775E-16
4.565055E+03	1.145790E-14	4.573914E-16
4.568008E+03	1.146181E-14	4.567218E-16
4.570960E+03	1.146686E-14	4.579796E-16
4.573913E+03	1.147076E-14	4.592253E-16
4.576865E+03	1.148050E-14	4.595739E-16
4.579817E+03	1.148680E-14	4.599461E-16
4.582770E+03	1.148191E-14	4.593558E-16
4.585722E+03	1.148553E-14	4.588529E-16
4.588675E+03	1.149562E-14	4.588816E-16
4.591627E+03	1.150520E-14	4.597596E-16
4.594579E+03	1.151337E-14	4.609770E-16
4.597532E+03	1.152204E-14	4.615708E-16
4.600484E+03	1.153172E-14	4.619924E-16
4.603436E+03	1.153366E-14	4.616884E-16
4.606389E+03	1.153876E-14	4.597178E-16
4.609341E+03	1.155994E-14	4.574346E-16
4.612294E+03	1.157858E-14	4.582162E-16
4.615246E+03	1.159278E-14	4.584866E-16
4.618199E+03	1.161000E-14	4.589152E-16
4.621151E+03	1.162557E-14	4.591032E-16
4.624103E+03	1.163606E-14	4.596720E-16
4.627056E+03	1.163933E-14	4.595411E-16
4.630008E+03	1.164804E-14	4.604572E-16
4.632961E+03	1.165952E-14	4.606636E-16
4.635913E+03	1.167162E-14	4.612033E-16
4.638865E+03	1.168422E-14	4.615497E-16
4.641818E+03	1.169820E-14	4.633694E-16
4.644770E+03	1.170889E-14	4.652897E-16
