#wls	flux	fluxerr
1.600000E+03	6.274708E-16	6.909007E-16
1.640000E+03	6.355417E-16	6.955495E-16
1.680000E+03	6.435048E-16	6.996291E-16
1.720000E+03	6.514419E-16	7.031939E-16
1.760000E+03	6.592322E-16	7.060767E-16
1.800000E+03	6.669032E-16	7.082699E-16
1.840000E+03	6.743797E-16	7.096553E-16
1.880000E+03	6.817346E-16	7.102703E-16
1.920000E+03	6.887878E-16	7.098869E-16
1.960000E+03	6.956064E-16	7.085366E-16
2.000000E+03	7.020553E-16	7.060432E-16
2.040000E+03	7.081956E-16	7.024323E-16
2.080000E+03	7.138866E-16	6.975292E-16
2.120000E+03	7.191336E-16	6.913092E-16
2.160000E+03	7.238887E-16	6.836994E-16
2.200000E+03	7.281014E-16	6.746297E-16
2.240000E+03	7.317175E-16	6.640350E-16
2.280000E+03	7.346320E-16	6.518140E-16
2.320000E+03	7.368818E-16	6.380033E-16
2.360000E+03	7.384508E-16	6.225999E-16
2.400000E+03	7.392245E-16	6.055306E-16
2.440000E+03	7.392741E-16	5.868918E-16
2.480000E+03	7.384788E-16	5.666384E-16
2.520000E+03	7.368543E-16	5.448538E-16
2.560000E+03	7.343655E-16	5.216010E-16
2.600000E+03	7.309745E-16	4.969647E-16
2.640000E+03	7.266406E-16	4.710551E-16
2.680000E+03	7.213648E-16	4.440381E-16
2.720000E+03	7.150625E-16	4.160584E-16
2.760000E+03	7.077376E-16	3.873518E-16
2.800000E+03	6.993994E-16	3.581902E-16
2.840000E+03	6.900316E-16	3.288673E-16
2.880000E+03	6.796843E-16	2.997430E-16
2.920000E+03	6.684165E-16	2.712027E-16
2.960000E+03	6.563679E-16	2.436699E-16
3.000000E+03	6.439080E-16	2.176193E-16
3.010000E+03	6.407448E-16	2.113766E-16
3.020000E+03	6.376421E-16	2.052747E-16
3.030000E+03	6.345113E-16	1.992868E-16
3.040000E+03	6.314623E-16	1.934492E-16
3.050000E+03	6.284430E-16	1.877459E-16
3.060000E+03	6.254691E-16	1.821818E-16
3.070000E+03	6.226203E-16	1.767787E-16
3.080000E+03	6.198518E-16	1.715213E-16
3.090000E+03	6.172154E-16	1.664209E-16
3.100000E+03	6.147031E-16	1.614709E-16
3.110000E+03	6.123704E-16	1.566809E-16
3.120000E+03	6.102741E-16	1.520586E-16
3.130000E+03	6.083837E-16	1.475885E-16
3.140000E+03	6.067612E-16	1.432775E-16
3.150000E+03	6.054411E-16	1.391241E-16
3.160000E+03	6.044608E-16	1.351267E-16
3.170000E+03	6.038602E-16	1.312830E-16
3.180000E+03	6.036823E-16	1.275907E-16
3.190000E+03	6.039728E-16	1.240472E-16
3.200000E+03	6.048088E-16	1.206555E-16
3.210000E+03	6.061850E-16	1.174017E-16
3.220000E+03	6.082131E-16	1.142945E-16
3.230000E+03	6.109508E-16	1.113317E-16
3.240000E+03	6.144030E-16	1.085014E-16
3.250000E+03	6.186904E-16	1.058130E-16
3.260000E+03	6.238527E-16	1.032615E-16
3.270000E+03	6.299890E-16	1.008523E-16
3.280000E+03	6.371450E-16	9.858254E-17
3.290000E+03	6.454261E-16	9.645950E-17
3.300000E+03	6.549116E-16	9.448664E-17
3.310000E+03	6.656532E-16	9.266421E-17
3.320000E+03	6.777610E-16	9.100129E-17
3.330000E+03	6.912857E-16	8.949890E-17
3.340000E+03	7.063645E-16	8.816927E-17
3.350000E+03	7.230102E-16	8.700788E-17
3.360000E+03	7.413189E-16	8.601977E-17
3.370000E+03	7.613472E-16	8.520322E-17
3.380000E+03	7.831401E-16	8.455289E-17
3.390000E+03	8.067281E-16	8.405920E-17
3.400000E+03	8.321259E-16	8.370788E-17
3.410000E+03	8.593653E-16	8.348329E-17
3.420000E+03	8.883545E-16	8.335493E-17
3.430000E+03	9.191219E-16	8.330184E-17
3.440000E+03	9.516070E-16	8.329286E-17
3.450000E+03	9.856500E-16	8.328795E-17
3.460000E+03	1.021222E-15	8.325923E-17
3.470000E+03	1.058201E-15	8.317226E-17
3.480000E+03	1.096399E-15	8.299090E-17
3.490000E+03	1.135652E-15	8.268541E-17
3.500000E+03	1.175860E-15	8.223752E-17
3.510000E+03	1.216729E-15	8.162411E-17
3.520000E+03	1.258023E-15	8.084013E-17
3.530000E+03	1.299571E-15	7.990281E-17
3.540000E+03	1.341027E-15	7.884216E-17
3.550000E+03	1.381996E-15	7.771633E-17
3.560000E+03	1.422135E-15	7.662179E-17
3.570000E+03	1.461069E-15	7.568745E-17
3.580000E+03	1.498303E-15	7.505998E-17
3.590000E+03	1.533382E-15	7.488487E-17
3.600000E+03	1.566138E-15	7.527587E-17
3.610000E+03	1.596488E-15	7.626940E-17
3.620000E+03	1.624428E-15	7.782239E-17
3.630000E+03	1.650297E-15	7.985223E-17
3.640000E+03	1.674393E-15	8.224924E-17
3.650000E+03	1.696932E-15	8.489672E-17
3.660000E+03	1.718429E-15	8.770203E-17
3.670000E+03	1.739120E-15	9.057363E-17
3.680000E+03	1.759358E-15	9.344243E-17
3.690000E+03	1.779607E-15	9.626268E-17
3.700000E+03	1.800096E-15	9.899295E-17
3.710000E+03	1.821155E-15	1.016129E-16
3.720000E+03	1.843210E-15	1.041218E-16
3.730000E+03	1.866430E-15	1.065163E-16
3.740000E+03	1.891131E-15	1.088100E-16
3.750000E+03	1.917530E-15	1.110179E-16
3.760000E+03	1.945806E-15	1.131573E-16
3.770000E+03	1.976087E-15	1.152458E-16
3.780000E+03	2.008448E-15	1.173000E-16
3.790000E+03	2.042903E-15	1.193344E-16
3.800000E+03	2.079348E-15	1.213575E-16
3.810000E+03	2.117797E-15	1.233844E-16
3.820000E+03	2.158031E-15	1.254158E-16
3.830000E+03	2.199784E-15	1.274472E-16
3.840000E+03	2.242935E-15	1.294795E-16
3.850000E+03	2.287152E-15	1.314974E-16
3.860000E+03	2.332143E-15	1.334849E-16
3.870000E+03	2.377537E-15	1.354199E-16
3.880000E+03	2.423143E-15	1.372914E-16
3.890000E+03	2.468569E-15	1.390795E-16
3.900000E+03	2.513477E-15	1.407707E-16
3.910000E+03	2.557520E-15	1.423536E-16
3.920000E+03	2.600339E-15	1.438166E-16
3.930000E+03	2.641570E-15	1.451458E-16
3.940000E+03	2.680849E-15	1.463223E-16
3.950000E+03	2.717815E-15	1.473204E-16
3.960000E+03	2.752059E-15	1.481047E-16
3.970000E+03	2.783411E-15	1.486457E-16
3.980000E+03	2.811549E-15	1.489006E-16
3.990000E+03	2.836215E-15	1.488274E-16
4.000000E+03	2.857363E-15	1.483948E-16
4.010000E+03	2.874960E-15	1.475746E-16
4.020000E+03	2.889055E-15	1.463474E-16
4.030000E+03	2.899709E-15	1.447008E-16
4.040000E+03	2.907188E-15	1.426402E-16
4.050000E+03	2.911693E-15	1.401747E-16
4.060000E+03	2.913616E-15	1.373296E-16
4.070000E+03	2.913342E-15	1.341356E-16
4.080000E+03	2.911179E-15	1.306267E-16
4.090000E+03	2.907730E-15	1.268582E-16
4.100000E+03	2.903497E-15	1.228911E-16
4.110000E+03	2.898869E-15	1.187955E-16
4.120000E+03	2.894409E-15	1.146661E-16
4.130000E+03	2.890642E-15	1.106139E-16
4.140000E+03	2.887859E-15	1.067573E-16
4.150000E+03	2.886454E-15	1.032274E-16
4.160000E+03	2.886617E-15	1.001424E-16
4.170000E+03	2.888555E-15	9.759653E-17
4.180000E+03	2.892327E-15	9.563543E-17
4.190000E+03	2.897852E-15	9.424566E-17
4.200000E+03	2.905045E-15	9.336004E-17
4.210000E+03	2.913780E-15	9.286913E-17
4.220000E+03	2.923910E-15	9.264221E-17
4.230000E+03	2.935291E-15	9.254990E-17
4.240000E+03	2.947739E-15	9.248167E-17
4.250000E+03	2.961204E-15	9.236289E-17
4.260000E+03	2.975625E-15	9.215356E-17
4.270000E+03	2.990937E-15	9.184494E-17
4.280000E+03	3.007145E-15	9.145264E-17
4.290000E+03	3.024496E-15	9.101060E-17
4.300000E+03	3.043163E-15	9.055140E-17
4.310000E+03	3.063396E-15	9.010528E-17
4.320000E+03	3.085542E-15	8.970070E-17
4.330000E+03	3.109990E-15	8.936744E-17
4.340000E+03	3.136948E-15	8.913723E-17
4.350000E+03	3.166531E-15	8.905389E-17
4.360000E+03	3.198601E-15	8.917405E-17
4.370000E+03	3.232910E-15	8.956954E-17
4.380000E+03	3.268999E-15	9.030766E-17
4.390000E+03	3.306291E-15	9.141641E-17
4.400000E+03	3.344565E-15	9.285934E-17
4.410000E+03	3.383568E-15	9.452476E-17
4.420000E+03	3.423293E-15	9.627341E-17
4.430000E+03	3.463600E-15	9.797130E-17
4.440000E+03	3.504371E-15	9.951937E-17
4.450000E+03	3.545234E-15	1.008543E-16
4.460000E+03	3.585940E-15	1.019590E-16
4.470000E+03	3.625955E-15	1.028451E-16
4.480000E+03	3.664805E-15	1.035543E-16
4.490000E+03	3.702042E-15	1.041454E-16
4.500000E+03	3.737165E-15	1.046793E-16
4.510000E+03	3.769584E-15	1.052041E-16
4.520000E+03	3.798856E-15	1.057511E-16
4.530000E+03	3.824696E-15	1.063289E-16
4.540000E+03	3.846655E-15	1.069157E-16
4.550000E+03	3.864447E-15	1.074765E-16
4.560000E+03	3.877839E-15	1.079747E-16
4.570000E+03	3.886707E-15	1.083868E-16
4.580000E+03	3.890810E-15	1.087018E-16
4.590000E+03	3.890055E-15	1.089233E-16
4.600000E+03	3.884478E-15	1.090561E-16
4.610000E+03	3.873864E-15	1.090837E-16
4.620000E+03	3.858277E-15	1.089768E-16
4.630000E+03	3.837651E-15	1.086847E-16
4.640000E+03	3.811998E-15	1.081500E-16
4.650000E+03	3.781614E-15	1.073272E-16
4.660000E+03	3.746810E-15	1.061865E-16
4.670000E+03	3.708276E-15	1.047327E-16
4.680000E+03	3.667074E-15	1.030087E-16
4.690000E+03	3.624496E-15	1.010910E-16
4.700000E+03	3.582166E-15	9.908988E-17
4.710000E+03	3.541902E-15	9.714305E-17
4.720000E+03	3.505569E-15	9.540933E-17
4.730000E+03	3.474898E-15	9.405502E-17
4.740000E+03	3.451250E-15	9.322536E-17
4.750000E+03	3.435586E-15	9.300949E-17
4.760000E+03	3.428220E-15	9.340475E-17
4.770000E+03	3.428972E-15	9.431756E-17
4.780000E+03	3.437276E-15	9.559166E-17
4.790000E+03	3.452196E-15	9.704681E-17
4.800000E+03	3.472686E-15	9.851948E-17
4.810000E+03	3.497658E-15	9.988489E-17
4.820000E+03	3.526103E-15	1.010669E-16
4.830000E+03	3.556971E-15	1.020316E-16
4.840000E+03	3.589442E-15	1.027863E-16
4.850000E+03	3.622753E-15	1.033645E-16
4.860000E+03	3.656220E-15	1.038155E-16
4.870000E+03	3.689215E-15	1.041943E-16
4.880000E+03	3.721150E-15	1.045520E-16
4.890000E+03	3.751480E-15	1.049285E-16
4.900000E+03	3.779730E-15	1.053469E-16
4.910000E+03	3.805536E-15	1.058131E-16
4.920000E+03	3.828645E-15	1.063162E-16
4.930000E+03	3.849127E-15	1.068401E-16
4.940000E+03	3.867086E-15	1.073623E-16
4.950000E+03	3.882993E-15	1.078729E-16
4.960000E+03	3.897299E-15	1.083712E-16
4.970000E+03	3.910731E-15	1.088765E-16
4.980000E+03	3.923891E-15	1.094132E-16
4.990000E+03	3.937547E-15	1.100112E-16
5.000000E+03	3.952290E-15	1.106876E-16
5.010000E+03	3.968672E-15	1.114447E-16
5.020000E+03	3.987191E-15	1.122680E-16
5.030000E+03	4.008166E-15	1.131240E-16
5.040000E+03	4.031892E-15	1.139700E-16
5.050000E+03	4.058675E-15	1.147648E-16
5.060000E+03	4.088735E-15	1.154782E-16
5.070000E+03	4.122405E-15	1.161098E-16
5.080000E+03	4.159955E-15	1.166917E-16
5.090000E+03	4.201796E-15	1.172911E-16
5.100000E+03	4.248117E-15	1.179854E-16
5.110000E+03	4.299146E-15	1.188489E-16
5.120000E+03	4.354952E-15	1.199301E-16
5.130000E+03	4.415251E-15	1.212395E-16
5.140000E+03	4.479654E-15	1.227609E-16
5.150000E+03	4.547534E-15	1.244575E-16
5.160000E+03	4.618008E-15	1.262839E-16
5.170000E+03	4.689962E-15	1.281935E-16
5.180000E+03	4.762488E-15	1.301500E-16
5.190000E+03	4.834496E-15	1.321125E-16
5.200000E+03	4.905210E-15	1.340423E-16
5.210000E+03	4.974043E-15	1.358974E-16
5.220000E+03	5.040629E-15	1.376366E-16
5.230000E+03	5.105029E-15	1.392351E-16
5.240000E+03	5.167388E-15	1.406869E-16
5.250000E+03	5.228144E-15	1.420177E-16
5.260000E+03	5.287741E-15	1.432774E-16
5.270000E+03	5.346723E-15	1.445312E-16
5.280000E+03	5.405666E-15	1.458393E-16
5.290000E+03	5.464997E-15	1.472358E-16
5.300000E+03	5.524945E-15	1.487235E-16
5.310000E+03	5.585712E-15	1.502915E-16
5.320000E+03	5.647117E-15	1.519233E-16
5.330000E+03	5.708742E-15	1.536114E-16
5.340000E+03	5.770124E-15	1.553558E-16
5.350000E+03	5.830474E-15	1.571379E-16
5.360000E+03	5.888754E-15	1.589047E-16
5.370000E+03	5.943811E-15	1.605670E-16
5.380000E+03	5.994397E-15	1.620099E-16
5.390000E+03	6.039076E-15	1.631080E-16
5.400000E+03	6.076338E-15	1.637483E-16
5.410000E+03	6.104619E-15	1.638463E-16
5.420000E+03	6.122663E-15	1.633642E-16
5.430000E+03	6.129297E-15	1.623075E-16
5.440000E+03	6.123841E-15	1.607357E-16
5.450000E+03	6.106198E-15	1.587638E-16
5.460000E+03	6.076964E-15	1.565666E-16
5.470000E+03	6.037510E-15	1.543760E-16
5.480000E+03	5.989631E-15	1.524480E-16
5.490000E+03	5.935355E-15	1.509963E-16
5.500000E+03	5.876177E-15	1.500900E-16
5.510000E+03	5.812798E-15	1.496127E-16
5.520000E+03	5.745560E-15	1.493285E-16
5.530000E+03	5.674983E-15	1.489881E-16
5.540000E+03	5.601617E-15	1.483929E-16
5.550000E+03	5.526698E-15	1.474429E-16
5.560000E+03	5.451445E-15	1.461240E-16
5.570000E+03	5.377392E-15	1.445045E-16
5.580000E+03	5.306038E-15	1.427007E-16
5.590000E+03	5.238743E-15	1.408438E-16
5.600000E+03	5.176792E-15	1.390550E-16
5.610000E+03	5.121124E-15	1.374205E-16
5.620000E+03	5.072498E-15	1.359903E-16
5.630000E+03	5.031301E-15	1.347789E-16
5.640000E+03	4.997721E-15	1.337842E-16
5.650000E+03	4.971801E-15	1.330026E-16
5.660000E+03	4.953385E-15	1.324349E-16
5.670000E+03	4.942119E-15	1.320849E-16
5.680000E+03	4.937766E-15	1.319606E-16
5.690000E+03	4.939886E-15	1.320581E-16
5.700000E+03	4.948028E-15	1.323630E-16
5.710000E+03	4.961685E-15	1.328498E-16
5.720000E+03	4.980233E-15	1.334831E-16
5.730000E+03	5.003128E-15	1.342291E-16
5.740000E+03	5.029609E-15	1.350527E-16
5.750000E+03	5.058846E-15	1.359240E-16
5.760000E+03	5.090041E-15	1.368208E-16
5.770000E+03	5.122236E-15	1.377200E-16
5.780000E+03	5.154513E-15	1.386023E-16
5.790000E+03	5.185801E-15	1.394486E-16
5.800000E+03	5.215083E-15	1.402485E-16
5.810000E+03	5.241172E-15	1.409933E-16
5.820000E+03	5.263106E-15	1.416808E-16
5.830000E+03	5.279847E-15	1.422974E-16
5.840000E+03	5.290548E-15	1.428184E-16
5.850000E+03	5.294562E-15	1.432071E-16
5.860000E+03	5.291490E-15	1.434226E-16
5.870000E+03	5.281147E-15	1.434289E-16
5.880000E+03	5.263757E-15	1.432110E-16
5.890000E+03	5.239506E-15	1.427694E-16
5.900000E+03	5.209014E-15	1.421314E-16
5.910000E+03	5.172922E-15	1.413303E-16
5.920000E+03	5.131912E-15	1.403931E-16
5.930000E+03	5.086773E-15	1.393340E-16
5.940000E+03	5.038325E-15	1.381543E-16
5.950000E+03	4.987448E-15	1.368520E-16
5.960000E+03	4.934867E-15	1.354267E-16
5.970000E+03	4.881464E-15	1.338962E-16
5.980000E+03	4.827872E-15	1.322891E-16
5.990000E+03	4.774776E-15	1.306535E-16
6.000000E+03	4.722710E-15	1.290487E-16
6.010000E+03	4.672081E-15	1.275394E-16
6.020000E+03	4.623121E-15	1.261830E-16
6.030000E+03	4.576025E-15	1.250175E-16
6.040000E+03	4.530783E-15	1.240432E-16
6.050000E+03	4.487386E-15	1.232236E-16
6.060000E+03	4.445685E-15	1.224901E-16
6.070000E+03	4.405601E-15	1.217665E-16
6.080000E+03	4.366991E-15	1.209844E-16
6.090000E+03	4.329798E-15	1.201012E-16
6.100000E+03	4.294024E-15	1.191049E-16
6.110000E+03	4.259771E-15	1.180141E-16
6.120000E+03	4.227151E-15	1.168692E-16
6.130000E+03	4.196239E-15	1.157229E-16
6.140000E+03	4.167293E-15	1.146384E-16
6.150000E+03	4.140457E-15	1.136727E-16
6.160000E+03	4.115910E-15	1.128730E-16
6.170000E+03	4.093861E-15	1.122691E-16
6.180000E+03	4.074427E-15	1.118646E-16
6.190000E+03	4.057773E-15	1.116369E-16
6.200000E+03	4.044123E-15	1.115423E-16
6.210000E+03	4.033665E-15	1.115252E-16
6.220000E+03	4.026726E-15	1.115390E-16
6.230000E+03	4.023658E-15	1.115571E-16
6.240000E+03	4.024838E-15	1.115789E-16
6.250000E+03	4.030797E-15	1.116308E-16
6.260000E+03	4.041897E-15	1.117491E-16
6.270000E+03	4.058549E-15	1.119743E-16
6.280000E+03	4.081022E-15	1.123373E-16
6.290000E+03	4.109285E-15	1.128519E-16
6.300000E+03	4.143079E-15	1.135204E-16
6.310000E+03	4.181886E-15	1.143385E-16
6.320000E+03	4.224823E-15	1.152970E-16
6.330000E+03	4.270861E-15	1.163887E-16
6.340000E+03	4.318816E-15	1.176040E-16
6.350000E+03	4.367311E-15	1.189258E-16
6.360000E+03	4.415093E-15	1.203350E-16
6.370000E+03	4.460967E-15	1.218046E-16
6.380000E+03	4.503737E-15	1.232944E-16
6.390000E+03	4.542414E-15	1.247505E-16
6.400000E+03	4.576064E-15	1.260983E-16
6.410000E+03	4.604063E-15	1.272508E-16
6.420000E+03	4.625803E-15	1.281101E-16
6.430000E+03	4.641028E-15	1.285919E-16
6.440000E+03	4.649715E-15	1.286368E-16
6.450000E+03	4.651976E-15	1.282185E-16
6.460000E+03	4.648191E-15	1.273518E-16
6.470000E+03	4.638959E-15	1.260928E-16
6.480000E+03	4.625181E-15	1.245417E-16
6.490000E+03	4.607770E-15	1.228327E-16
6.500000E+03	4.587906E-15	1.211368E-16
6.510000E+03	4.566965E-15	1.196473E-16
6.520000E+03	4.546128E-15	1.185431E-16
6.530000E+03	4.526258E-15	1.179427E-16
6.540000E+03	4.507750E-15	1.178603E-16
6.550000E+03	4.490206E-15	1.181996E-16
6.560000E+03	4.472843E-15	1.188103E-16
6.570000E+03	4.454761E-15	1.195402E-16
6.580000E+03	4.434976E-15	1.202522E-16
6.590000E+03	4.412661E-15	1.208294E-16
6.600000E+03	4.387208E-15	1.211755E-16
6.610000E+03	4.358146E-15	1.212194E-16
6.620000E+03	4.325357E-15	1.209304E-16
6.630000E+03	4.288938E-15	1.203186E-16
6.640000E+03	4.249172E-15	1.194297E-16
6.650000E+03	4.206591E-15	1.183325E-16
6.660000E+03	4.161759E-15	1.170950E-16
6.670000E+03	4.115188E-15	1.157663E-16
6.680000E+03	4.067453E-15	1.143727E-16
6.690000E+03	4.018871E-15	1.129153E-16
6.700000E+03	3.969824E-15	1.113921E-16
6.710000E+03	3.920630E-15	1.098099E-16
6.720000E+03	3.871637E-15	1.081976E-16
6.730000E+03	3.823255E-15	1.066079E-16
6.740000E+03	3.775967E-15	1.051089E-16
6.750000E+03	3.730299E-15	1.037683E-16
6.760000E+03	3.686767E-15	1.026375E-16
6.770000E+03	3.645822E-15	1.017443E-16
6.780000E+03	3.607836E-15	1.010981E-16
6.790000E+03	3.572913E-15	1.006931E-16
6.800000E+03	3.541162E-15	1.005212E-16
6.810000E+03	3.512446E-15	1.005624E-16
6.820000E+03	3.486584E-15	1.007835E-16
6.830000E+03	3.463358E-15	1.011306E-16
6.840000E+03	3.442564E-15	1.015280E-16
6.850000E+03	3.424081E-15	1.018849E-16
6.860000E+03	3.407773E-15	1.021052E-16
6.870000E+03	3.393634E-15	1.021094E-16
6.880000E+03	3.381576E-15	1.018466E-16
6.890000E+03	3.371658E-15	1.013147E-16
6.900000E+03	3.363794E-15	1.005564E-16
6.910000E+03	3.357914E-15	9.965806E-17
6.920000E+03	3.353798E-15	9.872931E-17
6.930000E+03	3.351233E-15	9.788564E-17
6.940000E+03	3.349841E-15	9.722063E-17
6.950000E+03	3.349394E-15	9.679859E-17
6.960000E+03	3.349435E-15	9.663555E-17
6.970000E+03	3.349705E-15	9.671267E-17
6.980000E+03	3.349893E-15	9.697681E-17
6.990000E+03	3.349686E-15	9.735429E-17
7.000000E+03	3.348836E-15	9.776712E-17
7.010000E+03	3.347157E-15	9.814494E-17
7.020000E+03	3.344401E-15	9.843012E-17
7.030000E+03	3.340402E-15	9.858720E-17
7.040000E+03	3.334948E-15	9.860181E-17
7.050000E+03	3.327784E-15	9.848023E-17
7.060000E+03	3.318684E-15	9.824728E-17
7.070000E+03	3.307469E-15	9.793744E-17
7.080000E+03	3.293947E-15	9.758028E-17
7.090000E+03	3.277943E-15	9.718931E-17
7.100000E+03	3.259409E-15	9.675956E-17
7.110000E+03	3.238496E-15	9.627319E-17
7.120000E+03	3.215309E-15	9.570275E-17
7.130000E+03	3.190336E-15	9.503523E-17
7.140000E+03	3.164020E-15	9.426730E-17
7.150000E+03	3.136986E-15	9.341433E-17
7.160000E+03	3.109947E-15	9.250488E-17
7.170000E+03	3.083553E-15	9.157141E-17
7.180000E+03	3.058356E-15	9.064509E-17
7.190000E+03	3.034707E-15	8.975147E-17
7.200000E+03	3.012791E-15	8.891263E-17
7.210000E+03	2.992642E-15	8.814848E-17
7.220000E+03	2.973948E-15	8.746816E-17
7.230000E+03	2.956293E-15	8.687149E-17
7.240000E+03	2.939204E-15	8.634466E-17
7.250000E+03	2.921986E-15	8.585536E-17
7.260000E+03	2.903970E-15	8.536739E-17
7.270000E+03	2.884550E-15	8.485238E-17
7.280000E+03	2.863006E-15	8.429323E-17
7.290000E+03	2.838790E-15	8.369455E-17
7.300000E+03	2.811388E-15	8.307419E-17
7.310000E+03	2.780502E-15	8.245932E-17
7.320000E+03	2.745982E-15	8.187397E-17
7.330000E+03	2.707882E-15	8.133180E-17
7.340000E+03	2.666422E-15	8.083000E-17
7.350000E+03	2.622066E-15	8.035198E-17
7.360000E+03	2.575383E-15	7.986802E-17
7.370000E+03	2.526997E-15	7.934147E-17
7.380000E+03	2.477639E-15	7.873831E-17
7.390000E+03	2.428007E-15	7.803034E-17
7.400000E+03	2.378769E-15	7.720111E-17
7.410000E+03	2.330514E-15	7.624838E-17
7.420000E+03	2.283851E-15	7.518948E-17
7.430000E+03	2.239171E-15	7.405321E-17
7.440000E+03	2.196954E-15	7.288728E-17
7.450000E+03	2.157450E-15	7.174313E-17
7.460000E+03	2.120893E-15	7.067669E-17
7.470000E+03	2.087386E-15	6.973743E-17
7.480000E+03	2.056893E-15	6.896200E-17
7.490000E+03	2.029319E-15	6.837280E-17
7.500000E+03	2.004412E-15	6.797356E-17
7.510000E+03	1.981905E-15	6.775567E-17
7.520000E+03	1.961342E-15	6.769483E-17
7.530000E+03	1.942381E-15	6.776431E-17
7.540000E+03	1.924533E-15	6.792777E-17
7.550000E+03	1.907488E-15	6.815101E-17
7.560000E+03	1.890873E-15	6.839291E-17
7.570000E+03	1.874436E-15	6.861140E-17
7.580000E+03	1.858030E-15	6.876342E-17
7.590000E+03	1.841533E-15	6.880491E-17
7.600000E+03	1.824931E-15	6.869861E-17
7.610000E+03	1.808204E-15	6.841599E-17
7.620000E+03	1.791406E-15	6.794622E-17
7.630000E+03	1.774553E-15	6.729651E-17
7.640000E+03	1.757710E-15	6.649646E-17
7.650000E+03	1.740894E-15	6.559178E-17
7.660000E+03	1.724146E-15	6.464069E-17
7.670000E+03	1.707538E-15	6.370541E-17
7.680000E+03	1.691113E-15	6.284054E-17
7.690000E+03	1.674968E-15	6.208771E-17
7.700000E+03	1.659251E-15	6.147070E-17
7.710000E+03	1.644098E-15	6.099217E-17
7.720000E+03	1.629710E-15	6.063972E-17
7.730000E+03	1.616253E-15	6.038784E-17
7.740000E+03	1.603906E-15	6.020649E-17
7.750000E+03	1.592830E-15	6.006596E-17
7.760000E+03	1.583152E-15	5.994131E-17
