#wls	flux	fluxerr
1.600000E+03	5.853418E-17	2.141021E-18
1.640000E+03	5.843215E-17	2.134635E-18
1.680000E+03	5.833846E-17	2.128495E-18
1.720000E+03	5.826444E-17	2.123012E-18
1.760000E+03	5.821000E-17	2.118177E-18
1.800000E+03	5.817507E-17	2.113986E-18
1.840000E+03	5.817093E-17	2.110843E-18
1.880000E+03	5.817490E-17	2.107919E-18
1.920000E+03	5.822088E-17	2.106439E-18
1.960000E+03	5.829752E-17	2.105984E-18
2.000000E+03	5.840482E-17	2.106548E-18
2.040000E+03	5.854280E-17	2.108124E-18
2.080000E+03	5.872279E-17	2.111111E-18
2.120000E+03	5.894481E-17	2.115502E-18
2.160000E+03	5.920899E-17	2.121290E-18
2.200000E+03	5.951551E-17	2.128471E-18
2.240000E+03	5.987573E-17	2.137440E-18
2.280000E+03	6.027880E-17	2.147796E-18
2.320000E+03	6.074732E-17	2.160332E-18
2.360000E+03	6.125946E-17	2.174256E-18
2.400000E+03	6.183799E-17	2.190360E-18
2.440000E+03	6.247242E-17	2.208256E-18
2.480000E+03	6.318562E-17	2.228733E-18
2.520000E+03	6.395634E-17	2.251021E-18
2.560000E+03	6.480766E-17	2.275911E-18
2.600000E+03	6.574070E-17	2.303419E-18
2.640000E+03	6.675675E-17	2.333563E-18
2.680000E+03	6.786828E-17	2.366750E-18
2.720000E+03	6.907691E-17	2.403007E-18
2.760000E+03	7.040646E-17	2.443127E-18
2.800000E+03	7.185896E-17	2.487140E-18
2.840000E+03	7.344777E-17	2.535465E-18
2.880000E+03	7.519750E-17	2.588902E-18
2.920000E+03	7.711133E-17	2.647504E-18
2.960000E+03	7.922596E-17	2.712470E-18
3.000000E+03	8.155715E-17	2.784267E-18
3.010000E+03	8.218647E-17	2.803706E-18
3.020000E+03	8.282912E-17	2.823560E-18
3.030000E+03	8.348522E-17	2.843829E-18
3.040000E+03	8.415490E-17	2.864517E-18
3.050000E+03	8.484929E-17	2.886001E-18
3.060000E+03	8.555755E-17	2.907912E-18
3.070000E+03	8.629084E-17	2.930626E-18
3.080000E+03	8.703832E-17	2.953773E-18
3.090000E+03	8.781121E-17	2.977733E-18
3.100000E+03	8.860971E-17	3.002510E-18
3.110000E+03	8.942302E-17	3.027737E-18
3.120000E+03	9.026242E-17	3.053792E-18
3.130000E+03	9.112817E-17	3.080683E-18
3.140000E+03	9.200950E-17	3.108044E-18
3.150000E+03	9.292884E-17	3.136629E-18
3.160000E+03	9.387548E-17	3.166075E-18
3.170000E+03	9.483870E-17	3.196018E-18
3.180000E+03	9.584107E-17	3.227215E-18
3.190000E+03	9.687194E-17	3.259306E-18
3.200000E+03	9.794288E-17	3.292676E-18
3.210000E+03	9.903220E-17	3.326592E-18
3.220000E+03	1.001626E-16	3.361818E-18
3.230000E+03	1.013349E-16	3.398371E-18
3.240000E+03	1.025384E-16	3.435894E-18
3.250000E+03	1.037850E-16	3.474781E-18
3.260000E+03	1.050645E-16	3.514683E-18
3.270000E+03	1.063886E-16	3.555995E-18
3.280000E+03	1.077696E-16	3.599119E-18
3.290000E+03	1.091859E-16	3.643330E-18
3.300000E+03	1.106499E-16	3.689037E-18
3.310000E+03	1.121625E-16	3.736266E-18
3.320000E+03	1.137363E-16	3.785432E-18
3.330000E+03	1.153612E-16	3.836192E-18
3.340000E+03	1.170499E-16	3.888963E-18
3.350000E+03	1.187924E-16	3.943410E-18
3.360000E+03	1.205903E-16	3.999579E-18
3.370000E+03	1.224679E-16	4.058266E-18
3.380000E+03	1.244039E-16	4.118765E-18
3.390000E+03	1.264232E-16	4.181887E-18
3.400000E+03	1.285045E-16	4.246927E-18
3.410000E+03	1.306728E-16	4.314698E-18
3.420000E+03	1.329186E-16	4.384878E-18
3.430000E+03	1.352555E-16	4.457912E-18
3.440000E+03	1.376739E-16	4.533474E-18
3.450000E+03	1.401879E-16	4.612018E-18
3.460000E+03	1.427996E-16	4.693601E-18
3.470000E+03	1.455114E-16	4.778298E-18
3.480000E+03	1.483256E-16	4.866169E-18
3.490000E+03	1.512565E-16	4.957678E-18
3.500000E+03	1.542829E-16	5.052112E-18
3.510000E+03	1.574431E-16	5.150717E-18
3.520000E+03	1.607157E-16	5.252784E-18
3.530000E+03	1.641154E-16	5.358777E-18
3.540000E+03	1.676450E-16	5.468775E-18
3.550000E+03	1.713074E-16	5.582856E-18
3.560000E+03	1.751053E-16	5.701103E-18
3.570000E+03	1.790541E-16	5.823993E-18
3.580000E+03	1.831571E-16	5.951622E-18
3.590000E+03	1.874051E-16	6.083678E-18
3.600000E+03	1.918268E-16	6.221072E-18
3.610000E+03	1.964006E-16	6.363086E-18
3.620000E+03	2.011556E-16	6.510647E-18
3.630000E+03	2.060832E-16	6.663460E-18
3.640000E+03	2.112006E-16	6.822058E-18
3.650000E+03	2.165120E-16	6.986560E-18
3.660000E+03	2.220223E-16	7.157102E-18
3.670000E+03	2.277231E-16	7.333392E-18
3.680000E+03	2.336588E-16	7.516836E-18
3.690000E+03	2.397948E-16	7.706299E-18
3.700000E+03	2.461762E-16	7.903204E-18
3.710000E+03	2.527812E-16	8.106832E-18
3.720000E+03	2.596284E-16	8.317748E-18
3.730000E+03	2.667365E-16	8.536526E-18
3.740000E+03	2.740967E-16	8.762855E-18
3.750000E+03	2.817129E-16	8.996838E-18
3.760000E+03	2.896176E-16	9.239474E-18
3.770000E+03	2.977857E-16	9.489938E-18
3.780000E+03	3.062341E-16	9.748738E-18
3.790000E+03	3.149644E-16	1.001589E-17
3.800000E+03	3.239917E-16	1.029185E-17
3.810000E+03	3.333154E-16	1.057656E-17
3.820000E+03	3.429185E-16	1.086944E-17
3.830000E+03	3.528116E-16	1.117081E-17
3.840000E+03	3.629884E-16	1.148043E-17
3.850000E+03	3.734405E-16	1.179799E-17
3.860000E+03	3.841568E-16	1.212313E-17
3.870000E+03	3.951389E-16	1.245586E-17
3.880000E+03	4.063704E-16	1.279564E-17
3.890000E+03	4.178160E-16	1.314131E-17
3.900000E+03	4.294688E-16	1.349264E-17
3.910000E+03	4.413183E-16	1.384929E-17
3.920000E+03	4.533044E-16	1.420932E-17
3.930000E+03	4.654107E-16	1.457223E-17
3.940000E+03	4.776025E-16	1.493690E-17
3.950000E+03	4.898596E-16	1.530269E-17
3.960000E+03	5.021268E-16	1.566788E-17
3.970000E+03	5.143643E-16	1.603121E-17
3.980000E+03	5.265478E-16	1.639193E-17
3.990000E+03	5.386203E-16	1.674827E-17
4.000000E+03	5.505425E-16	1.709901E-17
4.010000E+03	5.622932E-16	1.744353E-17
4.020000E+03	5.738210E-16	1.778023E-17
4.030000E+03	5.850943E-16	1.810816E-17
4.040000E+03	5.961027E-16	1.842703E-17
4.050000E+03	6.067916E-16	1.873518E-17
4.060000E+03	6.171776E-16	1.903315E-17
4.070000E+03	6.272179E-16	1.931965E-17
4.080000E+03	6.369259E-16	1.959515E-17
4.090000E+03	6.462886E-16	1.985926E-17
4.100000E+03	6.553321E-16	2.011283E-17
4.110000E+03	6.640405E-16	2.035541E-17
4.120000E+03	6.724519E-16	2.058820E-17
4.130000E+03	6.805781E-16	2.081158E-17
4.140000E+03	6.884503E-16	2.102656E-17
4.150000E+03	6.961040E-16	2.123423E-17
4.160000E+03	7.035455E-16	2.143481E-17
4.170000E+03	7.108296E-16	2.163000E-17
4.180000E+03	7.179649E-16	2.182007E-17
4.190000E+03	7.250055E-16	2.200668E-17
4.200000E+03	7.319734E-16	2.219051E-17
4.210000E+03	7.388884E-16	2.237216E-17
4.220000E+03	7.457525E-16	2.255171E-17
4.230000E+03	7.526092E-16	2.273046E-17
4.240000E+03	7.594679E-16	2.290872E-17
4.250000E+03	7.663204E-16	2.308622E-17
4.260000E+03	7.731698E-16	2.326307E-17
4.270000E+03	7.800299E-16	2.343968E-17
4.280000E+03	7.868846E-16	2.361555E-17
4.290000E+03	7.937296E-16	2.379058E-17
4.300000E+03	8.005614E-16	2.396465E-17
4.310000E+03	8.073766E-16	2.413767E-17
4.320000E+03	8.141746E-16	2.430961E-17
4.330000E+03	8.209308E-16	2.447975E-17
4.340000E+03	8.276661E-16	2.464871E-17
4.350000E+03	8.343797E-16	2.481649E-17
4.360000E+03	8.410896E-16	2.498360E-17
4.370000E+03	8.478327E-16	2.515115E-17
4.380000E+03	8.546115E-16	2.531922E-17
4.390000E+03	8.614715E-16	2.548914E-17
4.400000E+03	8.684188E-16	2.566109E-17
4.410000E+03	8.754471E-16	2.583486E-17
4.420000E+03	8.825241E-16	2.600951E-17
4.430000E+03	8.896713E-16	2.618566E-17
4.440000E+03	8.968719E-16	2.636281E-17
4.450000E+03	9.041230E-16	2.654087E-17
4.460000E+03	9.113960E-16	2.671900E-17
4.470000E+03	9.186872E-16	2.689708E-17
4.480000E+03	9.259650E-16	2.707420E-17
4.490000E+03	9.331952E-16	2.724936E-17
4.500000E+03	9.403771E-16	2.742254E-17
4.510000E+03	9.474795E-16	2.759284E-17
4.520000E+03	9.544655E-16	2.775919E-17
4.530000E+03	9.613172E-16	2.792111E-17
4.540000E+03	9.679854E-16	2.807716E-17
4.550000E+03	9.744408E-16	2.822653E-17
4.560000E+03	9.806490E-16	2.836826E-17
4.570000E+03	9.865468E-16	2.850053E-17
4.580000E+03	9.921068E-16	2.862260E-17
4.590000E+03	9.972880E-16	2.873334E-17
4.600000E+03	1.002038E-15	2.883127E-17
4.610000E+03	1.006320E-15	2.891538E-17
4.620000E+03	1.010101E-15	2.898480E-17
4.630000E+03	1.013354E-15	2.903882E-17
4.640000E+03	1.016073E-15	2.907732E-17
4.650000E+03	1.018234E-15	2.909967E-17
4.660000E+03	1.019849E-15	2.910630E-17
4.670000E+03	1.020915E-15	2.909717E-17
4.680000E+03	1.021466E-15	2.907331E-17
4.690000E+03	1.021536E-15	2.903576E-17
4.700000E+03	1.021171E-15	2.898590E-17
4.710000E+03	1.020447E-15	2.892589E-17
4.720000E+03	1.019437E-15	2.885790E-17
4.730000E+03	1.018200E-15	2.878360E-17
4.740000E+03	1.016806E-15	2.870499E-17
4.750000E+03	1.015295E-15	2.862321E-17
4.760000E+03	1.013738E-15	2.854030E-17
4.770000E+03	1.012187E-15	2.845774E-17
4.780000E+03	1.010712E-15	2.837744E-17
4.790000E+03	1.009354E-15	2.830060E-17
4.800000E+03	1.008191E-15	2.822938E-17
4.810000E+03	1.007238E-15	2.816415E-17
4.820000E+03	1.006576E-15	2.810717E-17
4.830000E+03	1.006208E-15	2.805850E-17
4.840000E+03	1.006180E-15	2.801939E-17
4.850000E+03	1.006520E-15	2.799055E-17
4.860000E+03	1.007246E-15	2.797249E-17
4.870000E+03	1.008361E-15	2.796520E-17
4.880000E+03	1.009880E-15	2.796908E-17
4.890000E+03	1.011789E-15	2.798372E-17
4.900000E+03	1.014078E-15	2.800876E-17
4.910000E+03	1.016741E-15	2.804400E-17
4.920000E+03	1.019728E-15	2.808803E-17
4.930000E+03	1.023019E-15	2.814028E-17
4.940000E+03	1.026574E-15	2.819960E-17
4.950000E+03	1.030350E-15	2.826480E-17
4.960000E+03	1.034286E-15	2.833416E-17
4.970000E+03	1.038342E-15	2.840660E-17
4.980000E+03	1.042468E-15	2.848070E-17
4.990000E+03	1.046600E-15	2.855475E-17
5.000000E+03	1.050701E-15	2.862773E-17
5.010000E+03	1.054716E-15	2.869816E-17
5.020000E+03	1.058608E-15	2.876503E-17
5.030000E+03	1.062359E-15	2.882789E-17
5.040000E+03	1.065949E-15	2.888621E-17
5.050000E+03	1.069347E-15	2.893913E-17
5.060000E+03	1.072575E-15	2.898731E-17
5.070000E+03	1.075644E-15	2.903107E-17
5.080000E+03	1.078552E-15	2.907036E-17
5.090000E+03	1.081352E-15	2.910664E-17
5.100000E+03	1.084078E-15	2.914082E-17
5.110000E+03	1.086749E-15	2.917346E-17
5.120000E+03	1.089444E-15	2.920666E-17
5.130000E+03	1.092176E-15	2.924074E-17
5.140000E+03	1.095010E-15	2.927750E-17
5.150000E+03	1.097979E-15	2.931776E-17
5.160000E+03	1.101130E-15	2.936279E-17
5.170000E+03	1.104485E-15	2.941315E-17
5.180000E+03	1.108076E-15	2.946969E-17
5.190000E+03	1.111909E-15	2.953253E-17
5.200000E+03	1.115989E-15	2.960177E-17
5.210000E+03	1.120321E-15	2.967756E-17
5.220000E+03	1.124880E-15	2.975918E-17
5.230000E+03	1.129652E-15	2.984626E-17
5.240000E+03	1.134589E-15	2.993752E-17
5.250000E+03	1.139645E-15	3.003172E-17
5.260000E+03	1.144776E-15	3.012770E-17
5.270000E+03	1.149920E-15	3.022384E-17
5.280000E+03	1.154982E-15	3.031763E-17
5.290000E+03	1.159909E-15	3.040773E-17
5.300000E+03	1.164611E-15	3.049176E-17
5.310000E+03	1.169016E-15	3.056788E-17
5.320000E+03	1.173030E-15	3.063371E-17
5.330000E+03	1.176577E-15	3.068724E-17
5.340000E+03	1.179579E-15	3.072654E-17
5.350000E+03	1.181967E-15	3.074987E-17
5.360000E+03	1.183683E-15	3.075578E-17
5.370000E+03	1.184675E-15	3.074299E-17
5.380000E+03	1.184901E-15	3.071049E-17
5.390000E+03	1.184317E-15	3.065722E-17
5.400000E+03	1.182926E-15	3.058333E-17
5.410000E+03	1.180690E-15	3.048790E-17
5.420000E+03	1.177598E-15	3.037076E-17
5.430000E+03	1.173660E-15	3.023220E-17
5.440000E+03	1.168861E-15	3.007197E-17
5.450000E+03	1.163200E-15	2.989005E-17
5.460000E+03	1.156688E-15	2.968683E-17
5.470000E+03	1.149309E-15	2.946200E-17
5.480000E+03	1.141064E-15	2.921563E-17
5.490000E+03	1.131964E-15	2.894807E-17
5.500000E+03	1.122017E-15	2.865961E-17
5.510000E+03	1.111313E-15	2.835263E-17
5.520000E+03	1.099921E-15	2.802891E-17
5.530000E+03	1.087940E-15	2.769106E-17
5.540000E+03	1.075436E-15	2.734080E-17
5.550000E+03	1.062476E-15	2.697989E-17
5.560000E+03	1.049140E-15	2.661035E-17
5.570000E+03	1.035507E-15	2.623420E-17
5.580000E+03	1.021659E-15	2.585360E-17
5.590000E+03	1.007686E-15	2.547078E-17
5.600000E+03	9.936703E-16	2.508783E-17
5.610000E+03	9.797335E-16	2.470783E-17
5.620000E+03	9.659618E-16	2.433293E-17
5.630000E+03	9.524784E-16	2.396621E-17
5.640000E+03	9.394106E-16	2.361083E-17
5.650000E+03	9.268618E-16	2.326936E-17
5.660000E+03	9.149651E-16	2.294508E-17
5.670000E+03	9.038442E-16	2.264103E-17
5.680000E+03	8.936211E-16	2.236019E-17
5.690000E+03	8.844139E-16	2.210543E-17
5.700000E+03	8.763436E-16	2.187969E-17
5.710000E+03	8.694986E-16	2.168507E-17
5.720000E+03	8.639840E-16	2.152409E-17
5.730000E+03	8.598868E-16	2.139881E-17
5.740000E+03	8.572827E-16	2.131099E-17
5.750000E+03	8.562350E-16	2.126208E-17
5.760000E+03	8.567942E-16	2.125321E-17
5.770000E+03	8.589876E-16	2.128492E-17
5.780000E+03	8.628439E-16	2.135780E-17
5.790000E+03	8.683666E-16	2.147181E-17
5.800000E+03	8.755334E-16	2.162628E-17
5.810000E+03	8.843197E-16	2.182045E-17
5.820000E+03	8.946641E-16	2.205271E-17
5.830000E+03	9.064928E-16	2.232112E-17
5.840000E+03	9.197109E-16	2.262324E-17
5.850000E+03	9.342018E-16	2.295611E-17
5.860000E+03	9.498278E-16	2.331625E-17
5.870000E+03	9.664311E-16	2.369972E-17
5.880000E+03	9.838253E-16	2.410188E-17
5.890000E+03	1.001828E-15	2.451823E-17
5.900000E+03	1.020212E-15	2.494319E-17
5.910000E+03	1.038781E-15	2.537192E-17
5.920000E+03	1.057295E-15	2.579856E-17
5.930000E+03	1.075541E-15	2.621796E-17
5.940000E+03	1.093290E-15	2.662457E-17
5.950000E+03	1.110337E-15	2.701341E-17
5.960000E+03	1.126484E-15	2.737977E-17
5.970000E+03	1.141546E-15	2.771922E-17
5.980000E+03	1.155368E-15	2.802810E-17
5.990000E+03	1.167832E-15	2.830360E-17
6.000000E+03	1.178801E-15	2.854257E-17
6.010000E+03	1.188223E-15	2.874379E-17
6.020000E+03	1.196036E-15	2.890593E-17
6.030000E+03	1.202217E-15	2.902855E-17
6.040000E+03	1.206749E-15	2.911131E-17
6.050000E+03	1.209663E-15	2.915513E-17
6.060000E+03	1.211008E-15	2.916125E-17
6.070000E+03	1.210831E-15	2.913095E-17
6.080000E+03	1.209198E-15	2.906588E-17
6.090000E+03	1.206207E-15	2.896853E-17
6.100000E+03	1.201949E-15	2.884112E-17
6.110000E+03	1.196528E-15	2.868627E-17
6.120000E+03	1.190063E-15	2.850688E-17
6.130000E+03	1.182675E-15	2.830594E-17
6.140000E+03	1.174487E-15	2.808641E-17
6.150000E+03	1.165665E-15	2.785231E-17
6.160000E+03	1.156363E-15	2.760735E-17
6.170000E+03	1.146734E-15	2.735525E-17
6.180000E+03	1.136977E-15	2.710071E-17
6.190000E+03	1.127298E-15	2.684868E-17
6.200000E+03	1.117813E-15	2.660189E-17
6.210000E+03	1.108571E-15	2.636151E-17
6.220000E+03	1.099610E-15	2.612843E-17
6.230000E+03	1.090969E-15	2.590353E-17
6.240000E+03	1.082731E-15	2.568880E-17
6.250000E+03	1.074983E-15	2.548623E-17
6.260000E+03	1.067817E-15	2.529801E-17
6.270000E+03	1.061341E-15	2.512668E-17
6.280000E+03	1.055653E-15	2.497446E-17
6.290000E+03	1.050838E-15	2.484341E-17
6.300000E+03	1.047018E-15	2.473628E-17
6.310000E+03	1.044256E-15	2.465457E-17
6.320000E+03	1.042647E-15	2.460042E-17
6.330000E+03	1.042244E-15	2.457506E-17
6.340000E+03	1.043129E-15	2.458036E-17
6.350000E+03	1.045321E-15	2.461669E-17
6.360000E+03	1.048865E-15	2.468505E-17
6.370000E+03	1.053768E-15	2.478555E-17
6.380000E+03	1.060034E-15	2.491824E-17
6.390000E+03	1.067630E-15	2.508229E-17
6.400000E+03	1.076547E-15	2.527744E-17
6.410000E+03	1.086734E-15	2.550243E-17
6.420000E+03	1.098112E-15	2.575536E-17
6.430000E+03	1.110620E-15	2.603479E-17
6.440000E+03	1.124178E-15	2.633878E-17
6.450000E+03	1.138686E-15	2.666498E-17
6.460000E+03	1.154047E-15	2.701107E-17
6.470000E+03	1.170148E-15	2.737440E-17
6.480000E+03	1.186899E-15	2.775288E-17
6.490000E+03	1.204188E-15	2.814382E-17
6.500000E+03	1.221903E-15	2.854465E-17
6.510000E+03	1.239940E-15	2.895292E-17
6.520000E+03	1.258201E-15	2.936632E-17
6.530000E+03	1.276577E-15	2.978236E-17
6.540000E+03	1.294987E-15	3.019911E-17
6.550000E+03	1.313338E-15	3.061446E-17
6.560000E+03	1.331576E-15	3.102714E-17
6.570000E+03	1.349608E-15	3.143502E-17
6.580000E+03	1.367392E-15	3.183710E-17
6.590000E+03	1.384873E-15	3.223214E-17
6.600000E+03	1.401982E-15	3.261858E-17
6.610000E+03	1.418666E-15	3.299517E-17
6.620000E+03	1.434872E-15	3.336073E-17
6.630000E+03	1.450527E-15	3.371357E-17
6.640000E+03	1.465605E-15	3.405310E-17
6.650000E+03	1.480028E-15	3.437754E-17
6.660000E+03	1.493730E-15	3.468541E-17
6.670000E+03	1.506629E-15	3.497479E-17
6.680000E+03	1.518689E-15	3.524489E-17
6.690000E+03	1.529809E-15	3.549342E-17
6.700000E+03	1.539958E-15	3.571965E-17
6.710000E+03	1.549042E-15	3.592141E-17
6.720000E+03	1.557039E-15	3.609827E-17
6.730000E+03	1.563887E-15	3.624879E-17
6.740000E+03	1.569568E-15	3.637258E-17
6.750000E+03	1.574040E-15	3.646870E-17
6.760000E+03	1.577293E-15	3.653691E-17
6.770000E+03	1.579348E-15	3.657775E-17
6.780000E+03	1.580206E-15	3.659126E-17
6.790000E+03	1.579918E-15	3.657864E-17
6.800000E+03	1.578534E-15	3.654104E-17
6.810000E+03	1.576113E-15	3.647987E-17
6.820000E+03	1.572715E-15	3.639649E-17
6.830000E+03	1.568439E-15	3.629324E-17
6.840000E+03	1.563380E-15	3.617234E-17
6.850000E+03	1.557660E-15	3.603655E-17
6.860000E+03	1.551343E-15	3.588740E-17
6.870000E+03	1.544557E-15	3.572786E-17
6.880000E+03	1.537407E-15	3.556036E-17
6.890000E+03	1.529998E-15	3.538728E-17
6.900000E+03	1.522427E-15	3.521092E-17
6.910000E+03	1.514803E-15	3.503379E-17
6.920000E+03	1.507190E-15	3.485734E-17
6.930000E+03	1.499643E-15	3.468287E-17
6.940000E+03	1.492254E-15	3.451248E-17
6.950000E+03	1.485052E-15	3.434688E-17
6.960000E+03	1.478088E-15	3.418720E-17
6.970000E+03	1.471345E-15	3.403307E-17
6.980000E+03	1.464860E-15	3.388536E-17
6.990000E+03	1.458591E-15	3.374308E-17
7.000000E+03	1.452551E-15	3.360654E-17
7.010000E+03	1.446706E-15	3.347496E-17
7.020000E+03	1.440977E-15	3.334649E-17
7.030000E+03	1.435346E-15	3.322075E-17
7.040000E+03	1.429719E-15	3.309554E-17
7.050000E+03	1.424067E-15	3.297019E-17
7.060000E+03	1.418301E-15	3.284268E-17
7.070000E+03	1.412354E-15	3.271140E-17
7.080000E+03	1.406157E-15	3.257478E-17
7.090000E+03	1.399660E-15	3.243164E-17
7.100000E+03	1.392764E-15	3.227972E-17
7.110000E+03	1.385448E-15	3.211849E-17
7.120000E+03	1.377626E-15	3.194596E-17
7.130000E+03	1.369287E-15	3.176185E-17
7.140000E+03	1.360378E-15	3.156494E-17
7.150000E+03	1.350870E-15	3.135454E-17
7.160000E+03	1.340744E-15	3.113019E-17
7.170000E+03	1.329989E-15	3.089160E-17
7.180000E+03	1.318600E-15	3.063864E-17
7.190000E+03	1.306581E-15	3.037137E-17
7.200000E+03	1.293956E-15	3.009034E-17
7.210000E+03	1.280709E-15	2.979516E-17
7.220000E+03	1.266894E-15	2.948703E-17
7.230000E+03	1.252503E-15	2.916578E-17
7.240000E+03	1.237598E-15	2.883276E-17
7.250000E+03	1.222197E-15	2.848841E-17
7.260000E+03	1.206332E-15	2.813345E-17
7.270000E+03	1.190045E-15	2.776878E-17
7.280000E+03	1.173388E-15	2.739563E-17
7.290000E+03	1.156374E-15	2.701425E-17
7.300000E+03	1.139075E-15	2.662629E-17
7.310000E+03	1.121521E-15	2.623244E-17
7.320000E+03	1.103757E-15	2.583371E-17
7.330000E+03	1.085844E-15	2.543151E-17
7.340000E+03	1.067815E-15	2.502657E-17
7.350000E+03	1.049717E-15	2.461995E-17
7.360000E+03	1.031596E-15	2.421276E-17
7.370000E+03	1.013515E-15	2.380641E-17
7.380000E+03	9.954932E-16	2.340136E-17
7.390000E+03	9.776028E-16	2.299926E-17
7.400000E+03	9.598902E-16	2.260122E-17
7.410000E+03	9.423747E-16	2.220765E-17
7.420000E+03	9.251114E-16	2.181986E-17
7.430000E+03	9.081425E-16	2.143884E-17
7.440000E+03	8.915218E-16	2.106584E-17
7.450000E+03	8.752656E-16	2.070126E-17
7.460000E+03	8.594257E-16	2.034631E-17
7.470000E+03	8.440415E-16	2.000195E-17
7.480000E+03	8.291529E-16	1.966913E-17
7.490000E+03	8.148004E-16	1.934882E-17
7.500000E+03	8.010260E-16	1.904205E-17
7.510000E+03	7.878727E-16	1.874984E-17
7.520000E+03	7.753564E-16	1.847261E-17
7.530000E+03	7.634483E-16	1.820968E-17
7.540000E+03	7.521526E-16	1.796118E-17
7.550000E+03	7.414368E-16	1.772635E-17
7.560000E+03	7.313031E-16	1.750527E-17
7.570000E+03	7.217452E-16	1.729781E-17
7.580000E+03	7.127493E-16	1.710367E-17
7.590000E+03	7.043121E-16	1.692281E-17
7.600000E+03	6.964492E-16	1.675562E-17
7.610000E+03	6.891379E-16	1.660160E-17
7.620000E+03	6.823739E-16	1.646067E-17
7.630000E+03	6.761521E-16	1.633275E-17
7.640000E+03	6.704744E-16	1.621793E-17
7.650000E+03	6.653328E-16	1.611604E-17
7.660000E+03	6.606993E-16	1.602645E-17
7.670000E+03	6.565803E-16	1.594936E-17
7.680000E+03	6.529538E-16	1.588427E-17
7.690000E+03	6.498047E-16	1.583086E-17
7.700000E+03	6.471251E-16	1.578896E-17
7.710000E+03	6.448877E-16	1.575797E-17
7.720000E+03	6.430722E-16	1.573741E-17
7.730000E+03	6.416568E-16	1.572680E-17
7.740000E+03	6.406266E-16	1.572580E-17
7.750000E+03	6.399478E-16	1.573363E-17
7.760000E+03	6.395939E-16	1.574966E-17
