#wls	flux	fluxerr
1.600000E+03	4.663282E-17	1.071351E-18
1.640000E+03	4.675573E-17	1.072235E-18
1.680000E+03	4.689659E-17	1.073472E-18
1.720000E+03	4.705560E-17	1.075062E-18
1.760000E+03	4.723297E-17	1.077006E-18
1.800000E+03	4.743755E-17	1.079502E-18
1.840000E+03	4.766097E-17	1.082354E-18
1.880000E+03	4.791216E-17	1.085760E-18
1.920000E+03	4.819145E-17	1.089723E-18
1.960000E+03	4.849922E-17	1.094243E-18
2.000000E+03	4.883589E-17	1.099325E-18
2.040000E+03	4.921060E-17	1.105168E-18
2.080000E+03	4.962392E-17	1.111774E-18
2.120000E+03	5.007642E-17	1.119150E-18
2.160000E+03	5.057752E-17	1.127494E-18
2.200000E+03	5.111925E-17	1.136620E-18
2.240000E+03	5.171995E-17	1.146923E-18
2.280000E+03	5.237188E-17	1.158219E-18
2.320000E+03	5.308488E-17	1.170712E-18
2.360000E+03	5.386900E-17	1.184608E-18
2.400000E+03	5.472568E-17	1.199920E-18
2.440000E+03	5.565656E-17	1.216667E-18
2.480000E+03	5.667230E-17	1.235060E-18
2.520000E+03	5.778386E-17	1.255316E-18
2.560000E+03	5.899368E-17	1.277462E-18
2.600000E+03	6.032232E-17	1.301915E-18
2.640000E+03	6.177305E-17	1.328713E-18
2.680000E+03	6.335855E-17	1.358094E-18
2.720000E+03	6.509213E-17	1.390305E-18
2.760000E+03	6.699691E-17	1.425795E-18
2.800000E+03	6.908797E-17	1.464835E-18
2.840000E+03	7.137238E-17	1.507520E-18
2.880000E+03	7.388576E-17	1.554542E-18
2.920000E+03	7.665642E-17	1.606425E-18
2.960000E+03	7.971479E-17	1.663728E-18
3.000000E+03	8.308435E-17	1.726850E-18
3.010000E+03	8.397727E-17	1.743568E-18
3.020000E+03	8.489564E-17	1.760766E-18
3.030000E+03	8.583978E-17	1.778450E-18
3.040000E+03	8.681003E-17	1.796624E-18
3.050000E+03	8.779733E-17	1.815099E-18
3.060000E+03	8.882086E-17	1.834270E-18
3.070000E+03	8.986212E-17	1.853752E-18
3.080000E+03	9.093093E-17	1.873746E-18
3.090000E+03	9.203723E-17	1.894454E-18
3.100000E+03	9.316240E-17	1.915492E-18
3.110000E+03	9.432595E-17	1.937257E-18
3.120000E+03	9.551881E-17	1.959562E-18
3.130000E+03	9.674146E-17	1.982412E-18
3.140000E+03	9.799437E-17	2.005817E-18
3.150000E+03	9.928770E-17	2.029980E-18
3.160000E+03	1.006124E-16	2.054713E-18
3.170000E+03	1.019689E-16	2.080026E-18
3.180000E+03	1.033677E-16	2.106124E-18
3.190000E+03	1.048092E-16	2.133017E-18
3.200000E+03	1.062844E-16	2.160518E-18
3.210000E+03	1.078039E-16	2.188837E-18
3.220000E+03	1.093682E-16	2.217981E-18
3.230000E+03	1.109781E-16	2.247964E-18
3.240000E+03	1.126244E-16	2.278596E-18
3.250000E+03	1.143179E-16	2.310092E-18
3.260000E+03	1.160693E-16	2.342663E-18
3.270000E+03	1.178594E-16	2.375919E-18
3.280000E+03	1.197093E-16	2.410278E-18
3.290000E+03	1.216096E-16	2.445552E-18
3.300000E+03	1.235716E-16	2.481959E-18
3.310000E+03	1.255758E-16	2.519103E-18
3.320000E+03	1.276536E-16	2.557614E-18
3.330000E+03	1.297757E-16	2.596893E-18
3.340000E+03	1.319735E-16	2.637570E-18
3.350000E+03	1.342278E-16	2.679251E-18
3.360000E+03	1.365500E-16	2.722158E-18
3.370000E+03	1.389410E-16	2.766308E-18
3.380000E+03	1.414022E-16	2.811719E-18
3.390000E+03	1.439346E-16	2.858407E-18
3.400000E+03	1.465500E-16	2.906600E-18
3.410000E+03	1.492288E-16	2.955898E-18
3.420000E+03	1.519929E-16	3.006737E-18
3.430000E+03	1.548439E-16	3.059135E-18
3.440000E+03	1.577723E-16	3.112899E-18
3.450000E+03	1.607902E-16	3.168262E-18
3.460000E+03	1.638881E-16	3.225027E-18
3.470000E+03	1.670890E-16	3.283641E-18
3.480000E+03	1.703724E-16	3.343691E-18
3.490000E+03	1.737615E-16	3.405625E-18
3.500000E+03	1.772467E-16	3.469249E-18
3.510000E+03	1.808292E-16	3.534574E-18
3.520000E+03	1.845216E-16	3.601839E-18
3.530000E+03	1.883250E-16	3.671057E-18
3.540000E+03	1.922296E-16	3.742024E-18
3.550000E+03	1.962478E-16	3.814977E-18
3.560000E+03	2.003807E-16	3.889925E-18
3.570000E+03	2.046297E-16	3.966883E-18
3.580000E+03	2.089955E-16	4.045857E-18
3.590000E+03	2.134907E-16	4.127081E-18
3.600000E+03	2.181049E-16	4.210339E-18
3.610000E+03	2.228387E-16	4.295636E-18
3.620000E+03	2.277161E-16	4.383421E-18
3.630000E+03	2.327144E-16	4.473245E-18
3.640000E+03	2.378459E-16	4.565333E-18
3.650000E+03	2.431226E-16	4.659905E-18
3.660000E+03	2.485208E-16	4.756492E-18
3.670000E+03	2.540646E-16	4.855545E-18
3.680000E+03	2.597536E-16	4.957042E-18
3.690000E+03	2.655753E-16	5.060734E-18
3.700000E+03	2.715533E-16	5.167056E-18
3.710000E+03	2.776623E-16	5.275514E-18
3.720000E+03	2.839131E-16	5.386301E-18
3.730000E+03	2.903042E-16	5.499375E-18
3.740000E+03	2.968461E-16	5.614923E-18
3.750000E+03	3.035241E-16	5.732654E-18
3.760000E+03	3.103482E-16	5.852740E-18
3.770000E+03	3.173153E-16	5.975115E-18
3.780000E+03	3.244093E-16	6.099459E-18
3.790000E+03	3.316520E-16	6.226172E-18
3.800000E+03	3.390262E-16	6.354916E-18
3.810000E+03	3.465273E-16	6.485592E-18
3.820000E+03	3.541498E-16	6.618091E-18
3.830000E+03	3.619013E-16	6.752537E-18
3.840000E+03	3.697625E-16	6.888561E-18
3.850000E+03	3.777398E-16	7.026273E-18
3.860000E+03	3.858395E-16	7.165777E-18
3.870000E+03	3.940275E-16	7.306432E-18
3.880000E+03	4.023091E-16	7.448324E-18
3.890000E+03	4.106758E-16	7.591291E-18
3.900000E+03	4.191188E-16	7.735161E-18
3.910000E+03	4.276421E-16	7.880001E-18
3.920000E+03	4.362230E-16	8.025385E-18
3.930000E+03	4.448516E-16	8.171125E-18
3.940000E+03	4.535312E-16	8.317278E-18
3.950000E+03	4.622379E-16	8.463401E-18
3.960000E+03	4.709747E-16	8.609549E-18
3.970000E+03	4.797312E-16	8.755525E-18
3.980000E+03	4.884831E-16	8.900888E-18
3.990000E+03	4.972335E-16	9.045692E-18
4.000000E+03	5.059584E-16	9.189504E-18
4.010000E+03	5.146610E-16	9.332381E-18
4.020000E+03	5.233311E-16	9.474144E-18
4.030000E+03	5.319457E-16	9.614378E-18
4.040000E+03	5.405090E-16	9.753164E-18
4.050000E+03	5.489849E-16	9.889859E-18
4.060000E+03	5.574058E-16	1.002505E-17
4.070000E+03	5.657234E-16	1.015788E-17
4.080000E+03	5.739575E-16	1.028871E-17
4.090000E+03	5.820750E-16	1.041696E-17
4.100000E+03	5.900970E-16	1.054301E-17
4.110000E+03	5.979918E-16	1.066631E-17
4.120000E+03	6.057560E-16	1.078682E-17
4.130000E+03	6.133992E-16	1.090470E-17
4.140000E+03	6.208931E-16	1.101949E-17
4.150000E+03	6.282626E-16	1.113162E-17
4.160000E+03	6.354810E-16	1.124064E-17
4.170000E+03	6.425360E-16	1.134635E-17
4.180000E+03	6.494547E-16	1.144924E-17
4.190000E+03	6.562135E-16	1.154891E-17
4.200000E+03	6.628154E-16	1.164543E-17
4.210000E+03	6.692639E-16	1.173888E-17
4.220000E+03	6.755506E-16	1.182912E-17
4.230000E+03	6.816806E-16	1.191625E-17
4.240000E+03	6.876467E-16	1.200018E-17
4.250000E+03	6.934424E-16	1.208080E-17
4.260000E+03	6.990739E-16	1.215824E-17
4.270000E+03	7.045478E-16	1.223263E-17
4.280000E+03	7.098468E-16	1.230368E-17
4.290000E+03	7.149783E-16	1.237155E-17
4.300000E+03	7.199506E-16	1.243639E-17
4.310000E+03	7.247381E-16	1.249777E-17
4.320000E+03	7.293641E-16	1.255612E-17
4.330000E+03	7.338205E-16	1.261132E-17
4.340000E+03	7.381274E-16	1.266372E-17
4.350000E+03	7.422890E-16	1.271342E-17
4.360000E+03	7.463310E-16	1.276087E-17
4.370000E+03	7.502812E-16	1.280655E-17
4.380000E+03	7.542162E-16	1.285179E-17
4.390000E+03	7.581716E-16	1.289719E-17
4.400000E+03	7.621574E-16	1.294292E-17
4.410000E+03	7.660942E-16	1.298764E-17
4.420000E+03	7.699270E-16	1.303043E-17
4.430000E+03	7.735931E-16	1.307023E-17
4.440000E+03	7.770740E-16	1.310675E-17
4.450000E+03	7.803388E-16	1.313950E-17
4.460000E+03	7.833849E-16	1.316845E-17
4.470000E+03	7.862139E-16	1.319364E-17
4.480000E+03	7.888307E-16	1.321518E-17
4.490000E+03	7.912521E-16	1.323337E-17
4.500000E+03	7.934755E-16	1.324818E-17
4.510000E+03	7.955295E-16	1.326011E-17
4.520000E+03	7.974123E-16	1.326914E-17
4.530000E+03	7.991427E-16	1.327561E-17
4.540000E+03	8.007296E-16	1.327967E-17
4.550000E+03	8.021821E-16	1.328149E-17
4.560000E+03	8.035195E-16	1.328140E-17
4.570000E+03	8.047517E-16	1.327958E-17
4.580000E+03	8.058893E-16	1.327621E-17
4.590000E+03	8.069535E-16	1.327164E-17
4.600000E+03	8.079565E-16	1.326609E-17
4.610000E+03	8.089019E-16	1.325962E-17
4.620000E+03	8.098238E-16	1.325280E-17
4.630000E+03	8.107380E-16	1.324588E-17
4.640000E+03	8.116618E-16	1.323916E-17
4.650000E+03	8.126143E-16	1.323294E-17
4.660000E+03	8.136257E-16	1.322772E-17
4.670000E+03	8.147273E-16	1.322400E-17
4.680000E+03	8.159334E-16	1.322200E-17
4.690000E+03	8.172884E-16	1.322244E-17
4.700000E+03	8.188283E-16	1.322589E-17
4.710000E+03	8.205624E-16	1.323249E-17
4.720000E+03	8.225574E-16	1.324329E-17
4.730000E+03	8.248085E-16	1.325821E-17
4.740000E+03	8.273064E-16	1.327708E-17
4.750000E+03	8.300384E-16	1.329967E-17
4.760000E+03	8.329742E-16	1.332550E-17
4.770000E+03	8.360936E-16	1.335421E-17
4.780000E+03	8.393584E-16	1.338519E-17
4.790000E+03	8.427594E-16	1.341830E-17
4.800000E+03	8.462881E-16	1.345337E-17
4.810000E+03	8.499368E-16	1.349030E-17
4.820000E+03	8.536894E-16	1.352881E-17
4.830000E+03	8.575401E-16	1.356881E-17
4.840000E+03	8.614649E-16	1.360992E-17
4.850000E+03	8.654496E-16	1.365191E-17
4.860000E+03	8.694807E-16	1.369456E-17
4.870000E+03	8.735355E-16	1.373751E-17
4.880000E+03	8.776104E-16	1.378072E-17
4.890000E+03	8.816832E-16	1.382382E-17
4.900000E+03	8.857508E-16	1.386679E-17
4.910000E+03	8.897912E-16	1.390926E-17
4.920000E+03	8.937919E-16	1.395106E-17
4.930000E+03	8.977500E-16	1.399214E-17
4.940000E+03	9.016436E-16	1.403217E-17
4.950000E+03	9.054700E-16	1.407112E-17
4.960000E+03	9.092169E-16	1.410879E-17
4.970000E+03	9.128719E-16	1.414501E-17
4.980000E+03	9.164232E-16	1.417959E-17
4.990000E+03	9.198680E-16	1.421252E-17
5.000000E+03	9.231947E-16	1.424361E-17
5.010000E+03	9.263912E-16	1.427269E-17
5.020000E+03	9.294557E-16	1.429975E-17
5.030000E+03	9.323574E-16	1.432431E-17
5.040000E+03	9.351140E-16	1.434668E-17
5.050000E+03	9.377050E-16	1.436653E-17
5.060000E+03	9.401195E-16	1.438373E-17
5.070000E+03	9.423571E-16	1.439827E-17
5.080000E+03	9.443975E-16	1.440987E-17
5.090000E+03	9.462411E-16	1.441853E-17
5.100000E+03	9.478781E-16	1.442414E-17
5.110000E+03	9.493091E-16	1.442670E-17
5.120000E+03	9.505158E-16	1.442596E-17
5.130000E+03	9.514994E-16	1.442195E-17
5.140000E+03	9.522424E-16	1.441442E-17
5.150000E+03	9.527466E-16	1.440341E-17
5.160000E+03	9.530051E-16	1.438885E-17
5.170000E+03	9.530110E-16	1.437063E-17
5.180000E+03	9.527678E-16	1.434882E-17
5.190000E+03	9.522503E-16	1.432307E-17
5.200000E+03	9.514725E-16	1.429360E-17
5.210000E+03	9.504105E-16	1.426007E-17
5.220000E+03	9.490795E-16	1.422272E-17
5.230000E+03	9.474759E-16	1.418152E-17
5.240000E+03	9.455778E-16	1.413615E-17
5.250000E+03	9.434023E-16	1.408688E-17
5.260000E+03	9.409385E-16	1.403357E-17
5.270000E+03	9.381862E-16	1.397623E-17
5.280000E+03	9.351552E-16	1.391502E-17
5.290000E+03	9.318280E-16	1.384970E-17
5.300000E+03	9.282170E-16	1.378047E-17
5.310000E+03	9.243349E-16	1.370752E-17
5.320000E+03	9.201586E-16	1.363053E-17
5.330000E+03	9.157218E-16	1.355001E-17
5.340000E+03	9.110132E-16	1.346581E-17
5.350000E+03	9.060506E-16	1.337819E-17
5.360000E+03	9.008433E-16	1.328732E-17
5.370000E+03	8.953843E-16	1.319309E-17
5.380000E+03	8.897039E-16	1.309595E-17
5.390000E+03	8.838157E-16	1.299611E-17
5.400000E+03	8.777163E-16	1.289352E-17
5.410000E+03	8.714482E-16	1.278881E-17
5.420000E+03	8.650102E-16	1.268196E-17
5.430000E+03	8.584288E-16	1.257336E-17
5.440000E+03	8.517310E-16	1.246341E-17
5.450000E+03	8.449441E-16	1.235250E-17
5.460000E+03	8.380961E-16	1.224104E-17
5.470000E+03	8.312154E-16	1.212944E-17
5.480000E+03	8.243470E-16	1.201835E-17
5.490000E+03	8.175114E-16	1.190807E-17
5.500000E+03	8.107429E-16	1.179909E-17
5.510000E+03	8.040275E-16	1.169119E-17
5.520000E+03	7.973917E-16	1.158476E-17
5.530000E+03	7.908140E-16	1.147947E-17
5.540000E+03	7.843065E-16	1.137549E-17
5.550000E+03	7.778810E-16	1.127299E-17
5.560000E+03	7.715270E-16	1.117181E-17
5.570000E+03	7.652650E-16	1.107222E-17
5.580000E+03	7.591080E-16	1.097443E-17
5.590000E+03	7.530686E-16	1.087859E-17
5.600000E+03	7.471447E-16	1.078467E-17
5.610000E+03	7.413637E-16	1.069306E-17
5.620000E+03	7.357300E-16	1.060382E-17
5.630000E+03	7.302628E-16	1.051720E-17
5.640000E+03	7.249656E-16	1.043326E-17
5.650000E+03	7.198561E-16	1.035223E-17
5.660000E+03	7.149370E-16	1.027415E-17
5.670000E+03	7.102240E-16	1.019923E-17
5.680000E+03	7.057184E-16	1.012749E-17
5.690000E+03	7.014410E-16	1.005921E-17
5.700000E+03	6.973839E-16	9.994272E-18
5.710000E+03	6.935662E-16	9.932936E-18
5.720000E+03	6.899778E-16	9.875051E-18
5.730000E+03	6.866355E-16	9.820848E-18
5.740000E+03	6.835339E-16	9.770242E-18
5.750000E+03	6.806803E-16	9.723327E-18
5.760000E+03	6.780674E-16	9.679993E-18
5.770000E+03	6.756933E-16	9.640204E-18
5.780000E+03	6.735621E-16	9.604009E-18
5.790000E+03	6.716631E-16	9.571250E-18
5.800000E+03	6.699980E-16	9.541943E-18
5.810000E+03	6.685609E-16	9.515999E-18
5.820000E+03	6.673385E-16	9.493220E-18
5.830000E+03	6.663297E-16	9.473587E-18
5.840000E+03	6.655263E-16	9.456976E-18
5.850000E+03	6.649128E-16	9.443162E-18
5.860000E+03	6.644799E-16	9.432009E-18
5.870000E+03	6.642309E-16	9.423560E-18
5.880000E+03	6.641427E-16	9.417483E-18
5.890000E+03	6.642052E-16	9.413630E-18
5.900000E+03	6.644148E-16	9.411949E-18
5.910000E+03	6.647551E-16	9.412203E-18
5.920000E+03	6.652229E-16	9.414346E-18
5.930000E+03	6.657958E-16	9.418058E-18
5.940000E+03	6.664782E-16	9.423402E-18
5.950000E+03	6.672558E-16	9.430172E-18
5.960000E+03	6.681213E-16	9.438265E-18
5.970000E+03	6.690619E-16	9.447499E-18
5.980000E+03	6.700790E-16	9.457893E-18
5.990000E+03	6.711619E-16	9.469297E-18
6.000000E+03	6.723145E-16	9.481765E-18
6.010000E+03	6.735220E-16	9.495088E-18
6.020000E+03	6.747907E-16	9.509356E-18
6.030000E+03	6.761153E-16	9.524496E-18
6.040000E+03	6.774984E-16	9.540542E-18
6.050000E+03	6.789374E-16	9.557461E-18
6.060000E+03	6.804447E-16	9.575426E-18
6.070000E+03	6.820209E-16	9.594447E-18
6.080000E+03	6.836680E-16	9.614553E-18
6.090000E+03	6.853965E-16	9.635894E-18
6.100000E+03	6.872123E-16	9.658551E-18
6.110000E+03	6.891302E-16	9.682734E-18
6.120000E+03	6.911673E-16	9.708686E-18
6.130000E+03	6.933306E-16	9.736503E-18
6.140000E+03	6.956510E-16	9.766622E-18
6.150000E+03	6.981581E-16	9.799459E-18
6.160000E+03	7.008734E-16	9.835316E-18
6.170000E+03	7.038471E-16	9.874897E-18
6.180000E+03	7.071312E-16	9.918935E-18
6.190000E+03	7.107810E-16	9.968204E-18
6.200000E+03	7.148376E-16	1.002328E-17
6.210000E+03	7.192638E-16	1.008365E-17
6.220000E+03	7.240242E-16	1.014880E-17
6.230000E+03	7.290915E-16	1.021837E-17
6.240000E+03	7.344523E-16	1.029217E-17
6.250000E+03	7.400907E-16	1.036998E-17
6.260000E+03	7.459952E-16	1.045163E-17
6.270000E+03	7.521565E-16	1.053701E-17
6.280000E+03	7.585750E-16	1.062612E-17
6.290000E+03	7.652521E-16	1.071900E-17
6.300000E+03	7.721744E-16	1.081544E-17
6.310000E+03	7.793441E-16	1.091551E-17
6.320000E+03	7.867471E-16	1.101898E-17
6.330000E+03	7.943924E-16	1.112600E-17
6.340000E+03	8.022644E-16	1.123635E-17
6.350000E+03	8.103546E-16	1.134991E-17
6.360000E+03	8.186532E-16	1.146654E-17
6.370000E+03	8.271578E-16	1.158622E-17
6.380000E+03	8.358396E-16	1.170854E-17
6.390000E+03	8.447022E-16	1.183356E-17
6.400000E+03	8.537228E-16	1.196096E-17
6.410000E+03	8.628855E-16	1.209052E-17
6.420000E+03	8.721725E-16	1.222200E-17
6.430000E+03	8.815577E-16	1.235502E-17
6.440000E+03	8.910198E-16	1.248931E-17
6.450000E+03	9.005373E-16	1.262455E-17
6.460000E+03	9.100899E-16	1.276046E-17
6.470000E+03	9.196521E-16	1.289670E-17
6.480000E+03	9.291898E-16	1.303278E-17
6.490000E+03	9.386787E-16	1.316837E-17
6.500000E+03	9.480813E-16	1.330294E-17
6.510000E+03	9.573911E-16	1.343641E-17
6.520000E+03	9.665796E-16	1.356836E-17
6.530000E+03	9.755985E-16	1.369814E-17
6.540000E+03	9.844508E-16	1.382577E-17
6.550000E+03	9.930977E-16	1.395072E-17
6.560000E+03	1.001533E-15	1.407289E-17
6.570000E+03	1.009718E-15	1.419175E-17
6.580000E+03	1.017636E-15	1.430706E-17
6.590000E+03	1.025272E-15	1.441860E-17
6.600000E+03	1.032600E-15	1.452600E-17
6.610000E+03	1.039606E-15	1.462907E-17
6.620000E+03	1.046266E-15	1.472748E-17
6.630000E+03	1.052568E-15	1.482104E-17
6.640000E+03	1.058493E-15	1.490947E-17
6.650000E+03	1.064030E-15	1.499264E-17
6.660000E+03	1.069148E-15	1.507010E-17
6.670000E+03	1.073855E-15	1.514193E-17
6.680000E+03	1.078122E-15	1.520774E-17
6.690000E+03	1.081946E-15	1.526749E-17
6.700000E+03	1.085327E-15	1.532116E-17
6.710000E+03	1.088230E-15	1.536824E-17
6.720000E+03	1.090683E-15	1.540913E-17
6.730000E+03	1.092651E-15	1.544334E-17
6.740000E+03	1.094143E-15	1.547096E-17
6.750000E+03	1.095166E-15	1.549210E-17
6.760000E+03	1.095704E-15	1.550652E-17
6.770000E+03	1.095757E-15	1.551422E-17
6.780000E+03	1.095338E-15	1.551537E-17
6.790000E+03	1.094462E-15	1.551015E-17
6.800000E+03	1.093105E-15	1.549826E-17
6.810000E+03	1.091285E-15	1.547991E-17
6.820000E+03	1.089022E-15	1.545536E-17
6.830000E+03	1.086308E-15	1.542454E-17
6.840000E+03	1.083153E-15	1.538753E-17
6.850000E+03	1.079576E-15	1.534462E-17
6.860000E+03	1.075577E-15	1.529578E-17
6.870000E+03	1.071190E-15	1.524150E-17
6.880000E+03	1.066387E-15	1.518137E-17
6.890000E+03	1.061217E-15	1.511607E-17
6.900000E+03	1.055680E-15	1.504560E-17
6.910000E+03	1.049776E-15	1.496993E-17
6.920000E+03	1.043526E-15	1.488938E-17
6.930000E+03	1.036945E-15	1.480413E-17
6.940000E+03	1.030058E-15	1.471453E-17
6.950000E+03	1.022848E-15	1.462035E-17
6.960000E+03	1.015344E-15	1.452196E-17
6.970000E+03	1.007553E-15	1.441949E-17
6.980000E+03	9.994902E-16	1.431312E-17
6.990000E+03	9.911657E-16	1.420299E-17
7.000000E+03	9.825781E-16	1.408908E-17
7.010000E+03	9.737624E-16	1.397188E-17
7.020000E+03	9.647177E-16	1.385136E-17
7.030000E+03	9.554430E-16	1.372751E-17
7.040000E+03	9.459616E-16	1.360065E-17
7.050000E+03	9.362826E-16	1.347090E-17
7.060000E+03	9.264168E-16	1.333841E-17
7.070000E+03	9.163764E-16	1.320335E-17
7.080000E+03	9.061589E-16	1.306567E-17
7.090000E+03	8.957765E-16	1.292555E-17
7.100000E+03	8.852509E-16	1.278328E-17
7.110000E+03	8.745938E-16	1.263902E-17
7.120000E+03	8.637947E-16	1.249263E-17
7.130000E+03	8.528871E-16	1.234457E-17
7.140000E+03	8.418732E-16	1.219487E-17
7.150000E+03	8.307657E-16	1.204371E-17
7.160000E+03	8.195772E-16	1.189126E-17
7.170000E+03	8.083212E-16	1.173772E-17
7.180000E+03	7.970115E-16	1.158327E-17
7.190000E+03	7.856522E-16	1.142797E-17
7.200000E+03	7.742581E-16	1.127203E-17
7.210000E+03	7.628539E-16	1.111581E-17
7.220000E+03	7.514547E-16	1.095952E-17
7.230000E+03	7.400569E-16	1.080310E-17
7.240000E+03	7.286858E-16	1.064692E-17
7.250000E+03	7.173575E-16	1.049121E-17
7.260000E+03	7.060879E-16	1.033620E-17
7.270000E+03	6.948841E-16	1.018200E-17
7.280000E+03	6.837628E-16	1.002883E-17
7.290000E+03	6.727490E-16	9.877083E-18
7.300000E+03	6.618415E-16	9.726725E-18
7.310000E+03	6.510652E-16	9.578126E-18
7.320000E+03	6.404360E-16	9.431519E-18
7.330000E+03	6.299533E-16	9.286900E-18
7.340000E+03	6.196490E-16	9.144740E-18
7.350000E+03	6.095224E-16	9.005030E-18
7.360000E+03	5.995888E-16	8.868003E-18
7.370000E+03	5.898555E-16	8.733767E-18
7.380000E+03	5.803447E-16	8.602660E-18
7.390000E+03	5.710556E-16	8.474676E-18
7.400000E+03	5.619955E-16	8.349925E-18
7.410000E+03	5.531858E-16	8.228737E-18
7.420000E+03	5.446262E-16	8.111114E-18
7.430000E+03	5.363244E-16	7.997179E-18
7.440000E+03	5.282952E-16	7.887163E-18
7.450000E+03	5.205611E-16	7.781412E-18
7.460000E+03	5.131449E-16	7.680280E-18
7.470000E+03	5.060644E-16	7.584046E-18
7.480000E+03	4.993460E-16	7.493122E-18
7.490000E+03	4.930126E-16	7.407869E-18
7.500000E+03	4.870970E-16	7.328800E-18
7.510000E+03	4.816228E-16	7.256294E-18
7.520000E+03	4.766028E-16	7.190564E-18
7.530000E+03	4.719888E-16	7.130911E-18
7.540000E+03	4.677493E-16	7.076880E-18
7.550000E+03	4.638531E-16	7.028014E-18
7.560000E+03	4.602800E-16	6.984026E-18
7.570000E+03	4.569963E-16	6.944417E-18
7.580000E+03	4.539952E-16	6.909098E-18
7.590000E+03	4.512548E-16	6.877752E-18
7.600000E+03	4.487668E-16	6.850261E-18
7.610000E+03	4.465181E-16	6.826442E-18
7.620000E+03	4.444970E-16	6.806126E-18
7.630000E+03	4.426867E-16	6.789068E-18
7.640000E+03	4.410882E-16	6.775295E-18
7.650000E+03	4.396860E-16	6.764581E-18
7.660000E+03	4.384762E-16	6.756875E-18
7.670000E+03	4.374378E-16	6.751868E-18
7.680000E+03	4.365736E-16	6.749608E-18
7.690000E+03	4.358747E-16	6.749972E-18
7.700000E+03	4.353268E-16	6.752746E-18
7.710000E+03	4.349271E-16	6.757896E-18
7.720000E+03	4.346617E-16	6.765216E-18
7.730000E+03	4.345282E-16	6.774674E-18
7.740000E+03	4.345128E-16	6.786064E-18
7.750000E+03	4.346133E-16	6.799360E-18
7.760000E+03	4.348221E-16	6.814451E-18
