#wls	flux	fluxerr
1.600000E+03	3.267104E-17	2.818288E-18
1.640000E+03	3.281916E-17	2.823407E-18
1.680000E+03	3.297756E-17	2.829150E-18
1.720000E+03	3.314671E-17	2.835542E-18
1.760000E+03	3.332713E-17	2.842612E-18
1.800000E+03	3.352509E-17	2.850879E-18
1.840000E+03	3.372977E-17	2.859406E-18
1.880000E+03	3.395331E-17	2.869204E-18
1.920000E+03	3.419647E-17	2.880314E-18
1.960000E+03	3.445436E-17	2.892302E-18
2.000000E+03	3.472785E-17	2.905219E-18
2.040000E+03	3.502374E-17	2.919608E-18
2.080000E+03	3.533734E-17	2.935052E-18
2.120000E+03	3.568152E-17	2.952588E-18
2.160000E+03	3.604597E-17	2.971327E-18
2.200000E+03	3.643805E-17	2.991844E-18
2.240000E+03	3.685941E-17	3.014233E-18
2.280000E+03	3.731188E-17	3.038602E-18
2.320000E+03	3.779750E-17	3.065071E-18
2.360000E+03	3.831848E-17	3.093771E-18
2.400000E+03	3.888337E-17	3.125334E-18
2.440000E+03	3.948889E-17	3.159436E-18
2.480000E+03	4.013808E-17	3.196256E-18
2.520000E+03	4.084048E-17	3.236481E-18
2.560000E+03	4.159994E-17	3.280337E-18
2.600000E+03	4.241441E-17	3.327572E-18
2.640000E+03	4.329483E-17	3.378952E-18
2.680000E+03	4.425296E-17	3.435286E-18
2.720000E+03	4.528170E-17	3.495904E-18
2.760000E+03	4.639397E-17	3.561680E-18
2.800000E+03	4.760372E-17	3.633541E-18
2.840000E+03	4.891240E-17	3.711439E-18
2.880000E+03	5.032893E-17	3.795879E-18
2.920000E+03	5.187035E-17	3.887956E-18
2.960000E+03	5.354814E-17	3.988312E-18
3.000000E+03	5.536762E-17	4.097108E-18
3.010000E+03	5.584645E-17	4.125731E-18
3.020000E+03	5.633381E-17	4.154838E-18
3.030000E+03	5.683746E-17	4.184997E-18
3.040000E+03	5.735017E-17	4.215668E-18
3.050000E+03	5.787215E-17	4.246863E-18
3.060000E+03	5.840363E-17	4.278596E-18
3.070000E+03	5.895258E-17	4.311445E-18
3.080000E+03	5.951161E-17	4.344862E-18
3.090000E+03	6.008098E-17	4.378862E-18
3.100000E+03	6.066095E-17	4.413459E-18
3.110000E+03	6.125968E-17	4.449242E-18
3.120000E+03	6.186170E-17	4.485081E-18
3.130000E+03	6.249115E-17	4.522720E-18
3.140000E+03	6.312446E-17	4.560446E-18
3.150000E+03	6.376985E-17	4.598850E-18
3.160000E+03	6.443586E-17	4.638539E-18
3.170000E+03	6.511470E-17	4.678946E-18
3.180000E+03	6.581499E-17	4.720683E-18
3.190000E+03	6.652054E-17	4.762582E-18
3.200000E+03	6.724835E-17	4.805854E-18
3.210000E+03	6.799047E-17	4.849924E-18
3.220000E+03	6.875581E-17	4.895418E-18
3.230000E+03	6.952773E-17	4.941145E-18
3.240000E+03	7.032374E-17	4.988342E-18
3.250000E+03	7.113572E-17	5.036424E-18
3.260000E+03	7.197288E-17	5.086034E-18
3.270000E+03	7.281808E-17	5.135953E-18
3.280000E+03	7.368945E-17	5.187453E-18
3.290000E+03	7.458764E-17	5.240567E-18
3.300000E+03	7.549514E-17	5.294056E-18
3.310000E+03	7.643054E-17	5.349217E-18
3.320000E+03	7.738529E-17	5.405439E-18
3.330000E+03	7.835991E-17	5.462750E-18
3.340000E+03	7.935488E-17	5.521174E-18
3.350000E+03	8.038025E-17	5.581399E-18
3.360000E+03	8.142720E-17	5.642801E-18
3.370000E+03	8.250598E-17	5.706079E-18
3.380000E+03	8.359788E-17	5.769925E-18
3.390000E+03	8.472294E-17	5.835716E-18
3.400000E+03	8.587208E-17	5.902812E-18
3.410000E+03	8.704593E-17	5.971243E-18
3.420000E+03	8.825525E-17	6.041737E-18
3.430000E+03	8.949076E-17	6.113642E-18
3.440000E+03	9.075313E-17	6.186992E-18
3.450000E+03	9.204304E-17	6.261821E-18
3.460000E+03	9.337178E-17	6.338882E-18
3.470000E+03	9.472972E-17	6.417506E-18
3.480000E+03	9.611761E-17	6.497728E-18
3.490000E+03	9.753622E-17	6.579589E-18
3.500000E+03	9.899735E-17	6.663868E-18
3.510000E+03	1.004910E-16	6.749876E-18
3.520000E+03	1.020181E-16	6.837653E-18
3.530000E+03	1.035909E-16	6.928004E-18
3.540000E+03	1.051874E-16	7.019454E-18
3.550000E+03	1.068317E-16	7.113577E-18
3.560000E+03	1.085250E-16	7.210440E-18
3.570000E+03	1.102447E-16	7.308530E-18
3.580000E+03	1.120157E-16	7.409467E-18
3.590000E+03	1.138271E-16	7.512517E-18
3.600000E+03	1.156800E-16	7.617729E-18
3.610000E+03	1.175754E-16	7.725153E-18
3.620000E+03	1.195271E-16	7.835673E-18
3.630000E+03	1.215237E-16	7.948518E-18
3.640000E+03	1.235665E-16	8.063757E-18
3.650000E+03	1.256567E-16	8.181437E-18
3.660000E+03	1.278088E-16	8.302479E-18
3.670000E+03	1.300108E-16	8.426090E-18
3.680000E+03	1.322643E-16	8.552336E-18
3.690000E+03	1.345705E-16	8.681280E-18
3.700000E+03	1.369307E-16	8.812972E-18
3.710000E+03	1.393603E-16	8.948387E-18
3.720000E+03	1.418471E-16	9.086711E-18
3.730000E+03	1.443924E-16	9.227996E-18
3.740000E+03	1.469976E-16	9.372306E-18
3.750000E+03	1.496794E-16	9.520677E-18
3.760000E+03	1.524246E-16	9.672239E-18
3.770000E+03	1.552347E-16	9.827054E-18
3.780000E+03	1.581115E-16	9.985211E-18
3.790000E+03	1.610564E-16	1.014677E-17
3.800000E+03	1.640873E-16	1.031282E-17
3.810000E+03	1.671739E-16	1.048143E-17
3.820000E+03	1.703504E-16	1.065470E-17
3.830000E+03	1.736025E-16	1.083172E-17
3.840000E+03	1.769320E-16	1.101256E-17
3.850000E+03	1.803579E-16	1.119836E-17
3.860000E+03	1.838480E-16	1.138708E-17
3.870000E+03	1.874390E-16	1.158098E-17
3.880000E+03	1.911155E-16	1.177905E-17
3.890000E+03	1.948795E-16	1.198138E-17
3.900000E+03	1.987331E-16	1.218807E-17
3.910000E+03	2.026783E-16	1.239920E-17
3.920000E+03	2.067365E-16	1.261602E-17
3.930000E+03	2.108715E-16	1.283631E-17
3.940000E+03	2.151245E-16	1.306252E-17
3.950000E+03	2.194782E-16	1.329357E-17
3.960000E+03	2.239349E-16	1.352954E-17
3.970000E+03	2.284969E-16	1.377053E-17
3.980000E+03	2.331664E-16	1.401663E-17
3.990000E+03	2.379456E-16	1.426794E-17
4.000000E+03	2.428588E-16	1.452585E-17
4.010000E+03	2.478645E-16	1.478786E-17
4.020000E+03	2.530094E-16	1.505669E-17
4.030000E+03	2.582506E-16	1.532975E-17
4.040000E+03	2.636361E-16	1.560985E-17
4.050000E+03	2.691454E-16	1.589570E-17
4.060000E+03	2.747561E-16	1.618596E-17
4.070000E+03	2.805182E-16	1.648353E-17
4.080000E+03	2.864098E-16	1.678706E-17
4.090000E+03	2.924321E-16	1.709658E-17
4.100000E+03	2.985868E-16	1.741214E-17
4.110000E+03	3.048745E-16	1.773374E-17
4.120000E+03	3.112961E-16	1.806137E-17
4.130000E+03	3.178516E-16	1.839499E-17
4.140000E+03	3.245405E-16	1.873453E-17
4.150000E+03	3.313614E-16	1.907988E-17
4.160000E+03	3.383123E-16	1.943087E-17
4.170000E+03	3.453899E-16	1.978727E-17
4.180000E+03	3.525895E-16	2.014879E-17
4.190000E+03	3.599050E-16	2.051504E-17
4.200000E+03	3.673284E-16	2.088554E-17
4.210000E+03	3.748495E-16	2.125969E-17
4.220000E+03	3.824556E-16	2.163675E-17
4.230000E+03	3.901309E-16	2.201581E-17
4.240000E+03	3.978567E-16	2.239582E-17
4.250000E+03	4.056104E-16	2.277552E-17
4.260000E+03	4.133320E-16	2.315157E-17
4.270000E+03	4.210575E-16	2.352601E-17
4.280000E+03	4.286842E-16	2.389314E-17
4.290000E+03	4.362413E-16	2.425467E-17
4.300000E+03	4.436156E-16	2.460438E-17
4.310000E+03	4.507941E-16	2.494165E-17
4.320000E+03	4.577627E-16	2.526581E-17
4.330000E+03	4.643959E-16	2.557008E-17
4.340000E+03	4.706386E-16	2.585158E-17
4.350000E+03	4.765112E-16	2.611164E-17
4.360000E+03	4.819262E-16	2.634564E-17
4.370000E+03	4.868005E-16	2.654926E-17
4.380000E+03	4.911759E-16	2.672502E-17
4.390000E+03	4.949616E-16	2.686821E-17
4.400000E+03	4.982075E-16	2.698177E-17
4.410000E+03	5.009523E-16	2.706804E-17
4.420000E+03	5.032154E-16	2.712827E-17
4.430000E+03	5.051430E-16	2.717053E-17
4.440000E+03	5.067319E-16	2.719480E-17
4.450000E+03	5.080958E-16	2.720731E-17
4.460000E+03	5.093083E-16	2.721209E-17
4.470000E+03	5.104389E-16	2.721292E-17
4.480000E+03	5.115128E-16	2.721120E-17
4.490000E+03	5.126245E-16	2.721198E-17
4.500000E+03	5.138602E-16	2.721981E-17
4.510000E+03	5.151429E-16	2.723059E-17
4.520000E+03	5.166159E-16	2.725188E-17
4.530000E+03	5.182213E-16	2.728057E-17
4.540000E+03	5.200058E-16	2.731909E-17
4.550000E+03	5.219687E-16	2.736735E-17
4.560000E+03	5.241003E-16	2.742479E-17
4.570000E+03	5.263449E-16	2.748848E-17
4.580000E+03	5.287166E-16	2.755913E-17
4.590000E+03	5.311859E-16	2.763517E-17
4.600000E+03	5.337187E-16	2.771483E-17
4.610000E+03	5.362399E-16	2.779421E-17
4.620000E+03	5.387503E-16	2.787337E-17
4.630000E+03	5.411737E-16	2.794839E-17
4.640000E+03	5.435521E-16	2.802148E-17
4.650000E+03	5.457755E-16	2.808702E-17
4.660000E+03	5.478158E-16	2.814360E-17
4.670000E+03	5.497281E-16	2.819413E-17
4.680000E+03	5.514178E-16	2.823380E-17
4.690000E+03	5.529133E-16	2.826415E-17
4.700000E+03	5.541708E-16	2.828299E-17
4.710000E+03	5.552296E-16	2.829241E-17
4.720000E+03	5.560943E-16	2.829270E-17
4.730000E+03	5.567719E-16	2.828426E-17
4.740000E+03	5.572340E-16	2.826572E-17
4.750000E+03	5.575317E-16	2.823971E-17
4.760000E+03	5.576420E-16	2.820513E-17
4.770000E+03	5.576228E-16	2.816495E-17
4.780000E+03	5.574967E-16	2.812033E-17
4.790000E+03	5.572899E-16	2.807264E-17
4.800000E+03	5.569938E-16	2.802146E-17
4.810000E+03	5.566405E-16	2.796843E-17
4.820000E+03	5.563411E-16	2.791915E-17
4.830000E+03	5.560549E-16	2.787156E-17
4.840000E+03	5.558186E-16	2.782752E-17
4.850000E+03	5.557447E-16	2.779265E-17
4.860000E+03	5.557933E-16	2.776494E-17
4.870000E+03	5.559995E-16	2.774613E-17
4.880000E+03	5.564331E-16	2.773969E-17
4.890000E+03	5.571242E-16	2.774709E-17
4.900000E+03	5.580613E-16	2.776774E-17
4.910000E+03	5.593040E-16	2.780458E-17
4.920000E+03	5.608692E-16	2.785843E-17
4.930000E+03	5.627309E-16	2.792798E-17
4.940000E+03	5.649318E-16	2.801534E-17
4.950000E+03	5.674707E-16	2.812042E-17
4.960000E+03	5.703019E-16	2.824096E-17
4.970000E+03	5.734479E-16	2.837806E-17
4.980000E+03	5.768489E-16	2.852877E-17
4.990000E+03	5.805147E-16	2.869360E-17
5.000000E+03	5.843733E-16	2.886897E-17
5.010000E+03	5.884631E-16	2.905683E-17
5.020000E+03	5.926259E-16	2.924939E-17
5.030000E+03	5.969337E-16	2.945023E-17
5.040000E+03	6.012631E-16	2.965329E-17
5.050000E+03	6.055681E-16	2.985636E-17
5.060000E+03	6.098840E-16	3.006122E-17
5.070000E+03	6.140496E-16	3.025996E-17
5.080000E+03	6.181455E-16	3.045660E-17
5.090000E+03	6.220556E-16	3.064547E-17
5.100000E+03	6.257874E-16	3.082699E-17
5.110000E+03	6.292701E-16	3.099770E-17
5.120000E+03	6.325165E-16	3.115829E-17
5.130000E+03	6.354596E-16	3.130548E-17
5.140000E+03	6.381563E-16	3.144211E-17
5.150000E+03	6.404583E-16	3.156091E-17
5.160000E+03	6.424641E-16	3.166674E-17
5.170000E+03	6.440655E-16	3.175430E-17
5.180000E+03	6.452358E-16	3.182229E-17
5.190000E+03	6.459896E-16	3.187141E-17
5.200000E+03	6.462992E-16	3.190031E-17
5.210000E+03	6.461373E-16	3.190762E-17
5.220000E+03	6.454356E-16	3.188995E-17
5.230000E+03	6.442102E-16	3.184807E-17
5.240000E+03	6.423967E-16	3.177873E-17
5.250000E+03	6.400156E-16	3.168291E-17
5.260000E+03	6.370094E-16	3.155769E-17
5.270000E+03	6.334466E-16	3.140638E-17
5.280000E+03	6.291985E-16	3.122252E-17
5.290000E+03	6.243836E-16	3.101188E-17
5.300000E+03	6.189257E-16	3.077057E-17
5.310000E+03	6.128748E-16	3.050094E-17
5.320000E+03	6.062085E-16	3.020175E-17
5.330000E+03	5.989891E-16	2.987593E-17
5.340000E+03	5.912458E-16	2.952475E-17
5.350000E+03	5.829774E-16	2.914797E-17
5.360000E+03	5.742636E-16	2.874940E-17
5.370000E+03	5.651515E-16	2.833122E-17
5.380000E+03	5.556581E-16	2.789410E-17
5.390000E+03	5.458757E-16	2.744251E-17
5.400000E+03	5.358293E-16	2.697755E-17
5.410000E+03	5.256475E-16	2.650555E-17
5.420000E+03	5.153249E-16	2.602611E-17
5.430000E+03	5.049240E-16	2.554225E-17
5.440000E+03	4.945364E-16	2.505851E-17
5.450000E+03	4.842175E-16	2.457761E-17
5.460000E+03	4.740183E-16	2.410206E-17
5.470000E+03	4.639552E-16	2.363265E-17
5.480000E+03	4.540964E-16	2.317281E-17
5.490000E+03	4.444426E-16	2.272255E-17
5.500000E+03	4.350661E-16	2.228555E-17
5.510000E+03	4.259159E-16	2.185920E-17
5.520000E+03	4.169881E-16	2.144330E-17
5.530000E+03	4.082991E-16	2.103868E-17
5.540000E+03	3.998353E-16	2.064464E-17
5.550000E+03	3.915819E-16	2.026044E-17
5.560000E+03	3.835012E-16	1.988412E-17
5.570000E+03	3.756283E-16	1.951750E-17
5.580000E+03	3.678819E-16	1.915637E-17
5.590000E+03	3.603237E-16	1.880392E-17
5.600000E+03	3.529023E-16	1.845749E-17
5.610000E+03	3.456376E-16	1.811811E-17
5.620000E+03	3.385086E-16	1.778468E-17
5.630000E+03	3.315607E-16	1.745960E-17
5.640000E+03	3.247575E-16	1.714097E-17
5.650000E+03	3.181275E-16	1.683031E-17
5.660000E+03	3.116606E-16	1.652709E-17
5.670000E+03	3.053874E-16	1.623299E-17
5.680000E+03	2.993196E-16	1.594864E-17
5.690000E+03	2.934688E-16	1.567471E-17
5.700000E+03	2.878293E-16	1.541096E-17
5.710000E+03	2.824312E-16	1.515904E-17
5.720000E+03	2.772854E-16	1.491961E-17
5.730000E+03	2.724020E-16	1.469328E-17
5.740000E+03	2.677734E-16	1.447973E-17
5.750000E+03	2.634247E-16	1.428039E-17
5.760000E+03	2.593623E-16	1.409569E-17
5.770000E+03	2.555913E-16	1.392603E-17
5.780000E+03	2.520999E-16	1.377084E-17
5.790000E+03	2.489222E-16	1.363210E-17
5.800000E+03	2.460129E-16	1.350744E-17
5.810000E+03	2.434188E-16	1.339952E-17
5.820000E+03	2.411232E-16	1.330754E-17
5.830000E+03	2.391098E-16	1.323073E-17
5.840000E+03	2.373913E-16	1.316988E-17
5.850000E+03	2.359646E-16	1.312495E-17
5.860000E+03	2.348117E-16	1.309506E-17
5.870000E+03	2.339586E-16	1.308175E-17
5.880000E+03	2.333724E-16	1.308332E-17
5.890000E+03	2.330644E-16	1.310050E-17
5.900000E+03	2.330317E-16	1.313325E-17
5.910000E+03	2.332570E-16	1.318071E-17
5.920000E+03	2.337530E-16	1.324371E-17
5.930000E+03	2.345329E-16	1.332311E-17
5.940000E+03	2.355674E-16	1.341737E-17
5.950000E+03	2.368568E-16	1.352662E-17
5.960000E+03	2.384325E-16	1.365275E-17
5.970000E+03	2.402674E-16	1.379436E-17
5.980000E+03	2.423958E-16	1.395352E-17
5.990000E+03	2.447929E-16	1.412893E-17
6.000000E+03	2.474804E-16	1.432198E-17
6.010000E+03	2.504508E-16	1.453235E-17
6.020000E+03	2.537445E-16	1.476253E-17
6.030000E+03	2.573406E-16	1.501144E-17
6.040000E+03	2.612667E-16	1.528084E-17
6.050000E+03	2.655357E-16	1.557162E-17
6.060000E+03	2.701617E-16	1.588479E-17
6.070000E+03	2.751594E-16	1.622136E-17
6.080000E+03	2.805446E-16	1.658245E-17
6.090000E+03	2.863151E-16	1.696810E-17
6.100000E+03	2.925042E-16	1.738046E-17
6.110000E+03	2.991462E-16	1.782178E-17
6.120000E+03	3.062193E-16	1.829096E-17
6.130000E+03	3.137556E-16	1.879012E-17
6.140000E+03	3.217475E-16	1.931903E-17
6.150000E+03	3.302444E-16	1.988086E-17
6.160000E+03	3.392129E-16	2.047383E-17
6.170000E+03	3.486980E-16	2.110088E-17
6.180000E+03	3.586556E-16	2.175958E-17
6.190000E+03	3.691008E-16	2.245106E-17
6.200000E+03	3.800213E-16	2.317479E-17
6.210000E+03	3.913982E-16	2.392985E-17
6.220000E+03	4.032054E-16	2.471482E-17
6.230000E+03	4.153820E-16	2.552616E-17
6.240000E+03	4.279364E-16	2.636457E-17
6.250000E+03	4.407635E-16	2.722372E-17
6.260000E+03	4.538568E-16	2.810332E-17
6.270000E+03	4.670902E-16	2.899566E-17
6.280000E+03	4.804135E-16	2.989767E-17
6.290000E+03	4.937416E-16	3.080408E-17
6.300000E+03	5.069831E-16	3.170915E-17
6.310000E+03	5.200423E-16	3.260685E-17
6.320000E+03	5.327873E-16	3.348877E-17
6.330000E+03	5.451850E-16	3.435268E-17
6.340000E+03	5.571045E-16	3.519013E-17
6.350000E+03	5.684149E-16	3.599260E-17
6.360000E+03	5.790975E-16	3.675860E-17
6.370000E+03	5.889969E-16	3.747794E-17
6.380000E+03	5.980749E-16	3.814781E-17
6.390000E+03	6.062668E-16	3.876367E-17
6.400000E+03	6.135190E-16	3.932168E-17
6.410000E+03	6.197892E-16	3.981866E-17
6.420000E+03	6.250466E-16	4.025219E-17
6.430000E+03	6.292726E-16	4.062056E-17
6.440000E+03	6.324598E-16	4.092282E-17
6.450000E+03	6.346114E-16	4.115870E-17
6.460000E+03	6.357410E-16	4.132860E-17
6.470000E+03	6.358312E-16	4.143092E-17
6.480000E+03	6.349937E-16	4.147246E-17
6.490000E+03	6.331859E-16	4.145002E-17
6.500000E+03	6.305329E-16	4.137136E-17
6.510000E+03	6.270033E-16	4.123403E-17
6.520000E+03	6.227301E-16	4.104640E-17
6.530000E+03	6.176895E-16	4.080657E-17
6.540000E+03	6.119793E-16	4.052066E-17
6.550000E+03	6.056583E-16	4.019229E-17
6.560000E+03	5.988238E-16	3.982765E-17
6.570000E+03	5.914577E-16	3.942530E-17
6.580000E+03	5.836563E-16	3.899147E-17
6.590000E+03	5.754760E-16	3.852972E-17
6.600000E+03	5.669712E-16	3.804357E-17
6.610000E+03	5.581943E-16	3.753637E-17
6.620000E+03	5.491950E-16	3.701139E-17
6.630000E+03	5.400207E-16	3.647173E-17
6.640000E+03	5.307160E-16	3.592034E-17
6.650000E+03	5.212886E-16	3.535770E-17
6.660000E+03	5.118453E-16	3.479102E-17
6.670000E+03	5.023877E-16	3.422041E-17
6.680000E+03	4.929488E-16	3.364814E-17
6.690000E+03	4.835279E-16	3.307417E-17
6.700000E+03	4.742150E-16	3.250469E-17
6.710000E+03	4.650036E-16	3.193931E-17
6.720000E+03	4.558864E-16	3.137759E-17
6.730000E+03	4.469430E-16	3.082506E-17
6.740000E+03	4.381327E-16	3.027899E-17
6.750000E+03	4.295283E-16	2.974451E-17
6.760000E+03	4.210873E-16	2.921874E-17
6.770000E+03	4.128764E-16	2.870642E-17
6.780000E+03	4.048516E-16	2.820457E-17
6.790000E+03	3.970741E-16	2.771757E-17
6.800000E+03	3.894988E-16	2.724237E-17
6.810000E+03	3.821574E-16	2.678128E-17
6.820000E+03	3.750782E-16	2.633641E-17
6.830000E+03	3.682152E-16	2.590462E-17
6.840000E+03	3.615948E-16	2.548789E-17
6.850000E+03	3.552413E-16	2.508802E-17
6.860000E+03	3.491076E-16	2.470182E-17
6.870000E+03	3.432166E-16	2.433100E-17
6.880000E+03	3.375665E-16	2.397553E-17
6.890000E+03	3.321550E-16	2.363535E-17
6.900000E+03	3.270002E-16	2.331187E-17
6.910000E+03	3.220557E-16	2.300188E-17
6.920000E+03	3.173390E-16	2.270672E-17
6.930000E+03	3.128455E-16	2.242615E-17
6.940000E+03	3.085704E-16	2.215992E-17
6.950000E+03	3.045081E-16	2.190774E-17
6.960000E+03	3.006532E-16	2.166929E-17
6.970000E+03	2.970000E-16	2.144425E-17
6.980000E+03	2.935422E-16	2.123225E-17
6.990000E+03	2.902547E-16	2.103154E-17
7.000000E+03	2.871696E-16	2.084454E-17
7.010000E+03	2.842612E-16	2.066945E-17
7.020000E+03	2.815231E-16	2.050588E-17
7.030000E+03	2.789491E-16	2.035344E-17
7.040000E+03	2.765144E-16	2.021039E-17
7.050000E+03	2.742493E-16	2.007901E-17
7.060000E+03	2.721292E-16	1.995755E-17
7.070000E+03	2.701300E-16	1.984431E-17
7.080000E+03	2.682817E-16	1.974153E-17
7.090000E+03	2.665423E-16	1.964619E-17
7.100000E+03	2.649416E-16	1.956052E-17
7.110000E+03	2.634383E-16	1.948152E-17
7.120000E+03	2.620619E-16	1.941142E-17
7.130000E+03	2.607718E-16	1.934725E-17
7.140000E+03	2.595798E-16	1.928992E-17
7.150000E+03	2.584805E-16	1.923908E-17
7.160000E+03	2.574856E-16	1.919562E-17
7.170000E+03	2.565553E-16	1.915662E-17
7.180000E+03	2.557013E-16	1.912297E-17
7.190000E+03	2.549186E-16	1.909432E-17
7.200000E+03	2.542014E-16	1.907027E-17
7.210000E+03	2.535446E-16	1.905047E-17
7.220000E+03	2.529428E-16	1.903452E-17
7.230000E+03	2.523736E-16	1.902075E-17
7.240000E+03	2.518656E-16	1.901135E-17
7.250000E+03	2.513962E-16	1.900461E-17
7.260000E+03	2.509431E-16	1.899888E-17
7.270000E+03	2.505343E-16	1.899627E-17
7.280000E+03	2.501305E-16	1.899383E-17
7.290000E+03	2.497596E-16	1.899368E-17
7.300000E+03	2.493822E-16	1.899281E-17
7.310000E+03	2.490090E-16	1.899206E-17
7.320000E+03	2.486342E-16	1.899097E-17
7.330000E+03	2.482518E-16	1.898910E-17
7.340000E+03	2.478556E-16	1.898597E-17
7.350000E+03	2.474396E-16	1.898111E-17
7.360000E+03	2.469976E-16	1.897404E-17
7.370000E+03	2.465237E-16	1.896430E-17
7.380000E+03	2.459950E-16	1.895011E-17
7.390000E+03	2.454393E-16	1.893361E-17
7.400000E+03	2.448172E-16	1.891174E-17
7.410000E+03	2.441568E-16	1.888665E-17
7.420000E+03	2.434194E-16	1.885535E-17
7.430000E+03	2.426166E-16	1.881871E-17
7.440000E+03	2.417443E-16	1.877638E-17
7.450000E+03	2.407984E-16	1.872803E-17
7.460000E+03	2.397753E-16	1.867336E-17
7.470000E+03	2.386724E-16	1.861214E-17
7.480000E+03	2.374875E-16	1.854418E-17
7.490000E+03	2.362031E-16	1.846809E-17
7.500000E+03	2.348512E-16	1.838633E-17
7.510000E+03	2.333993E-16	1.829636E-17
7.520000E+03	2.318648E-16	1.819951E-17
7.530000E+03	2.302492E-16	1.809586E-17
7.540000E+03	2.285549E-16	1.798560E-17
7.550000E+03	2.267849E-16	1.786893E-17
7.560000E+03	2.249427E-16	1.774610E-17
7.570000E+03	2.230171E-16	1.761623E-17
7.580000E+03	2.210437E-16	1.748209E-17
7.590000E+03	2.189966E-16	1.734163E-17
7.600000E+03	2.169114E-16	1.719764E-17
7.610000E+03	2.147634E-16	1.704817E-17
7.620000E+03	2.125731E-16	1.689483E-17
7.630000E+03	2.103314E-16	1.673687E-17
7.640000E+03	2.080732E-16	1.657708E-17
7.650000E+03	2.057891E-16	1.641469E-17
7.660000E+03	2.034698E-16	1.624897E-17
7.670000E+03	2.011351E-16	1.608149E-17
7.680000E+03	1.988036E-16	1.591374E-17
7.690000E+03	1.964519E-16	1.574383E-17
7.700000E+03	1.940848E-16	1.557217E-17
7.710000E+03	1.917337E-16	1.540126E-17
7.720000E+03	1.893885E-16	1.523031E-17
7.730000E+03	1.870398E-16	1.505857E-17
7.740000E+03	1.847172E-16	1.488841E-17
7.750000E+03	1.823975E-16	1.471799E-17
7.760000E+03	1.800966E-16	1.454858E-17
