#wls	flux	fluxerr
1.600000E+03	3.509334E-17	3.813971E-18
1.640000E+03	3.521381E-17	3.815998E-18
1.680000E+03	3.533892E-17	3.818166E-18
1.720000E+03	3.548139E-17	3.821829E-18
1.760000E+03	3.562953E-17	3.825705E-18
1.800000E+03	3.579007E-17	3.830500E-18
1.840000E+03	3.596979E-17	3.836913E-18
1.880000E+03	3.615713E-17	3.843685E-18
1.920000E+03	3.635900E-17	3.851528E-18
1.960000E+03	3.657628E-17	3.860506E-18
2.000000E+03	3.681611E-17	3.871342E-18
2.040000E+03	3.706712E-17	3.882803E-18
2.080000E+03	3.734289E-17	3.896280E-18
2.120000E+03	3.763846E-17	3.911212E-18
2.160000E+03	3.795520E-17	3.927701E-18
2.200000E+03	3.829460E-17	3.945857E-18
2.240000E+03	3.866469E-17	3.966455E-18
2.280000E+03	3.906731E-17	3.989626E-18
2.320000E+03	3.949183E-17	4.014223E-18
2.360000E+03	3.995961E-17	4.042357E-18
2.400000E+03	4.046037E-17	4.072908E-18
2.440000E+03	4.099680E-17	4.106073E-18
2.480000E+03	4.157842E-17	4.142722E-18
2.520000E+03	4.220865E-17	4.183097E-18
2.560000E+03	4.288456E-17	4.226807E-18
2.600000E+03	4.362365E-17	4.275460E-18
2.640000E+03	4.441709E-17	4.328061E-18
2.680000E+03	4.527667E-17	4.385625E-18
2.720000E+03	4.620803E-17	4.448545E-18
2.760000E+03	4.721746E-17	4.517256E-18
2.800000E+03	4.831191E-17	4.592237E-18
2.840000E+03	4.949177E-17	4.673324E-18
2.880000E+03	5.078756E-17	4.763171E-18
2.920000E+03	5.218688E-17	4.860350E-18
2.960000E+03	5.370763E-17	4.966259E-18
3.000000E+03	5.536947E-17	5.082402E-18
3.010000E+03	5.580085E-17	5.112434E-18
3.020000E+03	5.624852E-17	5.143766E-18
3.030000E+03	5.670481E-17	5.175684E-18
3.040000E+03	5.716991E-17	5.208203E-18
3.050000E+03	5.764405E-17	5.241337E-18
3.060000E+03	5.813562E-17	5.275842E-18
3.070000E+03	5.862858E-17	5.310254E-18
3.080000E+03	5.913954E-17	5.346073E-18
3.090000E+03	5.966058E-17	5.382576E-18
3.100000E+03	6.019197E-17	5.419777E-18
3.110000E+03	6.073394E-17	5.457692E-18
3.120000E+03	6.128678E-17	5.496341E-18
3.130000E+03	6.185929E-17	5.536504E-18
3.140000E+03	6.243474E-17	5.576673E-18
3.150000E+03	6.303054E-17	5.618399E-18
3.160000E+03	6.363848E-17	5.660938E-18
3.170000E+03	6.425884E-17	5.704307E-18
3.180000E+03	6.489195E-17	5.748528E-18
3.190000E+03	6.553811E-17	5.793620E-18
3.200000E+03	6.619768E-17	5.839603E-18
3.210000E+03	6.688003E-17	5.887295E-18
3.220000E+03	6.756749E-17	5.935131E-18
3.230000E+03	6.827859E-17	5.984727E-18
3.240000E+03	6.900464E-17	6.035312E-18
3.250000E+03	6.974602E-17	6.086908E-18
3.260000E+03	7.050313E-17	6.139538E-18
3.270000E+03	7.128588E-17	6.194054E-18
3.280000E+03	7.207574E-17	6.248834E-18
3.290000E+03	7.289222E-17	6.305559E-18
3.300000E+03	7.372626E-17	6.363430E-18
3.310000E+03	7.457833E-17	6.422476E-18
3.320000E+03	7.544885E-17	6.482721E-18
3.330000E+03	7.633832E-17	6.544196E-18
3.340000E+03	7.724723E-17	6.606928E-18
3.350000E+03	7.818623E-17	6.671815E-18
3.360000E+03	7.913560E-17	6.737158E-18
3.370000E+03	8.011627E-17	6.804726E-18
3.380000E+03	8.111864E-17	6.873687E-18
3.390000E+03	8.214325E-17	6.944069E-18
3.400000E+03	8.319067E-17	7.015908E-18
3.410000E+03	8.426147E-17	7.089235E-18
3.420000E+03	8.535627E-17	7.164086E-18
3.430000E+03	8.648665E-17	7.241415E-18
3.440000E+03	8.764248E-17	7.320352E-18
3.450000E+03	8.881315E-17	7.399995E-18
3.460000E+03	9.002169E-17	7.482249E-18
3.470000E+03	9.125765E-17	7.566220E-18
3.480000E+03	9.252172E-17	7.651949E-18
3.490000E+03	9.382634E-17	7.740441E-18
3.500000E+03	9.514890E-17	7.829809E-18
3.510000E+03	9.651372E-17	7.922037E-18
3.520000E+03	9.789772E-17	8.015206E-18
3.530000E+03	9.932580E-17	8.111336E-18
3.540000E+03	1.007867E-16	8.209484E-18
3.550000E+03	1.022814E-16	8.309694E-18
3.560000E+03	1.038105E-16	8.412010E-18
3.570000E+03	1.053750E-16	8.516476E-18
3.580000E+03	1.069887E-16	8.624188E-18
3.590000E+03	1.086266E-16	8.733100E-18
3.600000E+03	1.103159E-16	8.845370E-18
3.610000E+03	1.120309E-16	8.958912E-18
3.620000E+03	1.137994E-16	9.075927E-18
3.630000E+03	1.156089E-16	9.195390E-18
3.640000E+03	1.174605E-16	9.317351E-18
3.650000E+03	1.193552E-16	9.441859E-18
3.660000E+03	1.212938E-16	9.568959E-18
3.670000E+03	1.232921E-16	9.699853E-18
3.680000E+03	1.253220E-16	9.832301E-18
3.690000E+03	1.274139E-16	9.968662E-18
3.700000E+03	1.295392E-16	1.010665E-17
3.710000E+03	1.317290E-16	1.024868E-17
3.720000E+03	1.339696E-16	1.039363E-17
3.730000E+03	1.362617E-16	1.054154E-17
3.740000E+03	1.386067E-16	1.069245E-17
3.750000E+03	1.410054E-16	1.084643E-17
3.760000E+03	1.434592E-16	1.100350E-17
3.770000E+03	1.459689E-16	1.116373E-17
3.780000E+03	1.485529E-16	1.132845E-17
3.790000E+03	1.511783E-16	1.149514E-17
3.800000E+03	1.538630E-16	1.166511E-17
3.810000E+03	1.566257E-16	1.183974E-17
3.820000E+03	1.594323E-16	1.201641E-17
3.830000E+03	1.623199E-16	1.219786E-17
3.840000E+03	1.652714E-16	1.238279E-17
3.850000E+03	1.682879E-16	1.257121E-17
3.860000E+03	1.713704E-16	1.276317E-17
3.870000E+03	1.745201E-16	1.295870E-17
3.880000E+03	1.777377E-16	1.315783E-17
3.890000E+03	1.810241E-16	1.336056E-17
3.900000E+03	1.843802E-16	1.356693E-17
3.910000E+03	1.878069E-16	1.377696E-17
3.920000E+03	1.913048E-16	1.399064E-17
3.930000E+03	1.948748E-16	1.420799E-17
3.940000E+03	1.985174E-16	1.442901E-17
3.950000E+03	2.022554E-16	1.465531E-17
3.960000E+03	2.060454E-16	1.488369E-17
3.970000E+03	2.099097E-16	1.511571E-17
3.980000E+03	2.138716E-16	1.535303E-17
3.990000E+03	2.178858E-16	1.559232E-17
4.000000E+03	2.219989E-16	1.583689E-17
4.010000E+03	2.261636E-16	1.608332E-17
4.020000E+03	2.304283E-16	1.633500E-17
4.030000E+03	2.347437E-16	1.658840E-17
4.040000E+03	2.391595E-16	1.684699E-17
4.050000E+03	2.436249E-16	1.710715E-17
4.060000E+03	2.481909E-16	1.737241E-17
4.070000E+03	2.528047E-16	1.763905E-17
4.080000E+03	2.575187E-16	1.791069E-17
4.090000E+03	2.622786E-16	1.818350E-17
4.100000E+03	2.671379E-16	1.846117E-17
4.110000E+03	2.720407E-16	1.873980E-17
4.120000E+03	2.770420E-16	1.902315E-17
4.130000E+03	2.820841E-16	1.930720E-17
4.140000E+03	2.872237E-16	1.959584E-17
4.150000E+03	2.924010E-16	1.988495E-17
4.160000E+03	2.976748E-16	2.017849E-17
4.170000E+03	3.029833E-16	2.047225E-17
4.180000E+03	3.083874E-16	2.077035E-17
4.190000E+03	3.138233E-16	2.106844E-17
4.200000E+03	3.193214E-16	2.136856E-17
4.210000E+03	3.248804E-16	2.167063E-17
4.220000E+03	3.305322E-16	2.197673E-17
4.230000E+03	3.362085E-16	2.228231E-17
4.240000E+03	3.419385E-16	2.258932E-17
4.250000E+03	3.477166E-16	2.289737E-17
4.260000E+03	3.535335E-16	2.320586E-17
4.270000E+03	3.593753E-16	2.351389E-17
4.280000E+03	3.652214E-16	2.382013E-17
4.290000E+03	3.710439E-16	2.412279E-17
4.300000E+03	3.767682E-16	2.441709E-17
4.310000E+03	3.824212E-16	2.470488E-17
4.320000E+03	3.879084E-16	2.498014E-17
4.330000E+03	3.931235E-16	2.523619E-17
4.340000E+03	3.980659E-16	2.547319E-17
4.350000E+03	4.025742E-16	2.568106E-17
4.360000E+03	4.065996E-16	2.585698E-17
4.370000E+03	4.100557E-16	2.599581E-17
4.380000E+03	4.128621E-16	2.609284E-17
4.390000E+03	4.149525E-16	2.614430E-17
4.400000E+03	4.163630E-16	2.615292E-17
4.410000E+03	4.172288E-16	2.612758E-17
4.420000E+03	4.176998E-16	2.607797E-17
4.430000E+03	4.178927E-16	2.601161E-17
4.440000E+03	4.180442E-16	2.594337E-17
4.450000E+03	4.182263E-16	2.587775E-17
4.460000E+03	4.186204E-16	2.582594E-17
4.470000E+03	4.193540E-16	2.579571E-17
4.480000E+03	4.205383E-16	2.579371E-17
4.490000E+03	4.222660E-16	2.582541E-17
4.500000E+03	4.246114E-16	2.589506E-17
4.510000E+03	4.276289E-16	2.600568E-17
4.520000E+03	4.313125E-16	2.615657E-17
4.530000E+03	4.357149E-16	2.635061E-17
4.540000E+03	4.408673E-16	2.658937E-17
4.550000E+03	4.466552E-16	2.686561E-17
4.560000E+03	4.530205E-16	2.717558E-17
4.570000E+03	4.599665E-16	2.751927E-17
4.580000E+03	4.673504E-16	2.788790E-17
4.590000E+03	4.750088E-16	2.827162E-17
4.600000E+03	4.828950E-16	2.866757E-17
4.610000E+03	4.907786E-16	2.906209E-17
4.620000E+03	4.985587E-16	2.944926E-17
4.630000E+03	5.060945E-16	2.982090E-17
4.640000E+03	5.132069E-16	3.016665E-17
4.650000E+03	5.198704E-16	3.048526E-17
4.660000E+03	5.258892E-16	3.076552E-17
4.670000E+03	5.312271E-16	3.100563E-17
4.680000E+03	5.358209E-16	3.120224E-17
4.690000E+03	5.396284E-16	3.135325E-17
4.700000E+03	5.426276E-16	3.145772E-17
4.710000E+03	5.447684E-16	3.151312E-17
4.720000E+03	5.461180E-16	3.152366E-17
4.730000E+03	5.467618E-16	3.149458E-17
4.740000E+03	5.466532E-16	3.142349E-17
4.750000E+03	5.458581E-16	3.131445E-17
4.760000E+03	5.445494E-16	3.117760E-17
4.770000E+03	5.427116E-16	3.101224E-17
4.780000E+03	5.404775E-16	3.082611E-17
4.790000E+03	5.379298E-16	3.062407E-17
4.800000E+03	5.351481E-16	3.041072E-17
4.810000E+03	5.322071E-16	3.019036E-17
4.820000E+03	5.291313E-16	2.996443E-17
4.830000E+03	5.260831E-16	2.974214E-17
4.840000E+03	5.230378E-16	2.952207E-17
4.850000E+03	5.200662E-16	2.930822E-17
4.860000E+03	5.173320E-16	2.910977E-17
4.870000E+03	5.148638E-16	2.892824E-17
4.880000E+03	5.126940E-16	2.876541E-17
4.890000E+03	5.109461E-16	2.862810E-17
4.900000E+03	5.096993E-16	2.852066E-17
4.910000E+03	5.089877E-16	2.844490E-17
4.920000E+03	5.089758E-16	2.840988E-17
4.930000E+03	5.096459E-16	2.841452E-17
4.940000E+03	5.111031E-16	2.846455E-17
4.950000E+03	5.133927E-16	2.856239E-17
4.960000E+03	5.164918E-16	2.870666E-17
4.970000E+03	5.204807E-16	2.890174E-17
4.980000E+03	5.252235E-16	2.914002E-17
4.990000E+03	5.306771E-16	2.941907E-17
5.000000E+03	5.367123E-16	2.973172E-17
5.010000E+03	5.431180E-16	3.006630E-17
5.020000E+03	5.497966E-16	3.041746E-17
5.030000E+03	5.564541E-16	3.076900E-17
5.040000E+03	5.629432E-16	3.111290E-17
5.050000E+03	5.690945E-16	3.143990E-17
5.060000E+03	5.747284E-16	3.174019E-17
5.070000E+03	5.798604E-16	3.201476E-17
5.080000E+03	5.843629E-16	3.225667E-17
5.090000E+03	5.883048E-16	3.246982E-17
5.100000E+03	5.916959E-16	3.265483E-17
5.110000E+03	5.947218E-16	3.282202E-17
5.120000E+03	5.973783E-16	3.297122E-17
5.130000E+03	5.998043E-16	3.311016E-17
5.140000E+03	6.020683E-16	3.324266E-17
5.150000E+03	6.042086E-16	3.337089E-17
5.160000E+03	6.061788E-16	3.349234E-17
5.170000E+03	6.080022E-16	3.360832E-17
5.180000E+03	6.096253E-16	3.371593E-17
5.190000E+03	6.109775E-16	3.381128E-17
5.200000E+03	6.119801E-16	3.389003E-17
5.210000E+03	6.125033E-16	3.394498E-17
5.220000E+03	6.125767E-16	3.397775E-17
5.230000E+03	6.120333E-16	3.397902E-17
5.240000E+03	6.108180E-16	3.394567E-17
5.250000E+03	6.089866E-16	3.388067E-17
5.260000E+03	6.063993E-16	3.377615E-17
5.270000E+03	6.030764E-16	3.363306E-17
5.280000E+03	5.989942E-16	3.344990E-17
5.290000E+03	5.941356E-16	3.322551E-17
5.300000E+03	5.884899E-16	3.295907E-17
5.310000E+03	5.820045E-16	3.264731E-17
5.320000E+03	5.747311E-16	3.229281E-17
5.330000E+03	5.666805E-16	3.189581E-17
5.340000E+03	5.578735E-16	3.145710E-17
5.350000E+03	5.483442E-16	3.097821E-17
5.360000E+03	5.380957E-16	3.045893E-17
5.370000E+03	5.272379E-16	2.990507E-17
5.380000E+03	5.158490E-16	2.932069E-17
5.390000E+03	5.040201E-16	2.871061E-17
5.400000E+03	4.918521E-16	2.808025E-17
5.410000E+03	4.794136E-16	2.743321E-17
5.420000E+03	4.668973E-16	2.678025E-17
5.430000E+03	4.543401E-16	2.612328E-17
5.440000E+03	4.418614E-16	2.546899E-17
5.450000E+03	4.296500E-16	2.482815E-17
5.460000E+03	4.177799E-16	2.420501E-17
5.470000E+03	4.063212E-16	2.360362E-17
5.480000E+03	3.954006E-16	2.303140E-17
5.490000E+03	3.850932E-16	2.249285E-17
5.500000E+03	3.754331E-16	2.199013E-17
5.510000E+03	3.663446E-16	2.151899E-17
5.520000E+03	3.578199E-16	2.107915E-17
5.530000E+03	3.497217E-16	2.066267E-17
5.540000E+03	3.419955E-16	2.026645E-17
5.550000E+03	3.345558E-16	1.988549E-17
5.560000E+03	3.273209E-16	1.951501E-17
5.570000E+03	3.201923E-16	1.914913E-17
5.580000E+03	3.131637E-16	1.878745E-17
5.590000E+03	3.061406E-16	1.842427E-17
5.600000E+03	2.991233E-16	1.805952E-17
5.610000E+03	2.921026E-16	1.769258E-17
5.620000E+03	2.850602E-16	1.732228E-17
5.630000E+03	2.780600E-16	1.695240E-17
5.640000E+03	2.710808E-16	1.658162E-17
5.650000E+03	2.641976E-16	1.621449E-17
5.660000E+03	2.573991E-16	1.585031E-17
5.670000E+03	2.507403E-16	1.549248E-17
5.680000E+03	2.442335E-16	1.514177E-17
5.690000E+03	2.379492E-16	1.480263E-17
5.700000E+03	2.318759E-16	1.447442E-17
5.710000E+03	2.260774E-16	1.416122E-17
5.720000E+03	2.205389E-16	1.386225E-17
5.730000E+03	2.152994E-16	1.358007E-17
5.740000E+03	2.103758E-16	1.331594E-17
5.750000E+03	2.057654E-16	1.306985E-17
5.760000E+03	2.015132E-16	1.284483E-17
5.770000E+03	1.975933E-16	1.263945E-17
5.780000E+03	1.940422E-16	1.245624E-17
5.790000E+03	1.908286E-16	1.229341E-17
5.800000E+03	1.879657E-16	1.215203E-17
5.810000E+03	1.854472E-16	1.203190E-17
5.820000E+03	1.832498E-16	1.193173E-17
5.830000E+03	1.813922E-16	1.185294E-17
5.840000E+03	1.798467E-16	1.179395E-17
5.850000E+03	1.785851E-16	1.175309E-17
5.860000E+03	1.776075E-16	1.173057E-17
5.870000E+03	1.768994E-16	1.172560E-17
5.880000E+03	1.764464E-16	1.173742E-17
5.890000E+03	1.762348E-16	1.176528E-17
5.900000E+03	1.762517E-16	1.180848E-17
5.910000E+03	1.764713E-16	1.186544E-17
5.920000E+03	1.769122E-16	1.193755E-17
5.930000E+03	1.775369E-16	1.202244E-17
5.940000E+03	1.783531E-16	1.212074E-17
5.950000E+03	1.793558E-16	1.223225E-17
5.960000E+03	1.805418E-16	1.235688E-17
5.970000E+03	1.819104E-16	1.249471E-17
5.980000E+03	1.834628E-16	1.264595E-17
5.990000E+03	1.852026E-16	1.281098E-17
6.000000E+03	1.871205E-16	1.298929E-17
6.010000E+03	1.892555E-16	1.318371E-17
6.020000E+03	1.915882E-16	1.339304E-17
6.030000E+03	1.941635E-16	1.362058E-17
6.040000E+03	1.969667E-16	1.386546E-17
6.050000E+03	2.000327E-16	1.413031E-17
6.060000E+03	2.033835E-16	1.441689E-17
6.070000E+03	2.070440E-16	1.472715E-17
6.080000E+03	2.110239E-16	1.506203E-17
6.090000E+03	2.153871E-16	1.542632E-17
6.100000E+03	2.201484E-16	1.582136E-17
6.110000E+03	2.253232E-16	1.624856E-17
6.120000E+03	2.309833E-16	1.671340E-17
6.130000E+03	2.371283E-16	1.721621E-17
6.140000E+03	2.438144E-16	1.776143E-17
6.150000E+03	2.510795E-16	1.835222E-17
6.160000E+03	2.589617E-16	1.899178E-17
6.170000E+03	2.674973E-16	1.968324E-17
6.180000E+03	2.767205E-16	2.042959E-17
6.190000E+03	2.866610E-16	2.123352E-17
6.200000E+03	2.973428E-16	2.209733E-17
6.210000E+03	3.087562E-16	2.302082E-17
6.220000E+03	3.209539E-16	2.400845E-17
6.230000E+03	3.338712E-16	2.505592E-17
6.240000E+03	3.475282E-16	2.616526E-17
6.250000E+03	3.618115E-16	2.732841E-17
6.260000E+03	3.766642E-16	2.854150E-17
6.270000E+03	3.920060E-16	2.979881E-17
6.280000E+03	4.076354E-16	3.108531E-17
6.290000E+03	4.234219E-16	3.239119E-17
6.300000E+03	4.391867E-16	3.370283E-17
6.310000E+03	4.547416E-16	3.500568E-17
6.320000E+03	4.698957E-16	3.628483E-17
6.330000E+03	4.844639E-16	3.752563E-17
6.340000E+03	4.982318E-16	3.871095E-17
6.350000E+03	5.111234E-16	3.983429E-17
6.360000E+03	5.229636E-16	4.088129E-17
6.370000E+03	5.335961E-16	4.183892E-17
6.380000E+03	5.430204E-16	4.270626E-17
6.390000E+03	5.510860E-16	4.347056E-17
6.400000E+03	5.578455E-16	4.413500E-17
6.410000E+03	5.631940E-16	4.469030E-17
6.420000E+03	5.671844E-16	4.513968E-17
6.430000E+03	5.698429E-16	4.548424E-17
6.440000E+03	5.712582E-16	4.573015E-17
6.450000E+03	5.713906E-16	4.587336E-17
6.460000E+03	5.703513E-16	4.592188E-17
6.470000E+03	5.682117E-16	4.588070E-17
6.480000E+03	5.650478E-16	4.575520E-17
6.490000E+03	5.609392E-16	4.555112E-17
6.500000E+03	5.559661E-16	4.527436E-17
6.510000E+03	5.501639E-16	4.492721E-17
6.520000E+03	5.437031E-16	4.452310E-17
6.530000E+03	5.366156E-16	4.406418E-17
6.540000E+03	5.289765E-16	4.355623E-17
6.550000E+03	5.208148E-16	4.300130E-17
6.560000E+03	5.122866E-16	4.241195E-17
6.570000E+03	5.034138E-16	4.178978E-17
6.580000E+03	4.942176E-16	4.113633E-17
6.590000E+03	4.848390E-16	4.046319E-17
6.600000E+03	4.752513E-16	3.976801E-17
6.610000E+03	4.655464E-16	3.905837E-17
6.620000E+03	4.558086E-16	3.834134E-17
6.630000E+03	4.460045E-16	3.761407E-17
6.640000E+03	4.362119E-16	3.688313E-17
6.650000E+03	4.265016E-16	3.615454E-17
6.660000E+03	4.168340E-16	3.542502E-17
6.670000E+03	4.072738E-16	3.470013E-17
6.680000E+03	3.978463E-16	3.398213E-17
6.690000E+03	3.885740E-16	3.327305E-17
6.700000E+03	3.794765E-16	3.257467E-17
6.710000E+03	3.705706E-16	3.188862E-17
6.720000E+03	3.618713E-16	3.121629E-17
6.730000E+03	3.533908E-16	3.055890E-17
6.740000E+03	3.451395E-16	2.991752E-17
6.750000E+03	3.371260E-16	2.929305E-17
6.760000E+03	3.293571E-16	2.868627E-17
6.770000E+03	3.218381E-16	2.809779E-17
6.780000E+03	3.145732E-16	2.752817E-17
6.790000E+03	3.075652E-16	2.697782E-17
6.800000E+03	3.007908E-16	2.644487E-17
6.810000E+03	2.943021E-16	2.593406E-17
6.820000E+03	2.880733E-16	2.544333E-17
6.830000E+03	2.820806E-16	2.497073E-17
6.840000E+03	2.763706E-16	2.452055E-17
6.850000E+03	2.708946E-16	2.408865E-17
6.860000E+03	2.656963E-16	2.367907E-17
6.870000E+03	2.607274E-16	2.328768E-17
6.880000E+03	2.560287E-16	2.291829E-17
6.890000E+03	2.515524E-16	2.256677E-17
6.900000E+03	2.473362E-16	2.223666E-17
6.910000E+03	2.433327E-16	2.192385E-17
6.920000E+03	2.395571E-16	2.162985E-17
6.930000E+03	2.360230E-16	2.135603E-17
6.940000E+03	2.326832E-16	2.109826E-17
6.950000E+03	2.295511E-16	2.085787E-17
6.960000E+03	2.266188E-16	2.063428E-17
6.970000E+03	2.238980E-16	2.042867E-17
6.980000E+03	2.213425E-16	2.023695E-17
6.990000E+03	2.189638E-16	2.006027E-17
7.000000E+03	2.167539E-16	1.989800E-17
7.010000E+03	2.147049E-16	1.974951E-17
7.020000E+03	2.128091E-16	1.961419E-17
7.030000E+03	2.110589E-16	1.949143E-17
7.040000E+03	2.094470E-16	1.938064E-17
7.050000E+03	2.079667E-16	1.928127E-17
7.060000E+03	2.065936E-16	1.919114E-17
7.070000E+03	2.053567E-16	1.911300E-17
7.080000E+03	2.042322E-16	1.904471E-17
7.090000E+03	2.032143E-16	1.898580E-17
7.100000E+03	2.022802E-16	1.893419E-17
7.110000E+03	2.014591E-16	1.889266E-17
7.120000E+03	2.007285E-16	1.885917E-17
7.130000E+03	2.000664E-16	1.883170E-17
7.140000E+03	1.995021E-16	1.881303E-17
7.150000E+03	1.989967E-16	1.879955E-17
7.160000E+03	1.985797E-16	1.879409E-17
7.170000E+03	1.982124E-16	1.879302E-17
7.180000E+03	1.979073E-16	1.879756E-17
7.190000E+03	1.976769E-16	1.880893E-17
7.200000E+03	1.974828E-16	1.882350E-17
7.210000E+03	1.973376E-16	1.884250E-17
7.220000E+03	1.972367E-16	1.886553E-17
7.230000E+03	1.971757E-16	1.889216E-17
7.240000E+03	1.971501E-16	1.892201E-17
7.250000E+03	1.971555E-16	1.895464E-17
7.260000E+03	1.971869E-16	1.898962E-17
7.270000E+03	1.972400E-16	1.902653E-17
7.280000E+03	1.973098E-16	1.906490E-17
7.290000E+03	1.973917E-16	1.910429E-17
7.300000E+03	1.974805E-16	1.914420E-17
7.310000E+03	1.975544E-16	1.918253E-17
7.320000E+03	1.976423E-16	1.922207E-17
7.330000E+03	1.977220E-16	1.926068E-17
7.340000E+03	1.977710E-16	1.929615E-17
7.350000E+03	1.978183E-16	1.933129E-17
7.360000E+03	1.978240E-16	1.936222E-17
7.370000E+03	1.978000E-16	1.939007E-17
7.380000E+03	1.977576E-16	1.941595E-17
7.390000E+03	1.976571E-16	1.943593E-17
7.400000E+03	1.975098E-16	1.945110E-17
7.410000E+03	1.973102E-16	1.946092E-17
7.420000E+03	1.970526E-16	1.946479E-17
7.430000E+03	1.967315E-16	1.946213E-17
7.440000E+03	1.963414E-16	1.945239E-17
7.450000E+03	1.958770E-16	1.943500E-17
7.460000E+03	1.953335E-16	1.940946E-17
7.470000E+03	1.947061E-16	1.937525E-17
7.480000E+03	1.939737E-16	1.933025E-17
7.490000E+03	1.931672E-16	1.927749E-17
7.500000E+03	1.922505E-16	1.921334E-17
7.510000E+03	1.912564E-16	1.914102E-17
7.520000E+03	1.901520E-16	1.905722E-17
7.530000E+03	1.889730E-16	1.896548E-17
7.540000E+03	1.876898E-16	1.886279E-17
7.550000E+03	1.863234E-16	1.875123E-17
7.560000E+03	1.848792E-16	1.863131E-17
7.570000E+03	1.833627E-16	1.850355E-17
7.580000E+03	1.817796E-16	1.836851E-17
7.590000E+03	1.801361E-16	1.822678E-17
7.600000E+03	1.784377E-16	1.807892E-17
7.610000E+03	1.766903E-16	1.792549E-17
7.620000E+03	1.748841E-16	1.776549E-17
7.630000E+03	1.730557E-16	1.760262E-17
7.640000E+03	1.711794E-16	1.743426E-17
7.650000E+03	1.692908E-16	1.726403E-17
7.660000E+03	1.673648E-16	1.708935E-17
7.670000E+03	1.654208E-16	1.691221E-17
7.680000E+03	1.634778E-16	1.673456E-17
7.690000E+03	1.615108E-16	1.655382E-17
7.700000E+03	1.595382E-16	1.637189E-17
7.710000E+03	1.575639E-16	1.618917E-17
7.720000E+03	1.555910E-16	1.600597E-17
7.730000E+03	1.536089E-16	1.582124E-17
7.740000E+03	1.516485E-16	1.563811E-17
7.750000E+03	1.496982E-16	1.545545E-17
7.760000E+03	1.477474E-16	1.527214E-17
