#wls	flux	fluxerr
1.600000E+03	1.762564E-17	1.148508E-18
1.640000E+03	1.768052E-17	1.150416E-18
1.680000E+03	1.773885E-17	1.152497E-18
1.720000E+03	1.780095E-17	1.154768E-18
1.760000E+03	1.787029E-17	1.157452E-18
1.800000E+03	1.794410E-17	1.160368E-18
1.840000E+03	1.802278E-17	1.163537E-18
1.880000E+03	1.810993E-17	1.167190E-18
1.920000E+03	1.820285E-17	1.171149E-18
1.960000E+03	1.830206E-17	1.175443E-18
2.000000E+03	1.841134E-17	1.180310E-18
2.040000E+03	1.852808E-17	1.185581E-18
2.080000E+03	1.865296E-17	1.191292E-18
2.120000E+03	1.878997E-17	1.197694E-18
2.160000E+03	1.893667E-17	1.204626E-18
2.200000E+03	1.909723E-17	1.212346E-18
2.240000E+03	1.926934E-17	1.220701E-18
2.280000E+03	1.945404E-17	1.229750E-18
2.320000E+03	1.965586E-17	1.239771E-18
2.360000E+03	1.987272E-17	1.250625E-18
2.400000E+03	2.010604E-17	1.262390E-18
2.440000E+03	2.036078E-17	1.275369E-18
2.480000E+03	2.063874E-17	1.289662E-18
2.520000E+03	2.093836E-17	1.305158E-18
2.560000E+03	2.126170E-17	1.321971E-18
2.600000E+03	2.161102E-17	1.340230E-18
2.640000E+03	2.199627E-17	1.360531E-18
2.680000E+03	2.240930E-17	1.382352E-18
2.720000E+03	2.286070E-17	1.406327E-18
2.760000E+03	2.335025E-17	1.432418E-18
2.800000E+03	2.388581E-17	1.461082E-18
2.840000E+03	2.447194E-17	1.492570E-18
2.880000E+03	2.510550E-17	1.526657E-18
2.920000E+03	2.580014E-17	1.564140E-18
2.960000E+03	2.656230E-17	1.605370E-18
3.000000E+03	2.739473E-17	1.650467E-18
3.010000E+03	2.761470E-17	1.662395E-18
3.020000E+03	2.783968E-17	1.674596E-18
3.030000E+03	2.806981E-17	1.687081E-18
3.040000E+03	2.830520E-17	1.699854E-18
3.050000E+03	2.854601E-17	1.712925E-18
3.060000E+03	2.879239E-17	1.726302E-18
3.070000E+03	2.904923E-17	1.740275E-18
3.080000E+03	2.930724E-17	1.754289E-18
3.090000E+03	2.957130E-17	1.768633E-18
3.100000E+03	2.984156E-17	1.783317E-18
3.110000E+03	3.012308E-17	1.798642E-18
3.120000E+03	3.040632E-17	1.814036E-18
3.130000E+03	3.069630E-17	1.829798E-18
3.140000E+03	3.099821E-17	1.846236E-18
3.150000E+03	3.130227E-17	1.862767E-18
3.160000E+03	3.161366E-17	1.879697E-18
3.170000E+03	3.193772E-17	1.897344E-18
3.180000E+03	3.226443E-17	1.915110E-18
3.190000E+03	3.260435E-17	1.933621E-18
3.200000E+03	3.294727E-17	1.952269E-18
3.210000E+03	3.330397E-17	1.971693E-18
3.220000E+03	3.366404E-17	1.991274E-18
3.230000E+03	3.403849E-17	2.011663E-18
3.240000E+03	3.441673E-17	2.032231E-18
3.250000E+03	3.480999E-17	2.053640E-18
3.260000E+03	3.521308E-17	2.075583E-18
3.270000E+03	3.562062E-17	2.097741E-18
3.280000E+03	3.604423E-17	2.120796E-18
3.290000E+03	3.647275E-17	2.144090E-18
3.300000E+03	3.691809E-17	2.168321E-18
3.310000E+03	3.737480E-17	2.193168E-18
3.320000E+03	3.784325E-17	2.218648E-18
3.330000E+03	3.831768E-17	2.244424E-18
3.340000E+03	3.881056E-17	2.271224E-18
3.350000E+03	3.931626E-17	2.298715E-18
3.360000E+03	3.983516E-17	2.326918E-18
3.370000E+03	4.036765E-17	2.355853E-18
3.380000E+03	4.090769E-17	2.385166E-18
3.390000E+03	4.146856E-17	2.415628E-18
3.400000E+03	4.204431E-17	2.446891E-18
3.410000E+03	4.263539E-17	2.478977E-18
3.420000E+03	4.324228E-17	2.511913E-18
3.430000E+03	4.386546E-17	2.545722E-18
3.440000E+03	4.450544E-17	2.580433E-18
3.450000E+03	4.516274E-17	2.616071E-18
3.460000E+03	4.583789E-17	2.652666E-18
3.470000E+03	4.653145E-17	2.690246E-18
3.480000E+03	4.724400E-17	2.728841E-18
3.490000E+03	4.797612E-17	2.768482E-18
3.500000E+03	4.872844E-17	2.809202E-18
3.510000E+03	4.950159E-17	2.851033E-18
3.520000E+03	5.029621E-17	2.894009E-18
3.530000E+03	5.111298E-17	2.938166E-18
3.540000E+03	5.195262E-17	2.983540E-18
3.550000E+03	5.281582E-17	3.030169E-18
3.560000E+03	5.370334E-17	3.078090E-18
3.570000E+03	5.462445E-17	3.127831E-18
3.580000E+03	5.556309E-17	3.178467E-18
3.590000E+03	5.652844E-17	3.230520E-18
3.600000E+03	5.752134E-17	3.284034E-18
3.610000E+03	5.854268E-17	3.339054E-18
3.620000E+03	5.959336E-17	3.395628E-18
3.630000E+03	6.068368E-17	3.454335E-18
3.640000E+03	6.179601E-17	3.514169E-18
3.650000E+03	6.294058E-17	3.575704E-18
3.660000E+03	6.411839E-17	3.638993E-18
3.670000E+03	6.533051E-17	3.704091E-18
3.680000E+03	6.658827E-17	3.771634E-18
3.690000E+03	6.787248E-17	3.840529E-18
3.700000E+03	6.919437E-17	3.911405E-18
3.710000E+03	7.055512E-17	3.984324E-18
3.720000E+03	7.196700E-17	4.059971E-18
3.730000E+03	7.340940E-17	4.137175E-18
3.740000E+03	7.489446E-17	4.216616E-18
3.750000E+03	7.642350E-17	4.298360E-18
3.760000E+03	7.800981E-17	4.383147E-18
3.770000E+03	7.963121E-17	4.469723E-18
3.780000E+03	8.130082E-17	4.558817E-18
3.790000E+03	8.303277E-17	4.651214E-18
3.800000E+03	8.480355E-17	4.745587E-18
3.810000E+03	8.662709E-17	4.842709E-18
3.820000E+03	8.850502E-17	4.942661E-18
3.830000E+03	9.045264E-17	5.046291E-18
3.840000E+03	9.244450E-17	5.152166E-18
3.850000E+03	9.449571E-17	5.261123E-18
3.860000E+03	9.662261E-17	5.374059E-18
3.870000E+03	9.879804E-17	5.489455E-18
3.880000E+03	1.010381E-16	5.608192E-18
3.890000E+03	1.033446E-16	5.730371E-18
3.900000E+03	1.057352E-16	5.856951E-18
3.910000E+03	1.081804E-16	5.986284E-18
3.920000E+03	1.106975E-16	6.119326E-18
3.930000E+03	1.133055E-16	6.257110E-18
3.940000E+03	1.159725E-16	6.397862E-18
3.950000E+03	1.187169E-16	6.542593E-18
3.960000E+03	1.215407E-16	6.691394E-18
3.970000E+03	1.244642E-16	6.845375E-18
3.980000E+03	1.274524E-16	7.002594E-18
3.990000E+03	1.305252E-16	7.164138E-18
4.000000E+03	1.336842E-16	7.330081E-18
4.010000E+03	1.369514E-16	7.501610E-18
4.020000E+03	1.402878E-16	7.676583E-18
4.030000E+03	1.437148E-16	7.856151E-18
4.040000E+03	1.472334E-16	8.040370E-18
4.050000E+03	1.508672E-16	8.230501E-18
4.060000E+03	1.545725E-16	8.424155E-18
4.070000E+03	1.583719E-16	8.622545E-18
4.080000E+03	1.622656E-16	8.825674E-18
4.090000E+03	1.662535E-16	9.033530E-18
4.100000E+03	1.703605E-16	9.247445E-18
4.110000E+03	1.745362E-16	9.464667E-18
4.120000E+03	1.788037E-16	9.686446E-18
4.130000E+03	1.831615E-16	9.912690E-18
4.140000E+03	1.876074E-16	1.014327E-17
4.150000E+03	1.921386E-16	1.037801E-17
4.160000E+03	1.967515E-16	1.061673E-17
4.170000E+03	2.014423E-16	1.085920E-17
4.180000E+03	2.062061E-16	1.110516E-17
4.190000E+03	2.110374E-16	1.135429E-17
4.200000E+03	2.159615E-16	1.160797E-17
4.210000E+03	2.209087E-16	1.186242E-17
4.220000E+03	2.259022E-16	1.211891E-17
4.230000E+03	2.309332E-16	1.237695E-17
4.240000E+03	2.359579E-16	1.263421E-17
4.250000E+03	2.410345E-16	1.289380E-17
4.260000E+03	2.461185E-16	1.315334E-17
4.270000E+03	2.511989E-16	1.341226E-17
4.280000E+03	2.562642E-16	1.366993E-17
4.290000E+03	2.613026E-16	1.392576E-17
4.300000E+03	2.663024E-16	1.417912E-17
4.310000E+03	2.712524E-16	1.442943E-17
4.320000E+03	2.761418E-16	1.467614E-17
4.330000E+03	2.809195E-16	1.491653E-17
4.340000E+03	2.856573E-16	1.515446E-17
4.350000E+03	2.903071E-16	1.538738E-17
4.360000E+03	2.948623E-16	1.561496E-17
4.370000E+03	2.992743E-16	1.583466E-17
4.380000E+03	3.036243E-16	1.605079E-17
4.390000E+03	3.078666E-16	1.626095E-17
4.400000E+03	3.119526E-16	1.646261E-17
4.410000E+03	3.159691E-16	1.666038E-17
4.420000E+03	3.198694E-16	1.685180E-17
4.430000E+03	3.236056E-16	1.703438E-17
4.440000E+03	3.272702E-16	1.721302E-17
4.450000E+03	3.307706E-16	1.738286E-17
4.460000E+03	3.342034E-16	1.754902E-17
4.470000E+03	3.374761E-16	1.770665E-17
4.480000E+03	3.406890E-16	1.786104E-17
4.490000E+03	3.437492E-16	1.800733E-17
4.500000E+03	3.467094E-16	1.814833E-17
4.510000E+03	3.496242E-16	1.828689E-17
4.520000E+03	3.523982E-16	1.841805E-17
4.530000E+03	3.550851E-16	1.854463E-17
4.540000E+03	3.577390E-16	1.866948E-17
4.550000E+03	3.602610E-16	1.878743E-17
4.560000E+03	3.627038E-16	1.890126E-17
4.570000E+03	3.650684E-16	1.901104E-17
4.580000E+03	3.673550E-16	1.911680E-17
4.590000E+03	3.696162E-16	1.922127E-17
4.600000E+03	3.717461E-16	1.931896E-17
4.610000E+03	3.737955E-16	1.941253E-17
4.620000E+03	3.757625E-16	1.950190E-17
4.630000E+03	3.776451E-16	1.958696E-17
4.640000E+03	3.794408E-16	1.966762E-17
4.650000E+03	3.811476E-16	1.974377E-17
4.660000E+03	3.827636E-16	1.981534E-17
4.670000E+03	3.842872E-16	1.988224E-17
4.680000E+03	3.856627E-16	1.994162E-17
4.690000E+03	3.869985E-16	1.999910E-17
4.700000E+03	3.882407E-16	2.005189E-17
4.710000E+03	3.893901E-16	2.010005E-17
4.720000E+03	3.903939E-16	2.014087E-17
4.730000E+03	3.913646E-16	2.018017E-17
4.740000E+03	3.922513E-16	2.021532E-17
4.750000E+03	3.930034E-16	2.024373E-17
4.760000E+03	3.937365E-16	2.027138E-17
4.770000E+03	3.943465E-16	2.029290E-17
4.780000E+03	3.949509E-16	2.031435E-17
4.790000E+03	3.954467E-16	2.033044E-17
4.800000E+03	3.959524E-16	2.034727E-17
4.810000E+03	3.963654E-16	2.035957E-17
4.820000E+03	3.968053E-16	2.037349E-17
4.830000E+03	3.971694E-16	2.038377E-17
4.840000E+03	3.975217E-16	2.039368E-17
4.850000E+03	3.979257E-16	2.040650E-17
4.860000E+03	3.982780E-16	2.041692E-17
4.870000E+03	3.986412E-16	2.042816E-17
4.880000E+03	3.990218E-16	2.044055E-17
4.890000E+03	3.994251E-16	2.045436E-17
4.900000E+03	3.998559E-16	2.046985E-17
4.910000E+03	4.003176E-16	2.048718E-17
4.920000E+03	4.008126E-16	2.050649E-17
4.930000E+03	4.013424E-16	2.052784E-17
4.940000E+03	4.019066E-16	2.055123E-17
4.950000E+03	4.025041E-16	2.057660E-17
4.960000E+03	4.031324E-16	2.060382E-17
4.970000E+03	4.037877E-16	2.063271E-17
4.980000E+03	4.044650E-16	2.066300E-17
4.990000E+03	4.051018E-16	2.069152E-17
5.000000E+03	4.058033E-16	2.072363E-17
5.010000E+03	4.065049E-16	2.075605E-17
5.020000E+03	4.071412E-16	2.078543E-17
5.030000E+03	4.078146E-16	2.081701E-17
5.040000E+03	4.084017E-16	2.084450E-17
5.050000E+03	4.090038E-16	2.087307E-17
5.060000E+03	4.094965E-16	2.089638E-17
5.070000E+03	4.099803E-16	2.091955E-17
5.080000E+03	4.103298E-16	2.093621E-17
5.090000E+03	4.106456E-16	2.095147E-17
5.100000E+03	4.108019E-16	2.095894E-17
5.110000E+03	4.108428E-16	2.096086E-17
5.120000E+03	4.107561E-16	2.095660E-17
5.130000E+03	4.105863E-16	2.094846E-17
5.140000E+03	4.102087E-16	2.093006E-17
5.150000E+03	4.096688E-16	2.090373E-17
5.160000E+03	4.089560E-16	2.086893E-17
5.170000E+03	4.080604E-16	2.082515E-17
5.180000E+03	4.069728E-16	2.077192E-17
5.190000E+03	4.056851E-16	2.070881E-17
5.200000E+03	4.041897E-16	2.063545E-17
5.210000E+03	4.024805E-16	2.055151E-17
5.220000E+03	4.005522E-16	2.045671E-17
5.230000E+03	3.983463E-16	2.034807E-17
5.240000E+03	3.959695E-16	2.023101E-17
5.250000E+03	3.933656E-16	2.010265E-17
5.260000E+03	3.905346E-16	1.996300E-17
5.270000E+03	3.874252E-16	1.980939E-17
5.280000E+03	3.841469E-16	1.964743E-17
5.290000E+03	3.805988E-16	1.947193E-17
5.300000E+03	3.768914E-16	1.928852E-17
5.310000E+03	3.729798E-16	1.909490E-17
5.320000E+03	3.688226E-16	1.888891E-17
5.330000E+03	3.644814E-16	1.867368E-17
5.340000E+03	3.600170E-16	1.845230E-17
5.350000E+03	3.553433E-16	1.822033E-17
5.360000E+03	3.505237E-16	1.798100E-17
5.370000E+03	3.456196E-16	1.773742E-17
5.380000E+03	3.405515E-16	1.748549E-17
5.390000E+03	3.353826E-16	1.722843E-17
5.400000E+03	3.301288E-16	1.696703E-17
5.410000E+03	3.248062E-16	1.670209E-17
5.420000E+03	3.194740E-16	1.643665E-17
5.430000E+03	3.140598E-16	1.616695E-17
5.440000E+03	3.086229E-16	1.589601E-17
5.450000E+03	3.031775E-16	1.562457E-17
5.460000E+03	2.977366E-16	1.535327E-17
5.470000E+03	2.922726E-16	1.508066E-17
5.480000E+03	2.868764E-16	1.481143E-17
5.490000E+03	2.815175E-16	1.454399E-17
5.500000E+03	2.762050E-16	1.427880E-17
5.510000E+03	2.709479E-16	1.401631E-17
5.520000E+03	2.657181E-16	1.375507E-17
5.530000E+03	2.605958E-16	1.349920E-17
5.540000E+03	2.555502E-16	1.324713E-17
5.550000E+03	2.505524E-16	1.299733E-17
5.560000E+03	2.456755E-16	1.275360E-17
5.570000E+03	2.408885E-16	1.251432E-17
5.580000E+03	2.361627E-16	1.227802E-17
5.590000E+03	2.315659E-16	1.204820E-17
5.600000E+03	2.270375E-16	1.182172E-17
5.610000E+03	2.226123E-16	1.160039E-17
5.620000E+03	2.183221E-16	1.138586E-17
5.630000E+03	2.141097E-16	1.117517E-17
5.640000E+03	2.100077E-16	1.097000E-17
5.650000E+03	2.060462E-16	1.077195E-17
5.660000E+03	2.021711E-16	1.057818E-17
5.670000E+03	1.984130E-16	1.039031E-17
5.680000E+03	1.947740E-16	1.020846E-17
5.690000E+03	1.912561E-16	1.003272E-17
5.700000E+03	1.878863E-16	9.864546E-18
5.710000E+03	1.846154E-16	9.701340E-18
5.720000E+03	1.814704E-16	9.544549E-18
5.730000E+03	1.784530E-16	9.394259E-18
5.740000E+03	1.755641E-16	9.250540E-18
5.750000E+03	1.728049E-16	9.113458E-18
5.760000E+03	1.701528E-16	8.981846E-18
5.770000E+03	1.676550E-16	8.858197E-18
5.780000E+03	1.652884E-16	8.741310E-18
5.790000E+03	1.630530E-16	8.631201E-18
5.800000E+03	1.609489E-16	8.527891E-18
5.810000E+03	1.589756E-16	8.431374E-18
5.820000E+03	1.571118E-16	8.340521E-18
5.830000E+03	1.553993E-16	8.257583E-18
5.840000E+03	1.538161E-16	8.181400E-18
5.850000E+03	1.523410E-16	8.110860E-18
5.860000E+03	1.510143E-16	8.048122E-18
5.870000E+03	1.497940E-16	7.990979E-18
5.880000E+03	1.487198E-16	7.941555E-18
5.890000E+03	1.477705E-16	7.898738E-18
5.900000E+03	1.469251E-16	7.861424E-18
5.910000E+03	1.462029E-16	7.830657E-18
5.920000E+03	1.456223E-16	7.807452E-18
5.930000E+03	1.451432E-16	7.789671E-18
5.940000E+03	1.448041E-16	7.779396E-18
5.950000E+03	1.445651E-16	7.774504E-18
5.960000E+03	1.444451E-16	7.776029E-18
5.970000E+03	1.444630E-16	7.785004E-18
5.980000E+03	1.445792E-16	7.799321E-18
5.990000E+03	1.448129E-16	7.820026E-18
6.000000E+03	1.451634E-16	7.847110E-18
6.010000E+03	1.456307E-16	7.880576E-18
6.020000E+03	1.462339E-16	7.921492E-18
6.030000E+03	1.469333E-16	7.967720E-18
6.040000E+03	1.477483E-16	8.020327E-18
6.050000E+03	1.486783E-16	8.079306E-18
6.060000E+03	1.497227E-16	8.144639E-18
6.070000E+03	1.508807E-16	8.216304E-18
6.080000E+03	1.521515E-16	8.294271E-18
6.090000E+03	1.535336E-16	8.378485E-18
6.100000E+03	1.550256E-16	8.468883E-18
6.110000E+03	1.566254E-16	8.565374E-18
6.120000E+03	1.583308E-16	8.667848E-18
6.130000E+03	1.601387E-16	8.776160E-18
6.140000E+03	1.620238E-16	8.888940E-18
6.150000E+03	1.640256E-16	9.008361E-18
6.160000E+03	1.661175E-16	9.132990E-18
6.170000E+03	1.682939E-16	9.262532E-18
6.180000E+03	1.705486E-16	9.396657E-18
6.190000E+03	1.728509E-16	9.533689E-18
6.200000E+03	1.752391E-16	9.675752E-18
6.210000E+03	1.776812E-16	9.821086E-18
6.220000E+03	1.801431E-16	9.967811E-18
6.230000E+03	1.826623E-16	1.011802E-17
6.240000E+03	1.852032E-16	1.026973E-17
6.250000E+03	1.877279E-16	1.042086E-17
6.260000E+03	1.902739E-16	1.057348E-17
6.270000E+03	1.927761E-16	1.072397E-17
6.280000E+03	1.952721E-16	1.087442E-17
6.290000E+03	1.976947E-16	1.102108E-17
6.300000E+03	2.000819E-16	1.116606E-17
6.310000E+03	2.023651E-16	1.130551E-17
6.320000E+03	2.045834E-16	1.144161E-17
6.330000E+03	2.066672E-16	1.157044E-17
6.340000E+03	2.086294E-16	1.169271E-17
6.350000E+03	2.104846E-16	1.180920E-17
6.360000E+03	2.121633E-16	1.191600E-17
6.370000E+03	2.137105E-16	1.201560E-17
6.380000E+03	2.150576E-16	1.210413E-17
6.390000E+03	2.162236E-16	1.218260E-17
6.400000E+03	2.172002E-16	1.225052E-17
6.410000E+03	2.180098E-16	1.230912E-17
6.420000E+03	2.185880E-16	1.235474E-17
6.430000E+03	2.189605E-16	1.238877E-17
6.440000E+03	2.191248E-16	1.241105E-17
6.450000E+03	2.190803E-16	1.242149E-17
6.460000E+03	2.188572E-16	1.242178E-17
6.470000E+03	2.183985E-16	1.240866E-17
6.480000E+03	2.177377E-16	1.238396E-17
6.490000E+03	2.168794E-16	1.234793E-17
6.500000E+03	2.158300E-16	1.230089E-17
6.510000E+03	2.145968E-16	1.224323E-17
6.520000E+03	2.131878E-16	1.217537E-17
6.530000E+03	2.116123E-16	1.209780E-17
6.540000E+03	2.098800E-16	1.201106E-17
6.550000E+03	2.080012E-16	1.191571E-17
6.560000E+03	2.059868E-16	1.181234E-17
6.570000E+03	2.038478E-16	1.170157E-17
6.580000E+03	2.015955E-16	1.158401E-17
6.590000E+03	1.992415E-16	1.146033E-17
6.600000E+03	1.967970E-16	1.133114E-17
6.610000E+03	1.942734E-16	1.119709E-17
6.620000E+03	1.916557E-16	1.105729E-17
6.630000E+03	1.890071E-16	1.091539E-17
6.640000E+03	1.863118E-16	1.077046E-17
6.650000E+03	1.835797E-16	1.062307E-17
6.660000E+03	1.808207E-16	1.047379E-17
6.670000E+03	1.780438E-16	1.032313E-17
6.680000E+03	1.752340E-16	1.017022E-17
6.690000E+03	1.724474E-16	1.001832E-17
6.700000E+03	1.696675E-16	9.866464E-18
6.710000E+03	1.668787E-16	9.713753E-18
6.720000E+03	1.641334E-16	9.563237E-18
6.730000E+03	1.614144E-16	9.413926E-18
6.740000E+03	1.587058E-16	9.264892E-18
6.750000E+03	1.560560E-16	9.118968E-18
6.760000E+03	1.534476E-16	8.975142E-18
6.770000E+03	1.508641E-16	8.832463E-18
6.780000E+03	1.483505E-16	8.693571E-18
6.790000E+03	1.458691E-16	8.556263E-18
6.800000E+03	1.434627E-16	8.423061E-18
6.810000E+03	1.411134E-16	8.292924E-18
6.820000E+03	1.388041E-16	8.164865E-18
6.830000E+03	1.365747E-16	8.041228E-18
6.840000E+03	1.343887E-16	7.919888E-18
6.850000E+03	1.322841E-16	7.803087E-18
6.860000E+03	1.302252E-16	7.688730E-18
6.870000E+03	1.282306E-16	7.577927E-18
6.880000E+03	1.263177E-16	7.471723E-18
6.890000E+03	1.244518E-16	7.368074E-18
6.900000E+03	1.226667E-16	7.268984E-18
6.910000E+03	1.209283E-16	7.172456E-18
6.920000E+03	1.192528E-16	7.079457E-18
6.930000E+03	1.176556E-16	6.990907E-18
6.940000E+03	1.161034E-16	6.904845E-18
6.950000E+03	1.146115E-16	6.822186E-18
6.960000E+03	1.131940E-16	6.743784E-18
6.970000E+03	1.118188E-16	6.667733E-18
6.980000E+03	1.105002E-16	6.594893E-18
6.990000E+03	1.092366E-16	6.525183E-18
7.000000E+03	1.080413E-16	6.459409E-18
7.010000E+03	1.068834E-16	6.395724E-18
7.020000E+03	1.057760E-16	6.334922E-18
7.030000E+03	1.047176E-16	6.276926E-18
7.040000E+03	1.037066E-16	6.221642E-18
7.050000E+03	1.027553E-16	6.169823E-18
7.060000E+03	1.018338E-16	6.119678E-18
7.070000E+03	1.009547E-16	6.071973E-18
7.080000E+03	1.001164E-16	6.026608E-18
7.090000E+03	9.931687E-17	5.983482E-18
7.100000E+03	9.855473E-17	5.942508E-18
7.110000E+03	9.782814E-17	5.903585E-18
7.120000E+03	9.713552E-17	5.866622E-18
7.130000E+03	9.647494E-17	5.831508E-18
7.140000E+03	9.584498E-17	5.798162E-18
7.150000E+03	9.524384E-17	5.766479E-18
7.160000E+03	9.466986E-17	5.736366E-18
7.170000E+03	9.412141E-17	5.707725E-18
7.180000E+03	9.359685E-17	5.680462E-18
7.190000E+03	9.309454E-17	5.654481E-18
7.200000E+03	9.261286E-17	5.629687E-18
7.210000E+03	9.215024E-17	5.605988E-18
7.220000E+03	9.170507E-17	5.583289E-18
7.230000E+03	9.127578E-17	5.561496E-18
7.240000E+03	9.084833E-17	5.539756E-18
7.250000E+03	9.044625E-17	5.519506E-18
7.260000E+03	9.005544E-17	5.499888E-18
7.270000E+03	8.967445E-17	5.480815E-18
7.280000E+03	8.930179E-17	5.462199E-18
7.290000E+03	8.892378E-17	5.443201E-18
7.300000E+03	8.856354E-17	5.425240E-18
7.310000E+03	8.820740E-17	5.407478E-18
7.320000E+03	8.785401E-17	5.389834E-18
7.330000E+03	8.748997E-17	5.371487E-18
7.340000E+03	8.713820E-17	5.353842E-18
7.350000E+03	8.678534E-17	5.336081E-18
7.360000E+03	8.641828E-17	5.317396E-18
7.370000E+03	8.605977E-17	5.299188E-18
7.380000E+03	8.568492E-17	5.279923E-18
7.390000E+03	8.531641E-17	5.260998E-18
7.400000E+03	8.494140E-17	5.241621E-18
7.410000E+03	8.454727E-17	5.221014E-18
7.420000E+03	8.415661E-17	5.200569E-18
7.430000E+03	8.374533E-17	5.178797E-18
7.440000E+03	8.333594E-17	5.157090E-18
7.450000E+03	8.290472E-17	5.133978E-18
7.460000E+03	8.247413E-17	5.110852E-18
7.470000E+03	8.202079E-17	5.086261E-18
7.480000E+03	8.156713E-17	5.061594E-18
7.490000E+03	8.109017E-17	5.035425E-18
7.500000E+03	8.060105E-17	5.008444E-18
7.510000E+03	8.011076E-17	4.981333E-18
7.520000E+03	7.959697E-17	4.952702E-18
7.530000E+03	7.908183E-17	4.923928E-18
7.540000E+03	7.854344E-17	4.893647E-18
7.550000E+03	7.799301E-17	4.862554E-18
7.560000E+03	7.743078E-17	4.830665E-18
7.570000E+03	7.686778E-17	4.798666E-18
7.580000E+03	7.628289E-17	4.765238E-18
7.590000E+03	7.568733E-17	4.731080E-18
7.600000E+03	7.508157E-17	4.696221E-18
7.610000E+03	7.447651E-17	4.661342E-18
7.620000E+03	7.385189E-17	4.625175E-18
7.630000E+03	7.321875E-17	4.588411E-18
7.640000E+03	7.257774E-17	4.551088E-18
7.650000E+03	7.192952E-17	4.513247E-18
7.660000E+03	7.127476E-17	4.474931E-18
7.670000E+03	7.061413E-17	4.436181E-18
7.680000E+03	6.995812E-17	4.397657E-18
7.690000E+03	6.928779E-17	4.358167E-18
7.700000E+03	6.861372E-17	4.318377E-18
7.710000E+03	6.793658E-17	4.278329E-18
7.720000E+03	6.725709E-17	4.238068E-18
7.730000E+03	6.657590E-17	4.197636E-18
7.740000E+03	6.589372E-17	4.157076E-18
7.750000E+03	6.521116E-17	4.116430E-18
7.760000E+03	6.451985E-17	4.075167E-18
