#wls	flux	fluxerr
1.600000E+03	7.586626E-17	3.485285E-17
1.640000E+03	7.589225E-17	3.383973E-17
1.680000E+03	7.597968E-17	3.286425E-17
1.720000E+03	7.615750E-17	3.193765E-17
1.760000E+03	7.639690E-17	3.104616E-17
1.800000E+03	7.672669E-17	3.020012E-17
1.840000E+03	7.714678E-17	2.939735E-17
1.880000E+03	7.768575E-17	2.864623E-17
1.920000E+03	7.828571E-17	2.792287E-17
1.960000E+03	7.900369E-17	2.724580E-17
2.000000E+03	7.983896E-17	2.661162E-17
2.040000E+03	8.079046E-17	2.601701E-17
2.080000E+03	8.182814E-17	2.544987E-17
2.120000E+03	8.303638E-17	2.493410E-17
2.160000E+03	8.432682E-17	2.444045E-17
2.200000E+03	8.575420E-17	2.398404E-17
2.240000E+03	8.734394E-17	2.357077E-17
2.280000E+03	8.903493E-17	2.318423E-17
2.320000E+03	9.088024E-17	2.284038E-17
2.360000E+03	9.284651E-17	2.253385E-17
2.400000E+03	9.495736E-17	2.227540E-17
2.440000E+03	9.723613E-17	2.207651E-17
2.480000E+03	9.964921E-17	2.193664E-17
2.520000E+03	1.022206E-16	2.186907E-17
2.560000E+03	1.049755E-16	2.188620E-17
2.600000E+03	1.079127E-16	2.199279E-17
2.640000E+03	1.110910E-16	2.220238E-17
2.680000E+03	1.144905E-16	2.250729E-17
2.720000E+03	1.182103E-16	2.291797E-17
2.760000E+03	1.222435E-16	2.341887E-17
2.800000E+03	1.266744E-16	2.400802E-17
2.840000E+03	1.315672E-16	2.467615E-17
2.880000E+03	1.370512E-16	2.542369E-17
2.920000E+03	1.431556E-16	2.623057E-17
2.960000E+03	1.500631E-16	2.710371E-17
3.000000E+03	1.578905E-16	2.803640E-17
3.010000E+03	1.600166E-16	2.828009E-17
3.020000E+03	1.622002E-16	2.852527E-17
3.030000E+03	1.644714E-16	2.877679E-17
3.040000E+03	1.668324E-16	2.903455E-17
3.050000E+03	1.692575E-16	2.929357E-17
3.060000E+03	1.717489E-16	2.955382E-17
3.070000E+03	1.743659E-16	2.982503E-17
3.080000E+03	1.770546E-16	3.009744E-17
3.090000E+03	1.798462E-16	3.037591E-17
3.100000E+03	1.827438E-16	3.066046E-17
3.110000E+03	1.857508E-16	3.095114E-17
3.120000E+03	1.888706E-16	3.124801E-17
3.130000E+03	1.921067E-16	3.155117E-17
3.140000E+03	1.954630E-16	3.186075E-17
3.150000E+03	1.989436E-16	3.217692E-17
3.160000E+03	2.025526E-16	3.249987E-17
3.170000E+03	2.062944E-16	3.282983E-17
3.180000E+03	2.102033E-16	3.317173E-17
3.190000E+03	2.142550E-16	3.352120E-17
3.200000E+03	2.184842E-16	3.388321E-17
3.210000E+03	2.228671E-16	3.425352E-17
3.220000E+03	2.274394E-16	3.463718E-17
3.230000E+03	2.321773E-16	3.503006E-17
3.240000E+03	2.371175E-16	3.543729E-17
3.250000E+03	2.422672E-16	3.585944E-17
3.260000E+03	2.476030E-16	3.629263E-17
3.270000E+03	2.531631E-16	3.674212E-17
3.280000E+03	2.589873E-16	3.721317E-17
3.290000E+03	2.650215E-16	3.769760E-17
3.300000E+03	2.713378E-16	3.820533E-17
3.310000E+03	2.778822E-16	3.872836E-17
3.320000E+03	2.847284E-16	3.927671E-17
3.330000E+03	2.918875E-16	3.985147E-17
3.340000E+03	2.993052E-16	4.044494E-17
3.350000E+03	3.070916E-16	4.107173E-17
3.360000E+03	3.151931E-16	4.172427E-17
3.370000E+03	3.236217E-16	4.240397E-17
3.380000E+03	3.324586E-16	4.312117E-17
3.390000E+03	3.416497E-16	4.386848E-17
3.400000E+03	3.512785E-16	4.465635E-17
3.410000E+03	3.612906E-16	4.547746E-17
3.420000E+03	3.717720E-16	4.634231E-17
3.430000E+03	3.827039E-16	4.724805E-17
3.440000E+03	3.941029E-16	4.819627E-17
3.450000E+03	4.060231E-16	4.919298E-17
3.460000E+03	4.184459E-16	5.023520E-17
3.470000E+03	4.314652E-16	5.133336E-17
3.480000E+03	4.450251E-16	5.247975E-17
3.490000E+03	4.591831E-16	5.368001E-17
3.500000E+03	4.739593E-16	5.493506E-17
3.510000E+03	4.893744E-16	5.624565E-17
3.520000E+03	5.054893E-16	5.761694E-17
3.530000E+03	5.222852E-16	5.904462E-17
3.540000E+03	5.398242E-16	6.053336E-17
3.550000E+03	5.581284E-16	6.208295E-17
3.560000E+03	5.771760E-16	6.368809E-17
3.570000E+03	5.970301E-16	6.535258E-17
3.580000E+03	6.177554E-16	6.707997E-17
3.590000E+03	6.392829E-16	6.885897E-17
3.600000E+03	6.617206E-16	7.069717E-17
3.610000E+03	6.850872E-16	7.259213E-17
3.620000E+03	7.093526E-16	7.453596E-17
3.630000E+03	7.345779E-16	7.653016E-17
3.640000E+03	7.607759E-16	7.857081E-17
3.650000E+03	7.880065E-16	8.065855E-17
3.660000E+03	8.161782E-16	8.277826E-17
3.670000E+03	8.453948E-16	8.493460E-17
3.680000E+03	8.756064E-16	8.711643E-17
3.690000E+03	9.068613E-16	8.932232E-17
3.700000E+03	9.391523E-16	9.154522E-17
3.710000E+03	9.724128E-16	9.377228E-17
3.720000E+03	1.006733E-15	9.600593E-17
3.730000E+03	1.042035E-15	9.823244E-17
3.740000E+03	1.078344E-15	1.004482E-16
3.750000E+03	1.115568E-15	1.026387E-16
3.760000E+03	1.153659E-15	1.047944E-16
3.770000E+03	1.192684E-15	1.069165E-16
3.780000E+03	1.232464E-15	1.089844E-16
3.790000E+03	1.273050E-15	1.109991E-16
3.800000E+03	1.314305E-15	1.129458E-16
3.810000E+03	1.356142E-15	1.148153E-16
3.820000E+03	1.398464E-15	1.165985E-16
3.830000E+03	1.441294E-15	1.182975E-16
3.840000E+03	1.484392E-15	1.198942E-16
3.850000E+03	1.527635E-15	1.213814E-16
3.860000E+03	1.571022E-15	1.227634E-16
3.870000E+03	1.614352E-15	1.240295E-16
3.880000E+03	1.657480E-15	1.251754E-16
3.890000E+03	1.700255E-15	1.261979E-16
3.900000E+03	1.742524E-15	1.270944E-16
3.910000E+03	1.784195E-15	1.278685E-16
3.920000E+03	1.825108E-15	1.285193E-16
3.930000E+03	1.865039E-15	1.290422E-16
3.940000E+03	1.903898E-15	1.294426E-16
3.950000E+03	1.941464E-15	1.297171E-16
3.960000E+03	1.977658E-15	1.298716E-16
3.970000E+03	2.012342E-15	1.299076E-16
3.980000E+03	2.045389E-15	1.298263E-16
3.990000E+03	2.076684E-15	1.296289E-16
4.000000E+03	2.106061E-15	1.293119E-16
4.010000E+03	2.133504E-15	1.288797E-16
4.020000E+03	2.158945E-15	1.283319E-16
4.030000E+03	2.182340E-15	1.276677E-16
4.040000E+03	2.203662E-15	1.268854E-16
4.050000E+03	2.222842E-15	1.259798E-16
4.060000E+03	2.239961E-15	1.249525E-16
4.070000E+03	2.254996E-15	1.237976E-16
4.080000E+03	2.268066E-15	1.225164E-16
4.090000E+03	2.279193E-15	1.211036E-16
4.100000E+03	2.288477E-15	1.195575E-16
4.110000E+03	2.296039E-15	1.178768E-16
4.120000E+03	2.302016E-15	1.160606E-16
4.130000E+03	2.306560E-15	1.141086E-16
4.140000E+03	2.309784E-15	1.120183E-16
4.150000E+03	2.311866E-15	1.097906E-16
4.160000E+03	2.312997E-15	1.074267E-16
4.170000E+03	2.313371E-15	1.049285E-16
4.180000E+03	2.313136E-15	1.022956E-16
4.190000E+03	2.312497E-15	9.953086E-17
4.200000E+03	2.311653E-15	9.663716E-17
4.210000E+03	2.310756E-15	9.361597E-17
4.220000E+03	2.310000E-15	9.047153E-17
4.230000E+03	2.309527E-15	8.720706E-17
4.240000E+03	2.309563E-15	8.383062E-17
4.250000E+03	2.310186E-15	8.034676E-17
4.260000E+03	2.311558E-15	7.676608E-17
4.270000E+03	2.313784E-15	7.310110E-17
4.280000E+03	2.317044E-15	6.937190E-17
4.290000E+03	2.321334E-15	6.559992E-17
4.300000E+03	2.326853E-15	6.182218E-17
4.310000E+03	2.333616E-15	5.808322E-17
4.320000E+03	2.341671E-15	5.444586E-17
4.330000E+03	2.351093E-15	5.099590E-17
4.340000E+03	2.361907E-15	4.784562E-17
4.350000E+03	2.374165E-15	4.513910E-17
4.360000E+03	2.387872E-15	4.304791E-17
4.370000E+03	2.403004E-15	4.174854E-17
4.380000E+03	2.419277E-15	4.137243E-17
4.390000E+03	2.436483E-15	4.199652E-17
4.400000E+03	2.454444E-15	4.355713E-17
4.410000E+03	2.473086E-15	4.586890E-17
4.420000E+03	2.492413E-15	4.872937E-17
4.430000E+03	2.512350E-15	5.194956E-17
4.440000E+03	2.532892E-15	5.537065E-17
4.450000E+03	2.553922E-15	5.886175E-17
4.460000E+03	2.575504E-15	6.232271E-17
4.470000E+03	2.597479E-15	6.566957E-17
4.480000E+03	2.619830E-15	6.883823E-17
4.490000E+03	2.642466E-15	7.177530E-17
4.500000E+03	2.665253E-15	7.443583E-17
4.510000E+03	2.688169E-15	7.678534E-17
4.520000E+03	2.711039E-15	7.879127E-17
4.530000E+03	2.733800E-15	8.042923E-17
4.540000E+03	2.756352E-15	8.167835E-17
4.550000E+03	2.778597E-15	8.252206E-17
4.560000E+03	2.800480E-15	8.294920E-17
4.570000E+03	2.821877E-15	8.295103E-17
4.580000E+03	2.842782E-15	8.252703E-17
4.590000E+03	2.863092E-15	8.167918E-17
4.600000E+03	2.882823E-15	8.041921E-17
4.610000E+03	2.901932E-15	7.876463E-17
4.620000E+03	2.920427E-15	7.674353E-17
4.630000E+03	2.938293E-15	7.439483E-17
4.640000E+03	2.955565E-15	7.177324E-17
4.650000E+03	2.972322E-15	6.895290E-17
4.660000E+03	2.988550E-15	6.602894E-17
4.670000E+03	3.004344E-15	6.312812E-17
4.680000E+03	3.019733E-15	6.041004E-17
4.690000E+03	3.034818E-15	5.807263E-17
4.700000E+03	3.049620E-15	5.634422E-17
4.710000E+03	3.064157E-15	5.546652E-17
4.720000E+03	3.078537E-15	5.566084E-17
4.730000E+03	3.092692E-15	5.702063E-17
4.740000E+03	3.106732E-15	5.943947E-17
4.750000E+03	3.120648E-15	6.273796E-17
4.760000E+03	3.134379E-15	6.671789E-17
4.770000E+03	3.147944E-15	7.119337E-17
4.780000E+03	3.161278E-15	7.600152E-17
4.790000E+03	3.174329E-15	8.100826E-17
4.800000E+03	3.187032E-15	8.610567E-17
4.810000E+03	3.199341E-15	9.120908E-17
4.820000E+03	3.211198E-15	9.625200E-17
4.830000E+03	3.222572E-15	1.011836E-16
4.840000E+03	3.233358E-15	1.059625E-16
4.850000E+03	3.243446E-15	1.105563E-16
4.860000E+03	3.252765E-15	1.149414E-16
4.870000E+03	3.261245E-15	1.190999E-16
4.880000E+03	3.268789E-15	1.230182E-16
4.890000E+03	3.275344E-15	1.266878E-16
4.900000E+03	3.280835E-15	1.301030E-16
4.910000E+03	3.285233E-15	1.332623E-16
4.920000E+03	3.288493E-15	1.361657E-16
4.930000E+03	3.290585E-15	1.388156E-16
4.940000E+03	3.291533E-15	1.412179E-16
4.950000E+03	3.291309E-15	1.433773E-16
4.960000E+03	3.290007E-15	1.453045E-16
4.970000E+03	3.287669E-15	1.470082E-16
4.980000E+03	3.284323E-15	1.484967E-16
4.990000E+03	3.280113E-15	1.497834E-16
5.000000E+03	3.275097E-15	1.508773E-16
5.010000E+03	3.269381E-15	1.517892E-16
5.020000E+03	3.263146E-15	1.525327E-16
5.030000E+03	3.256486E-15	1.531162E-16
5.040000E+03	3.249529E-15	1.535495E-16
5.050000E+03	3.242442E-15	1.538429E-16
5.060000E+03	3.235389E-15	1.540060E-16
5.070000E+03	3.228434E-15	1.540428E-16
5.080000E+03	3.221761E-15	1.539626E-16
5.090000E+03	3.215478E-15	1.537705E-16
5.100000E+03	3.209682E-15	1.534705E-16
5.110000E+03	3.204480E-15	1.530672E-16
5.120000E+03	3.199900E-15	1.525611E-16
5.130000E+03	3.196012E-15	1.519544E-16
5.140000E+03	3.192832E-15	1.512470E-16
5.150000E+03	3.190387E-15	1.504391E-16
5.160000E+03	3.188653E-15	1.495284E-16
5.170000E+03	3.187550E-15	1.485100E-16
5.180000E+03	3.187081E-15	1.473825E-16
5.190000E+03	3.187164E-15	1.461403E-16
5.200000E+03	3.187674E-15	1.447757E-16
5.210000E+03	3.188570E-15	1.432843E-16
5.220000E+03	3.189704E-15	1.416563E-16
5.230000E+03	3.190989E-15	1.398843E-16
5.240000E+03	3.192266E-15	1.379573E-16
5.250000E+03	3.193473E-15	1.358678E-16
5.260000E+03	3.194484E-15	1.336053E-16
5.270000E+03	3.195174E-15	1.311591E-16
5.280000E+03	3.195394E-15	1.285171E-16
5.290000E+03	3.195098E-15	1.256717E-16
5.300000E+03	3.194185E-15	1.226129E-16
5.310000E+03	3.192535E-15	1.193305E-16
5.320000E+03	3.190138E-15	1.158194E-16
5.330000E+03	3.186902E-15	1.120723E-16
5.340000E+03	3.182784E-15	1.080850E-16
5.350000E+03	3.177820E-15	1.038586E-16
5.360000E+03	3.171938E-15	9.939272E-17
5.370000E+03	3.165208E-15	9.469558E-17
5.380000E+03	3.157620E-15	8.977769E-17
5.390000E+03	3.149238E-15	8.465847E-17
5.400000E+03	3.140111E-15	7.936575E-17
5.410000E+03	3.130290E-15	7.394008E-17
5.420000E+03	3.119838E-15	6.843981E-17
5.430000E+03	3.108815E-15	6.294844E-17
5.440000E+03	3.097317E-15	5.758603E-17
5.450000E+03	3.085403E-15	5.252260E-17
5.460000E+03	3.073098E-15	4.799549E-17
5.470000E+03	3.060509E-15	4.432208E-17
5.480000E+03	3.047614E-15	4.187828E-17
5.490000E+03	3.034503E-15	4.102438E-17
5.500000E+03	3.021156E-15	4.190225E-17
5.510000E+03	3.007736E-15	4.425034E-17
5.520000E+03	2.994313E-15	4.766625E-17
5.530000E+03	2.980946E-15	5.176877E-17
5.540000E+03	2.967771E-15	5.625821E-17
5.550000E+03	2.954795E-15	6.091756E-17
5.560000E+03	2.942103E-15	6.559961E-17
5.570000E+03	2.929742E-15	7.020604E-17
5.580000E+03	2.917724E-15	7.467217E-17
5.590000E+03	2.906113E-15	7.895832E-17
5.600000E+03	2.894879E-15	8.303883E-17
5.610000E+03	2.884107E-15	8.690245E-17
5.620000E+03	2.873763E-15	9.054250E-17
5.630000E+03	2.863898E-15	9.396024E-17
5.640000E+03	2.854480E-15	9.715791E-17
5.650000E+03	2.845588E-15	1.001439E-16
5.660000E+03	2.837220E-15	1.029255E-16
5.670000E+03	2.829378E-15	1.055106E-16
5.680000E+03	2.822094E-15	1.079085E-16
5.690000E+03	2.815404E-15	1.101289E-16
5.700000E+03	2.809321E-15	1.121797E-16
5.710000E+03	2.803915E-15	1.140712E-16
5.720000E+03	2.799177E-15	1.158094E-16
5.730000E+03	2.795210E-15	1.174046E-16
5.740000E+03	2.791979E-15	1.188607E-16
5.750000E+03	2.789587E-15	1.201865E-16
5.760000E+03	2.788024E-15	1.213857E-16
5.770000E+03	2.787330E-15	1.224634E-16
5.780000E+03	2.787540E-15	1.234240E-16
5.790000E+03	2.788654E-15	1.242696E-16
5.800000E+03	2.790717E-15	1.250040E-16
5.810000E+03	2.793683E-15	1.256263E-16
5.820000E+03	2.797576E-15	1.261381E-16
5.830000E+03	2.802354E-15	1.265376E-16
5.840000E+03	2.807963E-15	1.268217E-16
5.850000E+03	2.814391E-15	1.269886E-16
5.860000E+03	2.821533E-15	1.270320E-16
5.870000E+03	2.829356E-15	1.269481E-16
5.880000E+03	2.837761E-15	1.267297E-16
5.890000E+03	2.846671E-15	1.263702E-16
5.900000E+03	2.855972E-15	1.258612E-16
5.910000E+03	2.865546E-15	1.251936E-16
5.920000E+03	2.875358E-15	1.243621E-16
5.930000E+03	2.885231E-15	1.233550E-16
5.940000E+03	2.895127E-15	1.221666E-16
5.950000E+03	2.904872E-15	1.207855E-16
5.960000E+03	2.914434E-15	1.192065E-16
5.970000E+03	2.923701E-15	1.174211E-16
5.980000E+03	2.932565E-15	1.154214E-16
5.990000E+03	2.940949E-15	1.132010E-16
6.000000E+03	2.948779E-15	1.107541E-16
6.010000E+03	2.955954E-15	1.080745E-16
6.020000E+03	2.962431E-15	1.051590E-16
6.030000E+03	2.968106E-15	1.020035E-16
6.040000E+03	2.972871E-15	9.860547E-17
6.050000E+03	2.976670E-15	9.496655E-17
6.060000E+03	2.979378E-15	9.108926E-17
6.070000E+03	2.980919E-15	8.698193E-17
6.080000E+03	2.981146E-15	8.265646E-17
6.090000E+03	2.979928E-15	7.813296E-17
6.100000E+03	2.977123E-15	7.344144E-17
6.110000E+03	2.972577E-15	6.862538E-17
6.120000E+03	2.966155E-15	6.374721E-17
6.130000E+03	2.957691E-15	5.889356E-17
6.140000E+03	2.946988E-15	5.418404E-17
6.150000E+03	2.933943E-15	4.978344E-17
6.160000E+03	2.918406E-15	4.590698E-17
6.170000E+03	2.900245E-15	4.281921E-17
6.180000E+03	2.879411E-15	4.080607E-17
6.190000E+03	2.855828E-15	4.010358E-17
6.200000E+03	2.829598E-15	4.072036E-17
6.210000E+03	2.801171E-15	4.237526E-17
6.220000E+03	2.770918E-15	4.472402E-17
6.230000E+03	2.739228E-15	4.745539E-17
6.240000E+03	2.706582E-15	5.032709E-17
6.250000E+03	2.673353E-15	5.316343E-17
6.260000E+03	2.640023E-15	5.584715E-17
6.270000E+03	2.606959E-15	5.830097E-17
6.280000E+03	2.574599E-15	6.047963E-17
6.290000E+03	2.543337E-15	6.235864E-17
6.300000E+03	2.513574E-15	6.392897E-17
6.310000E+03	2.485661E-15	6.519094E-17
6.320000E+03	2.459950E-15	6.615208E-17
6.330000E+03	2.436713E-15	6.682244E-17
6.340000E+03	2.416269E-15	6.721622E-17
6.350000E+03	2.398851E-15	6.734685E-17
6.360000E+03	2.384688E-15	6.722817E-17
6.370000E+03	2.373945E-15	6.687235E-17
6.380000E+03	2.366752E-15	6.629033E-17
6.390000E+03	2.363228E-15	6.549263E-17
6.400000E+03	2.363453E-15	6.448893E-17
6.410000E+03	2.367468E-15	6.328885E-17
6.420000E+03	2.375199E-15	6.190109E-17
6.430000E+03	2.386659E-15	6.034067E-17
6.440000E+03	2.401721E-15	5.862511E-17
6.450000E+03	2.420246E-15	5.678110E-17
6.460000E+03	2.442113E-15	5.484914E-17
6.470000E+03	2.467124E-15	5.288618E-17
6.480000E+03	2.495026E-15	5.097238E-17
6.490000E+03	2.525641E-15	4.921966E-17
6.500000E+03	2.558737E-15	4.777303E-17
6.510000E+03	2.594099E-15	4.681063E-17
6.520000E+03	2.631581E-15	4.653260E-17
6.530000E+03	2.671023E-15	4.713245E-17
6.540000E+03	2.711866E-15	4.869161E-17
6.550000E+03	2.752683E-15	5.112195E-17
6.560000E+03	2.792102E-15	5.428017E-17
6.570000E+03	2.828772E-15	5.799888E-17
6.580000E+03	2.861559E-15	6.211046E-17
6.590000E+03	2.889386E-15	6.645593E-17
6.600000E+03	2.911397E-15	7.089373E-17
6.610000E+03	2.926977E-15	7.530238E-17
6.620000E+03	2.935667E-15	7.957823E-17
6.630000E+03	2.937268E-15	8.363759E-17
6.640000E+03	2.931835E-15	8.741627E-17
6.650000E+03	2.919551E-15	9.086547E-17
6.660000E+03	2.900845E-15	9.395464E-17
6.670000E+03	2.876214E-15	9.666563E-17
6.680000E+03	2.846301E-15	9.899414E-17
6.690000E+03	2.811853E-15	1.009480E-16
6.700000E+03	2.773552E-15	1.025402E-16
6.710000E+03	2.732229E-15	1.037953E-16
6.720000E+03	2.688593E-15	1.047390E-16
6.730000E+03	2.643351E-15	1.054014E-16
6.740000E+03	2.597127E-15	1.058126E-16
6.750000E+03	2.550549E-15	1.060059E-16
6.760000E+03	2.504141E-15	1.060122E-16
6.770000E+03	2.458330E-15	1.058597E-16
6.780000E+03	2.413535E-15	1.055775E-16
6.790000E+03	2.370047E-15	1.051894E-16
6.800000E+03	2.328128E-15	1.047182E-16
6.810000E+03	2.287982E-15	1.041843E-16
6.820000E+03	2.249764E-15	1.036056E-16
6.830000E+03	2.213587E-15	1.029978E-16
6.840000E+03	2.179524E-15	1.023743E-16
6.850000E+03	2.147584E-15	1.017454E-16
6.860000E+03	2.117782E-15	1.011208E-16
6.870000E+03	2.090135E-15	1.005102E-16
6.880000E+03	2.064610E-15	9.992021E-17
6.890000E+03	2.041106E-15	9.935367E-17
6.900000E+03	2.019616E-15	9.881746E-17
6.910000E+03	2.000014E-15	9.831207E-17
6.920000E+03	1.982245E-15	9.784096E-17
6.930000E+03	1.966222E-15	9.740534E-17
6.940000E+03	1.951822E-15	9.700422E-17
6.950000E+03	1.938976E-15	9.663849E-17
6.960000E+03	1.927554E-15	9.630563E-17
6.970000E+03	1.917481E-15	9.600514E-17
6.980000E+03	1.908600E-15	9.573196E-17
6.990000E+03	1.900861E-15	9.548577E-17
7.000000E+03	1.894136E-15	9.526185E-17
7.010000E+03	1.888301E-15	9.505507E-17
7.020000E+03	1.883287E-15	9.486260E-17
7.030000E+03	1.879003E-15	9.468002E-17
7.040000E+03	1.875338E-15	9.450135E-17
7.050000E+03	1.872237E-15	9.432306E-17
7.060000E+03	1.869602E-15	9.413885E-17
7.070000E+03	1.867392E-15	9.394496E-17
7.080000E+03	1.865521E-15	9.373492E-17
7.090000E+03	1.863911E-15	9.350225E-17
7.100000E+03	1.862568E-15	9.324448E-17
7.110000E+03	1.861430E-15	9.295523E-17
7.120000E+03	1.860438E-15	9.262823E-17
7.130000E+03	1.859594E-15	9.226004E-17
7.140000E+03	1.858881E-15	9.184611E-17
7.150000E+03	1.858257E-15	9.138080E-17
7.160000E+03	1.857741E-15	9.086141E-17
7.170000E+03	1.857331E-15	9.028419E-17
7.180000E+03	1.856970E-15	8.964310E-17
7.190000E+03	1.856715E-15	8.893764E-17
7.200000E+03	1.856571E-15	8.816493E-17
7.210000E+03	1.856487E-15	8.731974E-17
7.220000E+03	1.856525E-15	8.640220E-17
7.230000E+03	1.856634E-15	8.540736E-17
7.240000E+03	1.856876E-15	8.433540E-17
7.250000E+03	1.857227E-15	8.318259E-17
7.260000E+03	1.857663E-15	8.194510E-17
7.270000E+03	1.858211E-15	8.062131E-17
7.280000E+03	1.858900E-15	7.920923E-17
7.290000E+03	1.859670E-15	7.770294E-17
7.300000E+03	1.860515E-15	7.609854E-17
7.310000E+03	1.861484E-15	7.439407E-17
7.320000E+03	1.862511E-15	7.258263E-17
7.330000E+03	1.863612E-15	7.066054E-17
7.340000E+03	1.864772E-15	6.862295E-17
7.350000E+03	1.865975E-15	6.646518E-17
7.360000E+03	1.867173E-15	6.418214E-17
7.370000E+03	1.868375E-15	6.177169E-17
7.380000E+03	1.869586E-15	5.923312E-17
7.390000E+03	1.870725E-15	5.656521E-17
7.400000E+03	1.871823E-15	5.377365E-17
7.410000E+03	1.872822E-15	5.086602E-17
7.420000E+03	1.873722E-15	4.785800E-17
7.430000E+03	1.874459E-15	4.477268E-17
7.440000E+03	1.875057E-15	4.164796E-17
7.450000E+03	1.875475E-15	3.853798E-17
7.460000E+03	1.875639E-15	3.552128E-17
7.470000E+03	1.875560E-15	3.271200E-17
7.480000E+03	1.875153E-15	3.026499E-17
7.490000E+03	1.874354E-15	2.837949E-17
7.500000E+03	1.873094E-15	2.727874E-17
7.510000E+03	1.871265E-15	2.715474E-17
7.520000E+03	1.868855E-15	2.803510E-17
7.530000E+03	1.865940E-15	2.974644E-17
7.540000E+03	1.862595E-15	3.206296E-17
7.550000E+03	1.858857E-15	3.477291E-17
7.560000E+03	1.854814E-15	3.770675E-17
7.570000E+03	1.850487E-15	4.073703E-17
7.580000E+03	1.845922E-15	4.377222E-17
7.590000E+03	1.841159E-15	4.674715E-17
7.600000E+03	1.836261E-15	4.961641E-17
7.610000E+03	1.831230E-15	5.234650E-17
7.620000E+03	1.826091E-15	5.491437E-17
7.630000E+03	1.820868E-15	5.730403E-17
7.640000E+03	1.815609E-15	5.950573E-17
7.650000E+03	1.810300E-15	6.151180E-17
7.660000E+03	1.804953E-15	6.331850E-17
7.670000E+03	1.799607E-15	6.492548E-17
7.680000E+03	1.794239E-15	6.633208E-17
7.690000E+03	1.788879E-15	6.754114E-17
7.700000E+03	1.783498E-15	6.855427E-17
7.710000E+03	1.778121E-15	6.937605E-17
7.720000E+03	1.772742E-15	7.001043E-17
7.730000E+03	1.767353E-15	7.046159E-17
7.740000E+03	1.761943E-15	7.073380E-17
7.750000E+03	1.756469E-15	7.083007E-17
7.760000E+03	1.750978E-15	7.075686E-17
