#wls	flux	fluxerr
1.600000E+03	1.331792E-17	1.098969E-17
1.640000E+03	1.360426E-17	1.108072E-17
1.680000E+03	1.390952E-17	1.117698E-17
1.720000E+03	1.422462E-17	1.127034E-17
1.760000E+03	1.455011E-17	1.136054E-17
1.800000E+03	1.489671E-17	1.145513E-17
1.840000E+03	1.525513E-17	1.154595E-17
1.880000E+03	1.563122E-17	1.163654E-17
1.920000E+03	1.602591E-17	1.172651E-17
1.960000E+03	1.644014E-17	1.181541E-17
2.000000E+03	1.687494E-17	1.190275E-17
2.040000E+03	1.732590E-17	1.198420E-17
2.080000E+03	1.779952E-17	1.206301E-17
2.120000E+03	1.830267E-17	1.214231E-17
2.160000E+03	1.882541E-17	1.221384E-17
2.200000E+03	1.937468E-17	1.228063E-17
2.240000E+03	1.995195E-17	1.234184E-17
2.280000E+03	2.055875E-17	1.239654E-17
2.320000E+03	2.120288E-17	1.244738E-17
2.360000E+03	2.187384E-17	1.248599E-17
2.400000E+03	2.257953E-17	1.251484E-17
2.440000E+03	2.332837E-17	1.253619E-17
2.480000E+03	2.411614E-17	1.254506E-17
2.520000E+03	2.494500E-17	1.254000E-17
2.560000E+03	2.581722E-17	1.251944E-17
2.600000E+03	2.673518E-17	1.248171E-17
2.640000E+03	2.770864E-17	1.242831E-17
2.680000E+03	2.873333E-17	1.235405E-17
2.720000E+03	2.981961E-17	1.226015E-17
2.760000E+03	3.096322E-17	1.214142E-17
2.800000E+03	3.216726E-17	1.199595E-17
2.840000E+03	3.344313E-17	1.182472E-17
2.880000E+03	3.478655E-17	1.162296E-17
2.920000E+03	3.620969E-17	1.139179E-17
2.960000E+03	3.770827E-17	1.112716E-17
3.000000E+03	3.929533E-17	1.083086E-17
3.010000E+03	3.970593E-17	1.075164E-17
3.020000E+03	4.012131E-17	1.067012E-17
3.030000E+03	4.055067E-17	1.058872E-17
3.040000E+03	4.097584E-17	1.050265E-17
3.050000E+03	4.140596E-17	1.041437E-17
3.060000E+03	4.185042E-17	1.032620E-17
3.070000E+03	4.229070E-17	1.023357E-17
3.080000E+03	4.274557E-17	1.014109E-17
3.090000E+03	4.320577E-17	1.004652E-17
3.100000E+03	4.367136E-17	9.949931E-18
3.110000E+03	4.414241E-17	9.851388E-18
3.120000E+03	4.461899E-17	9.750979E-18
3.130000E+03	4.510115E-17	9.648797E-18
3.140000E+03	4.559883E-17	9.547012E-18
3.150000E+03	4.609245E-17	9.441583E-18
3.160000E+03	4.660185E-17	9.336737E-18
3.170000E+03	4.710719E-17	9.228584E-18
3.180000E+03	4.762859E-17	9.121257E-18
3.190000E+03	4.815613E-17	9.012929E-18
3.200000E+03	4.868987E-17	8.903792E-18
3.210000E+03	4.922991E-17	8.794060E-18
3.220000E+03	4.978671E-17	8.685778E-18
3.230000E+03	5.033959E-17	8.575534E-18
3.240000E+03	5.089896E-17	8.465449E-18
3.250000E+03	5.147553E-17	8.357546E-18
3.260000E+03	5.205890E-17	8.250357E-18
3.270000E+03	5.263832E-17	8.142558E-18
3.280000E+03	5.323538E-17	8.037886E-18
3.290000E+03	5.383944E-17	7.935038E-18
3.300000E+03	5.446158E-17	7.836020E-18
3.310000E+03	5.507991E-17	7.738076E-18
3.320000E+03	5.570542E-17	7.643289E-18
3.330000E+03	5.634946E-17	7.553658E-18
3.340000E+03	5.698963E-17	7.466645E-18
3.350000E+03	5.764860E-17	7.385776E-18
3.360000E+03	5.831517E-17	7.310078E-18
3.370000E+03	5.898938E-17	7.240095E-18
3.380000E+03	5.967129E-17	7.176371E-18
3.390000E+03	6.036095E-17	7.119442E-18
3.400000E+03	6.105838E-17	7.069826E-18
3.410000E+03	6.177559E-17	7.029379E-18
3.420000E+03	6.248879E-17	6.995826E-18
3.430000E+03	6.322200E-17	6.972291E-18
3.440000E+03	6.396329E-17	6.957776E-18
3.450000E+03	6.471268E-17	6.952579E-18
3.460000E+03	6.547017E-17	6.956924E-18
3.470000E+03	6.623578E-17	6.970953E-18
3.480000E+03	6.700949E-17	6.994711E-18
3.490000E+03	6.779131E-17	7.028098E-18
3.500000E+03	6.859400E-17	7.072220E-18
3.510000E+03	6.939207E-17	7.124147E-18
3.520000E+03	7.021115E-17	7.186142E-18
3.530000E+03	7.103844E-17	7.256438E-18
3.540000E+03	7.187389E-17	7.334518E-18
3.550000E+03	7.271746E-17	7.419809E-18
3.560000E+03	7.356908E-17	7.511692E-18
3.570000E+03	7.444217E-17	7.610888E-18
3.580000E+03	7.530982E-17	7.713972E-18
3.590000E+03	7.618533E-17	7.821608E-18
3.600000E+03	7.708238E-17	7.934503E-18
3.610000E+03	7.798734E-17	8.050552E-18
3.620000E+03	7.890009E-17	8.169045E-18
3.630000E+03	7.982056E-17	8.289279E-18
3.640000E+03	8.074863E-17	8.410566E-18
3.650000E+03	8.168421E-17	8.532231E-18
3.660000E+03	8.264158E-17	8.655128E-18
3.670000E+03	8.359195E-17	8.775627E-18
3.680000E+03	8.456410E-17	8.896148E-18
3.690000E+03	8.554352E-17	9.014601E-18
3.700000E+03	8.651529E-17	9.128868E-18
3.710000E+03	8.750880E-17	9.241534E-18
3.720000E+03	8.850925E-17	9.350550E-18
3.730000E+03	8.953165E-17	9.457046E-18
3.740000E+03	9.054571E-17	9.557394E-18
3.750000E+03	9.156637E-17	9.652774E-18
3.760000E+03	9.260897E-17	9.744436E-18
3.770000E+03	9.365817E-17	9.830420E-18
3.780000E+03	9.469819E-17	9.908770E-18
3.790000E+03	9.576017E-17	9.982476E-18
3.800000E+03	9.682847E-17	1.004965E-17
3.810000E+03	9.790301E-17	1.011008E-17
3.820000E+03	9.899981E-17	1.016523E-17
3.830000E+03	1.000867E-16	1.021163E-17
3.840000E+03	1.011797E-16	1.025082E-17
3.850000E+03	1.022950E-16	1.028437E-17
3.860000E+03	1.034166E-16	1.031056E-17
3.870000E+03	1.045276E-16	1.032772E-17
3.880000E+03	1.056614E-16	1.033916E-17
3.890000E+03	1.068012E-16	1.034326E-17
3.900000E+03	1.079642E-16	1.034170E-17
3.910000E+03	1.091166E-16	1.033134E-17
3.920000E+03	1.102751E-16	1.031390E-17
3.930000E+03	1.114573E-16	1.029114E-17
3.940000E+03	1.126287E-16	1.026000E-17
3.950000E+03	1.138241E-16	1.022385E-17
3.960000E+03	1.150263E-16	1.018128E-17
3.970000E+03	1.162178E-16	1.013093E-17
3.980000E+03	1.174341E-16	1.007611E-17
3.990000E+03	1.186578E-16	1.001547E-17
4.000000E+03	1.199072E-16	9.950705E-18
4.010000E+03	1.211466E-16	9.878992E-18
4.020000E+03	1.223944E-16	9.802027E-18
4.030000E+03	1.236693E-16	9.721422E-18
4.040000E+03	1.249351E-16	9.634411E-18
4.050000E+03	1.262293E-16	9.543989E-18
4.060000E+03	1.275342E-16	9.448806E-18
4.070000E+03	1.288506E-16	9.348930E-18
4.080000E+03	1.301793E-16	9.244398E-18
4.090000E+03	1.315214E-16	9.135212E-18
4.100000E+03	1.328779E-16	9.021341E-18
4.110000E+03	1.342503E-16	8.902716E-18
4.120000E+03	1.356400E-16	8.779232E-18
4.130000E+03	1.370681E-16	8.651981E-18
4.140000E+03	1.384974E-16	8.518289E-18
4.150000E+03	1.399692E-16	8.380386E-18
4.160000E+03	1.414659E-16	8.236791E-18
4.170000E+03	1.429697E-16	8.086096E-18
4.180000E+03	1.445228E-16	7.930306E-18
4.190000E+03	1.461076E-16	7.767966E-18
4.200000E+03	1.477264E-16	7.598786E-18
4.210000E+03	1.493815E-16	7.422506E-18
4.220000E+03	1.510751E-16	7.238920E-18
4.230000E+03	1.528301E-16	7.048867E-18
4.240000E+03	1.546069E-16	6.850387E-18
4.250000E+03	1.564278E-16	6.644648E-18
4.260000E+03	1.583156E-16	6.432924E-18
4.270000E+03	1.602289E-16	6.214161E-18
4.280000E+03	1.622114E-16	5.991188E-18
4.290000E+03	1.642423E-16	5.764779E-18
4.300000E+03	1.662996E-16	5.536510E-18
4.310000E+03	1.684274E-16	5.311031E-18
4.320000E+03	1.706032E-16	5.091736E-18
4.330000E+03	1.728263E-16	4.883997E-18
4.340000E+03	1.750961E-16	4.694539E-18
4.350000E+03	1.774114E-16	4.531473E-18
4.360000E+03	1.797712E-16	4.404091E-18
4.370000E+03	1.821743E-16	4.322307E-18
4.380000E+03	1.846436E-16	4.296215E-18
4.390000E+03	1.871306E-16	4.332366E-18
4.400000E+03	1.896601E-16	4.431988E-18
4.410000E+03	1.922594E-16	4.589304E-18
4.420000E+03	1.948830E-16	4.794508E-18
4.430000E+03	1.975587E-16	5.038676E-18
4.440000E+03	2.003152E-16	5.313205E-18
4.450000E+03	2.031314E-16	5.609054E-18
4.460000E+03	2.059852E-16	5.918154E-18
4.470000E+03	2.089311E-16	6.235743E-18
4.480000E+03	2.119202E-16	6.555164E-18
4.490000E+03	2.150072E-16	6.873775E-18
4.500000E+03	2.181680E-16	7.187363E-18
4.510000E+03	2.214037E-16	7.493155E-18
4.520000E+03	2.246872E-16	7.787993E-18
4.530000E+03	2.280722E-16	8.072020E-18
4.540000E+03	2.315299E-16	8.343031E-18
4.550000E+03	2.350577E-16	8.600129E-18
4.560000E+03	2.386517E-16	8.842792E-18
4.570000E+03	2.423071E-16	9.070860E-18
4.580000E+03	2.460182E-16	9.284535E-18
4.590000E+03	2.497781E-16	9.484391E-18
4.600000E+03	2.535794E-16	9.671381E-18
4.610000E+03	2.574138E-16	9.846844E-18
4.620000E+03	2.612724E-16	1.001251E-17
4.630000E+03	2.651461E-16	1.017048E-17
4.640000E+03	2.690254E-16	1.032323E-17
4.650000E+03	2.729006E-16	1.047352E-17
4.660000E+03	2.767624E-16	1.062439E-17
4.670000E+03	2.806013E-16	1.077901E-17
4.680000E+03	2.844081E-16	1.094060E-17
4.690000E+03	2.881743E-16	1.111229E-17
4.700000E+03	2.918913E-16	1.129696E-17
4.710000E+03	2.955179E-16	1.149580E-17
4.720000E+03	2.991131E-16	1.171339E-17
4.730000E+03	3.026367E-16	1.194971E-17
4.740000E+03	3.060816E-16	1.220514E-17
4.750000E+03	3.094411E-16	1.247935E-17
4.760000E+03	3.127088E-16	1.277130E-17
4.770000E+03	3.158783E-16	1.307929E-17
4.780000E+03	3.189437E-16	1.340110E-17
4.790000E+03	3.218990E-16	1.373409E-17
4.800000E+03	3.247027E-16	1.407372E-17
4.810000E+03	3.274201E-16	1.441988E-17
4.820000E+03	3.300102E-16	1.476777E-17
4.830000E+03	3.324675E-16	1.511412E-17
4.840000E+03	3.347504E-16	1.545404E-17
4.850000E+03	3.369262E-16	1.578779E-17
4.860000E+03	3.389176E-16	1.610913E-17
4.870000E+03	3.407930E-16	1.641888E-17
4.880000E+03	3.424756E-16	1.671119E-17
4.890000E+03	3.440353E-16	1.698754E-17
4.900000E+03	3.453962E-16	1.724258E-17
4.910000E+03	3.465933E-16	1.747665E-17
4.920000E+03	3.476621E-16	1.769045E-17
4.930000E+03	3.485293E-16	1.787942E-17
4.940000E+03	3.492324E-16	1.804486E-17
4.950000E+03	3.497733E-16	1.818646E-17
4.960000E+03	3.501549E-16	1.830419E-17
4.970000E+03	3.503808E-16	1.839824E-17
4.980000E+03	3.504558E-16	1.846899E-17
4.990000E+03	3.503855E-16	1.851703E-17
5.000000E+03	3.501404E-16	1.854117E-17
5.010000E+03	3.497997E-16	1.854608E-17
5.020000E+03	3.493352E-16	1.853079E-17
5.030000E+03	3.487200E-16	1.849443E-17
5.040000E+03	3.480343E-16	1.844183E-17
5.050000E+03	3.472166E-16	1.837032E-17
5.060000E+03	3.463123E-16	1.828285E-17
5.070000E+03	3.453313E-16	1.818045E-17
5.080000E+03	3.442838E-16	1.806413E-17
5.090000E+03	3.431798E-16	1.793482E-17
5.100000E+03	3.420293E-16	1.779337E-17
5.110000E+03	3.408421E-16	1.764057E-17
5.120000E+03	3.396276E-16	1.747708E-17
5.130000E+03	3.383614E-16	1.730179E-17
5.140000E+03	3.371191E-16	1.711862E-17
5.150000E+03	3.358419E-16	1.692455E-17
5.160000E+03	3.345707E-16	1.672156E-17
5.170000E+03	3.333121E-16	1.650981E-17
5.180000E+03	3.320721E-16	1.628938E-17
5.190000E+03	3.308561E-16	1.606021E-17
5.200000E+03	3.296688E-16	1.582215E-17
5.210000E+03	3.284827E-16	1.557344E-17
5.220000E+03	3.273651E-16	1.531675E-17
5.230000E+03	3.262562E-16	1.504864E-17
5.240000E+03	3.252215E-16	1.477146E-17
5.250000E+03	3.242013E-16	1.448172E-17
5.260000E+03	3.232294E-16	1.418013E-17
5.270000E+03	3.223081E-16	1.386591E-17
5.280000E+03	3.214093E-16	1.353694E-17
5.290000E+03	3.205964E-16	1.319496E-17
5.300000E+03	3.198412E-16	1.283779E-17
5.310000E+03	3.191165E-16	1.246344E-17
5.320000E+03	3.184552E-16	1.207237E-17
5.330000E+03	3.178604E-16	1.166390E-17
5.340000E+03	3.173353E-16	1.123750E-17
5.350000E+03	3.168834E-16	1.079279E-17
5.360000E+03	3.164791E-16	1.032872E-17
5.370000E+03	3.161849E-16	9.847481E-18
5.380000E+03	3.159462E-16	9.347908E-18
5.390000E+03	3.157962E-16	8.832295E-18
5.400000E+03	3.157386E-16	8.302861E-18
5.410000E+03	3.157766E-16	7.763073E-18
5.420000E+03	3.159129E-16	7.218187E-18
5.430000E+03	3.161203E-16	6.675428E-18
5.440000E+03	3.164283E-16	6.147071E-18
5.450000E+03	3.168360E-16	5.649949E-18
5.460000E+03	3.173406E-16	5.207946E-18
5.470000E+03	3.179373E-16	4.853147E-18
5.480000E+03	3.186189E-16	4.624245E-18
5.490000E+03	3.193475E-16	4.558918E-18
5.500000E+03	3.201679E-16	4.675247E-18
5.510000E+03	3.210044E-16	4.947622E-18
5.520000E+03	3.218658E-16	5.337081E-18
5.530000E+03	3.227020E-16	5.804938E-18
5.540000E+03	3.235492E-16	6.321083E-18
5.550000E+03	3.243289E-16	6.861235E-18
5.560000E+03	3.250795E-16	7.409963E-18
5.570000E+03	3.257262E-16	7.954312E-18
5.580000E+03	3.262552E-16	8.485987E-18
5.590000E+03	3.267139E-16	9.000822E-18
5.600000E+03	3.270390E-16	9.493497E-18
5.610000E+03	3.272867E-16	9.963241E-18
5.620000E+03	3.274030E-16	1.040699E-17
5.630000E+03	3.274246E-16	1.082505E-17
5.640000E+03	3.273350E-16	1.121654E-17
5.650000E+03	3.272073E-16	1.158399E-17
5.660000E+03	3.270033E-16	1.192639E-17
5.670000E+03	3.267729E-16	1.224598E-17
5.680000E+03	3.265390E-16	1.254418E-17
5.690000E+03	3.262971E-16	1.282143E-17
5.700000E+03	3.261280E-16	1.308147E-17
5.710000E+03	3.259988E-16	1.332359E-17
5.720000E+03	3.259605E-16	1.355036E-17
5.730000E+03	3.260344E-16	1.376309E-17
5.740000E+03	3.262402E-16	1.396293E-17
5.750000E+03	3.265675E-16	1.414966E-17
5.760000E+03	3.270597E-16	1.432526E-17
5.770000E+03	3.277300E-16	1.449032E-17
5.780000E+03	3.285891E-16	1.464525E-17
5.790000E+03	3.296173E-16	1.478899E-17
5.800000E+03	3.308768E-16	1.492411E-17
5.810000E+03	3.323153E-16	1.504794E-17
5.820000E+03	3.339625E-16	1.516149E-17
5.830000E+03	3.357900E-16	1.526309E-17
5.840000E+03	3.378523E-16	1.535482E-17
5.850000E+03	3.400893E-16	1.543353E-17
5.860000E+03	3.425245E-16	1.549986E-17
5.870000E+03	3.451523E-16	1.555313E-17
5.880000E+03	3.479374E-16	1.559129E-17
5.890000E+03	3.509315E-16	1.561618E-17
5.900000E+03	3.540696E-16	1.562436E-17
5.910000E+03	3.573747E-16	1.561630E-17
5.920000E+03	3.608116E-16	1.558976E-17
5.930000E+03	3.644359E-16	1.554638E-17
5.940000E+03	3.681837E-16	1.548246E-17
5.950000E+03	3.720833E-16	1.539809E-17
5.960000E+03	3.761335E-16	1.529189E-17
5.970000E+03	3.803027E-16	1.516101E-17
5.980000E+03	3.846221E-16	1.500492E-17
5.990000E+03	3.890917E-16	1.482153E-17
6.000000E+03	3.937108E-16	1.460845E-17
6.010000E+03	3.984767E-16	1.436295E-17
6.020000E+03	4.033508E-16	1.408083E-17
6.030000E+03	4.083560E-16	1.375993E-17
6.040000E+03	4.134776E-16	1.339658E-17
6.050000E+03	4.186947E-16	1.298691E-17
6.060000E+03	4.239440E-16	1.252586E-17
6.070000E+03	4.292229E-16	1.201052E-17
6.080000E+03	4.344863E-16	1.143710E-17
6.090000E+03	4.396802E-16	1.080228E-17
6.100000E+03	4.447067E-16	1.010277E-17
6.110000E+03	4.495698E-16	9.339226E-18
6.120000E+03	4.541240E-16	8.511197E-18
6.130000E+03	4.582951E-16	7.623506E-18
6.140000E+03	4.620875E-16	6.687886E-18
6.150000E+03	4.653640E-16	5.723982E-18
6.160000E+03	4.681135E-16	4.773630E-18
6.170000E+03	4.703055E-16	3.920442E-18
6.180000E+03	4.718943E-16	3.327497E-18
6.190000E+03	4.729750E-16	3.227409E-18
6.200000E+03	4.734948E-16	3.681787E-18
6.210000E+03	4.735078E-16	4.483892E-18
6.220000E+03	4.730149E-16	5.438173E-18
6.230000E+03	4.721558E-16	6.439073E-18
6.240000E+03	4.709369E-16	7.433917E-18
6.250000E+03	4.694943E-16	8.398083E-18
6.260000E+03	4.678980E-16	9.319081E-18
6.270000E+03	4.663367E-16	1.019388E-17
6.280000E+03	4.648489E-16	1.102073E-17
6.290000E+03	4.635841E-16	1.180293E-17
6.300000E+03	4.626491E-16	1.254476E-17
6.310000E+03	4.621068E-16	1.325056E-17
6.320000E+03	4.620873E-16	1.392733E-17
6.330000E+03	4.626750E-16	1.458150E-17
6.340000E+03	4.639456E-16	1.521956E-17
6.350000E+03	4.659660E-16	1.584792E-17
6.360000E+03	4.687561E-16	1.647140E-17
6.370000E+03	4.724013E-16	1.709697E-17
6.380000E+03	4.769385E-16	1.772981E-17
6.390000E+03	4.823933E-16	1.837446E-17
6.400000E+03	4.887386E-16	1.903311E-17
6.410000E+03	4.960095E-16	1.970995E-17
6.420000E+03	5.041851E-16	2.040664E-17
6.430000E+03	5.132250E-16	2.112360E-17
6.440000E+03	5.230237E-16	2.185806E-17
6.450000E+03	5.335331E-16	2.260911E-17
6.460000E+03	5.446373E-16	2.337253E-17
6.470000E+03	5.561911E-16	2.414233E-17
6.480000E+03	5.679737E-16	2.490879E-17
6.490000E+03	5.798705E-16	2.566636E-17
6.500000E+03	5.915565E-16	2.639994E-17
6.510000E+03	6.028202E-16	2.709912E-17
6.520000E+03	6.133361E-16	2.774827E-17
6.530000E+03	6.228641E-16	2.833553E-17
6.540000E+03	6.311651E-16	2.884922E-17
6.550000E+03	6.378572E-16	2.927132E-17
6.560000E+03	6.426778E-16	2.958952E-17
6.570000E+03	6.455010E-16	2.979817E-17
6.580000E+03	6.460389E-16	2.988453E-17
6.590000E+03	6.442123E-16	2.984593E-17
6.600000E+03	6.399516E-16	2.968051E-17
6.610000E+03	6.332023E-16	2.938741E-17
6.620000E+03	6.241296E-16	2.897621E-17
6.630000E+03	6.127600E-16	2.845019E-17
6.640000E+03	5.993297E-16	2.782238E-17
6.650000E+03	5.840256E-16	2.710345E-17
6.660000E+03	5.672140E-16	2.631223E-17
6.670000E+03	5.490988E-16	2.545978E-17
6.680000E+03	5.300348E-16	2.456387E-17
6.690000E+03	5.103301E-16	2.363980E-17
6.700000E+03	4.902419E-16	2.270020E-17
6.710000E+03	4.701270E-16	2.176205E-17
6.720000E+03	4.501585E-16	2.083352E-17
6.730000E+03	4.305943E-16	1.992654E-17
6.740000E+03	4.116195E-16	1.904950E-17
6.750000E+03	3.933536E-16	1.820764E-17
6.760000E+03	3.759494E-16	1.740765E-17
6.770000E+03	3.595233E-16	1.665455E-17
6.780000E+03	3.440486E-16	1.594671E-17
6.790000E+03	3.296480E-16	1.528945E-17
6.800000E+03	3.163086E-16	1.468184E-17
6.810000E+03	3.040050E-16	1.412244E-17
6.820000E+03	2.927496E-16	1.361159E-17
6.830000E+03	2.825180E-16	1.314798E-17
6.840000E+03	2.732567E-16	1.272900E-17
6.850000E+03	2.649740E-16	1.235494E-17
6.860000E+03	2.575867E-16	1.202189E-17
6.870000E+03	2.510757E-16	1.172894E-17
6.880000E+03	2.453997E-16	1.147414E-17
6.890000E+03	2.405180E-16	1.125562E-17
6.900000E+03	2.363723E-16	1.107066E-17
6.910000E+03	2.329636E-16	1.091933E-17
6.920000E+03	2.302185E-16	1.079821E-17
6.930000E+03	2.281229E-16	1.070665E-17
6.940000E+03	2.266275E-16	1.064233E-17
6.950000E+03	2.257402E-16	1.060560E-17
6.960000E+03	2.253975E-16	1.059343E-17
6.970000E+03	2.255927E-16	1.060545E-17
6.980000E+03	2.263022E-16	1.064047E-17
6.990000E+03	2.275040E-16	1.069732E-17
7.000000E+03	2.291771E-16	1.077489E-17
7.010000E+03	2.312823E-16	1.087115E-17
7.020000E+03	2.338185E-16	1.098584E-17
7.030000E+03	2.367662E-16	1.111781E-17
7.040000E+03	2.401062E-16	1.126586E-17
7.050000E+03	2.438190E-16	1.142875E-17
7.060000E+03	2.478645E-16	1.160425E-17
7.070000E+03	2.522421E-16	1.179189E-17
7.080000E+03	2.569306E-16	1.199021E-17
7.090000E+03	2.619080E-16	1.219765E-17
7.100000E+03	2.671512E-16	1.241255E-17
7.110000E+03	2.726357E-16	1.263312E-17
7.120000E+03	2.783129E-16	1.285637E-17
7.130000E+03	2.841767E-16	1.308125E-17
7.140000E+03	2.902211E-16	1.330661E-17
7.150000E+03	2.963423E-16	1.352677E-17
7.160000E+03	3.025770E-16	1.374240E-17
7.170000E+03	3.088631E-16	1.394964E-17
7.180000E+03	3.151335E-16	1.414432E-17
7.190000E+03	3.213681E-16	1.432438E-17
7.200000E+03	3.275179E-16	1.448644E-17
7.210000E+03	3.335305E-16	1.462692E-17
7.220000E+03	3.393491E-16	1.474212E-17
7.230000E+03	3.449137E-16	1.482817E-17
7.240000E+03	3.501322E-16	1.487993E-17
7.250000E+03	3.549672E-16	1.489474E-17
7.260000E+03	3.593823E-16	1.487002E-17
7.270000E+03	3.632519E-16	1.479970E-17
7.280000E+03	3.665110E-16	1.468049E-17
7.290000E+03	3.691601E-16	1.451199E-17
7.300000E+03	3.711153E-16	1.429065E-17
7.310000E+03	3.722995E-16	1.401365E-17
7.320000E+03	3.727087E-16	1.368134E-17
7.330000E+03	3.723199E-16	1.329371E-17
7.340000E+03	3.711242E-16	1.285164E-17
7.350000E+03	3.691272E-16	1.235693E-17
7.360000E+03	3.663188E-16	1.181128E-17
7.370000E+03	3.627964E-16	1.122025E-17
7.380000E+03	3.585480E-16	1.058624E-17
7.390000E+03	3.536659E-16	9.915240E-18
7.400000E+03	3.482218E-16	9.212847E-18
7.410000E+03	3.422952E-16	8.485197E-18
7.420000E+03	3.359705E-16	7.738965E-18
7.430000E+03	3.293348E-16	6.981477E-18
7.440000E+03	3.224478E-16	6.220494E-18
7.450000E+03	3.154232E-16	5.466597E-18
7.460000E+03	3.083688E-16	4.733070E-18
7.470000E+03	3.013075E-16	4.037424E-18
7.480000E+03	2.943363E-16	3.408627E-18
7.490000E+03	2.874939E-16	2.892122E-18
7.500000E+03	2.808865E-16	2.555475E-18
7.510000E+03	2.745381E-16	2.466602E-18
7.520000E+03	2.684665E-16	2.623063E-18
7.530000E+03	2.627277E-16	2.942003E-18
7.540000E+03	2.573702E-16	3.342735E-18
7.550000E+03	2.523703E-16	3.773061E-18
7.560000E+03	2.477668E-16	4.205352E-18
7.570000E+03	2.435503E-16	4.625334E-18
7.580000E+03	2.397710E-16	5.027493E-18
7.590000E+03	2.364110E-16	5.409268E-18
7.600000E+03	2.334499E-16	5.770152E-18
7.610000E+03	2.309047E-16	6.111741E-18
7.620000E+03	2.287679E-16	6.435761E-18
7.630000E+03	2.270483E-16	6.744749E-18
7.640000E+03	2.256919E-16	7.039499E-18
7.650000E+03	2.246814E-16	7.321748E-18
7.660000E+03	2.240353E-16	7.594349E-18
7.670000E+03	2.237102E-16	7.858016E-18
7.680000E+03	2.236597E-16	8.113065E-18
7.690000E+03	2.238942E-16	8.361627E-18
7.700000E+03	2.243432E-16	8.602680E-18
7.710000E+03	2.249936E-16	8.837085E-18
7.720000E+03	2.258116E-16	9.064736E-18
7.730000E+03	2.267627E-16	9.285312E-18
7.740000E+03	2.278127E-16	9.498312E-18
7.750000E+03	2.289277E-16	9.703111E-18
7.760000E+03	2.300546E-16	9.898114E-18
