#wls	flux	fluxerr
1.600000E+03	1.018089E-17	8.819963E-18
1.640000E+03	1.040012E-17	8.906514E-18
1.680000E+03	1.062786E-17	8.993044E-18
1.720000E+03	1.086922E-17	9.083325E-18
1.760000E+03	1.111547E-17	9.169499E-18
1.800000E+03	1.137652E-17	9.259198E-18
1.840000E+03	1.165315E-17	9.352311E-18
1.880000E+03	1.193633E-17	9.440866E-18
1.920000E+03	1.223654E-17	9.532513E-18
1.960000E+03	1.254962E-17	9.623143E-18
2.000000E+03	1.288154E-17	9.716486E-18
2.040000E+03	1.322808E-17	9.808366E-18
2.080000E+03	1.359011E-17	9.898516E-18
2.120000E+03	1.396856E-17	9.986641E-18
2.160000E+03	1.437011E-17	1.007640E-17
2.200000E+03	1.479041E-17	1.016347E-17
2.240000E+03	1.523061E-17	1.024747E-17
2.280000E+03	1.569198E-17	1.032799E-17
2.320000E+03	1.618205E-17	1.040855E-17
2.360000E+03	1.669638E-17	1.048469E-17
2.400000E+03	1.724306E-17	1.055987E-17
2.440000E+03	1.781762E-17	1.062952E-17
2.480000E+03	1.842193E-17	1.069304E-17
2.520000E+03	1.905801E-17	1.074978E-17
2.560000E+03	1.973528E-17	1.080304E-17
2.600000E+03	2.044929E-17	1.084811E-17
2.640000E+03	2.120265E-17	1.088426E-17
2.680000E+03	2.200606E-17	1.091465E-17
2.720000E+03	2.285523E-17	1.093457E-17
2.760000E+03	2.375356E-17	1.094328E-17
2.800000E+03	2.471338E-17	1.094389E-17
2.840000E+03	2.573069E-17	1.093187E-17
2.880000E+03	2.681001E-17	1.090670E-17
2.920000E+03	2.796574E-17	1.087170E-17
2.960000E+03	2.919446E-17	1.082298E-17
3.000000E+03	3.050215E-17	1.076074E-17
3.010000E+03	3.084987E-17	1.074582E-17
3.020000E+03	3.119282E-17	1.072653E-17
3.030000E+03	3.155175E-17	1.071003E-17
3.040000E+03	3.190594E-17	1.068921E-17
3.050000E+03	3.226588E-17	1.066769E-17
3.060000E+03	3.264244E-17	1.064898E-17
3.070000E+03	3.301434E-17	1.062608E-17
3.080000E+03	3.340331E-17	1.060604E-17
3.090000E+03	3.379873E-17	1.058539E-17
3.100000E+03	3.418956E-17	1.056071E-17
3.110000E+03	3.459817E-17	1.053897E-17
3.120000E+03	3.500226E-17	1.051334E-17
3.130000E+03	3.542464E-17	1.049072E-17
3.140000E+03	3.585416E-17	1.046773E-17
3.150000E+03	3.627927E-17	1.044108E-17
3.160000E+03	3.672344E-17	1.041760E-17
3.170000E+03	3.717524E-17	1.039398E-17
3.180000E+03	3.762273E-17	1.036696E-17
3.190000E+03	3.809013E-17	1.034332E-17
3.200000E+03	3.856564E-17	1.031981E-17
3.210000E+03	3.904943E-17	1.029653E-17
3.220000E+03	3.952911E-17	1.027032E-17
3.230000E+03	4.002989E-17	1.024785E-17
3.240000E+03	4.053950E-17	1.022597E-17
3.250000E+03	4.105812E-17	1.020482E-17
3.260000E+03	4.158596E-17	1.018452E-17
3.270000E+03	4.212320E-17	1.016523E-17
3.280000E+03	4.267005E-17	1.014712E-17
3.290000E+03	4.322671E-17	1.013033E-17
3.300000E+03	4.377970E-17	1.011188E-17
3.310000E+03	4.435647E-17	1.009829E-17
3.320000E+03	4.494368E-17	1.008657E-17
3.330000E+03	4.554156E-17	1.007691E-17
3.340000E+03	4.615033E-17	1.006951E-17
3.350000E+03	4.678468E-17	1.006768E-17
3.360000E+03	4.741607E-17	1.006540E-17
3.370000E+03	4.805903E-17	1.006600E-17
3.380000E+03	4.871380E-17	1.006968E-17
3.390000E+03	4.938062E-17	1.007667E-17
3.400000E+03	5.005972E-17	1.008718E-17
3.410000E+03	5.075134E-17	1.010140E-17
3.420000E+03	5.145572E-17	1.011953E-17
3.430000E+03	5.218895E-17	1.014487E-17
3.440000E+03	5.291973E-17	1.017140E-17
3.450000E+03	5.366397E-17	1.020239E-17
3.460000E+03	5.442188E-17	1.023797E-17
3.470000E+03	5.519367E-17	1.027826E-17
3.480000E+03	5.599637E-17	1.032643E-17
3.490000E+03	5.679669E-17	1.037633E-17
3.500000E+03	5.761142E-17	1.043106E-17
3.510000E+03	5.845817E-17	1.049373E-17
3.520000E+03	5.930236E-17	1.055801E-17
3.530000E+03	6.016135E-17	1.062694E-17
3.540000E+03	6.105335E-17	1.070356E-17
3.550000E+03	6.194246E-17	1.078138E-17
3.560000E+03	6.286520E-17	1.086661E-17
3.570000E+03	6.378473E-17	1.095262E-17
3.580000E+03	6.471945E-17	1.104239E-17
3.590000E+03	6.568867E-17	1.113895E-17
3.600000E+03	6.665410E-17	1.123550E-17
3.610000E+03	6.765457E-17	1.133833E-17
3.620000E+03	6.865077E-17	1.144054E-17
3.630000E+03	6.968250E-17	1.154845E-17
3.640000E+03	7.070943E-17	1.165505E-17
3.650000E+03	7.177233E-17	1.176673E-17
3.660000E+03	7.282981E-17	1.187635E-17
3.670000E+03	7.392367E-17	1.199039E-17
3.680000E+03	7.503301E-17	1.210506E-17
3.690000E+03	7.613587E-17	1.221648E-17
3.700000E+03	7.727559E-17	1.233126E-17
3.710000E+03	7.840802E-17	1.244195E-17
3.720000E+03	7.957757E-17	1.255526E-17
3.730000E+03	8.076192E-17	1.266726E-17
3.740000E+03	8.193759E-17	1.277390E-17
3.750000E+03	8.315064E-17	1.288202E-17
3.760000E+03	8.437785E-17	1.298761E-17
3.770000E+03	8.559478E-17	1.308657E-17
3.780000E+03	8.684920E-17	1.318586E-17
3.790000E+03	8.811694E-17	1.328142E-17
3.800000E+03	8.939767E-17	1.337283E-17
3.810000E+03	9.066568E-17	1.345594E-17
3.820000E+03	9.197103E-17	1.353787E-17
3.830000E+03	9.328828E-17	1.361449E-17
3.840000E+03	9.461700E-17	1.368540E-17
3.850000E+03	9.595676E-17	1.375023E-17
3.860000E+03	9.728017E-17	1.380480E-17
3.870000E+03	9.864029E-17	1.385638E-17
3.880000E+03	1.000100E-16	1.390079E-17
3.890000E+03	1.013888E-16	1.393769E-17
3.900000E+03	1.027760E-16	1.396674E-17
3.910000E+03	1.041712E-16	1.398761E-17
3.920000E+03	1.055449E-16	1.399616E-17
3.930000E+03	1.069539E-16	1.399975E-17
3.940000E+03	1.083689E-16	1.399423E-17
3.950000E+03	1.097894E-16	1.397933E-17
3.960000E+03	1.112147E-16	1.395477E-17
3.970000E+03	1.126441E-16	1.392029E-17
3.980000E+03	1.140770E-16	1.387564E-17
3.990000E+03	1.155126E-16	1.382059E-17
4.000000E+03	1.169503E-16	1.375490E-17
4.010000E+03	1.183895E-16	1.367837E-17
4.020000E+03	1.198294E-16	1.359080E-17
4.030000E+03	1.212695E-16	1.349199E-17
4.040000E+03	1.227093E-16	1.338178E-17
4.050000E+03	1.241151E-16	1.325648E-17
4.060000E+03	1.255524E-16	1.312301E-17
4.070000E+03	1.269879E-16	1.297768E-17
4.080000E+03	1.284214E-16	1.282035E-17
4.090000E+03	1.298527E-16	1.265090E-17
4.100000E+03	1.312818E-16	1.246921E-17
4.110000E+03	1.327086E-16	1.227517E-17
4.120000E+03	1.341333E-16	1.206869E-17
4.130000E+03	1.355562E-16	1.184968E-17
4.140000E+03	1.369775E-16	1.161809E-17
4.150000E+03	1.384340E-16	1.137681E-17
4.160000E+03	1.398543E-16	1.111983E-17
4.170000E+03	1.412751E-16	1.085017E-17
4.180000E+03	1.426972E-16	1.056785E-17
4.190000E+03	1.441216E-16	1.027295E-17
4.200000E+03	1.455494E-16	9.965582E-18
4.210000E+03	1.469817E-16	9.645939E-18
4.220000E+03	1.484196E-16	9.314299E-18
4.230000E+03	1.498645E-16	8.971054E-18
4.240000E+03	1.513175E-16	8.616755E-18
4.250000E+03	1.527797E-16	8.252153E-18
4.260000E+03	1.542521E-16	7.878270E-18
4.270000E+03	1.557356E-16	7.496493E-18
4.280000E+03	1.572310E-16	7.108686E-18
4.290000E+03	1.587388E-16	6.717365E-18
4.300000E+03	1.602595E-16	6.325913E-18
4.310000E+03	1.617932E-16	5.938866E-18
4.320000E+03	1.633399E-16	5.562285E-18
4.330000E+03	1.648994E-16	5.204180E-18
4.340000E+03	1.664711E-16	4.874937E-18
4.350000E+03	1.680546E-16	4.587549E-18
4.360000E+03	1.696489E-16	4.357300E-18
4.370000E+03	1.712534E-16	4.200382E-18
4.380000E+03	1.729099E-16	4.132156E-18
4.390000E+03	1.745322E-16	4.159460E-18
4.400000E+03	1.761623E-16	4.284083E-18
4.410000E+03	1.777997E-16	4.498600E-18
4.420000E+03	1.794440E-16	4.790019E-18
4.430000E+03	1.810952E-16	5.143248E-18
4.440000E+03	1.827531E-16	5.543760E-18
4.450000E+03	1.844175E-16	5.978957E-18
4.460000E+03	1.860884E-16	6.438528E-18
4.470000E+03	1.877656E-16	6.914294E-18
4.480000E+03	1.894489E-16	7.399854E-18
4.490000E+03	1.911382E-16	7.890225E-18
4.500000E+03	1.928332E-16	8.381527E-18
4.510000E+03	1.945336E-16	8.870730E-18
4.520000E+03	1.962391E-16	9.355464E-18
4.530000E+03	1.979492E-16	9.833875E-18
4.540000E+03	1.996153E-16	1.030204E-17
4.550000E+03	2.013327E-16	1.076369E-17
4.560000E+03	2.030527E-16	1.121560E-17
4.570000E+03	2.047747E-16	1.165714E-17
4.580000E+03	2.064976E-16	1.208786E-17
4.590000E+03	2.082206E-16	1.250747E-17
4.600000E+03	2.099425E-16	1.291578E-17
4.610000E+03	2.116622E-16	1.331276E-17
4.620000E+03	2.133784E-16	1.369844E-17
4.630000E+03	2.150898E-16	1.407293E-17
4.640000E+03	2.167439E-16	1.443299E-17
4.650000E+03	2.184412E-16	1.478558E-17
4.660000E+03	2.201294E-16	1.512763E-17
4.670000E+03	2.218068E-16	1.545939E-17
4.680000E+03	2.234717E-16	1.578113E-17
4.690000E+03	2.251222E-16	1.609311E-17
4.700000E+03	2.267035E-16	1.639171E-17
4.710000E+03	2.283190E-16	1.668473E-17
4.720000E+03	2.299139E-16	1.696857E-17
4.730000E+03	2.314859E-16	1.724331E-17
4.740000E+03	2.329785E-16	1.750496E-17
4.750000E+03	2.344969E-16	1.776157E-17
4.760000E+03	2.359847E-16	1.800908E-17
4.770000E+03	2.373845E-16	1.824317E-17
4.780000E+03	2.388028E-16	1.847206E-17
4.790000E+03	2.401821E-16	1.869138E-17
4.800000E+03	2.414644E-16	1.889659E-17
4.810000E+03	2.427573E-16	1.909606E-17
4.820000E+03	2.439472E-16	1.928083E-17
4.830000E+03	2.451428E-16	1.945944E-17
4.840000E+03	2.462858E-16	1.962723E-17
4.850000E+03	2.473178E-16	1.977947E-17
4.860000E+03	2.483489E-16	1.992487E-17
4.870000E+03	2.492645E-16	2.005420E-17
4.880000E+03	2.501762E-16	2.017628E-17
4.890000E+03	2.509696E-16	2.028182E-17
4.900000E+03	2.517007E-16	2.037516E-17
4.910000E+03	2.524263E-16	2.046072E-17
4.920000E+03	2.530330E-16	2.052913E-17
4.930000E+03	2.536356E-16	2.058946E-17
4.940000E+03	2.541217E-16	2.063231E-17
4.950000E+03	2.545500E-16	2.066219E-17
4.960000E+03	2.549799E-16	2.068361E-17
4.970000E+03	2.553001E-16	2.068726E-17
4.980000E+03	2.555706E-16	2.067771E-17
4.990000E+03	2.557946E-16	2.065494E-17
5.000000E+03	2.560324E-16	2.062353E-17
5.010000E+03	2.561736E-16	2.057435E-17
5.020000E+03	2.562789E-16	2.051204E-17
5.030000E+03	2.563518E-16	2.043671E-17
5.040000E+03	2.563959E-16	2.034844E-17
5.050000E+03	2.564148E-16	2.024736E-17
5.060000E+03	2.564120E-16	2.013358E-17
5.070000E+03	2.563912E-16	2.000724E-17
5.080000E+03	2.563557E-16	1.986845E-17
5.090000E+03	2.563090E-16	1.971730E-17
5.100000E+03	2.562544E-16	1.955390E-17
5.110000E+03	2.561950E-16	1.937830E-17
5.120000E+03	2.561337E-16	1.919053E-17
5.130000E+03	2.560734E-16	1.899058E-17
5.140000E+03	2.560165E-16	1.877843E-17
5.150000E+03	2.559652E-16	1.855399E-17
5.160000E+03	2.558660E-16	1.831318E-17
5.170000E+03	2.558314E-16	1.806383E-17
5.180000E+03	2.558071E-16	1.780171E-17
5.190000E+03	2.557940E-16	1.752656E-17
5.200000E+03	2.557376E-16	1.723440E-17
5.210000E+03	2.557484E-16	1.693240E-17
5.220000E+03	2.557713E-16	1.661644E-17
5.230000E+03	2.557510E-16	1.628270E-17
5.240000E+03	2.557967E-16	1.593787E-17
5.250000E+03	2.557978E-16	1.557472E-17
5.260000E+03	2.558627E-16	1.519971E-17
5.270000E+03	2.558805E-16	1.480599E-17
5.280000E+03	2.559589E-16	1.439978E-17
5.290000E+03	2.559868E-16	1.397475E-17
5.300000E+03	2.560168E-16	1.353404E-17
5.310000E+03	2.561008E-16	1.308057E-17
5.320000E+03	2.561279E-16	1.260895E-17
5.330000E+03	2.561498E-16	1.212254E-17
5.340000E+03	2.561642E-16	1.162203E-17
5.350000E+03	2.562224E-16	1.111077E-17
5.360000E+03	2.562140E-16	1.058528E-17
5.370000E+03	2.561904E-16	1.004983E-17
5.380000E+03	2.561495E-16	9.506802E-18
5.390000E+03	2.560887E-16	8.959317E-18
5.400000E+03	2.560059E-16	8.411475E-18
5.410000E+03	2.558989E-16	7.868636E-18
5.420000E+03	2.557657E-16	7.337796E-18
5.430000E+03	2.556041E-16	6.828024E-18
5.440000E+03	2.554123E-16	6.350920E-18
5.450000E+03	2.551355E-16	5.919687E-18
5.460000E+03	2.548783E-16	5.553953E-18
5.470000E+03	2.545859E-16	5.270885E-18
5.480000E+03	2.542570E-16	5.087581E-18
5.490000E+03	2.538376E-16	5.014520E-18
5.500000E+03	2.534318E-16	5.055827E-18
5.510000E+03	2.529332E-16	5.200795E-18
5.520000E+03	2.524456E-16	5.434819E-18
5.530000E+03	2.518641E-16	5.735285E-18
5.540000E+03	2.512925E-16	6.084406E-18
5.550000E+03	2.506278E-16	6.462228E-18
5.560000E+03	2.499746E-16	6.857186E-18
5.570000E+03	2.492322E-16	7.255627E-18
5.580000E+03	2.484551E-16	7.650742E-18
5.590000E+03	2.476976E-16	8.038275E-18
5.600000E+03	2.468624E-16	8.410854E-18
5.610000E+03	2.460056E-16	8.767255E-18
5.620000E+03	2.451327E-16	9.105730E-18
5.630000E+03	2.442498E-16	9.425331E-18
5.640000E+03	2.433635E-16	9.725715E-18
5.650000E+03	2.424809E-16	1.000699E-17
5.660000E+03	2.416090E-16	1.026960E-17
5.670000E+03	2.407554E-16	1.051419E-17
5.680000E+03	2.399279E-16	1.074154E-17
5.690000E+03	2.391343E-16	1.095249E-17
5.700000E+03	2.383824E-16	1.114789E-17
5.710000E+03	2.376321E-16	1.132621E-17
5.720000E+03	2.369875E-16	1.149271E-17
5.730000E+03	2.364080E-16	1.164573E-17
5.740000E+03	2.358536E-16	1.178337E-17
5.750000E+03	2.354269E-16	1.191073E-17
5.760000E+03	2.350400E-16	1.202331E-17
5.770000E+03	2.347945E-16	1.212613E-17
5.780000E+03	2.346025E-16	1.221444E-17
5.790000E+03	2.345647E-16	1.229325E-17
5.800000E+03	2.345930E-16	1.235769E-17
5.810000E+03	2.347405E-16	1.241031E-17
5.820000E+03	2.350600E-16	1.245367E-17
5.830000E+03	2.354629E-16	1.248289E-17
5.840000E+03	2.360017E-16	1.250057E-17
5.850000E+03	2.366817E-16	1.250684E-17
5.860000E+03	2.375084E-16	1.250187E-17
5.870000E+03	2.384871E-16	1.248581E-17
5.880000E+03	2.396233E-16	1.245882E-17
5.890000E+03	2.409230E-16	1.242105E-17
5.900000E+03	2.423922E-16	1.237260E-17
5.910000E+03	2.440376E-16	1.231353E-17
5.920000E+03	2.458665E-16	1.224381E-17
5.930000E+03	2.478378E-16	1.216091E-17
5.940000E+03	2.500585E-16	1.206946E-17
5.950000E+03	2.524896E-16	1.196667E-17
5.960000E+03	2.550914E-16	1.184967E-17
5.970000E+03	2.579765E-16	1.172249E-17
5.980000E+03	2.610561E-16	1.157960E-17
5.990000E+03	2.644464E-16	1.142451E-17
6.000000E+03	2.680577E-16	1.125135E-17
6.010000E+03	2.719564E-16	1.106084E-17
6.020000E+03	2.762120E-16	1.085332E-17
6.030000E+03	2.807313E-16	1.062239E-17
6.040000E+03	2.855829E-16	1.036794E-17
6.050000E+03	2.907813E-16	1.008751E-17
6.060000E+03	2.963403E-16	9.778529E-18
6.070000E+03	3.023321E-16	9.440260E-18
6.080000E+03	3.086505E-16	9.066503E-18
6.090000E+03	3.153016E-16	8.655486E-18
6.100000E+03	3.224159E-16	8.209527E-18
6.110000E+03	3.299380E-16	7.727098E-18
6.120000E+03	3.378702E-16	7.210860E-18
6.130000E+03	3.462120E-16	6.667452E-18
6.140000E+03	3.549591E-16	6.110022E-18
6.150000E+03	3.640333E-16	5.561118E-18
6.160000E+03	3.735659E-16	5.062743E-18
6.170000E+03	3.834021E-16	4.673948E-18
6.180000E+03	3.936822E-16	4.476621E-18
6.190000E+03	4.042523E-16	4.544347E-18
6.200000E+03	4.152774E-16	4.910801E-18
6.210000E+03	4.266180E-16	5.547988E-18
6.220000E+03	4.383860E-16	6.399207E-18
6.230000E+03	4.507114E-16	7.408768E-18
6.240000E+03	4.634698E-16	8.530447E-18
6.250000E+03	4.768008E-16	9.735627E-18
6.260000E+03	4.907625E-16	1.100461E-17
6.270000E+03	5.054160E-16	1.232460E-17
6.280000E+03	5.208245E-16	1.368734E-17
6.290000E+03	5.370534E-16	1.508760E-17
6.300000E+03	5.541688E-16	1.652218E-17
6.310000E+03	5.722374E-16	1.798919E-17
6.320000E+03	5.913251E-16	1.948758E-17
6.330000E+03	6.113774E-16	2.101265E-17
6.340000E+03	6.326886E-16	2.257180E-17
6.350000E+03	6.551994E-16	2.416067E-17
6.360000E+03	6.788261E-16	2.577331E-17
6.370000E+03	7.038656E-16	2.741793E-17
6.380000E+03	7.300726E-16	2.908189E-17
6.390000E+03	7.577313E-16	3.077288E-17
6.400000E+03	7.865351E-16	3.247471E-17
6.410000E+03	8.167368E-16	3.419362E-17
6.420000E+03	8.479425E-16	3.590888E-17
6.430000E+03	8.801788E-16	3.761705E-17
6.440000E+03	9.132699E-16	3.930632E-17
6.450000E+03	9.469835E-16	4.096272E-17
6.460000E+03	9.810255E-16	4.257026E-17
6.470000E+03	1.015233E-15	4.411971E-17
6.480000E+03	1.048794E-15	4.557507E-17
6.490000E+03	1.081197E-15	4.691558E-17
6.500000E+03	1.112305E-15	4.813918E-17
6.510000E+03	1.141312E-15	4.921783E-17
6.520000E+03	1.167582E-15	5.013397E-17
6.530000E+03	1.190459E-15	5.087256E-17
6.540000E+03	1.209059E-15	5.141182E-17
6.550000E+03	1.223233E-15	5.176356E-17
6.560000E+03	1.232200E-15	5.191403E-17
6.570000E+03	1.235272E-15	5.185338E-17
6.580000E+03	1.232608E-15	5.160588E-17
6.590000E+03	1.223572E-15	5.115919E-17
6.600000E+03	1.208427E-15	5.053401E-17
6.610000E+03	1.187609E-15	4.975292E-17
6.620000E+03	1.161044E-15	4.881120E-17
6.630000E+03	1.129512E-15	4.773457E-17
6.640000E+03	1.093689E-15	4.653983E-17
6.650000E+03	1.054541E-15	4.525303E-17
6.660000E+03	1.012457E-15	4.387393E-17
6.670000E+03	9.684583E-16	4.242906E-17
6.680000E+03	9.233188E-16	4.093558E-17
6.690000E+03	8.777522E-16	3.941009E-17
6.700000E+03	8.322298E-16	3.786095E-17
6.710000E+03	7.876232E-16	3.631765E-17
6.720000E+03	7.442084E-16	3.478578E-17
6.730000E+03	7.023380E-16	3.327709E-17
6.740000E+03	6.622783E-16	3.180175E-17
6.750000E+03	6.240974E-16	3.036255E-17
6.760000E+03	5.881649E-16	2.897862E-17
6.770000E+03	5.543102E-16	2.764412E-17
6.780000E+03	5.227719E-16	2.637433E-17
6.790000E+03	4.933217E-16	2.516188E-17
6.800000E+03	4.661081E-16	2.401874E-17
6.810000E+03	4.408758E-16	2.293645E-17
6.820000E+03	4.176349E-16	2.192007E-17
6.830000E+03	3.962902E-16	2.096914E-17
6.840000E+03	3.768139E-16	2.008648E-17
6.850000E+03	3.589528E-16	1.926263E-17
6.860000E+03	3.426802E-16	1.849972E-17
6.870000E+03	3.278943E-16	1.779555E-17
6.880000E+03	3.144962E-16	1.714766E-17
6.890000E+03	3.023912E-16	1.655340E-17
6.900000E+03	2.914892E-16	1.601002E-17
6.910000E+03	2.817050E-16	1.551468E-17
6.920000E+03	2.729588E-16	1.506451E-17
6.930000E+03	2.651244E-16	1.465384E-17
6.940000E+03	2.582371E-16	1.428568E-17
6.950000E+03	2.521798E-16	1.395449E-17
6.960000E+03	2.468461E-16	1.365513E-17
6.970000E+03	2.422786E-16	1.339066E-17
6.980000E+03	2.383329E-16	1.315368E-17
6.990000E+03	2.350570E-16	1.294742E-17
7.000000E+03	2.323172E-16	1.276500E-17
7.010000E+03	2.301661E-16	1.260978E-17
7.020000E+03	2.284783E-16	1.247530E-17
7.030000E+03	2.272656E-16	1.236260E-17
7.040000E+03	2.265409E-16	1.227268E-17
7.050000E+03	2.261865E-16	1.219936E-17
7.060000E+03	2.262182E-16	1.214366E-17
7.070000E+03	2.266086E-16	1.210413E-17
7.080000E+03	2.273310E-16	1.207921E-17
7.090000E+03	2.283592E-16	1.206725E-17
7.100000E+03	2.296672E-16	1.206648E-17
7.110000E+03	2.312290E-16	1.207499E-17
7.120000E+03	2.330185E-16	1.209073E-17
7.130000E+03	2.350091E-16	1.211158E-17
7.140000E+03	2.371739E-16	1.213531E-17
7.150000E+03	2.394851E-16	1.215962E-17
7.160000E+03	2.418670E-16	1.217982E-17
7.170000E+03	2.443843E-16	1.219829E-17
7.180000E+03	2.469598E-16	1.221032E-17
7.190000E+03	2.495131E-16	1.221116E-17
7.200000E+03	2.521091E-16	1.220326E-17
7.210000E+03	2.546157E-16	1.217955E-17
7.220000E+03	2.570980E-16	1.214257E-17
7.230000E+03	2.594201E-16	1.208535E-17
7.240000E+03	2.616476E-16	1.201055E-17
7.250000E+03	2.636419E-16	1.191147E-17
7.260000E+03	2.654177E-16	1.178864E-17
7.270000E+03	2.669392E-16	1.164047E-17
7.280000E+03	2.682248E-16	1.146783E-17
7.290000E+03	2.691366E-16	1.126511E-17
7.300000E+03	2.696971E-16	1.103390E-17
7.310000E+03	2.698807E-16	1.077387E-17
7.320000E+03	2.696667E-16	1.048516E-17
7.330000E+03	2.690406E-16	1.016832E-17
7.340000E+03	2.679955E-16	9.824407E-18
7.350000E+03	2.665325E-16	9.454905E-18
7.360000E+03	2.646615E-16	9.061773E-18
7.370000E+03	2.624012E-16	8.647422E-18
7.380000E+03	2.597270E-16	8.213099E-18
7.390000E+03	2.567762E-16	7.765502E-18
7.400000E+03	2.535371E-16	7.306820E-18
7.410000E+03	2.500538E-16	6.841579E-18
7.420000E+03	2.463249E-16	6.373799E-18
7.430000E+03	2.424975E-16	5.912336E-18
7.440000E+03	2.385235E-16	5.462182E-18
7.450000E+03	2.345463E-16	5.034523E-18
7.460000E+03	2.305177E-16	4.637976E-18
7.470000E+03	2.265734E-16	4.287064E-18
7.480000E+03	2.226623E-16	3.994088E-18
7.490000E+03	2.189094E-16	3.774869E-18
7.500000E+03	2.152572E-16	3.639396E-18
7.510000E+03	2.117750E-16	3.593922E-18
7.520000E+03	2.084814E-16	3.635492E-18
7.530000E+03	2.054304E-16	3.754036E-18
7.540000E+03	2.025469E-16	3.932625E-18
7.550000E+03	1.998766E-16	4.155671E-18
7.560000E+03	1.974203E-16	4.408634E-18
7.570000E+03	1.951768E-16	4.679811E-18
7.580000E+03	1.931432E-16	4.960375E-18
7.590000E+03	1.913152E-16	5.243943E-18
7.600000E+03	1.896870E-16	5.526045E-18
7.610000E+03	1.882522E-16	5.803643E-18
7.620000E+03	1.870033E-16	6.074742E-18
7.630000E+03	1.859319E-16	6.338096E-18
7.640000E+03	1.850290E-16	6.592990E-18
7.650000E+03	1.842475E-16	6.837693E-18
7.660000E+03	1.836513E-16	7.074812E-18
7.670000E+03	1.831918E-16	7.303056E-18
7.680000E+03	1.828572E-16	7.522547E-18
7.690000E+03	1.825977E-16	7.731861E-18
7.700000E+03	1.824743E-16	7.934223E-18
7.710000E+03	1.823996E-16	8.126552E-18
7.720000E+03	1.824340E-16	8.312153E-18
7.730000E+03	1.825270E-16	8.489402E-18
7.740000E+03	1.826283E-16	8.656473E-18
7.750000E+03	1.827992E-16	8.816753E-18
7.760000E+03	1.829531E-16	8.966548E-18
