#wls	flux	fluxerr
1.600000E+03	1.414185E-14	7.812863E-16
1.640000E+03	1.495182E-14	8.176584E-16
1.680000E+03	1.579277E-14	8.546166E-16
1.720000E+03	1.666284E-14	8.919777E-16
1.760000E+03	1.755941E-14	9.295190E-16
1.800000E+03	1.847911E-14	9.669842E-16
1.840000E+03	1.941745E-14	1.004065E-15
1.880000E+03	2.036926E-14	1.040427E-15
1.920000E+03	2.132791E-14	1.075675E-15
1.960000E+03	2.228586E-14	1.109384E-15
2.000000E+03	2.323436E-14	1.141092E-15
2.040000E+03	2.416409E-14	1.170330E-15
2.080000E+03	2.506486E-14	1.196617E-15
2.120000E+03	2.592444E-14	1.219405E-15
2.160000E+03	2.672010E-14	1.237697E-15
2.200000E+03	2.742103E-14	1.250201E-15
2.240000E+03	2.799966E-14	1.255862E-15
2.280000E+03	2.844067E-14	1.254259E-15
2.320000E+03	2.874509E-14	1.245737E-15
2.360000E+03	2.892801E-14	1.231244E-15
2.400000E+03	2.901395E-14	1.212086E-15
2.440000E+03	2.903060E-14	1.189632E-15
2.480000E+03	2.900547E-14	1.165160E-15
2.520000E+03	2.896322E-14	1.139752E-15
2.560000E+03	2.892410E-14	1.114242E-15
2.600000E+03	2.890032E-14	1.089097E-15
2.640000E+03	2.889044E-14	1.064238E-15
2.680000E+03	2.888310E-14	1.039241E-15
2.720000E+03	2.886479E-14	1.013640E-15
2.760000E+03	2.882110E-14	9.869914E-16
2.800000E+03	2.873626E-14	9.588595E-16
2.840000E+03	2.859323E-14	9.288255E-16
2.880000E+03	2.837328E-14	8.964826E-16
2.920000E+03	2.805607E-14	8.614447E-16
2.960000E+03	2.762003E-14	8.233663E-16
3.000000E+03	2.704376E-14	7.819872E-16
3.010000E+03	2.687537E-14	7.711062E-16
3.020000E+03	2.669671E-14	7.600101E-16
3.030000E+03	2.650760E-14	7.487007E-16
3.040000E+03	2.630766E-14	7.371756E-16
3.050000E+03	2.609677E-14	7.254388E-16
3.060000E+03	2.587479E-14	7.134948E-16
3.070000E+03	2.564156E-14	7.013473E-16
3.080000E+03	2.539696E-14	6.890010E-16
3.090000E+03	2.514100E-14	6.764643E-16
3.100000E+03	2.487373E-14	6.637469E-16
3.110000E+03	2.459510E-14	6.508555E-16
3.120000E+03	2.430531E-14	6.378032E-16
3.130000E+03	2.400449E-14	6.246017E-16
3.140000E+03	2.369304E-14	6.112686E-16
3.150000E+03	2.337109E-14	5.978151E-16
3.160000E+03	2.303923E-14	5.842634E-16
3.170000E+03	2.269776E-14	5.706276E-16
3.180000E+03	2.234729E-14	5.569301E-16
3.190000E+03	2.198840E-14	5.431908E-16
3.200000E+03	2.162165E-14	5.294297E-16
3.210000E+03	2.124775E-14	5.156688E-16
3.220000E+03	2.086742E-14	5.019303E-16
3.230000E+03	2.048149E-14	4.882384E-16
3.240000E+03	2.009173E-14	4.746384E-16
3.250000E+03	1.970231E-14	4.612300E-16
3.260000E+03	1.932064E-14	4.481852E-16
3.270000E+03	1.895533E-14	4.356966E-16
3.280000E+03	1.861369E-14	4.239202E-16
3.290000E+03	1.830140E-14	4.129691E-16
3.300000E+03	1.802065E-14	4.028735E-16
3.310000E+03	1.776869E-14	3.935527E-16
3.320000E+03	1.753829E-14	3.848304E-16
3.330000E+03	1.731966E-14	3.764805E-16
3.340000E+03	1.710538E-14	3.683360E-16
3.350000E+03	1.689422E-14	3.603680E-16
3.360000E+03	1.668847E-14	3.526231E-16
3.370000E+03	1.649129E-14	3.451641E-16
3.380000E+03	1.630683E-14	3.380724E-16
3.390000E+03	1.613736E-14	3.313865E-16
3.400000E+03	1.598081E-14	3.250561E-16
3.410000E+03	1.583038E-14	3.189367E-16
3.420000E+03	1.567573E-14	3.128184E-16
3.430000E+03	1.550671E-14	3.065032E-16
3.440000E+03	1.531705E-14	2.998767E-16
3.450000E+03	1.510415E-14	2.928997E-16
3.460000E+03	1.487185E-14	2.856588E-16
3.470000E+03	1.463392E-14	2.784261E-16
3.480000E+03	1.440753E-14	2.715278E-16
3.490000E+03	1.420721E-14	2.652283E-16
3.500000E+03	1.404342E-14	2.597070E-16
3.510000E+03	1.392143E-14	2.550404E-16
3.520000E+03	1.384085E-14	2.512004E-16
3.530000E+03	1.379642E-14	2.480708E-16
3.540000E+03	1.377852E-14	2.454631E-16
3.550000E+03	1.377545E-14	2.431578E-16
3.560000E+03	1.377525E-14	2.409389E-16
3.570000E+03	1.376557E-14	2.385899E-16
3.580000E+03	1.373436E-14	2.359076E-16
3.590000E+03	1.367158E-14	2.327299E-16
3.600000E+03	1.357081E-14	2.289617E-16
3.610000E+03	1.344257E-14	2.247945E-16
3.620000E+03	1.330330E-14	2.205117E-16
3.630000E+03	1.316731E-14	2.163511E-16
3.640000E+03	1.304713E-14	2.125139E-16
3.650000E+03	1.295404E-14	2.091738E-16
3.660000E+03	1.289624E-14	2.064494E-16
3.670000E+03	1.287665E-14	2.043709E-16
3.680000E+03	1.289235E-14	2.028759E-16
3.690000E+03	1.293477E-14	2.018157E-16
3.700000E+03	1.299133E-14	2.009843E-16
3.710000E+03	1.304674E-14	2.001411E-16
3.720000E+03	1.308318E-14	1.990149E-16
3.730000E+03	1.308143E-14	1.973225E-16
3.740000E+03	1.302419E-14	1.948190E-16
3.750000E+03	1.289804E-14	1.913256E-16
3.760000E+03	1.270129E-14	1.868419E-16
3.770000E+03	1.244974E-14	1.816229E-16
3.780000E+03	1.216837E-14	1.760487E-16
3.790000E+03	1.188203E-14	1.704852E-16
3.800000E+03	1.161194E-14	1.652345E-16
3.810000E+03	1.137392E-14	1.605128E-16
3.820000E+03	1.117567E-14	1.564154E-16
3.830000E+03	1.101634E-14	1.529157E-16
3.840000E+03	1.088940E-14	1.499094E-16
3.850000E+03	1.078661E-14	1.472724E-16
3.860000E+03	1.070007E-14	1.448889E-16
3.870000E+03	1.062274E-14	1.426586E-16
3.880000E+03	1.054878E-14	1.404999E-16
3.890000E+03	1.047447E-14	1.383626E-16
3.900000E+03	1.039765E-14	1.362181E-16
3.910000E+03	1.031787E-14	1.340612E-16
3.920000E+03	1.023740E-14	1.319220E-16
3.930000E+03	1.015915E-14	1.298375E-16
3.940000E+03	1.008546E-14	1.278370E-16
3.950000E+03	1.001839E-14	1.259445E-16
3.960000E+03	9.958645E-15	1.241670E-16
3.970000E+03	9.905460E-15	1.224928E-16
3.980000E+03	9.856874E-15	1.208960E-16
3.990000E+03	9.810448E-15	1.193458E-16
4.000000E+03	9.765358E-15	1.178318E-16
4.010000E+03	9.723851E-15	1.163809E-16
4.020000E+03	9.689581E-15	1.150358E-16
4.030000E+03	9.665892E-15	1.138343E-16
4.040000E+03	9.655966E-15	1.128109E-16
4.050000E+03	9.660474E-15	1.119703E-16
4.060000E+03	9.675310E-15	1.112621E-16
4.070000E+03	9.691016E-15	1.105762E-16
4.080000E+03	9.694465E-15	1.097648E-16
4.090000E+03	9.673662E-15	1.086973E-16
4.100000E+03	9.621458E-15	1.073010E-16
4.110000E+03	9.534686E-15	1.055495E-16
4.120000E+03	9.413913E-15	1.034581E-16
4.130000E+03	9.264600E-15	1.010947E-16
4.140000E+03	9.095214E-15	9.855805E-17
4.150000E+03	8.915800E-15	9.596062E-17
4.160000E+03	8.737929E-15	9.342816E-17
4.170000E+03	8.572144E-15	9.107210E-17
4.180000E+03	8.424978E-15	8.895877E-17
4.190000E+03	8.298258E-15	8.710355E-17
4.200000E+03	8.190372E-15	8.548583E-17
4.210000E+03	8.098672E-15	8.407490E-17
4.220000E+03	8.021334E-15	8.284944E-17
4.230000E+03	7.957186E-15	8.179543E-17
4.240000E+03	7.906577E-15	8.091496E-17
4.250000E+03	7.871604E-15	8.022807E-17
4.260000E+03	7.855758E-15	7.976890E-17
4.270000E+03	7.862614E-15	7.957232E-17
4.280000E+03	7.895088E-15	7.966652E-17
4.290000E+03	7.954216E-15	8.006104E-17
4.300000E+03	8.036214E-15	8.071752E-17
4.310000E+03	8.129523E-15	8.152059E-17
4.320000E+03	8.216478E-15	8.229430E-17
4.330000E+03	8.275836E-15	8.282623E-17
4.340000E+03	8.284671E-15	8.288687E-17
4.350000E+03	8.225081E-15	8.229618E-17
4.360000E+03	8.095814E-15	8.103916E-17
4.370000E+03	7.918430E-15	7.932782E-17
4.380000E+03	7.728578E-15	7.751505E-17
4.390000E+03	7.569965E-15	7.603592E-17
4.400000E+03	7.464802E-15	7.511226E-17
4.410000E+03	7.408007E-15	7.469320E-17
4.420000E+03	7.389637E-15	7.467922E-17
4.430000E+03	7.396677E-15	7.493952E-17
4.440000E+03	7.415436E-15	7.533546E-17
4.450000E+03	7.433283E-15	7.573800E-17
4.460000E+03	7.440089E-15	7.604218E-17
4.470000E+03	7.429088E-15	7.617617E-17
4.480000E+03	7.397576E-15	7.610897E-17
4.490000E+03	7.347800E-15	7.586015E-17
4.500000E+03	7.284879E-15	7.547934E-17
4.510000E+03	7.214314E-15	7.502082E-17
4.520000E+03	7.140677E-15	7.453010E-17
4.530000E+03	7.067797E-15	7.404562E-17
4.540000E+03	6.999727E-15	7.360891E-17
4.550000E+03	6.941316E-15	7.327058E-17
4.560000E+03	6.897089E-15	7.307873E-17
4.570000E+03	6.870111E-15	7.306667E-17
4.580000E+03	6.861551E-15	7.324807E-17
4.590000E+03	6.870437E-15	7.361385E-17
4.600000E+03	6.893502E-15	7.413010E-17
4.610000E+03	6.925694E-15	7.474318E-17
4.620000E+03	6.960355E-15	7.538122E-17
4.630000E+03	6.989931E-15	7.596157E-17
4.640000E+03	7.006657E-15	7.639813E-17
4.650000E+03	7.003333E-15	7.660990E-17
4.660000E+03	6.974844E-15	7.653786E-17
4.670000E+03	6.918888E-15	7.615347E-17
4.680000E+03	6.836115E-15	7.546068E-17
4.690000E+03	6.729721E-15	7.449201E-17
4.700000E+03	6.605352E-15	7.330780E-17
4.710000E+03	6.469474E-15	7.197842E-17
4.720000E+03	6.326834E-15	7.055598E-17
4.730000E+03	6.183537E-15	6.910841E-17
4.740000E+03	6.050619E-15	6.775957E-17
4.750000E+03	5.936141E-15	6.660090E-17
4.760000E+03	5.844040E-15	6.567810E-17
4.770000E+03	5.775304E-15	6.500372E-17
4.780000E+03	5.729378E-15	6.457283E-17
4.790000E+03	5.704329E-15	6.436463E-17
4.800000E+03	5.697384E-15	6.434855E-17
4.810000E+03	5.704857E-15	6.448330E-17
4.820000E+03	5.722188E-15	6.471749E-17
4.830000E+03	5.744097E-15	6.499126E-17
4.840000E+03	5.764513E-15	6.523569E-17
4.850000E+03	5.777244E-15	6.538043E-17
4.860000E+03	5.776516E-15	6.535996E-17
4.870000E+03	5.758385E-15	6.512966E-17
4.880000E+03	5.722283E-15	6.468342E-17
4.890000E+03	5.670161E-15	6.404383E-17
4.900000E+03	5.605483E-15	6.325074E-17
4.910000E+03	5.532900E-15	6.235744E-17
4.920000E+03	5.457199E-15	6.141865E-17
4.930000E+03	5.382216E-15	6.047818E-17
4.940000E+03	5.310370E-15	5.956369E-17
4.950000E+03	5.242849E-15	5.868888E-17
4.960000E+03	5.180231E-15	5.786045E-17
4.970000E+03	5.123118E-15	5.708531E-17
4.980000E+03	5.071816E-15	5.636693E-17
4.990000E+03	5.026003E-15	5.570173E-17
5.000000E+03	4.984774E-15	5.507969E-17
5.010000E+03	4.946821E-15	5.448641E-17
5.020000E+03	4.910675E-15	5.390588E-17
5.030000E+03	4.874891E-15	5.332254E-17
5.040000E+03	4.838278E-15	5.272386E-17
5.050000E+03	4.800353E-15	5.210521E-17
5.060000E+03	4.761750E-15	5.147411E-17
5.070000E+03	4.723707E-15	5.084451E-17
5.080000E+03	4.687637E-15	5.023202E-17
5.090000E+03	4.654818E-15	4.965054E-17
5.100000E+03	4.626384E-15	4.911219E-17
5.110000E+03	4.602722E-15	4.862090E-17
5.120000E+03	4.583388E-15	4.817182E-17
5.130000E+03	4.567196E-15	4.775238E-17
5.140000E+03	4.552299E-15	4.734341E-17
5.150000E+03	4.536501E-15	4.692256E-17
5.160000E+03	4.517560E-15	4.646747E-17
5.170000E+03	4.494203E-15	4.596631E-17
5.180000E+03	4.466791E-15	4.542413E-17
5.190000E+03	4.436681E-15	4.485605E-17
5.200000E+03	4.405860E-15	4.428317E-17
5.210000E+03	4.376294E-15	4.372596E-17
5.220000E+03	4.349660E-15	4.320155E-17
5.230000E+03	4.326827E-15	4.271868E-17
5.240000E+03	4.307590E-15	4.227539E-17
5.250000E+03	4.291077E-15	4.186330E-17
5.260000E+03	4.276271E-15	4.147278E-17
5.270000E+03	4.262366E-15	4.109657E-17
5.280000E+03	4.248841E-15	4.073029E-17
5.290000E+03	4.235341E-15	4.037128E-17
5.300000E+03	4.221502E-15	4.001691E-17
5.310000E+03	4.207154E-15	3.966644E-17
5.320000E+03	4.192494E-15	3.932259E-17
5.330000E+03	4.178021E-15	3.899090E-17
5.340000E+03	4.164391E-15	3.867824E-17
5.350000E+03	4.152010E-15	3.838906E-17
5.360000E+03	4.140915E-15	3.812436E-17
5.370000E+03	4.130702E-15	3.788110E-17
5.380000E+03	4.120467E-15	3.765174E-17
5.390000E+03	4.108643E-15	3.742278E-17
5.400000E+03	4.093397E-15	3.717846E-17
5.410000E+03	4.073181E-15	3.690570E-17
5.420000E+03	4.046516E-15	3.659204E-17
5.430000E+03	4.012464E-15	3.622978E-17
5.440000E+03	3.970227E-15	3.581218E-17
5.450000E+03	3.919351E-15	3.533456E-17
5.460000E+03	3.860881E-15	3.480520E-17
5.470000E+03	3.799569E-15	3.426565E-17
5.480000E+03	3.744242E-15	3.379418E-17
5.490000E+03	3.708003E-15	3.350803E-17
5.500000E+03	3.699706E-15	3.348694E-17
5.510000E+03	3.705349E-15	3.360437E-17
5.520000E+03	3.713106E-15	3.375293E-17
5.530000E+03	3.715686E-15	3.386571E-17
5.540000E+03	3.710340E-15	3.391653E-17
5.550000E+03	3.697719E-15	3.390997E-17
5.560000E+03	3.679498E-15	3.386005E-17
5.570000E+03	3.657291E-15	3.378035E-17
5.580000E+03	3.632769E-15	3.368515E-17
5.590000E+03	3.607867E-15	3.359143E-17
5.600000E+03	3.584045E-15	3.351204E-17
5.610000E+03	3.563107E-15	3.346335E-17
5.620000E+03	3.547481E-15	3.346794E-17
5.630000E+03	3.540174E-15	3.355440E-17
5.640000E+03	3.543977E-15	3.374984E-17
5.650000E+03	3.559969E-15	3.406558E-17
5.660000E+03	3.585984E-15	3.448203E-17
5.670000E+03	3.617680E-15	3.495825E-17
5.680000E+03	3.649803E-15	3.544362E-17
5.690000E+03	3.676797E-15	3.588362E-17
5.700000E+03	3.693566E-15	3.622715E-17
5.710000E+03	3.696486E-15	3.643663E-17
5.720000E+03	3.684329E-15	3.649754E-17
5.730000E+03	3.658271E-15	3.641903E-17
5.740000E+03	3.621567E-15	3.623133E-17
5.750000E+03	3.579828E-15	3.598901E-17
5.760000E+03	3.539210E-15	3.575333E-17
5.770000E+03	3.504458E-15	3.557241E-17
5.780000E+03	3.477531E-15	3.546693E-17
5.790000E+03	3.458473E-15	3.543835E-17
5.800000E+03	3.445842E-15	3.547283E-17
5.810000E+03	3.437319E-15	3.554722E-17
5.820000E+03	3.430167E-15	3.563358E-17
5.830000E+03	3.421938E-15	3.570650E-17
5.840000E+03	3.411551E-15	3.575448E-17
5.850000E+03	3.398640E-15	3.577334E-17
5.860000E+03	3.383502E-15	3.576590E-17
5.870000E+03	3.366808E-15	3.573902E-17
5.880000E+03	3.349447E-15	3.570202E-17
5.890000E+03	3.331897E-15	3.566000E-17
5.900000E+03	3.314109E-15	3.561249E-17
5.910000E+03	3.295678E-15	3.555522E-17
5.920000E+03	3.276117E-15	3.548293E-17
5.930000E+03	3.255102E-15	3.539212E-17
5.940000E+03	3.232613E-15	3.528251E-17
5.950000E+03	3.208697E-15	3.515462E-17
5.960000E+03	3.183593E-15	3.501104E-17
5.970000E+03	3.157712E-15	3.485637E-17
5.980000E+03	3.131573E-15	3.469645E-17
5.990000E+03	3.105728E-15	3.453757E-17
6.000000E+03	3.080523E-15	3.438384E-17
6.010000E+03	3.056261E-15	3.423895E-17
6.020000E+03	3.032643E-15	3.409984E-17
6.030000E+03	3.009271E-15	3.396232E-17
6.040000E+03	2.986023E-15	3.382525E-17
6.050000E+03	2.963037E-15	3.369043E-17
6.060000E+03	2.940821E-15	3.356390E-17
6.070000E+03	2.919533E-15	3.344778E-17
6.080000E+03	2.899227E-15	3.334302E-17
6.090000E+03	2.879620E-15	3.324671E-17
6.100000E+03	2.860464E-15	3.315625E-17
6.110000E+03	2.841342E-15	3.306707E-17
6.120000E+03	2.822048E-15	3.297697E-17
6.130000E+03	2.802378E-15	3.288371E-17
6.140000E+03	2.782140E-15	3.278515E-17
6.150000E+03	2.761433E-15	3.268241E-17
6.160000E+03	2.740679E-15	3.258027E-17
6.170000E+03	2.720979E-15	3.249170E-17
6.180000E+03	2.704245E-15	3.243965E-17
6.190000E+03	2.693047E-15	3.245545E-17
6.200000E+03	2.688275E-15	3.255067E-17
6.210000E+03	2.687102E-15	3.269190E-17
6.220000E+03	2.686991E-15	3.284869E-17
6.230000E+03	2.686185E-15	3.299952E-17
6.240000E+03	2.683657E-15	3.313153E-17
6.250000E+03	2.678944E-15	3.323857E-17
6.260000E+03	2.672594E-15	3.332697E-17
6.270000E+03	2.665694E-15	3.340998E-17
6.280000E+03	2.659201E-15	3.349944E-17
6.290000E+03	2.653746E-15	3.360335E-17
6.300000E+03	2.649550E-15	3.372462E-17
6.310000E+03	2.646606E-15	3.386338E-17
6.320000E+03	2.644426E-15	3.401350E-17
6.330000E+03	2.642317E-15	3.416614E-17
6.340000E+03	2.639692E-15	3.431360E-17
6.350000E+03	2.636127E-15	3.445019E-17
6.360000E+03	2.631342E-15	3.457198E-17
6.370000E+03	2.625274E-15	3.467775E-17
6.380000E+03	2.618131E-15	3.476977E-17
6.390000E+03	2.610437E-15	3.485456E-17
6.400000E+03	2.602625E-15	3.493757E-17
6.410000E+03	2.595365E-15	3.502759E-17
6.420000E+03	2.589141E-15	3.513107E-17
6.430000E+03	2.584206E-15	3.525147E-17
6.440000E+03	2.580052E-15	3.538189E-17
6.450000E+03	2.575896E-15	3.551150E-17
6.460000E+03	2.570959E-15	3.562929E-17
6.470000E+03	2.564425E-15	3.572354E-17
6.480000E+03	2.556147E-15	3.579164E-17
6.490000E+03	2.547108E-15	3.584688E-17
6.500000E+03	2.539641E-15	3.592192E-17
6.510000E+03	2.537057E-15	3.606398E-17
6.520000E+03	2.542941E-15	3.632515E-17
6.530000E+03	2.559498E-15	3.673866E-17
6.540000E+03	2.584697E-15	3.727724E-17
6.550000E+03	2.612870E-15	3.786030E-17
6.560000E+03	2.637055E-15	3.838689E-17
6.570000E+03	2.650914E-15	3.876330E-17
6.580000E+03	2.649688E-15	3.891741E-17
6.590000E+03	2.631453E-15	3.881777E-17
6.600000E+03	2.596957E-15	3.847208E-17
6.610000E+03	2.550204E-15	3.793685E-17
6.620000E+03	2.497725E-15	3.730740E-17
6.630000E+03	2.446944E-15	3.669407E-17
6.640000E+03	2.403344E-15	3.617979E-17
6.650000E+03	2.369064E-15	3.579818E-17
6.660000E+03	2.343805E-15	3.554637E-17
6.670000E+03	2.326049E-15	3.540272E-17
6.680000E+03	2.313312E-15	3.533050E-17
6.690000E+03	2.302673E-15	3.528575E-17
6.700000E+03	2.291614E-15	3.523002E-17
6.710000E+03	2.278086E-15	3.513162E-17
6.720000E+03	2.260856E-15	3.497113E-17
6.730000E+03	2.239468E-15	3.474097E-17
6.740000E+03	2.214328E-15	3.444696E-17
6.750000E+03	2.186531E-15	3.410574E-17
6.760000E+03	2.157303E-15	3.373624E-17
6.770000E+03	2.127912E-15	3.335827E-17
6.780000E+03	2.099528E-15	3.299029E-17
6.790000E+03	2.072897E-15	3.264430E-17
6.800000E+03	2.048379E-15	3.232624E-17
6.810000E+03	2.025935E-15	3.203582E-17
6.820000E+03	2.005582E-15	3.177361E-17
6.830000E+03	1.987131E-15	3.153687E-17
6.840000E+03	1.970503E-15	3.132459E-17
6.850000E+03	1.955589E-15	3.113526E-17
6.860000E+03	1.942058E-15	3.096380E-17
6.870000E+03	1.929596E-15	3.080536E-17
6.880000E+03	1.917852E-15	3.065445E-17
6.890000E+03	1.906311E-15	3.050297E-17
6.900000E+03	1.894487E-15	3.034319E-17
6.910000E+03	1.882039E-15	3.016971E-17
6.920000E+03	1.869044E-15	2.998382E-17
6.930000E+03	1.855735E-15	2.978934E-17
6.940000E+03	1.842385E-15	2.959073E-17
6.950000E+03	1.829417E-15	2.939488E-17
6.960000E+03	1.817096E-15	2.920617E-17
6.970000E+03	1.805780E-15	2.903044E-17
6.980000E+03	1.795572E-15	2.886947E-17
6.990000E+03	1.786628E-15	2.872585E-17
7.000000E+03	1.778882E-15	2.859863E-17
7.010000E+03	1.772263E-15	2.848673E-17
7.020000E+03	1.766651E-15	2.838831E-17
7.030000E+03	1.761797E-15	2.829944E-17
7.040000E+03	1.757325E-15	2.821414E-17
7.050000E+03	1.752844E-15	2.812622E-17
7.060000E+03	1.748028E-15	2.803055E-17
7.070000E+03	1.742596E-15	2.792271E-17
7.080000E+03	1.736405E-15	2.780056E-17
7.090000E+03	1.729601E-15	2.766657E-17
7.100000E+03	1.722398E-15	2.752428E-17
7.110000E+03	1.715295E-15	2.738180E-17
7.120000E+03	1.708693E-15	2.724563E-17
7.130000E+03	1.702983E-15	2.712212E-17
7.140000E+03	1.698417E-15	2.701531E-17
7.150000E+03	1.694884E-15	2.692350E-17
7.160000E+03	1.691761E-15	2.683689E-17
7.170000E+03	1.688291E-15	2.674356E-17
7.180000E+03	1.683720E-15	2.663176E-17
7.190000E+03	1.677711E-15	2.649634E-17
7.200000E+03	1.670150E-15	2.633578E-17
7.210000E+03	1.661006E-15	2.614986E-17
7.220000E+03	1.650479E-15	2.594197E-17
7.230000E+03	1.638787E-15	2.571580E-17
7.240000E+03	1.626059E-15	2.547364E-17
7.250000E+03	1.612599E-15	2.522043E-17
7.260000E+03	1.598489E-15	2.495772E-17
7.270000E+03	1.583941E-15	2.468898E-17
7.280000E+03	1.569185E-15	2.441800E-17
7.290000E+03	1.554345E-15	2.414688E-17
7.300000E+03	1.539572E-15	2.387812E-17
7.310000E+03	1.525006E-15	2.361401E-17
7.320000E+03	1.510711E-15	2.335570E-17
7.330000E+03	1.496673E-15	2.310307E-17
7.340000E+03	1.482998E-15	2.285789E-17
7.350000E+03	1.469684E-15	2.262024E-17
7.360000E+03	1.456709E-15	2.238990E-17
7.370000E+03	1.444114E-15	2.216762E-17
7.380000E+03	1.431946E-15	2.195421E-17
7.390000E+03	1.420246E-15	2.175042E-17
7.400000E+03	1.409087E-15	2.155745E-17
7.410000E+03	1.398536E-15	2.137646E-17
7.420000E+03	1.388585E-15	2.120737E-17
7.430000E+03	1.379048E-15	2.104750E-17
7.440000E+03	1.369578E-15	2.089163E-17
7.450000E+03	1.359980E-15	2.073691E-17
7.460000E+03	1.349942E-15	2.057869E-17
7.470000E+03	1.339454E-15	2.041690E-17
7.480000E+03	1.328875E-15	2.025691E-17
7.490000E+03	1.319026E-15	2.011122E-17
7.500000E+03	1.311369E-15	2.000205E-17
7.510000E+03	1.308039E-15	1.996194E-17
7.520000E+03	1.309760E-15	2.000206E-17
7.530000E+03	1.315085E-15	2.010045E-17
7.540000E+03	1.322651E-15	2.023645E-17
7.550000E+03	1.331516E-15	2.039579E-17
7.560000E+03	1.340891E-15	2.056647E-17
7.570000E+03	1.350068E-15	2.073776E-17
7.580000E+03	1.358273E-15	2.089779E-17
7.590000E+03	1.364862E-15	2.103662E-17
7.600000E+03	1.369175E-15	2.114398E-17
7.610000E+03	1.370822E-15	2.121367E-17
7.620000E+03	1.369606E-15	2.124238E-17
7.630000E+03	1.365638E-15	2.123155E-17
7.640000E+03	1.359305E-15	2.118690E-17
7.650000E+03	1.351242E-15	2.111800E-17
7.660000E+03	1.342349E-15	2.103872E-17
7.670000E+03	1.333609E-15	2.096433E-17
7.680000E+03	1.325973E-15	2.090981E-17
7.690000E+03	1.320154E-15	2.088657E-17
7.700000E+03	1.316322E-15	2.089755E-17
7.710000E+03	1.314437E-15	2.094243E-17
7.720000E+03	1.314172E-15	2.101633E-17
7.730000E+03	1.314995E-15	2.111101E-17
7.740000E+03	1.316367E-15	2.121801E-17
7.750000E+03	1.317682E-15	2.132768E-17
7.760000E+03	1.318484E-15	2.143262E-17
