#wls	flux	fluxerr
1.600000E+03	1.280117E-14	5.462470E-17
1.640000E+03	1.369946E-14	5.843175E-17
1.680000E+03	1.464755E-14	6.244787E-17
1.720000E+03	1.564461E-14	6.666933E-17
1.760000E+03	1.668880E-14	7.108810E-17
1.800000E+03	1.777702E-14	7.569072E-17
1.840000E+03	1.890447E-14	8.045658E-17
1.880000E+03	2.006431E-14	8.535647E-17
1.920000E+03	2.124706E-14	9.034987E-17
1.960000E+03	2.243983E-14	9.538200E-17
2.000000E+03	2.362549E-14	1.003800E-16
2.040000E+03	2.478116E-14	1.052470E-16
2.080000E+03	2.587725E-14	1.098573E-16
2.120000E+03	2.688145E-14	1.140744E-16
2.160000E+03	2.775659E-14	1.177411E-16
2.200000E+03	2.845534E-14	1.206572E-16
2.240000E+03	2.892131E-14	1.225849E-16
2.280000E+03	2.911110E-14	1.233414E-16
2.320000E+03	2.905980E-14	1.230767E-16
2.360000E+03	2.882077E-14	1.220178E-16
2.400000E+03	2.844422E-14	1.203782E-16
2.440000E+03	2.797630E-14	1.183537E-16
2.480000E+03	2.745788E-14	1.161176E-16
2.520000E+03	2.692382E-14	1.138175E-16
2.560000E+03	2.639882E-14	1.115578E-16
2.600000E+03	2.589223E-14	1.093779E-16
2.640000E+03	2.540103E-14	1.072650E-16
2.680000E+03	2.491607E-14	1.051803E-16
2.720000E+03	2.442544E-14	1.030735E-16
2.760000E+03	2.391627E-14	1.008904E-16
2.800000E+03	2.337537E-14	9.857535E-17
2.840000E+03	2.278951E-14	9.607269E-17
2.880000E+03	2.214558E-14	9.332739E-17
2.920000E+03	2.143118E-14	9.028738E-17
2.960000E+03	2.063520E-14	8.690607E-17
3.000000E+03	1.974872E-14	8.314627E-17
3.010000E+03	1.951223E-14	8.214418E-17
3.020000E+03	1.926971E-14	8.111685E-17
3.030000E+03	1.902114E-14	8.006420E-17
3.040000E+03	1.876649E-14	7.898622E-17
3.050000E+03	1.850580E-14	7.788296E-17
3.060000E+03	1.823916E-14	7.675485E-17
3.070000E+03	1.796660E-14	7.560203E-17
3.080000E+03	1.768832E-14	7.442532E-17
3.090000E+03	1.740440E-14	7.322513E-17
3.100000E+03	1.711508E-14	7.200240E-17
3.110000E+03	1.682055E-14	7.075795E-17
3.120000E+03	1.652105E-14	6.949278E-17
3.130000E+03	1.621690E-14	6.820830E-17
3.140000E+03	1.590846E-14	6.690597E-17
3.150000E+03	1.559603E-14	6.558709E-17
3.160000E+03	1.528006E-14	6.425353E-17
3.170000E+03	1.496100E-14	6.290720E-17
3.180000E+03	1.463938E-14	6.155029E-17
3.190000E+03	1.431583E-14	6.018550E-17
3.200000E+03	1.399105E-14	5.881578E-17
3.210000E+03	1.366598E-14	5.744504E-17
3.220000E+03	1.334184E-14	5.607843E-17
3.230000E+03	1.302037E-14	5.472324E-17
3.240000E+03	1.270397E-14	5.338956E-17
3.249432E+03	1.088193E-14	4.572916E-17
3.251173E+03	1.086414E-14	4.565386E-17
3.252914E+03	1.082937E-14	4.550714E-17
3.254655E+03	1.078347E-14	4.531370E-17
3.256396E+03	1.074462E-14	4.514987E-17
3.258137E+03	1.071515E-14	4.502549E-17
3.259879E+03	1.067457E-14	4.485439E-17
3.261620E+03	1.062461E-14	4.464394E-17
3.263361E+03	1.057819E-14	4.444833E-17
3.265102E+03	1.053238E-14	4.425526E-17
3.266843E+03	1.048247E-14	4.404499E-17
3.268584E+03	1.042965E-14	4.382252E-17
3.270326E+03	1.038563E-14	4.363702E-17
3.272067E+03	1.034103E-14	4.344910E-17
3.273808E+03	1.029997E-14	4.327602E-17
3.275549E+03	1.027063E-14	4.315220E-17
3.277290E+03	1.024422E-14	4.304071E-17
3.279032E+03	1.020612E-14	4.288010E-17
3.280773E+03	1.016744E-14	4.271708E-17
3.282514E+03	1.012760E-14	4.254918E-17
3.284255E+03	1.008544E-14	4.237151E-17
3.285996E+03	1.004388E-14	4.219637E-17
3.287737E+03	1.001110E-14	4.205815E-17
3.289479E+03	9.991215E-15	4.197409E-17
3.291220E+03	9.963740E-15	4.185815E-17
3.292961E+03	9.924558E-15	4.169303E-17
3.294702E+03	9.889493E-15	4.154521E-17
3.296443E+03	9.847417E-15	4.136794E-17
3.298184E+03	9.810618E-15	4.121284E-17
3.299926E+03	9.785534E-15	4.110697E-17
3.301667E+03	9.758706E-15	4.099376E-17
3.303408E+03	9.736565E-15	4.090025E-17
3.305149E+03	9.730824E-15	4.087563E-17
3.306890E+03	9.732692E-15	4.088298E-17
3.308631E+03	9.739843E-15	4.091251E-17
3.310373E+03	9.754014E-15	4.097154E-17
3.312114E+03	9.772288E-15	4.104779E-17
3.313855E+03	9.792912E-15	4.113392E-17
3.315596E+03	9.819385E-15	4.124461E-17
3.317337E+03	9.848790E-15	4.136762E-17
3.319079E+03	9.878208E-15	4.149067E-17
3.320820E+03	9.911724E-15	4.163094E-17
3.322561E+03	9.947002E-15	4.177860E-17
3.324302E+03	9.980534E-15	4.191893E-17
3.326043E+03	1.002401E-14	4.210102E-17
3.327784E+03	1.005171E-14	4.221685E-17
3.329526E+03	1.005954E-14	4.224921E-17
3.331267E+03	1.006679E-14	4.227914E-17
3.333008E+03	1.004949E-14	4.220598E-17
3.334749E+03	1.004565E-14	4.218935E-17
3.336490E+03	1.005468E-14	4.222675E-17
3.338231E+03	1.004619E-14	4.219060E-17
3.339972E+03	1.001549E-14	4.206115E-17
3.341714E+03	9.987145E-15	4.194160E-17
3.343455E+03	9.966408E-15	4.185400E-17
3.345196E+03	9.931072E-15	4.170511E-17
3.346937E+03	9.884645E-15	4.150964E-17
3.348678E+03	9.851087E-15	4.136821E-17
3.350419E+03	9.811106E-15	4.119983E-17
3.352161E+03	9.750106E-15	4.094317E-17
3.353902E+03	9.685611E-15	4.067185E-17
3.355643E+03	9.629308E-15	4.043493E-17
3.357384E+03	9.567764E-15	4.017602E-17
3.359125E+03	9.503308E-15	3.990488E-17
3.360867E+03	9.444126E-15	3.965590E-17
3.362608E+03	9.387880E-15	3.941925E-17
3.364349E+03	9.341582E-15	3.922437E-17
3.366090E+03	9.285363E-15	3.898785E-17
3.367831E+03	9.215129E-15	3.869248E-17
3.369572E+03	9.154844E-15	3.843890E-17
3.371314E+03	9.119118E-15	3.828843E-17
3.373055E+03	9.089247E-15	3.816256E-17
3.374796E+03	9.058805E-15	3.803428E-17
3.376537E+03	9.029543E-15	3.791097E-17
3.378278E+03	9.006722E-15	3.781471E-17
3.380019E+03	8.987420E-15	3.773322E-17
3.381761E+03	8.971052E-15	3.766405E-17
3.383502E+03	8.958203E-15	3.760965E-17
3.385243E+03	8.952378E-15	3.758475E-17
3.386984E+03	8.945983E-15	3.755746E-17
3.388725E+03	8.940184E-15	3.753266E-17
3.390466E+03	8.936736E-15	3.751774E-17
3.392208E+03	8.928624E-15	3.748324E-17
3.393949E+03	8.913513E-15	3.741936E-17
3.395690E+03	8.894324E-15	3.733836E-17
3.397431E+03	8.880408E-15	3.727950E-17
3.399172E+03	8.875856E-15	3.725995E-17
3.400914E+03	8.864303E-15	3.721101E-17
3.402655E+03	8.846920E-15	3.713760E-17
3.404396E+03	8.840070E-15	3.710841E-17
3.406137E+03	8.846677E-15	3.713570E-17
3.407878E+03	8.848038E-15	3.714098E-17
3.409619E+03	8.831877E-15	3.707270E-17
3.411360E+03	8.820407E-15	3.702412E-17
3.413102E+03	8.818302E-15	3.701485E-17
3.414843E+03	8.818550E-15	3.701546E-17
3.416584E+03	8.823490E-15	3.703575E-17
3.418325E+03	8.825521E-15	3.704385E-17
3.420066E+03	8.834584E-15	3.708145E-17
3.421807E+03	8.840740E-15	3.710685E-17
3.423549E+03	8.851587E-15	3.715195E-17
3.425290E+03	8.857189E-15	3.717502E-17
3.427031E+03	8.847606E-15	3.713436E-17
3.428772E+03	8.830436E-15	3.706187E-17
3.430513E+03	8.810942E-15	3.697962E-17
3.432255E+03	8.787952E-15	3.688270E-17
3.433996E+03	8.774920E-15	3.682757E-17
3.435737E+03	8.767166E-15	3.679460E-17
3.437478E+03	8.753578E-15	3.673715E-17
3.439219E+03	8.728309E-15	3.663067E-17
3.440960E+03	8.688430E-15	3.646288E-17
3.442702E+03	8.643884E-15	3.627551E-17
3.444443E+03	8.610464E-15	3.613484E-17
3.446184E+03	8.576473E-15	3.599177E-17
3.447925E+03	8.544834E-15	3.585858E-17
3.449666E+03	8.510869E-15	3.571563E-17
3.451407E+03	8.471065E-15	3.554819E-17
3.453149E+03	8.445903E-15	3.544218E-17
3.454890E+03	8.428362E-15	3.536817E-17
3.456631E+03	8.397961E-15	3.524019E-17
3.458372E+03	8.376353E-15	3.514911E-17
3.460113E+03	8.361783E-15	3.508756E-17
3.461854E+03	8.339035E-15	3.499170E-17
3.463596E+03	8.308103E-15	3.486151E-17
3.465337E+03	8.276015E-15	3.472646E-17
3.467078E+03	8.243353E-15	3.458902E-17
3.468819E+03	8.211877E-15	3.445654E-17
3.470560E+03	8.179827E-15	3.432167E-17
3.472302E+03	8.139005E-15	3.414999E-17
3.474043E+03	8.097022E-15	3.397345E-17
3.475784E+03	8.056222E-15	3.380187E-17
3.477525E+03	8.000785E-15	3.356889E-17
3.479266E+03	7.948873E-15	3.335070E-17
3.481007E+03	7.908688E-15	3.318172E-17
3.482749E+03	7.869686E-15	3.301770E-17
3.484490E+03	7.841833E-15	3.290047E-17
3.486231E+03	7.818095E-15	3.280050E-17
3.487972E+03	7.799648E-15	3.272273E-17
3.489713E+03	7.781217E-15	3.264503E-17
3.491454E+03	7.759870E-15	3.255510E-17
3.493195E+03	7.737363E-15	3.246031E-17
3.494937E+03	7.708420E-15	3.233852E-17
3.496678E+03	7.691222E-15	3.226600E-17
3.498419E+03	7.678734E-15	3.221325E-17
3.500160E+03	7.656874E-15	3.212118E-17
3.501901E+03	7.640899E-15	3.205380E-17
3.503643E+03	7.630222E-15	3.200864E-17
3.505384E+03	7.620738E-15	3.196849E-17
3.507125E+03	7.605987E-15	3.190626E-17
3.508866E+03	7.595365E-15	3.186134E-17
3.510607E+03	7.586523E-15	3.182389E-17
3.512348E+03	7.580637E-15	3.179883E-17
3.514090E+03	7.584758E-15	3.181576E-17
3.515831E+03	7.584789E-15	3.181553E-17
3.517572E+03	7.580730E-15	3.179815E-17
3.519313E+03	7.581394E-15	3.180058E-17
3.521054E+03	7.589723E-15	3.183516E-17
3.522796E+03	7.596314E-15	3.186244E-17
3.524537E+03	7.599403E-15	3.187504E-17
3.526278E+03	7.603693E-15	3.189268E-17
3.528019E+03	7.606242E-15	3.190301E-17
3.529760E+03	7.599992E-15	3.187644E-17
3.531501E+03	7.591410E-15	3.184009E-17
3.533242E+03	7.587558E-15	3.182357E-17
3.534984E+03	7.591382E-15	3.183926E-17
3.536725E+03	7.597588E-15	3.186493E-17
3.538466E+03	7.599699E-15	3.187343E-17
3.540207E+03	7.594179E-15	3.184992E-17
3.541948E+03	7.592217E-15	3.184134E-17
3.543689E+03	7.599120E-15	3.186993E-17
3.545431E+03	7.609590E-15	3.191348E-17
3.547172E+03	7.614193E-15	3.193243E-17
3.548913E+03	7.616467E-15	3.194162E-17
3.550654E+03	7.620537E-15	3.195833E-17
3.552395E+03	7.627585E-15	3.198753E-17
3.554137E+03	7.629940E-15	3.199705E-17
3.555878E+03	7.630552E-15	3.199927E-17
3.557619E+03	7.635321E-15	3.201891E-17
3.559360E+03	7.643070E-15	3.205105E-17
3.561101E+03	7.650848E-15	3.208331E-17
3.562842E+03	7.661609E-15	3.212808E-17
3.564584E+03	7.668853E-15	3.215810E-17
3.566325E+03	7.669032E-15	3.215850E-17
3.568066E+03	7.662732E-15	3.213173E-17
3.569807E+03	7.658225E-15	3.211247E-17
3.571548E+03	7.651374E-15	3.208339E-17
3.573289E+03	7.639217E-15	3.203207E-17
3.575031E+03	7.615831E-15	3.193365E-17
3.576772E+03	7.597192E-15	3.185515E-17
3.578513E+03	7.584486E-15	3.180152E-17
3.580254E+03	7.562910E-15	3.171071E-17
3.581995E+03	7.550825E-15	3.165969E-17
3.583736E+03	7.548831E-15	3.165098E-17
3.585478E+03	7.541522E-15	3.161999E-17
3.587219E+03	7.533637E-15	3.158658E-17
3.588960E+03	7.526955E-15	3.155822E-17
3.590701E+03	7.528597E-15	3.156476E-17
3.592442E+03	7.526700E-15	3.155647E-17
3.594184E+03	7.523636E-15	3.154327E-17
3.595925E+03	7.519995E-15	3.152767E-17
3.597666E+03	7.509242E-15	3.148224E-17
3.599407E+03	7.504446E-15	3.146179E-17
3.601148E+03	7.510962E-15	3.148877E-17
3.602889E+03	7.524637E-15	3.154576E-17
3.604631E+03	7.528824E-15	3.156297E-17
3.606372E+03	7.528865E-15	3.156280E-17
3.608113E+03	7.537855E-15	3.160014E-17
3.609854E+03	7.546274E-15	3.163509E-17
3.611595E+03	7.543398E-15	3.162270E-17
3.613336E+03	7.534581E-15	3.158539E-17
3.615077E+03	7.524584E-15	3.154314E-17
3.616819E+03	7.515789E-15	3.150594E-17
3.618560E+03	7.507008E-15	3.146879E-17
3.620301E+03	7.495253E-15	3.141917E-17
3.622042E+03	7.479926E-15	3.135459E-17
3.623783E+03	7.458635E-15	3.126500E-17
3.625524E+03	7.426595E-15	3.113036E-17
3.627266E+03	7.396939E-15	3.100572E-17
3.629007E+03	7.376840E-15	3.092114E-17
3.630748E+03	7.362125E-15	3.085913E-17
3.632489E+03	7.346817E-15	3.079463E-17
3.634230E+03	7.324332E-15	3.070005E-17
3.635972E+03	7.294665E-15	3.057538E-17
3.637713E+03	7.268582E-15	3.046573E-17
3.639454E+03	7.242496E-15	3.035607E-17
3.641195E+03	7.217004E-15	3.024890E-17
3.642936E+03	7.198101E-15	3.016934E-17
3.644677E+03	7.184595E-15	3.011242E-17
3.646419E+03	7.183691E-15	3.010831E-17
3.648160E+03	7.179799E-15	3.009167E-17
3.649901E+03	7.169914E-15	3.004993E-17
3.651642E+03	7.165440E-15	3.003086E-17
3.653383E+03	7.164581E-15	3.002694E-17
3.655124E+03	7.168541E-15	3.004322E-17
3.656866E+03	7.178531E-15	3.008476E-17
3.658607E+03	7.184933E-15	3.011127E-17
3.660348E+03	7.189545E-15	3.013029E-17
3.662089E+03	7.193573E-15	3.014685E-17
3.663830E+03	7.193400E-15	3.014580E-17
3.665572E+03	7.193240E-15	3.014482E-17
3.667313E+03	7.196104E-15	3.015650E-17
3.669054E+03	7.198380E-15	3.016572E-17
3.670795E+03	7.198860E-15	3.016741E-17
3.672536E+03	7.201161E-15	3.017674E-17
3.674277E+03	7.202268E-15	3.018106E-17
3.676019E+03	7.205804E-15	3.019556E-17
3.677760E+03	7.214790E-15	3.023290E-17
3.679501E+03	7.225003E-15	3.027538E-17
3.681242E+03	7.240073E-15	3.033821E-17
3.682983E+03	7.255771E-15	3.040367E-17
3.684724E+03	7.264230E-15	3.043880E-17
3.686465E+03	7.272102E-15	3.047146E-17
3.688207E+03	7.276963E-15	3.049151E-17
3.689948E+03	7.279414E-15	3.050147E-17
3.691689E+03	7.290364E-15	3.054703E-17
3.693430E+03	7.311034E-15	3.063332E-17
3.695171E+03	7.328700E-15	3.070702E-17
3.696912E+03	7.337285E-15	3.074267E-17
3.698654E+03	7.348318E-15	3.078858E-17
3.700395E+03	7.366657E-15	3.086510E-17
3.702136E+03	7.386846E-15	3.094936E-17
3.703877E+03	7.402805E-15	3.101591E-17
3.705618E+03	7.416354E-15	3.107235E-17
3.707360E+03	7.434793E-15	3.114928E-17
3.709101E+03	7.455081E-15	3.123396E-17
3.710842E+03	7.471743E-15	3.130345E-17
3.712583E+03	7.484163E-15	3.135516E-17
3.714324E+03	7.488678E-15	3.137375E-17
3.716065E+03	7.490156E-15	3.137961E-17
3.717807E+03	7.491034E-15	3.138297E-17
3.719548E+03	7.490699E-15	3.138125E-17
3.721289E+03	7.490373E-15	3.137956E-17
3.723030E+03	7.490665E-15	3.138046E-17
3.724771E+03	7.488521E-15	3.137115E-17
3.726512E+03	7.491274E-15	3.138236E-17
3.728254E+03	7.497097E-15	3.140644E-17
3.729995E+03	7.500484E-15	3.142030E-17
3.731736E+03	7.508779E-15	3.145473E-17
3.733477E+03	7.514028E-15	3.147640E-17
3.735218E+03	7.518062E-15	3.149297E-17
3.736959E+03	7.526399E-15	3.152758E-17
3.738701E+03	7.536592E-15	3.156995E-17
3.740442E+03	7.549868E-15	3.162524E-17
3.742183E+03	7.555182E-15	3.164718E-17
3.743924E+03	7.559280E-15	3.166402E-17
3.745665E+03	7.574449E-15	3.172724E-17
3.747407E+03	7.585951E-15	3.177509E-17
3.749148E+03	7.596238E-15	3.181786E-17
3.750889E+03	7.610850E-15	3.187874E-17
3.752630E+03	7.618709E-15	3.191134E-17
3.754371E+03	7.617957E-15	3.190787E-17
3.756112E+03	7.616595E-15	3.190184E-17
3.757854E+03	7.614621E-15	3.189325E-17
3.759595E+03	7.613885E-15	3.188984E-17
3.761336E+03	7.603896E-15	3.184768E-17
3.763077E+03	7.587112E-15	3.177707E-17
3.764818E+03	7.572788E-15	3.171675E-17
3.766559E+03	7.560928E-15	3.166676E-17
3.768300E+03	7.545352E-15	3.160121E-17
3.770042E+03	7.523581E-15	3.150971E-17
3.771783E+03	7.490035E-15	3.136890E-17
3.773524E+03	7.450888E-15	3.120464E-17
3.775265E+03	7.414807E-15	3.105322E-17
3.777006E+03	7.382416E-15	3.091726E-17
3.778748E+03	7.349997E-15	3.078118E-17
3.780489E+03	7.308246E-15	3.060602E-17
3.782230E+03	7.261494E-15	3.040993E-17
3.783971E+03	7.216563E-15	3.022147E-17
3.785712E+03	7.179671E-15	3.006667E-17
3.787453E+03	7.145854E-15	2.992475E-17
3.789195E+03	7.108278E-15	2.976710E-17
3.790936E+03	7.070048E-15	2.960671E-17
3.792677E+03	7.033650E-15	2.945400E-17
3.794418E+03	7.000959E-15	2.931681E-17
3.796159E+03	6.970107E-15	2.918733E-17
3.797900E+03	6.935489E-15	2.904208E-17
3.799642E+03	6.902712E-15	2.890454E-17
3.801383E+03	6.876146E-15	2.879301E-17
3.803124E+03	6.858298E-15	2.871799E-17
3.804865E+03	6.841060E-15	2.864553E-17
3.806606E+03	6.818184E-15	2.854946E-17
3.808347E+03	6.791537E-15	2.843760E-17
3.810089E+03	6.766744E-15	2.833351E-17
3.811830E+03	6.744432E-15	2.823980E-17
3.813571E+03	6.722101E-15	2.814603E-17
3.815312E+03	6.705389E-15	2.807577E-17
3.817053E+03	6.689916E-15	2.801072E-17
3.818794E+03	6.673177E-15	2.794036E-17
3.820536E+03	6.660816E-15	2.788833E-17
3.822277E+03	6.652839E-15	2.785465E-17
3.824018E+03	6.647368E-15	2.783148E-17
3.825759E+03	6.644407E-15	2.781881E-17
3.827500E+03	6.636418E-15	2.778509E-17
3.829242E+03	6.624019E-15	2.773291E-17
3.830983E+03	6.612239E-15	2.768332E-17
3.832724E+03	6.604226E-15	2.764950E-17
3.834465E+03	6.599988E-15	2.763149E-17
3.836206E+03	6.598268E-15	2.762402E-17
3.837947E+03	6.598441E-15	2.762447E-17
3.839689E+03	6.601769E-15	2.763814E-17
3.841430E+03	6.608260E-15	2.766505E-17
3.843171E+03	6.612863E-15	2.768405E-17
3.844912E+03	6.611787E-15	2.767928E-17
3.846653E+03	6.610078E-15	2.767185E-17
3.848394E+03	6.620387E-15	2.771475E-17
3.850136E+03	6.633240E-15	2.776828E-17
3.851877E+03	6.641041E-15	2.780067E-17
3.853618E+03	6.641251E-15	2.780128E-17
3.855359E+03	6.635124E-15	2.777537E-17
3.857100E+03	6.633431E-15	2.776801E-17
3.858841E+03	6.633641E-15	2.776862E-17
3.860583E+03	6.623696E-15	2.772673E-17
3.862324E+03	6.609931E-15	2.766884E-17
3.864065E+03	6.597425E-15	2.761623E-17
3.865806E+03	6.582999E-15	2.755558E-17
3.867547E+03	6.568559E-15	2.749488E-17
3.869288E+03	6.554106E-15	2.743412E-17
3.871030E+03	6.541550E-15	2.738130E-17
3.872771E+03	6.529618E-15	2.733109E-17
3.874512E+03	6.511300E-15	2.725416E-17
3.876253E+03	6.491690E-15	2.717182E-17
3.877994E+03	6.475250E-15	2.710275E-17
3.879735E+03	6.456240E-15	2.702292E-17
3.881477E+03	6.439766E-15	2.695372E-17
3.883218E+03	6.423915E-15	2.688712E-17
3.884959E+03	6.413802E-15	2.684453E-17
3.886700E+03	6.404958E-15	2.680727E-17
3.888441E+03	6.391177E-15	2.674933E-17
3.890182E+03	6.371876E-15	2.666830E-17
3.891924E+03	6.352299E-15	2.658612E-17
3.893665E+03	6.339432E-15	2.653201E-17
3.895406E+03	6.330785E-15	2.649557E-17
3.897147E+03	6.316418E-15	2.643519E-17
3.898888E+03	6.306723E-15	2.639437E-17
3.900630E+03	6.304662E-15	2.638550E-17
3.902371E+03	6.301506E-15	2.637204E-17
3.904112E+03	6.297125E-15	2.635346E-17
3.905853E+03	6.295248E-15	2.634536E-17
3.907594E+03	6.295044E-15	2.634426E-17
3.909335E+03	6.291876E-15	2.633075E-17
3.911077E+03	6.284323E-15	2.629890E-17
3.912818E+03	6.277601E-15	2.627053E-17
3.914559E+03	6.271903E-15	2.624644E-17
3.916300E+03	6.263359E-15	2.621044E-17
3.918041E+03	6.251320E-15	2.615981E-17
3.919782E+03	6.237911E-15	2.610346E-17
3.921524E+03	6.224942E-15	2.604894E-17
3.923265E+03	6.216419E-15	2.601304E-17
3.925006E+03	6.208469E-15	2.597953E-17
3.926747E+03	6.199151E-15	2.594030E-17
3.928488E+03	6.190082E-15	2.590211E-17
3.930229E+03	6.178411E-15	2.585303E-17
3.931971E+03	6.173665E-15	2.583294E-17
3.933712E+03	6.176438E-15	2.584430E-17
3.935453E+03	6.174280E-15	2.583503E-17
3.937194E+03	6.165496E-15	2.579804E-17
3.938935E+03	6.159170E-15	2.577133E-17
3.940676E+03	6.152902E-15	2.574487E-17
3.942418E+03	6.144286E-15	2.570858E-17
3.944159E+03	6.139239E-15	2.568723E-17
3.945900E+03	6.138613E-15	2.568438E-17
3.947641E+03	6.140395E-15	2.569160E-17
3.949382E+03	6.142896E-15	2.570183E-17
3.951124E+03	6.144485E-15	2.570824E-17
3.952865E+03	6.148880E-15	2.572639E-17
3.954606E+03	6.155107E-15	2.575221E-17
3.956347E+03	6.159183E-15	2.576903E-17
3.958088E+03	6.162610E-15	2.578313E-17
3.959829E+03	6.166431E-15	2.579889E-17
3.961570E+03	6.167508E-15	2.580316E-17
3.963312E+03	6.167668E-15	2.580359E-17
3.965053E+03	6.171232E-15	2.581827E-17
3.966794E+03	6.175454E-15	2.583570E-17
3.968535E+03	6.180794E-15	2.585780E-17
3.970276E+03	6.184628E-15	2.587361E-17
3.972017E+03	6.185119E-15	2.587543E-17
3.973759E+03	6.186726E-15	2.588192E-17
3.975500E+03	6.183470E-15	2.586807E-17
3.977241E+03	6.173572E-15	2.582643E-17
3.978982E+03	6.172869E-15	2.582325E-17
3.980723E+03	6.177098E-15	2.584071E-17
3.982465E+03	6.173759E-15	2.582651E-17
3.984206E+03	6.164357E-15	2.578695E-17
3.985947E+03	6.158236E-15	2.576111E-17
3.987688E+03	6.150922E-15	2.573028E-17
3.989429E+03	6.140035E-15	2.568451E-17
3.991170E+03	6.132567E-15	2.565305E-17
3.992912E+03	6.127336E-15	2.563093E-17
3.994653E+03	6.119718E-15	2.559884E-17
3.996394E+03	6.112553E-15	2.556864E-17
3.998135E+03	6.105378E-15	2.553840E-17
3.999876E+03	6.097004E-15	2.550314E-17
4.001617E+03	6.087227E-15	2.546202E-17
4.003359E+03	6.070484E-15	2.539176E-17
4.005100E+03	6.052461E-15	2.531615E-17
4.006841E+03	6.043833E-15	2.527984E-17
4.008582E+03	6.035793E-15	2.524599E-17
4.010323E+03	6.029068E-15	2.521764E-17
4.012064E+03	6.027317E-15	2.521009E-17
4.013806E+03	6.020245E-15	2.518029E-17
4.015547E+03	6.007911E-15	2.512848E-17
4.017288E+03	5.998423E-15	2.508857E-17
4.019029E+03	5.993315E-15	2.506699E-17
4.020770E+03	5.993461E-15	2.506738E-17
4.022512E+03	5.990940E-15	2.505661E-17
4.024253E+03	5.983946E-15	2.502714E-17
4.025994E+03	5.982879E-15	2.502246E-17
4.027735E+03	5.988015E-15	2.504372E-17
4.029476E+03	5.991418E-15	2.505774E-17
4.031217E+03	5.994222E-15	2.506924E-17
4.032959E+03	5.993551E-15	2.506622E-17
4.034700E+03	5.988663E-15	2.504556E-17
