#wls	flux	fluxerr
1.600000E+03	7.408891E-17	1.652863E-18
1.640000E+03	7.435025E-17	1.648805E-18
1.680000E+03	7.471855E-17	1.646824E-18
1.720000E+03	7.519977E-17	1.647001E-18
1.760000E+03	7.580050E-17	1.649428E-18
1.800000E+03	7.656696E-17	1.655045E-18
1.840000E+03	7.746944E-17	1.663133E-18
1.880000E+03	7.857695E-17	1.675094E-18
1.920000E+03	7.986187E-17	1.690240E-18
1.960000E+03	8.137782E-17	1.709602E-18
2.000000E+03	8.314084E-17	1.733391E-18
2.040000E+03	8.519013E-17	1.762284E-18
2.080000E+03	8.752539E-17	1.796114E-18
2.120000E+03	9.021338E-17	1.836078E-18
2.160000E+03	9.325955E-17	1.882082E-18
2.200000E+03	9.671672E-17	1.934971E-18
2.240000E+03	1.006669E-16	1.996125E-18
2.280000E+03	1.051035E-16	2.065117E-18
2.320000E+03	1.101188E-16	2.143442E-18
2.360000E+03	1.157890E-16	2.232206E-18
2.400000E+03	1.221446E-16	2.331576E-18
2.440000E+03	1.292986E-16	2.443252E-18
2.480000E+03	1.373181E-16	2.567963E-18
2.520000E+03	1.463304E-16	2.707500E-18
2.560000E+03	1.564407E-16	2.863128E-18
2.600000E+03	1.677871E-16	3.036612E-18
2.640000E+03	1.804109E-16	3.227857E-18
2.680000E+03	1.945042E-16	3.439387E-18
2.720000E+03	2.101489E-16	3.671626E-18
2.760000E+03	2.274322E-16	3.925003E-18
2.800000E+03	2.463604E-16	4.198486E-18
2.840000E+03	2.669891E-16	4.491855E-18
2.880000E+03	2.891752E-16	4.801536E-18
2.920000E+03	3.127410E-16	5.123517E-18
2.960000E+03	3.373779E-16	5.451828E-18
3.000000E+03	3.626750E-16	5.779162E-18
3.010000E+03	3.690489E-16	5.859938E-18
3.020000E+03	3.753877E-16	5.939414E-18
3.030000E+03	3.817219E-16	6.018078E-18
3.040000E+03	3.880385E-16	6.095726E-18
3.050000E+03	3.943240E-16	6.172151E-18
3.060000E+03	4.005648E-16	6.247145E-18
3.070000E+03	4.067030E-16	6.319818E-18
3.080000E+03	4.128133E-16	6.391345E-18
3.090000E+03	4.188385E-16	6.460849E-18
3.100000E+03	4.247215E-16	6.527467E-18
3.110000E+03	4.305827E-16	6.593067E-18
3.120000E+03	4.362782E-16	6.655462E-18
3.130000E+03	4.418858E-16	6.715864E-18
3.140000E+03	4.473528E-16	6.773489E-18
3.150000E+03	4.527155E-16	6.828912E-18
3.160000E+03	4.579244E-16	6.881411E-18
3.170000E+03	4.630202E-16	6.931619E-18
3.180000E+03	4.679586E-16	6.978901E-18
3.190000E+03	4.728278E-16	7.024597E-18
3.200000E+03	4.775473E-16	7.067526E-18
3.210000E+03	4.821692E-16	7.108487E-18
3.220000E+03	4.867061E-16	7.147685E-18
3.230000E+03	4.912172E-16	7.186003E-18
3.240000E+03	4.956410E-16	7.222552E-18
3.250000E+03	5.000873E-16	7.258945E-18
3.260000E+03	5.045470E-16	7.295049E-18
3.270000E+03	5.090978E-16	7.331985E-18
3.280000E+03	5.137417E-16	7.369770E-18
3.290000E+03	5.185269E-16	7.409080E-18
3.300000E+03	5.235463E-16	7.451217E-18
3.310000E+03	5.288572E-16	7.496961E-18
3.320000E+03	5.345217E-16	7.547142E-18
3.330000E+03	5.406058E-16	7.602633E-18
3.340000E+03	5.471785E-16	7.664337E-18
3.350000E+03	5.543105E-16	7.733161E-18
3.360000E+03	5.620710E-16	7.809980E-18
3.370000E+03	5.705259E-16	7.895608E-18
3.380000E+03	5.797352E-16	7.990760E-18
3.390000E+03	5.898286E-16	8.097101E-18
3.400000E+03	6.007392E-16	8.213576E-18
3.410000E+03	6.126252E-16	8.342212E-18
3.420000E+03	6.254560E-16	8.482443E-18
3.430000E+03	6.392916E-16	8.634935E-18
3.440000E+03	6.542900E-16	8.801658E-18
3.450000E+03	6.705066E-16	8.983176E-18
3.460000E+03	6.879922E-16	9.179981E-18
3.470000E+03	7.068961E-16	9.393867E-18
3.480000E+03	7.272092E-16	9.624499E-18
3.490000E+03	7.489291E-16	9.871634E-18
3.500000E+03	7.718724E-16	1.013266E-17
3.510000E+03	7.958007E-16	1.040428E-17
3.520000E+03	8.204385E-16	1.068278E-17
3.530000E+03	8.453982E-16	1.096304E-17
3.540000E+03	8.702215E-16	1.123912E-17
3.550000E+03	8.943282E-16	1.150359E-17
3.560000E+03	9.171325E-16	1.174911E-17
3.570000E+03	9.379062E-16	1.196661E-17
3.580000E+03	9.558456E-16	1.214621E-17
3.590000E+03	9.698758E-16	1.227478E-17
3.600000E+03	9.792236E-16	1.234319E-17
3.610000E+03	9.845337E-16	1.236028E-17
3.620000E+03	9.870724E-16	1.234249E-17
3.630000E+03	9.878642E-16	1.230303E-17
3.640000E+03	9.878375E-16	1.225367E-17
3.650000E+03	9.876405E-16	1.220257E-17
3.660000E+03	9.878552E-16	1.215692E-17
3.670000E+03	9.889391E-16	1.212227E-17
3.680000E+03	9.912666E-16	1.210307E-17
3.690000E+03	9.953004E-16	1.210478E-17
3.700000E+03	1.001333E-15	1.213069E-17
3.710000E+03	1.009784E-15	1.218557E-17
3.720000E+03	1.020900E-15	1.227208E-17
3.730000E+03	1.034809E-15	1.239137E-17
3.740000E+03	1.051573E-15	1.254382E-17
3.750000E+03	1.071004E-15	1.272680E-17
3.760000E+03	1.092681E-15	1.293498E-17
3.770000E+03	1.116169E-15	1.316297E-17
3.780000E+03	1.140819E-15	1.340291E-17
3.790000E+03	1.165991E-15	1.364716E-17
3.800000E+03	1.191132E-15	1.388926E-17
3.810000E+03	1.215658E-15	1.412243E-17
3.820000E+03	1.239092E-15	1.434128E-17
3.830000E+03	1.260921E-15	1.454002E-17
3.840000E+03	1.280718E-15	1.471400E-17
3.850000E+03	1.298153E-15	1.485972E-17
3.860000E+03	1.313091E-15	1.497593E-17
3.870000E+03	1.325599E-15	1.506374E-17
3.880000E+03	1.336044E-15	1.512762E-17
3.890000E+03	1.345342E-15	1.517817E-17
3.900000E+03	1.354554E-15	1.522744E-17
3.910000E+03	1.364779E-15	1.528778E-17
3.920000E+03	1.376796E-15	1.536778E-17
3.930000E+03	1.391229E-15	1.547417E-17
3.940000E+03	1.408461E-15	1.561093E-17
3.950000E+03	1.428528E-15	1.577814E-17
3.960000E+03	1.451365E-15	1.597478E-17
3.970000E+03	1.476661E-15	1.619715E-17
3.980000E+03	1.504058E-15	1.644107E-17
3.990000E+03	1.532901E-15	1.669921E-17
4.000000E+03	1.562631E-15	1.696538E-17
4.010000E+03	1.592544E-15	1.723187E-17
4.020000E+03	1.621939E-15	1.749115E-17
4.030000E+03	1.650102E-15	1.773563E-17
4.040000E+03	1.676328E-15	1.795793E-17
4.050000E+03	1.699874E-15	1.815035E-17
4.060000E+03	1.720019E-15	1.830552E-17
4.070000E+03	1.736069E-15	1.841648E-17
4.080000E+03	1.747272E-15	1.847570E-17
4.090000E+03	1.753095E-15	1.847809E-17
4.100000E+03	1.753179E-15	1.842043E-17
4.110000E+03	1.747401E-15	1.830201E-17
4.120000E+03	1.736047E-15	1.812639E-17
4.130000E+03	1.719810E-15	1.790134E-17
4.140000E+03	1.699627E-15	1.763703E-17
4.150000E+03	1.676560E-15	1.734482E-17
4.160000E+03	1.651527E-15	1.703441E-17
4.170000E+03	1.625424E-15	1.671520E-17
4.180000E+03	1.598987E-15	1.639480E-17
4.190000E+03	1.572800E-15	1.607919E-17
4.200000E+03	1.547350E-15	1.577326E-17
4.210000E+03	1.522999E-15	1.548065E-17
4.220000E+03	1.500070E-15	1.520448E-17
4.230000E+03	1.478869E-15	1.494772E-17
4.240000E+03	1.459664E-15	1.471288E-17
4.250000E+03	1.442831E-15	1.450359E-17
4.260000E+03	1.428811E-15	1.432402E-17
4.270000E+03	1.417989E-15	1.417782E-17
4.280000E+03	1.410798E-15	1.406902E-17
4.290000E+03	1.407524E-15	1.400020E-17
4.300000E+03	1.408361E-15	1.397296E-17
4.310000E+03	1.413168E-15	1.398563E-17
4.320000E+03	1.421577E-15	1.403428E-17
4.330000E+03	1.432901E-15	1.411191E-17
4.340000E+03	1.446160E-15	1.420870E-17
4.350000E+03	1.460069E-15	1.431195E-17
4.360000E+03	1.473190E-15	1.440758E-17
4.370000E+03	1.483923E-15	1.448008E-17
4.380000E+03	1.490602E-15	1.451337E-17
4.390000E+03	1.491421E-15	1.449022E-17
4.400000E+03	1.485985E-15	1.440716E-17
4.410000E+03	1.475239E-15	1.427371E-17
4.420000E+03	1.460129E-15	1.409930E-17
4.430000E+03	1.441437E-15	1.389168E-17
4.440000E+03	1.419962E-15	1.365869E-17
4.450000E+03	1.396552E-15	1.340858E-17
4.460000E+03	1.372163E-15	1.315056E-17
4.470000E+03	1.347829E-15	1.289453E-17
4.480000E+03	1.324651E-15	1.265094E-17
4.490000E+03	1.303765E-15	1.243053E-17
4.500000E+03	1.286290E-15	1.224381E-17
4.510000E+03	1.273335E-15	1.210110E-17
4.520000E+03	1.266009E-15	1.201269E-17
4.530000E+03	1.265229E-15	1.198701E-17
4.540000E+03	1.271668E-15	1.203011E-17
4.550000E+03	1.285582E-15	1.214410E-17
4.560000E+03	1.306888E-15	1.232791E-17
4.570000E+03	1.335135E-15	1.257697E-17
4.580000E+03	1.369534E-15	1.288364E-17
4.590000E+03	1.408996E-15	1.323743E-17
4.600000E+03	1.452248E-15	1.362627E-17
4.610000E+03	1.497956E-15	1.403753E-17
4.620000E+03	1.544706E-15	1.445791E-17
4.630000E+03	1.591085E-15	1.487419E-17
4.640000E+03	1.635759E-15	1.527396E-17
4.650000E+03	1.677484E-15	1.564570E-17
4.660000E+03	1.715163E-15	1.597928E-17
4.670000E+03	1.747913E-15	1.626664E-17
4.680000E+03	1.775160E-15	1.650259E-17
4.690000E+03	1.796708E-15	1.668549E-17
4.700000E+03	1.812779E-15	1.681756E-17
4.710000E+03	1.824125E-15	1.690593E-17
4.720000E+03	1.831938E-15	1.696175E-17
4.730000E+03	1.837228E-15	1.699445E-17
4.740000E+03	1.839819E-15	1.700246E-17
4.750000E+03	1.839685E-15	1.698562E-17
4.760000E+03	1.836922E-15	1.694484E-17
4.770000E+03	1.831844E-15	1.688307E-17
4.780000E+03	1.824869E-15	1.680420E-17
4.790000E+03	1.816584E-15	1.671366E-17
4.800000E+03	1.807643E-15	1.661747E-17
4.810000E+03	1.798769E-15	1.652228E-17
4.820000E+03	1.790667E-15	1.643453E-17
4.830000E+03	1.784016E-15	1.636042E-17
4.840000E+03	1.779326E-15	1.630458E-17
4.850000E+03	1.776869E-15	1.626944E-17
4.860000E+03	1.776739E-15	1.625581E-17
4.870000E+03	1.778862E-15	1.626294E-17
4.880000E+03	1.782918E-15	1.628786E-17
4.890000E+03	1.788525E-15	1.632704E-17
4.900000E+03	1.795120E-15	1.637531E-17
4.910000E+03	1.802006E-15	1.642628E-17
4.920000E+03	1.808469E-15	1.647344E-17
4.930000E+03	1.813755E-15	1.650993E-17
4.940000E+03	1.817184E-15	1.652958E-17
4.950000E+03	1.818323E-15	1.652850E-17
4.960000E+03	1.817171E-15	1.650670E-17
4.970000E+03	1.814198E-15	1.646850E-17
4.980000E+03	1.810260E-15	1.642169E-17
4.990000E+03	1.806100E-15	1.637302E-17
5.000000E+03	1.802202E-15	1.632687E-17
5.010000E+03	1.798700E-15	1.628447E-17
5.020000E+03	1.795351E-15	1.624360E-17
5.030000E+03	1.791596E-15	1.619919E-17
5.040000E+03	1.786704E-15	1.614467E-17
5.050000E+03	1.779784E-15	1.607200E-17
5.060000E+03	1.770054E-15	1.597415E-17
5.070000E+03	1.756885E-15	1.584551E-17
5.080000E+03	1.739913E-15	1.568285E-17
5.090000E+03	1.719173E-15	1.548655E-17
5.100000E+03	1.695047E-15	1.526012E-17
5.110000E+03	1.668347E-15	1.501092E-17
5.120000E+03	1.640258E-15	1.474964E-17
5.130000E+03	1.612127E-15	1.448839E-17
5.140000E+03	1.585264E-15	1.423899E-17
5.150000E+03	1.560837E-15	1.401184E-17
5.160000E+03	1.539744E-15	1.381502E-17
5.170000E+03	1.522581E-15	1.365379E-17
5.180000E+03	1.509560E-15	1.353002E-17
5.190000E+03	1.500639E-15	1.344326E-17
5.200000E+03	1.495551E-15	1.339109E-17
5.210000E+03	1.493836E-15	1.336935E-17
5.220000E+03	1.494954E-15	1.337317E-17
5.230000E+03	1.498481E-15	1.339872E-17
5.240000E+03	1.504050E-15	1.344273E-17
5.250000E+03	1.511441E-15	1.350321E-17
5.260000E+03	1.520454E-15	1.357838E-17
5.270000E+03	1.530918E-15	1.366671E-17
5.280000E+03	1.542577E-15	1.376591E-17
5.290000E+03	1.555176E-15	1.387373E-17
5.300000E+03	1.568423E-15	1.398758E-17
5.310000E+03	1.581963E-15	1.410430E-17
5.320000E+03	1.595401E-15	1.422040E-17
5.330000E+03	1.608297E-15	1.433199E-17
5.340000E+03	1.620199E-15	1.443506E-17
5.350000E+03	1.630599E-15	1.452512E-17
5.360000E+03	1.639028E-15	1.459804E-17
5.370000E+03	1.645093E-15	1.465033E-17
5.380000E+03	1.648633E-15	1.468061E-17
5.390000E+03	1.649750E-15	1.468980E-17
5.400000E+03	1.648755E-15	1.468070E-17
5.410000E+03	1.646011E-15	1.465656E-17
5.420000E+03	1.641807E-15	1.461998E-17
5.430000E+03	1.636364E-15	1.457291E-17
5.440000E+03	1.629864E-15	1.451702E-17
5.450000E+03	1.622510E-15	1.445411E-17
5.460000E+03	1.614619E-15	1.438701E-17
5.470000E+03	1.606843E-15	1.432155E-17
5.480000E+03	1.600114E-15	1.426602E-17
5.490000E+03	1.595471E-15	1.422970E-17
5.500000E+03	1.593597E-15	1.421870E-17
5.510000E+03	1.594588E-15	1.423386E-17
5.520000E+03	1.597998E-15	1.427124E-17
5.530000E+03	1.602889E-15	1.432250E-17
5.540000E+03	1.608004E-15	1.437638E-17
5.550000E+03	1.611912E-15	1.442010E-17
5.560000E+03	1.613343E-15	1.444226E-17
5.570000E+03	1.611374E-15	1.443455E-17
5.580000E+03	1.605630E-15	1.439351E-17
5.590000E+03	1.596413E-15	1.432178E-17
5.600000E+03	1.584770E-15	1.422868E-17
5.610000E+03	1.572309E-15	1.412855E-17
5.620000E+03	1.560746E-15	1.403681E-17
5.630000E+03	1.551798E-15	1.396893E-17
5.640000E+03	1.546892E-15	1.393778E-17
5.650000E+03	1.546872E-15	1.395108E-17
5.660000E+03	1.551845E-15	1.400993E-17
5.670000E+03	1.561204E-15	1.410895E-17
5.680000E+03	1.573797E-15	1.423785E-17
5.690000E+03	1.587907E-15	1.438119E-17
5.700000E+03	1.601578E-15	1.452127E-17
5.710000E+03	1.613183E-15	1.464333E-17
5.720000E+03	1.621655E-15	1.473760E-17
5.730000E+03	1.626551E-15	1.479995E-17
5.740000E+03	1.627830E-15	1.482989E-17
5.750000E+03	1.625797E-15	1.483008E-17
5.760000E+03	1.620940E-15	1.480485E-17
5.770000E+03	1.613870E-15	1.475968E-17
5.780000E+03	1.605171E-15	1.469984E-17
5.790000E+03	1.595364E-15	1.463004E-17
5.800000E+03	1.584716E-15	1.455266E-17
5.810000E+03	1.573246E-15	1.446785E-17
5.820000E+03	1.560991E-15	1.437591E-17
5.830000E+03	1.548239E-15	1.427944E-17
5.840000E+03	1.535756E-15	1.418549E-17
5.850000E+03	1.524485E-15	1.410279E-17
5.860000E+03	1.515282E-15	1.403931E-17
5.870000E+03	1.508613E-15	1.399945E-17
5.880000E+03	1.504577E-15	1.398425E-17
5.890000E+03	1.502848E-15	1.399079E-17
5.900000E+03	1.502771E-15	1.401304E-17
5.910000E+03	1.503465E-15	1.404289E-17
5.920000E+03	1.503864E-15	1.407037E-17
5.930000E+03	1.502993E-15	1.408634E-17
5.940000E+03	1.500134E-15	1.408401E-17
5.950000E+03	1.495137E-15	1.406187E-17
5.960000E+03	1.488686E-15	1.402624E-17
5.970000E+03	1.481825E-15	1.398692E-17
5.980000E+03	1.475411E-15	1.395199E-17
5.990000E+03	1.469792E-15	1.392476E-17
6.000000E+03	1.464828E-15	1.390394E-17
6.010000E+03	1.460095E-15	1.388555E-17
6.020000E+03	1.455077E-15	1.386467E-17
6.030000E+03	1.449278E-15	1.383656E-17
6.040000E+03	1.442442E-15	1.379872E-17
6.050000E+03	1.434651E-15	1.375189E-17
6.060000E+03	1.426182E-15	1.369866E-17
6.070000E+03	1.417358E-15	1.364211E-17
6.080000E+03	1.408425E-15	1.358457E-17
6.090000E+03	1.399595E-15	1.352810E-17
6.100000E+03	1.391135E-15	1.347528E-17
6.110000E+03	1.383478E-15	1.343034E-17
6.120000E+03	1.377031E-15	1.339729E-17
6.130000E+03	1.372073E-15	1.337893E-17
6.140000E+03	1.368581E-15	1.337513E-17
6.150000E+03	1.366319E-15	1.338368E-17
6.160000E+03	1.364729E-15	1.339919E-17
6.170000E+03	1.363066E-15	1.341437E-17
6.180000E+03	1.360560E-15	1.342159E-17
6.190000E+03	1.356574E-15	1.341449E-17
6.200000E+03	1.351211E-15	1.339397E-17
6.210000E+03	1.345244E-15	1.336757E-17
6.220000E+03	1.339392E-15	1.334242E-17
6.230000E+03	1.334096E-15	1.332290E-17
6.240000E+03	1.329480E-15	1.331027E-17
6.250000E+03	1.325439E-15	1.330351E-17
6.260000E+03	1.321648E-15	1.329940E-17
6.270000E+03	1.317766E-15	1.329448E-17
6.280000E+03	1.313580E-15	1.328658E-17
6.290000E+03	1.309012E-15	1.327488E-17
6.300000E+03	1.304225E-15	1.326098E-17
6.310000E+03	1.299532E-15	1.324804E-17
6.320000E+03	1.295355E-15	1.324037E-17
6.330000E+03	1.292027E-15	1.324143E-17
6.340000E+03	1.289772E-15	1.325355E-17
6.350000E+03	1.288518E-15	1.327606E-17
6.360000E+03	1.287963E-15	1.330594E-17
6.370000E+03	1.287621E-15	1.333819E-17
6.380000E+03	1.286927E-15	1.336695E-17
6.390000E+03	1.285399E-15	1.338716E-17
6.400000E+03	1.282684E-15	1.339507E-17
6.410000E+03	1.278767E-15	1.339038E-17
6.420000E+03	1.273864E-15	1.337526E-17
6.430000E+03	1.268260E-15	1.335262E-17
6.440000E+03	1.262350E-15	1.332656E-17
6.450000E+03	1.256506E-15	1.330098E-17
6.460000E+03	1.251088E-15	1.327970E-17
6.470000E+03	1.246527E-15	1.326732E-17
6.480000E+03	1.243250E-15	1.326848E-17
6.490000E+03	1.241793E-15	1.328901E-17
6.500000E+03	1.242769E-15	1.333564E-17
6.510000E+03	1.246680E-15	1.341397E-17
6.520000E+03	1.253590E-15	1.352496E-17
6.530000E+03	1.263074E-15	1.366425E-17
6.540000E+03	1.274082E-15	1.382069E-17
6.550000E+03	1.285215E-15	1.397917E-17
6.560000E+03	1.294795E-15	1.412141E-17
6.570000E+03	1.301190E-15	1.422942E-17
6.580000E+03	1.303081E-15	1.428844E-17
6.590000E+03	1.299680E-15	1.428942E-17
6.600000E+03	1.290983E-15	1.423184E-17
6.610000E+03	1.277757E-15	1.412369E-17
6.620000E+03	1.261516E-15	1.398136E-17
6.630000E+03	1.244136E-15	1.382542E-17
6.640000E+03	1.227435E-15	1.367602E-17
6.650000E+03	1.212804E-15	1.354876E-17
6.660000E+03	1.201153E-15	1.345401E-17
6.670000E+03	1.192792E-15	1.339552E-17
6.680000E+03	1.187518E-15	1.337128E-17
6.690000E+03	1.184665E-15	1.337404E-17
6.700000E+03	1.183405E-15	1.339466E-17
6.710000E+03	1.182910E-15	1.342387E-17
6.720000E+03	1.182427E-15	1.345317E-17
6.730000E+03	1.181406E-15	1.347629E-17
6.740000E+03	1.179557E-15	1.348986E-17
6.750000E+03	1.176840E-15	1.349334E-17
6.760000E+03	1.173333E-15	1.348757E-17
6.770000E+03	1.169237E-15	1.347478E-17
6.780000E+03	1.164711E-15	1.345676E-17
6.790000E+03	1.159859E-15	1.343468E-17
6.800000E+03	1.154687E-15	1.340857E-17
6.810000E+03	1.149128E-15	1.337765E-17
6.820000E+03	1.143132E-15	1.334127E-17
6.830000E+03	1.136760E-15	1.330012E-17
6.840000E+03	1.130134E-15	1.325562E-17
6.850000E+03	1.123432E-15	1.320981E-17
6.860000E+03	1.116863E-15	1.316517E-17
6.870000E+03	1.110650E-15	1.312435E-17
6.880000E+03	1.104973E-15	1.308950E-17
6.890000E+03	1.099895E-15	1.306142E-17
6.900000E+03	1.095394E-15	1.303992E-17
6.910000E+03	1.091355E-15	1.302367E-17
6.920000E+03	1.087538E-15	1.300983E-17
6.930000E+03	1.083660E-15	1.299506E-17
6.940000E+03	1.079552E-15	1.297729E-17
6.950000E+03	1.075112E-15	1.295530E-17
6.960000E+03	1.070396E-15	1.292972E-17
6.970000E+03	1.065523E-15	1.290200E-17
6.980000E+03	1.060693E-15	1.287452E-17
6.990000E+03	1.056085E-15	1.284949E-17
7.000000E+03	1.051800E-15	1.282817E-17
7.010000E+03	1.047825E-15	1.281042E-17
7.020000E+03	1.044018E-15	1.279453E-17
7.030000E+03	1.040218E-15	1.277854E-17
7.040000E+03	1.036298E-15	1.276091E-17
7.050000E+03	1.032191E-15	1.274078E-17
7.060000E+03	1.027939E-15	1.271868E-17
7.070000E+03	1.023725E-15	1.269687E-17
7.080000E+03	1.019790E-15	1.267833E-17
7.090000E+03	1.016370E-15	1.266605E-17
7.100000E+03	1.013606E-15	1.266184E-17
7.110000E+03	1.011525E-15	1.266610E-17
7.120000E+03	1.010090E-15	1.267843E-17
7.130000E+03	1.009131E-15	1.269676E-17
7.140000E+03	1.008501E-15	1.271929E-17
7.150000E+03	1.008037E-15	1.274398E-17
7.160000E+03	1.007653E-15	1.276976E-17
7.170000E+03	1.007322E-15	1.279632E-17
7.180000E+03	1.006996E-15	1.282304E-17
7.190000E+03	1.006759E-15	1.285102E-17
7.200000E+03	1.006603E-15	1.288014E-17
7.210000E+03	1.006496E-15	1.291004E-17
7.220000E+03	1.006338E-15	1.293942E-17
7.230000E+03	1.005986E-15	1.296646E-17
7.240000E+03	1.005348E-15	1.298994E-17
7.250000E+03	1.004436E-15	1.300999E-17
7.260000E+03	1.003301E-15	1.302729E-17
7.270000E+03	1.002074E-15	1.304350E-17
7.280000E+03	1.000922E-15	1.306079E-17
7.290000E+03	9.999578E-16	1.308067E-17
7.300000E+03	9.991336E-16	1.310253E-17
7.310000E+03	9.981261E-16	1.312214E-17
7.320000E+03	9.964900E-16	1.313362E-17
7.330000E+03	9.937238E-16	1.313029E-17
7.340000E+03	9.893913E-16	1.310626E-17
7.350000E+03	9.831972E-16	1.305746E-17
7.360000E+03	9.751650E-16	1.298401E-17
7.370000E+03	9.655846E-16	1.288960E-17
7.380000E+03	9.550972E-16	1.278265E-17
7.390000E+03	9.443797E-16	1.267215E-17
7.400000E+03	9.342441E-16	1.256899E-17
7.410000E+03	9.253442E-16	1.248206E-17
7.420000E+03	9.182180E-16	1.241876E-17
7.430000E+03	9.130911E-16	1.238234E-17
7.440000E+03	9.099535E-16	1.237288E-17
7.450000E+03	9.085550E-16	1.238720E-17
7.460000E+03	9.084236E-16	1.241904E-17
7.470000E+03	9.090106E-16	1.246102E-17
7.480000E+03	9.098844E-16	1.250730E-17
7.490000E+03	9.109259E-16	1.255626E-17
7.500000E+03	9.122208E-16	1.260910E-17
7.510000E+03	9.141519E-16	1.267116E-17
7.520000E+03	9.167560E-16	1.274301E-17
7.530000E+03	9.195164E-16	1.281753E-17
7.540000E+03	9.219184E-16	1.288754E-17
7.550000E+03	9.235259E-16	1.294688E-17
7.560000E+03	9.240250E-16	1.299104E-17
7.570000E+03	9.231929E-16	1.301673E-17
7.580000E+03	9.210614E-16	1.302425E-17
7.590000E+03	9.177671E-16	1.301535E-17
7.600000E+03	9.135379E-16	1.299314E-17
7.610000E+03	9.087134E-16	1.296232E-17
7.620000E+03	9.035511E-16	1.292651E-17
7.630000E+03	8.983720E-16	1.289025E-17
7.640000E+03	8.934361E-16	1.285727E-17
7.650000E+03	8.889364E-16	1.283039E-17
7.660000E+03	8.850274E-16	1.281189E-17
7.670000E+03	8.817704E-16	1.280272E-17
7.680000E+03	8.791308E-16	1.280246E-17
7.690000E+03	8.770369E-16	1.281013E-17
7.700000E+03	8.752901E-16	1.282290E-17
7.710000E+03	8.737545E-16	1.283880E-17
7.720000E+03	8.723416E-16	1.285655E-17
7.730000E+03	8.711202E-16	1.287717E-17
7.740000E+03	8.702403E-16	1.290293E-17
7.750000E+03	8.698455E-16	1.293598E-17
7.760000E+03	8.699525E-16	1.297664E-17
