#wls	flux	fluxerr
1.600000E+03	2.995298E-17	2.033229E-18
1.640000E+03	3.024995E-17	2.039896E-18
1.680000E+03	3.055208E-17	2.046357E-18
1.720000E+03	3.089885E-17	2.055218E-18
1.760000E+03	3.126457E-17	2.064708E-18
1.800000E+03	3.164964E-17	2.074816E-18
1.840000E+03	3.208057E-17	2.087226E-18
1.880000E+03	3.253167E-17	2.100195E-18
1.920000E+03	3.302951E-17	2.115383E-18
1.960000E+03	3.354828E-17	2.131063E-18
2.000000E+03	3.411461E-17	2.148865E-18
2.040000E+03	3.471572E-17	2.167897E-18
2.080000E+03	3.536510E-17	2.188924E-18
2.120000E+03	3.604978E-17	2.211051E-18
2.160000E+03	3.679645E-17	2.235825E-18
2.200000E+03	3.757863E-17	2.261528E-18
2.240000E+03	3.842289E-17	2.289663E-18
2.280000E+03	3.931572E-17	2.319305E-18
2.320000E+03	4.028361E-17	2.351897E-18
2.360000E+03	4.129920E-17	2.385703E-18
2.400000E+03	4.237518E-17	2.421342E-18
2.440000E+03	4.351060E-17	2.458632E-18
2.480000E+03	4.470429E-17	2.497380E-18
2.520000E+03	4.595489E-17	2.537385E-18
2.560000E+03	4.726095E-17	2.578447E-18
2.600000E+03	4.862103E-17	2.620371E-18
2.640000E+03	5.004763E-17	2.663713E-18
2.680000E+03	5.152625E-17	2.707578E-18
2.720000E+03	5.307069E-17	2.752581E-18
2.760000E+03	5.468221E-17	2.798665E-18
2.800000E+03	5.636379E-17	2.845862E-18
2.840000E+03	5.812082E-17	2.894323E-18
2.880000E+03	5.997568E-17	2.945028E-18
2.920000E+03	6.194074E-17	2.998420E-18
2.960000E+03	6.403304E-17	3.055142E-18
3.000000E+03	6.630294E-17	3.117372E-18
3.010000E+03	6.690838E-17	3.134236E-18
3.020000E+03	6.752013E-17	3.151195E-18
3.030000E+03	6.815280E-17	3.168928E-18
3.040000E+03	6.879283E-17	3.186797E-18
3.050000E+03	6.944075E-17	3.204824E-18
3.060000E+03	7.012545E-17	3.224337E-18
3.070000E+03	7.081925E-17	3.244049E-18
3.080000E+03	7.152275E-17	3.263987E-18
3.090000E+03	7.225076E-17	3.284821E-18
3.100000E+03	7.300399E-17	3.306571E-18
3.110000E+03	7.378312E-17	3.329260E-18
3.120000E+03	7.457456E-17	3.352265E-18
3.130000E+03	7.539325E-17	3.376253E-18
3.140000E+03	7.623995E-17	3.401245E-18
3.150000E+03	7.711535E-17	3.427262E-18
3.160000E+03	7.800571E-17	3.453684E-18
3.170000E+03	7.894060E-17	3.481811E-18
3.180000E+03	7.989174E-17	3.510382E-18
3.190000E+03	8.087423E-17	3.540054E-18
3.200000E+03	8.190334E-17	3.571480E-18
3.210000E+03	8.295041E-17	3.603396E-18
3.220000E+03	8.403055E-17	3.636452E-18
3.230000E+03	8.515904E-17	3.671295E-18
3.240000E+03	8.630666E-17	3.706652E-18
3.250000E+03	8.750348E-17	3.743804E-18
3.260000E+03	8.873480E-17	3.782107E-18
3.270000E+03	9.000088E-17	3.821560E-18
3.280000E+03	9.131661E-17	3.862783E-18
3.290000E+03	9.266712E-17	3.905130E-18
3.300000E+03	9.405189E-17	3.948572E-18
3.310000E+03	9.548587E-17	3.993723E-18
3.320000E+03	9.696865E-17	4.040551E-18
3.330000E+03	9.848425E-17	4.088377E-18
3.340000E+03	1.000316E-16	4.137148E-18
3.350000E+03	1.016406E-16	4.188095E-18
3.360000E+03	1.032791E-16	4.239871E-18
3.370000E+03	1.049768E-16	4.293693E-18
3.380000E+03	1.067007E-16	4.348197E-18
3.390000E+03	1.084647E-16	4.403944E-18
3.400000E+03	1.102665E-16	4.460835E-18
3.410000E+03	1.121040E-16	4.518783E-18
3.420000E+03	1.139910E-16	4.578331E-18
3.430000E+03	1.159087E-16	4.638723E-18
3.440000E+03	1.178546E-16	4.699855E-18
3.450000E+03	1.198424E-16	4.762275E-18
3.460000E+03	1.218696E-16	4.825880E-18
3.470000E+03	1.239177E-16	4.889933E-18
3.480000E+03	1.259846E-16	4.954364E-18
3.490000E+03	1.281020E-16	5.020415E-18
3.500000E+03	1.302527E-16	5.087418E-18
3.510000E+03	1.324207E-16	5.154746E-18
3.520000E+03	1.346410E-16	5.223766E-18
3.530000E+03	1.369001E-16	5.293959E-18
3.540000E+03	1.392034E-16	5.365535E-18
3.550000E+03	1.415754E-16	5.439432E-18
3.560000E+03	1.440261E-16	5.516028E-18
3.570000E+03	1.465515E-16	5.595162E-18
3.580000E+03	1.491670E-16	5.677417E-18
3.590000E+03	1.519249E-16	5.764765E-18
3.600000E+03	1.548260E-16	5.857206E-18
3.610000E+03	1.578661E-16	5.954563E-18
3.620000E+03	1.610323E-16	6.056328E-18
3.630000E+03	1.643124E-16	6.162030E-18
3.640000E+03	1.677123E-16	6.271877E-18
3.650000E+03	1.712044E-16	6.384832E-18
3.660000E+03	1.747971E-16	6.501215E-18
3.670000E+03	1.784830E-16	6.620748E-18
3.680000E+03	1.822562E-16	6.743218E-18
3.690000E+03	1.861119E-16	6.868455E-18
3.700000E+03	1.900467E-16	6.996337E-18
3.710000E+03	1.940756E-16	7.127416E-18
3.720000E+03	1.981617E-16	7.260339E-18
3.730000E+03	2.023575E-16	7.397027E-18
3.740000E+03	2.066272E-16	7.536173E-18
3.750000E+03	2.109887E-16	7.678430E-18
3.760000E+03	2.154427E-16	7.823824E-18
3.770000E+03	2.200074E-16	7.973022E-18
3.780000E+03	2.246481E-16	8.124757E-18
3.790000E+03	2.294014E-16	8.280361E-18
3.800000E+03	2.342682E-16	8.439862E-18
3.810000E+03	2.392309E-16	8.602629E-18
3.820000E+03	2.443082E-16	8.769331E-18
3.830000E+03	2.495183E-16	8.940627E-18
3.840000E+03	2.548249E-16	9.115212E-18
3.850000E+03	2.602638E-16	9.294367E-18
3.860000E+03	2.658341E-16	9.478064E-18
3.870000E+03	2.715158E-16	9.665585E-18
3.880000E+03	2.773246E-16	9.857494E-18
3.890000E+03	2.832567E-16	1.005365E-17
3.900000E+03	2.893247E-16	1.025452E-17
3.910000E+03	2.954846E-16	1.045854E-17
3.920000E+03	3.017806E-16	1.066727E-17
3.930000E+03	3.081629E-16	1.087897E-17
3.940000E+03	3.146135E-16	1.109301E-17
3.950000E+03	3.211476E-16	1.130992E-17
3.960000E+03	3.277203E-16	1.152816E-17
3.970000E+03	3.343190E-16	1.174728E-17
3.980000E+03	3.408905E-16	1.196544E-17
3.990000E+03	3.473960E-16	1.218130E-17
4.000000E+03	3.538307E-16	1.239471E-17
4.010000E+03	3.601154E-16	1.260293E-17
4.020000E+03	3.662440E-16	1.280578E-17
4.030000E+03	3.721580E-16	1.300122E-17
4.040000E+03	3.778381E-16	1.318864E-17
4.050000E+03	3.832354E-16	1.336636E-17
4.060000E+03	3.883434E-16	1.353417E-17
4.070000E+03	3.931461E-16	1.369156E-17
4.080000E+03	3.976375E-16	1.383834E-17
4.090000E+03	4.018223E-16	1.397472E-17
4.100000E+03	4.057322E-16	1.410180E-17
4.110000E+03	4.093760E-16	1.421993E-17
4.120000E+03	4.127893E-16	1.433036E-17
4.130000E+03	4.160488E-16	1.443575E-17
4.140000E+03	4.191729E-16	1.453678E-17
4.150000E+03	4.222349E-16	1.463596E-17
4.160000E+03	4.252799E-16	1.473488E-17
4.170000E+03	4.284022E-16	1.483680E-17
4.180000E+03	4.316503E-16	1.494339E-17
4.190000E+03	4.351030E-16	1.505739E-17
4.200000E+03	4.387936E-16	1.517992E-17
4.210000E+03	4.428126E-16	1.531412E-17
4.220000E+03	4.472039E-16	1.546150E-17
4.230000E+03	4.520232E-16	1.562397E-17
4.240000E+03	4.573222E-16	1.580332E-17
4.250000E+03	4.631619E-16	1.600163E-17
4.260000E+03	4.695681E-16	1.621981E-17
4.270000E+03	4.765718E-16	1.645891E-17
4.280000E+03	4.842051E-16	1.672005E-17
4.290000E+03	4.924423E-16	1.700234E-17
4.300000E+03	5.012779E-16	1.730559E-17
4.310000E+03	5.106804E-16	1.762872E-17
4.320000E+03	5.205484E-16	1.796824E-17
4.330000E+03	5.307753E-16	1.832049E-17
4.340000E+03	5.412472E-16	1.868155E-17
4.350000E+03	5.517505E-16	1.904406E-17
4.360000E+03	5.621086E-16	1.940194E-17
4.370000E+03	5.720801E-16	1.974688E-17
4.380000E+03	5.814181E-16	2.007036E-17
4.390000E+03	5.898611E-16	2.036337E-17
4.400000E+03	5.973642E-16	2.062437E-17
4.410000E+03	6.040384E-16	2.085719E-17
4.420000E+03	6.100726E-16	2.106834E-17
4.430000E+03	6.156059E-16	2.126265E-17
4.440000E+03	6.208525E-16	2.144750E-17
4.450000E+03	6.259947E-16	2.162919E-17
4.460000E+03	6.312181E-16	2.181415E-17
4.470000E+03	6.367089E-16	2.200882E-17
4.480000E+03	6.426630E-16	2.221999E-17
4.490000E+03	6.492713E-16	2.245428E-17
4.500000E+03	6.566803E-16	2.271679E-17
4.510000E+03	6.650745E-16	2.301394E-17
4.520000E+03	6.745871E-16	2.335039E-17
4.530000E+03	6.853564E-16	2.373097E-17
4.540000E+03	6.974730E-16	2.415888E-17
4.550000E+03	7.110347E-16	2.463759E-17
4.560000E+03	7.260944E-16	2.516901E-17
4.570000E+03	7.426569E-16	2.575338E-17
4.580000E+03	7.607008E-16	2.639001E-17
4.590000E+03	7.801654E-16	2.707687E-17
4.600000E+03	8.009276E-16	2.780978E-17
4.610000E+03	8.228660E-16	2.858457E-17
4.620000E+03	8.458024E-16	2.939512E-17
4.630000E+03	8.695189E-16	3.023392E-17
4.640000E+03	8.938013E-16	3.109355E-17
4.650000E+03	9.184209E-16	3.196610E-17
4.660000E+03	9.431146E-16	3.284243E-17
4.670000E+03	9.676454E-16	3.371428E-17
4.680000E+03	9.917566E-16	3.457271E-17
4.690000E+03	1.015236E-15	3.541029E-17
4.700000E+03	1.037880E-15	3.621988E-17
4.710000E+03	1.059521E-15	3.699554E-17
4.720000E+03	1.080025E-15	3.773258E-17
4.730000E+03	1.099310E-15	3.842805E-17
4.740000E+03	1.117308E-15	3.907946E-17
4.750000E+03	1.133982E-15	3.968545E-17
4.760000E+03	1.149383E-15	4.024771E-17
4.770000E+03	1.163565E-15	4.076804E-17
4.780000E+03	1.176647E-15	4.125051E-17
4.790000E+03	1.188765E-15	4.169982E-17
4.800000E+03	1.200091E-15	4.212198E-17
4.810000E+03	1.210811E-15	4.252337E-17
4.820000E+03	1.221078E-15	4.290937E-17
4.830000E+03	1.231081E-15	4.328656E-17
4.840000E+03	1.240973E-15	4.366030E-17
4.850000E+03	1.250828E-15	4.403318E-17
4.860000E+03	1.260754E-15	4.440896E-17
4.870000E+03	1.270750E-15	4.478765E-17
4.880000E+03	1.280780E-15	4.516788E-17
4.890000E+03	1.290776E-15	4.554733E-17
4.900000E+03	1.300577E-15	4.592025E-17
4.910000E+03	1.310019E-15	4.628082E-17
4.920000E+03	1.318862E-15	4.662054E-17
4.930000E+03	1.326873E-15	4.693111E-17
4.940000E+03	1.333751E-15	4.720179E-17
4.950000E+03	1.339220E-15	4.742276E-17
4.960000E+03	1.343043E-15	4.758551E-17
4.970000E+03	1.344939E-15	4.767996E-17
4.980000E+03	1.344684E-15	4.769805E-17
4.990000E+03	1.342119E-15	4.763402E-17
5.000000E+03	1.337069E-15	4.748149E-17
5.010000E+03	1.329450E-15	4.723730E-17
5.020000E+03	1.319234E-15	4.690033E-17
5.030000E+03	1.306424E-15	4.647052E-17
5.040000E+03	1.291120E-15	4.595129E-17
5.050000E+03	1.273479E-15	4.534810E-17
5.060000E+03	1.253745E-15	4.466946E-17
5.070000E+03	1.232214E-15	4.392585E-17
5.080000E+03	1.209243E-15	4.312993E-17
5.090000E+03	1.185264E-15	4.229699E-17
5.100000E+03	1.160699E-15	4.144208E-17
5.110000E+03	1.136014E-15	4.058185E-17
5.120000E+03	1.111674E-15	3.973288E-17
5.130000E+03	1.088126E-15	3.891120E-17
5.140000E+03	1.065767E-15	3.813105E-17
5.150000E+03	1.044984E-15	3.740643E-17
5.160000E+03	1.026094E-15	3.674873E-17
5.170000E+03	1.009368E-15	3.616778E-17
5.180000E+03	9.950050E-16	3.567083E-17
5.190000E+03	9.831611E-16	3.526365E-17
5.200000E+03	9.739037E-16	3.494879E-17
5.210000E+03	9.672745E-16	3.472788E-17
5.220000E+03	9.632571E-16	3.460049E-17
5.230000E+03	9.617769E-16	3.456409E-17
5.240000E+03	9.627583E-16	3.461609E-17
5.250000E+03	9.660956E-16	3.475284E-17
5.260000E+03	9.716601E-16	3.496982E-17
5.270000E+03	9.793256E-16	3.526262E-17
5.280000E+03	9.889551E-16	3.562643E-17
5.290000E+03	1.000423E-15	3.605681E-17
5.300000E+03	1.013618E-15	3.654990E-17
5.310000E+03	1.028407E-15	3.710098E-17
5.320000E+03	1.044687E-15	3.770639E-17
5.330000E+03	1.062372E-15	3.836316E-17
5.340000E+03	1.081359E-15	3.906766E-17
5.350000E+03	1.101574E-15	3.981728E-17
5.360000E+03	1.122952E-15	4.060978E-17
5.370000E+03	1.145438E-15	4.144322E-17
5.380000E+03	1.168952E-15	4.231483E-17
5.390000E+03	1.193461E-15	4.322346E-17
5.400000E+03	1.218873E-15	4.416587E-17
5.410000E+03	1.245090E-15	4.513856E-17
5.420000E+03	1.272012E-15	4.613803E-17
5.430000E+03	1.299472E-15	4.715828E-17
5.440000E+03	1.327308E-15	4.819348E-17
5.450000E+03	1.355290E-15	4.923537E-17
5.460000E+03	1.383155E-15	5.027439E-17
5.470000E+03	1.410617E-15	5.130019E-17
5.480000E+03	1.437337E-15	5.230051E-17
5.490000E+03	1.462978E-15	5.326305E-17
5.500000E+03	1.487227E-15	5.417635E-17
5.510000E+03	1.510008E-15	5.503768E-17
5.520000E+03	1.531248E-15	5.584433E-17
5.530000E+03	1.550930E-15	5.659559E-17
5.540000E+03	1.568981E-15	5.728879E-17
5.550000E+03	1.585430E-15	5.792487E-17
5.560000E+03	1.600299E-15	5.850453E-17
5.570000E+03	1.613668E-15	5.903066E-17
5.580000E+03	1.625665E-15	5.950772E-17
5.590000E+03	1.636455E-15	5.994173E-17
5.600000E+03	1.646240E-15	6.033998E-17
5.610000E+03	1.655236E-15	6.071031E-17
5.620000E+03	1.663662E-15	6.106066E-17
5.630000E+03	1.671697E-15	6.139757E-17
5.640000E+03	1.679502E-15	6.172686E-17
5.650000E+03	1.687165E-15	6.205183E-17
5.660000E+03	1.694754E-15	6.237492E-17
5.670000E+03	1.702241E-15	6.269506E-17
5.680000E+03	1.709562E-15	6.300988E-17
5.690000E+03	1.716596E-15	6.331489E-17
5.700000E+03	1.723214E-15	6.360525E-17
5.710000E+03	1.729264E-15	6.387538E-17
5.720000E+03	1.734625E-15	6.412069E-17
5.730000E+03	1.739205E-15	6.433775E-17
5.740000E+03	1.742916E-15	6.452319E-17
5.750000E+03	1.745763E-15	6.467708E-17
5.760000E+03	1.747756E-15	6.479978E-17
5.770000E+03	1.748941E-15	6.489284E-17
5.780000E+03	1.749404E-15	6.495943E-17
5.790000E+03	1.749232E-15	6.500264E-17
5.800000E+03	1.748529E-15	6.502632E-17
5.810000E+03	1.747381E-15	6.503363E-17
5.820000E+03	1.745865E-15	6.502735E-17
5.830000E+03	1.744051E-15	6.501006E-17
5.840000E+03	1.741974E-15	6.498301E-17
5.850000E+03	1.739640E-15	6.494644E-17
5.860000E+03	1.737049E-15	6.490024E-17
5.870000E+03	1.734173E-15	6.484339E-17
5.880000E+03	1.730915E-15	6.477223E-17
5.890000E+03	1.727246E-15	6.468561E-17
5.900000E+03	1.723049E-15	6.457912E-17
5.910000E+03	1.718261E-15	6.445029E-17
5.920000E+03	1.712843E-15	6.429768E-17
5.930000E+03	1.706712E-15	6.411806E-17
5.940000E+03	1.699860E-15	6.391107E-17
5.950000E+03	1.692288E-15	6.367665E-17
5.960000E+03	1.684038E-15	6.341637E-17
5.970000E+03	1.675157E-15	6.313190E-17
5.980000E+03	1.665709E-15	6.282561E-17
5.990000E+03	1.655764E-15	6.250012E-17
6.000000E+03	1.645417E-15	6.215888E-17
6.010000E+03	1.634743E-15	6.180480E-17
6.020000E+03	1.623824E-15	6.144088E-17
6.030000E+03	1.612756E-15	6.107076E-17
6.040000E+03	1.601607E-15	6.069700E-17
6.050000E+03	1.590487E-15	6.032375E-17
6.060000E+03	1.579478E-15	5.995415E-17
6.070000E+03	1.568642E-15	5.959057E-17
6.080000E+03	1.558062E-15	5.923616E-17
6.090000E+03	1.547824E-15	5.889426E-17
6.100000E+03	1.537959E-15	5.856604E-17
6.110000E+03	1.528510E-15	5.825320E-17
6.120000E+03	1.519508E-15	5.795696E-17
6.130000E+03	1.510954E-15	5.767743E-17
6.140000E+03	1.502854E-15	5.741484E-17
6.150000E+03	1.495206E-15	5.716922E-17
6.160000E+03	1.488007E-15	5.694041E-17
6.170000E+03	1.481267E-15	5.672895E-17
6.180000E+03	1.474977E-15	5.653448E-17
6.190000E+03	1.469148E-15	5.635750E-17
6.200000E+03	1.463814E-15	5.619937E-17
6.210000E+03	1.458976E-15	5.606016E-17
6.220000E+03	1.454631E-15	5.593978E-17
6.230000E+03	1.450782E-15	5.583849E-17
6.240000E+03	1.447423E-15	5.575602E-17
6.250000E+03	1.444519E-15	5.569114E-17
6.260000E+03	1.442027E-15	5.564225E-17
6.270000E+03	1.439890E-15	5.560715E-17
6.280000E+03	1.438012E-15	5.558221E-17
6.290000E+03	1.436299E-15	5.556379E-17
6.300000E+03	1.434651E-15	5.554811E-17
6.310000E+03	1.432951E-15	5.553065E-17
6.320000E+03	1.431069E-15	5.550633E-17
6.330000E+03	1.428908E-15	5.547138E-17
6.340000E+03	1.426365E-15	5.542180E-17
6.350000E+03	1.423406E-15	5.535627E-17
6.360000E+03	1.420009E-15	5.527385E-17
6.370000E+03	1.416178E-15	5.517471E-17
6.380000E+03	1.411979E-15	5.506136E-17
6.390000E+03	1.407527E-15	5.493825E-17
6.400000E+03	1.402938E-15	5.480993E-17
6.410000E+03	1.398360E-15	5.468218E-17
6.420000E+03	1.393946E-15	5.456098E-17
6.430000E+03	1.389813E-15	5.445093E-17
6.440000E+03	1.386111E-15	5.435801E-17
6.450000E+03	1.382902E-15	5.428466E-17
6.460000E+03	1.380255E-15	5.423365E-17
6.470000E+03	1.378187E-15	5.420572E-17
6.480000E+03	1.376715E-15	5.420149E-17
6.490000E+03	1.375830E-15	5.422076E-17
6.500000E+03	1.375507E-15	5.426250E-17
6.510000E+03	1.375704E-15	5.432512E-17
6.520000E+03	1.376372E-15	5.440673E-17
6.530000E+03	1.377457E-15	5.450522E-17
6.540000E+03	1.378845E-15	5.461612E-17
6.550000E+03	1.380388E-15	5.473355E-17
6.560000E+03	1.381916E-15	5.485077E-17
6.570000E+03	1.383264E-15	5.496124E-17
6.580000E+03	1.384337E-15	5.506108E-17
6.590000E+03	1.385004E-15	5.514502E-17
6.600000E+03	1.385217E-15	5.521115E-17
6.610000E+03	1.384917E-15	5.525695E-17
6.620000E+03	1.384077E-15	5.528130E-17
6.630000E+03	1.382710E-15	5.528461E-17
6.640000E+03	1.380799E-15	5.526614E-17
6.650000E+03	1.378384E-15	5.522741E-17
6.660000E+03	1.375485E-15	5.516913E-17
6.670000E+03	1.372160E-15	5.509353E-17
6.680000E+03	1.368440E-15	5.500177E-17
6.690000E+03	1.364372E-15	5.489574E-17
6.700000E+03	1.360013E-15	5.477762E-17
6.710000E+03	1.355405E-15	5.464903E-17
6.720000E+03	1.350623E-15	5.451305E-17
6.730000E+03	1.345714E-15	5.437145E-17
6.740000E+03	1.340741E-15	5.422676E-17
6.750000E+03	1.335754E-15	5.408104E-17
6.760000E+03	1.330797E-15	5.393600E-17
6.770000E+03	1.325879E-15	5.379201E-17
6.780000E+03	1.321022E-15	5.364996E-17
6.790000E+03	1.316184E-15	5.350816E-17
6.800000E+03	1.311371E-15	5.336680E-17
6.810000E+03	1.306536E-15	5.322400E-17
6.820000E+03	1.301633E-15	5.307789E-17
6.830000E+03	1.296643E-15	5.292761E-17
6.840000E+03	1.291577E-15	5.277368E-17
6.850000E+03	1.286438E-15	5.261612E-17
6.860000E+03	1.281261E-15	5.245638E-17
6.870000E+03	1.276097E-15	5.229657E-17
6.880000E+03	1.271002E-15	5.213899E-17
6.890000E+03	1.266038E-15	5.198609E-17
6.900000E+03	1.261239E-15	5.183940E-17
6.910000E+03	1.256648E-15	5.170067E-17
6.920000E+03	1.252294E-15	5.157107E-17
6.930000E+03	1.248207E-15	5.145189E-17
6.940000E+03	1.244362E-15	5.134217E-17
6.950000E+03	1.240784E-15	5.124292E-17
6.960000E+03	1.237432E-15	5.115248E-17
6.970000E+03	1.234285E-15	5.107004E-17
6.980000E+03	1.231335E-15	5.099526E-17
6.990000E+03	1.228553E-15	5.092697E-17
7.000000E+03	1.225875E-15	5.086255E-17
7.010000E+03	1.223301E-15	5.080197E-17
7.020000E+03	1.220767E-15	5.074265E-17
7.030000E+03	1.218266E-15	5.068425E-17
7.040000E+03	1.215782E-15	5.062613E-17
7.050000E+03	1.213313E-15	5.056821E-17
7.060000E+03	1.210856E-15	5.051039E-17
7.070000E+03	1.208440E-15	5.045387E-17
7.080000E+03	1.206102E-15	5.040019E-17
7.090000E+03	1.203901E-15	5.035184E-17
7.100000E+03	1.201852E-15	5.030947E-17
7.110000E+03	1.200010E-15	5.027543E-17
7.120000E+03	1.198405E-15	5.025100E-17
7.130000E+03	1.197042E-15	5.023642E-17
7.140000E+03	1.195941E-15	5.023252E-17
7.150000E+03	1.195082E-15	5.023852E-17
7.160000E+03	1.194463E-15	5.025441E-17
7.170000E+03	1.194034E-15	5.027805E-17
7.180000E+03	1.193785E-15	5.030911E-17
7.190000E+03	1.193694E-15	5.034668E-17
7.200000E+03	1.193743E-15	5.039001E-17
7.210000E+03	1.193904E-15	5.043791E-17
7.220000E+03	1.194181E-15	5.049063E-17
7.230000E+03	1.194555E-15	5.054734E-17
7.240000E+03	1.195020E-15	5.060787E-17
7.250000E+03	1.195587E-15	5.067263E-17
7.260000E+03	1.196205E-15	5.073954E-17
7.270000E+03	1.196862E-15	5.080806E-17
7.280000E+03	1.197506E-15	5.087604E-17
7.290000E+03	1.198067E-15	5.094051E-17
7.300000E+03	1.198457E-15	5.099772E-17
7.310000E+03	1.198560E-15	5.104276E-17
7.320000E+03	1.198303E-15	5.107244E-17
7.330000E+03	1.197597E-15	5.108299E-17
7.340000E+03	1.196408E-15	5.107292E-17
7.350000E+03	1.194765E-15	5.104346E-17
7.360000E+03	1.192718E-15	5.099667E-17
7.370000E+03	1.190375E-15	5.093719E-17
7.380000E+03	1.187894E-15	5.087178E-17
7.390000E+03	1.185414E-15	5.080631E-17
7.400000E+03	1.183080E-15	5.074715E-17
7.410000E+03	1.181025E-15	5.069999E-17
7.420000E+03	1.179310E-15	5.066744E-17
7.430000E+03	1.177949E-15	5.065026E-17
7.440000E+03	1.176917E-15	5.064735E-17
7.450000E+03	1.176096E-15	5.065374E-17
7.460000E+03	1.175338E-15	5.066306E-17
7.470000E+03	1.174476E-15	5.066813E-17
7.480000E+03	1.173297E-15	5.065980E-17
7.490000E+03	1.171606E-15	5.062960E-17
7.500000E+03	1.169247E-15	5.057072E-17
7.510000E+03	1.166082E-15	5.047723E-17
7.520000E+03	1.162027E-15	5.034533E-17
7.530000E+03	1.157037E-15	5.017302E-17
7.540000E+03	1.151171E-15	4.996274E-17
7.550000E+03	1.144486E-15	4.971696E-17
7.560000E+03	1.137102E-15	4.944076E-17
7.570000E+03	1.129173E-15	4.914077E-17
7.580000E+03	1.120895E-15	4.882547E-17
7.590000E+03	1.112445E-15	4.850263E-17
7.600000E+03	1.104036E-15	4.818140E-17
7.610000E+03	1.095834E-15	4.786918E-17
7.620000E+03	1.088036E-15	4.757456E-17
7.630000E+03	1.080758E-15	4.730266E-17
7.640000E+03	1.074076E-15	4.705692E-17
7.650000E+03	1.068091E-15	4.684189E-17
7.660000E+03	1.062766E-15	4.665601E-17
7.670000E+03	1.058116E-15	4.650001E-17
7.680000E+03	1.054044E-15	4.636979E-17
7.690000E+03	1.050488E-15	4.626268E-17
7.700000E+03	1.047304E-15	4.617246E-17
7.710000E+03	1.044403E-15	4.609528E-17
7.720000E+03	1.041669E-15	4.602601E-17
7.730000E+03	1.038979E-15	4.595931E-17
7.740000E+03	1.036263E-15	4.589206E-17
7.750000E+03	1.033452E-15	4.582131E-17
7.760000E+03	1.030521E-15	4.574584E-17
