#wls	flux	fluxerr
1.600000E+03	1.220235E-17	2.817295E-18
1.640000E+03	1.211073E-17	2.777802E-18
1.680000E+03	1.200576E-17	2.735154E-18
1.720000E+03	1.189109E-17	2.690249E-18
1.760000E+03	1.176203E-17	2.642086E-18
1.800000E+03	1.162213E-17	2.591537E-18
1.840000E+03	1.147460E-17	2.539382E-18
1.880000E+03	1.131113E-17	2.483843E-18
1.920000E+03	1.113148E-17	2.424972E-18
1.960000E+03	1.094261E-17	2.364371E-18
2.000000E+03	1.073700E-17	2.300497E-18
2.040000E+03	1.052134E-17	2.234889E-18
2.080000E+03	1.028877E-17	2.166180E-18
2.120000E+03	1.004580E-17	2.095848E-18
2.160000E+03	9.786259E-18	2.022707E-18
2.200000E+03	9.513662E-18	1.947601E-18
2.240000E+03	9.231185E-18	1.871282E-18
2.280000E+03	8.933886E-18	1.792853E-18
2.320000E+03	8.627914E-18	1.713657E-18
2.360000E+03	8.309183E-18	1.632980E-18
2.400000E+03	7.983724E-18	1.552112E-18
2.440000E+03	7.650423E-18	1.470917E-18
2.480000E+03	7.310824E-18	1.389776E-18
2.520000E+03	6.968496E-18	1.309437E-18
2.560000E+03	6.623160E-18	1.229900E-18
2.600000E+03	6.276785E-18	1.151584E-18
2.640000E+03	5.931399E-18	1.074894E-18
2.680000E+03	5.590513E-18	1.000484E-18
2.720000E+03	5.255914E-18	9.286698E-19
2.760000E+03	4.926963E-18	8.593223E-19
2.800000E+03	4.609343E-18	7.934053E-19
2.840000E+03	4.302383E-18	7.307480E-19
2.880000E+03	4.007907E-18	6.716002E-19
2.920000E+03	3.728443E-18	6.163086E-19
2.960000E+03	3.465251E-18	5.649868E-19
3.000000E+03	3.218706E-18	5.175919E-19
3.010000E+03	3.160227E-18	5.064333E-19
3.020000E+03	3.102813E-18	4.955149E-19
3.030000E+03	3.046483E-18	4.848381E-19
3.040000E+03	2.991254E-18	4.744038E-19
3.050000E+03	2.937142E-18	4.642128E-19
3.060000E+03	2.884165E-18	4.542658E-19
3.070000E+03	2.832336E-18	4.445633E-19
3.080000E+03	2.782277E-18	4.352004E-19
3.090000E+03	2.732776E-18	4.259855E-19
3.100000E+03	2.685045E-18	4.171057E-19
3.110000E+03	2.637926E-18	4.083790E-19
3.120000E+03	2.592577E-18	3.999829E-19
3.130000E+03	2.548432E-18	3.918276E-19
3.140000E+03	2.505503E-18	3.839129E-19
3.150000E+03	2.464323E-18	3.763181E-19
3.160000E+03	2.423850E-18	3.688819E-19
3.170000E+03	2.384627E-18	3.616856E-19
3.180000E+03	2.347156E-18	3.548029E-19
3.190000E+03	2.310459E-18	3.480836E-19
3.200000E+03	2.275516E-18	3.416739E-19
3.210000E+03	2.241852E-18	3.354997E-19
3.220000E+03	2.209478E-18	3.295607E-19
3.230000E+03	2.178407E-18	3.238568E-19
3.240000E+03	2.149090E-18	3.184529E-19
3.250000E+03	2.120657E-18	3.132180E-19
3.260000E+03	2.093570E-18	3.082184E-19
3.270000E+03	2.068261E-18	3.035158E-19
3.280000E+03	2.044316E-18	2.990470E-19
3.290000E+03	2.021753E-18	2.948128E-19
3.300000E+03	2.000596E-18	2.908143E-19
3.310000E+03	1.980863E-18	2.870527E-19
3.320000E+03	1.962579E-18	2.835294E-19
3.330000E+03	1.945770E-18	2.802461E-19
3.340000E+03	1.930841E-18	2.772595E-19
3.350000E+03	1.917064E-18	2.744625E-19
3.360000E+03	1.905223E-18	2.719658E-19
3.370000E+03	1.894979E-18	2.697187E-19
3.380000E+03	1.886370E-18	2.677251E-19
3.390000E+03	1.879443E-18	2.659895E-19
3.400000E+03	1.874246E-18	2.645169E-19
3.410000E+03	1.871187E-18	2.633629E-19
3.420000E+03	1.869612E-18	2.624335E-19
3.430000E+03	1.870294E-18	2.618355E-19
3.440000E+03	1.872947E-18	2.615269E-19
3.450000E+03	1.877299E-18	2.614681E-19
3.460000E+03	1.884132E-18	2.617664E-19
3.470000E+03	1.893190E-18	2.623841E-19
3.480000E+03	1.904920E-18	2.633814E-19
3.490000E+03	1.918730E-18	2.646748E-19
3.500000E+03	1.935441E-18	2.663759E-19
3.510000E+03	1.954476E-18	2.684034E-19
3.520000E+03	1.976681E-18	2.708724E-19
3.530000E+03	2.001855E-18	2.737533E-19
3.540000E+03	2.030160E-18	2.770669E-19
3.550000E+03	2.061770E-18	2.808354E-19
3.560000E+03	2.096869E-18	2.850828E-19
3.570000E+03	2.136037E-18	2.898864E-19
3.580000E+03	2.178731E-18	2.951712E-19
3.590000E+03	2.225934E-18	3.010698E-19
3.600000E+03	2.277503E-18	3.075614E-19
3.610000E+03	2.333268E-18	3.146225E-19
3.620000E+03	2.394280E-18	3.223944E-19
3.630000E+03	2.460823E-18	3.309149E-19
3.640000E+03	2.532329E-18	3.401073E-19
3.650000E+03	2.609499E-18	3.500662E-19
3.660000E+03	2.693095E-18	3.608941E-19
3.670000E+03	2.783003E-18	3.725766E-19
3.680000E+03	2.879079E-18	3.850956E-19
3.690000E+03	2.982646E-18	3.986296E-19
3.700000E+03	3.093616E-18	4.131690E-19
3.710000E+03	3.212400E-18	4.287710E-19
3.720000E+03	3.339985E-18	4.455707E-19
3.730000E+03	3.475744E-18	4.634880E-19
3.740000E+03	3.621296E-18	4.827424E-19
3.750000E+03	3.775983E-18	5.032504E-19
3.760000E+03	3.941567E-18	5.252511E-19
3.770000E+03	4.118028E-18	5.487470E-19
3.780000E+03	4.305973E-18	5.738249E-19
3.790000E+03	4.506041E-18	6.005764E-19
3.800000E+03	4.719660E-18	6.291991E-19
3.810000E+03	4.946053E-18	6.595976E-19
3.820000E+03	5.187507E-18	6.920861E-19
3.830000E+03	5.443183E-18	7.265624E-19
3.840000E+03	5.715575E-18	7.633703E-19
3.850000E+03	6.004705E-18	8.025252E-19
3.860000E+03	6.311454E-18	8.441576E-19
3.870000E+03	6.636740E-18	8.884050E-19
3.880000E+03	6.982588E-18	9.355539E-19
3.890000E+03	7.347873E-18	9.854708E-19
3.900000E+03	7.734643E-18	1.038448E-18
3.910000E+03	8.145195E-18	1.094815E-18
3.920000E+03	8.579467E-18	1.154584E-18
3.930000E+03	9.038587E-18	1.217931E-18
3.940000E+03	9.523697E-18	1.285033E-18
3.950000E+03	1.003595E-17	1.356073E-18
3.960000E+03	1.057655E-17	1.431241E-18
3.970000E+03	1.114669E-17	1.510730E-18
3.980000E+03	1.174934E-17	1.594973E-18
3.990000E+03	1.238234E-17	1.683711E-18
4.000000E+03	1.305049E-17	1.777636E-18
4.010000E+03	1.375333E-17	1.876719E-18
4.020000E+03	1.449209E-17	1.981172E-18
4.030000E+03	1.526803E-17	2.091207E-18
4.040000E+03	1.608238E-17	2.207040E-18
4.050000E+03	1.693635E-17	2.328880E-18
4.060000E+03	1.783113E-17	2.456943E-18
4.070000E+03	1.877056E-17	2.591807E-18
4.080000E+03	1.975053E-17	2.732960E-18
4.090000E+03	2.077761E-17	2.881364E-18
4.100000E+03	2.185014E-17	3.036850E-18
4.110000E+03	2.296911E-17	3.199614E-18
4.120000E+03	2.413205E-17	3.369373E-18
4.130000E+03	2.534991E-17	3.547718E-18
4.140000E+03	2.661333E-17	3.733408E-18
4.150000E+03	2.792635E-17	3.927073E-18
4.160000E+03	2.928953E-17	4.128863E-18
4.170000E+03	3.070754E-17	4.339504E-18
4.180000E+03	3.217254E-17	4.557962E-18
4.190000E+03	3.369335E-17	4.785559E-18
4.200000E+03	3.526122E-17	5.021123E-18
4.210000E+03	3.688547E-17	5.266056E-18
4.220000E+03	3.856147E-17	5.519775E-18
4.230000E+03	4.028904E-17	5.782328E-18
4.240000E+03	4.206787E-17	6.053745E-18
4.250000E+03	4.389753E-17	6.334041E-18
4.260000E+03	4.577749E-17	6.623214E-18
4.270000E+03	4.771333E-17	6.922147E-18
4.280000E+03	4.969208E-17	7.229036E-18
4.290000E+03	5.171889E-17	7.544697E-18
4.300000E+03	5.379977E-17	7.870083E-18
4.310000E+03	5.592006E-17	8.203124E-18
4.320000E+03	5.809281E-17	8.545799E-18
4.330000E+03	6.030993E-17	8.896995E-18
4.340000E+03	6.256229E-17	9.255426E-18
4.350000E+03	6.486426E-17	9.623281E-18
4.360000E+03	6.720676E-17	9.999285E-18
4.370000E+03	6.958856E-17	1.038331E-17
4.380000E+03	7.200823E-17	1.077521E-17
4.390000E+03	7.446424E-17	1.117481E-17
4.400000E+03	7.695496E-17	1.158192E-17
4.410000E+03	7.948819E-17	1.199777E-17
4.420000E+03	8.204262E-17	1.241920E-17
4.430000E+03	8.462566E-17	1.284736E-17
4.440000E+03	8.724597E-17	1.328362E-17
4.450000E+03	8.988027E-17	1.372448E-17
4.460000E+03	9.253684E-17	1.417123E-17
4.470000E+03	9.522512E-17	1.462534E-17
4.480000E+03	9.792038E-17	1.508307E-17
4.490000E+03	1.006439E-16	1.554769E-17
4.500000E+03	1.033824E-16	1.601721E-17
4.510000E+03	1.061215E-16	1.648941E-17
4.520000E+03	1.088844E-16	1.696790E-17
4.530000E+03	1.116576E-16	1.745060E-17
4.540000E+03	1.144264E-16	1.793521E-17
4.550000E+03	1.172161E-16	1.842571E-17
4.560000E+03	1.200127E-16	1.891993E-17
4.570000E+03	1.228156E-16	1.941777E-17
4.580000E+03	1.256243E-16	1.991915E-17
4.590000E+03	1.284386E-16	2.042404E-17
4.600000E+03	1.312433E-16	2.093005E-17
4.610000E+03	1.340686E-16	2.144195E-17
4.620000E+03	1.369002E-16	2.195749E-17
4.630000E+03	1.397388E-16	2.247677E-17
4.640000E+03	1.425852E-16	2.299995E-17
4.650000E+03	1.454406E-16	2.352720E-17
4.660000E+03	1.483065E-16	2.405878E-17
4.670000E+03	1.511844E-16	2.459493E-17
4.680000E+03	1.540759E-16	2.513595E-17
4.690000E+03	1.569832E-16	2.568217E-17
4.700000E+03	1.599083E-16	2.623395E-17
4.710000E+03	1.628532E-16	2.679164E-17
4.720000E+03	1.658203E-16	2.735563E-17
4.730000E+03	1.687932E-16	2.792325E-17
4.740000E+03	1.718101E-16	2.850083E-17
4.750000E+03	1.748544E-16	2.908564E-17
4.760000E+03	1.779276E-16	2.967797E-17
4.770000E+03	1.810313E-16	3.027812E-17
4.780000E+03	1.841670E-16	3.088634E-17
4.790000E+03	1.873162E-16	3.149959E-17
4.800000E+03	1.905201E-16	3.212478E-17
4.810000E+03	1.937605E-16	3.275894E-17
4.820000E+03	1.970182E-16	3.339881E-17
4.830000E+03	2.003361E-16	3.405171E-17
4.840000E+03	2.036953E-16	3.471448E-17
4.850000E+03	2.070759E-16	3.538377E-17
4.860000E+03	2.105225E-16	3.606721E-17
4.870000E+03	2.139933E-16	3.675771E-17
4.880000E+03	2.175343E-16	3.746320E-17
4.890000E+03	2.211023E-16	3.817632E-17
4.900000E+03	2.247217E-16	3.890128E-17
4.910000E+03	2.284174E-16	3.964248E-17
4.920000E+03	2.321451E-16	4.039227E-17
4.930000E+03	2.359296E-16	4.115503E-17
4.940000E+03	2.397729E-16	4.193113E-17
4.950000E+03	2.436768E-16	4.272097E-17
4.960000E+03	2.476433E-16	4.352496E-17
4.970000E+03	2.516744E-16	4.434351E-17
4.980000E+03	2.557718E-16	4.517700E-17
4.990000E+03	2.599118E-16	4.602127E-17
5.000000E+03	2.641474E-16	4.688579E-17
5.010000E+03	2.684552E-16	4.776648E-17
5.020000E+03	2.728099E-16	4.865890E-17
5.030000E+03	2.772397E-16	4.956812E-17
5.040000E+03	2.817735E-16	5.049943E-17
5.050000E+03	2.863585E-16	5.144341E-17
5.060000E+03	2.910232E-16	5.240526E-17
5.070000E+03	2.957691E-16	5.338532E-17
5.080000E+03	3.005977E-16	5.438393E-17
5.090000E+03	3.055100E-16	5.540137E-17
5.100000E+03	3.105073E-16	5.643794E-17
5.110000E+03	3.155602E-16	5.748838E-17
5.120000E+03	3.207296E-16	5.856382E-17
5.130000E+03	3.259552E-16	5.965339E-17
5.140000E+03	3.312677E-16	6.076272E-17
5.150000E+03	3.366990E-16	6.189779E-17
5.160000E+03	3.421859E-16	6.304705E-17
5.170000E+03	3.477596E-16	6.421630E-17
5.180000E+03	3.533864E-16	6.539938E-17
5.190000E+03	3.591312E-16	6.660838E-17
5.200000E+03	3.649601E-16	6.783711E-17
5.210000E+03	3.708375E-16	6.907898E-17
5.220000E+03	3.767949E-16	7.033993E-17
5.230000E+03	3.828656E-16	7.162626E-17
5.240000E+03	3.889769E-16	7.292440E-17
5.250000E+03	3.951607E-16	7.424041E-17
5.260000E+03	4.013769E-16	7.556676E-17
5.270000E+03	4.076950E-16	7.691660E-17
5.280000E+03	4.140366E-16	7.827518E-17
5.290000E+03	4.204725E-16	7.965589E-17
5.300000E+03	4.269213E-16	8.104338E-17
5.310000E+03	4.334156E-16	8.244383E-17
5.320000E+03	4.399493E-16	8.385610E-17
5.330000E+03	4.465163E-16	8.527902E-17
5.340000E+03	4.530691E-16	8.670352E-17
5.350000E+03	4.596814E-16	8.814369E-17
5.360000E+03	4.662640E-16	8.958241E-17
5.370000E+03	4.728497E-16	9.102594E-17
5.380000E+03	4.794302E-16	9.247265E-17
5.390000E+03	4.859973E-16	9.392092E-17
5.400000E+03	4.924986E-16	9.536057E-17
5.410000E+03	4.990122E-16	9.680663E-17
5.420000E+03	5.054416E-16	9.824033E-17
5.430000E+03	5.118215E-16	9.966829E-17
5.440000E+03	5.181432E-16	1.010888E-16
5.450000E+03	5.243981E-16	1.024999E-16
5.460000E+03	5.305316E-16	1.038911E-16
5.470000E+03	5.366280E-16	1.052785E-16
5.480000E+03	5.425868E-16	1.066425E-16
5.490000E+03	5.484477E-16	1.079905E-16
5.500000E+03	5.542045E-16	1.093214E-16
5.510000E+03	5.598042E-16	1.106244E-16
5.520000E+03	5.653389E-16	1.119177E-16
5.530000E+03	5.707088E-16	1.131813E-16
5.540000E+03	5.759595E-16	1.144241E-16
5.550000E+03	5.810897E-16	1.156457E-16
5.560000E+03	5.860483E-16	1.168358E-16
5.570000E+03	5.909349E-16	1.180140E-16
5.580000E+03	5.956495E-16	1.191603E-16
5.590000E+03	6.002432E-16	1.202848E-16
5.600000E+03	6.047174E-16	1.213875E-16
5.610000E+03	6.090230E-16	1.224585E-16
5.620000E+03	6.132648E-16	1.235186E-16
5.630000E+03	6.173428E-16	1.245476E-16
5.640000E+03	6.213115E-16	1.255564E-16
5.650000E+03	6.251743E-16	1.265455E-16
5.660000E+03	6.288826E-16	1.275049E-16
5.670000E+03	6.325450E-16	1.284566E-16
5.680000E+03	6.360602E-16	1.293798E-16
5.690000E+03	6.394851E-16	1.302859E-16
5.700000E+03	6.427705E-16	1.311649E-16
5.710000E+03	6.460273E-16	1.320393E-16
5.720000E+03	6.491528E-16	1.328880E-16
5.730000E+03	6.522048E-16	1.337227E-16
5.740000E+03	6.551876E-16	1.345442E-16
5.750000E+03	6.581052E-16	1.353533E-16
5.760000E+03	6.609077E-16	1.361396E-16
5.770000E+03	6.636530E-16	1.369149E-16
5.780000E+03	6.663450E-16	1.376801E-16
5.790000E+03	6.689875E-16	1.384357E-16
5.800000E+03	6.715293E-16	1.391712E-16
5.810000E+03	6.740286E-16	1.398985E-16
5.820000E+03	6.764885E-16	1.406182E-16
5.830000E+03	6.789124E-16	1.413310E-16
5.840000E+03	6.812477E-16	1.420260E-16
5.850000E+03	6.836077E-16	1.427265E-16
5.860000E+03	6.858844E-16	1.434102E-16
5.870000E+03	6.880796E-16	1.440773E-16
5.880000E+03	6.903069E-16	1.447515E-16
5.890000E+03	6.924567E-16	1.454098E-16
5.900000E+03	6.945864E-16	1.460643E-16
5.910000E+03	6.966974E-16	1.467153E-16
5.920000E+03	6.987913E-16	1.473630E-16
5.930000E+03	7.008128E-16	1.479957E-16
5.940000E+03	7.028188E-16	1.486254E-16
5.950000E+03	7.048101E-16	1.492523E-16
5.960000E+03	7.067871E-16	1.498765E-16
5.970000E+03	7.086935E-16	1.504859E-16
5.980000E+03	7.105858E-16	1.510926E-16
5.990000E+03	7.124638E-16	1.516964E-16
6.000000E+03	7.142704E-16	1.522852E-16
6.010000E+03	7.161186E-16	1.528831E-16
6.020000E+03	7.178940E-16	1.534656E-16
6.030000E+03	7.196525E-16	1.540447E-16
6.040000E+03	7.213359E-16	1.546078E-16
6.050000E+03	7.230572E-16	1.551792E-16
6.060000E+03	7.247008E-16	1.557340E-16
6.070000E+03	7.263220E-16	1.562840E-16
6.080000E+03	7.278620E-16	1.568167E-16
6.090000E+03	7.294333E-16	1.573562E-16
6.100000E+03	7.309194E-16	1.578773E-16
6.110000E+03	7.323754E-16	1.583920E-16
6.120000E+03	7.337415E-16	1.588872E-16
6.130000E+03	7.351305E-16	1.593874E-16
6.140000E+03	7.364246E-16	1.598670E-16
6.150000E+03	7.376212E-16	1.603253E-16
6.160000E+03	7.388330E-16	1.607868E-16
6.170000E+03	7.399418E-16	1.612258E-16
6.180000E+03	7.410025E-16	1.616542E-16
6.190000E+03	7.420123E-16	1.620713E-16
6.200000E+03	7.429683E-16	1.624765E-16
6.210000E+03	7.438099E-16	1.628564E-16
6.220000E+03	7.445926E-16	1.632232E-16
6.230000E+03	7.453134E-16	1.635761E-16
6.240000E+03	7.459695E-16	1.639145E-16
6.250000E+03	7.465000E-16	1.642250E-16
6.260000E+03	7.469598E-16	1.645194E-16
6.270000E+03	7.473454E-16	1.647971E-16
6.280000E+03	7.475954E-16	1.650444E-16
6.290000E+03	7.478222E-16	1.652861E-16
6.300000E+03	7.479057E-16	1.654955E-16
6.310000E+03	7.478423E-16	1.656718E-16
6.320000E+03	7.477431E-16	1.658395E-16
6.330000E+03	7.474878E-16	1.659718E-16
6.340000E+03	7.471298E-16	1.660806E-16
6.350000E+03	7.466637E-16	1.661645E-16
6.360000E+03	7.460269E-16	1.662096E-16
6.370000E+03	7.453290E-16	1.662401E-16
6.380000E+03	7.444495E-16	1.662291E-16
6.390000E+03	7.434400E-16	1.661881E-16
6.400000E+03	7.422374E-16	1.661028E-16
6.410000E+03	7.408936E-16	1.659847E-16
6.420000E+03	7.394025E-16	1.658323E-16
6.430000E+03	7.377584E-16	1.656443E-16
6.440000E+03	7.359558E-16	1.654193E-16
6.450000E+03	7.339329E-16	1.651433E-16
6.460000E+03	7.317415E-16	1.648278E-16
6.470000E+03	7.293775E-16	1.644717E-16
6.480000E+03	7.267809E-16	1.640615E-16
6.490000E+03	7.240610E-16	1.636215E-16
6.500000E+03	7.211044E-16	1.631262E-16
6.510000E+03	7.179107E-16	1.625752E-16
6.520000E+03	7.145912E-16	1.619936E-16
6.530000E+03	7.110376E-16	1.613567E-16
6.540000E+03	7.073090E-16	1.606779E-16
6.550000E+03	7.034122E-16	1.599585E-16
6.560000E+03	6.993551E-16	1.592002E-16
6.570000E+03	6.950930E-16	1.583927E-16
6.580000E+03	6.906901E-16	1.575507E-16
6.590000E+03	6.861566E-16	1.566762E-16
6.600000E+03	6.815038E-16	1.557718E-16
6.610000E+03	6.766907E-16	1.548281E-16
6.620000E+03	6.717817E-16	1.538596E-16
6.630000E+03	6.667881E-16	1.528690E-16
6.640000E+03	6.617211E-16	1.518587E-16
6.650000E+03	6.565918E-16	1.508313E-16
6.660000E+03	6.513607E-16	1.497777E-16
6.670000E+03	6.460892E-16	1.487119E-16
6.680000E+03	6.407870E-16	1.476361E-16
6.690000E+03	6.354144E-16	1.465412E-16
6.700000E+03	6.300788E-16	1.454520E-16
6.710000E+03	6.246909E-16	1.443478E-16
6.720000E+03	6.192598E-16	1.432308E-16
6.730000E+03	6.138886E-16	1.421247E-16
6.740000E+03	6.085356E-16	1.410200E-16
6.750000E+03	6.031609E-16	1.399075E-16
6.760000E+03	5.978173E-16	1.387993E-16
6.770000E+03	5.924641E-16	1.376862E-16
6.780000E+03	5.871980E-16	1.365905E-16
6.790000E+03	5.819323E-16	1.354922E-16
6.800000E+03	5.767163E-16	1.344027E-16
6.810000E+03	5.715536E-16	1.333230E-16
6.820000E+03	5.664470E-16	1.322538E-16
6.830000E+03	5.613559E-16	1.311856E-16
6.840000E+03	5.563698E-16	1.301393E-16
6.850000E+03	5.514042E-16	1.290953E-16
6.860000E+03	5.464618E-16	1.280543E-16
6.870000E+03	5.416290E-16	1.270364E-16
6.880000E+03	5.368226E-16	1.260224E-16
6.890000E+03	5.321272E-16	1.250320E-16
6.900000E+03	5.274196E-16	1.240364E-16
6.910000E+03	5.228239E-16	1.230648E-16
6.920000E+03	5.182993E-16	1.221077E-16
6.930000E+03	5.138058E-16	1.211557E-16
6.940000E+03	5.093838E-16	1.202183E-16
6.950000E+03	5.050333E-16	1.192956E-16
6.960000E+03	5.007536E-16	1.183876E-16
6.970000E+03	4.965058E-16	1.174850E-16
6.980000E+03	4.923667E-16	1.166061E-16
6.990000E+03	4.882585E-16	1.157325E-16
7.000000E+03	4.842193E-16	1.148733E-16
7.010000E+03	4.802478E-16	1.140282E-16
7.020000E+03	4.763058E-16	1.131882E-16
7.030000E+03	4.724672E-16	1.123709E-16
7.040000E+03	4.686565E-16	1.115584E-16
7.050000E+03	4.649096E-16	1.107594E-16
7.060000E+03	4.611893E-16	1.099648E-16
7.070000E+03	4.575667E-16	1.091918E-16
7.080000E+03	4.540041E-16	1.084314E-16
7.090000E+03	4.504647E-16	1.076749E-16
7.100000E+03	4.469830E-16	1.069306E-16
7.110000E+03	4.435576E-16	1.061980E-16
7.120000E+03	4.401522E-16	1.054687E-16
7.130000E+03	4.368352E-16	1.047590E-16
7.140000E+03	4.335358E-16	1.040520E-16
7.150000E+03	4.302873E-16	1.033556E-16
7.160000E+03	4.270883E-16	1.026697E-16
7.170000E+03	4.239371E-16	1.019938E-16
7.180000E+03	4.208325E-16	1.013277E-16
7.190000E+03	4.177398E-16	1.006630E-16
7.200000E+03	4.146912E-16	1.000076E-16
7.210000E+03	4.116853E-16	9.936109E-17
7.220000E+03	4.087208E-16	9.872323E-17
7.230000E+03	4.057963E-16	9.809371E-17
7.240000E+03	4.029105E-16	9.747223E-17
7.250000E+03	4.000304E-16	9.685085E-17
7.260000E+03	3.971869E-16	9.623708E-17
7.270000E+03	3.943791E-16	9.563069E-17
7.280000E+03	3.916058E-16	9.503144E-17
7.290000E+03	3.888661E-16	9.443911E-17
7.300000E+03	3.861588E-16	9.385349E-17
7.310000E+03	3.834525E-16	9.326691E-17
7.320000E+03	3.807774E-16	9.268678E-17
7.330000E+03	3.781633E-16	9.212034E-17
7.340000E+03	3.755485E-16	9.155260E-17
7.350000E+03	3.729328E-16	9.098353E-17
7.360000E+03	3.703763E-16	9.042780E-17
7.370000E+03	3.678483E-16	8.987793E-17
7.380000E+03	3.653187E-16	8.932663E-17
7.390000E+03	3.628173E-16	8.878116E-17
7.400000E+03	3.603441E-16	8.824155E-17
7.410000E+03	3.578989E-16	8.770778E-17
7.420000E+03	3.554817E-16	8.717985E-17
7.430000E+03	3.530926E-16	8.665781E-17
7.440000E+03	3.507029E-16	8.613464E-17
7.450000E+03	3.483420E-16	8.561755E-17
7.460000E+03	3.460380E-16	8.511351E-17
7.470000E+03	3.437344E-16	8.460862E-17
7.480000E+03	3.414597E-16	8.410989E-17
7.490000E+03	3.391860E-16	8.361046E-17
7.500000E+03	3.369690E-16	8.312413E-17
7.510000E+03	3.347805E-16	8.264390E-17
7.520000E+03	3.325919E-16	8.216276E-17
7.530000E+03	3.304291E-16	8.168710E-17
7.540000E+03	3.282899E-16	8.121643E-17
7.550000E+03	3.261723E-16	8.075022E-17
7.560000E+03	3.240740E-16	8.028794E-17
7.570000E+03	3.219929E-16	7.982909E-17
7.580000E+03	3.199004E-16	7.936656E-17
7.590000E+03	3.178477E-16	7.891307E-17
7.600000E+03	3.157798E-16	7.845501E-17
7.610000E+03	3.137216E-16	7.799852E-17
7.620000E+03	3.116715E-16	7.754322E-17
7.630000E+03	3.096279E-16	7.708874E-17
7.640000E+03	3.075894E-16	7.663474E-17
7.650000E+03	3.055550E-16	7.618092E-17
7.660000E+03	3.035234E-16	7.572704E-17
7.670000E+03	3.014684E-16	7.526650E-17
7.680000E+03	2.994402E-16	7.481187E-17
7.690000E+03	2.973874E-16	7.435030E-17
7.700000E+03	2.953350E-16	7.388803E-17
7.710000E+03	2.932827E-16	7.342501E-17
7.720000E+03	2.912304E-16	7.296118E-17
7.730000E+03	2.891778E-16	7.249650E-17
7.740000E+03	2.871005E-16	7.202486E-17
7.750000E+03	2.850481E-16	7.155865E-17
7.760000E+03	2.829717E-16	7.108565E-17
