#wls	flux	fluxerr
1.573255E+03	9.099839E-02	1.097446E-02
1.612586E+03	9.965763E-02	1.200434E-02
1.651917E+03	1.088255E-01	1.309238E-02
1.691249E+03	1.184163E-01	1.422791E-02
1.730580E+03	1.282957E-01	1.539446E-02
1.769912E+03	1.382676E-01	1.656822E-02
1.809243E+03	1.480561E-01	1.771596E-02
1.848574E+03	1.572887E-01	1.879307E-02
1.887906E+03	1.654808E-01	1.974189E-02
1.927237E+03	1.720386E-01	2.049207E-02
1.966568E+03	1.762991E-01	2.096556E-02
2.005900E+03	1.776324E-01	2.108880E-02
2.045231E+03	1.756092E-01	2.081260E-02
2.084562E+03	1.701659E-01	2.013153E-02
2.123894E+03	1.616600E-01	1.909005E-02
2.163225E+03	1.507682E-01	1.777004E-02
2.202557E+03	1.382998E-01	1.626853E-02
2.241888E+03	1.250336E-01	1.467825E-02
2.281219E+03	1.116285E-01	1.307723E-02
2.320551E+03	9.859640E-02	1.152567E-02
2.359882E+03	8.631050E-02	1.006709E-02
2.399213E+03	7.502387E-02	8.730621E-03
2.438545E+03	6.488794E-02	7.533279E-03
2.477876E+03	5.596782E-02	6.481886E-03
2.517207E+03	4.825437E-02	5.574557E-03
2.556539E+03	4.167571E-02	4.802133E-03
2.595870E+03	3.611249E-02	4.150039E-03
2.635202E+03	3.141849E-02	3.600716E-03
2.674533E+03	2.744504E-02	3.136467E-03
2.713864E+03	2.406050E-02	2.741690E-03
2.753196E+03	2.115921E-02	2.403879E-03
2.792527E+03	1.866103E-02	2.113540E-03
2.831858E+03	1.650606E-02	1.863550E-03
2.871190E+03	1.464913E-02	1.648511E-03
2.910521E+03	1.305485E-02	1.464178E-03
2.949853E+03	1.169460E-02	1.307098E-03
2.959685E+03	1.138818E-02	1.271732E-03
2.969518E+03	1.109453E-02	1.237844E-03
2.979351E+03	1.081327E-02	1.205390E-03
2.989184E+03	1.054410E-02	1.174331E-03
2.999017E+03	1.028670E-02	1.144629E-03
3.008850E+03	1.004075E-02	1.116245E-03
3.018682E+03	9.805942E-03	1.089144E-03
3.028515E+03	9.581979E-03	1.063288E-03
3.038348E+03	9.368581E-03	1.038643E-03
3.048181E+03	9.165466E-03	1.015176E-03
3.058014E+03	8.972366E-03	9.928528E-04
3.067847E+03	8.789002E-03	9.716412E-04
3.077679E+03	8.615165E-03	9.515149E-04
3.087512E+03	8.450609E-03	9.324443E-04
3.097345E+03	8.295125E-03	9.144035E-04
3.107178E+03	8.148540E-03	8.973707E-04
3.117011E+03	8.010665E-03	8.813226E-04
3.126844E+03	7.881372E-03	8.662427E-04
3.136676E+03	7.760532E-03	8.521142E-04
3.146509E+03	7.648043E-03	8.389232E-04
3.156342E+03	7.543830E-03	8.266592E-04
3.166175E+03	7.447811E-03	8.153105E-04
3.176008E+03	7.359959E-03	8.048716E-04
3.185841E+03	7.280196E-03	7.953315E-04
3.195674E+03	7.208514E-03	7.866865E-04
3.205506E+03	7.144870E-03	7.789296E-04
3.215339E+03	7.089222E-03	7.720536E-04
3.225172E+03	7.041534E-03	7.660516E-04
3.235005E+03	7.001736E-03	7.609137E-04
3.244838E+03	6.969747E-03	7.566283E-04
3.254671E+03	6.945485E-03	7.531838E-04
3.264503E+03	6.928792E-03	7.505605E-04
3.274336E+03	6.919502E-03	7.487378E-04
3.284169E+03	6.917408E-03	7.476906E-04
3.294002E+03	6.922244E-03	7.473877E-04
3.303835E+03	6.933664E-03	7.477894E-04
3.313668E+03	6.951288E-03	7.488522E-04
3.323500E+03	6.974616E-03	7.505201E-04
3.333333E+03	7.003088E-03	7.527308E-04
3.343166E+03	7.035986E-03	7.554053E-04
3.352999E+03	7.072569E-03	7.584623E-04
3.362832E+03	7.111874E-03	7.617974E-04
3.372665E+03	7.152869E-03	7.652989E-04
3.382498E+03	7.194366E-03	7.688394E-04
3.392330E+03	7.235048E-03	7.722777E-04
3.402163E+03	7.273519E-03	7.754655E-04
3.411996E+03	7.308208E-03	7.782362E-04
3.421829E+03	7.337524E-03	7.804219E-04
3.431662E+03	7.359910E-03	7.818592E-04
3.441495E+03	7.373775E-03	7.823820E-04
3.451327E+03	7.377710E-03	7.818440E-04
3.461160E+03	7.370514E-03	7.801224E-04
3.470993E+03	7.351259E-03	7.771229E-04
3.480826E+03	7.319416E-03	7.727950E-04
3.490659E+03	7.274926E-03	7.671371E-04
3.500492E+03	7.218116E-03	7.601887E-04
3.510324E+03	7.149869E-03	7.520480E-04
3.520157E+03	7.071426E-03	7.428499E-04
3.529990E+03	6.984386E-03	7.327665E-04
3.539823E+03	6.890623E-03	7.219977E-04
3.549656E+03	6.792124E-03	7.107543E-04
3.559489E+03	6.690980E-03	6.992572E-04
3.569322E+03	6.589150E-03	6.877119E-04
3.579154E+03	6.488501E-03	6.763136E-04
3.588987E+03	6.390695E-03	6.652350E-04
3.598820E+03	6.297145E-03	6.546218E-04
3.608653E+03	6.208964E-03	6.445883E-04
3.618486E+03	6.126913E-03	6.352112E-04
3.628319E+03	6.051481E-03	6.265386E-04
3.638151E+03	5.982788E-03	6.185804E-04
3.647984E+03	5.920633E-03	6.113130E-04
3.657817E+03	5.864557E-03	6.046866E-04
3.667650E+03	5.813814E-03	5.986217E-04
3.677483E+03	5.767462E-03	5.930193E-04
3.687316E+03	5.724395E-03	5.877643E-04
3.697148E+03	5.683470E-03	5.827378E-04
3.706981E+03	5.643465E-03	5.778140E-04
3.716814E+03	5.603269E-03	5.728792E-04
3.726647E+03	5.561867E-03	5.678296E-04
3.736480E+03	5.518379E-03	5.625763E-04
3.746313E+03	5.472176E-03	5.570563E-04
3.756146E+03	5.422851E-03	5.512294E-04
3.765978E+03	5.370225E-03	5.450790E-04
3.775811E+03	5.314392E-03	5.386164E-04
3.785644E+03	5.255713E-03	5.318794E-04
3.795477E+03	5.194647E-03	5.249159E-04
3.805310E+03	5.131835E-03	5.177919E-04
3.815143E+03	5.067973E-03	5.105783E-04
3.824975E+03	5.003683E-03	5.033383E-04
3.834808E+03	4.939612E-03	4.961371E-04
3.844641E+03	4.876209E-03	4.890200E-04
3.854474E+03	4.813870E-03	4.820264E-04
3.864307E+03	4.752838E-03	4.751801E-04
3.874140E+03	4.693267E-03	4.684961E-04
3.883972E+03	4.635259E-03	4.619839E-04
3.893805E+03	4.578939E-03	4.556555E-04
3.903638E+03	4.524482E-03	4.495274E-04
3.913471E+03	4.472109E-03	4.436210E-04
3.923304E+03	4.422133E-03	4.379662E-04
3.933137E+03	4.374958E-03	4.326019E-04
3.942970E+03	4.330961E-03	4.275643E-04
3.952802E+03	4.290531E-03	4.228902E-04
3.962635E+03	4.253983E-03	4.186090E-04
3.972468E+03	4.221423E-03	4.147293E-04
3.982301E+03	4.192866E-03	4.112507E-04
3.992134E+03	4.168062E-03	4.081470E-04
4.001967E+03	4.146564E-03	4.053727E-04
4.011799E+03	4.127701E-03	4.028608E-04
4.021632E+03	4.110630E-03	4.005278E-04
4.031465E+03	4.094364E-03	3.982769E-04
4.041298E+03	4.077802E-03	3.960010E-04
4.051131E+03	4.059861E-03	3.935952E-04
4.060964E+03	4.039409E-03	3.909507E-04
4.070796E+03	4.015483E-03	3.879756E-04
4.080629E+03	3.987301E-03	3.845965E-04
4.090462E+03	3.954265E-03	3.807579E-04
4.100295E+03	3.916142E-03	3.764398E-04
4.110128E+03	3.872942E-03	3.716459E-04
4.119961E+03	3.825039E-03	3.664145E-04
4.129794E+03	3.773124E-03	3.608141E-04
4.139626E+03	3.718046E-03	3.549279E-04
4.149459E+03	3.660841E-03	3.488563E-04
4.159292E+03	3.602583E-03	3.427026E-04
4.169125E+03	3.544246E-03	3.365600E-04
4.178958E+03	3.486769E-03	3.305175E-04
4.188791E+03	3.430860E-03	3.246417E-04
4.198623E+03	3.377149E-03	3.189916E-04
4.208456E+03	3.326058E-03	3.136059E-04
4.218289E+03	3.277927E-03	3.085152E-04
4.228122E+03	3.233008E-03	3.037420E-04
4.237955E+03	3.191451E-03	2.992986E-04
4.247788E+03	3.153336E-03	2.951910E-04
4.257620E+03	3.118657E-03	2.914169E-04
4.267453E+03	3.087322E-03	2.879660E-04
4.277286E+03	3.059194E-03	2.848239E-04
4.287119E+03	3.034044E-03	2.819677E-04
4.296952E+03	3.011594E-03	2.793704E-04
4.306785E+03	2.991484E-03	2.769970E-04
4.316618E+03	2.973407E-03	2.748183E-04
4.326450E+03	2.957076E-03	2.728066E-04
4.336283E+03	2.942305E-03	2.709441E-04
4.346116E+03	2.929017E-03	2.692229E-04
4.355949E+03	2.917267E-03	2.676473E-04
4.365782E+03	2.907242E-03	2.662337E-04
4.375615E+03	2.899284E-03	2.650127E-04
4.385447E+03	2.893805E-03	2.640207E-04
4.395280E+03	2.891264E-03	2.632984E-04
4.405113E+03	2.892181E-03	2.628915E-04
4.414946E+03	2.896987E-03	2.628376E-04
4.424779E+03	2.906045E-03	2.631674E-04
4.434612E+03	2.919584E-03	2.638997E-04
4.444444E+03	2.937678E-03	2.650389E-04
4.454277E+03	2.960187E-03	2.665702E-04
4.464110E+03	2.986861E-03	2.684689E-04
4.473943E+03	3.017314E-03	2.706984E-04
4.483776E+03	3.051055E-03	2.732129E-04
4.493609E+03	3.087617E-03	2.759692E-04
4.503441E+03	3.126572E-03	2.789276E-04
4.513274E+03	3.167609E-03	2.820594E-04
4.523107E+03	3.210556E-03	2.853484E-04
4.532940E+03	3.255449E-03	2.887971E-04
4.542773E+03	3.302417E-03	2.924159E-04
4.552606E+03	3.351669E-03	2.962223E-04
4.562439E+03	3.403332E-03	3.002268E-04
4.572271E+03	3.457218E-03	3.044116E-04
4.582104E+03	3.512825E-03	3.087317E-04
4.591937E+03	3.569230E-03	3.131056E-04
4.601770E+03	3.624984E-03	3.174061E-04
4.611603E+03	3.678124E-03	3.214620E-04
4.621436E+03	3.726395E-03	3.250784E-04
4.631268E+03	3.767174E-03	3.280291E-04
4.641101E+03	3.797954E-03	3.301003E-04
4.650934E+03	3.816379E-03	3.310923E-04
4.660767E+03	3.820595E-03	3.308510E-04
4.670600E+03	3.809447E-03	3.292831E-04
4.680433E+03	3.782667E-03	3.263731E-04
4.690265E+03	3.740765E-03	3.221721E-04
4.700098E+03	3.685235E-03	3.168159E-04
4.709931E+03	3.618139E-03	3.104877E-04
4.719764E+03	3.542184E-03	3.034247E-04
4.729597E+03	3.460237E-03	2.958759E-04
4.739430E+03	3.375161E-03	2.880885E-04
4.749263E+03	3.289608E-03	2.802897E-04
4.759095E+03	3.205840E-03	2.726718E-04
4.768928E+03	3.125541E-03	2.653770E-04
4.778761E+03	3.049861E-03	2.585010E-04
4.788594E+03	2.979437E-03	2.520954E-04
4.798427E+03	2.914387E-03	2.461679E-04
4.808260E+03	2.854473E-03	2.406959E-04
4.818092E+03	2.799207E-03	2.356359E-04
4.827925E+03	2.747904E-03	2.309284E-04
4.837758E+03	2.699785E-03	2.265060E-04
4.847591E+03	2.654150E-03	2.223089E-04
4.857424E+03	2.610286E-03	2.182762E-04
4.867257E+03	2.567720E-03	2.143676E-04
4.877089E+03	2.526016E-03	2.105462E-04
4.886922E+03	2.484966E-03	2.067942E-04
4.896755E+03	2.444486E-03	2.031043E-04
4.906588E+03	2.404639E-03	1.994814E-04
4.916421E+03	2.365565E-03	1.959367E-04
4.926254E+03	2.327465E-03	1.924866E-04
4.936087E+03	2.290575E-03	1.891499E-04
4.945919E+03	2.255167E-03	1.859485E-04
4.955752E+03	2.221404E-03	1.828954E-04
4.965585E+03	2.189498E-03	1.800071E-04
4.975418E+03	2.159501E-03	1.772872E-04
4.985251E+03	2.131472E-03	1.747398E-04
4.995084E+03	2.105349E-03	1.723590E-04
5.004916E+03	2.081063E-03	1.701385E-04
5.014749E+03	2.058515E-03	1.680696E-04
5.024582E+03	2.037579E-03	1.661413E-04
5.034415E+03	2.018136E-03	1.643434E-04
5.044248E+03	2.000092E-03	1.626677E-04
5.054081E+03	1.983411E-03	1.611108E-04
5.063913E+03	1.968023E-03	1.596667E-04
5.073746E+03	1.953904E-03	1.583329E-04
5.083579E+03	1.941009E-03	1.571054E-04
5.093412E+03	1.929293E-03	1.559803E-04
5.103245E+03	1.918665E-03	1.549499E-04
5.113078E+03	1.909008E-03	1.540045E-04
5.122911E+03	1.900190E-03	1.531331E-04
5.132743E+03	1.892066E-03	1.523239E-04
5.142576E+03	1.884446E-03	1.515615E-04
5.152409E+03	1.877188E-03	1.508343E-04
5.162242E+03	1.870166E-03	1.501323E-04
5.172075E+03	1.863252E-03	1.494450E-04
5.181908E+03	1.856394E-03	1.487684E-04
5.191740E+03	1.849545E-03	1.480986E-04
5.201573E+03	1.842668E-03	1.474327E-04
5.211406E+03	1.835744E-03	1.467693E-04
5.221239E+03	1.828762E-03	1.461075E-04
5.231072E+03	1.821681E-03	1.454440E-04
5.240905E+03	1.814451E-03	1.447748E-04
5.250737E+03	1.806974E-03	1.440923E-04
5.260570E+03	1.799140E-03	1.433876E-04
5.270403E+03	1.790837E-03	1.426519E-04
5.280236E+03	1.781952E-03	1.418763E-04
5.290069E+03	1.772412E-03	1.410549E-04
5.299902E+03	1.762146E-03	1.401822E-04
5.309735E+03	1.751144E-03	1.392574E-04
5.319567E+03	1.739441E-03	1.382833E-04
5.329400E+03	1.727058E-03	1.372614E-04
5.339233E+03	1.714083E-03	1.361987E-04
5.349066E+03	1.700602E-03	1.351017E-04
5.358899E+03	1.686660E-03	1.339740E-04
5.368732E+03	1.672255E-03	1.328151E-04
5.378564E+03	1.657424E-03	1.316279E-04
5.388397E+03	1.642220E-03	1.304162E-04
5.398230E+03	1.626636E-03	1.291794E-04
5.408063E+03	1.610639E-03	1.279148E-04
5.417896E+03	1.594060E-03	1.266085E-04
5.427729E+03	1.576812E-03	1.252535E-04
5.437561E+03	1.558868E-03	1.238475E-04
5.447394E+03	1.540392E-03	1.224031E-04
5.457227E+03	1.521662E-03	1.209424E-04
5.467060E+03	1.503025E-03	1.194926E-04
5.476893E+03	1.484812E-03	1.180798E-04
5.486726E+03	1.467309E-03	1.167267E-04
5.496559E+03	1.450744E-03	1.154511E-04
5.506391E+03	1.435253E-03	1.142640E-04
5.516224E+03	1.420871E-03	1.131678E-04
5.526057E+03	1.407588E-03	1.121619E-04
5.535890E+03	1.395279E-03	1.112362E-04
5.545723E+03	1.383851E-03	1.103832E-04
5.555556E+03	1.373170E-03	1.095923E-04
5.565388E+03	1.363114E-03	1.088537E-04
5.575221E+03	1.353615E-03	1.081618E-04
5.585054E+03	1.344579E-03	1.075092E-04
5.594887E+03	1.335967E-03	1.068927E-04
5.604720E+03	1.327722E-03	1.063076E-04
5.614553E+03	1.319858E-03	1.057551E-04
5.624385E+03	1.312301E-03	1.052292E-04
5.634218E+03	1.305011E-03	1.047267E-04
5.644051E+03	1.297932E-03	1.042428E-04
5.653884E+03	1.290952E-03	1.037688E-04
5.663717E+03	1.283982E-03	1.032973E-04
5.673550E+03	1.276925E-03	1.028203E-04
5.683382E+03	1.269659E-03	1.023280E-04
5.693215E+03	1.262127E-03	1.018158E-04
5.703048E+03	1.254238E-03	1.012759E-04
5.712881E+03	1.246001E-03	1.007090E-04
5.722714E+03	1.237414E-03	1.001148E-04
5.732547E+03	1.228547E-03	9.949870E-05
5.742380E+03	1.219483E-03	9.886740E-05
5.752212E+03	1.210326E-03	9.822912E-05
5.762045E+03	1.201203E-03	9.759408E-05
5.771878E+03	1.192215E-03	9.697037E-05
5.781711E+03	1.183420E-03	9.636278E-05
5.791544E+03	1.174894E-03	9.577733E-05
5.801377E+03	1.166597E-03	9.521094E-05
5.811209E+03	1.158532E-03	9.466367E-05
5.821042E+03	1.150572E-03	9.412512E-05
5.830875E+03	1.142605E-03	9.358624E-05
5.840708E+03	1.134485E-03	9.303490E-05
5.850541E+03	1.126061E-03	9.245852E-05
5.860374E+03	1.117211E-03	9.184699E-05
5.870206E+03	1.107827E-03	9.119114E-05
5.880039E+03	1.097840E-03	9.048518E-05
5.889872E+03	1.087234E-03	8.972740E-05
5.899705E+03	1.076043E-03	8.892037E-05
5.909538E+03	1.064381E-03	8.807331E-05
5.919371E+03	1.052333E-03	8.719304E-05
5.929204E+03	1.040079E-03	8.629417E-05
5.939036E+03	1.027774E-03	8.538957E-05
5.948869E+03	1.015577E-03	8.449233E-05
5.958702E+03	1.003637E-03	8.361487E-05
5.968535E+03	9.921234E-04	8.277125E-05
5.978368E+03	9.811328E-04	8.196973E-05
5.988201E+03	9.707572E-04	8.121809E-05
5.998033E+03	9.610967E-04	8.052489E-05
6.007866E+03	9.521955E-04	7.989403E-05
6.017699E+03	9.440939E-04	7.932914E-05
6.027532E+03	9.367683E-04	7.882847E-05
6.037365E+03	9.302471E-04	7.839467E-05
6.047198E+03	9.244855E-04	7.802420E-05
6.057030E+03	9.194460E-04	7.771414E-05
6.066863E+03	9.150671E-04	7.745955E-05
6.076696E+03	9.113266E-04	7.725875E-05
6.086529E+03	9.081309E-04	7.710400E-05
6.096362E+03	9.054141E-04	7.698990E-05
6.106195E+03	9.031403E-04	7.691353E-05
6.116028E+03	9.012142E-04	7.686694E-05
6.125860E+03	8.996129E-04	7.684827E-05
6.135693E+03	8.982936E-04	7.685396E-05
6.145526E+03	8.972100E-04	7.688015E-05
6.155359E+03	8.963601E-04	7.692674E-05
6.165192E+03	8.957500E-04	7.699433E-05
6.175025E+03	8.953734E-04	7.708247E-05
6.184857E+03	8.952243E-04	7.719071E-05
6.194690E+03	8.953259E-04	7.732112E-05
6.204523E+03	8.956339E-04	7.746998E-05
6.214356E+03	8.961855E-04	7.764058E-05
6.224189E+03	8.969558E-04	7.783084E-05
6.234022E+03	8.979592E-04	7.804210E-05
6.243854E+03	8.992201E-04	7.827655E-05
6.253687E+03	9.007545E-04	7.853571E-05
6.263520E+03	9.026178E-04	7.882451E-05
6.273353E+03	9.048340E-04	7.914517E-05
6.283186E+03	9.074567E-04	7.950255E-05
6.293019E+03	9.104805E-04	7.989632E-05
6.302852E+03	9.139557E-04	8.033107E-05
6.312684E+03	9.178502E-04	8.080417E-05
6.322517E+03	9.221857E-04	8.131771E-05
6.332350E+03	9.269350E-04	8.186947E-05
6.342183E+03	9.320391E-04	8.245440E-05
6.352016E+03	9.374444E-04	8.306790E-05
6.361849E+03	9.431243E-04	8.370774E-05
6.371681E+03	9.489772E-04	8.436502E-05
6.381514E+03	9.549766E-04	8.503744E-05
6.391347E+03	9.610509E-04	8.571867E-05
6.401180E+03	9.671623E-04	8.640539E-05
6.411013E+03	9.733150E-04	8.709796E-05
6.420846E+03	9.795085E-04	8.779636E-05
6.430678E+03	9.858221E-04	8.850771E-05
6.440511E+03	9.923486E-04	8.924040E-05
6.450344E+03	9.991634E-04	9.000129E-05
6.460177E+03	1.006370E-03	9.079982E-05
6.470010E+03	1.013938E-03	9.163350E-05
6.479843E+03	1.021829E-03	9.249889E-05
6.489676E+03	1.029928E-03	9.338568E-05
6.499508E+03	1.038004E-03	9.427310E-05
6.509341E+03	1.045768E-03	9.513475E-05
6.519174E+03	1.052958E-03	9.594656E-05
6.529007E+03	1.059269E-03	9.668051E-05
6.538840E+03	1.064391E-03	9.730788E-05
6.548673E+03	1.068175E-03	9.781437E-05
6.558505E+03	1.070507E-03	9.818893E-05
6.568338E+03	1.071407E-03	9.843277E-05
6.578171E+03	1.071024E-03	9.855881E-05
6.588004E+03	1.069541E-03	9.858354E-05
6.597837E+03	1.067210E-03	9.852958E-05
6.607670E+03	1.064305E-03	9.842190E-05
6.617502E+03	1.060995E-03	9.827587E-05
6.627335E+03	1.057493E-03	9.811103E-05
6.637168E+03	1.053800E-03	9.792730E-05
6.647001E+03	1.049928E-03	9.772593E-05
6.656834E+03	1.045839E-03	9.750306E-05
6.666667E+03	1.041424E-03	9.724846E-05
6.676500E+03	1.036586E-03	9.695293E-05
6.686332E+03	1.031334E-03	9.661719E-05
6.696165E+03	1.025677E-03	9.624170E-05
6.705998E+03	1.019715E-03	9.583571E-05
6.715831E+03	1.013590E-03	9.541258E-05
6.725664E+03	1.007559E-03	9.499631E-05
6.735497E+03	1.001814E-03	9.460516E-05
6.745329E+03	9.966096E-04	9.426326E-05
6.755162E+03	9.921331E-04	9.398861E-05
6.764995E+03	9.885951E-04	9.380152E-05
6.774828E+03	9.860504E-04	9.370760E-05
6.784661E+03	9.846089E-04	9.371776E-05
6.794494E+03	9.842895E-04	9.383427E-05
6.804326E+03	9.850452E-04	9.405316E-05
6.814159E+03	9.868150E-04	9.436904E-05
6.823992E+03	9.895099E-04	9.477385E-05
6.833825E+03	9.930235E-04	9.525778E-05
6.843658E+03	9.972415E-04	9.581019E-05
6.853491E+03	1.002074E-03	9.642275E-05
6.863324E+03	1.007379E-03	9.708196E-05
6.873156E+03	1.013079E-03	9.778066E-05
6.882989E+03	1.019174E-03	9.851896E-05
6.892822E+03	1.025608E-03	9.929165E-05
6.902655E+03	1.032430E-03	1.001035E-04
6.912488E+03	1.039671E-03	1.009577E-04
6.922321E+03	1.047409E-03	1.018620E-04
6.932153E+03	1.055756E-03	1.028276E-04
6.941986E+03	1.064777E-03	1.038611E-04
6.951819E+03	1.074550E-03	1.049703E-04
6.961652E+03	1.085129E-03	1.061608E-04
6.971485E+03	1.096540E-03	1.074356E-04
6.981318E+03	1.108772E-03	1.087938E-04
6.991150E+03	1.121774E-03	1.102309E-04
7.000983E+03	1.135446E-03	1.117371E-04
7.010816E+03	1.149610E-03	1.132954E-04
7.020649E+03	1.164086E-03	1.148881E-04
7.030482E+03	1.178585E-03	1.164868E-04
7.040315E+03	1.192826E-03	1.180636E-04
7.050147E+03	1.206437E-03	1.195815E-04
7.059980E+03	1.219059E-03	1.210047E-04
7.069813E+03	1.230343E-03	1.222978E-04
7.079646E+03	1.240004E-03	1.234322E-04
7.089479E+03	1.247732E-03	1.243761E-04
7.099312E+03	1.253412E-03	1.251172E-04
7.109145E+03	1.256925E-03	1.256427E-04
7.118977E+03	1.258242E-03	1.259488E-04
7.128810E+03	1.257470E-03	1.260455E-04
7.138643E+03	1.254755E-03	1.259462E-04
7.148476E+03	1.250290E-03	1.256699E-04
7.158309E+03	1.244272E-03	1.252354E-04
7.168142E+03	1.236973E-03	1.246696E-04
7.177974E+03	1.228640E-03	1.239970E-04
7.187807E+03	1.219480E-03	1.232379E-04
7.197640E+03	1.209713E-03	1.224144E-04
7.207473E+03	1.199569E-03	1.215494E-04
7.217306E+03	1.189218E-03	1.206603E-04
7.227139E+03	1.178774E-03	1.197583E-04
7.236971E+03	1.168379E-03	1.188580E-04
7.246804E+03	1.158089E-03	1.179650E-04
7.256637E+03	1.147966E-03	1.170859E-04
7.266470E+03	1.138085E-03	1.162282E-04
7.276303E+03	1.128478E-03	1.153953E-04
7.286136E+03	1.119144E-03	1.145874E-04
7.295969E+03	1.110144E-03	1.138107E-04
7.305801E+03	1.101515E-03	1.130692E-04
7.315634E+03	1.093302E-03	1.123677E-04
7.325467E+03	1.085526E-03	1.117085E-04
7.335300E+03	1.078298E-03	1.111032E-04
7.345133E+03	1.071641E-03	1.105544E-04
7.354966E+03	1.065626E-03	1.100698E-04
7.364798E+03	1.060227E-03	1.096467E-04
7.374631E+03	1.055545E-03	1.092959E-04
7.384464E+03	1.051548E-03	1.090146E-04
7.394297E+03	1.048189E-03	1.087978E-04
7.404130E+03	1.045490E-03	1.086483E-04
7.413963E+03	1.043346E-03	1.085553E-04
7.423795E+03	1.041763E-03	1.085197E-04
7.433628E+03	1.040685E-03	1.085358E-04
7.443461E+03	1.040027E-03	1.085950E-04
7.453294E+03	1.039742E-03	1.086925E-04
7.463127E+03	1.039847E-03	1.088301E-04
7.472960E+03	1.040274E-03	1.090010E-04
7.482793E+03	1.040959E-03	1.091986E-04
7.492625E+03	1.041961E-03	1.094290E-04
7.502458E+03	1.043145E-03	1.096783E-04
7.512291E+03	1.044526E-03	1.099480E-04
7.522124E+03	1.046039E-03	1.102314E-04
7.531957E+03	1.047605E-03	1.105202E-04
7.541790E+03	1.049127E-03	1.108043E-04
7.551622E+03	1.050529E-03	1.110754E-04
7.561455E+03	1.051627E-03	1.113141E-04
7.571288E+03	1.052401E-03	1.115182E-04
7.581121E+03	1.052645E-03	1.116656E-04
7.590954E+03	1.052370E-03	1.117575E-04
7.600787E+03	1.051482E-03	1.117836E-04
7.610619E+03	1.049922E-03	1.117374E-04
7.620452E+03	1.047765E-03	1.116266E-04
7.630285E+03	1.045014E-03	1.114514E-04
