#wls	flux	fluxerr
1.596185E+03	5.558142E-03	6.627665E-05
1.636090E+03	5.878186E-03	6.971486E-05
1.675994E+03	6.206966E-03	7.320836E-05
1.715899E+03	6.544203E-03	7.675114E-05
1.755804E+03	6.887695E-03	8.031484E-05
1.795708E+03	7.240347E-03	8.393081E-05
1.835613E+03	7.603484E-03	8.761141E-05
1.875518E+03	7.985319E-03	9.144749E-05
1.915422E+03	8.397815E-03	9.557016E-05
1.955327E+03	8.857118E-03	1.001543E-04
1.995231E+03	9.384015E-03	1.054220E-04
2.035136E+03	9.982193E-03	1.113982E-04
2.075041E+03	1.060006E-02	1.174936E-04
2.114945E+03	1.117245E-02	1.229849E-04
2.154850E+03	1.178660E-02	1.288348E-04
2.194755E+03	1.253150E-02	1.359981E-04
2.234659E+03	1.339162E-02	1.442755E-04
2.274564E+03	1.423993E-02	1.522794E-04
2.314468E+03	1.507191E-02	1.599635E-04
2.354373E+03	1.598465E-02	1.683527E-04
2.394278E+03	1.699884E-02	1.776423E-04
2.434182E+03	1.809727E-02	1.876280E-04
2.474087E+03	1.925252E-02	1.980056E-04
2.513992E+03	2.044283E-02	2.085379E-04
2.553896E+03	2.164065E-02	2.189368E-04
2.593801E+03	2.277028E-02	2.284402E-04
2.633705E+03	2.355520E-02	2.343149E-04
2.673610E+03	2.403602E-02	2.370499E-04
2.713515E+03	2.440563E-02	2.386092E-04
2.753419E+03	2.469816E-02	2.393517E-04
2.793324E+03	2.491049E-02	2.392658E-04
2.833229E+03	2.503119E-02	2.382623E-04
2.873133E+03	2.505106E-02	2.362769E-04
2.913038E+03	2.496633E-02	2.332999E-04
2.952942E+03	2.477874E-02	2.293742E-04
2.992847E+03	2.449597E-02	2.245970E-04
3.002823E+03	2.441169E-02	2.232843E-04
3.012799E+03	2.432189E-02	2.219242E-04
3.022776E+03	2.422772E-02	2.205275E-04
3.032752E+03	2.412814E-02	2.190851E-04
3.042728E+03	2.402430E-02	2.176077E-04
3.052704E+03	2.391625E-02	2.160961E-04
3.062680E+03	2.380457E-02	2.145559E-04
3.072656E+03	2.368835E-02	2.129792E-04
3.082633E+03	2.356922E-02	2.113806E-04
3.092609E+03	2.344631E-02	2.097529E-04
3.102585E+03	2.332073E-02	2.081061E-04
3.112561E+03	2.319266E-02	2.064420E-04
3.122537E+03	2.306179E-02	2.047581E-04
3.132513E+03	2.292929E-02	2.030648E-04
3.142489E+03	2.279492E-02	2.013603E-04
3.152466E+03	2.265940E-02	1.996509E-04
3.162442E+03	2.252303E-02	1.979395E-04
3.172418E+03	2.238614E-02	1.962289E-04
3.182394E+03	2.224952E-02	1.945262E-04
3.192370E+03	2.211357E-02	1.928349E-04
3.202346E+03	2.197837E-02	1.911555E-04
3.212323E+03	2.184520E-02	1.894992E-04
3.222299E+03	2.171423E-02	1.878674E-04
3.232275E+03	2.158647E-02	1.862686E-04
3.242251E+03	2.146258E-02	1.847082E-04
3.252227E+03	2.134295E-02	1.831895E-04
3.262203E+03	2.122910E-02	1.817251E-04
3.272179E+03	2.112124E-02	1.803165E-04
3.282156E+03	2.102102E-02	1.789772E-04
3.292132E+03	2.092945E-02	1.777153E-04
3.302108E+03	2.084703E-02	1.765347E-04
3.312084E+03	2.077558E-02	1.754498E-04
3.322060E+03	2.071636E-02	1.744708E-04
3.332036E+03	2.067041E-02	1.736054E-04
3.342013E+03	2.063906E-02	1.728638E-04
3.351989E+03	2.062368E-02	1.722567E-04
3.361965E+03	2.062562E-02	1.717939E-04
3.371941E+03	2.064607E-02	1.714844E-04
3.381917E+03	2.068602E-02	1.713349E-04
3.391893E+03	2.074591E-02	1.713478E-04
3.401870E+03	2.082559E-02	1.715204E-04
3.411846E+03	2.092505E-02	1.718515E-04
3.421822E+03	2.104194E-02	1.723201E-04
3.431798E+03	2.117367E-02	1.729041E-04
3.441774E+03	2.131572E-02	1.735657E-04
3.451750E+03	2.146269E-02	1.742602E-04
3.461726E+03	2.160883E-02	1.749407E-04
3.471703E+03	2.175125E-02	1.755841E-04
3.481679E+03	2.189158E-02	1.762036E-04
3.491655E+03	2.203396E-02	1.768328E-04
3.501631E+03	2.218367E-02	1.775137E-04
3.511607E+03	2.234405E-02	1.782725E-04
3.521583E+03	2.251784E-02	1.791304E-04
3.531560E+03	2.270542E-02	1.800891E-04
3.541536E+03	2.290575E-02	1.811399E-04
3.551512E+03	2.311607E-02	1.822598E-04
3.561488E+03	2.333094E-02	1.834056E-04
3.571464E+03	2.354261E-02	1.845161E-04
3.581440E+03	2.373704E-02	1.854819E-04
3.591417E+03	2.389731E-02	1.861725E-04
3.601393E+03	2.402953E-02	1.866378E-04
3.611369E+03	2.414412E-02	1.869603E-04
3.621345E+03	2.424629E-02	1.871816E-04
3.631321E+03	2.433814E-02	1.873188E-04
3.641297E+03	2.442015E-02	1.873761E-04
3.651273E+03	2.449188E-02	1.873510E-04
3.661250E+03	2.455239E-02	1.872369E-04
3.671226E+03	2.460067E-02	1.870271E-04
3.681202E+03	2.463558E-02	1.867138E-04
3.691178E+03	2.465568E-02	1.862869E-04
3.701154E+03	2.466047E-02	1.857438E-04
3.711130E+03	2.464838E-02	1.850738E-04
3.721107E+03	2.461886E-02	1.842740E-04
3.731083E+03	2.457103E-02	1.833390E-04
3.741059E+03	2.450434E-02	1.822661E-04
3.751035E+03	2.441883E-02	1.810568E-04
3.761011E+03	2.431368E-02	1.797065E-04
3.770987E+03	2.418918E-02	1.782187E-04
3.780963E+03	2.404564E-02	1.765970E-04
3.790940E+03	2.388284E-02	1.748412E-04
3.800916E+03	2.370154E-02	1.729583E-04
3.810892E+03	2.350242E-02	1.709543E-04
3.820868E+03	2.328591E-02	1.688338E-04
3.830844E+03	2.305272E-02	1.666030E-04
3.840820E+03	2.280428E-02	1.642736E-04
3.850797E+03	2.254114E-02	1.618505E-04
3.860773E+03	2.226473E-02	1.593450E-04
3.870749E+03	2.197615E-02	1.567659E-04
3.880725E+03	2.167683E-02	1.541242E-04
3.890701E+03	2.136820E-02	1.514308E-04
3.900677E+03	2.105143E-02	1.486947E-04
3.910654E+03	2.072813E-02	1.459278E-04
3.920630E+03	2.040008E-02	1.431430E-04
3.930606E+03	2.006877E-02	1.403510E-04
3.940582E+03	1.973572E-02	1.375627E-04
3.950558E+03	1.940267E-02	1.347904E-04
3.960534E+03	1.907115E-02	1.320446E-04
3.970510E+03	1.874292E-02	1.293374E-04
3.980487E+03	1.841968E-02	1.266802E-04
3.990463E+03	1.810314E-02	1.240844E-04
4.000439E+03	1.779467E-02	1.215589E-04
4.010415E+03	1.749595E-02	1.191146E-04
4.020391E+03	1.720856E-02	1.167616E-04
4.030367E+03	1.693406E-02	1.145095E-04
4.040344E+03	1.667381E-02	1.123667E-04
4.050320E+03	1.642911E-02	1.103410E-04
4.060296E+03	1.620130E-02	1.084402E-04
4.070272E+03	1.599153E-02	1.066709E-04
4.080248E+03	1.580094E-02	1.050393E-04
4.090224E+03	1.563049E-02	1.035506E-04
4.100201E+03	1.548107E-02	1.022093E-04
4.110177E+03	1.535333E-02	1.010182E-04
4.120153E+03	1.524773E-02	9.997891E-05
4.130129E+03	1.516467E-02	9.909250E-05
4.140105E+03	1.510416E-02	9.835755E-05
4.150081E+03	1.506605E-02	9.777166E-05
4.160057E+03	1.504965E-02	9.732883E-05
4.170034E+03	1.505413E-02	9.702230E-05
4.180010E+03	1.507805E-02	9.684148E-05
4.189986E+03	1.511991E-02	9.677548E-05
4.199962E+03	1.517747E-02	9.680886E-05
4.209938E+03	1.524844E-02	9.692620E-05
4.219914E+03	1.533004E-02	9.710892E-05
4.229891E+03	1.541994E-02	9.734174E-05
4.239867E+03	1.551560E-02	9.760817E-05
4.249843E+03	1.561528E-02	9.789706E-05
4.259819E+03	1.571725E-02	9.819736E-05
4.269795E+03	1.582036E-02	9.850190E-05
4.279771E+03	1.592430E-02	9.880869E-05
4.289748E+03	1.602839E-02	9.911355E-05
4.299724E+03	1.613267E-02	9.941682E-05
4.309700E+03	1.623623E-02	9.971300E-05
4.319676E+03	1.633807E-02	9.999608E-05
4.329652E+03	1.643560E-02	1.002503E-04
4.339628E+03	1.652454E-02	1.004500E-04
4.349604E+03	1.659880E-02	1.005587E-04
4.359581E+03	1.664924E-02	1.005221E-04
4.369557E+03	1.666114E-02	1.002531E-04
4.379533E+03	1.661122E-02	9.961438E-05
4.389509E+03	1.650522E-02	9.864398E-05
4.399485E+03	1.637348E-02	9.752597E-05
4.409461E+03	1.623491E-02	9.637398E-05
4.419438E+03	1.609917E-02	9.524560E-05
4.429414E+03	1.597033E-02	9.416452E-05
4.439390E+03	1.584848E-02	9.313074E-05
4.449366E+03	1.573133E-02	9.213048E-05
4.459342E+03	1.561488E-02	9.113994E-05
4.469318E+03	1.549412E-02	9.012994E-05
4.479294E+03	1.536362E-02	8.906911E-05
4.489271E+03	1.521822E-02	8.792824E-05
4.499247E+03	1.505327E-02	8.668131E-05
4.509223E+03	1.486532E-02	8.530960E-05
4.519199E+03	1.465182E-02	8.379979E-05
4.529175E+03	1.441193E-02	8.214862E-05
4.539151E+03	1.414652E-02	8.036235E-05
4.549128E+03	1.385793E-02	7.845576E-05
4.559104E+03	1.355057E-02	7.645500E-05
4.569080E+03	1.323009E-02	7.439275E-05
4.579056E+03	1.290356E-02	7.230948E-05
4.589032E+03	1.257871E-02	7.024852E-05
4.599008E+03	1.226395E-02	6.825655E-05
4.608985E+03	1.196736E-02	6.637783E-05
4.618961E+03	1.169638E-02	6.465237E-05
4.628937E+03	1.145771E-02	6.311551E-05
4.638913E+03	1.125679E-02	6.179532E-05
4.648889E+03	1.109751E-02	6.071086E-05
4.658865E+03	1.098205E-02	5.987166E-05
4.668841E+03	1.091134E-02	5.928021E-05
4.678818E+03	1.088444E-02	5.892897E-05
4.688794E+03	1.089867E-02	5.880092E-05
4.698770E+03	1.095011E-02	5.887267E-05
4.708746E+03	1.103363E-02	5.911468E-05
4.718722E+03	1.114289E-02	5.949128E-05
4.728698E+03	1.127123E-02	5.996559E-05
4.738675E+03	1.141155E-02	6.049893E-05
4.748651E+03	1.155709E-02	6.105494E-05
4.758627E+03	1.170147E-02	6.159977E-05
4.768603E+03	1.183896E-02	6.210336E-05
4.778579E+03	1.196498E-02	6.254229E-05
4.788555E+03	1.207574E-02	6.289739E-05
4.798532E+03	1.216863E-02	6.315609E-05
4.808508E+03	1.224169E-02	6.330922E-05
4.818484E+03	1.229380E-02	6.335211E-05
4.828460E+03	1.232447E-02	6.328343E-05
4.838436E+03	1.233383E-02	6.310512E-05
4.848412E+03	1.232220E-02	6.281997E-05
4.858388E+03	1.229039E-02	6.243330E-05
4.868365E+03	1.223939E-02	6.195122E-05
4.878341E+03	1.217086E-02	6.138314E-05
4.888317E+03	1.208634E-02	6.073791E-05
4.898293E+03	1.198789E-02	6.002658E-05
4.908269E+03	1.187772E-02	5.926109E-05
4.918245E+03	1.175864E-02	5.845601E-05
4.928222E+03	1.163356E-02	5.762620E-05
4.938198E+03	1.150566E-02	5.678779E-05
4.948174E+03	1.137835E-02	5.595764E-05
4.958150E+03	1.125469E-02	5.515080E-05
4.968126E+03	1.113755E-02	5.438109E-05
4.978102E+03	1.102928E-02	5.365957E-05
4.988078E+03	1.093185E-02	5.299542E-05
4.998055E+03	1.084653E-02	5.239421E-05
5.008031E+03	1.077386E-02	5.185797E-05
5.018007E+03	1.071393E-02	5.138648E-05
5.027983E+03	1.066632E-02	5.097709E-05
5.037959E+03	1.063009E-02	5.062480E-05
5.047935E+03	1.060420E-02	5.032414E-05
5.057912E+03	1.058728E-02	5.006817E-05
5.067888E+03	1.057760E-02	4.984836E-05
5.077864E+03	1.057365E-02	4.965725E-05
5.087840E+03	1.057371E-02	4.948669E-05
5.097816E+03	1.057595E-02	4.932798E-05
5.107792E+03	1.057860E-02	4.917285E-05
5.117769E+03	1.057990E-02	4.901322E-05
5.127745E+03	1.057814E-02	4.884137E-05
5.137721E+03	1.057164E-02	4.864972E-05
5.147697E+03	1.055906E-02	4.843252E-05
5.157673E+03	1.053903E-02	4.818378E-05
5.167649E+03	1.051075E-02	4.790027E-05
5.177625E+03	1.047352E-02	4.757929E-05
5.187602E+03	1.042708E-02	4.722007E-05
5.197578E+03	1.037148E-02	4.682332E-05
5.207554E+03	1.030710E-02	4.639121E-05
5.217530E+03	1.023447E-02	4.592646E-05
5.227506E+03	1.015482E-02	4.543496E-05
5.237482E+03	1.006939E-02	4.492261E-05
5.247459E+03	9.979820E-03	4.439688E-05
5.257435E+03	9.887837E-03	4.386564E-05
5.267411E+03	9.795389E-03	4.333762E-05
5.277387E+03	9.704410E-03	4.282136E-05
5.287363E+03	9.616711E-03	4.232480E-05
5.297339E+03	9.533883E-03	4.185482E-05
5.307316E+03	9.457149E-03	4.141663E-05
5.317292E+03	9.387709E-03	4.101528E-05
5.327268E+03	9.326125E-03	4.065302E-05
5.337244E+03	9.272920E-03	4.033192E-05
5.347220E+03	9.228644E-03	4.005415E-05
5.357196E+03	9.193361E-03	3.981977E-05
5.367172E+03	9.167396E-03	3.963003E-05
5.377149E+03	9.150663E-03	3.948434E-05
5.387125E+03	9.143011E-03	3.938193E-05
5.397101E+03	9.143714E-03	3.931953E-05
5.407077E+03	9.151737E-03	3.929262E-05
5.417053E+03	9.165020E-03	3.929232E-05
5.427029E+03	9.180806E-03	3.930681E-05
5.437006E+03	9.194990E-03	3.931860E-05
5.446982E+03	9.202383E-03	3.930554E-05
5.456958E+03	9.195827E-03	3.923709E-05
5.466934E+03	9.165347E-03	3.907084E-05
5.476910E+03	9.094804E-03	3.873819E-05
5.486886E+03	8.971258E-03	3.818430E-05
5.496862E+03	8.813258E-03	3.748834E-05
5.506839E+03	8.635449E-03	3.671253E-05
5.516815E+03	8.446957E-03	3.589552E-05
5.526791E+03	8.254940E-03	3.506744E-05
5.536767E+03	8.064881E-03	3.425130E-05
5.546743E+03	7.881693E-03	3.346765E-05
5.556719E+03	7.709261E-03	3.273271E-05
5.566696E+03	7.550823E-03	3.205993E-05
5.576672E+03	7.409122E-03	3.146074E-05
5.586648E+03	7.286342E-03	3.094420E-05
5.596624E+03	7.184051E-03	3.051681E-05
5.606600E+03	7.103478E-03	3.018370E-05
5.616576E+03	7.045017E-03	2.994648E-05
5.626553E+03	7.008833E-03	2.980584E-05
5.636529E+03	6.994334E-03	2.975927E-05
5.646505E+03	7.000795E-03	2.980377E-05
5.656481E+03	7.026967E-03	2.993410E-05
5.666457E+03	7.071180E-03	3.014325E-05
5.676433E+03	7.131584E-03	3.042347E-05
5.686409E+03	7.205943E-03	3.076533E-05
5.696386E+03	7.291803E-03	3.115849E-05
5.706362E+03	7.386377E-03	3.159114E-05
5.716338E+03	7.486603E-03	3.205028E-05
5.726314E+03	7.589552E-03	3.252343E-05
5.736290E+03	7.692155E-03	3.299745E-05
5.746266E+03	7.791389E-03	3.345936E-05
5.756243E+03	7.884633E-03	3.389783E-05
5.766219E+03	7.969610E-03	3.430297E-05
5.776195E+03	8.044361E-03	3.466620E-05
5.786171E+03	8.107277E-03	3.498039E-05
5.796147E+03	8.157376E-03	3.524110E-05
5.806123E+03	8.194145E-03	3.544585E-05
5.816100E+03	8.217454E-03	3.559383E-05
5.826076E+03	8.227548E-03	3.568583E-05
5.836052E+03	8.225298E-03	3.572536E-05
5.846028E+03	8.211893E-03	3.571731E-05
5.856004E+03	8.188934E-03	3.566840E-05
5.865980E+03	8.158143E-03	3.558593E-05
5.875956E+03	8.121203E-03	3.547704E-05
5.885933E+03	8.079898E-03	3.534938E-05
5.895909E+03	8.035631E-03	3.520895E-05
5.905885E+03	7.989892E-03	3.506219E-05
5.915861E+03	7.943318E-03	3.491183E-05
5.925837E+03	7.896619E-03	3.476094E-05
5.935813E+03	7.850256E-03	3.461150E-05
5.945790E+03	7.804315E-03	3.446387E-05
5.955766E+03	7.758848E-03	3.431826E-05
5.965742E+03	7.713912E-03	3.417488E-05
5.975718E+03	7.669352E-03	3.403306E-05
5.985694E+03	7.625199E-03	3.389289E-05
5.995670E+03	7.581257E-03	3.375349E-05
6.005647E+03	7.537750E-03	3.361585E-05
6.015623E+03	7.494630E-03	3.347974E-05
6.025599E+03	7.452303E-03	3.334697E-05
6.035575E+03	7.410829E-03	3.321781E-05
6.045551E+03	7.370802E-03	3.309493E-05
6.055527E+03	7.332630E-03	3.298020E-05
6.065503E+03	7.296869E-03	3.287614E-05
6.075480E+03	7.263928E-03	3.278466E-05
6.085456E+03	7.234572E-03	3.270927E-05
6.095432E+03	7.209099E-03	3.265140E-05
6.105408E+03	7.188195E-03	3.261427E-05
6.115384E+03	7.172034E-03	3.259875E-05
6.125360E+03	7.160954E-03	3.260653E-05
6.135337E+03	7.155096E-03	3.263836E-05
6.145313E+03	7.154558E-03	3.269484E-05
6.155289E+03	7.159032E-03	3.277469E-05
6.165265E+03	7.168325E-03	3.287715E-05
6.175241E+03	7.182007E-03	3.300041E-05
6.185217E+03	7.199618E-03	3.314245E-05
6.195193E+03	7.220612E-03	3.330089E-05
6.205170E+03	7.244609E-03	3.347406E-05
6.215146E+03	7.271387E-03	3.366106E-05
6.225122E+03	7.300685E-03	3.386075E-05
6.235098E+03	7.332554E-03	3.407348E-05
6.245074E+03	7.367312E-03	3.430081E-05
6.255050E+03	7.405446E-03	3.454513E-05
6.265027E+03	7.447761E-03	3.481031E-05
6.275003E+03	7.495079E-03	3.510037E-05
6.284979E+03	7.548203E-03	3.541924E-05
6.294955E+03	7.607847E-03	3.577048E-05
6.304931E+03	7.674151E-03	3.615499E-05
6.314907E+03	7.746925E-03	3.657208E-05
6.324884E+03	7.824990E-03	3.701644E-05
6.334860E+03	7.906616E-03	3.748007E-05
6.344836E+03	7.989183E-03	3.795068E-05
6.354812E+03	8.069458E-03	3.841296E-05
6.364788E+03	8.143396E-03	3.884762E-05
6.374764E+03	8.206705E-03	3.923401E-05
6.384740E+03	8.254933E-03	3.955052E-05
6.394717E+03	8.283825E-03	3.977629E-05
6.404693E+03	8.289974E-03	3.989439E-05
6.414669E+03	8.271233E-03	3.989374E-05
6.424645E+03	8.226932E-03	3.977034E-05
6.434621E+03	8.158123E-03	3.952838E-05
6.444597E+03	8.067809E-03	3.918156E-05
6.454574E+03	7.960804E-03	3.875249E-05
6.464550E+03	7.843454E-03	3.827148E-05
6.474526E+03	7.723413E-03	3.777550E-05
6.484502E+03	7.609767E-03	3.730893E-05
6.494478E+03	7.511797E-03	3.691752E-05
6.504454E+03	7.437480E-03	3.664103E-05
6.514431E+03	7.389899E-03	3.649548E-05
6.524407E+03	7.368711E-03	3.648007E-05
6.534383E+03	7.372678E-03	3.658956E-05
6.544359E+03	7.395019E-03	3.679110E-05
6.554335E+03	7.427817E-03	3.704584E-05
6.564311E+03	7.463256E-03	3.731503E-05
6.574287E+03	7.495428E-03	3.756915E-05
6.584264E+03	7.519646E-03	3.778445E-05
6.594240E+03	7.532375E-03	3.794282E-05
6.604216E+03	7.531857E-03	3.803489E-05
6.614192E+03	7.516969E-03	3.805444E-05
6.624168E+03	7.488023E-03	3.800247E-05
6.634144E+03	7.445594E-03	3.788133E-05
6.644121E+03	7.391198E-03	3.769820E-05
6.654097E+03	7.326630E-03	3.746176E-05
6.664073E+03	7.253813E-03	3.718143E-05
6.674049E+03	7.174907E-03	3.686798E-05
6.684025E+03	7.092193E-03	3.653289E-05
6.694001E+03	7.007607E-03	3.618597E-05
6.703977E+03	6.923025E-03	3.583684E-05
6.713954E+03	6.840082E-03	3.549395E-05
6.723930E+03	6.760134E-03	3.516440E-05
6.733906E+03	6.684238E-03	3.485378E-05
6.743882E+03	6.613156E-03	3.456622E-05
6.753858E+03	6.547257E-03	3.430381E-05
6.763834E+03	6.486901E-03	3.406861E-05
6.773811E+03	6.432125E-03	3.386101E-05
6.783787E+03	6.382698E-03	3.367998E-05
6.793763E+03	6.338497E-03	3.352507E-05
6.803739E+03	6.299091E-03	3.339415E-05
6.813715E+03	6.264111E-03	3.328544E-05
6.823691E+03	6.233157E-03	3.319695E-05
6.833668E+03	6.205818E-03	3.312663E-05
6.843644E+03	6.181795E-03	3.307298E-05
6.853620E+03	6.160452E-03	3.303272E-05
6.863596E+03	6.141505E-03	3.300440E-05
6.873572E+03	6.124571E-03	3.298604E-05
6.883548E+03	6.109174E-03	3.297512E-05
6.893524E+03	6.095085E-03	3.297044E-05
6.903501E+03	6.081987E-03	3.297034E-05
6.913477E+03	6.069482E-03	3.297266E-05
6.923453E+03	6.057317E-03	3.297606E-05
6.933429E+03	6.045388E-03	3.297996E-05
6.943405E+03	6.033400E-03	3.298275E-05
6.953381E+03	6.021204E-03	3.298362E-05
6.963358E+03	6.008687E-03	3.298192E-05
6.973334E+03	5.995759E-03	3.297715E-05
6.983310E+03	5.982240E-03	3.296830E-05
6.993286E+03	5.968317E-03	3.295639E-05
7.003262E+03	5.953726E-03	3.293993E-05
7.013238E+03	5.938557E-03	3.291941E-05
7.023215E+03	5.922670E-03	3.289403E-05
7.033191E+03	5.906043E-03	3.286365E-05
7.043167E+03	5.888763E-03	3.282874E-05
7.053143E+03	5.870684E-03	3.278845E-05
7.063119E+03	5.851651E-03	3.274191E-05
7.073095E+03	5.831862E-03	3.269020E-05
7.083071E+03	5.811165E-03	3.263245E-05
7.093048E+03	5.789416E-03	3.256783E-05
7.103024E+03	5.766721E-03	3.249692E-05
7.113000E+03	5.742965E-03	3.241905E-05
7.122976E+03	5.718295E-03	3.233503E-05
7.132952E+03	5.692642E-03	3.224446E-05
7.142928E+03	5.666200E-03	3.214842E-05
7.152905E+03	5.638838E-03	3.204615E-05
7.162881E+03	5.610791E-03	3.193899E-05
7.172857E+03	5.582319E-03	3.182841E-05
7.182833E+03	5.553339E-03	3.171394E-05
7.192809E+03	5.524016E-03	3.159653E-05
7.202785E+03	5.494637E-03	3.147783E-05
7.212762E+03	5.465370E-03	3.135882E-05
7.222738E+03	5.436253E-03	3.123974E-05
7.232714E+03	5.407538E-03	3.112205E-05
7.242690E+03	5.379211E-03	3.100572E-05
7.252666E+03	5.351335E-03	3.089113E-05
7.262642E+03	5.324039E-03	3.077905E-05
7.272618E+03	5.297173E-03	3.066866E-05
7.282595E+03	5.270771E-03	3.056019E-05
7.292571E+03	5.244602E-03	3.045231E-05
7.302547E+03	5.218517E-03	3.034420E-05
7.312523E+03	5.192591E-03	3.023631E-05
7.322499E+03	5.166435E-03	3.012639E-05
7.332475E+03	5.140141E-03	3.001500E-05
7.342452E+03	5.113481E-03	2.990083E-05
7.352428E+03	5.086503E-03	2.978417E-05
7.362404E+03	5.059300E-03	2.966558E-05
7.372380E+03	5.031796E-03	2.954462E-05
7.382356E+03	5.004312E-03	2.942320E-05
7.392332E+03	4.976993E-03	2.930220E-05
7.402308E+03	4.950149E-03	2.918348E-05
7.412285E+03	4.924008E-03	2.906841E-05
7.422261E+03	4.898822E-03	2.895851E-05
7.432237E+03	4.874958E-03	2.885602E-05
7.442213E+03	4.852433E-03	2.876107E-05
7.452189E+03	4.831461E-03	2.867500E-05
7.462165E+03	4.812105E-03	2.859825E-05
7.472142E+03	4.794600E-03	2.853227E-05
7.482118E+03	4.778901E-03	2.847686E-05
7.492094E+03	4.764907E-03	2.843148E-05
7.502070E+03	4.752567E-03	2.839590E-05
7.512046E+03	4.741767E-03	2.836950E-05
7.522022E+03	4.732228E-03	2.835067E-05
7.531999E+03	4.723838E-03	2.833879E-05
7.541975E+03	4.716089E-03	2.833086E-05
7.551951E+03	4.708877E-03	2.832630E-05
7.561927E+03	4.701716E-03	2.832223E-05
7.571903E+03	4.694201E-03	2.831622E-05
7.581879E+03	4.685797E-03	2.830506E-05
7.591855E+03	4.676203E-03	2.828693E-05
7.601832E+03	4.665028E-03	2.825947E-05
7.611808E+03	4.651931E-03	2.822060E-05
7.621784E+03	4.636529E-03	2.816795E-05
7.631760E+03	4.618738E-03	2.810098E-05
7.641736E+03	4.598328E-03	2.801825E-05
7.651712E+03	4.575489E-03	2.792088E-05
7.661689E+03	4.549898E-03	2.780684E-05
7.671665E+03	4.521973E-03	2.767863E-05
7.681641E+03	4.491705E-03	2.753617E-05
7.691617E+03	4.459117E-03	2.737953E-05
7.701593E+03	4.424477E-03	2.721032E-05
7.711569E+03	4.387954E-03	2.702953E-05
7.721546E+03	4.349734E-03	2.683826E-05
7.731522E+03	4.310018E-03	2.663771E-05
7.741498E+03	4.269139E-03	2.642992E-05
