#wls	flux	fluxerr
1.596185E+03	7.704732E-05	3.206103E-06
1.636090E+03	7.985368E-05	3.318744E-06
1.675994E+03	8.271104E-05	3.433093E-06
1.715899E+03	8.561960E-05	3.549136E-06
1.755804E+03	8.854827E-05	3.665561E-06
1.795708E+03	9.147803E-05	3.781563E-06
1.835613E+03	9.440472E-05	3.896954E-06
1.875518E+03	9.727339E-05	4.009452E-06
1.915422E+03	1.000945E-04	4.119481E-06
1.955327E+03	1.028457E-04	4.226115E-06
1.995231E+03	1.054679E-04	4.326922E-06
2.035136E+03	1.079745E-04	4.422467E-06
2.075041E+03	1.103263E-04	4.511145E-06
2.114945E+03	1.125236E-04	4.592989E-06
2.154850E+03	1.145311E-04	4.666577E-06
2.194755E+03	1.163359E-04	4.731408E-06
2.234659E+03	1.179286E-04	4.787138E-06
2.274564E+03	1.193254E-04	4.834449E-06
2.314468E+03	1.205261E-04	4.873376E-06
2.354373E+03	1.214932E-04	4.902436E-06
2.394278E+03	1.222765E-04	4.923682E-06
2.434182E+03	1.228674E-04	4.936807E-06
2.474087E+03	1.233028E-04	4.943330E-06
2.513992E+03	1.235800E-04	4.943180E-06
2.553896E+03	1.237206E-04	4.937255E-06
2.593801E+03	1.237684E-04	4.927329E-06
2.633705E+03	1.237268E-04	4.913564E-06
2.673610E+03	1.236210E-04	4.896976E-06
2.713515E+03	1.234971E-04	4.879403E-06
2.753419E+03	1.233593E-04	4.861011E-06
2.793324E+03	1.232532E-04	4.843597E-06
2.833229E+03	1.231822E-04	4.827273E-06
2.873133E+03	1.231695E-04	4.812941E-06
2.913038E+03	1.232380E-04	4.801459E-06
2.952942E+03	1.234299E-04	4.794441E-06
2.992847E+03	1.237670E-04	4.792676E-06
3.002823E+03	1.238630E-04	4.792626E-06
3.012799E+03	1.239684E-04	4.792913E-06
3.022776E+03	1.241041E-04	4.794342E-06
3.032752E+03	1.242295E-04	4.795346E-06
3.042728E+03	1.243653E-04	4.796721E-06
3.052704E+03	1.245323E-04	4.799272E-06
3.062680E+03	1.246900E-04	4.801431E-06
3.072656E+03	1.248798E-04	4.804796E-06
3.082633E+03	1.250608E-04	4.807788E-06
3.092609E+03	1.252745E-04	4.812004E-06
3.102585E+03	1.255008E-04	4.816669E-06
3.112561E+03	1.257194E-04	4.821003E-06
3.122537E+03	1.259718E-04	4.826595E-06
3.132513E+03	1.262172E-04	4.831886E-06
3.142489E+03	1.264973E-04	4.838461E-06
3.152466E+03	1.267918E-04	4.845549E-06
3.162442E+03	1.270803E-04	4.852366E-06
3.172418E+03	1.274047E-04	4.860512E-06
3.182394E+03	1.277447E-04	4.869207E-06
3.192370E+03	1.280797E-04	4.877672E-06
3.202346E+03	1.284521E-04	4.887511E-06
3.212323E+03	1.288412E-04	4.897937E-06
3.222299E+03	1.292476E-04	4.908973E-06
3.232275E+03	1.296507E-04	4.919833E-06
3.242251E+03	1.300930E-04	4.932127E-06
3.252227E+03	1.305538E-04	4.945071E-06
3.262203E+03	1.310338E-04	4.958684E-06
3.272179E+03	1.315333E-04	4.972981E-06
3.282156E+03	1.320530E-04	4.987979E-06
3.292132E+03	1.325933E-04	5.003697E-06
3.302108E+03	1.331331E-04	5.019332E-06
3.312084E+03	1.337160E-04	5.036533E-06
3.322060E+03	1.343211E-04	5.054500E-06
3.332036E+03	1.349490E-04	5.073256E-06
3.342013E+03	1.356002E-04	5.092822E-06
3.351989E+03	1.362753E-04	5.113207E-06
3.361965E+03	1.369749E-04	5.134443E-06
3.371941E+03	1.376996E-04	5.156541E-06
3.381917E+03	1.384501E-04	5.179524E-06
3.391893E+03	1.392270E-04	5.203413E-06
3.401870E+03	1.400309E-04	5.228230E-06
3.411846E+03	1.408625E-04	5.253994E-06
3.421822E+03	1.417225E-04	5.280728E-06
3.431798E+03	1.426343E-04	5.309302E-06
3.441774E+03	1.435534E-04	5.338049E-06
3.451750E+03	1.445029E-04	5.367830E-06
3.461726E+03	1.454837E-04	5.398676E-06
3.471703E+03	1.464965E-04	5.430606E-06
3.481679E+03	1.475421E-04	5.463644E-06
3.491655E+03	1.486214E-04	5.497819E-06
3.501631E+03	1.497348E-04	5.533146E-06
3.511607E+03	1.509074E-04	5.570544E-06
3.521583E+03	1.520923E-04	5.608274E-06
3.531560E+03	1.533139E-04	5.647235E-06
3.541536E+03	1.545731E-04	5.687453E-06
3.551512E+03	1.558707E-04	5.728956E-06
3.561488E+03	1.572325E-04	5.772682E-06
3.571464E+03	1.586097E-04	5.816839E-06
3.581440E+03	1.600280E-04	5.862356E-06
3.591417E+03	1.614881E-04	5.909260E-06
3.601393E+03	1.630167E-04	5.958520E-06
3.611369E+03	1.645634E-04	6.008283E-06
3.621345E+03	1.661545E-04	6.059510E-06
3.631321E+03	1.678173E-04	6.113187E-06
3.641297E+03	1.695001E-04	6.167421E-06
3.651273E+03	1.712299E-04	6.223192E-06
3.661250E+03	1.730075E-04	6.280524E-06
3.671226E+03	1.748611E-04	6.340431E-06
3.681202E+03	1.767370E-04	6.400956E-06
3.691178E+03	1.786631E-04	6.463106E-06
3.701154E+03	1.806683E-04	6.527917E-06
3.711130E+03	1.826974E-04	6.593385E-06
3.721107E+03	1.847787E-04	6.660530E-06
3.731083E+03	1.869422E-04	6.730418E-06
3.741059E+03	1.891305E-04	6.800977E-06
3.751035E+03	1.913730E-04	6.873258E-06
3.761011E+03	1.937004E-04	6.948355E-06
3.770987E+03	1.960530E-04	7.024115E-06
3.780963E+03	1.984613E-04	7.101626E-06
3.790940E+03	2.009566E-04	7.182000E-06
3.800916E+03	2.034775E-04	7.263025E-06
3.810892E+03	2.060545E-04	7.345792E-06
3.820868E+03	2.087204E-04	7.431454E-06
3.830844E+03	2.114108E-04	7.517713E-06
3.840820E+03	2.141577E-04	7.605695E-06
3.850797E+03	2.169941E-04	7.696566E-06
3.860773E+03	2.198533E-04	7.787949E-06
3.870749E+03	2.227680E-04	7.880995E-06
3.880725E+03	2.257722E-04	7.976898E-06
3.890701E+03	2.287964E-04	8.073187E-06
3.900677E+03	2.318737E-04	8.171031E-06
3.910654E+03	2.350395E-04	8.271662E-06
3.920630E+03	2.382208E-04	8.372503E-06
3.930606E+03	2.414518E-04	8.474749E-06
3.940582E+03	2.447687E-04	8.579663E-06
3.950558E+03	2.480951E-04	8.684554E-06
3.960534E+03	2.514661E-04	8.790648E-06
3.970510E+03	2.549188E-04	8.899232E-06
3.980487E+03	2.583733E-04	9.007505E-06
3.990463E+03	2.618656E-04	9.116721E-06
4.000439E+03	2.654335E-04	9.228188E-06
4.010415E+03	2.689936E-04	9.338996E-06
4.020391E+03	2.725827E-04	9.450419E-06
4.030367E+03	2.761973E-04	9.562335E-06
4.040344E+03	2.798765E-04	9.676087E-06
4.050320E+03	2.835319E-04	9.788611E-06
4.060296E+03	2.872013E-04	9.901215E-06
4.070272E+03	2.908804E-04	1.001375E-05
4.080248E+03	2.946096E-04	1.012759E-05
4.090224E+03	2.982951E-04	1.023952E-05
4.100201E+03	3.019763E-04	1.035089E-05
4.110177E+03	3.056481E-04	1.046152E-05
4.120153E+03	3.093051E-04	1.057123E-05
4.130129E+03	3.129892E-04	1.068145E-05
4.140105E+03	3.166007E-04	1.078878E-05
4.150081E+03	3.201807E-04	1.089463E-05
4.160057E+03	3.237233E-04	1.099880E-05
4.170034E+03	3.272228E-04	1.110109E-05
4.180010E+03	3.306732E-04	1.120132E-05
4.189986E+03	3.340683E-04	1.129927E-05
4.199962E+03	3.374530E-04	1.139648E-05
4.209938E+03	3.407205E-04	1.148934E-05
4.219914E+03	3.439151E-04	1.157936E-05
4.229891E+03	3.470311E-04	1.166636E-05
4.239867E+03	3.500629E-04	1.175016E-05
4.249843E+03	3.530050E-04	1.183059E-05
4.259819E+03	3.558526E-04	1.190751E-05
4.269795E+03	3.586003E-04	1.198074E-05
4.279771E+03	3.612438E-04	1.205016E-05
4.289748E+03	3.637788E-04	1.211564E-05
4.299724E+03	3.662011E-04	1.217706E-05
4.309700E+03	3.685076E-04	1.223433E-05
4.319676E+03	3.706394E-04	1.228552E-05
4.329652E+03	3.727044E-04	1.233422E-05
4.339628E+03	3.746451E-04	1.237856E-05
4.349604E+03	3.764598E-04	1.241848E-05
4.359581E+03	3.781467E-04	1.245395E-05
4.369557E+03	3.797049E-04	1.248497E-05
4.379533E+03	3.810768E-04	1.250966E-05
4.389509E+03	3.823742E-04	1.253171E-05
4.399485E+03	3.835400E-04	1.254928E-05
4.409461E+03	3.845734E-04	1.256235E-05
4.419438E+03	3.854171E-04	1.256908E-05
4.429414E+03	3.861851E-04	1.257322E-05
4.439390E+03	3.868209E-04	1.257292E-05
4.449366E+03	3.872683E-04	1.256641E-05
4.459342E+03	3.876432E-04	1.255745E-05
4.469318E+03	3.878902E-04	1.254428E-05
4.479294E+03	3.879546E-04	1.252514E-05
4.489271E+03	3.879535E-04	1.250384E-05
4.499247E+03	3.877761E-04	1.247683E-05
4.509223E+03	3.875400E-04	1.244791E-05
4.519199E+03	3.871354E-04	1.241356E-05
4.529175E+03	3.866805E-04	1.237762E-05
4.539151E+03	3.860664E-04	1.233660E-05
4.549128E+03	3.854115E-04	1.229430E-05
4.559104E+03	3.846078E-04	1.224729E-05
4.569080E+03	3.837176E-04	1.219759E-05
4.579056E+03	3.828024E-04	1.214715E-05
4.589032E+03	3.817558E-04	1.209262E-05
4.599008E+03	3.806399E-04	1.203597E-05
4.608985E+03	3.795161E-04	1.197916E-05
4.618961E+03	3.782793E-04	1.191887E-05
4.628937E+03	3.769913E-04	1.185708E-05
4.638913E+03	3.756577E-04	1.179397E-05
4.648889E+03	3.742849E-04	1.172974E-05
4.658865E+03	3.729327E-04	1.166628E-05
4.668841E+03	3.714982E-04	1.160037E-05
4.678818E+03	3.700417E-04	1.153389E-05
4.688794E+03	3.685687E-04	1.146704E-05
4.698770E+03	3.670845E-04	1.139998E-05
4.708746E+03	3.655945E-04	1.133287E-05
4.718722E+03	3.641035E-04	1.126587E-05
4.728698E+03	3.626167E-04	1.119914E-05
4.738675E+03	3.611385E-04	1.113282E-05
4.748651E+03	3.596216E-04	1.106545E-05
4.758627E+03	3.581744E-04	1.100036E-05
4.768603E+03	3.567489E-04	1.093608E-05
4.778579E+03	3.553486E-04	1.087270E-05
4.788555E+03	3.539775E-04	1.081036E-05
4.798532E+03	3.525879E-04	1.074758E-05
4.808508E+03	3.512851E-04	1.068758E-05
4.818484E+03	3.500209E-04	1.062889E-05
4.828460E+03	3.487478E-04	1.057004E-05
4.838436E+03	3.475689E-04	1.051418E-05
4.848412E+03	3.464364E-04	1.045983E-05
4.858388E+03	3.453022E-04	1.040554E-05
4.868365E+03	3.442683E-04	1.035438E-05
4.878341E+03	3.432367E-04	1.030340E-05
4.888317E+03	3.423081E-04	1.025560E-05
4.898293E+03	3.413849E-04	1.020806E-05
4.908269E+03	3.405667E-04	1.016374E-05
4.918245E+03	3.397562E-04	1.011974E-05
4.928222E+03	3.390031E-04	1.007753E-05
4.938198E+03	3.383563E-04	1.003855E-05
4.948174E+03	3.377193E-04	9.999923E-06
4.958150E+03	3.371406E-04	9.963087E-06
4.968126E+03	3.366202E-04	9.928029E-06
4.978102E+03	3.361577E-04	9.894733E-06
4.988078E+03	3.358010E-04	9.864592E-06
4.998055E+03	3.354531E-04	9.834749E-06
5.008031E+03	3.351615E-04	9.806590E-06
5.018007E+03	3.349252E-04	9.780080E-06
5.027983E+03	3.347432E-04	9.755180E-06
5.037959E+03	3.346144E-04	9.731849E-06
5.047935E+03	3.345372E-04	9.710034E-06
5.057912E+03	3.345100E-04	9.689682E-06
5.067888E+03	3.345314E-04	9.670744E-06
5.077864E+03	3.345993E-04	9.653152E-06
5.087840E+03	3.346643E-04	9.635476E-06
5.097816E+03	3.348196E-04	9.620399E-06
5.107792E+03	3.350152E-04	9.606469E-06
5.117769E+03	3.352488E-04	9.593619E-06
5.127745E+03	3.354703E-04	9.580410E-06
5.137721E+03	3.357724E-04	9.569491E-06
5.147697E+03	3.361049E-04	9.559416E-06
5.157673E+03	3.364170E-04	9.548745E-06
5.167649E+03	3.368015E-04	9.540112E-06
5.177625E+03	3.371599E-04	9.530719E-06
5.187602E+03	3.375849E-04	9.523186E-06
5.197578E+03	3.379775E-04	9.514722E-06
5.207554E+03	3.384306E-04	9.507939E-06
5.217530E+03	3.388450E-04	9.500052E-06
5.227506E+03	3.393136E-04	9.493666E-06
5.237482E+03	3.397373E-04	9.486005E-06
5.247459E+03	3.401608E-04	9.478329E-06
5.257435E+03	3.406293E-04	9.471893E-06
5.267411E+03	3.410431E-04	9.463930E-06
5.277387E+03	3.414478E-04	9.455707E-06
5.287363E+03	3.418402E-04	9.447147E-06
5.297339E+03	3.422177E-04	9.438174E-06
5.307316E+03	3.425774E-04	9.428721E-06
5.317292E+03	3.429654E-04	9.420057E-06
5.327268E+03	3.432823E-04	9.409456E-06
5.337244E+03	3.435745E-04	9.398198E-06
5.347220E+03	3.438399E-04	9.386236E-06
5.357196E+03	3.440767E-04	9.373526E-06
5.367172E+03	3.442834E-04	9.360035E-06
5.377149E+03	3.444101E-04	9.344416E-06
5.387125E+03	3.445528E-04	9.329286E-06
5.397101E+03	3.446621E-04	9.313309E-06
5.407077E+03	3.447375E-04	9.296479E-06
5.417053E+03	3.447786E-04	9.278793E-06
5.427029E+03	3.447854E-04	9.260261E-06
5.437006E+03	3.447093E-04	9.239588E-06
5.446982E+03	3.446481E-04	9.219402E-06
5.456958E+03	3.445535E-04	9.198420E-06
5.466934E+03	3.443779E-04	9.175380E-06
5.476910E+03	3.442189E-04	9.152890E-06
5.486886E+03	3.439803E-04	9.128397E-06
5.496862E+03	3.437594E-04	9.104495E-06
5.506839E+03	3.434599E-04	9.078631E-06
5.516815E+03	3.431790E-04	9.053382E-06
5.526791E+03	3.428208E-04	9.026220E-06
5.536767E+03	3.424824E-04	8.999707E-06
5.546743E+03	3.420686E-04	8.971347E-06
5.556719E+03	3.416288E-04	8.942438E-06
5.566696E+03	3.412122E-04	8.914274E-06
5.576672E+03	3.407246E-04	8.884391E-06
5.586648E+03	3.402157E-04	8.854097E-06
5.596624E+03	3.397353E-04	8.824685E-06
5.606600E+03	3.391900E-04	8.793728E-06
5.616576E+03	3.386299E-04	8.762536E-06
5.626553E+03	3.380576E-04	8.731174E-06
5.636529E+03	3.374754E-04	8.699707E-06
5.646505E+03	3.368864E-04	8.668212E-06
5.656481E+03	3.362933E-04	8.636757E-06
5.666457E+03	3.356990E-04	8.605423E-06
5.676433E+03	3.351064E-04	8.574281E-06
5.686409E+03	3.345186E-04	8.543409E-06
5.696386E+03	3.339387E-04	8.512886E-06
5.706362E+03	3.333696E-04	8.482785E-06
5.716338E+03	3.328143E-04	8.453182E-06
5.726314E+03	3.322762E-04	8.424157E-06
5.736290E+03	3.317579E-04	8.395776E-06
5.746266E+03	3.312625E-04	8.368117E-06
5.756243E+03	3.307929E-04	8.341245E-06
5.766219E+03	3.303055E-04	8.314066E-06
5.776195E+03	3.298959E-04	8.288978E-06
5.786171E+03	3.295202E-04	8.264874E-06
5.796147E+03	3.291349E-04	8.240658E-06
5.806123E+03	3.288346E-04	8.218699E-06
5.816100E+03	3.285757E-04	8.197895E-06
5.826076E+03	3.283142E-04	8.177149E-06
5.836052E+03	3.281441E-04	8.158798E-06
5.846028E+03	3.279758E-04	8.140606E-06
5.856004E+03	3.279025E-04	8.124884E-06
5.865980E+03	3.278344E-04	8.109401E-06
5.875956E+03	3.278647E-04	8.096456E-06
5.885933E+03	3.279032E-04	8.083815E-06
5.895909E+03	3.280428E-04	8.073765E-06
5.905885E+03	3.281928E-04	8.064065E-06
5.915861E+03	3.284460E-04	8.056997E-06
5.925837E+03	3.287116E-04	8.050319E-06
5.935813E+03	3.290359E-04	8.045169E-06
5.945790E+03	3.294658E-04	8.042683E-06
5.955766E+03	3.299094E-04	8.040611E-06
5.965742E+03	3.304129E-04	8.040082E-06
5.975718E+03	3.309766E-04	8.041092E-06
5.985694E+03	3.316465E-04	8.044757E-06
5.995670E+03	3.323301E-04	8.048824E-06
6.005647E+03	3.330728E-04	8.054394E-06
6.015623E+03	3.338744E-04	8.061457E-06
6.025599E+03	3.347340E-04	8.069988E-06
6.035575E+03	3.356508E-04	8.079965E-06
6.045551E+03	3.366235E-04	8.091353E-06
6.055527E+03	3.376984E-04	8.105259E-06
6.065503E+03	3.387794E-04	8.119375E-06
6.075480E+03	3.399122E-04	8.134795E-06
6.085456E+03	3.410948E-04	8.151473E-06
6.095432E+03	3.423253E-04	8.169358E-06
6.105408E+03	3.435534E-04	8.187254E-06
6.115384E+03	3.448726E-04	8.207389E-06
6.125360E+03	3.462325E-04	8.228560E-06
6.135337E+03	3.476301E-04	8.250696E-06
6.145313E+03	3.490626E-04	8.273732E-06
6.155289E+03	3.505266E-04	8.297589E-06
6.165265E+03	3.520187E-04	8.322189E-06
6.175241E+03	3.535354E-04	8.347450E-06
6.185217E+03	3.550230E-04	8.372111E-06
6.195193E+03	3.565767E-04	8.398419E-06
6.205170E+03	3.581428E-04	8.425113E-06
6.215146E+03	3.597169E-04	8.452091E-06
6.225122E+03	3.612438E-04	8.478064E-06
6.235098E+03	3.628196E-04	8.505295E-06
6.245074E+03	3.643890E-04	8.532490E-06
6.255050E+03	3.658960E-04	8.558343E-06
6.265027E+03	3.674372E-04	8.585127E-06
6.275003E+03	3.689048E-04	8.610323E-06
6.284979E+03	3.703965E-04	8.636225E-06
6.294955E+03	3.718554E-04	8.661509E-06
6.304931E+03	3.732235E-04	8.684835E-06
6.314907E+03	3.745996E-04	8.708514E-06
6.324884E+03	3.758735E-04	8.729986E-06
6.334860E+03	3.771446E-04	8.751578E-06
6.344836E+03	3.783020E-04	8.770717E-06
6.354812E+03	3.794459E-04	8.789743E-06
6.364788E+03	3.804651E-04	8.806085E-06
6.374764E+03	3.814070E-04	8.820856E-06
6.384740E+03	3.823206E-04	8.835195E-06
6.394717E+03	3.830938E-04	8.846520E-06
6.404693E+03	3.838294E-04	8.857217E-06
6.414669E+03	3.844155E-04	8.864712E-06
6.424645E+03	3.849018E-04	8.870165E-06
6.434621E+03	3.853386E-04	8.874741E-06
6.444597E+03	3.856146E-04	8.875885E-06
6.454574E+03	3.857807E-04	8.874780E-06
6.464550E+03	3.858345E-04	8.871379E-06
6.474526E+03	3.858277E-04	8.866877E-06
6.484502E+03	3.856506E-04	8.858762E-06
6.494478E+03	3.853559E-04	8.848251E-06
6.504454E+03	3.849429E-04	8.835330E-06
6.514431E+03	3.844649E-04	8.821223E-06
6.524407E+03	3.838144E-04	8.803458E-06
6.534383E+03	3.830457E-04	8.783278E-06
6.544359E+03	3.821594E-04	8.760696E-06
6.554335E+03	3.811573E-04	8.735744E-06
6.564311E+03	3.800408E-04	8.708454E-06
6.574287E+03	3.788123E-04	8.678872E-06
6.584264E+03	3.774745E-04	8.647057E-06
6.594240E+03	3.760303E-04	8.613067E-06
6.604216E+03	3.745359E-04	8.578183E-06
6.614192E+03	3.728895E-04	8.540066E-06
6.624168E+03	3.711482E-04	8.500019E-06
6.634144E+03	3.693164E-04	8.458132E-06
6.644121E+03	3.673986E-04	8.414506E-06
6.654097E+03	3.653488E-04	8.368070E-06
6.664073E+03	3.632746E-04	8.321289E-06
6.674049E+03	3.611300E-04	8.273098E-06
6.684025E+03	3.589204E-04	8.223611E-06
6.694001E+03	3.566513E-04	8.172948E-06
6.703977E+03	3.543284E-04	8.121232E-06
6.713954E+03	3.519573E-04	8.068579E-06
6.723930E+03	3.495439E-04	8.015119E-06
6.733906E+03	3.470937E-04	7.960968E-06
6.743882E+03	3.445638E-04	7.905137E-06
6.753858E+03	3.420574E-04	7.849980E-06
6.763834E+03	3.395310E-04	7.794497E-06
6.773811E+03	3.369898E-04	7.738799E-06
6.783787E+03	3.344396E-04	7.683008E-06
6.793763E+03	3.318382E-04	7.626152E-06
6.803739E+03	3.292848E-04	7.570498E-06
6.813715E+03	3.267369E-04	7.515069E-06
6.823691E+03	3.241992E-04	7.459964E-06
6.833668E+03	3.216307E-04	7.404233E-06
6.843644E+03	3.191268E-04	7.350066E-06
6.853620E+03	3.166458E-04	7.296499E-06
6.863596E+03	3.141470E-04	7.242589E-06
6.873572E+03	3.117232E-04	7.190471E-06
6.883548E+03	3.093331E-04	7.139187E-06
6.893524E+03	3.069365E-04	7.087805E-06
6.903501E+03	3.046235E-04	7.038403E-06
6.913477E+03	3.023104E-04	6.989043E-06
6.923453E+03	3.000856E-04	6.941765E-06
6.933429E+03	2.978663E-04	6.894654E-06
6.943405E+03	2.957393E-04	6.849713E-06
6.953381E+03	2.936641E-04	6.806005E-06
6.963358E+03	2.916016E-04	6.762623E-06
6.973334E+03	2.896360E-04	6.721512E-06
6.983310E+03	2.876869E-04	6.680812E-06
6.993286E+03	2.858371E-04	6.642441E-06
7.003262E+03	2.840070E-04	6.604551E-06
7.013238E+03	2.822383E-04	6.568108E-06
7.023215E+03	2.805716E-04	6.534058E-06
7.033191E+03	2.789285E-04	6.500577E-06
7.043167E+03	2.773886E-04	6.469521E-06
7.053143E+03	2.758742E-04	6.439075E-06
7.063119E+03	2.744253E-04	6.410177E-06
7.073095E+03	2.730810E-04	6.383740E-06
7.083071E+03	2.717645E-04	6.357970E-06
7.093048E+03	2.705149E-04	6.333781E-06
7.103024E+03	2.693708E-04	6.312083E-06
7.113000E+03	2.682561E-04	6.291091E-06
7.122976E+03	2.672095E-04	6.271716E-06
7.132952E+03	2.662688E-04	6.254847E-06
7.142928E+03	2.653586E-04	6.238717E-06
7.152905E+03	2.645172E-04	6.224228E-06
7.162881E+03	2.637446E-04	6.211380E-06
7.172857E+03	2.630784E-04	6.201065E-06
7.182833E+03	2.624441E-04	6.191530E-06
7.192809E+03	2.618791E-04	6.183658E-06
7.202785E+03	2.613839E-04	6.177464E-06
7.212762E+03	2.609582E-04	6.172947E-06
7.222738E+03	2.606026E-04	6.170122E-06
7.232714E+03	2.603540E-04	6.169872E-06
7.242690E+03	2.601387E-04	6.170449E-06
7.252666E+03	2.599939E-04	6.172740E-06
7.262642E+03	2.599197E-04	6.176755E-06
7.272618E+03	2.599165E-04	6.182506E-06
7.282595E+03	2.599843E-04	6.189994E-06
7.292571E+03	2.601235E-04	6.199238E-06
7.302547E+03	2.603342E-04	6.210246E-06
7.312523E+03	2.606168E-04	6.223026E-06
7.322499E+03	2.609713E-04	6.237590E-06
7.332475E+03	2.613981E-04	6.253951E-06
7.342452E+03	2.618974E-04	6.272117E-06
7.352428E+03	2.624694E-04	6.292100E-06
7.362404E+03	2.631142E-04	6.313910E-06
7.372380E+03	2.638322E-04	6.337559E-06
7.382356E+03	2.646234E-04	6.363054E-06
7.392332E+03	2.654880E-04	6.390407E-06
7.402308E+03	2.664260E-04	6.419625E-06
7.412285E+03	2.673994E-04	6.449799E-06
7.422261E+03	2.684844E-04	6.482769E-06
7.432237E+03	2.696428E-04	6.517624E-06
7.442213E+03	2.708747E-04	6.554372E-06
7.452189E+03	2.721799E-04	6.593015E-06
7.462165E+03	2.735580E-04	6.633553E-06
7.472142E+03	2.749695E-04	6.675031E-06
7.482118E+03	2.764924E-04	6.719351E-06
7.492094E+03	2.780868E-04	6.765555E-06
7.502070E+03	2.797523E-04	6.813637E-06
7.512046E+03	2.814477E-04	6.862603E-06
7.522022E+03	2.832525E-04	6.914396E-06
7.531999E+03	2.851256E-04	6.968026E-06
7.541975E+03	2.870246E-04	7.022459E-06
7.551951E+03	2.890301E-04	7.079679E-06
7.561927E+03	2.910997E-04	7.138658E-06
7.571903E+03	2.931897E-04	7.198325E-06
7.581879E+03	2.953819E-04	7.260702E-06
7.591855E+03	2.975896E-04	7.323664E-06
7.601832E+03	2.998956E-04	7.389259E-06
7.611808E+03	3.022552E-04	7.456392E-06
7.621784E+03	3.046214E-04	7.523911E-06
7.631760E+03	3.070786E-04	7.593909E-06
7.641736E+03	3.095355E-04	7.664138E-06
7.651712E+03	3.120772E-04	7.736710E-06
7.661689E+03	3.146106E-04	7.809326E-06
7.671665E+03	3.172217E-04	7.884128E-06
7.681641E+03	3.198154E-04	7.958758E-06
7.691617E+03	3.224323E-04	8.034232E-06
7.701593E+03	3.251147E-04	8.111613E-06
7.711569E+03	3.277638E-04	8.188443E-06
7.721546E+03	3.304688E-04	8.266953E-06
7.731522E+03	3.331290E-04	8.344635E-06
7.741498E+03	3.357861E-04	8.422531E-06
