#wls	flux	fluxerr
1.591248E+03	2.056935E-16	2.385188E-18
1.631029E+03	2.194754E-16	2.541408E-18
1.670811E+03	2.336922E-16	2.702116E-18
1.710592E+03	2.481839E-16	2.865420E-18
1.750373E+03	2.625977E-16	3.027225E-18
1.790154E+03	2.765469E-16	3.183061E-18
1.829935E+03	2.893189E-16	3.324746E-18
1.869717E+03	3.001310E-16	3.443348E-18
1.909498E+03	3.079635E-16	3.527282E-18
1.949279E+03	3.116332E-16	3.563180E-18
1.989060E+03	3.101255E-16	3.539700E-18
2.028841E+03	3.027062E-16	3.448792E-18
2.068623E+03	2.892616E-16	3.289534E-18
2.108404E+03	2.716738E-16	3.083687E-18
2.148185E+03	2.560328E-16	2.900532E-18
2.187966E+03	2.472102E-16	2.795042E-18
2.227747E+03	2.480704E-16	2.799090E-18
2.267529E+03	2.610305E-16	2.939226E-18
2.307310E+03	2.876020E-16	3.231565E-18
2.347091E+03	3.292609E-16	3.691643E-18
2.386872E+03	3.885265E-16	4.346479E-18
2.426653E+03	4.687972E-16	5.232606E-18
2.466435E+03	5.737033E-16	6.388735E-18
2.506216E+03	7.060775E-16	7.844273E-18
2.545997E+03	8.654464E-16	9.591604E-18
2.585778E+03	1.043766E-15	1.153938E-17
2.625559E+03	1.221298E-15	1.346813E-17
2.665341E+03	1.385792E-15	1.524288E-17
2.705122E+03	1.537526E-15	1.686755E-17
2.744903E+03	1.676668E-15	1.834484E-17
2.784684E+03	1.802538E-15	1.966826E-17
2.824465E+03	1.914028E-15	2.082674E-17
2.864247E+03	2.010246E-15	2.181173E-17
2.904028E+03	2.090893E-15	2.262130E-17
2.943809E+03	2.156333E-15	2.326072E-17
2.983590E+03	2.207619E-15	2.374266E-17
2.993536E+03	2.218393E-15	2.384047E-17
3.003481E+03	2.228355E-15	2.392931E-17
3.013426E+03	2.237614E-15	2.401038E-17
3.023371E+03	2.246091E-15	2.408284E-17
3.033317E+03	2.253949E-15	2.414847E-17
3.043262E+03	2.261207E-15	2.420747E-17
3.053207E+03	2.267975E-15	2.426106E-17
3.063153E+03	2.274147E-15	2.430808E-17
3.073098E+03	2.279852E-15	2.434996E-17
3.083043E+03	2.284987E-15	2.438558E-17
3.092989E+03	2.289635E-15	2.441587E-17
3.102934E+03	2.293787E-15	2.444072E-17
3.112879E+03	2.297389E-15	2.445958E-17
3.122824E+03	2.300521E-15	2.447331E-17
3.132770E+03	2.303130E-15	2.448138E-17
3.142715E+03	2.305251E-15	2.448415E-17
3.152660E+03	2.306874E-15	2.448153E-17
3.162606E+03	2.307987E-15	2.447341E-17
3.172551E+03	2.308620E-15	2.446013E-17
3.182496E+03	2.308759E-15	2.444154E-17
3.192442E+03	2.308347E-15	2.441706E-17
3.202387E+03	2.307445E-15	2.438735E-17
3.212332E+03	2.305993E-15	2.435178E-17
3.222277E+03	2.304002E-15	2.431049E-17
3.232223E+03	2.301444E-15	2.426320E-17
3.242168E+03	2.298246E-15	2.420915E-17
3.252113E+03	2.294441E-15	2.414871E-17
3.262059E+03	2.289909E-15	2.408063E-17
3.272004E+03	2.284667E-15	2.400512E-17
3.281949E+03	2.278649E-15	2.392149E-17
3.291895E+03	2.271709E-15	2.382825E-17
3.301840E+03	2.263830E-15	2.372523E-17
3.311785E+03	2.254907E-15	2.361138E-17
3.321730E+03	2.244793E-15	2.348516E-17
3.331676E+03	2.233357E-15	2.334525E-17
3.341621E+03	2.220459E-15	2.319024E-17
3.351566E+03	2.205981E-15	2.301892E-17
3.361512E+03	2.189847E-15	2.283056E-17
3.371457E+03	2.172007E-15	2.262466E-17
3.381402E+03	2.152412E-15	2.240077E-17
3.391348E+03	2.131068E-15	2.215902E-17
3.401293E+03	2.108102E-15	2.190076E-17
3.411238E+03	2.083576E-15	2.162669E-17
3.421183E+03	2.057781E-15	2.133986E-17
3.431129E+03	2.030982E-15	2.104307E-17
3.441074E+03	2.003448E-15	2.073913E-17
3.451019E+03	1.975432E-15	2.043068E-17
3.460965E+03	1.947469E-15	2.012325E-17
3.470910E+03	1.920765E-15	1.982932E-17
3.480855E+03	1.896763E-15	1.956370E-17
3.490801E+03	1.876790E-15	1.934003E-17
3.500746E+03	1.861177E-15	1.916157E-17
3.510691E+03	1.848383E-15	1.901238E-17
3.520636E+03	1.836141E-15	1.886906E-17
3.530582E+03	1.822710E-15	1.871373E-17
3.540527E+03	1.807449E-15	1.853985E-17
3.550472E+03	1.790344E-15	1.834733E-17
3.560418E+03	1.772373E-15	1.814623E-17
3.570363E+03	1.756168E-15	1.796351E-17
3.580308E+03	1.745013E-15	1.783269E-17
3.590254E+03	1.741469E-15	1.777974E-17
3.600199E+03	1.746046E-15	1.780967E-17
3.610144E+03	1.758417E-15	1.791890E-17
3.620090E+03	1.776714E-15	1.808819E-17
3.630035E+03	1.795297E-15	1.826001E-17
3.639980E+03	1.806944E-15	1.836096E-17
3.649925E+03	1.805897E-15	1.833279E-17
3.659871E+03	1.790388E-15	1.815794E-17
3.669816E+03	1.760842E-15	1.784114E-17
3.679761E+03	1.719148E-15	1.740192E-17
3.689707E+03	1.669417E-15	1.688221E-17
3.699652E+03	1.616285E-15	1.632910E-17
3.709597E+03	1.563937E-15	1.578491E-17
3.719543E+03	1.515756E-15	1.528374E-17
3.729488E+03	1.474520E-15	1.485346E-17
3.739433E+03	1.442667E-15	1.451839E-17
3.749378E+03	1.422492E-15	1.430135E-17
3.759324E+03	1.416218E-15	1.422430E-17
3.769269E+03	1.425481E-15	1.430326E-17
3.779214E+03	1.450695E-15	1.454191E-17
3.789160E+03	1.491863E-15	1.493981E-17
3.799105E+03	1.548008E-15	1.548673E-17
3.809050E+03	1.615332E-15	1.614423E-17
3.818996E+03	1.688221E-15	1.685595E-17
3.828941E+03	1.760655E-15	1.756166E-17
3.838886E+03	1.827268E-15	1.820791E-17
3.848831E+03	1.883049E-15	1.874500E-17
3.858777E+03	1.924123E-15	1.913470E-17
3.868722E+03	1.949919E-15	1.937179E-17
3.878667E+03	1.961622E-15	1.946848E-17
3.888613E+03	1.960719E-15	1.943994E-17
3.898558E+03	1.948654E-15	1.930086E-17
3.908503E+03	1.926881E-15	1.906594E-17
3.918449E+03	1.897179E-15	1.875307E-17
3.928394E+03	1.862099E-15	1.838770E-17
3.938339E+03	1.824412E-15	1.799729E-17
3.948284E+03	1.787052E-15	1.761085E-17
3.958230E+03	1.753593E-15	1.726357E-17
3.968175E+03	1.727556E-15	1.698994E-17
3.978120E+03	1.711208E-15	1.681203E-17
3.988066E+03	1.704374E-15	1.672782E-17
3.998011E+03	1.705880E-15	1.672551E-17
4.007956E+03	1.713738E-15	1.678540E-17
4.017902E+03	1.724133E-15	1.686995E-17
4.027847E+03	1.732516E-15	1.693464E-17
4.037792E+03	1.735504E-15	1.694648E-17
4.047737E+03	1.732708E-15	1.690185E-17
4.057683E+03	1.725098E-15	1.681037E-17
4.067628E+03	1.714212E-15	1.668716E-17
4.077573E+03	1.702504E-15	1.655619E-17
4.087519E+03	1.692567E-15	1.644267E-17
4.097464E+03	1.685919E-15	1.636128E-17
4.107409E+03	1.681953E-15	1.630604E-17
4.117355E+03	1.679079E-15	1.626146E-17
4.127300E+03	1.675507E-15	1.621021E-17
4.137245E+03	1.669441E-15	1.613495E-17
4.147190E+03	1.659175E-15	1.601928E-17
4.157136E+03	1.644039E-15	1.585685E-17
4.167081E+03	1.625578E-15	1.566272E-17
4.177026E+03	1.606187E-15	1.546002E-17
4.186972E+03	1.587719E-15	1.526660E-17
4.196917E+03	1.570947E-15	1.508987E-17
4.206862E+03	1.556022E-15	1.493122E-17
4.216808E+03	1.542448E-15	1.478583E-17
4.226753E+03	1.528319E-15	1.463544E-17
4.236698E+03	1.511389E-15	1.445855E-17
4.246643E+03	1.490478E-15	1.424399E-17
4.256589E+03	1.466843E-15	1.400385E-17
4.266534E+03	1.442735E-15	1.375970E-17
4.276479E+03	1.420543E-15	1.353430E-17
4.286425E+03	1.403145E-15	1.335500E-17
4.296370E+03	1.393296E-15	1.324786E-17
4.306315E+03	1.392600E-15	1.322788E-17
4.316261E+03	1.400114E-15	1.328586E-17
4.326206E+03	1.413887E-15	1.340308E-17
4.336151E+03	1.431946E-15	1.356066E-17
4.346096E+03	1.452222E-15	1.373892E-17
4.356042E+03	1.472679E-15	1.391855E-17
4.365987E+03	1.491856E-15	1.408576E-17
4.375932E+03	1.509808E-15	1.424111E-17
4.385878E+03	1.527257E-15	1.439142E-17
4.395823E+03	1.544636E-15	1.454082E-17
4.405768E+03	1.561399E-15	1.468415E-17
4.415714E+03	1.576533E-15	1.481192E-17
4.425659E+03	1.589039E-15	1.491480E-17
4.435604E+03	1.598251E-15	1.498664E-17
4.445549E+03	1.603638E-15	1.502253E-17
4.455495E+03	1.605104E-15	1.502170E-17
4.465440E+03	1.603622E-15	1.499334E-17
4.475385E+03	1.600516E-15	1.494991E-17
4.485331E+03	1.596672E-15	1.489972E-17
4.495276E+03	1.592121E-15	1.484308E-17
4.505221E+03	1.586380E-15	1.477551E-17
4.515167E+03	1.578865E-15	1.469161E-17
4.525112E+03	1.568984E-15	1.458592E-17
4.535057E+03	1.556082E-15	1.445241E-17
4.545002E+03	1.539717E-15	1.428709E-17
4.554948E+03	1.519931E-15	1.409040E-17
4.564893E+03	1.497011E-15	1.386511E-17
4.574838E+03	1.471435E-15	1.361572E-17
4.584784E+03	1.444162E-15	1.335115E-17
4.594729E+03	1.416302E-15	1.308169E-17
4.604674E+03	1.388935E-15	1.281734E-17
4.614620E+03	1.363112E-15	1.256776E-17
4.624565E+03	1.339804E-15	1.234185E-17
4.634510E+03	1.319449E-15	1.214358E-17
4.644455E+03	1.301330E-15	1.196630E-17
4.654401E+03	1.284411E-15	1.180040E-17
4.664346E+03	1.268003E-15	1.163955E-17
4.674291E+03	1.252193E-15	1.148454E-17
4.684237E+03	1.237425E-15	1.133940E-17
4.694182E+03	1.224232E-15	1.120901E-17
4.704127E+03	1.213263E-15	1.109924E-17
4.714073E+03	1.205170E-15	1.101602E-17
4.724018E+03	1.199996E-15	1.095967E-17
4.733963E+03	1.196550E-15	1.091926E-17
4.743909E+03	1.193129E-15	1.087922E-17
4.753854E+03	1.188429E-15	1.082768E-17
4.763799E+03	1.182229E-15	1.076263E-17
4.773744E+03	1.174784E-15	1.068645E-17
4.783690E+03	1.166801E-15	1.060558E-17
4.793635E+03	1.159825E-15	1.053407E-17
4.803580E+03	1.155682E-15	1.048847E-17
4.813526E+03	1.155724E-15	1.048097E-17
4.823471E+03	1.160249E-15	1.051421E-17
4.833416E+03	1.169013E-15	1.058587E-17
4.843362E+03	1.181112E-15	1.068772E-17
4.853307E+03	1.194192E-15	1.079838E-17
4.863252E+03	1.205262E-15	1.089082E-17
4.873197E+03	1.211720E-15	1.094160E-17
4.883143E+03	1.212312E-15	1.093949E-17
4.893088E+03	1.206546E-15	1.088016E-17
4.903033E+03	1.195216E-15	1.077089E-17
4.912979E+03	1.181660E-15	1.064181E-17
4.922924E+03	1.170034E-15	1.053041E-17
4.932869E+03	1.163632E-15	1.046624E-17
4.942815E+03	1.163985E-15	1.046300E-17
4.952760E+03	1.171793E-15	1.052685E-17
4.962705E+03	1.186826E-15	1.065562E-17
4.972650E+03	1.206897E-15	1.082958E-17
4.982596E+03	1.228841E-15	1.102027E-17
4.992541E+03	1.249747E-15	1.120159E-17
5.002486E+03	1.267934E-15	1.135850E-17
5.012432E+03	1.282295E-15	1.148114E-17
5.022377E+03	1.292169E-15	1.156365E-17
5.032322E+03	1.297923E-15	1.160939E-17
5.042268E+03	1.300333E-15	1.162534E-17
5.052213E+03	1.300096E-15	1.161780E-17
5.062158E+03	1.297746E-15	1.159156E-17
5.072103E+03	1.293681E-15	1.155020E-17
5.082049E+03	1.288342E-15	1.149768E-17
5.091994E+03	1.282418E-15	1.144016E-17
5.101939E+03	1.276620E-15	1.138399E-17
5.111885E+03	1.271453E-15	1.133368E-17
5.121830E+03	1.267059E-15	1.129046E-17
5.131775E+03	1.263370E-15	1.125374E-17
5.141721E+03	1.259886E-15	1.121906E-17
5.151666E+03	1.255355E-15	1.117527E-17
5.161611E+03	1.248230E-15	1.110862E-17
5.171556E+03	1.237418E-15	1.100939E-17
5.181502E+03	1.222822E-15	1.087676E-17
5.191447E+03	1.204859E-15	1.071443E-17
5.201392E+03	1.184433E-15	1.053049E-17
5.211338E+03	1.163475E-15	1.034209E-17
5.221283E+03	1.144102E-15	1.016803E-17
5.231228E+03	1.127872E-15	1.002216E-17
5.241174E+03	1.115291E-15	9.908947E-18
5.251119E+03	1.106393E-15	9.828673E-18
5.261064E+03	1.100876E-15	9.778644E-18
5.271009E+03	1.097745E-15	9.750014E-18
5.280955E+03	1.095805E-15	9.732168E-18
5.290900E+03	1.094057E-15	9.716223E-18
5.300845E+03	1.091827E-15	9.696204E-18
5.310791E+03	1.088614E-15	9.667657E-18
5.320736E+03	1.084009E-15	9.626955E-18
5.330681E+03	1.077567E-15	9.570142E-18
5.340627E+03	1.068815E-15	9.493012E-18
5.350572E+03	1.057454E-15	9.392900E-18
5.360517E+03	1.043374E-15	9.268828E-18
5.370462E+03	1.026667E-15	9.121593E-18
5.380408E+03	1.007941E-15	8.956578E-18
5.390353E+03	9.888864E-16	8.788794E-18
5.400298E+03	9.714392E-16	8.635429E-18
5.410244E+03	9.570815E-16	8.509660E-18
5.420189E+03	9.465789E-16	8.418302E-18
5.430134E+03	9.402284E-16	8.364013E-18
5.440080E+03	9.378118E-16	8.344874E-18
5.450025E+03	9.383154E-16	8.351891E-18
5.459970E+03	9.403993E-16	8.373154E-18
5.469915E+03	9.428724E-16	8.398067E-18
5.479861E+03	9.450666E-16	8.420678E-18
5.489806E+03	9.466052E-16	8.437627E-18
5.499751E+03	9.472493E-16	8.446776E-18
5.509697E+03	9.470436E-16	8.448512E-18
5.519642E+03	9.460975E-16	8.443799E-18
5.529587E+03	9.444389E-16	8.432875E-18
5.539533E+03	9.417767E-16	8.413127E-18
5.549478E+03	9.377383E-16	8.381210E-18
5.559423E+03	9.321288E-16	8.335356E-18
5.569368E+03	9.250863E-16	8.276777E-18
5.579314E+03	9.169388E-16	8.208381E-18
5.589259E+03	9.083306E-16	8.135919E-18
5.599204E+03	9.004508E-16	8.070034E-18
5.609150E+03	8.946746E-16	8.023063E-18
5.619095E+03	8.921244E-16	8.005107E-18
5.629040E+03	8.936299E-16	8.023668E-18
5.638986E+03	8.997597E-16	8.083918E-18
5.648931E+03	9.105244E-16	8.186036E-18
5.658876E+03	9.247980E-16	8.319976E-18
5.668821E+03	9.408773E-16	8.470472E-18
5.678767E+03	9.570319E-16	8.621973E-18
5.688712E+03	9.717015E-16	8.760417E-18
5.698657E+03	9.834605E-16	8.872919E-18
5.708603E+03	9.913959E-16	8.951178E-18
5.718548E+03	9.956704E-16	8.996588E-18
5.728493E+03	9.969597E-16	9.015183E-18
5.738439E+03	9.959525E-16	9.013133E-18
5.748384E+03	9.930956E-16	8.994433E-18
5.758329E+03	9.887025E-16	8.961880E-18
5.768274E+03	9.829814E-16	8.917326E-18
5.778220E+03	9.759973E-16	8.861330E-18
5.788165E+03	9.677295E-16	8.793667E-18
5.798110E+03	9.581527E-16	8.714075E-18
5.808056E+03	9.472983E-16	8.622804E-18
5.818001E+03	9.352503E-16	8.520584E-18
5.827946E+03	9.222329E-16	8.409425E-18
5.837892E+03	9.088319E-16	8.294644E-18
5.847837E+03	8.957313E-16	8.182474E-18
5.857782E+03	8.835659E-16	8.078722E-18
5.867727E+03	8.729557E-16	7.989079E-18
5.877673E+03	8.644352E-16	7.918477E-18
5.887618E+03	8.583800E-16	7.870408E-18
5.897563E+03	8.547401E-16	7.844476E-18
5.907509E+03	8.533230E-16	7.838971E-18
5.917454E+03	8.537598E-16	7.850558E-18
5.927399E+03	8.552910E-16	7.872294E-18
5.937345E+03	8.570093E-16	7.895849E-18
5.947290E+03	8.580819E-16	7.913546E-18
5.957235E+03	8.578625E-16	7.919398E-18
5.967181E+03	8.558226E-16	7.908487E-18
5.977126E+03	8.514194E-16	7.875737E-18
5.987071E+03	8.441585E-16	7.816503E-18
5.997016E+03	8.335498E-16	7.726157E-18
6.006962E+03	8.193092E-16	7.601967E-18
6.016907E+03	8.014110E-16	7.443584E-18
6.026852E+03	7.800806E-16	7.252995E-18
6.036798E+03	7.559576E-16	7.036048E-18
6.046743E+03	7.305393E-16	6.806607E-18
6.056688E+03	7.055272E-16	6.580497E-18
6.066634E+03	6.826362E-16	6.373739E-18
6.076579E+03	6.636868E-16	6.203404E-18
6.086524E+03	6.504567E-16	6.086242E-18
6.096469E+03	6.440670E-16	6.032920E-18
6.106415E+03	6.444404E-16	6.042919E-18
6.116360E+03	6.510867E-16	6.111841E-18
6.126305E+03	6.632877E-16	6.233127E-18
6.136251E+03	6.795386E-16	6.392792E-18
6.146196E+03	6.979401E-16	6.573072E-18
6.156141E+03	7.165606E-16	6.755825E-18
6.166087E+03	7.337318E-16	6.925310E-18
6.176032E+03	7.478648E-16	7.066474E-18
6.185977E+03	7.575420E-16	7.165810E-18
6.195922E+03	7.618457E-16	7.214490E-18
6.205868E+03	7.601445E-16	7.206357E-18
6.215813E+03	7.520956E-16	7.137969E-18
6.225758E+03	7.378142E-16	7.010219E-18
6.235704E+03	7.177264E-16	6.826957E-18
6.245649E+03	6.929505E-16	6.598648E-18
6.255594E+03	6.658537E-16	6.347707E-18
6.265540E+03	6.390400E-16	6.098906E-18
6.275485E+03	6.148934E-16	5.875031E-18
6.285430E+03	5.957285E-16	5.698306E-18
6.295375E+03	5.836450E-16	5.588993E-18
6.305321E+03	5.798278E-16	5.558680E-18
6.315266E+03	5.837209E-16	5.602297E-18
6.325211E+03	5.941617E-16	5.708921E-18
6.335157E+03	6.098268E-16	5.866036E-18
6.345102E+03	6.287893E-16	6.055253E-18
6.355047E+03	6.487494E-16	6.254509E-18
6.364993E+03	6.675772E-16	6.443279E-18
6.374938E+03	6.840213E-16	6.609434E-18
6.384883E+03	6.973004E-16	6.745340E-18
6.394828E+03	7.070146E-16	6.847018E-18
6.404774E+03	7.135213E-16	6.917817E-18
6.414719E+03	7.175459E-16	6.964673E-18
6.424664E+03	7.197498E-16	6.993930E-18
6.434610E+03	7.204418E-16	7.008533E-18
6.444555E+03	7.197606E-16	7.009782E-18
6.454500E+03	7.177404E-16	6.997964E-18
6.464446E+03	7.142521E-16	6.971774E-18
6.474391E+03	7.090876E-16	6.929130E-18
6.484336E+03	7.022172E-16	6.869687E-18
6.494281E+03	6.940620E-16	6.797510E-18
6.504227E+03	6.851926E-16	6.718152E-18
6.514172E+03	6.761234E-16	6.636640E-18
6.524117E+03	6.672753E-16	6.557099E-18
6.534063E+03	6.590165E-16	6.483160E-18
6.544008E+03	6.515106E-16	6.416454E-18
6.553953E+03	6.446773E-16	6.356212E-18
6.563899E+03	6.382982E-16	6.300301E-18
6.573844E+03	6.321511E-16	6.246539E-18
6.583789E+03	6.261137E-16	6.193724E-18
6.593734E+03	6.200550E-16	6.140562E-18
6.603680E+03	6.139335E-16	6.086639E-18
6.613625E+03	6.077608E-16	6.032070E-18
6.623570E+03	6.016174E-16	5.977652E-18
6.633516E+03	5.955601E-16	5.923951E-18
6.643461E+03	5.895959E-16	5.871037E-18
6.653406E+03	5.837244E-16	5.818912E-18
6.663352E+03	5.779402E-16	5.767523E-18
6.673297E+03	5.721841E-16	5.716283E-18
6.683242E+03	5.663966E-16	5.664596E-18
6.693187E+03	5.605305E-16	5.611989E-18
6.703133E+03	5.545651E-16	5.558252E-18
6.713078E+03	5.484981E-16	5.503358E-18
6.723023E+03	5.423924E-16	5.447936E-18
6.732969E+03	5.364450E-16	5.393966E-18
6.742914E+03	5.309206E-16	5.344116E-18
6.752859E+03	5.260281E-16	5.300506E-18
6.762805E+03	5.218654E-16	5.264142E-18
6.772750E+03	5.185000E-16	5.235732E-18
6.782695E+03	5.159274E-16	5.215254E-18
6.792640E+03	5.140384E-16	5.201628E-18
6.802586E+03	5.126729E-16	5.193255E-18
6.812531E+03	5.116297E-16	5.188109E-18
6.822476E+03	5.106318E-16	5.183391E-18
6.832422E+03	5.093382E-16	5.175636E-18
6.842367E+03	5.074706E-16	5.162004E-18
6.852312E+03	5.048375E-16	5.140526E-18
6.862258E+03	5.012865E-16	5.109625E-18
6.872203E+03	4.967856E-16	5.068945E-18
6.882148E+03	4.915231E-16	5.020381E-18
6.892093E+03	4.857697E-16	4.966676E-18
6.902039E+03	4.798809E-16	4.911453E-18
6.911984E+03	4.743993E-16	4.860267E-18
6.921929E+03	4.698963E-16	4.818992E-18
6.931875E+03	4.669009E-16	4.793088E-18
6.941820E+03	4.658648E-16	4.787244E-18
6.951765E+03	4.671973E-16	4.805731E-18
6.961711E+03	4.711091E-16	4.850790E-18
6.971656E+03	4.773712E-16	4.920139E-18
6.981601E+03	4.855103E-16	5.008969E-18
6.991546E+03	4.949890E-16	5.111783E-18
7.001492E+03	5.050713E-16	5.221016E-18
7.011437E+03	5.149275E-16	5.328098E-18
7.021382E+03	5.238153E-16	5.425334E-18
7.031328E+03	5.312682E-16	5.507857E-18
7.041273E+03	5.369632E-16	5.572271E-18
7.051218E+03	5.407015E-16	5.616458E-18
7.061164E+03	5.424340E-16	5.639848E-18
7.071109E+03	5.422059E-16	5.642852E-18
7.081054E+03	5.401368E-16	5.626656E-18
7.091000E+03	5.364026E-16	5.593041E-18
7.100945E+03	5.312406E-16	5.544433E-18
7.110890E+03	5.249215E-16	5.483621E-18
7.120835E+03	5.178518E-16	5.414820E-18
7.130781E+03	5.104344E-16	5.342225E-18
7.140726E+03	5.030655E-16	5.269978E-18
7.150671E+03	4.960758E-16	5.201547E-18
7.160617E+03	4.897179E-16	5.139597E-18
7.170562E+03	4.841830E-16	5.086154E-18
7.180507E+03	4.795187E-16	5.041742E-18
7.190453E+03	4.756985E-16	5.006108E-18
7.200398E+03	4.726895E-16	4.978931E-18
7.210343E+03	4.705037E-16	4.960358E-18
7.220288E+03	4.691382E-16	4.950385E-18
7.230234E+03	4.685586E-16	4.948670E-18
7.240179E+03	4.686441E-16	4.953959E-18
7.250124E+03	4.692055E-16	4.964269E-18
7.260070E+03	4.700241E-16	4.977296E-18
7.270015E+03	4.707571E-16	4.989415E-18
7.279960E+03	4.710228E-16	4.996574E-18
7.289906E+03	4.704549E-16	4.994872E-18
7.299851E+03	4.686586E-16	4.980089E-18
7.309796E+03	4.652946E-16	4.948584E-18
7.319741E+03	4.600389E-16	4.896865E-18
7.329687E+03	4.526854E-16	4.822686E-18
7.339632E+03	4.431051E-16	4.724614E-18
7.349577E+03	4.313254E-16	4.602884E-18
7.359523E+03	4.177385E-16	4.461625E-18
7.369468E+03	4.028516E-16	4.306213E-18
7.379413E+03	3.873744E-16	4.144207E-18
7.389359E+03	3.724244E-16	3.987558E-18
7.399304E+03	3.591433E-16	3.848516E-18
7.409249E+03	3.484289E-16	3.736754E-18
7.419194E+03	3.408340E-16	3.658275E-18
7.429140E+03	3.367937E-16	3.617835E-18
7.439085E+03	3.365195E-16	3.617801E-18
7.449030E+03	3.397373E-16	3.655321E-18
7.458976E+03	3.459801E-16	3.725455E-18
7.468921E+03	3.547655E-16	3.823086E-18
7.478866E+03	3.655464E-16	3.942373E-18
7.488812E+03	3.777064E-16	4.076715E-18
7.498757E+03	3.906537E-16	4.219754E-18
7.508702E+03	4.040160E-16	4.367482E-18
7.518647E+03	4.174658E-16	4.516366E-18
7.528593E+03	4.307319E-16	4.663469E-18
7.538538E+03	4.435981E-16	4.806446E-18
7.548483E+03	4.558863E-16	4.943349E-18
7.558429E+03	4.673977E-16	5.072010E-18
7.568374E+03	4.779578E-16	5.190511E-18
7.578319E+03	4.873739E-16	5.296733E-18
7.588265E+03	4.954726E-16	5.388762E-18
7.598210E+03	5.021442E-16	5.465372E-18
7.608155E+03	5.073360E-16	5.525953E-18
7.618100E+03	5.109947E-16	5.569886E-18
7.628046E+03	5.131644E-16	5.597618E-18
7.637991E+03	5.138528E-16	5.609195E-18
7.647936E+03	5.131841E-16	5.605939E-18
7.657882E+03	5.113234E-16	5.589624E-18
7.667827E+03	5.084698E-16	5.562398E-18
7.677772E+03	5.048524E-16	5.526748E-18
7.687718E+03	5.006994E-16	5.485156E-18
7.697663E+03	4.962329E-16	5.440044E-18
7.707608E+03	4.916403E-16	5.393462E-18
7.717553E+03	4.870613E-16	5.346942E-18
