#wls	flux	fluxerr
1.591248E+03	4.666216E-17	1.952401E-21
1.631029E+03	4.485106E-17	1.876622E-21
1.670811E+03	4.301822E-17	1.799934E-21
1.710592E+03	4.117842E-17	1.722955E-21
1.750373E+03	3.936900E-17	1.647246E-21
1.790154E+03	3.761570E-17	1.573886E-21
1.829935E+03	3.592595E-17	1.503185E-21
1.869717E+03	3.433035E-17	1.436423E-21
1.909498E+03	3.282480E-17	1.373429E-21
1.949279E+03	3.143426E-17	1.315247E-21
1.989060E+03	3.018611E-17	1.263023E-21
2.028841E+03	2.915131E-17	1.219726E-21
2.068623E+03	2.843362E-17	1.189697E-21
2.108404E+03	2.819166E-17	1.179573E-21
2.148185E+03	2.859078E-17	1.196272E-21
2.187966E+03	2.972017E-17	1.243528E-21
2.227747E+03	3.161321E-17	1.322734E-21
2.267529E+03	3.422437E-17	1.431988E-21
2.307310E+03	3.751101E-17	1.569505E-21
2.347091E+03	4.145833E-17	1.734666E-21
2.386872E+03	4.605433E-17	1.926968E-21
2.426653E+03	5.132108E-17	2.147335E-21
2.466435E+03	5.722725E-17	2.394456E-21
2.506216E+03	6.374099E-17	2.666999E-21
2.545997E+03	7.073304E-17	2.959555E-21
2.585778E+03	7.803078E-17	3.264901E-21
2.625559E+03	8.542842E-17	3.574427E-21
2.665341E+03	9.272950E-17	3.879913E-21
2.705122E+03	9.985233E-17	4.177940E-21
2.744903E+03	1.067378E-16	4.466038E-21
2.784684E+03	1.133750E-16	4.743743E-21
2.824465E+03	1.197373E-16	5.009950E-21
2.864247E+03	1.258108E-16	5.264074E-21
2.904028E+03	1.315972E-16	5.506183E-21
2.943809E+03	1.371488E-16	5.738469E-21
2.983590E+03	1.425727E-16	5.965412E-21
2.993536E+03	1.439135E-16	6.021511E-21
3.003481E+03	1.452443E-16	6.077192E-21
3.013426E+03	1.465831E-16	6.133210E-21
3.023371E+03	1.479323E-16	6.189663E-21
3.033317E+03	1.492973E-16	6.246776E-21
3.043262E+03	1.506637E-16	6.303950E-21
3.053207E+03	1.520540E-16	6.362119E-21
3.063153E+03	1.534517E-16	6.420602E-21
3.073098E+03	1.548915E-16	6.480845E-21
3.083043E+03	1.563404E-16	6.541468E-21
3.092989E+03	1.578334E-16	6.603935E-21
3.102934E+03	1.593376E-16	6.666873E-21
3.112879E+03	1.608883E-16	6.731759E-21
3.122824E+03	1.624528E-16	6.797217E-21
3.132770E+03	1.640667E-16	6.864743E-21
3.142715E+03	1.657315E-16	6.934404E-21
3.152660E+03	1.674145E-16	7.004820E-21
3.162606E+03	1.691517E-16	7.077508E-21
3.172551E+03	1.709449E-16	7.152536E-21
3.182496E+03	1.727783E-16	7.229249E-21
3.192442E+03	1.746711E-16	7.308447E-21
3.202387E+03	1.766251E-16	7.390204E-21
3.212332E+03	1.786419E-16	7.474590E-21
3.222277E+03	1.807235E-16	7.561683E-21
3.232223E+03	1.828889E-16	7.652288E-21
3.242168E+03	1.851044E-16	7.744987E-21
3.252113E+03	1.874069E-16	7.841328E-21
3.262059E+03	1.897981E-16	7.941379E-21
3.272004E+03	1.922793E-16	8.045194E-21
3.281949E+03	1.948516E-16	8.152822E-21
3.291895E+03	1.974978E-16	8.263541E-21
3.301840E+03	2.002550E-16	8.378908E-21
3.311785E+03	2.031240E-16	8.498948E-21
3.321730E+03	2.060865E-16	8.622902E-21
3.331676E+03	2.091608E-16	8.751536E-21
3.341621E+03	2.123653E-16	8.885616E-21
3.351566E+03	2.156616E-16	9.023535E-21
3.361512E+03	2.190856E-16	9.166801E-21
3.371457E+03	2.226356E-16	9.315335E-21
3.381402E+03	2.263087E-16	9.469021E-21
3.391348E+03	2.301015E-16	9.627718E-21
3.401293E+03	2.340288E-16	9.792040E-21
3.411238E+03	2.380660E-16	9.960963E-21
3.421183E+03	2.422455E-16	1.013584E-20
3.431129E+03	2.465403E-16	1.031554E-20
3.441074E+03	2.509416E-16	1.049969E-20
3.451019E+03	2.554588E-16	1.068870E-20
3.460965E+03	2.600798E-16	1.088205E-20
3.470910E+03	2.648076E-16	1.107986E-20
3.480855E+03	2.696028E-16	1.128050E-20
3.490801E+03	2.744633E-16	1.148387E-20
3.500746E+03	2.793648E-16	1.168895E-20
3.510691E+03	2.843004E-16	1.189546E-20
3.520636E+03	2.892203E-16	1.210132E-20
3.530582E+03	2.941122E-16	1.230600E-20
3.540527E+03	2.989211E-16	1.250721E-20
3.550472E+03	3.036493E-16	1.270505E-20
3.560418E+03	3.082371E-16	1.289700E-20
3.570363E+03	3.126627E-16	1.308218E-20
3.580308E+03	3.168631E-16	1.325793E-20
3.590254E+03	3.207948E-16	1.342243E-20
3.600199E+03	3.244534E-16	1.357551E-20
3.610144E+03	3.277569E-16	1.371374E-20
3.620090E+03	3.306847E-16	1.383624E-20
3.630035E+03	3.331817E-16	1.394071E-20
3.632180E+03	2.753233E-16	1.151985E-20
3.633648E+03	2.791577E-16	1.168029E-20
3.635107E+03	2.842049E-16	1.189147E-20
3.636565E+03	2.889251E-16	1.208897E-20
3.638033E+03	2.908277E-16	1.216857E-20
3.639491E+03	2.938446E-16	1.229481E-20
3.640950E+03	2.991727E-16	1.251774E-20
3.642418E+03	3.053373E-16	1.277567E-20
3.643876E+03	3.106667E-16	1.299866E-20
3.645335E+03	3.162263E-16	1.323128E-20
3.646803E+03	3.213769E-16	1.344679E-20
3.648261E+03	3.244461E-16	1.357521E-20
3.649720E+03	3.247452E-16	1.358772E-20
3.651187E+03	3.266183E-16	1.366610E-20
3.652645E+03	3.283440E-16	1.373830E-20
3.654113E+03	3.298733E-16	1.380229E-20
3.655572E+03	3.336821E-16	1.396165E-20
3.657030E+03	3.373764E-16	1.411623E-20
3.658498E+03	3.393330E-16	1.419809E-20
3.659957E+03	3.390591E-16	1.418663E-20
3.661415E+03	3.414424E-16	1.428635E-20
3.662883E+03	3.433996E-16	1.436824E-20
3.664341E+03	3.447664E-16	1.442543E-20
3.665800E+03	3.481841E-16	1.456843E-20
3.667268E+03	3.505688E-16	1.466821E-20
3.668726E+03	3.536262E-16	1.479614E-20
3.670195E+03	3.552240E-16	1.486299E-20
3.671653E+03	3.566084E-16	1.492092E-20
3.673111E+03	3.577305E-16	1.496787E-20
3.674580E+03	3.584098E-16	1.499629E-20
3.676038E+03	3.572508E-16	1.494780E-20
3.677496E+03	3.585702E-16	1.500300E-20
3.678964E+03	3.559175E-16	1.489201E-20
3.680423E+03	3.520332E-16	1.472948E-20
3.681881E+03	3.523511E-16	1.474279E-20
3.683349E+03	3.501737E-16	1.465168E-20
3.684808E+03	3.501303E-16	1.464987E-20
3.686275E+03	3.505304E-16	1.466661E-20
3.687733E+03	3.496496E-16	1.462975E-20
3.689192E+03	3.481119E-16	1.456541E-20
3.690660E+03	3.459172E-16	1.447358E-20
3.692118E+03	3.447403E-16	1.442434E-20
3.693576E+03	3.481296E-16	1.456615E-20
3.695045E+03	3.473472E-16	1.453342E-20
3.696503E+03	3.442976E-16	1.440582E-20
3.697961E+03	3.470632E-16	1.452153E-20
3.699430E+03	3.522445E-16	1.473832E-20
3.700888E+03	3.541730E-16	1.481902E-20
3.702356E+03	3.525200E-16	1.474985E-20
3.703814E+03	3.497985E-16	1.463598E-20
3.705273E+03	3.480462E-16	1.456266E-20
3.706741E+03	3.460803E-16	1.448041E-20
3.708199E+03	3.447877E-16	1.442633E-20
3.709658E+03	3.448759E-16	1.443001E-20
3.711126E+03	3.438298E-16	1.438624E-20
3.712584E+03	3.435398E-16	1.437411E-20
3.714043E+03	3.436279E-16	1.437779E-20
3.715511E+03	3.429434E-16	1.434915E-20
3.716969E+03	3.424067E-16	1.432670E-20
3.718437E+03	3.409656E-16	1.426640E-20
3.719896E+03	3.402314E-16	1.423568E-20
3.721354E+03	3.392505E-16	1.419464E-20
3.722821E+03	3.383682E-16	1.415773E-20
3.724280E+03	3.380943E-16	1.414627E-20
3.725738E+03	3.359124E-16	1.405497E-20
3.727206E+03	3.339606E-16	1.397330E-20
3.728664E+03	3.319427E-16	1.388887E-20
3.730123E+03	3.297270E-16	1.379617E-20
3.731591E+03	3.279390E-16	1.372135E-20
3.733049E+03	3.258709E-16	1.363482E-20
3.734518E+03	3.233750E-16	1.353039E-20
3.735976E+03	3.204836E-16	1.340941E-20
3.737434E+03	3.180527E-16	1.330770E-20
3.738902E+03	3.149138E-16	1.317637E-20
3.740361E+03	3.120708E-16	1.305741E-20
3.741819E+03	3.085032E-16	1.290814E-20
3.743287E+03	3.047870E-16	1.275265E-20
3.744746E+03	3.032269E-16	1.268737E-20
3.746204E+03	3.006787E-16	1.258075E-20
3.747672E+03	2.977681E-16	1.245897E-20
3.749131E+03	2.952687E-16	1.235439E-20
3.750599E+03	2.921434E-16	1.222362E-20
3.752057E+03	2.907796E-16	1.216656E-20
3.753515E+03	2.898604E-16	1.212810E-20
3.754984E+03	2.869812E-16	1.200763E-20
3.756442E+03	2.845297E-16	1.190506E-20
3.757900E+03	2.802989E-16	1.172804E-20
3.759368E+03	2.733824E-16	1.143864E-20
3.760826E+03	2.694470E-16	1.127398E-20
3.762284E+03	2.640611E-16	1.104863E-20
3.763753E+03	2.595149E-16	1.085841E-20
3.765211E+03	2.570937E-16	1.075710E-20
3.766679E+03	2.550019E-16	1.066958E-20
3.768137E+03	2.536513E-16	1.061307E-20
3.769596E+03	2.532401E-16	1.059586E-20
3.771064E+03	2.523509E-16	1.055866E-20
3.772522E+03	2.526978E-16	1.057317E-20
3.773981E+03	2.494511E-16	1.043733E-20
3.775449E+03	2.461710E-16	1.030009E-20
3.776907E+03	2.435004E-16	1.018834E-20
3.778365E+03	2.429236E-16	1.016421E-20
3.779834E+03	2.412914E-16	1.009592E-20
3.781292E+03	2.385541E-16	9.981383E-21
3.782760E+03	2.365916E-16	9.899271E-21
3.784219E+03	2.359318E-16	9.871664E-21
3.785677E+03	2.350409E-16	9.834389E-21
3.787145E+03	2.341005E-16	9.795042E-21
3.788604E+03	2.327640E-16	9.739122E-21
3.790062E+03	2.332421E-16	9.759126E-21
3.791530E+03	2.337204E-16	9.779139E-21
3.792988E+03	2.339677E-16	9.789483E-21
3.794447E+03	2.330930E-16	9.752884E-21
3.795914E+03	2.322183E-16	9.716285E-21
3.797372E+03	2.335052E-16	9.770133E-21
3.798841E+03	2.362120E-16	9.883386E-21
3.800299E+03	2.373839E-16	9.932422E-21
3.801757E+03	2.388696E-16	9.994586E-21
3.803225E+03	2.416599E-16	1.011133E-20
3.804684E+03	2.450448E-16	1.025296E-20
3.806142E+03	2.469773E-16	1.033382E-20
3.807610E+03	2.487450E-16	1.040778E-20
3.809069E+03	2.513386E-16	1.051630E-20
3.810527E+03	2.551876E-16	1.067735E-20
3.811995E+03	2.592024E-16	1.084533E-20
3.813453E+03	2.655961E-16	1.111285E-20
3.814922E+03	2.713136E-16	1.135208E-20
3.816380E+03	2.754956E-16	1.152706E-20
3.817838E+03	2.806694E-16	1.174354E-20
3.819307E+03	2.876119E-16	1.203402E-20
3.820765E+03	2.918125E-16	1.220978E-20
3.822223E+03	2.955512E-16	1.236621E-20
3.823692E+03	3.025293E-16	1.265818E-20
3.825150E+03	3.085168E-16	1.290871E-20
3.826608E+03	3.130013E-16	1.309634E-20
3.828076E+03	3.173709E-16	1.327917E-20
3.829535E+03	3.227327E-16	1.350352E-20
3.831002E+03	3.285088E-16	1.374519E-20
3.832460E+03	3.322853E-16	1.390321E-20
3.833919E+03	3.372527E-16	1.411105E-20
3.835387E+03	3.441720E-16	1.440056E-20
3.836845E+03	3.517702E-16	1.471848E-20
3.838303E+03	3.584930E-16	1.499977E-20
3.839772E+03	3.660110E-16	1.531433E-20
3.841230E+03	3.733148E-16	1.561993E-20
3.842688E+03	3.816121E-16	1.596710E-20
3.844157E+03	3.873801E-16	1.620844E-20
3.845615E+03	3.937112E-16	1.647334E-20
3.847083E+03	4.017475E-16	1.680959E-20
3.848542E+03	4.084943E-16	1.709188E-20
3.850000E+03	4.150602E-16	1.736661E-20
3.851468E+03	4.230668E-16	1.770161E-20
3.852926E+03	4.307435E-16	1.802282E-20
3.854385E+03	4.380243E-16	1.832745E-20
3.855853E+03	4.459353E-16	1.865846E-20
3.857311E+03	4.558170E-16	1.907192E-20
3.858769E+03	4.648229E-16	1.944874E-20
3.860238E+03	4.735159E-16	1.981246E-20
3.861696E+03	4.819451E-16	2.016515E-20
3.863165E+03	4.901606E-16	2.050890E-20
3.864623E+03	4.988243E-16	2.087139E-20
3.866081E+03	5.075720E-16	2.123741E-20
3.867548E+03	5.153278E-16	2.156192E-20
3.869007E+03	5.221570E-16	2.184766E-20
3.870465E+03	5.294013E-16	2.215078E-20
3.871933E+03	5.374919E-16	2.248930E-20
3.873391E+03	5.449872E-16	2.280290E-20
3.874850E+03	5.522682E-16	2.310755E-20
3.876318E+03	5.608928E-16	2.346842E-20
3.877776E+03	5.686236E-16	2.379188E-20
3.879245E+03	5.775491E-16	2.416534E-20
3.880703E+03	5.871553E-16	2.456727E-20
3.882161E+03	5.950558E-16	2.489783E-20
3.883630E+03	6.026264E-16	2.521460E-20
3.885088E+03	6.095349E-16	2.550366E-20
3.886546E+03	6.167760E-16	2.580663E-20
3.888014E+03	6.250962E-16	2.615476E-20
3.889473E+03	6.325719E-16	2.646755E-20
3.890931E+03	6.391203E-16	2.674154E-20
3.892399E+03	6.479915E-16	2.711273E-20
3.893858E+03	6.572619E-16	2.750061E-20
3.895326E+03	6.646103E-16	2.780808E-20
3.896784E+03	6.713458E-16	2.808990E-20
3.898242E+03	6.789285E-16	2.840717E-20
3.899711E+03	6.868942E-16	2.874046E-20
3.901169E+03	6.949605E-16	2.907796E-20
3.902627E+03	7.024972E-16	2.939331E-20
3.904095E+03	7.105664E-16	2.973093E-20
3.905553E+03	7.169772E-16	2.999917E-20
3.907011E+03	7.208831E-16	3.016260E-20
3.908480E+03	7.258690E-16	3.037121E-20
3.909938E+03	7.327971E-16	3.066109E-20
3.911406E+03	7.397767E-16	3.095313E-20
3.912864E+03	7.470888E-16	3.125908E-20
3.914323E+03	7.556143E-16	3.161579E-20
3.915791E+03	7.628470E-16	3.191842E-20
3.917249E+03	7.696153E-16	3.220161E-20
3.918708E+03	7.752885E-16	3.243898E-20
3.920176E+03	7.797343E-16	3.262500E-20
3.921634E+03	7.845292E-16	3.282562E-20
3.923092E+03	7.898894E-16	3.304990E-20
3.924561E+03	7.967628E-16	3.333749E-20
3.926019E+03	8.045012E-16	3.366127E-20
3.927487E+03	8.102475E-16	3.390171E-20
3.928946E+03	8.149137E-16	3.409695E-20
3.930404E+03	8.188177E-16	3.426029E-20
3.931872E+03	8.243171E-16	3.449040E-20
3.933330E+03	8.303989E-16	3.474486E-20
3.934789E+03	8.346366E-16	3.492218E-20
3.936257E+03	8.394910E-16	3.512529E-20
3.937715E+03	8.440966E-16	3.531799E-20
3.939174E+03	8.494503E-16	3.554200E-20
3.940641E+03	8.523292E-16	3.566246E-20
3.942099E+03	8.552574E-16	3.578497E-20
3.943568E+03	8.588187E-16	3.593398E-20
3.945026E+03	8.633280E-16	3.612266E-20
3.946484E+03	8.698999E-16	3.639764E-20
3.947952E+03	8.735971E-16	3.655233E-20
3.949411E+03	8.748153E-16	3.660330E-20
3.950869E+03	8.785125E-16	3.675800E-20
3.952337E+03	8.819950E-16	3.690371E-20
3.953796E+03	8.829978E-16	3.694567E-20
3.955254E+03	8.842840E-16	3.699948E-20
3.956722E+03	8.865203E-16	3.709305E-20
3.958180E+03	8.892714E-16	3.720816E-20
3.959649E+03	8.922241E-16	3.733171E-20
3.961107E+03	8.956092E-16	3.747334E-20
3.962565E+03	8.979962E-16	3.757322E-20
3.964034E+03	8.966216E-16	3.751570E-20
3.965492E+03	8.966120E-16	3.751530E-20
3.966950E+03	8.990165E-16	3.761591E-20
3.968419E+03	9.011223E-16	3.770402E-20
3.969877E+03	9.018292E-16	3.773360E-20
3.971335E+03	9.042515E-16	3.783495E-20
3.972803E+03	9.068084E-16	3.794193E-20
3.974262E+03	9.070830E-16	3.795342E-20
3.975729E+03	9.083914E-16	3.800817E-20
3.977187E+03	9.090163E-16	3.803431E-20
3.978646E+03	9.077419E-16	3.798099E-20
3.980114E+03	9.080512E-16	3.799393E-20
3.981572E+03	9.095093E-16	3.805494E-20
3.983031E+03	9.098521E-16	3.806928E-20
3.984499E+03	9.100612E-16	3.807803E-20
3.985957E+03	9.084704E-16	3.801147E-20
3.987415E+03	9.078624E-16	3.798603E-20
3.988884E+03	9.072722E-16	3.796134E-20
3.990342E+03	9.051136E-16	3.787102E-20
3.991800E+03	9.020549E-16	3.774304E-20
3.993269E+03	8.984788E-16	3.759341E-20
3.994727E+03	8.960360E-16	3.749120E-20
3.996195E+03	8.945942E-16	3.743087E-20
3.997653E+03	8.921171E-16	3.732723E-20
3.999112E+03	8.901910E-16	3.724664E-20
4.000580E+03	8.885648E-16	3.717860E-20
4.002038E+03	8.859702E-16	3.707003E-20
4.003497E+03	8.849437E-16	3.702709E-20
4.004965E+03	8.845185E-16	3.700929E-20
4.006423E+03	8.842092E-16	3.699635E-20
4.007891E+03	8.827660E-16	3.693597E-20
4.009350E+03	8.807712E-16	3.685250E-20
4.010808E+03	8.788927E-16	3.677390E-20
4.012275E+03	8.774488E-16	3.671349E-20
4.013734E+03	8.758203E-16	3.664535E-20
4.015192E+03	8.729899E-16	3.652692E-20
4.016660E+03	8.699083E-16	3.639798E-20
4.018119E+03	8.679453E-16	3.631585E-20
4.019577E+03	8.668669E-16	3.627073E-20
4.021045E+03	8.659228E-16	3.623123E-20
4.022503E+03	8.650776E-16	3.619586E-20
4.023972E+03	8.650185E-16	3.619339E-20
4.025430E+03	8.648085E-16	3.618461E-20
4.026888E+03	8.627442E-16	3.609823E-20
4.028357E+03	8.613649E-16	3.604052E-20
4.029815E+03	8.590829E-16	3.594504E-20
4.031273E+03	8.552294E-16	3.578380E-20
4.032741E+03	8.519439E-16	3.564633E-20
4.034200E+03	8.482396E-16	3.549134E-20
4.035658E+03	8.463070E-16	3.541048E-20
4.037126E+03	8.449760E-16	3.535479E-20
4.038585E+03	8.418387E-16	3.522352E-20
4.040053E+03	8.400061E-16	3.514684E-20
4.041511E+03	8.390251E-16	3.510580E-20
4.042970E+03	8.356027E-16	3.496260E-20
4.044438E+03	8.307581E-16	3.475989E-20
4.045896E+03	8.255615E-16	3.454246E-20
4.047354E+03	8.203137E-16	3.432289E-20
4.048822E+03	8.171400E-16	3.419010E-20
4.050280E+03	8.142994E-16	3.407125E-20
4.051738E+03	8.101707E-16	3.389849E-20
4.053207E+03	8.052381E-16	3.369211E-20
4.054665E+03	7.985805E-16	3.341355E-20
4.056123E+03	7.919059E-16	3.313427E-20
4.057592E+03	7.863180E-16	3.290047E-20
4.059050E+03	7.815819E-16	3.270231E-20
4.060518E+03	7.762770E-16	3.248034E-20
4.061976E+03	7.706526E-16	3.224501E-20
4.063435E+03	7.651104E-16	3.201312E-20
4.064903E+03	7.596022E-16	3.178265E-20
4.066361E+03	7.534555E-16	3.152546E-20
4.067820E+03	7.460183E-16	3.121428E-20
4.069288E+03	7.387814E-16	3.091148E-20
4.070746E+03	7.328828E-16	3.066468E-20
4.072204E+03	7.258775E-16	3.037157E-20
4.073673E+03	7.182182E-16	3.005109E-20
4.075131E+03	7.109257E-16	2.974596E-20
4.076599E+03	7.026604E-16	2.940014E-20
4.078058E+03	6.955329E-16	2.910191E-20
4.079516E+03	6.886388E-16	2.881346E-20
4.080984E+03	6.832022E-16	2.858598E-20
4.082442E+03	6.760376E-16	2.828621E-20
4.083901E+03	6.676817E-16	2.793658E-20
4.085368E+03	6.605317E-16	2.763742E-20
4.086826E+03	6.522232E-16	2.728978E-20
4.088285E+03	6.445002E-16	2.696664E-20
4.089753E+03	6.363066E-16	2.662382E-20
4.091211E+03	6.299729E-16	2.635881E-20
4.092680E+03	6.231520E-16	2.607341E-20
4.094138E+03	6.143502E-16	2.570514E-20
4.095596E+03	6.070064E-16	2.539786E-20
4.097064E+03	5.996280E-16	2.508914E-20
4.098523E+03	5.919461E-16	2.476772E-20
4.099981E+03	5.852361E-16	2.448696E-20
4.101449E+03	5.783742E-16	2.419985E-20
4.102908E+03	5.712590E-16	2.390215E-20
4.104366E+03	5.658211E-16	2.367462E-20
4.105834E+03	5.602819E-16	2.344285E-20
4.107292E+03	5.546574E-16	2.320752E-20
4.108761E+03	5.495696E-16	2.299464E-20
4.110219E+03	5.439096E-16	2.275782E-20
4.111677E+03	5.369723E-16	2.246755E-20
4.113146E+03	5.314618E-16	2.223699E-20
4.114604E+03	5.280830E-16	2.209561E-20
4.116062E+03	5.247036E-16	2.195422E-20
4.117530E+03	5.200136E-16	2.175798E-20
4.118989E+03	5.152890E-16	2.156030E-20
4.120447E+03	5.103114E-16	2.135203E-20
4.121914E+03	5.049300E-16	2.112686E-20
4.123373E+03	5.002364E-16	2.093048E-20
4.124841E+03	4.963657E-16	2.076852E-20
4.126299E+03	4.922419E-16	2.059598E-20
4.127758E+03	4.880334E-16	2.041989E-20
4.129226E+03	4.844127E-16	2.026840E-20
4.130684E+03	4.810771E-16	2.012883E-20
4.132142E+03	4.767487E-16	1.994773E-20
4.133611E+03	4.728571E-16	1.978490E-20
4.135069E+03	4.690991E-16	1.962766E-20
4.136537E+03	4.670057E-16	1.954007E-20
4.137996E+03	4.641884E-16	1.942219E-20
4.139454E+03	4.602268E-16	1.925643E-20
4.140922E+03	4.563152E-16	1.909276E-20
4.142380E+03	4.530588E-16	1.895651E-20
4.143839E+03	4.491960E-16	1.879489E-20
4.145307E+03	4.470325E-16	1.870436E-20
4.146765E+03	4.458780E-16	1.865606E-20
4.148224E+03	4.442354E-16	1.858733E-20
4.149692E+03	4.422224E-16	1.850310E-20
4.151150E+03	4.407136E-16	1.843998E-20
4.152609E+03	4.403159E-16	1.842334E-20
4.154077E+03	4.385546E-16	1.834964E-20
4.155535E+03	4.373651E-16	1.829987E-20
4.157003E+03	4.368325E-16	1.827759E-20
4.158461E+03	4.364512E-16	1.826163E-20
4.159919E+03	4.366424E-16	1.826963E-20
4.161387E+03	4.371371E-16	1.829033E-20
4.162846E+03	4.375307E-16	1.830680E-20
4.164304E+03	4.384634E-16	1.834582E-20
4.165772E+03	4.403906E-16	1.842646E-20
4.167230E+03	4.425876E-16	1.851838E-20
4.168689E+03	4.447344E-16	1.860821E-20
4.170157E+03	4.474886E-16	1.872345E-20
4.171615E+03	4.500240E-16	1.882953E-20
4.173084E+03	4.512790E-16	1.888204E-20
4.174542E+03	4.520282E-16	1.891339E-20
4.176000E+03	4.531484E-16	1.896026E-20
4.177469E+03	4.553146E-16	1.905090E-20
4.178927E+03	4.579868E-16	1.916270E-20
4.180385E+03	4.609462E-16	1.928653E-20
4.181854E+03	4.645136E-16	1.943579E-20
4.183312E+03	4.681994E-16	1.959001E-20
4.184770E+03	4.720715E-16	1.975203E-20
4.186238E+03	4.763832E-16	1.993243E-20
4.187697E+03	4.803411E-16	2.009804E-20
4.189165E+03	4.836082E-16	2.023474E-20
4.190623E+03	4.867069E-16	2.036439E-20
4.192081E+03	4.889960E-16	2.046017E-20
4.193549E+03	4.919273E-16	2.058282E-20
4.195007E+03	4.957534E-16	2.074291E-20
4.196465E+03	4.988881E-16	2.087406E-20
4.197934E+03	5.027666E-16	2.103634E-20
4.199392E+03	5.048050E-16	2.112163E-20
4.200850E+03	5.062865E-16	2.118362E-20
4.202319E+03	5.092210E-16	2.130641E-20
4.203777E+03	5.119531E-16	2.142072E-20
4.205245E+03	5.150744E-16	2.155132E-20
4.206703E+03	5.172669E-16	2.164305E-20
4.208162E+03	5.195781E-16	2.173976E-20
4.209630E+03	5.220252E-16	2.184215E-20
4.211088E+03	5.254862E-16	2.198696E-20
4.212547E+03	5.285255E-16	2.211413E-20
4.214015E+03	5.315825E-16	2.224203E-20
4.215473E+03	5.329327E-16	2.229853E-20
4.216931E+03	5.332520E-16	2.231189E-20
4.218400E+03	5.337069E-16	2.233092E-20
4.219858E+03	5.339756E-16	2.234216E-20
4.221326E+03	5.334500E-16	2.232017E-20
4.222785E+03	5.343275E-16	2.235689E-20
4.224243E+03	5.366765E-16	2.245517E-20
4.225711E+03	5.378253E-16	2.250324E-20
4.227170E+03	5.393462E-16	2.256688E-20
4.228628E+03	5.403768E-16	2.261000E-20
4.230095E+03	5.398853E-16	2.258944E-20
4.231553E+03	5.389873E-16	2.255186E-20
