#wls	flux	fluxerr
1.594261E+03	1.275687E-16	8.565493E-18
1.634117E+03	1.225577E-16	8.183584E-18
1.673974E+03	1.165305E-16	7.737294E-18
1.713830E+03	1.095794E-16	7.233962E-18
1.753687E+03	1.018531E-16	6.684517E-18
1.793543E+03	9.352007E-17	6.100989E-18
1.833400E+03	8.480291E-17	5.498651E-18
1.873256E+03	7.596743E-17	4.895232E-18
1.913113E+03	6.729314E-17	4.308910E-18
1.952969E+03	5.906704E-17	3.757881E-18
1.992826E+03	5.155640E-17	3.258607E-18
2.032682E+03	4.500069E-17	2.825341E-18
2.072539E+03	3.957594E-17	2.467948E-18
2.112395E+03	3.537462E-17	2.190790E-18
2.152252E+03	3.252581E-17	2.000290E-18
2.192108E+03	3.103099E-17	1.894822E-18
2.231965E+03	3.087739E-17	1.871861E-18
2.271821E+03	3.212524E-17	1.933265E-18
2.311678E+03	3.471846E-17	2.073812E-18
2.351534E+03	3.851567E-17	2.283293E-18
2.391391E+03	4.346657E-17	2.557087E-18
2.431248E+03	4.960701E-17	2.895674E-18
2.471104E+03	5.705769E-17	3.304359E-18
2.510961E+03	6.602548E-17	3.793159E-18
2.550817E+03	7.677604E-17	4.375034E-18
2.590674E+03	8.953112E-17	5.059948E-18
2.630530E+03	1.040925E-16	5.833886E-18
2.670387E+03	1.205666E-16	6.700119E-18
2.710243E+03	1.392687E-16	7.673218E-18
2.750100E+03	1.601126E-16	8.745203E-18
2.789956E+03	1.827891E-16	9.896192E-18
2.829813E+03	2.068308E-16	1.109840E-17
2.869669E+03	2.316619E-16	1.231921E-17
2.909526E+03	2.566399E-16	1.352361E-17
2.949382E+03	2.811403E-16	1.467879E-17
2.989239E+03	3.045770E-16	1.575511E-17
2.999203E+03	3.102117E-16	1.600904E-17
3.009167E+03	3.157469E-16	1.625648E-17
3.019131E+03	3.211779E-16	1.649721E-17
3.029095E+03	3.265027E-16	1.673118E-17
3.039059E+03	3.317265E-16	1.695869E-17
3.049024E+03	3.368563E-16	1.718014E-17
3.058988E+03	3.418901E-16	1.739545E-17
3.068952E+03	3.468155E-16	1.760403E-17
3.078916E+03	3.516386E-16	1.780623E-17
3.088880E+03	3.563663E-16	1.800245E-17
3.098844E+03	3.609802E-16	1.819177E-17
3.108808E+03	3.654798E-16	1.837423E-17
3.118772E+03	3.698846E-16	1.855084E-17
3.128737E+03	3.741872E-16	1.872127E-17
3.138701E+03	3.783813E-16	1.888523E-17
3.148665E+03	3.824896E-16	1.904391E-17
3.158629E+03	3.864981E-16	1.919663E-17
3.168593E+03	3.904223E-16	1.934421E-17
3.178557E+03	3.942696E-16	1.948704E-17
3.188521E+03	3.980482E-16	1.962556E-17
3.198485E+03	4.017677E-16	1.976025E-17
3.208450E+03	4.054287E-16	1.989118E-17
3.218414E+03	4.090634E-16	2.001994E-17
3.228378E+03	4.126646E-16	2.014620E-17
3.238342E+03	4.162570E-16	2.027116E-17
3.248306E+03	4.198565E-16	2.039560E-17
3.258270E+03	4.234797E-16	2.052034E-17
3.268234E+03	4.271450E-16	2.064625E-17
3.278198E+03	4.308605E-16	2.077371E-17
3.288163E+03	4.346683E-16	2.090472E-17
3.298127E+03	4.385671E-16	2.103919E-17
3.308091E+03	4.426008E-16	2.117920E-17
3.318055E+03	4.467684E-16	2.132464E-17
3.328019E+03	4.511025E-16	2.147702E-17
3.337983E+03	4.556232E-16	2.163725E-17
3.347947E+03	4.603372E-16	2.180557E-17
3.357912E+03	4.652829E-16	2.198372E-17
3.367876E+03	4.704468E-16	2.217099E-17
3.377840E+03	4.758555E-16	2.236856E-17
3.387804E+03	4.814769E-16	2.257483E-17
3.397768E+03	4.872994E-16	2.278919E-17
3.407732E+03	4.932778E-16	2.300945E-17
3.417696E+03	4.993338E-16	2.323193E-17
3.427660E+03	5.053412E-16	2.345074E-17
3.437625E+03	5.110841E-16	2.365591E-17
3.447589E+03	5.162634E-16	2.383372E-17
3.457553E+03	5.203586E-16	2.396043E-17
3.467517E+03	5.229559E-16	2.401741E-17
3.477481E+03	5.243612E-16	2.401922E-17
3.487445E+03	5.250528E-16	2.398815E-17
3.497409E+03	5.253572E-16	2.393931E-17
3.507373E+03	5.254818E-16	2.388227E-17
3.517338E+03	5.255593E-16	2.382310E-17
3.527302E+03	5.256608E-16	2.376501E-17
3.537266E+03	5.258527E-16	2.371098E-17
3.547230E+03	5.261791E-16	2.366295E-17
3.557194E+03	5.266281E-16	2.362032E-17
3.567158E+03	5.272173E-16	2.358383E-17
3.577122E+03	5.279431E-16	2.355324E-17
3.587086E+03	5.287829E-16	2.352751E-17
3.597051E+03	5.297519E-16	2.350725E-17
3.607015E+03	5.308218E-16	2.349113E-17
3.616979E+03	5.319633E-16	2.347784E-17
3.626943E+03	5.331743E-16	2.346723E-17
3.636907E+03	5.344389E-16	2.345857E-17
3.646871E+03	5.357560E-16	2.345178E-17
3.656835E+03	5.370696E-16	2.344438E-17
3.666800E+03	5.384081E-16	2.343760E-17
3.676764E+03	5.397457E-16	2.343029E-17
3.686728E+03	5.410716E-16	2.342198E-17
3.696692E+03	5.423623E-16	2.341164E-17
3.706656E+03	5.436238E-16	2.339953E-17
3.716620E+03	5.448637E-16	2.338597E-17
3.726584E+03	5.460479E-16	2.336950E-17
3.736548E+03	5.471865E-16	2.335056E-17
3.746513E+03	5.482763E-16	2.332901E-17
3.756477E+03	5.493013E-16	2.330419E-17
3.766441E+03	5.502888E-16	2.327725E-17
3.776405E+03	5.512249E-16	2.324761E-17
3.786369E+03	5.520956E-16	2.321470E-17
3.796333E+03	5.529171E-16	2.317919E-17
3.806297E+03	5.537059E-16	2.314178E-17
3.816261E+03	5.544357E-16	2.310140E-17
3.826226E+03	5.551241E-16	2.305875E-17
3.836190E+03	5.557744E-16	2.301400E-17
3.846154E+03	5.563756E-16	2.296669E-17
3.856118E+03	5.569602E-16	2.291816E-17
3.866082E+03	5.575171E-16	2.286795E-17
3.876046E+03	5.580348E-16	2.281559E-17
3.886010E+03	5.585458E-16	2.276241E-17
3.895974E+03	5.590230E-16	2.270730E-17
3.905939E+03	5.594830E-16	2.265093E-17
3.915903E+03	5.599275E-16	2.259336E-17
3.925867E+03	5.603571E-16	2.253462E-17
3.935831E+03	5.607719E-16	2.247469E-17
3.945795E+03	5.611564E-16	2.241297E-17
3.955759E+03	5.615389E-16	2.235057E-17
3.965723E+03	5.619025E-16	2.228681E-17
3.975688E+03	5.622292E-16	2.222099E-17
3.985652E+03	5.625306E-16	2.215355E-17
3.995616E+03	5.628024E-16	2.208433E-17
4.005580E+03	5.630547E-16	2.201374E-17
4.015544E+03	5.632376E-16	2.193981E-17
4.025508E+03	5.633902E-16	2.186409E-17
4.035472E+03	5.634919E-16	2.178579E-17
4.045436E+03	5.635367E-16	2.170468E-17
4.055401E+03	5.635035E-16	2.161998E-17
4.065365E+03	5.634164E-16	2.153262E-17
4.075329E+03	5.632398E-16	2.144127E-17
4.085293E+03	5.629983E-16	2.134689E-17
4.095257E+03	5.626570E-16	2.124820E-17
4.105221E+03	5.622266E-16	2.114561E-17
4.115185E+03	5.617032E-16	2.103903E-17
4.125149E+03	5.610839E-16	2.092838E-17
4.135114E+03	5.603664E-16	2.081361E-17
4.145078E+03	5.595338E-16	2.069415E-17
4.155042E+03	5.586156E-16	2.057111E-17
4.165006E+03	5.575966E-16	2.044399E-17
4.174970E+03	5.564625E-16	2.031231E-17
4.184934E+03	5.552295E-16	2.017670E-17
4.194898E+03	5.539144E-16	2.003783E-17
4.204862E+03	5.524900E-16	1.989474E-17
4.214827E+03	5.509738E-16	1.974811E-17
4.224791E+03	5.493690E-16	1.959811E-17
4.234755E+03	5.476789E-16	1.944490E-17
4.244719E+03	5.458917E-16	1.928810E-17
4.254683E+03	5.440405E-16	1.912893E-17
4.264647E+03	5.421133E-16	1.896700E-17
4.274611E+03	5.400979E-16	1.880191E-17
4.284576E+03	5.380258E-16	1.863483E-17
4.294540E+03	5.358696E-16	1.846483E-17
4.304504E+03	5.336452E-16	1.829250E-17
4.314468E+03	5.313537E-16	1.811793E-17
4.324432E+03	5.289958E-16	1.794117E-17
4.334396E+03	5.265722E-16	1.776229E-17
4.344360E+03	5.240835E-16	1.758135E-17
4.354324E+03	5.215305E-16	1.739843E-17
4.364289E+03	5.189135E-16	1.721356E-17
4.374253E+03	5.162331E-16	1.702682E-17
4.384217E+03	5.134749E-16	1.683777E-17
4.394181E+03	5.106664E-16	1.664737E-17
4.404145E+03	5.077771E-16	1.645466E-17
4.414109E+03	5.048183E-16	1.626005E-17
4.424073E+03	5.017989E-16	1.606390E-17
4.434037E+03	4.986852E-16	1.586516E-17
4.444002E+03	4.954835E-16	1.566411E-17
4.453966E+03	4.921849E-16	1.546053E-17
4.463930E+03	4.887791E-16	1.525416E-17
4.473894E+03	4.852550E-16	1.504475E-17
4.483858E+03	4.815873E-16	1.483160E-17
4.493822E+03	4.777906E-16	1.461525E-17
4.503786E+03	4.738385E-16	1.439501E-17
4.513750E+03	4.697057E-16	1.417022E-17
4.523715E+03	4.654058E-16	1.394142E-17
4.533679E+03	4.609016E-16	1.370763E-17
4.543643E+03	4.561954E-16	1.346907E-17
4.553607E+03	4.512906E-16	1.322599E-17
4.563571E+03	4.461541E-16	1.297758E-17
4.573535E+03	4.407926E-16	1.272421E-17
4.583499E+03	4.352023E-16	1.246595E-17
4.593464E+03	4.293815E-16	1.220292E-17
4.603428E+03	4.233309E-16	1.193533E-17
4.613392E+03	4.170423E-16	1.166313E-17
4.623356E+03	4.105451E-16	1.138733E-17
4.633320E+03	4.038359E-16	1.110802E-17
4.643284E+03	3.969152E-16	1.082538E-17
4.653248E+03	3.898191E-16	1.054057E-17
4.663212E+03	3.825420E-16	1.025361E-17
4.673177E+03	3.751242E-16	9.965720E-18
4.683141E+03	3.675650E-16	9.677030E-18
4.693105E+03	3.598975E-16	9.388541E-18
4.703069E+03	3.521555E-16	9.101242E-18
4.713033E+03	3.443437E-16	8.815346E-18
4.722997E+03	3.364980E-16	8.531857E-18
4.732961E+03	3.286442E-16	8.251485E-18
4.742925E+03	3.208086E-16	7.974930E-18
4.752890E+03	3.130078E-16	7.702628E-18
4.762854E+03	3.052850E-16	7.435644E-18
4.772818E+03	2.976554E-16	7.174330E-18
4.782782E+03	2.901422E-16	6.919203E-18
4.792746E+03	2.827595E-16	6.670545E-18
4.802710E+03	2.755443E-16	6.429159E-18
4.812674E+03	2.685003E-16	6.195035E-18
4.822639E+03	2.616607E-16	5.968838E-18
4.832603E+03	2.550271E-16	5.750476E-18
4.842567E+03	2.486223E-16	5.540329E-18
4.852531E+03	2.424673E-16	5.338714E-18
4.862495E+03	2.365605E-16	5.145427E-18
4.872459E+03	2.309207E-16	4.960703E-18
4.882423E+03	2.255583E-16	4.784579E-18
4.892387E+03	2.204829E-16	4.617060E-18
4.902352E+03	2.157030E-16	4.458112E-18
4.912316E+03	2.112267E-16	4.307686E-18
4.922280E+03	2.070609E-16	4.165698E-18
4.932244E+03	2.032066E-16	4.031931E-18
4.942208E+03	1.996817E-16	3.906501E-18
4.952172E+03	1.964864E-16	3.789157E-18
4.962136E+03	1.936260E-16	3.679747E-18
4.972100E+03	1.911008E-16	3.578009E-18
4.982065E+03	1.889278E-16	3.483997E-18
4.992029E+03	1.871018E-16	3.397332E-18
5.001993E+03	1.856401E-16	3.318046E-18
5.011957E+03	1.845391E-16	3.245783E-18
5.021921E+03	1.838120E-16	3.180477E-18
5.031885E+03	1.834732E-16	3.122070E-18
5.041849E+03	1.835220E-16	3.070232E-18
5.051813E+03	1.839756E-16	3.024930E-18
5.061778E+03	1.848475E-16	2.986048E-18
5.071742E+03	1.861533E-16	2.953494E-18
5.081706E+03	1.879110E-16	2.927193E-18
5.091670E+03	1.901413E-16	2.907093E-18
5.101634E+03	1.928680E-16	2.893169E-18
5.111598E+03	1.961182E-16	2.885418E-18
5.121562E+03	1.999232E-16	2.883878E-18
5.131527E+03	2.043185E-16	2.888609E-18
5.141491E+03	2.093447E-16	2.899712E-18
5.151455E+03	2.150415E-16	2.917242E-18
5.161419E+03	2.214738E-16	2.941555E-18
5.171383E+03	2.286951E-16	2.972796E-18
5.181347E+03	2.367657E-16	3.011160E-18
5.191311E+03	2.457762E-16	3.057171E-18
5.201275E+03	2.557985E-16	3.111056E-18
5.211240E+03	2.669462E-16	3.173490E-18
5.221204E+03	2.793152E-16	3.244859E-18
5.231168E+03	2.930481E-16	3.326029E-18
5.241132E+03	3.082714E-16	3.417592E-18
5.251096E+03	3.251662E-16	3.520677E-18
5.261060E+03	3.438988E-16	3.636159E-18
5.271024E+03	3.646892E-16	3.765409E-18
5.280988E+03	3.877775E-16	3.909914E-18
5.290953E+03	4.134490E-16	4.071540E-18
5.300917E+03	4.419907E-16	4.252094E-18
5.310881E+03	4.737659E-16	4.454081E-18
5.320845E+03	5.091710E-16	4.680275E-18
5.330809E+03	5.486441E-16	4.933841E-18
5.340773E+03	5.926538E-16	5.218271E-18
5.350737E+03	6.416616E-16	5.537134E-18
5.360701E+03	6.960295E-16	5.893404E-18
5.370666E+03	7.557982E-16	6.287800E-18
5.380630E+03	8.201814E-16	6.714963E-18
5.390594E+03	8.864845E-16	7.155254E-18
5.400558E+03	9.483233E-16	7.561377E-18
5.410522E+03	9.958992E-16	7.861530E-18
5.420486E+03	1.025007E-15	8.029724E-18
5.430450E+03	1.034921E-15	8.066113E-18
5.440415E+03	1.032446E-15	8.027151E-18
5.450379E+03	1.022341E-15	7.950832E-18
5.460343E+03	1.004966E-15	7.839294E-18
5.470307E+03	9.774897E-16	7.668419E-18
5.480271E+03	9.393176E-16	7.429990E-18
5.490235E+03	8.950676E-16	7.155901E-18
5.500199E+03	8.497689E-16	6.882017E-18
5.510163E+03	8.060526E-16	6.626325E-18
5.520128E+03	7.649948E-16	6.395278E-18
5.530092E+03	7.268009E-16	6.188878E-18
5.540056E+03	6.914524E-16	6.005732E-18
5.550020E+03	6.587251E-16	5.843016E-18
5.559984E+03	6.284513E-16	5.698634E-18
5.569948E+03	6.003854E-16	5.569978E-18
5.579912E+03	5.743590E-16	5.455272E-18
5.589876E+03	5.502191E-16	5.353011E-18
5.599841E+03	5.277795E-16	5.261455E-18
5.609805E+03	5.069227E-16	5.179592E-18
5.619769E+03	4.875431E-16	5.106597E-18
5.629733E+03	4.695007E-16	5.041326E-18
5.639697E+03	4.527127E-16	4.983247E-18
5.649661E+03	4.371034E-16	4.931940E-18
5.659625E+03	4.225625E-16	4.886602E-18
5.669589E+03	4.090292E-16	4.846974E-18
5.679554E+03	3.964344E-16	4.812705E-18
5.689518E+03	3.847258E-16	4.783639E-18
5.699482E+03	3.738199E-16	4.759208E-18
5.709446E+03	3.636738E-16	4.739327E-18
5.719410E+03	3.542361E-16	4.723788E-18
5.729374E+03	3.454591E-16	4.712399E-18
5.739338E+03	3.372981E-16	4.704984E-18
5.749303E+03	3.297216E-16	4.701529E-18
5.759267E+03	3.226695E-16	4.701579E-18
5.769231E+03	3.161155E-16	4.705131E-18
5.779195E+03	3.100256E-16	4.712047E-18
5.789159E+03	3.043671E-16	4.722176E-18
5.799123E+03	2.991099E-16	4.735383E-18
5.809087E+03	2.942258E-16	4.751533E-18
5.819051E+03	2.896878E-16	4.770485E-18
5.829016E+03	2.854714E-16	4.792111E-18
5.838980E+03	2.815530E-16	4.816274E-18
5.848944E+03	2.779111E-16	4.842851E-18
5.858908E+03	2.745254E-16	4.871712E-18
5.868872E+03	2.713771E-16	4.902738E-18
5.878836E+03	2.684488E-16	4.935810E-18
5.888800E+03	2.657244E-16	4.970818E-18
5.898764E+03	2.631889E-16	5.007650E-18
5.908729E+03	2.608285E-16	5.046208E-18
5.918693E+03	2.586306E-16	5.086390E-18
5.928657E+03	2.565838E-16	5.128114E-18
5.938621E+03	2.546771E-16	5.171289E-18
5.948585E+03	2.529008E-16	5.215836E-18
5.958549E+03	2.512458E-16	5.261681E-18
5.968513E+03	2.497038E-16	5.308752E-18
5.978477E+03	2.482674E-16	5.356988E-18
5.988442E+03	2.469294E-16	5.406327E-18
5.998406E+03	2.456831E-16	5.456706E-18
6.008370E+03	2.445228E-16	5.508074E-18
6.018334E+03	2.434428E-16	5.560381E-18
6.028298E+03	2.424379E-16	5.613574E-18
6.038262E+03	2.415032E-16	5.667608E-18
6.048226E+03	2.406346E-16	5.722442E-18
6.058191E+03	2.398278E-16	5.778031E-18
6.068155E+03	2.390788E-16	5.834337E-18
6.078119E+03	2.383845E-16	5.891326E-18
6.088083E+03	2.377415E-16	5.948967E-18
6.098047E+03	2.371469E-16	6.007227E-18
6.108011E+03	2.365980E-16	6.066080E-18
6.117975E+03	2.360927E-16	6.125510E-18
6.127939E+03	2.356289E-16	6.185502E-18
6.137904E+03	2.352047E-16	6.246039E-18
6.147868E+03	2.348188E-16	6.307121E-18
6.157832E+03	2.344699E-16	6.368745E-18
6.167796E+03	2.341568E-16	6.430913E-18
6.177760E+03	2.338790E-16	6.493635E-18
6.187724E+03	2.336360E-16	6.556933E-18
6.197688E+03	2.334272E-16	6.620816E-18
6.207652E+03	2.332527E-16	6.685317E-18
6.217617E+03	2.331124E-16	6.750464E-18
6.227581E+03	2.330140E-16	6.816508E-18
6.237545E+03	2.329420E-16	6.883028E-18
6.247509E+03	2.329045E-16	6.950286E-18
6.257473E+03	2.329011E-16	7.018301E-18
6.267437E+03	2.329323E-16	7.087117E-18
6.277401E+03	2.329975E-16	7.156743E-18
6.287365E+03	2.330965E-16	7.227198E-18
6.297330E+03	2.332287E-16	7.298496E-18
6.307294E+03	2.333928E-16	7.370620E-18
6.317258E+03	2.335959E-16	7.443822E-18
6.327222E+03	2.338198E-16	7.517549E-18
6.337186E+03	2.340704E-16	7.592011E-18
6.347150E+03	2.343449E-16	7.667134E-18
6.357114E+03	2.346398E-16	7.742822E-18
6.367079E+03	2.349594E-16	7.819235E-18
6.377043E+03	2.352828E-16	7.895687E-18
6.387007E+03	2.356128E-16	7.972280E-18
6.396971E+03	2.359517E-16	8.049089E-18
6.406935E+03	2.362768E-16	8.125346E-18
6.416899E+03	2.365887E-16	8.201057E-18
6.426863E+03	2.368804E-16	8.275959E-18
6.436827E+03	2.371519E-16	8.350042E-18
6.446792E+03	2.373783E-16	8.422403E-18
6.456756E+03	2.375678E-16	8.493295E-18
6.466720E+03	2.376953E-16	8.561784E-18
6.476684E+03	2.377607E-16	8.627818E-18
6.486648E+03	2.377644E-16	8.691355E-18
6.496612E+03	2.376820E-16	8.751454E-18
6.506576E+03	2.375234E-16	8.808413E-18
6.516540E+03	2.372661E-16	8.861328E-18
6.526505E+03	2.369220E-16	8.910571E-18
6.536469E+03	2.364701E-16	8.955284E-18
6.546433E+03	2.359251E-16	8.995937E-18
6.556397E+03	2.352692E-16	9.031780E-18
6.566361E+03	2.345191E-16	9.063376E-18
6.576325E+03	2.336684E-16	9.090405E-18
6.586289E+03	2.327121E-16	9.112594E-18
6.596253E+03	2.316708E-16	9.130685E-18
6.606218E+03	2.305419E-16	9.144505E-18
6.616182E+03	2.293240E-16	9.153942E-18
6.626146E+03	2.280410E-16	9.159890E-18
6.636110E+03	2.266932E-16	9.162315E-18
6.646074E+03	2.252891E-16	9.161523E-18
6.656038E+03	2.238299E-16	9.157529E-18
6.666002E+03	2.223415E-16	9.151357E-18
6.675967E+03	2.208251E-16	9.143042E-18
6.685931E+03	2.192898E-16	9.132949E-18
6.695895E+03	2.177451E-16	9.121469E-18
6.705859E+03	2.161998E-16	9.108970E-18
6.715823E+03	2.146617E-16	9.095789E-18
6.725787E+03	2.131393E-16	9.082293E-18
6.735751E+03	2.116393E-16	9.068795E-18
6.745715E+03	2.101685E-16	9.055604E-18
6.755680E+03	2.087330E-16	9.043014E-18
6.765644E+03	2.073379E-16	9.031272E-18
6.775608E+03	2.059881E-16	9.020633E-18
6.785572E+03	2.046876E-16	9.011303E-18
6.795536E+03	2.034397E-16	9.003470E-18
6.805500E+03	2.022545E-16	8.997625E-18
6.815464E+03	2.011195E-16	8.993258E-18
6.825428E+03	2.000433E-16	8.990796E-18
6.835393E+03	1.990273E-16	8.990340E-18
6.845357E+03	1.980786E-16	8.992261E-18
6.855321E+03	1.971825E-16	8.995936E-18
6.865285E+03	1.963454E-16	9.001699E-18
6.875249E+03	1.955732E-16	9.009869E-18
6.885213E+03	1.948496E-16	9.019728E-18
6.895177E+03	1.941865E-16	9.031872E-18
6.905141E+03	1.935671E-16	9.045554E-18
6.915106E+03	1.930021E-16	9.061314E-18
6.925070E+03	1.924739E-16	9.078356E-18
6.935034E+03	1.919927E-16	9.097192E-18
6.944998E+03	1.915478E-16	9.117340E-18
6.954962E+03	1.911272E-16	9.138256E-18
6.964926E+03	1.907412E-16	9.160448E-18
6.974890E+03	1.903781E-16	9.183383E-18
6.984855E+03	1.900262E-16	9.206502E-18
6.994819E+03	1.896956E-16	9.230313E-18
7.004783E+03	1.893751E-16	9.254276E-18
7.014747E+03	1.890604E-16	9.278194E-18
7.024711E+03	1.887477E-16	9.301884E-18
7.034675E+03	1.884338E-16	9.325189E-18
7.044639E+03	1.881153E-16	9.347936E-18
7.054603E+03	1.877897E-16	9.370010E-18
7.064568E+03	1.874543E-16	9.391263E-18
7.074532E+03	1.871071E-16	9.411601E-18
7.084496E+03	1.867468E-16	9.430939E-18
7.094460E+03	1.863716E-16	9.449189E-18
7.104424E+03	1.859805E-16	9.466292E-18
7.114388E+03	1.855801E-16	9.482575E-18
7.124352E+03	1.851555E-16	9.497276E-18
7.134316E+03	1.847135E-16	9.510720E-18
7.144281E+03	1.842606E-16	9.523248E-18
7.154245E+03	1.837825E-16	9.534108E-18
7.164209E+03	1.832862E-16	9.543649E-18
7.174173E+03	1.827777E-16	9.552185E-18
7.184137E+03	1.822430E-16	9.558966E-18
7.194101E+03	1.816950E-16	9.564668E-18
7.204065E+03	1.811187E-16	9.568487E-18
7.214029E+03	1.805269E-16	9.571092E-18
7.223994E+03	1.799114E-16	9.572034E-18
7.233958E+03	1.792632E-16	9.570829E-18
7.243922E+03	1.785944E-16	9.568107E-18
7.253886E+03	1.778959E-16	9.563369E-18
7.263850E+03	1.771654E-16	9.556477E-18
7.273814E+03	1.764005E-16	9.547283E-18
7.283778E+03	1.755917E-16	9.535265E-18
7.293743E+03	1.747504E-16	9.521014E-18
7.303707E+03	1.738672E-16	9.504005E-18
7.313671E+03	1.729397E-16	9.484092E-18
7.323635E+03	1.719659E-16	9.461133E-18
7.333599E+03	1.709438E-16	9.435003E-18
7.343563E+03	1.698784E-16	9.405962E-18
7.353527E+03	1.687551E-16	9.373171E-18
7.363491E+03	1.675797E-16	9.336932E-18
7.373456E+03	1.663519E-16	9.297199E-18
7.383420E+03	1.650782E-16	9.254320E-18
7.393384E+03	1.637460E-16	9.207567E-18
7.403348E+03	1.623631E-16	9.157348E-18
7.413312E+03	1.609375E-16	9.104098E-18
7.423276E+03	1.594584E-16	9.047190E-18
7.433240E+03	1.579414E-16	8.987483E-18
7.443204E+03	1.563768E-16	8.924416E-18
7.453169E+03	1.547810E-16	8.858901E-18
7.463133E+03	1.531516E-16	8.790796E-18
7.473097E+03	1.514869E-16	8.719988E-18
7.483061E+03	1.498038E-16	8.647444E-18
7.493025E+03	1.481011E-16	8.573083E-18
7.502989E+03	1.463836E-16	8.497192E-18
7.512953E+03	1.446565E-16	8.420058E-18
7.522917E+03	1.429189E-16	8.341634E-18
7.532882E+03	1.411871E-16	8.262880E-18
7.542846E+03	1.394600E-16	8.183726E-18
7.552810E+03	1.377416E-16	8.104425E-18
7.562774E+03	1.360412E-16	8.025535E-18
7.572738E+03	1.343511E-16	7.946607E-18
7.582702E+03	1.326795E-16	7.868145E-18
7.592666E+03	1.310287E-16	7.790293E-18
7.602631E+03	1.294004E-16	7.713165E-18
7.612595E+03	1.278008E-16	7.637152E-18
7.622559E+03	1.262199E-16	7.561669E-18
7.632523E+03	1.246681E-16	7.487357E-18
7.642487E+03	1.231346E-16	7.413582E-18
7.652451E+03	1.216288E-16	7.340918E-18
7.662415E+03	1.201393E-16	7.268698E-18
7.672379E+03	1.186746E-16	7.197445E-18
7.682344E+03	1.172231E-16	7.126470E-18
7.692308E+03	1.157927E-16	7.056266E-18
7.702272E+03	1.143766E-16	6.986428E-18
7.712236E+03	1.129729E-16	6.916851E-18
7.722200E+03	1.115797E-16	6.847430E-18
7.732164E+03	1.101907E-16	6.777782E-18
