#wls	flux	fluxerr
1.594261E+03	9.572860E-16	9.699551E-17
1.634117E+03	9.005436E-16	9.064834E-17
1.673974E+03	8.444643E-16	8.443056E-17
1.713830E+03	7.896728E-16	7.840511E-17
1.753687E+03	7.366176E-16	7.261581E-17
1.793543E+03	6.854383E-16	6.707488E-17
1.833400E+03	6.361500E-16	6.178189E-17
1.873256E+03	5.887457E-16	5.673417E-17
1.913113E+03	5.432923E-16	5.193592E-17
1.952969E+03	5.001956E-16	4.742317E-17
1.992826E+03	4.604385E-16	4.328475E-17
2.032682E+03	4.258122E-16	3.968138E-17
2.072539E+03	3.987018E-16	3.682237E-17
2.112395E+03	3.813235E-16	3.489299E-17
2.152252E+03	3.749789E-16	3.398718E-17
2.192108E+03	3.800837E-16	3.411379E-17
2.231965E+03	3.965662E-16	3.523578E-17
2.271821E+03	4.240967E-16	3.729251E-17
2.311678E+03	4.620433E-16	4.019709E-17
2.351534E+03	5.094097E-16	4.383252E-17
2.391391E+03	5.650357E-16	4.807064E-17
2.431248E+03	6.279207E-16	5.280028E-17
2.471104E+03	6.974278E-16	5.794360E-17
2.510961E+03	7.735073E-16	6.347281E-17
2.550817E+03	8.569558E-16	6.942814E-17
2.590674E+03	9.494189E-16	7.591364E-17
2.630530E+03	1.052611E-15	8.303090E-17
2.670387E+03	1.167148E-15	9.078771E-17
2.710243E+03	1.291918E-15	9.905538E-17
2.750100E+03	1.424619E-15	1.076192E-16
2.789956E+03	1.562642E-15	1.162513E-16
2.829813E+03	1.703605E-15	1.247519E-16
2.869669E+03	1.845424E-15	1.329534E-16
2.909526E+03	1.986308E-15	1.407189E-16
2.949382E+03	2.124633E-15	1.479317E-16
2.989239E+03	2.258901E-15	1.544922E-16
2.999203E+03	2.291676E-15	1.560207E-16
3.009167E+03	2.324075E-15	1.575009E-16
3.019131E+03	2.356091E-15	1.589326E-16
3.029095E+03	2.387701E-15	1.603145E-16
3.039059E+03	2.418960E-15	1.616507E-16
3.049024E+03	2.449896E-15	1.629433E-16
3.058988E+03	2.480520E-15	1.641931E-16
3.068952E+03	2.510754E-15	1.653953E-16
3.078916E+03	2.540555E-15	1.665474E-16
3.088880E+03	2.569902E-15	1.676482E-16
3.098844E+03	2.598755E-15	1.686957E-16
3.108808E+03	2.627056E-15	1.696864E-16
3.118772E+03	2.654784E-15	1.706196E-16
3.128737E+03	2.681903E-15	1.714933E-16
3.138701E+03	2.708374E-15	1.723057E-16
3.148665E+03	2.734142E-15	1.730538E-16
3.158629E+03	2.759168E-15	1.737359E-16
3.168593E+03	2.783440E-15	1.743518E-16
3.178557E+03	2.806922E-15	1.749001E-16
3.188521E+03	2.829580E-15	1.753793E-16
3.198485E+03	2.851363E-15	1.757871E-16
3.208450E+03	2.872258E-15	1.761235E-16
3.218414E+03	2.892214E-15	1.763863E-16
3.228378E+03	2.911245E-15	1.765774E-16
3.238342E+03	2.929258E-15	1.766918E-16
3.248306E+03	2.946294E-15	1.767332E-16
3.258270E+03	2.962283E-15	1.766984E-16
3.268234E+03	2.977227E-15	1.765884E-16
3.278198E+03	2.991081E-15	1.764018E-16
3.288163E+03	3.003851E-15	1.761400E-16
3.298127E+03	3.015522E-15	1.758032E-16
3.308091E+03	3.026060E-15	1.753906E-16
3.318055E+03	3.035478E-15	1.749041E-16
3.328019E+03	3.043773E-15	1.743448E-16
3.337983E+03	3.050925E-15	1.737126E-16
3.347947E+03	3.056963E-15	1.730105E-16
3.357912E+03	3.061905E-15	1.722406E-16
3.367876E+03	3.065756E-15	1.714044E-16
3.377840E+03	3.068583E-15	1.705067E-16
3.387804E+03	3.070448E-15	1.695522E-16
3.397768E+03	3.071418E-15	1.685456E-16
3.407732E+03	3.071644E-15	1.674960E-16
3.417696E+03	3.071302E-15	1.664139E-16
3.427660E+03	3.070614E-15	1.653118E-16
3.437625E+03	3.069939E-15	1.642095E-16
3.447589E+03	3.069738E-15	1.631315E-16
3.457553E+03	3.070634E-15	1.621102E-16
3.467517E+03	3.073593E-15	1.611952E-16
3.477481E+03	3.079782E-15	1.604453E-16
3.487445E+03	3.090702E-15	1.599348E-16
3.497409E+03	3.107550E-15	1.597204E-16
3.507373E+03	3.130695E-15	1.598148E-16
3.517338E+03	3.159071E-15	1.601573E-16
3.527302E+03	3.190714E-15	1.606437E-16
3.537266E+03	3.223790E-15	1.611788E-16
3.547230E+03	3.257083E-15	1.617009E-16
3.557194E+03	3.290018E-15	1.621814E-16
3.567158E+03	3.322806E-15	1.626311E-16
3.577122E+03	3.356471E-15	1.631000E-16
3.587086E+03	3.392467E-15	1.636574E-16
3.597051E+03	3.431964E-15	1.643570E-16
3.607015E+03	3.475517E-15	1.652215E-16
3.616979E+03	3.522924E-15	1.662374E-16
3.626943E+03	3.573643E-15	1.673752E-16
3.636907E+03	3.626506E-15	1.685772E-16
3.646871E+03	3.680213E-15	1.697815E-16
3.656835E+03	3.733735E-15	1.709402E-16
3.666800E+03	3.786703E-15	1.720368E-16
3.676764E+03	3.839290E-15	1.730800E-16
3.686728E+03	3.892171E-15	1.741006E-16
3.696692E+03	3.946410E-15	1.751456E-16
3.706656E+03	4.003265E-15	1.762693E-16
3.716620E+03	4.063781E-15	1.775150E-16
3.726584E+03	4.128655E-15	1.789091E-16
3.736548E+03	4.198011E-15	1.804527E-16
3.746513E+03	4.271552E-15	1.821290E-16
3.756477E+03	4.348438E-15	1.838984E-16
3.766441E+03	4.427137E-15	1.856935E-16
3.776405E+03	4.505708E-15	1.874322E-16
3.786369E+03	4.581454E-15	1.890037E-16
3.796333E+03	4.651238E-15	1.902833E-16
3.806297E+03	4.711654E-15	1.911393E-16
3.816261E+03	4.759058E-15	1.914353E-16
3.826226E+03	4.790348E-15	1.910614E-16
3.836190E+03	4.804412E-15	1.899908E-16
3.846154E+03	4.802986E-15	1.883092E-16
3.856118E+03	4.789860E-15	1.861803E-16
3.866082E+03	4.769659E-15	1.837943E-16
3.876046E+03	4.747140E-15	1.813405E-16
3.886010E+03	4.726804E-15	1.789920E-16
3.895974E+03	4.711818E-15	1.768657E-16
3.905939E+03	4.703765E-15	1.750158E-16
3.915903E+03	4.702956E-15	1.734472E-16
3.925867E+03	4.708994E-15	1.721389E-16
3.935831E+03	4.720963E-15	1.710514E-16
3.945795E+03	4.737550E-15	1.701325E-16
3.955759E+03	4.757338E-15	1.693280E-16
3.965723E+03	4.778606E-15	1.685748E-16
3.975688E+03	4.799528E-15	1.678084E-16
3.985652E+03	4.818369E-15	1.669698E-16
3.995616E+03	4.833596E-15	1.660091E-16
4.005580E+03	4.844241E-15	1.648974E-16
4.015544E+03	4.851197E-15	1.636699E-16
4.025508E+03	4.857645E-15	1.624369E-16
4.035472E+03	4.867548E-15	1.613312E-16
4.045436E+03	4.882820E-15	1.604132E-16
4.055401E+03	4.901642E-15	1.596201E-16
4.065365E+03	4.919851E-15	1.588154E-16
4.075329E+03	4.933349E-15	1.578695E-16
4.085293E+03	4.939437E-15	1.567016E-16
4.095257E+03	4.936738E-15	1.552756E-16
4.105221E+03	4.924915E-15	1.535888E-16
4.115185E+03	4.904637E-15	1.516701E-16
4.125149E+03	4.877427E-15	1.495734E-16
4.135114E+03	4.845634E-15	1.473759E-16
4.145078E+03	4.812423E-15	1.451770E-16
4.155042E+03	4.781178E-15	1.430794E-16
4.165006E+03	4.754547E-15	1.411608E-16
4.174970E+03	4.733877E-15	1.394579E-16
4.184934E+03	4.719214E-15	1.379687E-16
4.194898E+03	4.709571E-15	1.366611E-16
4.204862E+03	4.702798E-15	1.354706E-16
4.214827E+03	4.696483E-15	1.343272E-16
4.224791E+03	4.690053E-15	1.332152E-16
4.234755E+03	4.685522E-15	1.321923E-16
4.244719E+03	4.686356E-15	1.313553E-16
4.254683E+03	4.695398E-15	1.307815E-16
4.264647E+03	4.713353E-15	1.304871E-16
4.274611E+03	4.739287E-15	1.304432E-16
4.284576E+03	4.770685E-15	1.305787E-16
4.294540E+03	4.803642E-15	1.307864E-16
4.304504E+03	4.833066E-15	1.309292E-16
4.314468E+03	4.853497E-15	1.308630E-16
4.324432E+03	4.859205E-15	1.304388E-16
4.334396E+03	4.845637E-15	1.295410E-16
4.344360E+03	4.811050E-15	1.281297E-16
4.354324E+03	4.758507E-15	1.262921E-16
4.364289E+03	4.695418E-15	1.242273E-16
4.374253E+03	4.630608E-15	1.221683E-16
4.384217E+03	4.570509E-15	1.202822E-16
4.394181E+03	4.518043E-15	1.186425E-16
4.404145E+03	4.473882E-15	1.172633E-16
4.414109E+03	4.437790E-15	1.161352E-16
4.424073E+03	4.409088E-15	1.152378E-16
4.434037E+03	4.386702E-15	1.145406E-16
4.444002E+03	4.369376E-15	1.140091E-16
4.453966E+03	4.355835E-15	1.136082E-16
4.463930E+03	4.345188E-15	1.133134E-16
4.473894E+03	4.337076E-15	1.131142E-16
4.483858E+03	4.331626E-15	1.130127E-16
4.493822E+03	4.329247E-15	1.130185E-16
4.503786E+03	4.330465E-15	1.131446E-16
4.513750E+03	4.335882E-15	1.134059E-16
4.523715E+03	4.345752E-15	1.138086E-16
4.533679E+03	4.359929E-15	1.143484E-16
4.543643E+03	4.377897E-15	1.150115E-16
4.553607E+03	4.398690E-15	1.157723E-16
4.563571E+03	4.420971E-15	1.165954E-16
4.573535E+03	4.443153E-15	1.174382E-16
4.583499E+03	4.463445E-15	1.182527E-16
4.593464E+03	4.479941E-15	1.189872E-16
4.603428E+03	4.490822E-15	1.195918E-16
4.613392E+03	4.494553E-15	1.200236E-16
4.623356E+03	4.490015E-15	1.202501E-16
4.633320E+03	4.476662E-15	1.202539E-16
4.643284E+03	4.455273E-15	1.200527E-16
4.653248E+03	4.427780E-15	1.196959E-16
4.663212E+03	4.396823E-15	1.192524E-16
4.673177E+03	4.364481E-15	1.187768E-16
4.683141E+03	4.331321E-15	1.182833E-16
4.693105E+03	4.297477E-15	1.177744E-16
4.703069E+03	4.263160E-15	1.172549E-16
4.713033E+03	4.229628E-15	1.167584E-16
4.722997E+03	4.198318E-15	1.163241E-16
4.732961E+03	4.170406E-15	1.159849E-16
4.742925E+03	4.146262E-15	1.157513E-16
4.752890E+03	4.126399E-15	1.156383E-16
4.762854E+03	4.112866E-15	1.157044E-16
4.772818E+03	4.109983E-15	1.160731E-16
4.782782E+03	4.122773E-15	1.168898E-16
4.792746E+03	4.153664E-15	1.182285E-16
4.802710E+03	4.200487E-15	1.200329E-16
4.812674E+03	4.258111E-15	1.221609E-16
4.822639E+03	4.320672E-15	1.244470E-16
4.832603E+03	4.383158E-15	1.267478E-16
4.842567E+03	4.441480E-15	1.289444E-16
4.852531E+03	4.492087E-15	1.309314E-16
4.862495E+03	4.532360E-15	1.326295E-16
4.872459E+03	4.560448E-15	1.339804E-16
4.882423E+03	4.575357E-15	1.349504E-16
4.892387E+03	4.577311E-15	1.355412E-16
4.902352E+03	4.567343E-15	1.357789E-16
4.912316E+03	4.547612E-15	1.357235E-16
4.922280E+03	4.521215E-15	1.354642E-16
4.932244E+03	4.491697E-15	1.351053E-16
4.942208E+03	4.462309E-15	1.347435E-16
4.952172E+03	4.435460E-15	1.344520E-16
4.962136E+03	4.412808E-15	1.342818E-16
4.972100E+03	4.394610E-15	1.342424E-16
4.982065E+03	4.379789E-15	1.343022E-16
4.992029E+03	4.366056E-15	1.343920E-16
5.001993E+03	4.350858E-15	1.344331E-16
5.011957E+03	4.331573E-15	1.343438E-16
5.021921E+03	4.305744E-15	1.340462E-16
5.031885E+03	4.271973E-15	1.334943E-16
5.041849E+03	4.230329E-15	1.326877E-16
5.051813E+03	4.182713E-15	1.316833E-16
5.061778E+03	4.133815E-15	1.306274E-16
5.071742E+03	4.091615E-15	1.297727E-16
5.081706E+03	4.064689E-15	1.293948E-16
5.091670E+03	4.058393E-15	1.296701E-16
5.101634E+03	4.072393E-15	1.305954E-16
5.111598E+03	4.102461E-15	1.320419E-16
5.121562E+03	4.142639E-15	1.338229E-16
5.131527E+03	4.186560E-15	1.357358E-16
5.141491E+03	4.227820E-15	1.375737E-16
5.151455E+03	4.261265E-15	1.391675E-16
5.161419E+03	4.284052E-15	1.404216E-16
5.171383E+03	4.294992E-15	1.412932E-16
5.181347E+03	4.294219E-15	1.417828E-16
5.191311E+03	4.282795E-15	1.419216E-16
5.201275E+03	4.262623E-15	1.417692E-16
5.211240E+03	4.235959E-15	1.413979E-16
5.221204E+03	4.205117E-15	1.408831E-16
5.231168E+03	4.172349E-15	1.402991E-16
5.241132E+03	4.139385E-15	1.397039E-16
5.251096E+03	4.107220E-15	1.391313E-16
5.261060E+03	4.076135E-15	1.385911E-16
5.271024E+03	4.046239E-15	1.380879E-16
5.280988E+03	4.017247E-15	1.376124E-16
5.290953E+03	3.988799E-15	1.371527E-16
5.300917E+03	3.960642E-15	1.367006E-16
5.310881E+03	3.932593E-15	1.362499E-16
5.320845E+03	3.904659E-15	1.358012E-16
5.330809E+03	3.876980E-15	1.353594E-16
5.340773E+03	3.849864E-15	1.349358E-16
5.350737E+03	3.823598E-15	1.345406E-16
5.360701E+03	3.798415E-15	1.341828E-16
5.370666E+03	3.774372E-15	1.338648E-16
5.380630E+03	3.751174E-15	1.335768E-16
5.390594E+03	3.727950E-15	1.332882E-16
5.400558E+03	3.703112E-15	1.329418E-16
5.410522E+03	3.675336E-15	1.324891E-16
5.420486E+03	3.644347E-15	1.319184E-16
5.430450E+03	3.611044E-15	1.312609E-16
5.440415E+03	3.577599E-15	1.305942E-16
5.450379E+03	3.546438E-15	1.300069E-16
5.460343E+03	3.519620E-15	1.295756E-16
5.470307E+03	3.498445E-15	1.293499E-16
5.480271E+03	3.483509E-15	1.293544E-16
5.490235E+03	3.474389E-15	1.295761E-16
5.500199E+03	3.469882E-15	1.299725E-16
5.510163E+03	3.468035E-15	1.304720E-16
5.520128E+03	3.466063E-15	1.309707E-16
5.530092E+03	3.461073E-15	1.313584E-16
5.540056E+03	3.451087E-15	1.315581E-16
5.550020E+03	3.435598E-15	1.315475E-16
5.559984E+03	3.415398E-15	1.313541E-16
5.569948E+03	3.391968E-15	1.310326E-16
5.579912E+03	3.367201E-15	1.306543E-16
5.589876E+03	3.343306E-15	1.303046E-16
5.599841E+03	3.321799E-15	1.300430E-16
5.609805E+03	3.303585E-15	1.299060E-16
5.619769E+03	3.288838E-15	1.299022E-16
5.629733E+03	3.277173E-15	1.300177E-16
5.639697E+03	3.267761E-15	1.302211E-16
5.649661E+03	3.259455E-15	1.304675E-16
5.659625E+03	3.251305E-15	1.307191E-16
5.669589E+03	3.242767E-15	1.309539E-16
5.679554E+03	3.233591E-15	1.311613E-16
5.689518E+03	3.223759E-15	1.313401E-16
5.699482E+03	3.213594E-15	1.315031E-16
5.709446E+03	3.203521E-15	1.316674E-16
5.719410E+03	3.194133E-15	1.318574E-16
5.729374E+03	3.185949E-15	1.320949E-16
5.739338E+03	3.179495E-15	1.324023E-16
5.749303E+03	3.175217E-15	1.327990E-16
5.759267E+03	3.173108E-15	1.332859E-16
5.769231E+03	3.172926E-15	1.338538E-16
5.779195E+03	3.173974E-15	1.344741E-16
5.789159E+03	3.174838E-15	1.350873E-16
5.799123E+03	3.173917E-15	1.356247E-16
5.809087E+03	3.169892E-15	1.360287E-16
5.819051E+03	3.162088E-15	1.362683E-16
5.829016E+03	3.150561E-15	1.363440E-16
5.838980E+03	3.135919E-15	1.362800E-16
5.848944E+03	3.119500E-15	1.361328E-16
5.858908E+03	3.102915E-15	1.359721E-16
5.868872E+03	3.087565E-15	1.358594E-16
5.878836E+03	3.074473E-15	1.358404E-16
5.888800E+03	3.064161E-15	1.359395E-16
5.898764E+03	3.056817E-15	1.361666E-16
5.908729E+03	3.052059E-15	1.365061E-16
5.918693E+03	3.049267E-15	1.369314E-16
5.928657E+03	3.047595E-15	1.374056E-16
5.938621E+03	3.046037E-15	1.378835E-16
5.948585E+03	3.043738E-15	1.383265E-16
5.958549E+03	3.040172E-15	1.387099E-16
5.968513E+03	3.035303E-15	1.390316E-16
5.978477E+03	3.029445E-15	1.393051E-16
5.988442E+03	3.022891E-15	1.395434E-16
5.998406E+03	3.015437E-15	1.397367E-16
6.008370E+03	3.006804E-15	1.398715E-16
6.018334E+03	2.996934E-15	1.399446E-16
6.028298E+03	2.985876E-15	1.399573E-16
6.038262E+03	2.974227E-15	1.399373E-16
6.048226E+03	2.962670E-15	1.399166E-16
6.058191E+03	2.952287E-15	1.399463E-16
6.068155E+03	2.944051E-15	1.400734E-16
6.078119E+03	2.938436E-15	1.403217E-16
6.088083E+03	2.934941E-15	1.406685E-16
6.098047E+03	2.932388E-15	1.410584E-16
6.108011E+03	2.929490E-15	1.414296E-16
6.117975E+03	2.924963E-15	1.417198E-16
6.127939E+03	2.917758E-15	1.418772E-16
6.137904E+03	2.907607E-15	1.418872E-16
6.147868E+03	2.895163E-15	1.417804E-16
6.157832E+03	2.881661E-15	1.416162E-16
6.167796E+03	2.868539E-15	1.414650E-16
6.177760E+03	2.856972E-15	1.413853E-16
6.187724E+03	2.847887E-15	1.414238E-16
6.197688E+03	2.841488E-15	1.415921E-16
6.207652E+03	2.837056E-15	1.418556E-16
6.217617E+03	2.833245E-15	1.421478E-16
6.227581E+03	2.828675E-15	1.423996E-16
6.237545E+03	2.822012E-15	1.425433E-16
6.247509E+03	2.812244E-15	1.425264E-16
6.257473E+03	2.798726E-15	1.423147E-16
6.267437E+03	2.781384E-15	1.419025E-16
6.277401E+03	2.760706E-15	1.413129E-16
6.287365E+03	2.738052E-15	1.406142E-16
6.297330E+03	2.715584E-15	1.399167E-16
6.307294E+03	2.695837E-15	1.393516E-16
6.317258E+03	2.680640E-15	1.390152E-16
6.327222E+03	2.670600E-15	1.389414E-16
6.337186E+03	2.665673E-15	1.391306E-16
6.347150E+03	2.665438E-15	1.395633E-16
6.357114E+03	2.669802E-15	1.402370E-16
6.367079E+03	2.678437E-15	1.411368E-16
6.377043E+03	2.690790E-15	1.422355E-16
6.387007E+03	2.705660E-15	1.434714E-16
6.396971E+03	2.721580E-15	1.447677E-16
6.406935E+03	2.737080E-15	1.460464E-16
6.416899E+03	2.750976E-15	1.472437E-16
6.426863E+03	2.762382E-15	1.483114E-16
6.436827E+03	2.770997E-15	1.492319E-16
6.446792E+03	2.777095E-15	1.500185E-16
6.456756E+03	2.781595E-15	1.507197E-16
6.466720E+03	2.785887E-15	1.514103E-16
6.476684E+03	2.791839E-15	1.521919E-16
6.486648E+03	2.801210E-15	1.531614E-16
6.496612E+03	2.814801E-15	1.543644E-16
6.506576E+03	2.831547E-15	1.557443E-16
6.516540E+03	2.848976E-15	1.571662E-16
6.526505E+03	2.864091E-15	1.584646E-16
6.536469E+03	2.874360E-15	1.594978E-16
6.546433E+03	2.877810E-15	1.601535E-16
6.556397E+03	2.873081E-15	1.603525E-16
6.566361E+03	2.859312E-15	1.600427E-16
6.576325E+03	2.836301E-15	1.592082E-16
6.586289E+03	2.804384E-15	1.578637E-16
6.596253E+03	2.764555E-15	1.560609E-16
6.606218E+03	2.718360E-15	1.538836E-16
6.616182E+03	2.668091E-15	1.514590E-16
6.626146E+03	2.616573E-15	1.489460E-16
6.636110E+03	2.566765E-15	1.465129E-16
6.646074E+03	2.520759E-15	1.442804E-16
6.656038E+03	2.479366E-15	1.422967E-16
6.666002E+03	2.442764E-15	1.405745E-16
6.675967E+03	2.410824E-15	1.391084E-16
6.685931E+03	2.383828E-15	1.379170E-16
6.695895E+03	2.361821E-15	1.370053E-16
6.705859E+03	2.344492E-15	1.363574E-16
6.715823E+03	2.330721E-15	1.359102E-16
6.725787E+03	2.319162E-15	1.355866E-16
6.735751E+03	2.308818E-15	1.353291E-16
6.745715E+03	2.299416E-15	1.351224E-16
6.755680E+03	2.291252E-15	1.349842E-16
6.765644E+03	2.284572E-15	1.349297E-16
6.775608E+03	2.279329E-15	1.349567E-16
6.785572E+03	2.275380E-15	1.350574E-16
6.795536E+03	2.272513E-15	1.352198E-16
6.805500E+03	2.270499E-15	1.354305E-16
6.815464E+03	2.269133E-15	1.356778E-16
6.825428E+03	2.267883E-15	1.359301E-16
6.835393E+03	2.265977E-15	1.361409E-16
6.845357E+03	2.262327E-15	1.362446E-16
6.855321E+03	2.256450E-15	1.362111E-16
6.865285E+03	2.248276E-15	1.360354E-16
6.875249E+03	2.238287E-15	1.357456E-16
6.885213E+03	2.226987E-15	1.353717E-16
6.895177E+03	2.214916E-15	1.349462E-16
6.905141E+03	2.202494E-15	1.344942E-16
6.915106E+03	2.189994E-15	1.340324E-16
6.925070E+03	2.177653E-15	1.335754E-16
6.935034E+03	2.165583E-15	1.331300E-16
6.944998E+03	2.153818E-15	1.326987E-16
6.954962E+03	2.142457E-15	1.322875E-16
6.964926E+03	2.131521E-15	1.318981E-16
6.974890E+03	2.121144E-15	1.315389E-16
6.984855E+03	2.111464E-15	1.312187E-16
6.994819E+03	2.102595E-15	1.309451E-16
7.004783E+03	2.094705E-15	1.307287E-16
7.014747E+03	2.087860E-15	1.305741E-16
7.024711E+03	2.082048E-15	1.304811E-16
7.034675E+03	2.077325E-15	1.304535E-16
7.044639E+03	2.073624E-15	1.304877E-16
7.054603E+03	2.070767E-15	1.305727E-16
7.064568E+03	2.067996E-15	1.306611E-16
7.074532E+03	2.063788E-15	1.306564E-16
7.084496E+03	2.056491E-15	1.304534E-16
7.094460E+03	2.045097E-15	1.299868E-16
7.104424E+03	2.029950E-15	1.292772E-16
7.114388E+03	2.012231E-15	1.283983E-16
7.124352E+03	1.993347E-15	1.274394E-16
7.134316E+03	1.974757E-15	1.264936E-16
7.144281E+03	1.957683E-15	1.256392E-16
7.154245E+03	1.942903E-15	1.249271E-16
7.164209E+03	1.930676E-15	1.243748E-16
7.174173E+03	1.920885E-15	1.239757E-16
7.184137E+03	1.913097E-15	1.237027E-16
7.194101E+03	1.906651E-15	1.235138E-16
7.204065E+03	1.900787E-15	1.233602E-16
7.214029E+03	1.895004E-15	1.232094E-16
7.223994E+03	1.889258E-15	1.230588E-16
7.233958E+03	1.883642E-15	1.229145E-16
7.243922E+03	1.878750E-15	1.228153E-16
7.253886E+03	1.875222E-15	1.228035E-16
7.263850E+03	1.873718E-15	1.229228E-16
7.273814E+03	1.874344E-15	1.231810E-16
7.283778E+03	1.876250E-15	1.235229E-16
7.293743E+03	1.878012E-15	1.238551E-16
7.303707E+03	1.878398E-15	1.240961E-16
7.313671E+03	1.876622E-15	1.241935E-16
7.323635E+03	1.872316E-15	1.241221E-16
7.333599E+03	1.865550E-15	1.238859E-16
7.343563E+03	1.856856E-15	1.235193E-16
7.353527E+03	1.847050E-15	1.230762E-16
7.363491E+03	1.837163E-15	1.226250E-16
7.373456E+03	1.828517E-15	1.222541E-16
7.383420E+03	1.822266E-15	1.220413E-16
7.393384E+03	1.819021E-15	1.220285E-16
7.403348E+03	1.818405E-15	1.221913E-16
7.413312E+03	1.819425E-15	1.224639E-16
7.423276E+03	1.821114E-15	1.227815E-16
7.433240E+03	1.822864E-15	1.231035E-16
7.443204E+03	1.824053E-15	1.233878E-16
7.453169E+03	1.824269E-15	1.236063E-16
7.463133E+03	1.822729E-15	1.237057E-16
7.473097E+03	1.818982E-15	1.236548E-16
7.483061E+03	1.812873E-15	1.234422E-16
7.493025E+03	1.805090E-15	1.231141E-16
7.502989E+03	1.796874E-15	1.227548E-16
7.512953E+03	1.789514E-15	1.224524E-16
7.522917E+03	1.784293E-15	1.222953E-16
7.532882E+03	1.782196E-15	1.223516E-16
7.542846E+03	1.783546E-15	1.226449E-16
7.552810E+03	1.787877E-15	1.231442E-16
7.562774E+03	1.794020E-15	1.237698E-16
7.572738E+03	1.800586E-15	1.244265E-16
7.582702E+03	1.806191E-15	1.250186E-16
7.592666E+03	1.809326E-15	1.254414E-16
7.602631E+03	1.809115E-15	1.256331E-16
7.612595E+03	1.805058E-15	1.255579E-16
7.622559E+03	1.797465E-15	1.252361E-16
7.632523E+03	1.786941E-15	1.247087E-16
7.642487E+03	1.774911E-15	1.240745E-16
7.652451E+03	1.762763E-15	1.234300E-16
7.662415E+03	1.751550E-15	1.228492E-16
7.672379E+03	1.741626E-15	1.223572E-16
7.682344E+03	1.732760E-15	1.219383E-16
7.692308E+03	1.724661E-15	1.215724E-16
7.702272E+03	1.716977E-15	1.212350E-16
7.712236E+03	1.709513E-15	1.209124E-16
7.722200E+03	1.702101E-15	1.205927E-16
7.732164E+03	1.694780E-15	1.202790E-16
