#wls	flux	fluxerr
1.593070E+03	9.257427E-05	2.378660E-05
1.632897E+03	9.281174E-05	2.369090E-05
1.672724E+03	9.305207E-05	2.359171E-05
1.712550E+03	9.329258E-05	2.348823E-05
1.752377E+03	9.349954E-05	2.337197E-05
1.792204E+03	9.373321E-05	2.325799E-05
1.832031E+03	9.392937E-05	2.313023E-05
1.871857E+03	9.414688E-05	2.300322E-05
1.911684E+03	9.432369E-05	2.286172E-05
1.951511E+03	9.448833E-05	2.271275E-05
1.991338E+03	9.463942E-05	2.255598E-05
2.031164E+03	9.477573E-05	2.239115E-05
2.070991E+03	9.492402E-05	2.222454E-05
2.110818E+03	9.502833E-05	2.204302E-05
2.150645E+03	9.511665E-05	2.185325E-05
2.190471E+03	9.516337E-05	2.164947E-05
2.230298E+03	9.522207E-05	2.144395E-05
2.270125E+03	9.524268E-05	2.122541E-05
2.309952E+03	9.525337E-05	2.100029E-05
2.349778E+03	9.525701E-05	2.076924E-05
2.389605E+03	9.523354E-05	2.052795E-05
2.429432E+03	9.518876E-05	2.027782E-05
2.469259E+03	9.515208E-05	2.002519E-05
2.509085E+03	9.510749E-05	1.976662E-05
2.548912E+03	9.508553E-05	1.950844E-05
2.588739E+03	9.505185E-05	1.924349E-05
2.628566E+03	9.506088E-05	1.898270E-05
2.668392E+03	9.510330E-05	1.872388E-05
2.708219E+03	9.519330E-05	1.846948E-05
2.748046E+03	9.534686E-05	1.822211E-05
2.787873E+03	9.556236E-05	1.798090E-05
2.827700E+03	9.589994E-05	1.775639E-05
2.867526E+03	9.634378E-05	1.754456E-05
2.907353E+03	9.697788E-05	1.735941E-05
2.947180E+03	9.779406E-05	1.719767E-05
2.987007E+03	9.886485E-05	1.707003E-05
2.996963E+03	9.918211E-05	1.704484E-05
3.006920E+03	9.951499E-05	1.702151E-05
3.016877E+03	9.986424E-05	1.700013E-05
3.026833E+03	1.002491E-04	1.698391E-05
3.036790E+03	1.006518E-04	1.696979E-05
3.046747E+03	1.010733E-04	1.695786E-05
3.056703E+03	1.015328E-04	1.695129E-05
3.066660E+03	1.020129E-04	1.694708E-05
3.076617E+03	1.025144E-04	1.694533E-05
3.086573E+03	1.030569E-04	1.694917E-05
3.096530E+03	1.036414E-04	1.695868E-05
3.106487E+03	1.042505E-04	1.697092E-05
3.116443E+03	1.048853E-04	1.698601E-05
3.126400E+03	1.055658E-04	1.700707E-05
3.136357E+03	1.062930E-04	1.703418E-05
3.146314E+03	1.070685E-04	1.706744E-05
3.156270E+03	1.078752E-04	1.710402E-05
3.166227E+03	1.087145E-04	1.714405E-05
3.176184E+03	1.096253E-04	1.719356E-05
3.186140E+03	1.105720E-04	1.724680E-05
3.196097E+03	1.115753E-04	1.730685E-05
3.206054E+03	1.126558E-04	1.737678E-05
3.216010E+03	1.137780E-04	1.745092E-05
3.225967E+03	1.149630E-04	1.753236E-05
3.235924E+03	1.162131E-04	1.762127E-05
3.245880E+03	1.175307E-04	1.771787E-05
3.255837E+03	1.189185E-04	1.782234E-05
3.265794E+03	1.203792E-04	1.793491E-05
3.275750E+03	1.219354E-04	1.805870E-05
3.285707E+03	1.235708E-04	1.819107E-05
3.295664E+03	1.252887E-04	1.833227E-05
3.305621E+03	1.271126E-04	1.848548E-05
3.315577E+03	1.290265E-04	1.864810E-05
3.325534E+03	1.310344E-04	1.882043E-05
3.335491E+03	1.331607E-04	1.900572E-05
3.345447E+03	1.354103E-04	1.920432E-05
3.355404E+03	1.377678E-04	1.941370E-05
3.365361E+03	1.402800E-04	1.964009E-05
3.375317E+03	1.429110E-04	1.987809E-05
3.385274E+03	1.456665E-04	2.012812E-05
3.395231E+03	1.485954E-04	2.039655E-05
3.405187E+03	1.516837E-04	2.068096E-05
3.415144E+03	1.549387E-04	2.098189E-05
3.425101E+03	1.583682E-04	2.129991E-05
3.435057E+03	1.620032E-04	2.163865E-05
3.445014E+03	1.658303E-04	2.199575E-05
3.454971E+03	1.698590E-04	2.237188E-05
3.464928E+03	1.741226E-04	2.277084E-05
3.474884E+03	1.786087E-04	2.319030E-05
3.484841E+03	1.833526E-04	2.363418E-05
3.494798E+03	1.883670E-04	2.410337E-05
3.504754E+03	1.936656E-04	2.459878E-05
3.514711E+03	1.992626E-04	2.512139E-05
3.524668E+03	2.051474E-04	2.566899E-05
3.534624E+03	2.113871E-04	2.624907E-05
3.544581E+03	2.179732E-04	2.685955E-05
3.554538E+03	2.249508E-04	2.750489E-05
3.564494E+03	2.322845E-04	2.817966E-05
3.574451E+03	2.400776E-04	2.889523E-05
3.584408E+03	2.482672E-04	2.964275E-05
3.594365E+03	2.569621E-04	3.043390E-05
3.604321E+03	2.661284E-04	3.126322E-05
3.614278E+03	2.758211E-04	3.213570E-05
3.624235E+03	2.860988E-04	3.305656E-05
3.634191E+03	2.969277E-04	3.402016E-05
3.644148E+03	3.083682E-04	3.503174E-05
3.654105E+03	3.204512E-04	3.609295E-05
3.664061E+03	3.332435E-04	3.720932E-05
3.674018E+03	3.467807E-04	3.838267E-05
3.683975E+03	3.610274E-04	3.960689E-05
3.693931E+03	3.761284E-04	4.089559E-05
3.703888E+03	3.920495E-04	4.224252E-05
3.713845E+03	4.088676E-04	4.365344E-05
3.723801E+03	4.266250E-04	4.513012E-05
3.733758E+03	4.453635E-04	4.667412E-05
3.743715E+03	4.651271E-04	4.828706E-05
3.753672E+03	4.860032E-04	4.997485E-05
3.763628E+03	5.079946E-04	5.173441E-05
3.773585E+03	5.311460E-04	5.356689E-05
3.783542E+03	5.555492E-04	5.547799E-05
3.793498E+03	5.812511E-04	5.746853E-05
3.803455E+03	6.082989E-04	5.953926E-05
3.813412E+03	6.367383E-04	6.169053E-05
3.823368E+03	6.666129E-04	6.392234E-05
3.833325E+03	6.979655E-04	6.623442E-05
3.843282E+03	7.308345E-04	6.862593E-05
3.853238E+03	7.653134E-04	7.110098E-05
3.863195E+03	8.013802E-04	7.365273E-05
3.873152E+03	8.391825E-04	7.628981E-05
3.883108E+03	8.786291E-04	7.899881E-05
3.893065E+03	9.197994E-04	8.178186E-05
3.903022E+03	9.627744E-04	8.464090E-05
3.912979E+03	1.007433E-03	8.756002E-05
3.922935E+03	1.053908E-03	9.054558E-05
3.932892E+03	1.102196E-03	9.359193E-05
3.942849E+03	1.152215E-03	9.668670E-05
3.952805E+03	1.204013E-03	9.982884E-05
3.962762E+03	1.257635E-03	1.030168E-04
3.972719E+03	1.312896E-03	1.062301E-04
3.982675E+03	1.369820E-03	1.094658E-04
3.992632E+03	1.428430E-03	1.127211E-04
4.002589E+03	1.488665E-03	1.159863E-04
4.012545E+03	1.550370E-03	1.192446E-04
4.022502E+03	1.613545E-03	1.224919E-04
4.032459E+03	1.678015E-03	1.257110E-04
4.042415E+03	1.743857E-03	1.289039E-04
4.052372E+03	1.810881E-03	1.320529E-04
4.062329E+03	1.878977E-03	1.351469E-04
4.072286E+03	1.948125E-03	1.381817E-04
4.082242E+03	2.018211E-03	1.411466E-04
4.092199E+03	2.089024E-03	1.440245E-04
4.102156E+03	2.160539E-03	1.468123E-04
4.112112E+03	2.232543E-03	1.494939E-04
4.122069E+03	2.305121E-03	1.520741E-04
4.132026E+03	2.378166E-03	1.545449E-04
4.141982E+03	2.451375E-03	1.568861E-04
4.151939E+03	2.524855E-03	1.591046E-04
4.161896E+03	2.598412E-03	1.611885E-04
4.171852E+03	2.672070E-03	1.631396E-04
4.181809E+03	2.745752E-03	1.649539E-04
4.191766E+03	2.819391E-03	1.666282E-04
4.201723E+03	2.892817E-03	1.681539E-04
4.211679E+03	2.966185E-03	1.695412E-04
4.221636E+03	3.039334E-03	1.707824E-04
4.231593E+03	3.112213E-03	1.718765E-04
4.241549E+03	3.184773E-03	1.728227E-04
4.251506E+03	3.257072E-03	1.736263E-04
4.261463E+03	3.328954E-03	1.742812E-04
4.271419E+03	3.400473E-03	1.747928E-04
4.281376E+03	3.471466E-03	1.751552E-04
4.291333E+03	3.541978E-03	1.753738E-04
4.301289E+03	3.611935E-03	1.754480E-04
4.311246E+03	3.681255E-03	1.753770E-04
4.321203E+03	3.749839E-03	1.751598E-04
4.331159E+03	3.817568E-03	1.747948E-04
4.341116E+03	3.884300E-03	1.742799E-04
4.351073E+03	3.949973E-03	1.736172E-04
4.361030E+03	4.014171E-03	1.727939E-04
4.370986E+03	4.076992E-03	1.718201E-04
4.380943E+03	4.138205E-03	1.706924E-04
4.390900E+03	4.198537E-03	1.694467E-04
4.400856E+03	4.258184E-03	1.680957E-04
4.410813E+03	4.317749E-03	1.666669E-04
4.420770E+03	4.377495E-03	1.651731E-04
4.430726E+03	4.437766E-03	1.636295E-04
4.440683E+03	4.498982E-03	1.620527E-04
4.450640E+03	4.561409E-03	1.604528E-04
4.460596E+03	4.625386E-03	1.588417E-04
4.470553E+03	4.691096E-03	1.572252E-04
4.480510E+03	4.758769E-03	1.556103E-04
4.490466E+03	4.828378E-03	1.539952E-04
4.500423E+03	4.900138E-03	1.523861E-04
4.510380E+03	4.974087E-03	1.507836E-04
4.520337E+03	5.050000E-03	1.491806E-04
4.530293E+03	5.127974E-03	1.475804E-04
4.540250E+03	5.207546E-03	1.459706E-04
4.550207E+03	5.288478E-03	1.443462E-04
4.560163E+03	5.370186E-03	1.426911E-04
4.570120E+03	5.452227E-03	1.409933E-04
4.580077E+03	5.534011E-03	1.392383E-04
4.590033E+03	5.614835E-03	1.374107E-04
4.599990E+03	5.694063E-03	1.354985E-04
4.609947E+03	5.770978E-03	1.334898E-04
4.619903E+03	5.845065E-03	1.313790E-04
4.629860E+03	5.915663E-03	1.291589E-04
4.639817E+03	5.982281E-03	1.268277E-04
4.649773E+03	6.044306E-03	1.243827E-04
4.659730E+03	6.101526E-03	1.218308E-04
4.669687E+03	6.153563E-03	1.191767E-04
4.679644E+03	6.200448E-03	1.164341E-04
4.689600E+03	6.241985E-03	1.136129E-04
4.699557E+03	6.278487E-03	1.107332E-04
4.709514E+03	6.310126E-03	1.078129E-04
4.719470E+03	6.337369E-03	1.048749E-04
4.729427E+03	6.360526E-03	1.019401E-04
4.739384E+03	6.380398E-03	9.903713E-05
4.749340E+03	6.397307E-03	9.618748E-05
4.759297E+03	6.411922E-03	9.341836E-05
4.769254E+03	6.424728E-03	9.075480E-05
4.779210E+03	6.436338E-03	8.822439E-05
4.789167E+03	6.447127E-03	8.585227E-05
4.799124E+03	6.457390E-03	8.366356E-05
4.809080E+03	6.467497E-03	8.168537E-05
4.819037E+03	6.477482E-03	7.994128E-05
4.828994E+03	6.487610E-03	7.845816E-05
4.838951E+03	6.497975E-03	7.726042E-05
4.848907E+03	6.508602E-03	7.637057E-05
4.858864E+03	6.519532E-03	7.580921E-05
4.868821E+03	6.530735E-03	7.559303E-05
4.878777E+03	6.542144E-03	7.573415E-05
4.888734E+03	6.553576E-03	7.622936E-05
4.898691E+03	6.564973E-03	7.705730E-05
4.908647E+03	6.576174E-03	7.819017E-05
4.918604E+03	6.587020E-03	7.959742E-05
4.928561E+03	6.597413E-03	8.124779E-05
4.938517E+03	6.607111E-03	8.310780E-05
4.948474E+03	6.615969E-03	8.514555E-05
4.958431E+03	6.623985E-03	8.733212E-05
4.968388E+03	6.631043E-03	8.963872E-05
4.978344E+03	6.637041E-03	9.203862E-05
4.988301E+03	6.641983E-03	9.450855E-05
4.998258E+03	6.645820E-03	9.702660E-05
5.008214E+03	6.648685E-03	9.957558E-05
5.018171E+03	6.650524E-03	1.021376E-04
5.028128E+03	6.651455E-03	1.046992E-04
5.038084E+03	6.651696E-03	1.072504E-04
5.048041E+03	6.651350E-03	1.097813E-04
5.057998E+03	6.650614E-03	1.122849E-04
5.067954E+03	6.649640E-03	1.147553E-04
5.077911E+03	6.648728E-03	1.171902E-04
5.087868E+03	6.648045E-03	1.195865E-04
5.097824E+03	6.647899E-03	1.219450E-04
5.107781E+03	6.648528E-03	1.242660E-04
5.117738E+03	6.650084E-03	1.265494E-04
5.127695E+03	6.652763E-03	1.287967E-04
5.137651E+03	6.656813E-03	1.310113E-04
5.147608E+03	6.662310E-03	1.331938E-04
5.157565E+03	6.669357E-03	1.353459E-04
5.167521E+03	6.678095E-03	1.374704E-04
5.177478E+03	6.688485E-03	1.395670E-04
5.187435E+03	6.700578E-03	1.416374E-04
5.197391E+03	6.714321E-03	1.436815E-04
5.207348E+03	6.729549E-03	1.456967E-04
5.217305E+03	6.746194E-03	1.476828E-04
5.227261E+03	6.764076E-03	1.496372E-04
5.237218E+03	6.782985E-03	1.515567E-04
5.247175E+03	6.802613E-03	1.534357E-04
5.257131E+03	6.822761E-03	1.552712E-04
5.267088E+03	6.843132E-03	1.570580E-04
5.277045E+03	6.863419E-03	1.587907E-04
5.287002E+03	6.883304E-03	1.604636E-04
5.296958E+03	6.902455E-03	1.620706E-04
5.306915E+03	6.920485E-03	1.636044E-04
5.316872E+03	6.937150E-03	1.650611E-04
5.326828E+03	6.952152E-03	1.664356E-04
5.336785E+03	6.965222E-03	1.677237E-04
5.346742E+03	6.976047E-03	1.689200E-04
5.356698E+03	6.984489E-03	1.700235E-04
5.366655E+03	6.990324E-03	1.710313E-04
5.376612E+03	6.993429E-03	1.719429E-04
5.386568E+03	6.993736E-03	1.727595E-04
5.396525E+03	6.991222E-03	1.734834E-04
5.406482E+03	6.985844E-03	1.741164E-04
5.416438E+03	6.977677E-03	1.746634E-04
5.426395E+03	6.966911E-03	1.751323E-04
5.436352E+03	6.953558E-03	1.755264E-04
5.446309E+03	6.937805E-03	1.758535E-04
5.456265E+03	6.919877E-03	1.761223E-04
5.466222E+03	6.900009E-03	1.763378E-04
5.476179E+03	6.878348E-03	1.764998E-04
5.486135E+03	6.854926E-03	1.766051E-04
5.496092E+03	6.829623E-03	1.766465E-04
5.506049E+03	6.802473E-03	1.766209E-04
5.516005E+03	6.773455E-03	1.765236E-04
5.525962E+03	6.742560E-03	1.763506E-04
5.535919E+03	6.709800E-03	1.760985E-04
5.545875E+03	6.675134E-03	1.757624E-04
5.555832E+03	6.638617E-03	1.753405E-04
5.565789E+03	6.600314E-03	1.748311E-04
5.575746E+03	6.560382E-03	1.742353E-04
5.585702E+03	6.518796E-03	1.735498E-04
5.595659E+03	6.475695E-03	1.727755E-04
5.605616E+03	6.431222E-03	1.719141E-04
5.615572E+03	6.385547E-03	1.709679E-04
5.625529E+03	6.338794E-03	1.699385E-04
5.635486E+03	6.291112E-03	1.688282E-04
5.645442E+03	6.242737E-03	1.676422E-04
5.655399E+03	6.193922E-03	1.663861E-04
5.665356E+03	6.144901E-03	1.650654E-04
5.675312E+03	6.095924E-03	1.636860E-04
5.685269E+03	6.047289E-03	1.622554E-04
5.695226E+03	5.999428E-03	1.607849E-04
5.705182E+03	5.952636E-03	1.592821E-04
5.715139E+03	5.907289E-03	1.577569E-04
5.725096E+03	5.863893E-03	1.562226E-04
5.735053E+03	5.822747E-03	1.546869E-04
5.745009E+03	5.784365E-03	1.531630E-04
5.754966E+03	5.749134E-03	1.516609E-04
5.764923E+03	5.717371E-03	1.501881E-04
5.774879E+03	5.689456E-03	1.487539E-04
5.784836E+03	5.665657E-03	1.473640E-04
5.794793E+03	5.646179E-03	1.460225E-04
5.804749E+03	5.631201E-03	1.447322E-04
5.814706E+03	5.620710E-03	1.434910E-04
5.824663E+03	5.614712E-03	1.422969E-04
5.834619E+03	5.613008E-03	1.411425E-04
5.844576E+03	5.615428E-03	1.400213E-04
5.854533E+03	5.621656E-03	1.389230E-04
5.864489E+03	5.631267E-03	1.378349E-04
5.874446E+03	5.643877E-03	1.367453E-04
5.884403E+03	5.659015E-03	1.356412E-04
5.894360E+03	5.676197E-03	1.345093E-04
5.904316E+03	5.694924E-03	1.333369E-04
5.914273E+03	5.714672E-03	1.321111E-04
5.924230E+03	5.735092E-03	1.308239E-04
5.934186E+03	5.755682E-03	1.294644E-04
5.944143E+03	5.776180E-03	1.280279E-04
5.954100E+03	5.796191E-03	1.265076E-04
5.964056E+03	5.815571E-03	1.249027E-04
5.974013E+03	5.834030E-03	1.232102E-04
5.983970E+03	5.851544E-03	1.214330E-04
5.993926E+03	5.867969E-03	1.195725E-04
6.003883E+03	5.883318E-03	1.176336E-04
6.013840E+03	5.897529E-03	1.156205E-04
6.023796E+03	5.910616E-03	1.135394E-04
6.033753E+03	5.922664E-03	1.113982E-04
6.043710E+03	5.933771E-03	1.092059E-04
6.053667E+03	5.943878E-03	1.069690E-04
6.063623E+03	5.953185E-03	1.046994E-04
6.073580E+03	5.961623E-03	1.024049E-04
6.083537E+03	5.969272E-03	1.000968E-04
6.093493E+03	5.976233E-03	9.778743E-05
6.103450E+03	5.982396E-03	9.548663E-05
6.113407E+03	5.987824E-03	9.320811E-05
6.123363E+03	5.992503E-03	9.096541E-05
6.133320E+03	5.996346E-03	8.877210E-05
6.143277E+03	5.999340E-03	8.664405E-05
6.153233E+03	6.001280E-03	8.459545E-05
6.163190E+03	6.002097E-03	8.264359E-05
6.173147E+03	6.001678E-03	8.080601E-05
6.183103E+03	5.999783E-03	7.909918E-05
6.193060E+03	5.996251E-03	7.754093E-05
6.203017E+03	5.990825E-03	7.614764E-05
6.212974E+03	5.983276E-03	7.493524E-05
6.222930E+03	5.973624E-03	7.392091E-05
6.232887E+03	5.962347E-03	7.311598E-05
6.242844E+03	5.949893E-03	7.251935E-05
6.252800E+03	5.936808E-03	7.212840E-05
6.262757E+03	5.923627E-03	7.193868E-05
6.272714E+03	5.910797E-03	7.194349E-05
6.282670E+03	5.898823E-03	7.213622E-05
6.292627E+03	5.888322E-03	7.251154E-05
6.302584E+03	5.879820E-03	7.306343E-05
6.312540E+03	5.873845E-03	7.378674E-05
6.322497E+03	5.871042E-03	7.467901E-05
6.332454E+03	5.871885E-03	7.573708E-05
6.342411E+03	5.877002E-03	7.696148E-05
6.352367E+03	5.886883E-03	7.835281E-05
6.362324E+03	5.902052E-03	7.991399E-05
6.372281E+03	5.922971E-03	8.164901E-05
6.382237E+03	5.950052E-03	8.356309E-05
6.392194E+03	5.983575E-03	8.566135E-05
6.402151E+03	6.023845E-03	8.795094E-05
6.412107E+03	6.070887E-03	9.043638E-05
6.422064E+03	6.124829E-03	9.312499E-05
6.432021E+03	6.185502E-03	9.602069E-05
6.441977E+03	6.252633E-03	9.912653E-05
6.451934E+03	6.325760E-03	1.024430E-04
6.461891E+03	6.404221E-03	1.059644E-04
6.471847E+03	6.487317E-03	1.096781E-04
6.481804E+03	6.573855E-03	1.135612E-04
6.491761E+03	6.662778E-03	1.175915E-04
6.501718E+03	6.752551E-03	1.217371E-04
6.511674E+03	6.841736E-03	1.259650E-04
6.521631E+03	6.928635E-03	1.302356E-04
6.531588E+03	7.011495E-03	1.345055E-04
6.541544E+03	7.088653E-03	1.387304E-04
6.551501E+03	7.158463E-03	1.428638E-04
6.561458E+03	7.219480E-03	1.468612E-04
6.571414E+03	7.270551E-03	1.506818E-04
6.581371E+03	7.310456E-03	1.542822E-04
6.591328E+03	7.338650E-03	1.576319E-04
6.601284E+03	7.354658E-03	1.607019E-04
6.611241E+03	7.358319E-03	1.634699E-04
6.621198E+03	7.349916E-03	1.659239E-04
6.631154E+03	7.329944E-03	1.680582E-04
6.641111E+03	7.299047E-03	1.698719E-04
6.651068E+03	7.258157E-03	1.713724E-04
6.661025E+03	7.208421E-03	1.725746E-04
6.670981E+03	7.150866E-03	1.734926E-04
6.680938E+03	7.086801E-03	1.741492E-04
6.690895E+03	7.017467E-03	1.745683E-04
6.700851E+03	6.944080E-03	1.747749E-04
6.710808E+03	6.867739E-03	1.747932E-04
6.720765E+03	6.789595E-03	1.746502E-04
6.730721E+03	6.710568E-03	1.743687E-04
6.740678E+03	6.631615E-03	1.739737E-04
6.750635E+03	6.553440E-03	1.734846E-04
6.760591E+03	6.476703E-03	1.729207E-04
6.770548E+03	6.401956E-03	1.722988E-04
6.780505E+03	6.329648E-03	1.716336E-04
6.790461E+03	6.260141E-03	1.709378E-04
6.800418E+03	6.193694E-03	1.702213E-04
6.810375E+03	6.130503E-03	1.694925E-04
6.820332E+03	6.070691E-03	1.687579E-04
6.830288E+03	6.014251E-03	1.680201E-04
6.840245E+03	5.961201E-03	1.672822E-04
6.850202E+03	5.911579E-03	1.665480E-04
6.860158E+03	5.865254E-03	1.658161E-04
6.870115E+03	5.822203E-03	1.650880E-04
6.880072E+03	5.782178E-03	1.643587E-04
6.890028E+03	5.745174E-03	1.636298E-04
6.899985E+03	5.710914E-03	1.628949E-04
6.909942E+03	5.679374E-03	1.621547E-04
6.919898E+03	5.650249E-03	1.614018E-04
6.929855E+03	5.623381E-03	1.606325E-04
6.939812E+03	5.598661E-03	1.598449E-04
6.949769E+03	5.575918E-03	1.590348E-04
6.959725E+03	5.554932E-03	1.581965E-04
6.969682E+03	5.535543E-03	1.573263E-04
6.979639E+03	5.517613E-03	1.564208E-04
6.989595E+03	5.501005E-03	1.554766E-04
6.999552E+03	5.485601E-03	1.544910E-04
7.009509E+03	5.471300E-03	1.534616E-04
7.019465E+03	5.458011E-03	1.523864E-04
7.029422E+03	5.445603E-03	1.512624E-04
7.039379E+03	5.434076E-03	1.500902E-04
7.049335E+03	5.423331E-03	1.488675E-04
7.059292E+03	5.413391E-03	1.475956E-04
7.069249E+03	5.404169E-03	1.462729E-04
7.079205E+03	5.395642E-03	1.448995E-04
7.089162E+03	5.387789E-03	1.434754E-04
7.099119E+03	5.380651E-03	1.420026E-04
7.109076E+03	5.374067E-03	1.404778E-04
7.119032E+03	5.368052E-03	1.389022E-04
7.128989E+03	5.362550E-03	1.372755E-04
7.138946E+03	5.357480E-03	1.355968E-04
7.148902E+03	5.352746E-03	1.338650E-04
7.158859E+03	5.348162E-03	1.320769E-04
7.168816E+03	5.343648E-03	1.302325E-04
7.178772E+03	5.338977E-03	1.283283E-04
7.188729E+03	5.334035E-03	1.263640E-04
7.198686E+03	5.328560E-03	1.243361E-04
7.208642E+03	5.322337E-03	1.222431E-04
7.218599E+03	5.315293E-03	1.200869E-04
7.228556E+03	5.307012E-03	1.178622E-04
7.238512E+03	5.297417E-03	1.155722E-04
7.248469E+03	5.286245E-03	1.132164E-04
7.258426E+03	5.273316E-03	1.107969E-04
7.268383E+03	5.258543E-03	1.083184E-04
7.278339E+03	5.241739E-03	1.057839E-04
7.288296E+03	5.222813E-03	1.031992E-04
7.298253E+03	5.201780E-03	1.005726E-04
7.308209E+03	5.178559E-03	9.791115E-05
7.318166E+03	5.153252E-03	9.522561E-05
7.328123E+03	5.125860E-03	9.252534E-05
7.338079E+03	5.096551E-03	8.982306E-05
7.348036E+03	5.065389E-03	8.712987E-05
7.357993E+03	5.032597E-03	8.445987E-05
7.367949E+03	4.998346E-03	8.182640E-05
7.377906E+03	4.962822E-03	7.924315E-05
7.387863E+03	4.926200E-03	7.672383E-05
7.397819E+03	4.888602E-03	7.428136E-05
7.407776E+03	4.850321E-03	7.193142E-05
7.417733E+03	4.811519E-03	6.968755E-05
7.427690E+03	4.772275E-03	6.756203E-05
7.437646E+03	4.732721E-03	6.556778E-05
7.447603E+03	4.693040E-03	6.371797E-05
7.457560E+03	4.653339E-03	6.202414E-05
7.467516E+03	4.613653E-03	6.049598E-05
7.477473E+03	4.574139E-03	5.914362E-05
7.487430E+03	4.534755E-03	5.797312E-05
7.497386E+03	4.495705E-03	5.699073E-05
7.507343E+03	4.456991E-03	5.618840E-05
7.517300E+03	4.418607E-03	5.555150E-05
7.527256E+03	4.380713E-03	5.506644E-05
7.537213E+03	4.343267E-03	5.471655E-05
7.547170E+03	4.306208E-03	5.448469E-05
7.557126E+03	4.269569E-03	5.435518E-05
7.567083E+03	4.233292E-03	5.431164E-05
7.577040E+03	4.197224E-03	5.433718E-05
7.586997E+03	4.161439E-03	5.441879E-05
7.596953E+03	4.126104E-03	5.454581E-05
7.606910E+03	4.091631E-03	5.471211E-05
7.616867E+03	4.058310E-03	5.491139E-05
7.626823E+03	4.026370E-03	5.513790E-05
7.636780E+03	3.995995E-03	5.538666E-05
7.646737E+03	3.967318E-03	5.565314E-05
7.656693E+03	3.940421E-03	5.593328E-05
7.666650E+03	3.915354E-03	5.622355E-05
7.676607E+03	3.892124E-03	5.652071E-05
7.686563E+03	3.870721E-03	5.682207E-05
7.696520E+03	3.851147E-03	5.712581E-05
7.706477E+03	3.833281E-03	5.742896E-05
7.716434E+03	3.817096E-03	5.773042E-05
7.726390E+03	3.802485E-03	5.802850E-05
