#wls	flux	fluxerr
1.593070E+03	9.417144E-05	2.401531E-05
1.632897E+03	9.438183E-05	2.390953E-05
1.672724E+03	9.460146E-05	2.380191E-05
1.712550E+03	9.479417E-05	2.368329E-05
1.752377E+03	9.502478E-05	2.356981E-05
1.792204E+03	9.522432E-05	2.344422E-05
1.832031E+03	9.542392E-05	2.331421E-05
1.871857E+03	9.558979E-05	2.317151E-05
1.911684E+03	9.578376E-05	2.303113E-05
1.951511E+03	9.597199E-05	2.288474E-05
1.991338E+03	9.612272E-05	2.272481E-05
2.031164E+03	9.629585E-05	2.256553E-05
2.070991E+03	9.643046E-05	2.239254E-05
2.110818E+03	9.658522E-05	2.221953E-05
2.150645E+03	9.670203E-05	2.203305E-05
2.190471E+03	9.681061E-05	2.184001E-05
2.230298E+03	9.691200E-05	2.164063E-05
2.270125E+03	9.700780E-05	2.143526E-05
2.309952E+03	9.707382E-05	2.121860E-05
2.349778E+03	9.714035E-05	2.099736E-05
2.389605E+03	9.721114E-05	2.077230E-05
2.429432E+03	9.726585E-05	2.053903E-05
2.469259E+03	9.733585E-05	2.030420E-05
2.509085E+03	9.742771E-05	2.006899E-05
2.548912E+03	9.752567E-05	1.983000E-05
2.588739E+03	9.764003E-05	1.958919E-05
2.628566E+03	9.780536E-05	1.935325E-05
2.668392E+03	9.801133E-05	1.911969E-05
2.708219E+03	9.827312E-05	1.889105E-05
2.748046E+03	9.862954E-05	1.867416E-05
2.787873E+03	9.909912E-05	1.847160E-05
2.827700E+03	9.968210E-05	1.828234E-05
2.867526E+03	1.004457E-04	1.811741E-05
2.907353E+03	1.013973E-04	1.797637E-05
2.947180E+03	1.025906E-04	1.786674E-05
2.987007E+03	1.041051E-04	1.779969E-05
2.996963E+03	1.045333E-04	1.778909E-05
3.006920E+03	1.049788E-04	1.778043E-05
3.016877E+03	1.054628E-04	1.777724E-05
3.026833E+03	1.059658E-04	1.777615E-05
3.036790E+03	1.065090E-04	1.778065E-05
3.046747E+03	1.070731E-04	1.778742E-05
3.056703E+03	1.076590E-04	1.779657E-05
3.066660E+03	1.082882E-04	1.781157E-05
3.076617E+03	1.089414E-04	1.782915E-05
3.086573E+03	1.096400E-04	1.785274E-05
3.096530E+03	1.103855E-04	1.788245E-05
3.106487E+03	1.111587E-04	1.791506E-05
3.116443E+03	1.119608E-04	1.795071E-05
3.126400E+03	1.128138E-04	1.799282E-05
3.136357E+03	1.137192E-04	1.804150E-05
3.146314E+03	1.146787E-04	1.809686E-05
3.156270E+03	1.156734E-04	1.815581E-05
3.166227E+03	1.167463E-04	1.822495E-05
3.176184E+03	1.178582E-04	1.829799E-05
3.186140E+03	1.190108E-04	1.837510E-05
3.196097E+03	1.202479E-04	1.846289E-05
3.206054E+03	1.215511E-04	1.855830E-05
3.216010E+03	1.229018E-04	1.865835E-05
3.225967E+03	1.243445E-04	1.876962E-05
3.235924E+03	1.258612E-04	1.888915E-05
3.245880E+03	1.274332E-04	1.901396E-05
3.255837E+03	1.291063E-04	1.915067E-05
3.265794E+03	1.308841E-04	1.929956E-05
3.275750E+03	1.327269E-04	1.945450E-05
3.285707E+03	1.346817E-04	1.962217E-05
3.295664E+03	1.367308E-04	1.979969E-05
3.305621E+03	1.388782E-04	1.998737E-05
3.315577E+03	1.411507E-04	2.018877E-05
3.325534E+03	1.435307E-04	2.040103E-05
3.335491E+03	1.460458E-04	2.062777E-05
3.345447E+03	1.487019E-04	2.086941E-05
3.355404E+03	1.514817E-04	2.112315E-05
3.365361E+03	1.544144E-04	2.139270E-05
3.375317E+03	1.575069E-04	2.167855E-05
3.385274E+03	1.607662E-04	2.198123E-05
3.395231E+03	1.641759E-04	2.229802E-05
3.405187E+03	1.677922E-04	2.263607E-05
3.415144E+03	1.715996E-04	2.299273E-05
3.425101E+03	1.756073E-04	2.336866E-05
3.435057E+03	1.798247E-04	2.376456E-05
3.445014E+03	1.842621E-04	2.418113E-05
3.454971E+03	1.889563E-04	2.462256E-05
3.464928E+03	1.938931E-04	2.508628E-05
3.474884E+03	1.991116E-04	2.557660E-05
3.484841E+03	2.045983E-04	2.609096E-05
3.494798E+03	2.103942E-04	2.663383E-05
3.504754E+03	2.165150E-04	2.720624E-05
3.514711E+03	2.229769E-04	2.780928E-05
3.524668E+03	2.297972E-04	2.844410E-05
3.534624E+03	2.369642E-04	2.910822E-05
3.544581E+03	2.445562E-04	2.981017E-05
3.554538E+03	2.525641E-04	3.054759E-05
3.564494E+03	2.610088E-04	3.132180E-05
3.574451E+03	2.699449E-04	3.213800E-05
3.584408E+03	2.793648E-04	3.299386E-05
3.594365E+03	2.893265E-04	3.389475E-05
3.604321E+03	2.998577E-04	3.484230E-05
3.614278E+03	3.109525E-04	3.583414E-05
3.624235E+03	3.226746E-04	3.687590E-05
3.634191E+03	3.350557E-04	3.796933E-05
3.644148E+03	3.481288E-04	3.911618E-05
3.654105E+03	3.619280E-04	4.031819E-05
3.664061E+03	3.764887E-04	4.157714E-05
3.674018E+03	3.918873E-04	4.289914E-05
3.683975E+03	4.081239E-04	4.428171E-05
3.693931E+03	4.252787E-04	4.573100E-05
3.703888E+03	4.433516E-04	4.724425E-05
3.713845E+03	4.624280E-04	4.882778E-05
3.723801E+03	4.825523E-04	5.048324E-05
3.733758E+03	5.037704E-04	5.221226E-05
3.743715E+03	5.261760E-04	5.402124E-05
3.753672E+03	5.497201E-04	5.590163E-05
3.763628E+03	5.745473E-04	5.786462E-05
3.773585E+03	6.006549E-04	5.990613E-05
3.783542E+03	6.280878E-04	6.202677E-05
3.793498E+03	6.570002E-04	6.423767E-05
3.803455E+03	6.873304E-04	6.652846E-05
3.813412E+03	7.191761E-04	6.890427E-05
3.823368E+03	7.525797E-04	7.136463E-05
3.833325E+03	7.875801E-04	7.390854E-05
3.843282E+03	8.242755E-04	7.654037E-05
3.853238E+03	8.625711E-04	7.924639E-05
3.863195E+03	9.026863E-04	8.204176E-05
3.873152E+03	9.445136E-04	8.491144E-05
3.883108E+03	9.881346E-04	8.785760E-05
3.893065E+03	1.033558E-03	9.087568E-05
3.903022E+03	1.080784E-03	9.396043E-05
3.912979E+03	1.129804E-03	9.710575E-05
3.922935E+03	1.180599E-03	1.003047E-04
3.932892E+03	1.233219E-03	1.035563E-04
3.942849E+03	1.287547E-03	1.068456E-04
3.952805E+03	1.343615E-03	1.101701E-04
3.962762E+03	1.401367E-03	1.135202E-04
3.972719E+03	1.460733E-03	1.168856E-04
3.982675E+03	1.521549E-03	1.202485E-04
3.992632E+03	1.583898E-03	1.236113E-04
4.002589E+03	1.647688E-03	1.269626E-04
4.012545E+03	1.712627E-03	1.302762E-04
4.022502E+03	1.778784E-03	1.335539E-04
4.032459E+03	1.846034E-03	1.367834E-04
4.042415E+03	1.914249E-03	1.399521E-04
4.052372E+03	1.983289E-03	1.430476E-04
4.062329E+03	2.052909E-03	1.460503E-04
4.072286E+03	2.123163E-03	1.489628E-04
4.082242E+03	2.193800E-03	1.517662E-04
4.092199E+03	2.264672E-03	1.544497E-04
4.102156E+03	2.335738E-03	1.570104E-04
4.112112E+03	2.406756E-03	1.594323E-04
4.122069E+03	2.477595E-03	1.617076E-04
4.132026E+03	2.548353E-03	1.638438E-04
4.141982E+03	2.618710E-03	1.658214E-04
4.151939E+03	2.688683E-03	1.676434E-04
4.161896E+03	2.758195E-03	1.693069E-04
4.171852E+03	2.827181E-03	1.708102E-04
4.181809E+03	2.895698E-03	1.721591E-04
4.191766E+03	2.963482E-03	1.733403E-04
4.201723E+03	3.030721E-03	1.743678E-04
4.211679E+03	3.097277E-03	1.752362E-04
4.221636E+03	3.163128E-03	1.759474E-04
4.231593E+03	3.228368E-03	1.765097E-04
4.241549E+03	3.292981E-03	1.769250E-04
4.251506E+03	3.356838E-03	1.771895E-04
4.261463E+03	3.419924E-03	1.773060E-04
4.271419E+03	3.482441E-03	1.772881E-04
4.281376E+03	3.544140E-03	1.771265E-04
4.291333E+03	3.605213E-03	1.768343E-04
4.301289E+03	3.665397E-03	1.764021E-04
4.311246E+03	3.724859E-03	1.758418E-04
4.321203E+03	3.783316E-03	1.751441E-04
4.331159E+03	3.841023E-03	1.743250E-04
4.341116E+03	3.897570E-03	1.733701E-04
4.351073E+03	3.953211E-03	1.722956E-04
4.361030E+03	4.007693E-03	1.710950E-04
4.370986E+03	4.061162E-03	1.697797E-04
4.380943E+03	4.113894E-03	1.683656E-04
4.390900E+03	4.165954E-03	1.668596E-04
4.400856E+03	4.218033E-03	1.652930E-04
4.410813E+03	4.270439E-03	1.636797E-04
4.420770E+03	4.323591E-03	1.620374E-04
4.430726E+03	4.378003E-03	1.603856E-04
4.440683E+03	4.434063E-03	1.587378E-04
4.450640E+03	4.492110E-03	1.571049E-04
4.460596E+03	4.552660E-03	1.555027E-04
4.470553E+03	4.615759E-03	1.539302E-04
4.480510E+03	4.681894E-03	1.524007E-04
4.490466E+03	4.751085E-03	1.509115E-04
4.500423E+03	4.823470E-03	1.494638E-04
4.510380E+03	4.899001E-03	1.480535E-04
4.520337E+03	4.977539E-03	1.466738E-04
4.530293E+03	5.058942E-03	1.453191E-04
4.540250E+03	5.142878E-03	1.439789E-04
4.550207E+03	5.228814E-03	1.426362E-04
4.560163E+03	5.316239E-03	1.412746E-04
4.570120E+03	5.404458E-03	1.398743E-04
4.580077E+03	5.492802E-03	1.384182E-04
4.590033E+03	5.580443E-03	1.368872E-04
4.599990E+03	5.666522E-03	1.352637E-04
4.609947E+03	5.750065E-03	1.335300E-04
4.619903E+03	5.830297E-03	1.316752E-04
4.629860E+03	5.906397E-03	1.296896E-04
4.639817E+03	5.977326E-03	1.275611E-04
4.649773E+03	6.042706E-03	1.252939E-04
4.659730E+03	6.101648E-03	1.228830E-04
4.669687E+03	6.153976E-03	1.203398E-04
4.679644E+03	6.199429E-03	1.176748E-04
4.689600E+03	6.237872E-03	1.149018E-04
4.699557E+03	6.269477E-03	1.120407E-04
4.709514E+03	6.294826E-03	1.091189E-04
4.719470E+03	6.314439E-03	1.061619E-04
4.729427E+03	6.329010E-03	1.031980E-04
4.739384E+03	6.339625E-03	1.002609E-04
4.749340E+03	6.347158E-03	9.738017E-05
4.759297E+03	6.352648E-03	9.458718E-05
4.769254E+03	6.356808E-03	9.190803E-05
4.779210E+03	6.360554E-03	8.937181E-05
4.789167E+03	6.364418E-03	8.700225E-05
4.799124E+03	6.368856E-03	8.482263E-05
4.809080E+03	6.374258E-03	8.285602E-05
4.819037E+03	6.380883E-03	8.112426E-05
4.828994E+03	6.388725E-03	7.964626E-05
4.838951E+03	6.397913E-03	7.844262E-05
4.848907E+03	6.408334E-03	7.753028E-05
4.858864E+03	6.419960E-03	7.692587E-05
4.868821E+03	6.432556E-03	7.664134E-05
4.878777E+03	6.446062E-03	7.668759E-05
4.888734E+03	6.460160E-03	7.705997E-05
4.898691E+03	6.474708E-03	7.773823E-05
4.908647E+03	6.489405E-03	7.869579E-05
4.918604E+03	6.503949E-03	7.990369E-05
4.928561E+03	6.518179E-03	8.133330E-05
4.938517E+03	6.531880E-03	8.295480E-05
4.948474E+03	6.544850E-03	8.473868E-05
4.958431E+03	6.556840E-03	8.665557E-05
4.968388E+03	6.567832E-03	8.868025E-05
4.978344E+03	6.577634E-03	9.078673E-05
4.988301E+03	6.586293E-03	9.295387E-05
4.998258E+03	6.593609E-03	9.515888E-05
5.008214E+03	6.599773E-03	9.738632E-05
5.018171E+03	6.604737E-03	9.961910E-05
5.028128E+03	6.608629E-03	1.018445E-04
5.038084E+03	6.611624E-03	1.040522E-04
5.048041E+03	6.613941E-03	1.062343E-04
5.057998E+03	6.615764E-03	1.083840E-04
5.067954E+03	6.617436E-03	1.104985E-04
5.077911E+03	6.619145E-03	1.125740E-04
5.087868E+03	6.621340E-03	1.146123E-04
5.097824E+03	6.624218E-03	1.166122E-04
5.107781E+03	6.628241E-03	1.185784E-04
5.117738E+03	6.633583E-03	1.205113E-04
5.127695E+03	6.640589E-03	1.224155E-04
5.137651E+03	6.649504E-03	1.242944E-04
5.147608E+03	6.660536E-03	1.261515E-04
5.157565E+03	6.673834E-03	1.279897E-04
5.167521E+03	6.689427E-03	1.298102E-04
5.177478E+03	6.707498E-03	1.316174E-04
5.187435E+03	6.727967E-03	1.334108E-04
5.197391E+03	6.750761E-03	1.351906E-04
5.207348E+03	6.775826E-03	1.369572E-04
5.217305E+03	6.802854E-03	1.387062E-04
5.227261E+03	6.831753E-03	1.404376E-04
5.237218E+03	6.862259E-03	1.421481E-04
5.247175E+03	6.893912E-03	1.438304E-04
5.257131E+03	6.926575E-03	1.454837E-04
5.267088E+03	6.959657E-03	1.470983E-04
5.277045E+03	6.992880E-03	1.486708E-04
5.287002E+03	7.025813E-03	1.501948E-04
5.296958E+03	7.057946E-03	1.516624E-04
5.306915E+03	7.088900E-03	1.530686E-04
5.316872E+03	7.118099E-03	1.544043E-04
5.326828E+03	7.145334E-03	1.556685E-04
5.336785E+03	7.170003E-03	1.568519E-04
5.346742E+03	7.191831E-03	1.579526E-04
5.356698E+03	7.210512E-03	1.589680E-04
5.366655E+03	7.225807E-03	1.598973E-04
5.376612E+03	7.237529E-03	1.607409E-04
5.386568E+03	7.245417E-03	1.614977E-04
5.396525E+03	7.249562E-03	1.621746E-04
5.406482E+03	7.249901E-03	1.627749E-04
5.416438E+03	7.246437E-03	1.633035E-04
5.426395E+03	7.239298E-03	1.637682E-04
5.436352E+03	7.228595E-03	1.641760E-04
5.446309E+03	7.214613E-03	1.645379E-04
5.456265E+03	7.197510E-03	1.648614E-04
5.466222E+03	7.177442E-03	1.651485E-04
5.476179E+03	7.154555E-03	1.653966E-04
5.486135E+03	7.129083E-03	1.656052E-04
5.496092E+03	7.100990E-03	1.657672E-04
5.506049E+03	7.070303E-03	1.658772E-04
5.516005E+03	7.037101E-03	1.659307E-04
5.525962E+03	7.001325E-03	1.659204E-04
5.535919E+03	6.963006E-03	1.658410E-04
5.545875E+03	6.922188E-03	1.656878E-04
5.555832E+03	6.879005E-03	1.654582E-04
5.565789E+03	6.833415E-03	1.651460E-04
5.575746E+03	6.785605E-03	1.647505E-04
5.585702E+03	6.735641E-03	1.642686E-04
5.595659E+03	6.683742E-03	1.637011E-04
5.605616E+03	6.629940E-03	1.630447E-04
5.615572E+03	6.574418E-03	1.623002E-04
5.625529E+03	6.517359E-03	1.614687E-04
5.635486E+03	6.458908E-03	1.605508E-04
5.645442E+03	6.399343E-03	1.595507E-04
5.655399E+03	6.338727E-03	1.584678E-04
5.665356E+03	6.277456E-03	1.573101E-04
5.675312E+03	6.215735E-03	1.560811E-04
5.685269E+03	6.153929E-03	1.547888E-04
5.695226E+03	6.092352E-03	1.534402E-04
5.705182E+03	6.031597E-03	1.520496E-04
5.715139E+03	5.972027E-03	1.506258E-04
5.725096E+03	5.914230E-03	1.491834E-04
5.735053E+03	5.858767E-03	1.477365E-04
5.745009E+03	5.806282E-03	1.463013E-04
5.754966E+03	5.757352E-03	1.448923E-04
5.764923E+03	5.712541E-03	1.435237E-04
5.774879E+03	5.672360E-03	1.422079E-04
5.784836E+03	5.637303E-03	1.409570E-04
5.794793E+03	5.607712E-03	1.397787E-04
5.804749E+03	5.583808E-03	1.386774E-04
5.814706E+03	5.565632E-03	1.376529E-04
5.824663E+03	5.553281E-03	1.367059E-04
5.834619E+03	5.546398E-03	1.358257E-04
5.844576E+03	5.544729E-03	1.350041E-04
5.854533E+03	5.547801E-03	1.342274E-04
5.864489E+03	5.555021E-03	1.334791E-04
5.874446E+03	5.565721E-03	1.327413E-04
5.884403E+03	5.579193E-03	1.319952E-04
5.894360E+03	5.594708E-03	1.312225E-04
5.904316E+03	5.611605E-03	1.304065E-04
5.914273E+03	5.629229E-03	1.295318E-04
5.924230E+03	5.646987E-03	1.285849E-04
5.934186E+03	5.664381E-03	1.275552E-04
5.944143E+03	5.681053E-03	1.264362E-04
5.954100E+03	5.696646E-03	1.252219E-04
5.964056E+03	5.711049E-03	1.239124E-04
5.974013E+03	5.724089E-03	1.225071E-04
5.983970E+03	5.735769E-03	1.210095E-04
5.993926E+03	5.746101E-03	1.194240E-04
6.003883E+03	5.755200E-03	1.177572E-04
6.013840E+03	5.763216E-03	1.160170E-04
6.023796E+03	5.770220E-03	1.142099E-04
6.033753E+03	5.776439E-03	1.123458E-04
6.043710E+03	5.782007E-03	1.104330E-04
6.053667E+03	5.787098E-03	1.084811E-04
6.063623E+03	5.791863E-03	1.064995E-04
6.073580E+03	5.796434E-03	1.044975E-04
6.083537E+03	5.800866E-03	1.024838E-04
6.093493E+03	5.805284E-03	1.004686E-04
6.103450E+03	5.809668E-03	9.846044E-05
6.113407E+03	5.814131E-03	9.647081E-05
6.123363E+03	5.818535E-03	9.450771E-05
6.133320E+03	5.822914E-03	9.258297E-05
6.143277E+03	5.827162E-03	9.070695E-05
6.153233E+03	5.831088E-03	8.888975E-05
6.163190E+03	5.834615E-03	8.714417E-05
6.173147E+03	5.837537E-03	8.548180E-05
6.183103E+03	5.839621E-03	8.391473E-05
6.193060E+03	5.840732E-03	8.245687E-05
6.203017E+03	5.840571E-03	8.112010E-05
6.212974E+03	5.839215E-03	7.992134E-05
6.222930E+03	5.836496E-03	7.887341E-05
6.232887E+03	5.832723E-03	7.799059E-05
6.242844E+03	5.828012E-03	7.727266E-05
6.252800E+03	5.822722E-03	7.671961E-05
6.262757E+03	5.817337E-03	7.633192E-05
6.272714E+03	5.812288E-03	7.610851E-05
6.282670E+03	5.808052E-03	7.604837E-05
6.292627E+03	5.805214E-03	7.615168E-05
6.302584E+03	5.804402E-03	7.641926E-05
6.312540E+03	5.806234E-03	7.685233E-05
6.322497E+03	5.811411E-03	7.745384E-05
6.332454E+03	5.820719E-03	7.822893E-05
6.342411E+03	5.834723E-03	7.918098E-05
6.352367E+03	5.854266E-03	8.031851E-05
6.362324E+03	5.879994E-03	8.164895E-05
6.372281E+03	5.912524E-03	8.318092E-05
6.382237E+03	5.952515E-03	8.492533E-05
6.392194E+03	6.000380E-03	8.689132E-05
6.402151E+03	6.056547E-03	8.908986E-05
6.412107E+03	6.121303E-03	9.153143E-05
6.422064E+03	6.194727E-03	9.422481E-05
6.432021E+03	6.276756E-03	9.717786E-05
6.441977E+03	6.366989E-03	1.003941E-04
6.451934E+03	6.464984E-03	1.038770E-04
6.461891E+03	6.569888E-03	1.076219E-04
6.471847E+03	6.680643E-03	1.116130E-04
6.481804E+03	6.795964E-03	1.158275E-04
6.491761E+03	6.914248E-03	1.202353E-04
6.501718E+03	7.033478E-03	1.247967E-04
6.511674E+03	7.151587E-03	1.294682E-04
6.521631E+03	7.266261E-03	1.341982E-04
6.531588E+03	7.374864E-03	1.389259E-04
6.541544E+03	7.475078E-03	1.435924E-04
6.551501E+03	7.564573E-03	1.481350E-04
6.561458E+03	7.641341E-03	1.524940E-04
6.571414E+03	7.703485E-03	1.566090E-04
6.581371E+03	7.749929E-03	1.604341E-04
6.591328E+03	7.779765E-03	1.639256E-04
6.601284E+03	7.792564E-03	1.670495E-04
6.611241E+03	7.788643E-03	1.697877E-04
6.621198E+03	7.768523E-03	1.721281E-04
6.631154E+03	7.733205E-03	1.740710E-04
6.641111E+03	7.684097E-03	1.756282E-04
6.651068E+03	7.622681E-03	1.768161E-04
6.661025E+03	7.550764E-03	1.776616E-04
6.670981E+03	7.470149E-03	1.781949E-04
6.680938E+03	7.382565E-03	1.784476E-04
6.690895E+03	7.289763E-03	1.784547E-04
6.700851E+03	7.193551E-03	1.782553E-04
6.710808E+03	7.095208E-03	1.778782E-04
6.720765E+03	6.996320E-03	1.773620E-04
6.730721E+03	6.897915E-03	1.767328E-04
6.740678E+03	6.800999E-03	1.760177E-04
6.750635E+03	6.706476E-03	1.752427E-04
6.760591E+03	6.614952E-03	1.744263E-04
6.770548E+03	6.527016E-03	1.735878E-04
6.780505E+03	6.442981E-03	1.727392E-04
6.790461E+03	6.363119E-03	1.718918E-04
6.800418E+03	6.287589E-03	1.710539E-04
6.810375E+03	6.216472E-03	1.702315E-04
6.820332E+03	6.149783E-03	1.694289E-04
6.830288E+03	6.087461E-03	1.686479E-04
6.840245E+03	6.029414E-03	1.678893E-04
6.850202E+03	5.975439E-03	1.671506E-04
6.860158E+03	5.925441E-03	1.664319E-04
6.870115E+03	5.879170E-03	1.657286E-04
6.880072E+03	5.836491E-03	1.650394E-04
6.890028E+03	5.797120E-03	1.643581E-04
6.899985E+03	5.760779E-03	1.636786E-04
6.909942E+03	5.727369E-03	1.629996E-04
6.919898E+03	5.696598E-03	1.623143E-04
6.929855E+03	5.668234E-03	1.616172E-04
6.939812E+03	5.641990E-03	1.609010E-04
6.949769E+03	5.617714E-03	1.601625E-04
6.959725E+03	5.595128E-03	1.593945E-04
6.969682E+03	5.574104E-03	1.585941E-04
6.979639E+03	5.554391E-03	1.577549E-04
6.989595E+03	5.535830E-03	1.568731E-04
6.999552E+03	5.518290E-03	1.559456E-04
7.009509E+03	5.501649E-03	1.549696E-04
7.019465E+03	5.485823E-03	1.539437E-04
7.029422E+03	5.470690E-03	1.528650E-04
7.039379E+03	5.456280E-03	1.517352E-04
7.049335E+03	5.442588E-03	1.505549E-04
7.059292E+03	5.429548E-03	1.493233E-04
7.069249E+03	5.417191E-03	1.480419E-04
7.079205E+03	5.405620E-03	1.467145E-04
7.089162E+03	5.394799E-03	1.453410E-04
7.099119E+03	5.384704E-03	1.439215E-04
7.109076E+03	5.375480E-03	1.424610E-04
7.119032E+03	5.367074E-03	1.409589E-04
7.128989E+03	5.359471E-03	1.394158E-04
7.138946E+03	5.352553E-03	1.378298E-04
7.148902E+03	5.346380E-03	1.362035E-04
7.158859E+03	5.340701E-03	1.345319E-04
7.168816E+03	5.335364E-03	1.328127E-04
7.178772E+03	5.330328E-03	1.310467E-04
7.188729E+03	5.325233E-03	1.292272E-04
7.198686E+03	5.319836E-03	1.273508E-04
7.208642E+03	5.314012E-03	1.254174E-04
7.218599E+03	5.307341E-03	1.234206E-04
7.228556E+03	5.299542E-03	1.213579E-04
7.238512E+03	5.290400E-03	1.192288E-04
7.248469E+03	5.279649E-03	1.170325E-04
7.258426E+03	5.267033E-03	1.147691E-04
7.268383E+03	5.252270E-03	1.124389E-04
7.278339E+03	5.235253E-03	1.100464E-04
7.288296E+03	5.215843E-03	1.075962E-04
7.298253E+03	5.193901E-03	1.050935E-04
7.308209E+03	5.169550E-03	1.025491E-04
7.318166E+03	5.142690E-03	9.996998E-05
7.328123E+03	5.113567E-03	9.736981E-05
7.338079E+03	5.082264E-03	9.475942E-05
7.348036E+03	5.048989E-03	9.215210E-05
7.357993E+03	5.013898E-03	8.956019E-05
7.367949E+03	4.977448E-03	8.700130E-05
7.377906E+03	4.939683E-03	8.448564E-05
7.387863E+03	4.900982E-03	8.202914E-05
7.397819E+03	4.861501E-03	7.964375E-05
7.407776E+03	4.821431E-03	7.734194E-05
7.417733E+03	4.780941E-03	7.513563E-05
7.427690E+03	4.740217E-03	7.303681E-05
7.437646E+03	4.699304E-03	7.105496E-05
7.447603E+03	4.658283E-03	6.919979E-05
7.457560E+03	4.617219E-03	6.748027E-05
7.467516E+03	4.576239E-03	6.590554E-05
7.477473E+03	4.535335E-03	6.448187E-05
7.487430E+03	4.494639E-03	6.321638E-05
7.497386E+03	4.454157E-03	6.211210E-05
7.507343E+03	4.414024E-03	6.116384E-05
7.517300E+03	4.374256E-03	6.035948E-05
7.527256E+03	4.334982E-03	5.968775E-05
7.537213E+03	4.296210E-03	5.913543E-05
7.547170E+03	4.258060E-03	5.869075E-05
7.557126E+03	4.220586E-03	5.834123E-05
7.567083E+03	4.183839E-03	5.807476E-05
7.577040E+03	4.147826E-03	5.787924E-05
7.586997E+03	4.112671E-03	5.774492E-05
7.596953E+03	4.078664E-03	5.766528E-05
7.606910E+03	4.045840E-03	5.763120E-05
7.616867E+03	4.014584E-03	5.763952E-05
7.626823E+03	3.984968E-03	5.768372E-05
7.636780E+03	3.957195E-03	5.776011E-05
7.646737E+03	3.931308E-03	5.786369E-05
7.656693E+03	3.907420E-03	5.799134E-05
7.666650E+03	3.885553E-03	5.813942E-05
7.676607E+03	3.865689E-03	5.830449E-05
7.686563E+03	3.847728E-03	5.848250E-05
7.696520E+03	3.831707E-03	5.867207E-05
7.706477E+03	3.817419E-03	5.886869E-05
7.716434E+03	3.804806E-03	5.907059E-05
7.726390E+03	3.793737E-03	5.927535E-05
