#wls	flux	fluxerr
1.593070E+03	1.312115E-04	2.572891E-06
1.632897E+03	1.316965E-04	2.574645E-06
1.672724E+03	1.321441E-04	2.575420E-06
1.712550E+03	1.325914E-04	2.575932E-06
1.752377E+03	1.329983E-04	2.575402E-06
1.792204E+03	1.334013E-04	2.574533E-06
1.832031E+03	1.337984E-04	2.573285E-06
1.871857E+03	1.341519E-04	2.570927E-06
1.911684E+03	1.344974E-04	2.568144E-06
1.951511E+03	1.348338E-04	2.564911E-06
1.991338E+03	1.351602E-04	2.561208E-06
2.031164E+03	1.354765E-04	2.557024E-06
2.070991E+03	1.357824E-04	2.552356E-06
2.110818E+03	1.360785E-04	2.547209E-06
2.150645E+03	1.363980E-04	2.542200E-06
2.190471E+03	1.366771E-04	2.536131E-06
2.230298E+03	1.369821E-04	2.530233E-06
2.270125E+03	1.373141E-04	2.524512E-06
2.309952E+03	1.376443E-04	2.518431E-06
2.349778E+03	1.379769E-04	2.512057E-06
2.389605E+03	1.383754E-04	2.506537E-06
2.429432E+03	1.387847E-04	2.500850E-06
2.469259E+03	1.392682E-04	2.496126E-06
2.509085E+03	1.398026E-04	2.491922E-06
2.548912E+03	1.404231E-04	2.488836E-06
2.588739E+03	1.411097E-04	2.486485E-06
2.628566E+03	1.418992E-04	2.485485E-06
2.668392E+03	1.428285E-04	2.486437E-06
2.708219E+03	1.438829E-04	2.489032E-06
2.748046E+03	1.450769E-04	2.493467E-06
2.787873E+03	1.464778E-04	2.500837E-06
2.827700E+03	1.480786E-04	2.510938E-06
2.867526E+03	1.499015E-04	2.524060E-06
2.907353E+03	1.520211E-04	2.541358E-06
2.947180E+03	1.544424E-04	2.562788E-06
2.987007E+03	1.572486E-04	2.589594E-06
2.996963E+03	1.580029E-04	2.596994E-06
3.006920E+03	1.587725E-04	2.604576E-06
3.016877E+03	1.595822E-04	2.612739E-06
3.026833E+03	1.604327E-04	2.621494E-06
3.036790E+03	1.613009E-04	2.630459E-06
3.046747E+03	1.622114E-04	2.640034E-06
3.056703E+03	1.631414E-04	2.649841E-06
3.066660E+03	1.640918E-04	2.659894E-06
3.076617E+03	1.650873E-04	2.670591E-06
3.086573E+03	1.661291E-04	2.681945E-06
3.096530E+03	1.671943E-04	2.693582E-06
3.106487E+03	1.683078E-04	2.705901E-06
3.116443E+03	1.694470E-04	2.718533E-06
3.126400E+03	1.706370E-04	2.731876E-06
3.136357E+03	1.718790E-04	2.745945E-06
3.146314E+03	1.731505E-04	2.760375E-06
3.156270E+03	1.744530E-04	2.775185E-06
3.166227E+03	1.758355E-04	2.791152E-06
3.176184E+03	1.772281E-04	2.807157E-06
3.186140E+03	1.787039E-04	2.824357E-06
3.196097E+03	1.802170E-04	2.842016E-06
3.206054E+03	1.817930E-04	2.860532E-06
3.216010E+03	1.834098E-04	2.879553E-06
3.225967E+03	1.850933E-04	2.899480E-06
3.235924E+03	1.868457E-04	2.920338E-06
3.245880E+03	1.886449E-04	2.941775E-06
3.255837E+03	1.905174E-04	2.964198E-06
3.265794E+03	1.924657E-04	2.987635E-06
3.275750E+03	1.944678E-04	3.011741E-06
3.285707E+03	1.965508E-04	3.036924E-06
3.295664E+03	1.987175E-04	3.063219E-06
3.305621E+03	2.009709E-04	3.090661E-06
3.315577E+03	2.032893E-04	3.118910E-06
3.325534E+03	2.057006E-04	3.148382E-06
3.335491E+03	2.082083E-04	3.179120E-06
3.345447E+03	2.108160E-04	3.211168E-06
3.355404E+03	2.135274E-04	3.244572E-06
3.365361E+03	2.163214E-04	3.278994E-06
3.375317E+03	2.192272E-04	3.314870E-06
3.385274E+03	2.222491E-04	3.352251E-06
3.395231E+03	2.253919E-04	3.391194E-06
3.405187E+03	2.286344E-04	3.431365E-06
3.415144E+03	2.320336E-04	3.473606E-06
3.425101E+03	2.355426E-04	3.517199E-06
3.435057E+03	2.391930E-04	3.562599E-06
3.445014E+03	2.429908E-04	3.609878E-06
3.454971E+03	2.469420E-04	3.659109E-06
3.464928E+03	2.510533E-04	3.710368E-06
3.474884E+03	2.553311E-04	3.763733E-06
3.484841E+03	2.597829E-04	3.819290E-06
3.494798E+03	2.643877E-04	3.876714E-06
3.504754E+03	2.692094E-04	3.936915E-06
3.514711E+03	2.742280E-04	3.999579E-06
3.524668E+03	2.794232E-04	4.064384E-06
3.534624E+03	2.848615E-04	4.132270E-06
3.544581E+03	2.904937E-04	4.202498E-06
3.554538E+03	2.963884E-04	4.276032E-06
3.564494E+03	3.025263E-04	4.352562E-06
3.574451E+03	3.088873E-04	4.431767E-06
3.584408E+03	3.155433E-04	4.514648E-06
3.594365E+03	3.224753E-04	4.600897E-06
3.604321E+03	3.296633E-04	4.690193E-06
3.614278E+03	3.371830E-04	4.783579E-06
3.624235E+03	3.450159E-04	4.880749E-06
3.634191E+03	3.531752E-04	4.981850E-06
3.644148E+03	3.617087E-04	5.087513E-06
3.654105E+03	3.705637E-04	5.196949E-06
3.664061E+03	3.797885E-04	5.310794E-06
3.674018E+03	3.894342E-04	5.429712E-06
3.683975E+03	3.994827E-04	5.553396E-06
3.693931E+03	4.099137E-04	5.681514E-06
3.703888E+03	4.208179E-04	5.815270E-06
3.713845E+03	4.322154E-04	5.954878E-06
3.723801E+03	4.440485E-04	6.099483E-06
3.733758E+03	4.564142E-04	6.250355E-06
3.743715E+03	4.692532E-04	6.406617E-06
3.753672E+03	4.826663E-04	6.569578E-06
3.763628E+03	4.966762E-04	6.739472E-06
3.773585E+03	5.112218E-04	6.915395E-06
3.783542E+03	5.264096E-04	7.098713E-06
3.793498E+03	5.422200E-04	7.289079E-06
3.803455E+03	5.586754E-04	7.486710E-06
3.813412E+03	5.757988E-04	7.691832E-06
3.823368E+03	5.936607E-04	7.905292E-06
3.833325E+03	6.122386E-04	8.126701E-06
3.843282E+03	6.315562E-04	8.356273E-06
3.853238E+03	6.516864E-04	8.594876E-06
3.863195E+03	6.726032E-04	8.842061E-06
3.873152E+03	6.943296E-04	9.098026E-06
3.883108E+03	7.168863E-04	9.362938E-06
3.893065E+03	7.403496E-04	9.637678E-06
3.903022E+03	7.646866E-04	9.921704E-06
3.912979E+03	7.899740E-04	1.021589E-05
3.922935E+03	8.161144E-04	1.051886E-05
3.932892E+03	8.433027E-04	1.083301E-05
3.942849E+03	8.713748E-04	1.115609E-05
3.952805E+03	9.004674E-04	1.148975E-05
3.962762E+03	9.305310E-04	1.183320E-05
3.972719E+03	9.615754E-04	1.218647E-05
3.982675E+03	9.936772E-04	1.255037E-05
3.992632E+03	1.026777E-03	1.292404E-05
4.002589E+03	1.060879E-03	1.330740E-05
4.012545E+03	1.096060E-03	1.370127E-05
4.022502E+03	1.132250E-03	1.410464E-05
4.032459E+03	1.169525E-03	1.451835E-05
4.042415E+03	1.207731E-03	1.494033E-05
4.052372E+03	1.247099E-03	1.537333E-05
4.062329E+03	1.287389E-03	1.581424E-05
4.072286E+03	1.328755E-03	1.626485E-05
4.082242E+03	1.371110E-03	1.672394E-05
4.092199E+03	1.414531E-03	1.719234E-05
4.102156E+03	1.458834E-03	1.766769E-05
4.112112E+03	1.504275E-03	1.815297E-05
4.122069E+03	1.550570E-03	1.864465E-05
4.132026E+03	1.597890E-03	1.914465E-05
4.141982E+03	1.646126E-03	1.965155E-05
4.151939E+03	1.695255E-03	2.016499E-05
4.161896E+03	1.745358E-03	2.068582E-05
4.171852E+03	1.796309E-03	2.121244E-05
4.181809E+03	1.848077E-03	2.174440E-05
4.191766E+03	1.900732E-03	2.228243E-05
4.201723E+03	1.954020E-03	2.282347E-05
4.211679E+03	2.008107E-03	2.336940E-05
4.221636E+03	2.062942E-03	2.391953E-05
4.231593E+03	2.118229E-03	2.447040E-05
4.241549E+03	2.174120E-03	2.502370E-05
4.251506E+03	2.230409E-03	2.557703E-05
4.261463E+03	2.286990E-03	2.612916E-05
4.271419E+03	2.343743E-03	2.667872E-05
4.281376E+03	2.400655E-03	2.722558E-05
4.291333E+03	2.457326E-03	2.776522E-05
4.301289E+03	2.513835E-03	2.829861E-05
4.311246E+03	2.569872E-03	2.882231E-05
4.321203E+03	2.625232E-03	2.933416E-05
4.331159E+03	2.679702E-03	2.983190E-05
4.341116E+03	2.733063E-03	3.031327E-05
4.351073E+03	2.785105E-03	3.077609E-05
4.361030E+03	2.835781E-03	3.122009E-05
4.370986E+03	2.884684E-03	3.164101E-05
4.380943E+03	2.931901E-03	3.204006E-05
4.390900E+03	2.977605E-03	3.241938E-05
4.400856E+03	3.021612E-03	3.277721E-05
4.410813E+03	3.064209E-03	3.311689E-05
4.420770E+03	3.105563E-03	3.344047E-05
4.430726E+03	3.145856E-03	3.375007E-05
4.440683E+03	3.185272E-03	3.404784E-05
4.450640E+03	3.223988E-03	3.433584E-05
4.460596E+03	3.262174E-03	3.461599E-05
4.470553E+03	3.299837E-03	3.488851E-05
4.480510E+03	3.337261E-03	3.515648E-05
4.490466E+03	3.374563E-03	3.542123E-05
4.500423E+03	3.411838E-03	3.568383E-05
4.510380E+03	3.449161E-03	3.594511E-05
4.520337E+03	3.486435E-03	3.620413E-05
4.530293E+03	3.523834E-03	3.646277E-05
4.540250E+03	3.561216E-03	3.671960E-05
4.550207E+03	3.598713E-03	3.697607E-05
4.560163E+03	3.636292E-03	3.723187E-05
4.570120E+03	3.673747E-03	3.748498E-05
4.580077E+03	3.711161E-03	3.773630E-05
4.590033E+03	3.748302E-03	3.798357E-05
4.599990E+03	3.785227E-03	3.822747E-05
4.609947E+03	3.821837E-03	3.846708E-05
4.619903E+03	3.857724E-03	3.869843E-05
4.629860E+03	3.893087E-03	3.892364E-05
4.639817E+03	3.927815E-03	3.914174E-05
4.649773E+03	3.961658E-03	3.935039E-05
4.659730E+03	3.994510E-03	3.954869E-05
4.669687E+03	4.026435E-03	3.973745E-05
4.679644E+03	4.057042E-03	3.991300E-05
4.689600E+03	4.086551E-03	4.007766E-05
4.699557E+03	4.114900E-03	4.023104E-05
4.709514E+03	4.141724E-03	4.036975E-05
4.719470E+03	4.167282E-03	4.049650E-05
4.729427E+03	4.191248E-03	4.060833E-05
4.739384E+03	4.213921E-03	4.070834E-05
4.749340E+03	4.235178E-03	4.079553E-05
4.759297E+03	4.255067E-03	4.087054E-05
4.769254E+03	4.273645E-03	4.093409E-05
4.779210E+03	4.290969E-03	4.098692E-05
4.789167E+03	4.307114E-03	4.102988E-05
4.799124E+03	4.322156E-03	4.106387E-05
4.809080E+03	4.336194E-03	4.108996E-05
4.819037E+03	4.349188E-03	4.110791E-05
4.828994E+03	4.361538E-03	4.112165E-05
4.838951E+03	4.373048E-03	4.112940E-05
4.848907E+03	4.383957E-03	4.113354E-05
4.858864E+03	4.394342E-03	4.113489E-05
4.868821E+03	4.404269E-03	4.113415E-05
4.878777E+03	4.413650E-03	4.113059E-05
4.888734E+03	4.422676E-03	4.112606E-05
4.898691E+03	4.431385E-03	4.112095E-05
4.908647E+03	4.439660E-03	4.111416E-05
4.918604E+03	4.447676E-03	4.110733E-05
4.928561E+03	4.455457E-03	4.110064E-05
4.938517E+03	4.462884E-03	4.109301E-05
4.948474E+03	4.470122E-03	4.108593E-05
4.958431E+03	4.477056E-03	4.107832E-05
4.968388E+03	4.483863E-03	4.107180E-05
4.978344E+03	4.490435E-03	4.106534E-05
4.988301E+03	4.496949E-03	4.106055E-05
4.998258E+03	4.503316E-03	4.105658E-05
5.008214E+03	4.509725E-03	4.105512E-05
5.018171E+03	4.515965E-03	4.105422E-05
5.028128E+03	4.522505E-03	4.105811E-05
5.038084E+03	4.529006E-03	4.106368E-05
5.048041E+03	4.535819E-03	4.107406E-05
5.057998E+03	4.543013E-03	4.108983E-05
5.067954E+03	4.550411E-03	4.110936E-05
5.077911E+03	4.558357E-03	4.113570E-05
5.087868E+03	4.566801E-03	4.116835E-05
5.097824E+03	4.575831E-03	4.120806E-05
5.107781E+03	4.585647E-03	4.125658E-05
5.117738E+03	4.596071E-03	4.131226E-05
5.127695E+03	4.607429E-03	4.137797E-05
5.137651E+03	4.619656E-03	4.145309E-05
5.147608E+03	4.632801E-03	4.153801E-05
5.157565E+03	4.646913E-03	4.163311E-05
5.167521E+03	4.662155E-03	4.173981E-05
5.177478E+03	4.678290E-03	4.185595E-05
5.187435E+03	4.695459E-03	4.198272E-05
5.197391E+03	4.713790E-03	4.212125E-05
5.207348E+03	4.733004E-03	4.226901E-05
5.217305E+03	4.753338E-03	4.242805E-05
5.227261E+03	4.774490E-03	4.259565E-05
5.237218E+03	4.796660E-03	4.277358E-05
5.247175E+03	4.819527E-03	4.295892E-05
5.257131E+03	4.843141E-03	4.315211E-05
5.267088E+03	4.867534E-03	4.335339E-05
5.277045E+03	4.892351E-03	4.355958E-05
5.287002E+03	4.917609E-03	4.377080E-05
5.296958E+03	4.943185E-03	4.398595E-05
5.306915E+03	4.968950E-03	4.420385E-05
5.316872E+03	4.994776E-03	4.442334E-05
5.326828E+03	5.020393E-03	4.464201E-05
5.336785E+03	5.045784E-03	4.485968E-05
5.346742E+03	5.070940E-03	4.507627E-05
5.356698E+03	5.095454E-03	4.528812E-05
5.366655E+03	5.119185E-03	4.549398E-05
5.376612E+03	5.142253E-03	4.569488E-05
5.386568E+03	5.164259E-03	4.588729E-05
5.396525E+03	5.185214E-03	4.607126E-05
5.406482E+03	5.204989E-03	4.624564E-05
5.416438E+03	5.223476E-03	4.640944E-05
5.426395E+03	5.240449E-03	4.656064E-05
5.436352E+03	5.255952E-03	4.669961E-05
5.446309E+03	5.269792E-03	4.682461E-05
5.456265E+03	5.282172E-03	4.693741E-05
5.466222E+03	5.292673E-03	4.703429E-05
5.476179E+03	5.301638E-03	4.711825E-05
5.486135E+03	5.308776E-03	4.718669E-05
5.496092E+03	5.314177E-03	4.724037E-05
5.506049E+03	5.317694E-03	4.727794E-05
5.516005E+03	5.319452E-03	4.730050E-05
5.525962E+03	5.319465E-03	4.730810E-05
5.535919E+03	5.317646E-03	4.729996E-05
5.545875E+03	5.314050E-03	4.727652E-05
5.555832E+03	5.308994E-03	4.724056E-05
5.565789E+03	5.302186E-03	4.718944E-05
5.575746E+03	5.294097E-03	4.712733E-05
5.585702E+03	5.284468E-03	4.705188E-05
5.595659E+03	5.273657E-03	4.696625E-05
5.605616E+03	5.261805E-03	4.687165E-05
5.615572E+03	5.248927E-03	4.676819E-05
5.625529E+03	5.235293E-03	4.665826E-05
5.635486E+03	5.220947E-03	4.654220E-05
5.645442E+03	5.206046E-03	4.642139E-05
5.655399E+03	5.190878E-03	4.629839E-05
5.665356E+03	5.175498E-03	4.617364E-05
5.675312E+03	5.160197E-03	4.604974E-05
5.685269E+03	5.145027E-03	4.592714E-05
5.695226E+03	5.130158E-03	4.580732E-05
5.705182E+03	5.115869E-03	4.569277E-05
5.715139E+03	5.102205E-03	4.558390E-05
5.725096E+03	5.089314E-03	4.548200E-05
5.735053E+03	5.077445E-03	4.538929E-05
5.745009E+03	5.066613E-03	4.530592E-05
5.754966E+03	5.056922E-03	4.523281E-05
5.764923E+03	5.048578E-03	4.517179E-05
5.774879E+03	5.041541E-03	4.512252E-05
5.784836E+03	5.035862E-03	4.508546E-05
5.794793E+03	5.031565E-03	4.506083E-05
5.804749E+03	5.028774E-03	4.504973E-05
5.814706E+03	5.027250E-03	4.505004E-05
5.824663E+03	5.027168E-03	4.506334E-05
5.834619E+03	5.028474E-03	4.508915E-05
5.844576E+03	5.030864E-03	4.512474E-05
5.854533E+03	5.034456E-03	4.517120E-05
5.864489E+03	5.039032E-03	4.522658E-05
5.874446E+03	5.044353E-03	4.528872E-05
5.884403E+03	5.050611E-03	4.535938E-05
5.894360E+03	5.057339E-03	4.543436E-05
5.904316E+03	5.064503E-03	4.551337E-05
5.914273E+03	5.072076E-03	4.559617E-05
5.924230E+03	5.079704E-03	4.567957E-05
5.934186E+03	5.087476E-03	4.576440E-05
5.944143E+03	5.095172E-03	4.584867E-05
5.954100E+03	5.102690E-03	4.593149E-05
5.964056E+03	5.109939E-03	4.601203E-05
5.974013E+03	5.116959E-03	4.609064E-05
5.983970E+03	5.123470E-03	4.616485E-05
5.993926E+03	5.129541E-03	4.623524E-05
6.003883E+03	5.135246E-03	4.630250E-05
6.013840E+03	5.140342E-03	4.636446E-05
6.023796E+03	5.145043E-03	4.642304E-05
6.033753E+03	5.149230E-03	4.647717E-05
6.043710E+03	5.152902E-03	4.652687E-05
6.053667E+03	5.156057E-03	4.657211E-05
6.063623E+03	5.158698E-03	4.661294E-05
6.073580E+03	5.160815E-03	4.664926E-05
6.083537E+03	5.162404E-03	4.668106E-05
6.093493E+03	5.163446E-03	4.670817E-05
6.103450E+03	5.163917E-03	4.673039E-05
6.113407E+03	5.163895E-03	4.674842E-05
6.123363E+03	5.163112E-03	4.675987E-05
6.133320E+03	5.161741E-03	4.676629E-05
6.143277E+03	5.159497E-03	4.676511E-05
6.153233E+03	5.156529E-03	4.675771E-05
6.163190E+03	5.152642E-03	4.674230E-05
6.173147E+03	5.147755E-03	4.671818E-05
6.183103E+03	5.141781E-03	4.668455E-05
6.193060E+03	5.134640E-03	4.664069E-05
6.203017E+03	5.126279E-03	4.658611E-05
6.212974E+03	5.116684E-03	4.652064E-05
6.222930E+03	5.106015E-03	4.644572E-05
6.232887E+03	5.094288E-03	4.636143E-05
6.242844E+03	5.081582E-03	4.626848E-05
6.252800E+03	5.068316E-03	4.617065E-05
6.262757E+03	5.054598E-03	4.606889E-05
6.272714E+03	5.040755E-03	4.596616E-05
6.282670E+03	5.026799E-03	4.586253E-05
6.292627E+03	5.013151E-03	4.576185E-05
6.302584E+03	4.999902E-03	4.566493E-05
6.312540E+03	4.987246E-03	4.557352E-05
6.322497E+03	4.975358E-03	4.548922E-05
6.332454E+03	4.964507E-03	4.541448E-05
6.342411E+03	4.954725E-03	4.534960E-05
6.352367E+03	4.946146E-03	4.529579E-05
6.362324E+03	4.938865E-03	4.525396E-05
6.372281E+03	4.933067E-03	4.522578E-05
6.382237E+03	4.928692E-03	4.521072E-05
6.392194E+03	4.925766E-03	4.520902E-05
6.402151E+03	4.924378E-03	4.522152E-05
6.412107E+03	4.924384E-03	4.524689E-05
6.422064E+03	4.925703E-03	4.528442E-05
6.432021E+03	4.928320E-03	4.533396E-05
6.441977E+03	4.931985E-03	4.539320E-05
6.451934E+03	4.936609E-03	4.546133E-05
6.461891E+03	4.941875E-03	4.553541E-05
6.471847E+03	4.947636E-03	4.561408E-05
6.481804E+03	4.953516E-03	4.569385E-05
6.491761E+03	4.959227E-03	4.577204E-05
6.501718E+03	4.964563E-03	4.584674E-05
6.511674E+03	4.969211E-03	4.591501E-05
6.521631E+03	4.972740E-03	4.597286E-05
6.531588E+03	4.974943E-03	4.601832E-05
6.541544E+03	4.975415E-03	4.604760E-05
6.551501E+03	4.973978E-03	4.605902E-05
6.561458E+03	4.970372E-03	4.605011E-05
6.571414E+03	4.964280E-03	4.601791E-05
6.581371E+03	4.955614E-03	4.596152E-05
6.591328E+03	4.944237E-03	4.587964E-05
6.601284E+03	4.929952E-03	4.577037E-05
6.611241E+03	4.912812E-03	4.563417E-05
6.621198E+03	4.892822E-03	4.547102E-05
6.631154E+03	4.869936E-03	4.528044E-05
6.641111E+03	4.844464E-03	4.506527E-05
6.651068E+03	4.816344E-03	4.482491E-05
6.661025E+03	4.785872E-03	4.456205E-05
6.670981E+03	4.753266E-03	4.427870E-05
6.680938E+03	4.718687E-03	4.397631E-05
6.690895E+03	4.682601E-03	4.365922E-05
6.700851E+03	4.645201E-03	4.332921E-05
6.710808E+03	4.606688E-03	4.298813E-05
6.720765E+03	4.567465E-03	4.263974E-05
6.730721E+03	4.527916E-03	4.228762E-05
6.740678E+03	4.488147E-03	4.193275E-05
6.750635E+03	4.448522E-03	4.157855E-05
6.760591E+03	4.409400E-03	4.122837E-05
6.770548E+03	4.370828E-03	4.088267E-05
6.780505E+03	4.333118E-03	4.054437E-05
6.790461E+03	4.296560E-03	4.021621E-05
6.800418E+03	4.261141E-03	3.989808E-05
6.810375E+03	4.227190E-03	3.959309E-05
6.820332E+03	4.194741E-03	3.930157E-05
6.830288E+03	4.163894E-03	3.902449E-05
6.840245E+03	4.134735E-03	3.876266E-05
6.850202E+03	4.107321E-03	3.851666E-05
6.860158E+03	4.081785E-03	3.828773E-05
6.870115E+03	4.057973E-03	3.807448E-05
6.880072E+03	4.036072E-03	3.787865E-05
6.890028E+03	4.015988E-03	3.769942E-05
6.899985E+03	3.997792E-03	3.753746E-05
6.909942E+03	3.981373E-03	3.739173E-05
6.919898E+03	3.966684E-03	3.726183E-05
6.929855E+03	3.953683E-03	3.714738E-05
6.939812E+03	3.942323E-03	3.704794E-05
6.949769E+03	3.932619E-03	3.696370E-05
6.959725E+03	3.924430E-03	3.689333E-05
6.969682E+03	3.917767E-03	3.683694E-05
6.979639E+03	3.912475E-03	3.679311E-05
6.989595E+03	3.908475E-03	3.676110E-05
6.999552E+03	3.905775E-03	3.674101E-05
7.009509E+03	3.904208E-03	3.673127E-05
7.019465E+03	3.903776E-03	3.673192E-05
7.029422E+03	3.904306E-03	3.674133E-05
7.039379E+03	3.905710E-03	3.675871E-05
7.049335E+03	3.907986E-03	3.678403E-05
7.059292E+03	3.911037E-03	3.681641E-05
7.069249E+03	3.914683E-03	3.685416E-05
7.079205E+03	3.918826E-03	3.689637E-05
7.089162E+03	3.923445E-03	3.694284E-05
7.099119E+03	3.928351E-03	3.699183E-05
7.109076E+03	3.933516E-03	3.704307E-05
7.119032E+03	3.938831E-03	3.709556E-05
7.128989E+03	3.944085E-03	3.714732E-05
7.138946E+03	3.949157E-03	3.719722E-05
7.148902E+03	3.954009E-03	3.724493E-05
7.158859E+03	3.958510E-03	3.728922E-05
7.168816E+03	3.962442E-03	3.732805E-05
7.178772E+03	3.965756E-03	3.736098E-05
7.188729E+03	3.968234E-03	3.738598E-05
7.198686E+03	3.969924E-03	3.740350E-05
7.208642E+03	3.970418E-03	3.740973E-05
7.218599E+03	3.969783E-03	3.740531E-05
7.228556E+03	3.967893E-03	3.738907E-05
7.238512E+03	3.964644E-03	3.736005E-05
7.248469E+03	3.959841E-03	3.731644E-05
7.258426E+03	3.953495E-03	3.725835E-05
7.268383E+03	3.945431E-03	3.718415E-05
7.278339E+03	3.935785E-03	3.709515E-05
7.288296E+03	3.924239E-03	3.698835E-05
7.298253E+03	3.911043E-03	3.686615E-05
7.308209E+03	3.896008E-03	3.672678E-05
7.318166E+03	3.879245E-03	3.657129E-05
7.328123E+03	3.860784E-03	3.639999E-05
7.338079E+03	3.840581E-03	3.621248E-05
7.348036E+03	3.818797E-03	3.601030E-05
7.357993E+03	3.795421E-03	3.579335E-05
7.367949E+03	3.770734E-03	3.556430E-05
7.377906E+03	3.744662E-03	3.532247E-05
7.387863E+03	3.717419E-03	3.506988E-05
7.397819E+03	3.689035E-03	3.480684E-05
7.407776E+03	3.659832E-03	3.453639E-05
7.417733E+03	3.629773E-03	3.425819E-05
7.427690E+03	3.599000E-03	3.397359E-05
7.437646E+03	3.567838E-03	3.368568E-05
7.447603E+03	3.536261E-03	3.339421E-05
7.457560E+03	3.504500E-03	3.310139E-05
7.467516E+03	3.472704E-03	3.280861E-05
7.477473E+03	3.441011E-03	3.251721E-05
7.487430E+03	3.409478E-03	3.222774E-05
7.497386E+03	3.378319E-03	3.194220E-05
7.507343E+03	3.347657E-03	3.166180E-05
7.517300E+03	3.317606E-03	3.138761E-05
7.527256E+03	3.288187E-03	3.111983E-05
7.537213E+03	3.259571E-03	3.086008E-05
7.547170E+03	3.231835E-03	3.060905E-05
7.557126E+03	3.205038E-03	3.036730E-05
7.567083E+03	3.179231E-03	3.013529E-05
7.577040E+03	3.154380E-03	2.991272E-05
7.586997E+03	3.130629E-03	2.970093E-05
7.596953E+03	3.108063E-03	2.950072E-05
7.606910E+03	3.086776E-03	2.931300E-05
7.616867E+03	3.066779E-03	2.913786E-05
7.626823E+03	3.048302E-03	2.897751E-05
7.636780E+03	3.031237E-03	2.883091E-05
7.646737E+03	3.015690E-03	2.869909E-05
7.656693E+03	3.001665E-03	2.858210E-05
7.666650E+03	2.989148E-03	2.847982E-05
7.676607E+03	2.978027E-03	2.839120E-05
7.686563E+03	2.968329E-03	2.831652E-05
7.696520E+03	2.959991E-03	2.825518E-05
7.706477E+03	2.952935E-03	2.820646E-05
7.716434E+03	2.947073E-03	2.816956E-05
7.726390E+03	2.942309E-03	2.814354E-05
