#wls	flux	fluxerr
1.593070E+03	3.331188E-05	1.818351E-06
1.632897E+03	3.402055E-05	1.847641E-06
1.672724E+03	3.476248E-05	1.878107E-06
1.712550E+03	3.555440E-05	1.910601E-06
1.752377E+03	3.638559E-05	1.944485E-06
1.792204E+03	3.725923E-05	1.979872E-06
1.832031E+03	3.819355E-05	2.017663E-06
1.871857E+03	3.917818E-05	2.057232E-06
1.911684E+03	4.021734E-05	2.098724E-06
1.951511E+03	4.133129E-05	2.143109E-06
1.991338E+03	4.252600E-05	2.190589E-06
2.031164E+03	4.379200E-05	2.240564E-06
2.070991E+03	4.513560E-05	2.293244E-06
2.110818E+03	4.658060E-05	2.349710E-06
2.150645E+03	4.811854E-05	2.409385E-06
2.190471E+03	4.977568E-05	2.473428E-06
2.230298E+03	5.154452E-05	2.541283E-06
2.270125E+03	5.345417E-05	2.614194E-06
2.309952E+03	5.549850E-05	2.691640E-06
2.349778E+03	5.771006E-05	2.774959E-06
2.389605E+03	6.010481E-05	2.864639E-06
2.429432E+03	6.265825E-05	2.959219E-06
2.469259E+03	6.545103E-05	3.062188E-06
2.509085E+03	6.846169E-05	3.172149E-06
2.548912E+03	7.171154E-05	3.289693E-06
2.588739E+03	7.524832E-05	3.416555E-06
2.628566E+03	7.910059E-05	3.553506E-06
2.668392E+03	8.327349E-05	3.700197E-06
2.708219E+03	8.782567E-05	3.858604E-06
2.748046E+03	9.276592E-05	4.028397E-06
2.787873E+03	9.816119E-05	4.211697E-06
2.827700E+03	1.040239E-04	4.408150E-06
2.867526E+03	1.104297E-04	4.619991E-06
2.907353E+03	1.174287E-04	4.848203E-06
2.947180E+03	1.250369E-04	5.092229E-06
2.987007E+03	1.333417E-04	5.354318E-06
2.996963E+03	1.355173E-04	5.422112E-06
3.006920E+03	1.377777E-04	5.492570E-06
3.016877E+03	1.400445E-04	5.562532E-06
3.026833E+03	1.423987E-04	5.635200E-06
3.036790E+03	1.447597E-04	5.707351E-06
3.046747E+03	1.472107E-04	5.782248E-06
3.056703E+03	1.496689E-04	5.856599E-06
3.066660E+03	1.522196E-04	5.933731E-06
3.076617E+03	1.547776E-04	6.010282E-06
3.086573E+03	1.574309E-04	6.089648E-06
3.096530E+03	1.601367E-04	6.170135E-06
3.106487E+03	1.628498E-04	6.249976E-06
3.116443E+03	1.656619E-04	6.332669E-06
3.126400E+03	1.685283E-04	6.416460E-06
3.136357E+03	1.714495E-04	6.501341E-06
3.146314E+03	1.744261E-04	6.587297E-06
3.156270E+03	1.774584E-04	6.674314E-06
3.166227E+03	1.805469E-04	6.762374E-06
3.176184E+03	1.836918E-04	6.851457E-06
3.186140E+03	1.868935E-04	6.941540E-06
3.196097E+03	1.901521E-04	7.032599E-06
3.206054E+03	1.934679E-04	7.124605E-06
3.216010E+03	1.968408E-04	7.217527E-06
3.225967E+03	2.002710E-04	7.311331E-06
3.235924E+03	2.037582E-04	7.405980E-06
3.245880E+03	2.073585E-04	7.503466E-06
3.255837E+03	2.109601E-04	7.599699E-06
3.265794E+03	2.146180E-04	7.696644E-06
3.275750E+03	2.183904E-04	7.796345E-06
3.285707E+03	2.221602E-04	7.894577E-06
3.295664E+03	2.260449E-04	7.995492E-06
3.305621E+03	2.299239E-04	8.094775E-06
3.315577E+03	2.339178E-04	8.196653E-06
3.325534E+03	2.379021E-04	8.296717E-06
3.335491E+03	2.420010E-04	8.399271E-06
3.345447E+03	2.461508E-04	8.502055E-06
3.355404E+03	2.502844E-04	8.602725E-06
3.365361E+03	2.545307E-04	8.705694E-06
3.375317E+03	2.588230E-04	8.808626E-06
3.385274E+03	2.631595E-04	8.911427E-06
3.395231E+03	2.674685E-04	9.011650E-06
3.405187E+03	2.718859E-04	9.113856E-06
3.415144E+03	2.763405E-04	9.215610E-06
3.425101E+03	2.808297E-04	9.316798E-06
3.435057E+03	2.853509E-04	9.417303E-06
3.445014E+03	2.899009E-04	9.517000E-06
3.454971E+03	2.944766E-04	9.615766E-06
3.464928E+03	2.990748E-04	9.713468E-06
3.474884E+03	3.036922E-04	9.809985E-06
3.484841E+03	3.084027E-04	9.907675E-06
3.494798E+03	3.130477E-04	1.000141E-05
3.504754E+03	3.177002E-04	1.009353E-05
3.514711E+03	3.223562E-04	1.018390E-05
3.524668E+03	3.270931E-04	1.027495E-05
3.534624E+03	3.317440E-04	1.036141E-05
3.544581E+03	3.363853E-04	1.044569E-05
3.554538E+03	3.410970E-04	1.053026E-05
3.564494E+03	3.457060E-04	1.060976E-05
3.574451E+03	3.503778E-04	1.068928E-05
3.584408E+03	3.549351E-04	1.076342E-05
3.594365E+03	3.595479E-04	1.083734E-05
3.604321E+03	3.640347E-04	1.090557E-05
3.614278E+03	3.685682E-04	1.097333E-05
3.624235E+03	3.729648E-04	1.103514E-05
3.634191E+03	3.774005E-04	1.109624E-05
3.644148E+03	3.817799E-04	1.115383E-05
3.654105E+03	3.860988E-04	1.120781E-05
3.664061E+03	3.902590E-04	1.125537E-05
3.674018E+03	3.944426E-04	1.130181E-05
3.683975E+03	3.985527E-04	1.134436E-05
3.693931E+03	4.025849E-04	1.138293E-05
3.703888E+03	4.065357E-04	1.141746E-05
3.713845E+03	4.104017E-04	1.144790E-05
3.723801E+03	4.141793E-04	1.147419E-05
3.733758E+03	4.178659E-04	1.149631E-05
3.743715E+03	4.214587E-04	1.151423E-05
3.753672E+03	4.249557E-04	1.152794E-05
3.763628E+03	4.283551E-04	1.153746E-05
3.773585E+03	4.316554E-04	1.154279E-05
3.783542E+03	4.348556E-04	1.154396E-05
3.793498E+03	4.379556E-04	1.154103E-05
3.803455E+03	4.410571E-04	1.153672E-05
3.813412E+03	4.439570E-04	1.152574E-05
3.823368E+03	4.467580E-04	1.151087E-05
3.833325E+03	4.495647E-04	1.149484E-05
3.843282E+03	4.521733E-04	1.147246E-05
3.853238E+03	4.546892E-04	1.144652E-05
3.863195E+03	4.572198E-04	1.141975E-05
3.873152E+03	4.595610E-04	1.138708E-05
3.883108E+03	4.618206E-04	1.135128E-05
3.893065E+03	4.641090E-04	1.131509E-05
3.903022E+03	4.662216E-04	1.127354E-05
3.912979E+03	4.683749E-04	1.123195E-05
3.922935E+03	4.703656E-04	1.118544E-05
3.932892E+03	4.724107E-04	1.113924E-05
3.942849E+03	4.744133E-04	1.109106E-05
3.952805E+03	4.762761E-04	1.103866E-05
3.962762E+03	4.782195E-04	1.098720E-05
3.972719E+03	4.800417E-04	1.093204E-05
3.982675E+03	4.819643E-04	1.087825E-05
3.992632E+03	4.838919E-04	1.082366E-05
4.002589E+03	4.858353E-04	1.076849E-05
4.012545E+03	4.876999E-04	1.071067E-05
4.022502E+03	4.897096E-04	1.065513E-05
4.032459E+03	4.917697E-04	1.059973E-05
4.042415E+03	4.938921E-04	1.054472E-05
4.052372E+03	4.960888E-04	1.049030E-05
4.062329E+03	4.982644E-04	1.043445E-05
4.072286E+03	5.006449E-04	1.038188E-05
4.082242E+03	5.031350E-04	1.033050E-05
4.092199E+03	5.057467E-04	1.028050E-05
4.102156E+03	5.084912E-04	1.023205E-05
4.112112E+03	5.113807E-04	1.018531E-05
4.122069E+03	5.144276E-04	1.014045E-05
4.132026E+03	5.176437E-04	1.009761E-05
4.141982E+03	5.210421E-04	1.005696E-05
4.151939E+03	5.246352E-04	1.001863E-05
4.161896E+03	5.284373E-04	9.982776E-06
4.171852E+03	5.324620E-04	9.949547E-06
4.181809E+03	5.367239E-04	9.919085E-06
4.191766E+03	5.412377E-04	9.891532E-06
4.201723E+03	5.460185E-04	9.867022E-06
4.211679E+03	5.510816E-04	9.845681E-06
4.221636E+03	5.564412E-04	9.827606E-06
4.231593E+03	5.621122E-04	9.812895E-06
4.241549E+03	5.681076E-04	9.801607E-06
4.251506E+03	5.745577E-04	9.795786E-06
4.261463E+03	5.812402E-04	9.791436E-06
4.271419E+03	5.882809E-04	9.790536E-06
4.281376E+03	5.956871E-04	9.793022E-06
4.291333E+03	6.034642E-04	9.798788E-06
4.301289E+03	6.116157E-04	9.807703E-06
4.311246E+03	6.202656E-04	9.821540E-06
4.321203E+03	6.291644E-04	9.836142E-06
4.331159E+03	6.384293E-04	9.853210E-06
4.341116E+03	6.480534E-04	9.872472E-06
4.351073E+03	6.580274E-04	9.893620E-06
4.361030E+03	6.684752E-04	9.918346E-06
4.370986E+03	6.791263E-04	9.942466E-06
4.380943E+03	6.901094E-04	9.967786E-06
4.390900E+03	7.014269E-04	9.994215E-06
4.400856E+03	7.130835E-04	1.002170E-05
4.410813E+03	7.252279E-04	1.005219E-05
4.420770E+03	7.375838E-04	1.008170E-05
4.430726E+03	7.502942E-04	1.011215E-05
4.440683E+03	7.633607E-04	1.014345E-05
4.450640E+03	7.769329E-04	1.017747E-05
4.460596E+03	7.907074E-04	1.021012E-05
4.470553E+03	8.048241E-04	1.024320E-05
4.480510E+03	8.192722E-04	1.027651E-05
4.490466E+03	8.340358E-04	1.030983E-05
4.500423E+03	8.492564E-04	1.034486E-05
4.510380E+03	8.645855E-04	1.037732E-05
4.520337E+03	8.801522E-04	1.040884E-05
4.530293E+03	8.959196E-04	1.043901E-05
4.540250E+03	9.118454E-04	1.046742E-05
4.550207E+03	9.280566E-04	1.049560E-05
4.560163E+03	9.441522E-04	1.051912E-05
4.570120E+03	9.602456E-04	1.053950E-05
4.580077E+03	9.762740E-04	1.055626E-05
4.590033E+03	9.921718E-04	1.056896E-05
4.599990E+03	1.007870E-03	1.057718E-05
4.609947E+03	1.023301E-03	1.058056E-05
4.619903E+03	1.038397E-03	1.057878E-05
4.629860E+03	1.053290E-03	1.057360E-05
4.639817E+03	1.067532E-03	1.056095E-05
4.649773E+03	1.081263E-03	1.054278E-05
4.659730E+03	1.094443E-03	1.051920E-05
4.669687E+03	1.107036E-03	1.049043E-05
4.679644E+03	1.119023E-03	1.045682E-05
4.689600E+03	1.130398E-03	1.041890E-05
4.699557E+03	1.141170E-03	1.037731E-05
4.709514E+03	1.151369E-03	1.033287E-05
4.719470E+03	1.161044E-03	1.028657E-05
4.729427E+03	1.170263E-03	1.023951E-05
4.739384E+03	1.179109E-03	1.019293E-05
4.749340E+03	1.187458E-03	1.014622E-05
4.759297E+03	1.195819E-03	1.010420E-05
4.769254E+03	1.204033E-03	1.006589E-05
4.779210E+03	1.212116E-03	1.003184E-05
4.789167E+03	1.220054E-03	1.000230E-05
4.799124E+03	1.227817E-03	9.977427E-06
4.809080E+03	1.235146E-03	9.955551E-06
4.819037E+03	1.242444E-03	9.940305E-06
4.828994E+03	1.249455E-03	9.930004E-06
4.838951E+03	1.255923E-03	9.923002E-06
4.848907E+03	1.262260E-03	9.922898E-06
4.858864E+03	1.268215E-03	9.928033E-06
4.868821E+03	1.273537E-03	9.936744E-06
4.878777E+03	1.278651E-03	9.952605E-06
4.888734E+03	1.283090E-03	9.972104E-06
4.898691E+03	1.287293E-03	9.998519E-06
4.908647E+03	1.290800E-03	1.002812E-05
4.918604E+03	1.294057E-03	1.006416E-05
4.928561E+03	1.296616E-03	1.010287E-05
4.938517E+03	1.298705E-03	1.014576E-05
4.948474E+03	1.300557E-03	1.019433E-05
4.958431E+03	1.301737E-03	1.024481E-05
4.968388E+03	1.302485E-03	1.029873E-05
4.978344E+03	1.303044E-03	1.035761E-05
4.988301E+03	1.302988E-03	1.041770E-05
4.998258E+03	1.302567E-03	1.048055E-05
5.008214E+03	1.301808E-03	1.054597E-05
5.018171E+03	1.300743E-03	1.061382E-05
5.028128E+03	1.299405E-03	1.068397E-05
5.038084E+03	1.297836E-03	1.075636E-05
5.048041E+03	1.296080E-03	1.083097E-05
5.057998E+03	1.294188E-03	1.090788E-05
5.067954E+03	1.292218E-03	1.098723E-05
5.077911E+03	1.290232E-03	1.106922E-05
5.087868E+03	1.288082E-03	1.115228E-05
5.097824E+03	1.286271E-03	1.124048E-05
5.107781E+03	1.284654E-03	1.133236E-05
5.117738E+03	1.283088E-03	1.142644E-05
5.127695E+03	1.282070E-03	1.152696E-05
5.137651E+03	1.281450E-03	1.163247E-05
5.147608E+03	1.281070E-03	1.174143E-05
5.157565E+03	1.281402E-03	1.185805E-05
5.167521E+03	1.282056E-03	1.197871E-05
5.177478E+03	1.283264E-03	1.210550E-05
5.187435E+03	1.285243E-03	1.224046E-05
5.197391E+03	1.287561E-03	1.237950E-05
5.207348E+03	1.290410E-03	1.252442E-05
5.217305E+03	1.293757E-03	1.267491E-05
5.227261E+03	1.297563E-03	1.283059E-05
5.237218E+03	1.301788E-03	1.299106E-05
5.247175E+03	1.306385E-03	1.315584E-05
5.257131E+03	1.311311E-03	1.332448E-05
5.267088E+03	1.316523E-03	1.349652E-05
5.277045E+03	1.321978E-03	1.367150E-05
5.287002E+03	1.327636E-03	1.384897E-05
5.296958E+03	1.333461E-03	1.402850E-05
5.306915E+03	1.339200E-03	1.420738E-05
5.316872E+03	1.345248E-03	1.438972E-05
5.326828E+03	1.351141E-03	1.457051E-05
5.336785E+03	1.357279E-03	1.475400E-05
5.346742E+03	1.363199E-03	1.493508E-05
5.356698E+03	1.369306E-03	1.511813E-05
5.366655E+03	1.375139E-03	1.529798E-05
5.376612E+03	1.380891E-03	1.547667E-05
5.386568E+03	1.386541E-03	1.565390E-05
5.396525E+03	1.392073E-03	1.582938E-05
5.406482E+03	1.397472E-03	1.600290E-05
5.416438E+03	1.402732E-03	1.617426E-05
5.426395E+03	1.407849E-03	1.634339E-05
5.436352E+03	1.412826E-03	1.651023E-05
5.446309E+03	1.417674E-03	1.667481E-05
5.456265E+03	1.422401E-03	1.683722E-05
5.466222E+03	1.426792E-03	1.699480E-05
5.476179E+03	1.431288E-03	1.715275E-05
5.486135E+03	1.435649E-03	1.730815E-05
5.496092E+03	1.439617E-03	1.745786E-05
5.506049E+03	1.443384E-03	1.760405E-05
5.516005E+03	1.447139E-03	1.774897E-05
5.525962E+03	1.450405E-03	1.788667E-05
5.535919E+03	1.453384E-03	1.801952E-05
5.545875E+03	1.456062E-03	1.814727E-05
5.555832E+03	1.458436E-03	1.826974E-05
5.565789E+03	1.460510E-03	1.838690E-05
5.575746E+03	1.462297E-03	1.849885E-05
5.585702E+03	1.463822E-03	1.860581E-05
5.595659E+03	1.465115E-03	1.870809E-05
5.605616E+03	1.465989E-03	1.880323E-05
5.615572E+03	1.466935E-03	1.889746E-05
5.625529E+03	1.467772E-03	1.898843E-05
5.635486E+03	1.468316E-03	1.907374E-05
5.645442E+03	1.468835E-03	1.915679E-05
5.655399E+03	1.469591E-03	1.924102E-05
5.665356E+03	1.470169E-03	1.932101E-05
5.675312E+03	1.470826E-03	1.940009E-05
5.685269E+03	1.471588E-03	1.947865E-05
5.695226E+03	1.472480E-03	1.955700E-05
5.705182E+03	1.473522E-03	1.963545E-05
5.715139E+03	1.474733E-03	1.971426E-05
5.725096E+03	1.476126E-03	1.979363E-05
5.735053E+03	1.477490E-03	1.987074E-05
5.745009E+03	1.479278E-03	1.995173E-05
5.754966E+03	1.481047E-03	2.003064E-05
5.764923E+03	1.483242E-03	2.011351E-05
5.774879E+03	1.485408E-03	2.019422E-05
5.784836E+03	1.487979E-03	2.027869E-05
5.794793E+03	1.490486E-03	2.036057E-05
5.804749E+03	1.493128E-03	2.044259E-05
5.814706E+03	1.495869E-03	2.052428E-05
5.824663E+03	1.498668E-03	2.060512E-05
5.834619E+03	1.501477E-03	2.068446E-05
5.844576E+03	1.504244E-03	2.076161E-05
5.854533E+03	1.506684E-03	2.083266E-05
5.864489E+03	1.509184E-03	2.090296E-05
5.874446E+03	1.511455E-03	2.096856E-05
5.884403E+03	1.513208E-03	2.102544E-05
5.894360E+03	1.514608E-03	2.107591E-05
5.904316E+03	1.515827E-03	2.112240E-05
5.914273E+03	1.516372E-03	2.115807E-05
5.924230E+03	1.516440E-03	2.118568E-05
5.934186E+03	1.516021E-03	2.120511E-05
5.944143E+03	1.515121E-03	2.121649E-05
5.954100E+03	1.513766E-03	2.122022E-05
5.964056E+03	1.512001E-03	2.121697E-05
5.974013E+03	1.509882E-03	2.120760E-05
5.983970E+03	1.507256E-03	2.119000E-05
5.993926E+03	1.504643E-03	2.117155E-05
6.003883E+03	1.501676E-03	2.114717E-05
6.013840E+03	1.498876E-03	2.112424E-05
6.023796E+03	1.495874E-03	2.109767E-05
6.033753E+03	1.492962E-03	2.107165E-05
6.043710E+03	1.490202E-03	2.104715E-05
6.053667E+03	1.487653E-03	2.102509E-05
6.063623E+03	1.485363E-03	2.100626E-05
6.073580E+03	1.483377E-03	2.099138E-05
6.083537E+03	1.481729E-03	2.098103E-05
6.093493E+03	1.480230E-03	2.097266E-05
6.103450E+03	1.479336E-03	2.097281E-05
6.113407E+03	1.478627E-03	2.097564E-05
6.123363E+03	1.478542E-03	2.098752E-05
6.133320E+03	1.478653E-03	2.100246E-05
6.143277E+03	1.479171E-03	2.102360E-05
6.153233E+03	1.480306E-03	2.105402E-05
6.163190E+03	1.481616E-03	2.108756E-05
6.173147E+03	1.483303E-03	2.112724E-05
6.183103E+03	1.485350E-03	2.117294E-05
6.193060E+03	1.487523E-03	2.122147E-05
6.203017E+03	1.490235E-03	2.127883E-05
6.212974E+03	1.493247E-03	2.134178E-05
6.222930E+03	1.496319E-03	2.140702E-05
6.232887E+03	1.499859E-03	2.148054E-05
6.242844E+03	1.503408E-03	2.155590E-05
6.252800E+03	1.507156E-03	2.163601E-05
6.262757E+03	1.511079E-03	2.172065E-05
6.272714E+03	1.515156E-03	2.180969E-05
6.282670E+03	1.519371E-03	2.190307E-05
6.292627E+03	1.523715E-03	2.200081E-05
6.302584E+03	1.528189E-03	2.210308E-05
6.312540E+03	1.532802E-03	2.221022E-05
6.322497E+03	1.537576E-03	2.232271E-05
6.332454E+03	1.542321E-03	2.243796E-05
6.342411E+03	1.547524E-03	2.256322E-05
6.352367E+03	1.552787E-03	2.269293E-05
6.362324E+03	1.558388E-03	2.283133E-05
6.372281E+03	1.564385E-03	2.297946E-05
6.382237E+03	1.571059E-03	2.314172E-05
6.392194E+03	1.578010E-03	2.331246E-05
6.402151E+03	1.585511E-03	2.349595E-05
6.412107E+03	1.593366E-03	2.368955E-05
6.422064E+03	1.602060E-03	2.390074E-05
6.432021E+03	1.611374E-03	2.412657E-05
6.441977E+03	1.621070E-03	2.436380E-05
6.451934E+03	1.631593E-03	2.461940E-05
6.461891E+03	1.642432E-03	2.488601E-05
6.471847E+03	1.653998E-03	2.517016E-05
6.481804E+03	1.665727E-03	2.546358E-05
6.491761E+03	1.677730E-03	2.576810E-05
6.501718E+03	1.689826E-03	2.608099E-05
6.511674E+03	1.701755E-03	2.639827E-05
6.521631E+03	1.713178E-03	2.671466E-05
6.531588E+03	1.723705E-03	2.702394E-05
6.541544E+03	1.732676E-03	2.731544E-05
6.551501E+03	1.740182E-03	2.759022E-05
6.561458E+03	1.745600E-03	2.783790E-05
6.571414E+03	1.748350E-03	2.804854E-05
6.581371E+03	1.748418E-03	2.822107E-05
6.591328E+03	1.745870E-03	2.835568E-05
6.601284E+03	1.740111E-03	2.844172E-05
6.611241E+03	1.731392E-03	2.848220E-05
6.621198E+03	1.719809E-03	2.847758E-05
6.631154E+03	1.705539E-03	2.842970E-05
6.641111E+03	1.688824E-03	2.834153E-05
6.651068E+03	1.669713E-03	2.821286E-05
6.661025E+03	1.649005E-03	2.805623E-05
6.670981E+03	1.626788E-03	2.787234E-05
6.680938E+03	1.603160E-03	2.766212E-05
6.690895E+03	1.578903E-03	2.743841E-05
6.700851E+03	1.553862E-03	2.719800E-05
6.710808E+03	1.528543E-03	2.694931E-05
6.720765E+03	1.503199E-03	2.669648E-05
6.730721E+03	1.478054E-03	2.644328E-05
6.740678E+03	1.453304E-03	2.619312E-05
6.750635E+03	1.429120E-03	2.594906E-05
6.760591E+03	1.405649E-03	2.571380E-05
6.770548E+03	1.383015E-03	2.548974E-05
6.780505E+03	1.361321E-03	2.527896E-05
6.790461E+03	1.340462E-03	2.507971E-05
6.800418E+03	1.320895E-03	2.490081E-05
6.810375E+03	1.302295E-03	2.473648E-05
6.820332E+03	1.284900E-03	2.459154E-05
6.830288E+03	1.268926E-03	2.447059E-05
6.840245E+03	1.254035E-03	2.436752E-05
6.850202E+03	1.240431E-03	2.428671E-05
6.860158E+03	1.228129E-03	2.422891E-05
6.870115E+03	1.217135E-03	2.419474E-05
6.880072E+03	1.207451E-03	2.418474E-05
6.890028E+03	1.198900E-03	2.419586E-05
6.899985E+03	1.191819E-03	2.423537E-05
6.909942E+03	1.186017E-03	2.429998E-05
6.919898E+03	1.181304E-03	2.438628E-05
6.929855E+03	1.177993E-03	2.450126E-05
6.939812E+03	1.175714E-03	2.463774E-05
6.949769E+03	1.174602E-03	2.479900E-05
6.959725E+03	1.174786E-03	2.498833E-05
6.969682E+03	1.175887E-03	2.519813E-05
6.979639E+03	1.178028E-03	2.543147E-05
6.989595E+03	1.181161E-03	2.568779E-05
6.999552E+03	1.185235E-03	2.596640E-05
7.009509E+03	1.190028E-03	2.626281E-05
7.019465E+03	1.195830E-03	2.658381E-05
7.029422E+03	1.202418E-03	2.692483E-05
7.039379E+03	1.209562E-03	2.728107E-05
7.049335E+03	1.217561E-03	2.765955E-05
7.059292E+03	1.226011E-03	2.805143E-05
7.069249E+03	1.235217E-03	2.846395E-05
7.079205E+03	1.244775E-03	2.888804E-05
7.089162E+03	1.254815E-03	2.932692E-05
7.099119E+03	1.265478E-03	2.978412E-05
7.109076E+03	1.276353E-03	3.025017E-05
7.119032E+03	1.287579E-03	3.072849E-05
7.128989E+03	1.299115E-03	3.121822E-05
7.138946E+03	1.310722E-03	3.171374E-05
7.148902E+03	1.322737E-03	3.222324E-05
7.158859E+03	1.334918E-03	3.274100E-05
7.168816E+03	1.347212E-03	3.326573E-05
7.178772E+03	1.359360E-03	3.379105E-05
7.188729E+03	1.371694E-03	3.432518E-05
7.198686E+03	1.383746E-03	3.485638E-05
7.208642E+03	1.395642E-03	3.538771E-05
7.218599E+03	1.407513E-03	3.592239E-05
7.228556E+03	1.418869E-03	3.644780E-05
7.238512E+03	1.429835E-03	3.696688E-05
7.248469E+03	1.440331E-03	3.747733E-05
7.258426E+03	1.450276E-03	3.797682E-05
7.268383E+03	1.459597E-03	3.846307E-05
7.278339E+03	1.468223E-03	3.893389E-05
7.288296E+03	1.476090E-03	3.938718E-05
7.298253E+03	1.483143E-03	3.982111E-05
7.308209E+03	1.489119E-03	4.022809E-05
7.318166E+03	1.494424E-03	4.061863E-05
7.328123E+03	1.498597E-03	4.097978E-05
7.338079E+03	1.502072E-03	4.132290E-05
7.348036E+03	1.504409E-03	4.163540E-05
7.357993E+03	1.506067E-03	4.192951E-05
7.367949E+03	1.506621E-03	4.219298E-05
7.377906E+03	1.506323E-03	4.243236E-05
7.387863E+03	1.505210E-03	4.264821E-05
7.397819E+03	1.503322E-03	4.284127E-05
7.407776E+03	1.500699E-03	4.301235E-05
7.417733E+03	1.497389E-03	4.316238E-05
7.427690E+03	1.493437E-03	4.329235E-05
7.437646E+03	1.488891E-03	4.340333E-05
7.447603E+03	1.483796E-03	4.349637E-05
7.457560E+03	1.478201E-03	4.357256E-05
7.467516E+03	1.471930E-03	4.362651E-05
7.477473E+03	1.465470E-03	4.367237E-05
7.487430E+03	1.458425E-03	4.369817E-05
7.497386E+03	1.451277E-03	4.371815E-05
7.507343E+03	1.443631E-03	4.372028E-05
7.517300E+03	1.435962E-03	4.371880E-05
7.527256E+03	1.427875E-03	4.370160E-05
7.537213E+03	1.419626E-03	4.367632E-05
7.547170E+03	1.411248E-03	4.364395E-05
7.557126E+03	1.402987E-03	4.361206E-05
7.567083E+03	1.394448E-03	4.356836E-05
7.577040E+03	1.385874E-03	4.352032E-05
7.586997E+03	1.377290E-03	4.346876E-05
7.596953E+03	1.368720E-03	4.341442E-05
7.606910E+03	1.359979E-03	4.335142E-05
7.616867E+03	1.351501E-03	4.329358E-05
7.626823E+03	1.343095E-03	4.323486E-05
7.636780E+03	1.334775E-03	4.317579E-05
7.646737E+03	1.326352E-03	4.311024E-05
7.656693E+03	1.318243E-03	4.305177E-05
7.666650E+03	1.310051E-03	4.298755E-05
7.676607E+03	1.302186E-03	4.293103E-05
7.686563E+03	1.294253E-03	4.286928E-05
7.696520E+03	1.286653E-03	4.281565E-05
7.706477E+03	1.278993E-03	4.275713E-05
7.716434E+03	1.271472E-03	4.270040E-05
7.726390E+03	1.264090E-03	4.264553E-05
