#wls	flux	fluxerr
1.596185E+03	1.032611E-14	9.444101E-18
1.636090E+03	1.080845E-14	9.885246E-18
1.675994E+03	1.126301E-14	1.030098E-17
1.715899E+03	1.168271E-14	1.068483E-17
1.755804E+03	1.205903E-14	1.102901E-17
1.795708E+03	1.237797E-14	1.132070E-17
1.835613E+03	1.262256E-14	1.154441E-17
1.875518E+03	1.277397E-14	1.168288E-17
1.915422E+03	1.281421E-14	1.171969E-17
1.955327E+03	1.273171E-14	1.164423E-17
1.995231E+03	1.253249E-14	1.146202E-17
2.035136E+03	1.225517E-14	1.120840E-17
2.075041E+03	1.198151E-14	1.095811E-17
2.114945E+03	1.182445E-14	1.081446E-17
2.154850E+03	1.188704E-14	1.087171E-17
2.194755E+03	1.221276E-14	1.116960E-17
2.234659E+03	1.276994E-14	1.167920E-17
2.274564E+03	1.347998E-14	1.232858E-17
2.314468E+03	1.425710E-14	1.303932E-17
2.354373E+03	1.503296E-14	1.374891E-17
2.394278E+03	1.576533E-14	1.441872E-17
2.434182E+03	1.643527E-14	1.503142E-17
2.474087E+03	1.703894E-14	1.558351E-17
2.513992E+03	1.758086E-14	1.607912E-17
2.553896E+03	1.806856E-14	1.652514E-17
2.593801E+03	1.850954E-14	1.692841E-17
2.633705E+03	1.890937E-14	1.729402E-17
2.673610E+03	1.927136E-14	1.762502E-17
2.713515E+03	1.959967E-14	1.792517E-17
2.753419E+03	1.990022E-14	1.819991E-17
2.793324E+03	2.017931E-14	1.845497E-17
2.833229E+03	2.044201E-14	1.869498E-17
2.873133E+03	2.069188E-14	1.892317E-17
2.913038E+03	2.093096E-14	1.914140E-17
2.952942E+03	2.116003E-14	1.935034E-17
2.992847E+03	2.137827E-14	1.954922E-17
3.002823E+03	2.143087E-14	1.959711E-17
3.012799E+03	2.148269E-14	1.964428E-17
3.022776E+03	2.153350E-14	1.969052E-17
3.032752E+03	2.158385E-14	1.973631E-17
3.042728E+03	2.163368E-14	1.978162E-17
3.052704E+03	2.168480E-14	1.982808E-17
3.062680E+03	2.173670E-14	1.987526E-17
3.072656E+03	2.178917E-14	1.992292E-17
3.082633E+03	2.184166E-14	1.997059E-17
3.092609E+03	2.189408E-14	2.001818E-17
3.102585E+03	2.194586E-14	2.006515E-17
3.112561E+03	2.199674E-14	2.011128E-17
3.122537E+03	2.204649E-14	2.015637E-17
3.132513E+03	2.209492E-14	2.020021E-17
3.142489E+03	2.214162E-14	2.024246E-17
3.152466E+03	2.218654E-14	2.028305E-17
3.162442E+03	2.222931E-14	2.032164E-17
3.172418E+03	2.226979E-14	2.035812E-17
3.182394E+03	2.230775E-14	2.039227E-17
3.192370E+03	2.234299E-14	2.042390E-17
3.202346E+03	2.237542E-14	2.045294E-17
3.212323E+03	2.240484E-14	2.047920E-17
3.222299E+03	2.243110E-14	2.050253E-17
3.232275E+03	2.245402E-14	2.052278E-17
3.242251E+03	2.247348E-14	2.053984E-17
3.252227E+03	2.248943E-14	2.055366E-17
3.262203E+03	2.250178E-14	2.056416E-17
3.272179E+03	2.251034E-14	2.057117E-17
3.282156E+03	2.251516E-14	2.057472E-17
3.292132E+03	2.251623E-14	2.057482E-17
3.302108E+03	2.251362E-14	2.057153E-17
3.312084E+03	2.250745E-14	2.056495E-17
3.322060E+03	2.249777E-14	2.055515E-17
3.332036E+03	2.248496E-14	2.054245E-17
3.342013E+03	2.246902E-14	2.052688E-17
3.351989E+03	2.244989E-14	2.050836E-17
3.361965E+03	2.242765E-14	2.048699E-17
3.371941E+03	2.240180E-14	2.046229E-17
3.381917E+03	2.237192E-14	2.043391E-17
3.391893E+03	2.298840E-14	2.099585E-17
3.392891E+03	2.297930E-14	2.098742E-17
3.393889E+03	2.297018E-14	2.097898E-17
3.394886E+03	2.296191E-14	2.097131E-17
3.395884E+03	2.295194E-14	2.096209E-17
3.396881E+03	2.294195E-14	2.095285E-17
3.397879E+03	2.293196E-14	2.094361E-17
3.398877E+03	2.292112E-14	2.093360E-17
3.399874E+03	2.290941E-14	2.092279E-17
3.400872E+03	2.289770E-14	2.091198E-17
3.401870E+03	2.288598E-14	2.090116E-17
3.402867E+03	2.287426E-14	2.089034E-17
3.403865E+03	2.286252E-14	2.087951E-17
3.404862E+03	2.285163E-14	2.086944E-17
3.405860E+03	2.284158E-14	2.086015E-17
3.406858E+03	2.283152E-14	2.085085E-17
3.407855E+03	2.282230E-14	2.084232E-17
3.408853E+03	2.281308E-14	2.083378E-17
3.409850E+03	2.280470E-14	2.082602E-17
3.410848E+03	2.279632E-14	2.081824E-17
3.411846E+03	2.278707E-14	2.080969E-17
3.412843E+03	2.277782E-14	2.080113E-17
3.413841E+03	2.276857E-14	2.079256E-17
3.414839E+03	2.275930E-14	2.078399E-17
3.415836E+03	2.275004E-14	2.077541E-17
3.416834E+03	2.274077E-14	2.076683E-17
3.417831E+03	2.273148E-14	2.075824E-17
3.418829E+03	2.272134E-14	2.074886E-17
3.419827E+03	2.271205E-14	2.074027E-17
3.420824E+03	2.270360E-14	2.073243E-17
3.421822E+03	2.269684E-14	2.072615E-17
3.422819E+03	2.269093E-14	2.072063E-17
3.423817E+03	2.268331E-14	2.071356E-17
3.424815E+03	2.267484E-14	2.070571E-17
3.425812E+03	2.266466E-14	2.069630E-17
3.426810E+03	2.265532E-14	2.068766E-17
3.427808E+03	2.264598E-14	2.067902E-17
3.428805E+03	2.263918E-14	2.067270E-17
3.429803E+03	2.263238E-14	2.066637E-17
3.430800E+03	2.262812E-14	2.066237E-17
3.431798E+03	2.262216E-14	2.065681E-17
3.432796E+03	2.261619E-14	2.065125E-17
3.433793E+03	2.261022E-14	2.064569E-17
3.434791E+03	2.260339E-14	2.063934E-17
3.435788E+03	2.259825E-14	2.063454E-17
3.436786E+03	2.259312E-14	2.062973E-17
3.437784E+03	2.258712E-14	2.062415E-17
3.438781E+03	2.258112E-14	2.061856E-17
3.439779E+03	2.257512E-14	2.061296E-17
3.440777E+03	2.256911E-14	2.060737E-17
3.441774E+03	2.256225E-14	2.060099E-17
3.442772E+03	2.255453E-14	2.059383E-17
3.443769E+03	2.254681E-14	2.058667E-17
3.444767E+03	2.253908E-14	2.057950E-17
3.445765E+03	2.253135E-14	2.057233E-17
3.446762E+03	2.252361E-14	2.056516E-17
3.447760E+03	2.251757E-14	2.055953E-17
3.448757E+03	2.251238E-14	2.055468E-17
3.449755E+03	2.250719E-14	2.054983E-17
3.450753E+03	2.250028E-14	2.054342E-17
3.451750E+03	2.249337E-14	2.053700E-17
3.452748E+03	2.248561E-14	2.052980E-17
3.453746E+03	2.247785E-14	2.052261E-17
3.454743E+03	2.246923E-14	2.051463E-17
3.455741E+03	2.246061E-14	2.050665E-17
3.456738E+03	2.245028E-14	2.049711E-17
3.457736E+03	2.243910E-14	2.048679E-17
3.458734E+03	2.242706E-14	2.047569E-17
3.459731E+03	2.241417E-14	2.046382E-17
3.460729E+03	2.240041E-14	2.045116E-17
3.461726E+03	2.238752E-14	2.043928E-17
3.462724E+03	2.237547E-14	2.042817E-17
3.463722E+03	2.236341E-14	2.041705E-17
3.464719E+03	2.235135E-14	2.040594E-17
3.465717E+03	2.233758E-14	2.039327E-17
3.466715E+03	2.232211E-14	2.037904E-17
3.467712E+03	2.230664E-14	2.036481E-17
3.468710E+03	2.229116E-14	2.035057E-17
3.469707E+03	2.227653E-14	2.033711E-17
3.470705E+03	2.226189E-14	2.032365E-17
3.471703E+03	2.224896E-14	2.031174E-17
3.472700E+03	2.223347E-14	2.029749E-17
3.473698E+03	2.221712E-14	2.028247E-17
3.474695E+03	2.220248E-14	2.026900E-17
3.475693E+03	2.218698E-14	2.025475E-17
3.476691E+03	2.216892E-14	2.023817E-17
3.477688E+03	2.214660E-14	2.021769E-17
3.478686E+03	2.212343E-14	2.019644E-17
3.479684E+03	2.210281E-14	2.017752E-17
3.480681E+03	2.208049E-14	2.015704E-17
3.481679E+03	2.205475E-14	2.013345E-17
3.482676E+03	2.203072E-14	2.011141E-17
3.483674E+03	2.200583E-14	2.008860E-17
3.484672E+03	2.198179E-14	2.006655E-17
3.485669E+03	2.196030E-14	2.004685E-17
3.486667E+03	2.193881E-14	2.002713E-17
3.487664E+03	2.191731E-14	2.000741E-17
3.488662E+03	2.189496E-14	1.998692E-17
3.489660E+03	2.187005E-14	1.996409E-17
3.490657E+03	2.184514E-14	1.994126E-17
3.491655E+03	2.182194E-14	1.991998E-17
3.492653E+03	2.179958E-14	1.989948E-17
3.493650E+03	2.177892E-14	1.988054E-17
3.494648E+03	2.175741E-14	1.986081E-17
3.495645E+03	2.173589E-14	1.984108E-17
3.496643E+03	2.171608E-14	1.982291E-17
3.497641E+03	2.169797E-14	1.980629E-17
3.498638E+03	2.168156E-14	1.979122E-17
3.499636E+03	2.166685E-14	1.977771E-17
3.500633E+03	2.165299E-14	1.976498E-17
3.501631E+03	2.163743E-14	1.975068E-17
3.502629E+03	2.162102E-14	1.973562E-17
3.503626E+03	2.160545E-14	1.972132E-17
3.504624E+03	2.159159E-14	1.970859E-17
3.505622E+03	2.158028E-14	1.969819E-17
3.506619E+03	2.157152E-14	1.969012E-17
3.507617E+03	2.156362E-14	1.968282E-17
3.508614E+03	2.155572E-14	1.967553E-17
3.509612E+03	2.154696E-14	1.966746E-17
3.510610E+03	2.153906E-14	1.966017E-17
3.511607E+03	2.152945E-14	1.965132E-17
3.512605E+03	2.152069E-14	1.964325E-17
3.513602E+03	2.151108E-14	1.963440E-17
3.514600E+03	2.150232E-14	1.962633E-17
3.515598E+03	2.149356E-14	1.961826E-17
3.516595E+03	2.148736E-14	1.961253E-17
3.517593E+03	2.148372E-14	1.960913E-17
3.518591E+03	2.148178E-14	1.960729E-17
3.519588E+03	2.147984E-14	1.960545E-17
3.520586E+03	2.147705E-14	1.960283E-17
3.521583E+03	2.147511E-14	1.960099E-17
3.522581E+03	2.147402E-14	1.959994E-17
3.523579E+03	2.147294E-14	1.959888E-17
3.524576E+03	2.147356E-14	1.959938E-17
3.525574E+03	2.147503E-14	1.960065E-17
3.526571E+03	2.147821E-14	1.960350E-17
3.527569E+03	2.148224E-14	1.960711E-17
3.528567E+03	2.148628E-14	1.961073E-17
3.529564E+03	2.148946E-14	1.961358E-17
3.530562E+03	2.149350E-14	1.961720E-17
3.531560E+03	2.149669E-14	1.962005E-17
3.532557E+03	2.149988E-14	1.962290E-17
3.533555E+03	2.150563E-14	1.962809E-17
3.534552E+03	2.151138E-14	1.963328E-17
3.535550E+03	2.151628E-14	1.963770E-17
3.536548E+03	2.152118E-14	1.964211E-17
3.537545E+03	2.152437E-14	1.964498E-17
3.538543E+03	2.152758E-14	1.964785E-17
3.539540E+03	2.152907E-14	1.964916E-17
3.540538E+03	2.153058E-14	1.965048E-17
3.541536E+03	2.153292E-14	1.965258E-17
3.542533E+03	2.153443E-14	1.965391E-17
3.543531E+03	2.153679E-14	1.965601E-17
3.544529E+03	2.153915E-14	1.965812E-17
3.545526E+03	2.153981E-14	1.965867E-17
3.546524E+03	2.154132E-14	1.966001E-17
3.547521E+03	2.154028E-14	1.965902E-17
3.548519E+03	2.153924E-14	1.965803E-17
3.549517E+03	2.153820E-14	1.965704E-17
3.550514E+03	2.153632E-14	1.965528E-17
3.551512E+03	2.153443E-14	1.965352E-17
3.552510E+03	2.153170E-14	1.965099E-17
3.553507E+03	2.152982E-14	1.964924E-17
3.554505E+03	2.152709E-14	1.964671E-17
3.555502E+03	2.152436E-14	1.964419E-17
3.556500E+03	2.152164E-14	1.964167E-17
3.557498E+03	2.151891E-14	1.963916E-17
3.558495E+03	2.151449E-14	1.963509E-17
3.559493E+03	2.150751E-14	1.962869E-17
3.560490E+03	2.150053E-14	1.962230E-17
3.561488E+03	2.149185E-14	1.961435E-17
3.562486E+03	2.148317E-14	1.960641E-17
3.563483E+03	2.147535E-14	1.959925E-17
3.564481E+03	2.146924E-14	1.959364E-17
3.565479E+03	2.145972E-14	1.958494E-17
3.566476E+03	2.144764E-14	1.957389E-17
3.567474E+03	2.143642E-14	1.956363E-17
3.568471E+03	2.142520E-14	1.955338E-17
3.569469E+03	2.141399E-14	1.954313E-17
3.570467E+03	2.140106E-14	1.953133E-17
3.571464E+03	2.138729E-14	1.951875E-17
3.572462E+03	2.137267E-14	1.950539E-17
3.573459E+03	2.135635E-14	1.949049E-17
3.574457E+03	2.134002E-14	1.947558E-17
3.575455E+03	2.132456E-14	1.946146E-17
3.576452E+03	2.130910E-14	1.944735E-17
3.577450E+03	2.129619E-14	1.943557E-17
3.578448E+03	2.128244E-14	1.942301E-17
3.579445E+03	2.126870E-14	1.941047E-17
3.580443E+03	2.125495E-14	1.939792E-17
3.581440E+03	2.123864E-14	1.938304E-17
3.582438E+03	2.122234E-14	1.936817E-17
3.583436E+03	2.120518E-14	1.935251E-17
3.584433E+03	2.118889E-14	1.933765E-17
3.585431E+03	2.117344E-14	1.932356E-17
3.586428E+03	2.115715E-14	1.930869E-17
3.587426E+03	2.114000E-14	1.929306E-17
3.588424E+03	2.112201E-14	1.927664E-17
3.589421E+03	2.110572E-14	1.926178E-17
3.590419E+03	2.108944E-14	1.924694E-17
3.591417E+03	2.107315E-14	1.923209E-17
3.592414E+03	2.105858E-14	1.921880E-17
3.593412E+03	2.104486E-14	1.920630E-17
3.594409E+03	2.103115E-14	1.919380E-17
3.595407E+03	2.101744E-14	1.918130E-17
3.596405E+03	2.100458E-14	1.916959E-17
3.597402E+03	2.099173E-14	1.915787E-17
3.598400E+03	2.097802E-14	1.914538E-17
3.599397E+03	2.096261E-14	1.913134E-17
3.600395E+03	2.094805E-14	1.911808E-17
3.601393E+03	2.093436E-14	1.910560E-17
3.602390E+03	2.092151E-14	1.909390E-17
3.603388E+03	2.090867E-14	1.908220E-17
3.604386E+03	2.089754E-14	1.907207E-17
3.605383E+03	2.088471E-14	1.906038E-17
3.606381E+03	2.087358E-14	1.905025E-17
3.607378E+03	2.086245E-14	1.904013E-17
3.608376E+03	2.085304E-14	1.903157E-17
3.609374E+03	2.084534E-14	1.902457E-17
3.610371E+03	2.084021E-14	1.901992E-17
3.611369E+03	2.083422E-14	1.901448E-17
3.612366E+03	2.082653E-14	1.900750E-17
3.613364E+03	2.081884E-14	1.900051E-17
3.614362E+03	2.081029E-14	1.899274E-17
3.615359E+03	2.080089E-14	1.898420E-17
3.616357E+03	2.079236E-14	1.897644E-17
3.617355E+03	2.078382E-14	1.896868E-17
3.618352E+03	2.077528E-14	1.896093E-17
3.619350E+03	2.076675E-14	1.895318E-17
3.620347E+03	2.075821E-14	1.894542E-17
3.621345E+03	2.075140E-14	1.893924E-17
3.622343E+03	2.074543E-14	1.893384E-17
3.623340E+03	2.073862E-14	1.892766E-17
3.624338E+03	2.073095E-14	1.892070E-17
3.625335E+03	2.071986E-14	1.891062E-17
3.626333E+03	2.070878E-14	1.890054E-17
3.627331E+03	2.069855E-14	1.889125E-17
3.628328E+03	2.069003E-14	1.888352E-17
3.629326E+03	2.068408E-14	1.887813E-17
3.630324E+03	2.068070E-14	1.887509E-17
3.631321E+03	2.067732E-14	1.887205E-17
3.632319E+03	2.067395E-14	1.886901E-17
3.633316E+03	2.067058E-14	1.886598E-17
3.634314E+03	2.066806E-14	1.886373E-17
3.635312E+03	2.066726E-14	1.886305E-17
3.636309E+03	2.066561E-14	1.886158E-17
3.637307E+03	2.066481E-14	1.886090E-17
3.638304E+03	2.066487E-14	1.886100E-17
3.639302E+03	2.066493E-14	1.886111E-17
3.640300E+03	2.066500E-14	1.886122E-17
3.641297E+03	2.066678E-14	1.886290E-17
3.642295E+03	2.066857E-14	1.886457E-17
3.643293E+03	2.067120E-14	1.886703E-17
3.644290E+03	2.067470E-14	1.887027E-17
3.645288E+03	2.067907E-14	1.887431E-17
3.646285E+03	2.068343E-14	1.887834E-17
3.647283E+03	2.068779E-14	1.888237E-17
3.648281E+03	2.069216E-14	1.888641E-17
3.649278E+03	2.069738E-14	1.889123E-17
3.650276E+03	2.070261E-14	1.889606E-17
3.651273E+03	2.070870E-14	1.890167E-17
3.652271E+03	2.071736E-14	1.890963E-17
3.653269E+03	2.072859E-14	1.891993E-17
3.654266E+03	2.073983E-14	1.893024E-17
3.655264E+03	2.075192E-14	1.894133E-17
3.656262E+03	2.076402E-14	1.895243E-17
3.657259E+03	2.077612E-14	1.896353E-17
3.658257E+03	2.078737E-14	1.897385E-17
3.659254E+03	2.079691E-14	1.898262E-17
3.660252E+03	2.080559E-14	1.899060E-17
3.661250E+03	2.081257E-14	1.899702E-17
3.662247E+03	2.081955E-14	1.900344E-17
3.663245E+03	2.082567E-14	1.900909E-17
3.664242E+03	2.083180E-14	1.901474E-17
3.665240E+03	2.083878E-14	1.902117E-17
3.666238E+03	2.084577E-14	1.902761E-17
3.667235E+03	2.085447E-14	1.903561E-17
3.668233E+03	2.086147E-14	1.904205E-17
3.669231E+03	2.086761E-14	1.904771E-17
3.670228E+03	2.087461E-14	1.905416E-17
3.671226E+03	2.088247E-14	1.906139E-17
3.672223E+03	2.089032E-14	1.906862E-17
3.673221E+03	2.089905E-14	1.907664E-17
3.674219E+03	2.090691E-14	1.908388E-17
3.675216E+03	2.091479E-14	1.909113E-17
3.676214E+03	2.092180E-14	1.909759E-17
3.677211E+03	2.092968E-14	1.910484E-17
3.678209E+03	2.093755E-14	1.911209E-17
3.679207E+03	2.094458E-14	1.911856E-17
3.680204E+03	2.095075E-14	1.912425E-17
3.681202E+03	2.095521E-14	1.912838E-17
3.682200E+03	2.095966E-14	1.913251E-17
3.683197E+03	2.096584E-14	1.913820E-17
3.684195E+03	2.097116E-14	1.914312E-17
3.685192E+03	2.097563E-14	1.914726E-17
3.686190E+03	2.097752E-14	1.914905E-17
3.687188E+03	2.097942E-14	1.915084E-17
3.688185E+03	2.098046E-14	1.915185E-17
3.689183E+03	2.097979E-14	1.915130E-17
3.690180E+03	2.097912E-14	1.915075E-17
3.691178E+03	2.097673E-14	1.914863E-17
3.692176E+03	2.097435E-14	1.914651E-17
3.693173E+03	2.097197E-14	1.914440E-17
3.694171E+03	2.096873E-14	1.914150E-17
3.695169E+03	2.096464E-14	1.913782E-17
3.696166E+03	2.095968E-14	1.913336E-17
3.697164E+03	2.095388E-14	1.912812E-17
3.698161E+03	2.094807E-14	1.912288E-17
3.699159E+03	2.094141E-14	1.911686E-17
3.700157E+03	2.093303E-14	1.910927E-17
3.701154E+03	2.092207E-14	1.909932E-17
3.702152E+03	2.091112E-14	1.908939E-17
3.703149E+03	2.090017E-14	1.907945E-17
3.704147E+03	2.088921E-14	1.906950E-17
3.705145E+03	2.087655E-14	1.905800E-17
3.706142E+03	2.086302E-14	1.904571E-17
3.707140E+03	2.084778E-14	1.903186E-17
3.708138E+03	2.083081E-14	1.901643E-17
3.709135E+03	2.081300E-14	1.900022E-17
3.710133E+03	2.079518E-14	1.898401E-17
3.711130E+03	2.077650E-14	1.896702E-17
3.712128E+03	2.075696E-14	1.894924E-17
3.713126E+03	2.073656E-14	1.893067E-17
3.714123E+03	2.071359E-14	1.890976E-17
3.715121E+03	2.068718E-14	1.888570E-17
3.716118E+03	2.066162E-14	1.886243E-17
3.717116E+03	2.063693E-14	1.883994E-17
3.718114E+03	2.061052E-14	1.881588E-17
3.719111E+03	2.058324E-14	1.879104E-17
3.720109E+03	2.055683E-14	1.876698E-17
3.721107E+03	2.052955E-14	1.874213E-17
3.722104E+03	2.050227E-14	1.871728E-17
3.723102E+03	2.047413E-14	1.869164E-17
3.724099E+03	2.044685E-14	1.866680E-17
3.725097E+03	2.042043E-14	1.864273E-17
3.726095E+03	2.039400E-14	1.861866E-17
3.727092E+03	2.036844E-14	1.859537E-17
3.728090E+03	2.034201E-14	1.857130E-17
3.729087E+03	2.031644E-14	1.854800E-17
3.730085E+03	2.028916E-14	1.852315E-17
3.731083E+03	2.026186E-14	1.849828E-17
3.732080E+03	2.023371E-14	1.847263E-17
3.733078E+03	2.020556E-14	1.844698E-17
3.734076E+03	2.017741E-14	1.842133E-17
3.735073E+03	2.014925E-14	1.839568E-17
3.736071E+03	2.012024E-14	1.836924E-17
3.737068E+03	2.009122E-14	1.834279E-17
3.738066E+03	2.006306E-14	1.831713E-17
3.739064E+03	2.003490E-14	1.829147E-17
3.740061E+03	2.000501E-14	1.826423E-17
3.741059E+03	1.997426E-14	1.823621E-17
3.742056E+03	1.994180E-14	1.820662E-17
3.743054E+03	1.990761E-14	1.817545E-17
3.744052E+03	1.987514E-14	1.814585E-17
3.745049E+03	1.984180E-14	1.811546E-17
3.746047E+03	1.980846E-14	1.808507E-17
3.747045E+03	1.977512E-14	1.805468E-17
3.748042E+03	1.974265E-14	1.802507E-17
3.749040E+03	1.970930E-14	1.799467E-17
3.750037E+03	1.967510E-14	1.796349E-17
3.751035E+03	1.964175E-14	1.793308E-17
3.752033E+03	1.960840E-14	1.790268E-17
3.753030E+03	1.957504E-14	1.787227E-17
3.754028E+03	1.954169E-14	1.784186E-17
3.755025E+03	1.950747E-14	1.781066E-17
3.756023E+03	1.947325E-14	1.777946E-17
3.757021E+03	1.943817E-14	1.774747E-17
3.758018E+03	1.940481E-14	1.771705E-17
3.759016E+03	1.937144E-14	1.768662E-17
3.760014E+03	1.933807E-14	1.765620E-17
3.761011E+03	1.930298E-14	1.762420E-17
3.762009E+03	1.926960E-14	1.759376E-17
3.763006E+03	1.923622E-14	1.756333E-17
3.764004E+03	1.920198E-14	1.753210E-17
3.765002E+03	1.916774E-14	1.750088E-17
3.765999E+03	1.913522E-14	1.747122E-17
3.766997E+03	1.910270E-14	1.744156E-17
3.767994E+03	1.907189E-14	1.741347E-17
3.768992E+03	1.904281E-14	1.738695E-17
3.769990E+03	1.901545E-14	1.736201E-17
3.770987E+03	1.898895E-14	1.733785E-17
3.771985E+03	1.896158E-14	1.731289E-17
3.772983E+03	1.893508E-14	1.728873E-17
3.773980E+03	1.890943E-14	1.726535E-17
3.774978E+03	1.888465E-14	1.724275E-17
3.775975E+03	1.886158E-14	1.722172E-17
3.776973E+03	1.884024E-14	1.720227E-17
3.777971E+03	1.882062E-14	1.718439E-17
3.778968E+03	1.880360E-14	1.716887E-17
3.779966E+03	1.878828E-14	1.715492E-17
3.780963E+03	1.877298E-14	1.714097E-17
3.781961E+03	1.875853E-14	1.712781E-17
3.782959E+03	1.874580E-14	1.711622E-17
3.783956E+03	1.873480E-14	1.710620E-17
3.784954E+03	1.872553E-14	1.709777E-17
3.785952E+03	1.871625E-14	1.708932E-17
3.786949E+03	1.870784E-14	1.708167E-17
3.787947E+03	1.870029E-14	1.707480E-17
3.788944E+03	1.869360E-14	1.706872E-17
3.789942E+03	1.868864E-14	1.706422E-17
3.790940E+03	1.868541E-14	1.706129E-17
3.791937E+03	1.868217E-14	1.705836E-17
3.792935E+03	1.868153E-14	1.705780E-17
3.793933E+03	1.868089E-14	1.705723E-17
3.794930E+03	1.868110E-14	1.705745E-17
3.795928E+03	1.868305E-14	1.705926E-17
3.796925E+03	1.868673E-14	1.706263E-17
3.797923E+03	1.869299E-14	1.706837E-17
3.798921E+03	1.869926E-14	1.707411E-17
3.799918E+03	1.870725E-14	1.708144E-17
3.800916E+03	1.871611E-14	1.708954E-17
3.801913E+03	1.872497E-14	1.709766E-17
3.802911E+03	1.873470E-14	1.710655E-17
3.803909E+03	1.874615E-14	1.711703E-17
3.804906E+03	1.875847E-14	1.712830E-17
3.805904E+03	1.877166E-14	1.714036E-17
3.806902E+03	1.878485E-14	1.715242E-17
3.807899E+03	1.879718E-14	1.716370E-17
3.808897E+03	1.880951E-14	1.717497E-17
3.809894E+03	1.882357E-14	1.718783E-17
3.810892E+03	1.883764E-14	1.720069E-17
3.811890E+03	1.885171E-14	1.721355E-17
3.812887E+03	1.886577E-14	1.722640E-17
3.813885E+03	1.888071E-14	1.724006E-17
3.814882E+03	1.889479E-14	1.725292E-17
3.815880E+03	1.890887E-14	1.726579E-17
3.816878E+03	1.892295E-14	1.727866E-17
3.817875E+03	1.893790E-14	1.729232E-17
3.818873E+03	1.895284E-14	1.730598E-17
3.819871E+03	1.896693E-14	1.731885E-17
3.820868E+03	1.898103E-14	1.733173E-17
3.821866E+03	1.899512E-14	1.734461E-17
3.822863E+03	1.900749E-14	1.735591E-17
3.823861E+03	1.901814E-14	1.736564E-17
3.824859E+03	1.902792E-14	1.737458E-17
3.825856E+03	1.903684E-14	1.738273E-17
3.826854E+03	1.904576E-14	1.739088E-17
