#wls	flux	fluxerr
1.596185E+03	1.300977E-15	1.499469E-17
1.636090E+03	1.316414E-15	1.509875E-17
1.675994E+03	1.327610E-15	1.515112E-17
1.715899E+03	1.334564E-15	1.515248E-17
1.755804E+03	1.337169E-15	1.510230E-17
1.795708E+03	1.334731E-15	1.499357E-17
1.835613E+03	1.326317E-15	1.481676E-17
1.875518E+03	1.310915E-15	1.456179E-17
1.915422E+03	1.287570E-15	1.421946E-17
1.955327E+03	1.255960E-15	1.378787E-17
1.995231E+03	1.217138E-15	1.328025E-17
2.035136E+03	1.175190E-15	1.274249E-17
2.075041E+03	1.137682E-15	1.225689E-17
2.114945E+03	1.115057E-15	1.193444E-17
2.154850E+03	1.116528E-15	1.187002E-17
2.194755E+03	1.146274E-15	1.210256E-17
2.234659E+03	1.201883E-15	1.260049E-17
2.274564E+03	1.277083E-15	1.329257E-17
2.314468E+03	1.364927E-15	1.410235E-17
2.354373E+03	1.460090E-15	1.497203E-17
2.394278E+03	1.559245E-15	1.586572E-17
2.434182E+03	1.661077E-15	1.676892E-17
2.474087E+03	1.765086E-15	1.767568E-17
2.513992E+03	1.871788E-15	1.859027E-17
2.553896E+03	1.981625E-15	1.951612E-17
2.593801E+03	2.095369E-15	2.045970E-17
2.633705E+03	2.213861E-15	2.142793E-17
2.673610E+03	2.337978E-15	2.242772E-17
2.713515E+03	2.468606E-15	2.346583E-17
2.753419E+03	2.606540E-15	2.454785E-17
2.793324E+03	2.752770E-15	2.568090E-17
2.833229E+03	2.908279E-15	2.687170E-17
2.873133E+03	3.073931E-15	2.812555E-17
2.913038E+03	3.250540E-15	2.944703E-17
2.952942E+03	3.439042E-15	3.084153E-17
2.992847E+03	3.639534E-15	3.230673E-17
3.002823E+03	3.691556E-15	3.268393E-17
3.012799E+03	3.744290E-15	3.306498E-17
3.022776E+03	3.797717E-15	3.344965E-17
3.032752E+03	3.851997E-15	3.383930E-17
3.042728E+03	3.907003E-15	3.423279E-17
3.052704E+03	3.963065E-15	3.463295E-17
3.062680E+03	4.020108E-15	3.503903E-17
3.072656E+03	4.078154E-15	3.545120E-17
3.082633E+03	4.136927E-15	3.586697E-17
3.092609E+03	4.196656E-15	3.628830E-17
3.102585E+03	4.256962E-15	3.671185E-17
3.112561E+03	4.317872E-15	3.713783E-17
3.122537E+03	4.379412E-15	3.756643E-17
3.132513E+03	4.441307E-15	3.799525E-17
3.142489E+03	4.503580E-15	3.842448E-17
3.152466E+03	4.566155E-15	3.885347E-17
3.162442E+03	4.628855E-15	3.928069E-17
3.172418E+03	4.691702E-15	3.970633E-17
3.182394E+03	4.754616E-15	4.012973E-17
3.192370E+03	4.817316E-15	4.054852E-17
3.202346E+03	4.879820E-15	4.096289E-17
3.212323E+03	4.942045E-15	4.137218E-17
3.222299E+03	5.003907E-15	4.177571E-17
3.232275E+03	5.065122E-15	4.217115E-17
3.242251E+03	5.125803E-15	4.255952E-17
3.252227E+03	5.185763E-15	4.293931E-17
3.262203E+03	5.244717E-15	4.330825E-17
3.272179E+03	5.302780E-15	4.366735E-17
3.282156E+03	5.359764E-15	4.401518E-17
3.292132E+03	5.415490E-15	4.435033E-17
3.302108E+03	5.469972E-15	4.467304E-17
3.312084E+03	5.522937E-15	4.498120E-17
3.322060E+03	5.574409E-15	4.527512E-17
3.332036E+03	5.624221E-15	4.555357E-17
3.342013E+03	5.672312E-15	4.581619E-17
3.351989E+03	5.718531E-15	4.606191E-17
3.361965E+03	5.762837E-15	4.629054E-17
3.371941E+03	5.805093E-15	4.650115E-17
3.381917E+03	5.845376E-15	4.669451E-17
3.391893E+03	5.883594E-15	4.687003E-17
3.401870E+03	5.919645E-15	4.702707E-17
3.411846E+03	5.953656E-15	4.716682E-17
3.421822E+03	5.985488E-15	4.728831E-17
3.431798E+03	6.015198E-15	4.739219E-17
3.441774E+03	6.042962E-15	4.747998E-17
3.451750E+03	6.068798E-15	4.755200E-17
3.461726E+03	6.092738E-15	4.760862E-17
3.471703E+03	6.115022E-15	4.765188E-17
3.481679E+03	6.135747E-15	4.768265E-17
3.491655E+03	6.155009E-15	4.770182E-17
3.501631E+03	6.173134E-15	4.771202E-17
3.511607E+03	6.190367E-15	4.771522E-17
3.521583E+03	6.206988E-15	4.771368E-17
3.531560E+03	6.223154E-15	4.770866E-17
3.541536E+03	6.239396E-15	4.770426E-17
3.551512E+03	6.256037E-15	4.770297E-17
3.561488E+03	6.273485E-15	4.770792E-17
3.571464E+03	6.292397E-15	4.772404E-17
3.581440E+03	6.313389E-15	4.775595E-17
3.591417E+03	6.337200E-15	4.780911E-17
3.601393E+03	6.364939E-15	4.789175E-17
3.611369E+03	6.397367E-15	4.800936E-17
3.621345E+03	6.435579E-15	4.816991E-17
3.631321E+03	6.480500E-15	4.838000E-17
3.641297E+03	6.532718E-15	4.864365E-17
3.651273E+03	6.592880E-15	4.896526E-17
3.661250E+03	6.661112E-15	4.934535E-17
3.671226E+03	6.737236E-15	4.978216E-17
3.681202E+03	6.820814E-15	5.027204E-17
3.691178E+03	6.911261E-15	5.081032E-17
3.701154E+03	7.007552E-15	5.138913E-17
3.711130E+03	7.108750E-15	5.200134E-17
3.721107E+03	7.214106E-15	5.264124E-17
3.731083E+03	7.322914E-15	5.330353E-17
3.741059E+03	7.434954E-15	5.398646E-17
3.751035E+03	7.550494E-15	5.469186E-17
3.761011E+03	7.670369E-15	5.542560E-17
3.770987E+03	7.795889E-15	5.619698E-17
3.780963E+03	7.928973E-15	5.701953E-17
3.790940E+03	8.072009E-15	5.791006E-17
3.800916E+03	8.227345E-15	5.888494E-17
3.810892E+03	8.397691E-15	5.996294E-17
3.820868E+03	8.585177E-15	6.115856E-17
3.830844E+03	8.791775E-15	6.248504E-17
3.840820E+03	9.018734E-15	6.395038E-17
3.850797E+03	9.266282E-15	6.555530E-17
3.860773E+03	9.534168E-15	6.729711E-17
3.870749E+03	9.820477E-15	6.916149E-17
3.880725E+03	1.012260E-14	7.112933E-17
3.890701E+03	1.043645E-14	7.317140E-17
3.900677E+03	1.075688E-14	7.525123E-17
3.910654E+03	1.107757E-14	7.732462E-17
3.920630E+03	1.139175E-14	7.934445E-17
3.930606E+03	1.169174E-14	8.125782E-17
3.940582E+03	1.197013E-14	8.301418E-17
3.950558E+03	1.221977E-14	8.456511E-17
3.960534E+03	1.243461E-14	8.587015E-17
3.970510E+03	1.260977E-14	8.689738E-17
3.980487E+03	1.274175E-14	8.762459E-17
3.990463E+03	1.282876E-14	8.804129E-17
4.000439E+03	1.287059E-14	8.814806E-17
4.010415E+03	1.286806E-14	8.795244E-17
4.020391E+03	1.282327E-14	8.747057E-17
4.030367E+03	1.273872E-14	8.672120E-17
4.040344E+03	1.261794E-14	8.573001E-17
4.050320E+03	1.246458E-14	8.452304E-17
4.060296E+03	1.228276E-14	8.312946E-17
4.070272E+03	1.207697E-14	8.158058E-17
4.080248E+03	1.185207E-14	7.991005E-17
4.090224E+03	1.161290E-14	7.815115E-17
4.100201E+03	1.136493E-14	7.634101E-17
4.110177E+03	1.111349E-14	7.451550E-17
4.120153E+03	1.086402E-14	7.271121E-17
4.130129E+03	1.062198E-14	7.096434E-17
4.140105E+03	1.039267E-14	6.930984E-17
4.150081E+03	1.018130E-14	6.778186E-17
4.160057E+03	9.992560E-15	6.641094E-17
4.170034E+03	9.830854E-15	6.522534E-17
4.180010E+03	9.700075E-15	6.424991E-17
4.189986E+03	9.603449E-15	6.350488E-17
4.199962E+03	9.543493E-15	6.300572E-17
4.209938E+03	9.521539E-15	6.276000E-17
4.219914E+03	9.537854E-15	6.276828E-17
4.229891E+03	9.591068E-15	6.302039E-17
4.239867E+03	9.678254E-15	6.349605E-17
4.249843E+03	9.794815E-15	6.416416E-17
4.259819E+03	9.934255E-15	6.498145E-17
4.269795E+03	1.008866E-14	6.589565E-17
4.279771E+03	1.024864E-14	6.684527E-17
4.289748E+03	1.040414E-14	6.776464E-17
4.299724E+03	1.054469E-14	6.858596E-17
4.309700E+03	1.066049E-14	6.924614E-17
4.319676E+03	1.074299E-14	6.969027E-17
4.329652E+03	1.078593E-14	6.987892E-17
4.339628E+03	1.078586E-14	6.979070E-17
4.349604E+03	1.074291E-14	6.942747E-17
4.359581E+03	1.066059E-14	6.881301E-17
4.369557E+03	1.054602E-14	6.799408E-17
4.379533E+03	1.040917E-14	6.703551E-17
4.389509E+03	1.026186E-14	6.601371E-17
4.399485E+03	1.011728E-14	6.501357E-17
4.409461E+03	9.988758E-15	6.412047E-17
4.419438E+03	9.888834E-15	6.341435E-17
4.429414E+03	9.828842E-15	6.296719E-17
4.439390E+03	9.817820E-15	6.283598E-17
4.449366E+03	9.862424E-15	6.306235E-17
4.459342E+03	9.966372E-15	6.366902E-17
4.469318E+03	1.013058E-14	6.466082E-17
4.479294E+03	1.035246E-14	6.602031E-17
4.489271E+03	1.062623E-14	6.770971E-17
4.499247E+03	1.094282E-14	6.967056E-17
4.509223E+03	1.129013E-14	7.182531E-17
4.519199E+03	1.165327E-14	7.407896E-17
4.529175E+03	1.201543E-14	7.632471E-17
4.539151E+03	1.235837E-14	7.844685E-17
4.549128E+03	1.266420E-14	8.033223E-17
4.559104E+03	1.291599E-14	8.187413E-17
4.569080E+03	1.309967E-14	8.298420E-17
4.579056E+03	1.320554E-14	8.360187E-17
4.589032E+03	1.322831E-14	8.369468E-17
4.599008E+03	1.316843E-14	8.326627E-17
4.608985E+03	1.303164E-14	8.235391E-17
4.618961E+03	1.282784E-14	8.102082E-17
4.628937E+03	1.257067E-14	7.935372E-17
4.638913E+03	1.227581E-14	7.745195E-17
4.648889E+03	1.195974E-14	7.541962E-17
4.658865E+03	1.163856E-14	7.335841E-17
4.668841E+03	1.132711E-14	7.136161E-17
4.678818E+03	1.103826E-14	6.951003E-17
4.688794E+03	1.078279E-14	6.787136E-17
4.698770E+03	1.056906E-14	6.649767E-17
4.708746E+03	1.040317E-14	6.542698E-17
4.718722E+03	1.028900E-14	6.468320E-17
4.728698E+03	1.022850E-14	6.427812E-17
4.738675E+03	1.022182E-14	6.421236E-17
4.748651E+03	1.026733E-14	6.447517E-17
4.758627E+03	1.036200E-14	6.504720E-17
4.768603E+03	1.050134E-14	6.589992E-17
4.778579E+03	1.067947E-14	6.699623E-17
4.788555E+03	1.088961E-14	6.829342E-17
4.798532E+03	1.112364E-14	6.974033E-17
4.808508E+03	1.137289E-14	7.128260E-17
4.818484E+03	1.162824E-14	7.286295E-17
4.828460E+03	1.188013E-14	7.442159E-17
4.838436E+03	1.211952E-14	7.590185E-17
4.848412E+03	1.233827E-14	7.725290E-17
4.858388E+03	1.252936E-14	7.843093E-17
4.868365E+03	1.268719E-14	7.940097E-17
4.878341E+03	1.280826E-14	8.014134E-17
4.888317E+03	1.289078E-14	8.064098E-17
4.898293E+03	1.293440E-14	8.089791E-17
4.908269E+03	1.294042E-14	8.092022E-17
4.918245E+03	1.291077E-14	8.072030E-17
4.928222E+03	1.284797E-14	8.031389E-17
4.938198E+03	1.275504E-14	7.971998E-17
4.948174E+03	1.263490E-14	7.895687E-17
4.958150E+03	1.249098E-14	7.804606E-17
4.968126E+03	1.232712E-14	7.701157E-17
4.978102E+03	1.214754E-14	7.587980E-17
4.988078E+03	1.195752E-14	7.468365E-17
4.998055E+03	1.176280E-14	7.345914E-17
5.008031E+03	1.156964E-14	7.224513E-17
5.018007E+03	1.138489E-14	7.108445E-17
5.027983E+03	1.121503E-14	7.001750E-17
5.037959E+03	1.106630E-14	6.908324E-17
5.047935E+03	1.094373E-14	6.831294E-17
5.057912E+03	1.085113E-14	6.773036E-17
5.067888E+03	1.079089E-14	6.735035E-17
5.077864E+03	1.076375E-14	6.717753E-17
5.087840E+03	1.076871E-14	6.720551E-17
5.097816E+03	1.080350E-14	6.742021E-17
5.107792E+03	1.086454E-14	6.779929E-17
5.117769E+03	1.094773E-14	6.831712E-17
5.127745E+03	1.104834E-14	6.894420E-17
5.137721E+03	1.116146E-14	6.964990E-17
5.147697E+03	1.128262E-14	7.040636E-17
5.157673E+03	1.140774E-14	7.118816E-17
5.167649E+03	1.153333E-14	7.197359E-17
5.177625E+03	1.165666E-14	7.274553E-17
5.187602E+03	1.177539E-14	7.348951E-17
5.197578E+03	1.188760E-14	7.419355E-17
5.207554E+03	1.199152E-14	7.484662E-17
5.217530E+03	1.208541E-14	7.543788E-17
5.227506E+03	1.216752E-14	7.595642E-17
5.237482E+03	1.223571E-14	7.638889E-17
5.247459E+03	1.228796E-14	7.672273E-17
5.257435E+03	1.232230E-14	7.694560E-17
5.267411E+03	1.233664E-14	7.704439E-17
5.277387E+03	1.232969E-14	7.701111E-17
5.287363E+03	1.230084E-14	7.684183E-17
5.297339E+03	1.225015E-14	7.653697E-17
5.307316E+03	1.217842E-14	7.610139E-17
5.317292E+03	1.208740E-14	7.554599E-17
5.327268E+03	1.197976E-14	7.488744E-17
5.337244E+03	1.185830E-14	7.414308E-17
5.347220E+03	1.172650E-14	7.333479E-17
5.357196E+03	1.158785E-14	7.248416E-17
5.367172E+03	1.144605E-14	7.161446E-17
5.377149E+03	1.130452E-14	7.074692E-17
5.387125E+03	1.116629E-14	6.990059E-17
5.397101E+03	1.103375E-14	6.909045E-17
5.407077E+03	1.090876E-14	6.832807E-17
5.417053E+03	1.079249E-14	6.762085E-17
5.427029E+03	1.068519E-14	6.697048E-17
5.437006E+03	1.058664E-14	6.637550E-17
5.446982E+03	1.049543E-14	6.582712E-17
5.456958E+03	1.041015E-14	6.531649E-17
5.466934E+03	1.032879E-14	6.483098E-17
5.476910E+03	1.024974E-14	6.436044E-17
5.486886E+03	1.017139E-14	6.389471E-17
5.496862E+03	1.009243E-14	6.342554E-17
5.506839E+03	1.001227E-14	6.294910E-17
5.516815E+03	9.930287E-15	6.246150E-17
5.526791E+03	9.846467E-15	6.196255E-17
5.536767E+03	9.761066E-15	6.145379E-17
5.546743E+03	9.674499E-15	6.093780E-17
5.556719E+03	9.587502E-15	6.041915E-17
5.566696E+03	9.500747E-15	5.990203E-17
5.576672E+03	9.415023E-15	5.939137E-17
5.586648E+03	9.331062E-15	5.889178E-17
5.596624E+03	9.249664E-15	5.840827E-17
5.606600E+03	9.171595E-15	5.794568E-17
5.616576E+03	9.097441E-15	5.750770E-17
5.626553E+03	9.027767E-15	5.709793E-17
5.636529E+03	8.962995E-15	5.671904E-17
5.646505E+03	8.903309E-15	5.637222E-17
5.656481E+03	8.848820E-15	5.605820E-17
5.666457E+03	8.799392E-15	5.577614E-17
5.676433E+03	8.754905E-15	5.552531E-17
5.686409E+03	8.715273E-15	5.530519E-17
5.696386E+03	8.680083E-15	5.511320E-17
5.706362E+03	8.649424E-15	5.494991E-17
5.716338E+03	8.623165E-15	5.481454E-17
5.726314E+03	8.601525E-15	5.470850E-17
5.736290E+03	8.584629E-15	5.463262E-17
5.746266E+03	8.572639E-15	5.458796E-17
5.756243E+03	8.565803E-15	5.457614E-17
5.766219E+03	8.564006E-15	5.459648E-17
5.776195E+03	8.567177E-15	5.464855E-17
5.786171E+03	8.574840E-15	5.472937E-17
5.796147E+03	8.586471E-15	5.483561E-17
5.806123E+03	8.600979E-15	5.496034E-17
5.816100E+03	8.617591E-15	5.509864E-17
5.826076E+03	8.635200E-15	5.524344E-17
5.836052E+03	8.652803E-15	5.538830E-17
5.846028E+03	8.669403E-15	5.552685E-17
5.856004E+03	8.684207E-15	5.565396E-17
5.865980E+03	8.696486E-15	5.576494E-17
5.875956E+03	8.705935E-15	5.585779E-17
5.885933E+03	8.711977E-15	5.592876E-17
5.895909E+03	8.714623E-15	5.597788E-17
5.905885E+03	8.713697E-15	5.600397E-17
5.915861E+03	8.709497E-15	5.600890E-17
5.925837E+03	8.702408E-15	5.599510E-17
5.935813E+03	8.692912E-15	5.596563E-17
5.945790E+03	8.681749E-15	5.592524E-17
5.955766E+03	8.669794E-15	5.587954E-17
5.965742E+03	8.658094E-15	5.583527E-17
5.975718E+03	8.647424E-15	5.579741E-17
5.985694E+03	8.638855E-15	5.577291E-17
5.995670E+03	8.633005E-15	5.576577E-17
6.005647E+03	8.630557E-15	5.578042E-17
6.015623E+03	8.632004E-15	5.582009E-17
6.025599E+03	8.637262E-15	5.588428E-17
6.035575E+03	8.646353E-15	5.597316E-17
6.045551E+03	8.658697E-15	5.608302E-17
6.055527E+03	8.673581E-15	5.620927E-17
6.065503E+03	8.689896E-15	5.634475E-17
6.075480E+03	8.706118E-15	5.647957E-17
6.085456E+03	8.720683E-15	5.660359E-17
6.095432E+03	8.731451E-15	5.670290E-17
6.105408E+03	8.736041E-15	5.676198E-17
6.115384E+03	8.731973E-15	5.676466E-17
6.125360E+03	8.716256E-15	5.669140E-17
6.135337E+03	8.685803E-15	5.652200E-17
6.145313E+03	8.637652E-15	5.623703E-17
6.155289E+03	8.568891E-15	5.581735E-17
6.165265E+03	8.477053E-15	5.524670E-17
6.175241E+03	8.360402E-15	5.451353E-17
6.185217E+03	8.217899E-15	5.361085E-17
6.195193E+03	8.049787E-15	5.253999E-17
6.205170E+03	7.857412E-15	5.130952E-17
6.215146E+03	7.643556E-15	4.993739E-17
6.225122E+03	7.411865E-15	4.844722E-17
6.235098E+03	7.167425E-15	4.687215E-17
6.245074E+03	6.916154E-15	4.525078E-17
6.255050E+03	6.664574E-15	4.362573E-17
6.265027E+03	6.419659E-15	4.204271E-17
6.275003E+03	6.188607E-15	4.054895E-17
6.284979E+03	5.978793E-15	3.919293E-17
6.294955E+03	5.797319E-15	3.802144E-17
6.304931E+03	5.651117E-15	3.708024E-17
6.314907E+03	5.546946E-15	3.641405E-17
6.324884E+03	5.491483E-15	3.606711E-17
6.334860E+03	5.491585E-15	3.608495E-17
6.344836E+03	5.554049E-15	3.651277E-17
6.354812E+03	5.686359E-15	3.740040E-17
6.364788E+03	5.896017E-15	3.879788E-17
6.374764E+03	6.190968E-15	4.075823E-17
6.384740E+03	6.578888E-15	4.333286E-17
6.394717E+03	7.066579E-15	4.656747E-17
6.404693E+03	7.658537E-15	5.049270E-17
6.414669E+03	8.355765E-15	5.511617E-17
6.424645E+03	9.153756E-15	6.040919E-17
6.434621E+03	1.004047E-14	6.629324E-17
6.444597E+03	1.099539E-14	7.263363E-17
6.454574E+03	1.198881E-14	7.923481E-17
6.464550E+03	1.298319E-14	8.584871E-17
6.474526E+03	1.393507E-14	9.218800E-17
6.484502E+03	1.480065E-14	9.796227E-17
6.494478E+03	1.553867E-14	1.028974E-16
6.504454E+03	1.611641E-14	1.067754E-16
6.514431E+03	1.651258E-14	1.094535E-16
6.524407E+03	1.671841E-14	1.108718E-16
6.534383E+03	1.673803E-14	1.110558E-16
6.544359E+03	1.658689E-14	1.101061E-16
6.554335E+03	1.628745E-14	1.081704E-16
6.564311E+03	1.586758E-14	1.054324E-16
6.574287E+03	1.535634E-14	1.020840E-16
6.584264E+03	1.478261E-14	9.831658E-17
6.594240E+03	1.417176E-14	9.429828E-17
6.604216E+03	1.354633E-14	9.017872E-17
6.614192E+03	1.292385E-14	8.607474E-17
6.624168E+03	1.231823E-14	8.207887E-17
6.634144E+03	1.173986E-14	7.826074E-17
6.644121E+03	1.119516E-14	7.466329E-17
6.654097E+03	1.068819E-14	7.131403E-17
6.664073E+03	1.022101E-14	6.822709E-17
6.674049E+03	9.793741E-15	6.540357E-17
6.684025E+03	9.405582E-15	6.283857E-17
6.694001E+03	9.054528E-15	6.051903E-17
6.703977E+03	8.738596E-15	5.843205E-17
6.713954E+03	8.454982E-15	5.655918E-17
6.723930E+03	8.201180E-15	5.488394E-17
6.733906E+03	7.974558E-15	5.338898E-17
6.743882E+03	7.772351E-15	5.205602E-17
6.753858E+03	7.592561E-15	5.087188E-17
6.763834E+03	7.432653E-15	4.981976E-17
6.773811E+03	7.290878E-15	4.888812E-17
6.783787E+03	7.165239E-15	4.806370E-17
6.793763E+03	7.054284E-15	4.733690E-17
6.803739E+03	6.956649E-15	4.669866E-17
6.813715E+03	6.871143E-15	4.614112E-17
6.823691E+03	6.796505E-15	4.565587E-17
6.833668E+03	6.732006E-15	4.523813E-17
6.843644E+03	6.676649E-15	4.488126E-17
6.853620E+03	6.629568E-15	4.457950E-17
6.863596E+03	6.589894E-15	4.432707E-17
6.873572E+03	6.556742E-15	4.411806E-17
6.883548E+03	6.529101E-15	4.394573E-17
6.893524E+03	6.506062E-15	4.380398E-17
6.903501E+03	6.486828E-15	4.368748E-17
6.913477E+03	6.470423E-15	4.358969E-17
6.923453E+03	6.456037E-15	4.350516E-17
6.933429E+03	6.442940E-15	4.342899E-17
6.943405E+03	6.430500E-15	4.335694E-17
6.953381E+03	6.418083E-15	4.328472E-17
6.963358E+03	6.405376E-15	4.321024E-17
6.973334E+03	6.392066E-15	4.313139E-17
6.983310E+03	6.377827E-15	4.304597E-17
6.993286E+03	6.362525E-15	4.295308E-17
7.003262E+03	6.346104E-15	4.285234E-17
7.013238E+03	6.328571E-15	4.274379E-17
7.023215E+03	6.309984E-15	4.262785E-17
7.033191E+03	6.290449E-15	4.250521E-17
7.043167E+03	6.269993E-15	4.237608E-17
7.053143E+03	6.248995E-15	4.224302E-17
7.063119E+03	6.227316E-15	4.210509E-17
7.073095E+03	6.205476E-15	4.196583E-17
7.083071E+03	6.183369E-15	4.182452E-17
7.093048E+03	6.161435E-15	4.168414E-17
7.103024E+03	6.139803E-15	4.154559E-17
7.113000E+03	6.118712E-15	4.141049E-17
7.122976E+03	6.098508E-15	4.128120E-17
7.132952E+03	6.079197E-15	4.115778E-17
7.142928E+03	6.061191E-15	4.104303E-17
7.152905E+03	6.044434E-15	4.093658E-17
7.162881E+03	6.029254E-15	4.084068E-17
7.172857E+03	6.015501E-15	4.075433E-17
7.182833E+03	6.003300E-15	4.067839E-17
7.192809E+03	5.992624E-15	4.061270E-17
7.202785E+03	5.983409E-15	4.055685E-17
7.212762E+03	5.975562E-15	4.051021E-17
7.222738E+03	5.968860E-15	4.047130E-17
7.232714E+03	5.963380E-15	4.044066E-17
7.242690E+03	5.958753E-15	4.041580E-17
7.252666E+03	5.955024E-15	4.039705E-17
7.262642E+03	5.951782E-15	4.038164E-17
7.272618E+03	5.948926E-15	4.036890E-17
7.282595E+03	5.946223E-15	4.035726E-17
7.292571E+03	5.943417E-15	4.034501E-17
7.302547E+03	5.940230E-15	4.033027E-17
7.312523E+03	5.936470E-15	4.031176E-17
7.322499E+03	5.931593E-15	4.028580E-17
7.332475E+03	5.925475E-15	4.025155E-17
7.342452E+03	5.917650E-15	4.020588E-17
7.352428E+03	5.907760E-15	4.014636E-17
7.362404E+03	5.895560E-15	4.007132E-17
7.372380E+03	5.880600E-15	3.997772E-17
7.382356E+03	5.862568E-15	3.986346E-17
7.392332E+03	5.841195E-15	3.972670E-17
7.402308E+03	5.816373E-15	3.956671E-17
7.412285E+03	5.787726E-15	3.938093E-17
7.422261E+03	5.755399E-15	3.917036E-17
7.432237E+03	5.719179E-15	3.893353E-17
7.442213E+03	5.679283E-15	3.867193E-17
7.452189E+03	5.635912E-15	3.838691E-17
7.462165E+03	5.589366E-15	3.808051E-17
7.472142E+03	5.540044E-15	3.775546E-17
7.482118E+03	5.488328E-15	3.741434E-17
7.492094E+03	5.435018E-15	3.706260E-17
7.502070E+03	5.380670E-15	3.670404E-17
7.512046E+03	5.326137E-15	3.634448E-17
7.522022E+03	5.272132E-15	3.598879E-17
7.531999E+03	5.219635E-15	3.564367E-17
7.541975E+03	5.169551E-15	3.531533E-17
7.551951E+03	5.122686E-15	3.500930E-17
7.561927E+03	5.080022E-15	3.473233E-17
7.571903E+03	5.042387E-15	3.449012E-17
7.581879E+03	5.010423E-15	3.428713E-17
7.591855E+03	4.984979E-15	3.412922E-17
7.601832E+03	4.966356E-15	3.401855E-17
7.611808E+03	4.954998E-15	3.395823E-17
7.621784E+03	4.951037E-15	3.394927E-17
7.631760E+03	4.954361E-15	3.399101E-17
7.641736E+03	4.964697E-15	3.408167E-17
7.651712E+03	4.981186E-15	3.421548E-17
7.661689E+03	5.003038E-15	3.438711E-17
7.671665E+03	5.029162E-15	3.458916E-17
7.681641E+03	5.058337E-15	3.481332E-17
7.691617E+03	5.089389E-15	3.505160E-17
7.701593E+03	5.120822E-15	3.529375E-17
7.711569E+03	5.151634E-15	3.553291E-17
7.721546E+03	5.180611E-15	3.576074E-17
7.731522E+03	5.206913E-15	3.597143E-17
7.741498E+03	5.229547E-15	3.615814E-17
