#wls	flux	fluxerr
1.596185E+03	6.587742E-19	1.209870E-19
1.636090E+03	6.563305E-19	1.199062E-19
1.675994E+03	6.523654E-19	1.185398E-19
1.715899E+03	6.471883E-19	1.169482E-19
1.755804E+03	6.401503E-19	1.150186E-19
1.795708E+03	6.315119E-19	1.128036E-19
1.835613E+03	6.205395E-19	1.101783E-19
1.875518E+03	6.067430E-19	1.070642E-19
1.915422E+03	5.896770E-19	1.033935E-19
1.955327E+03	5.691743E-19	9.914881E-20
1.995231E+03	5.460090E-19	9.447722E-20
2.035136E+03	5.214651E-19	8.961018E-20
2.075041E+03	4.993576E-19	8.520516E-20
2.114945E+03	4.837930E-19	8.195041E-20
2.154850E+03	4.784742E-19	8.044517E-20
2.194755E+03	4.849121E-19	8.090302E-20
2.234659E+03	5.011992E-19	8.296214E-20
2.274564E+03	5.246232E-19	8.613706E-20
2.314468E+03	5.517566E-19	8.983911E-20
2.354373E+03	5.802393E-19	9.366990E-20
2.394278E+03	6.087531E-19	9.741051E-20
2.434182E+03	6.370624E-19	1.010211E-19
2.474087E+03	6.646605E-19	1.044206E-19
2.513992E+03	6.923772E-19	1.077390E-19
2.553896E+03	7.203709E-19	1.109979E-19
2.593801E+03	7.491226E-19	1.142671E-19
2.633705E+03	7.794512E-19	1.176642E-19
2.673610E+03	8.112595E-19	1.211648E-19
2.713515E+03	8.457273E-19	1.249335E-19
2.753419E+03	8.831129E-19	1.289922E-19
2.793324E+03	9.240338E-19	1.334126E-19
2.833229E+03	9.691716E-19	1.382709E-19
2.873133E+03	1.019291E-18	1.436495E-19
2.913038E+03	1.075680E-18	1.496979E-19
2.952942E+03	1.138976E-18	1.564664E-19
2.992847E+03	1.210370E-18	1.640741E-19
3.002823E+03	1.229525E-18	1.661071E-19
3.012799E+03	1.249294E-18	1.682032E-19
3.022776E+03	1.269702E-18	1.703646E-19
3.032752E+03	1.291290E-18	1.726631E-19
3.042728E+03	1.313117E-18	1.749712E-19
3.052704E+03	1.335814E-18	1.773724E-19
3.062680E+03	1.359395E-18	1.798673E-19
3.072656E+03	1.384397E-18	1.825253E-19
3.082633E+03	1.409810E-18	1.852116E-19
3.092609E+03	1.436168E-18	1.879953E-19
3.102585E+03	1.464043E-18	1.909498E-19
3.112561E+03	1.492379E-18	1.939353E-19
3.122537E+03	1.521743E-18	1.970246E-19
3.132513E+03	1.552746E-18	2.002950E-19
3.142489E+03	1.584280E-18	2.036015E-19
3.152466E+03	1.617551E-18	2.070975E-19
3.162442E+03	1.651412E-18	2.106343E-19
3.172418E+03	1.686497E-18	2.142912E-19
3.182394E+03	1.723489E-18	2.181530E-19
3.192370E+03	1.761180E-18	2.220643E-19
3.202346E+03	1.800911E-18	2.261923E-19
3.212323E+03	1.841428E-18	2.303770E-19
3.222299E+03	1.884132E-18	2.347919E-19
3.232275E+03	1.927723E-18	2.392719E-19
3.242251E+03	1.972946E-18	2.439078E-19
3.252227E+03	2.020612E-18	2.487967E-19
3.262203E+03	2.069340E-18	2.537657E-19
3.272179E+03	2.120706E-18	2.590052E-19
3.282156E+03	2.173273E-18	2.643364E-19
3.292132E+03	2.228694E-18	2.699576E-19
3.302108E+03	2.285470E-18	2.756836E-19
3.312084E+03	2.345343E-18	2.817210E-19
3.322060E+03	2.407616E-18	2.879818E-19
3.332036E+03	2.471516E-18	2.943700E-19
3.342013E+03	2.538928E-18	3.011064E-19
3.351989E+03	2.608177E-18	3.079878E-19
3.361965E+03	2.681253E-18	3.152449E-19
3.371941E+03	2.756403E-18	3.226665E-19
3.381917E+03	2.835731E-18	3.304943E-19
3.391893E+03	2.917400E-18	3.385085E-19
3.401870E+03	3.003638E-18	3.469626E-19
3.411846E+03	3.093617E-18	3.557538E-19
3.421822E+03	3.186401E-18	3.647692E-19
3.431798E+03	3.284426E-18	3.742816E-19
3.441774E+03	3.386813E-18	3.841828E-19
3.451750E+03	3.492560E-18	3.943526E-19
3.461726E+03	3.604342E-18	4.050859E-19
3.471703E+03	3.721216E-18	4.162676E-19
3.481679E+03	3.842115E-18	4.277705E-19
3.491655E+03	3.969980E-18	4.399138E-19
3.501631E+03	4.103814E-18	4.525761E-19
3.511607E+03	4.242456E-18	4.656202E-19
3.521583E+03	4.389167E-18	4.793945E-19
3.531560E+03	4.542875E-18	4.937691E-19
3.541536E+03	4.702325E-18	5.085967E-19
3.551512E+03	4.871147E-18	5.242585E-19
3.561488E+03	5.048183E-18	5.406152E-19
3.571464E+03	5.232078E-18	5.575087E-19
3.581440E+03	5.426866E-18	5.753554E-19
3.591417E+03	5.631308E-18	5.940066E-19
3.601393E+03	5.845921E-18	6.135006E-19
3.611369E+03	6.069159E-18	6.336593E-19
3.621345E+03	6.305697E-18	6.549538E-19
3.631321E+03	6.554120E-18	6.772161E-19
3.641297E+03	6.815069E-18	7.004922E-19
3.651273E+03	7.086785E-18	7.245816E-19
3.661250E+03	7.374722E-18	7.500210E-19
3.671226E+03	7.677285E-18	7.766223E-19
3.681202E+03	7.995254E-18	8.044399E-19
3.691178E+03	8.326622E-18	8.332471E-19
3.701154E+03	8.677788E-18	8.636587E-19
3.711130E+03	9.046941E-18	8.954627E-19
3.721107E+03	9.435035E-18	9.287231E-19
3.731083E+03	9.843075E-18	9.635068E-19
3.741059E+03	1.026865E-17	9.995464E-19
3.751035E+03	1.071965E-17	1.037576E-18
3.761011E+03	1.119392E-17	1.077346E-18
3.770987E+03	1.169265E-17	1.118933E-18
3.780963E+03	1.221713E-17	1.162418E-18
3.790940E+03	1.276870E-17	1.207883E-18
3.800916E+03	1.334428E-17	1.254998E-18
3.810892E+03	1.395407E-17	1.304673E-18
3.820868E+03	1.459533E-17	1.356598E-18
3.830844E+03	1.526967E-17	1.410869E-18
3.840820E+03	1.597878E-17	1.467587E-18
3.850797E+03	1.672443E-17	1.526855E-18
3.860773E+03	1.750268E-17	1.588255E-18
3.870749E+03	1.832677E-17	1.652927E-18
3.880725E+03	1.919320E-17	1.720482E-18
3.890701E+03	2.010407E-17	1.791036E-18
3.900677E+03	2.106159E-17	1.864712E-18
3.910654E+03	2.206807E-17	1.941636E-18
3.920630E+03	2.312592E-17	2.021937E-18
3.930606E+03	2.423766E-17	2.105748E-18
3.940582E+03	2.539760E-17	2.192491E-18
3.950558E+03	2.662466E-17	2.283709E-18
3.960534E+03	2.791376E-17	2.378858E-18
3.970510E+03	2.926786E-17	2.478087E-18
3.980487E+03	3.069002E-17	2.581545E-18
3.990463E+03	3.218343E-17	2.689388E-18
4.000439E+03	3.375140E-17	2.801774E-18
4.010415E+03	3.539736E-17	2.918864E-18
4.020391E+03	3.711291E-17	3.039841E-18
4.030367E+03	3.892507E-17	3.166793E-18
4.040344E+03	4.082624E-17	3.298945E-18
4.050320E+03	4.282032E-17	3.436466E-18
4.060296E+03	4.491139E-17	3.579532E-18
4.070272E+03	4.710365E-17	3.728318E-18
4.080248E+03	4.940133E-17	3.882991E-18
4.090224E+03	5.180889E-17	4.043731E-18
4.100201E+03	5.433087E-17	4.210713E-18
4.110177E+03	5.695375E-17	4.382714E-18
4.120153E+03	5.971772E-17	4.562642E-18
4.130129E+03	6.261026E-17	4.749323E-18
4.140105E+03	6.563635E-17	4.942928E-18
4.150081E+03	6.880099E-17	5.143619E-18
4.160057E+03	7.210927E-17	5.351555E-18
4.170034E+03	7.556635E-17	5.566890E-18
4.180010E+03	7.917741E-17	5.789771E-18
4.189986E+03	8.292158E-17	6.018442E-18
4.199962E+03	8.685503E-17	6.256746E-18
4.209938E+03	9.095805E-17	6.502978E-18
4.219914E+03	9.523577E-17	6.757242E-18
4.229891E+03	9.969336E-17	7.019635E-18
4.239867E+03	1.043358E-16	7.290230E-18
4.249843E+03	1.091679E-16	7.569086E-18
4.259819E+03	1.141945E-16	7.856242E-18
4.269795E+03	1.193829E-16	8.149188E-18
4.279771E+03	1.248099E-16	8.452879E-18
4.289748E+03	1.304439E-16	8.764841E-18
4.299724E+03	1.362883E-16	9.085006E-18
4.309700E+03	1.423465E-16	9.413281E-18
4.319676E+03	1.486209E-16	9.749526E-18
4.329652E+03	1.551136E-16	1.009357E-17
4.339628E+03	1.617763E-16	1.044198E-17
4.349604E+03	1.687068E-16	1.080081E-17
4.359581E+03	1.758572E-16	1.116664E-17
4.369557E+03	1.832263E-16	1.153908E-17
4.379533E+03	1.908120E-16	1.191773E-17
4.389509E+03	1.985521E-16	1.229844E-17
4.399485E+03	2.065638E-16	1.268825E-17
4.409461E+03	2.147872E-16	1.308313E-17
4.419438E+03	2.232194E-16	1.348266E-17
4.429414E+03	2.318566E-16	1.388637E-17
4.439390E+03	2.406214E-16	1.428941E-17
4.449366E+03	2.496509E-16	1.469975E-17
4.459342E+03	2.588682E-16	1.511259E-17
4.469318E+03	2.682656E-16	1.552728E-17
4.479294E+03	2.778341E-16	1.594313E-17
4.489271E+03	2.874775E-16	1.635452E-17
4.499247E+03	2.973542E-16	1.677037E-17
4.509223E+03	3.073687E-16	1.718510E-17
4.519199E+03	3.174126E-16	1.759262E-17
4.529175E+03	3.276584E-16	1.800249E-17
4.539151E+03	3.379985E-16	1.840867E-17
4.549128E+03	3.484165E-16	1.881027E-17
4.559104E+03	3.587882E-16	1.920068E-17
4.569080E+03	3.693053E-16	1.959025E-17
4.579056E+03	3.798449E-16	1.997247E-17
4.589032E+03	3.902715E-16	2.034039E-17
4.599008E+03	4.007922E-16	2.070501E-17
4.608985E+03	4.112730E-16	2.105950E-17
4.618961E+03	4.215676E-16	2.139666E-17
4.628937E+03	4.318994E-16	2.172811E-17
4.638913E+03	4.421242E-16	2.204681E-17
4.648889E+03	4.520865E-16	2.234535E-17
4.658865E+03	4.620261E-16	2.263602E-17
4.668841E+03	4.717908E-16	2.291159E-17
4.678818E+03	4.812186E-16	2.316456E-17
4.688794E+03	4.905674E-16	2.340771E-17
4.698770E+03	4.995333E-16	2.362681E-17
4.708746E+03	5.083857E-16	2.383497E-17
4.718722E+03	5.168123E-16	2.401785E-17
4.728698E+03	5.250936E-16	2.418891E-17
4.738675E+03	5.330649E-16	2.434079E-17
4.748651E+03	5.405536E-16	2.446606E-17
4.758627E+03	5.478568E-16	2.457862E-17
4.768603E+03	5.546460E-16	2.466405E-17
4.778579E+03	5.612282E-16	2.473647E-17
4.788555E+03	5.672715E-16	2.478159E-17
4.798532E+03	5.729272E-16	2.480655E-17
4.808508E+03	5.783541E-16	2.481859E-17
4.818484E+03	5.832158E-16	2.480360E-17
4.828460E+03	5.878415E-16	2.477607E-17
4.838436E+03	5.918928E-16	2.472207E-17
4.848412E+03	5.957066E-16	2.465616E-17
4.858388E+03	5.989442E-16	2.456465E-17
4.868365E+03	6.017759E-16	2.445506E-17
4.878341E+03	6.043789E-16	2.433493E-17
4.888317E+03	6.064135E-16	2.419089E-17
4.898293E+03	6.080585E-16	2.403060E-17
4.908269E+03	6.094941E-16	2.386148E-17
4.918245E+03	6.103836E-16	2.367066E-17
4.928222E+03	6.109104E-16	2.346574E-17
4.938198E+03	6.112577E-16	2.325404E-17
4.948174E+03	6.110924E-16	2.302315E-17
4.958150E+03	6.106010E-16	2.278057E-17
4.968126E+03	6.097968E-16	2.252710E-17
4.978102E+03	6.088653E-16	2.226984E-17
4.988078E+03	6.074799E-16	2.199706E-17
4.998055E+03	6.058266E-16	2.171592E-17
5.008031E+03	6.039223E-16	2.142728E-17
5.018007E+03	6.017836E-16	2.113198E-17
5.027983E+03	5.995941E-16	2.083666E-17
5.037959E+03	5.970353E-16	2.053041E-17
5.047935E+03	5.942920E-16	2.021993E-17
5.057912E+03	5.913815E-16	1.990600E-17
5.067888E+03	5.883205E-16	1.958939E-17
5.077864E+03	5.851253E-16	1.927081E-17
5.087840E+03	5.818123E-16	1.895096E-17
5.097816E+03	5.783983E-16	1.863056E-17
5.107792E+03	5.748982E-16	1.831022E-17
5.117769E+03	5.713283E-16	1.799060E-17
5.127745E+03	5.677035E-16	1.767229E-17
5.137721E+03	5.640379E-16	1.735584E-17
5.147697E+03	5.603462E-16	1.704181E-17
5.157673E+03	5.566419E-16	1.673071E-17
5.167649E+03	5.529381E-16	1.642301E-17
5.177625E+03	5.492475E-16	1.611917E-17
5.187602E+03	5.455823E-16	1.581963E-17
5.197578E+03	5.419538E-16	1.552478E-17
5.207554E+03	5.382258E-16	1.523084E-17
5.217530E+03	5.347050E-16	1.494660E-17
5.227506E+03	5.312526E-16	1.466813E-17
5.237482E+03	5.278782E-16	1.439575E-17
5.247459E+03	5.245909E-16	1.412977E-17
5.257435E+03	5.212570E-16	1.386669E-17
5.267411E+03	5.181699E-16	1.361440E-17
5.277387E+03	5.151941E-16	1.336933E-17
5.287363E+03	5.121976E-16	1.312814E-17
5.297339E+03	5.094666E-16	1.289827E-17
5.307316E+03	5.068675E-16	1.267633E-17
5.317292E+03	5.042695E-16	1.245915E-17
5.327268E+03	5.019529E-16	1.225377E-17
5.337244E+03	4.996502E-16	1.205372E-17
5.347220E+03	4.976379E-16	1.186578E-17
5.357196E+03	4.957848E-16	1.168687E-17
5.367172E+03	4.939625E-16	1.151408E-17
5.377149E+03	4.924424E-16	1.135390E-17
5.387125E+03	4.909628E-16	1.120038E-17
5.397101E+03	4.897925E-16	1.105983E-17
5.407077E+03	4.886712E-16	1.092647E-17
5.417053E+03	4.877347E-16	1.080355E-17
5.427029E+03	4.871169E-16	1.069418E-17
5.437006E+03	4.865591E-16	1.059280E-17
5.446982E+03	4.861952E-16	1.050256E-17
5.456958E+03	4.861579E-16	1.042648E-17
5.466934E+03	4.861892E-16	1.035919E-17
5.476910E+03	4.864213E-16	1.030375E-17
5.486886E+03	4.869854E-16	1.026309E-17
5.496862E+03	4.876214E-16	1.023191E-17
5.506839E+03	4.884588E-16	1.021316E-17
5.516815E+03	4.894964E-16	1.020693E-17
5.526791E+03	4.907325E-16	1.021299E-17
5.536767E+03	4.922956E-16	1.023371E-17
5.546743E+03	4.939220E-16	1.026327E-17
5.556719E+03	4.957398E-16	1.030400E-17
5.566696E+03	4.977465E-16	1.035552E-17
5.576672E+03	4.999396E-16	1.041743E-17
5.586648E+03	5.023162E-16	1.048934E-17
5.596624E+03	5.048737E-16	1.057085E-17
5.606600E+03	5.076093E-16	1.066155E-17
5.616576E+03	5.105203E-16	1.076105E-17
5.626553E+03	5.136037E-16	1.086895E-17
5.636529E+03	5.168569E-16	1.098486E-17
5.646505E+03	5.202770E-16	1.110838E-17
5.656481E+03	5.237231E-16	1.123617E-17
5.666457E+03	5.274674E-16	1.137372E-17
5.676433E+03	5.313700E-16	1.151772E-17
5.686409E+03	5.354278E-16	1.166780E-17
5.696386E+03	5.396379E-16	1.182358E-17
5.706362E+03	5.438547E-16	1.198155E-17
5.716338E+03	5.483596E-16	1.214758E-17
5.726314E+03	5.530077E-16	1.231822E-17
5.736290E+03	5.576501E-16	1.248981E-17
5.746266E+03	5.625745E-16	1.266851E-17
5.756243E+03	5.674847E-16	1.284737E-17
5.766219E+03	5.726729E-16	1.303270E-17
5.776195E+03	5.779889E-16	1.322084E-17
5.786171E+03	5.832773E-16	1.340795E-17
5.796147E+03	5.888380E-16	1.360061E-17
5.806123E+03	5.943619E-16	1.379144E-17
5.816100E+03	6.001544E-16	1.398722E-17
5.826076E+03	6.059010E-16	1.418038E-17
5.836052E+03	6.117531E-16	1.437417E-17
5.846028E+03	6.178683E-16	1.457202E-17
5.856004E+03	6.239237E-16	1.476608E-17
5.865980E+03	6.300749E-16	1.495974E-17
5.875956E+03	6.364841E-16	1.515659E-17
5.885933E+03	6.428194E-16	1.534849E-17
5.895909E+03	6.492411E-16	1.553898E-17
5.905885E+03	6.557465E-16	1.572775E-17
5.915861E+03	6.625038E-16	1.591857E-17
5.925837E+03	6.691688E-16	1.610295E-17
5.935813E+03	6.759085E-16	1.628462E-17
5.945790E+03	6.827200E-16	1.646328E-17
5.955766E+03	6.896006E-16	1.663861E-17
5.965742E+03	6.965475E-16	1.681033E-17
5.975718E+03	7.035582E-16	1.697811E-17
5.985694E+03	7.106298E-16	1.714168E-17
5.995670E+03	7.177599E-16	1.730074E-17
6.005647E+03	7.249459E-16	1.745502E-17
6.015623E+03	7.321852E-16	1.760423E-17
6.025599E+03	7.394755E-16	1.774811E-17
6.035575E+03	7.466220E-16	1.788180E-17
6.045551E+03	7.540045E-16	1.801422E-17
6.055527E+03	7.614302E-16	1.814054E-17
6.065503E+03	7.688965E-16	1.826054E-17
6.075480E+03	7.764009E-16	1.837399E-17
6.085456E+03	7.837391E-16	1.847592E-17
6.095432E+03	7.913091E-16	1.857559E-17
6.105408E+03	7.989083E-16	1.866808E-17
6.115384E+03	8.063268E-16	1.874839E-17
6.125360E+03	8.139735E-16	1.882595E-17
6.135337E+03	8.214291E-16	1.889097E-17
6.145313E+03	8.291100E-16	1.895298E-17
6.155289E+03	8.365878E-16	1.900213E-17
6.165265E+03	8.442867E-16	1.904804E-17
6.175241E+03	8.517710E-16	1.908087E-17
6.185217E+03	8.594702E-16	1.911030E-17
6.195193E+03	8.669431E-16	1.912652E-17
6.205170E+03	8.746244E-16	1.913925E-17
6.215146E+03	8.820644E-16	1.913873E-17
6.225122E+03	8.894795E-16	1.912987E-17
6.235098E+03	8.970922E-16	1.911760E-17
6.245074E+03	9.044399E-16	1.909224E-17
6.255050E+03	9.117440E-16	1.905881E-17
6.265027E+03	9.189975E-16	1.901748E-17
6.275003E+03	9.261933E-16	1.896846E-17
6.284979E+03	9.335617E-16	1.891680E-17
6.294955E+03	9.406212E-16	1.885317E-17
6.304931E+03	9.476003E-16	1.878276E-17
6.314907E+03	9.544913E-16	1.870598E-17
6.324884E+03	9.612857E-16	1.862332E-17
6.334860E+03	9.679750E-16	1.853529E-17
6.344836E+03	9.745504E-16	1.844251E-17
6.354812E+03	9.810030E-16	1.834566E-17
6.364788E+03	9.873259E-16	1.824551E-17
6.374764E+03	9.932561E-16	1.813825E-17
6.384740E+03	9.992887E-16	1.803404E-17
6.394717E+03	1.005165E-15	1.792925E-17
6.404693E+03	1.010875E-15	1.782491E-17
6.414669E+03	1.016410E-15	1.772219E-17
6.424645E+03	1.021503E-15	1.761781E-17
6.434621E+03	1.026663E-15	1.752205E-17
6.444597E+03	1.031622E-15	1.743173E-17
6.454574E+03	1.036110E-15	1.734387E-17
6.464550E+03	1.040643E-15	1.726874E-17
6.474526E+03	1.044952E-15	1.720339E-17
6.484502E+03	1.048761E-15	1.714494E-17
6.494478E+03	1.052593E-15	1.710361E-17
6.504454E+03	1.055908E-15	1.707214E-17
6.514431E+03	1.059231E-15	1.706062E-17
6.524407E+03	1.062022E-15	1.706181E-17
6.534383E+03	1.064824E-15	1.708578E-17
6.544359E+03	1.067100E-15	1.712522E-17
6.554335E+03	1.069124E-15	1.718564E-17
6.564311E+03	1.071175E-15	1.727217E-17
6.574287E+03	1.072717E-15	1.737575E-17
6.584264E+03	1.074029E-15	1.749998E-17
6.594240E+03	1.075390E-15	1.764846E-17
6.604216E+03	1.076266E-15	1.781131E-17
6.614192E+03	1.076934E-15	1.799189E-17
6.624168E+03	1.077405E-15	1.818903E-17
6.634144E+03	1.077686E-15	1.840155E-17
6.644121E+03	1.077788E-15	1.862825E-17
6.654097E+03	1.077719E-15	1.886786E-17
6.664073E+03	1.077489E-15	1.911916E-17
6.674049E+03	1.077109E-15	1.938097E-17
6.684025E+03	1.076587E-15	1.965208E-17
6.694001E+03	1.075934E-15	1.993136E-17
6.703977E+03	1.075160E-15	2.021772E-17
6.713954E+03	1.074276E-15	2.051013E-17
6.723930E+03	1.073289E-15	2.080757E-17
6.733906E+03	1.072211E-15	2.110912E-17
6.743882E+03	1.071050E-15	2.141389E-17
6.753858E+03	1.069816E-15	2.172110E-17
6.763834E+03	1.068248E-15	2.202438E-17
6.773811E+03	1.066895E-15	2.233409E-17
6.783787E+03	1.065493E-15	2.264408E-17
6.793763E+03	1.063783E-15	2.294792E-17
6.803739E+03	1.062310E-15	2.325661E-17
6.813715E+03	1.060809E-15	2.356384E-17
6.823691E+03	1.059021E-15	2.386311E-17
6.833668E+03	1.057485E-15	2.416595E-17
6.843644E+03	1.055672E-15	2.445978E-17
6.853620E+03	1.054121E-15	2.475654E-17
6.863596E+03	1.052300E-15	2.504331E-17
6.873572E+03	1.050747E-15	2.533242E-17
6.883548E+03	1.048931E-15	2.561072E-17
6.893524E+03	1.047385E-15	2.589081E-17
6.903501E+03	1.045578E-15	2.615929E-17
6.913477E+03	1.043778E-15	2.642235E-17
6.923453E+03	1.042246E-15	2.668645E-17
6.933429E+03	1.040455E-15	2.693782E-17
6.943405E+03	1.038667E-15	2.718287E-17
6.953381E+03	1.037142E-15	2.742826E-17
6.963358E+03	1.035352E-15	2.765983E-17
6.973334E+03	1.033556E-15	2.788416E-17
6.983310E+03	1.031750E-15	2.810095E-17
6.993286E+03	1.029931E-15	2.830990E-17
7.003262E+03	1.028094E-15	2.851074E-17
7.013238E+03	1.026233E-15	2.870309E-17
7.023215E+03	1.024344E-15	2.888670E-17
7.033191E+03	1.022420E-15	2.906125E-17
7.043167E+03	1.020455E-15	2.922638E-17
7.053143E+03	1.018444E-15	2.938184E-17
7.063119E+03	1.016381E-15	2.952731E-17
7.073095E+03	1.014258E-15	2.966245E-17
7.083071E+03	1.012069E-15	2.978699E-17
7.093048E+03	1.009808E-15	2.990062E-17
7.103024E+03	1.007469E-15	3.000309E-17
7.113000E+03	1.005047E-15	3.009412E-17
7.122976E+03	1.002533E-15	3.017342E-17
7.132952E+03	9.996686E-16	3.023307E-17
7.142928E+03	9.969587E-16	3.028825E-17
7.152905E+03	9.941420E-16	3.033104E-17
7.162881E+03	9.909606E-16	3.035351E-17
7.172857E+03	9.879176E-16	3.037099E-17
7.182833E+03	9.847568E-16	3.037566E-17
7.192809E+03	9.812218E-16	3.035956E-17
7.202785E+03	9.778141E-16	3.033821E-17
7.212762E+03	9.740305E-16	3.029601E-17
7.222738E+03	9.703688E-16	3.024847E-17
7.232714E+03	9.663306E-16	3.018010E-17
7.242690E+03	9.624120E-16	3.010644E-17
7.252666E+03	9.581201E-16	3.001214E-17
7.262642E+03	9.539481E-16	2.991272E-17
7.272618E+03	9.494080E-16	2.979298E-17
7.282595E+03	9.449900E-16	2.966838E-17
7.292571E+03	9.402119E-16	2.952392E-17
7.302547E+03	9.353226E-16	2.936752E-17
7.312523E+03	9.305653E-16	2.920696E-17
7.322499E+03	9.254652E-16	2.902749E-17
7.332475E+03	9.202696E-16	2.883702E-17
7.342452E+03	9.149856E-16	2.863594E-17
7.352428E+03	9.098531E-16	2.843194E-17
7.362404E+03	9.044112E-16	2.821078E-17
7.372380E+03	8.989025E-16	2.798025E-17
7.382356E+03	8.933357E-16	2.774082E-17
7.392332E+03	8.877193E-16	2.749296E-17
7.402308E+03	8.820622E-16	2.723716E-17
7.412285E+03	8.763734E-16	2.697393E-17
7.422261E+03	8.706622E-16	2.670377E-17
7.432237E+03	8.649378E-16	2.642718E-17
7.442213E+03	8.592094E-16	2.614468E-17
7.452189E+03	8.534861E-16	2.585678E-17
7.462165E+03	8.477772E-16	2.556400E-17
7.472142E+03	8.420915E-16	2.526683E-17
7.482118E+03	8.364377E-16	2.496579E-17
7.492094E+03	8.308243E-16	2.466135E-17
7.502070E+03	8.252594E-16	2.435401E-17
7.512046E+03	8.197508E-16	2.404422E-17
7.522022E+03	8.143059E-16	2.373246E-17
7.531999E+03	8.087215E-16	2.341308E-17
7.541975E+03	8.034259E-16	2.309877E-17
7.551951E+03	7.982136E-16	2.278378E-17
7.561927E+03	7.930903E-16	2.246852E-17
7.571903E+03	7.878554E-16	2.214761E-17
7.581879E+03	7.829257E-16	2.183307E-17
7.591855E+03	7.780983E-16	2.151941E-17
7.601832E+03	7.731751E-16	2.120146E-17
7.611808E+03	7.685637E-16	2.089073E-17
7.621784E+03	7.638639E-16	2.057656E-17
7.631760E+03	7.594780E-16	2.027013E-17
7.641736E+03	7.552066E-16	1.996634E-17
7.651712E+03	7.508539E-16	1.966036E-17
7.661689E+03	7.468147E-16	1.936292E-17
7.671665E+03	7.426964E-16	1.906413E-17
7.681641E+03	7.388891E-16	1.877442E-17
7.691617E+03	7.350030E-16	1.848424E-17
7.701593E+03	7.312318E-16	1.819894E-17
7.711569E+03	7.277649E-16	1.792363E-17
7.721546E+03	7.242170E-16	1.764923E-17
7.731522E+03	7.209676E-16	1.738552E-17
7.741498E+03	7.176337E-16	1.712372E-17
