#wls	flux	fluxerr
1.600000E+03	1.261213E-15	1.432574E-15
1.640000E+03	1.329928E-15	1.500025E-15
1.680000E+03	1.405159E-15	1.572762E-15
1.720000E+03	1.487345E-15	1.650888E-15
1.760000E+03	1.577538E-15	1.735118E-15
1.800000E+03	1.676280E-15	1.825514E-15
1.840000E+03	1.784455E-15	1.922416E-15
1.880000E+03	1.903323E-15	2.026455E-15
1.920000E+03	2.033597E-15	2.137535E-15
1.960000E+03	2.176520E-15	2.255970E-15
2.000000E+03	2.333072E-15	2.381625E-15
2.040000E+03	2.504623E-15	2.514564E-15
2.080000E+03	2.691887E-15	2.653965E-15
2.120000E+03	2.895733E-15	2.798942E-15
2.160000E+03	3.116809E-15	2.948154E-15
2.200000E+03	3.354689E-15	3.099016E-15
2.240000E+03	3.608502E-15	3.248381E-15
2.280000E+03	3.877917E-15	3.393444E-15
2.320000E+03	4.163200E-15	3.531743E-15
2.360000E+03	4.466855E-15	3.662411E-15
2.400000E+03	4.790906E-15	3.783697E-15
2.440000E+03	5.136991E-15	3.893075E-15
2.480000E+03	5.506951E-15	3.987716E-15
2.520000E+03	5.900768E-15	4.063028E-15
2.560000E+03	6.318261E-15	4.114109E-15
2.600000E+03	6.757917E-15	4.135127E-15
2.640000E+03	7.217433E-15	4.119990E-15
2.680000E+03	7.692442E-15	4.061994E-15
2.720000E+03	8.177060E-15	3.954755E-15
2.760000E+03	8.663428E-15	3.792665E-15
2.800000E+03	9.141571E-15	3.571720E-15
2.840000E+03	9.599629E-15	3.290659E-15
2.880000E+03	1.002449E-14	2.952356E-15
2.920000E+03	1.040199E-14	2.565226E-15
2.960000E+03	1.071775E-14	2.145234E-15
3.000000E+03	1.095721E-14	1.718571E-15
3.010000E+03	1.100371E-14	1.615270E-15
3.020000E+03	1.104402E-14	1.514743E-15
3.030000E+03	1.107830E-14	1.417909E-15
3.040000E+03	1.110596E-14	1.325619E-15
3.050000E+03	1.112683E-14	1.238787E-15
3.060000E+03	1.114060E-14	1.158230E-15
3.070000E+03	1.114611E-14	1.084513E-15
3.080000E+03	1.114320E-14	1.018057E-15
3.090000E+03	1.113044E-14	9.588768E-16
3.100000E+03	1.110732E-14	9.067818E-16
3.110000E+03	1.107281E-14	8.612563E-16
3.120000E+03	1.102640E-14	8.216031E-16
3.130000E+03	1.096843E-14	7.870302E-16
3.140000E+03	1.089893E-14	7.566370E-16
3.150000E+03	1.081953E-14	7.296313E-16
3.160000E+03	1.073120E-14	7.052268E-16
3.170000E+03	1.063659E-14	6.828452E-16
3.180000E+03	1.053779E-14	6.619804E-16
3.190000E+03	1.043786E-14	6.423053E-16
3.200000E+03	1.033946E-14	6.235582E-16
3.210000E+03	1.024567E-14	6.055754E-16
3.220000E+03	1.015938E-14	5.882293E-16
3.230000E+03	1.008341E-14	5.714160E-16
3.240000E+03	1.002034E-14	5.550367E-16
3.250000E+03	9.973081E-15	5.390297E-16
3.260000E+03	9.943823E-15	5.233142E-16
3.270000E+03	9.934720E-15	5.078461E-16
3.280000E+03	9.947147E-15	4.925971E-16
3.290000E+03	9.982079E-15	4.776008E-16
3.300000E+03	1.003998E-14	4.629843E-16
3.310000E+03	1.012028E-14	4.489760E-16
3.320000E+03	1.022199E-14	4.359369E-16
3.330000E+03	1.034334E-14	4.242757E-16
3.340000E+03	1.048195E-14	4.142883E-16
3.350000E+03	1.063591E-14	4.060634E-16
3.360000E+03	1.080236E-14	3.994531E-16
3.370000E+03	1.097767E-14	3.941188E-16
3.380000E+03	1.115695E-14	3.895507E-16
3.390000E+03	1.133343E-14	3.852197E-16
3.400000E+03	1.149934E-14	3.807573E-16
3.410000E+03	1.164527E-14	3.759695E-16
3.420000E+03	1.176199E-14	3.708666E-16
3.430000E+03	1.184224E-14	3.655642E-16
3.440000E+03	1.188191E-14	3.601514E-16
3.450000E+03	1.188020E-14	3.546910E-16
3.460000E+03	1.183995E-14	3.492116E-16
3.470000E+03	1.176589E-14	3.436407E-16
3.480000E+03	1.166473E-14	3.379480E-16
3.490000E+03	1.154386E-14	3.321908E-16
3.500000E+03	1.141062E-14	3.264715E-16
3.510000E+03	1.127166E-14	3.209543E-16
3.520000E+03	1.113235E-14	3.157965E-16
3.530000E+03	1.099631E-14	3.110439E-16
3.540000E+03	1.086566E-14	3.066879E-16
3.550000E+03	1.074132E-14	3.026800E-16
3.560000E+03	1.062304E-14	2.988829E-16
3.570000E+03	1.050965E-14	2.951524E-16
3.580000E+03	1.039890E-14	2.913557E-16
3.590000E+03	1.028797E-14	2.873511E-16
3.600000E+03	1.017340E-14	2.830321E-16
3.610000E+03	1.005177E-14	2.783423E-16
3.620000E+03	9.919780E-15	2.732297E-16
3.630000E+03	9.775103E-15	2.677223E-16
3.640000E+03	9.616417E-15	2.619184E-16
3.650000E+03	9.444332E-15	2.559574E-16
3.660000E+03	9.260927E-15	2.500295E-16
3.670000E+03	9.069455E-15	2.443105E-16
3.680000E+03	8.873946E-15	2.388733E-16
3.690000E+03	8.678569E-15	2.337456E-16
3.700000E+03	8.487079E-15	2.289167E-16
3.710000E+03	8.302921E-15	2.243024E-16
3.720000E+03	8.129317E-15	2.198262E-16
3.730000E+03	7.970419E-15	2.154981E-16
3.740000E+03	7.831564E-15	2.114002E-16
3.750000E+03	7.719584E-15	2.077194E-16
3.760000E+03	7.642781E-15	2.047368E-16
3.770000E+03	7.610474E-15	2.027737E-16
3.780000E+03	7.631591E-15	2.021603E-16
3.790000E+03	7.713099E-15	2.031353E-16
3.800000E+03	7.858195E-15	2.057354E-16
3.810000E+03	8.065741E-15	2.098637E-16
3.820000E+03	8.329731E-15	2.153334E-16
3.830000E+03	8.638734E-15	2.218432E-16
3.840000E+03	8.976165E-15	2.290447E-16
3.850000E+03	9.322515E-15	2.365784E-16
3.860000E+03	9.657305E-15	2.440445E-16
3.870000E+03	9.961879E-15	2.511187E-16
3.880000E+03	1.022086E-14	2.575381E-16
3.890000E+03	1.042486E-14	2.630395E-16
3.900000E+03	1.056992E-14	2.674042E-16
3.910000E+03	1.065696E-14	2.704437E-16
3.920000E+03	1.069026E-14	2.718857E-16
3.930000E+03	1.067595E-14	2.714956E-16
3.940000E+03	1.062034E-14	2.692006E-16
3.950000E+03	1.052922E-14	2.651053E-16
3.960000E+03	1.040734E-14	2.595127E-16
3.970000E+03	1.025917E-14	2.528763E-16
3.980000E+03	1.008926E-14	2.456978E-16
3.990000E+03	9.902850E-15	2.385214E-16
4.000000E+03	9.706189E-15	2.317703E-16
4.010000E+03	9.506736E-15	2.256146E-16
4.020000E+03	9.311850E-15	2.201247E-16
4.030000E+03	9.127563E-15	2.153295E-16
4.040000E+03	8.957601E-15	2.111472E-16
4.050000E+03	8.803536E-15	2.075164E-16
4.060000E+03	8.664744E-15	2.044184E-16
4.070000E+03	8.539683E-15	2.018140E-16
4.080000E+03	8.426730E-15	1.996977E-16
4.090000E+03	8.325487E-15	1.980453E-16
4.100000E+03	8.237760E-15	1.967056E-16
4.110000E+03	8.166740E-15	1.955107E-16
4.120000E+03	8.115568E-15	1.943451E-16
4.130000E+03	8.085820E-15	1.930927E-16
4.140000E+03	8.076924E-15	1.916970E-16
4.150000E+03	8.085121E-15	1.901528E-16
4.160000E+03	8.103467E-15	1.884563E-16
4.170000E+03	8.122689E-15	1.866457E-16
4.180000E+03	8.133270E-15	1.847366E-16
4.190000E+03	8.127832E-15	1.826496E-16
4.200000E+03	8.101982E-15	1.803466E-16
4.210000E+03	8.055417E-15	1.778695E-16
4.220000E+03	7.991825E-15	1.752600E-16
4.230000E+03	7.917363E-15	1.726469E-16
4.240000E+03	7.837987E-15	1.701693E-16
4.250000E+03	7.758014E-15	1.678348E-16
4.260000E+03	7.679244E-15	1.656303E-16
4.270000E+03	7.601321E-15	1.635496E-16
4.280000E+03	7.522437E-15	1.615075E-16
4.290000E+03	7.440819E-15	1.594587E-16
4.300000E+03	7.356199E-15	1.573858E-16
4.310000E+03	7.270935E-15	1.551953E-16
4.320000E+03	7.189808E-15	1.528430E-16
4.330000E+03	7.118912E-15	1.503785E-16
4.340000E+03	7.064371E-15	1.478662E-16
4.350000E+03	7.031048E-15	1.454542E-16
4.360000E+03	7.021139E-15	1.433712E-16
4.370000E+03	7.033623E-15	1.418766E-16
4.380000E+03	7.064190E-15	1.413480E-16
4.390000E+03	7.106430E-15	1.421630E-16
4.400000E+03	7.157299E-15	1.441773E-16
4.410000E+03	7.217576E-15	1.469012E-16
4.420000E+03	7.287238E-15	1.499539E-16
4.430000E+03	7.365767E-15	1.530599E-16
4.440000E+03	7.451963E-15	1.561036E-16
4.450000E+03	7.544353E-15	1.590709E-16
4.460000E+03	7.641419E-15	1.619038E-16
4.470000E+03	7.741543E-15	1.645747E-16
4.480000E+03	7.843291E-15	1.670809E-16
4.490000E+03	7.945444E-15	1.693351E-16
4.500000E+03	8.046599E-15	1.712797E-16
4.510000E+03	8.144332E-15	1.729085E-16
4.520000E+03	8.235265E-15	1.741870E-16
4.530000E+03	8.315170E-15	1.751505E-16
4.540000E+03	8.379725E-15	1.758532E-16
4.550000E+03	8.425922E-15	1.762410E-16
4.560000E+03	8.451903E-15	1.763018E-16
4.570000E+03	8.457260E-15	1.760813E-16
4.580000E+03	8.442790E-15	1.755413E-16
4.590000E+03	8.409938E-15	1.747010E-16
4.600000E+03	8.359422E-15	1.735983E-16
4.610000E+03	8.291247E-15	1.721407E-16
4.620000E+03	8.204061E-15	1.702685E-16
4.630000E+03	8.096127E-15	1.680191E-16
4.640000E+03	7.966153E-15	1.654196E-16
4.650000E+03	7.814160E-15	1.626005E-16
4.660000E+03	7.642129E-15	1.596983E-16
4.670000E+03	7.455071E-15	1.566797E-16
4.680000E+03	7.259643E-15	1.535097E-16
4.690000E+03	7.063011E-15	1.502209E-16
4.700000E+03	6.872308E-15	1.468103E-16
4.710000E+03	6.693673E-15	1.433395E-16
4.720000E+03	6.532177E-15	1.399686E-16
4.730000E+03	6.391395E-15	1.368621E-16
4.740000E+03	6.273334E-15	1.342238E-16
4.750000E+03	6.177986E-15	1.321917E-16
4.760000E+03	6.103776E-15	1.307166E-16
4.770000E+03	6.047461E-15	1.296951E-16
4.780000E+03	6.005021E-15	1.290339E-16
4.790000E+03	5.972410E-15	1.285901E-16
4.800000E+03	5.946526E-15	1.282848E-16
4.810000E+03	5.926064E-15	1.281155E-16
4.820000E+03	5.911962E-15	1.280663E-16
4.830000E+03	5.906468E-15	1.281679E-16
4.840000E+03	5.911556E-15	1.284585E-16
4.850000E+03	5.927932E-15	1.288722E-16
4.860000E+03	5.954102E-15	1.293180E-16
4.870000E+03	5.986057E-15	1.297160E-16
4.880000E+03	6.017677E-15	1.299551E-16
4.890000E+03	6.041819E-15	1.299810E-16
4.900000E+03	6.051833E-15	1.297813E-16
4.910000E+03	6.043584E-15	1.293200E-16
4.920000E+03	6.015895E-15	1.286325E-16
4.930000E+03	5.971156E-15	1.278090E-16
4.940000E+03	5.915385E-15	1.268842E-16
4.950000E+03	5.857034E-15	1.259381E-16
4.960000E+03	5.805520E-15	1.251138E-16
4.970000E+03	5.769992E-15	1.245161E-16
4.980000E+03	5.757607E-15	1.242538E-16
4.990000E+03	5.772413E-15	1.244237E-16
5.000000E+03	5.814013E-15	1.250069E-16
5.010000E+03	5.877909E-15	1.259458E-16
5.020000E+03	5.956519E-15	1.271527E-16
5.030000E+03	6.040157E-15	1.284450E-16
5.040000E+03	6.118967E-15	1.296673E-16
5.050000E+03	6.185384E-15	1.307084E-16
5.060000E+03	6.236087E-15	1.314277E-16
5.070000E+03	6.271876E-15	1.317757E-16
5.080000E+03	6.296694E-15	1.318215E-16
5.090000E+03	6.316198E-15	1.316502E-16
5.100000E+03	6.336561E-15	1.314304E-16
5.110000E+03	6.363017E-15	1.313566E-16
5.120000E+03	6.399180E-15	1.315259E-16
5.130000E+03	6.446399E-15	1.320298E-16
5.140000E+03	6.504285E-15	1.329273E-16
5.150000E+03	6.570436E-15	1.340974E-16
5.160000E+03	6.641136E-15	1.353963E-16
5.170000E+03	6.711471E-15	1.366920E-16
5.180000E+03	6.776067E-15	1.377653E-16
5.190000E+03	6.829902E-15	1.384513E-16
5.200000E+03	6.868949E-15	1.386719E-16
5.210000E+03	6.891045E-15	1.383456E-16
5.220000E+03	6.895731E-15	1.374988E-16
5.230000E+03	6.883963E-15	1.362389E-16
5.240000E+03	6.858098E-15	1.346278E-16
5.250000E+03	6.821236E-15	1.328003E-16
5.260000E+03	6.776835E-15	1.309085E-16
5.270000E+03	6.728198E-15	1.289593E-16
5.280000E+03	6.678613E-15	1.270035E-16
5.290000E+03	6.631034E-15	1.251445E-16
5.300000E+03	6.587778E-15	1.233967E-16
5.310000E+03	6.550739E-15	1.218531E-16
5.320000E+03	6.521239E-15	1.206259E-16
5.330000E+03	6.499716E-15	1.196527E-16
5.340000E+03	6.485645E-15	1.189063E-16
5.350000E+03	6.477970E-15	1.184093E-16
5.360000E+03	6.475018E-15	1.180450E-16
5.370000E+03	6.474409E-15	1.177368E-16
5.380000E+03	6.472967E-15	1.174197E-16
5.390000E+03	6.467275E-15	1.168356E-16
5.400000E+03	6.453758E-15	1.157358E-16
5.410000E+03	6.429531E-15	1.139740E-16
5.420000E+03	6.392467E-15	1.113774E-16
5.430000E+03	6.342095E-15	1.079064E-16
5.440000E+03	6.279800E-15	1.036393E-16
5.450000E+03	6.208915E-15	9.863976E-17
5.460000E+03	6.133795E-15	9.319096E-17
5.470000E+03	6.058999E-15	8.787346E-17
5.480000E+03	5.988031E-15	8.348121E-17
5.490000E+03	5.921878E-15	8.123943E-17
5.500000E+03	5.860791E-15	8.190433E-17
5.510000E+03	5.811588E-15	8.436641E-17
5.520000E+03	5.778103E-15	8.756504E-17
5.530000E+03	5.760733E-15	9.094580E-17
5.540000E+03	5.757421E-15	9.410910E-17
5.550000E+03	5.764915E-15	9.688696E-17
5.560000E+03	5.779056E-15	9.926438E-17
5.570000E+03	5.794806E-15	1.011344E-16
5.580000E+03	5.806826E-15	1.024547E-16
5.590000E+03	5.810590E-15	1.032859E-16
5.600000E+03	5.801913E-15	1.036363E-16
5.610000E+03	5.777844E-15	1.036238E-16
5.620000E+03	5.737564E-15	1.034139E-16
5.630000E+03	5.682851E-15	1.030176E-16
5.640000E+03	5.618140E-15	1.025179E-16
5.650000E+03	5.549571E-15	1.020947E-16
5.660000E+03	5.484861E-15	1.018453E-16
5.670000E+03	5.432342E-15	1.019159E-16
5.680000E+03	5.398998E-15	1.024329E-16
5.690000E+03	5.389803E-15	1.032876E-16
5.700000E+03	5.406610E-15	1.042973E-16
5.710000E+03	5.447339E-15	1.053453E-16
5.720000E+03	5.505814E-15	1.063367E-16
5.730000E+03	5.572586E-15	1.072524E-16
5.740000E+03	5.637207E-15	1.080560E-16
5.750000E+03	5.690538E-15	1.085547E-16
5.760000E+03	5.725768E-15	1.085979E-16
5.770000E+03	5.739759E-15	1.081799E-16
5.780000E+03	5.732966E-15	1.073500E-16
5.790000E+03	5.708985E-15	1.063277E-16
5.800000E+03	5.672135E-15	1.053511E-16
5.810000E+03	5.626293E-15	1.044570E-16
5.820000E+03	5.574240E-15	1.036972E-16
5.830000E+03	5.517505E-15	1.031723E-16
5.840000E+03	5.456265E-15	1.028540E-16
5.850000E+03	5.390665E-15	1.027634E-16
5.860000E+03	5.321930E-15	1.029304E-16
5.870000E+03	5.252583E-15	1.031496E-16
5.880000E+03	5.185953E-15	1.031678E-16
5.890000E+03	5.125663E-15	1.028778E-16
5.900000E+03	5.074344E-15	1.022571E-16
5.910000E+03	5.033694E-15	1.014038E-16
5.920000E+03	5.004190E-15	1.004609E-16
5.930000E+03	4.985036E-15	9.949911E-17
5.940000E+03	4.974813E-15	9.860594E-17
5.950000E+03	4.971736E-15	9.784939E-17
5.960000E+03	4.973715E-15	9.718163E-17
5.970000E+03	4.978626E-15	9.658317E-17
5.980000E+03	4.983894E-15	9.605251E-17
5.990000E+03	4.986921E-15	9.550715E-17
6.000000E+03	4.985313E-15	9.492265E-17
6.010000E+03	4.977617E-15	9.432615E-17
6.020000E+03	4.963854E-15	9.366904E-17
6.030000E+03	4.944759E-15	9.295545E-17
6.040000E+03	4.921162E-15	9.222511E-17
6.050000E+03	4.892767E-15	9.139258E-17
6.060000E+03	4.858474E-15	9.040808E-17
6.070000E+03	4.816269E-15	8.927819E-17
6.080000E+03	4.763827E-15	8.795851E-17
6.090000E+03	4.699457E-15	8.648898E-17
6.100000E+03	4.623256E-15	8.494264E-17
6.110000E+03	4.537784E-15	8.326591E-17
6.120000E+03	4.447679E-15	8.146750E-17
6.130000E+03	4.359291E-15	7.968896E-17
6.140000E+03	4.279179E-15	7.807926E-17
6.150000E+03	4.213336E-15	7.686783E-17
6.160000E+03	4.165591E-15	7.622296E-17
6.170000E+03	4.137157E-15	7.605711E-17
6.180000E+03	4.126491E-15	7.621417E-17
6.190000E+03	4.130301E-15	7.657764E-17
6.200000E+03	4.143832E-15	7.697797E-17
6.210000E+03	4.161589E-15	7.730118E-17
6.220000E+03	4.177803E-15	7.749390E-17
6.230000E+03	4.187052E-15	7.746949E-17
6.240000E+03	4.184982E-15	7.722273E-17
6.250000E+03	4.168759E-15	7.679823E-17
6.260000E+03	4.137894E-15	7.616417E-17
6.270000E+03	4.093780E-15	7.534074E-17
6.280000E+03	4.039817E-15	7.441961E-17
6.290000E+03	3.980487E-15	7.342874E-17
6.300000E+03	3.920689E-15	7.243825E-17
6.310000E+03	3.865141E-15	7.154661E-17
6.320000E+03	3.817565E-15	7.075108E-17
6.330000E+03	3.781271E-15	7.008167E-17
6.340000E+03	3.759484E-15	6.963945E-17
6.350000E+03	3.755303E-15	6.951089E-17
6.360000E+03	3.771196E-15	6.983245E-17
6.370000E+03	3.808242E-15	7.071223E-17
6.380000E+03	3.865100E-15	7.206270E-17
6.390000E+03	3.937833E-15	7.372677E-17
6.400000E+03	4.020328E-15	7.554792E-17
6.410000E+03	4.105029E-15	7.729691E-17
6.420000E+03	4.183863E-15	7.877057E-17
6.430000E+03	4.249797E-15	7.981971E-17
6.440000E+03	4.298876E-15	8.028081E-17
6.450000E+03	4.330034E-15	8.006921E-17
6.460000E+03	4.344718E-15	7.919771E-17
6.470000E+03	4.345974E-15	7.767973E-17
6.480000E+03	4.337230E-15	7.560848E-17
6.490000E+03	4.321792E-15	7.315558E-17
6.500000E+03	4.301924E-15	7.050485E-17
6.510000E+03	4.278920E-15	6.809730E-17
6.520000E+03	4.253035E-15	6.677753E-17
6.530000E+03	4.224011E-15	6.757579E-17
6.540000E+03	4.191234E-15	7.054451E-17
6.550000E+03	4.155069E-15	7.445433E-17
6.560000E+03	4.115963E-15	7.830345E-17
6.570000E+03	4.074803E-15	8.153786E-17
6.580000E+03	4.032916E-15	8.393457E-17
6.590000E+03	3.991562E-15	8.543096E-17
6.600000E+03	3.951707E-15	8.605752E-17
6.610000E+03	3.914033E-15	8.590657E-17
6.620000E+03	3.878882E-15	8.510520E-17
6.630000E+03	3.846358E-15	8.383296E-17
6.640000E+03	3.816105E-15	8.229614E-17
6.650000E+03	3.787787E-15	8.071243E-17
6.660000E+03	3.761068E-15	7.932810E-17
6.670000E+03	3.735718E-15	7.831913E-17
6.680000E+03	3.711718E-15	7.769751E-17
6.690000E+03	3.688866E-15	7.742221E-17
6.700000E+03	3.666690E-15	7.744065E-17
6.710000E+03	3.643892E-15	7.761561E-17
6.720000E+03	3.619054E-15	7.781488E-17
6.730000E+03	3.590989E-15	7.793736E-17
6.740000E+03	3.558866E-15	7.785346E-17
6.750000E+03	3.522660E-15	7.747456E-17
6.760000E+03	3.482861E-15	7.678069E-17
6.770000E+03	3.440652E-15	7.579412E-17
6.780000E+03	3.397351E-15	7.460297E-17
6.790000E+03	3.354241E-15	7.334558E-17
6.800000E+03	3.312401E-15	7.216119E-17
6.810000E+03	3.272490E-15	7.121184E-17
6.820000E+03	3.235315E-15	7.063418E-17
6.830000E+03	3.201453E-15	7.044498E-17
6.840000E+03	3.171698E-15	7.061476E-17
6.850000E+03	3.146532E-15	7.105774E-17
6.860000E+03	3.126429E-15	7.157544E-17
6.870000E+03	3.111676E-15	7.194220E-17
6.880000E+03	3.102105E-15	7.200267E-17
6.890000E+03	3.096936E-15	7.168430E-17
6.900000E+03	3.095146E-15	7.101196E-17
6.910000E+03	3.095162E-15	7.007180E-17
6.920000E+03	3.095280E-15	6.898531E-17
6.930000E+03	3.093718E-15	6.791307E-17
6.940000E+03	3.089583E-15	6.699782E-17
6.950000E+03	3.083090E-15	6.629147E-17
6.960000E+03	3.075393E-15	6.582782E-17
6.970000E+03	3.068454E-15	6.563185E-17
6.980000E+03	3.064648E-15	6.565977E-17
6.990000E+03	3.066309E-15	6.587487E-17
7.000000E+03	3.075262E-15	6.627609E-17
7.010000E+03	3.092377E-15	6.684523E-17
7.020000E+03	3.117559E-15	6.758488E-17
7.030000E+03	3.149650E-15	6.849563E-17
7.040000E+03	3.187023E-15	6.952150E-17
7.050000E+03	3.227214E-15	7.059771E-17
7.060000E+03	3.267735E-15	7.168411E-17
7.070000E+03	3.306193E-15	7.272113E-17
7.080000E+03	3.340683E-15	7.368347E-17
7.090000E+03	3.369769E-15	7.456627E-17
7.100000E+03	3.392698E-15	7.532507E-17
7.110000E+03	3.409321E-15	7.593353E-17
7.120000E+03	3.420007E-15	7.640047E-17
7.130000E+03	3.425073E-15	7.671342E-17
7.140000E+03	3.424936E-15	7.689272E-17
7.150000E+03	3.419884E-15	7.698401E-17
7.160000E+03	3.409950E-15	7.699703E-17
7.170000E+03	3.395281E-15	7.694924E-17
7.180000E+03	3.376226E-15	7.684274E-17
7.190000E+03	3.353728E-15	7.660962E-17
7.200000E+03	3.329054E-15	7.618345E-17
7.210000E+03	3.303292E-15	7.554552E-17
7.220000E+03	3.277480E-15	7.471313E-17
7.230000E+03	3.252056E-15	7.375529E-17
7.240000E+03	3.227142E-15	7.276913E-17
7.250000E+03	3.202305E-15	7.181749E-17
7.260000E+03	3.176759E-15	7.096730E-17
7.270000E+03	3.149690E-15	7.026484E-17
7.280000E+03	3.120535E-15	6.968008E-17
7.290000E+03	3.088848E-15	6.917676E-17
7.300000E+03	3.054479E-15	6.874148E-17
7.310000E+03	3.017421E-15	6.833912E-17
7.320000E+03	2.977703E-15	6.795615E-17
7.330000E+03	2.935179E-15	6.759071E-17
7.340000E+03	2.889751E-15	6.720326E-17
7.350000E+03	2.841200E-15	6.675389E-17
7.360000E+03	2.789040E-15	6.620636E-17
7.370000E+03	2.733027E-15	6.550329E-17
7.380000E+03	2.673046E-15	6.460238E-17
7.390000E+03	2.609374E-15	6.349900E-17
7.400000E+03	2.542628E-15	6.220185E-17
7.410000E+03	2.474015E-15	6.076109E-17
7.420000E+03	2.405163E-15	5.925896E-17
7.430000E+03	2.337954E-15	5.777505E-17
7.440000E+03	2.274687E-15	5.640066E-17
7.450000E+03	2.217569E-15	5.520693E-17
7.460000E+03	2.168931E-15	5.422187E-17
7.470000E+03	2.130785E-15	5.345876E-17
7.480000E+03	2.104805E-15	5.294213E-17
7.490000E+03	2.091907E-15	5.269105E-17
7.500000E+03	2.092486E-15	5.274069E-17
7.510000E+03	2.106211E-15	5.313100E-17
7.520000E+03	2.131993E-15	5.388402E-17
7.530000E+03	2.168219E-15	5.501752E-17
7.540000E+03	2.212623E-15	5.651848E-17
7.550000E+03	2.262880E-15	5.831889E-17
7.560000E+03	2.316458E-15	6.031365E-17
7.570000E+03	2.371013E-15	6.238656E-17
7.580000E+03	2.424449E-15	6.439918E-17
7.590000E+03	2.475239E-15	6.622325E-17
7.600000E+03	2.522217E-15	6.775951E-17
7.610000E+03	2.564779E-15	6.894628E-17
7.620000E+03	2.602865E-15	6.977528E-17
7.630000E+03	2.636685E-15	7.029056E-17
7.640000E+03	2.666792E-15	7.057959E-17
7.650000E+03	2.693960E-15	7.075708E-17
7.660000E+03	2.718828E-15	7.090527E-17
7.670000E+03	2.742009E-15	7.103403E-17
7.680000E+03	2.763719E-15	7.110694E-17
7.690000E+03	2.784241E-15	7.108851E-17
7.700000E+03	2.803527E-15	7.093932E-17
7.710000E+03	2.821363E-15	7.064640E-17
7.720000E+03	2.837701E-15	7.023355E-17
7.730000E+03	2.852457E-15	6.974028E-17
7.740000E+03	2.865705E-15	6.924160E-17
7.750000E+03	2.877567E-15	6.882345E-17
7.760000E+03	2.887992E-15	6.854055E-17
