#wls	flux	fluxerr
1.600000E+03	2.998179E-16	3.423304E-16
1.640000E+03	3.023362E-16	3.430810E-16
1.680000E+03	3.047699E-16	3.435414E-16
1.720000E+03	3.071518E-16	3.437372E-16
1.760000E+03	3.095140E-16	3.436916E-16
1.800000E+03	3.117757E-16	3.433018E-16
1.840000E+03	3.139101E-16	3.425271E-16
1.880000E+03	3.160019E-16	3.414481E-16
1.920000E+03	3.179101E-16	3.399004E-16
1.960000E+03	3.197179E-16	3.379637E-16
2.000000E+03	3.213398E-16	3.355372E-16
2.040000E+03	3.228031E-16	3.326418E-16
2.080000E+03	3.240237E-16	3.291848E-16
2.120000E+03	3.250876E-16	3.252492E-16
2.160000E+03	3.259706E-16	3.208060E-16
2.200000E+03	3.265981E-16	3.157799E-16
2.240000E+03	3.270650E-16	3.102638E-16
2.280000E+03	3.273083E-16	3.041986E-16
2.320000E+03	3.274349E-16	2.976861E-16
2.360000E+03	3.273997E-16	2.906867E-16
2.400000E+03	3.272761E-16	2.832689E-16
2.440000E+03	3.271490E-16	2.755061E-16
2.480000E+03	3.270674E-16	2.674355E-16
2.520000E+03	3.271006E-16	2.591067E-16
2.560000E+03	3.274852E-16	2.506904E-16
2.600000E+03	3.282856E-16	2.422049E-16
2.640000E+03	3.296945E-16	2.337500E-16
2.680000E+03	3.319377E-16	2.254240E-16
2.720000E+03	3.352820E-16	2.173209E-16
2.760000E+03	3.400881E-16	2.095547E-16
2.800000E+03	3.467311E-16	2.021955E-16
2.840000E+03	3.556160E-16	1.952735E-16
2.880000E+03	3.674156E-16	1.888945E-16
2.920000E+03	3.826916E-16	1.830108E-16
2.960000E+03	4.023617E-16	1.776488E-16
3.000000E+03	4.273218E-16	1.726953E-16
3.010000E+03	4.345286E-16	1.715100E-16
3.020000E+03	4.421772E-16	1.703468E-16
3.030000E+03	4.502873E-16	1.692019E-16
3.040000E+03	4.588311E-16	1.680531E-16
3.050000E+03	4.679262E-16	1.669318E-16
3.060000E+03	4.774971E-16	1.657977E-16
3.070000E+03	4.876148E-16	1.646636E-16
3.080000E+03	4.982516E-16	1.635075E-16
3.090000E+03	5.095322E-16	1.623571E-16
3.100000E+03	5.214305E-16	1.611897E-16
3.110000E+03	5.339709E-16	1.599990E-16
3.120000E+03	5.471780E-16	1.587786E-16
3.130000E+03	5.610764E-16	1.575218E-16
3.140000E+03	5.756906E-16	1.562219E-16
3.150000E+03	5.911006E-16	1.548865E-16
3.160000E+03	6.072753E-16	1.534933E-16
3.170000E+03	6.242371E-16	1.520352E-16
3.180000E+03	6.420658E-16	1.505191E-16
3.190000E+03	6.607230E-16	1.489235E-16
3.200000E+03	6.802864E-16	1.472548E-16
3.210000E+03	7.007096E-16	1.454926E-16
3.220000E+03	7.220653E-16	1.436433E-16
3.230000E+03	7.443607E-16	1.417001E-16
3.240000E+03	7.675311E-16	1.396446E-16
3.250000E+03	7.916338E-16	1.374837E-16
3.260000E+03	8.167226E-16	1.352238E-16
3.270000E+03	8.426354E-16	1.328374E-16
3.280000E+03	8.694010E-16	1.303325E-16
3.290000E+03	8.969660E-16	1.277066E-16
3.300000E+03	9.252599E-16	1.249581E-16
3.310000E+03	9.542678E-16	1.220961E-16
3.320000E+03	9.838042E-16	1.191112E-16
3.330000E+03	1.013732E-15	1.160059E-16
3.340000E+03	1.043965E-15	1.127935E-16
3.350000E+03	1.074235E-15	1.094719E-16
3.360000E+03	1.104401E-15	1.060598E-16
3.370000E+03	1.134215E-15	1.025717E-16
3.380000E+03	1.163313E-15	9.902061E-17
3.390000E+03	1.191477E-15	9.544172E-17
3.400000E+03	1.218381E-15	9.187029E-17
3.410000E+03	1.243771E-15	8.835569E-17
3.420000E+03	1.267128E-15	8.493528E-17
3.430000E+03	1.288289E-15	8.167525E-17
3.440000E+03	1.306771E-15	7.861814E-17
3.450000E+03	1.322589E-15	7.582818E-17
3.460000E+03	1.335413E-15	7.333134E-17
3.470000E+03	1.345216E-15	7.114866E-17
3.480000E+03	1.352210E-15	6.928735E-17
3.490000E+03	1.356684E-15	6.773235E-17
3.500000E+03	1.359084E-15	6.645526E-17
3.510000E+03	1.359900E-15	6.541604E-17
3.520000E+03	1.359954E-15	6.458523E-17
3.530000E+03	1.359852E-15	6.392524E-17
3.540000E+03	1.360340E-15	6.341435E-17
3.550000E+03	1.361939E-15	6.303337E-17
3.560000E+03	1.365148E-15	6.277700E-17
3.570000E+03	1.370408E-15	6.265140E-17
3.580000E+03	1.377933E-15	6.266369E-17
3.590000E+03	1.387774E-15	6.282157E-17
3.600000E+03	1.399820E-15	6.312635E-17
3.610000E+03	1.413749E-15	6.355182E-17
3.620000E+03	1.429381E-15	6.407036E-17
3.630000E+03	1.445911E-15	6.462795E-17
3.640000E+03	1.462720E-15	6.518275E-17
3.650000E+03	1.478845E-15	6.568392E-17
3.660000E+03	1.493057E-15	6.607734E-17
3.670000E+03	1.504109E-15	6.631768E-17
3.680000E+03	1.510583E-15	6.636105E-17
3.690000E+03	1.511164E-15	6.617380E-17
3.700000E+03	1.504541E-15	6.572308E-17
3.710000E+03	1.490121E-15	6.500209E-17
3.720000E+03	1.467760E-15	6.401315E-17
3.730000E+03	1.438323E-15	6.278932E-17
3.740000E+03	1.403202E-15	6.137394E-17
3.750000E+03	1.364906E-15	5.984990E-17
3.760000E+03	1.326218E-15	5.830817E-17
3.770000E+03	1.290236E-15	5.685485E-17
3.780000E+03	1.260071E-15	5.560094E-17
3.790000E+03	1.238656E-15	5.465568E-17
3.800000E+03	1.228718E-15	5.412397E-17
3.810000E+03	1.232666E-15	5.409954E-17
3.820000E+03	1.252644E-15	5.466421E-17
3.830000E+03	1.290703E-15	5.589320E-17
3.840000E+03	1.348712E-15	5.784910E-17
3.850000E+03	1.428125E-15	6.057134E-17
3.860000E+03	1.530084E-15	6.408165E-17
3.870000E+03	1.654999E-15	6.836902E-17
3.880000E+03	1.802143E-15	7.337752E-17
3.890000E+03	1.969227E-15	7.899467E-17
3.900000E+03	2.152615E-15	8.506594E-17
3.910000E+03	2.346728E-15	9.137442E-17
3.920000E+03	2.544908E-15	9.767739E-17
3.930000E+03	2.739745E-15	1.037181E-16
3.940000E+03	2.924349E-15	1.092716E-16
3.950000E+03	3.092713E-15	1.141542E-16
3.960000E+03	3.240635E-15	1.182537E-16
3.970000E+03	3.365731E-15	1.215254E-16
3.980000E+03	3.467567E-15	1.239949E-16
3.990000E+03	3.546616E-15	1.257197E-16
4.000000E+03	3.603547E-15	1.267654E-16
4.010000E+03	3.639249E-15	1.272075E-16
4.020000E+03	3.653823E-15	1.270967E-16
4.030000E+03	3.647024E-15	1.264702E-16
4.040000E+03	3.618491E-15	1.253537E-16
4.050000E+03	3.568281E-15	1.237702E-16
4.060000E+03	3.497461E-15	1.217515E-16
4.070000E+03	3.408080E-15	1.193337E-16
4.080000E+03	3.303775E-15	1.165824E-16
4.090000E+03	3.188806E-15	1.135689E-16
4.100000E+03	3.068169E-15	1.103860E-16
4.110000E+03	2.946770E-15	1.071297E-16
4.120000E+03	2.829028E-15	1.038921E-16
4.130000E+03	2.718733E-15	1.007598E-16
4.140000E+03	2.618909E-15	9.780954E-17
4.150000E+03	2.531588E-15	9.509879E-17
4.160000E+03	2.458198E-15	9.267689E-17
4.170000E+03	2.399604E-15	9.058407E-17
4.180000E+03	2.356092E-15	8.884743E-17
4.190000E+03	2.327574E-15	8.748612E-17
4.200000E+03	2.313755E-15	8.651441E-17
4.210000E+03	2.313922E-15	8.593094E-17
4.220000E+03	2.327227E-15	8.572535E-17
4.230000E+03	2.352438E-15	8.586473E-17
4.240000E+03	2.387969E-15	8.629044E-17
4.250000E+03	2.432121E-15	8.692273E-17
4.260000E+03	2.482746E-15	8.764680E-17
4.270000E+03	2.537747E-15	8.833160E-17
4.280000E+03	2.594925E-15	8.882868E-17
4.290000E+03	2.652156E-15	8.898720E-17
4.300000E+03	2.707437E-15	8.866812E-17
4.310000E+03	2.758882E-15	8.775995E-17
4.320000E+03	2.804684E-15	8.619666E-17
4.330000E+03	2.843124E-15	8.398030E-17
4.340000E+03	2.872491E-15	8.120365E-17
4.350000E+03	2.891185E-15	7.807643E-17
4.360000E+03	2.898019E-15	7.494118E-17
4.370000E+03	2.892506E-15	7.224995E-17
4.380000E+03	2.875029E-15	7.047762E-17
4.390000E+03	2.847243E-15	6.997926E-17
4.400000E+03	2.812816E-15	7.074882E-17
4.410000E+03	2.777111E-15	7.247251E-17
4.420000E+03	2.746037E-15	7.480907E-17
4.430000E+03	2.725397E-15	7.751141E-17
4.440000E+03	2.720754E-15	8.047003E-17
4.450000E+03	2.736913E-15	8.368426E-17
4.460000E+03	2.777761E-15	8.721964E-17
4.470000E+03	2.846318E-15	9.117244E-17
4.480000E+03	2.944258E-15	9.562880E-17
4.490000E+03	3.071934E-15	1.006509E-16
4.500000E+03	3.228105E-15	1.062629E-16
4.510000E+03	3.409543E-15	1.124375E-16
4.520000E+03	3.611238E-15	1.191004E-16
4.530000E+03	3.826258E-15	1.261175E-16
4.540000E+03	4.046199E-15	1.332963E-16
4.550000E+03	4.262058E-15	1.403998E-16
4.560000E+03	4.464672E-15	1.471556E-16
4.570000E+03	4.645941E-15	1.532992E-16
4.580000E+03	4.799063E-15	1.585932E-16
4.590000E+03	4.919175E-15	1.628607E-16
4.600000E+03	5.003351E-15	1.659944E-16
4.610000E+03	5.050327E-15	1.679511E-16
4.620000E+03	5.060837E-15	1.687599E-16
4.630000E+03	5.036808E-15	1.684885E-16
4.640000E+03	4.981655E-15	1.672437E-16
4.650000E+03	4.899815E-15	1.651475E-16
4.660000E+03	4.796530E-15	1.623281E-16
4.670000E+03	4.677504E-15	1.589127E-16
4.680000E+03	4.548499E-15	1.550269E-16
4.690000E+03	4.414880E-15	1.507959E-16
4.700000E+03	4.281478E-15	1.463542E-16
4.710000E+03	4.151986E-15	1.418336E-16
4.720000E+03	4.029163E-15	1.373713E-16
4.730000E+03	3.914773E-15	1.331000E-16
4.740000E+03	3.809754E-15	1.291409E-16
4.750000E+03	3.714490E-15	1.255956E-16
4.760000E+03	3.629146E-15	1.225434E-16
4.770000E+03	3.553976E-15	1.200411E-16
4.780000E+03	3.489543E-15	1.181228E-16
4.790000E+03	3.436762E-15	1.167980E-16
4.800000E+03	3.396757E-15	1.160482E-16
4.810000E+03	3.370660E-15	1.158260E-16
4.820000E+03	3.359112E-15	1.160516E-16
4.830000E+03	3.362211E-15	1.166297E-16
4.840000E+03	3.379248E-15	1.174626E-16
4.850000E+03	3.408851E-15	1.184715E-16
4.860000E+03	3.449023E-15	1.196058E-16
4.870000E+03	3.497564E-15	1.208524E-16
4.880000E+03	3.552517E-15	1.222322E-16
4.890000E+03	3.612498E-15	1.237814E-16
4.900000E+03	3.676795E-15	1.255238E-16
4.910000E+03	3.745275E-15	1.274492E-16
4.920000E+03	3.817509E-15	1.294890E-16
4.930000E+03	3.892222E-15	1.315213E-16
4.940000E+03	3.966273E-15	1.333680E-16
4.950000E+03	4.034159E-15	1.348069E-16
4.960000E+03	4.088356E-15	1.356018E-16
4.970000E+03	4.120132E-15	1.355343E-16
4.980000E+03	4.121308E-15	1.344487E-16
4.990000E+03	4.086256E-15	1.322893E-16
5.000000E+03	4.013804E-15	1.291256E-16
5.010000E+03	3.908431E-15	1.251614E-16
5.020000E+03	3.779750E-15	1.207041E-16
5.030000E+03	3.640948E-15	1.161253E-16
5.040000E+03	3.506549E-15	1.118154E-16
5.050000E+03	3.389976E-15	1.081333E-16
5.060000E+03	3.301988E-15	1.053704E-16
5.070000E+03	3.249775E-15	1.037229E-16
5.080000E+03	3.236921E-15	1.032849E-16
5.090000E+03	3.263691E-15	1.040527E-16
5.100000E+03	3.327248E-15	1.059334E-16
5.110000E+03	3.422382E-15	1.087716E-16
5.120000E+03	3.541925E-15	1.123638E-16
5.130000E+03	3.677537E-15	1.164760E-16
5.140000E+03	3.820439E-15	1.208538E-16
5.150000E+03	3.962657E-15	1.252496E-16
5.160000E+03	4.097639E-15	1.294417E-16
5.170000E+03	4.220844E-15	1.332625E-16
5.180000E+03	4.329999E-15	1.366209E-16
5.190000E+03	4.424937E-15	1.395066E-16
5.200000E+03	4.507053E-15	1.419747E-16
5.210000E+03	4.578711E-15	1.441195E-16
5.220000E+03	4.642747E-15	1.460488E-16
5.230000E+03	4.701772E-15	1.478503E-16
5.240000E+03	4.757734E-15	1.495721E-16
5.250000E+03	4.811754E-15	1.512186E-16
5.260000E+03	4.864041E-15	1.527569E-16
5.270000E+03	4.913867E-15	1.541258E-16
5.280000E+03	4.959712E-15	1.552516E-16
5.290000E+03	4.999833E-15	1.560717E-16
5.300000E+03	5.032175E-15	1.565310E-16
5.310000E+03	5.054761E-15	1.565860E-16
5.320000E+03	5.065735E-15	1.561931E-16
5.330000E+03	5.063299E-15	1.552963E-16
5.340000E+03	5.045774E-15	1.538255E-16
5.350000E+03	5.011585E-15	1.516962E-16
5.360000E+03	4.959472E-15	1.488178E-16
5.370000E+03	4.888892E-15	1.451064E-16
5.380000E+03	4.800696E-15	1.405045E-16
5.390000E+03	4.697566E-15	1.349937E-16
5.400000E+03	4.584375E-15	1.286056E-16
5.410000E+03	4.467864E-15	1.214119E-16
5.420000E+03	4.356198E-15	1.135089E-16
5.430000E+03	4.257652E-15	1.049813E-16
5.440000E+03	4.179733E-15	9.589431E-17
5.450000E+03	4.128116E-15	8.632088E-17
5.460000E+03	4.106241E-15	7.647732E-17
5.470000E+03	4.115135E-15	6.704370E-17
5.480000E+03	4.153740E-15	5.977446E-17
5.490000E+03	4.219598E-15	5.799009E-17
5.500000E+03	4.306244E-15	6.398036E-17
5.510000E+03	4.397283E-15	7.495735E-17
5.520000E+03	4.476084E-15	8.754749E-17
5.530000E+03	4.529335E-15	9.956566E-17
5.540000E+03	4.549000E-15	1.097771E-16
5.550000E+03	4.532699E-15	1.175786E-16
5.560000E+03	4.483078E-15	1.228140E-16
5.570000E+03	4.406190E-15	1.256396E-16
5.580000E+03	4.308797E-15	1.263848E-16
5.590000E+03	4.196670E-15	1.254474E-16
5.600000E+03	4.072566E-15	1.231859E-16
5.610000E+03	3.936144E-15	1.198749E-16
5.620000E+03	3.784246E-15	1.156828E-16
5.630000E+03	3.612519E-15	1.106987E-16
5.640000E+03	3.417460E-15	1.049820E-16
5.650000E+03	3.198596E-15	9.861941E-17
5.660000E+03	2.959866E-15	9.176602E-17
5.670000E+03	2.709723E-15	8.465689E-17
5.680000E+03	2.459592E-15	7.757957E-17
5.690000E+03	2.221833E-15	7.083866E-17
5.700000E+03	2.007388E-15	6.471022E-17
5.710000E+03	1.824301E-15	5.941139E-17
5.720000E+03	1.677441E-15	5.509291E-17
5.730000E+03	1.568959E-15	5.184366E-17
5.740000E+03	1.499304E-15	4.971012E-17
5.750000E+03	1.468140E-15	4.871340E-17
5.760000E+03	1.475074E-15	4.886386E-17
5.770000E+03	1.520023E-15	5.016781E-17
5.780000E+03	1.603207E-15	5.262649E-17
5.790000E+03	1.724891E-15	5.623208E-17
5.800000E+03	1.884689E-15	6.095432E-17
5.810000E+03	2.080819E-15	6.672902E-17
5.820000E+03	2.309353E-15	7.344692E-17
5.830000E+03	2.563483E-15	8.093743E-17
5.840000E+03	2.833592E-15	8.896601E-17
5.850000E+03	3.107782E-15	9.722979E-17
5.860000E+03	3.373206E-15	1.053659E-16
5.870000E+03	3.617742E-15	1.129763E-16
5.880000E+03	3.831512E-15	1.196746E-16
5.890000E+03	4.007965E-15	1.251493E-16
5.900000E+03	4.144170E-15	1.292148E-16
5.910000E+03	4.240305E-15	1.318309E-16
5.920000E+03	4.298984E-15	1.330940E-16
5.930000E+03	4.324216E-15	1.331964E-16
5.940000E+03	4.320730E-15	1.323808E-16
5.950000E+03	4.293024E-15	1.308821E-16
5.960000E+03	4.245273E-15	1.289029E-16
5.970000E+03	4.181128E-15	1.265968E-16
5.980000E+03	4.103753E-15	1.240680E-16
5.990000E+03	4.016122E-15	1.213863E-16
6.000000E+03	3.921079E-15	1.185986E-16
6.010000E+03	3.821412E-15	1.157412E-16
6.020000E+03	3.720253E-15	1.128609E-16
6.030000E+03	3.620538E-15	1.100032E-16
6.040000E+03	3.525242E-15	1.072222E-16
6.050000E+03	3.436963E-15	1.045665E-16
6.060000E+03	3.357678E-15	1.020702E-16
6.070000E+03	3.288758E-15	9.975151E-17
6.080000E+03	3.230722E-15	9.760620E-17
6.090000E+03	3.183561E-15	9.561974E-17
6.100000E+03	3.146806E-15	9.377011E-17
6.110000E+03	3.119972E-15	9.203479E-17
6.120000E+03	3.102808E-15	9.038401E-17
6.130000E+03	3.095753E-15	8.877556E-17
6.140000E+03	3.099735E-15	8.713358E-17
6.150000E+03	3.116230E-15	8.534270E-17
6.160000E+03	3.146741E-15	8.323169E-17
6.170000E+03	3.192641E-15	8.057202E-17
6.180000E+03	3.254843E-15	7.708023E-17
6.190000E+03	3.333649E-15	7.244384E-17
6.200000E+03	3.429176E-15	6.640080E-17
6.210000E+03	3.541761E-15	5.891345E-17
6.220000E+03	3.672832E-15	5.060656E-17
6.230000E+03	3.825972E-15	4.383342E-17
6.240000E+03	4.008312E-15	4.393861E-17
6.250000E+03	4.219864E-15	5.365822E-17
6.260000E+03	4.444540E-15	6.854784E-17
6.270000E+03	4.664996E-15	8.482266E-17
6.280000E+03	4.865225E-15	1.004442E-16
6.290000E+03	5.031740E-15	1.142853E-16
6.300000E+03	5.154703E-15	1.257256E-16
6.310000E+03	5.228893E-15	1.345026E-16
6.320000E+03	5.254028E-15	1.406345E-16
6.330000E+03	5.234346E-15	1.443554E-16
6.340000E+03	5.177672E-15	1.460480E-16
6.350000E+03	5.093584E-15	1.461563E-16
6.360000E+03	4.992518E-15	1.451298E-16
6.370000E+03	4.883910E-15	1.433493E-16
6.380000E+03	4.775500E-15	1.410964E-16
6.390000E+03	4.672939E-15	1.385454E-16
6.400000E+03	4.579500E-15	1.357636E-16
6.410000E+03	4.496263E-15	1.327254E-16
6.420000E+03	4.422368E-15	1.293262E-16
6.430000E+03	4.355588E-15	1.254046E-16
6.440000E+03	4.292677E-15	1.207613E-16
6.450000E+03	4.229956E-15	1.151899E-16
6.460000E+03	4.164033E-15	1.085160E-16
6.470000E+03	4.092439E-15	1.006375E-16
6.480000E+03	4.014028E-15	9.156936E-17
6.490000E+03	3.929481E-15	8.151826E-17
6.500000E+03	3.841119E-15	7.101093E-17
6.510000E+03	3.752736E-15	6.116059E-17
6.520000E+03	3.668903E-15	5.405152E-17
6.530000E+03	3.594581E-15	5.258362E-17
6.540000E+03	3.531370E-15	5.708748E-17
6.550000E+03	3.476453E-15	6.442396E-17
6.560000E+03	3.426883E-15	7.217274E-17
6.570000E+03	3.380028E-15	7.908511E-17
6.580000E+03	3.333519E-15	8.460974E-17
6.590000E+03	3.285548E-15	8.857387E-17
6.600000E+03	3.234753E-15	9.102137E-17
6.610000E+03	3.180334E-15	9.213181E-17
6.620000E+03	3.122063E-15	9.216307E-17
6.630000E+03	3.060126E-15	9.139699E-17
6.640000E+03	2.995077E-15	9.009672E-17
6.650000E+03	2.927605E-15	8.847491E-17
6.660000E+03	2.858610E-15	8.668959E-17
6.670000E+03	2.788929E-15	8.484271E-17
6.680000E+03	2.719491E-15	8.299739E-17
6.690000E+03	2.651252E-15	8.119027E-17
6.700000E+03	2.585145E-15	7.944213E-17
6.710000E+03	2.522181E-15	7.777030E-17
6.720000E+03	2.463296E-15	7.619067E-17
6.730000E+03	2.409302E-15	7.472046E-17
6.740000E+03	2.360688E-15	7.337271E-17
6.750000E+03	2.317636E-15	7.215507E-17
6.760000E+03	2.279866E-15	7.106251E-17
6.770000E+03	2.246688E-15	7.007671E-17
6.780000E+03	2.217087E-15	6.916914E-17
6.790000E+03	2.189920E-15	6.830816E-17
6.800000E+03	2.164065E-15	6.746451E-17
6.810000E+03	2.138664E-15	6.661877E-17
6.820000E+03	2.113277E-15	6.576525E-17
6.830000E+03	2.088097E-15	6.491744E-17
6.840000E+03	2.063812E-15	6.410309E-17
6.850000E+03	2.041639E-15	6.336463E-17
6.860000E+03	2.023161E-15	6.275318E-17
6.870000E+03	2.010179E-15	6.232270E-17
6.880000E+03	2.004466E-15	6.212166E-17
6.890000E+03	2.007553E-15	6.218687E-17
6.900000E+03	2.020716E-15	6.254589E-17
6.910000E+03	2.044562E-15	6.320754E-17
6.920000E+03	2.079069E-15	6.416640E-17
6.930000E+03	2.123380E-15	6.539798E-17
6.940000E+03	2.175751E-15	6.685749E-17
6.950000E+03	2.233727E-15	6.848425E-17
6.960000E+03	2.294154E-15	7.020035E-17
6.970000E+03	2.353700E-15	7.192316E-17
6.980000E+03	2.409300E-15	7.357455E-17
6.990000E+03	2.458400E-15	7.508417E-17
7.000000E+03	2.499483E-15	7.640188E-17
7.010000E+03	2.532037E-15	7.749610E-17
7.020000E+03	2.556612E-15	7.836004E-17
7.030000E+03	2.574340E-15	7.900460E-17
7.040000E+03	2.586827E-15	7.946281E-17
7.050000E+03	2.595878E-15	7.978711E-17
7.060000E+03	2.603310E-15	8.004453E-17
7.070000E+03	2.610904E-15	8.031070E-17
7.080000E+03	2.620716E-15	8.067010E-17
7.090000E+03	2.634789E-15	8.119731E-17
7.100000E+03	2.655542E-15	8.196496E-17
7.110000E+03	2.685379E-15	8.303636E-17
7.120000E+03	2.726773E-15	8.447779E-17
7.130000E+03	2.781747E-15	8.634911E-17
7.140000E+03	2.851875E-15	8.870404E-17
7.150000E+03	2.937900E-15	9.157291E-17
7.160000E+03	3.039788E-15	9.495708E-17
7.170000E+03	3.156610E-15	9.882081E-17
7.180000E+03	3.286813E-15	1.030980E-16
7.190000E+03	3.428401E-15	1.076986E-16
7.200000E+03	3.579069E-15	1.125165E-16
7.210000E+03	3.736453E-15	1.174435E-16
7.220000E+03	3.897935E-15	1.223706E-16
7.230000E+03	4.060634E-15	1.271968E-16
7.240000E+03	4.221073E-15	1.318254E-16
7.250000E+03	4.375105E-15	1.361623E-16
7.260000E+03	4.517565E-15	1.400996E-16
7.270000E+03	4.642480E-15	1.435089E-16
7.280000E+03	4.743606E-15	1.462462E-16
7.290000E+03	4.814927E-15	1.481594E-16
7.300000E+03	4.851731E-15	1.491193E-16
7.310000E+03	4.851552E-15	1.490499E-16
7.320000E+03	4.815027E-15	1.479603E-16
7.330000E+03	4.745530E-15	1.459398E-16
7.340000E+03	4.649280E-15	1.431647E-16
7.350000E+03	4.533981E-15	1.398580E-16
7.360000E+03	4.407730E-15	1.362560E-16
7.370000E+03	4.277938E-15	1.325745E-16
7.380000E+03	4.150450E-15	1.289832E-16
7.390000E+03	4.029031E-15	1.255906E-16
7.400000E+03	3.915636E-15	1.224512E-16
7.410000E+03	3.810411E-15	1.195615E-16
7.420000E+03	3.712536E-15	1.168826E-16
7.430000E+03	3.620353E-15	1.143409E-16
7.440000E+03	3.532133E-15	1.118514E-16
7.450000E+03	3.446377E-15	1.093283E-16
7.460000E+03	3.361940E-15	1.066908E-16
7.470000E+03	3.278167E-15	1.038686E-16
7.480000E+03	3.194867E-15	1.008023E-16
7.490000E+03	3.112333E-15	9.744402E-17
7.500000E+03	3.031031E-15	9.374706E-17
7.510000E+03	2.951704E-15	8.966727E-17
7.520000E+03	2.875346E-15	8.515944E-17
7.530000E+03	2.803012E-15	8.016872E-17
7.540000E+03	2.735869E-15	7.463059E-17
7.550000E+03	2.675180E-15	6.847151E-17
7.560000E+03	2.622098E-15	6.161309E-17
7.570000E+03	2.577700E-15	5.400089E-17
7.580000E+03	2.542558E-15	4.566633E-17
7.590000E+03	2.516625E-15	3.692234E-17
7.600000E+03	2.498562E-15	2.892313E-17
7.610000E+03	2.485450E-15	2.490821E-17
7.620000E+03	2.474678E-15	2.843948E-17
7.630000E+03	2.473618E-15	3.655865E-17
7.640000E+03	2.490254E-15	4.592131E-17
7.650000E+03	2.529708E-15	5.537066E-17
7.660000E+03	2.594773E-15	6.465408E-17
7.670000E+03	2.686392E-15	7.378094E-17
7.680000E+03	2.803599E-15	8.279226E-17
7.690000E+03	2.943914E-15	9.169050E-17
7.700000E+03	3.102881E-15	1.004010E-16
7.710000E+03	3.274137E-15	1.087711E-16
7.720000E+03	3.449608E-15	1.165855E-16
7.730000E+03	3.619827E-15	1.235885E-16
7.740000E+03	3.774512E-15	1.295147E-16
7.750000E+03	3.903959E-15	1.341397E-16
7.760000E+03	3.999859E-15	1.373032E-16
