#wls	flux	fluxerr
1.600000E+03	1.177369E-16	1.352333E-16
1.640000E+03	1.196516E-16	1.366527E-16
1.680000E+03	1.216504E-16	1.380824E-16
1.720000E+03	1.237385E-16	1.395194E-16
1.760000E+03	1.259435E-16	1.409852E-16
1.800000E+03	1.282726E-16	1.424772E-16
1.840000E+03	1.307113E-16	1.439672E-16
1.880000E+03	1.332901E-16	1.454764E-16
1.920000E+03	1.359954E-16	1.469756E-16
1.960000E+03	1.388604E-16	1.484855E-16
2.000000E+03	1.418967E-16	1.500015E-16
2.040000E+03	1.451173E-16	1.515182E-16
2.080000E+03	1.485112E-16	1.530037E-16
2.120000E+03	1.520926E-16	1.544510E-16
2.160000E+03	1.559299E-16	1.559050E-16
2.200000E+03	1.599899E-16	1.573050E-16
2.240000E+03	1.643194E-16	1.586678E-16
2.280000E+03	1.689415E-16	1.599831E-16
2.320000E+03	1.738814E-16	1.612389E-16
2.360000E+03	1.791371E-16	1.623949E-16
2.400000E+03	1.847671E-16	1.634625E-16
2.440000E+03	1.908041E-16	1.644245E-16
2.480000E+03	1.972840E-16	1.652615E-16
2.520000E+03	2.042456E-16	1.659514E-16
2.560000E+03	2.117306E-16	1.664694E-16
2.600000E+03	2.197488E-16	1.667610E-16
2.640000E+03	2.284188E-16	1.668498E-16
2.680000E+03	2.377202E-16	1.666483E-16
2.720000E+03	2.477839E-16	1.661738E-16
2.760000E+03	2.585917E-16	1.653340E-16
2.800000E+03	2.702882E-16	1.641400E-16
2.840000E+03	2.828566E-16	1.624960E-16
2.880000E+03	2.964084E-16	1.603828E-16
2.920000E+03	3.110634E-16	1.577784E-16
2.960000E+03	3.267964E-16	1.545857E-16
3.000000E+03	3.437142E-16	1.507822E-16
3.010000E+03	3.481125E-16	1.497209E-16
3.020000E+03	3.526381E-16	1.486394E-16
3.030000E+03	3.572383E-16	1.475138E-16
3.040000E+03	3.618574E-16	1.463209E-16
3.050000E+03	3.666053E-16	1.451051E-16
3.060000E+03	3.714266E-16	1.438432E-16
3.070000E+03	3.762631E-16	1.425129E-16
3.080000E+03	3.812277E-16	1.411573E-16
3.090000E+03	3.862619E-16	1.397538E-16
3.100000E+03	3.913639E-16	1.383021E-16
3.110000E+03	3.965313E-16	1.368015E-16
3.120000E+03	4.017611E-16	1.352517E-16
3.130000E+03	4.071115E-16	1.336725E-16
3.140000E+03	4.124559E-16	1.320230E-16
3.150000E+03	4.178508E-16	1.303232E-16
3.160000E+03	4.232906E-16	1.285730E-16
3.170000E+03	4.288337E-16	1.267913E-16
3.180000E+03	4.343453E-16	1.249397E-16
3.190000E+03	4.399473E-16	1.230559E-16
3.200000E+03	4.455002E-16	1.211029E-16
3.210000E+03	4.511271E-16	1.191173E-16
3.220000E+03	4.567520E-16	1.170812E-16
3.230000E+03	4.622949E-16	1.149776E-16
3.240000E+03	4.678806E-16	1.128419E-16
3.250000E+03	4.734283E-16	1.106573E-16
3.260000E+03	4.789242E-16	1.084247E-16
3.270000E+03	4.843538E-16	1.061453E-16
3.280000E+03	4.897020E-16	1.038206E-16
3.290000E+03	4.949532E-16	1.014526E-16
3.300000E+03	5.000912E-16	9.904346E-17
3.310000E+03	5.050996E-16	9.659611E-17
3.320000E+03	5.100371E-16	9.412783E-17
3.330000E+03	5.147385E-16	9.161482E-17
3.340000E+03	5.192626E-16	8.907629E-17
3.350000E+03	5.236711E-16	8.653072E-17
3.360000E+03	5.277985E-16	8.395928E-17
3.370000E+03	5.317091E-16	8.138269E-17
3.380000E+03	5.354713E-16	7.882092E-17
3.390000E+03	5.390014E-16	7.627095E-17
3.400000E+03	5.422173E-16	7.373182E-17
3.410000E+03	5.452757E-16	7.123515E-17
3.420000E+03	5.481031E-16	6.877966E-17
3.430000E+03	5.506291E-16	6.636521E-17
3.440000E+03	5.530262E-16	6.402000E-17
3.450000E+03	5.552351E-16	6.174211E-17
3.460000E+03	5.572809E-16	5.953880E-17
3.470000E+03	5.591943E-16	5.741683E-17
3.480000E+03	5.610115E-16	5.538279E-17
3.490000E+03	5.627735E-16	5.344372E-17
3.500000E+03	5.645260E-16	5.160776E-17
3.510000E+03	5.663183E-16	4.988499E-17
3.520000E+03	5.682023E-16	4.828820E-17
3.530000E+03	5.703122E-16	4.684027E-17
3.540000E+03	5.725406E-16	4.554795E-17
3.550000E+03	5.750208E-16	4.444229E-17
3.560000E+03	5.778029E-16	4.355077E-17
3.570000E+03	5.810146E-16	4.290852E-17
3.580000E+03	5.845322E-16	4.253103E-17
3.590000E+03	5.885486E-16	4.245148E-17
3.600000E+03	5.929128E-16	4.266562E-17
3.610000E+03	5.977830E-16	4.317440E-17
3.620000E+03	6.029672E-16	4.393868E-17
3.630000E+03	6.085952E-16	4.493416E-17
3.640000E+03	6.144533E-16	4.610845E-17
3.650000E+03	6.206619E-16	4.743444E-17
3.660000E+03	6.270858E-16	4.886888E-17
3.670000E+03	6.335883E-16	5.037177E-17
3.680000E+03	6.402987E-16	5.192844E-17
3.690000E+03	6.470923E-16	5.350851E-17
3.700000E+03	6.539404E-16	5.509302E-17
3.710000E+03	6.608260E-16	5.666747E-17
3.720000E+03	6.676539E-16	5.821353E-17
3.730000E+03	6.746168E-16	5.974044E-17
3.740000E+03	6.816504E-16	6.123751E-17
3.750000E+03	6.887960E-16	6.270504E-17
3.760000E+03	6.961094E-16	6.414625E-17
3.770000E+03	7.036597E-16	6.556686E-17
3.780000E+03	7.115271E-16	6.697467E-17
3.790000E+03	7.198002E-16	6.837899E-17
3.800000E+03	7.285731E-16	6.979008E-17
3.810000E+03	7.379417E-16	7.121846E-17
3.820000E+03	7.480004E-16	7.267428E-17
3.830000E+03	7.588382E-16	7.416654E-17
3.840000E+03	7.705350E-16	7.570250E-17
3.850000E+03	7.831581E-16	7.728705E-17
3.860000E+03	7.967592E-16	7.892221E-17
3.870000E+03	8.113715E-16	8.060684E-17
3.880000E+03	8.271174E-16	8.234733E-17
3.890000E+03	8.437679E-16	8.411407E-17
3.900000E+03	8.613961E-16	8.590664E-17
3.910000E+03	8.799410E-16	8.771100E-17
3.920000E+03	8.993151E-16	8.951078E-17
3.930000E+03	9.194044E-16	9.128790E-17
3.940000E+03	9.400686E-16	9.302336E-17
3.950000E+03	9.612687E-16	9.471051E-17
3.960000E+03	9.825664E-16	9.630624E-17
3.970000E+03	1.003878E-15	9.780579E-17
3.980000E+03	1.024980E-15	9.919416E-17
3.990000E+03	1.045642E-15	1.004587E-16
4.000000E+03	1.065630E-15	1.015892E-16
4.010000E+03	1.084860E-15	1.025915E-16
4.020000E+03	1.102841E-15	1.034337E-16
4.030000E+03	1.119527E-15	1.041257E-16
4.040000E+03	1.134765E-15	1.046660E-16
4.050000E+03	1.148444E-15	1.050546E-16
4.060000E+03	1.160494E-15	1.052923E-16
4.070000E+03	1.170895E-15	1.053815E-16
4.080000E+03	1.179677E-15	1.053249E-16
4.090000E+03	1.186914E-15	1.051264E-16
4.100000E+03	1.192723E-15	1.047902E-16
4.110000E+03	1.197260E-15	1.043216E-16
4.120000E+03	1.200711E-15	1.037261E-16
4.130000E+03	1.203282E-15	1.030096E-16
4.140000E+03	1.205192E-15	1.021780E-16
4.150000E+03	1.206666E-15	1.012367E-16
4.160000E+03	1.207922E-15	1.001900E-16
4.170000E+03	1.209166E-15	9.904067E-17
4.180000E+03	1.210584E-15	9.778924E-17
4.190000E+03	1.212342E-15	9.643348E-17
4.200000E+03	1.214579E-15	9.496799E-17
4.210000E+03	1.217409E-15	9.338389E-17
4.220000E+03	1.220765E-15	9.165712E-17
4.230000E+03	1.225019E-15	8.979460E-17
4.240000E+03	1.230056E-15	8.776448E-17
4.250000E+03	1.235898E-15	8.554305E-17
4.260000E+03	1.242389E-15	8.309316E-17
4.270000E+03	1.249821E-15	8.040704E-17
4.280000E+03	1.257848E-15	7.743517E-17
4.290000E+03	1.266731E-15	7.417055E-17
4.300000E+03	1.276087E-15	7.057465E-17
4.310000E+03	1.286149E-15	6.665930E-17
4.320000E+03	1.296502E-15	6.242503E-17
4.330000E+03	1.307359E-15	5.794396E-17
4.340000E+03	1.318282E-15	5.331859E-17
4.350000E+03	1.329317E-15	4.876740E-17
4.360000E+03	1.340351E-15	4.463329E-17
4.370000E+03	1.351456E-15	4.141844E-17
4.380000E+03	1.362235E-15	3.970170E-17
4.390000E+03	1.372850E-15	3.994577E-17
4.400000E+03	1.383406E-15	4.219581E-17
4.410000E+03	1.394111E-15	4.607291E-17
4.420000E+03	1.405226E-15	5.103988E-17
4.430000E+03	1.417026E-15	5.662795E-17
4.440000E+03	1.429769E-15	6.250705E-17
4.450000E+03	1.443502E-15	6.846111E-17
4.460000E+03	1.458736E-15	7.438401E-17
4.470000E+03	1.475380E-15	8.019995E-17
4.480000E+03	1.493235E-15	8.586103E-17
4.490000E+03	1.512532E-15	9.136478E-17
4.500000E+03	1.532841E-15	9.668367E-17
4.510000E+03	1.553611E-15	1.017861E-16
4.520000E+03	1.574556E-15	1.066589E-16
4.530000E+03	1.595320E-15	1.112861E-16
4.540000E+03	1.614932E-15	1.156079E-16
4.550000E+03	1.632988E-15	1.196018E-16
4.560000E+03	1.648937E-15	1.232343E-16
4.570000E+03	1.662307E-15	1.264767E-16
4.580000E+03	1.672746E-15	1.293086E-16
4.590000E+03	1.680036E-15	1.317193E-16
4.600000E+03	1.684107E-15	1.337097E-16
4.610000E+03	1.685030E-15	1.352915E-16
4.620000E+03	1.683003E-15	1.364873E-16
4.630000E+03	1.678127E-15	1.373117E-16
4.640000E+03	1.671172E-15	1.378349E-16
4.650000E+03	1.662158E-15	1.380660E-16
4.660000E+03	1.651911E-15	1.380811E-16
4.670000E+03	1.640459E-15	1.378908E-16
4.680000E+03	1.628392E-15	1.375526E-16
4.690000E+03	1.616250E-15	1.371203E-16
4.700000E+03	1.603951E-15	1.365950E-16
4.710000E+03	1.591932E-15	1.360218E-16
4.720000E+03	1.580385E-15	1.354248E-16
4.730000E+03	1.569454E-15	1.348236E-16
4.740000E+03	1.559241E-15	1.342341E-16
4.750000E+03	1.549628E-15	1.336530E-16
4.760000E+03	1.541016E-15	1.331212E-16
4.770000E+03	1.533239E-15	1.326305E-16
4.780000E+03	1.526122E-15	1.321714E-16
4.790000E+03	1.520014E-15	1.317793E-16
4.800000E+03	1.514547E-15	1.314271E-16
4.810000E+03	1.509883E-15	1.311327E-16
4.820000E+03	1.505998E-15	1.308974E-16
4.830000E+03	1.502860E-15	1.307210E-16
4.840000E+03	1.500427E-15	1.306014E-16
4.850000E+03	1.498641E-15	1.305345E-16
4.860000E+03	1.497431E-15	1.305139E-16
4.870000E+03	1.496711E-15	1.305315E-16
4.880000E+03	1.496384E-15	1.305774E-16
4.890000E+03	1.496174E-15	1.306260E-16
4.900000E+03	1.496317E-15	1.306964E-16
4.910000E+03	1.496364E-15	1.307479E-16
4.920000E+03	1.496559E-15	1.308009E-16
4.930000E+03	1.496464E-15	1.308167E-16
4.940000E+03	1.496166E-15	1.308033E-16
4.950000E+03	1.495590E-15	1.307546E-16
4.960000E+03	1.494677E-15	1.306661E-16
4.970000E+03	1.493385E-15	1.305353E-16
4.980000E+03	1.491705E-15	1.303615E-16
4.990000E+03	1.489495E-15	1.301322E-16
5.000000E+03	1.487168E-15	1.298828E-16
5.010000E+03	1.484681E-15	1.296083E-16
5.020000E+03	1.482044E-15	1.293078E-16
5.030000E+03	1.479654E-15	1.290141E-16
5.040000E+03	1.477938E-15	1.287625E-16
5.050000E+03	1.476838E-15	1.285461E-16
5.060000E+03	1.476789E-15	1.284013E-16
5.070000E+03	1.478030E-15	1.283476E-16
5.080000E+03	1.480744E-15	1.283994E-16
5.090000E+03	1.485040E-15	1.285651E-16
5.100000E+03	1.490943E-15	1.288449E-16
5.110000E+03	1.498215E-15	1.292168E-16
5.120000E+03	1.507039E-15	1.296940E-16
5.130000E+03	1.516841E-15	1.302242E-16
5.140000E+03	1.527666E-15	1.308082E-16
5.150000E+03	1.538834E-15	1.313836E-16
5.160000E+03	1.550158E-15	1.319301E-16
5.170000E+03	1.561285E-15	1.324126E-16
5.180000E+03	1.571882E-15	1.327968E-16
5.190000E+03	1.581653E-15	1.330509E-16
5.200000E+03	1.590351E-15	1.331459E-16
5.210000E+03	1.597778E-15	1.330561E-16
5.220000E+03	1.603792E-15	1.327591E-16
5.230000E+03	1.608120E-15	1.322208E-16
5.240000E+03	1.611074E-15	1.314546E-16
5.250000E+03	1.612282E-15	1.304178E-16
5.260000E+03	1.611943E-15	1.291144E-16
5.270000E+03	1.610275E-15	1.275500E-16
5.280000E+03	1.606973E-15	1.256893E-16
5.290000E+03	1.602277E-15	1.235409E-16
5.300000E+03	1.596258E-15	1.210996E-16
5.310000E+03	1.588988E-15	1.183601E-16
5.320000E+03	1.580548E-15	1.153167E-16
5.330000E+03	1.570851E-15	1.119502E-16
5.340000E+03	1.560348E-15	1.082789E-16
5.350000E+03	1.548808E-15	1.042705E-16
5.360000E+03	1.536714E-15	9.994100E-17
5.370000E+03	1.523887E-15	9.526076E-17
5.380000E+03	1.510858E-15	9.024553E-17
5.390000E+03	1.497514E-15	8.487090E-17
5.400000E+03	1.484280E-15	7.914691E-17
5.410000E+03	1.471436E-15	7.307840E-17
5.420000E+03	1.459283E-15	6.667985E-17
5.430000E+03	1.448120E-15	5.998389E-17
5.440000E+03	1.438231E-15	5.305833E-17
5.450000E+03	1.429694E-15	4.603551E-17
5.460000E+03	1.422995E-15	3.920252E-17
5.470000E+03	1.417892E-15	3.309419E-17
5.480000E+03	1.414656E-15	2.869712E-17
5.490000E+03	1.412782E-15	2.727680E-17
5.500000E+03	1.412204E-15	2.939049E-17
5.510000E+03	1.412032E-15	3.416730E-17
5.520000E+03	1.411729E-15	4.030193E-17
5.530000E+03	1.410585E-15	4.686885E-17
5.540000E+03	1.407943E-15	5.334306E-17
5.550000E+03	1.403248E-15	5.943672E-17
5.560000E+03	1.396086E-15	6.499108E-17
5.570000E+03	1.386045E-15	6.991387E-17
5.580000E+03	1.373327E-15	7.418229E-17
5.590000E+03	1.357816E-15	7.778358E-17
5.600000E+03	1.339520E-15	8.072625E-17
5.610000E+03	1.318981E-15	8.306169E-17
5.620000E+03	1.296219E-15	8.481726E-17
5.630000E+03	1.271744E-15	8.605491E-17
5.640000E+03	1.246096E-15	8.684213E-17
5.650000E+03	1.219436E-15	8.722093E-17
5.660000E+03	1.192375E-15	8.726409E-17
5.670000E+03	1.165411E-15	8.703660E-17
5.680000E+03	1.139063E-15	8.660461E-17
5.690000E+03	1.113855E-15	8.603458E-17
5.700000E+03	1.090181E-15	8.538269E-17
5.710000E+03	1.068769E-15	8.473084E-17
5.720000E+03	1.049935E-15	8.412828E-17
5.730000E+03	1.033936E-15	8.361840E-17
5.740000E+03	1.021295E-15	8.326443E-17
5.750000E+03	1.011990E-15	8.308390E-17
5.760000E+03	1.006358E-15	8.312119E-17
5.770000E+03	1.004188E-15	8.337400E-17
5.780000E+03	1.005509E-15	8.385713E-17
5.790000E+03	1.010137E-15	8.456610E-17
5.800000E+03	1.017798E-15	8.548656E-17
5.810000E+03	1.028127E-15	8.659465E-17
5.820000E+03	1.040679E-15	8.785752E-17
5.830000E+03	1.054941E-15	8.923416E-17
5.840000E+03	1.070349E-15	9.067665E-17
5.850000E+03	1.086308E-15	9.213184E-17
5.860000E+03	1.102215E-15	9.354366E-17
5.870000E+03	1.117365E-15	9.484556E-17
5.880000E+03	1.131464E-15	9.600500E-17
5.890000E+03	1.143922E-15	9.696458E-17
5.900000E+03	1.154232E-15	9.767524E-17
5.910000E+03	1.162242E-15	9.812000E-17
5.920000E+03	1.167916E-15	9.829402E-17
5.930000E+03	1.170950E-15	9.817199E-17
5.940000E+03	1.171534E-15	9.777190E-17
5.950000E+03	1.169960E-15	9.712095E-17
5.960000E+03	1.166220E-15	9.622153E-17
5.970000E+03	1.160763E-15	9.511306E-17
5.980000E+03	1.153958E-15	9.382695E-17
5.990000E+03	1.146203E-15	9.239518E-17
6.000000E+03	1.137905E-15	9.084846E-17
6.010000E+03	1.129462E-15	8.921448E-17
6.020000E+03	1.121126E-15	8.750686E-17
6.030000E+03	1.113481E-15	8.576242E-17
6.040000E+03	1.106696E-15	8.398212E-17
6.050000E+03	1.101018E-15	8.216937E-17
6.060000E+03	1.096518E-15	8.031117E-17
6.070000E+03	1.093589E-15	7.841383E-17
6.080000E+03	1.092101E-15	7.644167E-17
6.090000E+03	1.092375E-15	7.438757E-17
6.100000E+03	1.094240E-15	7.220621E-17
6.110000E+03	1.097883E-15	6.987355E-17
6.120000E+03	1.103511E-15	6.736191E-17
6.130000E+03	1.111002E-15	6.461920E-17
6.140000E+03	1.120659E-15	6.161448E-17
6.150000E+03	1.132745E-15	5.830776E-17
6.160000E+03	1.147629E-15	5.465799E-17
6.170000E+03	1.165943E-15	5.062966E-17
6.180000E+03	1.188088E-15	4.617386E-17
6.190000E+03	1.214999E-15	4.127384E-17
6.200000E+03	1.247626E-15	3.595105E-17
6.210000E+03	1.286867E-15	3.034816E-17
6.220000E+03	1.334031E-15	2.495980E-17
6.230000E+03	1.389853E-15	2.110273E-17
6.240000E+03	1.454790E-15	2.113361E-17
6.250000E+03	1.528530E-15	2.615849E-17
6.260000E+03	1.609557E-15	3.464785E-17
6.270000E+03	1.695865E-15	4.493423E-17
6.280000E+03	1.784060E-15	5.603764E-17
6.290000E+03	1.870057E-15	6.732155E-17
6.300000E+03	1.950047E-15	7.828800E-17
6.310000E+03	2.019492E-15	8.845652E-17
6.320000E+03	2.075250E-15	9.742844E-17
6.330000E+03	2.114229E-15	1.048400E-16
6.340000E+03	2.135221E-15	1.104594E-16
6.350000E+03	2.138350E-15	1.141773E-16
6.360000E+03	2.124274E-15	1.159671E-16
6.370000E+03	2.095364E-15	1.159454E-16
6.380000E+03	2.054666E-15	1.143082E-16
6.390000E+03	2.004865E-15	1.112597E-16
6.400000E+03	1.949336E-15	1.070573E-16
6.410000E+03	1.890959E-15	1.019344E-16
6.420000E+03	1.832187E-15	9.609408E-17
6.430000E+03	1.774956E-15	8.970049E-17
6.440000E+03	1.720671E-15	8.287626E-17
6.450000E+03	1.670236E-15	7.570782E-17
6.460000E+03	1.624120E-15	6.825644E-17
6.470000E+03	1.582425E-15	6.057647E-17
6.480000E+03	1.544964E-15	5.274417E-17
6.490000E+03	1.511327E-15	4.490730E-17
6.500000E+03	1.480942E-15	3.737720E-17
6.510000E+03	1.453129E-15	3.079958E-17
6.520000E+03	1.427003E-15	2.635590E-17
6.530000E+03	1.402201E-15	2.544689E-17
6.540000E+03	1.378063E-15	2.821362E-17
6.550000E+03	1.354157E-15	3.324045E-17
6.560000E+03	1.330631E-15	3.910274E-17
6.570000E+03	1.307243E-15	4.497493E-17
6.580000E+03	1.283813E-15	5.045575E-17
6.590000E+03	1.260635E-15	5.538255E-17
6.600000E+03	1.237484E-15	5.968512E-17
6.610000E+03	1.214726E-15	6.337969E-17
6.620000E+03	1.192205E-15	6.649089E-17
6.630000E+03	1.170310E-15	6.908974E-17
6.640000E+03	1.148902E-15	7.122590E-17
6.650000E+03	1.128343E-15	7.298000E-17
6.660000E+03	1.108464E-15	7.439661E-17
6.670000E+03	1.089446E-15	7.553639E-17
6.680000E+03	1.071430E-15	7.645126E-17
6.690000E+03	1.054174E-15	7.715840E-17
6.700000E+03	1.037770E-15	7.769183E-17
6.710000E+03	1.022176E-15	7.807051E-17
6.720000E+03	1.007450E-15	7.831746E-17
6.730000E+03	9.933145E-16	7.842697E-17
6.740000E+03	9.798337E-16	7.841845E-17
6.750000E+03	9.669697E-16	7.830303E-17
6.760000E+03	9.546975E-16	7.809303E-17
6.770000E+03	9.430065E-16	7.780230E-17
6.780000E+03	9.319002E-16	7.744613E-17
6.790000E+03	9.213947E-16	7.704096E-17
6.800000E+03	9.115167E-16	7.660382E-17
6.810000E+03	9.023015E-16	7.615176E-17
6.820000E+03	8.937910E-16	7.570127E-17
6.830000E+03	8.860313E-16	7.526768E-17
6.840000E+03	8.790709E-16	7.486475E-17
6.850000E+03	8.729587E-16	7.450427E-17
6.860000E+03	8.677413E-16	7.419593E-17
6.870000E+03	8.633646E-16	7.393896E-17
6.880000E+03	8.600565E-16	7.375530E-17
6.890000E+03	8.577456E-16	7.364012E-17
6.900000E+03	8.564450E-16	7.359519E-17
6.910000E+03	8.560587E-16	7.361262E-17
6.920000E+03	8.567624E-16	7.370793E-17
6.930000E+03	8.584299E-16	7.387102E-17
6.940000E+03	8.609196E-16	7.409090E-17
6.950000E+03	8.643654E-16	7.438077E-17
6.960000E+03	8.686032E-16	7.472855E-17
6.970000E+03	8.734602E-16	7.512170E-17
6.980000E+03	8.790550E-16	7.557277E-17
6.990000E+03	8.851186E-16	7.606088E-17
7.000000E+03	8.917855E-16	7.659951E-17
7.010000E+03	8.988094E-16	7.716901E-17
7.020000E+03	9.062640E-16	7.777675E-17
7.030000E+03	9.142546E-16	7.843223E-17
7.040000E+03	9.226121E-16	7.912098E-17
7.050000E+03	9.316165E-16	7.986655E-17
7.060000E+03	9.411749E-16	8.066012E-17
7.070000E+03	9.515515E-16	8.152316E-17
7.080000E+03	9.629536E-16	8.247201E-17
7.090000E+03	9.757451E-16	8.353630E-17
7.100000E+03	9.900064E-16	8.472132E-17
7.110000E+03	1.006183E-15	8.606368E-17
7.120000E+03	1.024639E-15	8.759336E-17
7.130000E+03	1.045757E-15	8.934185E-17
7.140000E+03	1.069913E-15	9.134047E-17
7.150000E+03	1.097454E-15	9.361824E-17
7.160000E+03	1.128671E-15	9.619914E-17
7.170000E+03	1.163759E-15	9.909891E-17
7.180000E+03	1.202781E-15	1.023214E-16
7.190000E+03	1.245624E-15	1.058549E-16
7.200000E+03	1.291953E-15	1.096677E-16
7.210000E+03	1.341176E-15	1.137057E-16
7.220000E+03	1.392415E-15	1.178892E-16
7.230000E+03	1.444495E-15	1.221129E-16
7.240000E+03	1.495962E-15	1.262476E-16
7.250000E+03	1.544957E-15	1.301299E-16
7.260000E+03	1.589997E-15	1.336294E-16
7.270000E+03	1.629061E-15	1.365715E-16
7.280000E+03	1.660419E-15	1.388083E-16
7.290000E+03	1.682427E-15	1.402008E-16
7.300000E+03	1.694419E-15	1.406941E-16
7.310000E+03	1.695673E-15	1.402304E-16
7.320000E+03	1.686021E-15	1.387989E-16
7.330000E+03	1.666405E-15	1.364822E-16
7.340000E+03	1.637465E-15	1.333377E-16
7.350000E+03	1.600938E-15	1.295132E-16
7.360000E+03	1.558023E-15	1.251115E-16
7.370000E+03	1.510538E-15	1.202848E-16
7.380000E+03	1.460232E-15	1.151781E-16
7.390000E+03	1.408217E-15	1.098834E-16
7.400000E+03	1.355926E-15	1.045166E-16
7.410000E+03	1.304569E-15	9.917252E-17
7.420000E+03	1.254700E-15	9.389325E-17
7.430000E+03	1.207157E-15	8.873893E-17
7.440000E+03	1.162472E-15	8.374282E-17
7.450000E+03	1.121183E-15	7.893412E-17
7.460000E+03	1.083352E-15	7.430298E-17
7.470000E+03	1.049358E-15	6.985746E-17
7.480000E+03	1.019393E-15	6.558631E-17
7.490000E+03	9.935944E-16	6.146868E-17
7.500000E+03	9.720491E-16	5.747377E-17
7.510000E+03	9.547823E-16	5.356050E-17
7.520000E+03	9.417456E-16	4.967735E-17
7.530000E+03	9.326925E-16	4.575791E-17
7.540000E+03	9.275875E-16	4.174490E-17
7.550000E+03	9.259420E-16	3.756301E-17
7.560000E+03	9.272333E-16	3.315284E-17
7.570000E+03	9.307985E-16	2.848787E-17
7.580000E+03	9.357493E-16	2.361850E-17
7.590000E+03	9.414547E-16	1.879165E-17
7.600000E+03	9.469763E-16	1.469465E-17
7.610000E+03	9.515208E-16	1.282302E-17
7.620000E+03	9.549818E-16	1.444605E-17
7.630000E+03	9.573223E-16	1.856388E-17
7.640000E+03	9.593292E-16	2.362329E-17
7.650000E+03	9.615041E-16	2.883802E-17
7.660000E+03	9.646824E-16	3.391225E-17
7.670000E+03	9.695973E-16	3.875470E-17
7.680000E+03	9.764666E-16	4.334413E-17
7.690000E+03	9.856186E-16	4.770236E-17
7.700000E+03	9.971383E-16	5.185792E-17
7.710000E+03	1.010517E-15	5.581241E-17
7.720000E+03	1.025364E-15	5.956830E-17
7.730000E+03	1.040980E-15	6.310405E-17
7.740000E+03	1.056529E-15	6.638112E-17
7.750000E+03	1.071107E-15	6.934836E-17
7.760000E+03	1.083819E-15	7.194860E-17
