#wls	flux	fluxerr
1.600000E+03	9.423910E-17	1.082782E-16
1.640000E+03	9.599238E-17	1.096609E-16
1.680000E+03	9.784390E-17	1.110819E-16
1.720000E+03	9.980094E-17	1.125409E-16
1.760000E+03	1.018714E-16	1.140378E-16
1.800000E+03	1.040824E-16	1.155921E-16
1.840000E+03	1.064259E-16	1.171833E-16
1.880000E+03	1.089124E-16	1.188100E-16
1.920000E+03	1.115728E-16	1.204919E-16
1.960000E+03	1.144013E-16	1.222060E-16
2.000000E+03	1.174116E-16	1.239496E-16
2.040000E+03	1.206398E-16	1.257410E-16
2.080000E+03	1.240827E-16	1.275544E-16
2.120000E+03	1.277584E-16	1.293840E-16
2.160000E+03	1.317093E-16	1.312458E-16
2.200000E+03	1.359354E-16	1.331090E-16
2.240000E+03	1.404600E-16	1.349632E-16
2.280000E+03	1.453332E-16	1.368196E-16
2.320000E+03	1.505585E-16	1.386398E-16
2.360000E+03	1.561915E-16	1.404302E-16
2.400000E+03	1.622378E-16	1.421456E-16
2.440000E+03	1.687296E-16	1.437611E-16
2.480000E+03	1.757303E-16	1.452721E-16
2.520000E+03	1.832466E-16	1.466205E-16
2.560000E+03	1.913456E-16	1.477925E-16
2.600000E+03	2.000320E-16	1.487199E-16
2.640000E+03	2.093392E-16	1.493538E-16
2.680000E+03	2.193351E-16	1.496660E-16
2.720000E+03	2.300138E-16	1.495737E-16
2.760000E+03	2.414392E-16	1.490408E-16
2.800000E+03	2.535931E-16	1.479789E-16
2.840000E+03	2.664879E-16	1.463240E-16
2.880000E+03	2.801772E-16	1.440367E-16
2.920000E+03	2.946221E-16	1.410305E-16
2.960000E+03	3.098752E-16	1.372688E-16
3.000000E+03	3.258950E-16	1.326702E-16
3.010000E+03	3.300345E-16	1.313887E-16
3.020000E+03	3.341683E-16	1.300290E-16
3.030000E+03	3.384058E-16	1.286332E-16
3.040000E+03	3.426932E-16	1.271790E-16
3.050000E+03	3.470308E-16	1.256654E-16
3.060000E+03	3.514191E-16	1.240917E-16
3.070000E+03	3.558586E-16	1.224570E-16
3.080000E+03	3.603496E-16	1.207606E-16
3.090000E+03	3.648926E-16	1.190018E-16
3.100000E+03	3.694880E-16	1.171799E-16
3.110000E+03	3.741362E-16	1.152943E-16
3.120000E+03	3.788374E-16	1.133446E-16
3.130000E+03	3.835917E-16	1.113305E-16
3.140000E+03	3.883990E-16	1.092519E-16
3.150000E+03	3.932592E-16	1.071089E-16
3.160000E+03	3.981715E-16	1.049019E-16
3.170000E+03	4.032005E-16	1.026482E-16
3.180000E+03	4.082148E-16	1.003153E-16
3.190000E+03	4.132772E-16	9.792182E-17
3.200000E+03	4.183851E-16	9.546999E-17
3.210000E+03	4.235353E-16	9.296256E-17
3.220000E+03	4.287931E-16	9.041765E-17
3.230000E+03	4.340157E-16	8.780994E-17
3.240000E+03	4.392657E-16	8.515962E-17
3.250000E+03	4.446071E-16	8.248600E-17
3.260000E+03	4.498890E-16	7.976907E-17
3.270000E+03	4.551720E-16	7.703044E-17
3.280000E+03	4.605180E-16	7.429076E-17
3.290000E+03	4.657660E-16	7.153521E-17
3.300000E+03	4.709733E-16	6.878624E-17
3.310000E+03	4.761978E-16	6.606493E-17
3.320000E+03	4.812674E-16	6.336039E-17
3.330000E+03	4.863120E-16	6.070408E-17
3.340000E+03	4.911514E-16	5.808686E-17
3.350000E+03	4.959136E-16	5.553829E-17
3.360000E+03	5.004108E-16	5.305084E-17
3.370000E+03	5.047697E-16	5.065266E-17
3.380000E+03	5.087966E-16	4.833851E-17
3.390000E+03	5.126191E-16	4.613622E-17
3.400000E+03	5.161235E-16	4.405054E-17
3.410000E+03	5.191965E-16	4.208780E-17
3.420000E+03	5.219760E-16	4.027364E-17
3.430000E+03	5.242773E-16	3.860411E-17
3.440000E+03	5.262554E-16	3.709662E-17
3.450000E+03	5.278273E-16	3.574481E-17
3.460000E+03	5.289210E-16	3.453839E-17
3.470000E+03	5.297284E-16	3.347925E-17
3.480000E+03	5.302047E-16	3.254917E-17
3.490000E+03	5.304032E-16	3.173340E-17
3.500000E+03	5.303072E-16	3.101149E-17
3.510000E+03	5.301618E-16	3.037857E-17
3.520000E+03	5.299679E-16	2.981720E-17
3.530000E+03	5.297300E-16	2.931379E-17
3.540000E+03	5.297026E-16	2.887298E-17
3.550000E+03	5.298874E-16	2.849007E-17
3.560000E+03	5.303647E-16	2.816937E-17
3.570000E+03	5.312063E-16	2.791853E-17
3.580000E+03	5.323894E-16	2.774258E-17
3.590000E+03	5.341246E-16	2.765914E-17
3.600000E+03	5.363458E-16	2.766822E-17
3.610000E+03	5.390005E-16	2.775719E-17
3.620000E+03	5.419942E-16	2.790507E-17
3.630000E+03	5.452134E-16	2.808994E-17
3.640000E+03	5.485311E-16	2.829109E-17
3.650000E+03	5.517279E-16	2.848624E-17
3.660000E+03	5.548411E-16	2.867003E-17
3.670000E+03	5.576579E-16	2.882772E-17
3.680000E+03	5.600643E-16	2.895252E-17
3.690000E+03	5.619663E-16	2.904094E-17
3.700000E+03	5.632978E-16	2.909230E-17
3.710000E+03	5.640272E-16	2.910832E-17
3.720000E+03	5.641636E-16	2.909280E-17
3.730000E+03	5.637615E-16	2.905147E-17
3.740000E+03	5.629221E-16	2.899173E-17
3.750000E+03	5.617931E-16	2.892262E-17
3.760000E+03	5.605637E-16	2.885476E-17
3.770000E+03	5.594587E-16	2.880021E-17
3.780000E+03	5.587299E-16	2.877246E-17
3.790000E+03	5.585606E-16	2.878181E-17
3.800000E+03	5.593987E-16	2.885253E-17
3.810000E+03	5.614313E-16	2.899576E-17
3.820000E+03	5.649179E-16	2.922619E-17
3.830000E+03	5.700951E-16	2.955658E-17
3.840000E+03	5.771685E-16	2.999675E-17
3.850000E+03	5.863051E-16	3.055259E-17
3.860000E+03	5.976265E-16	3.122508E-17
3.870000E+03	6.112048E-16	3.200994E-17
3.880000E+03	6.270577E-16	3.289744E-17
3.890000E+03	6.451455E-16	3.387207E-17
3.900000E+03	6.653674E-16	3.491245E-17
3.910000E+03	6.875591E-16	3.599135E-17
3.920000E+03	7.114920E-16	3.707619E-17
3.930000E+03	7.368731E-16	3.813052E-17
3.940000E+03	7.633482E-16	3.911641E-17
3.950000E+03	7.905060E-16	3.999715E-17
3.960000E+03	8.178850E-16	4.074042E-17
3.970000E+03	8.449825E-16	4.132118E-17
3.980000E+03	8.712675E-16	4.172412E-17
3.990000E+03	8.960639E-16	4.193894E-17
4.000000E+03	9.191104E-16	4.198563E-17
4.010000E+03	9.397884E-16	4.187494E-17
4.020000E+03	9.576810E-16	4.163048E-17
4.030000E+03	9.724726E-16	4.127819E-17
4.040000E+03	9.839717E-16	4.084270E-17
4.050000E+03	9.921208E-16	4.034630E-17
4.060000E+03	9.969958E-16	3.980891E-17
4.070000E+03	9.987978E-16	3.924796E-17
4.080000E+03	9.976895E-16	3.867200E-17
4.090000E+03	9.943751E-16	3.810262E-17
4.100000E+03	9.891821E-16	3.753898E-17
4.110000E+03	9.826349E-16	3.698315E-17
4.120000E+03	9.752801E-16	3.643667E-17
4.130000E+03	9.676619E-16	3.590215E-17
4.140000E+03	9.601538E-16	3.537925E-17
4.150000E+03	9.535080E-16	3.488562E-17
4.160000E+03	9.479770E-16	3.442399E-17
4.170000E+03	9.438744E-16	3.400248E-17
4.180000E+03	9.412822E-16	3.362287E-17
4.190000E+03	9.406076E-16	3.329956E-17
4.200000E+03	9.417529E-16	3.303003E-17
4.210000E+03	9.445480E-16	3.281070E-17
4.220000E+03	9.491809E-16	3.265152E-17
4.230000E+03	9.553744E-16	3.254734E-17
4.240000E+03	9.628116E-16	3.249171E-17
4.250000E+03	9.715723E-16	3.248826E-17
4.260000E+03	9.812914E-16	3.251842E-17
4.270000E+03	9.915832E-16	3.255141E-17
4.280000E+03	1.002487E-15	3.255635E-17
4.290000E+03	1.013454E-15	3.247268E-17
4.300000E+03	1.024520E-15	3.225589E-17
4.310000E+03	1.035128E-15	3.184827E-17
4.320000E+03	1.045320E-15	3.122708E-17
4.330000E+03	1.054533E-15	3.037745E-17
4.340000E+03	1.062825E-15	2.933801E-17
4.350000E+03	1.069668E-15	2.817151E-17
4.360000E+03	1.075221E-15	2.699988E-17
4.370000E+03	1.079118E-15	2.596120E-17
4.380000E+03	1.081587E-15	2.521560E-17
4.390000E+03	1.083015E-15	2.489231E-17
4.400000E+03	1.083539E-15	2.500703E-17
4.410000E+03	1.083977E-15	2.548643E-17
4.420000E+03	1.085263E-15	2.622843E-17
4.430000E+03	1.087932E-15	2.713126E-17
4.440000E+03	1.093011E-15	2.813598E-17
4.450000E+03	1.101500E-15	2.921446E-17
4.460000E+03	1.113836E-15	3.034622E-17
4.470000E+03	1.130773E-15	3.153686E-17
4.480000E+03	1.152668E-15	3.279621E-17
4.490000E+03	1.179556E-15	3.413495E-17
4.500000E+03	1.211084E-15	3.555641E-17
4.510000E+03	1.246452E-15	3.704728E-17
4.520000E+03	1.284394E-15	3.857172E-17
4.530000E+03	1.323220E-15	4.007605E-17
4.540000E+03	1.360942E-15	4.149953E-17
4.550000E+03	1.395450E-15	4.278478E-17
4.560000E+03	1.424728E-15	4.388565E-17
4.570000E+03	1.447097E-15	4.476963E-17
4.580000E+03	1.461407E-15	4.541717E-17
4.590000E+03	1.467141E-15	4.582239E-17
4.600000E+03	1.464413E-15	4.599221E-17
4.610000E+03	1.453694E-15	4.593701E-17
4.620000E+03	1.436520E-15	4.569579E-17
4.630000E+03	1.414073E-15	4.529403E-17
4.640000E+03	1.387872E-15	4.476635E-17
4.650000E+03	1.359220E-15	4.414215E-17
4.660000E+03	1.329883E-15	4.346907E-17
4.670000E+03	1.300831E-15	4.277220E-17
4.680000E+03	1.272814E-15	4.207277E-17
4.690000E+03	1.246882E-15	4.140467E-17
4.700000E+03	1.223125E-15	4.077132E-17
4.710000E+03	1.202142E-15	4.019468E-17
4.720000E+03	1.183677E-15	3.966962E-17
4.730000E+03	1.168036E-15	3.921057E-17
4.740000E+03	1.154761E-15	3.880731E-17
4.750000E+03	1.143834E-15	3.846488E-17
4.760000E+03	1.135191E-15	3.818657E-17
4.770000E+03	1.128280E-15	3.795934E-17
4.780000E+03	1.123058E-15	3.778746E-17
4.790000E+03	1.119522E-15	3.767620E-17
4.800000E+03	1.117256E-15	3.761675E-17
4.810000E+03	1.116373E-15	3.761789E-17
4.820000E+03	1.116874E-15	3.768319E-17
4.830000E+03	1.118771E-15	3.781550E-17
4.840000E+03	1.122047E-15	3.801523E-17
4.850000E+03	1.126621E-15	3.827821E-17
4.860000E+03	1.132334E-15	3.859540E-17
4.870000E+03	1.138940E-15	3.895272E-17
4.880000E+03	1.146123E-15	3.933104E-17
4.890000E+03	1.153535E-15	3.970866E-17
4.900000E+03	1.160839E-15	4.006423E-17
4.910000E+03	1.167746E-15	4.037891E-17
4.920000E+03	1.173862E-15	4.063328E-17
4.930000E+03	1.179326E-15	4.083152E-17
4.940000E+03	1.183807E-15	4.096645E-17
4.950000E+03	1.187123E-15	4.104079E-17
4.960000E+03	1.188883E-15	4.105256E-17
4.970000E+03	1.189160E-15	4.101512E-17
4.980000E+03	1.187367E-15	4.091661E-17
4.990000E+03	1.183667E-15	4.076667E-17
5.000000E+03	1.177885E-15	4.055747E-17
5.010000E+03	1.170080E-15	4.028447E-17
5.020000E+03	1.160912E-15	3.996079E-17
5.030000E+03	1.151304E-15	3.960751E-17
5.040000E+03	1.141912E-15	3.923841E-17
5.050000E+03	1.134157E-15	3.889776E-17
5.060000E+03	1.128843E-15	3.861266E-17
5.070000E+03	1.127160E-15	3.842651E-17
5.080000E+03	1.129936E-15	3.837112E-17
5.090000E+03	1.137716E-15	3.846735E-17
5.100000E+03	1.150871E-15	3.872923E-17
5.110000E+03	1.168930E-15	3.914213E-17
5.120000E+03	1.191534E-15	3.969498E-17
5.130000E+03	1.217834E-15	4.036072E-17
5.140000E+03	1.246728E-15	4.110385E-17
5.150000E+03	1.276953E-15	4.188307E-17
5.160000E+03	1.307184E-15	4.265688E-17
5.170000E+03	1.336150E-15	4.338889E-17
5.180000E+03	1.362538E-15	4.404472E-17
5.190000E+03	1.385814E-15	4.461710E-17
5.200000E+03	1.405131E-15	4.508622E-17
5.210000E+03	1.420081E-15	4.543923E-17
5.220000E+03	1.430304E-15	4.565611E-17
5.230000E+03	1.436254E-15	4.573396E-17
5.240000E+03	1.437965E-15	4.564974E-17
5.250000E+03	1.435598E-15	4.538490E-17
5.260000E+03	1.429980E-15	4.495016E-17
5.270000E+03	1.421164E-15	4.434408E-17
5.280000E+03	1.409976E-15	4.360299E-17
5.290000E+03	1.396405E-15	4.274758E-17
5.300000E+03	1.381166E-15	4.182486E-17
5.310000E+03	1.364147E-15	4.085448E-17
5.320000E+03	1.345967E-15	3.986887E-17
5.330000E+03	1.326475E-15	3.886397E-17
5.340000E+03	1.306078E-15	3.784201E-17
5.350000E+03	1.285002E-15	3.679337E-17
5.360000E+03	1.263656E-15	3.571035E-17
5.370000E+03	1.241941E-15	3.457139E-17
5.380000E+03	1.220311E-15	3.337222E-17
5.390000E+03	1.199086E-15	3.210399E-17
5.400000E+03	1.178653E-15	3.075750E-17
5.410000E+03	1.159501E-15	2.932089E-17
5.420000E+03	1.142227E-15	2.777820E-17
5.430000E+03	1.127525E-15	2.611386E-17
5.440000E+03	1.116138E-15	2.432007E-17
5.450000E+03	1.108786E-15	2.240988E-17
5.460000E+03	1.106056E-15	2.044611E-17
5.470000E+03	1.108263E-15	1.859396E-17
5.480000E+03	1.115195E-15	1.719881E-17
5.490000E+03	1.126676E-15	1.683350E-17
5.500000E+03	1.141511E-15	1.785586E-17
5.510000E+03	1.157701E-15	1.978268E-17
5.520000E+03	1.173391E-15	2.204820E-17
5.530000E+03	1.186217E-15	2.427348E-17
5.540000E+03	1.194023E-15	2.624124E-17
5.550000E+03	1.195598E-15	2.784751E-17
5.560000E+03	1.189696E-15	2.903443E-17
5.570000E+03	1.176407E-15	2.979554E-17
5.580000E+03	1.155763E-15	3.013693E-17
5.590000E+03	1.128836E-15	3.010639E-17
5.600000E+03	1.096256E-15	2.975476E-17
5.610000E+03	1.059147E-15	2.915655E-17
5.620000E+03	1.018518E-15	2.838582E-17
5.630000E+03	9.748353E-16	2.749450E-17
5.640000E+03	9.289447E-16	2.653179E-17
5.650000E+03	8.815983E-16	2.552621E-17
5.660000E+03	8.337830E-16	2.449517E-17
5.670000E+03	7.862727E-16	2.344101E-17
5.680000E+03	7.403038E-16	2.238113E-17
5.690000E+03	6.970272E-16	2.133798E-17
5.700000E+03	6.575341E-16	2.034241E-17
5.710000E+03	6.227738E-16	1.943017E-17
5.720000E+03	5.935073E-16	1.863704E-17
5.730000E+03	5.702961E-16	1.799473E-17
5.740000E+03	5.535166E-16	1.752768E-17
5.750000E+03	5.433946E-16	1.725198E-17
5.760000E+03	5.400468E-16	1.717672E-17
5.770000E+03	5.435105E-16	1.730574E-17
5.780000E+03	5.537532E-16	1.763897E-17
5.790000E+03	5.705833E-16	1.817216E-17
5.800000E+03	5.939254E-16	1.890816E-17
5.810000E+03	6.233051E-16	1.984191E-17
5.820000E+03	6.580011E-16	2.096527E-17
5.830000E+03	6.972685E-16	2.227107E-17
5.840000E+03	7.397813E-16	2.372986E-17
5.850000E+03	7.838843E-16	2.529230E-17
5.860000E+03	8.280059E-16	2.689706E-17
5.870000E+03	8.701543E-16	2.845179E-17
5.880000E+03	9.083470E-16	2.985176E-17
5.890000E+03	9.411506E-16	3.100865E-17
5.900000E+03	9.669592E-16	3.183861E-17
5.910000E+03	9.851178E-16	3.230809E-17
5.920000E+03	9.949525E-16	3.240472E-17
5.930000E+03	9.967100E-16	3.216428E-17
5.940000E+03	9.911158E-16	3.164701E-17
5.950000E+03	9.788705E-16	3.090994E-17
5.960000E+03	9.613465E-16	3.002095E-17
5.970000E+03	9.400399E-16	2.904007E-17
5.980000E+03	9.160715E-16	2.800661E-17
5.990000E+03	8.908760E-16	2.696428E-17
6.000000E+03	8.656232E-16	2.594778E-17
6.010000E+03	8.414355E-16	2.499184E-17
6.020000E+03	8.189114E-16	2.411708E-17
6.030000E+03	7.988179E-16	2.335045E-17
6.040000E+03	7.816202E-16	2.270848E-17
6.050000E+03	7.676132E-16	2.219812E-17
6.060000E+03	7.569504E-16	2.181640E-17
6.070000E+03	7.496781E-16	2.154952E-17
6.080000E+03	7.457685E-16	2.137286E-17
6.090000E+03	7.451536E-16	2.125595E-17
6.100000E+03	7.477566E-16	2.116874E-17
6.110000E+03	7.535179E-16	2.108575E-17
6.120000E+03	7.624158E-16	2.098863E-17
6.130000E+03	7.744851E-16	2.086633E-17
6.140000E+03	7.898354E-16	2.071249E-17
6.150000E+03	8.086717E-16	2.052132E-17
6.160000E+03	8.312161E-16	2.027784E-17
6.170000E+03	8.582277E-16	1.996231E-17
6.180000E+03	8.904522E-16	1.953095E-17
6.190000E+03	9.292460E-16	1.892787E-17
6.200000E+03	9.765450E-16	1.809225E-17
6.210000E+03	1.035626E-15	1.701731E-17
6.220000E+03	1.110607E-15	1.586084E-17
6.230000E+03	1.207126E-15	1.523602E-17
6.240000E+03	1.333247E-15	1.655356E-17
6.250000E+03	1.494333E-15	2.087434E-17
6.260000E+03	1.687891E-15	2.761400E-17
6.270000E+03	1.908149E-15	3.596847E-17
6.280000E+03	2.144008E-15	4.519081E-17
6.290000E+03	2.380965E-15	5.451959E-17
6.300000E+03	2.600453E-15	6.312468E-17
6.310000E+03	2.783006E-15	7.020782E-17
6.320000E+03	2.912794E-15	7.517226E-17
6.330000E+03	2.978105E-15	7.767672E-17
6.340000E+03	2.976049E-15	7.775155E-17
6.350000E+03	2.911693E-15	7.573249E-17
6.360000E+03	2.795288E-15	7.212515E-17
6.370000E+03	2.642371E-15	6.754337E-17
6.380000E+03	2.467812E-15	6.251341E-17
6.390000E+03	2.286142E-15	5.746991E-17
6.400000E+03	2.108904E-15	5.268783E-17
6.410000E+03	1.943380E-15	4.827505E-17
6.420000E+03	1.794621E-15	4.427158E-17
6.430000E+03	1.664791E-15	4.066494E-17
6.440000E+03	1.554370E-15	3.742468E-17
6.450000E+03	1.461931E-15	3.449425E-17
6.460000E+03	1.385967E-15	3.182861E-17
6.470000E+03	1.324345E-15	2.937633E-17
6.480000E+03	1.274762E-15	2.709703E-17
6.490000E+03	1.235067E-15	2.498316E-17
6.500000E+03	1.202634E-15	2.308053E-17
6.510000E+03	1.175409E-15	2.156851E-17
6.520000E+03	1.151222E-15	2.078051E-17
6.530000E+03	1.128013E-15	2.110537E-17
6.540000E+03	1.104362E-15	2.250672E-17
6.550000E+03	1.079719E-15	2.442810E-17
6.560000E+03	1.053808E-15	2.636887E-17
6.570000E+03	1.026564E-15	2.800146E-17
6.580000E+03	9.981039E-16	2.915061E-17
6.590000E+03	9.686909E-16	2.975412E-17
6.600000E+03	9.387032E-16	2.983014E-17
6.610000E+03	9.085980E-16	2.945181E-17
6.620000E+03	8.788689E-16	2.872713E-17
6.630000E+03	8.499881E-16	2.778174E-17
6.640000E+03	8.223512E-16	2.674313E-17
6.650000E+03	7.962441E-16	2.572610E-17
6.660000E+03	7.717311E-16	2.481604E-17
6.670000E+03	7.490916E-16	2.407132E-17
6.680000E+03	7.281891E-16	2.349954E-17
6.690000E+03	7.089216E-16	2.307969E-17
6.700000E+03	6.911299E-16	2.277147E-17
6.710000E+03	6.745256E-16	2.252393E-17
6.720000E+03	6.590911E-16	2.229823E-17
6.730000E+03	6.445442E-16	2.205603E-17
6.740000E+03	6.307359E-16	2.177489E-17
6.750000E+03	6.174785E-16	2.144194E-17
6.760000E+03	6.048880E-16	2.106358E-17
6.770000E+03	5.928641E-16	2.064447E-17
6.780000E+03	5.813437E-16	2.019397E-17
6.790000E+03	5.705230E-16	1.973188E-17
6.800000E+03	5.603648E-16	1.926991E-17
6.810000E+03	5.508451E-16	1.882012E-17
6.820000E+03	5.421780E-16	1.840214E-17
6.830000E+03	5.343586E-16	1.802668E-17
6.840000E+03	5.273982E-16	1.770251E-17
6.850000E+03	5.215375E-16	1.744177E-17
6.860000E+03	5.167338E-16	1.724185E-17
6.870000E+03	5.132342E-16	1.710572E-17
6.880000E+03	5.109949E-16	1.702429E-17
6.890000E+03	5.102432E-16	1.699636E-17
6.900000E+03	5.109042E-16	1.701100E-17
6.910000E+03	5.131581E-16	1.706713E-17
6.920000E+03	5.168694E-16	1.715487E-17
6.930000E+03	5.221492E-16	1.727499E-17
6.940000E+03	5.287820E-16	1.742030E-17
6.950000E+03	5.367246E-16	1.759191E-17
6.960000E+03	5.458956E-16	1.779202E-17
6.970000E+03	5.559496E-16	1.801558E-17
6.980000E+03	5.667335E-16	1.826388E-17
6.990000E+03	5.780811E-16	1.853710E-17
7.000000E+03	5.895872E-16	1.882614E-17
7.010000E+03	6.010993E-16	1.912770E-17
7.020000E+03	6.125022E-16	1.943805E-17
7.030000E+03	6.234711E-16	1.974592E-17
7.040000E+03	6.339873E-16	2.004907E-17
7.050000E+03	6.440158E-16	2.034480E-17
7.060000E+03	6.536932E-16	2.063566E-17
7.070000E+03	6.629830E-16	2.091786E-17
7.080000E+03	6.722334E-16	2.119901E-17
7.090000E+03	6.818396E-16	2.148734E-17
7.100000E+03	6.923495E-16	2.179482E-17
7.110000E+03	7.045706E-16	2.214191E-17
7.120000E+03	7.191844E-16	2.254659E-17
7.130000E+03	7.373218E-16	2.304286E-17
7.140000E+03	7.601593E-16	2.366851E-17
7.150000E+03	7.889870E-16	2.446676E-17
7.160000E+03	8.251713E-16	2.548401E-17
7.170000E+03	8.701006E-16	2.676797E-17
7.180000E+03	9.251006E-16	2.836396E-17
7.190000E+03	9.913132E-16	3.030963E-17
7.200000E+03	1.069541E-15	3.262996E-17
7.210000E+03	1.160031E-15	3.532950E-17
7.220000E+03	1.262216E-15	3.838221E-17
7.230000E+03	1.374436E-15	4.172390E-17
7.240000E+03	1.493702E-15	4.524677E-17
7.250000E+03	1.615570E-15	4.879791E-17
7.260000E+03	1.734214E-15	5.218846E-17
7.270000E+03	1.842797E-15	5.521179E-17
7.280000E+03	1.934160E-15	5.766680E-17
7.290000E+03	2.001753E-15	5.938450E-17
7.300000E+03	2.040676E-15	6.024912E-17
7.310000E+03	2.048220E-15	6.020319E-17
7.320000E+03	2.025360E-15	5.928967E-17
7.330000E+03	1.974852E-15	5.759596E-17
7.340000E+03	1.901725E-15	5.526852E-17
7.350000E+03	1.812043E-15	5.248017E-17
7.360000E+03	1.711701E-15	4.939545E-17
7.370000E+03	1.606669E-15	4.617726E-17
7.380000E+03	1.501120E-15	4.293749E-17
7.390000E+03	1.398109E-15	3.975949E-17
7.400000E+03	1.300204E-15	3.671615E-17
7.410000E+03	1.208477E-15	3.384345E-17
7.420000E+03	1.123573E-15	3.116993E-17
7.430000E+03	1.045571E-15	2.870942E-17
7.440000E+03	9.747717E-16	2.648001E-17
7.450000E+03	9.107904E-16	2.447530E-17
7.460000E+03	8.537834E-16	2.269595E-17
7.470000E+03	8.035378E-16	2.112854E-17
7.480000E+03	7.599162E-16	1.975912E-17
7.490000E+03	7.231500E-16	1.857994E-17
7.500000E+03	6.930705E-16	1.757056E-17
7.510000E+03	6.699240E-16	1.671739E-17
7.520000E+03	6.535510E-16	1.598959E-17
7.530000E+03	6.441229E-16	1.535712E-17
7.540000E+03	6.413377E-16	1.476998E-17
7.550000E+03	6.450642E-16	1.417196E-17
7.560000E+03	6.544818E-16	1.348275E-17
7.570000E+03	6.685406E-16	1.261834E-17
7.580000E+03	6.855555E-16	1.150892E-17
7.590000E+03	7.028949E-16	1.016318E-17
7.600000E+03	7.178063E-16	8.825209E-18
7.610000E+03	7.269776E-16	8.154639E-18
7.620000E+03	7.283480E-16	8.837837E-18
7.630000E+03	7.234901E-16	1.036112E-17
7.640000E+03	7.154412E-16	1.202455E-17
7.650000E+03	7.069118E-16	1.351989E-17
7.660000E+03	7.004846E-16	1.478609E-17
7.670000E+03	6.980756E-16	1.586053E-17
7.680000E+03	7.006067E-16	1.680218E-17
7.690000E+03	7.086516E-16	1.767475E-17
7.700000E+03	7.220969E-16	1.852540E-17
7.710000E+03	7.402796E-16	1.938239E-17
7.720000E+03	7.620067E-16	2.025236E-17
7.730000E+03	7.856892E-16	2.112199E-17
7.740000E+03	8.089822E-16	2.194864E-17
7.750000E+03	8.296121E-16	2.268256E-17
7.760000E+03	8.451941E-16	2.326321E-17
