#wls	flux	fluxerr
1.600000E+03	8.173844E-17	9.394287E-17
1.640000E+03	8.336967E-17	9.526573E-17
1.680000E+03	8.511703E-17	9.665414E-17
1.720000E+03	8.697400E-17	9.809236E-17
1.760000E+03	8.896509E-17	9.959885E-17
1.800000E+03	9.106868E-17	1.011391E-16
1.840000E+03	9.332721E-17	1.027490E-16
1.880000E+03	9.573645E-17	1.044108E-16
1.920000E+03	9.830902E-17	1.061240E-16
1.960000E+03	1.010587E-16	1.078874E-16
2.000000E+03	1.040190E-16	1.097183E-16
2.040000E+03	1.071702E-16	1.115757E-16
2.080000E+03	1.105674E-16	1.134946E-16
2.120000E+03	1.142120E-16	1.154502E-16
2.160000E+03	1.181460E-16	1.174561E-16
2.200000E+03	1.223515E-16	1.194625E-16
2.240000E+03	1.268955E-16	1.214994E-16
2.280000E+03	1.317840E-16	1.235319E-16
2.320000E+03	1.370451E-16	1.255423E-16
2.360000E+03	1.427335E-16	1.275310E-16
2.400000E+03	1.488574E-16	1.294502E-16
2.440000E+03	1.554489E-16	1.312686E-16
2.480000E+03	1.625404E-16	1.329488E-16
2.520000E+03	1.701932E-16	1.344705E-16
2.560000E+03	1.783801E-16	1.357370E-16
2.600000E+03	1.871889E-16	1.367375E-16
2.640000E+03	1.966129E-16	1.373843E-16
2.680000E+03	2.067035E-16	1.376303E-16
2.720000E+03	2.174355E-16	1.373761E-16
2.760000E+03	2.287646E-16	1.365194E-16
2.800000E+03	2.407884E-16	1.350520E-16
2.840000E+03	2.533527E-16	1.328295E-16
2.880000E+03	2.664875E-16	1.298325E-16
2.920000E+03	2.800336E-16	1.259658E-16
2.960000E+03	2.940032E-16	1.212414E-16
3.000000E+03	3.083237E-16	1.156464E-16
3.010000E+03	3.119304E-16	1.141041E-16
3.020000E+03	3.155514E-16	1.125070E-16
3.030000E+03	3.191863E-16	1.108554E-16
3.040000E+03	3.228349E-16	1.091496E-16
3.050000E+03	3.264975E-16	1.073902E-16
3.060000E+03	3.302303E-16	1.055953E-16
3.070000E+03	3.339231E-16	1.037294E-16
3.080000E+03	3.376324E-16	1.018109E-16
3.090000E+03	3.413596E-16	9.984034E-17
3.100000E+03	3.451067E-16	9.781793E-17
3.110000E+03	3.489346E-16	9.576009E-17
3.120000E+03	3.527294E-16	9.363451E-17
3.130000E+03	3.565521E-16	9.145787E-17
3.140000E+03	3.604064E-16	8.923036E-17
3.150000E+03	3.643570E-16	8.696677E-17
3.160000E+03	3.682864E-16	8.463776E-17
3.170000E+03	3.722594E-16	8.225863E-17
3.180000E+03	3.762803E-16	7.982984E-17
3.190000E+03	3.804173E-16	7.736504E-17
3.200000E+03	3.845479E-16	7.483897E-17
3.210000E+03	3.887392E-16	7.226653E-17
3.220000E+03	3.930605E-16	6.966157E-17
3.230000E+03	3.973842E-16	6.700345E-17
3.240000E+03	4.017777E-16	6.430848E-17
3.250000E+03	4.063101E-16	6.159264E-17
3.260000E+03	4.108470E-16	5.884249E-17
3.270000E+03	4.155235E-16	5.608795E-17
3.280000E+03	4.201994E-16	5.332253E-17
3.290000E+03	4.249391E-16	5.057209E-17
3.300000E+03	4.298079E-16	4.786454E-17
3.310000E+03	4.346555E-16	4.520778E-17
3.320000E+03	4.396153E-16	4.264574E-17
3.330000E+03	4.445281E-16	4.019444E-17
3.340000E+03	4.495219E-16	3.789506E-17
3.350000E+03	4.544228E-16	3.575387E-17
3.360000E+03	4.593493E-16	3.379536E-17
3.370000E+03	4.641141E-16	3.201361E-17
3.380000E+03	4.688303E-16	3.041711E-17
3.390000E+03	4.732991E-16	2.898812E-17
3.400000E+03	4.776256E-16	2.772657E-17
3.410000E+03	4.815938E-16	2.661112E-17
3.420000E+03	4.852973E-16	2.563997E-17
3.430000E+03	4.885073E-16	2.479529E-17
3.440000E+03	4.913140E-16	2.407622E-17
3.450000E+03	4.934922E-16	2.346696E-17
3.460000E+03	4.951664E-16	2.296652E-17
3.470000E+03	4.961756E-16	2.255298E-17
3.480000E+03	4.967198E-16	2.221799E-17
3.490000E+03	4.967856E-16	2.194171E-17
3.500000E+03	4.963934E-16	2.170265E-17
3.510000E+03	4.958277E-16	2.149363E-17
3.520000E+03	4.950472E-16	2.129959E-17
3.530000E+03	4.943272E-16	2.112463E-17
3.540000E+03	4.936853E-16	2.096956E-17
3.550000E+03	4.931213E-16	2.084091E-17
3.560000E+03	4.928532E-16	2.075623E-17
3.570000E+03	4.927552E-16	2.072003E-17
3.580000E+03	4.930093E-16	2.074624E-17
3.590000E+03	4.935392E-16	2.082755E-17
3.600000E+03	4.942440E-16	2.094906E-17
3.610000E+03	4.952324E-16	2.110189E-17
3.620000E+03	4.963395E-16	2.126299E-17
3.630000E+03	4.973776E-16	2.140960E-17
3.640000E+03	4.983967E-16	2.153131E-17
3.650000E+03	4.991274E-16	2.160429E-17
3.660000E+03	4.996306E-16	2.162254E-17
3.670000E+03	4.997242E-16	2.157384E-17
3.680000E+03	4.992265E-16	2.144852E-17
3.690000E+03	4.981976E-16	2.125325E-17
3.700000E+03	4.964433E-16	2.099090E-17
3.710000E+03	4.937589E-16	2.066904E-17
3.720000E+03	4.901979E-16	2.031049E-17
3.730000E+03	4.856425E-16	1.992929E-17
3.740000E+03	4.800865E-16	1.953595E-17
3.750000E+03	4.738554E-16	1.914992E-17
3.760000E+03	4.671430E-16	1.878174E-17
3.770000E+03	4.602629E-16	1.844088E-17
3.780000E+03	4.538191E-16	1.814667E-17
3.790000E+03	4.482049E-16	1.790860E-17
3.800000E+03	4.438162E-16	1.773202E-17
3.810000E+03	4.412491E-16	1.763056E-17
3.820000E+03	4.408434E-16	1.760947E-17
3.830000E+03	4.428872E-16	1.767127E-17
3.840000E+03	4.478433E-16	1.782728E-17
3.850000E+03	4.559054E-16	1.807927E-17
3.860000E+03	4.671745E-16	1.842327E-17
3.870000E+03	4.819055E-16	1.886228E-17
3.880000E+03	5.000538E-16	1.938914E-17
3.890000E+03	5.214395E-16	1.999116E-17
3.900000E+03	5.460057E-16	2.066397E-17
3.910000E+03	5.733255E-16	2.139363E-17
3.920000E+03	6.028048E-16	2.216153E-17
3.930000E+03	6.339881E-16	2.295856E-17
3.940000E+03	6.660476E-16	2.376150E-17
3.950000E+03	6.981048E-16	2.453589E-17
3.960000E+03	7.295888E-16	2.525591E-17
3.970000E+03	7.596096E-16	2.588779E-17
3.980000E+03	7.873249E-16	2.640089E-17
3.990000E+03	8.123402E-16	2.678963E-17
4.000000E+03	8.339763E-16	2.704876E-17
4.010000E+03	8.516583E-16	2.717806E-17
4.020000E+03	8.653408E-16	2.720092E-17
4.030000E+03	8.745667E-16	2.712687E-17
4.040000E+03	8.795789E-16	2.697208E-17
4.050000E+03	8.803541E-16	2.674158E-17
4.060000E+03	8.770322E-16	2.644623E-17
4.070000E+03	8.703509E-16	2.610650E-17
4.080000E+03	8.606318E-16	2.573226E-17
4.090000E+03	8.488644E-16	2.535140E-17
4.100000E+03	8.355927E-16	2.496373E-17
4.110000E+03	8.219395E-16	2.458788E-17
4.120000E+03	8.086041E-16	2.423794E-17
4.130000E+03	7.962424E-16	2.392650E-17
4.140000E+03	7.858097E-16	2.368159E-17
4.150000E+03	7.776195E-16	2.351156E-17
4.160000E+03	7.723069E-16	2.342032E-17
4.170000E+03	7.698667E-16	2.339042E-17
4.180000E+03	7.706202E-16	2.341741E-17
4.190000E+03	7.741993E-16	2.347230E-17
4.200000E+03	7.805985E-16	2.354201E-17
4.210000E+03	7.892900E-16	2.360252E-17
4.220000E+03	8.002435E-16	2.364225E-17
4.230000E+03	8.129311E-16	2.364513E-17
4.240000E+03	8.271923E-16	2.362363E-17
4.250000E+03	8.428560E-16	2.360317E-17
4.260000E+03	8.593011E-16	2.361363E-17
4.270000E+03	8.763084E-16	2.369529E-17
4.280000E+03	8.929387E-16	2.384091E-17
4.290000E+03	9.087075E-16	2.403708E-17
4.300000E+03	9.226563E-16	2.423292E-17
4.310000E+03	9.344785E-16	2.435058E-17
4.320000E+03	9.440672E-16	2.430323E-17
4.330000E+03	9.510031E-16	2.401004E-17
4.340000E+03	9.554282E-16	2.342506E-17
4.350000E+03	9.575754E-16	2.255245E-17
4.360000E+03	9.572797E-16	2.145810E-17
4.370000E+03	9.548709E-16	2.028981E-17
4.380000E+03	9.506016E-16	1.924183E-17
4.390000E+03	9.449920E-16	1.849464E-17
4.400000E+03	9.382736E-16	1.812479E-17
4.410000E+03	9.312804E-16	1.811234E-17
4.420000E+03	9.248703E-16	1.835608E-17
4.430000E+03	9.202286E-16	1.872573E-17
4.440000E+03	9.182393E-16	1.912789E-17
4.450000E+03	9.203241E-16	1.954379E-17
4.460000E+03	9.278774E-16	1.999531E-17
4.470000E+03	9.423284E-16	2.055114E-17
4.480000E+03	9.650588E-16	2.130221E-17
4.490000E+03	9.965884E-16	2.230547E-17
4.500000E+03	1.037403E-15	2.361424E-17
4.510000E+03	1.086981E-15	2.523350E-17
4.520000E+03	1.143372E-15	2.705761E-17
4.530000E+03	1.203309E-15	2.890553E-17
4.540000E+03	1.262736E-15	3.057976E-17
4.550000E+03	1.317252E-15	3.189252E-17
4.560000E+03	1.362444E-15	3.271016E-17
4.570000E+03	1.394539E-15	3.298120E-17
4.580000E+03	1.411162E-15	3.273724E-17
4.590000E+03	1.411459E-15	3.209861E-17
4.600000E+03	1.396172E-15	3.122254E-17
4.610000E+03	1.367666E-15	3.023859E-17
4.620000E+03	1.329294E-15	2.926580E-17
4.630000E+03	1.284638E-15	2.838414E-17
4.640000E+03	1.237079E-15	2.758999E-17
4.650000E+03	1.189350E-15	2.685713E-17
4.660000E+03	1.144021E-15	2.617719E-17
4.670000E+03	1.102287E-15	2.550788E-17
4.680000E+03	1.064946E-15	2.482536E-17
4.690000E+03	1.032385E-15	2.413037E-17
4.700000E+03	1.004649E-15	2.342585E-17
4.710000E+03	9.814249E-16	2.272755E-17
4.720000E+03	9.627390E-16	2.206791E-17
4.730000E+03	9.480541E-16	2.145207E-17
4.740000E+03	9.367534E-16	2.089442E-17
4.750000E+03	9.285206E-16	2.042758E-17
4.760000E+03	9.224331E-16	2.006259E-17
4.770000E+03	9.175369E-16	1.982205E-17
4.780000E+03	9.135124E-16	1.973207E-17
4.790000E+03	9.099840E-16	1.976793E-17
4.800000E+03	9.068877E-16	1.990492E-17
4.810000E+03	9.048536E-16	2.014611E-17
4.820000E+03	9.042401E-16	2.047825E-17
4.830000E+03	9.060505E-16	2.091132E-17
4.840000E+03	9.104880E-16	2.143754E-17
4.850000E+03	9.178515E-16	2.201870E-17
4.860000E+03	9.275124E-16	2.259148E-17
4.870000E+03	9.391263E-16	2.312300E-17
4.880000E+03	9.515081E-16	2.357914E-17
4.890000E+03	9.639316E-16	2.396256E-17
4.900000E+03	9.752746E-16	2.427137E-17
4.910000E+03	9.852592E-16	2.449818E-17
4.920000E+03	9.939553E-16	2.463516E-17
4.930000E+03	1.001232E-15	2.466500E-17
4.940000E+03	1.007637E-15	2.457000E-17
4.950000E+03	1.013756E-15	2.434870E-17
4.960000E+03	1.019407E-15	2.401814E-17
4.970000E+03	1.024318E-15	2.362601E-17
4.980000E+03	1.027625E-15	2.324036E-17
4.990000E+03	1.028326E-15	2.291389E-17
5.000000E+03	1.024744E-15	2.262163E-17
5.010000E+03	1.015869E-15	2.232989E-17
5.020000E+03	1.001470E-15	2.201174E-17
5.030000E+03	9.827045E-16	2.164039E-17
5.040000E+03	9.617048E-16	2.122224E-17
5.050000E+03	9.411510E-16	2.079921E-17
5.060000E+03	9.240993E-16	2.042063E-17
5.070000E+03	9.135576E-16	2.015183E-17
5.080000E+03	9.119262E-16	2.005177E-17
5.090000E+03	9.207347E-16	2.013827E-17
5.100000E+03	9.408483E-16	2.041903E-17
5.110000E+03	9.723162E-16	2.089471E-17
5.120000E+03	1.013921E-15	2.153148E-17
5.130000E+03	1.063356E-15	2.229364E-17
5.140000E+03	1.117620E-15	2.314941E-17
5.150000E+03	1.173230E-15	2.404404E-17
5.160000E+03	1.226451E-15	2.494228E-17
5.170000E+03	1.274021E-15	2.583495E-17
5.180000E+03	1.313765E-15	2.669528E-17
5.190000E+03	1.345241E-15	2.752958E-17
5.200000E+03	1.368081E-15	2.832780E-17
5.210000E+03	1.382557E-15	2.900587E-17
5.220000E+03	1.389039E-15	2.946215E-17
5.230000E+03	1.388718E-15	2.964890E-17
5.240000E+03	1.382268E-15	2.952939E-17
5.250000E+03	1.370435E-15	2.911947E-17
5.260000E+03	1.354639E-15	2.848818E-17
5.270000E+03	1.335683E-15	2.768909E-17
5.280000E+03	1.314302E-15	2.680300E-17
5.290000E+03	1.291591E-15	2.593141E-17
5.300000E+03	1.267518E-15	2.512284E-17
5.310000E+03	1.242613E-15	2.444369E-17
5.320000E+03	1.216562E-15	2.391331E-17
5.330000E+03	1.189786E-15	2.347058E-17
5.340000E+03	1.162004E-15	2.302663E-17
5.350000E+03	1.133741E-15	2.253957E-17
5.360000E+03	1.104952E-15	2.196050E-17
5.370000E+03	1.076348E-15	2.129190E-17
5.380000E+03	1.047991E-15	2.055288E-17
5.390000E+03	1.020438E-15	1.976183E-17
5.400000E+03	9.942602E-16	1.895135E-17
5.410000E+03	9.696749E-16	1.814577E-17
5.420000E+03	9.475129E-16	1.734081E-17
5.430000E+03	9.287000E-16	1.653942E-17
5.440000E+03	9.138391E-16	1.575659E-17
5.450000E+03	9.040667E-16	1.500990E-17
5.460000E+03	9.003409E-16	1.434655E-17
5.470000E+03	9.032811E-16	1.383786E-17
5.480000E+03	9.130714E-16	1.353479E-17
5.490000E+03	9.289218E-16	1.348850E-17
5.500000E+03	9.496627E-16	1.373405E-17
5.510000E+03	9.728689E-16	1.421848E-17
5.520000E+03	9.952646E-16	1.486529E-17
5.530000E+03	1.013336E-15	1.558883E-17
5.540000E+03	1.023858E-15	1.625735E-17
5.550000E+03	1.024293E-15	1.677607E-17
5.560000E+03	1.013463E-15	1.710229E-17
5.570000E+03	9.920426E-16	1.719242E-17
5.580000E+03	9.619862E-16	1.705235E-17
5.590000E+03	9.257074E-16	1.673567E-17
5.600000E+03	8.855910E-16	1.628857E-17
5.610000E+03	8.435825E-16	1.576995E-17
5.620000E+03	8.006609E-16	1.522213E-17
5.630000E+03	7.566632E-16	1.462356E-17
5.640000E+03	7.109283E-16	1.394651E-17
5.650000E+03	6.628864E-16	1.318437E-17
5.660000E+03	6.127645E-16	1.234381E-17
5.670000E+03	5.610951E-16	1.145283E-17
5.680000E+03	5.093553E-16	1.056208E-17
5.690000E+03	4.597422E-16	9.716284E-18
5.700000E+03	4.143541E-16	8.957096E-18
5.710000E+03	3.749501E-16	8.317413E-18
5.720000E+03	3.425291E-16	7.800824E-18
5.730000E+03	3.176119E-16	7.406959E-18
5.740000E+03	3.004231E-16	7.142493E-18
5.750000E+03	2.907516E-16	7.008161E-18
5.760000E+03	2.883997E-16	7.007323E-18
5.770000E+03	2.934128E-16	7.145045E-18
5.780000E+03	3.057760E-16	7.412238E-18
5.790000E+03	3.255943E-16	7.796492E-18
5.800000E+03	3.532262E-16	8.291590E-18
5.810000E+03	3.887824E-16	8.887893E-18
5.820000E+03	4.323609E-16	9.589616E-18
5.830000E+03	4.833477E-16	1.040288E-17
5.840000E+03	5.405838E-16	1.133629E-17
5.850000E+03	6.016213E-16	1.239564E-17
5.860000E+03	6.634923E-16	1.357116E-17
5.870000E+03	7.224233E-16	1.477401E-17
5.880000E+03	7.747746E-16	1.587900E-17
5.890000E+03	8.172530E-16	1.676454E-17
5.900000E+03	8.471395E-16	1.731862E-17
5.910000E+03	8.633870E-16	1.749838E-17
5.920000E+03	8.657423E-16	1.732042E-17
5.930000E+03	8.556672E-16	1.685249E-17
5.940000E+03	8.355618E-16	1.620522E-17
5.950000E+03	8.078905E-16	1.547643E-17
5.960000E+03	7.755794E-16	1.471640E-17
5.970000E+03	7.411867E-16	1.396586E-17
5.980000E+03	7.068416E-16	1.326642E-17
5.990000E+03	6.737036E-16	1.262393E-17
6.000000E+03	6.427899E-16	1.205838E-17
6.010000E+03	6.147262E-16	1.158869E-17
6.020000E+03	5.899430E-16	1.120021E-17
6.030000E+03	5.688233E-16	1.088263E-17
6.040000E+03	5.513901E-16	1.063209E-17
6.050000E+03	5.378450E-16	1.043771E-17
6.060000E+03	5.282585E-16	1.029665E-17
6.070000E+03	5.226723E-16	1.021804E-17
6.080000E+03	5.211017E-16	1.020260E-17
6.090000E+03	5.235840E-16	1.025801E-17
6.100000E+03	5.302319E-16	1.039330E-17
6.110000E+03	5.412678E-16	1.059532E-17
6.120000E+03	5.570727E-16	1.085181E-17
6.130000E+03	5.782845E-16	1.116502E-17
6.140000E+03	6.059070E-16	1.154099E-17
6.150000E+03	6.413374E-16	1.200474E-17
6.160000E+03	6.863727E-16	1.259142E-17
6.170000E+03	7.432524E-16	1.331626E-17
6.180000E+03	8.146906E-16	1.420069E-17
6.190000E+03	9.037334E-16	1.528081E-17
6.200000E+03	1.013464E-15	1.658353E-17
6.210000E+03	1.146884E-15	1.819038E-17
6.220000E+03	1.307016E-15	2.029668E-17
6.230000E+03	1.496442E-15	2.317935E-17
6.240000E+03	1.716808E-15	2.718960E-17
6.250000E+03	1.966339E-15	3.259670E-17
6.260000E+03	2.240198E-15	3.936248E-17
6.270000E+03	2.528745E-15	4.711324E-17
6.280000E+03	2.816775E-15	5.522230E-17
6.290000E+03	3.084532E-15	6.286287E-17
6.300000E+03	3.311347E-15	6.921572E-17
6.310000E+03	3.476159E-15	7.357512E-17
6.320000E+03	3.563603E-15	7.547694E-17
6.330000E+03	3.565631E-15	7.480773E-17
6.340000E+03	3.485179E-15	7.181880E-17
6.350000E+03	3.333011E-15	6.692717E-17
6.360000E+03	3.126180E-15	6.075253E-17
6.370000E+03	2.885390E-15	5.402642E-17
6.380000E+03	2.629110E-15	4.737269E-17
6.390000E+03	2.373154E-15	4.132077E-17
6.400000E+03	2.130663E-15	3.615564E-17
6.410000E+03	1.909728E-15	3.183427E-17
6.420000E+03	1.714938E-15	2.829281E-17
6.430000E+03	1.548466E-15	2.547578E-17
6.440000E+03	1.409022E-15	2.321200E-17
6.450000E+03	1.294903E-15	2.139887E-17
6.460000E+03	1.202725E-15	1.998839E-17
6.470000E+03	1.129304E-15	1.892435E-17
6.480000E+03	1.070741E-15	1.818462E-17
6.490000E+03	1.024155E-15	1.780470E-17
6.500000E+03	9.864827E-16	1.777832E-17
6.510000E+03	9.550237E-16	1.809834E-17
6.520000E+03	9.276767E-16	1.876713E-17
6.530000E+03	9.026106E-16	1.972251E-17
6.540000E+03	8.780268E-16	2.081654E-17
6.550000E+03	8.531989E-16	2.187322E-17
6.560000E+03	8.273277E-16	2.270731E-17
6.570000E+03	8.004645E-16	2.318806E-17
6.580000E+03	7.724157E-16	2.323006E-17
6.590000E+03	7.435374E-16	2.281622E-17
6.600000E+03	7.142838E-16	2.197952E-17
6.610000E+03	6.848580E-16	2.078173E-17
6.620000E+03	6.559357E-16	1.932531E-17
6.630000E+03	6.277626E-16	1.771947E-17
6.640000E+03	6.008037E-16	1.608980E-17
6.650000E+03	5.753959E-16	1.455800E-17
6.660000E+03	5.515228E-16	1.322764E-17
6.670000E+03	5.293613E-16	1.216754E-17
6.680000E+03	5.089300E-16	1.138261E-17
6.690000E+03	4.902617E-16	1.084518E-17
6.700000E+03	4.730926E-16	1.049341E-17
6.710000E+03	4.573051E-16	1.023674E-17
6.720000E+03	4.427435E-16	9.993318E-18
6.730000E+03	4.290818E-16	9.714570E-18
6.740000E+03	4.162538E-16	9.391880E-18
6.750000E+03	4.041705E-16	9.049387E-18
6.760000E+03	3.927780E-16	8.732406E-18
6.770000E+03	3.821119E-16	8.490304E-18
6.780000E+03	3.720518E-16	8.363848E-18
6.790000E+03	3.626546E-16	8.361904E-18
6.800000E+03	3.539144E-16	8.431782E-18
6.810000E+03	3.458280E-16	8.499486E-18
6.820000E+03	3.384090E-16	8.512345E-18
6.830000E+03	3.316958E-16	8.448941E-18
6.840000E+03	3.257976E-16	8.315666E-18
6.850000E+03	3.206984E-16	8.128454E-18
6.860000E+03	3.165585E-16	7.908916E-18
6.870000E+03	3.135051E-16	7.680372E-18
6.880000E+03	3.116707E-16	7.465547E-18
6.890000E+03	3.111885E-16	7.280134E-18
6.900000E+03	3.121916E-16	7.137367E-18
6.910000E+03	3.148042E-16	7.042430E-18
6.920000E+03	3.191312E-16	6.984243E-18
6.930000E+03	3.252583E-16	6.950925E-18
6.940000E+03	3.332328E-16	6.939766E-18
6.950000E+03	3.430326E-16	6.955943E-18
6.960000E+03	3.545613E-16	7.018587E-18
6.970000E+03	3.676221E-16	7.145520E-18
6.980000E+03	3.818780E-16	7.332646E-18
6.990000E+03	3.968982E-16	7.573890E-18
7.000000E+03	4.122815E-16	7.864150E-18
7.010000E+03	4.277618E-16	8.181147E-18
7.020000E+03	4.431947E-16	8.507247E-18
7.030000E+03	4.585227E-16	8.836958E-18
7.040000E+03	4.737682E-16	9.159003E-18
7.050000E+03	4.889097E-16	9.469167E-18
7.060000E+03	5.040694E-16	9.770982E-18
7.070000E+03	5.189993E-16	1.004262E-17
7.080000E+03	5.334324E-16	1.026665E-17
7.090000E+03	5.471595E-16	1.044285E-17
7.100000E+03	5.601567E-16	1.057833E-17
7.110000E+03	5.726774E-16	1.070614E-17
7.120000E+03	5.854011E-16	1.087069E-17
7.130000E+03	6.000129E-16	1.110485E-17
7.140000E+03	6.185158E-16	1.145247E-17
7.150000E+03	6.433291E-16	1.197523E-17
7.160000E+03	6.771418E-16	1.271654E-17
7.170000E+03	7.228076E-16	1.373089E-17
7.180000E+03	7.834655E-16	1.508875E-17
7.190000E+03	8.614253E-16	1.680745E-17
7.200000E+03	9.584018E-16	1.887586E-17
7.210000E+03	1.075822E-15	2.127822E-17
7.220000E+03	1.213369E-15	2.394139E-17
7.230000E+03	1.368911E-15	2.677260E-17
7.240000E+03	1.537709E-15	2.967501E-17
7.250000E+03	1.713014E-15	3.255030E-17
7.260000E+03	1.884733E-15	3.532830E-17
7.270000E+03	2.040852E-15	3.792617E-17
7.280000E+03	2.170135E-15	4.013903E-17
7.290000E+03	2.261908E-15	4.173947E-17
7.300000E+03	2.308828E-15	4.258479E-17
7.310000E+03	2.309741E-15	4.258754E-17
7.320000E+03	2.267023E-15	4.179141E-17
7.330000E+03	2.188307E-15	4.040253E-17
7.340000E+03	2.082802E-15	3.859465E-17
7.350000E+03	1.960331E-15	3.657393E-17
7.360000E+03	1.830116E-15	3.450617E-17
7.370000E+03	1.697743E-15	3.234726E-17
7.380000E+03	1.567898E-15	3.004845E-17
7.390000E+03	1.442765E-15	2.760978E-17
7.400000E+03	1.324304E-15	2.507907E-17
7.410000E+03	1.212874E-15	2.254032E-17
7.420000E+03	1.109298E-15	2.011160E-17
7.430000E+03	1.013473E-15	1.786788E-17
7.440000E+03	9.258189E-16	1.589675E-17
7.450000E+03	8.460199E-16	1.422616E-17
7.460000E+03	7.742454E-16	1.281446E-17
7.470000E+03	7.100432E-16	1.163221E-17
7.480000E+03	6.533220E-16	1.067067E-17
7.490000E+03	6.034837E-16	9.870965E-18
7.500000E+03	5.602453E-16	9.199011E-18
7.510000E+03	5.234077E-16	8.643685E-18
7.520000E+03	4.926935E-16	8.166022E-18
7.530000E+03	4.682261E-16	7.743644E-18
7.540000E+03	4.498230E-16	7.376972E-18
7.550000E+03	4.374991E-16	7.077680E-18
7.560000E+03	4.311804E-16	6.875625E-18
7.570000E+03	4.302362E-16	6.793303E-18
7.580000E+03	4.336384E-16	6.811364E-18
7.590000E+03	4.400052E-16	6.899966E-18
7.600000E+03	4.476508E-16	7.048448E-18
7.610000E+03	4.551667E-16	7.255316E-18
7.620000E+03	4.616742E-16	7.514007E-18
7.630000E+03	4.669207E-16	7.801239E-18
7.640000E+03	4.716197E-16	8.086750E-18
7.650000E+03	4.769467E-16	8.356731E-18
7.660000E+03	4.843223E-16	8.618718E-18
7.670000E+03	4.947837E-16	8.882680E-18
7.680000E+03	5.093583E-16	9.182672E-18
7.690000E+03	5.285859E-16	9.561775E-18
7.700000E+03	5.522992E-16	1.005051E-17
7.710000E+03	5.797749E-16	1.068908E-17
7.720000E+03	6.094979E-16	1.150256E-17
7.730000E+03	6.396595E-16	1.245848E-17
7.740000E+03	6.679101E-16	1.348270E-17
7.750000E+03	6.917584E-16	1.447681E-17
7.760000E+03	7.089427E-16	1.530027E-17
