#wls	flux	fluxerr
1.600000E+03	8.547587E-17	9.822518E-17
1.640000E+03	8.713491E-17	9.955604E-17
1.680000E+03	8.890896E-17	1.009492E-16
1.720000E+03	9.079056E-17	1.023880E-16
1.760000E+03	9.278812E-17	1.038726E-16
1.800000E+03	9.491088E-17	1.054034E-16
1.840000E+03	9.718606E-17	1.069991E-16
1.880000E+03	9.960838E-17	1.086408E-16
1.920000E+03	1.021900E-16	1.103277E-16
1.960000E+03	1.049442E-16	1.120584E-16
2.000000E+03	1.079045E-16	1.138505E-16
2.040000E+03	1.110689E-16	1.156817E-16
2.080000E+03	1.144548E-16	1.175479E-16
2.120000E+03	1.180811E-16	1.194438E-16
2.160000E+03	1.219896E-16	1.213837E-16
2.200000E+03	1.261828E-16	1.233384E-16
2.240000E+03	1.306848E-16	1.252971E-16
2.280000E+03	1.355449E-16	1.272684E-16
2.320000E+03	1.407691E-16	1.292144E-16
2.360000E+03	1.463865E-16	1.311152E-16
2.400000E+03	1.524282E-16	1.329467E-16
2.440000E+03	1.589534E-16	1.347038E-16
2.480000E+03	1.659695E-16	1.363301E-16
2.520000E+03	1.735394E-16	1.378100E-16
2.560000E+03	1.816366E-16	1.390514E-16
2.600000E+03	1.903524E-16	1.400503E-16
2.640000E+03	1.996841E-16	1.407258E-16
2.680000E+03	2.096894E-16	1.410389E-16
2.720000E+03	2.203514E-16	1.408979E-16
2.760000E+03	2.316767E-16	1.402319E-16
2.800000E+03	2.437028E-16	1.389927E-16
2.840000E+03	2.563333E-16	1.370630E-16
2.880000E+03	2.696251E-16	1.344242E-16
2.920000E+03	2.835470E-16	1.310176E-16
2.960000E+03	2.979635E-16	1.267513E-16
3.000000E+03	3.129340E-16	1.216320E-16
3.010000E+03	3.167660E-16	1.202170E-16
3.020000E+03	3.206284E-16	1.187451E-16
3.030000E+03	3.245214E-16	1.172158E-16
3.040000E+03	3.283904E-16	1.156096E-16
3.050000E+03	3.323449E-16	1.139648E-16
3.060000E+03	3.363312E-16	1.122617E-16
3.070000E+03	3.403503E-16	1.104998E-16
3.080000E+03	3.444032E-16	1.086788E-16
3.090000E+03	3.484912E-16	1.067983E-16
3.100000E+03	3.526156E-16	1.048580E-16
3.110000E+03	3.567782E-16	1.028574E-16
3.120000E+03	3.609209E-16	1.007797E-16
3.130000E+03	3.651648E-16	9.865833E-17
3.140000E+03	3.694528E-16	9.647602E-17
3.150000E+03	3.737870E-16	9.423275E-17
3.160000E+03	3.781697E-16	9.192865E-17
3.170000E+03	3.826029E-16	8.956412E-17
3.180000E+03	3.870888E-16	8.713985E-17
3.190000E+03	3.916289E-16	8.465701E-17
3.200000E+03	3.962903E-16	8.213087E-17
3.210000E+03	4.009438E-16	7.953631E-17
3.220000E+03	4.056546E-16	7.689065E-17
3.230000E+03	4.104224E-16	7.419831E-17
3.240000E+03	4.152460E-16	7.146506E-17
3.250000E+03	4.201232E-16	6.869827E-17
3.260000E+03	4.250506E-16	6.590716E-17
3.270000E+03	4.300235E-16	6.310309E-17
3.280000E+03	4.351069E-16	6.030966E-17
3.290000E+03	4.401504E-16	5.752279E-17
3.300000E+03	4.452142E-16	5.477135E-17
3.310000E+03	4.502853E-16	5.207584E-17
3.320000E+03	4.553478E-16	4.945790E-17
3.330000E+03	4.604574E-16	4.694683E-17
3.340000E+03	4.654406E-16	4.454707E-17
3.350000E+03	4.703443E-16	4.228413E-17
3.360000E+03	4.751358E-16	4.017174E-17
3.370000E+03	4.798567E-16	3.822566E-17
3.380000E+03	4.843102E-16	3.643841E-17
3.390000E+03	4.885287E-16	3.481793E-17
3.400000E+03	4.925444E-16	3.336768E-17
3.410000E+03	4.961474E-16	3.207192E-17
3.420000E+03	4.993676E-16	3.092942E-17
3.430000E+03	5.022403E-16	2.993626E-17
3.440000E+03	5.045644E-16	2.907197E-17
3.450000E+03	5.063957E-16	2.832919E-17
3.460000E+03	5.078091E-16	2.769826E-17
3.470000E+03	5.086545E-16	2.715454E-17
3.480000E+03	5.090514E-16	2.668636E-17
3.490000E+03	5.091418E-16	2.628204E-17
3.500000E+03	5.088388E-16	2.591872E-17
3.510000E+03	5.083983E-16	2.559348E-17
3.520000E+03	5.077537E-16	2.529058E-17
3.530000E+03	5.071678E-16	2.501540E-17
3.540000E+03	5.065709E-16	2.476162E-17
3.550000E+03	5.061310E-16	2.453925E-17
3.560000E+03	5.060050E-16	2.436129E-17
3.570000E+03	5.060939E-16	2.423068E-17
3.580000E+03	5.066124E-16	2.416613E-17
3.590000E+03	5.074370E-16	2.416916E-17
3.600000E+03	5.087452E-16	2.425150E-17
3.610000E+03	5.103016E-16	2.439056E-17
3.620000E+03	5.121557E-16	2.457090E-17
3.630000E+03	5.140200E-16	2.476120E-17
3.640000E+03	5.159290E-16	2.494755E-17
3.650000E+03	5.175860E-16	2.510310E-17
3.660000E+03	5.190251E-16	2.522067E-17
3.670000E+03	5.199534E-16	2.528118E-17
3.680000E+03	5.204164E-16	2.528605E-17
3.690000E+03	5.201391E-16	2.522497E-17
3.700000E+03	5.191970E-16	2.510793E-17
3.710000E+03	5.173637E-16	2.493264E-17
3.720000E+03	5.147860E-16	2.471579E-17
3.730000E+03	5.113393E-16	2.446052E-17
3.740000E+03	5.072943E-16	2.418722E-17
3.750000E+03	5.027505E-16	2.390561E-17
3.760000E+03	4.978807E-16	2.362641E-17
3.770000E+03	4.931560E-16	2.337208E-17
3.780000E+03	4.887757E-16	2.315028E-17
3.790000E+03	4.852759E-16	2.298320E-17
3.800000E+03	4.828882E-16	2.287774E-17
3.810000E+03	4.821401E-16	2.285436E-17
3.820000E+03	4.832278E-16	2.291780E-17
3.830000E+03	4.866174E-16	2.308565E-17
3.840000E+03	4.924250E-16	2.335906E-17
3.850000E+03	5.010230E-16	2.375135E-17
3.860000E+03	5.124942E-16	2.426204E-17
3.870000E+03	5.268473E-16	2.488707E-17
3.880000E+03	5.442602E-16	2.563032E-17
3.890000E+03	5.644905E-16	2.647594E-17
3.900000E+03	5.875416E-16	2.741990E-17
3.910000E+03	6.129566E-16	2.843701E-17
3.920000E+03	6.405418E-16	2.951467E-17
3.930000E+03	6.696164E-16	3.061804E-17
3.940000E+03	6.998129E-16	3.172706E-17
3.950000E+03	7.302754E-16	3.279999E-17
3.960000E+03	7.605424E-16	3.381466E-17
3.970000E+03	7.896793E-16	3.473054E-17
3.980000E+03	8.172400E-16	3.553303E-17
3.990000E+03	8.423274E-16	3.619252E-17
4.000000E+03	8.646241E-16	3.670918E-17
4.010000E+03	8.833837E-16	3.706800E-17
4.020000E+03	8.985162E-16	3.728308E-17
4.030000E+03	9.095201E-16	3.735018E-17
4.040000E+03	9.166036E-16	3.729155E-17
4.050000E+03	9.195698E-16	3.710878E-17
4.060000E+03	9.189500E-16	3.682882E-17
4.070000E+03	9.148553E-16	3.645749E-17
4.080000E+03	9.080975E-16	3.602507E-17
4.090000E+03	8.990242E-16	3.554027E-17
4.100000E+03	8.884764E-16	3.502928E-17
4.110000E+03	8.773179E-16	3.451819E-17
4.120000E+03	8.659929E-16	3.401673E-17
4.130000E+03	8.554422E-16	3.355475E-17
4.140000E+03	8.459931E-16	3.313845E-17
4.150000E+03	8.382711E-16	3.278562E-17
4.160000E+03	8.327792E-16	3.250859E-17
4.170000E+03	8.295116E-16	3.229918E-17
4.180000E+03	8.288565E-16	3.216430E-17
4.190000E+03	8.305805E-16	3.208692E-17
4.200000E+03	8.347408E-16	3.206218E-17
4.210000E+03	8.413239E-16	3.208378E-17
4.220000E+03	8.498743E-16	3.213054E-17
4.230000E+03	8.602773E-16	3.219663E-17
4.240000E+03	8.722478E-16	3.227160E-17
4.250000E+03	8.855918E-16	3.234851E-17
4.260000E+03	8.996613E-16	3.240081E-17
4.270000E+03	9.141629E-16	3.240801E-17
4.280000E+03	9.286326E-16	3.233252E-17
4.290000E+03	9.427396E-16	3.212835E-17
4.300000E+03	9.557456E-16	3.172321E-17
4.310000E+03	9.673968E-16	3.105354E-17
4.320000E+03	9.773742E-16	3.005401E-17
4.330000E+03	9.854450E-16	2.867606E-17
4.340000E+03	9.914620E-16	2.690666E-17
4.350000E+03	9.955112E-16	2.479918E-17
4.360000E+03	9.973015E-16	2.249874E-17
4.370000E+03	9.970733E-16	2.032432E-17
4.380000E+03	9.949968E-16	1.880185E-17
4.390000E+03	9.913416E-16	1.855666E-17
4.400000E+03	9.867231E-16	1.958778E-17
4.410000E+03	9.820781E-16	2.130229E-17
4.420000E+03	9.784167E-16	2.322506E-17
4.430000E+03	9.767927E-16	2.510174E-17
4.440000E+03	9.782769E-16	2.684059E-17
4.450000E+03	9.839185E-16	2.844516E-17
4.460000E+03	9.946928E-16	2.996797E-17
4.470000E+03	1.011429E-15	3.148096E-17
4.480000E+03	1.034715E-15	3.305544E-17
4.490000E+03	1.064786E-15	3.474732E-17
4.500000E+03	1.101230E-15	3.657986E-17
4.510000E+03	1.143524E-15	3.855655E-17
4.520000E+03	1.189985E-15	4.062463E-17
4.530000E+03	1.238415E-15	4.269941E-17
4.540000E+03	1.286074E-15	4.467028E-17
4.550000E+03	1.329714E-15	4.641121E-17
4.560000E+03	1.366716E-15	4.782836E-17
4.570000E+03	1.394281E-15	4.883664E-17
4.580000E+03	1.410561E-15	4.939813E-17
4.590000E+03	1.414495E-15	4.951033E-17
4.600000E+03	1.406738E-15	4.922974E-17
4.610000E+03	1.388284E-15	4.861562E-17
4.620000E+03	1.360871E-15	4.773932E-17
4.630000E+03	1.327265E-15	4.669388E-17
4.640000E+03	1.289505E-15	4.553555E-17
4.650000E+03	1.250253E-15	4.433649E-17
4.660000E+03	1.211049E-15	4.312890E-17
4.670000E+03	1.173755E-15	4.196015E-17
4.680000E+03	1.139074E-15	4.084265E-17
4.690000E+03	1.108022E-15	3.980711E-17
4.700000E+03	1.080609E-15	3.885470E-17
4.710000E+03	1.057248E-15	3.800621E-17
4.720000E+03	1.037514E-15	3.725552E-17
4.730000E+03	1.021463E-15	3.661593E-17
4.740000E+03	1.008429E-15	3.607585E-17
4.750000E+03	9.981407E-16	3.563829E-17
4.760000E+03	9.901548E-16	3.529936E-17
4.770000E+03	9.842109E-16	3.505964E-17
4.780000E+03	9.797000E-16	3.490379E-17
4.790000E+03	9.765848E-16	3.483281E-17
4.800000E+03	9.748237E-16	3.484414E-17
4.810000E+03	9.746430E-16	3.494244E-17
4.820000E+03	9.759079E-16	3.511779E-17
4.830000E+03	9.789183E-16	3.537405E-17
4.840000E+03	9.837544E-16	3.570522E-17
4.850000E+03	9.903625E-16	3.609886E-17
4.860000E+03	9.985304E-16	3.653665E-17
4.870000E+03	1.007898E-15	3.699699E-17
4.880000E+03	1.018002E-15	3.745781E-17
4.890000E+03	1.028341E-15	3.789868E-17
4.900000E+03	1.038447E-15	3.830175E-17
4.910000E+03	1.047941E-15	3.865192E-17
4.920000E+03	1.056556E-15	3.893701E-17
4.930000E+03	1.064119E-15	3.914808E-17
4.940000E+03	1.070502E-15	3.927997E-17
4.950000E+03	1.075393E-15	3.932568E-17
4.960000E+03	1.078869E-15	3.929899E-17
4.970000E+03	1.080420E-15	3.919763E-17
4.980000E+03	1.079607E-15	3.902378E-17
4.990000E+03	1.075838E-15	3.877077E-17
5.000000E+03	1.069150E-15	3.844726E-17
5.010000E+03	1.059413E-15	3.804764E-17
5.020000E+03	1.046947E-15	3.757597E-17
5.030000E+03	1.033037E-15	3.706732E-17
5.040000E+03	1.018936E-15	3.655557E-17
5.050000E+03	1.006199E-15	3.608746E-17
5.060000E+03	9.969202E-16	3.573193E-17
5.070000E+03	9.924880E-16	3.553505E-17
5.080000E+03	9.945918E-16	3.555496E-17
5.090000E+03	1.003914E-15	3.581428E-17
5.100000E+03	1.021210E-15	3.633867E-17
5.110000E+03	1.046070E-15	3.711318E-17
5.120000E+03	1.077926E-15	3.811912E-17
5.130000E+03	1.115652E-15	3.932030E-17
5.140000E+03	1.157142E-15	4.064887E-17
5.150000E+03	1.200432E-15	4.204461E-17
5.160000E+03	1.243277E-15	4.343905E-17
5.170000E+03	1.283737E-15	4.477421E-17
5.180000E+03	1.319644E-15	4.598112E-17
5.190000E+03	1.349855E-15	4.702027E-17
5.200000E+03	1.373557E-15	4.785506E-17
5.210000E+03	1.390416E-15	4.845695E-17
5.220000E+03	1.400498E-15	4.880630E-17
5.230000E+03	1.404388E-15	4.890193E-17
5.240000E+03	1.402266E-15	4.873477E-17
5.250000E+03	1.395060E-15	4.833112E-17
5.260000E+03	1.383548E-15	4.772192E-17
5.270000E+03	1.368490E-15	4.694588E-17
5.280000E+03	1.350576E-15	4.604455E-17
5.290000E+03	1.330192E-15	4.505040E-17
5.300000E+03	1.308184E-15	4.400851E-17
5.310000E+03	1.284698E-15	4.293306E-17
5.320000E+03	1.259996E-15	4.183234E-17
5.330000E+03	1.234299E-15	4.070328E-17
5.340000E+03	1.207824E-15	3.953568E-17
5.350000E+03	1.180645E-15	3.831212E-17
5.360000E+03	1.153402E-15	3.703471E-17
5.370000E+03	1.126270E-15	3.569301E-17
5.380000E+03	1.099500E-15	3.428146E-17
5.390000E+03	1.073894E-15	3.281197E-17
5.400000E+03	1.049832E-15	3.128109E-17
5.410000E+03	1.027777E-15	2.968481E-17
5.420000E+03	1.008695E-15	2.803117E-17
5.430000E+03	9.929833E-16	2.631274E-17
5.440000E+03	9.816074E-16	2.454680E-17
5.450000E+03	9.748697E-16	2.275606E-17
5.460000E+03	9.734742E-16	2.102013E-17
5.470000E+03	9.772862E-16	1.948345E-17
5.480000E+03	9.863665E-16	1.842151E-17
5.490000E+03	9.997473E-16	1.821298E-17
5.500000E+03	1.016348E-15	1.909290E-17
5.510000E+03	1.034520E-15	2.076499E-17
5.520000E+03	1.051763E-15	2.281272E-17
5.530000E+03	1.065859E-15	2.490609E-17
5.540000E+03	1.074737E-15	2.681434E-17
5.550000E+03	1.076311E-15	2.837829E-17
5.560000E+03	1.069670E-15	2.951728E-17
5.570000E+03	1.054556E-15	3.020232E-17
5.580000E+03	1.031438E-15	3.044780E-17
5.590000E+03	1.001435E-15	3.030224E-17
5.600000E+03	9.654448E-16	2.981569E-17
5.610000E+03	9.247665E-16	2.905278E-17
5.620000E+03	8.803585E-16	2.806587E-17
5.630000E+03	8.329684E-16	2.689668E-17
5.640000E+03	7.832366E-16	2.557975E-17
5.650000E+03	7.318564E-16	2.414884E-17
5.660000E+03	6.797136E-16	2.264282E-17
5.670000E+03	6.279467E-16	2.110819E-17
5.680000E+03	5.779044E-16	1.959749E-17
5.690000E+03	5.310106E-16	1.816448E-17
5.700000E+03	4.885213E-16	1.685582E-17
5.710000E+03	4.516682E-16	1.571633E-17
5.720000E+03	4.211473E-16	1.477190E-17
5.730000E+03	3.974267E-16	1.404071E-17
5.740000E+03	3.807353E-16	1.353302E-17
5.750000E+03	3.711008E-16	1.325223E-17
5.760000E+03	3.686539E-16	1.320493E-17
5.770000E+03	3.733683E-16	1.339104E-17
5.780000E+03	3.853075E-16	1.381239E-17
5.790000E+03	4.044996E-16	1.446884E-17
5.800000E+03	4.311143E-16	1.536583E-17
5.810000E+03	4.649592E-16	1.649799E-17
5.820000E+03	5.058361E-16	1.786320E-17
5.830000E+03	5.529494E-16	1.944214E-17
5.840000E+03	6.049407E-16	2.119832E-17
5.850000E+03	6.600987E-16	2.308232E-17
5.860000E+03	7.157944E-16	2.500729E-17
5.870000E+03	7.693795E-16	2.687688E-17
5.880000E+03	8.176738E-16	2.856728E-17
5.890000E+03	8.581720E-16	2.997360E-17
5.900000E+03	8.884806E-16	3.099674E-17
5.910000E+03	9.074207E-16	3.158779E-17
5.920000E+03	9.148119E-16	3.174306E-17
5.930000E+03	9.110309E-16	3.148701E-17
5.940000E+03	8.976281E-16	3.088886E-17
5.950000E+03	8.766602E-16	3.003385E-17
5.960000E+03	8.500189E-16	2.899684E-17
5.970000E+03	8.199439E-16	2.785946E-17
5.980000E+03	7.884355E-16	2.669117E-17
5.990000E+03	7.568268E-16	2.553641E-17
6.000000E+03	7.264576E-16	2.443852E-17
6.010000E+03	6.982340E-16	2.342499E-17
6.020000E+03	6.727965E-16	2.251335E-17
6.030000E+03	6.506685E-16	2.171646E-17
6.040000E+03	6.319269E-16	2.103198E-17
6.050000E+03	6.168159E-16	2.046318E-17
6.060000E+03	6.053978E-16	2.000734E-17
6.070000E+03	5.976807E-16	1.965974E-17
6.080000E+03	5.936472E-16	1.941404E-17
6.090000E+03	5.932822E-16	1.926233E-17
6.100000E+03	5.966019E-16	1.919522E-17
6.110000E+03	6.036830E-16	1.920204E-17
6.120000E+03	6.146925E-16	1.927140E-17
6.130000E+03	6.299158E-16	1.939144E-17
6.140000E+03	6.497826E-16	1.954914E-17
6.150000E+03	6.748876E-16	1.972832E-17
6.160000E+03	7.060115E-16	1.990661E-17
6.170000E+03	7.441484E-16	2.005297E-17
6.180000E+03	7.905521E-16	2.012773E-17
6.190000E+03	8.468200E-16	2.008911E-17
6.200000E+03	9.149069E-16	1.991066E-17
6.210000E+03	9.978796E-16	1.964231E-17
6.220000E+03	1.099509E-15	1.949957E-17
6.230000E+03	1.225267E-15	2.006273E-17
6.240000E+03	1.382863E-15	2.243013E-17
6.250000E+03	1.577583E-15	2.750605E-17
6.260000E+03	1.806683E-15	3.512506E-17
6.270000E+03	2.062098E-15	4.472529E-17
6.280000E+03	2.331046E-15	5.557897E-17
6.290000E+03	2.595670E-15	6.679586E-17
6.300000E+03	2.836097E-15	7.740433E-17
6.310000E+03	3.031175E-15	8.641646E-17
6.320000E+03	3.162942E-15	9.300735E-17
6.330000E+03	3.221353E-15	9.670254E-17
6.340000E+03	3.203036E-15	9.735999E-17
6.350000E+03	3.114980E-15	9.526313E-17
6.360000E+03	2.969528E-15	9.093100E-17
6.370000E+03	2.782974E-15	8.502769E-17
6.380000E+03	2.573692E-15	7.826337E-17
6.390000E+03	2.356826E-15	7.120526E-17
6.400000E+03	2.145860E-15	6.431773E-17
6.410000E+03	1.949211E-15	5.786760E-17
6.420000E+03	1.772992E-15	5.202348E-17
6.430000E+03	1.619218E-15	4.681649E-17
6.440000E+03	1.488719E-15	4.223564E-17
6.450000E+03	1.379881E-15	3.819776E-17
6.460000E+03	1.290853E-15	3.461674E-17
6.470000E+03	1.219241E-15	3.140118E-17
6.480000E+03	1.161908E-15	2.846327E-17
6.490000E+03	1.116379E-15	2.577784E-17
6.500000E+03	1.079532E-15	2.338439E-17
6.510000E+03	1.048804E-15	2.145841E-17
6.520000E+03	1.021686E-15	2.031184E-17
6.530000E+03	9.953606E-16	2.028007E-17
6.540000E+03	9.684565E-16	2.129712E-17
6.550000E+03	9.408969E-16	2.281924E-17
6.560000E+03	9.123638E-16	2.436420E-17
6.570000E+03	8.830530E-16	2.563653E-17
6.580000E+03	8.531191E-16	2.648573E-17
6.590000E+03	8.229224E-16	2.686876E-17
6.600000E+03	7.925279E-16	2.679989E-17
6.610000E+03	7.624052E-16	2.634923E-17
6.620000E+03	7.329085E-16	2.560862E-17
6.630000E+03	7.043689E-16	2.468028E-17
6.640000E+03	6.771664E-16	2.366749E-17
6.650000E+03	6.513166E-16	2.265006E-17
6.660000E+03	6.270622E-16	2.169727E-17
6.670000E+03	6.044695E-16	2.084920E-17
6.680000E+03	5.835349E-16	2.012024E-17
6.690000E+03	5.641946E-16	1.950320E-17
6.700000E+03	5.463362E-16	1.897623E-17
6.710000E+03	5.298151E-16	1.851094E-17
6.720000E+03	5.144737E-16	1.808041E-17
6.730000E+03	5.001592E-16	1.766525E-17
6.740000E+03	4.868089E-16	1.725918E-17
6.750000E+03	4.741743E-16	1.685856E-17
6.760000E+03	4.622523E-16	1.647450E-17
6.770000E+03	4.509956E-16	1.611782E-17
6.780000E+03	4.403808E-16	1.579646E-17
6.790000E+03	4.303421E-16	1.550936E-17
6.800000E+03	4.210190E-16	1.525489E-17
6.810000E+03	4.123768E-16	1.502008E-17
6.820000E+03	4.044610E-16	1.479448E-17
6.830000E+03	3.973337E-16	1.457195E-17
6.840000E+03	3.910739E-16	1.435241E-17
6.850000E+03	3.857757E-16	1.414132E-17
6.860000E+03	3.815453E-16	1.394789E-17
6.870000E+03	3.784969E-16	1.378293E-17
6.880000E+03	3.767467E-16	1.365693E-17
6.890000E+03	3.763524E-16	1.357666E-17
6.900000E+03	3.775252E-16	1.355215E-17
6.910000E+03	3.802945E-16	1.358464E-17
6.920000E+03	3.847186E-16	1.367498E-17
6.930000E+03	3.908206E-16	1.382270E-17
6.940000E+03	3.985199E-16	1.402490E-17
6.950000E+03	4.078539E-16	1.428474E-17
6.960000E+03	4.186264E-16	1.459860E-17
6.970000E+03	4.306354E-16	1.496304E-17
6.980000E+03	4.435611E-16	1.536968E-17
6.990000E+03	4.572430E-16	1.581417E-17
7.000000E+03	4.713271E-16	1.628376E-17
7.010000E+03	4.855470E-16	1.676727E-17
7.020000E+03	4.996078E-16	1.725173E-17
7.030000E+03	5.134839E-16	1.773324E-17
7.040000E+03	5.269854E-16	1.820239E-17
7.050000E+03	5.399573E-16	1.865118E-17
7.060000E+03	5.525190E-16	1.908125E-17
7.070000E+03	5.645262E-16	1.948541E-17
7.080000E+03	5.762395E-16	1.987142E-17
7.090000E+03	5.878095E-16	2.024486E-17
7.100000E+03	5.995735E-16	2.061968E-17
7.110000E+03	6.123791E-16	2.102873E-17
7.120000E+03	6.270126E-16	2.150312E-17
7.130000E+03	6.449161E-16	2.209589E-17
7.140000E+03	6.674388E-16	2.285606E-17
7.150000E+03	6.965319E-16	2.385241E-17
7.160000E+03	7.339127E-16	2.514470E-17
7.170000E+03	7.817811E-16	2.680785E-17
7.180000E+03	8.418650E-16	2.889840E-17
7.190000E+03	9.161544E-16	3.147869E-17
7.200000E+03	1.005725E-15	3.457600E-17
7.210000E+03	1.111480E-15	3.820875E-17
7.220000E+03	1.232641E-15	4.233688E-17
7.230000E+03	1.367592E-15	4.689452E-17
7.240000E+03	1.512148E-15	5.173463E-17
7.250000E+03	1.660675E-15	5.667026E-17
7.260000E+03	1.805786E-15	6.146298E-17
7.270000E+03	1.938090E-15	6.580937E-17
7.280000E+03	2.048750E-15	6.942224E-17
7.290000E+03	2.130097E-15	7.204874E-17
7.300000E+03	2.175901E-15	7.348105E-17
7.310000E+03	2.184110E-15	7.365220E-17
7.320000E+03	2.156196E-15	7.261630E-17
7.330000E+03	2.095745E-15	7.049993E-17
7.340000E+03	2.009411E-15	6.753028E-17
7.350000E+03	1.904725E-15	6.395698E-17
7.360000E+03	1.788196E-15	5.998648E-17
7.370000E+03	1.666287E-15	5.581787E-17
7.380000E+03	1.543886E-15	5.159896E-17
7.390000E+03	1.424571E-15	4.744221E-17
7.400000E+03	1.310955E-15	4.343947E-17
7.410000E+03	1.204153E-15	3.964202E-17
7.420000E+03	1.105228E-15	3.610369E-17
7.430000E+03	1.014588E-15	3.285483E-17
7.440000E+03	9.323505E-16	2.991024E-17
7.450000E+03	8.584558E-16	2.727090E-17
7.460000E+03	7.928542E-16	2.493085E-17
7.470000E+03	7.350814E-16	2.286597E-17
7.480000E+03	6.850195E-16	2.105976E-17
7.490000E+03	6.424305E-16	1.948926E-17
7.500000E+03	6.071049E-16	1.812994E-17
7.510000E+03	5.788739E-16	1.695562E-17
7.520000E+03	5.576074E-16	1.593762E-17
7.530000E+03	5.431925E-16	1.504367E-17
7.540000E+03	5.354876E-16	1.423646E-17
7.550000E+03	5.342491E-16	1.347214E-17
7.560000E+03	5.390231E-16	1.270040E-17
7.570000E+03	5.490052E-16	1.187046E-17
7.580000E+03	5.628881E-16	1.095095E-17
7.590000E+03	5.787311E-16	9.976678E-18
7.600000E+03	5.939011E-16	9.130405E-18
7.610000E+03	6.051380E-16	8.805794E-18
7.620000E+03	6.096748E-16	9.354421E-18
7.630000E+03	6.089221E-16	1.050639E-17
7.640000E+03	6.054529E-16	1.184298E-17
7.650000E+03	6.018705E-16	1.313754E-17
7.660000E+03	6.000830E-16	1.431643E-17
7.670000E+03	6.015680E-16	1.539086E-17
7.680000E+03	6.072524E-16	1.640467E-17
7.690000E+03	6.175145E-16	1.740594E-17
7.700000E+03	6.321002E-16	1.842900E-17
7.710000E+03	6.505084E-16	1.949690E-17
7.720000E+03	6.714601E-16	2.060060E-17
7.730000E+03	6.933207E-16	2.170726E-17
7.740000E+03	7.141141E-16	2.275886E-17
7.750000E+03	7.315906E-16	2.367477E-17
7.760000E+03	7.438967E-16	2.437689E-17
