#wls	flux	fluxerr
1.600000E+03	5.530435E-17	6.367915E-17
1.640000E+03	5.657644E-17	6.477196E-17
1.680000E+03	5.793602E-17	6.591630E-17
1.720000E+03	5.939026E-17	6.711389E-17
1.760000E+03	6.094698E-17	6.836626E-17
1.800000E+03	6.261472E-17	6.967472E-17
1.840000E+03	6.440276E-17	7.104025E-17
1.880000E+03	6.632123E-17	7.246342E-17
1.920000E+03	6.838114E-17	7.394423E-17
1.960000E+03	7.059444E-17	7.548197E-17
2.000000E+03	7.298716E-17	7.708882E-17
2.040000E+03	7.554762E-17	7.873471E-17
2.080000E+03	7.831755E-17	8.044338E-17
2.120000E+03	8.128565E-17	8.218042E-17
2.160000E+03	8.449782E-17	8.396687E-17
2.200000E+03	8.794277E-17	8.576233E-17
2.240000E+03	9.167066E-17	8.758329E-17
2.280000E+03	9.568655E-17	8.939713E-17
2.320000E+03	9.999329E-17	9.116547E-17
2.360000E+03	1.046466E-16	9.289312E-17
2.400000E+03	1.096497E-16	9.453057E-17
2.440000E+03	1.150220E-16	9.603720E-17
2.480000E+03	1.207807E-16	9.736438E-17
2.520000E+03	1.269396E-16	9.845463E-17
2.560000E+03	1.335311E-16	9.925854E-17
2.600000E+03	1.405109E-16	9.966381E-17
2.640000E+03	1.478934E-16	9.960094E-17
2.680000E+03	1.556855E-16	9.899136E-17
2.720000E+03	1.637963E-16	9.769635E-17
2.760000E+03	1.721938E-16	9.562652E-17
2.800000E+03	1.808265E-16	9.269303E-17
2.840000E+03	1.895507E-16	8.878288E-17
2.880000E+03	1.981810E-16	8.380735E-17
2.920000E+03	2.065946E-16	7.776111E-17
2.960000E+03	2.145223E-16	7.065145E-17
3.000000E+03	2.216437E-16	6.257722E-17
3.010000E+03	2.232766E-16	6.043679E-17
3.020000E+03	2.248360E-16	5.825559E-17
3.030000E+03	2.263166E-16	5.603943E-17
3.040000E+03	2.277125E-16	5.379488E-17
3.050000E+03	2.290180E-16	5.152932E-17
3.060000E+03	2.302275E-16	4.925102E-17
3.070000E+03	2.313350E-16	4.696916E-17
3.080000E+03	2.323349E-16	4.469393E-17
3.090000E+03	2.332214E-16	4.243650E-17
3.100000E+03	2.339891E-16	4.020909E-17
3.110000E+03	2.346327E-16	3.802486E-17
3.120000E+03	2.351474E-16	3.589786E-17
3.130000E+03	2.355290E-16	3.384277E-17
3.140000E+03	2.357744E-16	3.187455E-17
3.150000E+03	2.358817E-16	3.000793E-17
3.160000E+03	2.358513E-16	2.825676E-17
3.170000E+03	2.356868E-16	2.663317E-17
3.180000E+03	2.353962E-16	2.514679E-17
3.190000E+03	2.349933E-16	2.380394E-17
3.200000E+03	2.344992E-16	2.260711E-17
3.210000E+03	2.339432E-16	2.155470E-17
3.220000E+03	2.333629E-16	2.064129E-17
3.230000E+03	2.328039E-16	1.985817E-17
3.240000E+03	2.323177E-16	1.919426E-17
3.250000E+03	2.319599E-16	1.863711E-17
3.260000E+03	2.317859E-16	1.817394E-17
3.270000E+03	2.318482E-16	1.779245E-17
3.280000E+03	2.321928E-16	1.748148E-17
3.290000E+03	2.328562E-16	1.723133E-17
3.300000E+03	2.338643E-16	1.703390E-17
3.310000E+03	2.352309E-16	1.688271E-17
3.320000E+03	2.369590E-16	1.677268E-17
3.330000E+03	2.390405E-16	1.669986E-17
3.340000E+03	2.414584E-16	1.666114E-17
3.350000E+03	2.441875E-16	1.665377E-17
3.360000E+03	2.471946E-16	1.667499E-17
3.370000E+03	2.504387E-16	1.672163E-17
3.380000E+03	2.538699E-16	1.678980E-17
3.390000E+03	2.574283E-16	1.687477E-17
3.400000E+03	2.610432E-16	1.697092E-17
3.410000E+03	2.646334E-16	1.707194E-17
3.420000E+03	2.681095E-16	1.717110E-17
3.430000E+03	2.713787E-16	1.726163E-17
3.440000E+03	2.743995E-16	1.734028E-17
3.450000E+03	2.769983E-16	1.739563E-17
3.460000E+03	2.791647E-16	1.742686E-17
3.470000E+03	2.808682E-16	1.743190E-17
3.480000E+03	2.821099E-16	1.741075E-17
3.490000E+03	2.829229E-16	1.736547E-17
3.500000E+03	2.833687E-16	1.730000E-17
3.510000E+03	2.835305E-16	1.721992E-17
3.520000E+03	2.835039E-16	1.713197E-17
3.530000E+03	2.833884E-16	1.704369E-17
3.540000E+03	2.832781E-16	1.696291E-17
3.550000E+03	2.832563E-16	1.689729E-17
3.560000E+03	2.833900E-16	1.685392E-17
3.570000E+03	2.837280E-16	1.683876E-17
3.580000E+03	2.842991E-16	1.685612E-17
3.590000E+03	2.851111E-16	1.690790E-17
3.600000E+03	2.861492E-16	1.699273E-17
3.610000E+03	2.873760E-16	1.710545E-17
3.620000E+03	2.887342E-16	1.723782E-17
3.630000E+03	2.901500E-16	1.737997E-17
3.640000E+03	2.915885E-16	1.752467E-17
3.650000E+03	2.928528E-16	1.765603E-17
3.660000E+03	2.938914E-16	1.776828E-17
3.670000E+03	2.945963E-16	1.785385E-17
3.680000E+03	2.948571E-16	1.790648E-17
3.690000E+03	2.945645E-16	1.792110E-17
3.700000E+03	2.936182E-16	1.789384E-17
3.710000E+03	2.919374E-16	1.782212E-17
3.720000E+03	2.894753E-16	1.770496E-17
3.730000E+03	2.862332E-16	1.754346E-17
3.740000E+03	2.822719E-16	1.734124E-17
3.750000E+03	2.777162E-16	1.710474E-17
3.760000E+03	2.727521E-16	1.684330E-17
3.770000E+03	2.676160E-16	1.656891E-17
3.780000E+03	2.625790E-16	1.629571E-17
3.790000E+03	2.579292E-16	1.603931E-17
3.800000E+03	2.539545E-16	1.581610E-17
3.810000E+03	2.509296E-16	1.564247E-17
3.820000E+03	2.491071E-16	1.553425E-17
3.830000E+03	2.487547E-16	1.550888E-17
3.840000E+03	2.499799E-16	1.557419E-17
3.850000E+03	2.529870E-16	1.574422E-17
3.860000E+03	2.579023E-16	1.602806E-17
3.870000E+03	2.648136E-16	1.643226E-17
3.880000E+03	2.737643E-16	1.696028E-17
3.890000E+03	2.847457E-16	1.761205E-17
3.900000E+03	2.976868E-16	1.838322E-17
3.910000E+03	3.124451E-16	1.926459E-17
3.920000E+03	3.287992E-16	2.024163E-17
3.930000E+03	3.464460E-16	2.129437E-17
3.940000E+03	3.650060E-16	2.239791E-17
3.950000E+03	3.840353E-16	2.352344E-17
3.960000E+03	4.030462E-16	2.463984E-17
3.970000E+03	4.215323E-16	2.571568E-17
3.980000E+03	4.389979E-16	2.672115E-17
3.990000E+03	4.549867E-16	2.762986E-17
4.000000E+03	4.691071E-16	2.842012E-17
4.010000E+03	4.810523E-16	2.907571E-17
4.020000E+03	4.906145E-16	2.958611E-17
4.030000E+03	4.976916E-16	2.994656E-17
4.040000E+03	5.022901E-16	3.015784E-17
4.050000E+03	5.045225E-16	3.022626E-17
4.060000E+03	5.046006E-16	3.016342E-17
4.070000E+03	5.028247E-16	2.998595E-17
4.080000E+03	4.995680E-16	2.971486E-17
4.090000E+03	4.952576E-16	2.937459E-17
4.100000E+03	4.903518E-16	2.899177E-17
4.110000E+03	4.853171E-16	2.859372E-17
4.120000E+03	4.806040E-16	2.820686E-17
4.130000E+03	4.766251E-16	2.785515E-17
4.140000E+03	4.737353E-16	2.755860E-17
4.150000E+03	4.722165E-16	2.733215E-17
4.160000E+03	4.722662E-16	2.718485E-17
4.170000E+03	4.739928E-16	2.711963E-17
4.180000E+03	4.774159E-16	2.713350E-17
4.190000E+03	4.824730E-16	2.721825E-17
4.200000E+03	4.890325E-16	2.736153E-17
4.210000E+03	4.969099E-16	2.754815E-17
4.220000E+03	5.058847E-16	2.776132E-17
4.230000E+03	5.157152E-16	2.798357E-17
4.240000E+03	5.261499E-16	2.819735E-17
4.250000E+03	5.369345E-16	2.838514E-17
4.260000E+03	5.478172E-16	2.852941E-17
4.270000E+03	5.585530E-16	2.861259E-17
4.280000E+03	5.689120E-16	2.861762E-17
4.290000E+03	5.786904E-16	2.852917E-17
4.300000E+03	5.877251E-16	2.833581E-17
4.310000E+03	5.959066E-16	2.803258E-17
4.320000E+03	6.031872E-16	2.762396E-17
4.330000E+03	6.095833E-16	2.712669E-17
4.340000E+03	6.151714E-16	2.657218E-17
4.350000E+03	6.200809E-16	2.600799E-17
4.360000E+03	6.244855E-16	2.549733E-17
4.370000E+03	6.285963E-16	2.511492E-17
4.380000E+03	6.325514E-16	2.493271E-17
4.390000E+03	6.368583E-16	2.501963E-17
4.400000E+03	6.417534E-16	2.539788E-17
4.410000E+03	6.476305E-16	2.605924E-17
4.420000E+03	6.549088E-16	2.697689E-17
4.430000E+03	6.640107E-16	2.812142E-17
4.440000E+03	6.753397E-16	2.946965E-17
4.450000E+03	6.892557E-16	3.100685E-17
4.460000E+03	7.060407E-16	3.272465E-17
4.470000E+03	7.258546E-16	3.461622E-17
4.480000E+03	7.486808E-16	3.667009E-17
4.490000E+03	7.741359E-16	3.885718E-17
4.500000E+03	8.019439E-16	4.115162E-17
4.510000E+03	8.311154E-16	4.348831E-17
4.520000E+03	8.604638E-16	4.578807E-17
4.530000E+03	8.885209E-16	4.795510E-17
4.540000E+03	9.136390E-16	4.988498E-17
4.550000E+03	9.341445E-16	5.147599E-17
4.560000E+03	9.485248E-16	5.264176E-17
4.570000E+03	9.554565E-16	5.331355E-17
4.580000E+03	9.546198E-16	5.348471E-17
4.590000E+03	9.458038E-16	5.315837E-17
4.600000E+03	9.295603E-16	5.238075E-17
4.610000E+03	9.069522E-16	5.122447E-17
4.620000E+03	8.793960E-16	4.977820E-17
4.630000E+03	8.483276E-16	4.812753E-17
4.640000E+03	8.156119E-16	4.637896E-17
4.650000E+03	7.825096E-16	4.460268E-17
4.660000E+03	7.501883E-16	4.286263E-17
4.670000E+03	7.195343E-16	4.120694E-17
4.680000E+03	6.910405E-16	3.966208E-17
4.690000E+03	6.653187E-16	3.826251E-17
4.700000E+03	6.424198E-16	3.701171E-17
4.710000E+03	6.223706E-16	3.591271E-17
4.720000E+03	6.050930E-16	3.496314E-17
4.730000E+03	5.903377E-16	3.415117E-17
4.740000E+03	5.781174E-16	3.348029E-17
4.750000E+03	5.681142E-16	3.293496E-17
4.760000E+03	5.601077E-16	3.250530E-17
4.770000E+03	5.538861E-16	3.218199E-17
4.780000E+03	5.491636E-16	3.195132E-17
4.790000E+03	5.459642E-16	3.181745E-17
4.800000E+03	5.440572E-16	3.176914E-17
4.810000E+03	5.433305E-16	3.180094E-17
4.820000E+03	5.435927E-16	3.190090E-17
4.830000E+03	5.449308E-16	3.207092E-17
4.840000E+03	5.471387E-16	3.229304E-17
4.850000E+03	5.499852E-16	3.254550E-17
4.860000E+03	5.534937E-16	3.282069E-17
4.870000E+03	5.573846E-16	3.309401E-17
4.880000E+03	5.614611E-16	3.334849E-17
4.890000E+03	5.654354E-16	3.356550E-17
4.900000E+03	5.693318E-16	3.374896E-17
4.910000E+03	5.729240E-16	3.389095E-17
4.920000E+03	5.760312E-16	3.398784E-17
4.930000E+03	5.788153E-16	3.405628E-17
4.940000E+03	5.811820E-16	3.409662E-17
4.950000E+03	5.830534E-16	3.410885E-17
4.960000E+03	5.846493E-16	3.410912E-17
4.970000E+03	5.858760E-16	3.409438E-17
4.980000E+03	5.866268E-16	3.406019E-17
4.990000E+03	5.871024E-16	3.401915E-17
5.000000E+03	5.872418E-16	3.396770E-17
5.010000E+03	5.870612E-16	3.390582E-17
5.020000E+03	5.869871E-16	3.385641E-17
5.030000E+03	5.872699E-16	3.383170E-17
5.040000E+03	5.882758E-16	3.385053E-17
5.050000E+03	5.907563E-16	3.395408E-17
5.060000E+03	5.950946E-16	3.416261E-17
5.070000E+03	6.020528E-16	3.451833E-17
5.080000E+03	6.120007E-16	3.504090E-17
5.090000E+03	6.251523E-16	3.574084E-17
5.100000E+03	6.418347E-16	3.663485E-17
5.110000E+03	6.616993E-16	3.770080E-17
5.120000E+03	6.845629E-16	3.892614E-17
5.130000E+03	7.096380E-16	4.026442E-17
5.140000E+03	7.358814E-16	4.165567E-17
5.150000E+03	7.624505E-16	4.305240E-17
5.160000E+03	7.879248E-16	4.437523E-17
5.170000E+03	8.114390E-16	4.557627E-17
5.180000E+03	8.317303E-16	4.658455E-17
5.190000E+03	8.483063E-16	4.737108E-17
5.200000E+03	8.603673E-16	4.788815E-17
5.210000E+03	8.679565E-16	4.813380E-17
5.220000E+03	8.709258E-16	4.809472E-17
5.230000E+03	8.693303E-16	4.776919E-17
5.240000E+03	8.638314E-16	4.718998E-17
5.250000E+03	8.546098E-16	4.636533E-17
5.260000E+03	8.424976E-16	4.534136E-17
5.270000E+03	8.277662E-16	4.413605E-17
5.280000E+03	8.112469E-16	4.279919E-17
5.290000E+03	7.931700E-16	4.134924E-17
5.300000E+03	7.742692E-16	3.983066E-17
5.310000E+03	7.546904E-16	3.825553E-17
5.320000E+03	7.349417E-16	3.665200E-17
5.330000E+03	7.154888E-16	3.504258E-17
5.340000E+03	6.964068E-16	3.342748E-17
5.350000E+03	6.782400E-16	3.182729E-17
5.360000E+03	6.610374E-16	3.023671E-17
5.370000E+03	6.452850E-16	2.866909E-17
5.380000E+03	6.309867E-16	2.711409E-17
5.390000E+03	6.185524E-16	2.557783E-17
5.400000E+03	6.079260E-16	2.404512E-17
5.410000E+03	5.993355E-16	2.251234E-17
5.420000E+03	5.929618E-16	2.097430E-17
5.430000E+03	5.886303E-16	1.941758E-17
5.440000E+03	5.864974E-16	1.785200E-17
5.450000E+03	5.862131E-16	1.629462E-17
5.460000E+03	5.875833E-16	1.481196E-17
5.470000E+03	5.902343E-16	1.353521E-17
5.480000E+03	5.932996E-16	1.266722E-17
5.490000E+03	5.961815E-16	1.244178E-17
5.500000E+03	5.979122E-16	1.294497E-17
5.510000E+03	5.979911E-16	1.403328E-17
5.520000E+03	5.960292E-16	1.544205E-17
5.530000E+03	5.913811E-16	1.692199E-17
5.540000E+03	5.837756E-16	1.830135E-17
5.550000E+03	5.730592E-16	1.947168E-17
5.560000E+03	5.589498E-16	2.036040E-17
5.570000E+03	5.416456E-16	2.093798E-17
5.580000E+03	5.215019E-16	2.120148E-17
5.590000E+03	4.987314E-16	2.115771E-17
5.600000E+03	4.738963E-16	2.083971E-17
5.610000E+03	4.475715E-16	2.029038E-17
5.620000E+03	4.200966E-16	1.954704E-17
5.630000E+03	3.920347E-16	1.865839E-17
5.640000E+03	3.639219E-16	1.767089E-17
5.650000E+03	3.361084E-16	1.661899E-17
5.660000E+03	3.091526E-16	1.554361E-17
5.670000E+03	2.835549E-16	1.447973E-17
5.680000E+03	2.598473E-16	1.346186E-17
5.690000E+03	2.383798E-16	1.251410E-17
5.700000E+03	2.195632E-16	1.166363E-17
5.710000E+03	2.036956E-16	1.093237E-17
5.720000E+03	1.908711E-16	1.033202E-17
5.730000E+03	1.812154E-16	9.876280E-18
5.740000E+03	1.747709E-16	9.574324E-18
5.750000E+03	1.715670E-16	9.434114E-18
5.760000E+03	1.716772E-16	9.465220E-18
5.770000E+03	1.751201E-16	9.673213E-18
5.780000E+03	1.820378E-16	1.006948E-17
5.790000E+03	1.925681E-16	1.066434E-17
5.800000E+03	2.068792E-16	1.146912E-17
5.810000E+03	2.249831E-16	1.248601E-17
5.820000E+03	2.468699E-16	1.371561E-17
5.830000E+03	2.722955E-16	1.514513E-17
5.840000E+03	3.007358E-16	1.674563E-17
5.850000E+03	3.313870E-16	1.847162E-17
5.860000E+03	3.629354E-16	2.024761E-17
5.870000E+03	3.939320E-16	2.198862E-17
5.880000E+03	4.227056E-16	2.359549E-17
5.890000E+03	4.475925E-16	2.496872E-17
5.900000E+03	4.671408E-16	2.602159E-17
5.910000E+03	4.803799E-16	2.669702E-17
5.920000E+03	4.866265E-16	2.695787E-17
5.930000E+03	4.860159E-16	2.681644E-17
5.940000E+03	4.791378E-16	2.631272E-17
5.950000E+03	4.669969E-16	2.551023E-17
5.960000E+03	4.508512E-16	2.448521E-17
5.970000E+03	4.320439E-16	2.331640E-17
5.980000E+03	4.118607E-16	2.207695E-17
5.990000E+03	3.914981E-16	2.083292E-17
6.000000E+03	3.717446E-16	1.962672E-17
6.010000E+03	3.533799E-16	1.849883E-17
6.020000E+03	3.369157E-16	1.747424E-17
6.030000E+03	3.226957E-16	1.656798E-17
6.040000E+03	3.109330E-16	1.578721E-17
6.050000E+03	3.017452E-16	1.513314E-17
6.060000E+03	2.951886E-16	1.460288E-17
6.070000E+03	2.912871E-16	1.419089E-17
6.080000E+03	2.900565E-16	1.389015E-17
6.090000E+03	2.915252E-16	1.369290E-17
6.100000E+03	2.957521E-16	1.359100E-17
6.110000E+03	3.028428E-16	1.357604E-17
6.120000E+03	3.130175E-16	1.364125E-17
6.130000E+03	3.264145E-16	1.377160E-17
6.140000E+03	3.434152E-16	1.395638E-17
6.150000E+03	3.644478E-16	1.417855E-17
6.160000E+03	3.900472E-16	1.441554E-17
6.170000E+03	4.208660E-16	1.463856E-17
6.180000E+03	4.576895E-16	1.481438E-17
6.190000E+03	5.014639E-16	1.491274E-17
6.200000E+03	5.533466E-16	1.492547E-17
6.210000E+03	6.147893E-16	1.490823E-17
6.220000E+03	6.876504E-16	1.505678E-17
6.230000E+03	7.742540E-16	1.579949E-17
6.240000E+03	8.770630E-16	1.777359E-17
6.250000E+03	9.975215E-16	2.151904E-17
6.260000E+03	1.134834E-15	2.717086E-17
6.270000E+03	1.285760E-15	3.451397E-17
6.280000E+03	1.444810E-15	4.314432E-17
6.290000E+03	1.604483E-15	5.253223E-17
6.300000E+03	1.755754E-15	6.204504E-17
6.310000E+03	1.888929E-15	7.098907E-17
6.320000E+03	1.994806E-15	7.868211E-17
6.330000E+03	2.065594E-15	8.452763E-17
6.340000E+03	2.097400E-15	8.815279E-17
6.350000E+03	2.088791E-15	8.937639E-17
6.360000E+03	2.042220E-15	8.827281E-17
6.370000E+03	1.963151E-15	8.512507E-17
6.380000E+03	1.859109E-15	8.036033E-17
6.390000E+03	1.738541E-15	7.447244E-17
6.400000E+03	1.609746E-15	6.794946E-17
6.410000E+03	1.480031E-15	6.121881E-17
6.420000E+03	1.355194E-15	5.461518E-17
6.430000E+03	1.239321E-15	4.836998E-17
6.440000E+03	1.134850E-15	4.261753E-17
6.450000E+03	1.042802E-15	3.741201E-17
6.460000E+03	9.629241E-16	3.274470E-17
6.470000E+03	8.946731E-16	2.859225E-17
6.480000E+03	8.364762E-16	2.490729E-17
6.490000E+03	7.866372E-16	2.166857E-17
6.500000E+03	7.433117E-16	1.889818E-17
6.510000E+03	7.046232E-16	1.667535E-17
6.520000E+03	6.688086E-16	1.511716E-17
6.530000E+03	6.344953E-16	1.429428E-17
6.540000E+03	6.009564E-16	1.411881E-17
6.550000E+03	5.684678E-16	1.436513E-17
6.560000E+03	5.372139E-16	1.478535E-17
6.570000E+03	5.074202E-16	1.520506E-17
6.580000E+03	4.791877E-16	1.552808E-17
6.590000E+03	4.525202E-16	1.571391E-17
6.600000E+03	4.272938E-16	1.575318E-17
6.610000E+03	4.035879E-16	1.566372E-17
6.620000E+03	3.812602E-16	1.546503E-17
6.630000E+03	3.602618E-16	1.518280E-17
6.640000E+03	3.405619E-16	1.484213E-17
6.650000E+03	3.221430E-16	1.446511E-17
6.660000E+03	3.049415E-16	1.406740E-17
6.670000E+03	2.890484E-16	1.366747E-17
6.680000E+03	2.743841E-16	1.327216E-17
6.690000E+03	2.609098E-16	1.288675E-17
6.700000E+03	2.485720E-16	1.251306E-17
6.710000E+03	2.372649E-16	1.214842E-17
6.720000E+03	2.269971E-16	1.179530E-17
6.730000E+03	2.176498E-16	1.145015E-17
6.740000E+03	2.091478E-16	1.111294E-17
6.750000E+03	2.014202E-16	1.078541E-17
6.760000E+03	1.943698E-16	1.046903E-17
6.770000E+03	1.880060E-16	1.017148E-17
6.780000E+03	1.822440E-16	9.894824E-18
6.790000E+03	1.770396E-16	9.642012E-18
6.800000E+03	1.723264E-16	9.413142E-18
6.810000E+03	1.681344E-16	9.211999E-18
6.820000E+03	1.644137E-16	9.036780E-18
6.830000E+03	1.611553E-16	8.887091E-18
6.840000E+03	1.583356E-16	8.761232E-18
6.850000E+03	1.560252E-16	8.662448E-18
6.860000E+03	1.542256E-16	8.590073E-18
6.870000E+03	1.529764E-16	8.545620E-18
6.880000E+03	1.522995E-16	8.529809E-18
6.890000E+03	1.522993E-16	8.548291E-18
6.900000E+03	1.530044E-16	8.602788E-18
6.910000E+03	1.544411E-16	8.695195E-18
6.920000E+03	1.567091E-16	8.831743E-18
6.930000E+03	1.598216E-16	9.013891E-18
6.940000E+03	1.638068E-16	9.243904E-18
6.950000E+03	1.686506E-16	9.521570E-18
6.960000E+03	1.744094E-16	9.850533E-18
6.970000E+03	1.810416E-16	1.022879E-17
6.980000E+03	1.884897E-16	1.065337E-17
6.990000E+03	1.967835E-16	1.112622E-17
7.000000E+03	2.058568E-16	1.164384E-17
7.010000E+03	2.156398E-16	1.220241E-17
7.020000E+03	2.261761E-16	1.280433E-17
7.030000E+03	2.374088E-16	1.344599E-17
7.040000E+03	2.492789E-16	1.412330E-17
7.050000E+03	2.618586E-16	1.483936E-17
7.060000E+03	2.751073E-16	1.559084E-17
7.070000E+03	2.889972E-16	1.637537E-17
7.080000E+03	3.036880E-16	1.720163E-17
7.090000E+03	3.192699E-16	1.807477E-17
7.100000E+03	3.359319E-16	1.900597E-17
7.110000E+03	3.541786E-16	2.002454E-17
7.120000E+03	3.745284E-16	2.116075E-17
7.130000E+03	3.976900E-16	2.245559E-17
7.140000E+03	4.247827E-16	2.397309E-17
7.150000E+03	4.568604E-16	2.577312E-17
7.160000E+03	4.954520E-16	2.794173E-17
7.170000E+03	5.420039E-16	3.055952E-17
7.180000E+03	5.979942E-16	3.370784E-17
7.190000E+03	6.651310E-16	3.747964E-17
7.200000E+03	7.445869E-16	4.193588E-17
7.210000E+03	8.369746E-16	4.710379E-17
7.220000E+03	9.424824E-16	5.298453E-17
7.230000E+03	1.059533E-15	5.947864E-17
7.240000E+03	1.185691E-15	6.643898E-17
7.250000E+03	1.316344E-15	7.359907E-17
7.260000E+03	1.445207E-15	8.060352E-17
7.270000E+03	1.565560E-15	8.707764E-17
7.280000E+03	1.669316E-15	9.257545E-17
7.290000E+03	1.750065E-15	9.674826E-17
7.300000E+03	1.801897E-15	9.927851E-17
7.310000E+03	1.822482E-15	1.000500E-16
7.320000E+03	1.811310E-15	9.904959E-17
7.330000E+03	1.770424E-15	9.640590E-17
7.340000E+03	1.704750E-15	9.240398E-17
7.350000E+03	1.619168E-15	8.732233E-17
7.360000E+03	1.520053E-15	8.151484E-17
7.370000E+03	1.412366E-15	7.525462E-17
7.380000E+03	1.301389E-15	6.882965E-17
7.390000E+03	1.190548E-15	6.242942E-17
7.400000E+03	1.083258E-15	5.624363E-17
7.410000E+03	9.814736E-16	5.038468E-17
7.420000E+03	8.865320E-16	4.493044E-17
7.430000E+03	7.996831E-16	3.994882E-17
7.440000E+03	7.211280E-16	3.544839E-17
7.450000E+03	6.512756E-16	3.144214E-17
7.460000E+03	5.897854E-16	2.790157E-17
7.470000E+03	5.365836E-16	2.480821E-17
7.480000E+03	4.910760E-16	2.211747E-17
7.490000E+03	4.529782E-16	1.979832E-17
7.500000E+03	4.216540E-16	1.780305E-17
7.510000E+03	3.967979E-16	1.609709E-17
7.520000E+03	3.778506E-16	1.463330E-17
7.530000E+03	3.645629E-16	1.337495E-17
7.540000E+03	3.564432E-16	1.227400E-17
7.550000E+03	3.532273E-16	1.129040E-17
7.560000E+03	3.543157E-16	1.037653E-17
7.570000E+03	3.591711E-16	9.500272E-18
7.580000E+03	3.667299E-16	8.646144E-18
7.590000E+03	3.758050E-16	7.858430E-18
7.600000E+03	3.845916E-16	7.263563E-18
7.610000E+03	3.914398E-16	7.067364E-18
7.620000E+03	3.950592E-16	7.398661E-18
7.630000E+03	3.956208E-16	8.172470E-18
7.640000E+03	3.942052E-16	9.183835E-18
7.650000E+03	3.918864E-16	1.026460E-17
7.660000E+03	3.898290E-16	1.133475E-17
7.670000E+03	3.886301E-16	1.236438E-17
7.680000E+03	3.888364E-16	1.335887E-17
7.690000E+03	3.904356E-16	1.432282E-17
7.700000E+03	3.934284E-16	1.526635E-17
7.710000E+03	3.973391E-16	1.618065E-17
7.720000E+03	4.017332E-16	1.705346E-17
7.730000E+03	4.060723E-16	1.786280E-17
7.740000E+03	4.095616E-16	1.856996E-17
7.750000E+03	4.116989E-16	1.914506E-17
7.760000E+03	4.117833E-16	1.954755E-17
