#wls	flux	fluxerr
1.600000E+03	5.000571E-17	5.762684E-17
1.640000E+03	5.117948E-17	5.864647E-17
1.680000E+03	5.242496E-17	5.970434E-17
1.720000E+03	5.376736E-17	6.082334E-17
1.760000E+03	5.519473E-17	6.198323E-17
1.800000E+03	5.673443E-17	6.320727E-17
1.840000E+03	5.837479E-17	6.447381E-17
1.880000E+03	6.014566E-17	6.580624E-17
1.920000E+03	6.204682E-17	6.719308E-17
1.960000E+03	6.407753E-17	6.862119E-17
2.000000E+03	6.627205E-17	7.011321E-17
2.040000E+03	6.863171E-17	7.165422E-17
2.080000E+03	7.116990E-17	7.323996E-17
2.120000E+03	7.390087E-17	7.486444E-17
2.160000E+03	7.683968E-17	7.651958E-17
2.200000E+03	8.000217E-17	7.819473E-17
2.240000E+03	8.340477E-17	7.987619E-17
2.280000E+03	8.706433E-17	8.154658E-17
2.320000E+03	9.099778E-17	8.318424E-17
2.360000E+03	9.522178E-17	8.476241E-17
2.400000E+03	9.975207E-17	8.624853E-17
2.440000E+03	1.046215E-16	8.761900E-17
2.480000E+03	1.098051E-16	8.879600E-17
2.520000E+03	1.153284E-16	8.974001E-17
2.560000E+03	1.212153E-16	9.040344E-17
2.600000E+03	1.274185E-16	9.068129E-17
2.640000E+03	1.339678E-16	9.052411E-17
2.680000E+03	1.407890E-16	8.980993E-17
2.720000E+03	1.478883E-16	8.847521E-17
2.760000E+03	1.551517E-16	8.638988E-17
2.800000E+03	1.625472E-16	8.348915E-17
2.840000E+03	1.699352E-16	7.967096E-17
2.880000E+03	1.771395E-16	7.485558E-17
2.920000E+03	1.840428E-16	6.903741E-17
2.960000E+03	1.903998E-16	6.221884E-17
3.000000E+03	1.959597E-16	5.448694E-17
3.010000E+03	1.971664E-16	5.242319E-17
3.020000E+03	1.983359E-16	5.032665E-17
3.030000E+03	1.994287E-16	4.819215E-17
3.040000E+03	2.004044E-16	4.601659E-17
3.050000E+03	2.013290E-16	4.382243E-17
3.060000E+03	2.021623E-16	4.160746E-17
3.070000E+03	2.028991E-16	3.937883E-17
3.080000E+03	2.034985E-16	3.713786E-17
3.090000E+03	2.040275E-16	3.490695E-17
3.100000E+03	2.044453E-16	3.268893E-17
3.110000E+03	2.047106E-16	3.048931E-17
3.120000E+03	2.048913E-16	2.833144E-17
3.130000E+03	2.049464E-16	2.622307E-17
3.140000E+03	2.048714E-16	2.417926E-17
3.147500E+03	1.930211E-16	6.578556E-17
3.149500E+03	1.938672E-16	6.571679E-17
3.151500E+03	1.951840E-16	6.505479E-17
3.153500E+03	1.962869E-16	6.314039E-17
3.155500E+03	1.966712E-16	6.266881E-17
3.157500E+03	1.975603E-16	6.123469E-17
3.159500E+03	1.987833E-16	5.831614E-17
3.161500E+03	1.997411E-16	5.521106E-17
3.163500E+03	2.065097E-16	5.431983E-17
3.165500E+03	2.133559E-16	5.357060E-17
3.167500E+03	2.113018E-16	5.412461E-17
3.169500E+03	2.145026E-16	5.035723E-17
3.171500E+03	2.184142E-16	5.080751E-17
3.173500E+03	2.191846E-16	5.096776E-17
3.175500E+03	2.240896E-16	4.078370E-17
3.177500E+03	2.304331E-16	3.743292E-17
3.179500E+03	2.314353E-16	3.751253E-17
3.181500E+03	2.315216E-16	3.761943E-17
3.183500E+03	2.337995E-16	3.789082E-17
3.185500E+03	2.337575E-16	3.709403E-17
3.187500E+03	2.354792E-16	3.753551E-17
3.189500E+03	2.388107E-16	3.755979E-17
3.191500E+03	2.420997E-16	3.619518E-17
3.193500E+03	2.449694E-16	3.623875E-17
3.195500E+03	2.477622E-16	3.558241E-17
3.197500E+03	2.426939E-16	3.484932E-17
3.199500E+03	2.435685E-16	3.579782E-17
3.201500E+03	2.444261E-16	3.572201E-17
3.203500E+03	2.420035E-16	3.207899E-17
3.205500E+03	2.427240E-16	3.197670E-17
3.207500E+03	2.430678E-16	3.285773E-17
3.209500E+03	2.448078E-16	3.249666E-17
3.211500E+03	2.424619E-16	3.179817E-17
3.213500E+03	2.435338E-16	3.252545E-17
3.215500E+03	2.408793E-16	3.189650E-17
3.217500E+03	2.393125E-16	3.092490E-17
3.219500E+03	2.408385E-16	2.923664E-17
3.221500E+03	2.413365E-16	2.885080E-17
3.223500E+03	2.401723E-16	2.883070E-17
3.225500E+03	2.345953E-16	2.915161E-17
3.227500E+03	2.296348E-16	2.835320E-17
3.229500E+03	2.276817E-16	2.811140E-17
3.231500E+03	2.243401E-16	2.776093E-17
3.233500E+03	2.204755E-16	2.727965E-17
3.235500E+03	2.154451E-16	2.646495E-17
3.237500E+03	2.106885E-16	2.604864E-17
3.239500E+03	2.070887E-16	2.422886E-17
3.241500E+03	2.045427E-16	2.329168E-17
3.243500E+03	1.998966E-16	2.308319E-17
3.245500E+03	1.973587E-16	2.298627E-17
3.247500E+03	1.924548E-16	2.145413E-17
3.249500E+03	1.894364E-16	2.146123E-17
3.251500E+03	1.860577E-16	2.119496E-17
3.253500E+03	1.841533E-16	2.108362E-17
3.255500E+03	1.802768E-16	1.997645E-17
3.257500E+03	1.764087E-16	1.926977E-17
3.259500E+03	1.742550E-16	1.991872E-17
3.261500E+03	1.731644E-16	1.914226E-17
3.263500E+03	1.709934E-16	1.873739E-17
3.265500E+03	1.682132E-16	1.867158E-17
3.267500E+03	1.677655E-16	1.882830E-17
3.269500E+03	1.653795E-16	1.864061E-17
3.271500E+03	1.632764E-16	1.852085E-17
3.273500E+03	1.623481E-16	1.778413E-17
3.275500E+03	1.611624E-16	1.737421E-17
3.277500E+03	1.598822E-16	1.713633E-17
3.279500E+03	1.600002E-16	1.716411E-17
3.281500E+03	1.596206E-16	1.717686E-17
3.283500E+03	1.591809E-16	1.736270E-17
3.285500E+03	1.599079E-16	1.748983E-17
3.287500E+03	1.607723E-16	1.750166E-17
3.289500E+03	1.602897E-16	1.832685E-17
3.291500E+03	1.620121E-16	1.839505E-17
3.293500E+03	1.632456E-16	1.847075E-17
3.295500E+03	1.647366E-16	1.763435E-17
3.297500E+03	1.649405E-16	1.790893E-17
3.299500E+03	1.661914E-16	1.794581E-17
3.301500E+03	1.674768E-16	1.862018E-17
3.303500E+03	1.685305E-16	1.883806E-17
3.305500E+03	1.707601E-16	1.894184E-17
3.307500E+03	1.730928E-16	1.792361E-17
3.309500E+03	1.751768E-16	1.802709E-17
3.311500E+03	1.783597E-16	1.799574E-17
3.313500E+03	1.807188E-16	1.789594E-17
3.315500E+03	1.833699E-16	1.785275E-17
3.317500E+03	1.857980E-16	1.785940E-17
3.319500E+03	1.877370E-16	1.793522E-17
3.321500E+03	1.905519E-16	1.780924E-17
3.323500E+03	1.921993E-16	1.789157E-17
3.325500E+03	1.939586E-16	1.792230E-17
3.327500E+03	1.956406E-16	1.804825E-17
3.329500E+03	1.968506E-16	1.782328E-17
3.331500E+03	1.984127E-16	1.769481E-17
3.333500E+03	1.996916E-16	1.771981E-17
3.335500E+03	2.011509E-16	1.806141E-17
3.337500E+03	2.024815E-16	1.696796E-17
3.339500E+03	2.039496E-16	1.707457E-17
3.341500E+03	2.052118E-16	1.687197E-17
3.343500E+03	2.060274E-16	1.688564E-17
3.345500E+03	2.055805E-16	1.653048E-17
3.347500E+03	2.060869E-16	1.653420E-17
3.349500E+03	2.057259E-16	1.593413E-17
3.351500E+03	2.057428E-16	1.578340E-17
3.353500E+03	2.051841E-16	1.578950E-17
3.355500E+03	2.051236E-16	1.584134E-17
3.357500E+03	2.054326E-16	1.541761E-17
3.359500E+03	2.055525E-16	1.534339E-17
3.361500E+03	2.049164E-16	1.541855E-17
3.363500E+03	2.038507E-16	1.534326E-17
3.365500E+03	2.034980E-16	1.572427E-17
3.367500E+03	2.035835E-16	1.578610E-17
3.369500E+03	2.030590E-16	1.574908E-17
3.371500E+03	2.026031E-16	1.585881E-17
3.373500E+03	2.019667E-16	1.586916E-17
3.375500E+03	2.013131E-16	1.570091E-17
3.377500E+03	2.007368E-16	1.568231E-17
3.379500E+03	1.999799E-16	1.584957E-17
3.381500E+03	1.991370E-16	1.577622E-17
3.383500E+03	1.988442E-16	1.563541E-17
3.385500E+03	1.982333E-16	1.564439E-17
3.387500E+03	1.990322E-16	1.567912E-17
3.389500E+03	1.990058E-16	1.567662E-17
3.391500E+03	1.996672E-16	1.572023E-17
3.393500E+03	2.006124E-16	1.588997E-17
3.395500E+03	2.008096E-16	1.628154E-17
3.397500E+03	2.018581E-16	1.634715E-17
3.399500E+03	2.026315E-16	1.627067E-17
3.401500E+03	2.032244E-16	1.636800E-17
3.403500E+03	2.041871E-16	1.637725E-17
3.405500E+03	2.053476E-16	1.648400E-17
3.407500E+03	2.072823E-16	1.663710E-17
3.409500E+03	2.095783E-16	1.650752E-17
3.411500E+03	2.114014E-16	1.669505E-17
3.413500E+03	2.136720E-16	1.639331E-17
3.415500E+03	2.166566E-16	1.666692E-17
3.417500E+03	2.191254E-16	1.695353E-17
3.419500E+03	2.216374E-16	1.700679E-17
3.421500E+03	2.246486E-16	1.711086E-17
3.423500E+03	2.274363E-16	1.776182E-17
3.425500E+03	2.307404E-16	1.797743E-17
3.427500E+03	2.339329E-16	1.793650E-17
3.429500E+03	2.373322E-16	1.818132E-17
3.431500E+03	2.407231E-16	1.826954E-17
3.433500E+03	2.441487E-16	1.842931E-17
3.435500E+03	2.474370E-16	1.862436E-17
3.437500E+03	2.510094E-16	1.890970E-17
3.439500E+03	2.541261E-16	1.918041E-17
3.441500E+03	2.575184E-16	1.930275E-17
3.443500E+03	2.605409E-16	1.910993E-17
3.445500E+03	2.637874E-16	1.946078E-17
3.447500E+03	2.665350E-16	1.962051E-17
3.449500E+03	2.696701E-16	1.969432E-17
3.451500E+03	2.724526E-16	2.008259E-17
3.453500E+03	2.748393E-16	2.016197E-17
3.455500E+03	2.770541E-16	2.026643E-17
3.457500E+03	2.787697E-16	2.033240E-17
3.459500E+03	2.805027E-16	2.036233E-17
3.461500E+03	2.816590E-16	2.047732E-17
3.463500E+03	2.821094E-16	2.031935E-17
3.465500E+03	2.830420E-16	2.015596E-17
3.467500E+03	2.833720E-16	2.057281E-17
3.469500E+03	2.831681E-16	2.050775E-17
3.471500E+03	2.823615E-16	2.019355E-17
3.473500E+03	2.816409E-16	2.009985E-17
3.475500E+03	2.798438E-16	2.000789E-17
3.477500E+03	2.778312E-16	1.986527E-17
3.479500E+03	2.760338E-16	1.978899E-17
3.481500E+03	2.742362E-16	1.977201E-17
3.483500E+03	2.720595E-16	1.969699E-17
3.485500E+03	2.696329E-16	1.946725E-17
3.487500E+03	2.673266E-16	1.938815E-17
3.489500E+03	2.646412E-16	1.918067E-17
3.491500E+03	2.616109E-16	1.949447E-17
3.493500E+03	2.583220E-16	1.919948E-17
3.495500E+03	2.556014E-16	1.920028E-17
3.497500E+03	2.519415E-16	1.901747E-17
3.499500E+03	2.490480E-16	1.877347E-17
3.501500E+03	2.461199E-16	1.858371E-17
3.503500E+03	2.433898E-16	1.869962E-17
3.505500E+03	2.404181E-16	1.852407E-17
3.507500E+03	2.378943E-16	1.844536E-17
3.509500E+03	2.354048E-16	1.816677E-17
3.511500E+03	2.333028E-16	1.800951E-17
3.513500E+03	2.310973E-16	1.781352E-17
3.515500E+03	2.294087E-16	1.698067E-17
3.517500E+03	2.275821E-16	1.746304E-17
3.519500E+03	2.262380E-16	1.780417E-17
3.521500E+03	2.244456E-16	1.766060E-17
3.523500E+03	2.227392E-16	1.757531E-17
3.525500E+03	2.218344E-16	1.778991E-17
3.527500E+03	2.212484E-16	1.777913E-17
3.529500E+03	2.204555E-16	1.766591E-17
3.531500E+03	2.198954E-16	1.759151E-17
3.533500E+03	2.195507E-16	1.749852E-17
3.535500E+03	2.195767E-16	1.746296E-17
3.537500E+03	2.195855E-16	1.752254E-17
3.539500E+03	2.196805E-16	1.700291E-17
3.541500E+03	2.201808E-16	1.700970E-17
3.543500E+03	2.203362E-16	1.682605E-17
3.545500E+03	2.206986E-16	1.676044E-17
3.547500E+03	2.214318E-16	1.654204E-17
3.549500E+03	2.219236E-16	1.712215E-17
3.551500E+03	2.228381E-16	1.701128E-17
3.553500E+03	2.240804E-16	1.708189E-17
3.555500E+03	2.251934E-16	1.710249E-17
3.557500E+03	2.262806E-16	1.715742E-17
3.559500E+03	2.272644E-16	1.725690E-17
3.561500E+03	2.285761E-16	1.730591E-17
3.563500E+03	2.294047E-16	1.762476E-17
3.565500E+03	2.293794E-16	1.720892E-17
3.567500E+03	2.296732E-16	1.690852E-17
3.569500E+03	2.299757E-16	1.695712E-17
3.571500E+03	2.296743E-16	1.703999E-17
3.573500E+03	2.296489E-16	1.684401E-17
3.575500E+03	2.293043E-16	1.675585E-17
3.577500E+03	2.290114E-16	1.680195E-17
3.579500E+03	2.282438E-16	1.677219E-17
3.581500E+03	2.279077E-16	1.674578E-17
3.583500E+03	2.271918E-16	1.658258E-17
3.585500E+03	2.269247E-16	1.643211E-17
3.587500E+03	2.261138E-16	1.644653E-17
3.589500E+03	2.259933E-16	1.639009E-17
3.591500E+03	2.259159E-16	1.680142E-17
3.593500E+03	2.259249E-16	1.689754E-17
3.595500E+03	2.266849E-16	1.705940E-17
3.597500E+03	2.276003E-16	1.773484E-17
3.599500E+03	2.286539E-16	1.828688E-17
3.601500E+03	2.297508E-16	1.879058E-17
3.603500E+03	2.313917E-16	1.920453E-17
3.605500E+03	2.330931E-16	1.926648E-17
3.607500E+03	2.351660E-16	1.932242E-17
3.609500E+03	2.372217E-16	1.951086E-17
3.611500E+03	2.396230E-16	1.911649E-17
3.613500E+03	2.419813E-16	1.969685E-17
3.615500E+03	2.438649E-16	1.998203E-17
3.617500E+03	2.458522E-16	2.016923E-17
3.619500E+03	2.483147E-16	2.051613E-17
3.621500E+03	2.507169E-16	2.138179E-17
3.623500E+03	2.527478E-16	2.189846E-17
3.625500E+03	2.548654E-16	2.275209E-17
3.627500E+03	2.566807E-16	2.312974E-17
3.629500E+03	2.584876E-16	2.386730E-17
3.631500E+03	2.600613E-16	2.394724E-17
3.633500E+03	2.612465E-16	2.435169E-17
3.635500E+03	2.621553E-16	2.467222E-17
3.637500E+03	2.620705E-16	2.502236E-17
3.639500E+03	2.620463E-16	2.462986E-17
3.641500E+03	2.620393E-16	2.452585E-17
3.643500E+03	2.616435E-16	2.417405E-17
3.645500E+03	2.604441E-16	2.348804E-17
3.647500E+03	2.600569E-16	2.276214E-17
3.649500E+03	2.590128E-16	2.248420E-17
3.651500E+03	2.575279E-16	2.237476E-17
3.653500E+03	2.557059E-16	2.245039E-17
3.655500E+03	2.536417E-16	2.237314E-17
3.657500E+03	2.512576E-16	2.213832E-17
3.659500E+03	2.489597E-16	2.212871E-17
3.661500E+03	2.462208E-16	2.249513E-17
3.663500E+03	2.440089E-16	2.272679E-17
3.665500E+03	2.417623E-16	2.292398E-17
3.667500E+03	2.396539E-16	2.312573E-17
3.669500E+03	2.376230E-16	2.266136E-17
3.671500E+03	2.358082E-16	2.232056E-17
3.673500E+03	2.346762E-16	2.134776E-17
3.675500E+03	2.334403E-16	2.083172E-17
3.677500E+03	2.322562E-16	1.971521E-17
3.679500E+03	2.313747E-16	1.954768E-17
3.681500E+03	2.307092E-16	1.897015E-17
3.683500E+03	2.306836E-16	1.859195E-17
3.685500E+03	2.314363E-16	1.774320E-17
3.687500E+03	2.324917E-16	1.791089E-17
3.689500E+03	2.343947E-16	1.797785E-17
3.691500E+03	2.366178E-16	1.796800E-17
3.693500E+03	2.397147E-16	1.812680E-17
3.695500E+03	2.437200E-16	1.846733E-17
3.697500E+03	2.482013E-16	1.870661E-17
3.699500E+03	2.533144E-16	1.940845E-17
3.701500E+03	2.585749E-16	2.014231E-17
3.703500E+03	2.641040E-16	2.061491E-17
3.705500E+03	2.702391E-16	2.100458E-17
3.707500E+03	2.770235E-16	2.140509E-17
3.709500E+03	2.837998E-16	2.143620E-17
3.711500E+03	2.903170E-16	2.151822E-17
3.713500E+03	2.969732E-16	2.157940E-17
3.715500E+03	3.036731E-16	2.137823E-17
3.717500E+03	3.096900E-16	2.128282E-17
3.719500E+03	3.150583E-16	2.131801E-17
3.721500E+03	3.199164E-16	2.145068E-17
3.723500E+03	3.242297E-16	2.168301E-17
3.725500E+03	3.280587E-16	2.178028E-17
3.727500E+03	3.310571E-16	2.184606E-17
3.729500E+03	3.337182E-16	2.202568E-17
3.731500E+03	3.355053E-16	2.219055E-17
3.733500E+03	3.369377E-16	2.276994E-17
3.735500E+03	3.376690E-16	2.312835E-17
3.737500E+03	3.385215E-16	2.309229E-17
3.739500E+03	3.387855E-16	2.307421E-17
3.741500E+03	3.381058E-16	2.330312E-17
3.743500E+03	3.374694E-16	2.352098E-17
3.745500E+03	3.355689E-16	2.348860E-17
3.747500E+03	3.334518E-16	2.322501E-17
3.749500E+03	3.309882E-16	2.285890E-17
3.751500E+03	3.276845E-16	2.247671E-17
3.753500E+03	3.241035E-16	2.238021E-17
3.755500E+03	3.202710E-16	2.214115E-17
3.757500E+03	3.156503E-16	2.184109E-17
3.759500E+03	3.111244E-16	2.150165E-17
3.761500E+03	3.063730E-16	2.118346E-17
3.763500E+03	3.013701E-16	2.102350E-17
3.765500E+03	2.961676E-16	2.112602E-17
3.767500E+03	2.907482E-16	2.167131E-17
3.769500E+03	2.853457E-16	2.179302E-17
3.771500E+03	2.798648E-16	2.189369E-17
3.773500E+03	2.743055E-16	2.141901E-17
3.775500E+03	2.690489E-16	2.120176E-17
3.777500E+03	2.637920E-16	2.099466E-17
3.779500E+03	2.581881E-16	2.071351E-17
3.781500E+03	2.524799E-16	2.037520E-17
3.783500E+03	2.468405E-16	2.028538E-17
3.785500E+03	2.413740E-16	2.005457E-17
3.787500E+03	2.362276E-16	1.987845E-17
3.789500E+03	2.311762E-16	1.947879E-17
3.791500E+03	2.261244E-16	1.903325E-17
3.793500E+03	2.210375E-16	1.874790E-17
3.795500E+03	2.162102E-16	1.840724E-17
3.797500E+03	2.110186E-16	1.810125E-17
3.799500E+03	2.060432E-16	1.791760E-17
3.801500E+03	2.013708E-16	1.727864E-17
3.803500E+03	1.970014E-16	1.697839E-17
3.805500E+03	1.925103E-16	1.661543E-17
3.807500E+03	1.884609E-16	1.642660E-17
3.809500E+03	1.845932E-16	1.633053E-17
3.811500E+03	1.809420E-16	1.610205E-17
3.813500E+03	1.776546E-16	1.560780E-17
3.815500E+03	1.743495E-16	1.446218E-17
3.817500E+03	1.710616E-16	1.373068E-17
3.819500E+03	1.677908E-16	1.296337E-17
3.821500E+03	1.650659E-16	1.271308E-17
3.823500E+03	1.620807E-16	1.204637E-17
3.825500E+03	1.590519E-16	1.172418E-17
3.827500E+03	1.566212E-16	1.159928E-17
3.829500E+03	1.544764E-16	1.133934E-17
3.831500E+03	1.528864E-16	1.082238E-17
3.833500E+03	1.515999E-16	1.082789E-17
3.835500E+03	1.504433E-16	1.070701E-17
3.837500E+03	1.491912E-16	1.110722E-17
3.839500E+03	1.485201E-16	1.110124E-17
3.841500E+03	1.481265E-16	1.110151E-17
3.843500E+03	1.477155E-16	1.115896E-17
3.845500E+03	1.475213E-16	1.117599E-17
3.847500E+03	1.472924E-16	1.109583E-17
3.849500E+03	1.474105E-16	1.112066E-17
3.851500E+03	1.480750E-16	1.095835E-17
3.853500E+03	1.489391E-16	1.091807E-17
3.855500E+03	1.501936E-16	1.101319E-17
3.857500E+03	1.514135E-16	1.114366E-17
3.859500E+03	1.525121E-16	1.118168E-17
3.861500E+03	1.540705E-16	1.128402E-17
3.863500E+03	1.558807E-16	1.139853E-17
3.865500E+03	1.568493E-16	1.136345E-17
3.867500E+03	1.580870E-16	1.113275E-17
3.869500E+03	1.602272E-16	1.137044E-17
3.871500E+03	1.630444E-16	1.211028E-17
3.873500E+03	1.659919E-16	1.225705E-17
3.875500E+03	1.686967E-16	1.248903E-17
3.877500E+03	1.716793E-16	1.290598E-17
3.879500E+03	1.753565E-16	1.306907E-17
3.881500E+03	1.792248E-16	1.312016E-17
3.883500E+03	1.832844E-16	1.323374E-17
3.885500E+03	1.878650E-16	1.301079E-17
3.887500E+03	1.924807E-16	1.322386E-17
3.889500E+03	1.972268E-16	1.338725E-17
3.891500E+03	2.020167E-16	1.359583E-17
3.893500E+03	2.061905E-16	1.394570E-17
3.895500E+03	2.107900E-16	1.430678E-17
3.897500E+03	2.163361E-16	1.470483E-17
3.899500E+03	2.218739E-16	1.498902E-17
3.901500E+03	2.280806E-16	1.541170E-17
3.903500E+03	2.353296E-16	1.572949E-17
3.905500E+03	2.427006E-16	1.607873E-17
3.907500E+03	2.505063E-16	1.654284E-17
3.909500E+03	2.586164E-16	1.696492E-17
3.911500E+03	2.669615E-16	1.778163E-17
3.913500E+03	2.753245E-16	1.822431E-17
3.915500E+03	2.836880E-16	1.868522E-17
3.917500E+03	2.924082E-16	1.979255E-17
3.919500E+03	3.011897E-16	2.117598E-17
3.921500E+03	3.099284E-16	2.162219E-17
3.923500E+03	3.186069E-16	2.211357E-17
3.925500E+03	3.273814E-16	2.292339E-17
3.927500E+03	3.361913E-16	2.337048E-17
3.929500E+03	3.447498E-16	2.386137E-17
3.931500E+03	3.530396E-16	2.441094E-17
3.933500E+03	3.614255E-16	2.483807E-17
3.935500E+03	3.694123E-16	2.526040E-17
3.937500E+03	3.770434E-16	2.586571E-17
3.939500E+03	3.844665E-16	2.667951E-17
3.941500E+03	3.913600E-16	2.755879E-17
3.943500E+03	3.981585E-16	2.806376E-17
3.945500E+03	4.045577E-16	2.856523E-17
3.947500E+03	4.110528E-16	2.933250E-17
3.949500E+03	4.170009E-16	2.968172E-17
3.951500E+03	4.224889E-16	3.053101E-17
3.953500E+03	4.273428E-16	3.148537E-17
3.955500E+03	4.321883E-16	3.168109E-17
3.957500E+03	4.361303E-16	3.185220E-17
3.959500E+03	4.396380E-16	3.181876E-17
3.961500E+03	4.427201E-16	3.194447E-17
3.963500E+03	4.451504E-16	3.219923E-17
3.965500E+03	4.472333E-16	3.194098E-17
3.967500E+03	4.490989E-16	3.100041E-17
3.969500E+03	4.509038E-16	3.100996E-17
3.971500E+03	4.521177E-16	3.106405E-17
3.973500E+03	4.530535E-16	3.088456E-17
3.975500E+03	4.536416E-16	3.090794E-17
3.977500E+03	4.536820E-16	3.085942E-17
3.979500E+03	4.535312E-16	3.076294E-17
3.981500E+03	4.531282E-16	3.072558E-17
3.983500E+03	4.522730E-16	3.065811E-17
3.985500E+03	4.511222E-16	3.039547E-17
3.987500E+03	4.497973E-16	2.989975E-17
3.989500E+03	4.481507E-16	2.913415E-17
3.991500E+03	4.464343E-16	2.868712E-17
3.993500E+03	4.446483E-16	2.860169E-17
3.995500E+03	4.427490E-16	2.823596E-17
3.997500E+03	4.412061E-16	2.826222E-17
3.999500E+03	4.397935E-16	2.764960E-17
4.001500E+03	4.386417E-16	2.683573E-17
4.003500E+03	4.374463E-16	2.680551E-17
4.005500E+03	4.365726E-16	2.682128E-17
4.007500E+03	4.360728E-16	2.677899E-17
4.009500E+03	4.363208E-16	2.688774E-17
4.011500E+03	4.367689E-16	2.680118E-17
4.013500E+03	4.374258E-16	2.655562E-17
4.015500E+03	4.392568E-16	2.657262E-17
4.017500E+03	4.417491E-16	2.656110E-17
4.019500E+03	4.442501E-16	2.654337E-17
4.021500E+03	4.467948E-16	2.670666E-17
4.023500E+03	4.492612E-16	2.716281E-17
4.025500E+03	4.524151E-16	2.780079E-17
4.027500E+03	4.553081E-16	2.819990E-17
4.029500E+03	4.578706E-16	2.860762E-17
4.031500E+03	4.607203E-16	2.915395E-17
4.033500E+03	4.639008E-16	2.972903E-17
4.035500E+03	4.667682E-16	3.015609E-17
4.037500E+03	4.685046E-16	3.052724E-17
4.039500E+03	4.695972E-16	3.064392E-17
4.041500E+03	4.706201E-16	3.053526E-17
4.043500E+03	4.722957E-16	3.049629E-17
4.045500E+03	4.741716E-16	3.029092E-17
4.047500E+03	4.755601E-16	3.031097E-17
4.049500E+03	4.773664E-16	3.031249E-17
4.051500E+03	4.791380E-16	3.028082E-17
4.053500E+03	4.805005E-16	3.021779E-17
4.055500E+03	4.818022E-16	3.053546E-17
4.057500E+03	4.828863E-16	3.055729E-17
4.059500E+03	4.835701E-16	3.058847E-17
4.061500E+03	4.838535E-16	3.082270E-17
4.063500E+03	4.836668E-16	3.105161E-17
4.065500E+03	4.833321E-16	3.115430E-17
4.067500E+03	4.829103E-16	3.128472E-17
4.069500E+03	4.821750E-16	3.161182E-17
