#wls	flux	fluxerr
1.600000E+03	1.629286E-15	9.979503E-18
1.640000E+03	1.648251E-15	1.009299E-17
1.680000E+03	1.667468E-15	1.020793E-17
1.720000E+03	1.687346E-15	1.032683E-17
1.760000E+03	1.707552E-15	1.044765E-17
1.800000E+03	1.728198E-15	1.057106E-17
1.840000E+03	1.749249E-15	1.069685E-17
1.880000E+03	1.770960E-15	1.082658E-17
1.920000E+03	1.793149E-15	1.095913E-17
1.960000E+03	1.815925E-15	1.109516E-17
2.000000E+03	1.839402E-15	1.123538E-17
2.040000E+03	1.863690E-15	1.138043E-17
2.080000E+03	1.888623E-15	1.152932E-17
2.120000E+03	1.914463E-15	1.168362E-17
2.160000E+03	1.941199E-15	1.184327E-17
2.200000E+03	1.968964E-15	1.200909E-17
2.240000E+03	1.998046E-15	1.218280E-17
2.280000E+03	2.028325E-15	1.236368E-17
2.320000E+03	2.060249E-15	1.255444E-17
2.360000E+03	2.093740E-15	1.275462E-17
2.400000E+03	2.129151E-15	1.296634E-17
2.440000E+03	2.166729E-15	1.319109E-17
2.480000E+03	2.206755E-15	1.343059E-17
2.520000E+03	2.249681E-15	1.368756E-17
2.560000E+03	2.295748E-15	1.396344E-17
2.600000E+03	2.345513E-15	1.426162E-17
2.640000E+03	2.399602E-15	1.458588E-17
2.680000E+03	2.458588E-15	1.493966E-17
2.720000E+03	2.523139E-15	1.532700E-17
2.760000E+03	2.594286E-15	1.575414E-17
2.800000E+03	2.672929E-15	1.622649E-17
2.840000E+03	2.760371E-15	1.675193E-17
2.880000E+03	2.857835E-15	1.733782E-17
2.920000E+03	2.967020E-15	1.799440E-17
2.960000E+03	3.089788E-15	1.873289E-17
3.000000E+03	3.228443E-15	1.956720E-17
3.010000E+03	3.265898E-15	1.979260E-17
3.020000E+03	3.304609E-15	2.002558E-17
3.030000E+03	3.344637E-15	2.026651E-17
3.040000E+03	3.386048E-15	2.051577E-17
3.050000E+03	3.428921E-15	2.077385E-17
3.060000E+03	3.473338E-15	2.104124E-17
3.070000E+03	3.519397E-15	2.131854E-17
3.080000E+03	3.567208E-15	2.160640E-17
3.090000E+03	3.616898E-15	2.190560E-17
3.100000E+03	3.668743E-15	2.221780E-17
3.110000E+03	3.722632E-15	2.254233E-17
3.120000E+03	3.779022E-15	2.288194E-17
3.130000E+03	3.837980E-15	2.323705E-17
3.140000E+03	3.899877E-15	2.360990E-17
3.150000E+03	3.964828E-15	2.400117E-17
3.160000E+03	4.033110E-15	2.441254E-17
3.170000E+03	4.105032E-15	2.484588E-17
3.180000E+03	4.181065E-15	2.530403E-17
3.190000E+03	4.261565E-15	2.578914E-17
3.200000E+03	4.346757E-15	2.630256E-17
3.210000E+03	4.437022E-15	2.684660E-17
3.220000E+03	4.533053E-15	2.742543E-17
3.230000E+03	4.634940E-15	2.803960E-17
3.240000E+03	4.743058E-15	2.869136E-17
3.250000E+03	4.857917E-15	2.938380E-17
3.260000E+03	4.979843E-15	3.011886E-17
3.270000E+03	5.109108E-15	3.089819E-17
3.280000E+03	5.245919E-15	3.172303E-17
3.290000E+03	5.390236E-15	3.259313E-17
3.300000E+03	5.542260E-15	3.350968E-17
3.310000E+03	5.701924E-15	3.447229E-17
3.320000E+03	5.869239E-15	3.548099E-17
3.330000E+03	6.043585E-15	3.653203E-17
3.340000E+03	6.224795E-15	3.762440E-17
3.350000E+03	6.412486E-15	3.875577E-17
3.351376E+03	4.908209E-15	2.966390E-17
3.354329E+03	5.058046E-15	3.056875E-17
3.357281E+03	5.219735E-15	3.154519E-17
3.360234E+03	5.331830E-15	3.222188E-17
3.363187E+03	5.401322E-15	3.264107E-17
3.366140E+03	5.494221E-15	3.320169E-17
3.369093E+03	5.609715E-15	3.389882E-17
3.372045E+03	5.712427E-15	3.451869E-17
3.374998E+03	5.793633E-15	3.500858E-17
3.377951E+03	5.820386E-15	3.516941E-17
3.380904E+03	5.795706E-15	3.501946E-17
3.383857E+03	5.792260E-15	3.499781E-17
3.386809E+03	5.824713E-15	3.519308E-17
3.389762E+03	5.830958E-15	3.522998E-17
3.392715E+03	5.804073E-15	3.506673E-17
3.395668E+03	5.765694E-15	3.483403E-17
3.398620E+03	5.736439E-15	3.465648E-17
3.401573E+03	5.721058E-15	3.456274E-17
3.404526E+03	5.731225E-15	3.462335E-17
3.407479E+03	5.771675E-15	3.486690E-17
3.410432E+03	5.776652E-15	3.489615E-17
3.413385E+03	5.790126E-15	3.497673E-17
3.416337E+03	5.868679E-15	3.545042E-17
3.419290E+03	5.938869E-15	3.587358E-17
3.422243E+03	5.991209E-15	3.618889E-17
3.425196E+03	6.066639E-15	3.664366E-17
3.428148E+03	6.150514E-15	3.714941E-17
3.431101E+03	6.305854E-15	3.808679E-17
3.434054E+03	6.554132E-15	3.958544E-17
3.437007E+03	6.829505E-15	4.124766E-17
3.439960E+03	7.103323E-15	4.290042E-17
3.442912E+03	7.399664E-15	4.468913E-17
3.445865E+03	7.715546E-15	4.659577E-17
3.448818E+03	7.928855E-15	4.788287E-17
3.451771E+03	8.035344E-15	4.852484E-17
3.454724E+03	8.167181E-15	4.931984E-17
3.457676E+03	8.374398E-15	5.057001E-17
3.460629E+03	8.582259E-15	5.182401E-17
3.463582E+03	8.763387E-15	5.291652E-17
3.466535E+03	8.892407E-15	5.369434E-17
3.469488E+03	8.958737E-15	5.409360E-17
3.472440E+03	9.041336E-15	5.459108E-17
3.475393E+03	9.127013E-15	5.510711E-17
3.478346E+03	9.170140E-15	5.536622E-17
3.481299E+03	9.230910E-15	5.573185E-17
3.484251E+03	9.261949E-15	5.591795E-17
3.487204E+03	9.304537E-15	5.617377E-17
3.490157E+03	9.391263E-15	5.669605E-17
3.493110E+03	9.439039E-15	5.698316E-17
3.496063E+03	9.460268E-15	5.711000E-17
3.499015E+03	9.508732E-15	5.740124E-17
3.501968E+03	9.561456E-15	5.771819E-17
3.504921E+03	9.582753E-15	5.784541E-17
3.507874E+03	9.563247E-15	5.772634E-17
3.510827E+03	9.558818E-15	5.769827E-17
3.513779E+03	9.616067E-15	5.804250E-17
3.516732E+03	9.677756E-15	5.841351E-17
3.519685E+03	9.710804E-15	5.861163E-17
3.522638E+03	9.712891E-15	5.862289E-17
3.525590E+03	9.673881E-15	5.838610E-17
3.528543E+03	9.629205E-15	5.811512E-17
3.531496E+03	9.639068E-15	5.817331E-17
3.534449E+03	9.678793E-15	5.841172E-17
3.537402E+03	9.687804E-15	5.846476E-17
3.540354E+03	9.684093E-15	5.844103E-17
3.543307E+03	9.695390E-15	5.850786E-17
3.546260E+03	9.723628E-15	5.867692E-17
3.549213E+03	9.786145E-15	5.905283E-17
3.552166E+03	9.881735E-15	5.962828E-17
3.555118E+03	9.947800E-15	6.002556E-17
3.558071E+03	9.957883E-15	6.008503E-17
3.561024E+03	9.990132E-15	6.027824E-17
3.563977E+03	1.004627E-14	6.061561E-17
3.566930E+03	1.006460E-14	6.072479E-17
3.569882E+03	1.008872E-14	6.086893E-17
3.572835E+03	1.013593E-14	6.115240E-17
3.575788E+03	1.017920E-14	6.141202E-17
3.578741E+03	1.025426E-14	6.186348E-17
3.581693E+03	1.038342E-14	6.264129E-17
3.584646E+03	1.051129E-14	6.341123E-17
3.587599E+03	1.059886E-14	6.393805E-17
3.590552E+03	1.065530E-14	6.427710E-17
3.593505E+03	1.072058E-14	6.466941E-17
3.596457E+03	1.080109E-14	6.515360E-17
3.599410E+03	1.087240E-14	6.558225E-17
3.602363E+03	1.095098E-14	6.605477E-17
3.605316E+03	1.104515E-14	6.662127E-17
3.608269E+03	1.114405E-14	6.721630E-17
3.611222E+03	1.124399E-14	6.781756E-17
3.614174E+03	1.133821E-14	6.838432E-17
3.617127E+03	1.141706E-14	6.885830E-17
3.620080E+03	1.149233E-14	6.931070E-17
3.623033E+03	1.158430E-14	6.986383E-17
3.625985E+03	1.170394E-14	7.058379E-17
3.628938E+03	1.182114E-14	7.128900E-17
3.631891E+03	1.190408E-14	7.178752E-17
3.634844E+03	1.199057E-14	7.230748E-17
3.637797E+03	1.210334E-14	7.298588E-17
3.640749E+03	1.218883E-14	7.349975E-17
3.643702E+03	1.223012E-14	7.374708E-17
3.646655E+03	1.228019E-14	7.404739E-17
3.649608E+03	1.233941E-14	7.440280E-17
3.652561E+03	1.239143E-14	7.471481E-17
3.655513E+03	1.243992E-14	7.500544E-17
3.658466E+03	1.249907E-14	7.536042E-17
3.661419E+03	1.256734E-14	7.577035E-17
3.664372E+03	1.262343E-14	7.610685E-17
3.667325E+03	1.265105E-14	7.627163E-17
3.670277E+03	1.264026E-14	7.620490E-17
3.673230E+03	1.263596E-14	7.617726E-17
3.676183E+03	1.266686E-14	7.636188E-17
3.679136E+03	1.272067E-14	7.668453E-17
3.682088E+03	1.278644E-14	7.707933E-17
3.685041E+03	1.286185E-14	7.753222E-17
3.687994E+03	1.293486E-14	7.797058E-17
3.690947E+03	1.302648E-14	7.852113E-17
3.693900E+03	1.314431E-14	7.922964E-17
3.696852E+03	1.327135E-14	7.999357E-17
3.699805E+03	1.337246E-14	8.060127E-17
3.702758E+03	1.343758E-14	8.099201E-17
3.705711E+03	1.349670E-14	8.134650E-17
3.708664E+03	1.354657E-14	8.164528E-17
3.711616E+03	1.361347E-14	8.204668E-17
3.714569E+03	1.369796E-14	8.255405E-17
3.717522E+03	1.377661E-14	8.302623E-17
3.720475E+03	1.383727E-14	8.338998E-17
3.723427E+03	1.388814E-14	8.369472E-17
3.726380E+03	1.395334E-14	8.408577E-17
3.729333E+03	1.402222E-14	8.449900E-17
3.732286E+03	1.406784E-14	8.477206E-17
3.735239E+03	1.408322E-14	8.486293E-17
3.738191E+03	1.408662E-14	8.488156E-17
3.741144E+03	1.410020E-14	8.496150E-17
3.744097E+03	1.410160E-14	8.496810E-17
3.747050E+03	1.407515E-14	8.480687E-17
3.750003E+03	1.406230E-14	8.472761E-17
3.752955E+03	1.407607E-14	8.480867E-17
3.755908E+03	1.411149E-14	8.502022E-17
3.758861E+03	1.414719E-14	8.523350E-17
3.761814E+03	1.416642E-14	8.534746E-17
3.764767E+03	1.417859E-14	8.541895E-17
3.767719E+03	1.419128E-14	8.549354E-17
3.770672E+03	1.421635E-14	8.564269E-17
3.773625E+03	1.426561E-14	8.593761E-17
3.776578E+03	1.431364E-14	8.622508E-17
3.779530E+03	1.434861E-14	8.643388E-17
3.782483E+03	1.438612E-14	8.665798E-17
3.785436E+03	1.443519E-14	8.695166E-17
3.788389E+03	1.446465E-14	8.712721E-17
3.791342E+03	1.447414E-14	8.718252E-17
3.794294E+03	1.450046E-14	8.733915E-17
3.797247E+03	1.454748E-14	8.762051E-17
3.800200E+03	1.459010E-14	8.787533E-17
3.803153E+03	1.463432E-14	8.813974E-17
3.806106E+03	1.468686E-14	8.845426E-17
3.809058E+03	1.471312E-14	8.861053E-17
3.812011E+03	1.471148E-14	8.859875E-17
3.814964E+03	1.468778E-14	8.845415E-17
3.817917E+03	1.467190E-14	8.835664E-17
3.820870E+03	1.470092E-14	8.852949E-17
3.823822E+03	1.474905E-14	8.881744E-17
3.826775E+03	1.477381E-14	8.896462E-17
3.829728E+03	1.479496E-14	8.909011E-17
3.832681E+03	1.482887E-14	8.929241E-17
3.835634E+03	1.486809E-14	8.952666E-17
3.838586E+03	1.490888E-14	8.977038E-17
3.841539E+03	1.494531E-14	8.998781E-17
3.844492E+03	1.498833E-14	9.024494E-17
3.847445E+03	1.504090E-14	9.055953E-17
3.850398E+03	1.510076E-14	9.091801E-17
3.853350E+03	1.515995E-14	9.127244E-17
3.856303E+03	1.520293E-14	9.152925E-17
3.859256E+03	1.526079E-14	9.187566E-17
3.862209E+03	1.533441E-14	9.231698E-17
3.865162E+03	1.540845E-14	9.276075E-17
3.868114E+03	1.548531E-14	9.322146E-17
3.871067E+03	1.556626E-14	9.370685E-17
3.874020E+03	1.565314E-14	9.422787E-17
3.876973E+03	1.574116E-14	9.475574E-17
3.879925E+03	1.582239E-14	9.524271E-17
3.882878E+03	1.588894E-14	9.564131E-17
3.885831E+03	1.594838E-14	9.599710E-17
3.888784E+03	1.601688E-14	9.640736E-17
3.891737E+03	1.610745E-14	9.695050E-17
3.894689E+03	1.620464E-14	9.753348E-17
3.897642E+03	1.628883E-14	9.803811E-17
3.900595E+03	1.637671E-14	9.856501E-17
3.903548E+03	1.649225E-14	9.925831E-17
3.906501E+03	1.660209E-14	9.991735E-17
3.909453E+03	1.668286E-14	1.004014E-16
3.912406E+03	1.675452E-14	1.008305E-16
3.915359E+03	1.681363E-14	1.011842E-16
3.918312E+03	1.686842E-14	1.015118E-16
3.921265E+03	1.691816E-14	1.018090E-16
3.924217E+03	1.695121E-14	1.020058E-16
3.927170E+03	1.697507E-14	1.021473E-16
3.930123E+03	1.699958E-14	1.022927E-16
3.933076E+03	1.703111E-14	1.024802E-16
3.936028E+03	1.704964E-14	1.025896E-16
3.938981E+03	1.705884E-14	1.026429E-16
3.941934E+03	1.708033E-14	1.027701E-16
3.944887E+03	1.710736E-14	1.029306E-16
3.947840E+03	1.713830E-14	1.031146E-16
3.950792E+03	1.716190E-14	1.032545E-16
3.953745E+03	1.716155E-14	1.032503E-16
3.956698E+03	1.714688E-14	1.031599E-16
3.959651E+03	1.713326E-14	1.030759E-16
3.962604E+03	1.712866E-14	1.030461E-16
3.965556E+03	1.713898E-14	1.031061E-16
3.968509E+03	1.715645E-14	1.032091E-16
3.971462E+03	1.715711E-14	1.032110E-16
3.974415E+03	1.714513E-14	1.031368E-16
3.977367E+03	1.713186E-14	1.030549E-16
3.980320E+03	1.712216E-14	1.029945E-16
3.983273E+03	1.712788E-14	1.030268E-16
3.986226E+03	1.712440E-14	1.030038E-16
3.989179E+03	1.712787E-14	1.030226E-16
3.992131E+03	1.716570E-14	1.032481E-16
3.995084E+03	1.720164E-14	1.034621E-16
3.998037E+03	1.722442E-14	1.035971E-16
4.000990E+03	1.722908E-14	1.036230E-16
4.003943E+03	1.721939E-14	1.035627E-16
4.006895E+03	1.723235E-14	1.036385E-16
4.009848E+03	1.726290E-14	1.038202E-16
4.012801E+03	1.729159E-14	1.039907E-16
4.015754E+03	1.731147E-14	1.041081E-16
4.018707E+03	1.732398E-14	1.041813E-16
4.021659E+03	1.732735E-14	1.041995E-16
4.024612E+03	1.732552E-14	1.041864E-16
4.027565E+03	1.731728E-14	1.041348E-16
4.030518E+03	1.729586E-14	1.040039E-16
4.033471E+03	1.727693E-14	1.038881E-16
4.036423E+03	1.727588E-14	1.038797E-16
4.039376E+03	1.729302E-14	1.039807E-16
4.042329E+03	1.730603E-14	1.040569E-16
4.045282E+03	1.732075E-14	1.041433E-16
4.048235E+03	1.734530E-14	1.042888E-16
4.051187E+03	1.736181E-14	1.043861E-16
4.054140E+03	1.737757E-14	1.044788E-16
4.057093E+03	1.739010E-14	1.045520E-16
4.060046E+03	1.739445E-14	1.045762E-16
4.062999E+03	1.739384E-14	1.045705E-16
4.065951E+03	1.737703E-14	1.044674E-16
4.068904E+03	1.734773E-14	1.042891E-16
4.071857E+03	1.733967E-14	1.042387E-16
4.074810E+03	1.733107E-14	1.041849E-16
4.077762E+03	1.730421E-14	1.040214E-16
4.080715E+03	1.728716E-14	1.039170E-16
4.083668E+03	1.727571E-14	1.038461E-16
4.086621E+03	1.726598E-14	1.037856E-16
4.089574E+03	1.726200E-14	1.037596E-16
4.092526E+03	1.724907E-14	1.036800E-16
4.095479E+03	1.722969E-14	1.035615E-16
4.098432E+03	1.720664E-14	1.034209E-16
4.101385E+03	1.717679E-14	1.032395E-16
4.104337E+03	1.714662E-14	1.030562E-16
4.107290E+03	1.712237E-14	1.029085E-16
4.110243E+03	1.709743E-14	1.027566E-16
4.113196E+03	1.706918E-14	1.025849E-16
4.116149E+03	1.703177E-14	1.023581E-16
4.119101E+03	1.697913E-14	1.020398E-16
4.122054E+03	1.693398E-14	1.017665E-16
4.125007E+03	1.689563E-14	1.015341E-16
4.127960E+03	1.686214E-14	1.013309E-16
4.130913E+03	1.683869E-14	1.011881E-16
4.133865E+03	1.681230E-14	1.010276E-16
4.136818E+03	1.678801E-14	1.008797E-16
4.139771E+03	1.677886E-14	1.008228E-16
4.142724E+03	1.676335E-14	1.007277E-16
4.145677E+03	1.673389E-14	1.005488E-16
4.148629E+03	1.670616E-14	1.003803E-16
4.151582E+03	1.669236E-14	1.002955E-16
4.154535E+03	1.670480E-14	1.003683E-16
4.157488E+03	1.671890E-14	1.004512E-16
4.160441E+03	1.671376E-14	1.004184E-16
4.163393E+03	1.670364E-14	1.003557E-16
4.166346E+03	1.670530E-14	1.003638E-16
4.169299E+03	1.670316E-14	1.003491E-16
4.172252E+03	1.669707E-14	1.003107E-16
4.175204E+03	1.669557E-14	1.002998E-16
4.178157E+03	1.668449E-14	1.002314E-16
4.181110E+03	1.667171E-14	1.001527E-16
4.184063E+03	1.668137E-14	1.002089E-16
4.187016E+03	1.671394E-14	1.004027E-16
4.189968E+03	1.675405E-14	1.006418E-16
4.192921E+03	1.679374E-14	1.008784E-16
4.195874E+03	1.681688E-14	1.010155E-16
4.198827E+03	1.682793E-14	1.010800E-16
4.201780E+03	1.684959E-14	1.012083E-16
4.204732E+03	1.685884E-14	1.012620E-16
4.207685E+03	1.685858E-14	1.012586E-16
4.210638E+03	1.685542E-14	1.012377E-16
4.213591E+03	1.683958E-14	1.011408E-16
4.216544E+03	1.682678E-14	1.010620E-16
4.219496E+03	1.682727E-14	1.010632E-16
4.222449E+03	1.681933E-14	1.010136E-16
4.225402E+03	1.680464E-14	1.009236E-16
4.228355E+03	1.679985E-14	1.008930E-16
4.231308E+03	1.680077E-14	1.008967E-16
4.234260E+03	1.679478E-14	1.008589E-16
4.237213E+03	1.679547E-14	1.008612E-16
4.240166E+03	1.680115E-14	1.008936E-16
4.243119E+03	1.680512E-14	1.009156E-16
4.246072E+03	1.680907E-14	1.009375E-16
4.249024E+03	1.681130E-14	1.009491E-16
4.251977E+03	1.681018E-14	1.009406E-16
4.254930E+03	1.681070E-14	1.009419E-16
4.257883E+03	1.681619E-14	1.009730E-16
4.260836E+03	1.682997E-14	1.010540E-16
4.263788E+03	1.684037E-14	1.011146E-16
4.266741E+03	1.684408E-14	1.011351E-16
4.269694E+03	1.685108E-14	1.011754E-16
4.272647E+03	1.685472E-14	1.011955E-16
4.275599E+03	1.686496E-14	1.012552E-16
4.278552E+03	1.689503E-14	1.014340E-16
4.281505E+03	1.691675E-14	1.015626E-16
4.284458E+03	1.692189E-14	1.015916E-16
4.287411E+03	1.693525E-14	1.016701E-16
4.290363E+03	1.694691E-14	1.017383E-16
4.293316E+03	1.696183E-14	1.018261E-16
4.296269E+03	1.697834E-14	1.019234E-16
4.299222E+03	1.698658E-14	1.019711E-16
4.302175E+03	1.699807E-14	1.020383E-16
4.305127E+03	1.699965E-14	1.020461E-16
4.308080E+03	1.698973E-14	1.019848E-16
4.311033E+03	1.698144E-14	1.019332E-16
4.313986E+03	1.697151E-14	1.018719E-16
4.316939E+03	1.695338E-14	1.017613E-16
4.319891E+03	1.692219E-14	1.015723E-16
4.322844E+03	1.687305E-14	1.012757E-16
4.325797E+03	1.682071E-14	1.009598E-16
4.328750E+03	1.678966E-14	1.007717E-16
4.331702E+03	1.678145E-14	1.007207E-16
4.334655E+03	1.677812E-14	1.006991E-16
4.337608E+03	1.676990E-14	1.006480E-16
4.340561E+03	1.674705E-14	1.005092E-16
4.343514E+03	1.672096E-14	1.003509E-16
4.346466E+03	1.670140E-14	1.002318E-16
4.349419E+03	1.667861E-14	1.000934E-16
4.352372E+03	1.664775E-14	9.990646E-17
4.355325E+03	1.661854E-14	9.972951E-17
4.358278E+03	1.659421E-14	9.958183E-17
4.361230E+03	1.656506E-14	9.940527E-17
4.364183E+03	1.653272E-14	9.920955E-17
4.367136E+03	1.649881E-14	9.900442E-17
4.370089E+03	1.645527E-14	9.874150E-17
4.373042E+03	1.641824E-14	9.851767E-17
4.375994E+03	1.639090E-14	9.835202E-17
4.378947E+03	1.637003E-14	9.822514E-17
4.381900E+03	1.635560E-14	9.813696E-17
4.384853E+03	1.634759E-14	9.808730E-17
4.387806E+03	1.634440E-14	9.806654E-17
4.390758E+03	1.633319E-14	9.799767E-17
4.393711E+03	1.632358E-14	9.793842E-17
4.396664E+03	1.632197E-14	9.792716E-17
4.399617E+03	1.632195E-14	9.792546E-17
4.402569E+03	1.632191E-14	9.792364E-17
4.405522E+03	1.633302E-14	9.798873E-17
4.408475E+03	1.634410E-14	9.805363E-17
4.411428E+03	1.634720E-14	9.807060E-17
4.414381E+03	1.635662E-14	9.812559E-17
4.417333E+03	1.638032E-14	9.826619E-17
4.420286E+03	1.640398E-14	9.840655E-17
4.423239E+03	1.642441E-14	9.852750E-17
4.426192E+03	1.645111E-14	9.868614E-17
4.429145E+03	1.647144E-14	9.880653E-17
4.432097E+03	1.648540E-14	9.888868E-17
4.435050E+03	1.650722E-14	9.901799E-17
4.438003E+03	1.653846E-14	9.920384E-17
4.440956E+03	1.657279E-14	9.940816E-17
4.443908E+03	1.658972E-14	9.950816E-17
4.446861E+03	1.660660E-14	9.960784E-17
4.449814E+03	1.663603E-14	9.978283E-17
4.452767E+03	1.666068E-14	9.992913E-17
4.455720E+03	1.667114E-14	9.999032E-17
4.458672E+03	1.667687E-14	1.000231E-16
4.461625E+03	1.669043E-14	1.001029E-16
4.464578E+03	1.671177E-14	1.002293E-16
4.467531E+03	1.673150E-14	1.003461E-16
4.470484E+03	1.675432E-14	1.004814E-16
4.473436E+03	1.679271E-14	1.007101E-16
4.476389E+03	1.684194E-14	1.010038E-16
4.479342E+03	1.688952E-14	1.012876E-16
4.482295E+03	1.693857E-14	1.015802E-16
4.485248E+03	1.699064E-14	1.018909E-16
4.488200E+03	1.703949E-14	1.021823E-16
4.491153E+03	1.709447E-14	1.025105E-16
4.494106E+03	1.716331E-14	1.029217E-16
4.497059E+03	1.723202E-14	1.033322E-16
4.500011E+03	1.729286E-14	1.036954E-16
4.502964E+03	1.735357E-14	1.040579E-16
4.505917E+03	1.740798E-14	1.043826E-16
4.508870E+03	1.745611E-14	1.046696E-16
4.511823E+03	1.749024E-14	1.048728E-16
4.514775E+03	1.751350E-14	1.050106E-16
4.517728E+03	1.753979E-14	1.051667E-16
4.520681E+03	1.757373E-14	1.053687E-16
4.523634E+03	1.759683E-14	1.055056E-16
4.526587E+03	1.761681E-14	1.056238E-16
4.529539E+03	1.763674E-14	1.057417E-16
4.532492E+03	1.764741E-14	1.058042E-16
4.535445E+03	1.765959E-14	1.058757E-16
4.538398E+03	1.766408E-14	1.059011E-16
4.541351E+03	1.766244E-14	1.058896E-16
4.544303E+03	1.765772E-14	1.058598E-16
4.547256E+03	1.764537E-14	1.057842E-16
4.550209E+03	1.763303E-14	1.057087E-16
4.553162E+03	1.762527E-14	1.056607E-16
4.556115E+03	1.761144E-14	1.055762E-16
4.559067E+03	1.760369E-14	1.055283E-16
4.562020E+03	1.761271E-14	1.055808E-16
4.564973E+03	1.762170E-14	1.056332E-16
4.567926E+03	1.761396E-14	1.055853E-16
4.570878E+03	1.759862E-14	1.054919E-16
4.573831E+03	1.759393E-14	1.054622E-16
4.576784E+03	1.759227E-14	1.054508E-16
4.579737E+03	1.757546E-14	1.053485E-16
4.582690E+03	1.755868E-14	1.052465E-16
4.585642E+03	1.754797E-14	1.051808E-16
4.588595E+03	1.753425E-14	1.050971E-16
4.591548E+03	1.751450E-14	1.049773E-16
4.594501E+03	1.749780E-14	1.048757E-16
4.597454E+03	1.748414E-14	1.047924E-16
4.600406E+03	1.745093E-14	1.045919E-16
4.603359E+03	1.740726E-14	1.043287E-16
4.606312E+03	1.736665E-14	1.040839E-16
4.609265E+03	1.732311E-14	1.038215E-16
4.612218E+03	1.727514E-14	1.035326E-16
4.615170E+03	1.722126E-14	1.032082E-16
4.618123E+03	1.716746E-14	1.028844E-16
4.621076E+03	1.711674E-14	1.025791E-16
4.624029E+03	1.707059E-14	1.023011E-16
4.626981E+03	1.702899E-14	1.020504E-16
4.629934E+03	1.698447E-14	1.017822E-16
4.632887E+03	1.693854E-14	1.015056E-16
4.635840E+03	1.689268E-14	1.012294E-16
4.638793E+03	1.685433E-14	1.009982E-16
4.641745E+03	1.682199E-14	1.008031E-16
4.644698E+03	1.678376E-14	1.005727E-16
4.647651E+03	1.674411E-14	1.003337E-16
4.650604E+03	1.670304E-14	1.000863E-16
