#wls	flux	fluxerr
1.600000E+03	4.816071E-16	3.825253E-17
1.640000E+03	4.881336E-16	3.871525E-17
1.680000E+03	4.946750E-16	3.917637E-17
1.720000E+03	5.011732E-16	3.963124E-17
1.760000E+03	5.076524E-16	4.008168E-17
1.800000E+03	5.140500E-16	4.052273E-17
1.840000E+03	5.204269E-16	4.095911E-17
1.880000E+03	5.266737E-16	4.138218E-17
1.920000E+03	5.328037E-16	4.179296E-17
1.960000E+03	5.387848E-16	4.218891E-17
2.000000E+03	5.445816E-16	4.256726E-17
2.040000E+03	5.501965E-16	4.292821E-17
2.080000E+03	5.555032E-16	4.326192E-17
2.120000E+03	5.605372E-16	4.357124E-17
2.160000E+03	5.652467E-16	4.385221E-17
2.200000E+03	5.695338E-16	4.409734E-17
2.240000E+03	5.734195E-16	4.430839E-17
2.280000E+03	5.768372E-16	4.448038E-17
2.320000E+03	5.797157E-16	4.460801E-17
2.360000E+03	5.819797E-16	4.468572E-17
2.400000E+03	5.835892E-16	4.471074E-17
2.440000E+03	5.845388E-16	4.468296E-17
2.480000E+03	5.847016E-16	4.459304E-17
2.520000E+03	5.840657E-16	4.444047E-17
2.560000E+03	5.825039E-16	4.421605E-17
2.600000E+03	5.800414E-16	4.392221E-17
2.640000E+03	5.765949E-16	4.355318E-17
2.680000E+03	5.721625E-16	4.310941E-17
2.720000E+03	5.666503E-16	4.258447E-17
2.760000E+03	5.601585E-16	4.198656E-17
2.800000E+03	5.526461E-16	4.131327E-17
2.840000E+03	5.442154E-16	4.057293E-17
2.880000E+03	5.350228E-16	3.977781E-17
2.920000E+03	5.252681E-16	3.894333E-17
2.960000E+03	5.152795E-16	3.809420E-17
3.000000E+03	5.055097E-16	3.726405E-17
3.010000E+03	5.031800E-16	3.706526E-17
3.020000E+03	5.008965E-16	3.687005E-17
3.030000E+03	4.986711E-16	3.667928E-17
3.040000E+03	4.965418E-16	3.649573E-17
3.050000E+03	4.945212E-16	3.632032E-17
3.060000E+03	4.926230E-16	3.615403E-17
3.070000E+03	4.908368E-16	3.599610E-17
3.080000E+03	4.892034E-16	3.584948E-17
3.090000E+03	4.877394E-16	3.571537E-17
3.100000E+03	4.864625E-16	3.559503E-17
3.110000E+03	4.853673E-16	3.548806E-17
3.120000E+03	4.845219E-16	3.539938E-17
3.130000E+03	4.838993E-16	3.532700E-17
3.140000E+03	4.835459E-16	3.527425E-17
3.150000E+03	4.835082E-16	3.524449E-17
3.160000E+03	4.837641E-16	3.523606E-17
3.170000E+03	4.843631E-16	3.525249E-17
3.180000E+03	4.853553E-16	3.529739E-17
3.190000E+03	4.867460E-16	3.537107E-17
3.200000E+03	4.885652E-16	3.547565E-17
3.210000E+03	4.908441E-16	3.561331E-17
3.220000E+03	4.936156E-16	3.578636E-17
3.230000E+03	4.969362E-16	3.599882E-17
3.240000E+03	5.008416E-16	3.625317E-17
3.250000E+03	5.053228E-16	3.654865E-17
3.260000E+03	5.104636E-16	3.689123E-17
3.270000E+03	5.163035E-16	3.728365E-17
3.280000E+03	5.228598E-16	3.772704E-17
3.290000E+03	5.301974E-16	3.822594E-17
3.300000E+03	5.383350E-16	3.878157E-17
3.310000E+03	5.473391E-16	3.939857E-17
3.320000E+03	5.572526E-16	4.007989E-17
3.330000E+03	5.681192E-16	4.082849E-17
3.340000E+03	5.799568E-16	4.164551E-17
3.350000E+03	5.928561E-16	4.253726E-17
3.360000E+03	6.068075E-16	4.350289E-17
3.370000E+03	6.218731E-16	4.454665E-17
3.380000E+03	6.381139E-16	4.567270E-17
3.390000E+03	6.555081E-16	4.687929E-17
3.400000E+03	6.741344E-16	4.817184E-17
3.410000E+03	6.939855E-16	4.954960E-17
3.420000E+03	7.150732E-16	5.101318E-17
3.430000E+03	7.373998E-16	5.256255E-17
3.440000E+03	7.609871E-16	5.419903E-17
3.450000E+03	7.857855E-16	5.591886E-17
3.460000E+03	8.117903E-16	5.772150E-17
3.470000E+03	8.389184E-16	5.960082E-17
3.480000E+03	8.671297E-16	6.155378E-17
3.490000E+03	8.962966E-16	6.357113E-17
3.500000E+03	9.263321E-16	6.564654E-17
3.510000E+03	9.570885E-16	6.776940E-17
3.520000E+03	9.883875E-16	6.992695E-17
3.530000E+03	1.020018E-15	7.210422E-17
3.540000E+03	1.051739E-15	7.428404E-17
3.550000E+03	1.083239E-15	7.644450E-17
3.560000E+03	1.114305E-15	7.857054E-17
3.570000E+03	1.144597E-15	8.063837E-17
3.580000E+03	1.173826E-15	8.262772E-17
3.590000E+03	1.201743E-15	8.452135E-17
3.600000E+03	1.228212E-15	8.630987E-17
3.610000E+03	1.253103E-15	8.798446E-17
3.620000E+03	1.276424E-15	8.954590E-17
3.630000E+03	1.298305E-15	9.100365E-17
3.640000E+03	1.318851E-15	9.236534E-17
3.650000E+03	1.338293E-15	9.364734E-17
3.660000E+03	1.356801E-15	9.486175E-17
3.670000E+03	1.374640E-15	9.602727E-17
3.680000E+03	1.392036E-15	9.715972E-17
3.690000E+03	1.409205E-15	9.827443E-17
3.700000E+03	1.426310E-15	9.938263E-17
3.710000E+03	1.443587E-15	1.005008E-16
3.720000E+03	1.461210E-15	1.016412E-16
3.730000E+03	1.479335E-15	1.028143E-16
3.740000E+03	1.498095E-15	1.040295E-16
3.750000E+03	1.517556E-15	1.052913E-16
3.760000E+03	1.537898E-15	1.066119E-16
3.770000E+03	1.559094E-15	1.079894E-16
3.780000E+03	1.581276E-15	1.094327E-16
3.790000E+03	1.604365E-15	1.109363E-16
3.800000E+03	1.628446E-15	1.125059E-16
3.810000E+03	1.653389E-15	1.141322E-16
3.820000E+03	1.679228E-15	1.158177E-16
3.830000E+03	1.705784E-15	1.175497E-16
3.840000E+03	1.733046E-15	1.193274E-16
3.850000E+03	1.760789E-15	1.211353E-16
3.860000E+03	1.788959E-15	1.229695E-16
3.870000E+03	1.817343E-15	1.248153E-16
3.880000E+03	1.845710E-15	1.266571E-16
3.890000E+03	1.873963E-15	1.284879E-16
3.900000E+03	1.901850E-15	1.302908E-16
3.910000E+03	1.929116E-15	1.320481E-16
3.920000E+03	1.955647E-15	1.337525E-16
3.930000E+03	1.981144E-15	1.353835E-16
3.940000E+03	2.005507E-15	1.369345E-16
3.950000E+03	2.028456E-15	1.383867E-16
3.960000E+03	2.049875E-15	1.397323E-16
3.970000E+03	2.069623E-15	1.409622E-16
3.980000E+03	2.087585E-15	1.420687E-16
3.990000E+03	2.103680E-15	1.430467E-16
4.000000E+03	2.117807E-15	1.438897E-16
4.010000E+03	2.129952E-15	1.445970E-16
4.020000E+03	2.140234E-15	1.451771E-16
4.030000E+03	2.148568E-15	1.456246E-16
4.040000E+03	2.155189E-15	1.459556E-16
4.050000E+03	2.160081E-15	1.461696E-16
4.060000E+03	2.163496E-15	1.462837E-16
4.070000E+03	2.165569E-15	1.463073E-16
4.080000E+03	2.166504E-15	1.462546E-16
4.090000E+03	2.166570E-15	1.461437E-16
4.100000E+03	2.165912E-15	1.459846E-16
4.110000E+03	2.164821E-15	1.457971E-16
4.120000E+03	2.163541E-15	1.455977E-16
4.130000E+03	2.162279E-15	1.454004E-16
4.140000E+03	2.161322E-15	1.452244E-16
4.150000E+03	2.160864E-15	1.450827E-16
4.160000E+03	2.161171E-15	1.449931E-16
4.170000E+03	2.162407E-15	1.449666E-16
4.180000E+03	2.164751E-15	1.450149E-16
4.190000E+03	2.168357E-15	1.451483E-16
4.200000E+03	2.173315E-15	1.453726E-16
4.210000E+03	2.179784E-15	1.456983E-16
4.220000E+03	2.187865E-15	1.461318E-16
4.230000E+03	2.197599E-15	1.466758E-16
4.240000E+03	2.209059E-15	1.473349E-16
4.250000E+03	2.222152E-15	1.481027E-16
4.260000E+03	2.236850E-15	1.489771E-16
4.270000E+03	2.253043E-15	1.499506E-16
4.280000E+03	2.270571E-15	1.510125E-16
4.290000E+03	2.289380E-15	1.521589E-16
4.300000E+03	2.309424E-15	1.533867E-16
4.310000E+03	2.330770E-15	1.547002E-16
4.320000E+03	2.353708E-15	1.561187E-16
4.330000E+03	2.378438E-15	1.576551E-16
4.340000E+03	2.405291E-15	1.593311E-16
4.350000E+03	2.434446E-15	1.611585E-16
4.360000E+03	2.465981E-15	1.631422E-16
4.370000E+03	2.499754E-15	1.652725E-16
4.380000E+03	2.535589E-15	1.675377E-16
4.390000E+03	2.573038E-15	1.699080E-16
4.400000E+03	2.611842E-15	1.723661E-16
4.410000E+03	2.651651E-15	1.748890E-16
4.420000E+03	2.692182E-15	1.774579E-16
4.430000E+03	2.733121E-15	1.800523E-16
4.440000E+03	2.774205E-15	1.826547E-16
4.450000E+03	2.815035E-15	1.852391E-16
4.460000E+03	2.855182E-15	1.877774E-16
4.470000E+03	2.894150E-15	1.902371E-16
4.480000E+03	2.931394E-15	1.925827E-16
4.490000E+03	2.966318E-15	1.947752E-16
4.500000E+03	2.998391E-15	1.967801E-16
4.510000E+03	3.027201E-15	1.985707E-16
4.520000E+03	3.052349E-15	2.001212E-16
4.530000E+03	3.073571E-15	2.014147E-16
4.540000E+03	3.090638E-15	2.024367E-16
4.550000E+03	3.103467E-15	2.031820E-16
4.560000E+03	3.111994E-15	2.036470E-16
4.570000E+03	3.116198E-15	2.038306E-16
4.580000E+03	3.116179E-15	2.037397E-16
4.590000E+03	3.112124E-15	2.033871E-16
4.600000E+03	3.104227E-15	2.027856E-16
4.610000E+03	3.092824E-15	2.019575E-16
4.620000E+03	3.078055E-15	2.009121E-16
4.630000E+03	3.060102E-15	1.996616E-16
4.640000E+03	3.038982E-15	1.982074E-16
4.650000E+03	3.014766E-15	1.965542E-16
4.660000E+03	2.987481E-15	1.947040E-16
4.670000E+03	2.957465E-15	1.926790E-16
4.680000E+03	2.925181E-15	1.905093E-16
4.690000E+03	2.891375E-15	1.882438E-16
4.700000E+03	2.857204E-15	1.859578E-16
4.710000E+03	2.824130E-15	1.837463E-16
4.720000E+03	2.793923E-15	1.817244E-16
4.730000E+03	2.768457E-15	1.800135E-16
4.740000E+03	2.749422E-15	1.787234E-16
4.750000E+03	2.737901E-15	1.779240E-16
4.760000E+03	2.734061E-15	1.776256E-16
4.770000E+03	2.737374E-15	1.777936E-16
4.780000E+03	2.746898E-15	1.783663E-16
4.790000E+03	2.761571E-15	1.792747E-16
4.800000E+03	2.780240E-15	1.804436E-16
4.810000E+03	2.801959E-15	1.818116E-16
4.820000E+03	2.825776E-15	1.833166E-16
4.830000E+03	2.850994E-15	1.849136E-16
4.840000E+03	2.876914E-15	1.865571E-16
4.850000E+03	2.903080E-15	1.882177E-16
4.860000E+03	2.928972E-15	1.898615E-16
4.870000E+03	2.954219E-15	1.914648E-16
4.880000E+03	2.978305E-15	1.929940E-16
4.890000E+03	3.000817E-15	1.944225E-16
4.900000E+03	3.021348E-15	1.957241E-16
4.910000E+03	3.039597E-15	1.968793E-16
4.920000E+03	3.055418E-15	1.978788E-16
4.930000E+03	3.068921E-15	1.987297E-16
4.940000E+03	3.080347E-15	1.994479E-16
4.950000E+03	3.090239E-15	2.000685E-16
4.960000E+03	3.099232E-15	2.006327E-16
4.970000E+03	3.108049E-15	2.011872E-16
4.980000E+03	3.117341E-15	2.017743E-16
4.990000E+03	3.127759E-15	2.024361E-16
5.000000E+03	3.139876E-15	2.032098E-16
5.010000E+03	3.154187E-15	2.041273E-16
5.020000E+03	3.170976E-15	2.052070E-16
5.030000E+03	3.190448E-15	2.064623E-16
5.040000E+03	3.212634E-15	2.078952E-16
5.050000E+03	3.237598E-15	2.095098E-16
5.060000E+03	3.265398E-15	2.113100E-16
5.070000E+03	3.296151E-15	2.133035E-16
5.080000E+03	3.330010E-15	2.155000E-16
5.090000E+03	3.367262E-15	2.179184E-16
5.100000E+03	3.408212E-15	2.205785E-16
5.110000E+03	3.453051E-15	2.234927E-16
5.120000E+03	3.501851E-15	2.266660E-16
5.130000E+03	3.554649E-15	2.301007E-16
5.140000E+03	3.611009E-15	2.337690E-16
5.150000E+03	3.670397E-15	2.376362E-16
5.160000E+03	3.731954E-15	2.416471E-16
5.170000E+03	3.794642E-15	2.457346E-16
5.180000E+03	3.857317E-15	2.498247E-16
5.190000E+03	3.918955E-15	2.538514E-16
5.200000E+03	3.978719E-15	2.577604E-16
5.210000E+03	4.035917E-15	2.615069E-16
5.220000E+03	4.090325E-15	2.650766E-16
5.230000E+03	4.141870E-15	2.684647E-16
5.240000E+03	4.190806E-15	2.716878E-16
5.250000E+03	4.237490E-15	2.747690E-16
5.260000E+03	4.282499E-15	2.777457E-16
5.270000E+03	4.326439E-15	2.806573E-16
5.280000E+03	4.369929E-15	2.835440E-16
5.290000E+03	4.413488E-15	2.864396E-16
5.300000E+03	4.457650E-15	2.893789E-16
5.310000E+03	4.502631E-15	2.923760E-16
5.320000E+03	4.548509E-15	2.954363E-16
5.330000E+03	4.595024E-15	2.985428E-16
5.340000E+03	4.641753E-15	3.016683E-16
5.350000E+03	4.688195E-15	3.047804E-16
5.360000E+03	4.733724E-15	3.078385E-16
5.370000E+03	4.777642E-15	3.107972E-16
5.380000E+03	4.819145E-15	3.136042E-16
5.390000E+03	4.857301E-15	3.161989E-16
5.400000E+03	4.891033E-15	3.185108E-16
5.410000E+03	4.919139E-15	3.204616E-16
5.420000E+03	4.940380E-15	3.219701E-16
5.430000E+03	4.953419E-15	3.229488E-16
5.440000E+03	4.957082E-15	3.233204E-16
5.450000E+03	4.950516E-15	3.230286E-16
5.460000E+03	4.932912E-15	3.220198E-16
5.470000E+03	4.904135E-15	3.202841E-16
5.480000E+03	4.864219E-15	3.178227E-16
5.490000E+03	4.813867E-15	3.146806E-16
5.500000E+03	4.754099E-15	3.109234E-16
5.510000E+03	4.686570E-15	3.066583E-16
5.520000E+03	4.613186E-15	3.020089E-16
5.530000E+03	4.535865E-15	2.971004E-16
5.540000E+03	4.456563E-15	2.920601E-16
5.550000E+03	4.376938E-15	2.869964E-16
5.560000E+03	4.298525E-15	2.820097E-16
5.570000E+03	4.222682E-15	2.771891E-16
5.580000E+03	4.150563E-15	2.726104E-16
5.590000E+03	4.083255E-15	2.683453E-16
5.600000E+03	4.021484E-15	2.644419E-16
5.610000E+03	3.965880E-15	2.609421E-16
5.620000E+03	3.916798E-15	2.578699E-16
5.630000E+03	3.874373E-15	2.552348E-16
5.640000E+03	3.838539E-15	2.530332E-16
5.650000E+03	3.809215E-15	2.512604E-16
5.660000E+03	3.786202E-15	2.499040E-16
5.670000E+03	3.769359E-15	2.489554E-16
5.680000E+03	3.758440E-15	2.483991E-16
5.690000E+03	3.753195E-15	2.482193E-16
5.700000E+03	3.753358E-15	2.483991E-16
5.710000E+03	3.758523E-15	2.489123E-16
5.720000E+03	3.768207E-15	2.497275E-16
5.730000E+03	3.781968E-15	2.508161E-16
5.740000E+03	3.799195E-15	2.521379E-16
5.750000E+03	3.819231E-15	2.536499E-16
5.760000E+03	3.841508E-15	2.553148E-16
5.770000E+03	3.865304E-15	2.570847E-16
5.780000E+03	3.889964E-15	2.589164E-16
5.790000E+03	3.914849E-15	2.607673E-16
5.800000E+03	3.939179E-15	2.625857E-16
5.810000E+03	3.962171E-15	2.643189E-16
5.820000E+03	3.982891E-15	2.659047E-16
5.830000E+03	4.000377E-15	2.672782E-16
5.840000E+03	4.013814E-15	2.683846E-16
5.850000E+03	4.022382E-15	2.691681E-16
5.860000E+03	4.025459E-15	2.695866E-16
5.870000E+03	4.022805E-15	2.696228E-16
5.880000E+03	4.014239E-15	2.692638E-16
5.890000E+03	3.999999E-15	2.685245E-16
5.900000E+03	3.980421E-15	2.674265E-16
5.910000E+03	3.955931E-15	2.659976E-16
5.920000E+03	3.927081E-15	2.642739E-16
5.930000E+03	3.894476E-15	2.622955E-16
5.940000E+03	3.858760E-15	2.601051E-16
5.950000E+03	3.820644E-15	2.577501E-16
5.960000E+03	3.780746E-15	2.552716E-16
5.970000E+03	3.739771E-15	2.527172E-16
5.980000E+03	3.698449E-15	2.501356E-16
5.990000E+03	3.657435E-15	2.475713E-16
6.000000E+03	3.617312E-15	2.450636E-16
6.010000E+03	3.578474E-15	2.426395E-16
6.020000E+03	3.541315E-15	2.403257E-16
6.030000E+03	3.506001E-15	2.381339E-16
6.040000E+03	3.472494E-15	2.360616E-16
6.050000E+03	3.440735E-15	2.341053E-16
6.060000E+03	3.410602E-15	2.322566E-16
6.070000E+03	3.381862E-15	2.305002E-16
6.080000E+03	3.354451E-15	2.288317E-16
6.090000E+03	3.328227E-15	2.272417E-16
6.100000E+03	3.303201E-15	2.257311E-16
6.110000E+03	3.279372E-15	2.243001E-16
6.120000E+03	3.256876E-15	2.229580E-16
6.130000E+03	3.235743E-15	2.217072E-16
6.140000E+03	3.216089E-15	2.205558E-16
6.150000E+03	3.198083E-15	2.195157E-16
6.160000E+03	3.181754E-15	2.185892E-16
6.170000E+03	3.167201E-15	2.177832E-16
6.180000E+03	3.154442E-15	2.170994E-16
6.190000E+03	3.143554E-15	2.165433E-16
6.200000E+03	3.134604E-15	2.161200E-16
6.210000E+03	3.127700E-15	2.158371E-16
6.220000E+03	3.122994E-15	2.157055E-16
6.230000E+03	3.120824E-15	2.157491E-16
6.240000E+03	3.121501E-15	2.159897E-16
6.250000E+03	3.125548E-15	2.164641E-16
6.260000E+03	3.133452E-15	2.172067E-16
6.270000E+03	3.145749E-15	2.182553E-16
6.280000E+03	3.162816E-15	2.196369E-16
6.290000E+03	3.184925E-15	2.213714E-16
6.300000E+03	3.211955E-15	2.234512E-16
6.310000E+03	3.243498E-15	2.258489E-16
6.320000E+03	3.278895E-15	2.285192E-16
6.330000E+03	3.317021E-15	2.313846E-16
6.340000E+03	3.356805E-15	2.343707E-16
6.350000E+03	3.397121E-15	2.373991E-16
6.360000E+03	3.436891E-15	2.403945E-16
6.370000E+03	3.475208E-15	2.432932E-16
6.380000E+03	3.511278E-15	2.460395E-16
6.390000E+03	3.544322E-15	2.485781E-16
6.400000E+03	3.573817E-15	2.508719E-16
6.410000E+03	3.599298E-15	2.528873E-16
6.420000E+03	3.620390E-15	2.545973E-16
6.430000E+03	3.636936E-15	2.559900E-16
6.440000E+03	3.648872E-15	2.570600E-16
6.450000E+03	3.656244E-15	2.578097E-16
6.460000E+03	3.659177E-15	2.582469E-16
6.470000E+03	3.657852E-15	2.583837E-16
6.480000E+03	3.652590E-15	2.582418E-16
6.490000E+03	3.643605E-15	2.578358E-16
6.500000E+03	3.631426E-15	2.572023E-16
6.510000E+03	3.616449E-15	2.563687E-16
6.520000E+03	3.599196E-15	2.553717E-16
6.530000E+03	3.580112E-15	2.542423E-16
6.540000E+03	3.559539E-15	2.530045E-16
6.550000E+03	3.537711E-15	2.516746E-16
6.560000E+03	3.514593E-15	2.502500E-16
6.570000E+03	3.490134E-15	2.487267E-16
6.580000E+03	3.464026E-15	2.470825E-16
6.590000E+03	3.435937E-15	2.452933E-16
6.600000E+03	3.405457E-15	2.433296E-16
6.610000E+03	3.372375E-15	2.411756E-16
6.620000E+03	3.336645E-15	2.388279E-16
6.630000E+03	3.298422E-15	2.362967E-16
6.640000E+03	3.258147E-15	2.336134E-16
6.650000E+03	3.216330E-15	2.308142E-16
6.660000E+03	3.173612E-15	2.279448E-16
6.670000E+03	3.130375E-15	2.250324E-16
6.680000E+03	3.086946E-15	2.221007E-16
6.690000E+03	3.043346E-15	2.191509E-16
6.700000E+03	2.999639E-15	2.161878E-16
6.710000E+03	2.955794E-15	2.132090E-16
6.720000E+03	2.911887E-15	2.102201E-16
6.730000E+03	2.868311E-15	2.072493E-16
6.740000E+03	2.825479E-15	2.043267E-16
6.750000E+03	2.784072E-15	2.015017E-16
6.760000E+03	2.744796E-15	1.988257E-16
6.770000E+03	2.708248E-15	1.963422E-16
6.780000E+03	2.674836E-15	1.940817E-16
6.790000E+03	2.644795E-15	1.920614E-16
6.800000E+03	2.618167E-15	1.902853E-16
6.810000E+03	2.594763E-15	1.887402E-16
6.820000E+03	2.574354E-15	1.874098E-16
6.830000E+03	2.556626E-15	1.862721E-16
6.840000E+03	2.541356E-15	1.853111E-16
6.850000E+03	2.528378E-15	1.845151E-16
6.860000E+03	2.517595E-15	1.838776E-16
6.870000E+03	2.509052E-15	1.834020E-16
6.880000E+03	2.502793E-15	1.830923E-16
6.890000E+03	2.498846E-15	1.829507E-16
6.900000E+03	2.497169E-15	1.829745E-16
6.910000E+03	2.497581E-15	1.831509E-16
6.920000E+03	2.499825E-15	1.834614E-16
6.930000E+03	2.503535E-15	1.838795E-16
6.940000E+03	2.508194E-15	1.843674E-16
6.950000E+03	2.513359E-15	1.848925E-16
6.960000E+03	2.518584E-15	1.854223E-16
6.970000E+03	2.523495E-15	1.859291E-16
6.980000E+03	2.527808E-15	1.863920E-16
6.990000E+03	2.531322E-15	1.867959E-16
7.000000E+03	2.533886E-15	1.871296E-16
7.010000E+03	2.535380E-15	1.873842E-16
7.020000E+03	2.535730E-15	1.875537E-16
7.030000E+03	2.534768E-15	1.876258E-16
7.040000E+03	2.532451E-15	1.875970E-16
7.050000E+03	2.528638E-15	1.874564E-16
7.060000E+03	2.523221E-15	1.871961E-16
7.070000E+03	2.516093E-15	1.868076E-16
7.080000E+03	2.507166E-15	1.862842E-16
7.090000E+03	2.496413E-15	1.856235E-16
7.100000E+03	2.483801E-15	1.848228E-16
7.110000E+03	2.469405E-15	1.838875E-16
7.120000E+03	2.453410E-15	1.828310E-16
7.130000E+03	2.436161E-15	1.816786E-16
7.140000E+03	2.418068E-15	1.804610E-16
7.150000E+03	2.399681E-15	1.792190E-16
7.160000E+03	2.381650E-15	1.780010E-16
7.170000E+03	2.364550E-15	1.768504E-16
7.180000E+03	2.348884E-15	1.758047E-16
7.190000E+03	2.334998E-15	1.748902E-16
7.200000E+03	2.322945E-15	1.741112E-16
7.210000E+03	2.312695E-15	1.734656E-16
7.220000E+03	2.303855E-15	1.729244E-16
7.230000E+03	2.296028E-15	1.724578E-16
7.240000E+03	2.288700E-15	1.720274E-16
7.250000E+03	2.281287E-15	1.715894E-16
7.260000E+03	2.273346E-15	1.711105E-16
7.270000E+03	2.264268E-15	1.705446E-16
7.280000E+03	2.253579E-15	1.698559E-16
7.290000E+03	2.240742E-15	1.690036E-16
7.300000E+03	2.225324E-15	1.679547E-16
7.310000E+03	2.206927E-15	1.666788E-16
7.320000E+03	2.185317E-15	1.651578E-16
7.330000E+03	2.160443E-15	1.633872E-16
7.340000E+03	2.132473E-15	1.613794E-16
7.350000E+03	2.101716E-15	1.591572E-16
7.360000E+03	2.068539E-15	1.567483E-16
7.370000E+03	2.033487E-15	1.541933E-16
7.380000E+03	1.997081E-15	1.515317E-16
7.390000E+03	1.959802E-15	1.487998E-16
7.400000E+03	1.922222E-15	1.460410E-16
7.410000E+03	1.884838E-15	1.432929E-16
7.420000E+03	1.848068E-15	1.405875E-16
7.430000E+03	1.812381E-15	1.379606E-16
7.440000E+03	1.778126E-15	1.354389E-16
7.450000E+03	1.745632E-15	1.330478E-16
7.460000E+03	1.715092E-15	1.308023E-16
7.470000E+03	1.686702E-15	1.287174E-16
7.480000E+03	1.660484E-15	1.267954E-16
7.490000E+03	1.636399E-15	1.250335E-16
7.500000E+03	1.614259E-15	1.234178E-16
7.510000E+03	1.593815E-15	1.219293E-16
7.520000E+03	1.574746E-15	1.205439E-16
7.530000E+03	1.556702E-15	1.192348E-16
7.540000E+03	1.539350E-15	1.179768E-16
7.550000E+03	1.522355E-15	1.167442E-16
7.560000E+03	1.505456E-15	1.155171E-16
7.570000E+03	1.488477E-15	1.142820E-16
7.580000E+03	1.471342E-15	1.130331E-16
7.590000E+03	1.453998E-15	1.117662E-16
7.600000E+03	1.436530E-15	1.104880E-16
7.610000E+03	1.419019E-15	1.092045E-16
7.620000E+03	1.401586E-15	1.079252E-16
7.630000E+03	1.384371E-15	1.066608E-16
7.640000E+03	1.367518E-15	1.054226E-16
7.650000E+03	1.351104E-15	1.042163E-16
7.660000E+03	1.335215E-15	1.030490E-16
7.670000E+03	1.319901E-15	1.019243E-16
7.680000E+03	1.305126E-15	1.008397E-16
7.690000E+03	1.290908E-15	9.979664E-17
7.700000E+03	1.277202E-15	9.879167E-17
7.710000E+03	1.264024E-15	9.782608E-17
7.720000E+03	1.251410E-15	9.690281E-17
7.730000E+03	1.239367E-15	9.602241E-17
7.740000E+03	1.227970E-15	9.519087E-17
7.750000E+03	1.217281E-15	9.441297E-17
7.760000E+03	1.207361E-15	9.369367E-17
