#wls	flux	fluxerr
1.600000E+03	2.298350E-16	1.532946E-17
1.640000E+03	2.336307E-16	1.557594E-17
1.680000E+03	2.375188E-16	1.582821E-17
1.720000E+03	2.414918E-16	1.608577E-17
1.760000E+03	2.455413E-16	1.634803E-17
1.800000E+03	2.496826E-16	1.661600E-17
1.840000E+03	2.538788E-16	1.688720E-17
1.880000E+03	2.581668E-16	1.716407E-17
1.920000E+03	2.625059E-16	1.744389E-17
1.960000E+03	2.668780E-16	1.772545E-17
2.000000E+03	2.713130E-16	1.801071E-17
2.040000E+03	2.757368E-16	1.829474E-17
2.080000E+03	2.801988E-16	1.858081E-17
2.120000E+03	2.846178E-16	1.886353E-17
2.160000E+03	2.890108E-16	1.914402E-17
2.200000E+03	2.933398E-16	1.941974E-17
2.240000E+03	2.975624E-16	1.968791E-17
2.280000E+03	3.016576E-16	1.994713E-17
2.320000E+03	3.055749E-16	2.019407E-17
2.360000E+03	3.093088E-16	2.042839E-17
2.400000E+03	3.127759E-16	2.064459E-17
2.440000E+03	3.159390E-16	2.084026E-17
2.480000E+03	3.187823E-16	2.101437E-17
2.520000E+03	3.212167E-16	2.116110E-17
2.560000E+03	3.232251E-16	2.127938E-17
2.600000E+03	3.247692E-16	2.136673E-17
2.640000E+03	3.257940E-16	2.141960E-17
2.680000E+03	3.262774E-16	2.143662E-17
2.720000E+03	3.262325E-16	2.141872E-17
2.760000E+03	3.256685E-16	2.136658E-17
2.800000E+03	3.245989E-16	2.128116E-17
2.840000E+03	3.231097E-16	2.116817E-17
2.880000E+03	3.213207E-16	2.103554E-17
2.920000E+03	3.193738E-16	2.089259E-17
2.960000E+03	3.174580E-16	2.075171E-17
3.000000E+03	3.158297E-16	2.062966E-17
3.010000E+03	3.154861E-16	2.060330E-17
3.020000E+03	3.152044E-16	2.058097E-17
3.030000E+03	3.149720E-16	2.056187E-17
3.040000E+03	3.147777E-16	2.054525E-17
3.050000E+03	3.146435E-16	2.053255E-17
3.060000E+03	3.145910E-16	2.052517E-17
3.070000E+03	3.145931E-16	2.052135E-17
3.080000E+03	3.146722E-16	2.052254E-17
3.090000E+03	3.148337E-16	2.052911E-17
3.100000E+03	3.150999E-16	2.054248E-17
3.110000E+03	3.154451E-16	2.056099E-17
3.120000E+03	3.158914E-16	2.058607E-17
3.130000E+03	3.164608E-16	2.061915E-17
3.140000E+03	3.171439E-16	2.065962E-17
3.150000E+03	3.179473E-16	2.070791E-17
3.160000E+03	3.188776E-16	2.076443E-17
3.170000E+03	3.199411E-16	2.082959E-17
3.180000E+03	3.211596E-16	2.090481E-17
3.190000E+03	3.225243E-16	2.098950E-17
3.200000E+03	3.240565E-16	2.108506E-17
3.210000E+03	3.257472E-16	2.119088E-17
3.220000E+03	3.276027E-16	2.130737E-17
3.230000E+03	3.296437E-16	2.143587E-17
3.240000E+03	3.318608E-16	2.157576E-17
3.250000E+03	3.342743E-16	2.172836E-17
3.260000E+03	3.368741E-16	2.189300E-17
3.270000E+03	3.396947E-16	2.207191E-17
3.280000E+03	3.426957E-16	2.226247E-17
3.290000E+03	3.459253E-16	2.246779E-17
3.300000E+03	3.493571E-16	2.268615E-17
3.310000E+03	3.530086E-16	2.291869E-17
3.320000E+03	3.568819E-16	2.316552E-17
3.330000E+03	3.609637E-16	2.342579E-17
3.340000E+03	3.652848E-16	2.370147E-17
3.350000E+03	3.698156E-16	2.399064E-17
3.360000E+03	3.745860E-16	2.429523E-17
3.370000E+03	3.795651E-16	2.461323E-17
3.380000E+03	3.847822E-16	2.494652E-17
3.390000E+03	3.902054E-16	2.529305E-17
3.400000E+03	3.958641E-16	2.565469E-17
3.410000E+03	4.017416E-16	2.603035E-17
3.420000E+03	4.078373E-16	2.642000E-17
3.430000E+03	4.141512E-16	2.682363E-17
3.440000E+03	4.206848E-16	2.724132E-17
3.450000E+03	4.274576E-16	2.767431E-17
3.460000E+03	4.344757E-16	2.812302E-17
3.470000E+03	4.417170E-16	2.858599E-17
3.480000E+03	4.492271E-16	2.906616E-17
3.490000E+03	4.570250E-16	2.956476E-17
3.500000E+03	4.651188E-16	3.008230E-17
3.510000E+03	4.735549E-16	3.062177E-17
3.520000E+03	4.823530E-16	3.118442E-17
3.530000E+03	4.915708E-16	3.177398E-17
3.540000E+03	5.012544E-16	3.239340E-17
3.550000E+03	5.114358E-16	3.304474E-17
3.560000E+03	5.221830E-16	3.373238E-17
3.570000E+03	5.335472E-16	3.445960E-17
3.580000E+03	5.455774E-16	3.522953E-17
3.590000E+03	5.583182E-16	3.604504E-17
3.600000E+03	5.717878E-16	3.690727E-17
3.610000E+03	5.860475E-16	3.782016E-17
3.620000E+03	6.010688E-16	3.878182E-17
3.630000E+03	6.168764E-16	3.979383E-17
3.640000E+03	6.333947E-16	4.085129E-17
3.650000E+03	6.505990E-16	4.195258E-17
3.660000E+03	6.683813E-16	4.309071E-17
3.670000E+03	6.866333E-16	4.425867E-17
3.680000E+03	7.052337E-16	4.544865E-17
3.690000E+03	7.240587E-16	4.665263E-17
3.700000E+03	7.430127E-16	4.786448E-17
3.710000E+03	7.619743E-16	4.907635E-17
3.720000E+03	7.808686E-16	5.028344E-17
3.730000E+03	7.996530E-16	5.148299E-17
3.740000E+03	8.183447E-16	5.267614E-17
3.750000E+03	8.369557E-16	5.386365E-17
3.760000E+03	8.555590E-16	5.505023E-17
3.770000E+03	8.742875E-16	5.624443E-17
3.780000E+03	8.932550E-16	5.745358E-17
3.790000E+03	9.126155E-16	5.868757E-17
3.800000E+03	9.325498E-16	5.995800E-17
3.810000E+03	9.531754E-16	6.127242E-17
3.820000E+03	9.746021E-16	6.263787E-17
3.830000E+03	9.969186E-16	6.406001E-17
3.840000E+03	1.020132E-15	6.553927E-17
3.850000E+03	1.044133E-15	6.706864E-17
3.860000E+03	1.068852E-15	6.864354E-17
3.870000E+03	1.094081E-15	7.025069E-17
3.880000E+03	1.119611E-15	7.187662E-17
3.890000E+03	1.145138E-15	7.350179E-17
3.900000E+03	1.170386E-15	7.510847E-17
3.910000E+03	1.194985E-15	7.667304E-17
3.920000E+03	1.218688E-15	7.817964E-17
3.930000E+03	1.241215E-15	7.961026E-17
3.940000E+03	1.262257E-15	8.094523E-17
3.950000E+03	1.281660E-15	8.217469E-17
3.960000E+03	1.299218E-15	8.328554E-17
3.970000E+03	1.314790E-15	8.426879E-17
3.980000E+03	1.328275E-15	8.511802E-17
3.990000E+03	1.339611E-15	8.582936E-17
4.000000E+03	1.348790E-15	8.640239E-17
4.010000E+03	1.355893E-15	8.684231E-17
4.020000E+03	1.360968E-15	8.715231E-17
4.030000E+03	1.364200E-15	8.734431E-17
4.040000E+03	1.365784E-15	8.743083E-17
4.050000E+03	1.365904E-15	8.742376E-17
4.060000E+03	1.364840E-15	8.734097E-17
4.070000E+03	1.362754E-15	8.719299E-17
4.080000E+03	1.359885E-15	8.699499E-17
4.090000E+03	1.356402E-15	8.675799E-17
4.100000E+03	1.352531E-15	8.649633E-17
4.110000E+03	1.348437E-15	8.622061E-17
4.120000E+03	1.344319E-15	8.594352E-17
4.130000E+03	1.340405E-15	8.567972E-17
4.140000E+03	1.336855E-15	8.543937E-17
4.150000E+03	1.333928E-15	8.523905E-17
4.160000E+03	1.331800E-15	8.508998E-17
4.170000E+03	1.330625E-15	8.500196E-17
4.180000E+03	1.330589E-15	8.498682E-17
4.190000E+03	1.331727E-15	8.504680E-17
4.200000E+03	1.334055E-15	8.518289E-17
4.210000E+03	1.337544E-15	8.539325E-17
4.220000E+03	1.342085E-15	8.567079E-17
4.230000E+03	1.347481E-15	8.600298E-17
4.240000E+03	1.353622E-15	8.638275E-17
4.250000E+03	1.360325E-15	8.679842E-17
4.260000E+03	1.367543E-15	8.724699E-17
4.270000E+03	1.375194E-15	8.772324E-17
4.280000E+03	1.383303E-15	8.822877E-17
4.290000E+03	1.391968E-15	8.876975E-17
4.300000E+03	1.401305E-15	8.935364E-17
4.310000E+03	1.411416E-15	8.998687E-17
4.320000E+03	1.422506E-15	9.068250E-17
4.330000E+03	1.434699E-15	9.144848E-17
4.340000E+03	1.448189E-15	9.229716E-17
4.350000E+03	1.463146E-15	9.323925E-17
4.360000E+03	1.479698E-15	9.428302E-17
4.370000E+03	1.497988E-15	9.543743E-17
4.380000E+03	1.518130E-15	9.670978E-17
4.390000E+03	1.540215E-15	9.810581E-17
4.400000E+03	1.564297E-15	9.962895E-17
4.410000E+03	1.590361E-15	1.012782E-16
4.420000E+03	1.618367E-15	1.030510E-16
4.430000E+03	1.648120E-15	1.049349E-16
4.440000E+03	1.679414E-15	1.069169E-16
4.450000E+03	1.711841E-15	1.089708E-16
4.460000E+03	1.744958E-15	1.110684E-16
4.470000E+03	1.778183E-15	1.131729E-16
4.480000E+03	1.810910E-15	1.152456E-16
4.490000E+03	1.842416E-15	1.172405E-16
4.500000E+03	1.872039E-15	1.191155E-16
4.510000E+03	1.899113E-15	1.208283E-16
4.520000E+03	1.923003E-15	1.223386E-16
4.530000E+03	1.943193E-15	1.236136E-16
4.540000E+03	1.959305E-15	1.246293E-16
4.550000E+03	1.971135E-15	1.253727E-16
4.560000E+03	1.978661E-15	1.258426E-16
4.570000E+03	1.982033E-15	1.260486E-16
4.580000E+03	1.981584E-15	1.260119E-16
4.590000E+03	1.977762E-15	1.257610E-16
4.600000E+03	1.971051E-15	1.253267E-16
4.610000E+03	1.961892E-15	1.247371E-16
4.620000E+03	1.950669E-15	1.240167E-16
4.630000E+03	1.937696E-15	1.231853E-16
4.640000E+03	1.923138E-15	1.222536E-16
4.650000E+03	1.907104E-15	1.212284E-16
4.660000E+03	1.889738E-15	1.201189E-16
4.670000E+03	1.871175E-15	1.189337E-16
4.680000E+03	1.851653E-15	1.176880E-16
4.690000E+03	1.831514E-15	1.164033E-16
4.700000E+03	1.811208E-15	1.151084E-16
4.710000E+03	1.791282E-15	1.138380E-16
4.720000E+03	1.772332E-15	1.126299E-16
4.730000E+03	1.755003E-15	1.115252E-16
4.740000E+03	1.739917E-15	1.105634E-16
4.750000E+03	1.727640E-15	1.097803E-16
4.760000E+03	1.718545E-15	1.091997E-16
4.770000E+03	1.712873E-15	1.088368E-16
4.780000E+03	1.710685E-15	1.086956E-16
4.790000E+03	1.711836E-15	1.087668E-16
4.800000E+03	1.715997E-15	1.090294E-16
4.810000E+03	1.722752E-15	1.094571E-16
4.820000E+03	1.731639E-15	1.100204E-16
4.830000E+03	1.742226E-15	1.106920E-16
4.840000E+03	1.754085E-15	1.114446E-16
4.850000E+03	1.766858E-15	1.122554E-16
4.860000E+03	1.780327E-15	1.131108E-16
4.870000E+03	1.794204E-15	1.139923E-16
4.880000E+03	1.808314E-15	1.148888E-16
4.890000E+03	1.822492E-15	1.157899E-16
4.900000E+03	1.836521E-15	1.166818E-16
4.910000E+03	1.850277E-15	1.175565E-16
4.920000E+03	1.863614E-15	1.184049E-16
4.930000E+03	1.876376E-15	1.192170E-16
4.940000E+03	1.888535E-15	1.199911E-16
4.950000E+03	1.900078E-15	1.207263E-16
4.960000E+03	1.911024E-15	1.214238E-16
4.970000E+03	1.921486E-15	1.220909E-16
4.980000E+03	1.931600E-15	1.227361E-16
4.990000E+03	1.941506E-15	1.233684E-16
5.000000E+03	1.951409E-15	1.240007E-16
5.010000E+03	1.961517E-15	1.246463E-16
5.020000E+03	1.971978E-15	1.253147E-16
5.030000E+03	1.983036E-15	1.260213E-16
5.040000E+03	1.994893E-15	1.267789E-16
5.050000E+03	2.007825E-15	1.276053E-16
5.060000E+03	2.022112E-15	1.285180E-16
5.070000E+03	2.038117E-15	1.295402E-16
5.080000E+03	2.056196E-15	1.306947E-16
5.090000E+03	2.076694E-15	1.320031E-16
5.100000E+03	2.099911E-15	1.334849E-16
5.110000E+03	2.125982E-15	1.351484E-16
5.120000E+03	2.154993E-15	1.369993E-16
5.130000E+03	2.186844E-15	1.390313E-16
5.140000E+03	2.221313E-15	1.412300E-16
5.150000E+03	2.258048E-15	1.435735E-16
5.160000E+03	2.296700E-15	1.460394E-16
5.170000E+03	2.336816E-15	1.485989E-16
5.180000E+03	2.377950E-15	1.512238E-16
5.190000E+03	2.419683E-15	1.538874E-16
5.200000E+03	2.461576E-15	1.565618E-16
5.210000E+03	2.503190E-15	1.592191E-16
5.220000E+03	2.544079E-15	1.618309E-16
5.230000E+03	2.583779E-15	1.643678E-16
5.240000E+03	2.621839E-15	1.668011E-16
5.250000E+03	2.657762E-15	1.690991E-16
5.260000E+03	2.691154E-15	1.712367E-16
5.270000E+03	2.721736E-15	1.731962E-16
5.280000E+03	2.749321E-15	1.749656E-16
5.290000E+03	2.774058E-15	1.765544E-16
5.300000E+03	2.796238E-15	1.779811E-16
5.310000E+03	2.816389E-15	1.792791E-16
5.320000E+03	2.835064E-15	1.804838E-16
5.330000E+03	2.852886E-15	1.816349E-16
5.340000E+03	2.870289E-15	1.827597E-16
5.350000E+03	2.887555E-15	1.838764E-16
5.360000E+03	2.904804E-15	1.849926E-16
5.370000E+03	2.921891E-15	1.860991E-16
5.380000E+03	2.938548E-15	1.871788E-16
5.390000E+03	2.954314E-15	1.882024E-16
5.400000E+03	2.968581E-15	1.891310E-16
5.410000E+03	2.980624E-15	1.899185E-16
5.420000E+03	2.989648E-15	1.905142E-16
5.430000E+03	2.994751E-15	1.908605E-16
5.440000E+03	2.995092E-15	1.909037E-16
5.450000E+03	2.989881E-15	1.905934E-16
5.460000E+03	2.978459E-15	1.898875E-16
5.470000E+03	2.960502E-15	1.887652E-16
5.480000E+03	2.935865E-15	1.872169E-16
5.490000E+03	2.904840E-15	1.852613E-16
5.500000E+03	2.867932E-15	1.829303E-16
5.510000E+03	2.825921E-15	1.802736E-16
5.520000E+03	2.779787E-15	1.773534E-16
5.530000E+03	2.730542E-15	1.742344E-16
5.540000E+03	2.679244E-15	1.709838E-16
5.550000E+03	2.626926E-15	1.676677E-16
5.560000E+03	2.574484E-15	1.643430E-16
5.570000E+03	2.522759E-15	1.610634E-16
5.580000E+03	2.472398E-15	1.578704E-16
5.590000E+03	2.424048E-15	1.548051E-16
5.600000E+03	2.378208E-15	1.518996E-16
5.610000E+03	2.335262E-15	1.491783E-16
5.620000E+03	2.295627E-15	1.466680E-16
5.630000E+03	2.259610E-15	1.443885E-16
5.640000E+03	2.227497E-15	1.423579E-16
5.650000E+03	2.199501E-15	1.405901E-16
5.660000E+03	2.175835E-15	1.390989E-16
5.670000E+03	2.156579E-15	1.378893E-16
5.680000E+03	2.141736E-15	1.369618E-16
5.690000E+03	2.131296E-15	1.363157E-16
5.700000E+03	2.125154E-15	1.359447E-16
5.710000E+03	2.123233E-15	1.358438E-16
5.720000E+03	2.125427E-15	1.360063E-16
5.730000E+03	2.131587E-15	1.364229E-16
5.740000E+03	2.141640E-15	1.370890E-16
5.750000E+03	2.155419E-15	1.379941E-16
5.760000E+03	2.172713E-15	1.391246E-16
5.770000E+03	2.193217E-15	1.404614E-16
5.780000E+03	2.216509E-15	1.419773E-16
5.790000E+03	2.242018E-15	1.436360E-16
5.800000E+03	2.269095E-15	1.453959E-16
5.810000E+03	2.296948E-15	1.472063E-16
5.820000E+03	2.324765E-15	1.490151E-16
5.830000E+03	2.351672E-15	1.507664E-16
5.840000E+03	2.376848E-15	1.524076E-16
5.850000E+03	2.399544E-15	1.538904E-16
5.860000E+03	2.419109E-15	1.551730E-16
5.870000E+03	2.435008E-15	1.562211E-16
5.880000E+03	2.446792E-15	1.570056E-16
5.890000E+03	2.454160E-15	1.575072E-16
5.900000E+03	2.456861E-15	1.577095E-16
5.910000E+03	2.454776E-15	1.576047E-16
5.920000E+03	2.447938E-15	1.571949E-16
5.930000E+03	2.436471E-15	1.564876E-16
5.940000E+03	2.420781E-15	1.555090E-16
5.950000E+03	2.401379E-15	1.542916E-16
5.960000E+03	2.379022E-15	1.528840E-16
5.970000E+03	2.354556E-15	1.513404E-16
5.980000E+03	2.328922E-15	1.497212E-16
5.990000E+03	2.302976E-15	1.480814E-16
6.000000E+03	2.277558E-15	1.464752E-16
6.010000E+03	2.253283E-15	1.449418E-16
6.020000E+03	2.230583E-15	1.435093E-16
6.030000E+03	2.209680E-15	1.421920E-16
6.040000E+03	2.190569E-15	1.409896E-16
6.050000E+03	2.173124E-15	1.398940E-16
6.060000E+03	2.157073E-15	1.388879E-16
6.070000E+03	2.142147E-15	1.379539E-16
6.080000E+03	2.128034E-15	1.370719E-16
6.090000E+03	2.114572E-15	1.362315E-16
6.100000E+03	2.101621E-15	1.354239E-16
6.110000E+03	2.089150E-15	1.346470E-16
6.120000E+03	2.077176E-15	1.339017E-16
6.130000E+03	2.065796E-15	1.331946E-16
6.140000E+03	2.055106E-15	1.325317E-16
6.150000E+03	2.045197E-15	1.319191E-16
6.160000E+03	2.036136E-15	1.313608E-16
6.170000E+03	2.028016E-15	1.308632E-16
6.180000E+03	2.020899E-15	1.304301E-16
6.190000E+03	2.014884E-15	1.300680E-16
6.200000E+03	2.010132E-15	1.297873E-16
6.210000E+03	2.006829E-15	1.296002E-16
6.220000E+03	2.005199E-15	1.295210E-16
6.230000E+03	2.005542E-15	1.295693E-16
6.240000E+03	2.008149E-15	1.297639E-16
6.250000E+03	2.013337E-15	1.301255E-16
6.260000E+03	2.021341E-15	1.306693E-16
6.270000E+03	2.032367E-15	1.314087E-16
6.280000E+03	2.046422E-15	1.323443E-16
6.290000E+03	2.063447E-15	1.334724E-16
6.300000E+03	2.083142E-15	1.347737E-16
6.310000E+03	2.105138E-15	1.362245E-16
6.320000E+03	2.128876E-15	1.377886E-16
6.330000E+03	2.153731E-15	1.394257E-16
6.340000E+03	2.179045E-15	1.410931E-16
6.350000E+03	2.204205E-15	1.427512E-16
6.360000E+03	2.228536E-15	1.443563E-16
6.370000E+03	2.251550E-15	1.458768E-16
6.380000E+03	2.272726E-15	1.472787E-16
6.390000E+03	2.291698E-15	1.485384E-16
6.400000E+03	2.308083E-15	1.496309E-16
6.410000E+03	2.321634E-15	1.505400E-16
6.420000E+03	2.332166E-15	1.512537E-16
6.430000E+03	2.339519E-15	1.517614E-16
6.440000E+03	2.343638E-15	1.520595E-16
6.450000E+03	2.344489E-15	1.521456E-16
6.460000E+03	2.342141E-15	1.520241E-16
6.470000E+03	2.336694E-15	1.517014E-16
6.480000E+03	2.328299E-15	1.511870E-16
6.490000E+03	2.317120E-15	1.504917E-16
6.500000E+03	2.303433E-15	1.496330E-16
6.510000E+03	2.287480E-15	1.486267E-16
6.520000E+03	2.269563E-15	1.474924E-16
6.530000E+03	2.250028E-15	1.462525E-16
6.540000E+03	2.229200E-15	1.449279E-16
6.550000E+03	2.207345E-15	1.435359E-16
6.560000E+03	2.184689E-15	1.420913E-16
6.570000E+03	2.161413E-15	1.406057E-16
6.580000E+03	2.137516E-15	1.390791E-16
6.590000E+03	2.113009E-15	1.375122E-16
6.600000E+03	2.087780E-15	1.358975E-16
6.610000E+03	2.061730E-15	1.342288E-16
6.620000E+03	2.034782E-15	1.325008E-16
6.630000E+03	2.006904E-15	1.307115E-16
6.640000E+03	1.978172E-15	1.288658E-16
6.650000E+03	1.948614E-15	1.269656E-16
6.660000E+03	1.918439E-15	1.250243E-16
6.670000E+03	1.887790E-15	1.230514E-16
6.680000E+03	1.856910E-15	1.210625E-16
6.690000E+03	1.826056E-15	1.190745E-16
6.700000E+03	1.795438E-15	1.171010E-16
6.710000E+03	1.765320E-15	1.151593E-16
6.720000E+03	1.735930E-15	1.132643E-16
6.730000E+03	1.707412E-15	1.114255E-16
6.740000E+03	1.679879E-15	1.096502E-16
6.750000E+03	1.653420E-15	1.079442E-16
6.760000E+03	1.628091E-15	1.063113E-16
6.770000E+03	1.603946E-15	1.047551E-16
6.780000E+03	1.581121E-15	1.032844E-16
6.790000E+03	1.559787E-15	1.019105E-16
6.800000E+03	1.540170E-15	1.006483E-16
6.810000E+03	1.522541E-15	9.951547E-17
6.820000E+03	1.507194E-15	9.853135E-17
6.830000E+03	1.494415E-15	9.771470E-17
6.840000E+03	1.484461E-15	9.708244E-17
6.850000E+03	1.477541E-15	9.664832E-17
6.860000E+03	1.473742E-15	9.641821E-17
6.870000E+03	1.473061E-15	9.639197E-17
6.880000E+03	1.475399E-15	9.656329E-17
6.890000E+03	1.480443E-15	9.691173E-17
6.900000E+03	1.487850E-15	9.741500E-17
6.910000E+03	1.497091E-15	9.803849E-17
6.920000E+03	1.507613E-15	9.874605E-17
6.930000E+03	1.518830E-15	9.949934E-17
6.940000E+03	1.530206E-15	1.002633E-16
6.950000E+03	1.541244E-15	1.010053E-16
6.960000E+03	1.551624E-15	1.017045E-16
6.970000E+03	1.561152E-15	1.023479E-16
6.980000E+03	1.569784E-15	1.029329E-16
6.990000E+03	1.577545E-15	1.034608E-16
7.000000E+03	1.584543E-15	1.039388E-16
7.010000E+03	1.590926E-15	1.043766E-16
7.020000E+03	1.596806E-15	1.047815E-16
7.030000E+03	1.602227E-15	1.051563E-16
7.040000E+03	1.607183E-15	1.055007E-16
7.050000E+03	1.611617E-15	1.058109E-16
7.060000E+03	1.615379E-15	1.060769E-16
7.070000E+03	1.618262E-15	1.062853E-16
7.080000E+03	1.620009E-15	1.064191E-16
7.090000E+03	1.620426E-15	1.064655E-16
7.100000E+03	1.619279E-15	1.064091E-16
7.110000E+03	1.616491E-15	1.062447E-16
7.120000E+03	1.612018E-15	1.059694E-16
7.130000E+03	1.606023E-15	1.055939E-16
7.140000E+03	1.598729E-15	1.051327E-16
7.150000E+03	1.590551E-15	1.046132E-16
7.160000E+03	1.581932E-15	1.040644E-16
7.170000E+03	1.573358E-15	1.035184E-16
7.180000E+03	1.565307E-15	1.030065E-16
7.190000E+03	1.558134E-15	1.025521E-16
7.200000E+03	1.552083E-15	1.021714E-16
7.210000E+03	1.547280E-15	1.018727E-16
7.220000E+03	1.543682E-15	1.016531E-16
7.230000E+03	1.541076E-15	1.014987E-16
7.240000E+03	1.539238E-15	1.013948E-16
7.250000E+03	1.537748E-15	1.013138E-16
7.260000E+03	1.536247E-15	1.012318E-16
7.270000E+03	1.534253E-15	1.011174E-16
7.280000E+03	1.531335E-15	1.009419E-16
7.290000E+03	1.527045E-15	1.006758E-16
7.300000E+03	1.521012E-15	1.002946E-16
7.310000E+03	1.512909E-15	9.977678E-17
7.320000E+03	1.502472E-15	9.910473E-17
7.330000E+03	1.489588E-15	9.827096E-17
7.340000E+03	1.474168E-15	9.726953E-17
7.350000E+03	1.456269E-15	9.610406E-17
7.360000E+03	1.436075E-15	9.478673E-17
7.370000E+03	1.413781E-15	9.333021E-17
7.380000E+03	1.389720E-15	9.175654E-17
7.390000E+03	1.364200E-15	9.008594E-17
7.400000E+03	1.337592E-15	8.834292E-17
7.410000E+03	1.310323E-15	8.655558E-17
7.420000E+03	1.282768E-15	8.474879E-17
7.430000E+03	1.255306E-15	8.294747E-17
7.440000E+03	1.228336E-15	8.117803E-17
7.450000E+03	1.202217E-15	7.946428E-17
7.460000E+03	1.177261E-15	7.782673E-17
7.470000E+03	1.153755E-15	7.628460E-17
7.480000E+03	1.131909E-15	7.485167E-17
7.490000E+03	1.111857E-15	7.353693E-17
7.500000E+03	1.093634E-15	7.234269E-17
7.510000E+03	1.077214E-15	7.126734E-17
7.520000E+03	1.062527E-15	7.030625E-17
7.530000E+03	1.049375E-15	6.944644E-17
7.540000E+03	1.037601E-15	6.867757E-17
7.550000E+03	1.027006E-15	6.798637E-17
7.560000E+03	1.017388E-15	6.735966E-17
7.570000E+03	1.008595E-15	6.678740E-17
7.580000E+03	1.000471E-15	6.625915E-17
7.590000E+03	9.929400E-16	6.577003E-17
7.600000E+03	9.859077E-16	6.531374E-17
7.610000E+03	9.793098E-16	6.488605E-17
7.620000E+03	9.730317E-16	6.447940E-17
7.630000E+03	9.669860E-16	6.408798E-17
7.640000E+03	9.610109E-16	6.370108E-17
7.650000E+03	9.549189E-16	6.330629E-17
7.660000E+03	9.484764E-16	6.288809E-17
7.670000E+03	9.414695E-16	6.243231E-17
7.680000E+03	9.336382E-16	6.192168E-17
7.690000E+03	9.248077E-16	6.134459E-17
7.700000E+03	9.148173E-16	6.069034E-17
7.710000E+03	9.036322E-16	5.995661E-17
7.720000E+03	8.912938E-16	5.914609E-17
7.730000E+03	8.779682E-16	5.826979E-17
7.740000E+03	8.638934E-16	5.734349E-17
7.750000E+03	8.493532E-16	5.638600E-17
7.760000E+03	8.346793E-16	5.541933E-17
