#wls	flux	fluxerr
1.592674E+03	4.120367E-04	4.031248E-06
1.632491E+03	4.104010E-04	4.015245E-06
1.672307E+03	4.057192E-04	3.969440E-06
1.712124E+03	3.975563E-04	3.889576E-06
1.751941E+03	3.857256E-04	3.773828E-06
1.791758E+03	3.700411E-04	3.620375E-06
1.831575E+03	3.506154E-04	3.430320E-06
1.871392E+03	3.278994E-04	3.208073E-06
1.911208E+03	3.025564E-04	2.960124E-06
1.951025E+03	2.756838E-04	2.697210E-06
1.990842E+03	2.486311E-04	2.432535E-06
2.030659E+03	2.229613E-04	2.181389E-06
2.070476E+03	2.000990E-04	1.957710E-06
2.110293E+03	1.810265E-04	1.771110E-06
2.150109E+03	1.660782E-04	1.624861E-06
2.189926E+03	1.553173E-04	1.519580E-06
2.229743E+03	1.488285E-04	1.456095E-06
2.269560E+03	1.467461E-04	1.435721E-06
2.309377E+03	1.492280E-04	1.460003E-06
2.349194E+03	1.565272E-04	1.531417E-06
2.389011E+03	1.689283E-04	1.652746E-06
2.428827E+03	1.867840E-04	1.827440E-06
2.468644E+03	2.105697E-04	2.060152E-06
2.508461E+03	2.409009E-04	2.356905E-06
2.548278E+03	2.788252E-04	2.727945E-06
2.588095E+03	3.261169E-04	3.190633E-06
2.627912E+03	3.850942E-04	3.767649E-06
2.667728E+03	4.568279E-04	4.469471E-06
2.707545E+03	5.401634E-04	5.284801E-06
2.747362E+03	6.325023E-04	6.188218E-06
2.787179E+03	7.305387E-04	7.147377E-06
2.826996E+03	8.307809E-04	8.128118E-06
2.866813E+03	9.299923E-04	9.098772E-06
2.906630E+03	1.025471E-03	1.003291E-05
2.946446E+03	1.115246E-03	1.091124E-05
2.986263E+03	1.198072E-03	1.172158E-05
2.996217E+03	1.217641E-03	1.191304E-05
3.006172E+03	1.236703E-03	1.209954E-05
3.016126E+03	1.255304E-03	1.228153E-05
3.026080E+03	1.273408E-03	1.245865E-05
3.036034E+03	1.291036E-03	1.263112E-05
3.045988E+03	1.308211E-03	1.279915E-05
3.055943E+03	1.324871E-03	1.296215E-05
3.065897E+03	1.341097E-03	1.312090E-05
3.075851E+03	1.356830E-03	1.327482E-05
3.085805E+03	1.372122E-03	1.342444E-05
3.095760E+03	1.386945E-03	1.356947E-05
3.105714E+03	1.401297E-03	1.370988E-05
3.115668E+03	1.415232E-03	1.384622E-05
3.125622E+03	1.428694E-03	1.397792E-05
3.135576E+03	1.441764E-03	1.410579E-05
3.145531E+03	1.454359E-03	1.422902E-05
3.155485E+03	1.466561E-03	1.434840E-05
3.165439E+03	1.478315E-03	1.446340E-05
3.175393E+03	1.489673E-03	1.457452E-05
3.185347E+03	1.500609E-03	1.468152E-05
3.195302E+03	1.511147E-03	1.478461E-05
3.205256E+03	1.521286E-03	1.488382E-05
3.215210E+03	1.531025E-03	1.497910E-05
3.225164E+03	1.540337E-03	1.507020E-05
3.235118E+03	1.549270E-03	1.515761E-05
3.245073E+03	1.557797E-03	1.524103E-05
3.255027E+03	1.565940E-03	1.532069E-05
3.264981E+03	1.573669E-03	1.539631E-05
3.274935E+03	1.580980E-03	1.546784E-05
3.284890E+03	1.587892E-03	1.553547E-05
3.294844E+03	1.594374E-03	1.559889E-05
3.304798E+03	1.600442E-03	1.565826E-05
3.314752E+03	1.606085E-03	1.571347E-05
3.324706E+03	1.611245E-03	1.576395E-05
3.334661E+03	1.615955E-03	1.581002E-05
3.344615E+03	1.620175E-03	1.585132E-05
3.354569E+03	1.623889E-03	1.588765E-05
3.364523E+03	1.627077E-03	1.591884E-05
3.374477E+03	1.629675E-03	1.594426E-05
3.384432E+03	1.631709E-03	1.596416E-05
3.394386E+03	1.633139E-03	1.597815E-05
3.404340E+03	1.633936E-03	1.598595E-05
3.414294E+03	1.634102E-03	1.598757E-05
3.424248E+03	1.633662E-03	1.598327E-05
3.434203E+03	1.632633E-03	1.597320E-05
3.444157E+03	1.631143E-03	1.595862E-05
3.454111E+03	1.629315E-03	1.594074E-05
3.464065E+03	1.627257E-03	1.592061E-05
3.474020E+03	1.624813E-03	1.589669E-05
3.483974E+03	1.621749E-03	1.586672E-05
3.493928E+03	1.617900E-03	1.582906E-05
3.503882E+03	1.613170E-03	1.578278E-05
3.513836E+03	1.607500E-03	1.572731E-05
3.523791E+03	1.600889E-03	1.566263E-05
3.533745E+03	1.593395E-03	1.558931E-05
3.543699E+03	1.585105E-03	1.550820E-05
3.553653E+03	1.576163E-03	1.542072E-05
3.563607E+03	1.566723E-03	1.532836E-05
3.573562E+03	1.557011E-03	1.523334E-05
3.583516E+03	1.547276E-03	1.513809E-05
3.593470E+03	1.537837E-03	1.504574E-05
3.603424E+03	1.528999E-03	1.495928E-05
3.613378E+03	1.521134E-03	1.488233E-05
3.623333E+03	1.514599E-03	1.481839E-05
3.633287E+03	1.509829E-03	1.477172E-05
3.643241E+03	1.507273E-03	1.474671E-05
3.653195E+03	1.507412E-03	1.474808E-05
3.663150E+03	1.510776E-03	1.478098E-05
3.673104E+03	1.517930E-03	1.485098E-05
3.683058E+03	1.529474E-03	1.496392E-05
3.693012E+03	1.546087E-03	1.512646E-05
3.702966E+03	1.568489E-03	1.534563E-05
3.712921E+03	1.597520E-03	1.562967E-05
3.722875E+03	1.634096E-03	1.598752E-05
3.732829E+03	1.679255E-03	1.642933E-05
3.742783E+03	1.734196E-03	1.696687E-05
3.752737E+03	1.800321E-03	1.761381E-05
3.762692E+03	1.879220E-03	1.838574E-05
3.772646E+03	1.972783E-03	1.930113E-05
3.782450E+03	1.093769E-03	1.070111E-05
3.783960E+03	1.121798E-03	1.097534E-05
3.785480E+03	1.149827E-03	1.124957E-05
3.786990E+03	1.178118E-03	1.152636E-05
3.788500E+03	1.207314E-03	1.181201E-05
3.790020E+03	1.237457E-03	1.210691E-05
3.791530E+03	1.272895E-03	1.245363E-05
3.793050E+03	1.312339E-03	1.283954E-05
3.794560E+03	1.354301E-03	1.325008E-05
3.796070E+03	1.397954E-03	1.367717E-05
3.797590E+03	1.436391E-03	1.405322E-05
3.799100E+03	1.470780E-03	1.438968E-05
3.800610E+03	1.499733E-03	1.467295E-05
3.802130E+03	1.524921E-03	1.491937E-05
3.803640E+03	1.557195E-03	1.523514E-05
3.805150E+03	1.595087E-03	1.560586E-05
3.806670E+03	1.631931E-03	1.596634E-05
3.808180E+03	1.668131E-03	1.632050E-05
3.809700E+03	1.707975E-03	1.671032E-05
3.811210E+03	1.750597E-03	1.712732E-05
3.812719E+03	1.793480E-03	1.754688E-05
3.814239E+03	1.836484E-03	1.796761E-05
3.815750E+03	1.877574E-03	1.836963E-05
3.817260E+03	1.917214E-03	1.875745E-05
3.818780E+03	1.959571E-03	1.917187E-05
3.820290E+03	2.003901E-03	1.960558E-05
3.821810E+03	2.046479E-03	2.002215E-05
3.823320E+03	2.087546E-03	2.042394E-05
3.824830E+03	2.128814E-03	2.082769E-05
3.826350E+03	2.170484E-03	2.123537E-05
3.827860E+03	2.212757E-03	2.164896E-05
3.829370E+03	2.255432E-03	2.206648E-05
3.830890E+03	2.294482E-03	2.244854E-05
3.832400E+03	2.331115E-03	2.280694E-05
3.833910E+03	2.367748E-03	2.316535E-05
3.835430E+03	2.404782E-03	2.352768E-05
3.836940E+03	2.442017E-03	2.389198E-05
3.838460E+03	2.480057E-03	2.426415E-05
3.839970E+03	2.518700E-03	2.464221E-05
3.841480E+03	2.558550E-03	2.503210E-05
3.843000E+03	2.605043E-03	2.548697E-05
3.844510E+03	2.656970E-03	2.599501E-05
3.846020E+03	2.705072E-03	2.646563E-05
3.847540E+03	2.750958E-03	2.691456E-05
3.849050E+03	2.796440E-03	2.735954E-05
3.850570E+03	2.842927E-03	2.781436E-05
3.852080E+03	2.895856E-03	2.833220E-05
3.853589E+03	2.954622E-03	2.890715E-05
3.855109E+03	3.020635E-03	2.955300E-05
3.856620E+03	3.092685E-03	3.025792E-05
3.858130E+03	3.168961E-03	3.100418E-05
3.859650E+03	3.242418E-03	3.172286E-05
3.861160E+03	3.309631E-03	3.238046E-05
3.862670E+03	3.378052E-03	3.304986E-05
3.864190E+03	3.446268E-03	3.371727E-05
3.865700E+03	3.516496E-03	3.440436E-05
3.867220E+03	3.591957E-03	3.514264E-05
3.868730E+03	3.665805E-03	3.586515E-05
3.870240E+03	3.742469E-03	3.661521E-05
3.871760E+03	3.829397E-03	3.746570E-05
3.873270E+03	3.922966E-03	3.838115E-05
3.874780E+03	4.017743E-03	3.930841E-05
3.876300E+03	4.118554E-03	4.029471E-05
3.877810E+03	4.223989E-03	4.132626E-05
3.879330E+03	4.323991E-03	4.230466E-05
3.880840E+03	4.416742E-03	4.321210E-05
3.882350E+03	4.501237E-03	4.403878E-05
3.883870E+03	4.579488E-03	4.480436E-05
3.885380E+03	4.655325E-03	4.554632E-05
3.886890E+03	4.738199E-03	4.635714E-05
3.888410E+03	4.838787E-03	4.734126E-05
3.889920E+03	4.942793E-03	4.835883E-05
3.891430E+03	5.038541E-03	4.929559E-05
3.892950E+03	5.132275E-03	5.021267E-05
3.894459E+03	5.223389E-03	5.110410E-05
3.895979E+03	5.308262E-03	5.193447E-05
3.897491E+03	5.390112E-03	5.273527E-05
3.899000E+03	5.473768E-03	5.355373E-05
3.900520E+03	5.556618E-03	5.436431E-05
3.902030E+03	5.641074E-03	5.519061E-05
3.903540E+03	5.729554E-03	5.605626E-05
3.905060E+03	5.817223E-03	5.691399E-05
3.906570E+03	5.900261E-03	5.772641E-05
3.908080E+03	5.978465E-03	5.849154E-05
3.909600E+03	6.056062E-03	5.925072E-05
3.911110E+03	6.137881E-03	6.005121E-05
3.912630E+03	6.221911E-03	6.087334E-05
3.914140E+03	6.301708E-03	6.165406E-05
3.915650E+03	6.379494E-03	6.241509E-05
3.917170E+03	6.451841E-03	6.312291E-05
3.918680E+03	6.511911E-03	6.371061E-05
3.920190E+03	6.569161E-03	6.427074E-05
3.921710E+03	6.629622E-03	6.486227E-05
3.923220E+03	6.689283E-03	6.544597E-05
3.924740E+03	6.745311E-03	6.599413E-05
3.926250E+03	6.794099E-03	6.647146E-05
3.927760E+03	6.831411E-03	6.683651E-05
3.929280E+03	6.869729E-03	6.721140E-05
3.930790E+03	6.916894E-03	6.767285E-05
3.932300E+03	6.959836E-03	6.809298E-05
3.933820E+03	6.996129E-03	6.844807E-05
3.935329E+03	7.031822E-03	6.879727E-05
3.936841E+03	7.068715E-03	6.915822E-05
3.938361E+03	7.105810E-03	6.952115E-05
3.939870E+03	7.137469E-03	6.983089E-05
3.941390E+03	7.159467E-03	7.004611E-05
3.942900E+03	7.174827E-03	7.019639E-05
3.944410E+03	7.182940E-03	7.027577E-05
3.945930E+03	7.180391E-03	7.025082E-05
3.947440E+03	7.174221E-03	7.019046E-05
3.948950E+03	7.167243E-03	7.012219E-05
3.950470E+03	7.163480E-03	7.008537E-05
3.951980E+03	7.167362E-03	7.012335E-05
3.953500E+03	7.167825E-03	7.012789E-05
3.955010E+03	7.161846E-03	7.006939E-05
3.956520E+03	7.155668E-03	7.000895E-05
3.958040E+03	7.155722E-03	7.000947E-05
3.959550E+03	7.155975E-03	7.001195E-05
3.961060E+03	7.147175E-03	6.992585E-05
3.962580E+03	7.131940E-03	6.977680E-05
3.964090E+03	7.113686E-03	6.959821E-05
3.965600E+03	7.094629E-03	6.941175E-05
3.967120E+03	7.074767E-03	6.921744E-05
3.968630E+03	7.049873E-03	6.897388E-05
3.970150E+03	7.021562E-03	6.869689E-05
3.971660E+03	6.993052E-03	6.841795E-05
3.973170E+03	6.961121E-03	6.810555E-05
3.974690E+03	6.924363E-03	6.774593E-05
3.976199E+03	6.884591E-03	6.735681E-05
3.977711E+03	6.840193E-03	6.692243E-05
3.979231E+03	6.778905E-03	6.632280E-05
3.980740E+03	6.708575E-03	6.563472E-05
3.982260E+03	6.646283E-03	6.502527E-05
3.983770E+03	6.588620E-03	6.446111E-05
3.985280E+03	6.531360E-03	6.390090E-05
3.986800E+03	6.474904E-03	6.334855E-05
3.988310E+03	6.416242E-03	6.277462E-05
3.989820E+03	6.355970E-03	6.218493E-05
3.991340E+03	6.296303E-03	6.160117E-05
3.992850E+03	6.230810E-03	6.096040E-05
3.994360E+03	6.155869E-03	6.022721E-05
3.995880E+03	6.081534E-03	5.949994E-05
3.997390E+03	6.010416E-03	5.880413E-05
3.998910E+03	5.942517E-03	5.813983E-05
4.000420E+03	5.882862E-03	5.755619E-05
4.001930E+03	5.825421E-03	5.699420E-05
4.003450E+03	5.764161E-03	5.639485E-05
4.004960E+03	5.698082E-03	5.574835E-05
4.006470E+03	5.626176E-03	5.504484E-05
4.007990E+03	5.550854E-03	5.430792E-05
4.009500E+03	5.471318E-03	5.352976E-05
4.011020E+03	5.390176E-03	5.273589E-05
4.012530E+03	5.310444E-03	5.195581E-05
4.014040E+03	5.235538E-03	5.122296E-05
4.015560E+03	5.165658E-03	5.053927E-05
4.017069E+03	5.100601E-03	4.990277E-05
4.018581E+03	5.042183E-03	4.933123E-05
4.020101E+03	4.983361E-03	4.875573E-05
4.021610E+03	4.918916E-03	4.812522E-05
4.023120E+03	4.852467E-03	4.747511E-05
4.024640E+03	4.785014E-03	4.681516E-05
4.026150E+03	4.710335E-03	4.608453E-05
4.027670E+03	4.627822E-03	4.527724E-05
4.029180E+03	4.546718E-03	4.448375E-05
4.030690E+03	4.468632E-03	4.371977E-05
4.032210E+03	4.396576E-03	4.301480E-05
4.033720E+03	4.331355E-03	4.237670E-05
4.035230E+03	4.271158E-03	4.178775E-05
4.036750E+03	4.214176E-03	4.123025E-05
4.038260E+03	4.150971E-03	4.061188E-05
4.039780E+03	4.081142E-03	3.992868E-05
4.041290E+03	4.013326E-03	3.926520E-05
4.042800E+03	3.950935E-03	3.865478E-05
4.044320E+03	3.894771E-03	3.810529E-05
4.045830E+03	3.841825E-03	3.758728E-05
4.047340E+03	3.788078E-03	3.706144E-05
4.048860E+03	3.732325E-03	3.651597E-05
4.050370E+03	3.677379E-03	3.597839E-05
4.051880E+03	3.626451E-03	3.548012E-05
4.053400E+03	3.577131E-03	3.499760E-05
4.054910E+03	3.527012E-03	3.450725E-05
4.056430E+03	3.480509E-03	3.405227E-05
4.057939E+03	3.437221E-03	3.362875E-05
4.059451E+03	3.392931E-03	3.319544E-05
4.060971E+03	3.352055E-03	3.279552E-05
4.062480E+03	3.316402E-03	3.244670E-05
4.063990E+03	3.282156E-03	3.211164E-05
4.065510E+03	3.246104E-03	3.175892E-05
4.067020E+03	3.208649E-03	3.139248E-05
4.068540E+03	3.174608E-03	3.105943E-05
4.070050E+03	3.144383E-03	3.076372E-05
4.071560E+03	3.113357E-03	3.046016E-05
4.073080E+03	3.079320E-03	3.012716E-05
4.074590E+03	3.044885E-03	2.979026E-05
4.076100E+03	3.010653E-03	2.945534E-05
4.077620E+03	2.981238E-03	2.916755E-05
4.079130E+03	2.957243E-03	2.893279E-05
4.080650E+03	2.934050E-03	2.870588E-05
4.082160E+03	2.909455E-03	2.846525E-05
4.083670E+03	2.884460E-03	2.822071E-05
4.085190E+03	2.864481E-03	2.802524E-05
4.086700E+03	2.845908E-03	2.784352E-05
4.088210E+03	2.822722E-03	2.761668E-05
4.089730E+03	2.800940E-03	2.740357E-05
4.091240E+03	2.783172E-03	2.722973E-05
4.092750E+03	2.765806E-03	2.705983E-05
4.094270E+03	2.753053E-03	2.693506E-05
4.095780E+03	2.746117E-03	2.686720E-05
4.097300E+03	2.739782E-03	2.680522E-05
4.098809E+03	2.733849E-03	2.674717E-05
4.100320E+03	2.730122E-03	2.671070E-05
4.101840E+03	2.725992E-03	2.667030E-05
4.103350E+03	2.717451E-03	2.658674E-05
4.104860E+03	2.707707E-03	2.649141E-05
4.106380E+03	2.700569E-03	2.642157E-05
4.107890E+03	2.689221E-03	2.631054E-05
4.109400E+03	2.679277E-03	2.621326E-05
4.110920E+03	2.676950E-03	2.619049E-05
4.112430E+03	2.671818E-03	2.614027E-05
4.113950E+03	2.662474E-03	2.604886E-05
4.115460E+03	2.655938E-03	2.598491E-05
4.116970E+03	2.652407E-03	2.595037E-05
4.118490E+03	2.651081E-03	2.593739E-05
4.120000E+03	2.648352E-03	2.591069E-05
4.121510E+03	2.642616E-03	2.585457E-05
4.123030E+03	2.635877E-03	2.578864E-05
4.124540E+03	2.627335E-03	2.570507E-05
4.126060E+03	2.614985E-03	2.558425E-05
4.127570E+03	2.599030E-03	2.542814E-05
4.129080E+03	2.593495E-03	2.537398E-05
4.130600E+03	2.599178E-03	2.542959E-05
4.132110E+03	2.601655E-03	2.545382E-05
4.133620E+03	2.603130E-03	2.546825E-05
4.135140E+03	2.605203E-03	2.548854E-05
4.136650E+03	2.604873E-03	2.548531E-05
4.138159E+03	2.605344E-03	2.548991E-05
4.139679E+03	2.607214E-03	2.550822E-05
4.141190E+03	2.608885E-03	2.552456E-05
4.142710E+03	2.609953E-03	2.553501E-05
4.144220E+03	2.612222E-03	2.555721E-05
4.145730E+03	2.613689E-03	2.557156E-05
4.147250E+03	2.614154E-03	2.557611E-05
4.148760E+03	2.617021E-03	2.560416E-05
4.150270E+03	2.617685E-03	2.561065E-05
4.151790E+03	2.614943E-03	2.558383E-05
4.153300E+03	2.613403E-03	2.556876E-05
4.154810E+03	2.611462E-03	2.554977E-05
4.156330E+03	2.609720E-03	2.553273E-05
4.157840E+03	2.605776E-03	2.549414E-05
4.159360E+03	2.602231E-03	2.545946E-05
4.160870E+03	2.603290E-03	2.546982E-05
4.162380E+03	2.606550E-03	2.550171E-05
4.163900E+03	2.614210E-03	2.557666E-05
4.165410E+03	2.625271E-03	2.568488E-05
4.166920E+03	2.636131E-03	2.579112E-05
4.168440E+03	2.644586E-03	2.587385E-05
4.169950E+03	2.652440E-03	2.595069E-05
4.171470E+03	2.663293E-03	2.605687E-05
4.172980E+03	2.672944E-03	2.615129E-05
4.174490E+03	2.681793E-03	2.623787E-05
4.176010E+03	2.690639E-03	2.632442E-05
4.177520E+03	2.699084E-03	2.640704E-05
4.179029E+03	2.711328E-03	2.652683E-05
4.180549E+03	2.725568E-03	2.666615E-05
4.182060E+03	2.740207E-03	2.680937E-05
4.183580E+03	2.754842E-03	2.695256E-05
4.185090E+03	2.766876E-03	2.707030E-05
4.186600E+03	2.779708E-03	2.719584E-05
4.188120E+03	2.795935E-03	2.735460E-05
4.189630E+03	2.814159E-03	2.753290E-05
4.191140E+03	2.832381E-03	2.771118E-05
4.192660E+03	2.846999E-03	2.785420E-05
4.194170E+03	2.858819E-03	2.796984E-05
4.195680E+03	2.870635E-03	2.808544E-05
4.197200E+03	2.876852E-03	2.814627E-05
4.198710E+03	2.879671E-03	2.817385E-05
4.200230E+03	2.885285E-03	2.822878E-05
4.201740E+03	2.890898E-03	2.828370E-05
4.203250E+03	2.895511E-03	2.832883E-05
4.204770E+03	2.900921E-03	2.838175E-05
4.206280E+03	2.907129E-03	2.844249E-05
4.207790E+03	2.915333E-03	2.852276E-05
4.209310E+03	2.922735E-03	2.859517E-05
4.210820E+03	2.924942E-03	2.861677E-05
4.212340E+03	2.921755E-03	2.858558E-05
4.213850E+03	2.917169E-03	2.854072E-05
4.215360E+03	2.916578E-03	2.853494E-05
4.216880E+03	2.918181E-03	2.855062E-05
4.218390E+03	2.917987E-03	2.854873E-05
4.219899E+03	2.915796E-03	2.852729E-05
4.221419E+03	2.911406E-03	2.848434E-05
4.222930E+03	2.906618E-03	2.843749E-05
4.224440E+03	2.902828E-03	2.840041E-05
4.225960E+03	2.899435E-03	2.836722E-05
4.227470E+03	2.896043E-03	2.833403E-05
4.228990E+03	2.893248E-03	2.830668E-05
4.230500E+03	2.891851E-03	2.829301E-05
4.232010E+03	2.894045E-03	2.831448E-05
4.233530E+03	2.900227E-03	2.837497E-05
4.235040E+03	2.904014E-03	2.841202E-05
4.236550E+03	2.903012E-03	2.840221E-05
4.238070E+03	2.902605E-03	2.839823E-05
4.239580E+03	2.902798E-03	2.840012E-05
4.241090E+03	2.903588E-03	2.840785E-05
4.242610E+03	2.905771E-03	2.842921E-05
4.244120E+03	2.904565E-03	2.841740E-05
4.245640E+03	2.902359E-03	2.839582E-05
4.247150E+03	2.903344E-03	2.840546E-05
4.248660E+03	2.904128E-03	2.841313E-05
4.250180E+03	2.903714E-03	2.840908E-05
4.251690E+03	2.897917E-03	2.835236E-05
4.253200E+03	2.892917E-03	2.830345E-05
4.254720E+03	2.892102E-03	2.829547E-05
4.256230E+03	2.894277E-03	2.831675E-05
4.257750E+03	2.902629E-03	2.839846E-05
4.259260E+03	2.908388E-03	2.845481E-05
4.260769E+03	2.909363E-03	2.846435E-05
4.262289E+03	2.916114E-03	2.853039E-05
4.263800E+03	2.928045E-03	2.864713E-05
4.265310E+03	2.939375E-03	2.875798E-05
4.266830E+03	2.949904E-03	2.886099E-05
4.268340E+03	2.959834E-03	2.895814E-05
4.269850E+03	2.969961E-03	2.905722E-05
4.271370E+03	2.980682E-03	2.916211E-05
4.272880E+03	2.991002E-03	2.926308E-05
4.274400E+03	3.001916E-03	2.936986E-05
4.275910E+03	3.012231E-03	2.947078E-05
4.277420E+03	3.020950E-03	2.955608E-05
4.278940E+03	3.027675E-03	2.962187E-05
4.280450E+03	3.034598E-03	2.968961E-05
4.281960E+03	3.043310E-03	2.977484E-05
4.283480E+03	3.049828E-03	2.983862E-05
4.284990E+03	3.055351E-03	2.989265E-05
4.286510E+03	3.060870E-03	2.994665E-05
4.288020E+03	3.069373E-03	3.002984E-05
4.289530E+03	3.078670E-03	3.012080E-05
4.291050E+03	3.081397E-03	3.014748E-05
4.292560E+03	3.078354E-03	3.011771E-05
4.294070E+03	3.075311E-03	3.008793E-05
4.295590E+03	3.074453E-03	3.007954E-05
4.297100E+03	3.072601E-03	3.006142E-05
4.298620E+03	3.066571E-03	3.000242E-05
4.300130E+03	3.058951E-03	2.992787E-05
4.301639E+03	3.048547E-03	2.982608E-05
4.303159E+03	3.035160E-03	2.969510E-05
4.304670E+03	3.019787E-03	2.954470E-05
4.306180E+03	3.004018E-03	2.939043E-05
4.307700E+03	2.991032E-03	2.926338E-05
4.309210E+03	2.977055E-03	2.912663E-05
4.310720E+03	2.960297E-03	2.896267E-05
4.312240E+03	2.942943E-03	2.879289E-05
4.313750E+03	2.922016E-03	2.858814E-05
4.315270E+03	2.901288E-03	2.838535E-05
4.316780E+03	2.882750E-03	2.820398E-05
4.318290E+03	2.861632E-03	2.799736E-05
4.319810E+03	2.835350E-03	2.774023E-05
4.321320E+03	2.802519E-03	2.741901E-05
4.322830E+03	2.768501E-03	2.708620E-05
4.324350E+03	2.736472E-03	2.677284E-05
4.325860E+03	2.707230E-03	2.648674E-05
4.327370E+03	2.684147E-03	2.626090E-05
4.328890E+03	2.662257E-03	2.604673E-05
4.330400E+03	2.635805E-03	2.578794E-05
4.331920E+03	2.605783E-03	2.549422E-05
4.333430E+03	2.578546E-03	2.522773E-05
4.334940E+03	2.555282E-03	2.500013E-05
4.336460E+03	2.532218E-03	2.477447E-05
4.337970E+03	2.507175E-03	2.452946E-05
4.339480E+03	2.478564E-03	2.424954E-05
4.341000E+03	2.448568E-03	2.395607E-05
4.342510E+03	2.421553E-03	2.369176E-05
4.344029E+03	2.394740E-03	2.342942E-05
4.345540E+03	2.364362E-03	2.313222E-05
4.347050E+03	2.336963E-03	2.286416E-05
4.348570E+03	2.312740E-03	2.262717E-05
4.350080E+03	2.287531E-03	2.238053E-05
4.351590E+03	2.262524E-03	2.213587E-05
4.353110E+03	2.237322E-03	2.188930E-05
4.354620E+03	2.210936E-03	2.163114E-05
4.356130E+03	2.183166E-03	2.135946E-05
4.357650E+03	2.154212E-03	2.107617E-05
4.359160E+03	2.127839E-03	2.081815E-05
4.360680E+03	2.105828E-03	2.060280E-05
4.362190E+03	2.088973E-03	2.043789E-05
4.363700E+03	2.075289E-03	2.030402E-05
4.365220E+03	2.059824E-03	2.015270E-05
4.366730E+03	2.043372E-03	1.999174E-05
4.368240E+03	2.029496E-03	1.985599E-05
4.369760E+03	2.017800E-03	1.974156E-05
4.371270E+03	2.008878E-03	1.965427E-05
4.372790E+03	2.003519E-03	1.960183E-05
4.374300E+03	2.000141E-03	1.956879E-05
4.375810E+03	2.000919E-03	1.957640E-05
4.377330E+03	2.005059E-03	1.961690E-05
4.378840E+03	2.007813E-03	1.964385E-05
4.380350E+03	2.008588E-03	1.965143E-05
4.381870E+03	2.007579E-03	1.964156E-05
