#wls	flux	fluxerr
1.600000E+03	1.081919E-16	1.286269E-20
1.640000E+03	1.086792E-16	1.292062E-20
1.680000E+03	1.091849E-16	1.298074E-20
1.720000E+03	1.097036E-16	1.304240E-20
1.760000E+03	1.102442E-16	1.310667E-20
1.800000E+03	1.108150E-16	1.317452E-20
1.840000E+03	1.114091E-16	1.324516E-20
1.880000E+03	1.120479E-16	1.332110E-20
1.920000E+03	1.127235E-16	1.340142E-20
1.960000E+03	1.134552E-16	1.348841E-20
2.000000E+03	1.142613E-16	1.358423E-20
2.040000E+03	1.151580E-16	1.369084E-20
2.080000E+03	1.161472E-16	1.380844E-20
2.120000E+03	1.172690E-16	1.394181E-20
2.160000E+03	1.185219E-16	1.409076E-20
2.200000E+03	1.199669E-16	1.426254E-20
2.240000E+03	1.215982E-16	1.445648E-20
2.280000E+03	1.234584E-16	1.467764E-20
2.320000E+03	1.255509E-16	1.492640E-20
2.360000E+03	1.279019E-16	1.520590E-20
2.400000E+03	1.304897E-16	1.551355E-20
2.440000E+03	1.333292E-16	1.585114E-20
2.480000E+03	1.364027E-16	1.621653E-20
2.520000E+03	1.397071E-16	1.660938E-20
2.560000E+03	1.432652E-16	1.703239E-20
2.600000E+03	1.470721E-16	1.748497E-20
2.640000E+03	1.511614E-16	1.797113E-20
2.680000E+03	1.555538E-16	1.849332E-20
2.720000E+03	1.603006E-16	1.905766E-20
2.760000E+03	1.654368E-16	1.966828E-20
2.800000E+03	1.710428E-16	2.033475E-20
2.840000E+03	1.772187E-16	2.106898E-20
2.880000E+03	1.840814E-16	2.188486E-20
2.920000E+03	1.917896E-16	2.280126E-20
2.960000E+03	2.005971E-16	2.384835E-20
3.000000E+03	2.108387E-16	2.506593E-20
3.010000E+03	2.136704E-16	2.540259E-20
3.020000E+03	2.166304E-16	2.575449E-20
3.030000E+03	2.197244E-16	2.612233E-20
3.040000E+03	2.229593E-16	2.650691E-20
3.050000E+03	2.263421E-16	2.690908E-20
3.060000E+03	2.298894E-16	2.733080E-20
3.070000E+03	2.336095E-16	2.777307E-20
3.080000E+03	2.375201E-16	2.823799E-20
3.090000E+03	2.416226E-16	2.872572E-20
3.100000E+03	2.459364E-16	2.923857E-20
3.110000E+03	2.504818E-16	2.977896E-20
3.120000E+03	2.552629E-16	3.034737E-20
3.130000E+03	2.603023E-16	3.094648E-20
3.140000E+03	2.656240E-16	3.157916E-20
3.150000E+03	2.712356E-16	3.224630E-20
3.160000E+03	2.771734E-16	3.295222E-20
3.170000E+03	2.834572E-16	3.369928E-20
3.180000E+03	2.900999E-16	3.448900E-20
3.190000E+03	2.971441E-16	3.532647E-20
3.200000E+03	3.046171E-16	3.621491E-20
3.210000E+03	3.125490E-16	3.715790E-20
3.220000E+03	3.209735E-16	3.815946E-20
3.230000E+03	3.299478E-16	3.922639E-20
3.240000E+03	3.395154E-16	4.036384E-20
3.250000E+03	3.497151E-16	4.157644E-20
3.260000E+03	3.606207E-16	4.287297E-20
3.270000E+03	3.722923E-16	4.426056E-20
3.280000E+03	3.847956E-16	4.574703E-20
3.290000E+03	3.982009E-16	4.734075E-20
3.300000E+03	4.126036E-16	4.905303E-20
3.310000E+03	4.280711E-16	5.089190E-20
3.320000E+03	4.446930E-16	5.286803E-20
3.330000E+03	4.625483E-16	5.499078E-20
3.340000E+03	4.817233E-16	5.727042E-20
3.350000E+03	5.022740E-16	5.971362E-20
3.360000E+03	5.242657E-16	6.232813E-20
3.370000E+03	5.477188E-16	6.511638E-20
3.380000E+03	5.726589E-16	6.808142E-20
3.390000E+03	5.990321E-16	7.121683E-20
3.400000E+03	6.267407E-16	7.451101E-20
3.410000E+03	6.556045E-16	7.794252E-20
3.420000E+03	6.853924E-16	8.148390E-20
3.430000E+03	7.157624E-16	8.509447E-20
3.440000E+03	7.462908E-16	8.872388E-20
3.450000E+03	7.765015E-16	9.231552E-20
3.460000E+03	8.058754E-16	9.580767E-20
3.470000E+03	8.338365E-16	9.913186E-20
3.480000E+03	8.598849E-16	1.022287E-19
3.490000E+03	8.835771E-16	1.050453E-19
3.500000E+03	9.045618E-16	1.075401E-19
3.510000E+03	9.226385E-16	1.096892E-19
3.520000E+03	9.377227E-16	1.114825E-19
3.530000E+03	9.499247E-16	1.129331E-19
3.540000E+03	9.594390E-16	1.140642E-19
3.550000E+03	9.666010E-16	1.149157E-19
3.560000E+03	9.718059E-16	1.155345E-19
3.570000E+03	9.754692E-16	1.159700E-19
3.580000E+03	9.780198E-16	1.162732E-19
3.590000E+03	9.797856E-16	1.164831E-19
3.600000E+03	9.808706E-16	1.166121E-19
3.610000E+03	9.808671E-16	1.166117E-19
3.620000E+03	9.790467E-16	1.163953E-19
3.630000E+03	9.746085E-16	1.158676E-19
3.640000E+03	9.667754E-16	1.149364E-19
3.650000E+03	9.548589E-16	1.135197E-19
3.660000E+03	9.383584E-16	1.115580E-19
3.670000E+03	9.170569E-16	1.090255E-19
3.680000E+03	8.910302E-16	1.059313E-19
3.690000E+03	8.606742E-16	1.023224E-19
3.700000E+03	8.267195E-16	9.828560E-20
3.710000E+03	7.901710E-16	9.394048E-20
3.720000E+03	7.522384E-16	8.943081E-20
3.730000E+03	7.142087E-16	8.490960E-20
3.740000E+03	6.773778E-16	8.053091E-20
3.750000E+03	6.429654E-16	7.643975E-20
3.760000E+03	6.120425E-16	7.276343E-20
3.770000E+03	5.855135E-16	6.960949E-20
3.780000E+03	5.641479E-16	6.706942E-20
3.781403E+03	4.751992E-16	5.649464E-20
3.784350E+03	4.592209E-16	5.459504E-20
3.787287E+03	4.416104E-16	5.250139E-20
3.790234E+03	4.238860E-16	5.039420E-20
3.793182E+03	4.085478E-16	4.857070E-20
3.796119E+03	3.864144E-16	4.593934E-20
3.799066E+03	3.610261E-16	4.292102E-20
3.802013E+03	3.433109E-16	4.081493E-20
3.804960E+03	3.296733E-16	3.919360E-20
3.807897E+03	3.163113E-16	3.760505E-20
3.810844E+03	3.063756E-16	3.642383E-20
3.813791E+03	2.976479E-16	3.538622E-20
3.816729E+03	2.875453E-16	3.418517E-20
3.819676E+03	2.918003E-16	3.469103E-20
3.822623E+03	3.062171E-16	3.640499E-20
3.825570E+03	3.169545E-16	3.768152E-20
3.828507E+03	3.360645E-16	3.995343E-20
3.831454E+03	3.549935E-16	4.220382E-20
3.834401E+03	3.655898E-16	4.346358E-20
3.837349E+03	3.794310E-16	4.510911E-20
3.840286E+03	3.922300E-16	4.663072E-20
3.843233E+03	3.968415E-16	4.717897E-20
3.846180E+03	4.045542E-16	4.809590E-20
3.849117E+03	4.221732E-16	5.019056E-20
3.852064E+03	4.366415E-16	5.191064E-20
3.855011E+03	4.472760E-16	5.317493E-20
3.857958E+03	4.633397E-16	5.508469E-20
3.860896E+03	4.801552E-16	5.708382E-20
3.863843E+03	5.024905E-16	5.973917E-20
3.866790E+03	5.317227E-16	6.321447E-20
3.869737E+03	5.632324E-16	6.696054E-20
3.872674E+03	5.952156E-16	7.076289E-20
3.875621E+03	6.258245E-16	7.440186E-20
3.878568E+03	6.586405E-16	7.830324E-20
3.881505E+03	6.925463E-16	8.233416E-20
3.884452E+03	7.259383E-16	8.630401E-20
3.887400E+03	7.621276E-16	9.060642E-20
3.890347E+03	7.955191E-16	9.457620E-20
3.893284E+03	8.298985E-16	9.866343E-20
3.896231E+03	8.651960E-16	1.028598E-19
3.899178E+03	8.977429E-16	1.067292E-19
3.902125E+03	9.338854E-16	1.110260E-19
3.905062E+03	9.765155E-16	1.160941E-19
3.908010E+03	1.016621E-15	1.208622E-19
3.910957E+03	1.052887E-15	1.251737E-19
3.913894E+03	1.087298E-15	1.292647E-19
3.916841E+03	1.122919E-15	1.334995E-19
3.919788E+03	1.157510E-15	1.376119E-19
3.922735E+03	1.189874E-15	1.414595E-19
3.925672E+03	1.222429E-15	1.453299E-19
3.928619E+03	1.255723E-15	1.492880E-19
3.931567E+03	1.289972E-15	1.533597E-19
3.934514E+03	1.324739E-15	1.574931E-19
3.937451E+03	1.358599E-15	1.615186E-19
3.940398E+03	1.395714E-15	1.659310E-19
3.943345E+03	1.430494E-15	1.700659E-19
3.946282E+03	1.465463E-15	1.742232E-19
3.949229E+03	1.502695E-15	1.786496E-19
3.952177E+03	1.537924E-15	1.828378E-19
3.955124E+03	1.575086E-15	1.872559E-19
3.958061E+03	1.616151E-15	1.921379E-19
3.961008E+03	1.649201E-15	1.960670E-19
3.963955E+03	1.682764E-15	2.000573E-19
3.966892E+03	1.724264E-15	2.049910E-19
3.969839E+03	1.764850E-15	2.098161E-19
3.972787E+03	1.800162E-15	2.140143E-19
3.975734E+03	1.839473E-15	2.186878E-19
3.978671E+03	1.881580E-15	2.236937E-19
3.981618E+03	1.924842E-15	2.288369E-19
3.984565E+03	1.968061E-15	2.339750E-19
3.987512E+03	2.004927E-15	2.383579E-19
3.990449E+03	2.037193E-15	2.421939E-19
3.993396E+03	2.065836E-15	2.455992E-19
3.996343E+03	2.088475E-15	2.482906E-19
3.999281E+03	2.102839E-15	2.499982E-19
4.002228E+03	2.114469E-15	2.513809E-19
4.005175E+03	2.125868E-15	2.527361E-19
4.008122E+03	2.131613E-15	2.534191E-19
4.011059E+03	2.134319E-15	2.537407E-19
4.014006E+03	2.140804E-15	2.545118E-19
4.016953E+03	2.142408E-15	2.547025E-19
4.019901E+03	2.137945E-15	2.541718E-19
4.022838E+03	2.132620E-15	2.535387E-19
4.025785E+03	2.126752E-15	2.528411E-19
4.028732E+03	2.118615E-15	2.518738E-19
4.031669E+03	2.104221E-15	2.501625E-19
4.034616E+03	2.085836E-15	2.479768E-19
4.037563E+03	2.069732E-15	2.460623E-19
4.040510E+03	2.057307E-15	2.445851E-19
4.043448E+03	2.043169E-15	2.429043E-19
4.046395E+03	2.027743E-15	2.410704E-19
4.049342E+03	2.015777E-15	2.396478E-19
4.052279E+03	2.003930E-15	2.382393E-19
4.055226E+03	1.988858E-15	2.364474E-19
4.058173E+03	1.972291E-15	2.344779E-19
4.061120E+03	1.949286E-15	2.317429E-19
4.064057E+03	1.928238E-15	2.292406E-19
4.067005E+03	1.910318E-15	2.271102E-19
4.069952E+03	1.890588E-15	2.247645E-19
4.072899E+03	1.871519E-15	2.224974E-19
4.075836E+03	1.851287E-15	2.200922E-19
4.078783E+03	1.832677E-15	2.178797E-19
4.081730E+03	1.815583E-15	2.158475E-19
4.084667E+03	1.797436E-15	2.136900E-19
4.087615E+03	1.783474E-15	2.120301E-19
4.090562E+03	1.768988E-15	2.103079E-19
4.093509E+03	1.752696E-15	2.083711E-19
4.096446E+03	1.739413E-15	2.067919E-19
4.099393E+03	1.724963E-15	2.050740E-19
4.102340E+03	1.708282E-15	2.030908E-19
4.105287E+03	1.692362E-15	2.011982E-19
4.108224E+03	1.674966E-15	1.991300E-19
4.111172E+03	1.658327E-15	1.971519E-19
4.114119E+03	1.643088E-15	1.953402E-19
4.117056E+03	1.628079E-15	1.935557E-19
4.120003E+03	1.608821E-15	1.912663E-19
4.122950E+03	1.591921E-15	1.892571E-19
4.125897E+03	1.580458E-15	1.878944E-19
4.128834E+03	1.568795E-15	1.865078E-19
4.131782E+03	1.558838E-15	1.853240E-19
4.134729E+03	1.550588E-15	1.843432E-19
4.137676E+03	1.540859E-15	1.831865E-19
4.140613E+03	1.529548E-15	1.818418E-19
4.143560E+03	1.519835E-15	1.806871E-19
4.146507E+03	1.512672E-15	1.798355E-19
4.149444E+03	1.506470E-15	1.790982E-19
4.152391E+03	1.496670E-15	1.779331E-19
4.155339E+03	1.487514E-15	1.768445E-19
4.158286E+03	1.483016E-15	1.763098E-19
4.161223E+03	1.478946E-15	1.758259E-19
4.164170E+03	1.472341E-15	1.750406E-19
4.167117E+03	1.468062E-15	1.745319E-19
4.170054E+03	1.466320E-15	1.743249E-19
4.173001E+03	1.466683E-15	1.743681E-19
4.175949E+03	1.466937E-15	1.743983E-19
4.178896E+03	1.465610E-15	1.742405E-19
4.181833E+03	1.468600E-15	1.745959E-19
4.184780E+03	1.474527E-15	1.753005E-19
4.187727E+03	1.478447E-15	1.757666E-19
4.190674E+03	1.480680E-15	1.760320E-19
4.193611E+03	1.481440E-15	1.761224E-19
4.196558E+03	1.483558E-15	1.763742E-19
4.199506E+03	1.487560E-15	1.768500E-19
4.202443E+03	1.490195E-15	1.771633E-19
4.205390E+03	1.491355E-15	1.773011E-19
4.208337E+03	1.490521E-15	1.772019E-19
4.211284E+03	1.489267E-15	1.770529E-19
4.214221E+03	1.488851E-15	1.770035E-19
4.217168E+03	1.486968E-15	1.767796E-19
4.220115E+03	1.483412E-15	1.763568E-19
4.223063E+03	1.479753E-15	1.759218E-19
4.226000E+03	1.477664E-15	1.756735E-19
4.228947E+03	1.477555E-15	1.756604E-19
4.231894E+03	1.477652E-15	1.756720E-19
4.234831E+03	1.477123E-15	1.756092E-19
4.237778E+03	1.474821E-15	1.753355E-19
4.240725E+03	1.473871E-15	1.752226E-19
4.243672E+03	1.474897E-15	1.753444E-19
4.246610E+03	1.472699E-15	1.750832E-19
4.249557E+03	1.468628E-15	1.745992E-19
4.252504E+03	1.466845E-15	1.743872E-19
4.255441E+03	1.464544E-15	1.741136E-19
4.258388E+03	1.461308E-15	1.737289E-19
4.261335E+03	1.456311E-15	1.731349E-19
4.264282E+03	1.449660E-15	1.723441E-19
4.267220E+03	1.439497E-15	1.711359E-19
4.270167E+03	1.431101E-15	1.701377E-19
4.273114E+03	1.423331E-15	1.692140E-19
4.276061E+03	1.414226E-15	1.681315E-19
4.278998E+03	1.406267E-15	1.671853E-19
4.281945E+03	1.397797E-15	1.661784E-19
4.284892E+03	1.389439E-15	1.651847E-19
4.287829E+03	1.382121E-15	1.643147E-19
4.290776E+03	1.375736E-15	1.635556E-19
4.293724E+03	1.369355E-15	1.627970E-19
4.296671E+03	1.362156E-15	1.619411E-19
4.299608E+03	1.351675E-15	1.606951E-19
4.302555E+03	1.342229E-15	1.595721E-19
4.305502E+03	1.332793E-15	1.584503E-19
4.308449E+03	1.322031E-15	1.571708E-19
4.311386E+03	1.312002E-15	1.559785E-19
4.314334E+03	1.303928E-15	1.550186E-19
4.317281E+03	1.295247E-15	1.539866E-19
4.320218E+03	1.283914E-15	1.526392E-19
4.323165E+03	1.271976E-15	1.512199E-19
4.326112E+03	1.262198E-15	1.500575E-19
4.329059E+03	1.254578E-15	1.491516E-19
4.331996E+03	1.247479E-15	1.483076E-19
4.334944E+03	1.239771E-15	1.473912E-19
4.337891E+03	1.229928E-15	1.462210E-19
4.340838E+03	1.218157E-15	1.448216E-19
4.343775E+03	1.207216E-15	1.435209E-19
4.346722E+03	1.195775E-15	1.421607E-19
4.349669E+03	1.183227E-15	1.406689E-19
4.352606E+03	1.171814E-15	1.393121E-19
4.355553E+03	1.160511E-15	1.379684E-19
4.358501E+03	1.148003E-15	1.364813E-19
4.361448E+03	1.138454E-15	1.353461E-19
4.364385E+03	1.129322E-15	1.342604E-19
4.367332E+03	1.122633E-15	1.334652E-19
4.370279E+03	1.116660E-15	1.327550E-19
4.373216E+03	1.112821E-15	1.322987E-19
4.376163E+03	1.112224E-15	1.322277E-19
4.379110E+03	1.111829E-15	1.321807E-19
4.382058E+03	1.112240E-15	1.322296E-19
4.384995E+03	1.114370E-15	1.324828E-19
4.387942E+03	1.119826E-15	1.331315E-19
4.390889E+03	1.126384E-15	1.339111E-19
4.393836E+03	1.134141E-15	1.348333E-19
4.396773E+03	1.143906E-15	1.359942E-19
4.399720E+03	1.154359E-15	1.372369E-19
4.402667E+03	1.163186E-15	1.382864E-19
4.405605E+03	1.171902E-15	1.393226E-19
4.408552E+03	1.178291E-15	1.400821E-19
4.411499E+03	1.185776E-15	1.409719E-19
4.414446E+03	1.192144E-15	1.417290E-19
4.417383E+03	1.197400E-15	1.423539E-19
4.420330E+03	1.204351E-15	1.431803E-19
4.423277E+03	1.210489E-15	1.439100E-19
4.426225E+03	1.215416E-15	1.444957E-19
4.429162E+03	1.219937E-15	1.450332E-19
4.432109E+03	1.223647E-15	1.454742E-19
4.435056E+03	1.228150E-15	1.460096E-19
4.437993E+03	1.232248E-15	1.464968E-19
4.440940E+03	1.236137E-15	1.469591E-19
4.443887E+03	1.240318E-15	1.474562E-19
4.446834E+03	1.245388E-15	1.480589E-19
4.449772E+03	1.249756E-15	1.485782E-19
4.452719E+03	1.254312E-15	1.491199E-19
4.455666E+03	1.259357E-15	1.497196E-19
4.458613E+03	1.263499E-15	1.502121E-19
4.461550E+03	1.267934E-15	1.507393E-19
4.464497E+03	1.271664E-15	1.511828E-19
4.467444E+03	1.277173E-15	1.518378E-19
4.470382E+03	1.283667E-15	1.526098E-19
4.473329E+03	1.291931E-15	1.535923E-19
4.476276E+03	1.302461E-15	1.548441E-19
4.479223E+03	1.314261E-15	1.562470E-19
4.482160E+03	1.326838E-15	1.577422E-19
4.485107E+03	1.338799E-15	1.591642E-19
4.488054E+03	1.352817E-15	1.608307E-19
4.490991E+03	1.368495E-15	1.626946E-19
4.493939E+03	1.383160E-15	1.644380E-19
4.496886E+03	1.398099E-15	1.662141E-19
4.499833E+03	1.414198E-15	1.681281E-19
4.502770E+03	1.429981E-15	1.700044E-19
4.505717E+03	1.445442E-15	1.718424E-19
4.508664E+03	1.462158E-15	1.738298E-19
4.511611E+03	1.477866E-15	1.756972E-19
4.514548E+03	1.495322E-15	1.777725E-19
4.517496E+03	1.513239E-15	1.799025E-19
4.520443E+03	1.532305E-15	1.821693E-19
4.523380E+03	1.549780E-15	1.842468E-19
4.526327E+03	1.566832E-15	1.862741E-19
4.529274E+03	1.586501E-15	1.886123E-19
4.532221E+03	1.605261E-15	1.908427E-19
4.535158E+03	1.626732E-15	1.933952E-19
4.538105E+03	1.650901E-15	1.962686E-19
4.541053E+03	1.673375E-15	1.989404E-19
4.543990E+03	1.694553E-15	2.014582E-19
4.546937E+03	1.715987E-15	2.040064E-19
4.549884E+03	1.737389E-15	2.065508E-19
4.552831E+03	1.759051E-15	2.091261E-19
4.555768E+03	1.781559E-15	2.118020E-19
4.558715E+03	1.804224E-15	2.144965E-19
4.561663E+03	1.826369E-15	2.171293E-19
4.564610E+03	1.849937E-15	2.199311E-19
4.567547E+03	1.871824E-15	2.225332E-19
4.570494E+03	1.890379E-15	2.247392E-19
4.573441E+03	1.909681E-15	2.270338E-19
4.576388E+03	1.927985E-15	2.292100E-19
4.579325E+03	1.944428E-15	2.311648E-19
4.582273E+03	1.961034E-15	2.331390E-19
4.585220E+03	1.974621E-15	2.347543E-19
4.588157E+03	1.988577E-15	2.364134E-19
4.591104E+03	2.001445E-15	2.379432E-19
4.594051E+03	2.012654E-15	2.392758E-19
4.596998E+03	2.022303E-15	2.404229E-19
4.599935E+03	2.032134E-15	2.415917E-19
4.602882E+03	2.039443E-15	2.424607E-19
4.605829E+03	2.045490E-15	2.431795E-19
4.608767E+03	2.052010E-15	2.439547E-19
4.611714E+03	2.056499E-15	2.444884E-19
4.614661E+03	2.060596E-15	2.449754E-19
4.617608E+03	2.063725E-15	2.453475E-19
4.620545E+03	2.066182E-15	2.456396E-19
4.623492E+03	2.066810E-15	2.457142E-19
4.626439E+03	2.067914E-15	2.458454E-19
4.629387E+03	2.068725E-15	2.459418E-19
4.632324E+03	2.069156E-15	2.459930E-19
4.635271E+03	2.071391E-15	2.462588E-19
4.638218E+03	2.072096E-15	2.463426E-19
4.641155E+03	2.070420E-15	2.461434E-19
4.644102E+03	2.071024E-15	2.462151E-19
4.647049E+03	2.074382E-15	2.466144E-19
4.649997E+03	2.077069E-15	2.469338E-19
4.652934E+03	2.077949E-15	2.470384E-19
4.655881E+03	2.078061E-15	2.470517E-19
4.658828E+03	2.077695E-15	2.470082E-19
4.661775E+03	2.079224E-15	2.471900E-19
4.664712E+03	2.080279E-15	2.473154E-19
4.667659E+03	2.079149E-15	2.471811E-19
4.670606E+03	2.077261E-15	2.469566E-19
4.673543E+03	2.075379E-15	2.467328E-19
4.676491E+03	2.072453E-15	2.463850E-19
4.679438E+03	2.068207E-15	2.458803E-19
4.682385E+03	2.066324E-15	2.456563E-19
4.685322E+03	2.061524E-15	2.450857E-19
4.688269E+03	2.051640E-15	2.439106E-19
4.691216E+03	2.042708E-15	2.428487E-19
4.694153E+03	2.034544E-15	2.418782E-19
4.697100E+03	2.024318E-15	2.406625E-19
4.700048E+03	2.012133E-15	2.392139E-19
4.702995E+03	1.999964E-15	2.377671E-19
4.705932E+03	1.986597E-15	2.361780E-19
4.708879E+03	1.974180E-15	2.347017E-19
4.711826E+03	1.960374E-15	2.330604E-19
4.714773E+03	1.943406E-15	2.310431E-19
4.717710E+03	1.927868E-15	2.291959E-19
4.720658E+03	1.913466E-15	2.274837E-19
4.723605E+03	1.896751E-15	2.254965E-19
4.726552E+03	1.879872E-15	2.234899E-19
4.729489E+03	1.863859E-15	2.215861E-19
4.732436E+03	1.847119E-15	2.195959E-19
4.735383E+03	1.832728E-15	2.178851E-19
4.738320E+03	1.817803E-15	2.161107E-19
4.741267E+03	1.803452E-15	2.144046E-19
4.744215E+03	1.789677E-15	2.127669E-19
4.747162E+03	1.773508E-15	2.108447E-19
4.750099E+03	1.756255E-15	2.087935E-19
4.753046E+03	1.741336E-15	2.070198E-19
4.755993E+03	1.728567E-15	2.055018E-19
4.758930E+03	1.716006E-15	2.040085E-19
4.761877E+03	1.702070E-15	2.023517E-19
4.764825E+03	1.685660E-15	2.004008E-19
4.767772E+03	1.667887E-15	1.982879E-19
4.770709E+03	1.649498E-15	1.961017E-19
4.773656E+03	1.630210E-15	1.938085E-19
4.776603E+03	1.608461E-15	1.912230E-19
4.779550E+03	1.585548E-15	1.884989E-19
4.782487E+03	1.562763E-15	1.857901E-19
4.785435E+03	1.539455E-15	1.830191E-19
4.788382E+03	1.515905E-15	1.802194E-19
4.791319E+03	1.493494E-15	1.775550E-19
4.794266E+03	1.470104E-15	1.747743E-19
4.797213E+03	1.443631E-15	1.716270E-19
4.800160E+03	1.416739E-15	1.684299E-19
4.803097E+03	1.390072E-15	1.652596E-19
4.806044E+03	1.363898E-15	1.621479E-19
4.808992E+03	1.339406E-15	1.592361E-19
4.811929E+03	1.315592E-15	1.564050E-19
4.814876E+03	1.294911E-15	1.539464E-19
4.817823E+03	1.275901E-15	1.516863E-19
4.820770E+03	1.257556E-15	1.495054E-19
4.823707E+03	1.242063E-15	1.476634E-19
4.826654E+03	1.230772E-15	1.463211E-19
4.829601E+03	1.220952E-15	1.451536E-19
4.832549E+03	1.211055E-15	1.439770E-19
4.835486E+03	1.203806E-15	1.431152E-19
4.838433E+03	1.198923E-15	1.425347E-19
4.841380E+03	1.194499E-15	1.420088E-19
4.844317E+03	1.190267E-15	1.415056E-19
4.847264E+03	1.189022E-15	1.413576E-19
4.850211E+03	1.188774E-15	1.413281E-19
4.853158E+03	1.188254E-15	1.412663E-19
4.856096E+03	1.187286E-15	1.411512E-19
4.859043E+03	1.186137E-15	1.410146E-19
4.861990E+03	1.185979E-15	1.409959E-19
4.864927E+03	1.186456E-15	1.410526E-19
4.867874E+03	1.185849E-15	1.409803E-19
4.870821E+03	1.183892E-15	1.407477E-19
4.873768E+03	1.181849E-15	1.405048E-19
4.876706E+03	1.179451E-15	1.402198E-19
4.879653E+03	1.175888E-15	1.397962E-19
4.882600E+03	1.171523E-15	1.392772E-19
4.885547E+03	1.167253E-15	1.387696E-19
4.888484E+03	1.164067E-15	1.383908E-19
4.891431E+03	1.161509E-15	1.380867E-19
4.894378E+03	1.158508E-15	1.377300E-19
4.897325E+03	1.156316E-15	1.374693E-19
4.900262E+03	1.156987E-15	1.375491E-19
4.903210E+03	1.161400E-15	1.380737E-19
4.906157E+03	1.167859E-15	1.388416E-19
4.909094E+03	1.173864E-15	1.395555E-19
4.912041E+03	1.182351E-15	1.405646E-19
4.914988E+03	1.196520E-15	1.422490E-19
4.917935E+03	1.213868E-15	1.443114E-19
4.920872E+03	1.230749E-15	1.463184E-19
4.923820E+03	1.249557E-15	1.485543E-19
4.926767E+03	1.271529E-15	1.511665E-19
4.929704E+03	1.297286E-15	1.542286E-19
4.932651E+03	1.325215E-15	1.575489E-19
4.935598E+03	1.353724E-15	1.609382E-19
4.938545E+03	1.382280E-15	1.643331E-19
4.941482E+03	1.410002E-15	1.676289E-19
4.944430E+03	1.438830E-15	1.710561E-19
4.947377E+03	1.469205E-15	1.746673E-19
4.950324E+03	1.499448E-15	1.782628E-19
