#wls	flux	fluxerr
1.600000E+03	9.217891E-18	2.206660E-19
1.640000E+03	9.223305E-18	2.204634E-19
1.680000E+03	9.230706E-18	2.203004E-19
1.720000E+03	9.240232E-18	2.201800E-19
1.760000E+03	9.252036E-18	2.201055E-19
1.800000E+03	9.264710E-18	2.200431E-19
1.840000E+03	9.281622E-18	2.200723E-19
1.880000E+03	9.301409E-18	2.201605E-19
1.920000E+03	9.324322E-18	2.203130E-19
1.960000E+03	9.352215E-18	2.205730E-19
2.000000E+03	9.382251E-18	2.208731E-19
2.040000E+03	9.417927E-18	2.212949E-19
2.080000E+03	9.458059E-18	2.218099E-19
2.120000E+03	9.504650E-18	2.224642E-19
2.160000E+03	9.556607E-18	2.232312E-19
2.200000E+03	9.616032E-18	2.241591E-19
2.240000E+03	9.681942E-18	2.252237E-19
2.280000E+03	9.754983E-18	2.264390E-19
2.320000E+03	9.839030E-18	2.278935E-19
2.360000E+03	9.931717E-18	2.295307E-19
2.400000E+03	1.003550E-17	2.314057E-19
2.440000E+03	1.015135E-17	2.335388E-19
2.480000E+03	1.028032E-17	2.359523E-19
2.520000E+03	1.042197E-17	2.386337E-19
2.560000E+03	1.058080E-17	2.416835E-19
2.600000E+03	1.075662E-17	2.450942E-19
2.640000E+03	1.095096E-17	2.488975E-19
2.680000E+03	1.116720E-17	2.531666E-19
2.720000E+03	1.140383E-17	2.578635E-19
2.760000E+03	1.166624E-17	2.631059E-19
2.800000E+03	1.195498E-17	2.689011E-19
2.840000E+03	1.227422E-17	2.753380E-19
2.880000E+03	1.262667E-17	2.824712E-19
2.920000E+03	1.301345E-17	2.903196E-19
2.960000E+03	1.343768E-17	2.989459E-19
3.000000E+03	1.390468E-17	3.084614E-19
3.010000E+03	1.403008E-17	3.110216E-19
3.020000E+03	1.415614E-17	3.135922E-19
3.030000E+03	1.428683E-17	3.162610E-19
3.040000E+03	1.441827E-17	3.189419E-19
3.050000E+03	1.455450E-17	3.217240E-19
3.060000E+03	1.469358E-17	3.245645E-19
3.070000E+03	1.483558E-17	3.274646E-19
3.080000E+03	1.498263E-17	3.304712E-19
3.090000E+03	1.513069E-17	3.334951E-19
3.100000E+03	1.528394E-17	3.366282E-19
3.110000E+03	1.544041E-17	3.398269E-19
3.120000E+03	1.560016E-17	3.430923E-19
3.130000E+03	1.576539E-17	3.464729E-19
3.140000E+03	1.593194E-17	3.498769E-19
3.150000E+03	1.610414E-17	3.533992E-19
3.160000E+03	1.627779E-17	3.569475E-19
3.170000E+03	1.645725E-17	3.606175E-19
3.180000E+03	1.664270E-17	3.644124E-19
3.190000E+03	1.682980E-17	3.682371E-19
3.200000E+03	1.702082E-17	3.721415E-19
3.210000E+03	1.721811E-17	3.761764E-19
3.220000E+03	1.741952E-17	3.802947E-19
3.230000E+03	1.762515E-17	3.844983E-19
3.240000E+03	1.783507E-17	3.887887E-19
3.250000E+03	1.805174E-17	3.932192E-19
3.260000E+03	1.827056E-17	3.976894E-19
3.270000E+03	1.849633E-17	4.023036E-19
3.280000E+03	1.872683E-17	4.070133E-19
3.290000E+03	1.896212E-17	4.118195E-19
3.300000E+03	1.920233E-17	4.167249E-19
3.310000E+03	1.945003E-17	4.217847E-19
3.320000E+03	1.970037E-17	4.268939E-19
3.330000E+03	1.995846E-17	4.321628E-19
3.340000E+03	2.022192E-17	4.375398E-19
3.350000E+03	2.049086E-17	4.430266E-19
3.360000E+03	2.076799E-17	4.486819E-19
3.370000E+03	2.104826E-17	4.543960E-19
3.380000E+03	2.133699E-17	4.602840E-19
3.390000E+03	2.163170E-17	4.662918E-19
3.400000E+03	2.193253E-17	4.724220E-19
3.410000E+03	2.223959E-17	4.786771E-19
3.420000E+03	2.255299E-17	4.850589E-19
3.430000E+03	2.287568E-17	4.916307E-19
3.440000E+03	2.320221E-17	4.982750E-19
3.450000E+03	2.353834E-17	5.051151E-19
3.460000E+03	2.388139E-17	5.120935E-19
3.470000E+03	2.423150E-17	5.192128E-19
3.480000E+03	2.459180E-17	5.265394E-19
3.490000E+03	2.495649E-17	5.339494E-19
3.500000E+03	2.533171E-17	5.415733E-19
3.510000E+03	2.571461E-17	5.493504E-19
3.520000E+03	2.610537E-17	5.572837E-19
3.530000E+03	2.650411E-17	5.653757E-19
3.540000E+03	2.691099E-17	5.736297E-19
3.550000E+03	2.732939E-17	5.821172E-19
3.560000E+03	2.775305E-17	5.907044E-19
3.570000E+03	2.818862E-17	5.995328E-19
3.580000E+03	2.863304E-17	6.085368E-19
3.590000E+03	2.908646E-17	6.177194E-19
3.600000E+03	2.954906E-17	6.270839E-19
3.610000E+03	3.002447E-17	6.367071E-19
3.620000E+03	3.050595E-17	6.464459E-19
3.630000E+03	3.100067E-17	6.564516E-19
3.640000E+03	3.150533E-17	6.666540E-19
3.650000E+03	3.202010E-17	6.770567E-19
3.660000E+03	3.254516E-17	6.876627E-19
3.670000E+03	3.308068E-17	6.984758E-19
3.680000E+03	3.363064E-17	7.095792E-19
3.690000E+03	3.418769E-17	7.208177E-19
3.700000E+03	3.475963E-17	7.323554E-19
3.710000E+03	3.533891E-17	7.440331E-19
3.720000E+03	3.593356E-17	7.560193E-19
3.730000E+03	3.653988E-17	7.682358E-19
3.740000E+03	3.716214E-17	7.807720E-19
3.750000E+03	3.779237E-17	7.934602E-19
3.760000E+03	3.843481E-17	8.063893E-19
3.770000E+03	3.909392E-17	8.196524E-19
3.780000E+03	3.976139E-17	8.330748E-19
3.790000E+03	4.044600E-17	8.468404E-19
3.800000E+03	4.114365E-17	8.608630E-19
3.810000E+03	4.185453E-17	8.751461E-19
3.820000E+03	4.257880E-17	8.896928E-19
3.830000E+03	4.331661E-17	9.045063E-19
3.840000E+03	4.406816E-17	9.195901E-19
3.850000E+03	4.483356E-17	9.349466E-19
3.860000E+03	4.561782E-17	9.506797E-19
3.870000E+03	4.641145E-17	9.665917E-19
3.880000E+03	4.722433E-17	9.828878E-19
3.890000E+03	4.804668E-17	9.993645E-19
3.900000E+03	4.888864E-17	1.016232E-18
3.910000E+03	4.974528E-17	1.033389E-18
3.920000E+03	5.061669E-17	1.050836E-18
3.930000E+03	5.150291E-17	1.068573E-18
3.940000E+03	5.240397E-17	1.086602E-18
3.950000E+03	5.331984E-17	1.104922E-18
3.960000E+03	5.425050E-17	1.123532E-18
3.970000E+03	5.519587E-17	1.142431E-18
3.980000E+03	5.615585E-17	1.161616E-18
3.990000E+03	5.713608E-17	1.181205E-18
4.000000E+03	5.812486E-17	1.200954E-18
4.010000E+03	5.912768E-17	1.220979E-18
4.020000E+03	6.015025E-17	1.241396E-18
4.030000E+03	6.118026E-17	1.261952E-18
4.040000E+03	6.222321E-17	1.282760E-18
4.050000E+03	6.328492E-17	1.303942E-18
4.060000E+03	6.435232E-17	1.325227E-18
4.070000E+03	6.543745E-17	1.346863E-18
4.080000E+03	6.652671E-17	1.368573E-18
4.090000E+03	6.763232E-17	1.390606E-18
4.100000E+03	6.874015E-17	1.412674E-18
4.110000E+03	6.986256E-17	1.435029E-18
4.120000E+03	7.098486E-17	1.457373E-18
4.130000E+03	7.211955E-17	1.479961E-18
4.140000E+03	7.325138E-17	1.502482E-18
4.150000E+03	7.439296E-17	1.525194E-18
4.160000E+03	7.552851E-17	1.547775E-18
4.170000E+03	7.667073E-17	1.570487E-18
4.180000E+03	7.780331E-17	1.592996E-18
4.190000E+03	7.893161E-17	1.615412E-18
4.200000E+03	8.006127E-17	1.637853E-18
4.210000E+03	8.117525E-17	1.659970E-18
4.220000E+03	8.227899E-17	1.681877E-18
4.230000E+03	8.337047E-17	1.703533E-18
4.240000E+03	8.445555E-17	1.725059E-18
4.250000E+03	8.551659E-17	1.746096E-18
4.260000E+03	8.655955E-17	1.766768E-18
4.270000E+03	8.758276E-17	1.787040E-18
4.280000E+03	8.858475E-17	1.806886E-18
4.290000E+03	8.955611E-17	1.826114E-18
4.300000E+03	9.051241E-17	1.845044E-18
4.310000E+03	9.144508E-17	1.863501E-18
4.320000E+03	9.234578E-17	1.881318E-18
4.330000E+03	9.323191E-17	1.898851E-18
4.340000E+03	9.408784E-17	1.915781E-18
4.350000E+03	9.492392E-17	1.932322E-18
4.360000E+03	9.575141E-17	1.948704E-18
4.370000E+03	9.655643E-17	1.964645E-18
4.380000E+03	9.735165E-17	1.980405E-18
4.390000E+03	9.813285E-17	1.995898E-18
4.400000E+03	9.891724E-17	2.011476E-18
4.410000E+03	9.969112E-17	2.026861E-18
4.420000E+03	1.004409E-16	2.041777E-18
4.430000E+03	1.011710E-16	2.056319E-18
4.440000E+03	1.018869E-16	2.070594E-18
4.450000E+03	1.025675E-16	2.084176E-18
4.460000E+03	1.032191E-16	2.097195E-18
4.470000E+03	1.038307E-16	2.109429E-18
4.480000E+03	1.044189E-16	2.121216E-18
4.490000E+03	1.049647E-16	2.132170E-18
4.500000E+03	1.054858E-16	2.142651E-18
4.510000E+03	1.059640E-16	2.152290E-18
4.520000E+03	1.064088E-16	2.161278E-18
4.530000E+03	1.068208E-16	2.169632E-18
4.540000E+03	1.071920E-16	2.177184E-18
4.550000E+03	1.075420E-16	2.184334E-18
4.560000E+03	1.078537E-16	2.190737E-18
4.570000E+03	1.081381E-16	2.196613E-18
4.580000E+03	1.083969E-16	2.201997E-18
4.590000E+03	1.086319E-16	2.206926E-18
4.600000E+03	1.088357E-16	2.211250E-18
4.610000E+03	1.090287E-16	2.215383E-18
4.620000E+03	1.091945E-16	2.218990E-18
4.630000E+03	1.093441E-16	2.222295E-18
4.640000E+03	1.094795E-16	2.225338E-18
4.650000E+03	1.095933E-16	2.227969E-18
4.660000E+03	1.097057E-16	2.230598E-18
4.670000E+03	1.098001E-16	2.232888E-18
4.680000E+03	1.098875E-16	2.235060E-18
4.690000E+03	1.099603E-16	2.236960E-18
4.700000E+03	1.100384E-16	2.238993E-18
4.710000E+03	1.101051E-16	2.240817E-18
4.720000E+03	1.101708E-16	2.242646E-18
4.730000E+03	1.102369E-16	2.244508E-18
4.740000E+03	1.103049E-16	2.246431E-18
4.750000E+03	1.103667E-16	2.248252E-18
4.760000E+03	1.104328E-16	2.250181E-18
4.770000E+03	1.105040E-16	2.252238E-18
4.780000E+03	1.105815E-16	2.254446E-18
4.790000E+03	1.106573E-16	2.256640E-18
4.800000E+03	1.107413E-16	2.259025E-18
4.810000E+03	1.108344E-16	2.261616E-18
4.820000E+03	1.109372E-16	2.264428E-18
4.830000E+03	1.110419E-16	2.267298E-18
4.840000E+03	1.111668E-16	2.270602E-18
4.850000E+03	1.112858E-16	2.273807E-18
4.860000E+03	1.114265E-16	2.277475E-18
4.870000E+03	1.115803E-16	2.281433E-18
4.880000E+03	1.117390E-16	2.285512E-18
4.890000E+03	1.119120E-16	2.289903E-18
4.900000E+03	1.120999E-16	2.294618E-18
4.910000E+03	1.122940E-16	2.299482E-18
4.920000E+03	1.125039E-16	2.304688E-18
4.930000E+03	1.127297E-16	2.310243E-18
4.940000E+03	1.129719E-16	2.316153E-18
4.950000E+03	1.132220E-16	2.322244E-18
4.960000E+03	1.134890E-16	2.328704E-18
4.970000E+03	1.137733E-16	2.335537E-18
4.980000E+03	1.140752E-16	2.342755E-18
4.990000E+03	1.143859E-16	2.350172E-18
5.000000E+03	1.147235E-16	2.358164E-18
5.010000E+03	1.150614E-16	2.366182E-18
5.020000E+03	1.154265E-16	2.374781E-18
5.030000E+03	1.158011E-16	2.383594E-18
5.040000E+03	1.161940E-16	2.392808E-18
5.050000E+03	1.166056E-16	2.402427E-18
5.060000E+03	1.170359E-16	2.412452E-18
5.070000E+03	1.174758E-16	2.422697E-18
5.080000E+03	1.179341E-16	2.433345E-18
5.090000E+03	1.184112E-16	2.444401E-18
5.100000E+03	1.188975E-16	2.455670E-18
5.110000E+03	1.194115E-16	2.467533E-18
5.120000E+03	1.199346E-16	2.479604E-18
5.130000E+03	1.204663E-16	2.491880E-18
5.140000E+03	1.210253E-16	2.504741E-18
5.150000E+03	1.215924E-16	2.517793E-18
5.160000E+03	1.221768E-16	2.531227E-18
5.170000E+03	1.227781E-16	2.545035E-18
5.180000E+03	1.233865E-16	2.559012E-18
5.190000E+03	1.240107E-16	2.573343E-18
5.200000E+03	1.246504E-16	2.588019E-18
5.210000E+03	1.253050E-16	2.603027E-18
5.220000E+03	1.259641E-16	2.618154E-18
5.230000E+03	1.266367E-16	2.633586E-18
5.240000E+03	1.273220E-16	2.649306E-18
5.250000E+03	1.280190E-16	2.665293E-18
5.260000E+03	1.287170E-16	2.681327E-18
5.270000E+03	1.294246E-16	2.697587E-18
5.280000E+03	1.301409E-16	2.714051E-18
5.290000E+03	1.308645E-16	2.730693E-18
5.300000E+03	1.315842E-16	2.747278E-18
5.310000E+03	1.323084E-16	2.763982E-18
5.320000E+03	1.330359E-16	2.780778E-18
5.330000E+03	1.337646E-16	2.797624E-18
5.340000E+03	1.344830E-16	2.814281E-18
5.350000E+03	1.351995E-16	2.830920E-18
5.360000E+03	1.359119E-16	2.847497E-18
5.370000E+03	1.366183E-16	2.863972E-18
5.380000E+03	1.373065E-16	2.880089E-18
5.390000E+03	1.379846E-16	2.896016E-18
5.400000E+03	1.386503E-16	2.911705E-18
5.410000E+03	1.393013E-16	2.927107E-18
5.420000E+03	1.399250E-16	2.941954E-18
5.430000E+03	1.405294E-16	2.956418E-18
5.440000E+03	1.411123E-16	2.970447E-18
5.450000E+03	1.416712E-16	2.983992E-18
5.460000E+03	1.422038E-16	2.997000E-18
5.470000E+03	1.426975E-16	3.009204E-18
5.480000E+03	1.431606E-16	3.020778E-18
5.490000E+03	1.435910E-16	3.031677E-18
5.500000E+03	1.439769E-16	3.041652E-18
5.510000E+03	1.443409E-16	3.051175E-18
5.520000E+03	1.446631E-16	3.059828E-18
5.530000E+03	1.449565E-16	3.067879E-18
5.540000E+03	1.452227E-16	3.075366E-18
5.550000E+03	1.454531E-16	3.082104E-18
5.560000E+03	1.456716E-16	3.088597E-18
5.570000E+03	1.458586E-16	3.094429E-18
5.580000E+03	1.460273E-16	3.099879E-18
5.590000E+03	1.461691E-16	3.104762E-18
5.600000E+03	1.463080E-16	3.109589E-18
5.610000E+03	1.464244E-16	3.113942E-18
5.620000E+03	1.465314E-16	3.118099E-18
5.630000E+03	1.466311E-16	3.122104E-18
5.640000E+03	1.467258E-16	3.126006E-18
5.650000E+03	1.468064E-16	3.129611E-18
5.660000E+03	1.468860E-16	3.133194E-18
5.670000E+03	1.469665E-16	3.136799E-18
5.680000E+03	1.470495E-16	3.140460E-18
5.690000E+03	1.471370E-16	3.144218E-18
5.700000E+03	1.472304E-16	3.148105E-18
5.710000E+03	1.473206E-16	3.151924E-18
5.720000E+03	1.474199E-16	3.155940E-18
5.730000E+03	1.475298E-16	3.160184E-18
5.740000E+03	1.476514E-16	3.164680E-18
5.750000E+03	1.477753E-16	3.169227E-18
5.760000E+03	1.479243E-16	3.174315E-18
5.770000E+03	1.480778E-16	3.179500E-18
5.780000E+03	1.482475E-16	3.185036E-18
5.790000E+03	1.484345E-16	3.190948E-18
5.800000E+03	1.486398E-16	3.197255E-18
5.810000E+03	1.488639E-16	3.203969E-18
5.820000E+03	1.490968E-16	3.210876E-18
5.830000E+03	1.493500E-16	3.218222E-18
5.840000E+03	1.496242E-16	3.226026E-18
5.850000E+03	1.499198E-16	3.234297E-18
5.860000E+03	1.502376E-16	3.243049E-18
5.870000E+03	1.505779E-16	3.252294E-18
5.880000E+03	1.509299E-16	3.261795E-18
5.890000E+03	1.513164E-16	3.272049E-18
5.900000E+03	1.517153E-16	3.282578E-18
5.910000E+03	1.521380E-16	3.293628E-18
5.920000E+03	1.525850E-16	3.305211E-18
5.930000E+03	1.530563E-16	3.317328E-18
5.940000E+03	1.535408E-16	3.329740E-18
5.950000E+03	1.540614E-16	3.342941E-18
5.960000E+03	1.545953E-16	3.356442E-18
5.970000E+03	1.551541E-16	3.370491E-18
5.980000E+03	1.557379E-16	3.385092E-18
5.990000E+03	1.563467E-16	3.400248E-18
6.000000E+03	1.569805E-16	3.415957E-18
6.010000E+03	1.576394E-16	3.432224E-18
6.020000E+03	1.583232E-16	3.449045E-18
6.030000E+03	1.590201E-16	3.466162E-18
6.040000E+03	1.597418E-16	3.483832E-18
6.050000E+03	1.604999E-16	3.502309E-18
6.060000E+03	1.612705E-16	3.521072E-18
6.070000E+03	1.620655E-16	3.540381E-18
6.080000E+03	1.628723E-16	3.559963E-18
6.090000E+03	1.637151E-16	3.580344E-18
6.100000E+03	1.645813E-16	3.601250E-18
6.110000E+03	1.654581E-16	3.622407E-18
6.120000E+03	1.663701E-16	3.644347E-18
6.130000E+03	1.672919E-16	3.666517E-18
6.140000E+03	1.682352E-16	3.689176E-18
6.150000E+03	1.692123E-16	3.712591E-18
6.160000E+03	1.701974E-16	3.736199E-18
6.170000E+03	1.712021E-16	3.760254E-18
6.180000E+03	1.722131E-16	3.784463E-18
6.190000E+03	1.732548E-16	3.809367E-18
6.200000E+03	1.743139E-16	3.834668E-18
6.210000E+03	1.753760E-16	3.860053E-18
6.220000E+03	1.764659E-16	3.886070E-18
6.230000E+03	1.775566E-16	3.912121E-18
6.240000E+03	1.786727E-16	3.938750E-18
6.250000E+03	1.797863E-16	3.965342E-18
6.260000E+03	1.809090E-16	3.992152E-18
6.270000E+03	1.820391E-16	4.019145E-18
6.280000E+03	1.831746E-16	4.046274E-18
6.290000E+03	1.843135E-16	4.073498E-18
6.300000E+03	1.854538E-16	4.100768E-18
6.310000E+03	1.865787E-16	4.127718E-18
6.320000E+03	1.877140E-16	4.154913E-18
6.330000E+03	1.888428E-16	4.181983E-18
6.340000E+03	1.899482E-16	4.208550E-18
6.350000E+03	1.910553E-16	4.235174E-18
6.360000E+03	1.921326E-16	4.261150E-18
6.370000E+03	1.931910E-16	4.286723E-18
6.380000E+03	1.942415E-16	4.312135E-18
6.390000E+03	1.952514E-16	4.336662E-18
6.400000E+03	1.962314E-16	4.360535E-18
6.410000E+03	1.971777E-16	4.383675E-18
6.420000E+03	1.980865E-16	4.405990E-18
6.430000E+03	1.989536E-16	4.427389E-18
6.440000E+03	1.997752E-16	4.447784E-18
6.450000E+03	2.005473E-16	4.467087E-18
6.460000E+03	2.012506E-16	4.484864E-18
6.470000E+03	2.019118E-16	4.501708E-18
6.480000E+03	2.025119E-16	4.517195E-18
6.490000E+03	2.030321E-16	4.530903E-18
6.500000E+03	2.034998E-16	4.543439E-18
6.510000E+03	2.038963E-16	4.554389E-18
6.520000E+03	2.042038E-16	4.563347E-18
6.530000E+03	2.044350E-16	4.570598E-18
6.540000E+03	2.046047E-16	4.576469E-18
6.550000E+03	2.046836E-16	4.580303E-18
6.560000E+03	2.046894E-16	4.582494E-18
6.570000E+03	2.046399E-16	4.583437E-18
6.580000E+03	2.045070E-16	4.582503E-18
6.590000E+03	2.043092E-16	4.580103E-18
6.600000E+03	2.040497E-16	4.576306E-18
6.610000E+03	2.037317E-16	4.571184E-18
6.620000E+03	2.033592E-16	4.564822E-18
6.630000E+03	2.029355E-16	4.557297E-18
6.640000E+03	2.024644E-16	4.548689E-18
6.650000E+03	2.019497E-16	4.539082E-18
6.660000E+03	2.013950E-16	4.528558E-18
6.670000E+03	2.008039E-16	4.517198E-18
6.680000E+03	2.001804E-16	4.505087E-18
6.690000E+03	1.995125E-16	4.491958E-18
6.700000E+03	1.988344E-16	4.478577E-18
6.710000E+03	1.981340E-16	4.464671E-18
6.720000E+03	1.974145E-16	4.450314E-18
6.730000E+03	1.966639E-16	4.435236E-18
6.740000E+03	1.959155E-16	4.420183E-18
6.750000E+03	1.951419E-16	4.404538E-18
6.760000E+03	1.943756E-16	4.389038E-18
6.770000E+03	1.935894E-16	4.373065E-18
6.780000E+03	1.928154E-16	4.357346E-18
6.790000E+03	1.920260E-16	4.341256E-18
6.800000E+03	1.912528E-16	4.325511E-18
6.810000E+03	1.904685E-16	4.309492E-18
6.820000E+03	1.896896E-16	4.293575E-18
6.830000E+03	1.889320E-16	4.278118E-18
6.840000E+03	1.881686E-16	4.262507E-18
6.850000E+03	1.874151E-16	4.247099E-18
6.860000E+03	1.866729E-16	4.231927E-18
6.870000E+03	1.859433E-16	4.217021E-18
6.880000E+03	1.852415E-16	4.202725E-18
6.890000E+03	1.845401E-16	4.188419E-18
6.900000E+03	1.838544E-16	4.174448E-18
6.910000E+03	1.831851E-16	4.160833E-18
6.920000E+03	1.825332E-16	4.147593E-18
6.930000E+03	1.818994E-16	4.134745E-18
6.940000E+03	1.812841E-16	4.122303E-18
6.950000E+03	1.806882E-16	4.110281E-18
6.960000E+03	1.800980E-16	4.098376E-18
6.970000E+03	1.795422E-16	4.087233E-18
6.980000E+03	1.790071E-16	4.076547E-18
6.990000E+03	1.784931E-16	4.066327E-18
7.000000E+03	1.780007E-16	4.056582E-18
7.010000E+03	1.775161E-16	4.047002E-18
7.020000E+03	1.770675E-16	4.038229E-18
7.030000E+03	1.766276E-16	4.029638E-18
7.040000E+03	1.762239E-16	4.021861E-18
7.050000E+03	1.758429E-16	4.014589E-18
7.060000E+03	1.754712E-16	4.007516E-18
7.070000E+03	1.751362E-16	4.001270E-18
7.080000E+03	1.748108E-16	3.995233E-18
7.090000E+03	1.745087E-16	3.989716E-18
7.100000E+03	1.742438E-16	3.985040E-18
7.110000E+03	1.739887E-16	3.980577E-18
7.120000E+03	1.737573E-16	3.976647E-18
7.130000E+03	1.735496E-16	3.973249E-18
7.140000E+03	1.733791E-16	3.970695E-18
7.150000E+03	1.732190E-16	3.968371E-18
7.160000E+03	1.730828E-16	3.966586E-18
7.170000E+03	1.729705E-16	3.965342E-18
7.180000E+03	1.728823E-16	3.964642E-18
7.190000E+03	1.728182E-16	3.964489E-18
7.200000E+03	1.727646E-16	3.964571E-18
7.210000E+03	1.727488E-16	3.965514E-18
7.220000E+03	1.727574E-16	3.967011E-18
7.230000E+03	1.727902E-16	3.969060E-18
7.240000E+03	1.728340E-16	3.971357E-18
7.250000E+03	1.729158E-16	3.974522E-18
7.260000E+03	1.730088E-16	3.977941E-18
7.270000E+03	1.731399E-16	3.982234E-18
7.280000E+03	1.732823E-16	3.986783E-18
7.290000E+03	1.734633E-16	3.992219E-18
7.300000E+03	1.736556E-16	3.997912E-18
7.310000E+03	1.738730E-16	4.004180E-18
7.320000E+03	1.741296E-16	4.011351E-18
7.330000E+03	1.743977E-16	4.018786E-18
7.340000E+03	1.746912E-16	4.026807E-18
7.350000E+03	1.750103E-16	4.035418E-18
7.360000E+03	1.753554E-16	4.044627E-18
7.370000E+03	1.757123E-16	4.054109E-18
7.380000E+03	1.761090E-16	4.064513E-18
7.390000E+03	1.765319E-16	4.075522E-18
7.400000E+03	1.769811E-16	4.087141E-18
7.410000E+03	1.774424E-16	4.099041E-18
7.420000E+03	1.779442E-16	4.111880E-18
7.430000E+03	1.784582E-16	4.125005E-18
7.440000E+03	1.789987E-16	4.138745E-18
7.450000E+03	1.795800E-16	4.153434E-18
7.460000E+03	1.801734E-16	4.168407E-18
7.470000E+03	1.807933E-16	4.183998E-18
7.480000E+03	1.814397E-16	4.200205E-18
7.490000E+03	1.821121E-16	4.217024E-18
7.500000E+03	1.828108E-16	4.234456E-18
7.510000E+03	1.835355E-16	4.252497E-18
7.520000E+03	1.842712E-16	4.270800E-18
7.530000E+03	1.850470E-16	4.290039E-18
7.540000E+03	1.858479E-16	4.309870E-18
7.550000E+03	1.866585E-16	4.329933E-18
7.560000E+03	1.874932E-16	4.350564E-18
7.570000E+03	1.883666E-16	4.372102E-18
7.580000E+03	1.892478E-16	4.393830E-18
7.590000E+03	1.901510E-16	4.416078E-18
7.600000E+03	1.910756E-16	4.438834E-18
7.610000E+03	1.920203E-16	4.462067E-18
7.620000E+03	1.929846E-16	4.485765E-18
7.630000E+03	1.939667E-16	4.509891E-18
7.640000E+03	1.949498E-16	4.534048E-18
7.650000E+03	1.959639E-16	4.558940E-18
7.660000E+03	1.969755E-16	4.583785E-18
7.670000E+03	1.979989E-16	4.608917E-18
7.680000E+03	1.990484E-16	4.634669E-18
7.690000E+03	2.000894E-16	4.660233E-18
7.700000E+03	2.011355E-16	4.685931E-18
7.710000E+03	2.021844E-16	4.711709E-18
7.720000E+03	2.032334E-16	4.737500E-18
7.730000E+03	2.042628E-16	4.762846E-18
7.740000E+03	2.053025E-16	4.788448E-18
7.750000E+03	2.063329E-16	4.813845E-18
7.760000E+03	2.073329E-16	4.838544E-18
