#wls	flux	fluxerr
1.600000E+03	4.259787E-18	2.884989E-19
1.640000E+03	4.272041E-18	2.881369E-19
1.680000E+03	4.285903E-18	2.878497E-19
1.720000E+03	4.300703E-18	2.875905E-19
1.760000E+03	4.317303E-18	2.874150E-19
1.800000E+03	4.334278E-18	2.872265E-19
1.840000E+03	4.353276E-18	2.871328E-19
1.880000E+03	4.373659E-18	2.870891E-19
1.920000E+03	4.395563E-18	2.871023E-19
1.960000E+03	4.419137E-18	2.871797E-19
2.000000E+03	4.445327E-18	2.873800E-19
2.040000E+03	4.472748E-18	2.876105E-19
2.080000E+03	4.503164E-18	2.879818E-19
2.120000E+03	4.536003E-18	2.884534E-19
2.160000E+03	4.572297E-18	2.890868E-19
2.200000E+03	4.610701E-18	2.897926E-19
2.240000E+03	4.653097E-18	2.906848E-19
2.280000E+03	4.698984E-18	2.917264E-19
2.320000E+03	4.748689E-18	2.929323E-19
2.360000E+03	4.803406E-18	2.943697E-19
2.400000E+03	4.862707E-18	2.960050E-19
2.440000E+03	4.927020E-18	2.978567E-19
2.480000E+03	4.996816E-18	2.999452E-19
2.520000E+03	5.073487E-18	3.023447E-19
2.560000E+03	5.155852E-18	3.049743E-19
2.600000E+03	5.246304E-18	3.079650E-19
2.640000E+03	5.344648E-18	3.112923E-19
2.680000E+03	5.452576E-18	3.150409E-19
2.720000E+03	5.570019E-18	3.191909E-19
2.760000E+03	5.696926E-18	3.237232E-19
2.800000E+03	5.837242E-18	3.288437E-19
2.840000E+03	5.989175E-18	3.344296E-19
2.880000E+03	6.156003E-18	3.406419E-19
2.920000E+03	6.337054E-18	3.474177E-19
2.960000E+03	6.536013E-18	3.549319E-19
3.000000E+03	6.754713E-18	3.632512E-19
3.010000E+03	6.812241E-18	3.654403E-19
3.020000E+03	6.871084E-18	3.676814E-19
3.030000E+03	6.931276E-18	3.699757E-19
3.040000E+03	6.992852E-18	3.723244E-19
3.050000E+03	7.055846E-18	3.747288E-19
3.060000E+03	7.121495E-18	3.772538E-19
3.070000E+03	7.187446E-18	3.797737E-19
3.080000E+03	7.254928E-18	3.823534E-19
3.090000E+03	7.323980E-18	3.849940E-19
3.100000E+03	7.394644E-18	3.876971E-19
3.110000E+03	7.468216E-18	3.905297E-19
3.120000E+03	7.542240E-18	3.933625E-19
3.130000E+03	7.618005E-18	3.962623E-19
3.140000E+03	7.695555E-18	3.992305E-19
3.150000E+03	7.776243E-18	4.023363E-19
3.160000E+03	7.857521E-18	4.054469E-19
3.170000E+03	7.940729E-18	4.086309E-19
3.180000E+03	8.025919E-18	4.118901E-19
3.190000E+03	8.114503E-18	4.152958E-19
3.200000E+03	8.203830E-18	4.187113E-19
3.210000E+03	8.295303E-18	4.222075E-19
3.220000E+03	8.390378E-18	4.258574E-19
3.230000E+03	8.486328E-18	4.295214E-19
3.240000E+03	8.584598E-18	4.332719E-19
3.250000E+03	8.686702E-18	4.371840E-19
3.260000E+03	8.789822E-18	4.411147E-19
3.270000E+03	8.896938E-18	4.452124E-19
3.280000E+03	9.005170E-18	4.493318E-19
3.290000E+03	9.116055E-18	4.535487E-19
3.300000E+03	9.231199E-18	4.579416E-19
3.310000E+03	9.347625E-18	4.623613E-19
3.320000E+03	9.468497E-18	4.669632E-19
3.330000E+03	9.590768E-18	4.715955E-19
3.340000E+03	9.717685E-18	4.764166E-19
3.350000E+03	9.846124E-18	4.812718E-19
3.360000E+03	9.979419E-18	4.863228E-19
3.370000E+03	1.011436E-17	4.914117E-19
3.380000E+03	1.025440E-17	4.967041E-19
3.390000E+03	1.039621E-17	5.020380E-19
3.400000E+03	1.054334E-17	5.075830E-19
3.410000E+03	1.069241E-17	5.131743E-19
3.420000E+03	1.084704E-17	5.189839E-19
3.430000E+03	1.100376E-17	5.248447E-19
3.440000E+03	1.116630E-17	5.309323E-19
3.450000E+03	1.133110E-17	5.370755E-19
3.460000E+03	1.150198E-17	5.434539E-19
3.470000E+03	1.167530E-17	5.498932E-19
3.480000E+03	1.185499E-17	5.565767E-19
3.490000E+03	1.203927E-17	5.634183E-19
3.500000E+03	1.222627E-17	5.703281E-19
3.510000E+03	1.242008E-17	5.774962E-19
3.520000E+03	1.261682E-17	5.847383E-19
3.530000E+03	1.282070E-17	5.922485E-19
3.540000E+03	1.302982E-17	5.999358E-19
3.550000E+03	1.324216E-17	6.077051E-19
3.560000E+03	1.346216E-17	6.157579E-19
3.570000E+03	1.368559E-17	6.238982E-19
3.580000E+03	1.391704E-17	6.323327E-19
3.590000E+03	1.415446E-17	6.409648E-19
3.600000E+03	1.439565E-17	6.496930E-19
3.610000E+03	1.464543E-17	6.587324E-19
3.620000E+03	1.490165E-17	6.679824E-19
3.630000E+03	1.516199E-17	6.773364E-19
3.640000E+03	1.543153E-17	6.870189E-19
3.650000E+03	1.570544E-17	6.968117E-19
3.660000E+03	1.598894E-17	7.069439E-19
3.670000E+03	1.627972E-17	7.173088E-19
3.680000E+03	1.657524E-17	7.277920E-19
3.690000E+03	1.688103E-17	7.386332E-19
3.700000E+03	1.719459E-17	7.497192E-19
3.710000E+03	1.751327E-17	7.609314E-19
3.720000E+03	1.784289E-17	7.725194E-19
3.730000E+03	1.818081E-17	7.843649E-19
3.740000E+03	1.852422E-17	7.963432E-19
3.750000E+03	1.887925E-17	8.087150E-19
3.760000E+03	1.924312E-17	8.213560E-19
3.770000E+03	1.961283E-17	8.341354E-19
3.780000E+03	1.999485E-17	8.473247E-19
3.790000E+03	2.038621E-17	8.607937E-19
3.800000E+03	2.078375E-17	8.744053E-19
3.810000E+03	2.119426E-17	8.884416E-19
3.820000E+03	2.161462E-17	9.027668E-19
3.830000E+03	2.204142E-17	9.172354E-19
3.840000E+03	2.248184E-17	9.321428E-19
3.850000E+03	2.293254E-17	9.473447E-19
3.860000E+03	2.338989E-17	9.626879E-19
3.870000E+03	2.386146E-17	9.784807E-19
3.880000E+03	2.434368E-17	9.945712E-19
3.890000E+03	2.483263E-17	1.010796E-18
3.900000E+03	2.533634E-17	1.027479E-18
3.910000E+03	2.585093E-17	1.044457E-18
3.920000E+03	2.637226E-17	1.061559E-18
3.930000E+03	2.690874E-17	1.079120E-18
3.940000E+03	2.745621E-17	1.096970E-18
3.950000E+03	2.801023E-17	1.114926E-18
3.960000E+03	2.857964E-17	1.133339E-18
3.970000E+03	2.916000E-17	1.152025E-18
3.980000E+03	2.974649E-17	1.170794E-18
3.990000E+03	3.034842E-17	1.190007E-18
4.000000E+03	3.096101E-17	1.209474E-18
4.010000E+03	3.157907E-17	1.228988E-18
4.020000E+03	3.221238E-17	1.248929E-18
4.030000E+03	3.285055E-17	1.268889E-18
4.040000E+03	3.350367E-17	1.289257E-18
4.050000E+03	3.416634E-17	1.309821E-18
4.060000E+03	3.483265E-17	1.330352E-18
4.070000E+03	3.551322E-17	1.351257E-18
4.080000E+03	3.619643E-17	1.372089E-18
4.090000E+03	3.689320E-17	1.393262E-18
4.100000E+03	3.759143E-17	1.414318E-18
4.110000E+03	3.830239E-17	1.435681E-18
4.120000E+03	3.901960E-17	1.457105E-18
4.130000E+03	3.973614E-17	1.478333E-18
4.140000E+03	4.046378E-17	1.499805E-18
4.150000E+03	4.118910E-17	1.521023E-18
4.160000E+03	4.192423E-17	1.542436E-18
4.170000E+03	4.265522E-17	1.563533E-18
4.180000E+03	4.339457E-17	1.584774E-18
4.190000E+03	4.412780E-17	1.605632E-18
4.200000E+03	4.486783E-17	1.626582E-18
4.210000E+03	4.559965E-17	1.647081E-18
4.220000E+03	4.633660E-17	1.667616E-18
4.230000E+03	4.706323E-17	1.687635E-18
4.240000E+03	4.778574E-17	1.707367E-18
4.250000E+03	4.851084E-17	1.727055E-18
4.260000E+03	4.922239E-17	1.746130E-18
4.270000E+03	4.993491E-17	1.765113E-18
4.280000E+03	5.063188E-17	1.783426E-18
4.290000E+03	5.132828E-17	1.801606E-18
4.300000E+03	5.200732E-17	1.819067E-18
4.310000E+03	5.267621E-17	1.836073E-18
4.320000E+03	5.334265E-17	1.852897E-18
4.330000E+03	5.398936E-17	1.868947E-18
4.340000E+03	5.462406E-17	1.884500E-18
4.350000E+03	5.525485E-17	1.899843E-18
4.360000E+03	5.586405E-17	1.914374E-18
4.370000E+03	5.645972E-17	1.928382E-18
4.380000E+03	5.704138E-17	1.941858E-18
4.390000E+03	5.761756E-17	1.955101E-18
4.400000E+03	5.816988E-17	1.967494E-18
4.410000E+03	5.870674E-17	1.979333E-18
4.420000E+03	5.922770E-17	1.990611E-18
4.430000E+03	5.974158E-17	2.001634E-18
4.440000E+03	6.022937E-17	2.011773E-18
4.450000E+03	6.069989E-17	2.021333E-18
4.460000E+03	6.115279E-17	2.030311E-18
4.470000E+03	6.158776E-17	2.038707E-18
4.480000E+03	6.201425E-17	2.046842E-18
4.490000E+03	6.241289E-17	2.054084E-18
4.500000E+03	6.279326E-17	2.060757E-18
4.510000E+03	6.315541E-17	2.066871E-18
4.520000E+03	6.349950E-17	2.072434E-18
4.530000E+03	6.382583E-17	2.077459E-18
4.540000E+03	6.413472E-17	2.081961E-18
4.550000E+03	6.442661E-17	2.085958E-18
4.560000E+03	6.470201E-17	2.089469E-18
4.570000E+03	6.496151E-17	2.092516E-18
4.580000E+03	6.520574E-17	2.095122E-18
4.590000E+03	6.543538E-17	2.097310E-18
4.600000E+03	6.565119E-17	2.099106E-18
4.610000E+03	6.585393E-17	2.100537E-18
4.620000E+03	6.604442E-17	2.101629E-18
4.630000E+03	6.622347E-17	2.102409E-18
4.640000E+03	6.639194E-17	2.102904E-18
4.650000E+03	6.654042E-17	2.102817E-18
4.660000E+03	6.669030E-17	2.102826E-18
4.670000E+03	6.683219E-17	2.102631E-18
4.680000E+03	6.696697E-17	2.102259E-18
4.690000E+03	6.709549E-17	2.101738E-18
4.700000E+03	6.721861E-17	2.101091E-18
4.710000E+03	6.732679E-17	2.100021E-18
4.720000E+03	6.744159E-17	2.099199E-18
4.730000E+03	6.755347E-17	2.098324E-18
4.740000E+03	6.765280E-17	2.097097E-18
4.750000E+03	6.776115E-17	2.096185E-18
4.760000E+03	6.786889E-17	2.095285E-18
4.770000E+03	6.796628E-17	2.094097E-18
4.780000E+03	6.807491E-17	2.093282E-18
4.790000E+03	6.818502E-17	2.092538E-18
4.800000E+03	6.828680E-17	2.091559E-18
4.810000E+03	6.840180E-17	2.091006E-18
4.820000E+03	6.850967E-17	2.090251E-18
4.830000E+03	6.863198E-17	2.089950E-18
4.840000E+03	6.874825E-17	2.089476E-18
4.850000E+03	6.888005E-17	2.089483E-18
4.860000E+03	6.900681E-17	2.089341E-18
4.870000E+03	6.915012E-17	2.089702E-18
4.880000E+03	6.928926E-17	2.089935E-18
4.890000E+03	6.944586E-17	2.090691E-18
4.900000E+03	6.959907E-17	2.091338E-18
4.910000E+03	6.975988E-17	2.092202E-18
4.920000E+03	6.993930E-17	2.093611E-18
4.930000E+03	7.011634E-17	2.094930E-18
4.940000E+03	7.030192E-17	2.096486E-18
4.950000E+03	7.050707E-17	2.098601E-18
4.960000E+03	7.071057E-17	2.100640E-18
4.970000E+03	7.092335E-17	2.102924E-18
4.980000E+03	7.114561E-17	2.105457E-18
4.990000E+03	7.138842E-17	2.108560E-18
5.000000E+03	7.163017E-17	2.111592E-18
5.010000E+03	7.188185E-17	2.114874E-18
5.020000E+03	7.214356E-17	2.118403E-18
5.030000E+03	7.241536E-17	2.122179E-18
5.040000E+03	7.269730E-17	2.126199E-18
5.050000E+03	7.298942E-17	2.130459E-18
5.060000E+03	7.329170E-17	2.134956E-18
5.070000E+03	7.360413E-17	2.139684E-18
5.080000E+03	7.392664E-17	2.144639E-18
5.090000E+03	7.425917E-17	2.149814E-18
5.100000E+03	7.460163E-17	2.155202E-18
5.110000E+03	7.495386E-17	2.160795E-18
5.120000E+03	7.531575E-17	2.166585E-18
5.130000E+03	7.568709E-17	2.172564E-18
5.140000E+03	7.606769E-17	2.178720E-18
5.150000E+03	7.645733E-17	2.185045E-18
5.160000E+03	7.685575E-17	2.191526E-18
5.170000E+03	7.726268E-17	2.198152E-18
5.180000E+03	7.766607E-17	2.204577E-18
5.190000E+03	7.808904E-17	2.211455E-18
5.200000E+03	7.851955E-17	2.218439E-18
5.210000E+03	7.895724E-17	2.225515E-18
5.220000E+03	7.938969E-17	2.232331E-18
5.230000E+03	7.984048E-17	2.239547E-18
5.240000E+03	8.029722E-17	2.246810E-18
5.250000E+03	8.074723E-17	2.253763E-18
5.260000E+03	8.121444E-17	2.261072E-18
5.270000E+03	8.168622E-17	2.268379E-18
5.280000E+03	8.214966E-17	2.275326E-18
5.290000E+03	8.262903E-17	2.282580E-18
5.300000E+03	8.309893E-17	2.289439E-18
5.310000E+03	8.358390E-17	2.296575E-18
5.320000E+03	8.405824E-17	2.303279E-18
5.330000E+03	8.454679E-17	2.310231E-18
5.340000E+03	8.502357E-17	2.316717E-18
5.350000E+03	8.551371E-17	2.323422E-18
5.360000E+03	8.599101E-17	2.329630E-18
5.370000E+03	8.648089E-17	2.336030E-18
5.380000E+03	8.695691E-17	2.341905E-18
5.390000E+03	8.743166E-17	2.347595E-18
5.400000E+03	8.791802E-17	2.353442E-18
5.410000E+03	8.838924E-17	2.358730E-18
5.420000E+03	8.885824E-17	2.363804E-18
5.430000E+03	8.933821E-17	2.369013E-18
5.440000E+03	8.980214E-17	2.373639E-18
5.450000E+03	9.026327E-17	2.378034E-18
5.460000E+03	9.072150E-17	2.382195E-18
5.470000E+03	9.117678E-17	2.386121E-18
5.480000E+03	9.164288E-17	2.390171E-18
5.490000E+03	9.209229E-17	2.393625E-18
5.500000E+03	9.253865E-17	2.396841E-18
5.510000E+03	9.298189E-17	2.399817E-18
5.520000E+03	9.342190E-17	2.402552E-18
5.530000E+03	9.385856E-17	2.405041E-18
5.540000E+03	9.429181E-17	2.407285E-18
5.550000E+03	9.472162E-17	2.409283E-18
5.560000E+03	9.514799E-17	2.411037E-18
5.570000E+03	9.557097E-17	2.412548E-18
5.580000E+03	9.599063E-17	2.413818E-18
5.590000E+03	9.640715E-17	2.414851E-18
5.600000E+03	9.682071E-17	2.415654E-18
5.610000E+03	9.723158E-17	2.416232E-18
5.620000E+03	9.764003E-17	2.416593E-18
5.630000E+03	9.804642E-17	2.416747E-18
5.640000E+03	9.845114E-17	2.416704E-18
5.650000E+03	9.883977E-17	2.416111E-18
5.660000E+03	9.924240E-17	2.415707E-18
5.670000E+03	9.964472E-17	2.415141E-18
5.680000E+03	1.000473E-16	2.414427E-18
5.690000E+03	1.004506E-16	2.413576E-18
5.700000E+03	1.008401E-16	2.412243E-18
5.710000E+03	1.012465E-16	2.411165E-18
5.720000E+03	1.016555E-16	2.409994E-18
5.730000E+03	1.020522E-16	2.408384E-18
5.740000E+03	1.024678E-16	2.407072E-18
5.750000E+03	1.028878E-16	2.405711E-18
5.760000E+03	1.032971E-16	2.403956E-18
5.770000E+03	1.037273E-16	2.402541E-18
5.780000E+03	1.041635E-16	2.401121E-18
5.790000E+03	1.045908E-16	2.399348E-18
5.800000E+03	1.050408E-16	2.397957E-18
5.810000E+03	1.054829E-16	2.396242E-18
5.820000E+03	1.059489E-16	2.394933E-18
5.830000E+03	1.064079E-16	2.393325E-18
5.840000E+03	1.068920E-16	2.392147E-18
5.850000E+03	1.073698E-16	2.390695E-18
5.860000E+03	1.078739E-16	2.389694E-18
5.870000E+03	1.083724E-16	2.388440E-18
5.880000E+03	1.088818E-16	2.387301E-18
5.890000E+03	1.094188E-16	2.386643E-18
5.900000E+03	1.099511E-16	2.385760E-18
5.910000E+03	1.105118E-16	2.385376E-18
5.920000E+03	1.110681E-16	2.384783E-18
5.930000E+03	1.116367E-16	2.384346E-18
5.940000E+03	1.122347E-16	2.384429E-18
5.950000E+03	1.128285E-16	2.384324E-18
5.960000E+03	1.134351E-16	2.384393E-18
5.970000E+03	1.140543E-16	2.384642E-18
5.980000E+03	1.147035E-16	2.385432E-18
5.990000E+03	1.153483E-16	2.386053E-18
6.000000E+03	1.160056E-16	2.386867E-18
6.010000E+03	1.166753E-16	2.387876E-18
6.020000E+03	1.173571E-16	2.389083E-18
6.030000E+03	1.180685E-16	2.390848E-18
6.040000E+03	1.187739E-16	2.392457E-18
6.050000E+03	1.194904E-16	2.394271E-18
6.060000E+03	1.202175E-16	2.396289E-18
6.070000E+03	1.209548E-16	2.398513E-18
6.080000E+03	1.217016E-16	2.400942E-18
6.090000E+03	1.224573E-16	2.403578E-18
6.100000E+03	1.232211E-16	2.406419E-18
6.110000E+03	1.239922E-16	2.409465E-18
6.120000E+03	1.247697E-16	2.412715E-18
6.130000E+03	1.255528E-16	2.416168E-18
6.140000E+03	1.263401E-16	2.419820E-18
6.150000E+03	1.271309E-16	2.423674E-18
6.160000E+03	1.279238E-16	2.427723E-18
6.170000E+03	1.287174E-16	2.431966E-18
6.180000E+03	1.295106E-16	2.436403E-18
6.190000E+03	1.303019E-16	2.441029E-18
6.200000E+03	1.310896E-16	2.445838E-18
6.210000E+03	1.318726E-16	2.450833E-18
6.220000E+03	1.326487E-16	2.456004E-18
6.230000E+03	1.333966E-16	2.460982E-18
6.240000E+03	1.341542E-16	2.466498E-18
6.250000E+03	1.348998E-16	2.472179E-18
6.260000E+03	1.356315E-16	2.478020E-18
6.270000E+03	1.363472E-16	2.484015E-18
6.280000E+03	1.370451E-16	2.490160E-18
6.290000E+03	1.377025E-16	2.496075E-18
6.300000E+03	1.383585E-16	2.502501E-18
6.310000E+03	1.389904E-16	2.509058E-18
6.320000E+03	1.395960E-16	2.515736E-18
6.330000E+03	1.401523E-16	2.522154E-18
6.340000E+03	1.406991E-16	2.529057E-18
6.350000E+03	1.412134E-16	2.536059E-18
6.360000E+03	1.416717E-16	2.542771E-18
6.370000E+03	1.421146E-16	2.549945E-18
6.380000E+03	1.425189E-16	2.557192E-18
6.390000E+03	1.428612E-16	2.564118E-18
6.400000E+03	1.431827E-16	2.571482E-18
6.410000E+03	1.434600E-16	2.578886E-18
6.420000E+03	1.436700E-16	2.585934E-18
6.430000E+03	1.438542E-16	2.593386E-18
6.440000E+03	1.439682E-16	2.600457E-18
6.450000E+03	1.440537E-16	2.607909E-18
6.460000E+03	1.440664E-16	2.614935E-18
6.470000E+03	1.440484E-16	2.622278E-18
6.480000E+03	1.439558E-16	2.629118E-18
6.490000E+03	1.438308E-16	2.636201E-18
6.500000E+03	1.436513E-16	2.643095E-18
6.510000E+03	1.433952E-16	2.649361E-18
6.520000E+03	1.430838E-16	2.655360E-18
6.530000E+03	1.427383E-16	2.661451E-18
6.540000E+03	1.423168E-16	2.666813E-18
6.550000E+03	1.418622E-16	2.672215E-18
6.560000E+03	1.413333E-16	2.676839E-18
6.570000E+03	1.407738E-16	2.681470E-18
6.580000E+03	1.401429E-16	2.685289E-18
6.590000E+03	1.394634E-16	2.688684E-18
6.600000E+03	1.387575E-16	2.692044E-18
6.610000E+03	1.379855E-16	2.694552E-18
6.620000E+03	1.371906E-16	2.697009E-18
6.630000E+03	1.363335E-16	2.698596E-18
6.640000E+03	1.354369E-16	2.699713E-18
6.650000E+03	1.345230E-16	2.700761E-18
6.660000E+03	1.335533E-16	2.700929E-18
6.670000E+03	1.325504E-16	2.700622E-18
6.680000E+03	1.315166E-16	2.699845E-18
6.690000E+03	1.304738E-16	2.699009E-18
6.700000E+03	1.293848E-16	2.697310E-18
6.710000E+03	1.282717E-16	2.695163E-18
6.720000E+03	1.271559E-16	2.692984E-18
6.730000E+03	1.260014E-16	2.689978E-18
6.740000E+03	1.248298E-16	2.686564E-18
6.750000E+03	1.236432E-16	2.682758E-18
6.760000E+03	1.224440E-16	2.678579E-18
6.770000E+03	1.212525E-16	2.674447E-18
6.780000E+03	1.200342E-16	2.669578E-18
6.790000E+03	1.188096E-16	2.664396E-18
6.800000E+03	1.175807E-16	2.658922E-18
6.810000E+03	1.163495E-16	2.653177E-18
6.820000E+03	1.151177E-16	2.647187E-18
6.830000E+03	1.138871E-16	2.640972E-18
6.840000E+03	1.126765E-16	2.634953E-18
6.850000E+03	1.114533E-16	2.628359E-18
6.860000E+03	1.102362E-16	2.621611E-18
6.870000E+03	1.090267E-16	2.614734E-18
6.880000E+03	1.078260E-16	2.607749E-18
6.890000E+03	1.066355E-16	2.600679E-18
6.900000E+03	1.054565E-16	2.593549E-18
6.910000E+03	1.042899E-16	2.586379E-18
6.920000E+03	1.031368E-16	2.579192E-18
6.930000E+03	1.019983E-16	2.572009E-18
6.940000E+03	1.008751E-16	2.564852E-18
6.950000E+03	9.976815E-17	2.557741E-18
6.960000E+03	9.867813E-17	2.550696E-18
6.970000E+03	9.760570E-17	2.543736E-18
6.980000E+03	9.655150E-17	2.536880E-18
6.990000E+03	9.551607E-17	2.530146E-18
7.000000E+03	9.449989E-17	2.523552E-18
7.010000E+03	9.350341E-17	2.517115E-18
7.020000E+03	9.252698E-17	2.510851E-18
7.030000E+03	9.157096E-17	2.504776E-18
7.040000E+03	9.063563E-17	2.498904E-18
7.050000E+03	8.970765E-17	2.492875E-18
7.060000E+03	8.881446E-17	2.487455E-18
7.070000E+03	8.794252E-17	2.482279E-18
7.080000E+03	8.709196E-17	2.477362E-18
7.090000E+03	8.626285E-17	2.472715E-18
7.100000E+03	8.545523E-17	2.468349E-18
7.110000E+03	8.466913E-17	2.464274E-18
7.120000E+03	8.389187E-17	2.460131E-18
7.130000E+03	8.314886E-17	2.456672E-18
7.140000E+03	8.242724E-17	2.453533E-18
7.150000E+03	8.172695E-17	2.450725E-18
7.160000E+03	8.104787E-17	2.448254E-18
7.170000E+03	8.037772E-17	2.445760E-18
7.180000E+03	7.974077E-17	2.443988E-18
7.190000E+03	7.912459E-17	2.442575E-18
7.200000E+03	7.851716E-17	2.441159E-18
7.210000E+03	7.794209E-17	2.440483E-18
7.220000E+03	7.738723E-17	2.440184E-18
7.230000E+03	7.685239E-17	2.440266E-18
7.240000E+03	7.632574E-17	2.440365E-18
7.250000E+03	7.583026E-17	2.441221E-18
7.260000E+03	7.535407E-17	2.442471E-18
7.270000E+03	7.488555E-17	2.443747E-18
7.280000E+03	7.444722E-17	2.445791E-18
7.290000E+03	7.402737E-17	2.448235E-18
7.300000E+03	7.361457E-17	2.450711E-18
7.310000E+03	7.323089E-17	2.453960E-18
7.320000E+03	7.285379E-17	2.457241E-18
7.330000E+03	7.250511E-17	2.461300E-18
7.340000E+03	7.217342E-17	2.465761E-18
7.350000E+03	7.184753E-17	2.470252E-18
7.360000E+03	7.154893E-17	2.475519E-18
7.370000E+03	7.125553E-17	2.480810E-18
7.380000E+03	7.098867E-17	2.486876E-18
7.390000E+03	7.072640E-17	2.492957E-18
7.400000E+03	7.048987E-17	2.499809E-18
7.410000E+03	7.025728E-17	2.506668E-18
7.420000E+03	7.004962E-17	2.514290E-18
7.430000E+03	6.984518E-17	2.521906E-18
7.440000E+03	6.966485E-17	2.530277E-18
7.450000E+03	6.948697E-17	2.538626E-18
7.460000E+03	6.933233E-17	2.547719E-18
7.470000E+03	6.917934E-17	2.556771E-18
7.480000E+03	6.904866E-17	2.566552E-18
7.490000E+03	6.891879E-17	2.576271E-18
7.500000E+03	6.879979E-17	2.586306E-18
7.510000E+03	6.870165E-17	2.597041E-18
7.520000E+03	6.860292E-17	2.607675E-18
7.530000E+03	6.852401E-17	2.618985E-18
7.540000E+03	6.844350E-17	2.630162E-18
7.550000E+03	6.837129E-17	2.641586E-18
7.560000E+03	6.831724E-17	2.653644E-18
7.570000E+03	6.825994E-17	2.665512E-18
7.580000E+03	6.820921E-17	2.677572E-18
7.590000E+03	6.817484E-17	2.690216E-18
7.600000E+03	6.813539E-17	2.702601E-18
7.610000E+03	6.810060E-17	2.715113E-18
7.620000E+03	6.808021E-17	2.728145E-18
7.630000E+03	6.805275E-17	2.740840E-18
7.640000E+03	6.802788E-17	2.753585E-18
7.650000E+03	6.800487E-17	2.766351E-18
7.660000E+03	6.799340E-17	2.779534E-18
7.670000E+03	6.797187E-17	2.792255E-18
7.680000E+03	6.794993E-17	2.804905E-18
7.690000E+03	6.792675E-17	2.817449E-18
7.700000E+03	6.790153E-17	2.829853E-18
7.710000E+03	6.788381E-17	2.842515E-18
7.720000E+03	6.785196E-17	2.854529E-18
7.730000E+03	6.781552E-17	2.866290E-18
7.740000E+03	6.777361E-17	2.877757E-18
7.750000E+03	6.772535E-17	2.888890E-18
7.760000E+03	6.766987E-17	2.899647E-18
