#wls	flux	fluxerr
1.600000E+03	3.712948E-18	2.713995E-19
1.640000E+03	3.724484E-18	2.711047E-19
1.680000E+03	3.737480E-18	2.708835E-19
1.720000E+03	3.750679E-18	2.706434E-19
1.760000E+03	3.765503E-18	2.704856E-19
1.800000E+03	3.780701E-18	2.703183E-19
1.840000E+03	3.797717E-18	2.702432E-19
1.880000E+03	3.815988E-18	2.702179E-19
1.920000E+03	3.835630E-18	2.702485E-19
1.960000E+03	3.856772E-18	2.703417E-19
2.000000E+03	3.879553E-18	2.705047E-19
2.040000E+03	3.904816E-18	2.707934E-19
2.080000E+03	3.931345E-18	2.711201E-19
2.120000E+03	3.960709E-18	2.715899E-19
2.160000E+03	3.992410E-18	2.721647E-19
2.200000E+03	4.026663E-18	2.728549E-19
2.240000E+03	4.063701E-18	2.736722E-19
2.280000E+03	4.103776E-18	2.746286E-19
2.320000E+03	4.147166E-18	2.757375E-19
2.360000E+03	4.194910E-18	2.770620E-19
2.400000E+03	4.245870E-18	2.785201E-19
2.440000E+03	4.301895E-18	2.802265E-19
2.480000E+03	4.362642E-18	2.821505E-19
2.520000E+03	4.428549E-18	2.843118E-19
2.560000E+03	4.500094E-18	2.867317E-19
2.600000E+03	4.577803E-18	2.894336E-19
2.640000E+03	4.663072E-18	2.924936E-19
2.680000E+03	4.754924E-18	2.958377E-19
2.720000E+03	4.855714E-18	2.995986E-19
2.760000E+03	4.965413E-18	3.037582E-19
2.800000E+03	5.084889E-18	3.083528E-19
2.840000E+03	5.215109E-18	3.134216E-19
2.880000E+03	5.357146E-18	3.190083E-19
2.920000E+03	5.512195E-18	3.251608E-19
2.960000E+03	5.682572E-18	3.319891E-19
3.000000E+03	5.867828E-18	3.394377E-19
3.010000E+03	5.917062E-18	3.414277E-19
3.020000E+03	5.967422E-18	3.434652E-19
3.030000E+03	6.018934E-18	3.455513E-19
3.040000E+03	6.071630E-18	3.476872E-19
3.050000E+03	6.125539E-18	3.498739E-19
3.060000E+03	6.180693E-18	3.521127E-19
3.070000E+03	6.237124E-18	3.544048E-19
3.080000E+03	6.294864E-18	3.567514E-19
3.090000E+03	6.353949E-18	3.591539E-19
3.100000E+03	6.414414E-18	3.616135E-19
3.110000E+03	6.476294E-18	3.641316E-19
3.120000E+03	6.538500E-18	3.666464E-19
3.130000E+03	6.603314E-18	3.692852E-19
3.140000E+03	6.669657E-18	3.719868E-19
3.150000E+03	6.737571E-18	3.747525E-19
3.160000E+03	6.807098E-18	3.775841E-19
3.170000E+03	6.878280E-18	3.804829E-19
3.180000E+03	6.951163E-18	3.834508E-19
3.190000E+03	7.025790E-18	3.864892E-19
3.200000E+03	7.102210E-18	3.895999E-19
3.210000E+03	7.180469E-18	3.927846E-19
3.220000E+03	7.260620E-18	3.960452E-19
3.230000E+03	7.343971E-18	3.994520E-19
3.240000E+03	7.428070E-18	4.028703E-19
3.250000E+03	7.514217E-18	4.063701E-19
3.260000E+03	7.602469E-18	4.099533E-19
3.270000E+03	7.692882E-18	4.136221E-19
3.280000E+03	7.785515E-18	4.173784E-19
3.290000E+03	7.880430E-18	4.212243E-19
3.300000E+03	7.977687E-18	4.251622E-19
3.310000E+03	8.077354E-18	4.291941E-19
3.320000E+03	8.179495E-18	4.333225E-19
3.330000E+03	8.284179E-18	4.375496E-19
3.340000E+03	8.391475E-18	4.418778E-19
3.350000E+03	8.501456E-18	4.463097E-19
3.360000E+03	8.614196E-18	4.508478E-19
3.370000E+03	8.729770E-18	4.554945E-19
3.380000E+03	8.849771E-18	4.603314E-19
3.390000E+03	8.971274E-18	4.652045E-19
3.400000E+03	9.095856E-18	4.701945E-19
3.410000E+03	9.223599E-18	4.753043E-19
3.420000E+03	9.354594E-18	4.805367E-19
3.430000E+03	9.488928E-18	4.858947E-19
3.440000E+03	9.626696E-18	4.913813E-19
3.450000E+03	9.767992E-18	4.969998E-19
3.460000E+03	9.914600E-18	5.028387E-19
3.470000E+03	1.006327E-17	5.087311E-19
3.480000E+03	1.021577E-17	5.147653E-19
3.490000E+03	1.037220E-17	5.209438E-19
3.500000E+03	1.053267E-17	5.272709E-19
3.510000E+03	1.069729E-17	5.337495E-19
3.520000E+03	1.086619E-17	5.403837E-19
3.530000E+03	1.103946E-17	5.471769E-19
3.540000E+03	1.121913E-17	5.542265E-19
3.550000E+03	1.140156E-17	5.613500E-19
3.560000E+03	1.158873E-17	5.686434E-19
3.570000E+03	1.178077E-17	5.761109E-19
3.580000E+03	1.197782E-17	5.837563E-19
3.590000E+03	1.218000E-17	5.915837E-19
3.600000E+03	1.238956E-17	5.996988E-19
3.610000E+03	1.260246E-17	6.079038E-19
3.620000E+03	1.282091E-17	6.163028E-19
3.630000E+03	1.304505E-17	6.249000E-19
3.640000E+03	1.327505E-17	6.337002E-19
3.650000E+03	1.351101E-17	6.427062E-19
3.660000E+03	1.375545E-17	6.520338E-19
3.670000E+03	1.400389E-17	6.614679E-19
3.680000E+03	1.425878E-17	6.711214E-19
3.690000E+03	1.452027E-17	6.809984E-19
3.700000E+03	1.478852E-17	6.911034E-19
3.710000E+03	1.506368E-17	7.014402E-19
3.720000E+03	1.534851E-17	7.121329E-19
3.730000E+03	1.563805E-17	7.229483E-19
3.740000E+03	1.593498E-17	7.340073E-19
3.750000E+03	1.623948E-17	7.453149E-19
3.760000E+03	1.655170E-17	7.568748E-19
3.770000E+03	1.687181E-17	7.686904E-19
3.780000E+03	1.720287E-17	7.808975E-19
3.790000E+03	1.753930E-17	7.932381E-19
3.800000E+03	1.788408E-17	8.058449E-19
3.810000E+03	1.823739E-17	8.187213E-19
3.820000E+03	1.859937E-17	8.318705E-19
3.830000E+03	1.897017E-17	8.452952E-19
3.840000E+03	1.935318E-17	8.591418E-19
3.850000E+03	1.974212E-17	8.731267E-19
3.860000E+03	2.014028E-17	8.873931E-19
3.870000E+03	2.054779E-17	9.019427E-19
3.880000E+03	2.096479E-17	9.167771E-19
3.890000E+03	2.139136E-17	9.318961E-19
3.900000E+03	2.183128E-17	9.474599E-19
3.910000E+03	2.227738E-17	9.631521E-19
3.920000E+03	2.273331E-17	9.791289E-19
3.930000E+03	2.319916E-17	9.953888E-19
3.940000E+03	2.367495E-17	1.011930E-18
3.950000E+03	2.416070E-17	1.028749E-18
3.960000E+03	2.465646E-17	1.045843E-18
3.970000E+03	2.516639E-17	1.063386E-18
3.980000E+03	2.568214E-17	1.081019E-18
3.990000E+03	2.620779E-17	1.098914E-18
4.000000E+03	2.674326E-17	1.117061E-18
4.010000E+03	2.728844E-17	1.135454E-18
4.020000E+03	2.784319E-17	1.154084E-18
4.030000E+03	2.840737E-17	1.172942E-18
4.040000E+03	2.898076E-17	1.192016E-18
4.050000E+03	2.956808E-17	1.211497E-18
4.060000E+03	3.015931E-17	1.230970E-18
4.070000E+03	3.075896E-17	1.250619E-18
4.080000E+03	3.136670E-17	1.270430E-18
4.090000E+03	3.198216E-17	1.290385E-18
4.100000E+03	3.260492E-17	1.310465E-18
4.110000E+03	3.323450E-17	1.330651E-18
4.120000E+03	3.387039E-17	1.350921E-18
4.130000E+03	3.451207E-17	1.371255E-18
4.140000E+03	3.515890E-17	1.391626E-18
4.150000E+03	3.581620E-17	1.412244E-18
4.160000E+03	3.647147E-17	1.432618E-18
4.170000E+03	3.712986E-17	1.452951E-18
4.180000E+03	3.779054E-17	1.473213E-18
4.190000E+03	3.845272E-17	1.493375E-18
4.200000E+03	3.911552E-17	1.513406E-18
4.210000E+03	3.977805E-17	1.533273E-18
4.220000E+03	4.043937E-17	1.552945E-18
4.230000E+03	4.109852E-17	1.572388E-18
4.240000E+03	4.175454E-17	1.591571E-18
4.250000E+03	4.240642E-17	1.610459E-18
4.260000E+03	4.305318E-17	1.629020E-18
4.270000E+03	4.369384E-17	1.647223E-18
4.280000E+03	4.432742E-17	1.665039E-18
4.290000E+03	4.495300E-17	1.682438E-18
4.300000E+03	4.556971E-17	1.699395E-18
4.310000E+03	4.617676E-17	1.715889E-18
4.320000E+03	4.677339E-17	1.731899E-18
4.330000E+03	4.735902E-17	1.747411E-18
4.340000E+03	4.793313E-17	1.762415E-18
4.350000E+03	4.849538E-17	1.776906E-18
4.360000E+03	4.904550E-17	1.790884E-18
4.370000E+03	4.958341E-17	1.804352E-18
4.380000E+03	5.010085E-17	1.817022E-18
4.390000E+03	5.061437E-17	1.829501E-18
4.400000E+03	5.111534E-17	1.841486E-18
4.410000E+03	5.160278E-17	1.852948E-18
4.420000E+03	5.207577E-17	1.863864E-18
4.430000E+03	5.253344E-17	1.874211E-18
4.440000E+03	5.297508E-17	1.883974E-18
4.450000E+03	5.340012E-17	1.893142E-18
4.460000E+03	5.380808E-17	1.901706E-18
4.470000E+03	5.418975E-17	1.909352E-18
4.480000E+03	5.456272E-17	1.916709E-18
4.490000E+03	5.491811E-17	1.923474E-18
4.500000E+03	5.525600E-17	1.929657E-18
4.510000E+03	5.557658E-17	1.935271E-18
4.520000E+03	5.588018E-17	1.940332E-18
4.530000E+03	5.615795E-17	1.944538E-18
4.540000E+03	5.642876E-17	1.948547E-18
4.550000E+03	5.668397E-17	1.952062E-18
4.560000E+03	5.692419E-17	1.955109E-18
4.570000E+03	5.714070E-17	1.957389E-18
4.580000E+03	5.735286E-17	1.959571E-18
4.590000E+03	5.755209E-17	1.961360E-18
4.600000E+03	5.773913E-17	1.962785E-18
4.610000E+03	5.790524E-17	1.963549E-18
4.620000E+03	5.807016E-17	1.964324E-18
4.630000E+03	5.822523E-17	1.964817E-18
4.640000E+03	5.837124E-17	1.965053E-18
4.650000E+03	5.849942E-17	1.964738E-18
4.660000E+03	5.862969E-17	1.964543E-18
4.670000E+03	5.875327E-17	1.964170E-18
4.680000E+03	5.886135E-17	1.963326E-18
4.690000E+03	5.897391E-17	1.962675E-18
4.700000E+03	5.908209E-17	1.961922E-18
4.710000E+03	5.917700E-17	1.960769E-18
4.720000E+03	5.927865E-17	1.959879E-18
4.730000E+03	5.936843E-17	1.958634E-18
4.740000E+03	5.946638E-17	1.957694E-18
4.750000E+03	5.956348E-17	1.956758E-18
4.760000E+03	5.965067E-17	1.955528E-18
4.770000E+03	5.974800E-17	1.954658E-18
4.780000E+03	5.983660E-17	1.953528E-18
4.790000E+03	5.993655E-17	1.952792E-18
4.800000E+03	6.002887E-17	1.951827E-18
4.810000E+03	6.013364E-17	1.951286E-18
4.820000E+03	6.023181E-17	1.950544E-18
4.830000E+03	6.034344E-17	1.950251E-18
4.840000E+03	6.044936E-17	1.949783E-18
4.850000E+03	6.056967E-17	1.949785E-18
4.860000E+03	6.068509E-17	1.949632E-18
4.870000E+03	6.081572E-17	1.949969E-18
4.880000E+03	6.094217E-17	1.950169E-18
4.890000E+03	6.108460E-17	1.950874E-18
4.900000E+03	6.122344E-17	1.951457E-18
4.910000E+03	6.136894E-17	1.952240E-18
4.920000E+03	6.153134E-17	1.953545E-18
4.930000E+03	6.169092E-17	1.954742E-18
4.940000E+03	6.186793E-17	1.956471E-18
4.950000E+03	6.204251E-17	1.958098E-18
4.960000E+03	6.222485E-17	1.959943E-18
4.970000E+03	6.242525E-17	1.962325E-18
4.980000E+03	6.262360E-17	1.964609E-18
4.990000E+03	6.283013E-17	1.967113E-18
5.000000E+03	6.305515E-17	1.970154E-18
5.010000E+03	6.327832E-17	1.973094E-18
5.020000E+03	6.350988E-17	1.976249E-18
5.030000E+03	6.376018E-17	1.979937E-18
5.040000E+03	6.400862E-17	1.983512E-18
5.050000E+03	6.426546E-17	1.987292E-18
5.060000E+03	6.453067E-17	1.991271E-18
5.070000E+03	6.480420E-17	1.995444E-18
5.080000E+03	6.509650E-17	2.000128E-18
5.090000E+03	6.538643E-17	2.004669E-18
5.100000E+03	6.568438E-17	2.009383E-18
5.110000E+03	6.599021E-17	2.014262E-18
5.120000E+03	6.630376E-17	2.019298E-18
5.130000E+03	6.663561E-17	2.024808E-18
5.140000E+03	6.696407E-17	2.030129E-18
5.150000E+03	6.729964E-17	2.035577E-18
5.160000E+03	6.764211E-17	2.041142E-18
5.170000E+03	6.799120E-17	2.046811E-18
5.180000E+03	6.834666E-17	2.052575E-18
5.190000E+03	6.870821E-17	2.058420E-18
5.200000E+03	6.907554E-17	2.064335E-18
5.210000E+03	6.944837E-17	2.070308E-18
5.220000E+03	6.982637E-17	2.076325E-18
5.230000E+03	7.020920E-17	2.082373E-18
5.240000E+03	7.059658E-17	2.088441E-18
5.250000E+03	7.098814E-17	2.094514E-18
5.260000E+03	7.138356E-17	2.100581E-18
5.270000E+03	7.178251E-17	2.106629E-18
5.280000E+03	7.218467E-17	2.112645E-18
5.290000E+03	7.258973E-17	2.118618E-18
5.300000E+03	7.299737E-17	2.124537E-18
5.310000E+03	7.340732E-17	2.130390E-18
5.320000E+03	7.381930E-17	2.136167E-18
5.330000E+03	7.423306E-17	2.141858E-18
5.340000E+03	7.464838E-17	2.147456E-18
5.350000E+03	7.506506E-17	2.152953E-18
5.360000E+03	7.548293E-17	2.158341E-18
5.370000E+03	7.590188E-17	2.163615E-18
5.380000E+03	7.630949E-17	2.168421E-18
5.390000E+03	7.673023E-17	2.173454E-18
5.400000E+03	7.715187E-17	2.178362E-18
5.410000E+03	7.757439E-17	2.183145E-18
5.420000E+03	7.799785E-17	2.187802E-18
5.430000E+03	7.842234E-17	2.192334E-18
5.440000E+03	7.883526E-17	2.196389E-18
5.450000E+03	7.926207E-17	2.200675E-18
5.460000E+03	7.969027E-17	2.204843E-18
5.470000E+03	8.012000E-17	2.208894E-18
5.480000E+03	8.053843E-17	2.212475E-18
5.490000E+03	8.097154E-17	2.216300E-18
5.500000E+03	8.140646E-17	2.220012E-18
5.510000E+03	8.184313E-17	2.223609E-18
5.520000E+03	8.226819E-17	2.226728E-18
5.530000E+03	8.270788E-17	2.230079E-18
5.540000E+03	8.314886E-17	2.233301E-18
5.550000E+03	8.357754E-17	2.236028E-18
5.560000E+03	8.402053E-17	2.238973E-18
5.570000E+03	8.445073E-17	2.241413E-18
5.580000E+03	8.489505E-17	2.244061E-18
5.590000E+03	8.533983E-17	2.246554E-18
5.600000E+03	8.577121E-17	2.248526E-18
5.610000E+03	8.621660E-17	2.250699E-18
5.620000E+03	8.664833E-17	2.252346E-18
5.630000E+03	8.709421E-17	2.254194E-18
5.640000E+03	8.754043E-17	2.255880E-18
5.650000E+03	8.797298E-17	2.257045E-18
5.660000E+03	8.842014E-17	2.258417E-18
5.670000E+03	8.885380E-17	2.259276E-18
5.680000E+03	8.930263E-17	2.260353E-18
5.690000E+03	8.973825E-17	2.260928E-18
5.700000E+03	9.018970E-17	2.261735E-18
5.710000E+03	9.062839E-17	2.262057E-18
5.720000E+03	9.108367E-17	2.262627E-18
5.730000E+03	9.152672E-17	2.262728E-18
5.740000E+03	9.197247E-17	2.262735E-18
5.750000E+03	9.243613E-17	2.263020E-18
5.760000E+03	9.288848E-17	2.262867E-18
5.770000E+03	9.335966E-17	2.263013E-18
5.780000E+03	9.382022E-17	2.262743E-18
5.790000E+03	9.428543E-17	2.262430E-18
5.800000E+03	9.477093E-17	2.262450E-18
5.810000E+03	9.524678E-17	2.262086E-18
5.820000E+03	9.574382E-17	2.262074E-18
5.830000E+03	9.623182E-17	2.261701E-18
5.840000E+03	9.672643E-17	2.261339E-18
5.850000E+03	9.724356E-17	2.261360E-18
5.860000E+03	9.775246E-17	2.261050E-18
5.870000E+03	9.826893E-17	2.260780E-18
5.880000E+03	9.879325E-17	2.260560E-18
5.890000E+03	9.934159E-17	2.260760E-18
5.900000E+03	9.988244E-17	2.260664E-18
5.910000E+03	1.004318E-16	2.260643E-18
5.920000E+03	1.009898E-16	2.260704E-18
5.930000E+03	1.015730E-16	2.261216E-18
5.940000E+03	1.021488E-16	2.261462E-18
5.950000E+03	1.027335E-16	2.261810E-18
5.960000E+03	1.033272E-16	2.262265E-18
5.970000E+03	1.039464E-16	2.263197E-18
5.980000E+03	1.045579E-16	2.263885E-18
5.990000E+03	1.051780E-16	2.264696E-18
6.000000E+03	1.058066E-16	2.265634E-18
6.010000E+03	1.064434E-16	2.266704E-18
6.020000E+03	1.070882E-16	2.267908E-18
6.030000E+03	1.077578E-16	2.269615E-18
6.040000E+03	1.084175E-16	2.271098E-18
6.050000E+03	1.090839E-16	2.272726E-18
6.060000E+03	1.097565E-16	2.274499E-18
6.070000E+03	1.104347E-16	2.276421E-18
6.080000E+03	1.111180E-16	2.278493E-18
6.090000E+03	1.118055E-16	2.280717E-18
6.100000E+03	1.124966E-16	2.283094E-18
6.110000E+03	1.131904E-16	2.285626E-18
6.120000E+03	1.138859E-16	2.288313E-18
6.130000E+03	1.145824E-16	2.291158E-18
6.140000E+03	1.152786E-16	2.294161E-18
6.150000E+03	1.159737E-16	2.297323E-18
6.160000E+03	1.166663E-16	2.300644E-18
6.170000E+03	1.173553E-16	2.304126E-18
6.180000E+03	1.180396E-16	2.307770E-18
6.190000E+03	1.187176E-16	2.311577E-18
6.200000E+03	1.193882E-16	2.315545E-18
6.210000E+03	1.200498E-16	2.319678E-18
6.220000E+03	1.207010E-16	2.323975E-18
6.230000E+03	1.213403E-16	2.328437E-18
6.240000E+03	1.219661E-16	2.333064E-18
6.250000E+03	1.225770E-16	2.337857E-18
6.260000E+03	1.231711E-16	2.342816E-18
6.270000E+03	1.237471E-16	2.347941E-18
6.280000E+03	1.243031E-16	2.353232E-18
6.290000E+03	1.248375E-16	2.358689E-18
6.300000E+03	1.253487E-16	2.364311E-18
6.310000E+03	1.258350E-16	2.370098E-18
6.320000E+03	1.262745E-16	2.375666E-18
6.330000E+03	1.267059E-16	2.381775E-18
6.340000E+03	1.271075E-16	2.388042E-18
6.350000E+03	1.274777E-16	2.394464E-18
6.360000E+03	1.278148E-16	2.401036E-18
6.370000E+03	1.281173E-16	2.407754E-18
6.380000E+03	1.283839E-16	2.414611E-18
6.390000E+03	1.285922E-16	2.421212E-18
6.400000E+03	1.287823E-16	2.428324E-18
6.410000E+03	1.289321E-16	2.435549E-18
6.420000E+03	1.290405E-16	2.442876E-18
6.430000E+03	1.290854E-16	2.449896E-18
6.440000E+03	1.291073E-16	2.457360E-18
6.450000E+03	1.290845E-16	2.464837E-18
6.460000E+03	1.290161E-16	2.472288E-18
6.470000E+03	1.289012E-16	2.479673E-18
6.480000E+03	1.287185E-16	2.486550E-18
6.490000E+03	1.285088E-16	2.493675E-18
6.500000E+03	1.282510E-16	2.500608E-18
6.510000E+03	1.279242E-16	2.506907E-18
6.520000E+03	1.275694E-16	2.513335E-18
6.530000E+03	1.271661E-16	2.519453E-18
6.540000E+03	1.267148E-16	2.525229E-18
6.550000E+03	1.261959E-16	2.530231E-18
6.560000E+03	1.256512E-16	2.535248E-18
6.570000E+03	1.250616E-16	2.539854E-18
6.580000E+03	1.244083E-16	2.543624E-18
6.590000E+03	1.237328E-16	2.547356E-18
6.600000E+03	1.230167E-16	2.550630E-18
6.610000E+03	1.222419E-16	2.553024E-18
6.620000E+03	1.214495E-16	2.555346E-18
6.630000E+03	1.206021E-16	2.556768E-18
6.640000E+03	1.197403E-16	2.558103E-18
6.650000E+03	1.188464E-16	2.558938E-18
6.660000E+03	1.179034E-16	2.558856E-18
6.670000E+03	1.169511E-16	2.558678E-18
6.680000E+03	1.159536E-16	2.557584E-18
6.690000E+03	1.149504E-16	2.556396E-18
6.700000E+03	1.139244E-16	2.554707E-18
6.710000E+03	1.128594E-16	2.552113E-18
6.720000E+03	1.117938E-16	2.549441E-18
6.730000E+03	1.106934E-16	2.545882E-18
6.740000E+03	1.095958E-16	2.542264E-18
6.750000E+03	1.084673E-16	2.537783E-18
6.760000E+03	1.073450E-16	2.533269E-18
6.770000E+03	1.061958E-16	2.527923E-18
6.780000E+03	1.050559E-16	2.522573E-18
6.790000E+03	1.038931E-16	2.516427E-18
6.800000E+03	1.027426E-16	2.510314E-18
6.810000E+03	1.015728E-16	2.503445E-18
6.820000E+03	1.004182E-16	2.496646E-18
6.830000E+03	9.924772E-17	2.489136E-18
6.840000E+03	9.809505E-17	2.481738E-18
6.850000E+03	9.692982E-17	2.473676E-18
6.860000E+03	9.578474E-17	2.465768E-18
6.870000E+03	9.463008E-17	2.457243E-18
6.880000E+03	9.349770E-17	2.448917E-18
6.890000E+03	9.235849E-17	2.440023E-18
6.900000E+03	9.124341E-17	2.431371E-18
6.910000E+03	9.012397E-17	2.422200E-18
6.920000E+03	8.901595E-17	2.412925E-18
6.930000E+03	8.793437E-17	2.403955E-18
6.940000E+03	8.685160E-17	2.394536E-18
6.950000E+03	8.579652E-17	2.385463E-18
6.960000E+03	8.474202E-17	2.375988E-18
6.970000E+03	8.370274E-17	2.366515E-18
6.980000E+03	8.269253E-17	2.357444E-18
6.990000E+03	8.168512E-17	2.348033E-18
7.000000E+03	8.069447E-17	2.338683E-18
7.010000E+03	7.973381E-17	2.329785E-18
7.020000E+03	7.877765E-17	2.320606E-18
7.030000E+03	7.783933E-17	2.311538E-18
7.040000E+03	7.693145E-17	2.302967E-18
7.050000E+03	7.602935E-17	2.294166E-18
7.060000E+03	7.514572E-17	2.285520E-18
7.070000E+03	7.429266E-17	2.277411E-18
7.080000E+03	7.344622E-17	2.269115E-18
7.090000E+03	7.261855E-17	2.261013E-18
7.100000E+03	7.182127E-17	2.253480E-18
7.110000E+03	7.103109E-17	2.245797E-18
7.120000E+03	7.025971E-17	2.238341E-18
7.130000E+03	6.950706E-17	2.231119E-18
7.140000E+03	6.878414E-17	2.224499E-18
7.150000E+03	6.806858E-17	2.217771E-18
7.160000E+03	6.737145E-17	2.211302E-18
7.170000E+03	6.669262E-17	2.205098E-18
7.180000E+03	6.604256E-17	2.199519E-18
7.190000E+03	6.539969E-17	2.193862E-18
7.200000E+03	6.477459E-17	2.188487E-18
7.210000E+03	6.416704E-17	2.183397E-18
7.220000E+03	6.358708E-17	2.178949E-18
7.230000E+03	6.301385E-17	2.174442E-18
7.240000E+03	6.245749E-17	2.170230E-18
7.250000E+03	6.191771E-17	2.166316E-18
7.260000E+03	6.139427E-17	2.162702E-18
7.270000E+03	6.089674E-17	2.159738E-18
7.280000E+03	6.040506E-17	2.156725E-18
7.290000E+03	5.992888E-17	2.154015E-18
7.300000E+03	5.946791E-17	2.151606E-18
7.310000E+03	5.902184E-17	2.149499E-18
7.320000E+03	5.859035E-17	2.147691E-18
7.330000E+03	5.817314E-17	2.146180E-18
7.340000E+03	5.777923E-17	2.145313E-18
7.350000E+03	5.738957E-17	2.144393E-18
7.360000E+03	5.701322E-17	2.143763E-18
7.370000E+03	5.664985E-17	2.143420E-18
7.380000E+03	5.629912E-17	2.143360E-18
7.390000E+03	5.596070E-17	2.143578E-18
7.400000E+03	5.563425E-17	2.144072E-18
7.410000E+03	5.531941E-17	2.144833E-18
7.420000E+03	5.501584E-17	2.145857E-18
7.430000E+03	5.472316E-17	2.147138E-18
7.440000E+03	5.444986E-17	2.149017E-18
7.450000E+03	5.417787E-17	2.150790E-18
7.460000E+03	5.391571E-17	2.152798E-18
7.470000E+03	5.366297E-17	2.155033E-18
7.480000E+03	5.341931E-17	2.157485E-18
7.490000E+03	5.318434E-17	2.160146E-18
7.500000E+03	5.295765E-17	2.163004E-18
7.510000E+03	5.273887E-17	2.166051E-18
7.520000E+03	5.252760E-17	2.169275E-18
7.530000E+03	5.232345E-17	2.172665E-18
7.540000E+03	5.212599E-17	2.176207E-18
7.550000E+03	5.193484E-17	2.179891E-18
7.560000E+03	5.174955E-17	2.183701E-18
7.570000E+03	5.156973E-17	2.187625E-18
7.580000E+03	5.139494E-17	2.191648E-18
7.590000E+03	5.122477E-17	2.195756E-18
7.600000E+03	5.105876E-17	2.199932E-18
7.610000E+03	5.089649E-17	2.204160E-18
7.620000E+03	5.073750E-17	2.208423E-18
7.630000E+03	5.057315E-17	2.212346E-18
7.640000E+03	5.041943E-17	2.216627E-18
7.650000E+03	5.026766E-17	2.220892E-18
7.660000E+03	5.011737E-17	2.225119E-18
7.670000E+03	4.996810E-17	2.229289E-18
7.680000E+03	4.981940E-17	2.233383E-18
7.690000E+03	4.967082E-17	2.237382E-18
7.700000E+03	4.952188E-17	2.241263E-18
7.710000E+03	4.937212E-17	2.245006E-18
7.720000E+03	4.922108E-17	2.248590E-18
7.730000E+03	4.906831E-17	2.251993E-18
7.740000E+03	4.890538E-17	2.254825E-18
7.750000E+03	4.874781E-17	2.257799E-18
7.760000E+03	4.858715E-17	2.260525E-18
