#wls	flux	fluxerr
1.574958E+03	1.986674E-18	0.000000E+00
1.614332E+03	2.098958E-18	0.000000E+00
1.653706E+03	2.200738E-18	0.000000E+00
1.693080E+03	2.289746E-18	0.000000E+00
1.732454E+03	2.362264E-18	0.000000E+00
1.771828E+03	2.411849E-18	0.000000E+00
1.811202E+03	2.430008E-18	0.000000E+00
1.850576E+03	2.408066E-18	0.000000E+00
1.889950E+03	2.338577E-18	0.000000E+00
1.929324E+03	2.219495E-18	0.000000E+00
1.968698E+03	2.059496E-18	0.000000E+00
2.008072E+03	1.883404E-18	0.000000E+00
2.047446E+03	1.730447E-18	0.000000E+00
2.086820E+03	1.644278E-18	0.000000E+00
2.126194E+03	1.660670E-18	0.000000E+00
2.165567E+03	1.800309E-18	0.000000E+00
2.204941E+03	2.068394E-18	0.000000E+00
2.244315E+03	2.456490E-18	0.000000E+00
2.283689E+03	2.945428E-18	0.000000E+00
2.323063E+03	3.512397E-18	0.000000E+00
2.362437E+03	4.135958E-18	0.000000E+00
2.401811E+03	4.799797E-18	0.000000E+00
2.441185E+03	5.494348E-18	0.000000E+00
2.480559E+03	6.214962E-18	0.000000E+00
2.519933E+03	6.960519E-18	0.000000E+00
2.559307E+03	7.733429E-18	0.000000E+00
2.598681E+03	8.536459E-18	0.000000E+00
2.638055E+03	9.373947E-18	0.000000E+00
2.677429E+03	1.024956E-17	0.000000E+00
2.716803E+03	1.116825E-17	0.000000E+00
2.756177E+03	1.213388E-17	0.000000E+00
2.795551E+03	1.315118E-17	0.000000E+00
2.834925E+03	1.422554E-17	0.000000E+00
2.874299E+03	1.536354E-17	0.000000E+00
2.913673E+03	1.657363E-17	0.000000E+00
2.953047E+03	1.786636E-17	0.000000E+00
2.962890E+03	1.820374E-17	0.000000E+00
2.972734E+03	1.854745E-17	0.000000E+00
2.982577E+03	1.889724E-17	0.000000E+00
2.992421E+03	1.925480E-17	0.000000E+00
3.002264E+03	1.962258E-17	0.000000E+00
3.012107E+03	2.000368E-17	0.000000E+00
3.021951E+03	2.039760E-17	0.000000E+00
3.031794E+03	2.080498E-17	0.000000E+00
3.041638E+03	2.122415E-17	0.000000E+00
3.051481E+03	2.165637E-17	0.000000E+00
3.061325E+03	2.210086E-17	0.000000E+00
3.071168E+03	2.255780E-17	0.000000E+00
3.081012E+03	2.302696E-17	0.000000E+00
3.090855E+03	2.350816E-17	0.000000E+00
3.100699E+03	2.400124E-17	0.000000E+00
3.110542E+03	2.450656E-17	0.000000E+00
3.120386E+03	2.502359E-17	0.000000E+00
3.130229E+03	2.555280E-17	0.000000E+00
3.140073E+03	2.609415E-17	0.000000E+00
3.149916E+03	2.664777E-17	0.000000E+00
3.159760E+03	2.721416E-17	0.000000E+00
3.169603E+03	2.779252E-17	0.000000E+00
3.179447E+03	2.838439E-17	0.000000E+00
3.189290E+03	2.898845E-17	0.000000E+00
3.199134E+03	2.960624E-17	0.000000E+00
3.208977E+03	3.023682E-17	0.000000E+00
3.218821E+03	3.088058E-17	0.000000E+00
3.228664E+03	3.153737E-17	0.000000E+00
3.238508E+03	3.220635E-17	0.000000E+00
3.248351E+03	3.288815E-17	0.000000E+00
3.258195E+03	3.358123E-17	0.000000E+00
3.268038E+03	3.428517E-17	0.000000E+00
3.277882E+03	3.500057E-17	0.000000E+00
3.287725E+03	3.572610E-17	0.000000E+00
3.297569E+03	3.646162E-17	0.000000E+00
3.307412E+03	3.720710E-17	0.000000E+00
3.317256E+03	3.796327E-17	0.000000E+00
3.327099E+03	3.872935E-17	0.000000E+00
3.336943E+03	3.950568E-17	0.000000E+00
3.346786E+03	4.029326E-17	0.000000E+00
3.356630E+03	4.109196E-17	0.000000E+00
3.366473E+03	4.190225E-17	0.000000E+00
3.376317E+03	4.272345E-17	0.000000E+00
3.386160E+03	4.355659E-17	0.000000E+00
3.396004E+03	4.440217E-17	0.000000E+00
3.405847E+03	4.525958E-17	0.000000E+00
3.415691E+03	4.612949E-17	0.000000E+00
3.425534E+03	4.701201E-17	0.000000E+00
3.435377E+03	4.790846E-17	0.000000E+00
3.445221E+03	4.881797E-17	0.000000E+00
3.455064E+03	4.974198E-17	0.000000E+00
3.464908E+03	5.068036E-17	0.000000E+00
3.474751E+03	5.163346E-17	0.000000E+00
3.484595E+03	5.260172E-17	0.000000E+00
3.494438E+03	5.358474E-17	0.000000E+00
3.504282E+03	5.458307E-17	0.000000E+00
3.514125E+03	5.559501E-17	0.000000E+00
3.523969E+03	5.661951E-17	0.000000E+00
3.533812E+03	5.765530E-17	0.000000E+00
3.543656E+03	5.869924E-17	0.000000E+00
3.553499E+03	5.974766E-17	0.000000E+00
3.563343E+03	6.079511E-17	0.000000E+00
3.573186E+03	6.183450E-17	0.000000E+00
3.583030E+03	6.285766E-17	0.000000E+00
3.592873E+03	6.385337E-17	0.000000E+00
3.602717E+03	6.481065E-17	0.000000E+00
3.612560E+03	6.571577E-17	0.000000E+00
3.622404E+03	6.655608E-17	0.000000E+00
3.632247E+03	6.732068E-17	0.000000E+00
3.642091E+03	6.799914E-17	0.000000E+00
3.651934E+03	6.858608E-17	0.000000E+00
3.661778E+03	6.908238E-17	0.000000E+00
3.671621E+03	6.949278E-17	0.000000E+00
3.681465E+03	6.982898E-17	0.000000E+00
3.691308E+03	7.011023E-17	0.000000E+00
3.701152E+03	7.035950E-17	0.000000E+00
3.710995E+03	7.060568E-17	0.000000E+00
3.720839E+03	7.088111E-17	0.000000E+00
3.730682E+03	7.121785E-17	0.000000E+00
3.740526E+03	7.164746E-17	0.000000E+00
3.750369E+03	7.219840E-17	0.000000E+00
3.760213E+03	7.289412E-17	0.000000E+00
3.770056E+03	7.375233E-17	0.000000E+00
3.779900E+03	7.478200E-17	0.000000E+00
3.789743E+03	7.598523E-17	0.000000E+00
3.799587E+03	7.735588E-17	0.000000E+00
3.809430E+03	7.887850E-17	0.000000E+00
3.819274E+03	8.053113E-17	0.000000E+00
3.829117E+03	8.228751E-17	0.000000E+00
3.838961E+03	8.411612E-17	0.000000E+00
3.848804E+03	8.598310E-17	0.000000E+00
3.858648E+03	8.785729E-17	0.000000E+00
3.868491E+03	8.970951E-17	0.000000E+00
3.878334E+03	9.151273E-17	0.000000E+00
3.888178E+03	9.324857E-17	0.000000E+00
3.898021E+03	9.490438E-17	0.000000E+00
3.907865E+03	9.647357E-17	0.000000E+00
3.917708E+03	9.795524E-17	0.000000E+00
3.927552E+03	9.935736E-17	0.000000E+00
3.937395E+03	1.006893E-16	0.000000E+00
3.947239E+03	1.019638E-16	0.000000E+00
3.957082E+03	1.031965E-16	0.000000E+00
3.966926E+03	1.043996E-16	0.000000E+00
3.976769E+03	1.055852E-16	0.000000E+00
3.986613E+03	1.067579E-16	0.000000E+00
3.996456E+03	1.079221E-16	0.000000E+00
4.006300E+03	1.090738E-16	0.000000E+00
4.016143E+03	1.102059E-16	0.000000E+00
4.025987E+03	1.113099E-16	0.000000E+00
4.035830E+03	1.123729E-16	0.000000E+00
4.045674E+03	1.133869E-16	0.000000E+00
4.055517E+03	1.143411E-16	0.000000E+00
4.065361E+03	1.152303E-16	0.000000E+00
4.075204E+03	1.160515E-16	0.000000E+00
4.085048E+03	1.168018E-16	0.000000E+00
4.094891E+03	1.174807E-16	0.000000E+00
4.104735E+03	1.180861E-16	0.000000E+00
4.114578E+03	1.186127E-16	0.000000E+00
4.124422E+03	1.190560E-16	0.000000E+00
4.134265E+03	1.194048E-16	0.000000E+00
4.144109E+03	1.196503E-16	0.000000E+00
4.153952E+03	1.197799E-16	0.000000E+00
4.163796E+03	1.197857E-16	0.000000E+00
4.173639E+03	1.196631E-16	0.000000E+00
4.183483E+03	1.194124E-16	0.000000E+00
4.193326E+03	1.190461E-16	0.000000E+00
4.203170E+03	1.185835E-16	0.000000E+00
4.213013E+03	1.180537E-16	0.000000E+00
4.222857E+03	1.174948E-16	0.000000E+00
4.232700E+03	1.169542E-16	0.000000E+00
4.242544E+03	1.164834E-16	0.000000E+00
4.252387E+03	1.161323E-16	0.000000E+00
4.262231E+03	1.159537E-16	0.000000E+00
4.272074E+03	1.159904E-16	0.000000E+00
4.281918E+03	1.162812E-16	0.000000E+00
4.291761E+03	1.168502E-16	0.000000E+00
4.301604E+03	1.177119E-16	0.000000E+00
4.311448E+03	1.188681E-16	0.000000E+00
4.321291E+03	1.203082E-16	0.000000E+00
4.331135E+03	1.220112E-16	0.000000E+00
4.340978E+03	1.239488E-16	0.000000E+00
4.350822E+03	1.260875E-16	0.000000E+00
4.360665E+03	1.283902E-16	0.000000E+00
4.370509E+03	1.308201E-16	0.000000E+00
4.380352E+03	1.333383E-16	0.000000E+00
4.390196E+03	1.359092E-16	0.000000E+00
4.400039E+03	1.384927E-16	0.000000E+00
4.409883E+03	1.410465E-16	0.000000E+00
4.419726E+03	1.435237E-16	0.000000E+00
4.429570E+03	1.458725E-16	0.000000E+00
4.439413E+03	1.480368E-16	0.000000E+00
4.449257E+03	1.499588E-16	0.000000E+00
4.459100E+03	1.515797E-16	0.000000E+00
4.468944E+03	1.528511E-16	0.000000E+00
4.478787E+03	1.537290E-16	0.000000E+00
4.488631E+03	1.541846E-16	0.000000E+00
4.498474E+03	1.542017E-16	0.000000E+00
4.508318E+03	1.537819E-16	0.000000E+00
4.518161E+03	1.529392E-16	0.000000E+00
4.528005E+03	1.517003E-16	0.000000E+00
4.537848E+03	1.501097E-16	0.000000E+00
4.547692E+03	1.482159E-16	0.000000E+00
4.557535E+03	1.460761E-16	0.000000E+00
4.567379E+03	1.437535E-16	0.000000E+00
4.577222E+03	1.413109E-16	0.000000E+00
4.587066E+03	1.388051E-16	0.000000E+00
4.596909E+03	1.362946E-16	0.000000E+00
4.606753E+03	1.338276E-16	0.000000E+00
4.616596E+03	1.314448E-16	0.000000E+00
4.626440E+03	1.291798E-16	0.000000E+00
4.636283E+03	1.270568E-16	0.000000E+00
4.646127E+03	1.250934E-16	0.000000E+00
4.655970E+03	1.232976E-16	0.000000E+00
4.665814E+03	1.216752E-16	0.000000E+00
4.675657E+03	1.202281E-16	0.000000E+00
4.685501E+03	1.189510E-16	0.000000E+00
4.695344E+03	1.178414E-16	0.000000E+00
4.705188E+03	1.168918E-16	0.000000E+00
4.715031E+03	1.160924E-16	0.000000E+00
4.724874E+03	1.154345E-16	0.000000E+00
4.734718E+03	1.149017E-16	0.000000E+00
4.744561E+03	1.144819E-16	0.000000E+00
4.754405E+03	1.141552E-16	0.000000E+00
4.764248E+03	1.139072E-16	0.000000E+00
4.774092E+03	1.137206E-16	0.000000E+00
4.783935E+03	1.135854E-16	0.000000E+00
4.793779E+03	1.134914E-16	0.000000E+00
4.803622E+03	1.134366E-16	0.000000E+00
4.813466E+03	1.134227E-16	0.000000E+00
4.823309E+03	1.134543E-16	0.000000E+00
4.833153E+03	1.135402E-16	0.000000E+00
4.842996E+03	1.136909E-16	0.000000E+00
4.852840E+03	1.139189E-16	0.000000E+00
4.862683E+03	1.142339E-16	0.000000E+00
4.872527E+03	1.146495E-16	0.000000E+00
4.882370E+03	1.151748E-16	0.000000E+00
4.892214E+03	1.158225E-16	0.000000E+00
4.902057E+03	1.166025E-16	0.000000E+00
4.911901E+03	1.175252E-16	0.000000E+00
4.921744E+03	1.185996E-16	0.000000E+00
4.931588E+03	1.198329E-16	0.000000E+00
4.941431E+03	1.212249E-16	0.000000E+00
4.951275E+03	1.227726E-16	0.000000E+00
4.961118E+03	1.244635E-16	0.000000E+00
4.970962E+03	1.262789E-16	0.000000E+00
4.980805E+03	1.281887E-16	0.000000E+00
4.990649E+03	1.301536E-16	0.000000E+00
5.000492E+03	1.321294E-16	0.000000E+00
5.010336E+03	1.340653E-16	0.000000E+00
5.020179E+03	1.359059E-16	0.000000E+00
5.030023E+03	1.375966E-16	0.000000E+00
5.039866E+03	1.390905E-16	0.000000E+00
5.049710E+03	1.403417E-16	0.000000E+00
5.059553E+03	1.413160E-16	0.000000E+00
5.069397E+03	1.419897E-16	0.000000E+00
5.079240E+03	1.423498E-16	0.000000E+00
5.089084E+03	1.423928E-16	0.000000E+00
5.098927E+03	1.421284E-16	0.000000E+00
5.108771E+03	1.415701E-16	0.000000E+00
5.118614E+03	1.407430E-16	0.000000E+00
5.128458E+03	1.396727E-16	0.000000E+00
5.138301E+03	1.383936E-16	0.000000E+00
5.148145E+03	1.369359E-16	0.000000E+00
5.157988E+03	1.353351E-16	0.000000E+00
5.167831E+03	1.336221E-16	0.000000E+00
5.177675E+03	1.318321E-16	0.000000E+00
5.187518E+03	1.299981E-16	0.000000E+00
5.197362E+03	1.281498E-16	0.000000E+00
5.207205E+03	1.263179E-16	0.000000E+00
5.217049E+03	1.245313E-16	0.000000E+00
5.226892E+03	1.228130E-16	0.000000E+00
5.236736E+03	1.211809E-16	0.000000E+00
5.246579E+03	1.196481E-16	0.000000E+00
5.256423E+03	1.182210E-16	0.000000E+00
5.266266E+03	1.168994E-16	0.000000E+00
5.276110E+03	1.156753E-16	0.000000E+00
5.285953E+03	1.145383E-16	0.000000E+00
5.295797E+03	1.134722E-16	0.000000E+00
5.305640E+03	1.124623E-16	0.000000E+00
5.315484E+03	1.114922E-16	0.000000E+00
5.325327E+03	1.105511E-16	0.000000E+00
5.335171E+03	1.096309E-16	0.000000E+00
5.345014E+03	1.087251E-16	0.000000E+00
5.354858E+03	1.078353E-16	0.000000E+00
5.364701E+03	1.069634E-16	0.000000E+00
5.374545E+03	1.061098E-16	0.000000E+00
5.384388E+03	1.052843E-16	0.000000E+00
5.394232E+03	1.044926E-16	0.000000E+00
5.404075E+03	1.037427E-16	0.000000E+00
5.413919E+03	1.030450E-16	0.000000E+00
5.423762E+03	1.024048E-16	0.000000E+00
5.433606E+03	1.018274E-16	0.000000E+00
5.443449E+03	1.013171E-16	0.000000E+00
5.453293E+03	1.008716E-16	0.000000E+00
5.463136E+03	1.004871E-16	0.000000E+00
5.472980E+03	1.001548E-16	0.000000E+00
5.482823E+03	9.986259E-17	0.000000E+00
5.492667E+03	9.959909E-17	0.000000E+00
5.502510E+03	9.935258E-17	0.000000E+00
5.512354E+03	9.911360E-17	0.000000E+00
5.522197E+03	9.887676E-17	0.000000E+00
5.532041E+03	9.863971E-17	0.000000E+00
5.541884E+03	9.840418E-17	0.000000E+00
5.551728E+03	9.817646E-17	0.000000E+00
5.561571E+03	9.796479E-17	0.000000E+00
5.571415E+03	9.777998E-17	0.000000E+00
5.581258E+03	9.763201E-17	0.000000E+00
5.591101E+03	9.752965E-17	0.000000E+00
5.600945E+03	9.747985E-17	0.000000E+00
5.610788E+03	9.748492E-17	0.000000E+00
5.620632E+03	9.754266E-17	0.000000E+00
5.630475E+03	9.764727E-17	0.000000E+00
5.640319E+03	9.778741E-17	0.000000E+00
5.650162E+03	9.794911E-17	0.000000E+00
5.660006E+03	9.811341E-17	0.000000E+00
5.669849E+03	9.826270E-17	0.000000E+00
5.679693E+03	9.837568E-17	0.000000E+00
5.689536E+03	9.843277E-17	0.000000E+00
5.699380E+03	9.841826E-17	0.000000E+00
5.709223E+03	9.831524E-17	0.000000E+00
5.719067E+03	9.811491E-17	0.000000E+00
5.728910E+03	9.781081E-17	0.000000E+00
5.738754E+03	9.740106E-17	0.000000E+00
5.748597E+03	9.688709E-17	0.000000E+00
5.758441E+03	9.627750E-17	0.000000E+00
5.768284E+03	9.558069E-17	0.000000E+00
5.778128E+03	9.480937E-17	0.000000E+00
5.787971E+03	9.397635E-17	0.000000E+00
5.797815E+03	9.309391E-17	0.000000E+00
5.807658E+03	9.217636E-17	0.000000E+00
5.817502E+03	9.123762E-17	0.000000E+00
5.827345E+03	9.028811E-17	0.000000E+00
5.837189E+03	8.934086E-17	0.000000E+00
5.847032E+03	8.840709E-17	0.000000E+00
5.856876E+03	8.749799E-17	0.000000E+00
5.866719E+03	8.662002E-17	0.000000E+00
5.876563E+03	8.578108E-17	0.000000E+00
5.886406E+03	8.498178E-17	0.000000E+00
5.896250E+03	8.422199E-17	0.000000E+00
5.906093E+03	8.349668E-17	0.000000E+00
5.915937E+03	8.279645E-17	0.000000E+00
5.925780E+03	8.211138E-17	0.000000E+00
5.935624E+03	8.142778E-17	0.000000E+00
5.945467E+03	8.073643E-17	0.000000E+00
5.955311E+03	8.002581E-17	0.000000E+00
5.965154E+03	7.929283E-17	0.000000E+00
5.974998E+03	7.853541E-17	0.000000E+00
5.984841E+03	7.775982E-17	0.000000E+00
5.994685E+03	7.697507E-17	0.000000E+00
6.004528E+03	7.619713E-17	0.000000E+00
6.014371E+03	7.544519E-17	0.000000E+00
6.024215E+03	7.474225E-17	0.000000E+00
6.034058E+03	7.411080E-17	0.000000E+00
6.043902E+03	7.357354E-17	0.000000E+00
6.053745E+03	7.315193E-17	0.000000E+00
6.063589E+03	7.286282E-17	0.000000E+00
6.073432E+03	7.271629E-17	0.000000E+00
6.083276E+03	7.271943E-17	0.000000E+00
6.093119E+03	7.287219E-17	0.000000E+00
6.102963E+03	7.316916E-17	0.000000E+00
6.112806E+03	7.359959E-17	0.000000E+00
6.122650E+03	7.414720E-17	0.000000E+00
6.132493E+03	7.479155E-17	0.000000E+00
6.142337E+03	7.551009E-17	0.000000E+00
6.152180E+03	7.627434E-17	0.000000E+00
6.162024E+03	7.705282E-17	0.000000E+00
6.171867E+03	7.781728E-17	0.000000E+00
6.181711E+03	7.853743E-17	0.000000E+00
6.191554E+03	7.918300E-17	0.000000E+00
6.201398E+03	7.973310E-17	0.000000E+00
6.211241E+03	8.016592E-17	0.000000E+00
6.221085E+03	8.047206E-17	0.000000E+00
6.230928E+03	8.064578E-17	0.000000E+00
6.240772E+03	8.069184E-17	0.000000E+00
6.250615E+03	8.062155E-17	0.000000E+00
6.260459E+03	8.045287E-17	0.000000E+00
6.270302E+03	8.020822E-17	0.000000E+00
6.280146E+03	7.991087E-17	0.000000E+00
6.289989E+03	7.958378E-17	0.000000E+00
6.299833E+03	7.924956E-17	0.000000E+00
6.309676E+03	7.892304E-17	0.000000E+00
6.319520E+03	7.861720E-17	0.000000E+00
6.329363E+03	7.833691E-17	0.000000E+00
6.339207E+03	7.808284E-17	0.000000E+00
6.349050E+03	7.785240E-17	0.000000E+00
6.358894E+03	7.764094E-17	0.000000E+00
6.368737E+03	7.743963E-17	0.000000E+00
6.378581E+03	7.724027E-17	0.000000E+00
6.388424E+03	7.703517E-17	0.000000E+00
6.398268E+03	7.681549E-17	0.000000E+00
6.408111E+03	7.657772E-17	0.000000E+00
6.417955E+03	7.631786E-17	0.000000E+00
6.427798E+03	7.603270E-17	0.000000E+00
6.437642E+03	7.572422E-17	0.000000E+00
6.447485E+03	7.539243E-17	0.000000E+00
6.457328E+03	7.503838E-17	0.000000E+00
6.467172E+03	7.466742E-17	0.000000E+00
6.477015E+03	7.428197E-17	0.000000E+00
6.486859E+03	7.388571E-17	0.000000E+00
6.496702E+03	7.348352E-17	0.000000E+00
6.506546E+03	7.307631E-17	0.000000E+00
6.516389E+03	7.266690E-17	0.000000E+00
6.526233E+03	7.225963E-17	0.000000E+00
6.536076E+03	7.185320E-17	0.000000E+00
6.545920E+03	7.144770E-17	0.000000E+00
6.555763E+03	7.104357E-17	0.000000E+00
6.565607E+03	7.063793E-17	0.000000E+00
6.575450E+03	7.022878E-17	0.000000E+00
6.585294E+03	6.981497E-17	0.000000E+00
6.595137E+03	6.939209E-17	0.000000E+00
6.604981E+03	6.895855E-17	0.000000E+00
6.614824E+03	6.851591E-17	0.000000E+00
6.624668E+03	6.806185E-17	0.000000E+00
6.634511E+03	6.759760E-17	0.000000E+00
6.644355E+03	6.712632E-17	0.000000E+00
6.654198E+03	6.664968E-17	0.000000E+00
6.664042E+03	6.617100E-17	0.000000E+00
6.673885E+03	6.569385E-17	0.000000E+00
6.683729E+03	6.522191E-17	0.000000E+00
6.693572E+03	6.475740E-17	0.000000E+00
6.703416E+03	6.430453E-17	0.000000E+00
6.713259E+03	6.386588E-17	0.000000E+00
6.723103E+03	6.344259E-17	0.000000E+00
6.732946E+03	6.303732E-17	0.000000E+00
6.742790E+03	6.265017E-17	0.000000E+00
6.752633E+03	6.228170E-17	0.000000E+00
6.762477E+03	6.193222E-17	0.000000E+00
6.772320E+03	6.160018E-17	0.000000E+00
6.782164E+03	6.128705E-17	0.000000E+00
6.792007E+03	6.099053E-17	0.000000E+00
6.801851E+03	6.070787E-17	0.000000E+00
6.811694E+03	6.043849E-17	0.000000E+00
6.821538E+03	6.017946E-17	0.000000E+00
6.831381E+03	5.992922E-17	0.000000E+00
6.841225E+03	5.968776E-17	0.000000E+00
6.851068E+03	5.945341E-17	0.000000E+00
6.860912E+03	5.922629E-17	0.000000E+00
6.870755E+03	5.900727E-17	0.000000E+00
6.880598E+03	5.879802E-17	0.000000E+00
6.890442E+03	5.859933E-17	0.000000E+00
6.900285E+03	5.841604E-17	0.000000E+00
6.910129E+03	5.824845E-17	0.000000E+00
6.919972E+03	5.809894E-17	0.000000E+00
6.929816E+03	5.797053E-17	0.000000E+00
6.939659E+03	5.786349E-17	0.000000E+00
6.949503E+03	5.777827E-17	0.000000E+00
6.959346E+03	5.771447E-17	0.000000E+00
6.969190E+03	5.767060E-17	0.000000E+00
6.979033E+03	5.764551E-17	0.000000E+00
6.988877E+03	5.763381E-17	0.000000E+00
6.998720E+03	5.763177E-17	0.000000E+00
7.008564E+03	5.763643E-17	0.000000E+00
7.018407E+03	5.764369E-17	0.000000E+00
7.028251E+03	5.764821E-17	0.000000E+00
7.038094E+03	5.764737E-17	0.000000E+00
7.047938E+03	5.763518E-17	0.000000E+00
7.057781E+03	5.761102E-17	0.000000E+00
7.067625E+03	5.757098E-17	0.000000E+00
7.077468E+03	5.751274E-17	0.000000E+00
7.087312E+03	5.743330E-17	0.000000E+00
7.097155E+03	5.733344E-17	0.000000E+00
7.106999E+03	5.720974E-17	0.000000E+00
7.116842E+03	5.706248E-17	0.000000E+00
7.126686E+03	5.688997E-17	0.000000E+00
7.136529E+03	5.669315E-17	0.000000E+00
7.146373E+03	5.647073E-17	0.000000E+00
7.156216E+03	5.622260E-17	0.000000E+00
7.166060E+03	5.594985E-17	0.000000E+00
7.175903E+03	5.565093E-17	0.000000E+00
7.185747E+03	5.532636E-17	0.000000E+00
7.195590E+03	5.497269E-17	0.000000E+00
7.205434E+03	5.458960E-17	0.000000E+00
7.215277E+03	5.417633E-17	0.000000E+00
7.225121E+03	5.372833E-17	0.000000E+00
7.234964E+03	5.324447E-17	0.000000E+00
7.244808E+03	5.272152E-17	0.000000E+00
7.254651E+03	5.215908E-17	0.000000E+00
7.264495E+03	5.155540E-17	0.000000E+00
7.274338E+03	5.091122E-17	0.000000E+00
7.284182E+03	5.022899E-17	0.000000E+00
7.294025E+03	4.951201E-17	0.000000E+00
7.303868E+03	4.876690E-17	0.000000E+00
7.313712E+03	4.800242E-17	0.000000E+00
7.323555E+03	4.722936E-17	0.000000E+00
7.333399E+03	4.646123E-17	0.000000E+00
7.343242E+03	4.571067E-17	0.000000E+00
7.353086E+03	4.499415E-17	0.000000E+00
7.362929E+03	4.432611E-17	0.000000E+00
7.372773E+03	4.372059E-17	0.000000E+00
7.382616E+03	4.319065E-17	0.000000E+00
7.392460E+03	4.274805E-17	0.000000E+00
7.402303E+03	4.240485E-17	0.000000E+00
7.412147E+03	4.216751E-17	0.000000E+00
7.421990E+03	4.204369E-17	0.000000E+00
7.431834E+03	4.203841E-17	0.000000E+00
7.441677E+03	4.215608E-17	0.000000E+00
7.451521E+03	4.239671E-17	0.000000E+00
7.461364E+03	4.276179E-17	0.000000E+00
7.471208E+03	4.325032E-17	0.000000E+00
7.481051E+03	4.386068E-17	0.000000E+00
7.490895E+03	4.458644E-17	0.000000E+00
7.500738E+03	4.542324E-17	0.000000E+00
7.510582E+03	4.636149E-17	0.000000E+00
7.520425E+03	4.738921E-17	0.000000E+00
7.530269E+03	4.849560E-17	0.000000E+00
7.540112E+03	4.966450E-17	0.000000E+00
7.549956E+03	5.087927E-17	0.000000E+00
7.559799E+03	5.212217E-17	0.000000E+00
7.569643E+03	5.337504E-17	0.000000E+00
7.579486E+03	5.461992E-17	0.000000E+00
7.589330E+03	5.584108E-17	0.000000E+00
7.599173E+03	5.702013E-17	0.000000E+00
7.609017E+03	5.814589E-17	0.000000E+00
7.618860E+03	5.920511E-17	0.000000E+00
7.628704E+03	6.018805E-17	0.000000E+00
7.638547E+03	6.108716E-17	0.000000E+00
