#wls	flux	fluxerr
1.574958E+03	6.812511E-19	2.984517E-20
1.614332E+03	7.041239E-19	3.080912E-20
1.653706E+03	7.217344E-19	3.153968E-20
1.693080E+03	7.335036E-19	3.201234E-20
1.732454E+03	7.386985E-19	3.219611E-20
1.771828E+03	7.358099E-19	3.202640E-20
1.811202E+03	7.228054E-19	3.141630E-20
1.850576E+03	6.979945E-19	3.029434E-20
1.889950E+03	6.602328E-19	2.861323E-20
1.929324E+03	6.100692E-19	2.639936E-20
1.968698E+03	5.510302E-19	2.380773E-20
2.008072E+03	4.905197E-19	2.115976E-20
2.047446E+03	4.387689E-19	1.889667E-20
2.086820E+03	4.060875E-19	1.746012E-20
2.126194E+03	3.997766E-19	1.715953E-20
2.165567E+03	4.230023E-19	1.812483E-20
2.204941E+03	4.751572E-19	2.032328E-20
2.244315E+03	5.527480E-19	2.359884E-20
2.283689E+03	6.504816E-19	2.771961E-20
2.323063E+03	7.624532E-19	3.242913E-20
2.362437E+03	8.836085E-19	3.750879E-20
2.401811E+03	1.010208E-18	4.279722E-20
2.441185E+03	1.140153E-18	4.820372E-20
2.480559E+03	1.272256E-18	5.367654E-20
2.519933E+03	1.406917E-18	5.923127E-20
2.559307E+03	1.544200E-18	6.486920E-20
2.598681E+03	1.685522E-18	7.064833E-20
2.638055E+03	1.831936E-18	7.661067E-20
2.677429E+03	1.984588E-18	8.280189E-20
2.716803E+03	2.145217E-18	8.929171E-20
2.756177E+03	2.315410E-18	9.614278E-20
2.795551E+03	2.496509E-18	1.034069E-19
2.834925E+03	2.690476E-18	1.111609E-19
2.874299E+03	2.899021E-18	1.194702E-19
2.913673E+03	3.123863E-18	1.283996E-19
2.953047E+03	3.367413E-18	1.380416E-19
2.962890E+03	3.431280E-18	1.405649E-19
2.972734E+03	3.496302E-18	1.431316E-19
2.982577E+03	3.562866E-18	1.457574E-19
2.992421E+03	3.630760E-18	1.484334E-19
3.002264E+03	3.700890E-18	1.511966E-19
3.012107E+03	3.773448E-18	1.540546E-19
3.021951E+03	3.848714E-18	1.570186E-19
3.031794E+03	3.926237E-18	1.600699E-19
3.041638E+03	4.006234E-18	1.632172E-19
3.051481E+03	4.088358E-18	1.664460E-19
3.061325E+03	4.172924E-18	1.697691E-19
3.071168E+03	4.259853E-18	1.731830E-19
3.081012E+03	4.348649E-18	1.766673E-19
3.090855E+03	4.439654E-18	1.802356E-19
3.100699E+03	4.532801E-18	1.838850E-19
3.110542E+03	4.628026E-18	1.876128E-19
3.120386E+03	4.724821E-18	1.913982E-19
3.130229E+03	4.823563E-18	1.952561E-19
3.140073E+03	4.924190E-18	1.991841E-19
3.149916E+03	5.027105E-18	2.031980E-19
3.159760E+03	5.131344E-18	2.072588E-19
3.169603E+03	5.237308E-18	2.113825E-19
3.179447E+03	5.344946E-18	2.155668E-19
3.189290E+03	5.454210E-18	2.198097E-19
3.199134E+03	5.565051E-18	2.241090E-19
3.208977E+03	5.677913E-18	2.284824E-19
3.218821E+03	5.791781E-18	2.328888E-19
3.228664E+03	5.907597E-18	2.373660E-19
3.238508E+03	6.024833E-18	2.418926E-19
3.248351E+03	6.143960E-18	2.464873E-19
3.258195E+03	6.263937E-18	2.511082E-19
3.268038E+03	6.386263E-18	2.558152E-19
3.277882E+03	6.509383E-18	2.605458E-19
3.287725E+03	6.634832E-18	2.653613E-19
3.297569E+03	6.761035E-18	2.701986E-19
3.307412E+03	6.889557E-18	2.751200E-19
3.317256E+03	7.019349E-18	2.800834E-19
3.327099E+03	7.150944E-18	2.851100E-19
3.336943E+03	7.283821E-18	2.901786E-19
3.346786E+03	7.418532E-18	2.953113E-19
3.356630E+03	7.555111E-18	3.005091E-19
3.366473E+03	7.694151E-18	3.057954E-19
3.376317E+03	7.834036E-18	3.111057E-19
3.386160E+03	7.976483E-18	3.165082E-19
3.396004E+03	8.121006E-18	3.219831E-19
3.405847E+03	8.268245E-18	3.275558E-19
3.415691E+03	8.417152E-18	3.331842E-19
3.425534E+03	8.568386E-18	3.388945E-19
3.435377E+03	8.722631E-18	3.447133E-19
3.445221E+03	8.879427E-18	3.506222E-19
3.455064E+03	9.039482E-18	3.566488E-19
3.464908E+03	9.202352E-18	3.627752E-19
3.474751E+03	9.368173E-18	3.690065E-19
3.484595E+03	9.537687E-18	3.753716E-19
3.494438E+03	9.711058E-18	3.818766E-19
3.504282E+03	9.887852E-18	3.885040E-19
3.514125E+03	1.006883E-17	3.952834E-19
3.523969E+03	1.025418E-17	4.022213E-19
3.533812E+03	1.044406E-17	4.093239E-19
3.543656E+03	1.063803E-17	4.165737E-19
3.553499E+03	1.083750E-17	4.240248E-19
3.563343E+03	1.104139E-17	4.316350E-19
3.573186E+03	1.125112E-17	4.394587E-19
3.583030E+03	1.146622E-17	4.474774E-19
3.592873E+03	1.168684E-17	4.556960E-19
3.602717E+03	1.191312E-17	4.641197E-19
3.612560E+03	1.214583E-17	4.727778E-19
3.622404E+03	1.238444E-17	4.816492E-19
3.632247E+03	1.262907E-17	4.907373E-19
3.642091E+03	1.288044E-17	5.000702E-19
3.651934E+03	1.313863E-17	5.096500E-19
3.661778E+03	1.340304E-17	5.194525E-19
3.671621E+03	1.367434E-17	5.295034E-19
3.681465E+03	1.395188E-17	5.397763E-19
3.691308E+03	1.423628E-17	5.502952E-19
3.701152E+03	1.452750E-17	5.610571E-19
3.710995E+03	1.482542E-17	5.720574E-19
3.720839E+03	1.512993E-17	5.832905E-19
3.730682E+03	1.544085E-17	5.947488E-19
3.740526E+03	1.575794E-17	6.064231E-19
3.750369E+03	1.608095E-17	6.183022E-19
3.760213E+03	1.640883E-17	6.303459E-19
3.770056E+03	1.674262E-17	6.425935E-19
3.779900E+03	1.708191E-17	6.550282E-19
3.789743E+03	1.742477E-17	6.675759E-19
3.799587E+03	1.777209E-17	6.802702E-19
3.809430E+03	1.812182E-17	6.930323E-19
3.819274E+03	1.847549E-17	7.059202E-19
3.829117E+03	1.883019E-17	7.188226E-19
3.838961E+03	1.918663E-17	7.317663E-19
3.848804E+03	1.954326E-17	7.446924E-19
3.858648E+03	1.989923E-17	7.575682E-19
3.868491E+03	2.025441E-17	7.703888E-19
3.878334E+03	2.060638E-17	7.830628E-19
3.888178E+03	2.095649E-17	7.956414E-19
3.898021E+03	2.130154E-17	8.080037E-19
3.907865E+03	2.164214E-17	8.201728E-19
3.917708E+03	2.197661E-17	8.320867E-19
3.927552E+03	2.230409E-17	8.437124E-19
3.937395E+03	2.262452E-17	8.550492E-19
3.947239E+03	2.293563E-17	8.660118E-19
3.957082E+03	2.323821E-17	8.766309E-19
3.966926E+03	2.353089E-17	8.868561E-19
3.976769E+03	2.381238E-17	8.966396E-19
3.986613E+03	2.408379E-17	9.060247E-19
3.996456E+03	2.434328E-17	9.149433E-19
4.006300E+03	2.459143E-17	9.234182E-19
4.016143E+03	2.482811E-17	9.314463E-19
4.025987E+03	2.505265E-17	9.390031E-19
4.035830E+03	2.526595E-17	9.461244E-19
4.045674E+03	2.546685E-17	9.527672E-19
4.055517E+03	2.565719E-17	9.590021E-19
4.065361E+03	2.583748E-17	9.648494E-19
4.075204E+03	2.600612E-17	9.702502E-19
4.085048E+03	2.616594E-17	9.753119E-19
4.094891E+03	2.631628E-17	9.800099E-19
4.104735E+03	2.645862E-17	9.844013E-19
4.114578E+03	2.659309E-17	9.884913E-19
4.124422E+03	2.671985E-17	9.922869E-19
4.134265E+03	2.684120E-17	9.958741E-19
4.144109E+03	2.695664E-17	9.992352E-19
4.153952E+03	2.706774E-17	1.002429E-18
4.163796E+03	2.717412E-17	1.005442E-18
4.173639E+03	2.727804E-17	1.008359E-18
4.183483E+03	2.737913E-17	1.011166E-18
4.193326E+03	2.747904E-17	1.013923E-18
4.203170E+03	2.757811E-17	1.016645E-18
4.213013E+03	2.767740E-17	1.019370E-18
4.222857E+03	2.777733E-17	1.022114E-18
4.232700E+03	2.787967E-17	1.024942E-18
4.242544E+03	2.798493E-17	1.027872E-18
4.252387E+03	2.809364E-17	1.030923E-18
4.262231E+03	2.820829E-17	1.034188E-18
4.272074E+03	2.832821E-17	1.037640E-18
4.281918E+03	2.845596E-17	1.041374E-18
4.291761E+03	2.859154E-17	1.045388E-18
4.301604E+03	2.873688E-17	1.049751E-18
4.311448E+03	2.889263E-17	1.054488E-18
4.321291E+03	2.905979E-17	1.059634E-18
4.331135E+03	2.923854E-17	1.065194E-18
4.340978E+03	2.942972E-17	1.071197E-18
4.350822E+03	2.963222E-17	1.077603E-18
4.360665E+03	2.984719E-17	1.084452E-18
4.370509E+03	3.007320E-17	1.091691E-18
4.380352E+03	3.030997E-17	1.099309E-18
4.390196E+03	3.055699E-17	1.107287E-18
4.400039E+03	3.081427E-17	1.115622E-18
4.409883E+03	3.107924E-17	1.124223E-18
4.419726E+03	3.135210E-17	1.133095E-18
4.429570E+03	3.163115E-17	1.142176E-18
4.439413E+03	3.191506E-17	1.151418E-18
4.449257E+03	3.220234E-17	1.160766E-18
4.459100E+03	3.249078E-17	1.170140E-18
4.468944E+03	3.277914E-17	1.179497E-18
4.478787E+03	3.306493E-17	1.188746E-18
4.488631E+03	3.334553E-17	1.197794E-18
4.498474E+03	3.362006E-17	1.206608E-18
4.508318E+03	3.388588E-17	1.215097E-18
4.518161E+03	3.414043E-17	1.223168E-18
4.528005E+03	3.438237E-17	1.230774E-18
4.537848E+03	3.460941E-17	1.237835E-18
4.547692E+03	3.482015E-17	1.244302E-18
4.557535E+03	3.501395E-17	1.250154E-18
4.567379E+03	3.518939E-17	1.255341E-18
4.577222E+03	3.534651E-17	1.259868E-18
4.587066E+03	3.548401E-17	1.263688E-18
4.596909E+03	3.560320E-17	1.266852E-18
4.606753E+03	3.570346E-17	1.269337E-18
4.616596E+03	3.578675E-17	1.271215E-18
4.626440E+03	3.585353E-17	1.272505E-18
4.636283E+03	3.590459E-17	1.273236E-18
4.646127E+03	3.594264E-17	1.273504E-18
4.655970E+03	3.596875E-17	1.273350E-18
4.665814E+03	3.598537E-17	1.272861E-18
4.675657E+03	3.599326E-17	1.272064E-18
4.685501E+03	3.599554E-17	1.271071E-18
4.695344E+03	3.599359E-17	1.269931E-18
4.705188E+03	3.598994E-17	1.268732E-18
4.715031E+03	3.598591E-17	1.267522E-18
4.724874E+03	3.598333E-17	1.266366E-18
4.734718E+03	3.598488E-17	1.265356E-18
4.744561E+03	3.599101E-17	1.264509E-18
4.754405E+03	3.600352E-17	1.263888E-18
4.764248E+03	3.602357E-17	1.263532E-18
4.774092E+03	3.605199E-17	1.263470E-18
4.783935E+03	3.608992E-17	1.263741E-18
4.793779E+03	3.613726E-17	1.264340E-18
4.803622E+03	3.619412E-17	1.265272E-18
4.813466E+03	3.626100E-17	1.266551E-18
4.823309E+03	3.633819E-17	1.268188E-18
4.833153E+03	3.642372E-17	1.270113E-18
4.842996E+03	3.651922E-17	1.272382E-18
4.852840E+03	3.662257E-17	1.274921E-18
4.862683E+03	3.673426E-17	1.277744E-18
4.872527E+03	3.685330E-17	1.280819E-18
4.882370E+03	3.697973E-17	1.284144E-18
4.892214E+03	3.711278E-17	1.287694E-18
4.902057E+03	3.725344E-17	1.291502E-18
4.911901E+03	3.740134E-17	1.295553E-18
4.921744E+03	3.755633E-17	1.299843E-18
4.931588E+03	3.772073E-17	1.304451E-18
4.941431E+03	3.789391E-17	1.309355E-18
4.951275E+03	3.807828E-17	1.314636E-18
4.961118E+03	3.827543E-17	1.320350E-18
4.970962E+03	3.848727E-17	1.326559E-18
4.980805E+03	3.871529E-17	1.333316E-18
4.990649E+03	3.896243E-17	1.340719E-18
5.000492E+03	3.923170E-17	1.348871E-18
5.010336E+03	3.952455E-17	1.357819E-18
5.020179E+03	3.984469E-17	1.367690E-18
5.030023E+03	4.019411E-17	1.378547E-18
5.039866E+03	4.057518E-17	1.390472E-18
5.049710E+03	4.099016E-17	1.403538E-18
5.059553E+03	4.144156E-17	1.417828E-18
5.069397E+03	4.193033E-17	1.433372E-18
5.079240E+03	4.245767E-17	1.450208E-18
5.089084E+03	4.302491E-17	1.468378E-18
5.098927E+03	4.363226E-17	1.487887E-18
5.108771E+03	4.427891E-17	1.508702E-18
5.118614E+03	4.496407E-17	1.530795E-18
5.128458E+03	4.568646E-17	1.554118E-18
5.138301E+03	4.644490E-17	1.578629E-18
5.148145E+03	4.723711E-17	1.604246E-18
5.157988E+03	4.805901E-17	1.630830E-18
5.167831E+03	4.890852E-17	1.658308E-18
5.177675E+03	4.978129E-17	1.686529E-18
5.187518E+03	5.067300E-17	1.715346E-18
5.197362E+03	5.157973E-17	1.744625E-18
5.207205E+03	5.249502E-17	1.774146E-18
5.217049E+03	5.341414E-17	1.803751E-18
5.226892E+03	5.433152E-17	1.833249E-18
5.236736E+03	5.524138E-17	1.862447E-18
5.246579E+03	5.613801E-17	1.891154E-18
5.256423E+03	5.701574E-17	1.919180E-18
5.266266E+03	5.786850E-17	1.946322E-18
5.276110E+03	5.869227E-17	1.972448E-18
5.285953E+03	5.948212E-17	1.997395E-18
5.295797E+03	6.023546E-17	2.021078E-18
5.305640E+03	6.094907E-17	2.043394E-18
5.315484E+03	6.162131E-17	2.064291E-18
5.325327E+03	6.225240E-17	2.083779E-18
5.335171E+03	6.284158E-17	2.101837E-18
5.345014E+03	6.338970E-17	2.118497E-18
5.354858E+03	6.389811E-17	2.133806E-18
5.364701E+03	6.436946E-17	2.147859E-18
5.374545E+03	6.480492E-17	2.160695E-18
5.384388E+03	6.520585E-17	2.172365E-18
5.394232E+03	6.557615E-17	2.183000E-18
5.404075E+03	6.591744E-17	2.192656E-18
5.413919E+03	6.622832E-17	2.201291E-18
5.423762E+03	6.650919E-17	2.208920E-18
5.433606E+03	6.675670E-17	2.215434E-18
5.443449E+03	6.696890E-17	2.220771E-18
5.453293E+03	6.714104E-17	2.224778E-18
5.463136E+03	6.727329E-17	2.227461E-18
5.472980E+03	6.736153E-17	2.228689E-18
5.482823E+03	6.740499E-17	2.228438E-18
5.492667E+03	6.740162E-17	2.226646E-18
5.502510E+03	6.735298E-17	2.223365E-18
5.512354E+03	6.725760E-17	2.218551E-18
5.522197E+03	6.711835E-17	2.212302E-18
5.532041E+03	6.693605E-17	2.204648E-18
5.541884E+03	6.671302E-17	2.195669E-18
5.551728E+03	6.645286E-17	2.185485E-18
5.561571E+03	6.615786E-17	2.174175E-18
5.571415E+03	6.583235E-17	2.161882E-18
5.581258E+03	6.548025E-17	2.148739E-18
5.591101E+03	6.510569E-17	2.134881E-18
5.600945E+03	6.471329E-17	2.120461E-18
5.610788E+03	6.430902E-17	2.105677E-18
5.620632E+03	6.389651E-17	2.090648E-18
5.630475E+03	6.348339E-17	2.075623E-18
5.640319E+03	6.307582E-17	2.060804E-18
5.650162E+03	6.267930E-17	2.046370E-18
5.660006E+03	6.230125E-17	2.032562E-18
5.669849E+03	6.194803E-17	2.019585E-18
5.679693E+03	6.162588E-17	2.007641E-18
5.689536E+03	6.134059E-17	1.996917E-18
5.699380E+03	6.109751E-17	1.987583E-18
5.709223E+03	6.090122E-17	1.979787E-18
5.719067E+03	6.075565E-17	1.973651E-18
5.728910E+03	6.066381E-17	1.969270E-18
5.738754E+03	6.062863E-17	1.966735E-18
5.748597E+03	6.065052E-17	1.966056E-18
5.758441E+03	6.072964E-17	1.967234E-18
5.768284E+03	6.086624E-17	1.970273E-18
5.778128E+03	6.105777E-17	1.975087E-18
5.787971E+03	6.130255E-17	1.981618E-18
5.797815E+03	6.159637E-17	1.989725E-18
5.807658E+03	6.193505E-17	1.999272E-18
5.817502E+03	6.231465E-17	2.010127E-18
5.827345E+03	6.272890E-17	2.022086E-18
5.837189E+03	6.317199E-17	2.034961E-18
5.847032E+03	6.363873E-17	2.048581E-18
5.856876E+03	6.412212E-17	2.062720E-18
5.866719E+03	6.461698E-17	2.077211E-18
5.876563E+03	6.511596E-17	2.091816E-18
5.886406E+03	6.561566E-17	2.106428E-18
5.896250E+03	6.611090E-17	2.120878E-18
5.906093E+03	6.659808E-17	2.135054E-18
5.915937E+03	6.707469E-17	2.148874E-18
5.925780E+03	6.753908E-17	2.162287E-18
5.935624E+03	6.799175E-17	2.175310E-18
5.945467E+03	6.843121E-17	2.187896E-18
5.955311E+03	6.885878E-17	2.200088E-18
5.965154E+03	6.927867E-17	2.212022E-18
5.974998E+03	6.969291E-17	2.223763E-18
5.984841E+03	7.010414E-17	2.235396E-18
5.994685E+03	7.051662E-17	2.247057E-18
6.004528E+03	7.093680E-17	2.258951E-18
6.014371E+03	7.136753E-17	2.271170E-18
6.024215E+03	7.181375E-17	2.283869E-18
6.034058E+03	7.228122E-17	2.297230E-18
6.043902E+03	7.277349E-17	2.311367E-18
6.053745E+03	7.329480E-17	2.326411E-18
6.063589E+03	7.384975E-17	2.342507E-18
6.073432E+03	7.444016E-17	2.359712E-18
6.083276E+03	7.506907E-17	2.378119E-18
6.093119E+03	7.573527E-17	2.397689E-18
6.102963E+03	7.644088E-17	2.418485E-18
6.112806E+03	7.718346E-17	2.440431E-18
6.122650E+03	7.796062E-17	2.463447E-18
6.132493E+03	7.876875E-17	2.487418E-18
6.142337E+03	7.960297E-17	2.512189E-18
6.152180E+03	8.045848E-17	2.537608E-18
6.162024E+03	8.132582E-17	2.563376E-18
6.171867E+03	8.219906E-17	2.589305E-18
6.181711E+03	8.306789E-17	2.615071E-18
6.191554E+03	8.392201E-17	2.640351E-18
6.201398E+03	8.475050E-17	2.664803E-18
6.211241E+03	8.554181E-17	2.688066E-18
6.221085E+03	8.628522E-17	2.709806E-18
6.230928E+03	8.696761E-17	2.729615E-18
6.240772E+03	8.757742E-17	2.747133E-18
6.250615E+03	8.810407E-17	2.762035E-18
6.260459E+03	8.853957E-17	2.774074E-18
6.270302E+03	8.887532E-17	2.782986E-18
6.280146E+03	8.910638E-17	2.788624E-18
6.289989E+03	8.923184E-17	2.790964E-18
6.299833E+03	8.925239E-17	2.790034E-18
6.309676E+03	8.917047E-17	2.785917E-18
6.319520E+03	8.899400E-17	2.778865E-18
6.329363E+03	8.873214E-17	2.769169E-18
6.339207E+03	8.839515E-17	2.757154E-18
6.349050E+03	8.799751E-17	2.743275E-18
6.358894E+03	8.755384E-17	2.727991E-18
6.368737E+03	8.707933E-17	2.711778E-18
6.378581E+03	8.659086E-17	2.695162E-18
6.388424E+03	8.610100E-17	2.678535E-18
6.398268E+03	8.562696E-17	2.662432E-18
6.408111E+03	8.518081E-17	2.647229E-18
6.417955E+03	8.477541E-17	2.633323E-18
6.427798E+03	8.441818E-17	2.620942E-18
6.437642E+03	8.411445E-17	2.610251E-18
6.447485E+03	8.386329E-17	2.601217E-18
6.457328E+03	8.365956E-17	2.593680E-18
6.467172E+03	8.350051E-17	2.587550E-18
6.477015E+03	8.337745E-17	2.582558E-18
6.486859E+03	8.328647E-17	2.578579E-18
6.496702E+03	8.321964E-17	2.575368E-18
6.506546E+03	8.317047E-17	2.572721E-18
6.516389E+03	8.313386E-17	2.570480E-18
6.526233E+03	8.310384E-17	2.568461E-18
6.536076E+03	8.307350E-17	2.566450E-18
6.545920E+03	8.303895E-17	2.564325E-18
6.555763E+03	8.299572E-17	2.561949E-18
6.565607E+03	8.293974E-17	2.559196E-18
6.575450E+03	8.286776E-17	2.555967E-18
6.585294E+03	8.277718E-17	2.552181E-18
6.595137E+03	8.266735E-17	2.547820E-18
6.604981E+03	8.253583E-17	2.542809E-18
6.614824E+03	8.238222E-17	2.537135E-18
6.624668E+03	8.220812E-17	2.530848E-18
6.634511E+03	8.201442E-17	2.523977E-18
6.644355E+03	8.180146E-17	2.516533E-18
6.654198E+03	8.157380E-17	2.508655E-18
6.664042E+03	8.133140E-17	2.500343E-18
6.673885E+03	8.107837E-17	2.491724E-18
6.683729E+03	8.081915E-17	2.482934E-18
6.693572E+03	8.055457E-17	2.473998E-18
6.703416E+03	8.029068E-17	2.465103E-18
6.713259E+03	8.002997E-17	2.456324E-18
6.723103E+03	7.977607E-17	2.447773E-18
6.732946E+03	7.953408E-17	2.439605E-18
6.742790E+03	7.930639E-17	2.431894E-18
6.752633E+03	7.909657E-17	2.424748E-18
6.762477E+03	7.890939E-17	2.418313E-18
6.772320E+03	7.874677E-17	2.412647E-18
6.782164E+03	7.861316E-17	2.407885E-18
6.792007E+03	7.851118E-17	2.404108E-18
6.801851E+03	7.844209E-17	2.401352E-18
6.811694E+03	7.840798E-17	2.399681E-18
6.821538E+03	7.841188E-17	2.399187E-18
6.831381E+03	7.845529E-17	2.399915E-18
6.841225E+03	7.853924E-17	2.401895E-18
6.851068E+03	7.866187E-17	2.405070E-18
6.860912E+03	7.882741E-17	2.409567E-18
6.870755E+03	7.903333E-17	2.415311E-18
6.880598E+03	7.927939E-17	2.422291E-18
6.890442E+03	7.956651E-17	2.430536E-18
6.900285E+03	7.989402E-17	2.440025E-18
6.910129E+03	8.025980E-17	2.450692E-18
6.919972E+03	8.066286E-17	2.462507E-18
6.929816E+03	8.110226E-17	2.475440E-18
6.939659E+03	8.157842E-17	2.489505E-18
6.949503E+03	8.208904E-17	2.504630E-18
6.959346E+03	8.263464E-17	2.520832E-18
6.969190E+03	8.321165E-17	2.538001E-18
6.979033E+03	8.382086E-17	2.556162E-18
6.988877E+03	8.446177E-17	2.575299E-18
6.998720E+03	8.513546E-17	2.595446E-18
7.008564E+03	8.583732E-17	2.616461E-18
7.018407E+03	8.657149E-17	2.638472E-18
7.028251E+03	8.733501E-17	2.661388E-18
7.038094E+03	8.812910E-17	2.685247E-18
7.047938E+03	8.895214E-17	2.710000E-18
7.057781E+03	8.980517E-17	2.735678E-18
7.067625E+03	9.068621E-17	2.762223E-18
7.077468E+03	9.159433E-17	2.789606E-18
7.087312E+03	9.252679E-17	2.817744E-18
7.097155E+03	9.348498E-17	2.846681E-18
7.106999E+03	9.446529E-17	2.876307E-18
7.116842E+03	9.546340E-17	2.906492E-18
7.126686E+03	9.647755E-17	2.937182E-18
7.136529E+03	9.750394E-17	2.968264E-18
7.146373E+03	9.853630E-17	2.999547E-18
7.156216E+03	9.956935E-17	3.030871E-18
7.166060E+03	1.005973E-16	3.062062E-18
7.175903E+03	1.016136E-16	3.092922E-18
7.185747E+03	1.026131E-16	3.123295E-18
7.195590E+03	1.035849E-16	3.152848E-18
7.205434E+03	1.045230E-16	3.181403E-18
7.215277E+03	1.054176E-16	3.208661E-18
7.225121E+03	1.062625E-16	3.234434E-18
7.234964E+03	1.070497E-16	3.258481E-18
7.244808E+03	1.077695E-16	3.280510E-18
7.254651E+03	1.084148E-16	3.300301E-18
7.264495E+03	1.089807E-16	3.317708E-18
7.274338E+03	1.094594E-16	3.332494E-18
7.284182E+03	1.098459E-16	3.344505E-18
7.294025E+03	1.101343E-16	3.353566E-18
7.303868E+03	1.103258E-16	3.359709E-18
7.313712E+03	1.104169E-16	3.362832E-18
7.323555E+03	1.104076E-16	3.362932E-18
7.333399E+03	1.102973E-16	3.359991E-18
7.343242E+03	1.100926E-16	3.354205E-18
7.353086E+03	1.097935E-16	3.345582E-18
7.362929E+03	1.094074E-16	3.334341E-18
7.372773E+03	1.089408E-16	3.320678E-18
7.382616E+03	1.083994E-16	3.304768E-18
7.392460E+03	1.077935E-16	3.286925E-18
7.402303E+03	1.071324E-16	3.267430E-18
7.412147E+03	1.064260E-16	3.246583E-18
7.421990E+03	1.056827E-16	3.224640E-18
7.431834E+03	1.049147E-16	3.201972E-18
7.441677E+03	1.041325E-16	3.178901E-18
7.451521E+03	1.033445E-16	3.155684E-18
7.461364E+03	1.025645E-16	3.132735E-18
7.471208E+03	1.017981E-16	3.110232E-18
7.481051E+03	1.010542E-16	3.088443E-18
7.490895E+03	1.003442E-16	3.067719E-18
7.500738E+03	9.967145E-17	3.048164E-18
7.510582E+03	9.904372E-17	3.030014E-18
7.520425E+03	9.846560E-17	3.013412E-18
7.530269E+03	9.794071E-17	2.998471E-18
7.540112E+03	9.747113E-17	2.985256E-18
7.549956E+03	9.705601E-17	2.973743E-18
7.559799E+03	9.669661E-17	2.963973E-18
7.569643E+03	9.639111E-17	2.955892E-18
7.579486E+03	9.613641E-17	2.949407E-18
7.589330E+03	9.592807E-17	2.944385E-18
7.599173E+03	9.576053E-17	2.940657E-18
7.609017E+03	9.562537E-17	2.937967E-18
7.618860E+03	9.551662E-17	2.936133E-18
7.628704E+03	9.542586E-17	2.934899E-18
7.638547E+03	9.534384E-17	2.933980E-18
