#wls	flux	fluxerr
1.574958E+03	7.222652E-19	2.200841E-22
1.614332E+03	7.457357E-19	2.272358E-22
1.653706E+03	7.635738E-19	2.326713E-22
1.693080E+03	7.750438E-19	2.361664E-22
1.732454E+03	7.796703E-19	2.375762E-22
1.771828E+03	7.757490E-19	2.363813E-22
1.811202E+03	7.611629E-19	2.319367E-22
1.850576E+03	7.341758E-19	2.237133E-22
1.889950E+03	6.936293E-19	2.113583E-22
1.929324E+03	6.401493E-19	1.950622E-22
1.968698E+03	5.775824E-19	1.759972E-22
2.008072E+03	5.135079E-19	1.564728E-22
2.047446E+03	4.587420E-19	1.397849E-22
2.086820E+03	4.240899E-19	1.292259E-22
2.126194E+03	4.170134E-19	1.270696E-22
2.165567E+03	4.407176E-19	1.342926E-22
2.204941E+03	4.944586E-19	1.506682E-22
2.244315E+03	5.745860E-19	1.750841E-22
2.283689E+03	6.754440E-19	2.058169E-22
2.323063E+03	7.909588E-19	2.410158E-22
2.362437E+03	9.156112E-19	2.789990E-22
2.401811E+03	1.045924E-18	3.187072E-22
2.441185E+03	1.179289E-18	3.593452E-22
2.480559E+03	1.314994E-18	4.006964E-22
2.519933E+03	1.453148E-18	4.427936E-22
2.559307E+03	1.594262E-18	4.857930E-22
2.598681E+03	1.739682E-18	5.301042E-22
2.638055E+03	1.890293E-18	5.759974E-22
2.677429E+03	2.048124E-18	6.240905E-22
2.716803E+03	2.214581E-18	6.748122E-22
2.756177E+03	2.391407E-18	7.286933E-22
2.795551E+03	2.580742E-18	7.863861E-22
2.834925E+03	2.784524E-18	8.484811E-22
2.874299E+03	3.005094E-18	9.156917E-22
2.913673E+03	3.244889E-18	9.887601E-22
2.953047E+03	3.506400E-18	1.068446E-21
2.962890E+03	3.575083E-18	1.089375E-21
2.972734E+03	3.645837E-18	1.110934E-21
2.982577E+03	3.717910E-18	1.132896E-21
2.992421E+03	3.791868E-18	1.155432E-21
3.002264E+03	3.867867E-18	1.178589E-21
3.012107E+03	3.947317E-18	1.202799E-21
3.021951E+03	4.029313E-18	1.227784E-21
3.031794E+03	4.114199E-18	1.253650E-21
3.041638E+03	4.201805E-18	1.280344E-21
3.051481E+03	4.292192E-18	1.307886E-21
3.061325E+03	4.385275E-18	1.336250E-21
3.071168E+03	4.480975E-18	1.365411E-21
3.081012E+03	4.579212E-18	1.395345E-21
3.090855E+03	4.679911E-18	1.426029E-21
3.100699E+03	4.783450E-18	1.457579E-21
3.110542E+03	4.889314E-18	1.489837E-21
3.120386E+03	4.996970E-18	1.522641E-21
3.130229E+03	5.107734E-18	1.556392E-21
3.140073E+03	5.220145E-18	1.590645E-21
3.149916E+03	5.335555E-18	1.625812E-21
3.159760E+03	5.452470E-18	1.661438E-21
3.169603E+03	5.571781E-18	1.697793E-21
3.179447E+03	5.693431E-18	1.734861E-21
3.189290E+03	5.816860E-18	1.772472E-21
3.199134E+03	5.943006E-18	1.810910E-21
3.208977E+03	6.070800E-18	1.849850E-21
3.218821E+03	6.200167E-18	1.889270E-21
3.228664E+03	6.332063E-18	1.929460E-21
3.238508E+03	6.465919E-18	1.970248E-21
3.248351E+03	6.601134E-18	2.011449E-21
3.258195E+03	6.738697E-18	2.053367E-21
3.268038E+03	6.878017E-18	2.095819E-21
3.277882E+03	7.019024E-18	2.138786E-21
3.287725E+03	7.162200E-18	2.182413E-21
3.297569E+03	7.306939E-18	2.226517E-21
3.307412E+03	7.453178E-18	2.271078E-21
3.317256E+03	7.601416E-18	2.316247E-21
3.327099E+03	7.751610E-18	2.362013E-21
3.336943E+03	7.903152E-18	2.408190E-21
3.346786E+03	8.056570E-18	2.454938E-21
3.356630E+03	8.211839E-18	2.502251E-21
3.366473E+03	8.368366E-18	2.549946E-21
3.376317E+03	8.527298E-18	2.598375E-21
3.386160E+03	8.688072E-18	2.647364E-21
3.396004E+03	8.850710E-18	2.696922E-21
3.405847E+03	9.015840E-18	2.747239E-21
3.415691E+03	9.182346E-18	2.797975E-21
3.425534E+03	9.351485E-18	2.849514E-21
3.435377E+03	9.523363E-18	2.901887E-21
3.445221E+03	9.698104E-18	2.955133E-21
3.455064E+03	9.875253E-18	3.009112E-21
3.464908E+03	1.005557E-17	3.064058E-21
3.474751E+03	1.023925E-17	3.120026E-21
3.484595E+03	1.042649E-17	3.177081E-21
3.494438E+03	1.061752E-17	3.235288E-21
3.504282E+03	1.081256E-17	3.294720E-21
3.514125E+03	1.101248E-17	3.355639E-21
3.523969E+03	1.121692E-17	3.417935E-21
3.533812E+03	1.142677E-17	3.481876E-21
3.543656E+03	1.164165E-17	3.547354E-21
3.553499E+03	1.186308E-17	3.614827E-21
3.563343E+03	1.209008E-17	3.683996E-21
3.573186E+03	1.232352E-17	3.755128E-21
3.583030E+03	1.256366E-17	3.828301E-21
3.592873E+03	1.281138E-17	3.903785E-21
3.602717E+03	1.306630E-17	3.981460E-21
3.612560E+03	1.332864E-17	4.061399E-21
3.622404E+03	1.359929E-17	4.143869E-21
3.632247E+03	1.387783E-17	4.228743E-21
3.642091E+03	1.416578E-17	4.316484E-21
3.651934E+03	1.446205E-17	4.406761E-21
3.661778E+03	1.476815E-17	4.500032E-21
3.671621E+03	1.508294E-17	4.595952E-21
3.681465E+03	1.540790E-17	4.694971E-21
3.691308E+03	1.574250E-17	4.796928E-21
3.701152E+03	1.608750E-17	4.902054E-21
3.710995E+03	1.644229E-17	5.010161E-21
3.720839E+03	1.680753E-17	5.121454E-21
3.730682E+03	1.718317E-17	5.235915E-21
3.740526E+03	1.756907E-17	5.353506E-21
3.750369E+03	1.796504E-17	5.474162E-21
3.760213E+03	1.837148E-17	5.598006E-21
3.770056E+03	1.878658E-17	5.724494E-21
3.779900E+03	1.921126E-17	5.853899E-21
3.789743E+03	1.964420E-17	5.985820E-21
3.799587E+03	2.008538E-17	6.120252E-21
3.809430E+03	2.053394E-17	6.256933E-21
3.819274E+03	2.098893E-17	6.395574E-21
3.829117E+03	2.144849E-17	6.535605E-21
3.838961E+03	2.191214E-17	6.676885E-21
3.848804E+03	2.237921E-17	6.819207E-21
3.858648E+03	2.284682E-17	6.961692E-21
3.868491E+03	2.331486E-17	7.104309E-21
3.878334E+03	2.378090E-17	7.246315E-21
3.888178E+03	2.424322E-17	7.387188E-21
3.898021E+03	2.470080E-17	7.526617E-21
3.907865E+03	2.515030E-17	7.663584E-21
3.917708E+03	2.559217E-17	7.798228E-21
3.927552E+03	2.602312E-17	7.929544E-21
3.935427E+03	2.608169E-17	7.947391E-21
3.937395E+03	2.571454E-17	7.835515E-21
3.939364E+03	2.557598E-17	7.793292E-21
3.941333E+03	2.507773E-17	7.641471E-21
3.943302E+03	2.458420E-17	7.491088E-21
3.945270E+03	2.427694E-17	7.397462E-21
3.947239E+03	2.414651E-17	7.357717E-21
3.949208E+03	2.386819E-17	7.272910E-21
3.951176E+03	2.372068E-17	7.227962E-21
3.953145E+03	2.370425E-17	7.222955E-21
3.955114E+03	2.355871E-17	7.178607E-21
3.957082E+03	2.360250E-17	7.191950E-21
3.959051E+03	2.381079E-17	7.255419E-21
3.961020E+03	2.404283E-17	7.326125E-21
3.962988E+03	2.407448E-17	7.335768E-21
3.964957E+03	2.452055E-17	7.471692E-21
3.966926E+03	2.488463E-17	7.582630E-21
3.968895E+03	2.493822E-17	7.598958E-21
3.970863E+03	2.562339E-17	7.807738E-21
3.972832E+03	2.640505E-17	8.045920E-21
3.974801E+03	2.714571E-17	8.271606E-21
3.976769E+03	2.773011E-17	8.449679E-21
3.978738E+03	2.764942E-17	8.425093E-21
3.980707E+03	2.739931E-17	8.348880E-21
3.982675E+03	2.735554E-17	8.335543E-21
3.984644E+03	2.766267E-17	8.429131E-21
3.986613E+03	2.776647E-17	8.460759E-21
3.988582E+03	2.783993E-17	8.483142E-21
3.990550E+03	2.799232E-17	8.529576E-21
3.992519E+03	2.820603E-17	8.594697E-21
3.994488E+03	2.827543E-17	8.615842E-21
3.996456E+03	2.819017E-17	8.589864E-21
3.998425E+03	2.808883E-17	8.558985E-21
4.000394E+03	2.823514E-17	8.603565E-21
4.002362E+03	2.838489E-17	8.649197E-21
4.004331E+03	2.829313E-17	8.621238E-21
4.006300E+03	2.788416E-17	8.496617E-21
4.008269E+03	2.753974E-17	8.391668E-21
4.010237E+03	2.757431E-17	8.402204E-21
4.012206E+03	2.780224E-17	8.471657E-21
4.014175E+03	2.778469E-17	8.466307E-21
4.016143E+03	2.760892E-17	8.412750E-21
4.018112E+03	2.733859E-17	8.330376E-21
4.020081E+03	2.698590E-17	8.222907E-21
4.022049E+03	2.634882E-17	8.028783E-21
4.024018E+03	2.589021E-17	7.889040E-21
4.025987E+03	2.578220E-17	7.856126E-21
4.027956E+03	2.604766E-17	7.937015E-21
4.029924E+03	2.656588E-17	8.094923E-21
4.031893E+03	2.679858E-17	8.165828E-21
4.033862E+03	2.692375E-17	8.203970E-21
4.035830E+03	2.715799E-17	8.275345E-21
4.037799E+03	2.733001E-17	8.327760E-21
4.039768E+03	2.718542E-17	8.283703E-21
4.041736E+03	2.672914E-17	8.144670E-21
4.043705E+03	2.621043E-17	7.986610E-21
4.045674E+03	2.563001E-17	7.809752E-21
4.047642E+03	2.515672E-17	7.665533E-21
4.049611E+03	2.470553E-17	7.528051E-21
4.051580E+03	2.419172E-17	7.371489E-21
4.053549E+03	2.396160E-17	7.301368E-21
4.055517E+03	2.366673E-17	7.211518E-21
4.057486E+03	2.303007E-17	7.017520E-21
4.059455E+03	2.268457E-17	6.912242E-21
4.061423E+03	2.262057E-17	6.892741E-21
4.063392E+03	2.269641E-17	6.915849E-21
4.065361E+03	2.259064E-17	6.883621E-21
4.067329E+03	2.233053E-17	6.804362E-21
4.069298E+03	2.181012E-17	6.645788E-21
4.071267E+03	2.153494E-17	6.561938E-21
4.073236E+03	2.157976E-17	6.575593E-21
4.075204E+03	2.156494E-17	6.571076E-21
4.077173E+03	2.099960E-17	6.398813E-21
4.079142E+03	2.046074E-17	6.234614E-21
4.081110E+03	2.077160E-17	6.329338E-21
4.083079E+03	2.069908E-17	6.307240E-21
4.085048E+03	2.050517E-17	6.248154E-21
4.087016E+03	2.059104E-17	6.274318E-21
4.088985E+03	2.125034E-17	6.475216E-21
4.090954E+03	2.170159E-17	6.612715E-21
4.092923E+03	2.172703E-17	6.620467E-21
4.094891E+03	2.174067E-17	6.624623E-21
4.096860E+03	2.208618E-17	6.729904E-21
4.098829E+03	2.237861E-17	6.819011E-21
4.100797E+03	2.236667E-17	6.815373E-21
4.102766E+03	2.222025E-17	6.770755E-21
4.106703E+03	2.256728E-17	6.876499E-21
4.108672E+03	2.316314E-17	7.058064E-21
4.110641E+03	2.358260E-17	7.185880E-21
4.112610E+03	2.375422E-17	7.238174E-21
4.114578E+03	2.338671E-17	7.126189E-21
4.116547E+03	2.314332E-17	7.052025E-21
4.118516E+03	2.304967E-17	7.023490E-21
4.120484E+03	2.320946E-17	7.072179E-21
4.122453E+03	2.334362E-17	7.113060E-21
4.124422E+03	2.371903E-17	7.227451E-21
4.126390E+03	2.403172E-17	7.322728E-21
4.128359E+03	2.407229E-17	7.335090E-21
4.130328E+03	2.399670E-17	7.312058E-21
4.132296E+03	2.390705E-17	7.284741E-21
4.134265E+03	2.342618E-17	7.138216E-21
4.136234E+03	2.249738E-17	6.855199E-21
4.138203E+03	2.213658E-17	6.745258E-21
4.140171E+03	2.231328E-17	6.799101E-21
4.142140E+03	2.257083E-17	6.877581E-21
4.144109E+03	2.266847E-17	6.907331E-21
4.146077E+03	2.289577E-17	6.976593E-21
4.148046E+03	2.266880E-17	6.907432E-21
4.150015E+03	2.275850E-17	6.934766E-21
4.151983E+03	2.359818E-17	7.190625E-21
4.153952E+03	2.393838E-17	7.294287E-21
4.155921E+03	2.407390E-17	7.335582E-21
4.157890E+03	2.451261E-17	7.469262E-21
4.159858E+03	2.555594E-17	7.787175E-21
4.161827E+03	2.584865E-17	7.876366E-21
4.163796E+03	2.647759E-17	8.068012E-21
4.165764E+03	2.743870E-17	8.360871E-21
4.167733E+03	2.787587E-17	8.494082E-21
4.169702E+03	2.821422E-17	8.597180E-21
4.171670E+03	2.824504E-17	8.606571E-21
4.173639E+03	2.775608E-17	8.457581E-21
4.175608E+03	2.783891E-17	8.482821E-21
4.177577E+03	2.824482E-17	8.606504E-21
4.179545E+03	2.858181E-17	8.709190E-21
4.181514E+03	2.852921E-17	8.693160E-21
4.183483E+03	2.880171E-17	8.776193E-21
4.185451E+03	2.951297E-17	8.992924E-21
4.187420E+03	3.034076E-17	9.245159E-21
4.189389E+03	3.062121E-17	9.330616E-21
4.191357E+03	3.079582E-17	9.383821E-21
4.193326E+03	3.070233E-17	9.355334E-21
4.195295E+03	3.096398E-17	9.435061E-21
4.197264E+03	3.096565E-17	9.435570E-21
4.199232E+03	3.083011E-17	9.394269E-21
4.201201E+03	3.093885E-17	9.427403E-21
4.203170E+03	3.151045E-17	9.601575E-21
4.205138E+03	3.170694E-17	9.661447E-21
4.207107E+03	3.126107E-17	9.525588E-21
4.209076E+03	3.060092E-17	9.324433E-21
4.211044E+03	3.013265E-17	9.181745E-21
4.213013E+03	2.970430E-17	9.051223E-21
4.214982E+03	2.921120E-17	8.900970E-21
4.216950E+03	2.867110E-17	8.736394E-21
4.222857E+03	2.874512E-17	8.758948E-21
4.224825E+03	2.872845E-17	8.753869E-21
4.226794E+03	2.836592E-17	8.643402E-21
4.228763E+03	2.783599E-17	8.481925E-21
4.230731E+03	2.712728E-17	8.265974E-21
4.232700E+03	2.669307E-17	8.133665E-21
4.234669E+03	2.668117E-17	8.130039E-21
4.236637E+03	2.660660E-17	8.107318E-21
4.238606E+03	2.642613E-17	8.052328E-21
4.240575E+03	2.611888E-17	7.958705E-21
4.242544E+03	2.569262E-17	7.828819E-21
4.244512E+03	2.506162E-17	7.636545E-21
4.246481E+03	2.487177E-17	7.578695E-21
4.248450E+03	2.493429E-17	7.597745E-21
4.250418E+03	2.479688E-17	7.555876E-21
4.252387E+03	2.442179E-17	7.441581E-21
4.254356E+03	2.395323E-17	7.298806E-21
4.256324E+03	2.366015E-17	7.209503E-21
4.258293E+03	2.373606E-17	7.232633E-21
4.260262E+03	2.352377E-17	7.167944E-21
4.264199E+03	2.290359E-17	6.978969E-21
4.266168E+03	2.213592E-17	6.745051E-21
4.268137E+03	2.186530E-17	6.662592E-21
4.270105E+03	2.166230E-17	6.600733E-21
4.272074E+03	2.151283E-17	6.555188E-21
4.274043E+03	2.138854E-17	6.517316E-21
4.276011E+03	2.117140E-17	6.451151E-21
4.277980E+03	2.121422E-17	6.464201E-21
4.279949E+03	2.144269E-17	6.533817E-21
4.281918E+03	2.159651E-17	6.580686E-21
4.283886E+03	2.123478E-17	6.470465E-21
4.285855E+03	2.110859E-17	6.432011E-21
4.287824E+03	2.123689E-17	6.471108E-21
4.289792E+03	2.129782E-17	6.489672E-21
4.291761E+03	2.078661E-17	6.333900E-21
4.293730E+03	2.030584E-17	6.187406E-21
4.295698E+03	2.009265E-17	6.122445E-21
4.299636E+03	2.014008E-17	6.136896E-21
4.301604E+03	2.031247E-17	6.189426E-21
4.303573E+03	2.043005E-17	6.225253E-21
4.305542E+03	2.048908E-17	6.243239E-21
4.307511E+03	2.063119E-17	6.286542E-21
4.309479E+03	2.065897E-17	6.295007E-21
4.311448E+03	2.089333E-17	6.366419E-21
4.313417E+03	2.130324E-17	6.491325E-21
4.315385E+03	2.136779E-17	6.510992E-21
4.317354E+03	2.097433E-17	6.391101E-21
4.319323E+03	2.086567E-17	6.357990E-21
4.321291E+03	2.141057E-17	6.524028E-21
4.323260E+03	2.180742E-17	6.644951E-21
4.325229E+03	2.225836E-17	6.782359E-21
4.327198E+03	2.231245E-17	6.798841E-21
4.329166E+03	2.205092E-17	6.719149E-21
4.331135E+03	2.183268E-17	6.652648E-21
4.333104E+03	2.145519E-17	6.537624E-21
4.335072E+03	2.106197E-17	6.417806E-21
4.337041E+03	2.123578E-17	6.470765E-21
4.339010E+03	2.177170E-17	6.634067E-21
4.340978E+03	2.215012E-17	6.749375E-21
4.342947E+03	2.195853E-17	6.690997E-21
4.344916E+03	2.142170E-17	6.527417E-21
4.346885E+03	2.092852E-17	6.377141E-21
4.348853E+03	2.075957E-17	6.325660E-21
4.350822E+03	2.127607E-17	6.483044E-21
4.352791E+03	2.114753E-17	6.443875E-21
4.354759E+03	2.053636E-17	6.257646E-21
4.356728E+03	2.038859E-17	6.212618E-21
4.358697E+03	2.038794E-17	6.212419E-21
4.360665E+03	1.997325E-17	6.086058E-21
4.362634E+03	1.964960E-17	5.987441E-21
4.364603E+03	1.991527E-17	6.068393E-21
4.366572E+03	1.978059E-17	6.027354E-21
4.368540E+03	1.981319E-17	6.037288E-21
4.370509E+03	1.984001E-17	6.045460E-21
4.372478E+03	1.951331E-17	5.945910E-21
4.374446E+03	1.892812E-17	5.767597E-21
4.376415E+03	1.895001E-17	5.774267E-21
4.378384E+03	1.893107E-17	5.768496E-21
4.380352E+03	1.880377E-17	5.729707E-21
4.382321E+03	1.883035E-17	5.737806E-21
4.384290E+03	1.934300E-17	5.894016E-21
4.386258E+03	1.992617E-17	6.071713E-21
4.388227E+03	2.008468E-17	6.120012E-21
4.390196E+03	1.992946E-17	6.072714E-21
4.392165E+03	2.009085E-17	6.121893E-21
4.394133E+03	2.031228E-17	6.189363E-21
4.396102E+03	2.087813E-17	6.361784E-21
4.398071E+03	2.088125E-17	6.362736E-21
4.400039E+03	2.111715E-17	6.434618E-21
4.402008E+03	2.135395E-17	6.506770E-21
4.403977E+03	2.118749E-17	6.456048E-21
4.405945E+03	2.087806E-17	6.361761E-21
4.407914E+03	2.089720E-17	6.367595E-21
4.409883E+03	2.139292E-17	6.518645E-21
4.411852E+03	2.208942E-17	6.730875E-21
4.413820E+03	2.256206E-17	6.874895E-21
4.415789E+03	2.300150E-17	7.008797E-21
4.417758E+03	2.350359E-17	7.161790E-21
4.419726E+03	2.402587E-17	7.320933E-21
4.421695E+03	2.407932E-17	7.337218E-21
4.423664E+03	2.405989E-17	7.331298E-21
4.425632E+03	2.420747E-17	7.376269E-21
4.427601E+03	2.433579E-17	7.415368E-21
4.429570E+03	2.496788E-17	7.607974E-21
4.431539E+03	2.572288E-17	7.838029E-21
4.433507E+03	2.633314E-17	8.023981E-21
4.435476E+03	2.717394E-17	8.280183E-21
4.437445E+03	2.765534E-17	8.426869E-21
4.439413E+03	2.785479E-17	8.487642E-21
4.441382E+03	2.809802E-17	8.561759E-21
4.443351E+03	2.875000E-17	8.760424E-21
4.445319E+03	2.892834E-17	8.814765E-21
4.447288E+03	2.875955E-17	8.763331E-21
4.449257E+03	2.883060E-17	8.784983E-21
4.451226E+03	2.922945E-17	8.906517E-21
4.453194E+03	2.954800E-17	9.003580E-21
4.455163E+03	2.983584E-17	9.091289E-21
4.457132E+03	3.042246E-17	9.270037E-21
4.459100E+03	3.113051E-17	9.485788E-21
4.461069E+03	3.164004E-17	9.641046E-21
4.463038E+03	3.182656E-17	9.697881E-21
4.465006E+03	3.171460E-17	9.663765E-21
4.466975E+03	3.202288E-17	9.757701E-21
4.468944E+03	3.249497E-17	9.901554E-21
4.470912E+03	3.299804E-17	1.005484E-20
4.472881E+03	3.399324E-17	1.035809E-20
4.474850E+03	3.454723E-17	1.052690E-20
4.476819E+03	3.481517E-17	1.060854E-20
4.478787E+03	3.514200E-17	1.070813E-20
4.480756E+03	3.549418E-17	1.081544E-20
4.482725E+03	3.545642E-17	1.080394E-20
4.484693E+03	3.542409E-17	1.079408E-20
4.486662E+03	3.582650E-17	1.091670E-20
4.488631E+03	3.628712E-17	1.105706E-20
4.490599E+03	3.680113E-17	1.121368E-20
4.492568E+03	3.744635E-17	1.141029E-20
4.494537E+03	3.821977E-17	1.164596E-20
4.496506E+03	3.892931E-17	1.186216E-20
4.498474E+03	3.951132E-17	1.203951E-20
4.500443E+03	4.006247E-17	1.220745E-20
4.502412E+03	4.069077E-17	1.239889E-20
4.504380E+03	4.119560E-17	1.255272E-20
4.506349E+03	4.175199E-17	1.272226E-20
4.508318E+03	4.228070E-17	1.288336E-20
4.510286E+03	4.249822E-17	1.294964E-20
4.512255E+03	4.355521E-17	1.327172E-20
4.514224E+03	4.486350E-17	1.367037E-20
4.516193E+03	4.573056E-17	1.393457E-20
4.518161E+03	4.654166E-17	1.418172E-20
4.520130E+03	4.715307E-17	1.436802E-20
4.522099E+03	4.767385E-17	1.452671E-20
4.524067E+03	4.820938E-17	1.468989E-20
4.526036E+03	4.850045E-17	1.477858E-20
4.528005E+03	4.893266E-17	1.491028E-20
4.529973E+03	4.939759E-17	1.505195E-20
4.531942E+03	4.948149E-17	1.507752E-20
4.533911E+03	4.927096E-17	1.501336E-20
4.535880E+03	4.925880E-17	1.500966E-20
4.537848E+03	4.968221E-17	1.513868E-20
4.539817E+03	5.045909E-17	1.537540E-20
4.541786E+03	5.114597E-17	1.558470E-20
4.543754E+03	5.133544E-17	1.564243E-20
4.545723E+03	5.111596E-17	1.557555E-20
4.547692E+03	5.128803E-17	1.562799E-20
4.549660E+03	5.167201E-17	1.574499E-20
4.551629E+03	5.207299E-17	1.586717E-20
4.553598E+03	5.246370E-17	1.598622E-20
4.555566E+03	5.311497E-17	1.618467E-20
4.557535E+03	5.333046E-17	1.625033E-20
4.559504E+03	5.306704E-17	1.617007E-20
4.561473E+03	5.263950E-17	1.603979E-20
4.563441E+03	5.220841E-17	1.590843E-20
4.565410E+03	5.161900E-17	1.572883E-20
4.567379E+03	5.111152E-17	1.557420E-20
4.569347E+03	5.091260E-17	1.551359E-20
4.571316E+03	5.003282E-17	1.524551E-20
4.573285E+03	4.900847E-17	1.493338E-20
4.575253E+03	4.829376E-17	1.471560E-20
4.577222E+03	4.801733E-17	1.463137E-20
4.579191E+03	4.771918E-17	1.454052E-20
4.581160E+03	4.746020E-17	1.446160E-20
4.583128E+03	4.732262E-17	1.441968E-20
4.585097E+03	4.719861E-17	1.438190E-20
4.587066E+03	4.656365E-17	1.418841E-20
4.589034E+03	4.566778E-17	1.391544E-20
4.591003E+03	4.494009E-17	1.369370E-20
4.592972E+03	4.489738E-17	1.368069E-20
4.594940E+03	4.447515E-17	1.355203E-20
4.596909E+03	4.399965E-17	1.340714E-20
4.598878E+03	4.397334E-17	1.339912E-20
4.600847E+03	4.389948E-17	1.337661E-20
4.602815E+03	4.431956E-17	1.350462E-20
4.604784E+03	4.489264E-17	1.367924E-20
4.606753E+03	4.500768E-17	1.371429E-20
4.608721E+03	4.483721E-17	1.366235E-20
4.610690E+03	4.433995E-17	1.351083E-20
4.612659E+03	4.372273E-17	1.332276E-20
4.614627E+03	4.332388E-17	1.320122E-20
4.616596E+03	4.323471E-17	1.317405E-20
4.618565E+03	4.319780E-17	1.316280E-20
4.620534E+03	4.322612E-17	1.317143E-20
4.622502E+03	4.358932E-17	1.328210E-20
4.624471E+03	4.398223E-17	1.340183E-20
4.626440E+03	4.462050E-17	1.359632E-20
4.628408E+03	4.545850E-17	1.385166E-20
4.630377E+03	4.590733E-17	1.398842E-20
4.632346E+03	4.614944E-17	1.406220E-20
4.634314E+03	4.624822E-17	1.409230E-20
4.636283E+03	4.619404E-17	1.407579E-20
4.638252E+03	4.587559E-17	1.397875E-20
4.640220E+03	4.566822E-17	1.391557E-20
4.642189E+03	4.561157E-17	1.389830E-20
4.644158E+03	4.554126E-17	1.387688E-20
4.646127E+03	4.526885E-17	1.379387E-20
4.648095E+03	4.501723E-17	1.371720E-20
4.650064E+03	4.478167E-17	1.364542E-20
4.652033E+03	4.436932E-17	1.351978E-20
4.654001E+03	4.383944E-17	1.335832E-20
4.655970E+03	4.326443E-17	1.318310E-20
4.657939E+03	4.300010E-17	1.310256E-20
4.659907E+03	4.293060E-17	1.308138E-20
4.661876E+03	4.281890E-17	1.304735E-20
4.663845E+03	4.270342E-17	1.301216E-20
4.665814E+03	4.252132E-17	1.295667E-20
4.667782E+03	4.190158E-17	1.276783E-20
4.669751E+03	4.138839E-17	1.261146E-20
4.671720E+03	4.101526E-17	1.249776E-20
4.673688E+03	4.063200E-17	1.238098E-20
4.675657E+03	4.002558E-17	1.219619E-20
4.677626E+03	3.976365E-17	1.211638E-20
4.679594E+03	3.958292E-17	1.206131E-20
4.681563E+03	3.910969E-17	1.191711E-20
4.683532E+03	3.903260E-17	1.189362E-20
4.685501E+03	3.925809E-17	1.196233E-20
