#wls	flux	fluxerr
1.574958E+03	4.879962E-19	9.485461E-21
1.614332E+03	5.053222E-19	9.820548E-21
1.653706E+03	5.188216E-19	1.008112E-20
1.693080E+03	5.282386E-19	1.026225E-20
1.732454E+03	5.328461E-19	1.034985E-20
1.771828E+03	5.315315E-19	1.032236E-20
1.811202E+03	5.228969E-19	1.015270E-20
1.850576E+03	5.056886E-19	9.816629E-21
1.889950E+03	4.788806E-19	9.294331E-21
1.929324E+03	4.430195E-19	8.596532E-21
1.968698E+03	4.005702E-19	7.771172E-21
2.008072E+03	3.568599E-19	6.921670E-21
2.047446E+03	3.193739E-19	6.193208E-21
2.086820E+03	2.957119E-19	5.733053E-21
2.126194E+03	2.911715E-19	5.643708E-21
2.165567E+03	3.080781E-19	5.969981E-21
2.204941E+03	3.459251E-19	6.701750E-21
2.244315E+03	4.021115E-19	7.788329E-21
2.283689E+03	4.727012E-19	9.153217E-21
2.323063E+03	5.533039E-19	1.071119E-20
2.362437E+03	6.400554E-19	1.238728E-20
2.401811E+03	7.300047E-19	1.412428E-20
2.441185E+03	8.214898E-19	1.588994E-20
2.480559E+03	9.136496E-19	1.766757E-20
2.519933E+03	1.006252E-18	1.945263E-20
2.559307E+03	1.099469E-18	2.124841E-20
2.598681E+03	1.193710E-18	2.306278E-20
2.638055E+03	1.289519E-18	2.490621E-20
2.677429E+03	1.387718E-18	2.679447E-20
2.716803E+03	1.488546E-18	2.873215E-20
2.756177E+03	1.593095E-18	3.074018E-20
2.795551E+03	1.701824E-18	3.282735E-20
2.834925E+03	1.815668E-18	3.501155E-20
2.874299E+03	1.935077E-18	3.730132E-20
2.913673E+03	2.060746E-18	3.970991E-20
2.953047E+03	2.193706E-18	4.225700E-20
2.962890E+03	2.228031E-18	4.291435E-20
2.972734E+03	2.263128E-18	4.358643E-20
2.982577E+03	2.298378E-18	4.426132E-20
2.992421E+03	2.334520E-18	4.495324E-20
3.002264E+03	2.371572E-18	4.566255E-20
3.012107E+03	2.409898E-18	4.639623E-20
3.021951E+03	2.449764E-18	4.715940E-20
3.031794E+03	2.490449E-18	4.793818E-20
3.041638E+03	2.532523E-18	4.874354E-20
3.051481E+03	2.575325E-18	4.956272E-20
3.061325E+03	2.619497E-18	5.040812E-20
3.071168E+03	2.665006E-18	5.127906E-20
3.081012E+03	2.711083E-18	5.216073E-20
3.090855E+03	2.758043E-18	5.305922E-20
3.100699E+03	2.806225E-18	5.398100E-20
3.110542E+03	2.855229E-18	5.491841E-20
3.120386E+03	2.904631E-18	5.586328E-20
3.130229E+03	2.955575E-18	5.683760E-20
3.140073E+03	3.006871E-18	5.781847E-20
3.149916E+03	3.058884E-18	5.881293E-20
3.159760E+03	3.112014E-18	5.982862E-20
3.169603E+03	3.165843E-18	6.085756E-20
3.179447E+03	3.219940E-18	6.189141E-20
3.189290E+03	3.275568E-18	6.295446E-20
3.199134E+03	3.331452E-18	6.402220E-20
3.208977E+03	3.388015E-18	6.510274E-20
3.218821E+03	3.445708E-18	6.620476E-20
3.228664E+03	3.503642E-18	6.731118E-20
3.238508E+03	3.562729E-18	6.843949E-20
3.248351E+03	3.622532E-18	6.958129E-20
3.258195E+03	3.683534E-18	7.074588E-20
3.268038E+03	3.744814E-18	7.191553E-20
3.277882E+03	3.806850E-18	7.309944E-20
3.287725E+03	3.870162E-18	7.430758E-20
3.297569E+03	3.934287E-18	7.553107E-20
3.307412E+03	3.999252E-18	7.677039E-20
3.317256E+03	4.065081E-18	7.802602E-20
3.327099E+03	4.131806E-18	7.929855E-20
3.336943E+03	4.199983E-18	8.059866E-20
3.346786E+03	4.269131E-18	8.191709E-20
3.356630E+03	4.338741E-18	8.324409E-20
3.366473E+03	4.409928E-18	8.460104E-20
3.376317E+03	4.482196E-18	8.597841E-20
3.386160E+03	4.556143E-18	8.738765E-20
3.396004E+03	4.630696E-18	8.880820E-20
3.405847E+03	4.707027E-18	9.026249E-20
3.415691E+03	4.784033E-18	9.172940E-20
3.425534E+03	4.862923E-18	9.323209E-20
3.435377E+03	4.943164E-18	9.476031E-20
3.445221E+03	5.024804E-18	9.631500E-20
3.455064E+03	5.108507E-18	9.790886E-20
3.464908E+03	5.193099E-18	9.951937E-20
3.474751E+03	5.279870E-18	1.011713E-19
3.484595E+03	5.368254E-18	1.028537E-19
3.494438E+03	5.458303E-18	1.045676E-19
3.504282E+03	5.550069E-18	1.063139E-19
3.514125E+03	5.643603E-18	1.080937E-19
3.523969E+03	5.738961E-18	1.099081E-19
3.533812E+03	5.836878E-18	1.117710E-19
3.543656E+03	5.936045E-18	1.136573E-19
3.553499E+03	6.037898E-18	1.155947E-19
3.563343E+03	6.141805E-18	1.175709E-19
3.573186E+03	6.247814E-18	1.195868E-19
3.583030E+03	6.355981E-18	1.216436E-19
3.592873E+03	6.466354E-18	1.237421E-19
3.602717E+03	6.578988E-18	1.258833E-19
3.612560E+03	6.694699E-18	1.280829E-19
3.622404E+03	6.812792E-18	1.303275E-19
3.632247E+03	6.932522E-18	1.326029E-19
3.642091E+03	7.055510E-18	1.349400E-19
3.651934E+03	7.181024E-18	1.373249E-19
3.661778E+03	7.309103E-18	1.397582E-19
3.671621E+03	7.439795E-18	1.422409E-19
3.681465E+03	7.573990E-18	1.447900E-19
3.691308E+03	7.710044E-18	1.473740E-19
3.701152E+03	7.849703E-18	1.500262E-19
3.710995E+03	7.991269E-18	1.527142E-19
3.720839E+03	8.136538E-18	1.554723E-19
3.730682E+03	8.284670E-18	1.582844E-19
3.740526E+03	8.435693E-18	1.611511E-19
3.750369E+03	8.589634E-18	1.640728E-19
3.760213E+03	8.746520E-18	1.670500E-19
3.770056E+03	8.906371E-18	1.700831E-19
3.779900E+03	9.069207E-18	1.731724E-19
3.789743E+03	9.236044E-18	1.763374E-19
3.799587E+03	9.404911E-18	1.795403E-19
3.809430E+03	9.577831E-18	1.828198E-19
3.819274E+03	9.752767E-18	1.861370E-19
3.829117E+03	9.931799E-18	1.895315E-19
3.838961E+03	1.011389E-17	1.929836E-19
3.848804E+03	1.029795E-17	1.964723E-19
3.858648E+03	1.048614E-17	2.000389E-19
3.868491E+03	1.067736E-17	2.036624E-19
3.878334E+03	1.087160E-17	2.073427E-19
3.888178E+03	1.106883E-17	2.110790E-19
3.898021E+03	1.126903E-17	2.148710E-19
3.907865E+03	1.147216E-17	2.187179E-19
3.917708E+03	1.167817E-17	2.226189E-19
3.927552E+03	1.188703E-17	2.265730E-19
3.937395E+03	1.209992E-17	2.306030E-19
3.947239E+03	1.231429E-17	2.346603E-19
3.957082E+03	1.253132E-17	2.387671E-19
3.966926E+03	1.275091E-17	2.429217E-19
3.976769E+03	1.297429E-17	2.471475E-19
3.986613E+03	1.319874E-17	2.513926E-19
3.996456E+03	1.342544E-17	2.556795E-19
4.006300E+03	1.365565E-17	2.600321E-19
4.016143E+03	1.388648E-17	2.643954E-19
4.025987E+03	1.412055E-17	2.688194E-19
4.035830E+03	1.435487E-17	2.732469E-19
4.045674E+03	1.459064E-17	2.777011E-19
4.055517E+03	1.482913E-17	2.822058E-19
4.065361E+03	1.506717E-17	2.867008E-19
4.075204E+03	1.530596E-17	2.912091E-19
4.085048E+03	1.554676E-17	2.957543E-19
4.094891E+03	1.578621E-17	3.002728E-19
4.104735E+03	1.602550E-17	3.047870E-19
4.114578E+03	1.626426E-17	3.092900E-19
4.124422E+03	1.650371E-17	3.138051E-19
4.134265E+03	1.674024E-17	3.182635E-19
4.144109E+03	1.697498E-17	3.226868E-19
4.153952E+03	1.720745E-17	3.270659E-19
4.163796E+03	1.743714E-17	3.313910E-19
4.173639E+03	1.766350E-17	3.356518E-19
4.183483E+03	1.788596E-17	3.398372E-19
4.193326E+03	1.810389E-17	3.439358E-19
4.203170E+03	1.831667E-17	3.479355E-19
4.213013E+03	1.852189E-17	3.517904E-19
4.222857E+03	1.872234E-17	3.555540E-19
4.232700E+03	1.891559E-17	3.591799E-19
4.242544E+03	1.909914E-17	3.626208E-19
4.252387E+03	1.927404E-17	3.658966E-19
4.262231E+03	1.944141E-17	3.690285E-19
4.272074E+03	1.959692E-17	3.719348E-19
4.281918E+03	1.974173E-17	3.746372E-19
4.291761E+03	1.987522E-17	3.771243E-19
4.301604E+03	1.999685E-17	3.793857E-19
4.311448E+03	2.010619E-17	3.814133E-19
4.321291E+03	2.020292E-17	3.832015E-19
4.331135E+03	2.028513E-17	3.847137E-19
4.340978E+03	2.035663E-17	3.860225E-19
4.350822E+03	2.041400E-17	3.870631E-19
4.360665E+03	2.045949E-17	3.878783E-19
4.370509E+03	2.049544E-17	3.885126E-19
4.380352E+03	2.051870E-17	3.889062E-19
4.390196E+03	2.052987E-17	3.890706E-19
4.400039E+03	2.053331E-17	3.890884E-19
4.409883E+03	2.052782E-17	3.889371E-19
4.419726E+03	2.051226E-17	3.885950E-19
4.429570E+03	2.049099E-17	3.881449E-19
4.439413E+03	2.046105E-17	3.875308E-19
4.449257E+03	2.042497E-17	3.868007E-19
4.459100E+03	2.038345E-17	3.859675E-19
4.468944E+03	2.033535E-17	3.850101E-19
4.478787E+03	2.028493E-17	3.840090E-19
4.488631E+03	2.022926E-17	3.829088E-19
4.498474E+03	2.017075E-17	3.817552E-19
4.508318E+03	2.011000E-17	3.805596E-19
4.518161E+03	2.004761E-17	3.793330E-19
4.528005E+03	1.998412E-17	3.780860E-19
4.537848E+03	1.991834E-17	3.767961E-19
4.547692E+03	1.985426E-17	3.755386E-19
4.557535E+03	1.978893E-17	3.742576E-19
4.567379E+03	1.972454E-17	3.729949E-19
4.577222E+03	1.965986E-17	3.717271E-19
4.587066E+03	1.959872E-17	3.705265E-19
4.596909E+03	1.953816E-17	3.693371E-19
4.606753E+03	1.948028E-17	3.681987E-19
4.616596E+03	1.942546E-17	3.671183E-19
4.626440E+03	1.937407E-17	3.661031E-19
4.636283E+03	1.932647E-17	3.651597E-19
4.646127E+03	1.928136E-17	3.642636E-19
4.655970E+03	1.924073E-17	3.634524E-19
4.665814E+03	1.920490E-17	3.627320E-19
4.675657E+03	1.917418E-17	3.621084E-19
4.685501E+03	1.914727E-17	3.615567E-19
4.695344E+03	1.912767E-17	3.611434E-19
4.705188E+03	1.911247E-17	3.608131E-19
4.715031E+03	1.910196E-17	3.605715E-19
4.724874E+03	1.909962E-17	3.604840E-19
4.734718E+03	1.910251E-17	3.604953E-19
4.744561E+03	1.911409E-17	3.606707E-19
4.754405E+03	1.913145E-17	3.609550E-19
4.764248E+03	1.915485E-17	3.613532E-19
4.774092E+03	1.918771E-17	3.619299E-19
4.783935E+03	1.922713E-17	3.626300E-19
4.793779E+03	1.927494E-17	3.634883E-19
4.803622E+03	1.933141E-17	3.645095E-19
4.813466E+03	1.939518E-17	3.656682E-19
4.823309E+03	1.946969E-17	3.670293E-19
4.833153E+03	1.955203E-17	3.685373E-19
4.842996E+03	1.964401E-17	3.702270E-19
4.852840E+03	1.974431E-17	3.720729E-19
4.862683E+03	1.985639E-17	3.741403E-19
4.872527E+03	1.997727E-17	3.763732E-19
4.882370E+03	2.010884E-17	3.788068E-19
4.892214E+03	2.024970E-17	3.814148E-19
4.902057E+03	2.040339E-17	3.842638E-19
4.911901E+03	2.056688E-17	3.872967E-19
4.921744E+03	2.074205E-17	3.905490E-19
4.931588E+03	2.092918E-17	3.940255E-19
4.941431E+03	2.112680E-17	3.976988E-19
4.951275E+03	2.133685E-17	4.016050E-19
4.961118E+03	2.155955E-17	4.057485E-19
4.970962E+03	2.179514E-17	4.101337E-19
4.980805E+03	2.204385E-17	4.147647E-19
4.990649E+03	2.230411E-17	4.196118E-19
5.000492E+03	2.257786E-17	4.247116E-19
5.010336E+03	2.286345E-17	4.300330E-19
5.020179E+03	2.316468E-17	4.356471E-19
5.030023E+03	2.347800E-17	4.414875E-19
5.039866E+03	2.380536E-17	4.475903E-19
5.049710E+03	2.414682E-17	4.539569E-19
5.059553E+03	2.450243E-17	4.605881E-19
5.069397E+03	2.487023E-17	4.674468E-19
5.079240E+03	2.525209E-17	4.745682E-19
5.089084E+03	2.564793E-17	4.819505E-19
5.098927E+03	2.605553E-17	4.895523E-19
5.108771E+03	2.647878E-17	4.974463E-19
5.118614E+03	2.691327E-17	5.055495E-19
5.128458E+03	2.736070E-17	5.138941E-19
5.138301E+03	2.781846E-17	5.224308E-19
5.148145E+03	2.829040E-17	5.312318E-19
5.157988E+03	2.877151E-17	5.402029E-19
5.167831E+03	2.926327E-17	5.493721E-19
5.177675E+03	2.976258E-17	5.586808E-19
5.187518E+03	3.027315E-17	5.681987E-19
5.197362E+03	3.078925E-17	5.778185E-19
5.207205E+03	3.131211E-17	5.875628E-19
5.217049E+03	3.184044E-17	5.974078E-19
5.226892E+03	3.237036E-17	6.072802E-19
5.236736E+03	3.290279E-17	6.171976E-19
5.246579E+03	3.343611E-17	6.271295E-19
5.256423E+03	3.396853E-17	6.370425E-19
5.266266E+03	3.449818E-17	6.469014E-19
5.276110E+03	3.502032E-17	6.566172E-19
5.285953E+03	3.553546E-17	6.661998E-19
5.295797E+03	3.604138E-17	6.756075E-19
5.305640E+03	3.653575E-17	6.847967E-19
5.315484E+03	3.701331E-17	6.936690E-19
5.325327E+03	3.747730E-17	7.022851E-19
5.335171E+03	3.791947E-17	7.104907E-19
5.345014E+03	3.833724E-17	7.182374E-19
5.354858E+03	3.873406E-17	7.255901E-19
5.364701E+03	3.910160E-17	7.323931E-19
5.374545E+03	3.944059E-17	7.386600E-19
5.384388E+03	3.974899E-17	7.443526E-19
5.394232E+03	4.002499E-17	7.494379E-19
5.404075E+03	4.026725E-17	7.538903E-19
5.413919E+03	4.047182E-17	7.576365E-19
5.423762E+03	4.064164E-17	7.607317E-19
5.433606E+03	4.077714E-17	7.631843E-19
5.443449E+03	4.087918E-17	7.650102E-19
5.453293E+03	4.094576E-17	7.661725E-19
5.463136E+03	4.098462E-17	7.668163E-19
5.472980E+03	4.099109E-17	7.668542E-19
5.482823E+03	4.097012E-17	7.663790E-19
5.492667E+03	4.092048E-17	7.653680E-19
5.502510E+03	4.085047E-17	7.639766E-19
5.512354E+03	4.075587E-17	7.621259E-19
5.522197E+03	4.064192E-17	7.599139E-19
5.532041E+03	4.051071E-17	7.573800E-19
5.541884E+03	4.036433E-17	7.545634E-19
5.551728E+03	4.020483E-17	7.515024E-19
5.561571E+03	4.003116E-17	7.481773E-19
5.571415E+03	3.984836E-17	7.446827E-19
5.581258E+03	3.965831E-17	7.410537E-19
5.591101E+03	3.946284E-17	7.373243E-19
5.600945E+03	3.926368E-17	7.335269E-19
5.610788E+03	3.905948E-17	7.296365E-19
5.620632E+03	3.885781E-17	7.257944E-19
5.630475E+03	3.865417E-17	7.219165E-19
5.640319E+03	3.845295E-17	7.180849E-19
5.650162E+03	3.825545E-17	7.143237E-19
5.660006E+03	3.805996E-17	7.106012E-19
5.669849E+03	3.787347E-17	7.070476E-19
5.679693E+03	3.769121E-17	7.035739E-19
5.689536E+03	3.751707E-17	7.002526E-19
5.699380E+03	3.735193E-17	6.971003E-19
5.709223E+03	3.719663E-17	6.941325E-19
5.719067E+03	3.705192E-17	6.913632E-19
5.728910E+03	3.691568E-17	6.887525E-19
5.738754E+03	3.679418E-17	6.864178E-19
5.748597E+03	3.668238E-17	6.842646E-19
5.758441E+03	3.658362E-17	6.823553E-19
5.768284E+03	3.649838E-17	6.806987E-19
5.778128E+03	3.642707E-17	6.793026E-19
5.787971E+03	3.637011E-17	6.781744E-19
5.797815E+03	3.632505E-17	6.772687E-19
5.807658E+03	3.629778E-17	6.766950E-19
5.817502E+03	3.628303E-17	6.763550E-19
5.827345E+03	3.628382E-17	6.763051E-19
5.837189E+03	3.630040E-17	6.765496E-19
5.847032E+03	3.633296E-17	6.770923E-19
5.856876E+03	3.638169E-17	6.779364E-19
5.866719E+03	3.644398E-17	6.790331E-19
5.876563E+03	3.652552E-17	6.804887E-19
5.886406E+03	3.662088E-17	6.822016E-19
5.896250E+03	3.673295E-17	6.842258E-19
5.906093E+03	3.686183E-17	6.865629E-19
5.915937E+03	3.700760E-17	6.892145E-19
5.925780E+03	3.717034E-17	6.921819E-19
5.935624E+03	3.735009E-17	6.954657E-19
5.945467E+03	3.754690E-17	6.990670E-19
5.955311E+03	3.775791E-17	7.029321E-19
5.965154E+03	3.798888E-17	7.071685E-19
5.974998E+03	3.823401E-17	7.116680E-19
5.984841E+03	3.849616E-17	7.164837E-19
5.994685E+03	3.877527E-17	7.216147E-19
6.004528E+03	3.907128E-17	7.270593E-19
6.014371E+03	3.938408E-17	7.328159E-19
6.024215E+03	3.971354E-17	7.388819E-19
6.034058E+03	4.005952E-17	7.452543E-19
6.043902E+03	4.041871E-17	7.518719E-19
6.053745E+03	4.079706E-17	7.588452E-19
6.063589E+03	4.118808E-17	7.660531E-19
6.073432E+03	4.159455E-17	7.735477E-19
6.083276E+03	4.201933E-17	7.813818E-19
6.093119E+03	4.245560E-17	7.894287E-19
6.102963E+03	4.290608E-17	7.977388E-19
6.112806E+03	4.337025E-17	8.063025E-19
6.122650E+03	4.384752E-17	8.151088E-19
6.132493E+03	4.433382E-17	8.240821E-19
6.142337E+03	4.483522E-17	8.333350E-19
6.152180E+03	4.534756E-17	8.427901E-19
6.162024E+03	4.586641E-17	8.523653E-19
6.171867E+03	4.639785E-17	8.621734E-19
6.181711E+03	4.693372E-17	8.720629E-19
6.191554E+03	4.748010E-17	8.821466E-19
6.201398E+03	4.802848E-17	8.922664E-19
6.211241E+03	4.858115E-17	9.024650E-19
6.221085E+03	4.913671E-17	9.127162E-19
6.230928E+03	4.969363E-17	9.229919E-19
6.240772E+03	5.025031E-17	9.332622E-19
6.250615E+03	5.080502E-17	9.434950E-19
6.260459E+03	5.135599E-17	9.536573E-19
6.270302E+03	5.190118E-17	9.637119E-19
6.280146E+03	5.243466E-17	9.735480E-19
6.289989E+03	5.296229E-17	9.832750E-19
6.299833E+03	5.347784E-17	9.927770E-19
6.309676E+03	5.397493E-17	1.001936E-18
6.319520E+03	5.445945E-17	1.010861E-18
6.329363E+03	5.492058E-17	1.019351E-18
6.339207E+03	5.536006E-17	1.027440E-18
6.349050E+03	5.577968E-17	1.035159E-18
6.358894E+03	5.616845E-17	1.042306E-18
6.368737E+03	5.652807E-17	1.048912E-18
6.378581E+03	5.685627E-17	1.054935E-18
6.388424E+03	5.715069E-17	1.060331E-18
6.398268E+03	5.740930E-17	1.065064E-18
6.408111E+03	5.763020E-17	1.069097E-18
6.417955E+03	5.781198E-17	1.072405E-18
6.427798E+03	5.795359E-17	1.074968E-18
6.437642E+03	5.805486E-17	1.076784E-18
6.447485E+03	5.811630E-17	1.077862E-18
6.457328E+03	5.813908E-17	1.078224E-18
6.467172E+03	5.812018E-17	1.077814E-18
6.477015E+03	5.807051E-17	1.076834E-18
6.486859E+03	5.798766E-17	1.075240E-18
6.496702E+03	5.786926E-17	1.072989E-18
6.506546E+03	5.772666E-17	1.070289E-18
6.516389E+03	5.755317E-17	1.067019E-18
6.526233E+03	5.736018E-17	1.063388E-18
6.536076E+03	5.714101E-17	1.059273E-18
6.545920E+03	5.690691E-17	1.054882E-18
6.555763E+03	5.665128E-17	1.050094E-18
6.565607E+03	5.638067E-17	1.045030E-18
6.575450E+03	5.610172E-17	1.039812E-18
6.585294E+03	5.580751E-17	1.034313E-18
6.595137E+03	5.550437E-17	1.028650E-18
6.604981E+03	5.519415E-17	1.022857E-18
6.614824E+03	5.488292E-17	1.017046E-18
6.624668E+03	5.456353E-17	1.011086E-18
6.634511E+03	5.424192E-17	1.005086E-18
6.644355E+03	5.391938E-17	9.990700E-19
6.654198E+03	5.359736E-17	9.930649E-19
6.664042E+03	5.327697E-17	9.870914E-19
6.673885E+03	5.295936E-17	9.811707E-19
6.683729E+03	5.264558E-17	9.753221E-19
6.693572E+03	5.233245E-17	9.694868E-19
6.703416E+03	5.202912E-17	9.638344E-19
6.713259E+03	5.173227E-17	9.583029E-19
6.723103E+03	5.144260E-17	9.529058E-19
6.732946E+03	5.116080E-17	9.476556E-19
6.742790E+03	5.088343E-17	9.424885E-19
6.752633E+03	5.061914E-17	9.375648E-19
6.762477E+03	5.036435E-17	9.328181E-19
6.772320E+03	5.011555E-17	9.281833E-19
6.782164E+03	4.988108E-17	9.238151E-19
6.792007E+03	4.965336E-17	9.195729E-19
6.801851E+03	4.944061E-17	9.156087E-19
6.811694E+03	4.923521E-17	9.117817E-19
6.821538E+03	4.904522E-17	9.082411E-19
6.831381E+03	4.886304E-17	9.048458E-19
6.841225E+03	4.869659E-17	9.017430E-19
6.851068E+03	4.853825E-17	8.987912E-19
6.860912E+03	4.839200E-17	8.960640E-19
6.870755E+03	4.825791E-17	8.935628E-19
6.880598E+03	4.813986E-17	8.913595E-19
6.890442E+03	4.803017E-17	8.893118E-19
6.900285E+03	4.793268E-17	8.874909E-19
6.910129E+03	4.784736E-17	8.858961E-19
6.919972E+03	4.777417E-17	8.845265E-19
6.929816E+03	4.771302E-17	8.833808E-19
6.939659E+03	4.766382E-17	8.824571E-19
6.949503E+03	4.762647E-17	8.817536E-19
6.959346E+03	4.760082E-17	8.812675E-19
6.969190E+03	4.758675E-17	8.809964E-19
6.979033E+03	4.758407E-17	8.809371E-19
6.988877E+03	4.759262E-17	8.810864E-19
6.998720E+03	4.760837E-17	8.813697E-19
7.008564E+03	4.763877E-17	8.819250E-19
7.018407E+03	4.767977E-17	8.826774E-19
7.028251E+03	4.772729E-17	8.835512E-19
7.038094E+03	4.778877E-17	8.846842E-19
7.047938E+03	4.786012E-17	8.860007E-19
7.057781E+03	4.793718E-17	8.874238E-19
7.067625E+03	4.802743E-17	8.890918E-19
7.077468E+03	4.812281E-17	8.908556E-19
7.087312E+03	4.822692E-17	8.927817E-19
7.097155E+03	4.834334E-17	8.949367E-19
7.106999E+03	4.846397E-17	8.971703E-19
7.116842E+03	4.859238E-17	8.995489E-19
7.126686E+03	4.872825E-17	9.020665E-19
7.136529E+03	4.887127E-17	9.047173E-19
7.146373E+03	4.902111E-17	9.074952E-19
7.156216E+03	4.917744E-17	9.103942E-19
7.166060E+03	4.933995E-17	9.134085E-19
7.175903E+03	4.950831E-17	9.165320E-19
7.185747E+03	4.968219E-17	9.197589E-19
7.195590E+03	4.986131E-17	9.230835E-19
7.205434E+03	5.004123E-17	9.264241E-19
7.215277E+03	5.022983E-17	9.299264E-19
7.225121E+03	5.042276E-17	9.335098E-19
7.234964E+03	5.061556E-17	9.370919E-19
7.244808E+03	5.081624E-17	9.408212E-19
7.254651E+03	5.101624E-17	9.445388E-19
7.264495E+03	5.121944E-17	9.483168E-19
7.274338E+03	5.142983E-17	9.522293E-19
7.284182E+03	5.163875E-17	9.561156E-19
7.294025E+03	5.185020E-17	9.600500E-19
7.303868E+03	5.206398E-17	9.640288E-19
7.313712E+03	5.227991E-17	9.680486E-19
7.323555E+03	5.249780E-17	9.721061E-19
7.333399E+03	5.271752E-17	9.761987E-19
7.343242E+03	5.293452E-17	9.802423E-19
7.353086E+03	5.315742E-17	9.843965E-19
7.362929E+03	5.338170E-17	9.885779E-19
7.372773E+03	5.360284E-17	9.927023E-19
7.382616E+03	5.382957E-17	9.969318E-19
7.392460E+03	5.405288E-17	1.001099E-18
7.402303E+03	5.427710E-17	1.005285E-18
7.412147E+03	5.450666E-17	1.009572E-18
7.421990E+03	5.473241E-17	1.013790E-18
7.431834E+03	5.495875E-17	1.018020E-18
7.441677E+03	5.518555E-17	1.022260E-18
7.451521E+03	5.541266E-17	1.026507E-18
7.461364E+03	5.563996E-17	1.030760E-18
7.471208E+03	5.586260E-17	1.034928E-18
7.481051E+03	5.608969E-17	1.039181E-18
7.490895E+03	5.631168E-17	1.043341E-18
7.500738E+03	5.653772E-17	1.047577E-18
7.510582E+03	5.675808E-17	1.051711E-18
7.520425E+03	5.698197E-17	1.055911E-18
7.530269E+03	5.719949E-17	1.059996E-18
7.540112E+03	5.741501E-17	1.064045E-18
7.549956E+03	5.762811E-17	1.068051E-18
7.559799E+03	5.783830E-17	1.072006E-18
7.569643E+03	5.804508E-17	1.075899E-18
7.579486E+03	5.824293E-17	1.079629E-18
7.589330E+03	5.844106E-17	1.083366E-18
7.599173E+03	5.863387E-17	1.087007E-18
7.609017E+03	5.881564E-17	1.090445E-18
7.618860E+03	5.899051E-17	1.093758E-18
7.628704E+03	5.916266E-17	1.097022E-18
7.638547E+03	5.932113E-17	1.100035E-18
