#wls	flux	fluxerr
1.600000E+03	7.016272E-15	4.106483E-15
1.640000E+03	7.342411E-15	4.025315E-15
1.680000E+03	7.634860E-15	3.881260E-15
1.720000E+03	7.880597E-15	3.669839E-15
1.760000E+03	8.065499E-15	3.389582E-15
1.800000E+03	8.175157E-15	3.043171E-15
1.840000E+03	8.195998E-15	2.638424E-15
1.880000E+03	8.117066E-15	2.189011E-15
1.920000E+03	7.932445E-15	1.714508E-15
1.960000E+03	7.645472E-15	1.239706E-15
2.000000E+03	7.276487E-15	7.932805E-16
2.040000E+03	6.881890E-15	4.105859E-16
2.080000E+03	6.590908E-15	1.984077E-16
2.120000E+03	6.508359E-15	3.005061E-16
2.160000E+03	6.522367E-15	3.810773E-16
2.200000E+03	6.522798E-15	3.371086E-16
2.240000E+03	6.494878E-15	2.117523E-16
2.280000E+03	6.484107E-15	2.659291E-16
2.320000E+03	6.488068E-15	4.811067E-16
2.360000E+03	6.473082E-15	6.713939E-16
2.400000E+03	6.437343E-15	7.940407E-16
2.440000E+03	6.385447E-15	8.340295E-16
2.480000E+03	6.318182E-15	7.856969E-16
2.520000E+03	6.233438E-15	6.503017E-16
2.560000E+03	6.131027E-15	4.384680E-16
2.600000E+03	6.030540E-15	1.981699E-16
2.640000E+03	5.986520E-15	2.605340E-16
2.680000E+03	5.980566E-15	5.318620E-16
2.720000E+03	5.958903E-15	7.786674E-16
2.760000E+03	5.910518E-15	9.724643E-16
2.800000E+03	5.839340E-15	1.104890E-15
2.840000E+03	5.752096E-15	1.174125E-15
2.880000E+03	5.655541E-15	1.182552E-15
2.920000E+03	5.555802E-15	1.135714E-15
2.960000E+03	5.458004E-15	1.041722E-15
3.000000E+03	5.366126E-15	9.111749E-16
3.010000E+03	5.344424E-15	8.743321E-16
3.020000E+03	5.323284E-15	8.362692E-16
3.030000E+03	5.302727E-15	7.972412E-16
3.040000E+03	5.282746E-15	7.575121E-16
3.050000E+03	5.263318E-15	7.173560E-16
3.060000E+03	5.244426E-15	6.770558E-16
3.070000E+03	5.226029E-15	6.368941E-16
3.080000E+03	5.208045E-15	5.971431E-16
3.090000E+03	5.190356E-15	5.580568E-16
3.100000E+03	5.172826E-15	5.198611E-16
3.110000E+03	5.155260E-15	4.827403E-16
3.120000E+03	5.137349E-15	4.468264E-16
3.130000E+03	5.118795E-15	4.122147E-16
3.140000E+03	5.099166E-15	3.789641E-16
3.150000E+03	5.077926E-15	3.471299E-16
3.160000E+03	5.054517E-15	3.168079E-16
3.170000E+03	5.028335E-15	2.881768E-16
3.180000E+03	4.998836E-15	2.615415E-16
3.190000E+03	4.965613E-15	2.373447E-16
3.200000E+03	4.928491E-15	2.161111E-16
3.210000E+03	4.887783E-15	1.982908E-16
3.220000E+03	4.844461E-15	1.840285E-16
3.230000E+03	4.800212E-15	1.730559E-16
3.240000E+03	4.757305E-15	1.648088E-16
3.250000E+03	4.718300E-15	1.586078E-16
3.260000E+03	4.685835E-15	1.538034E-16
3.270000E+03	4.662261E-15	1.498863E-16
3.280000E+03	4.649515E-15	1.465076E-16
3.290000E+03	4.648811E-15	1.434301E-16
3.300000E+03	4.660669E-15	1.405194E-16
3.310000E+03	4.684782E-15	1.377077E-16
3.320000E+03	4.720082E-15	1.349570E-16
3.330000E+03	4.764720E-15	1.322786E-16
3.340000E+03	4.816336E-15	1.297268E-16
3.350000E+03	4.871992E-15	1.273491E-16
3.360000E+03	4.928322E-15	1.251890E-16
3.370000E+03	4.981670E-15	1.232384E-16
3.380000E+03	5.028162E-15	1.213560E-16
3.390000E+03	5.064061E-15	1.192769E-16
3.400000E+03	5.086055E-15	1.166025E-16
3.410000E+03	5.091741E-15	1.127938E-16
3.420000E+03	5.080171E-15	1.073042E-16
3.430000E+03	5.052204E-15	9.972982E-17
3.440000E+03	5.010933E-15	8.999807E-17
3.450000E+03	4.961490E-15	7.877446E-17
3.460000E+03	4.910731E-15	6.811828E-17
3.470000E+03	4.866271E-15	6.215428E-17
3.480000E+03	4.833663E-15	6.459758E-17
3.490000E+03	4.809511E-15	7.192921E-17
3.500000E+03	4.788072E-15	7.966847E-17
3.510000E+03	4.764667E-15	8.579406E-17
3.520000E+03	4.736357E-15	8.985812E-17
3.530000E+03	4.702208E-15	9.206474E-17
3.540000E+03	4.662857E-15	9.287421E-17
3.550000E+03	4.620174E-15	9.278845E-17
3.560000E+03	4.576674E-15	9.219816E-17
3.570000E+03	4.535182E-15	9.141043E-17
3.580000E+03	4.498319E-15	9.064622E-17
3.590000E+03	4.468339E-15	9.000460E-17
3.600000E+03	4.446970E-15	8.954415E-17
3.610000E+03	4.435296E-15	8.931090E-17
3.620000E+03	4.433655E-15	8.930357E-17
3.630000E+03	4.441833E-15	8.953143E-17
3.640000E+03	4.459094E-15	8.999713E-17
3.650000E+03	4.484308E-15	9.063291E-17
3.660000E+03	4.515959E-15	9.136838E-17
3.670000E+03	4.552230E-15	9.215785E-17
3.680000E+03	4.591056E-15	9.294167E-17
3.690000E+03	4.630172E-15	9.370539E-17
3.700000E+03	4.667280E-15	9.448402E-17
3.710000E+03	4.700181E-15	9.529844E-17
3.720000E+03	4.726992E-15	9.618505E-17
3.730000E+03	4.746226E-15	9.715440E-17
3.740000E+03	4.756971E-15	9.810589E-17
3.750000E+03	4.758871E-15	9.889447E-17
3.760000E+03	4.752090E-15	9.938249E-17
3.770000E+03	4.737119E-15	9.942805E-17
3.780000E+03	4.714661E-15	9.896364E-17
3.790000E+03	4.685433E-15	9.802414E-17
3.800000E+03	4.650063E-15	9.670359E-17
3.810000E+03	4.609057E-15	9.516282E-17
3.820000E+03	4.562827E-15	9.357346E-17
3.830000E+03	4.511806E-15	9.203912E-17
3.840000E+03	4.456572E-15	9.063646E-17
3.850000E+03	4.398005E-15	8.941710E-17
3.860000E+03	4.337280E-15	8.836607E-17
3.870000E+03	4.275774E-15	8.746111E-17
3.880000E+03	4.214833E-15	8.668081E-17
3.890000E+03	4.155639E-15	8.596404E-17
3.900000E+03	4.098988E-15	8.525723E-17
3.910000E+03	4.045225E-15	8.452716E-17
3.920000E+03	3.994190E-15	8.372723E-17
3.930000E+03	3.945485E-15	8.284213E-17
3.940000E+03	3.898598E-15	8.189070E-17
3.950000E+03	3.853154E-15	8.089090E-17
3.960000E+03	3.809102E-15	7.988825E-17
3.970000E+03	3.766708E-15	7.894045E-17
3.980000E+03	3.726661E-15	7.807407E-17
3.990000E+03	3.689867E-15	7.730861E-17
4.000000E+03	3.657381E-15	7.664844E-17
4.010000E+03	3.630110E-15	7.604698E-17
4.020000E+03	3.608637E-15	7.546022E-17
4.030000E+03	3.592959E-15	7.486848E-17
4.040000E+03	3.582404E-15	7.425164E-17
4.050000E+03	3.575738E-15	7.361434E-17
4.060000E+03	3.571348E-15	7.297304E-17
4.070000E+03	3.567452E-15	7.231924E-17
4.080000E+03	3.562289E-15	7.165684E-17
4.090000E+03	3.554466E-15	7.101200E-17
4.100000E+03	3.542892E-15	7.040041E-17
4.110000E+03	3.526991E-15	6.985538E-17
4.120000E+03	3.506656E-15	6.939525E-17
4.130000E+03	3.482180E-15	6.897032E-17
4.140000E+03	3.454111E-15	6.851585E-17
4.150000E+03	3.423092E-15	6.797365E-17
4.160000E+03	3.389767E-15	6.727261E-17
4.170000E+03	3.354598E-15	6.638140E-17
4.180000E+03	3.318066E-15	6.532403E-17
4.190000E+03	3.280601E-15	6.414031E-17
4.200000E+03	3.242784E-15	6.290859E-17
4.210000E+03	3.205478E-15	6.172042E-17
4.220000E+03	3.169863E-15	6.062891E-17
4.230000E+03	3.137319E-15	5.967779E-17
4.240000E+03	3.109083E-15	5.888336E-17
4.250000E+03	3.086109E-15	5.819887E-17
4.260000E+03	3.068769E-15	5.757996E-17
4.270000E+03	3.056813E-15	5.701635E-17
4.280000E+03	3.049274E-15	5.650515E-17
4.290000E+03	3.044740E-15	5.607396E-17
4.300000E+03	3.041729E-15	5.572402E-17
4.310000E+03	3.038927E-15	5.533994E-17
4.320000E+03	3.035389E-15	5.472782E-17
4.330000E+03	3.030542E-15	5.362484E-17
4.340000E+03	3.024066E-15	5.168026E-17
4.350000E+03	3.015738E-15	4.858464E-17
4.360000E+03	3.005258E-15	4.427064E-17
4.370000E+03	2.992186E-15	3.926170E-17
4.380000E+03	2.976093E-15	3.534130E-17
4.390000E+03	2.956659E-15	3.543995E-17
4.400000E+03	2.934327E-15	3.936566E-17
4.410000E+03	2.910241E-15	4.417994E-17
4.420000E+03	2.885672E-15	4.824133E-17
4.430000E+03	2.861722E-15	5.111187E-17
4.440000E+03	2.839174E-15	5.294154E-17
4.450000E+03	2.818469E-15	5.405730E-17
4.460000E+03	2.799754E-15	5.473390E-17
4.470000E+03	2.783004E-15	5.516828E-17
4.480000E+03	2.768088E-15	5.548994E-17
4.490000E+03	2.754830E-15	5.575304E-17
4.500000E+03	2.743123E-15	5.598385E-17
4.510000E+03	2.732869E-15	5.619140E-17
4.520000E+03	2.723929E-15	5.634595E-17
4.530000E+03	2.716179E-15	5.642084E-17
4.540000E+03	2.709384E-15	5.641469E-17
4.550000E+03	2.703267E-15	5.634097E-17
4.560000E+03	2.697410E-15	5.624139E-17
4.570000E+03	2.691406E-15	5.616732E-17
4.580000E+03	2.684827E-15	5.613673E-17
4.590000E+03	2.677295E-15	5.615376E-17
4.600000E+03	2.668412E-15	5.620437E-17
4.610000E+03	2.657768E-15	5.623522E-17
4.620000E+03	2.644968E-15	5.619678E-17
4.630000E+03	2.629653E-15	5.606959E-17
4.640000E+03	2.611510E-15	5.585187E-17
4.650000E+03	2.590352E-15	5.557279E-17
4.660000E+03	2.566230E-15	5.527294E-17
4.670000E+03	2.539468E-15	5.496785E-17
4.680000E+03	2.510713E-15	5.467104E-17
4.690000E+03	2.480800E-15	5.439812E-17
4.700000E+03	2.450767E-15	5.414935E-17
4.710000E+03	2.421646E-15	5.392419E-17
4.720000E+03	2.394477E-15	5.371823E-17
4.730000E+03	2.370187E-15	5.350228E-17
4.740000E+03	2.349560E-15	5.325418E-17
4.750000E+03	2.333121E-15	5.297429E-17
4.760000E+03	2.321210E-15	5.267667E-17
4.770000E+03	2.313874E-15	5.239471E-17
4.780000E+03	2.310852E-15	5.216271E-17
4.790000E+03	2.311621E-15	5.198715E-17
4.800000E+03	2.315280E-15	5.186348E-17
4.810000E+03	2.320706E-15	5.178709E-17
4.820000E+03	2.326614E-15	5.174209E-17
4.830000E+03	2.331758E-15	5.172167E-17
4.840000E+03	2.335061E-15	5.172270E-17
4.850000E+03	2.335826E-15	5.172603E-17
4.860000E+03	2.333794E-15	5.171860E-17
4.870000E+03	2.328998E-15	5.169495E-17
4.880000E+03	2.321726E-15	5.164013E-17
4.890000E+03	2.312486E-15	5.154794E-17
4.900000E+03	2.301723E-15	5.141200E-17
4.910000E+03	2.289973E-15	5.121026E-17
4.920000E+03	2.277697E-15	5.092751E-17
4.930000E+03	2.265358E-15	5.056609E-17
4.940000E+03	2.253357E-15	5.013101E-17
4.950000E+03	2.242017E-15	4.964777E-17
4.960000E+03	2.231573E-15	4.915392E-17
4.970000E+03	2.222133E-15	4.867119E-17
4.980000E+03	2.213591E-15	4.821996E-17
4.990000E+03	2.205697E-15	4.781585E-17
5.000000E+03	2.198092E-15	4.744889E-17
5.010000E+03	2.190343E-15	4.710817E-17
5.020000E+03	2.182104E-15	4.678670E-17
5.030000E+03	2.173196E-15	4.646341E-17
5.040000E+03	2.163565E-15	4.612613E-17
5.050000E+03	2.153366E-15	4.577362E-17
5.060000E+03	2.142841E-15	4.539263E-17
5.070000E+03	2.132271E-15	4.498190E-17
5.080000E+03	2.121882E-15	4.454941E-17
5.090000E+03	2.111844E-15	4.409067E-17
5.100000E+03	2.102179E-15	4.361207E-17
5.110000E+03	2.092848E-15	4.312843E-17
5.120000E+03	2.083718E-15	4.263602E-17
5.130000E+03	2.074584E-15	4.213940E-17
5.140000E+03	2.065350E-15	4.165119E-17
5.150000E+03	2.055959E-15	4.116295E-17
5.160000E+03	2.046439E-15	4.067560E-17
5.170000E+03	2.036841E-15	4.019567E-17
5.180000E+03	2.027236E-15	3.970802E-17
5.190000E+03	2.017628E-15	3.920785E-17
5.200000E+03	2.008044E-15	3.870224E-17
5.210000E+03	1.998457E-15	3.818010E-17
5.220000E+03	1.988858E-15	3.764517E-17
5.230000E+03	1.979301E-15	3.711060E-17
5.240000E+03	1.969873E-15	3.656566E-17
5.250000E+03	1.960747E-15	3.601378E-17
5.260000E+03	1.951999E-15	3.546907E-17
5.270000E+03	1.943686E-15	3.492672E-17
5.280000E+03	1.935781E-15	3.439889E-17
5.290000E+03	1.928285E-15	3.390840E-17
5.300000E+03	1.921183E-15	3.344910E-17
5.310000E+03	1.914540E-15	3.303015E-17
5.320000E+03	1.908429E-15	3.266585E-17
5.330000E+03	1.902980E-15	3.233341E-17
5.340000E+03	1.898231E-15	3.202489E-17
5.350000E+03	1.894194E-15	3.175019E-17
5.360000E+03	1.890727E-15	3.149030E-17
5.370000E+03	1.887575E-15	3.124709E-17
5.380000E+03	1.884367E-15	3.103286E-17
5.390000E+03	1.880661E-15	3.081599E-17
5.400000E+03	1.876023E-15	3.057855E-17
5.410000E+03	1.870211E-15	3.031996E-17
5.420000E+03	1.863160E-15	3.000054E-17
5.430000E+03	1.855080E-15	2.958616E-17
5.440000E+03	1.846326E-15	2.903218E-17
5.450000E+03	1.837406E-15	2.823498E-17
5.460000E+03	1.828826E-15	2.712712E-17
5.470000E+03	1.820921E-15	2.577021E-17
5.480000E+03	1.813917E-15	2.445363E-17
5.490000E+03	1.807993E-15	2.387154E-17
5.500000E+03	1.803165E-15	2.452290E-17
5.510000E+03	1.798681E-15	2.568447E-17
5.520000E+03	1.793983E-15	2.673152E-17
5.530000E+03	1.788743E-15	2.744947E-17
5.540000E+03	1.782893E-15	2.782869E-17
5.550000E+03	1.776543E-15	2.797381E-17
5.560000E+03	1.769871E-15	2.801224E-17
5.570000E+03	1.763096E-15	2.800342E-17
5.580000E+03	1.756352E-15	2.799086E-17
5.590000E+03	1.749834E-15	2.800947E-17
5.600000E+03	1.743548E-15	2.803149E-17
5.610000E+03	1.737498E-15	2.803774E-17
5.620000E+03	1.731513E-15	2.803368E-17
5.630000E+03	1.725336E-15	2.800471E-17
5.640000E+03	1.718631E-15	2.796069E-17
5.650000E+03	1.711138E-15	2.792501E-17
5.660000E+03	1.702603E-15	2.787527E-17
5.670000E+03	1.692948E-15	2.780219E-17
5.680000E+03	1.682231E-15	2.771827E-17
5.690000E+03	1.670745E-15	2.761325E-17
5.700000E+03	1.658834E-15	2.749862E-17
5.710000E+03	1.647071E-15	2.740726E-17
5.720000E+03	1.636035E-15	2.733798E-17
5.730000E+03	1.626341E-15	2.730109E-17
5.740000E+03	1.618457E-15	2.731301E-17
5.750000E+03	1.612729E-15	2.734829E-17
5.760000E+03	1.609289E-15	2.738743E-17
5.770000E+03	1.608052E-15	2.742802E-17
5.780000E+03	1.608778E-15	2.744787E-17
5.790000E+03	1.611056E-15	2.744348E-17
5.800000E+03	1.614389E-15	2.742811E-17
5.810000E+03	1.618235E-15	2.739027E-17
5.820000E+03	1.622063E-15	2.733784E-17
5.830000E+03	1.625334E-15	2.729726E-17
5.840000E+03	1.627578E-15	2.727177E-17
5.850000E+03	1.628488E-15	2.728147E-17
5.860000E+03	1.627919E-15	2.734384E-17
5.870000E+03	1.625937E-15	2.741613E-17
5.880000E+03	1.622745E-15	2.745238E-17
5.890000E+03	1.618631E-15	2.743022E-17
5.900000E+03	1.613842E-15	2.731743E-17
5.910000E+03	1.608541E-15	2.711051E-17
5.920000E+03	1.602853E-15	2.683560E-17
5.930000E+03	1.596799E-15	2.650899E-17
5.940000E+03	1.590400E-15	2.617065E-17
5.950000E+03	1.583645E-15	2.585878E-17
5.960000E+03	1.576569E-15	2.555910E-17
5.970000E+03	1.569192E-15	2.526267E-17
5.980000E+03	1.561503E-15	2.497523E-17
5.990000E+03	1.553484E-15	2.467648E-17
6.000000E+03	1.545074E-15	2.436987E-17
6.010000E+03	1.536261E-15	2.407477E-17
6.020000E+03	1.527068E-15	2.377385E-17
6.030000E+03	1.517584E-15	2.346948E-17
6.040000E+03	1.507936E-15	2.317973E-17
6.050000E+03	1.498268E-15	2.288587E-17
6.060000E+03	1.488725E-15	2.259111E-17
6.070000E+03	1.479374E-15	2.231678E-17
6.080000E+03	1.470235E-15	2.204772E-17
6.090000E+03	1.461386E-15	2.179150E-17
6.100000E+03	1.452890E-15	2.156791E-17
6.110000E+03	1.444942E-15	2.134882E-17
6.120000E+03	1.437822E-15	2.111786E-17
6.130000E+03	1.431837E-15	2.086577E-17
6.140000E+03	1.427186E-15	2.052507E-17
6.150000E+03	1.423827E-15	2.003038E-17
6.160000E+03	1.421192E-15	1.933888E-17
6.170000E+03	1.418285E-15	1.844773E-17
6.180000E+03	1.413715E-15	1.758881E-17
6.190000E+03	1.406067E-15	1.730870E-17
6.200000E+03	1.394957E-15	1.775201E-17
6.210000E+03	1.381709E-15	1.838137E-17
6.220000E+03	1.367973E-15	1.890142E-17
6.230000E+03	1.354996E-15	1.924482E-17
6.240000E+03	1.343553E-15	1.948782E-17
6.250000E+03	1.333789E-15	1.972743E-17
6.260000E+03	1.325494E-15	1.996177E-17
6.270000E+03	1.318233E-15	2.014926E-17
6.280000E+03	1.311467E-15	2.025177E-17
6.290000E+03	1.304794E-15	2.021174E-17
6.300000E+03	1.297927E-15	2.000850E-17
6.310000E+03	1.290670E-15	1.967812E-17
6.320000E+03	1.282898E-15	1.927977E-17
6.330000E+03	1.274531E-15	1.891118E-17
6.340000E+03	1.265454E-15	1.864432E-17
6.350000E+03	1.255600E-15	1.845157E-17
6.360000E+03	1.244918E-15	1.829032E-17
6.370000E+03	1.233486E-15	1.814559E-17
6.380000E+03	1.221600E-15	1.799594E-17
6.390000E+03	1.209702E-15	1.785709E-17
6.400000E+03	1.198260E-15	1.776178E-17
6.410000E+03	1.187821E-15	1.769941E-17
6.420000E+03	1.178741E-15	1.766787E-17
6.430000E+03	1.171316E-15	1.768578E-17
6.440000E+03	1.165593E-15	1.774176E-17
6.450000E+03	1.161535E-15	1.783482E-17
6.460000E+03	1.158892E-15	1.796157E-17
6.470000E+03	1.157426E-15	1.806041E-17
6.480000E+03	1.156761E-15	1.804921E-17
6.490000E+03	1.156439E-15	1.785079E-17
6.500000E+03	1.156001E-15	1.739545E-17
6.510000E+03	1.154983E-15	1.673310E-17
6.520000E+03	1.153054E-15	1.615664E-17
6.530000E+03	1.150239E-15	1.619521E-17
6.540000E+03	1.146660E-15	1.698869E-17
6.550000E+03	1.142580E-15	1.803789E-17
6.560000E+03	1.138376E-15	1.898982E-17
6.570000E+03	1.134368E-15	1.973166E-17
6.580000E+03	1.130809E-15	2.028865E-17
6.590000E+03	1.127759E-15	2.071224E-17
6.600000E+03	1.125082E-15	2.105800E-17
6.610000E+03	1.122463E-15	2.136916E-17
6.620000E+03	1.119545E-15	2.165106E-17
6.630000E+03	1.115925E-15	2.189612E-17
6.640000E+03	1.111295E-15	2.209858E-17
6.650000E+03	1.105432E-15	2.224142E-17
6.660000E+03	1.098303E-15	2.231955E-17
6.670000E+03	1.090054E-15	2.234382E-17
6.680000E+03	1.080979E-15	2.232358E-17
6.690000E+03	1.071474E-15	2.227867E-17
6.700000E+03	1.061887E-15	2.223287E-17
6.710000E+03	1.052577E-15	2.219623E-17
6.720000E+03	1.043787E-15	2.217720E-17
6.730000E+03	1.035653E-15	2.218460E-17
6.740000E+03	1.028224E-15	2.221387E-17
6.750000E+03	1.021461E-15	2.226076E-17
6.760000E+03	1.015299E-15	2.232479E-17
6.770000E+03	1.009709E-15	2.239826E-17
6.780000E+03	1.004563E-15	2.247620E-17
6.790000E+03	9.998144E-16	2.256226E-17
6.800000E+03	9.953555E-16	2.265390E-17
6.810000E+03	9.910800E-16	2.275286E-17
6.820000E+03	9.868822E-16	2.286283E-17
6.830000E+03	9.825955E-16	2.297480E-17
6.840000E+03	9.781111E-16	2.307966E-17
6.850000E+03	9.733411E-16	2.316961E-17
6.860000E+03	9.681855E-16	2.322909E-17
6.870000E+03	9.626465E-16	2.324848E-17
6.880000E+03	9.567401E-16	2.322527E-17
6.890000E+03	9.505711E-16	2.315894E-17
6.900000E+03	9.442721E-16	2.305785E-17
6.910000E+03	9.379723E-16	2.293816E-17
6.920000E+03	9.319036E-16	2.281645E-17
6.930000E+03	9.261715E-16	2.270806E-17
6.940000E+03	9.209206E-16	2.262700E-17
6.950000E+03	9.161768E-16	2.257242E-17
6.960000E+03	9.118940E-16	2.253880E-17
6.970000E+03	9.080166E-16	2.252116E-17
6.980000E+03	9.044001E-16	2.250850E-17
6.990000E+03	9.008943E-16	2.249427E-17
7.000000E+03	8.974102E-16	2.247821E-17
7.010000E+03	8.938885E-16	2.245781E-17
7.020000E+03	8.902958E-16	2.243394E-17
7.030000E+03	8.866503E-16	2.241043E-17
7.040000E+03	8.830089E-16	2.238603E-17
7.050000E+03	8.793901E-16	2.235923E-17
7.060000E+03	8.758126E-16	2.233053E-17
7.070000E+03	8.722749E-16	2.229640E-17
7.080000E+03	8.687490E-16	2.225573E-17
7.090000E+03	8.651821E-16	2.220996E-17
7.100000E+03	8.614911E-16	2.215666E-17
7.110000E+03	8.576174E-16	2.209682E-17
7.120000E+03	8.534830E-16	2.203314E-17
7.130000E+03	8.490076E-16	2.196353E-17
7.140000E+03	8.441579E-16	2.188767E-17
7.150000E+03	8.389622E-16	2.180719E-17
7.160000E+03	8.334724E-16	2.171896E-17
7.170000E+03	8.277921E-16	2.162246E-17
7.180000E+03	8.220928E-16	2.152108E-17
7.190000E+03	8.165383E-16	2.141491E-17
7.200000E+03	8.112722E-16	2.130588E-17
7.210000E+03	8.063643E-16	2.119573E-17
7.220000E+03	8.018996E-16	2.108246E-17
7.230000E+03	7.978769E-16	2.096397E-17
7.240000E+03	7.942256E-16	2.083994E-17
7.250000E+03	7.909136E-16	2.071007E-17
7.260000E+03	7.878778E-16	2.057731E-17
7.270000E+03	7.851169E-16	2.044892E-17
7.280000E+03	7.825690E-16	2.032681E-17
7.290000E+03	7.802709E-16	2.021612E-17
7.300000E+03	7.781998E-16	2.012047E-17
7.310000E+03	7.763931E-16	2.003939E-17
7.320000E+03	7.748017E-16	1.996996E-17
7.330000E+03	7.733968E-16	1.990935E-17
7.340000E+03	7.720903E-16	1.984808E-17
7.350000E+03	7.707903E-16	1.977858E-17
7.360000E+03	7.693979E-16	1.969646E-17
7.370000E+03	7.678261E-16	1.959626E-17
7.380000E+03	7.660262E-16	1.947778E-17
7.390000E+03	7.639240E-16	1.934371E-17
7.400000E+03	7.615029E-16	1.919521E-17
7.410000E+03	7.588028E-16	1.903690E-17
7.420000E+03	7.558193E-16	1.887331E-17
7.430000E+03	7.526341E-16	1.870618E-17
7.440000E+03	7.492798E-16	1.853751E-17
7.450000E+03	7.458517E-16	1.837249E-17
7.460000E+03	7.424508E-16	1.821202E-17
7.470000E+03	7.391223E-16	1.805686E-17
7.480000E+03	7.359594E-16	1.790909E-17
7.490000E+03	7.329478E-16	1.776225E-17
7.500000E+03	7.301458E-16	1.761371E-17
7.510000E+03	7.275081E-16	1.746229E-17
7.520000E+03	7.250272E-16	1.730729E-17
7.530000E+03	7.226875E-16	1.715495E-17
7.540000E+03	7.204183E-16	1.701611E-17
7.550000E+03	7.181951E-16	1.689992E-17
7.560000E+03	7.159917E-16	1.681639E-17
7.570000E+03	7.137659E-16	1.677071E-17
7.580000E+03	7.114814E-16	1.675274E-17
7.590000E+03	7.091161E-16	1.674465E-17
7.600000E+03	7.066722E-16	1.672375E-17
7.610000E+03	7.041976E-16	1.665947E-17
7.620000E+03	7.017421E-16	1.652552E-17
7.630000E+03	6.993566E-16	1.630858E-17
7.640000E+03	6.970610E-16	1.600624E-17
7.650000E+03	6.949195E-16	1.563356E-17
7.660000E+03	6.928805E-16	1.521449E-17
7.670000E+03	6.908961E-16	1.477458E-17
7.680000E+03	6.889353E-16	1.434321E-17
7.690000E+03	6.868988E-16	1.394164E-17
7.700000E+03	6.847669E-16	1.357475E-17
7.710000E+03	6.824801E-16	1.324318E-17
7.720000E+03	6.800110E-16	1.294668E-17
7.730000E+03	6.773662E-16	1.267644E-17
7.740000E+03	6.745456E-16	1.242952E-17
7.750000E+03	6.715469E-16	1.220611E-17
7.760000E+03	6.684416E-16	1.199727E-17
