#wls	flux	fluxerr
1.600000E+03	1.607248E-16	1.043869E-16
1.640000E+03	1.612320E-16	1.000895E-16
1.680000E+03	1.616167E-16	9.539585E-17
1.720000E+03	1.619139E-16	9.035433E-17
1.760000E+03	1.621424E-16	8.501605E-17
1.800000E+03	1.623336E-16	7.945670E-17
1.840000E+03	1.624902E-16	7.376242E-17
1.880000E+03	1.626283E-16	6.806112E-17
1.920000E+03	1.626650E-16	6.248613E-17
1.960000E+03	1.625713E-16	5.725076E-17
2.000000E+03	1.622625E-16	5.259092E-17
2.040000E+03	1.616332E-16	4.873339E-17
2.080000E+03	1.607041E-16	4.584456E-17
2.120000E+03	1.596122E-16	4.393038E-17
2.160000E+03	1.586470E-16	4.285823E-17
2.200000E+03	1.582193E-16	4.247459E-17
2.240000E+03	1.587168E-16	4.267785E-17
2.280000E+03	1.604536E-16	4.340218E-17
2.320000E+03	1.636023E-16	4.452623E-17
2.360000E+03	1.681509E-16	4.581924E-17
2.400000E+03	1.739317E-16	4.697747E-17
2.440000E+03	1.806809E-16	4.771730E-17
2.480000E+03	1.880143E-16	4.787368E-17
2.520000E+03	1.954546E-16	4.753515E-17
2.560000E+03	2.025052E-16	4.717173E-17
2.600000E+03	2.086796E-16	4.758503E-17
2.640000E+03	2.136151E-16	4.952309E-17
2.680000E+03	2.171592E-16	5.312809E-17
2.720000E+03	2.193964E-16	5.784852E-17
2.760000E+03	2.206044E-16	6.287529E-17
2.800000E+03	2.211805E-16	6.754003E-17
2.840000E+03	2.215951E-16	7.144579E-17
2.880000E+03	2.223147E-16	7.442177E-17
2.920000E+03	2.237817E-16	7.644556E-17
2.960000E+03	2.264685E-16	7.759316E-17
3.000000E+03	2.308659E-16	7.797864E-17
3.010000E+03	2.323064E-16	7.797395E-17
3.020000E+03	2.338856E-16	7.792701E-17
3.030000E+03	2.356358E-16	7.784693E-17
3.040000E+03	2.375433E-16	7.772720E-17
3.050000E+03	2.396412E-16	7.757640E-17
3.060000E+03	2.419397E-16	7.739516E-17
3.070000E+03	2.444385E-16	7.718031E-17
3.080000E+03	2.471493E-16	7.693216E-17
3.090000E+03	2.500954E-16	7.665417E-17
3.100000E+03	2.532896E-16	7.634578E-17
3.110000E+03	2.567341E-16	7.600277E-17
3.120000E+03	2.604539E-16	7.562719E-17
3.130000E+03	2.644633E-16	7.521718E-17
3.140000E+03	2.687661E-16	7.476727E-17
3.150000E+03	2.733887E-16	7.427772E-17
3.160000E+03	2.783466E-16	7.374499E-17
3.170000E+03	2.836445E-16	7.316198E-17
3.180000E+03	2.893093E-16	7.252688E-17
3.190000E+03	2.953568E-16	7.183416E-17
3.200000E+03	3.017911E-16	7.107496E-17
3.210000E+03	3.086501E-16	7.024793E-17
3.220000E+03	3.159252E-16	6.934041E-17
3.230000E+03	3.236296E-16	6.834475E-17
3.240000E+03	3.317987E-16	6.725781E-17
3.250000E+03	3.404197E-16	6.606637E-17
3.260000E+03	3.495131E-16	6.476463E-17
3.270000E+03	3.590734E-16	6.334255E-17
3.280000E+03	3.691165E-16	6.179526E-17
3.290000E+03	3.796311E-16	6.011478E-17
3.300000E+03	3.906275E-16	5.829888E-17
3.310000E+03	4.020999E-16	5.634531E-17
3.320000E+03	4.140255E-16	5.425273E-17
3.330000E+03	4.263891E-16	5.202471E-17
3.340000E+03	4.391834E-16	4.966935E-17
3.350000E+03	4.523809E-16	4.719532E-17
3.360000E+03	4.659314E-16	4.461110E-17
3.370000E+03	4.797856E-16	4.192623E-17
3.380000E+03	4.938932E-16	3.914982E-17
3.390000E+03	5.081577E-16	3.628764E-17
3.400000E+03	5.224740E-16	3.334873E-17
3.410000E+03	5.367261E-16	3.035077E-17
3.420000E+03	5.507385E-16	2.732753E-17
3.430000E+03	5.643164E-16	2.434858E-17
3.440000E+03	5.772456E-16	2.154379E-17
3.450000E+03	5.892540E-16	1.912979E-17
3.460000E+03	6.000915E-16	1.741341E-17
3.470000E+03	6.095083E-16	1.669425E-17
3.480000E+03	6.173531E-16	1.706095E-17
3.490000E+03	6.236104E-16	1.828318E-17
3.500000E+03	6.283559E-16	1.996259E-17
3.510000E+03	6.317862E-16	2.174257E-17
3.520000E+03	6.341200E-16	2.338625E-17
3.530000E+03	6.356274E-16	2.476697E-17
3.540000E+03	6.365641E-16	2.583426E-17
3.550000E+03	6.371599E-16	2.658638E-17
3.560000E+03	6.376568E-16	2.705326E-17
3.570000E+03	6.382653E-16	2.728253E-17
3.580000E+03	6.391691E-16	2.733114E-17
3.590000E+03	6.405722E-16	2.726104E-17
3.600000E+03	6.426632E-16	2.713258E-17
3.610000E+03	6.456082E-16	2.699957E-17
3.620000E+03	6.496379E-16	2.690918E-17
3.630000E+03	6.549592E-16	2.689633E-17
3.640000E+03	6.618140E-16	2.698520E-17
3.650000E+03	6.704556E-16	2.718917E-17
3.660000E+03	6.811865E-16	2.751623E-17
3.670000E+03	6.942960E-16	2.797036E-17
3.680000E+03	7.100742E-16	2.855347E-17
3.690000E+03	7.287504E-16	2.926184E-17
3.700000E+03	7.504247E-16	3.008022E-17
3.710000E+03	7.749803E-16	3.097605E-17
3.720000E+03	8.020407E-16	3.190091E-17
3.730000E+03	8.308994E-16	3.279442E-17
3.740000E+03	8.604920E-16	3.359106E-17
3.750000E+03	8.894070E-16	3.422829E-17
3.760000E+03	9.160235E-16	3.465793E-17
3.770000E+03	9.385919E-16	3.485272E-17
3.780000E+03	9.555368E-16	3.481763E-17
3.790000E+03	9.656402E-16	3.458904E-17
3.800000E+03	9.682691E-16	3.422757E-17
3.810000E+03	9.635638E-16	3.380343E-17
3.820000E+03	9.524771E-16	3.337548E-17
3.830000E+03	9.366822E-16	3.298018E-17
3.840000E+03	9.184143E-16	3.264096E-17
3.850000E+03	9.001501E-16	3.237992E-17
3.860000E+03	8.843894E-16	3.222578E-17
3.870000E+03	8.734720E-16	3.221508E-17
3.880000E+03	8.693876E-16	3.238536E-17
3.890000E+03	8.736738E-16	3.276641E-17
3.900000E+03	8.874090E-16	3.337518E-17
3.910000E+03	9.110666E-16	3.420712E-17
3.920000E+03	9.443982E-16	3.523168E-17
3.930000E+03	9.863502E-16	3.639490E-17
3.940000E+03	1.034964E-15	3.762511E-17
3.950000E+03	1.087369E-15	3.884158E-17
3.960000E+03	1.139944E-15	3.996359E-17
3.970000E+03	1.188780E-15	4.092017E-17
3.980000E+03	1.230291E-15	4.165898E-17
3.990000E+03	1.261990E-15	4.216139E-17
4.000000E+03	1.282957E-15	4.244553E-17
4.010000E+03	1.294219E-15	4.256828E-17
4.020000E+03	1.298300E-15	4.260629E-17
4.030000E+03	1.298664E-15	4.263567E-17
4.040000E+03	1.298905E-15	4.270975E-17
4.050000E+03	1.302084E-15	4.285674E-17
4.060000E+03	1.310358E-15	4.308897E-17
4.070000E+03	1.324600E-15	4.340246E-17
4.080000E+03	1.344575E-15	4.378713E-17
4.090000E+03	1.368915E-15	4.422286E-17
4.100000E+03	1.395529E-15	4.468511E-17
4.110000E+03	1.421875E-15	4.514221E-17
4.120000E+03	1.445378E-15	4.555124E-17
4.130000E+03	1.463832E-15	4.585745E-17
4.140000E+03	1.475475E-15	4.599976E-17
4.150000E+03	1.479096E-15	4.592332E-17
4.160000E+03	1.473897E-15	4.558484E-17
4.170000E+03	1.459429E-15	4.496335E-17
4.180000E+03	1.435599E-15	4.406656E-17
4.190000E+03	1.402717E-15	4.292790E-17
4.200000E+03	1.361635E-15	4.160059E-17
4.210000E+03	1.313978E-15	4.014824E-17
4.220000E+03	1.262104E-15	3.863444E-17
4.230000E+03	1.209100E-15	3.713138E-17
4.240000E+03	1.158509E-15	3.572192E-17
4.250000E+03	1.113959E-15	3.449194E-17
4.260000E+03	1.078698E-15	3.351871E-17
4.270000E+03	1.055219E-15	3.285601E-17
4.280000E+03	1.045011E-15	3.251836E-17
4.290000E+03	1.048552E-15	3.247575E-17
4.300000E+03	1.065206E-15	3.264612E-17
4.310000E+03	1.093197E-15	3.289345E-17
4.320000E+03	1.129713E-15	3.304247E-17
4.330000E+03	1.171181E-15	3.291225E-17
4.340000E+03	1.213698E-15	3.236590E-17
4.350000E+03	1.253547E-15	3.137270E-17
4.360000E+03	1.287788E-15	3.007004E-17
4.370000E+03	1.314681E-15	2.879087E-17
4.380000E+03	1.333682E-15	2.799040E-17
4.390000E+03	1.345091E-15	2.801988E-17
4.400000E+03	1.349624E-15	2.888625E-17
4.410000E+03	1.348003E-15	3.026815E-17
4.420000E+03	1.341067E-15	3.176585E-17
4.430000E+03	1.329720E-15	3.309671E-17
4.440000E+03	1.315095E-15	3.414075E-17
4.450000E+03	1.298429E-15	3.488769E-17
4.460000E+03	1.281062E-15	3.537829E-17
4.470000E+03	1.264397E-15	3.567412E-17
4.480000E+03	1.249841E-15	3.584183E-17
4.490000E+03	1.238747E-15	3.594342E-17
4.500000E+03	1.232366E-15	3.603807E-17
4.510000E+03	1.231649E-15	3.618064E-17
4.520000E+03	1.237191E-15	3.641917E-17
4.530000E+03	1.249102E-15	3.678904E-17
4.540000E+03	1.266895E-15	3.730279E-17
4.550000E+03	1.289519E-15	3.794563E-17
4.560000E+03	1.315371E-15	3.868089E-17
4.570000E+03	1.342536E-15	3.946173E-17
4.580000E+03	1.369001E-15	4.023685E-17
4.590000E+03	1.392909E-15	4.095811E-17
4.600000E+03	1.412771E-15	4.158111E-17
4.610000E+03	1.427689E-15	4.206596E-17
4.620000E+03	1.437299E-15	4.238532E-17
4.630000E+03	1.441627E-15	4.253229E-17
4.640000E+03	1.440981E-15	4.252112E-17
4.650000E+03	1.435647E-15	4.237741E-17
4.660000E+03	1.425758E-15	4.212344E-17
4.670000E+03	1.411230E-15	4.176515E-17
4.680000E+03	1.391702E-15	4.129059E-17
4.690000E+03	1.366774E-15	4.067789E-17
4.700000E+03	1.336109E-15	3.989864E-17
4.710000E+03	1.299782E-15	3.893820E-17
4.720000E+03	1.258583E-15	3.781301E-17
4.730000E+03	1.214119E-15	3.657333E-17
4.740000E+03	1.168910E-15	3.530275E-17
4.750000E+03	1.126235E-15	3.410590E-17
4.760000E+03	1.089762E-15	3.309232E-17
4.770000E+03	1.063143E-15	3.237049E-17
4.780000E+03	1.049587E-15	3.204056E-17
4.790000E+03	1.051528E-15	3.218369E-17
4.800000E+03	1.070477E-15	3.285505E-17
4.810000E+03	1.106728E-15	3.406710E-17
4.820000E+03	1.159073E-15	3.577218E-17
4.830000E+03	1.224730E-15	3.786107E-17
4.840000E+03	1.299451E-15	4.017235E-17
4.850000E+03	1.377810E-15	4.250925E-17
4.860000E+03	1.453781E-15	4.466973E-17
4.870000E+03	1.521541E-15	4.648148E-17
4.880000E+03	1.576209E-15	4.782683E-17
4.890000E+03	1.614571E-15	4.865939E-17
4.900000E+03	1.635337E-15	4.899412E-17
4.910000E+03	1.639013E-15	4.888580E-17
4.920000E+03	1.627700E-15	4.841817E-17
4.930000E+03	1.604519E-15	4.768349E-17
4.940000E+03	1.573109E-15	4.676863E-17
4.950000E+03	1.537150E-15	4.575687E-17
4.960000E+03	1.499866E-15	4.472545E-17
4.970000E+03	1.463876E-15	4.374184E-17
4.980000E+03	1.430901E-15	4.285345E-17
4.990000E+03	1.401833E-15	4.208213E-17
5.000000E+03	1.376722E-15	4.141660E-17
5.010000E+03	1.354905E-15	4.082220E-17
5.020000E+03	1.335328E-15	4.025779E-17
5.030000E+03	1.316667E-15	3.968187E-17
5.040000E+03	1.297645E-15	3.906421E-17
5.050000E+03	1.277294E-15	3.839051E-17
5.060000E+03	1.255107E-15	3.766085E-17
5.070000E+03	1.231217E-15	3.689329E-17
5.080000E+03	1.206386E-15	3.611927E-17
5.090000E+03	1.181920E-15	3.537771E-17
5.100000E+03	1.159392E-15	3.471242E-17
5.110000E+03	1.140354E-15	3.416686E-17
5.120000E+03	1.126081E-15	3.377546E-17
5.130000E+03	1.117376E-15	3.355785E-17
5.140000E+03	1.114472E-15	3.351296E-17
5.150000E+03	1.116977E-15	3.361422E-17
5.160000E+03	1.124011E-15	3.381970E-17
5.170000E+03	1.134347E-15	3.408390E-17
5.180000E+03	1.146563E-15	3.436504E-17
5.190000E+03	1.159279E-15	3.463197E-17
5.200000E+03	1.171258E-15	3.486110E-17
5.210000E+03	1.181578E-15	3.503546E-17
5.220000E+03	1.189693E-15	3.514857E-17
5.230000E+03	1.195409E-15	3.520542E-17
5.240000E+03	1.198806E-15	3.521827E-17
5.250000E+03	1.200193E-15	3.520491E-17
5.260000E+03	1.199968E-15	3.517853E-17
5.270000E+03	1.198523E-15	3.513911E-17
5.280000E+03	1.196240E-15	3.507921E-17
5.290000E+03	1.193360E-15	3.498704E-17
5.300000E+03	1.190055E-15	3.485173E-17
5.310000E+03	1.186378E-15	3.466740E-17
5.320000E+03	1.182333E-15	3.443719E-17
5.330000E+03	1.177845E-15	3.416901E-17
5.340000E+03	1.172792E-15	3.387334E-17
5.350000E+03	1.167070E-15	3.355662E-17
5.360000E+03	1.160569E-15	3.321398E-17
5.370000E+03	1.153238E-15	3.283479E-17
5.380000E+03	1.145003E-15	3.240147E-17
5.390000E+03	1.135865E-15	3.188923E-17
5.400000E+03	1.125824E-15	3.126609E-17
5.410000E+03	1.114945E-15	3.049268E-17
5.420000E+03	1.103374E-15	2.952163E-17
5.430000E+03	1.091333E-15	2.831309E-17
5.440000E+03	1.079180E-15	2.686029E-17
5.450000E+03	1.067378E-15	2.521155E-17
5.460000E+03	1.056496E-15	2.349632E-17
5.470000E+03	1.047149E-15	2.194137E-17
5.480000E+03	1.039898E-15	2.085086E-17
5.490000E+03	1.035108E-15	2.050718E-17
5.500000E+03	1.032804E-15	2.100060E-17
5.510000E+03	1.032640E-15	2.215449E-17
5.520000E+03	1.033964E-15	2.365026E-17
5.530000E+03	1.035911E-15	2.519320E-17
5.540000E+03	1.037646E-15	2.658585E-17
5.550000E+03	1.038369E-15	2.772194E-17
5.560000E+03	1.037514E-15	2.856070E-17
5.570000E+03	1.034762E-15	2.910100E-17
5.580000E+03	1.030055E-15	2.937163E-17
5.590000E+03	1.023592E-15	2.942639E-17
5.600000E+03	1.015759E-15	2.933506E-17
5.610000E+03	1.007025E-15	2.917052E-17
5.620000E+03	9.978755E-16	2.899146E-17
5.630000E+03	9.886771E-16	2.882997E-17
5.640000E+03	9.796918E-16	2.869966E-17
5.650000E+03	9.710057E-16	2.860201E-17
5.660000E+03	9.625663E-16	2.852942E-17
5.670000E+03	9.542080E-16	2.846818E-17
5.680000E+03	9.456967E-16	2.839838E-17
5.690000E+03	9.368099E-16	2.829442E-17
5.700000E+03	9.273908E-16	2.813358E-17
5.710000E+03	9.174000E-16	2.790595E-17
5.720000E+03	9.069739E-16	2.761875E-17
5.730000E+03	8.964358E-16	2.729457E-17
5.740000E+03	8.862417E-16	2.696225E-17
5.750000E+03	8.769772E-16	2.664981E-17
5.760000E+03	8.692576E-16	2.638122E-17
5.770000E+03	8.636224E-16	2.617342E-17
5.780000E+03	8.604783E-16	2.603506E-17
5.790000E+03	8.600055E-16	2.596885E-17
5.800000E+03	8.621489E-16	2.597464E-17
5.810000E+03	8.666011E-16	2.604860E-17
5.820000E+03	8.728677E-16	2.618475E-17
5.830000E+03	8.803384E-16	2.637256E-17
5.840000E+03	8.883674E-16	2.659569E-17
5.850000E+03	8.963310E-16	2.683832E-17
5.860000E+03	9.036994E-16	2.709090E-17
5.870000E+03	9.100635E-16	2.734899E-17
5.880000E+03	9.151388E-16	2.760966E-17
5.890000E+03	9.187790E-16	2.786241E-17
5.900000E+03	9.209526E-16	2.808107E-17
5.910000E+03	9.217215E-16	2.823254E-17
5.920000E+03	9.212081E-16	2.829227E-17
5.930000E+03	9.196023E-16	2.825394E-17
5.940000E+03	9.170987E-16	2.812862E-17
5.950000E+03	9.139412E-16	2.793902E-17
5.960000E+03	9.103618E-16	2.770849E-17
5.970000E+03	9.065924E-16	2.745701E-17
5.980000E+03	9.028370E-16	2.719642E-17
5.990000E+03	8.992574E-16	2.692935E-17
6.000000E+03	8.959684E-16	2.665697E-17
6.010000E+03	8.930207E-16	2.638535E-17
6.020000E+03	8.904698E-16	2.612774E-17
6.030000E+03	8.883240E-16	2.589827E-17
6.040000E+03	8.866375E-16	2.570235E-17
6.050000E+03	8.854799E-16	2.552774E-17
6.060000E+03	8.849646E-16	2.535249E-17
6.070000E+03	8.852278E-16	2.515248E-17
6.080000E+03	8.864137E-16	2.490384E-17
6.090000E+03	8.886596E-16	2.458665E-17
6.100000E+03	8.920673E-16	2.418469E-17
6.110000E+03	8.966921E-16	2.368315E-17
6.120000E+03	9.024877E-16	2.306751E-17
6.130000E+03	9.092620E-16	2.231878E-17
6.140000E+03	9.165930E-16	2.141452E-17
6.150000E+03	9.238704E-16	2.035908E-17
6.160000E+03	9.302856E-16	1.922396E-17
6.170000E+03	9.348865E-16	1.817476E-17
6.180000E+03	9.367620E-16	1.745497E-17
6.190000E+03	9.352716E-16	1.727918E-17
6.200000E+03	9.302292E-16	1.768510E-17
6.210000E+03	9.219448E-16	1.850844E-17
6.220000E+03	9.110607E-16	1.950252E-17
6.230000E+03	8.982869E-16	2.046110E-17
6.240000E+03	8.843071E-16	2.126753E-17
6.250000E+03	8.697011E-16	2.187859E-17
6.260000E+03	8.549504E-16	2.229318E-17
6.270000E+03	8.405562E-16	2.253779E-17
6.280000E+03	8.269757E-16	2.265223E-17
6.290000E+03	8.146802E-16	2.267933E-17
6.300000E+03	8.040480E-16	2.265763E-17
6.310000E+03	7.953124E-16	2.261477E-17
6.320000E+03	7.884842E-16	2.256096E-17
6.330000E+03	7.833094E-16	2.249324E-17
6.340000E+03	7.792959E-16	2.240263E-17
6.350000E+03	7.757188E-16	2.227639E-17
6.360000E+03	7.717401E-16	2.210311E-17
6.370000E+03	7.665789E-16	2.187472E-17
6.380000E+03	7.596588E-16	2.158703E-17
6.390000E+03	7.507873E-16	2.124475E-17
6.400000E+03	7.403192E-16	2.086065E-17
6.410000E+03	7.291955E-16	2.045099E-17
6.420000E+03	7.188745E-16	2.003764E-17
6.430000E+03	7.111342E-16	1.964401E-17
6.440000E+03	7.079313E-16	1.928797E-17
6.450000E+03	7.111036E-16	1.897824E-17
6.460000E+03	7.222157E-16	1.871788E-17
6.470000E+03	7.423931E-16	1.850478E-17
6.480000E+03	7.722931E-16	1.833771E-17
6.490000E+03	8.121012E-16	1.822586E-17
6.500000E+03	8.615290E-16	1.821103E-17
6.510000E+03	9.198594E-16	1.840875E-17
6.520000E+03	9.860092E-16	1.902674E-17
6.530000E+03	1.058322E-15	2.029814E-17
6.540000E+03	1.134230E-15	2.234316E-17
6.550000E+03	1.210188E-15	2.506971E-17
6.560000E+03	1.282109E-15	2.821153E-17
6.570000E+03	1.346007E-15	3.145201E-17
6.580000E+03	1.398677E-15	3.451469E-17
6.590000E+03	1.437971E-15	3.719184E-17
6.600000E+03	1.462946E-15	3.935448E-17
6.610000E+03	1.473638E-15	4.093475E-17
6.620000E+03	1.470892E-15	4.190039E-17
6.630000E+03	1.456161E-15	4.225225E-17
6.640000E+03	1.431294E-15	4.203367E-17
6.650000E+03	1.398359E-15	4.132999E-17
6.660000E+03	1.359596E-15	4.026152E-17
6.670000E+03	1.317103E-15	3.895937E-17
6.680000E+03	1.272786E-15	3.754888E-17
6.690000E+03	1.228136E-15	3.613458E-17
6.700000E+03	1.184270E-15	3.479084E-17
6.710000E+03	1.141894E-15	3.355806E-17
6.720000E+03	1.101362E-15	3.245413E-17
6.730000E+03	1.062912E-15	3.148004E-17
6.740000E+03	1.026675E-15	3.061390E-17
6.750000E+03	9.927748E-16	2.982540E-17
6.760000E+03	9.611921E-16	2.908701E-17
6.770000E+03	9.319084E-16	2.838359E-17
6.780000E+03	9.048069E-16	2.771138E-17
6.790000E+03	8.797762E-16	2.707906E-17
6.800000E+03	8.566738E-16	2.650123E-17
6.810000E+03	8.354369E-16	2.599703E-17
6.820000E+03	8.159872E-16	2.557885E-17
6.830000E+03	7.983162E-16	2.524641E-17
6.840000E+03	7.824057E-16	2.498326E-17
6.850000E+03	7.682547E-16	2.475929E-17
6.860000E+03	7.558245E-16	2.453346E-17
6.870000E+03	7.450302E-16	2.426745E-17
6.880000E+03	7.357478E-16	2.394213E-17
6.890000E+03	7.278511E-16	2.356526E-17
6.900000E+03	7.211541E-16	2.316336E-17
6.910000E+03	7.154712E-16	2.276933E-17
6.920000E+03	7.106083E-16	2.241075E-17
6.930000E+03	7.064081E-16	2.210734E-17
6.940000E+03	7.027253E-16	2.186831E-17
6.950000E+03	6.994205E-16	2.169312E-17
6.960000E+03	6.964349E-16	2.157912E-17
6.970000E+03	6.936652E-16	2.151892E-17
6.980000E+03	6.910710E-16	2.150174E-17
6.990000E+03	6.886320E-16	2.151434E-17
7.000000E+03	6.863158E-16	2.154145E-17
7.010000E+03	6.841416E-16	2.156757E-17
7.020000E+03	6.821247E-16	2.158008E-17
7.030000E+03	6.802632E-16	2.157440E-17
7.040000E+03	6.785595E-16	2.155540E-17
7.050000E+03	6.769722E-16	2.153226E-17
7.060000E+03	6.754615E-16	2.151213E-17
7.070000E+03	6.739391E-16	2.149311E-17
7.080000E+03	6.723513E-16	2.147057E-17
7.090000E+03	6.706106E-16	2.144082E-17
7.100000E+03	6.686391E-16	2.140493E-17
7.110000E+03	6.664128E-16	2.136983E-17
7.120000E+03	6.638960E-16	2.134176E-17
7.130000E+03	6.611252E-16	2.132443E-17
7.140000E+03	6.581531E-16	2.131831E-17
7.150000E+03	6.550846E-16	2.132357E-17
7.160000E+03	6.520187E-16	2.133831E-17
7.170000E+03	6.490711E-16	2.136082E-17
7.180000E+03	6.462993E-16	2.138731E-17
7.190000E+03	6.437650E-16	2.141271E-17
7.200000E+03	6.414581E-16	2.142887E-17
7.210000E+03	6.393501E-16	2.142728E-17
7.220000E+03	6.373960E-16	2.139989E-17
7.230000E+03	6.355489E-16	2.134274E-17
7.240000E+03	6.337716E-16	2.125886E-17
7.250000E+03	6.320324E-16	2.115769E-17
7.260000E+03	6.303357E-16	2.105355E-17
7.270000E+03	6.286823E-16	2.095917E-17
7.280000E+03	6.270616E-16	2.088152E-17
7.290000E+03	6.254781E-16	2.082375E-17
7.300000E+03	6.239035E-16	2.078542E-17
7.310000E+03	6.223219E-16	2.076457E-17
7.320000E+03	6.206917E-16	2.075766E-17
7.330000E+03	6.189863E-16	2.076039E-17
7.340000E+03	6.172004E-16	2.076673E-17
7.350000E+03	6.153186E-16	2.076973E-17
7.360000E+03	6.133455E-16	2.076458E-17
7.370000E+03	6.113016E-16	2.074915E-17
7.380000E+03	6.091849E-16	2.072366E-17
7.390000E+03	6.070109E-16	2.069162E-17
7.400000E+03	6.047687E-16	2.065661E-17
7.410000E+03	6.024598E-16	2.062286E-17
7.420000E+03	6.001060E-16	2.059437E-17
7.430000E+03	5.977336E-16	2.057370E-17
7.440000E+03	5.953826E-16	2.056458E-17
7.450000E+03	5.931018E-16	2.057329E-17
7.460000E+03	5.909407E-16	2.060685E-17
7.470000E+03	5.889407E-16	2.066886E-17
7.480000E+03	5.871263E-16	2.075367E-17
7.490000E+03	5.855005E-16	2.084292E-17
7.500000E+03	5.840439E-16	2.090963E-17
7.510000E+03	5.827054E-16	2.092561E-17
7.520000E+03	5.814474E-16	2.086944E-17
7.530000E+03	5.801692E-16	2.072815E-17
7.540000E+03	5.787718E-16	2.050224E-17
7.550000E+03	5.771597E-16	2.020847E-17
7.560000E+03	5.751712E-16	1.988082E-17
7.570000E+03	5.727108E-16	1.957522E-17
7.580000E+03	5.696477E-16	1.935667E-17
7.590000E+03	5.659281E-16	1.928100E-17
7.600000E+03	5.615544E-16	1.936438E-17
7.610000E+03	5.565930E-16	1.956912E-17
7.620000E+03	5.512046E-16	1.982201E-17
7.630000E+03	5.455417E-16	2.004432E-17
7.640000E+03	5.398108E-16	2.017932E-17
7.650000E+03	5.341819E-16	2.019872E-17
7.660000E+03	5.288235E-16	2.010209E-17
7.670000E+03	5.238890E-16	1.990968E-17
7.680000E+03	5.195251E-16	1.965514E-17
7.690000E+03	5.158396E-16	1.937735E-17
7.700000E+03	5.129396E-16	1.911696E-17
7.710000E+03	5.108941E-16	1.891244E-17
7.720000E+03	5.097260E-16	1.879702E-17
7.730000E+03	5.094477E-16	1.879544E-17
7.740000E+03	5.099863E-16	1.891548E-17
7.750000E+03	5.112668E-16	1.914479E-17
7.760000E+03	5.131336E-16	1.944713E-17
