#wls	flux	fluxerr
1.600000E+03	2.586534E-17	2.133821E-17
1.640000E+03	2.620018E-17	2.139441E-17
1.680000E+03	2.653595E-17	2.144311E-17
1.720000E+03	2.689139E-17	2.150125E-17
1.760000E+03	2.726347E-17	2.156820E-17
1.800000E+03	2.763768E-17	2.163465E-17
1.840000E+03	2.801020E-17	2.170015E-17
1.880000E+03	2.839952E-17	2.178148E-17
1.920000E+03	2.877937E-17	2.186069E-17
1.960000E+03	2.916840E-17	2.195410E-17
2.000000E+03	2.955162E-17	2.205196E-17
2.040000E+03	2.993672E-17	2.216109E-17
2.080000E+03	3.032019E-17	2.227922E-17
2.120000E+03	3.068720E-17	2.239523E-17
2.160000E+03	3.105651E-17	2.252194E-17
2.200000E+03	3.141267E-17	2.264658E-17
2.240000E+03	3.175087E-17	2.276382E-17
2.280000E+03	3.207638E-17	2.287525E-17
2.320000E+03	3.238224E-17	2.297356E-17
2.360000E+03	3.266038E-17	2.305076E-17
2.400000E+03	3.290182E-17	2.309837E-17
2.440000E+03	3.309693E-17	2.310768E-17
2.480000E+03	3.323588E-17	2.306995E-17
2.520000E+03	3.332866E-17	2.299018E-17
2.560000E+03	3.335569E-17	2.285256E-17
2.600000E+03	3.330897E-17	2.264907E-17
2.640000E+03	3.320910E-17	2.239042E-17
2.680000E+03	3.303221E-17	2.205649E-17
2.720000E+03	3.279214E-17	2.165206E-17
2.760000E+03	3.249430E-17	2.117564E-17
2.800000E+03	3.214451E-17	2.062576E-17
2.840000E+03	3.174141E-17	1.999655E-17
2.880000E+03	3.129815E-17	1.929195E-17
2.920000E+03	3.081891E-17	1.851104E-17
2.960000E+03	3.030636E-17	1.765333E-17
3.000000E+03	2.977268E-17	1.672533E-17
3.010000E+03	2.963320E-17	1.648089E-17
3.020000E+03	2.949660E-17	1.623448E-17
3.030000E+03	2.935164E-17	1.597996E-17
3.040000E+03	2.920916E-17	1.572335E-17
3.050000E+03	2.906877E-17	1.546444E-17
3.060000E+03	2.891978E-17	1.519761E-17
3.070000E+03	2.877248E-17	1.492843E-17
3.080000E+03	2.862650E-17	1.465674E-17
3.090000E+03	2.847656E-17	1.437993E-17
3.100000E+03	2.832737E-17	1.410051E-17
3.110000E+03	2.817384E-17	1.381606E-17
3.120000E+03	2.801584E-17	1.352673E-17
3.130000E+03	2.786243E-17	1.323703E-17
3.140000E+03	2.770403E-17	1.294252E-17
3.150000E+03	2.754057E-17	1.264341E-17
3.160000E+03	2.738061E-17	1.234385E-17
3.170000E+03	2.721511E-17	1.203990E-17
3.180000E+03	2.705236E-17	1.173549E-17
3.190000E+03	2.688366E-17	1.142705E-17
3.200000E+03	2.671302E-17	1.111659E-17
3.210000E+03	2.654412E-17	1.080589E-17
3.220000E+03	2.636884E-17	1.049192E-17
3.230000E+03	2.619477E-17	1.017806E-17
3.240000E+03	2.601416E-17	9.861613E-18
3.250000E+03	2.583798E-17	9.547122E-18
3.260000E+03	2.565510E-17	9.230773E-18
3.270000E+03	2.547265E-17	8.915607E-18
3.280000E+03	2.528706E-17	8.600768E-18
3.290000E+03	2.510173E-17	8.287878E-18
3.300000E+03	2.491658E-17	7.977339E-18
3.310000E+03	2.472846E-17	7.668632E-18
3.320000E+03	2.454073E-17	7.363369E-18
3.330000E+03	2.435356E-17	7.062127E-18
3.340000E+03	2.416717E-17	6.765547E-18
3.350000E+03	2.398191E-17	6.474326E-18
3.360000E+03	2.379821E-17	6.189226E-18
3.370000E+03	2.361659E-17	5.911063E-18
3.380000E+03	2.344043E-17	5.641359E-18
3.390000E+03	2.326765E-17	5.380297E-18
3.400000E+03	2.309917E-17	5.128832E-18
3.410000E+03	2.293851E-17	4.888462E-18
3.420000E+03	2.278660E-17	4.660029E-18
3.430000E+03	2.264448E-17	4.444327E-18
3.440000E+03	2.251091E-17	4.241617E-18
3.450000E+03	2.239185E-17	4.053390E-18
3.460000E+03	2.228621E-17	3.879577E-18
3.470000E+03	2.219539E-17	3.720380E-18
3.480000E+03	2.212098E-17	3.575780E-18
3.490000E+03	2.206679E-17	3.445869E-18
3.500000E+03	2.203460E-17	3.330151E-18
3.510000E+03	2.202432E-17	3.227673E-18
3.520000E+03	2.204226E-17	3.138278E-18
3.530000E+03	2.208676E-17	3.060545E-18
3.540000E+03	2.216440E-17	2.994186E-18
3.550000E+03	2.227602E-17	2.938100E-18
3.560000E+03	2.242649E-17	2.891790E-18
3.570000E+03	2.261893E-17	2.854588E-18
3.580000E+03	2.285466E-17	2.825720E-18
3.590000E+03	2.313891E-17	2.805023E-18
3.600000E+03	2.347691E-17	2.792456E-18
3.610000E+03	2.386847E-17	2.787469E-18
3.620000E+03	2.432271E-17	2.790754E-18
3.630000E+03	2.483786E-17	2.801855E-18
3.640000E+03	2.542335E-17	2.821713E-18
3.650000E+03	2.608143E-17	2.850525E-18
3.660000E+03	2.681451E-17	2.888568E-18
3.670000E+03	2.763083E-17	2.936760E-18
3.680000E+03	2.853323E-17	2.995410E-18
3.690000E+03	2.952854E-17	3.065209E-18
3.700000E+03	3.062181E-17	3.146607E-18
3.710000E+03	3.181599E-17	3.239795E-18
3.720000E+03	3.311767E-17	3.345304E-18
3.730000E+03	3.453302E-17	3.463599E-18
3.740000E+03	3.606319E-17	3.594646E-18
3.750000E+03	3.771037E-17	3.738542E-18
3.760000E+03	3.947807E-17	3.895551E-18
3.770000E+03	4.136691E-17	4.065686E-18
3.780000E+03	4.337714E-17	4.248948E-18
3.790000E+03	4.550903E-17	4.445343E-18
3.800000E+03	4.776595E-17	4.655150E-18
3.810000E+03	5.014745E-17	4.878234E-18
3.820000E+03	5.265687E-17	5.114792E-18
3.830000E+03	5.530224E-17	5.365429E-18
3.840000E+03	5.809146E-17	5.630696E-18
3.850000E+03	6.103821E-17	5.911664E-18
3.860000E+03	6.415093E-17	6.208842E-18
3.870000E+03	6.745307E-17	6.524144E-18
3.880000E+03	7.096263E-17	6.858906E-18
3.890000E+03	7.470650E-17	7.215266E-18
3.900000E+03	7.871017E-17	7.595190E-18
3.910000E+03	8.299546E-17	8.000269E-18
3.920000E+03	8.759212E-17	8.432857E-18
3.930000E+03	9.251151E-17	8.893556E-18
3.940000E+03	9.777247E-17	9.383734E-18
3.950000E+03	1.033744E-16	9.902937E-18
3.960000E+03	1.093146E-16	1.045059E-17
3.970000E+03	1.155732E-16	1.102451E-17
3.980000E+03	1.221254E-16	1.162210E-17
3.990000E+03	1.289437E-16	1.224056E-17
4.000000E+03	1.359920E-16	1.287624E-17
4.010000E+03	1.432316E-16	1.352526E-17
4.020000E+03	1.506187E-16	1.418315E-17
4.030000E+03	1.581195E-16	1.484644E-17
4.040000E+03	1.656970E-16	1.551124E-17
4.050000E+03	1.733149E-16	1.617376E-17
4.060000E+03	1.809307E-16	1.682958E-17
4.070000E+03	1.885097E-16	1.747511E-17
4.080000E+03	1.960081E-16	1.810595E-17
4.090000E+03	2.033760E-16	1.871734E-17
4.100000E+03	2.105464E-16	1.930309E-17
4.110000E+03	2.174774E-16	1.985954E-17
4.120000E+03	2.240912E-16	2.037995E-17
4.130000E+03	2.303431E-16	2.086072E-17
4.140000E+03	2.361727E-16	2.129690E-17
4.150000E+03	2.415504E-16	2.168633E-17
4.160000E+03	2.464567E-16	2.202766E-17
4.170000E+03	2.508848E-16	2.232049E-17
4.180000E+03	2.548534E-16	2.256652E-17
4.190000E+03	2.584010E-16	2.276890E-17
4.200000E+03	2.615786E-16	2.293160E-17
4.210000E+03	2.644664E-16	2.306093E-17
4.220000E+03	2.671421E-16	2.316262E-17
4.230000E+03	2.697076E-16	2.324437E-17
4.240000E+03	2.722800E-16	2.331499E-17
4.250000E+03	2.749589E-16	2.338169E-17
4.260000E+03	2.778744E-16	2.345425E-17
4.270000E+03	2.811352E-16	2.354075E-17
4.280000E+03	2.848348E-16	2.364821E-17
4.290000E+03	2.890675E-16	2.378416E-17
4.300000E+03	2.938881E-16	2.395346E-17
4.310000E+03	2.993393E-16	2.416087E-17
4.320000E+03	3.054153E-16	2.440831E-17
4.330000E+03	3.120887E-16	2.469730E-17
4.340000E+03	3.193010E-16	2.502822E-17
4.350000E+03	3.269504E-16	2.539934E-17
4.360000E+03	3.349397E-16	2.581016E-17
4.370000E+03	3.431455E-16	2.625833E-17
4.380000E+03	3.514614E-16	2.674223E-17
4.390000E+03	3.597657E-16	2.725756E-17
4.400000E+03	3.679687E-16	2.780028E-17
4.410000E+03	3.759943E-16	2.836469E-17
4.420000E+03	3.837819E-16	2.894368E-17
4.430000E+03	3.913049E-16	2.953041E-17
4.440000E+03	3.985524E-16	3.011760E-17
4.450000E+03	4.055266E-16	3.069816E-17
4.460000E+03	4.122593E-16	3.126702E-17
4.470000E+03	4.187835E-16	3.181976E-17
4.480000E+03	4.251489E-16	3.235412E-17
4.490000E+03	4.314174E-16	3.286991E-17
4.500000E+03	4.376525E-16	3.336838E-17
4.510000E+03	4.439017E-16	3.385076E-17
4.520000E+03	4.502216E-16	3.432007E-17
4.530000E+03	4.566402E-16	3.477808E-17
4.540000E+03	4.631685E-16	3.522607E-17
4.550000E+03	4.697824E-16	3.566316E-17
4.560000E+03	4.764435E-16	3.608781E-17
4.570000E+03	4.830477E-16	3.649382E-17
4.580000E+03	4.894893E-16	3.687503E-17
4.590000E+03	4.956167E-16	3.722200E-17
4.600000E+03	5.012611E-16	3.752412E-17
4.610000E+03	5.062668E-16	3.777181E-17
4.620000E+03	5.104582E-16	3.795407E-17
4.630000E+03	5.136965E-16	3.806271E-17
4.640000E+03	5.158652E-16	3.809106E-17
4.650000E+03	5.168775E-16	3.803464E-17
4.660000E+03	5.167087E-16	3.789339E-17
4.670000E+03	5.153556E-16	3.766857E-17
4.680000E+03	5.128890E-16	3.736669E-17
4.690000E+03	5.094103E-16	3.699614E-17
4.700000E+03	5.050877E-16	3.656981E-17
4.710000E+03	5.001159E-16	3.610212E-17
4.720000E+03	4.947372E-16	3.561051E-17
4.730000E+03	4.892410E-16	3.511530E-17
4.740000E+03	4.839388E-16	3.463795E-17
4.750000E+03	4.791509E-16	3.420006E-17
4.760000E+03	4.752255E-16	3.382476E-17
4.770000E+03	4.724993E-16	3.353392E-17
4.780000E+03	4.713070E-16	3.334890E-17
4.790000E+03	4.719521E-16	3.328840E-17
4.800000E+03	4.746870E-16	3.336717E-17
4.810000E+03	4.797173E-16	3.359639E-17
4.820000E+03	4.871653E-16	3.398118E-17
4.830000E+03	4.970796E-16	3.452158E-17
4.840000E+03	5.094037E-16	3.521076E-17
4.850000E+03	5.239794E-16	3.603548E-17
4.860000E+03	5.405614E-16	3.697744E-17
4.870000E+03	5.588052E-16	3.801250E-17
4.880000E+03	5.782997E-16	3.911288E-17
4.890000E+03	5.985810E-16	4.024814E-17
4.900000E+03	6.191500E-16	4.138628E-17
4.910000E+03	6.395109E-16	4.249611E-17
4.920000E+03	6.591879E-16	4.354821E-17
4.930000E+03	6.777527E-16	4.451667E-17
4.940000E+03	6.948140E-16	4.537804E-17
4.950000E+03	7.100825E-16	4.611556E-17
4.960000E+03	7.233218E-16	4.671582E-17
4.970000E+03	7.344134E-16	4.717272E-17
4.980000E+03	7.432936E-16	4.748351E-17
4.990000E+03	7.500075E-16	4.765231E-17
5.000000E+03	7.546408E-16	4.768562E-17
5.010000E+03	7.573340E-16	4.759351E-17
5.020000E+03	7.582636E-16	4.738843E-17
5.030000E+03	7.576109E-16	4.708321E-17
5.040000E+03	7.555541E-16	4.669069E-17
5.050000E+03	7.522897E-16	4.622494E-17
5.060000E+03	7.480180E-16	4.570016E-17
5.070000E+03	7.429329E-16	4.512995E-17
5.080000E+03	7.372590E-16	4.452944E-17
5.090000E+03	7.312396E-16	4.391417E-17
5.100000E+03	7.251125E-16	4.329868E-17
5.110000E+03	7.191578E-16	4.269933E-17
5.120000E+03	7.136439E-16	4.213084E-17
5.130000E+03	7.088300E-16	4.160677E-17
5.140000E+03	7.049583E-16	4.113919E-17
5.150000E+03	7.022182E-16	4.073668E-17
5.160000E+03	7.007625E-16	4.040571E-17
5.170000E+03	7.006821E-16	4.014945E-17
5.180000E+03	7.019937E-16	3.996718E-17
5.190000E+03	7.046500E-16	3.985513E-17
5.200000E+03	7.085470E-16	3.980700E-17
5.210000E+03	7.135435E-16	3.981482E-17
5.220000E+03	7.194529E-16	3.986861E-17
5.230000E+03	7.261042E-16	3.995961E-17
5.240000E+03	7.332899E-16	4.007704E-17
5.250000E+03	7.408351E-16	4.021197E-17
5.260000E+03	7.485753E-16	4.035599E-17
5.270000E+03	7.563758E-16	4.050201E-17
5.280000E+03	7.641101E-16	4.064330E-17
5.290000E+03	7.717055E-16	4.077598E-17
5.300000E+03	7.790622E-16	4.089456E-17
5.310000E+03	7.861434E-16	4.099694E-17
5.320000E+03	7.928832E-16	4.107957E-17
5.330000E+03	7.992538E-16	4.114066E-17
5.340000E+03	8.052153E-16	4.117771E-17
5.350000E+03	8.107312E-16	4.118819E-17
5.360000E+03	8.157605E-16	4.116892E-17
5.370000E+03	8.203019E-16	4.111856E-17
5.380000E+03	8.243227E-16	4.103422E-17
5.390000E+03	8.278267E-16	4.091481E-17
5.400000E+03	8.308218E-16	4.075987E-17
5.410000E+03	8.333258E-16	4.057017E-17
5.420000E+03	8.353741E-16	4.034817E-17
5.430000E+03	8.369922E-16	4.009748E-17
5.440000E+03	8.382371E-16	3.982527E-17
5.450000E+03	8.391376E-16	3.953930E-17
5.460000E+03	8.397616E-16	3.925098E-17
5.470000E+03	8.401478E-16	3.897120E-17
5.480000E+03	8.403543E-16	3.871087E-17
5.490000E+03	8.404455E-16	3.847897E-17
5.500000E+03	8.404694E-16	3.828012E-17
5.510000E+03	8.404673E-16	3.811433E-17
5.520000E+03	8.404506E-16	3.797670E-17
5.530000E+03	8.404033E-16	3.785885E-17
5.540000E+03	8.402896E-16	3.775049E-17
5.550000E+03	8.400244E-16	3.763991E-17
5.560000E+03	8.395421E-16	3.751797E-17
5.570000E+03	8.387419E-16	3.737580E-17
5.580000E+03	8.375611E-16	3.720834E-17
5.590000E+03	8.359566E-16	3.701306E-17
5.600000E+03	8.339152E-16	3.678963E-17
5.610000E+03	8.314734E-16	3.654052E-17
5.620000E+03	8.287047E-16	3.627012E-17
5.630000E+03	8.257100E-16	3.598369E-17
5.640000E+03	8.225931E-16	3.568666E-17
5.650000E+03	8.194658E-16	3.538487E-17
5.660000E+03	8.163892E-16	3.508181E-17
5.670000E+03	8.134101E-16	3.478064E-17
5.680000E+03	8.105135E-16	3.448201E-17
5.690000E+03	8.076474E-16	3.418481E-17
5.700000E+03	8.047275E-16	3.388655E-17
5.710000E+03	8.016483E-16	3.358372E-17
5.720000E+03	7.983205E-16	3.327291E-17
5.730000E+03	7.946832E-16	3.295163E-17
5.740000E+03	7.907136E-16	3.261877E-17
5.750000E+03	7.864526E-16	3.227529E-17
5.760000E+03	7.819871E-16	3.192403E-17
5.770000E+03	7.774644E-16	3.157039E-17
5.780000E+03	7.730407E-16	3.121990E-17
5.790000E+03	7.689113E-16	3.087988E-17
5.800000E+03	7.652581E-16	3.055722E-17
5.810000E+03	7.622538E-16	3.025813E-17
5.820000E+03	7.600648E-16	2.998864E-17
5.830000E+03	7.588420E-16	2.975415E-17
5.840000E+03	7.587202E-16	2.955890E-17
5.850000E+03	7.597997E-16	2.940548E-17
5.860000E+03	7.621765E-16	2.929578E-17
5.870000E+03	7.658868E-16	2.922847E-17
5.880000E+03	7.709341E-16	2.920077E-17
5.890000E+03	7.772402E-16	2.920708E-17
5.900000E+03	7.846232E-16	2.923828E-17
5.910000E+03	7.928324E-16	2.928389E-17
5.920000E+03	8.015124E-16	2.933093E-17
5.930000E+03	8.102685E-16	2.936586E-17
5.940000E+03	8.186706E-16	2.937504E-17
5.950000E+03	8.262882E-16	2.934559E-17
5.960000E+03	8.327623E-16	2.926711E-17
5.970000E+03	8.378284E-16	2.913307E-17
5.980000E+03	8.413027E-16	2.894019E-17
5.990000E+03	8.431372E-16	2.868969E-17
6.000000E+03	8.433701E-16	2.838596E-17
6.010000E+03	8.421310E-16	2.803611E-17
6.020000E+03	8.396021E-16	2.764753E-17
6.030000E+03	8.360204E-16	2.722828E-17
6.040000E+03	8.316235E-16	2.678540E-17
6.050000E+03	8.266490E-16	2.632476E-17
6.060000E+03	8.213442E-16	2.585288E-17
6.070000E+03	8.159017E-16	2.537523E-17
6.080000E+03	8.105088E-16	2.489743E-17
6.090000E+03	8.053063E-16	2.442478E-17
6.100000E+03	8.004122E-16	2.396260E-17
6.110000E+03	7.959214E-16	2.351535E-17
6.120000E+03	7.918814E-16	2.308687E-17
6.130000E+03	7.883203E-16	2.268150E-17
6.140000E+03	7.852109E-16	2.230269E-17
6.150000E+03	7.824983E-16	2.195506E-17
6.160000E+03	7.800764E-16	2.164319E-17
6.170000E+03	7.778104E-16	2.137055E-17
6.180000E+03	7.755590E-16	2.113988E-17
6.190000E+03	7.732422E-16	2.095319E-17
6.200000E+03	7.708324E-16	2.080933E-17
6.210000E+03	7.683849E-16	2.070633E-17
6.220000E+03	7.660308E-16	2.064233E-17
6.230000E+03	7.639547E-16	2.061542E-17
6.240000E+03	7.623383E-16	2.062495E-17
6.250000E+03	7.612973E-16	2.067069E-17
6.260000E+03	7.608501E-16	2.075090E-17
6.270000E+03	7.608721E-16	2.086200E-17
6.280000E+03	7.611076E-16	2.099850E-17
6.290000E+03	7.611435E-16	2.115017E-17
6.300000E+03	7.604527E-16	2.130304E-17
6.310000E+03	7.584538E-16	2.143987E-17
6.320000E+03	7.545305E-16	2.153899E-17
6.330000E+03	7.481176E-16	2.157854E-17
6.340000E+03	7.387265E-16	2.153888E-17
6.350000E+03	7.260207E-16	2.140498E-17
6.360000E+03	7.098882E-16	2.116983E-17
6.370000E+03	6.904679E-16	2.083512E-17
6.380000E+03	6.681754E-16	2.041072E-17
6.390000E+03	6.437552E-16	1.991688E-17
6.400000E+03	6.181919E-16	1.938159E-17
6.410000E+03	5.927198E-16	1.884057E-17
6.420000E+03	5.686761E-16	1.833385E-17
6.430000E+03	5.474286E-16	1.790414E-17
6.440000E+03	5.302988E-16	1.759440E-17
6.450000E+03	5.185208E-16	1.744745E-17
6.460000E+03	5.131940E-16	1.750477E-17
6.470000E+03	5.153240E-16	1.780747E-17
6.480000E+03	5.258610E-16	1.839778E-17
6.490000E+03	5.456943E-16	1.931893E-17
6.500000E+03	5.756422E-16	2.061431E-17
6.510000E+03	6.164134E-16	2.232640E-17
6.520000E+03	6.684644E-16	2.449147E-17
6.530000E+03	7.318244E-16	2.713216E-17
6.540000E+03	8.058443E-16	3.024742E-17
6.550000E+03	8.890565E-16	3.380541E-17
6.560000E+03	9.790001E-16	3.773352E-17
6.570000E+03	1.072229E-15	4.191499E-17
6.580000E+03	1.164582E-15	4.619509E-17
6.590000E+03	1.251556E-15	5.039116E-17
6.600000E+03	1.328756E-15	5.430906E-17
6.610000E+03	1.392499E-15	5.776812E-17
6.620000E+03	1.440165E-15	6.061907E-17
6.630000E+03	1.470438E-15	6.276137E-17
6.640000E+03	1.483303E-15	6.415130E-17
6.650000E+03	1.479907E-15	6.480256E-17
6.660000E+03	1.462271E-15	6.477824E-17
6.670000E+03	1.432866E-15	6.417343E-17
6.680000E+03	1.394414E-15	6.310395E-17
6.690000E+03	1.349474E-15	6.168522E-17
6.700000E+03	1.300399E-15	6.002674E-17
6.710000E+03	1.249099E-15	5.821862E-17
6.720000E+03	1.197125E-15	5.633459E-17
6.730000E+03	1.145679E-15	5.443214E-17
6.740000E+03	1.095618E-15	5.255274E-17
6.750000E+03	1.047567E-15	5.072737E-17
6.760000E+03	1.001971E-15	4.897930E-17
6.770000E+03	9.590910E-16	4.732340E-17
6.780000E+03	9.191188E-16	4.577202E-17
6.790000E+03	8.821619E-16	4.433402E-17
6.800000E+03	8.482164E-16	4.301289E-17
6.810000E+03	8.172801E-16	4.181227E-17
6.820000E+03	7.892776E-16	4.073178E-17
6.830000E+03	7.640785E-16	3.976748E-17
6.840000E+03	7.415331E-16	3.891372E-17
6.850000E+03	7.214284E-16	3.816108E-17
6.860000E+03	7.035642E-16	3.750067E-17
6.870000E+03	6.876869E-16	3.692133E-17
6.880000E+03	6.735755E-16	3.641454E-17
6.890000E+03	6.609800E-16	3.597091E-17
6.900000E+03	6.496948E-16	3.558367E-17
6.910000E+03	6.395313E-16	3.524652E-17
6.920000E+03	6.303245E-16	3.495327E-17
6.930000E+03	6.219607E-16	3.469937E-17
6.940000E+03	6.143431E-16	3.448018E-17
6.950000E+03	6.074120E-16	3.429242E-17
6.960000E+03	6.011369E-16	3.413430E-17
6.970000E+03	5.954749E-16	3.400356E-17
6.980000E+03	5.904176E-16	3.390020E-17
6.990000E+03	5.859190E-16	3.382252E-17
7.000000E+03	5.819535E-16	3.377034E-17
7.010000E+03	5.784502E-16	3.374083E-17
7.020000E+03	5.753413E-16	3.373110E-17
7.030000E+03	5.725660E-16	3.373822E-17
7.040000E+03	5.700286E-16	3.375649E-17
7.050000E+03	5.676519E-16	3.378080E-17
7.060000E+03	5.653747E-16	3.380673E-17
7.070000E+03	5.631327E-16	3.382964E-17
7.080000E+03	5.608850E-16	3.384658E-17
7.090000E+03	5.586071E-16	3.385604E-17
7.100000E+03	5.562987E-16	3.385830E-17
7.110000E+03	5.539515E-16	3.385346E-17
7.120000E+03	5.515937E-16	3.384388E-17
7.130000E+03	5.492560E-16	3.383196E-17
7.140000E+03	5.469760E-16	3.382033E-17
7.150000E+03	5.447948E-16	3.381170E-17
7.160000E+03	5.427455E-16	3.380813E-17
7.170000E+03	5.408649E-16	3.381201E-17
7.180000E+03	5.391909E-16	3.382583E-17
7.190000E+03	5.377436E-16	3.385094E-17
7.200000E+03	5.365236E-16	3.388739E-17
7.210000E+03	5.355246E-16	3.393469E-17
7.220000E+03	5.347263E-16	3.399137E-17
7.230000E+03	5.341024E-16	3.405575E-17
7.240000E+03	5.335933E-16	3.412444E-17
7.250000E+03	5.331642E-16	3.419593E-17
7.260000E+03	5.327561E-16	3.426740E-17
7.270000E+03	5.323135E-16	3.433618E-17
7.280000E+03	5.318041E-16	3.440066E-17
7.290000E+03	5.312046E-16	3.445948E-17
7.300000E+03	5.304699E-16	3.450977E-17
7.310000E+03	5.296092E-16	3.455221E-17
7.320000E+03	5.285980E-16	3.458576E-17
7.330000E+03	5.274296E-16	3.461110E-17
7.340000E+03	5.261057E-16	3.462992E-17
7.350000E+03	5.246113E-16	3.464320E-17
7.360000E+03	5.229466E-16	3.465310E-17
7.370000E+03	5.210886E-16	3.466017E-17
7.380000E+03	5.190481E-16	3.466693E-17
7.390000E+03	5.168166E-16	3.467430E-17
7.400000E+03	5.143925E-16	3.468302E-17
7.410000E+03	5.118046E-16	3.469533E-17
7.420000E+03	5.090588E-16	3.471131E-17
7.430000E+03	5.061922E-16	3.473241E-17
7.440000E+03	5.032335E-16	3.475896E-17
7.450000E+03	5.002327E-16	3.479218E-17
7.460000E+03	4.972444E-16	3.483304E-17
7.470000E+03	4.943024E-16	3.488069E-17
7.480000E+03	4.914630E-16	3.493558E-17
7.490000E+03	4.887641E-16	3.499665E-17
7.500000E+03	4.862590E-16	3.506409E-17
7.510000E+03	4.839679E-16	3.513600E-17
7.520000E+03	4.818975E-16	3.520959E-17
7.530000E+03	4.800613E-16	3.528246E-17
7.540000E+03	4.784259E-16	3.534856E-17
7.550000E+03	4.769712E-16	3.540270E-17
7.560000E+03	4.756383E-16	3.543726E-17
7.570000E+03	4.743688E-16	3.544570E-17
7.580000E+03	4.730848E-16	3.542136E-17
7.590000E+03	4.716927E-16	3.535793E-17
7.600000E+03	4.701197E-16	3.525187E-17
7.610000E+03	4.682693E-16	3.509855E-17
7.620000E+03	4.660914E-16	3.489702E-17
7.630000E+03	4.635389E-16	3.464631E-17
7.640000E+03	4.606124E-16	3.434846E-17
7.650000E+03	4.573323E-16	3.400666E-17
7.660000E+03	4.537674E-16	3.362764E-17
7.670000E+03	4.500067E-16	3.321969E-17
7.680000E+03	4.461589E-16	3.279282E-17
7.690000E+03	4.423446E-16	3.235778E-17
7.700000E+03	4.386881E-16	3.192508E-17
7.710000E+03	4.353179E-16	3.150477E-17
7.720000E+03	4.323319E-16	3.110392E-17
7.730000E+03	4.298489E-16	3.073051E-17
7.740000E+03	4.279240E-16	3.038768E-17
7.750000E+03	4.266283E-16	3.007972E-17
7.760000E+03	4.259656E-16	2.980621E-17
