#wls	flux	fluxerr
1.600000E+03	2.128220E-17	1.816757E-17
1.640000E+03	2.156522E-17	1.828059E-17
1.680000E+03	2.184863E-17	1.838951E-17
1.720000E+03	2.213962E-17	1.850137E-17
1.760000E+03	2.243570E-17	1.861508E-17
1.800000E+03	2.273419E-17	1.872949E-17
1.840000E+03	2.304194E-17	1.885135E-17
1.880000E+03	2.335598E-17	1.897920E-17
1.920000E+03	2.367319E-17	1.911143E-17
1.960000E+03	2.398048E-17	1.923835E-17
2.000000E+03	2.428427E-17	1.936580E-17
2.040000E+03	2.459080E-17	1.949912E-17
2.080000E+03	2.489636E-17	1.963534E-17
2.120000E+03	2.518730E-17	1.976349E-17
2.160000E+03	2.545961E-17	1.987995E-17
2.200000E+03	2.572798E-17	1.999542E-17
2.240000E+03	2.597785E-17	2.009746E-17
2.280000E+03	2.621316E-17	2.018790E-17
2.320000E+03	2.641867E-17	2.025358E-17
2.360000E+03	2.658828E-17	2.028842E-17
2.400000E+03	2.672449E-17	2.029279E-17
2.440000E+03	2.682035E-17	2.025982E-17
2.480000E+03	2.686065E-17	2.017638E-17
2.520000E+03	2.684770E-17	2.004256E-17
2.560000E+03	2.678356E-17	1.985807E-17
2.600000E+03	2.665480E-17	1.961103E-17
2.640000E+03	2.646484E-17	1.930202E-17
2.680000E+03	2.622426E-17	1.893665E-17
2.720000E+03	2.591539E-17	1.850010E-17
2.760000E+03	2.555007E-17	1.799911E-17
2.800000E+03	2.513269E-17	1.743527E-17
2.840000E+03	2.466158E-17	1.680643E-17
2.880000E+03	2.413604E-17	1.611205E-17
2.920000E+03	2.356654E-17	1.536005E-17
2.960000E+03	2.295694E-17	1.455478E-17
3.000000E+03	2.230616E-17	1.369873E-17
3.010000E+03	2.213977E-17	1.347899E-17
3.020000E+03	2.197181E-17	1.325703E-17
3.030000E+03	2.179793E-17	1.303034E-17
3.040000E+03	2.162256E-17	1.280171E-17
3.050000E+03	2.144979E-17	1.257363E-17
3.060000E+03	2.127125E-17	1.234126E-17
3.070000E+03	2.109115E-17	1.210722E-17
3.080000E+03	2.091337E-17	1.187382E-17
3.090000E+03	2.073005E-17	1.163670E-17
3.100000E+03	2.054892E-17	1.140035E-17
3.110000E+03	2.036243E-17	1.116070E-17
3.120000E+03	2.017804E-17	1.092200E-17
3.130000E+03	1.999206E-17	1.068237E-17
3.140000E+03	1.980453E-17	1.044197E-17
3.150000E+03	1.961554E-17	1.020103E-17
3.160000E+03	1.942850E-17	9.961450E-18
3.170000E+03	1.924004E-17	9.721647E-18
3.180000E+03	1.905028E-17	9.481861E-18
3.190000E+03	1.886249E-17	9.243876E-18
3.200000E+03	1.867356E-17	9.006320E-18
3.210000E+03	1.848666E-17	8.770891E-18
3.220000E+03	1.829887E-17	8.536360E-18
3.230000E+03	1.811326E-17	8.304343E-18
3.240000E+03	1.792989E-17	8.075004E-18
3.250000E+03	1.774609E-17	7.847314E-18
3.260000E+03	1.756484E-17	7.622776E-18
3.270000E+03	1.738627E-17	7.401596E-18
3.280000E+03	1.721053E-17	7.183995E-18
3.290000E+03	1.703534E-17	6.969188E-18
3.300000E+03	1.686597E-17	6.759505E-18
3.310000E+03	1.670014E-17	6.554137E-18
3.320000E+03	1.653812E-17	6.353350E-18
3.330000E+03	1.638255E-17	6.158271E-18
3.340000E+03	1.622917E-17	5.967431E-18
3.350000E+03	1.608290E-17	5.782785E-18
3.360000E+03	1.594401E-17	5.604511E-18
3.370000E+03	1.581077E-17	5.432079E-18
3.380000E+03	1.568572E-17	5.266454E-18
3.390000E+03	1.556928E-17	5.107821E-18
3.400000E+03	1.546190E-17	4.956364E-18
3.410000E+03	1.536217E-17	4.811661E-18
3.420000E+03	1.527449E-17	4.675102E-18
3.430000E+03	1.519749E-17	4.546216E-18
3.440000E+03	1.513179E-17	4.425141E-18
3.450000E+03	1.507805E-17	4.311991E-18
3.460000E+03	1.503870E-17	4.207342E-18
3.470000E+03	1.501439E-17	4.111202E-18
3.480000E+03	1.500584E-17	4.023564E-18
3.490000E+03	1.501216E-17	3.943969E-18
3.500000E+03	1.503750E-17	3.873256E-18
3.510000E+03	1.507949E-17	3.810522E-18
3.520000E+03	1.514234E-17	3.756534E-18
3.530000E+03	1.522703E-17	3.711198E-18
3.540000E+03	1.533310E-17	3.674061E-18
3.550000E+03	1.546331E-17	3.645446E-18
3.560000E+03	1.561893E-17	3.625302E-18
3.570000E+03	1.580131E-17	3.613598E-18
3.580000E+03	1.601341E-17	3.610670E-18
3.590000E+03	1.625376E-17	3.615856E-18
3.600000E+03	1.652849E-17	3.630210E-18
3.610000E+03	1.683633E-17	3.653137E-18
3.620000E+03	1.718061E-17	3.685071E-18
3.630000E+03	1.756323E-17	3.726145E-18
3.640000E+03	1.798625E-17	3.776521E-18
3.650000E+03	1.845177E-17	3.836390E-18
3.660000E+03	1.896356E-17	3.906287E-18
3.670000E+03	1.952242E-17	3.986131E-18
3.680000E+03	2.013386E-17	4.076815E-18
3.690000E+03	2.079727E-17	4.177978E-18
3.700000E+03	2.151677E-17	4.290221E-18
3.710000E+03	2.229495E-17	4.413831E-18
3.720000E+03	2.313611E-17	4.549430E-18
3.730000E+03	2.404298E-17	4.697317E-18
3.740000E+03	2.501659E-17	4.857458E-18
3.750000E+03	2.606141E-17	5.030486E-18
3.760000E+03	2.718033E-17	5.216715E-18
3.770000E+03	2.837637E-17	5.416479E-18
3.780000E+03	2.965464E-17	5.630499E-18
3.790000E+03	3.101686E-17	5.858837E-18
3.800000E+03	3.246889E-17	6.102329E-18
3.810000E+03	3.401321E-17	6.361155E-18
3.820000E+03	3.565891E-17	6.636713E-18
3.830000E+03	3.740973E-17	6.929372E-18
3.840000E+03	3.927210E-17	7.239979E-18
3.850000E+03	4.125547E-17	7.569904E-18
3.860000E+03	4.336566E-17	7.919808E-18
3.870000E+03	4.561615E-17	8.291712E-18
3.880000E+03	4.801172E-17	8.686002E-18
3.890000E+03	5.056466E-17	9.104384E-18
3.900000E+03	5.328775E-17	9.548588E-18
3.910000E+03	5.618854E-17	1.001934E-17
3.920000E+03	5.927930E-17	1.051816E-17
3.930000E+03	6.256585E-17	1.104536E-17
3.940000E+03	6.606120E-17	1.160243E-17
3.950000E+03	6.976493E-17	1.218847E-17
3.960000E+03	7.368317E-17	1.280365E-17
3.970000E+03	7.782005E-17	1.344772E-17
3.980000E+03	8.217073E-17	1.411882E-17
3.990000E+03	8.673441E-17	1.481575E-17
4.000000E+03	9.150097E-17	1.553564E-17
4.010000E+03	9.646122E-17	1.627573E-17
4.020000E+03	1.016115E-16	1.703417E-17
4.030000E+03	1.069313E-16	1.780618E-17
4.040000E+03	1.124094E-16	1.858855E-17
4.050000E+03	1.180293E-16	1.937713E-17
4.060000E+03	1.237682E-16	2.016674E-17
4.070000E+03	1.296147E-16	2.095402E-17
4.080000E+03	1.355430E-16	2.173328E-17
4.090000E+03	1.415299E-16	2.249930E-17
4.100000E+03	1.475467E-16	2.324601E-17
4.110000E+03	1.535778E-16	2.396954E-17
4.120000E+03	1.595894E-16	2.466318E-17
4.130000E+03	1.655631E-16	2.532278E-17
4.140000E+03	1.714781E-16	2.594392E-17
4.150000E+03	1.773120E-16	2.652213E-17
4.160000E+03	1.830574E-16	2.705530E-17
4.170000E+03	1.887023E-16	2.754081E-17
4.180000E+03	1.942463E-16	2.797789E-17
4.190000E+03	1.996959E-16	2.836695E-17
4.200000E+03	2.050648E-16	2.870957E-17
4.210000E+03	2.103738E-16	2.900848E-17
4.220000E+03	2.156395E-16	2.926603E-17
4.230000E+03	2.209057E-16	2.948851E-17
4.240000E+03	2.261996E-16	2.968020E-17
4.250000E+03	2.315622E-16	2.984760E-17
4.260000E+03	2.370364E-16	2.999791E-17
4.270000E+03	2.426649E-16	3.013884E-17
4.280000E+03	2.484771E-16	3.027728E-17
4.290000E+03	2.545197E-16	3.042326E-17
4.300000E+03	2.608054E-16	3.058393E-17
4.310000E+03	2.673601E-16	3.076960E-17
4.320000E+03	2.741942E-16	3.099041E-17
4.330000E+03	2.812955E-16	3.125584E-17
4.340000E+03	2.886512E-16	3.157718E-17
4.350000E+03	2.962319E-16	3.196545E-17
4.360000E+03	3.040038E-16	3.243227E-17
4.370000E+03	3.119262E-16	3.298863E-17
4.380000E+03	3.199422E-16	3.364269E-17
4.390000E+03	3.280073E-16	3.440129E-17
4.400000E+03	3.360812E-16	3.526775E-17
4.410000E+03	3.441189E-16	3.624026E-17
4.420000E+03	3.520942E-16	3.731450E-17
4.430000E+03	3.599880E-16	3.848304E-17
4.440000E+03	3.677809E-16	3.973548E-17
4.450000E+03	3.754586E-16	4.105991E-17
4.460000E+03	3.830176E-16	4.244432E-17
4.470000E+03	3.904516E-16	4.387591E-17
4.480000E+03	3.977631E-16	4.534288E-17
4.490000E+03	4.049498E-16	4.683337E-17
4.500000E+03	4.120216E-16	4.833770E-17
4.510000E+03	4.189613E-16	4.984400E-17
4.520000E+03	4.257798E-16	5.134471E-17
4.530000E+03	4.324576E-16	5.282967E-17
4.540000E+03	4.389746E-16	5.428964E-17
4.550000E+03	4.453157E-16	5.571689E-17
4.560000E+03	4.514448E-16	5.710190E-17
4.570000E+03	4.573172E-16	5.843478E-17
4.580000E+03	4.628815E-16	5.970536E-17
4.590000E+03	4.680937E-16	6.090499E-17
4.600000E+03	4.729012E-16	6.202438E-17
4.610000E+03	4.772396E-16	6.305311E-17
4.620000E+03	4.810622E-16	6.398349E-17
4.630000E+03	4.843377E-16	6.481024E-17
4.640000E+03	4.870280E-16	6.552756E-17
4.650000E+03	4.891301E-16	6.613471E-17
4.660000E+03	4.906531E-16	6.663289E-17
4.670000E+03	4.916136E-16	6.702471E-17
4.680000E+03	4.920747E-16	6.731937E-17
4.690000E+03	4.920963E-16	6.752588E-17
4.700000E+03	4.917653E-16	6.765717E-17
4.710000E+03	4.912060E-16	6.773151E-17
4.720000E+03	4.905357E-16	6.776627E-17
4.730000E+03	4.898976E-16	6.778248E-17
4.740000E+03	4.894336E-16	6.780096E-17
4.750000E+03	4.893095E-16	6.784574E-17
4.760000E+03	4.896746E-16	6.793844E-17
4.770000E+03	4.906742E-16	6.809999E-17
4.780000E+03	4.924611E-16	6.835207E-17
4.790000E+03	4.951492E-16	6.871078E-17
4.800000E+03	4.988363E-16	6.918972E-17
4.810000E+03	5.036093E-16	6.980075E-17
4.820000E+03	5.095107E-16	7.054938E-17
4.830000E+03	5.165631E-16	7.143821E-17
4.840000E+03	5.247440E-16	7.246351E-17
4.850000E+03	5.339964E-16	7.361676E-17
4.860000E+03	5.442067E-16	7.488167E-17
4.870000E+03	5.552494E-16	7.624040E-17
4.880000E+03	5.669442E-16	7.766773E-17
4.890000E+03	5.790989E-16	7.913704E-17
4.900000E+03	5.915117E-16	8.062060E-17
4.910000E+03	6.039476E-16	8.208639E-17
4.920000E+03	6.161978E-16	8.350628E-17
4.930000E+03	6.280432E-16	8.485096E-17
4.940000E+03	6.393012E-16	8.609638E-17
4.950000E+03	6.497920E-16	8.721911E-17
4.960000E+03	6.593779E-16	8.820160E-17
4.970000E+03	6.679390E-16	8.902887E-17
4.980000E+03	6.754100E-16	8.969343E-17
4.990000E+03	6.817310E-16	9.018858E-17
5.000000E+03	6.869027E-16	9.051577E-17
5.010000E+03	6.909335E-16	9.067748E-17
5.020000E+03	6.938795E-16	9.068241E-17
5.030000E+03	6.957897E-16	9.053828E-17
5.040000E+03	6.967532E-16	9.025795E-17
5.050000E+03	6.968744E-16	8.985609E-17
5.060000E+03	6.962634E-16	8.934789E-17
5.070000E+03	6.950407E-16	8.874962E-17
5.080000E+03	6.933355E-16	8.807837E-17
5.090000E+03	6.912900E-16	8.735253E-17
5.100000E+03	6.890359E-16	8.658876E-17
5.110000E+03	6.867259E-16	8.580593E-17
5.120000E+03	6.844878E-16	8.501930E-17
5.130000E+03	6.824621E-16	8.424527E-17
5.140000E+03	6.807489E-16	8.349468E-17
5.150000E+03	6.794593E-16	8.277930E-17
5.160000E+03	6.786700E-16	8.210622E-17
5.170000E+03	6.784419E-16	8.148018E-17
5.180000E+03	6.787977E-16	8.090096E-17
5.190000E+03	6.797570E-16	8.036767E-17
5.200000E+03	6.812962E-16	7.987405E-17
5.210000E+03	6.833862E-16	7.941301E-17
5.220000E+03	6.859750E-16	7.897468E-17
5.230000E+03	6.890056E-16	7.854860E-17
5.240000E+03	6.924068E-16	7.812262E-17
5.250000E+03	6.961036E-16	7.768428E-17
5.260000E+03	7.000276E-16	7.722195E-17
5.270000E+03	7.041128E-16	7.672449E-17
5.280000E+03	7.082907E-16	7.618067E-17
5.290000E+03	7.124911E-16	7.557951E-17
5.300000E+03	7.166718E-16	7.491346E-17
5.310000E+03	7.207827E-16	7.417474E-17
5.320000E+03	7.247801E-16	7.335702E-17
5.330000E+03	7.286336E-16	7.245632E-17
5.340000E+03	7.323112E-16	7.146973E-17
5.350000E+03	7.357865E-16	7.039649E-17
5.360000E+03	7.390463E-16	6.923901E-17
5.370000E+03	7.420759E-16	6.800195E-17
5.380000E+03	7.448744E-16	6.669412E-17
5.390000E+03	7.474326E-16	6.532707E-17
5.400000E+03	7.497707E-16	6.391910E-17
5.410000E+03	7.518934E-16	6.249188E-17
5.420000E+03	7.538272E-16	6.107433E-17
5.430000E+03	7.555975E-16	5.970098E-17
5.440000E+03	7.572356E-16	5.841246E-17
5.450000E+03	7.587853E-16	5.725511E-17
5.460000E+03	7.602864E-16	5.627759E-17
5.470000E+03	7.617796E-16	5.552770E-17
5.480000E+03	7.633107E-16	5.504726E-17
5.490000E+03	7.648943E-16	5.486298E-17
5.500000E+03	7.665542E-16	5.498358E-17
5.510000E+03	7.682977E-16	5.539582E-17
5.520000E+03	7.701007E-16	5.606663E-17
5.530000E+03	7.719429E-16	5.695180E-17
5.540000E+03	7.737809E-16	5.800060E-17
5.550000E+03	7.755900E-16	5.916391E-17
5.560000E+03	7.773142E-16	6.039385E-17
5.570000E+03	7.789154E-16	6.164931E-17
5.580000E+03	7.803689E-16	6.289641E-17
5.590000E+03	7.816354E-16	6.410623E-17
5.600000E+03	7.827164E-16	6.525884E-17
5.610000E+03	7.835933E-16	6.633773E-17
5.620000E+03	7.842726E-16	6.733278E-17
5.630000E+03	7.847762E-16	6.823879E-17
5.640000E+03	7.851150E-16	6.905250E-17
5.650000E+03	7.853086E-16	6.977372E-17
5.660000E+03	7.853663E-16	7.040306E-17
5.670000E+03	7.853000E-16	7.094268E-17
5.680000E+03	7.851154E-16	7.139511E-17
5.690000E+03	7.848047E-16	7.176226E-17
5.700000E+03	7.843721E-16	7.204757E-17
5.710000E+03	7.837987E-16	7.225264E-17
5.720000E+03	7.830935E-16	7.238172E-17
5.730000E+03	7.822592E-16	7.243853E-17
5.740000E+03	7.813190E-16	7.242872E-17
5.750000E+03	7.803119E-16	7.235927E-17
5.760000E+03	7.792775E-16	7.223715E-17
5.770000E+03	7.782936E-16	7.207269E-17
5.780000E+03	7.774424E-16	7.187643E-17
5.790000E+03	7.768000E-16	7.165806E-17
5.800000E+03	7.764614E-16	7.142869E-17
5.810000E+03	7.765288E-16	7.119969E-17
5.820000E+03	7.770772E-16	7.097946E-17
5.830000E+03	7.781947E-16	7.077711E-17
5.840000E+03	7.799343E-16	7.059798E-17
5.850000E+03	7.823537E-16	7.044731E-17
5.860000E+03	7.854668E-16	7.032584E-17
5.870000E+03	7.892839E-16	7.023343E-17
5.880000E+03	7.937709E-16	7.016553E-17
5.890000E+03	7.988687E-16	7.011495E-17
5.900000E+03	8.044706E-16	7.007000E-17
5.910000E+03	8.104700E-16	7.001872E-17
5.920000E+03	8.166976E-16	6.994356E-17
5.930000E+03	8.230066E-16	6.982874E-17
5.940000E+03	8.292066E-16	6.965466E-17
5.950000E+03	8.351534E-16	6.940556E-17
5.960000E+03	8.406911E-16	6.906446E-17
5.970000E+03	8.457096E-16	6.861794E-17
5.980000E+03	8.501365E-16	6.805527E-17
5.990000E+03	8.539338E-16	6.736783E-17
6.000000E+03	8.571148E-16	6.655019E-17
6.010000E+03	8.597255E-16	6.559821E-17
6.020000E+03	8.618557E-16	6.450950E-17
6.030000E+03	8.636152E-16	6.328109E-17
6.040000E+03	8.651496E-16	6.191017E-17
6.050000E+03	8.665974E-16	6.039052E-17
6.060000E+03	8.680883E-16	5.871207E-17
6.070000E+03	8.697736E-16	5.686284E-17
6.080000E+03	8.717579E-16	5.482439E-17
6.090000E+03	8.741124E-16	5.257377E-17
6.100000E+03	8.768629E-16	5.008480E-17
6.110000E+03	8.800019E-16	4.733280E-17
6.120000E+03	8.834163E-16	4.429786E-17
6.130000E+03	8.869312E-16	4.098013E-17
6.140000E+03	8.902548E-16	3.741816E-17
6.150000E+03	8.929878E-16	3.372345E-17
6.160000E+03	8.946566E-16	3.013034E-17
6.170000E+03	8.946996E-16	2.704472E-17
6.180000E+03	8.925997E-16	2.502720E-17
6.190000E+03	8.879952E-16	2.456821E-17
6.200000E+03	8.808451E-16	2.571667E-17
6.210000E+03	8.714579E-16	2.801787E-17
6.220000E+03	8.603264E-16	3.086426E-17
6.230000E+03	8.480092E-16	3.378951E-17
6.240000E+03	8.349923E-16	3.652188E-17
6.250000E+03	8.216520E-16	3.893333E-17
6.260000E+03	8.082319E-16	4.098071E-17
6.270000E+03	7.948427E-16	4.266433E-17
6.280000E+03	7.814972E-16	4.400407E-17
6.290000E+03	7.681275E-16	4.502535E-17
6.300000E+03	7.546070E-16	4.575208E-17
6.310000E+03	7.408101E-16	4.620610E-17
6.320000E+03	7.265876E-16	4.640416E-17
6.330000E+03	7.118457E-16	4.636259E-17
6.340000E+03	6.965294E-16	4.609696E-17
6.350000E+03	6.806679E-16	4.562589E-17
6.360000E+03	6.643560E-16	4.497066E-17
6.370000E+03	6.477863E-16	4.415801E-17
6.380000E+03	6.312189E-16	4.321861E-17
6.390000E+03	6.149946E-16	4.218812E-17
6.400000E+03	5.995143E-16	4.110598E-17
6.410000E+03	5.852224E-16	4.001425E-17
6.420000E+03	5.725828E-16	3.895585E-17
6.430000E+03	5.620787E-16	3.797462E-17
6.440000E+03	5.541660E-16	3.711242E-17
6.450000E+03	5.492957E-16	3.641120E-17
6.460000E+03	5.478689E-16	3.591101E-17
6.470000E+03	5.502580E-16	3.565301E-17
6.480000E+03	5.567835E-16	3.567990E-17
6.490000E+03	5.677177E-16	3.603835E-17
6.500000E+03	5.832630E-16	3.677930E-17
6.510000E+03	6.035414E-16	3.795776E-17
6.520000E+03	6.285671E-16	3.962870E-17
6.530000E+03	6.582471E-16	4.184169E-17
6.540000E+03	6.923131E-16	4.462875E-17
6.550000E+03	7.303314E-16	4.799838E-17
6.560000E+03	7.716563E-16	5.192918E-17
6.570000E+03	8.154503E-16	5.637036E-17
6.580000E+03	8.606926E-16	6.124258E-17
6.590000E+03	9.062240E-16	6.644158E-17
6.600000E+03	9.507724E-16	7.184075E-17
6.610000E+03	9.930505E-16	7.729961E-17
6.620000E+03	1.031825E-15	8.267119E-17
6.630000E+03	1.066003E-15	8.781188E-17
6.640000E+03	1.094670E-15	9.258728E-17
6.650000E+03	1.117163E-15	9.688280E-17
6.660000E+03	1.133099E-15	1.006087E-16
6.670000E+03	1.142380E-15	1.037049E-16
6.680000E+03	1.145130E-15	1.061370E-16
6.690000E+03	1.141733E-15	1.079022E-16
6.700000E+03	1.132736E-15	1.090211E-16
6.710000E+03	1.118810E-15	1.095348E-16
6.720000E+03	1.100699E-15	1.094993E-16
6.730000E+03	1.079173E-15	1.089804E-16
6.740000E+03	1.054978E-15	1.080482E-16
6.750000E+03	1.028857E-15	1.067774E-16
6.760000E+03	1.001430E-15	1.052347E-16
6.770000E+03	9.733154E-16	1.034899E-16
6.780000E+03	9.449789E-16	1.015989E-16
6.790000E+03	9.168649E-16	9.961751E-17
6.800000E+03	8.893152E-16	9.759121E-17
6.810000E+03	8.625775E-16	9.555601E-17
6.820000E+03	8.368781E-16	9.354574E-17
6.830000E+03	8.123530E-16	9.158417E-17
6.840000E+03	7.891001E-16	8.969052E-17
6.850000E+03	7.671758E-16	8.787898E-17
6.860000E+03	7.466027E-16	8.615945E-17
6.870000E+03	7.273675E-16	8.453723E-17
6.880000E+03	7.094636E-16	8.301798E-17
6.890000E+03	6.928233E-16	8.159978E-17
6.900000E+03	6.774218E-16	8.028528E-17
6.910000E+03	6.631737E-16	7.906957E-17
6.920000E+03	6.500328E-16	7.795190E-17
6.930000E+03	6.379248E-16	7.692772E-17
6.940000E+03	6.267836E-16	7.599303E-17
6.950000E+03	6.165520E-16	7.514446E-17
6.960000E+03	6.071505E-16	7.437548E-17
6.970000E+03	5.985263E-16	7.368242E-17
6.980000E+03	5.906130E-16	7.305958E-17
6.990000E+03	5.833702E-16	7.250413E-17
7.000000E+03	5.767220E-16	7.200852E-17
7.010000E+03	5.706329E-16	7.156998E-17
7.020000E+03	5.650549E-16	7.118393E-17
7.030000E+03	5.599280E-16	7.084404E-17
7.040000E+03	5.552244E-16	7.054792E-17
7.050000E+03	5.508902E-16	7.028963E-17
7.060000E+03	5.469037E-16	7.006726E-17
7.070000E+03	5.432176E-16	6.987549E-17
7.080000E+03	5.398098E-16	6.971213E-17
7.090000E+03	5.366473E-16	6.957351E-17
7.100000E+03	5.337146E-16	6.945818E-17
7.110000E+03	5.309852E-16	6.936317E-17
7.120000E+03	5.284424E-16	6.928679E-17
7.130000E+03	5.260791E-16	6.922854E-17
7.140000E+03	5.238688E-16	6.918536E-17
7.150000E+03	5.218079E-16	6.915719E-17
7.160000E+03	5.198869E-16	6.914318E-17
7.170000E+03	5.180969E-16	6.914256E-17
7.180000E+03	5.164222E-16	6.915370E-17
7.190000E+03	5.148544E-16	6.917594E-17
7.200000E+03	5.133918E-16	6.920956E-17
7.210000E+03	5.120179E-16	6.925296E-17
7.220000E+03	5.107226E-16	6.930546E-17
7.230000E+03	5.095021E-16	6.936728E-17
7.240000E+03	5.083303E-16	6.943579E-17
7.250000E+03	5.072014E-16	6.951119E-17
7.260000E+03	5.060948E-16	6.959179E-17
7.270000E+03	5.050035E-16	6.967789E-17
7.280000E+03	5.039060E-16	6.976796E-17
7.290000E+03	5.027953E-16	6.986253E-17
7.300000E+03	5.016506E-16	6.996040E-17
7.310000E+03	5.004588E-16	7.006152E-17
7.320000E+03	4.992152E-16	7.016707E-17
7.330000E+03	4.978947E-16	7.027545E-17
7.340000E+03	4.964954E-16	7.038827E-17
7.350000E+03	4.950026E-16	7.050530E-17
7.360000E+03	4.934246E-16	7.062944E-17
7.370000E+03	4.917436E-16	7.075962E-17
7.380000E+03	4.899578E-16	7.089676E-17
7.390000E+03	4.880746E-16	7.104266E-17
7.400000E+03	4.860963E-16	7.119785E-17
7.410000E+03	4.840201E-16	7.136149E-17
7.420000E+03	4.818523E-16	7.153323E-17
7.430000E+03	4.796075E-16	7.171319E-17
7.440000E+03	4.772948E-16	7.189969E-17
7.450000E+03	4.749172E-16	7.208925E-17
7.460000E+03	4.724992E-16	7.228072E-17
7.470000E+03	4.700447E-16	7.246904E-17
7.480000E+03	4.675642E-16	7.264956E-17
7.490000E+03	4.650678E-16	7.281718E-17
7.500000E+03	4.625712E-16	7.296770E-17
7.510000E+03	4.600685E-16	7.309373E-17
7.520000E+03	4.575795E-16	7.319253E-17
7.530000E+03	4.550952E-16	7.325750E-17
7.540000E+03	4.526255E-16	7.328592E-17
7.550000E+03	4.501718E-16	7.327468E-17
7.560000E+03	4.477349E-16	7.322132E-17
7.570000E+03	4.453212E-16	7.312522E-17
7.580000E+03	4.429169E-16	7.298309E-17
7.590000E+03	4.405422E-16	7.279785E-17
7.600000E+03	4.381845E-16	7.256751E-17
7.610000E+03	4.358462E-16	7.229290E-17
7.620000E+03	4.335448E-16	7.197766E-17
7.630000E+03	4.312735E-16	7.162153E-17
7.640000E+03	4.290542E-16	7.122914E-17
7.650000E+03	4.268980E-16	7.080329E-17
7.660000E+03	4.248046E-16	7.034483E-17
7.670000E+03	4.228087E-16	6.986027E-17
7.680000E+03	4.209126E-16	6.935055E-17
7.690000E+03	4.191454E-16	6.882078E-17
7.700000E+03	4.175094E-16	6.827130E-17
7.710000E+03	4.160316E-16	6.770620E-17
7.720000E+03	4.147168E-16	6.712552E-17
7.730000E+03	4.135732E-16	6.652947E-17
7.740000E+03	4.126184E-16	6.591931E-17
7.750000E+03	4.118390E-16	6.529088E-17
7.760000E+03	4.112300E-16	6.464099E-17
