#wls	flux	fluxerr
1.600000E+03	2.743797E-18	2.580078E-18
1.640000E+03	2.784536E-18	2.618021E-18
1.680000E+03	2.826388E-18	2.656977E-18
1.720000E+03	2.869307E-18	2.696902E-18
1.760000E+03	2.912436E-18	2.736983E-18
1.800000E+03	2.956547E-18	2.777943E-18
1.840000E+03	3.001596E-18	2.819736E-18
1.880000E+03	3.047542E-18	2.862316E-18
1.920000E+03	3.093537E-18	2.904880E-18
1.960000E+03	3.141162E-18	2.948906E-18
2.000000E+03	3.188771E-18	2.992838E-18
2.040000E+03	3.237948E-18	3.038154E-18
2.080000E+03	3.287067E-18	3.083317E-18
2.120000E+03	3.337719E-18	3.129805E-18
2.160000E+03	3.389098E-18	3.176850E-18
2.200000E+03	3.441217E-18	3.224445E-18
2.240000E+03	3.494887E-18	3.273333E-18
2.280000E+03	3.549353E-18	3.322786E-18
2.320000E+03	3.605456E-18	3.373567E-18
2.360000E+03	3.662484E-18	3.424983E-18
2.400000E+03	3.722095E-18	3.478555E-18
2.440000E+03	3.783622E-18	3.533623E-18
2.480000E+03	3.847214E-18	3.590288E-18
2.520000E+03	3.913051E-18	3.648671E-18
2.560000E+03	3.982117E-18	3.709641E-18
2.600000E+03	4.053896E-18	3.772657E-18
2.640000E+03	4.130217E-18	3.839352E-18
2.680000E+03	4.210658E-18	3.909254E-18
2.720000E+03	4.296382E-18	3.983349E-18
2.760000E+03	4.387849E-18	4.061953E-18
2.800000E+03	4.485589E-18	4.145429E-18
2.840000E+03	4.590969E-18	4.234888E-18
2.880000E+03	4.703926E-18	4.330091E-18
2.920000E+03	4.827525E-18	4.433646E-18
2.960000E+03	4.961156E-18	4.544729E-18
3.000000E+03	5.107365E-18	4.665369E-18
3.010000E+03	5.146017E-18	4.697102E-18
3.020000E+03	5.185165E-18	4.729138E-18
3.030000E+03	5.225594E-18	4.762187E-18
3.040000E+03	5.267327E-18	4.796261E-18
3.050000E+03	5.309618E-18	4.830674E-18
3.060000E+03	5.352488E-18	4.865438E-18
3.070000E+03	5.396730E-18	4.901265E-18
3.080000E+03	5.442369E-18	4.938169E-18
3.090000E+03	5.489432E-18	4.976163E-18
3.100000E+03	5.536395E-18	5.013858E-18
3.110000E+03	5.585609E-18	5.053374E-18
3.120000E+03	5.635550E-18	5.093320E-18
3.130000E+03	5.687023E-18	5.134414E-18
3.140000E+03	5.739278E-18	5.175965E-18
3.150000E+03	5.793126E-18	5.218693E-18
3.160000E+03	5.848598E-18	5.262615E-18
3.170000E+03	5.904942E-18	5.307038E-18
3.180000E+03	5.962977E-18	5.352686E-18
3.190000E+03	6.022738E-18	5.399574E-18
3.200000E+03	6.083469E-18	5.447008E-18
3.210000E+03	6.145997E-18	5.495716E-18
3.220000E+03	6.210363E-18	5.545714E-18
3.230000E+03	6.276608E-18	5.597019E-18
3.240000E+03	6.343969E-18	5.648933E-18
3.250000E+03	6.413288E-18	5.702187E-18
3.260000E+03	6.484610E-18	5.756799E-18
3.270000E+03	6.557982E-18	5.812788E-18
3.280000E+03	6.632634E-18	5.869447E-18
3.290000E+03	6.710246E-18	5.928241E-18
3.300000E+03	6.789230E-18	5.987737E-18
3.310000E+03	6.870455E-18	6.048678E-18
3.320000E+03	6.953144E-18	6.110350E-18
3.330000E+03	7.039010E-18	6.174230E-18
3.340000E+03	7.127282E-18	6.239607E-18
3.350000E+03	7.217174E-18	6.305761E-18
3.360000E+03	7.309582E-18	6.373441E-18
3.370000E+03	7.405418E-18	6.443405E-18
3.380000E+03	7.503047E-18	6.514187E-18
3.390000E+03	7.603379E-18	6.586543E-18
3.400000E+03	7.706482E-18	6.660485E-18
3.410000E+03	7.812425E-18	6.736029E-18
3.420000E+03	7.921276E-18	6.813187E-18
3.430000E+03	8.033989E-18	6.892727E-18
3.440000E+03	8.148883E-18	6.973150E-18
3.450000E+03	8.266907E-18	7.055221E-18
3.460000E+03	8.388142E-18	7.138947E-18
3.470000E+03	8.512665E-18	7.224336E-18
3.480000E+03	8.641469E-18	7.312161E-18
3.490000E+03	8.772825E-18	7.400893E-18
3.500000E+03	8.908644E-18	7.492074E-18
3.510000E+03	9.047179E-18	7.584158E-18
3.520000E+03	9.190368E-18	7.678694E-18
3.530000E+03	9.337383E-18	7.774905E-18
3.540000E+03	9.489268E-18	7.873569E-18
3.550000E+03	9.644232E-18	7.973107E-18
3.560000E+03	9.803314E-18	8.074289E-18
3.570000E+03	9.967586E-18	8.177896E-18
3.580000E+03	1.013620E-17	8.283118E-18
3.590000E+03	1.031024E-17	8.390735E-18
3.600000E+03	1.048786E-17	8.499117E-18
3.610000E+03	1.067115E-17	8.609842E-18
3.620000E+03	1.085923E-17	8.722070E-18
3.630000E+03	1.105324E-17	8.836576E-18
3.640000E+03	1.125127E-17	8.951685E-18
3.650000E+03	1.145549E-17	9.068980E-18
3.660000E+03	1.166604E-17	9.188410E-18
3.670000E+03	1.188202E-17	9.309094E-18
3.680000E+03	1.210356E-17	9.430959E-18
3.690000E+03	1.233079E-17	9.553926E-18
3.700000E+03	1.256492E-17	9.678745E-18
3.710000E+03	1.280612E-17	9.805330E-18
3.720000E+03	1.305344E-17	9.932743E-18
3.730000E+03	1.330702E-17	1.006087E-17
3.740000E+03	1.356813E-17	1.019044E-17
3.750000E+03	1.383580E-17	1.032046E-17
3.760000E+03	1.411131E-17	1.045166E-17
3.770000E+03	1.439369E-17	1.058303E-17
3.780000E+03	1.468425E-17	1.071525E-17
3.790000E+03	1.498198E-17	1.084729E-17
3.800000E+03	1.528822E-17	1.097981E-17
3.810000E+03	1.560194E-17	1.111175E-17
3.820000E+03	1.592451E-17	1.124374E-17
3.830000E+03	1.625612E-17	1.137556E-17
3.840000E+03	1.659569E-17	1.150606E-17
3.850000E+03	1.694462E-17	1.163586E-17
3.860000E+03	1.730182E-17	1.176379E-17
3.870000E+03	1.766873E-17	1.189039E-17
3.880000E+03	1.804551E-17	1.201535E-17
3.890000E+03	1.843102E-17	1.213743E-17
3.900000E+03	1.882672E-17	1.225713E-17
3.910000E+03	1.923144E-17	1.237317E-17
3.920000E+03	1.964802E-17	1.248688E-17
3.930000E+03	2.007392E-17	1.259605E-17
3.940000E+03	2.050922E-17	1.270022E-17
3.950000E+03	2.095545E-17	1.279975E-17
3.960000E+03	2.141275E-17	1.289410E-17
3.970000E+03	2.188126E-17	1.298272E-17
3.980000E+03	2.235962E-17	1.306415E-17
3.990000E+03	2.284939E-17	1.313863E-17
4.000000E+03	2.335066E-17	1.320550E-17
4.010000E+03	2.386352E-17	1.326409E-17
4.020000E+03	2.438650E-17	1.331281E-17
4.030000E+03	2.492118E-17	1.335178E-17
4.040000E+03	2.546599E-17	1.337938E-17
4.050000E+03	2.602412E-17	1.339645E-17
4.060000E+03	2.659236E-17	1.340048E-17
4.070000E+03	2.717229E-17	1.339142E-17
4.080000E+03	2.776220E-17	1.336754E-17
4.090000E+03	2.836362E-17	1.332871E-17
4.100000E+03	2.897644E-17	1.327396E-17
4.110000E+03	2.960053E-17	1.320225E-17
4.120000E+03	3.023397E-17	1.311180E-17
4.130000E+03	3.087826E-17	1.300233E-17
4.140000E+03	3.153313E-17	1.287273E-17
4.150000E+03	3.219828E-17	1.272191E-17
4.160000E+03	3.287157E-17	1.254805E-17
4.170000E+03	3.355438E-17	1.235075E-17
4.180000E+03	3.424439E-17	1.212823E-17
4.190000E+03	3.494480E-17	1.188068E-17
4.200000E+03	3.564943E-17	1.160511E-17
4.210000E+03	3.636325E-17	1.130234E-17
4.220000E+03	3.708178E-17	1.097014E-17
4.230000E+03	3.780614E-17	1.060818E-17
4.240000E+03	3.853351E-17	1.021508E-17
4.250000E+03	3.926491E-17	9.790680E-18
4.260000E+03	3.999930E-17	9.334427E-18
4.270000E+03	4.073359E-17	8.845589E-18
4.280000E+03	4.146653E-17	8.324300E-18
4.290000E+03	4.220083E-17	7.771942E-18
4.300000E+03	4.292898E-17	7.188652E-18
4.310000E+03	4.365554E-17	6.577900E-18
4.320000E+03	4.437265E-17	5.942806E-18
4.330000E+03	4.508260E-17	5.290921E-18
4.340000E+03	4.578344E-17	4.633950E-18
4.350000E+03	4.647094E-17	3.992154E-18
4.360000E+03	4.714280E-17	3.402072E-18
4.370000E+03	4.779885E-17	2.927686E-18
4.380000E+03	4.843479E-17	2.665184E-18
4.390000E+03	4.905104E-17	2.706047E-18
4.400000E+03	4.964229E-17	3.057282E-18
4.410000E+03	5.021261E-17	3.641094E-18
4.420000E+03	5.076232E-17	4.370348E-18
4.430000E+03	5.128770E-17	5.185200E-18
4.440000E+03	5.179379E-17	6.050755E-18
4.450000E+03	5.227915E-17	6.945928E-18
4.460000E+03	5.274451E-17	7.857759E-18
4.470000E+03	5.319056E-17	8.777725E-18
4.480000E+03	5.361798E-17	9.699897E-18
4.490000E+03	5.402745E-17	1.061993E-17
4.500000E+03	5.441960E-17	1.153453E-17
4.510000E+03	5.479509E-17	1.244106E-17
4.520000E+03	5.515456E-17	1.333740E-17
4.530000E+03	5.549863E-17	1.422181E-17
4.540000E+03	5.582794E-17	1.509278E-17
4.550000E+03	5.614311E-17	1.594908E-17
4.560000E+03	5.644475E-17	1.678960E-17
4.570000E+03	5.673137E-17	1.761277E-17
4.580000E+03	5.700570E-17	1.841838E-17
4.590000E+03	5.726832E-17	1.920573E-17
4.600000E+03	5.751776E-17	1.997351E-17
4.610000E+03	5.775669E-17	2.072187E-17
4.620000E+03	5.798569E-17	2.145037E-17
4.630000E+03	5.820327E-17	2.215786E-17
4.640000E+03	5.841205E-17	2.284478E-17
4.650000E+03	5.861055E-17	2.351005E-17
4.660000E+03	5.880135E-17	2.415424E-17
4.670000E+03	5.898298E-17	2.477637E-17
4.680000E+03	5.915598E-17	2.537625E-17
4.690000E+03	5.932288E-17	2.595465E-17
4.700000E+03	5.948220E-17	2.651064E-17
4.710000E+03	5.963446E-17	2.704417E-17
4.720000E+03	5.978213E-17	2.755612E-17
4.730000E+03	5.992373E-17	2.804561E-17
4.740000E+03	6.005976E-17	2.851267E-17
4.750000E+03	6.019069E-17	2.895737E-17
4.760000E+03	6.031702E-17	2.937977E-17
4.770000E+03	6.043920E-17	2.977997E-17
4.780000E+03	6.055770E-17	3.015807E-17
4.790000E+03	6.067297E-17	3.051420E-17
4.800000E+03	6.078547E-17	3.084847E-17
4.810000E+03	6.089562E-17	3.116105E-17
4.820000E+03	6.100202E-17	3.145111E-17
4.830000E+03	6.110880E-17	3.172072E-17
4.840000E+03	6.121269E-17	3.196813E-17
4.850000E+03	6.131597E-17	3.219446E-17
4.860000E+03	6.141903E-17	3.239986E-17
4.870000E+03	6.152229E-17	3.258450E-17
4.880000E+03	6.162436E-17	3.274758E-17
4.890000E+03	6.172566E-17	3.288928E-17
4.900000E+03	6.183015E-17	3.301163E-17
4.910000E+03	6.193292E-17	3.311197E-17
4.920000E+03	6.203966E-17	3.319325E-17
4.930000E+03	6.214723E-17	3.325373E-17
4.940000E+03	6.225605E-17	3.329356E-17
4.950000E+03	6.236824E-17	3.331378E-17
4.960000E+03	6.248246E-17	3.331359E-17
4.970000E+03	6.259910E-17	3.329308E-17
4.980000E+03	6.272027E-17	3.325326E-17
4.990000E+03	6.284463E-17	3.319331E-17
5.000000E+03	6.297258E-17	3.311328E-17
5.010000E+03	6.310618E-17	3.301411E-17
5.020000E+03	6.324413E-17	3.289495E-17
5.030000E+03	6.338681E-17	3.275582E-17
5.040000E+03	6.353461E-17	3.259672E-17
5.050000E+03	6.368790E-17	3.241764E-17
5.060000E+03	6.384873E-17	3.221937E-17
5.070000E+03	6.401416E-17	3.200018E-17
5.080000E+03	6.418787E-17	3.176166E-17
5.090000E+03	6.436859E-17	3.150287E-17
5.100000E+03	6.455507E-17	3.122289E-17
5.110000E+03	6.475096E-17	3.092316E-17
5.120000E+03	6.495499E-17	3.060271E-17
5.130000E+03	6.516593E-17	3.026059E-17
5.140000E+03	6.538739E-17	2.989808E-17
5.150000E+03	6.561812E-17	2.951415E-17
5.160000E+03	6.585690E-17	2.910782E-17
5.170000E+03	6.610570E-17	2.867950E-17
5.180000E+03	6.636489E-17	2.822885E-17
5.190000E+03	6.663645E-17	2.775616E-17
5.200000E+03	6.691594E-17	2.725900E-17
5.210000E+03	6.720850E-17	2.673895E-17
5.220000E+03	6.751132E-17	2.619423E-17
5.230000E+03	6.782792E-17	2.562559E-17
5.240000E+03	6.815545E-17	2.503126E-17
5.250000E+03	6.849426E-17	2.441072E-17
5.260000E+03	6.884787E-17	2.376452E-17
5.270000E+03	6.921339E-17	2.309088E-17
5.280000E+03	6.959272E-17	2.238972E-17
5.290000E+03	6.998616E-17	2.166032E-17
5.300000E+03	7.039237E-17	2.090150E-17
5.310000E+03	7.081323E-17	2.011302E-17
5.320000E+03	7.124734E-17	1.929368E-17
5.330000E+03	7.169814E-17	1.844362E-17
5.340000E+03	7.216099E-17	1.756084E-17
5.350000E+03	7.264087E-17	1.664585E-17
5.360000E+03	7.313467E-17	1.569720E-17
5.370000E+03	7.364245E-17	1.471436E-17
5.380000E+03	7.416587E-17	1.369725E-17
5.390000E+03	7.470488E-17	1.264562E-17
5.400000E+03	7.525773E-17	1.155932E-17
5.410000E+03	7.582586E-17	1.043929E-17
5.420000E+03	7.640727E-17	9.286826E-18
5.430000E+03	7.700312E-17	8.105214E-18
5.440000E+03	7.761104E-17	6.900067E-18
5.450000E+03	7.823176E-17	5.682874E-18
5.460000E+03	7.886235E-17	4.477408E-18
5.470000E+03	7.950131E-17	3.341068E-18
5.480000E+03	8.014874E-17	2.431489E-18
5.490000E+03	8.080335E-17	2.125029E-18
5.500000E+03	8.146123E-17	2.668216E-18
5.510000E+03	8.212792E-17	3.712492E-18
5.520000E+03	8.279952E-17	4.947939E-18
5.530000E+03	8.348093E-17	6.255776E-18
5.540000E+03	8.417187E-17	7.590177E-18
5.550000E+03	8.487532E-17	8.930467E-18
5.560000E+03	8.559054E-17	1.026540E-17
5.570000E+03	8.631833E-17	1.158826E-17
5.580000E+03	8.705928E-17	1.289461E-17
5.590000E+03	8.781564E-17	1.418152E-17
5.600000E+03	8.858599E-17	1.544627E-17
5.610000E+03	8.937057E-17	1.668687E-17
5.620000E+03	9.016955E-17	1.790156E-17
5.630000E+03	9.098484E-17	1.908919E-17
5.640000E+03	9.181283E-17	2.024754E-17
5.650000E+03	9.265713E-17	2.137603E-17
5.660000E+03	9.351582E-17	2.247291E-17
5.670000E+03	9.439062E-17	2.353729E-17
5.680000E+03	9.527756E-17	2.456688E-17
5.690000E+03	9.617823E-17	2.556075E-17
5.700000E+03	9.709422E-17	2.651800E-17
5.710000E+03	9.802131E-17	2.743615E-17
5.720000E+03	9.896290E-17	2.831477E-17
5.730000E+03	9.991656E-17	2.915179E-17
5.740000E+03	1.008798E-16	2.994505E-17
5.750000E+03	1.018558E-16	3.069410E-17
5.760000E+03	1.028420E-16	3.139671E-17
5.770000E+03	1.038356E-16	3.205055E-17
5.780000E+03	1.048399E-16	3.265514E-17
5.790000E+03	1.058499E-16	3.320748E-17
5.800000E+03	1.068686E-16	3.370704E-17
5.810000E+03	1.078911E-16	3.415074E-17
5.820000E+03	1.089183E-16	3.453741E-17
5.830000E+03	1.099490E-16	3.486525E-17
5.840000E+03	1.109821E-16	3.513242E-17
5.850000E+03	1.120161E-16	3.533713E-17
5.860000E+03	1.130500E-16	3.547760E-17
5.870000E+03	1.140799E-16	3.555141E-17
5.880000E+03	1.151066E-16	3.555750E-17
5.890000E+03	1.161285E-16	3.549424E-17
5.900000E+03	1.171440E-16	3.536003E-17
5.910000E+03	1.181514E-16	3.515335E-17
5.920000E+03	1.191468E-16	3.487216E-17
5.930000E+03	1.201304E-16	3.451579E-17
5.940000E+03	1.210981E-16	3.408244E-17
5.950000E+03	1.220525E-16	3.357237E-17
5.960000E+03	1.229870E-16	3.298342E-17
5.970000E+03	1.239018E-16	3.231556E-17
5.980000E+03	1.247925E-16	3.156770E-17
5.990000E+03	1.256591E-16	3.074021E-17
6.000000E+03	1.264995E-16	2.983307E-17
6.010000E+03	1.273089E-16	2.884601E-17
6.020000E+03	1.280875E-16	2.778020E-17
6.030000E+03	1.288328E-16	2.663655E-17
6.040000E+03	1.295401E-16	2.541593E-17
6.050000E+03	1.302095E-16	2.412061E-17
6.060000E+03	1.308384E-16	2.275289E-17
6.070000E+03	1.314220E-16	2.131530E-17
6.080000E+03	1.319603E-16	1.981196E-17
6.090000E+03	1.324485E-16	1.824719E-17
6.100000E+03	1.328864E-16	1.662732E-17
6.110000E+03	1.332691E-16	1.495985E-17
6.120000E+03	1.335964E-16	1.325556E-17
6.130000E+03	1.338657E-16	1.152919E-17
6.140000E+03	1.340715E-16	9.802772E-18
6.150000E+03	1.342134E-16	8.112741E-18
6.160000E+03	1.342881E-16	6.524058E-18
6.170000E+03	1.342898E-16	5.163008E-18
6.180000E+03	1.342182E-16	4.268074E-18
6.190000E+03	1.340693E-16	4.134654E-18
6.200000E+03	1.338460E-16	4.779348E-18
6.210000E+03	1.335511E-16	5.891938E-18
6.220000E+03	1.331865E-16	7.193880E-18
6.230000E+03	1.327595E-16	8.536176E-18
6.240000E+03	1.322726E-16	9.844654E-18
6.250000E+03	1.317355E-16	1.108064E-17
6.260000E+03	1.311453E-16	1.222131E-17
6.270000E+03	1.305133E-16	1.325384E-17
6.280000E+03	1.298387E-16	1.416938E-17
6.290000E+03	1.291277E-16	1.496290E-17
6.300000E+03	1.283838E-16	1.563127E-17
6.310000E+03	1.276103E-16	1.617285E-17
6.320000E+03	1.268084E-16	1.658679E-17
6.330000E+03	1.259835E-16	1.687371E-17
6.340000E+03	1.251387E-16	1.703463E-17
6.350000E+03	1.242745E-16	1.707079E-17
6.360000E+03	1.233982E-16	1.698487E-17
6.370000E+03	1.225080E-16	1.677867E-17
6.380000E+03	1.216087E-16	1.645533E-17
6.390000E+03	1.207024E-16	1.601797E-17
6.400000E+03	1.197915E-16	1.547009E-17
6.410000E+03	1.188779E-16	1.481549E-17
6.420000E+03	1.179635E-16	1.405844E-17
6.430000E+03	1.170500E-16	1.320367E-17
6.440000E+03	1.161388E-16	1.225665E-17
6.450000E+03	1.152313E-16	1.122384E-17
6.460000E+03	1.143284E-16	1.011331E-17
6.470000E+03	1.134311E-16	8.935740E-18
6.480000E+03	1.125397E-16	7.706578E-18
6.490000E+03	1.116563E-16	6.450687E-18
6.500000E+03	1.107765E-16	5.212741E-18
6.510000E+03	1.099039E-16	4.085505E-18
6.520000E+03	1.090356E-16	3.269553E-18
6.530000E+03	1.081714E-16	3.091986E-18
6.540000E+03	1.073119E-16	3.677694E-18
6.550000E+03	1.064605E-16	4.757434E-18
6.560000E+03	1.056171E-16	6.064996E-18
6.570000E+03	1.047837E-16	7.468346E-18
6.580000E+03	1.039639E-16	8.907588E-18
6.590000E+03	1.031569E-16	1.035307E-17
6.600000E+03	1.023636E-16	1.178882E-17
6.610000E+03	1.015865E-16	1.320583E-17
6.620000E+03	1.008260E-16	1.459848E-17
6.630000E+03	1.000803E-16	1.596299E-17
6.640000E+03	9.934967E-17	1.729704E-17
6.650000E+03	9.863766E-17	1.859988E-17
6.660000E+03	9.793875E-17	1.986964E-17
6.670000E+03	9.725832E-17	2.110693E-17
6.680000E+03	9.659260E-17	2.231082E-17
6.690000E+03	9.594143E-17	2.348127E-17
6.700000E+03	9.530821E-17	2.461932E-17
6.710000E+03	9.468917E-17	2.572437E-17
6.720000E+03	9.408588E-17	2.679724E-17
6.730000E+03	9.349637E-17	2.783783E-17
6.740000E+03	9.292393E-17	2.884766E-17
6.750000E+03	9.236483E-17	2.982620E-17
6.760000E+03	9.182060E-17	3.077452E-17
6.770000E+03	9.129102E-17	3.169321E-17
6.780000E+03	9.077588E-17	3.258285E-17
6.790000E+03	9.027494E-17	3.344406E-17
6.800000E+03	8.978800E-17	3.427745E-17
6.810000E+03	8.931486E-17	3.508365E-17
6.820000E+03	8.885531E-17	3.586328E-17
6.830000E+03	8.840916E-17	3.661697E-17
6.840000E+03	8.797621E-17	3.734536E-17
6.850000E+03	8.755629E-17	3.804906E-17
6.860000E+03	8.715088E-17	3.872943E-17
6.870000E+03	8.675648E-17	3.938562E-17
6.880000E+03	8.637624E-17	4.001974E-17
6.890000E+03	8.600668E-17	4.063085E-17
6.900000E+03	8.565096E-17	4.122111E-17
6.910000E+03	8.530726E-17	4.179031E-17
6.920000E+03	8.497708E-17	4.233984E-17
6.930000E+03	8.465699E-17	4.286863E-17
6.940000E+03	8.435010E-17	4.337887E-17
6.950000E+03	8.405466E-17	4.387027E-17
6.960000E+03	8.377213E-17	4.434419E-17
6.970000E+03	8.350076E-17	4.480030E-17
6.980000E+03	8.324038E-17	4.523906E-17
6.990000E+03	8.299250E-17	4.566183E-17
7.000000E+03	8.275535E-17	4.606818E-17
7.010000E+03	8.252877E-17	4.645852E-17
7.020000E+03	8.231424E-17	4.683419E-17
7.030000E+03	8.211001E-17	4.719466E-17
7.040000E+03	8.191754E-17	4.754124E-17
7.050000E+03	8.173506E-17	4.787334E-17
7.060000E+03	8.156241E-17	4.819129E-17
7.070000E+03	8.140106E-17	4.849635E-17
7.080000E+03	8.125085E-17	4.878882E-17
7.090000E+03	8.111000E-17	4.906801E-17
7.100000E+03	8.097997E-17	4.933513E-17
7.110000E+03	8.085895E-17	4.958943E-17
7.120000E+03	8.074842E-17	4.983211E-17
7.130000E+03	8.064656E-17	5.006233E-17
7.140000E+03	8.055482E-17	5.028128E-17
7.150000E+03	8.047302E-17	5.048909E-17
7.160000E+03	8.039935E-17	5.068487E-17
7.170000E+03	8.033363E-17	5.086869E-17
7.180000E+03	8.027891E-17	5.104270E-17
7.190000E+03	8.023176E-17	5.120490E-17
7.200000E+03	8.019197E-17	5.135530E-17
7.210000E+03	8.016261E-17	5.149602E-17
7.220000E+03	8.014022E-17	5.162495E-17
7.230000E+03	8.012458E-17	5.174206E-17
7.240000E+03	8.011714E-17	5.184837E-17
7.250000E+03	8.011770E-17	5.194381E-17
7.260000E+03	8.012605E-17	5.202831E-17
7.270000E+03	8.014032E-17	5.210069E-17
7.280000E+03	8.016198E-17	5.216191E-17
7.290000E+03	8.019082E-17	5.221185E-17
7.300000E+03	8.022663E-17	5.225035E-17
7.310000E+03	8.026753E-17	5.227616E-17
7.320000E+03	8.031499E-17	5.229018E-17
7.330000E+03	8.036881E-17	5.229222E-17
7.340000E+03	8.042709E-17	5.228097E-17
7.350000E+03	8.049131E-17	5.225730E-17
7.360000E+03	8.056127E-17	5.222098E-17
7.370000E+03	8.063678E-17	5.217174E-17
7.380000E+03	8.071592E-17	5.210821E-17
7.390000E+03	8.080020E-17	5.203122E-17
7.400000E+03	8.088943E-17	5.194048E-17
7.410000E+03	8.098340E-17	5.183568E-17
7.420000E+03	8.108194E-17	5.171650E-17
7.430000E+03	8.118309E-17	5.158150E-17
7.440000E+03	8.128842E-17	5.143145E-17
7.450000E+03	8.139771E-17	5.126600E-17
7.460000E+03	8.151080E-17	5.108478E-17
7.470000E+03	8.162748E-17	5.088742E-17
7.480000E+03	8.174579E-17	5.067243E-17
7.490000E+03	8.186731E-17	5.044052E-17
7.500000E+03	8.199186E-17	5.019128E-17
7.510000E+03	8.211923E-17	4.992429E-17
7.520000E+03	8.224743E-17	4.963805E-17
7.530000E+03	8.237989E-17	4.933429E-17
7.540000E+03	8.251277E-17	4.901039E-17
7.550000E+03	8.264769E-17	4.866699E-17
7.560000E+03	8.278445E-17	4.830363E-17
7.570000E+03	8.292284E-17	4.791983E-17
7.580000E+03	8.306080E-17	4.751406E-17
7.590000E+03	8.320180E-17	4.708795E-17
7.600000E+03	8.334192E-17	4.663889E-17
7.610000E+03	8.348277E-17	4.616745E-17
7.620000E+03	8.362412E-17	4.567311E-17
7.630000E+03	8.376571E-17	4.515537E-17
7.640000E+03	8.390729E-17	4.461370E-17
7.650000E+03	8.404668E-17	4.404659E-17
7.660000E+03	8.418548E-17	4.345452E-17
7.670000E+03	8.432535E-17	4.283795E-17
7.680000E+03	8.446210E-17	4.219440E-17
7.690000E+03	8.459734E-17	4.152431E-17
7.700000E+03	8.472878E-17	4.082623E-17
7.710000E+03	8.485995E-17	4.010154E-17
7.720000E+03	8.498654E-17	3.934785E-17
7.730000E+03	8.511211E-17	3.856650E-17
7.740000E+03	8.523226E-17	3.775519E-17
7.750000E+03	8.534852E-17	3.691434E-17
7.760000E+03	8.546042E-17	3.604350E-17
