#wls	flux	fluxerr
1.600000E+03	5.046400E-17	1.027703E-18
1.640000E+03	5.168642E-17	1.046263E-18
1.680000E+03	5.301250E-17	1.066465E-18
1.720000E+03	5.446864E-17	1.088787E-18
1.760000E+03	5.605674E-17	1.113200E-18
1.800000E+03	5.778830E-17	1.139866E-18
1.840000E+03	5.970465E-17	1.169519E-18
1.880000E+03	6.181265E-17	1.202200E-18
1.920000E+03	6.413015E-17	1.238153E-18
1.960000E+03	6.671847E-17	1.278441E-18
2.000000E+03	6.958267E-17	1.323018E-18
2.040000E+03	7.278349E-17	1.372880E-18
2.080000E+03	7.637832E-17	1.428918E-18
2.120000E+03	8.040894E-17	1.491690E-18
2.160000E+03	8.494742E-17	1.562278E-18
2.200000E+03	9.007599E-17	1.641895E-18
2.240000E+03	9.586261E-17	1.731431E-18
2.280000E+03	1.023985E-16	1.832135E-18
2.320000E+03	1.097595E-16	1.944909E-18
2.360000E+03	1.180615E-16	2.071292E-18
2.400000E+03	1.274217E-16	2.212745E-18
2.440000E+03	1.379565E-16	2.370616E-18
2.480000E+03	1.498324E-16	2.547000E-18
2.520000E+03	1.632023E-16	2.743619E-18
2.560000E+03	1.782569E-16	2.962679E-18
2.600000E+03	1.952318E-16	3.206954E-18
2.640000E+03	2.143709E-16	3.479141E-18
2.680000E+03	2.359213E-16	3.781761E-18
2.720000E+03	2.602519E-16	4.119033E-18
2.760000E+03	2.876679E-16	4.493836E-18
2.800000E+03	3.186024E-16	4.910735E-18
2.840000E+03	3.533670E-16	5.372036E-18
2.880000E+03	3.923447E-16	5.880810E-18
2.920000E+03	4.357381E-16	6.437088E-18
2.960000E+03	4.837237E-16	7.040297E-18
3.000000E+03	5.362627E-16	7.686590E-18
3.010000E+03	5.501162E-16	7.854614E-18
3.020000E+03	5.641770E-16	8.023972E-18
3.030000E+03	5.785134E-16	8.195592E-18
3.040000E+03	5.930671E-16	8.368603E-18
3.050000E+03	6.078175E-16	8.542676E-18
3.060000E+03	6.227849E-16	8.718053E-18
3.070000E+03	6.378978E-16	8.893702E-18
3.080000E+03	6.531694E-16	9.069774E-18
3.090000E+03	6.685182E-16	9.245114E-18
3.100000E+03	6.839488E-16	9.419766E-18
3.110000E+03	6.994157E-16	9.593090E-18
3.120000E+03	7.148677E-16	9.764378E-18
3.130000E+03	7.302483E-16	9.932860E-18
3.140000E+03	7.454463E-16	1.009704E-17
3.150000E+03	7.604919E-16	1.025735E-17
3.160000E+03	7.752638E-16	1.041220E-17
3.170000E+03	7.896856E-16	1.056059E-17
3.180000E+03	8.037273E-16	1.070219E-17
3.190000E+03	8.172556E-16	1.083531E-17
3.200000E+03	8.302359E-16	1.095956E-17
3.210000E+03	8.425840E-16	1.107394E-17
3.220000E+03	8.542166E-16	1.117746E-17
3.230000E+03	8.649989E-16	1.126850E-17
3.240000E+03	8.749569E-16	1.134754E-17
3.250000E+03	8.840179E-16	1.141379E-17
3.260000E+03	8.920624E-16	1.146586E-17
3.270000E+03	8.990832E-16	1.150385E-17
3.280000E+03	9.049749E-16	1.152658E-17
3.290000E+03	9.097976E-16	1.153503E-17
3.300000E+03	9.134614E-16	1.152825E-17
3.310000E+03	9.159878E-16	1.150672E-17
3.320000E+03	9.173006E-16	1.146968E-17
3.330000E+03	9.174828E-16	1.141838E-17
3.340000E+03	9.164667E-16	1.135219E-17
3.350000E+03	9.142410E-16	1.127118E-17
3.360000E+03	9.108886E-16	1.117658E-17
3.370000E+03	9.063483E-16	1.106786E-17
3.380000E+03	9.006090E-16	1.094508E-17
3.390000E+03	8.937499E-16	1.080942E-17
3.400000E+03	8.857115E-16	1.066037E-17
3.410000E+03	8.764829E-16	1.049801E-17
3.420000E+03	8.661875E-16	1.032401E-17
3.430000E+03	8.547377E-16	1.013754E-17
3.440000E+03	8.422257E-16	9.939885E-18
3.450000E+03	8.286375E-16	9.731074E-18
3.460000E+03	8.141339E-16	9.513176E-18
3.470000E+03	7.987444E-16	9.286698E-18
3.480000E+03	7.826398E-16	9.053777E-18
3.490000E+03	7.659180E-16	8.815663E-18
3.500000E+03	7.488512E-16	8.575586E-18
3.510000E+03	7.316153E-16	8.335612E-18
3.520000E+03	7.145252E-16	8.099340E-18
3.530000E+03	6.978715E-16	7.870024E-18
3.540000E+03	6.820125E-16	7.651609E-18
3.550000E+03	6.672817E-16	7.447678E-18
3.560000E+03	6.540875E-16	7.262571E-18
3.570000E+03	6.427815E-16	7.099905E-18
3.580000E+03	6.336712E-16	6.962732E-18
3.590000E+03	6.269911E-16	6.853237E-18
3.600000E+03	6.226934E-16	6.770479E-18
3.610000E+03	6.205443E-16	6.711516E-18
3.620000E+03	6.201327E-16	6.671558E-18
3.630000E+03	6.210082E-16	6.645484E-18
3.640000E+03	6.226927E-16	6.627988E-18
3.650000E+03	6.247536E-16	6.614350E-18
3.660000E+03	6.267547E-16	6.599916E-18
3.670000E+03	6.283878E-16	6.581469E-18
3.680000E+03	6.292963E-16	6.555359E-18
3.690000E+03	6.292629E-16	6.519457E-18
3.700000E+03	6.280768E-16	6.471754E-18
3.710000E+03	6.256569E-16	6.411614E-18
3.720000E+03	6.219618E-16	6.338821E-18
3.730000E+03	6.170159E-16	6.253841E-18
3.740000E+03	6.109986E-16	6.158690E-18
3.750000E+03	6.041181E-16	6.055634E-18
3.760000E+03	5.966450E-16	5.947514E-18
3.770000E+03	5.889514E-16	5.838116E-18
3.780000E+03	5.814780E-16	5.731819E-18
3.790000E+03	5.746587E-16	5.632841E-18
3.800000E+03	5.689974E-16	5.545981E-18
3.810000E+03	5.649641E-16	5.475603E-18
3.820000E+03	5.630716E-16	5.426380E-18
3.830000E+03	5.637977E-16	5.402541E-18
3.840000E+03	5.676130E-16	5.408142E-18
3.850000E+03	5.749939E-16	5.447195E-18
3.860000E+03	5.864112E-16	5.523558E-18
3.870000E+03	6.023296E-16	5.640935E-18
3.880000E+03	6.231760E-16	5.802581E-18
3.890000E+03	6.493945E-16	6.011826E-18
3.900000E+03	6.813597E-16	6.271268E-18
3.910000E+03	7.193849E-16	6.582872E-18
3.920000E+03	7.636618E-16	6.947438E-18
3.930000E+03	8.141654E-16	7.363772E-18
3.940000E+03	8.706560E-16	7.828763E-18
3.950000E+03	9.325214E-16	8.336034E-18
3.960000E+03	9.987359E-16	8.875663E-18
3.970000E+03	1.067881E-15	9.434490E-18
3.980000E+03	1.137988E-15	9.994812E-18
3.990000E+03	1.206760E-15	1.053648E-17
4.000000E+03	1.271663E-15	1.103779E-17
4.010000E+03	1.330057E-15	1.147658E-17
4.020000E+03	1.379438E-15	1.183244E-17
4.030000E+03	1.417798E-15	1.208968E-17
4.040000E+03	1.443662E-15	1.223750E-17
4.050000E+03	1.456276E-15	1.227149E-17
4.060000E+03	1.455791E-15	1.219491E-17
4.070000E+03	1.443023E-15	1.201654E-17
4.080000E+03	1.419482E-15	1.175069E-17
4.090000E+03	1.387129E-15	1.141509E-17
4.100000E+03	1.348238E-15	1.102961E-17
4.110000E+03	1.305097E-15	1.061379E-17
4.120000E+03	1.259883E-15	1.018581E-17
4.130000E+03	1.214572E-15	9.761828E-18
4.140000E+03	1.170757E-15	9.354524E-18
4.150000E+03	1.129749E-15	8.974085E-18
4.160000E+03	1.092420E-15	8.626962E-18
4.170000E+03	1.059415E-15	8.317677E-18
4.180000E+03	1.031042E-15	8.048004E-18
4.190000E+03	1.007453E-15	7.818478E-18
4.200000E+03	9.885466E-16	7.627644E-18
4.210000E+03	9.741588E-16	7.473608E-18
4.220000E+03	9.639804E-16	7.353406E-18
4.230000E+03	9.575982E-16	7.263347E-18
4.240000E+03	9.545378E-16	7.199368E-18
4.250000E+03	9.542615E-16	7.157017E-18
4.260000E+03	9.562095E-16	7.131779E-18
4.270000E+03	9.597358E-16	7.118602E-18
4.280000E+03	9.642121E-16	7.112676E-18
4.290000E+03	9.690023E-16	7.109238E-18
4.300000E+03	9.734720E-16	7.103646E-18
4.310000E+03	9.769688E-16	7.091221E-18
4.320000E+03	9.789049E-16	7.067856E-18
4.330000E+03	9.787131E-16	7.029672E-18
4.340000E+03	9.758804E-16	6.973258E-18
4.350000E+03	9.699658E-16	6.895781E-18
4.360000E+03	9.606856E-16	6.795571E-18
4.370000E+03	9.478879E-16	6.671902E-18
4.380000E+03	9.316142E-16	6.525404E-18
4.390000E+03	9.121513E-16	6.358397E-18
4.400000E+03	8.900275E-16	6.174824E-18
4.410000E+03	8.660129E-16	5.980221E-18
4.420000E+03	8.410308E-16	5.781066E-18
4.430000E+03	8.160969E-16	5.584349E-18
4.440000E+03	7.922299E-16	5.396953E-18
4.450000E+03	7.704422E-16	5.225599E-18
4.460000E+03	7.516071E-16	5.075954E-18
4.470000E+03	7.365241E-16	4.953098E-18
4.480000E+03	7.258024E-16	4.860760E-18
4.490000E+03	7.199260E-16	4.801778E-18
4.500000E+03	7.192613E-16	4.778178E-18
4.510000E+03	7.240142E-16	4.790901E-18
4.520000E+03	7.343002E-16	4.840292E-18
4.530000E+03	7.501007E-16	4.925823E-18
4.540000E+03	7.712449E-16	5.045991E-18
4.550000E+03	7.974069E-16	5.198319E-18
4.560000E+03	8.280361E-16	5.378920E-18
4.570000E+03	8.623615E-16	5.582545E-18
4.580000E+03	8.993242E-16	5.802172E-18
4.590000E+03	9.376079E-16	6.029228E-18
4.600000E+03	9.756288E-16	6.253540E-18
4.610000E+03	1.011612E-15	6.463848E-18
4.620000E+03	1.043725E-15	6.648664E-18
4.630000E+03	1.070220E-15	6.797166E-18
4.640000E+03	1.089670E-15	6.900682E-18
4.650000E+03	1.101125E-15	6.953628E-18
4.660000E+03	1.104272E-15	6.954487E-18
4.670000E+03	1.099507E-15	6.906172E-18
4.680000E+03	1.087905E-15	6.815805E-18
4.690000E+03	1.071167E-15	6.694325E-18
4.700000E+03	1.051397E-15	6.555058E-18
4.710000E+03	1.030797E-15	6.411810E-18
4.720000E+03	1.011166E-15	6.275729E-18
4.730000E+03	9.932180E-16	6.151155E-18
4.740000E+03	9.764945E-16	6.035139E-18
4.750000E+03	9.598909E-16	5.920776E-18
4.760000E+03	9.423156E-16	5.801301E-18
4.770000E+03	9.229053E-16	5.671402E-18
4.780000E+03	9.011911E-16	5.528219E-18
4.790000E+03	8.770572E-16	5.371075E-18
4.800000E+03	8.507259E-16	5.201358E-18
4.810000E+03	8.227318E-16	5.022350E-18
4.820000E+03	7.938246E-16	4.838622E-18
4.830000E+03	7.648474E-16	4.655285E-18
4.840000E+03	7.366579E-16	4.477510E-18
4.850000E+03	7.100842E-16	4.310263E-18
4.860000E+03	6.858290E-16	4.157727E-18
4.870000E+03	6.644580E-16	4.023240E-18
4.880000E+03	6.463859E-16	3.909218E-18
4.890000E+03	6.318497E-16	3.816995E-18
4.900000E+03	6.209646E-16	3.747176E-18
4.910000E+03	6.137091E-16	3.699543E-18
4.920000E+03	6.099819E-16	3.673402E-18
4.930000E+03	6.095776E-16	3.667448E-18
4.940000E+03	6.122451E-16	3.680105E-18
4.950000E+03	6.176973E-16	3.709593E-18
4.960000E+03	6.255819E-16	3.753753E-18
4.970000E+03	6.355029E-16	3.810171E-18
4.980000E+03	6.470034E-16	3.876083E-18
4.990000E+03	6.595593E-16	3.948329E-18
5.000000E+03	6.725515E-16	4.023195E-18
5.010000E+03	6.852912E-16	4.096558E-18
5.020000E+03	6.970472E-16	4.164059E-18
5.030000E+03	7.070895E-16	4.221351E-18
5.040000E+03	7.147418E-16	4.264421E-18
5.050000E+03	7.195108E-16	4.290353E-18
5.060000E+03	7.211375E-16	4.297635E-18
5.070000E+03	7.196551E-16	4.286494E-18
5.080000E+03	7.154070E-16	4.259002E-18
5.090000E+03	7.089980E-16	4.218779E-18
5.100000E+03	7.012226E-16	4.170566E-18
5.110000E+03	6.929855E-16	4.119747E-18
5.120000E+03	6.852037E-16	4.071774E-18
5.130000E+03	6.787080E-16	4.031574E-18
5.140000E+03	6.741862E-16	4.003219E-18
5.150000E+03	6.721349E-16	3.989644E-18
5.160000E+03	6.728695E-16	3.992704E-18
5.170000E+03	6.764762E-16	4.012896E-18
5.180000E+03	6.828811E-16	4.049771E-18
5.190000E+03	6.918616E-16	4.102000E-18
5.200000E+03	7.031118E-16	4.167764E-18
5.210000E+03	7.162703E-16	4.244920E-18
5.220000E+03	7.310128E-16	4.331552E-18
5.230000E+03	7.470652E-16	4.426039E-18
5.240000E+03	7.642403E-16	4.527284E-18
5.250000E+03	7.824077E-16	4.634523E-18
5.260000E+03	8.015186E-16	4.747483E-18
5.270000E+03	8.215374E-16	4.865967E-18
5.280000E+03	8.424030E-16	4.989631E-18
5.290000E+03	8.639712E-16	5.117639E-18
5.300000E+03	8.860035E-16	5.248600E-18
5.310000E+03	9.080756E-16	5.380023E-18
5.320000E+03	9.296151E-16	5.508537E-18
5.330000E+03	9.499021E-16	5.629899E-18
5.340000E+03	9.680838E-16	5.739070E-18
5.350000E+03	9.832319E-16	5.830560E-18
5.360000E+03	9.944391E-16	5.898992E-18
5.370000E+03	1.000899E-15	5.939573E-18
5.380000E+03	1.002008E-15	5.948706E-18
5.390000E+03	9.974108E-16	5.924252E-18
5.400000E+03	9.871328E-16	5.866297E-18
5.410000E+03	9.715666E-16	5.777104E-18
5.420000E+03	9.514725E-16	5.661117E-18
5.430000E+03	9.279084E-16	5.524556E-18
5.440000E+03	9.021664E-16	5.375048E-18
5.450000E+03	8.756367E-16	5.220828E-18
5.460000E+03	8.497451E-16	5.070362E-18
5.470000E+03	8.258643E-16	4.931830E-18
5.480000E+03	8.052319E-16	4.812635E-18
5.490000E+03	7.887612E-16	4.718267E-18
5.500000E+03	7.768102E-16	4.650916E-18
5.510000E+03	7.690957E-16	4.608943E-18
5.520000E+03	7.649239E-16	4.588245E-18
5.530000E+03	7.635281E-16	4.584266E-18
5.540000E+03	7.641475E-16	4.592476E-18
5.550000E+03	7.660752E-16	4.608650E-18
5.560000E+03	7.686863E-16	4.629040E-18
5.570000E+03	7.714548E-16	4.650484E-18
5.580000E+03	7.739129E-16	4.670154E-18
5.590000E+03	7.757154E-16	4.685955E-18
5.600000E+03	7.765854E-16	4.696193E-18
5.610000E+03	7.763412E-16	4.699744E-18
5.620000E+03	7.748875E-16	4.696006E-18
5.630000E+03	7.721879E-16	4.684726E-18
5.640000E+03	7.682563E-16	4.665961E-18
5.650000E+03	7.631396E-16	4.639967E-18
5.660000E+03	7.569013E-16	4.607101E-18
5.670000E+03	7.496074E-16	4.567739E-18
5.680000E+03	7.413178E-16	4.522222E-18
5.690000E+03	7.320912E-16	4.470884E-18
5.700000E+03	7.219724E-16	4.413978E-18
5.710000E+03	7.110030E-16	4.351738E-18
5.720000E+03	6.992561E-16	4.284592E-18
5.730000E+03	6.868306E-16	4.213129E-18
5.740000E+03	6.738738E-16	4.138239E-18
5.750000E+03	6.605931E-16	4.061186E-18
5.760000E+03	6.472551E-16	3.983602E-18
5.770000E+03	6.342095E-16	3.907641E-18
5.780000E+03	6.218398E-16	3.835675E-18
5.790000E+03	6.105742E-16	3.770362E-18
5.800000E+03	6.008576E-16	3.714475E-18
5.810000E+03	5.931346E-16	3.670799E-18
5.820000E+03	5.878007E-16	3.641827E-18
5.830000E+03	5.852210E-16	3.629872E-18
5.840000E+03	5.856582E-16	3.636626E-18
5.850000E+03	5.892968E-16	3.663300E-18
5.860000E+03	5.961780E-16	3.710220E-18
5.870000E+03	6.061917E-16	3.776769E-18
5.880000E+03	6.190738E-16	3.861371E-18
5.890000E+03	6.343473E-16	3.961111E-18
5.900000E+03	6.513630E-16	4.071988E-18
5.910000E+03	6.692958E-16	4.188881E-18
5.920000E+03	6.871913E-16	4.305837E-18
5.930000E+03	7.040594E-16	4.416652E-18
5.940000E+03	7.189404E-16	4.515283E-18
5.950000E+03	7.310139E-16	4.596539E-18
5.960000E+03	7.397044E-16	4.656741E-18
5.970000E+03	7.446811E-16	4.693738E-18
5.980000E+03	7.458782E-16	4.707036E-18
5.990000E+03	7.435106E-16	4.697912E-18
6.000000E+03	7.379335E-16	4.668538E-18
6.010000E+03	7.296615E-16	4.622099E-18
6.020000E+03	7.192337E-16	4.561955E-18
6.030000E+03	7.072149E-16	4.491641E-18
6.040000E+03	6.941198E-16	4.414393E-18
6.050000E+03	6.804185E-16	4.333177E-18
6.060000E+03	6.664966E-16	4.250436E-18
6.070000E+03	6.526822E-16	4.168260E-18
6.080000E+03	6.392144E-16	4.088180E-18
6.090000E+03	6.263083E-16	4.011581E-18
6.100000E+03	6.140947E-16	3.939317E-18
6.110000E+03	6.026764E-16	3.872068E-18
6.120000E+03	5.921386E-16	3.810403E-18
6.130000E+03	5.824988E-16	3.754461E-18
6.140000E+03	5.737662E-16	3.704330E-18
6.150000E+03	5.659030E-16	3.659792E-18
6.160000E+03	5.588431E-16	3.620448E-18
6.170000E+03	5.524869E-16	3.585678E-18
6.180000E+03	5.467017E-16	3.554646E-18
6.190000E+03	5.413076E-16	3.526190E-18
6.200000E+03	5.361008E-16	3.498982E-18
6.210000E+03	5.308239E-16	3.471333E-18
6.220000E+03	5.252268E-16	3.441589E-18
6.230000E+03	5.191048E-16	3.408380E-18
6.240000E+03	5.122997E-16	3.370633E-18
6.250000E+03	5.047303E-16	3.327771E-18
6.260000E+03	4.964053E-16	3.279809E-18
6.270000E+03	4.874450E-16	3.227499E-18
6.280000E+03	4.780342E-16	3.172028E-18
6.290000E+03	4.684641E-16	3.115300E-18
6.300000E+03	4.590681E-16	3.059521E-18
6.310000E+03	4.502172E-16	3.007164E-18
6.320000E+03	4.422873E-16	2.960761E-18
6.330000E+03	4.356285E-16	2.922693E-18
6.340000E+03	4.305594E-16	2.895149E-18
6.350000E+03	4.273308E-16	2.879887E-18
6.360000E+03	4.261366E-16	2.878291E-18
6.370000E+03	4.270824E-16	2.891164E-18
6.380000E+03	4.302110E-16	2.918887E-18
6.390000E+03	4.354700E-16	2.961198E-18
6.400000E+03	4.427388E-16	3.017368E-18
6.410000E+03	4.518022E-16	3.086012E-18
6.420000E+03	4.623625E-16	3.165169E-18
6.430000E+03	4.740445E-16	3.252327E-18
6.440000E+03	4.864074E-16	3.344498E-18
6.450000E+03	4.989628E-16	3.438342E-18
6.460000E+03	5.112057E-16	3.530370E-18
6.470000E+03	5.226277E-16	3.617043E-18
6.480000E+03	5.327998E-16	3.695341E-18
6.490000E+03	5.413443E-16	3.762575E-18
6.500000E+03	5.479894E-16	3.816771E-18
6.510000E+03	5.525947E-16	3.856859E-18
6.520000E+03	5.550927E-16	3.882273E-18
6.530000E+03	5.555509E-16	3.893389E-18
6.540000E+03	5.541100E-16	3.891102E-18
6.550000E+03	5.509726E-16	3.876755E-18
6.560000E+03	5.463928E-16	3.852065E-18
6.570000E+03	5.406670E-16	3.819065E-18
6.580000E+03	5.341153E-16	3.779972E-18
6.590000E+03	5.270574E-16	3.737020E-18
6.600000E+03	5.198345E-16	3.692613E-18
6.610000E+03	5.127602E-16	3.648978E-18
6.620000E+03	5.061370E-16	3.608278E-18
6.630000E+03	5.002536E-16	3.572594E-18
6.640000E+03	4.953372E-16	3.543579E-18
6.650000E+03	4.915952E-16	3.522759E-18
6.660000E+03	4.891622E-16	3.511140E-18
6.670000E+03	4.881219E-16	3.509372E-18
6.680000E+03	4.884824E-16	3.517562E-18
6.690000E+03	4.901712E-16	3.535232E-18
6.700000E+03	4.930610E-16	3.561507E-18
6.710000E+03	4.969285E-16	3.594808E-18
6.720000E+03	5.015157E-16	3.633294E-18
6.730000E+03	5.064992E-16	3.674638E-18
6.740000E+03	5.115417E-16	3.716399E-18
6.750000E+03	5.162822E-16	3.755948E-18
6.760000E+03	5.204132E-16	3.791033E-18
6.770000E+03	5.236361E-16	3.819457E-18
6.780000E+03	5.257263E-16	3.839552E-18
6.790000E+03	5.265468E-16	3.850283E-18
6.800000E+03	5.260028E-16	3.850924E-18
6.810000E+03	5.241183E-16	3.841614E-18
6.820000E+03	5.209487E-16	3.822731E-18
6.830000E+03	5.166328E-16	3.795264E-18
6.840000E+03	5.113109E-16	3.760222E-18
6.850000E+03	5.051876E-16	3.719093E-18
6.860000E+03	4.984459E-16	3.673211E-18
6.870000E+03	4.912641E-16	3.623886E-18
6.880000E+03	4.838220E-16	3.572442E-18
6.890000E+03	4.762753E-16	3.520031E-18
6.900000E+03	4.687541E-16	3.467619E-18
6.910000E+03	4.613882E-16	3.416176E-18
6.920000E+03	4.542632E-16	3.366347E-18
6.930000E+03	4.474688E-16	3.318807E-18
6.940000E+03	4.410699E-16	3.274052E-18
6.950000E+03	4.351357E-16	3.232608E-18
6.960000E+03	4.297249E-16	3.194928E-18
6.970000E+03	4.248945E-16	3.161450E-18
6.980000E+03	4.206965E-16	3.132577E-18
6.990000E+03	4.171901E-16	3.108767E-18
7.000000E+03	4.144406E-16	3.090523E-18
7.010000E+03	4.125041E-16	3.078282E-18
7.020000E+03	4.114220E-16	3.072370E-18
7.030000E+03	4.112258E-16	3.073042E-18
7.040000E+03	4.119298E-16	3.080424E-18
7.050000E+03	4.135048E-16	3.094315E-18
7.060000E+03	4.158892E-16	3.114272E-18
7.070000E+03	4.189787E-16	3.139533E-18
7.080000E+03	4.226252E-16	3.169002E-18
7.090000E+03	4.266463E-16	3.201326E-18
7.100000E+03	4.308072E-16	3.234754E-18
7.110000E+03	4.348715E-16	3.267519E-18
7.120000E+03	4.385928E-16	3.297773E-18
7.130000E+03	4.417393E-16	3.323775E-18
7.140000E+03	4.441146E-16	3.344044E-18
7.150000E+03	4.455675E-16	3.357437E-18
7.160000E+03	4.460247E-16	3.363394E-18
7.170000E+03	4.454675E-16	3.361765E-18
7.180000E+03	4.439556E-16	3.352990E-18
7.190000E+03	4.415885E-16	3.337812E-18
7.200000E+03	4.385122E-16	3.317326E-18
7.210000E+03	4.348954E-16	3.292802E-18
7.220000E+03	4.309208E-16	3.265621E-18
7.230000E+03	4.267463E-16	3.236978E-18
7.240000E+03	4.225417E-16	3.208163E-18
7.250000E+03	4.184282E-16	3.180102E-18
7.260000E+03	4.145177E-16	3.153652E-18
7.270000E+03	4.108750E-16	3.129317E-18
7.280000E+03	4.075406E-16	3.107417E-18
7.290000E+03	4.045117E-16	3.087944E-18
7.300000E+03	4.017387E-16	3.070531E-18
7.310000E+03	3.991689E-16	3.054789E-18
7.320000E+03	3.967172E-16	3.040075E-18
7.330000E+03	3.942763E-16	3.025576E-18
7.340000E+03	3.917580E-16	3.010620E-18
7.350000E+03	3.890768E-16	2.994550E-18
7.360000E+03	3.861620E-16	2.976821E-18
7.370000E+03	3.829565E-16	2.956987E-18
7.380000E+03	3.794375E-16	2.934863E-18
7.390000E+03	3.755980E-16	2.910386E-18
7.400000E+03	3.714461E-16	2.883607E-18
7.410000E+03	3.670148E-16	2.854769E-18
7.420000E+03	3.623532E-16	2.824241E-18
7.430000E+03	3.575177E-16	2.792452E-18
7.440000E+03	3.525860E-16	2.760000E-18
7.450000E+03	3.476320E-16	2.727457E-18
7.460000E+03	3.427511E-16	2.695568E-18
7.470000E+03	3.380188E-16	2.664929E-18
7.480000E+03	3.335336E-16	2.636325E-18
7.490000E+03	3.293703E-16	2.610359E-18
7.500000E+03	3.256162E-16	2.587741E-18
7.510000E+03	3.223213E-16	2.568896E-18
7.520000E+03	3.194812E-16	2.553817E-18
7.530000E+03	3.170472E-16	2.542145E-18
7.540000E+03	3.149544E-16	2.533386E-18
7.550000E+03	3.131290E-16	2.526974E-18
7.560000E+03	3.115220E-16	2.522533E-18
7.570000E+03	3.100916E-16	2.519741E-18
7.580000E+03	3.088245E-16	2.518497E-18
7.590000E+03	3.077111E-16	2.518731E-18
7.600000E+03	3.067673E-16	2.520578E-18
7.610000E+03	3.059917E-16	2.524036E-18
7.620000E+03	3.053983E-16	2.529230E-18
7.630000E+03	3.049862E-16	2.536164E-18
7.640000E+03	3.047637E-16	2.544921E-18
7.650000E+03	3.047107E-16	2.555345E-18
7.660000E+03	3.048209E-16	2.567397E-18
7.670000E+03	3.050612E-16	2.580811E-18
7.680000E+03	3.054110E-16	2.595421E-18
7.690000E+03	3.058444E-16	2.611013E-18
7.700000E+03	3.063434E-16	2.627440E-18
7.710000E+03	3.068784E-16	2.644450E-18
7.720000E+03	3.074414E-16	2.661974E-18
7.730000E+03	3.080241E-16	2.679941E-18
7.740000E+03	3.086236E-16	2.698322E-18
7.750000E+03	3.092459E-16	2.717168E-18
7.760000E+03	3.098831E-16	2.736409E-18
