#wls	flux	fluxerr
1.600000E+03	2.099894E-17	4.979814E-20
1.640000E+03	2.135758E-17	5.063620E-20
1.680000E+03	2.174294E-17	5.153730E-20
1.720000E+03	2.215257E-17	5.249559E-20
1.760000E+03	2.259604E-17	5.353371E-20
1.800000E+03	2.307531E-17	5.465626E-20
1.840000E+03	2.358831E-17	5.585828E-20
1.880000E+03	2.414135E-17	5.715465E-20
1.920000E+03	2.473687E-17	5.855113E-20
1.960000E+03	2.537748E-17	6.005378E-20
2.000000E+03	2.607049E-17	6.167989E-20
2.040000E+03	2.681458E-17	6.342623E-20
2.080000E+03	2.761766E-17	6.531144E-20
2.120000E+03	2.848831E-17	6.735575E-20
2.160000E+03	2.942590E-17	6.955756E-20
2.200000E+03	3.043974E-17	7.193880E-20
2.240000E+03	3.153470E-17	7.451089E-20
2.280000E+03	3.272123E-17	7.729837E-20
2.320000E+03	3.400513E-17	8.031489E-20
2.360000E+03	3.539811E-17	8.358791E-20
2.400000E+03	3.690118E-17	8.711976E-20
2.440000E+03	3.853855E-17	9.096740E-20
2.480000E+03	4.030617E-17	9.512111E-20
2.520000E+03	4.222358E-17	9.962691E-20
2.560000E+03	4.430521E-17	1.045186E-19
2.600000E+03	4.655912E-17	1.098150E-19
2.640000E+03	4.900635E-17	1.155656E-19
2.680000E+03	5.164709E-17	1.217707E-19
2.720000E+03	5.450777E-17	1.284922E-19
2.760000E+03	5.759193E-17	1.357384E-19
2.800000E+03	6.090645E-17	1.435251E-19
2.840000E+03	6.446075E-17	1.518745E-19
2.880000E+03	6.824905E-17	1.607725E-19
2.920000E+03	7.226288E-17	1.701992E-19
2.960000E+03	7.647955E-17	1.801008E-19
3.000000E+03	8.085779E-17	1.903800E-19
3.010000E+03	8.196193E-17	1.929719E-19
3.020000E+03	8.308291E-17	1.956033E-19
3.030000E+03	8.420143E-17	1.982287E-19
3.040000E+03	8.532463E-17	2.008650E-19
3.050000E+03	8.644175E-17	2.034867E-19
3.060000E+03	8.756882E-17	2.061317E-19
3.070000E+03	8.868586E-17	2.087529E-19
3.080000E+03	8.979977E-17	2.113666E-19
3.090000E+03	9.090839E-17	2.139676E-19
3.100000E+03	9.200951E-17	2.165509E-19
3.110000E+03	9.310084E-17	2.191109E-19
3.120000E+03	9.418003E-17	2.216422E-19
3.130000E+03	9.524475E-17	2.241393E-19
3.140000E+03	9.629262E-17	2.265965E-19
3.150000E+03	9.733050E-17	2.290301E-19
3.160000E+03	9.834688E-17	2.314130E-19
3.170000E+03	9.933032E-17	2.337182E-19
3.180000E+03	1.003062E-16	2.360055E-19
3.190000E+03	1.012449E-16	2.382052E-19
3.200000E+03	1.021719E-16	2.403773E-19
3.210000E+03	1.030580E-16	2.424529E-19
3.220000E+03	1.039198E-16	2.444714E-19
3.230000E+03	1.047557E-16	2.464288E-19
3.240000E+03	1.055555E-16	2.483011E-19
3.250000E+03	1.063361E-16	2.501282E-19
3.260000E+03	1.070785E-16	2.518653E-19
3.270000E+03	1.077821E-16	2.535111E-19
3.280000E+03	1.084642E-16	2.551063E-19
3.290000E+03	1.091157E-16	2.566293E-19
3.300000E+03	1.097276E-16	2.580592E-19
3.310000E+03	1.103173E-16	2.594370E-19
3.320000E+03	1.108765E-16	2.607428E-19
3.330000E+03	1.114052E-16	2.619769E-19
3.340000E+03	1.119124E-16	2.631604E-19
3.350000E+03	1.123900E-16	2.642741E-19
3.360000E+03	1.128379E-16	2.653182E-19
3.370000E+03	1.132652E-16	2.663136E-19
3.380000E+03	1.136716E-16	2.672601E-19
3.390000E+03	1.140490E-16	2.681382E-19
3.400000E+03	1.144050E-16	2.689660E-19
3.410000E+03	1.147391E-16	2.697422E-19
3.420000E+03	1.150419E-16	2.704451E-19
3.430000E+03	1.153281E-16	2.711085E-19
3.440000E+03	1.155872E-16	2.717086E-19
3.450000E+03	1.158166E-16	2.722387E-19
3.460000E+03	1.160201E-16	2.727081E-19
3.470000E+03	1.161779E-16	2.730702E-19
3.480000E+03	1.163000E-16	2.733480E-19
3.490000E+03	1.163790E-16	2.735248E-19
3.500000E+03	1.164072E-16	2.735823E-19
3.510000E+03	1.163681E-16	2.734815E-19
3.520000E+03	1.162582E-16	2.732145E-19
3.530000E+03	1.160657E-16	2.727532E-19
3.540000E+03	1.157773E-16	2.720669E-19
3.550000E+03	1.153796E-16	2.711237E-19
3.560000E+03	1.148588E-16	2.698914E-19
3.570000E+03	1.142089E-16	2.683559E-19
3.580000E+03	1.134134E-16	2.664784E-19
3.590000E+03	1.124731E-16	2.642610E-19
3.600000E+03	1.113863E-16	2.616993E-19
3.610000E+03	1.101846E-16	2.588681E-19
3.620000E+03	1.088807E-16	2.557968E-19
3.630000E+03	1.075072E-16	2.525623E-19
3.640000E+03	1.060909E-16	2.492277E-19
3.650000E+03	1.046631E-16	2.458660E-19
3.660000E+03	1.032423E-16	2.425213E-19
3.670000E+03	1.018509E-16	2.392455E-19
3.680000E+03	1.005136E-16	2.360975E-19
3.690000E+03	9.924376E-17	2.331078E-19
3.700000E+03	9.806669E-17	2.303363E-19
3.710000E+03	9.698801E-17	2.277961E-19
3.720000E+03	9.603024E-17	2.255401E-19
3.730000E+03	9.519753E-17	2.235779E-19
3.740000E+03	9.451072E-17	2.219586E-19
3.750000E+03	9.397765E-17	2.207004E-19
3.760000E+03	9.361444E-17	2.198412E-19
3.770000E+03	9.342948E-17	2.194007E-19
3.780000E+03	9.343952E-17	2.194182E-19
3.790000E+03	9.365806E-17	2.199253E-19
3.800000E+03	9.409949E-17	2.209557E-19
3.810000E+03	9.477919E-17	2.225457E-19
3.820000E+03	9.571731E-17	2.247423E-19
3.830000E+03	9.692423E-17	2.275700E-19
3.840000E+03	9.842606E-17	2.310899E-19
3.850000E+03	1.002390E-16	2.353403E-19
3.860000E+03	1.023876E-16	2.403782E-19
3.870000E+03	1.048932E-16	2.462542E-19
3.880000E+03	1.077777E-16	2.530193E-19
3.890000E+03	1.110586E-16	2.607150E-19
3.900000E+03	1.147601E-16	2.693973E-19
3.910000E+03	1.189043E-16	2.791187E-19
3.920000E+03	1.234986E-16	2.898960E-19
3.930000E+03	1.285608E-16	3.017711E-19
3.940000E+03	1.340897E-16	3.147413E-19
3.950000E+03	1.400785E-16	3.287901E-19
3.960000E+03	1.465120E-16	3.438821E-19
3.970000E+03	1.533462E-16	3.599140E-19
3.980000E+03	1.605411E-16	3.767917E-19
3.990000E+03	1.680151E-16	3.943238E-19
3.998910E+03	2.719961E-16	6.383486E-19
4.000380E+03	2.767514E-16	6.495064E-19
4.001850E+03	2.810175E-16	6.595162E-19
4.003320E+03	2.896398E-16	6.797493E-19
4.004790E+03	2.929033E-16	6.874059E-19
4.006260E+03	2.970480E-16	6.971305E-19
4.007730E+03	2.940223E-16	6.900272E-19
4.009200E+03	2.973597E-16	6.978571E-19
4.010670E+03	2.968058E-16	6.965548E-19
4.012140E+03	2.977449E-16	6.987564E-19
4.013610E+03	3.018905E-16	7.084829E-19
4.015080E+03	3.063302E-16	7.188994E-19
4.016550E+03	3.081754E-16	7.232273E-19
4.018020E+03	3.076709E-16	7.220408E-19
4.019490E+03	3.046695E-16	7.149945E-19
4.020960E+03	3.053888E-16	7.166802E-19
4.022430E+03	3.084094E-16	7.237664E-19
4.023900E+03	3.118220E-16	7.317724E-19
4.025370E+03	3.167772E-16	7.433984E-19
4.026840E+03	3.179378E-16	7.461195E-19
4.028310E+03	3.148628E-16	7.389005E-19
4.029780E+03	3.146279E-16	7.383468E-19
4.031250E+03	3.131442E-16	7.348623E-19
4.032720E+03	3.156272E-16	7.406868E-19
4.034190E+03	3.189430E-16	7.484653E-19
4.035660E+03	3.215487E-16	7.545777E-19
4.037130E+03	3.194285E-16	7.495997E-19
4.038600E+03	3.205408E-16	7.522072E-19
4.040070E+03	3.227061E-16	7.572859E-19
4.041540E+03	3.220063E-16	7.556410E-19
4.043010E+03	3.223840E-16	7.565249E-19
4.044480E+03	3.228108E-16	7.575236E-19
4.045950E+03	3.262013E-16	7.654774E-19
4.047420E+03	3.313312E-16	7.775127E-19
4.048890E+03	3.364613E-16	7.895486E-19
4.050360E+03	3.360314E-16	7.885370E-19
4.051830E+03	3.326619E-16	7.806273E-19
4.053300E+03	3.338731E-16	7.834670E-19
4.054770E+03	3.379753E-16	7.930906E-19
4.056240E+03	3.342136E-16	7.842607E-19
4.057710E+03	3.348372E-16	7.857212E-19
4.059180E+03	3.305361E-16	7.756258E-19
4.060650E+03	3.273129E-16	7.680598E-19
4.062120E+03	3.254127E-16	7.635981E-19
4.063590E+03	3.239533E-16	7.601710E-19
4.065060E+03	3.215873E-16	7.546165E-19
4.066530E+03	3.172607E-16	7.444616E-19
4.068000E+03	3.161196E-16	7.417815E-19
4.069470E+03	3.215217E-16	7.544550E-19
4.070940E+03	3.183466E-16	7.470021E-19
4.072410E+03	3.140930E-16	7.370185E-19
4.073880E+03	3.150350E-16	7.392264E-19
4.075350E+03	3.195310E-16	7.497737E-19
4.076820E+03	3.176300E-16	7.453106E-19
4.078290E+03	3.186213E-16	7.476342E-19
4.079760E+03	3.211326E-16	7.535242E-19
4.081230E+03	3.146721E-16	7.383626E-19
4.082700E+03	3.146094E-16	7.382130E-19
4.084170E+03	3.078053E-16	7.222450E-19
4.085640E+03	2.958278E-16	6.941384E-19
4.087110E+03	2.888264E-16	6.777078E-19
4.088580E+03	2.815304E-16	6.605861E-19
4.090050E+03	2.805105E-16	6.581908E-19
4.091520E+03	2.709088E-16	6.356593E-19
4.092990E+03	2.589772E-16	6.076610E-19
4.094460E+03	2.557251E-16	6.000284E-19
4.095930E+03	2.548268E-16	5.979186E-19
4.097400E+03	2.525798E-16	5.926444E-19
4.098870E+03	2.506269E-16	5.880602E-19
4.100340E+03	2.488455E-16	5.838784E-19
4.103280E+03	2.456503E-16	5.763777E-19
4.104750E+03	2.364543E-16	5.547989E-19
4.106220E+03	2.348243E-16	5.509726E-19
4.107690E+03	2.380876E-16	5.586275E-19
4.109160E+03	2.448050E-16	5.743867E-19
4.110630E+03	2.513119E-16	5.896519E-19
4.112100E+03	2.555649E-16	5.996286E-19
4.113570E+03	2.601126E-16	6.102969E-19
4.115040E+03	2.664760E-16	6.252252E-19
4.116510E+03	2.696261E-16	6.326142E-19
4.117980E+03	2.775852E-16	6.512861E-19
4.119450E+03	2.825270E-16	6.628787E-19
4.120920E+03	2.834943E-16	6.651461E-19
4.122390E+03	2.872835E-16	6.740343E-19
4.123860E+03	2.836379E-16	6.654787E-19
4.125330E+03	2.901512E-16	6.807582E-19
4.126800E+03	2.938676E-16	6.894754E-19
4.128270E+03	2.905409E-16	6.816680E-19
4.129740E+03	2.844898E-16	6.674690E-19
4.131210E+03	2.864884E-16	6.721559E-19
4.132680E+03	2.917024E-16	6.843867E-19
4.134150E+03	2.947078E-16	6.914357E-19
4.135620E+03	3.007817E-16	7.056837E-19
4.137090E+03	3.085743E-16	7.239642E-19
4.138560E+03	3.102061E-16	7.277902E-19
4.140030E+03	3.051363E-16	7.158936E-19
4.141500E+03	3.061054E-16	7.181647E-19
4.142970E+03	3.072218E-16	7.207817E-19
4.144440E+03	3.101060E-16	7.275462E-19
4.145910E+03	3.125976E-16	7.333894E-19
4.147380E+03	3.149667E-16	7.389452E-19
4.148850E+03	3.171396E-16	7.440407E-19
4.150320E+03	3.153838E-16	7.399191E-19
4.151790E+03	3.114916E-16	7.307853E-19
4.153260E+03	3.060275E-16	7.179638E-19
4.154730E+03	3.076847E-16	7.218495E-19
4.156200E+03	3.063706E-16	7.187641E-19
4.157670E+03	3.091332E-16	7.252431E-19
4.159140E+03	3.094891E-16	7.260759E-19
4.160610E+03	3.054977E-16	7.167096E-19
4.162080E+03	3.030043E-16	7.108577E-19
4.163550E+03	2.962859E-16	6.950939E-19
4.165020E+03	2.938902E-16	6.894714E-19
4.166490E+03	2.921331E-16	6.853471E-19
4.167960E+03	2.893195E-16	6.787443E-19
4.169430E+03	2.892819E-16	6.786539E-19
4.170900E+03	2.873526E-16	6.741257E-19
4.172370E+03	2.824502E-16	6.626226E-19
4.173840E+03	2.788742E-16	6.542313E-19
4.175310E+03	2.819814E-16	6.615187E-19
4.176780E+03	2.787492E-16	6.539340E-19
4.178250E+03	2.723959E-16	6.390275E-19
4.181190E+03	2.689775E-16	6.310041E-19
4.182660E+03	2.640239E-16	6.193814E-19
4.184130E+03	2.557029E-16	5.998592E-19
4.185600E+03	2.516580E-16	5.903682E-19
4.187070E+03	2.485958E-16	5.831828E-19
4.188540E+03	2.443192E-16	5.731485E-19
4.190010E+03	2.437123E-16	5.717229E-19
4.191480E+03	2.419106E-16	5.674946E-19
4.192950E+03	2.415247E-16	5.665877E-19
4.194420E+03	2.411143E-16	5.656233E-19
4.195890E+03	2.400549E-16	5.631362E-19
4.197360E+03	2.371465E-16	5.563118E-19
4.198830E+03	2.383144E-16	5.590499E-19
4.200300E+03	2.415184E-16	5.665643E-19
4.201770E+03	2.407195E-16	5.646884E-19
4.203240E+03	2.407370E-16	5.647278E-19
4.206180E+03	2.402163E-16	5.635027E-19
4.207650E+03	2.371694E-16	5.563538E-19
4.209120E+03	2.375853E-16	5.573276E-19
4.210590E+03	2.351482E-16	5.516089E-19
4.212060E+03	2.336626E-16	5.481225E-19
4.213530E+03	2.335349E-16	5.478212E-19
4.215000E+03	2.331021E-16	5.468043E-19
4.216470E+03	2.350334E-16	5.513330E-19
4.217940E+03	2.401285E-16	5.632832E-19
4.219410E+03	2.442744E-16	5.730069E-19
4.220880E+03	2.478278E-16	5.813405E-19
4.222350E+03	2.524887E-16	5.922721E-19
4.223820E+03	2.583804E-16	6.060904E-19
4.225290E+03	2.618858E-16	6.143114E-19
4.226760E+03	2.665725E-16	6.253033E-19
4.228230E+03	2.698079E-16	6.328908E-19
4.229700E+03	2.720346E-16	6.381120E-19
4.231170E+03	2.760089E-16	6.474326E-19
4.232640E+03	2.732645E-16	6.409932E-19
4.234110E+03	2.726612E-16	6.395761E-19
4.235580E+03	2.702365E-16	6.338866E-19
4.237050E+03	2.690177E-16	6.310260E-19
4.238520E+03	2.702113E-16	6.338237E-19
4.239990E+03	2.696079E-16	6.324065E-19
4.241460E+03	2.681674E-16	6.290259E-19
4.242930E+03	2.703705E-16	6.341916E-19
4.244400E+03	2.700871E-16	6.335251E-19
4.245870E+03	2.691637E-16	6.313573E-19
4.247340E+03	2.678215E-16	6.282071E-19
4.248810E+03	2.677598E-16	6.280604E-19
4.250280E+03	2.673040E-16	6.269896E-19
4.251750E+03	2.638685E-16	6.189294E-19
4.253220E+03	2.631170E-16	6.171649E-19
4.254690E+03	2.669464E-16	6.261452E-19
4.256160E+03	2.701604E-16	6.336822E-19
4.257630E+03	2.712073E-16	6.361358E-19
4.259100E+03	2.732641E-16	6.409584E-19
4.260570E+03	2.728333E-16	6.399461E-19
4.262040E+03	2.760484E-16	6.474852E-19
4.263510E+03	2.793129E-16	6.551406E-19
4.264980E+03	2.803360E-16	6.575382E-19
4.266450E+03	2.758156E-16	6.469338E-19
4.267920E+03	2.786619E-16	6.536080E-19
4.269390E+03	2.829129E-16	6.635768E-19
4.270860E+03	2.812506E-16	6.596759E-19
4.272330E+03	2.808694E-16	6.587800E-19
4.273800E+03	2.753872E-16	6.459196E-19
4.275270E+03	2.739708E-16	6.425956E-19
4.276740E+03	2.725049E-16	6.391556E-19
4.278210E+03	2.747114E-16	6.443291E-19
4.279680E+03	2.755132E-16	6.462077E-19
4.281150E+03	2.703992E-16	6.342112E-19
4.282620E+03	2.656793E-16	6.231390E-19
4.284090E+03	2.623640E-16	6.153615E-19
4.285560E+03	2.590977E-16	6.076988E-19
4.287030E+03	2.551409E-16	5.984167E-19
4.288500E+03	2.553257E-16	5.988484E-19
4.289970E+03	2.537847E-16	5.952323E-19
4.291440E+03	2.497532E-16	5.857751E-19
4.292910E+03	2.459457E-16	5.768433E-19
4.294380E+03	2.415115E-16	5.664417E-19
4.295850E+03	2.400509E-16	5.630145E-19
4.297320E+03	2.389972E-16	5.605416E-19
4.298790E+03	2.382937E-16	5.588899E-19
4.300260E+03	2.327459E-16	5.458768E-19
4.301730E+03	2.317682E-16	5.435822E-19
4.303200E+03	2.321422E-16	5.444578E-19
4.304670E+03	2.292280E-16	5.376215E-19
4.306140E+03	2.214660E-16	5.194154E-19
4.307610E+03	2.166711E-16	5.081683E-19
4.309080E+03	2.143480E-16	5.027182E-19
4.310550E+03	2.091205E-16	4.904568E-19
4.312020E+03	2.054224E-16	4.817822E-19
4.313490E+03	1.980103E-16	4.643971E-19
4.314960E+03	1.949628E-16	4.572483E-19
4.316430E+03	1.953205E-16	4.580861E-19
4.317900E+03	1.951033E-16	4.575755E-19
4.319370E+03	1.909964E-16	4.479424E-19
4.320840E+03	1.884070E-16	4.418682E-19
4.322310E+03	1.860569E-16	4.363554E-19
4.323780E+03	1.796436E-16	4.213132E-19
4.325250E+03	1.772977E-16	4.158102E-19
4.326720E+03	1.777313E-16	4.168261E-19
4.328190E+03	1.784761E-16	4.185716E-19
4.329660E+03	1.766607E-16	4.143129E-19
4.331130E+03	1.776006E-16	4.165162E-19
4.332600E+03	1.763751E-16	4.136409E-19
4.334070E+03	1.753125E-16	4.111477E-19
4.335540E+03	1.774798E-16	4.162294E-19
4.337010E+03	1.803315E-16	4.229161E-19
4.338480E+03	1.833884E-16	4.300842E-19
4.339950E+03	1.876237E-16	4.400156E-19
4.341420E+03	1.913211E-16	4.486855E-19
4.342890E+03	1.963034E-16	4.603687E-19
4.344360E+03	2.029658E-16	4.759921E-19
4.345830E+03	2.062966E-16	4.838020E-19
4.347300E+03	2.070140E-16	4.854833E-19
4.348770E+03	2.109037E-16	4.946038E-19
4.350240E+03	2.131236E-16	4.998086E-19
4.351710E+03	2.139256E-16	5.016881E-19
4.353180E+03	2.125235E-16	4.983987E-19
4.354650E+03	2.091766E-16	4.905482E-19
4.356120E+03	2.076926E-16	4.870668E-19
4.357590E+03	2.059960E-16	4.830868E-19
4.359060E+03	2.053694E-16	4.816161E-19
4.360530E+03	2.060007E-16	4.830953E-19
4.362000E+03	2.090422E-16	4.902266E-19
4.363470E+03	2.112411E-16	4.953820E-19
4.364940E+03	2.133635E-16	5.003580E-19
4.366410E+03	2.156124E-16	5.056305E-19
4.367880E+03	2.166576E-16	5.080801E-19
4.369350E+03	2.140040E-16	5.018560E-19
4.370820E+03	2.087442E-16	4.895200E-19
4.372290E+03	2.054322E-16	4.817520E-19
4.373760E+03	2.062743E-16	4.837254E-19
4.375230E+03	2.045916E-16	4.797782E-19
4.376700E+03	2.025329E-16	4.749491E-19
4.378170E+03	2.024921E-16	4.748523E-19
4.379640E+03	2.001016E-16	4.692452E-19
4.381110E+03	1.986781E-16	4.659057E-19
4.382580E+03	1.972790E-16	4.626237E-19
4.384050E+03	1.950141E-16	4.573112E-19
4.385520E+03	1.934367E-16	4.536111E-19
4.386990E+03	1.936305E-16	4.540644E-19
4.389930E+03	1.911878E-16	4.483338E-19
4.391400E+03	1.895777E-16	4.445570E-19
4.392870E+03	1.877819E-16	4.403448E-19
4.394340E+03	1.846273E-16	4.329462E-19
4.395810E+03	1.806952E-16	4.237245E-19
4.397280E+03	1.774037E-16	4.160050E-19
4.398750E+03	1.759905E-16	4.126900E-19
4.400220E+03	1.760278E-16	4.127763E-19
4.401690E+03	1.751615E-16	4.107438E-19
4.403160E+03	1.754661E-16	4.114571E-19
4.404630E+03	1.754340E-16	4.113808E-19
4.406100E+03	1.731440E-16	4.060099E-19
4.407570E+03	1.705021E-16	3.998139E-19
4.409040E+03	1.695611E-16	3.976062E-19
4.410510E+03	1.713241E-16	4.017394E-19
4.411980E+03	1.744965E-16	4.091773E-19
4.413450E+03	1.755863E-16	4.117318E-19
4.414920E+03	1.732040E-16	4.061444E-19
4.416390E+03	1.737145E-16	4.073405E-19
4.417860E+03	1.732317E-16	4.062073E-19
4.419330E+03	1.715797E-16	4.023325E-19
4.420800E+03	1.730711E-16	4.058287E-19
4.422270E+03	1.743374E-16	4.087969E-19
4.423740E+03	1.775908E-16	4.164248E-19
4.425210E+03	1.791301E-16	4.200331E-19
4.426680E+03	1.758971E-16	4.124513E-19
4.428150E+03	1.773522E-16	4.158622E-19
4.429620E+03	1.811767E-16	4.248290E-19
4.431090E+03	1.818269E-16	4.263525E-19
4.432560E+03	1.810297E-16	4.244823E-19
4.434030E+03	1.812810E-16	4.250705E-19
4.435500E+03	1.815596E-16	4.257226E-19
4.436970E+03	1.792278E-16	4.202540E-19
4.438440E+03	1.800469E-16	4.221734E-19
4.439910E+03	1.837394E-16	4.308306E-19
4.441380E+03	1.871746E-16	4.388843E-19
4.442850E+03	1.905109E-16	4.467063E-19
4.444320E+03	1.916731E-16	4.494302E-19
4.445790E+03	1.895669E-16	4.444906E-19
4.447260E+03	1.899207E-16	4.453191E-19
4.448730E+03	1.874026E-16	4.394135E-19
4.450200E+03	1.815060E-16	4.255864E-19
4.451670E+03	1.779080E-16	4.171491E-19
4.453140E+03	1.767407E-16	4.144109E-19
4.454610E+03	1.730950E-16	4.058618E-19
4.456080E+03	1.675409E-16	3.928381E-19
4.457550E+03	1.644599E-16	3.856129E-19
4.459020E+03	1.593662E-16	3.736688E-19
4.460490E+03	1.576963E-16	3.697524E-19
4.461960E+03	1.560509E-16	3.658935E-19
4.463430E+03	1.509508E-16	3.539344E-19
4.464900E+03	1.432641E-16	3.359106E-19
4.466370E+03	1.396270E-16	3.273821E-19
4.467840E+03	1.349147E-16	3.163324E-19
4.469310E+03	1.304153E-16	3.057820E-19
4.470780E+03	1.302026E-16	3.052825E-19
4.475190E+03	1.302124E-16	3.053033E-19
4.476660E+03	1.289841E-16	3.024226E-19
4.478130E+03	1.256300E-16	2.945577E-19
4.479600E+03	1.260850E-16	2.956238E-19
4.481070E+03	1.260408E-16	2.955196E-19
4.482540E+03	1.279513E-16	2.999984E-19
4.484010E+03	1.320828E-16	3.096845E-19
4.485480E+03	1.366867E-16	3.204781E-19
4.486950E+03	1.405560E-16	3.295492E-19
4.488420E+03	1.451163E-16	3.402407E-19
4.489890E+03	1.479307E-16	3.468385E-19
4.491360E+03	1.538338E-16	3.606782E-19
4.492830E+03	1.590073E-16	3.728070E-19
4.494300E+03	1.605781E-16	3.764891E-19
4.495770E+03	1.643883E-16	3.854214E-19
4.497240E+03	1.710496E-16	4.010385E-19
4.498710E+03	1.735363E-16	4.068679E-19
4.500180E+03	1.750240E-16	4.103549E-19
4.501650E+03	1.772030E-16	4.154627E-19
4.503120E+03	1.798770E-16	4.217311E-19
4.504590E+03	1.835308E-16	4.302968E-19
4.506060E+03	1.874712E-16	4.395342E-19
4.507530E+03	1.940949E-16	4.550626E-19
4.509000E+03	2.007817E-16	4.707390E-19
4.510470E+03	2.057684E-16	4.824294E-19
4.511940E+03	2.108900E-16	4.944360E-19
4.513410E+03	2.174549E-16	5.098263E-19
4.514880E+03	2.220980E-16	5.207109E-19
4.516350E+03	2.242567E-16	5.257709E-19
4.517820E+03	2.271073E-16	5.324529E-19
4.519290E+03	2.308190E-16	5.411539E-19
4.520760E+03	2.355986E-16	5.523584E-19
4.522230E+03	2.416055E-16	5.664402E-19
4.523700E+03	2.446794E-16	5.736457E-19
4.525170E+03	2.481944E-16	5.818850E-19
4.526640E+03	2.509980E-16	5.884568E-19
4.528110E+03	2.526820E-16	5.924035E-19
4.529580E+03	2.552872E-16	5.985100E-19
4.531050E+03	2.561006E-16	6.004158E-19
4.532520E+03	2.563417E-16	6.009795E-19
4.533990E+03	2.562093E-16	6.006679E-19
4.535460E+03	2.545334E-16	5.967374E-19
4.536930E+03	2.538034E-16	5.950247E-19
4.538400E+03	2.534965E-16	5.943039E-19
4.539870E+03	2.513719E-16	5.893217E-19
4.541340E+03	2.516127E-16	5.898850E-19
4.542810E+03	2.533479E-16	5.939516E-19
4.544280E+03	2.546598E-16	5.970261E-19
4.545750E+03	2.552497E-16	5.984075E-19
4.547220E+03	2.538220E-16	5.950592E-19
4.548690E+03	2.536894E-16	5.947471E-19
4.550160E+03	2.514144E-16	5.894122E-19
4.551630E+03	2.486906E-16	5.830254E-19
4.553100E+03	2.478875E-16	5.811414E-19
4.554570E+03	2.477520E-16	5.808225E-19
4.556040E+03	2.490918E-16	5.839621E-19
4.557510E+03	2.494049E-16	5.846950E-19
4.558980E+03	2.452297E-16	5.749056E-19
4.560450E+03	2.421082E-16	5.675864E-19
