#wls	flux	fluxerr
1.600000E+03	6.912228E-18	1.142294E-19
1.640000E+03	6.971039E-18	1.149364E-19
1.680000E+03	7.031504E-18	1.156592E-19
1.720000E+03	7.093512E-18	1.163956E-19
1.760000E+03	7.156935E-18	1.171427E-19
1.800000E+03	7.222842E-18	1.179177E-19
1.840000E+03	7.291070E-18	1.187171E-19
1.880000E+03	7.360191E-18	1.195171E-19
1.920000E+03	7.429959E-18	1.203132E-19
1.960000E+03	7.502595E-18	1.211407E-19
2.000000E+03	7.575303E-18	1.219539E-19
2.040000E+03	7.648979E-18	1.227666E-19
2.080000E+03	7.723224E-18	1.235719E-19
2.120000E+03	7.798856E-18	1.243824E-19
2.160000E+03	7.872834E-18	1.251489E-19
2.200000E+03	7.947123E-18	1.259025E-19
2.240000E+03	8.019818E-18	1.266125E-19
2.280000E+03	8.090206E-18	1.272676E-19
2.320000E+03	8.160060E-18	1.278953E-19
2.360000E+03	8.225961E-18	1.284421E-19
2.400000E+03	8.286968E-18	1.288933E-19
2.440000E+03	8.344608E-18	1.292732E-19
2.480000E+03	8.396498E-18	1.295452E-19
2.520000E+03	8.441456E-18	1.296918E-19
2.560000E+03	8.479491E-18	1.297140E-19
2.600000E+03	8.508034E-18	1.295738E-19
2.640000E+03	8.526985E-18	1.292713E-19
2.680000E+03	8.534966E-18	1.287873E-19
2.720000E+03	8.529414E-18	1.280856E-19
2.760000E+03	8.511459E-18	1.271857E-19
2.800000E+03	8.478694E-18	1.260545E-19
2.840000E+03	8.431255E-18	1.246975E-19
2.880000E+03	8.367186E-18	1.230892E-19
2.920000E+03	8.287138E-18	1.212434E-19
2.960000E+03	8.190999E-18	1.191624E-19
3.000000E+03	8.080192E-18	1.168713E-19
3.010000E+03	8.049837E-18	1.162609E-19
3.020000E+03	8.018259E-18	1.156333E-19
3.030000E+03	7.986505E-18	1.150037E-19
3.040000E+03	7.953580E-18	1.143577E-19
3.050000E+03	7.919521E-18	1.136960E-19
3.060000E+03	7.885356E-18	1.130334E-19
3.070000E+03	7.850128E-18	1.123562E-19
3.080000E+03	7.814852E-18	1.116790E-19
3.090000E+03	7.778591E-18	1.109885E-19
3.100000E+03	7.741397E-18	1.102854E-19
3.110000E+03	7.703330E-18	1.095707E-19
3.120000E+03	7.665386E-18	1.088586E-19
3.130000E+03	7.626675E-18	1.081365E-19
3.140000E+03	7.588186E-18	1.074185E-19
3.150000E+03	7.549053E-18	1.066922E-19
3.160000E+03	7.509350E-18	1.059588E-19
3.170000E+03	7.470051E-18	1.052322E-19
3.180000E+03	7.430329E-18	1.045005E-19
3.190000E+03	7.390270E-18	1.037651E-19
3.200000E+03	7.350835E-18	1.030395E-19
3.210000E+03	7.311233E-18	1.023126E-19
3.220000E+03	7.272417E-18	1.015978E-19
3.230000E+03	7.233620E-18	1.008842E-19
3.240000E+03	7.194954E-18	1.001734E-19
3.250000E+03	7.157360E-18	9.947860E-20
3.260000E+03	7.120111E-18	9.878955E-20
3.270000E+03	7.083331E-18	9.810799E-20
3.280000E+03	7.047954E-18	9.744681E-20
3.290000E+03	7.014089E-18	9.680742E-20
3.300000E+03	6.980275E-18	9.616960E-20
3.310000E+03	6.948245E-18	9.555716E-20
3.320000E+03	6.918128E-18	9.497178E-20
3.330000E+03	6.888524E-18	9.439414E-20
3.340000E+03	6.861903E-18	9.385797E-20
3.350000E+03	6.836132E-18	9.333395E-20
3.360000E+03	6.812904E-18	9.284512E-20
3.370000E+03	6.792390E-18	9.239359E-20
3.380000E+03	6.773289E-18	9.196151E-20
3.390000E+03	6.758019E-18	9.158153E-20
3.400000E+03	6.744577E-18	9.122630E-20
3.410000E+03	6.734643E-18	9.091833E-20
3.420000E+03	6.728435E-18	9.066031E-20
3.430000E+03	6.724751E-18	9.043578E-20
3.440000E+03	6.725987E-18	9.027670E-20
3.450000E+03	6.730261E-18	9.015749E-20
3.460000E+03	6.739266E-18	9.010053E-20
3.470000E+03	6.753281E-18	9.010917E-20
3.480000E+03	6.771194E-18	9.016819E-20
3.490000E+03	6.795422E-18	9.030941E-20
3.500000E+03	6.824182E-18	9.050867E-20
3.510000E+03	6.859212E-18	9.078857E-20
3.520000E+03	6.900860E-18	9.115322E-20
3.530000E+03	6.948084E-18	9.158833E-20
3.540000E+03	7.003366E-18	9.212606E-20
3.550000E+03	7.064975E-18	9.274303E-20
3.560000E+03	7.134718E-18	9.346235E-20
3.570000E+03	7.212999E-18	9.428864E-20
3.580000E+03	7.299518E-18	9.521721E-20
3.590000E+03	7.394682E-18	9.625268E-20
3.600000E+03	7.498905E-18	9.739966E-20
3.610000E+03	7.613339E-18	9.867230E-20
3.620000E+03	7.738429E-18	1.000754E-19
3.630000E+03	7.873869E-18	1.016042E-19
3.640000E+03	8.020096E-18	1.032632E-19
3.650000E+03	8.177555E-18	1.050574E-19
3.660000E+03	8.347489E-18	1.070015E-19
3.670000E+03	8.529605E-18	1.090907E-19
3.680000E+03	8.725210E-18	1.113406E-19
3.690000E+03	8.934021E-18	1.137464E-19
3.700000E+03	9.157416E-18	1.163243E-19
3.710000E+03	9.394262E-18	1.190586E-19
3.720000E+03	9.646849E-18	1.219770E-19
3.730000E+03	9.915825E-18	1.250863E-19
3.740000E+03	1.020095E-17	1.283819E-19
3.750000E+03	1.050286E-17	1.318702E-19
3.760000E+03	1.082319E-17	1.355702E-19
3.770000E+03	1.116070E-17	1.394646E-19
3.780000E+03	1.151910E-17	1.435980E-19
3.790000E+03	1.189611E-17	1.479401E-19
3.800000E+03	1.229455E-17	1.525239E-19
3.810000E+03	1.271415E-17	1.573443E-19
3.820000E+03	1.315681E-17	1.624224E-19
3.830000E+03	1.362221E-17	1.677522E-19
3.840000E+03	1.411113E-17	1.733412E-19
3.850000E+03	1.462435E-17	1.791962E-19
3.860000E+03	1.516390E-17	1.853400E-19
3.870000E+03	1.572931E-17	1.917643E-19
3.880000E+03	1.632132E-17	1.984752E-19
3.890000E+03	1.694204E-17	2.054960E-19
3.900000E+03	1.759083E-17	2.128157E-19
3.910000E+03	1.826827E-17	2.204389E-19
3.920000E+03	1.897499E-17	2.283700E-19
3.930000E+03	1.971311E-17	2.366315E-19
3.940000E+03	2.048160E-17	2.452080E-19
3.950000E+03	2.128082E-17	2.541007E-19
3.960000E+03	2.211111E-17	2.633104E-19
3.970000E+03	2.297454E-17	2.728586E-19
3.980000E+03	2.386951E-17	2.827228E-19
3.990000E+03	2.479608E-17	2.929006E-19
4.000000E+03	2.575417E-17	3.033875E-19
4.010000E+03	2.674359E-17	3.141782E-19
4.020000E+03	2.776622E-17	3.252913E-19
4.030000E+03	2.881960E-17	3.366947E-19
4.040000E+03	2.990087E-17	3.483517E-19
4.050000E+03	3.101392E-17	3.603045E-19
4.060000E+03	3.215817E-17	3.725429E-19
4.070000E+03	3.332782E-17	3.849967E-19
4.080000E+03	3.452421E-17	3.976785E-19
4.090000E+03	3.574884E-17	4.106026E-19
4.100000E+03	3.699788E-17	4.237219E-19
4.110000E+03	3.826700E-17	4.369844E-19
4.120000E+03	3.956033E-17	4.504348E-19
4.130000E+03	4.087340E-17	4.640197E-19
4.140000E+03	4.220450E-17	4.777174E-19
4.150000E+03	4.355177E-17	4.915048E-19
4.160000E+03	4.491327E-17	5.053580E-19
4.170000E+03	4.628698E-17	5.192531E-19
4.180000E+03	4.767087E-17	5.331655E-19
4.190000E+03	4.906278E-17	5.470699E-19
4.200000E+03	5.046418E-17	5.609815E-19
4.210000E+03	5.186567E-17	5.747951E-19
4.220000E+03	5.326858E-17	5.885250E-19
4.230000E+03	5.467062E-17	6.021456E-19
4.240000E+03	5.606946E-17	6.156313E-19
4.250000E+03	5.746280E-17	6.289569E-19
4.260000E+03	5.884825E-17	6.420967E-19
4.270000E+03	6.022336E-17	6.550246E-19
4.280000E+03	6.158139E-17	6.676686E-19
4.290000E+03	6.292808E-17	6.800922E-19
4.300000E+03	6.425205E-17	6.921739E-19
4.310000E+03	6.555894E-17	7.039763E-19
4.320000E+03	6.683644E-17	7.153696E-19
4.330000E+03	6.808504E-17	7.263617E-19
4.340000E+03	6.930020E-17	7.369075E-19
4.350000E+03	7.047665E-17	7.469543E-19
4.360000E+03	7.160820E-17	7.564408E-19
4.370000E+03	7.268314E-17	7.652484E-19
4.380000E+03	7.369914E-17	7.733586E-19
4.390000E+03	7.465086E-17	7.807216E-19
4.400000E+03	7.553669E-17	7.873276E-19
4.410000E+03	7.635900E-17	7.932081E-19
4.420000E+03	7.711719E-17	7.983637E-19
4.430000E+03	7.782098E-17	8.029014E-19
4.440000E+03	7.847475E-17	8.068721E-19
4.450000E+03	7.908231E-17	8.103204E-19
4.460000E+03	7.964178E-17	8.132319E-19
4.470000E+03	8.016089E-17	8.156906E-19
4.480000E+03	8.064184E-17	8.177232E-19
4.490000E+03	8.108139E-17	8.193010E-19
4.500000E+03	8.148616E-17	8.204954E-19
4.510000E+03	8.185746E-17	8.213233E-19
4.520000E+03	8.219127E-17	8.217479E-19
4.530000E+03	8.249366E-17	8.218338E-19
4.540000E+03	8.276547E-17	8.215925E-19
4.550000E+03	8.300230E-17	8.209838E-19
4.560000E+03	8.320989E-17	8.200680E-19
4.570000E+03	8.338376E-17	8.188042E-19
4.580000E+03	8.352956E-17	8.172514E-19
4.590000E+03	8.364781E-17	8.154176E-19
4.600000E+03	8.373400E-17	8.132619E-19
4.610000E+03	8.379380E-17	8.108427E-19
4.620000E+03	8.382779E-17	8.081685E-19
4.630000E+03	8.383164E-17	8.052004E-19
4.640000E+03	8.380613E-17	8.019492E-19
4.650000E+03	8.375714E-17	7.984742E-19
4.660000E+03	8.368558E-17	7.947864E-19
4.670000E+03	8.358753E-17	7.908514E-19
4.680000E+03	8.346904E-17	7.867292E-19
4.690000E+03	8.332641E-17	7.823871E-19
4.700000E+03	8.316576E-17	7.778852E-19
4.710000E+03	8.298353E-17	7.731922E-19
4.720000E+03	8.278587E-17	7.683677E-19
4.730000E+03	8.256927E-17	7.633811E-19
4.740000E+03	8.233985E-17	7.582906E-19
4.750000E+03	8.209418E-17	7.530664E-19
4.760000E+03	8.183832E-17	7.477659E-19
4.770000E+03	8.156895E-17	7.423598E-19
4.780000E+03	8.129220E-17	7.369052E-19
4.790000E+03	8.100483E-17	7.313741E-19
4.800000E+03	8.070846E-17	7.257821E-19
4.810000E+03	8.041381E-17	7.202264E-19
4.820000E+03	8.010880E-17	7.145991E-19
4.830000E+03	7.980420E-17	7.089972E-19
4.840000E+03	7.949718E-17	7.033958E-19
4.850000E+03	7.919388E-17	6.978493E-19
4.860000E+03	7.889149E-17	6.923328E-19
4.870000E+03	7.859601E-17	6.868988E-19
4.880000E+03	7.830458E-17	6.815219E-19
4.890000E+03	7.802302E-17	6.762521E-19
4.900000E+03	7.774830E-17	6.710624E-19
4.910000E+03	7.748173E-17	6.659635E-19
4.920000E+03	7.722869E-17	6.610008E-19
4.930000E+03	7.698593E-17	6.561452E-19
4.940000E+03	7.675853E-17	6.514390E-19
4.950000E+03	7.654303E-17	6.468514E-19
4.960000E+03	7.634422E-17	6.424216E-19
4.970000E+03	7.615839E-17	6.381169E-19
4.980000E+03	7.598595E-17	6.339396E-19
4.990000E+03	7.583128E-17	6.299248E-19
5.000000E+03	7.569041E-17	6.260379E-19
5.010000E+03	7.556753E-17	6.223123E-19
5.020000E+03	7.545854E-17	6.187126E-19
5.030000E+03	7.536340E-17	6.152370E-19
5.040000E+03	7.528605E-17	6.119167E-19
5.050000E+03	7.522636E-17	6.087488E-19
5.060000E+03	7.517611E-17	6.056653E-19
5.070000E+03	7.514323E-17	6.027294E-19
5.080000E+03	7.512757E-17	5.999381E-19
5.090000E+03	7.512503E-17	5.972572E-19
5.100000E+03	7.513554E-17	5.946853E-19
5.110000E+03	7.516309E-17	5.922527E-19
5.120000E+03	7.520375E-17	5.899269E-19
5.130000E+03	7.526159E-17	5.877389E-19
5.140000E+03	7.533280E-17	5.856575E-19
5.150000E+03	7.542161E-17	5.837145E-19
5.160000E+03	7.552437E-17	5.818802E-19
5.170000E+03	7.564144E-17	5.801563E-19
5.180000E+03	7.577725E-17	5.785756E-19
5.190000E+03	7.592832E-17	5.771103E-19
5.200000E+03	7.609917E-17	5.757932E-19
5.210000E+03	7.628643E-17	5.745974E-19
5.220000E+03	7.649069E-17	5.735263E-19
5.230000E+03	7.671662E-17	5.726133E-19
5.240000E+03	7.696485E-17	5.718614E-19
5.250000E+03	7.723203E-17	5.712444E-19
5.260000E+03	7.751878E-17	5.707652E-19
5.270000E+03	7.782973E-17	5.704566E-19
5.280000E+03	7.816141E-17	5.702913E-19
5.290000E+03	7.851836E-17	5.703010E-19
5.300000E+03	7.889697E-17	5.704576E-19
5.310000E+03	7.929757E-17	5.707623E-19
5.320000E+03	7.972452E-17	5.712447E-19
5.330000E+03	8.017801E-17	5.719045E-19
5.340000E+03	8.065391E-17	5.727105E-19
5.350000E+03	8.115626E-17	5.736901E-19
5.360000E+03	8.167636E-17	5.747803E-19
5.370000E+03	8.222628E-17	5.760649E-19
5.380000E+03	8.279674E-17	5.774775E-19
5.390000E+03	8.338652E-17	5.790084E-19
5.400000E+03	8.399819E-17	5.806748E-19
5.410000E+03	8.462942E-17	5.824597E-19
5.420000E+03	8.527261E-17	5.843103E-19
5.430000E+03	8.592326E-17	5.861959E-19
5.440000E+03	8.657969E-17	5.881052E-19
5.450000E+03	8.722933E-17	5.899527E-19
5.460000E+03	8.786589E-17	5.916973E-19
5.470000E+03	8.847589E-17	5.932499E-19
5.480000E+03	8.903928E-17	5.944792E-19
5.490000E+03	8.954647E-17	5.953257E-19
5.500000E+03	8.998652E-17	5.957221E-19
5.510000E+03	9.036406E-17	5.957046E-19
5.520000E+03	9.069519E-17	5.953845E-19
5.530000E+03	9.099247E-17	5.948476E-19
5.540000E+03	9.126203E-17	5.941367E-19
5.550000E+03	9.151695E-17	5.933391E-19
5.560000E+03	9.176358E-17	5.924970E-19
5.570000E+03	9.200190E-17	5.916109E-19
5.580000E+03	9.223533E-17	5.907037E-19
5.590000E+03	9.247108E-17	5.898217E-19
5.600000E+03	9.271109E-17	5.889771E-19
5.610000E+03	9.295214E-17	5.881495E-19
5.620000E+03	9.320020E-17	5.873765E-19
5.630000E+03	9.345166E-17	5.866352E-19
5.640000E+03	9.371229E-17	5.859615E-19
5.650000E+03	9.398311E-17	5.853614E-19
5.660000E+03	9.426037E-17	5.848111E-19
5.670000E+03	9.454989E-17	5.843464E-19
5.680000E+03	9.484794E-17	5.839436E-19
5.690000E+03	9.516522E-17	5.836683E-19
5.700000E+03	9.548840E-17	5.834380E-19
5.710000E+03	9.583309E-17	5.833476E-19
5.720000E+03	9.618582E-17	5.833146E-19
5.730000E+03	9.656231E-17	5.834336E-19
5.740000E+03	9.695383E-17	5.836512E-19
5.750000E+03	9.736627E-17	5.840022E-19
5.760000E+03	9.780059E-17	5.844916E-19
5.770000E+03	9.825263E-17	5.850938E-19
5.780000E+03	9.872807E-17	5.858422E-19
5.790000E+03	9.922249E-17	5.867097E-19
5.800000E+03	9.974134E-17	5.877282E-19
5.810000E+03	1.002849E-16	5.888988E-19
5.820000E+03	1.008534E-16	5.902218E-19
5.830000E+03	1.014416E-16	5.916666E-19
5.840000E+03	1.020544E-16	5.932613E-19
5.850000E+03	1.026862E-16	5.949729E-19
5.860000E+03	1.033469E-16	5.968590E-19
5.870000E+03	1.040252E-16	5.988538E-19
5.880000E+03	1.047200E-16	6.009519E-19
5.890000E+03	1.054408E-16	6.032076E-19
5.900000E+03	1.061759E-16	6.055538E-19
5.910000E+03	1.069289E-16	6.080128E-19
5.920000E+03	1.076930E-16	6.105453E-19
5.930000E+03	1.084775E-16	6.132060E-19
5.940000E+03	1.092696E-16	6.159230E-19
5.950000E+03	1.100674E-16	6.186872E-19
5.960000E+03	1.108804E-16	6.215529E-19
5.970000E+03	1.116955E-16	6.244482E-19
5.980000E+03	1.125166E-16	6.273970E-19
5.990000E+03	1.133419E-16	6.303904E-19
6.000000E+03	1.141698E-16	6.334223E-19
6.010000E+03	1.149930E-16	6.364533E-19
6.020000E+03	1.158158E-16	6.395104E-19
6.030000E+03	1.166368E-16	6.425876E-19
6.040000E+03	1.174490E-16	6.456486E-19
6.050000E+03	1.182632E-16	6.487561E-19
6.060000E+03	1.190665E-16	6.518408E-19
6.070000E+03	1.198639E-16	6.549331E-19
6.080000E+03	1.206542E-16	6.580293E-19
6.090000E+03	1.214301E-16	6.610926E-19
6.100000E+03	1.222022E-16	6.641833E-19
6.110000E+03	1.229557E-16	6.672235E-19
6.120000E+03	1.236931E-16	6.702300E-19
6.130000E+03	1.244094E-16	6.731783E-19
6.140000E+03	1.250900E-16	6.759936E-19
6.150000E+03	1.257367E-16	6.786886E-19
6.160000E+03	1.263215E-16	6.811152E-19
6.170000E+03	1.268309E-16	6.832045E-19
6.180000E+03	1.272426E-16	6.848397E-19
6.190000E+03	1.275387E-16	6.859283E-19
6.200000E+03	1.277167E-16	6.864600E-19
6.210000E+03	1.277854E-16	6.864860E-19
6.220000E+03	1.277825E-16	6.862102E-19
6.230000E+03	1.277186E-16	6.856919E-19
6.240000E+03	1.276200E-16	6.850735E-19
6.250000E+03	1.275020E-16	6.844386E-19
6.260000E+03	1.273761E-16	6.838504E-19
6.270000E+03	1.272446E-16	6.833216E-19
6.280000E+03	1.271268E-16	6.829575E-19
6.290000E+03	1.270146E-16	6.827150E-19
6.300000E+03	1.269248E-16	6.826862E-19
6.310000E+03	1.268470E-16	6.828133E-19
6.320000E+03	1.267903E-16	6.831433E-19
6.330000E+03	1.267563E-16	6.836842E-19
6.340000E+03	1.267467E-16	6.844433E-19
6.350000E+03	1.267562E-16	6.853908E-19
6.360000E+03	1.267993E-16	6.866039E-19
6.370000E+03	1.268703E-16	6.880508E-19
6.380000E+03	1.269637E-16	6.897004E-19
6.390000E+03	1.270936E-16	6.916283E-19
6.400000E+03	1.272475E-16	6.937664E-19
6.410000E+03	1.274325E-16	6.961526E-19
6.420000E+03	1.276496E-16	6.987911E-19
6.430000E+03	1.278990E-16	7.016837E-19
6.440000E+03	1.281814E-16	7.048331E-19
6.450000E+03	1.284970E-16	7.082408E-19
6.460000E+03	1.288460E-16	7.119076E-19
6.470000E+03	1.292286E-16	7.158351E-19
6.480000E+03	1.296449E-16	7.200232E-19
6.490000E+03	1.300878E-16	7.244337E-19
6.500000E+03	1.305707E-16	7.291412E-19
6.510000E+03	1.310867E-16	7.341070E-19
6.520000E+03	1.316279E-16	7.392884E-19
6.530000E+03	1.322078E-16	7.447605E-19
6.540000E+03	1.328115E-16	7.504411E-19
6.550000E+03	1.334520E-16	7.564036E-19
6.560000E+03	1.341140E-16	7.625625E-19
6.570000E+03	1.348033E-16	7.689503E-19
6.580000E+03	1.355253E-16	7.755989E-19
6.590000E+03	1.362641E-16	7.824187E-19
6.600000E+03	1.370249E-16	7.894392E-19
6.610000E+03	1.378058E-16	7.966497E-19
6.620000E+03	1.386116E-16	8.040784E-19
6.630000E+03	1.394255E-16	8.116288E-19
6.640000E+03	1.402520E-16	8.193266E-19
6.650000E+03	1.410886E-16	8.271578E-19
6.660000E+03	1.419324E-16	8.351045E-19
6.670000E+03	1.427805E-16	8.431496E-19
6.680000E+03	1.436301E-16	8.512760E-19
6.690000E+03	1.444779E-16	8.594639E-19
6.700000E+03	1.453209E-16	8.676943E-19
6.710000E+03	1.461562E-16	8.759484E-19
6.720000E+03	1.469806E-16	8.842066E-19
6.730000E+03	1.477912E-16	8.924501E-19
6.740000E+03	1.485931E-16	9.007076E-19
6.750000E+03	1.493675E-16	9.088641E-19
6.760000E+03	1.501199E-16	9.169499E-19
6.770000E+03	1.508477E-16	9.249482E-19
6.780000E+03	1.515487E-16	9.328417E-19
6.790000E+03	1.522127E-16	9.405657E-19
6.800000E+03	1.528540E-16	9.482057E-19
6.810000E+03	1.534633E-16	9.557009E-19
6.820000E+03	1.540387E-16	9.630377E-19
6.830000E+03	1.545796E-16	9.702084E-19
6.840000E+03	1.550847E-16	9.772027E-19
6.850000E+03	1.555538E-16	9.840153E-19
6.860000E+03	1.559864E-16	9.906398E-19
6.870000E+03	1.563822E-16	9.970723E-19
6.880000E+03	1.567415E-16	1.003311E-18
6.890000E+03	1.570643E-16	1.009351E-18
6.900000E+03	1.573509E-16	1.015194E-18
6.910000E+03	1.576021E-16	1.020840E-18
6.920000E+03	1.578182E-16	1.026289E-18
6.930000E+03	1.579999E-16	1.031542E-18
6.940000E+03	1.581478E-16	1.036600E-18
6.950000E+03	1.582627E-16	1.041465E-18
6.960000E+03	1.583450E-16	1.046139E-18
6.970000E+03	1.583956E-16	1.050622E-18
6.980000E+03	1.584147E-16	1.054914E-18
6.990000E+03	1.584029E-16	1.059017E-18
7.000000E+03	1.583517E-16	1.062871E-18
7.010000E+03	1.582785E-16	1.066590E-18
7.020000E+03	1.581749E-16	1.070115E-18
7.030000E+03	1.580407E-16	1.073442E-18
7.040000E+03	1.578755E-16	1.076567E-18
7.050000E+03	1.576703E-16	1.079424E-18
7.060000E+03	1.574421E-16	1.082129E-18
7.070000E+03	1.571814E-16	1.084612E-18
7.080000E+03	1.568875E-16	1.086867E-18
7.090000E+03	1.565512E-16	1.088826E-18
7.100000E+03	1.561887E-16	1.090601E-18
7.110000E+03	1.557905E-16	1.092122E-18
7.120000E+03	1.553473E-16	1.093319E-18
7.130000E+03	1.548752E-16	1.094306E-18
7.140000E+03	1.543564E-16	1.094951E-18
7.150000E+03	1.538073E-16	1.095368E-18
7.160000E+03	1.532099E-16	1.095426E-18
7.170000E+03	1.525724E-16	1.095181E-18
7.180000E+03	1.519027E-16	1.094685E-18
7.190000E+03	1.511836E-16	1.093812E-18
7.200000E+03	1.504235E-16	1.092618E-18
7.210000E+03	1.496223E-16	1.091099E-18
7.220000E+03	1.487801E-16	1.089253E-18
7.230000E+03	1.478973E-16	1.087079E-18
7.240000E+03	1.469743E-16	1.084577E-18
7.250000E+03	1.460117E-16	1.081747E-18
7.260000E+03	1.450104E-16	1.078593E-18
7.270000E+03	1.439630E-16	1.075056E-18
7.280000E+03	1.428869E-16	1.071264E-18
7.290000E+03	1.417749E-16	1.067157E-18
7.300000E+03	1.406206E-16	1.062687E-18
7.310000E+03	1.394331E-16	1.057917E-18
7.320000E+03	1.382217E-16	1.052915E-18
7.330000E+03	1.369723E-16	1.047571E-18
7.340000E+03	1.356942E-16	1.041954E-18
7.350000E+03	1.343889E-16	1.036071E-18
7.360000E+03	1.330579E-16	1.029932E-18
7.370000E+03	1.316951E-16	1.023488E-18
7.380000E+03	1.303172E-16	1.016863E-18
7.390000E+03	1.289102E-16	1.009949E-18
7.400000E+03	1.274900E-16	1.002865E-18
7.410000E+03	1.260426E-16	9.955025E-19
7.420000E+03	1.245756E-16	9.879155E-19
7.430000E+03	1.230884E-16	9.800991E-19
7.440000E+03	1.215796E-16	9.720383E-19
7.450000E+03	1.200465E-16	9.637101E-19
7.460000E+03	1.184780E-16	9.550195E-19
7.470000E+03	1.168814E-16	9.460214E-19
7.480000E+03	1.152345E-16	9.365307E-19
7.490000E+03	1.135331E-16	9.265068E-19
7.500000E+03	1.117659E-16	9.158500E-19
7.510000E+03	1.099262E-16	9.044976E-19
7.520000E+03	1.080188E-16	8.924785E-19
7.530000E+03	1.060532E-16	8.798656E-19
7.540000E+03	1.040563E-16	8.668731E-19
7.550000E+03	1.020524E-16	8.537019E-19
7.560000E+03	1.000450E-16	8.403769E-19
7.570000E+03	9.804575E-17	8.269961E-19
7.580000E+03	9.607472E-17	8.137286E-19
7.590000E+03	9.413243E-17	8.005806E-19
7.600000E+03	9.221813E-17	7.875471E-19
7.610000E+03	9.034065E-17	7.747061E-19
7.620000E+03	8.850241E-17	7.620808E-19
7.630000E+03	8.670508E-17	7.496889E-19
7.640000E+03	8.494491E-17	7.375012E-19
7.650000E+03	8.322782E-17	7.255722E-19
7.660000E+03	8.155908E-17	7.139518E-19
7.670000E+03	7.992465E-17	7.025209E-19
7.680000E+03	7.833888E-17	6.914091E-19
7.690000E+03	7.679690E-17	6.805777E-19
7.700000E+03	7.529407E-17	6.699894E-19
7.710000E+03	7.383460E-17	6.596852E-19
7.720000E+03	7.241802E-17	6.496652E-19
7.730000E+03	7.104377E-17	6.399285E-19
7.740000E+03	6.970710E-17	6.304358E-19
7.750000E+03	6.841151E-17	6.212228E-19
7.760000E+03	6.715622E-17	6.122863E-19
