#wls	flux	fluxerr
1.600000E+03	1.498895E-15	5.056823E-17
1.640000E+03	1.507126E-15	5.071482E-17
1.680000E+03	1.507842E-15	5.060449E-17
1.720000E+03	1.500539E-15	5.022234E-17
1.760000E+03	1.484808E-15	4.955687E-17
1.800000E+03	1.460734E-15	4.861336E-17
1.840000E+03	1.428702E-15	4.740710E-17
1.880000E+03	1.389863E-15	4.597864E-17
1.920000E+03	1.345695E-15	4.437900E-17
1.960000E+03	1.297838E-15	4.266406E-17
2.000000E+03	1.247877E-15	4.088715E-17
2.040000E+03	1.195930E-15	3.905315E-17
2.080000E+03	1.140718E-15	3.712145E-17
2.120000E+03	1.084250E-15	3.515870E-17
2.160000E+03	1.035060E-15	3.344140E-17
2.200000E+03	1.001653E-15	3.224116E-17
2.240000E+03	9.873960E-16	3.166041E-17
2.280000E+03	9.916260E-16	3.167097E-17
2.320000E+03	1.016573E-15	3.233671E-17
2.360000E+03	1.065754E-15	3.376078E-17
2.400000E+03	1.140906E-15	3.598799E-17
2.440000E+03	1.243013E-15	3.903807E-17
2.480000E+03	1.373470E-15	4.294259E-17
2.520000E+03	1.533871E-15	4.773810E-17
2.560000E+03	1.724487E-15	5.341870E-17
2.600000E+03	1.942489E-15	5.988221E-17
2.640000E+03	2.183022E-15	6.696548E-17
2.680000E+03	2.444039E-15	7.459358E-17
2.720000E+03	2.727848E-15	8.282468E-17
2.760000E+03	3.036814E-15	9.171683E-17
2.800000E+03	3.369112E-15	1.012002E-16
2.840000E+03	3.719005E-15	1.110889E-16
2.880000E+03	4.078148E-15	1.211231E-16
2.920000E+03	4.436533E-15	1.309994E-16
2.960000E+03	4.783817E-15	1.404112E-16
3.000000E+03	5.109590E-15	1.490576E-16
3.010000E+03	5.186408E-15	1.510638E-16
3.020000E+03	5.261050E-15	1.529988E-16
3.030000E+03	5.333440E-15	1.548606E-16
3.040000E+03	5.403386E-15	1.566439E-16
3.050000E+03	5.470696E-15	1.583436E-16
3.060000E+03	5.535305E-15	1.599579E-16
3.070000E+03	5.596912E-15	1.614786E-16
3.080000E+03	5.655587E-15	1.629081E-16
3.090000E+03	5.711048E-15	1.642387E-16
3.100000E+03	5.763270E-15	1.654700E-16
3.110000E+03	5.812132E-15	1.665990E-16
3.120000E+03	5.857664E-15	1.676270E-16
3.130000E+03	5.899827E-15	1.685534E-16
3.140000E+03	5.938653E-15	1.693796E-16
3.150000E+03	5.974381E-15	1.701127E-16
3.160000E+03	6.007133E-15	1.707568E-16
3.170000E+03	6.037490E-15	1.713286E-16
3.180000E+03	6.065804E-15	1.718385E-16
3.190000E+03	6.092734E-15	1.723055E-16
3.200000E+03	6.118875E-15	1.727464E-16
3.210000E+03	6.144824E-15	1.731783E-16
3.220000E+03	6.171254E-15	1.736201E-16
3.230000E+03	6.198655E-15	1.740855E-16
3.240000E+03	6.227317E-15	1.745825E-16
3.250000E+03	6.257834E-15	1.751274E-16
3.260000E+03	6.290051E-15	1.757157E-16
3.270000E+03	6.324292E-15	1.763561E-16
3.280000E+03	6.360235E-15	1.770393E-16
3.290000E+03	6.397720E-15	1.777607E-16
3.300000E+03	6.436450E-15	1.785118E-16
3.310000E+03	6.475719E-15	1.792728E-16
3.320000E+03	6.515116E-15	1.800322E-16
3.330000E+03	6.553972E-15	1.807716E-16
3.340000E+03	6.591512E-15	1.814697E-16
3.350000E+03	6.627088E-15	1.821089E-16
3.360000E+03	6.660137E-15	1.826741E-16
3.370000E+03	6.690323E-15	1.831563E-16
3.380000E+03	6.717204E-15	1.835441E-16
3.390000E+03	6.740896E-15	1.838410E-16
3.400000E+03	6.761351E-15	1.840462E-16
3.410000E+03	6.778879E-15	1.841687E-16
3.420000E+03	6.794012E-15	1.842234E-16
3.430000E+03	6.807019E-15	1.842179E-16
3.440000E+03	6.818603E-15	1.841715E-16
3.450000E+03	6.829129E-15	1.840944E-16
3.460000E+03	6.838639E-15	1.839877E-16
3.470000E+03	6.847347E-15	1.838575E-16
3.480000E+03	6.854780E-15	1.836912E-16
3.490000E+03	6.860426E-15	1.834753E-16
3.500000E+03	6.863454E-15	1.831879E-16
3.510000E+03	6.862634E-15	1.827967E-16
3.520000E+03	6.856968E-15	1.822758E-16
3.530000E+03	6.845236E-15	1.815937E-16
3.540000E+03	6.826311E-15	1.807214E-16
3.550000E+03	6.799276E-15	1.796360E-16
3.560000E+03	6.763270E-15	1.783161E-16
3.570000E+03	6.717742E-15	1.767487E-16
3.580000E+03	6.662358E-15	1.749266E-16
3.590000E+03	6.597259E-15	1.728552E-16
3.600000E+03	6.522920E-15	1.705485E-16
3.610000E+03	6.440215E-15	1.680310E-16
3.620000E+03	6.350654E-15	1.653433E-16
3.630000E+03	6.256271E-15	1.625394E-16
3.640000E+03	6.159472E-15	1.596827E-16
3.650000E+03	6.063364E-15	1.568538E-16
3.660000E+03	5.971031E-15	1.541325E-16
3.670000E+03	5.885868E-15	1.516054E-16
3.680000E+03	5.811106E-15	1.493545E-16
3.690000E+03	5.749684E-15	1.474536E-16
3.700000E+03	5.704147E-15	1.459654E-16
3.710000E+03	5.676542E-15	1.449396E-16
3.720000E+03	5.668130E-15	1.444053E-16
3.730000E+03	5.679868E-15	1.443837E-16
3.740000E+03	5.711885E-15	1.448746E-16
3.750000E+03	5.763893E-15	1.458672E-16
3.760000E+03	5.835062E-15	1.473372E-16
3.770000E+03	5.923873E-15	1.492432E-16
3.780000E+03	6.028509E-15	1.515364E-16
3.790000E+03	6.146424E-15	1.541502E-16
3.800000E+03	6.274660E-15	1.570083E-16
3.810000E+03	6.409756E-15	1.600226E-16
3.820000E+03	6.547959E-15	1.630984E-16
3.830000E+03	6.685263E-15	1.661356E-16
3.840000E+03	6.817675E-15	1.690354E-16
3.850000E+03	6.941306E-15	1.717024E-16
3.860000E+03	7.052715E-15	1.740531E-16
3.870000E+03	7.148848E-15	1.760146E-16
3.880000E+03	7.227293E-15	1.775302E-16
3.890000E+03	7.286435E-15	1.785634E-16
3.900000E+03	7.325416E-15	1.790965E-16
3.910000E+03	7.344338E-15	1.791356E-16
3.920000E+03	7.344026E-15	1.787042E-16
3.930000E+03	7.326135E-15	1.778459E-16
3.940000E+03	7.292932E-15	1.766187E-16
3.950000E+03	7.247202E-15	1.750924E-16
3.960000E+03	7.192237E-15	1.733487E-16
3.970000E+03	7.131187E-15	1.714650E-16
3.980000E+03	7.067374E-15	1.695219E-16
3.990000E+03	7.003779E-15	1.675914E-16
4.000000E+03	6.943046E-15	1.657365E-16
4.010000E+03	6.887287E-15	1.640072E-16
4.020000E+03	6.837869E-15	1.624349E-16
4.030000E+03	6.795618E-15	1.610383E-16
4.040000E+03	6.760566E-15	1.598168E-16
4.050000E+03	6.732178E-15	1.587566E-16
4.060000E+03	6.709366E-15	1.578310E-16
4.070000E+03	6.690678E-15	1.570051E-16
4.080000E+03	6.674508E-15	1.562404E-16
4.090000E+03	6.658948E-15	1.554921E-16
4.100000E+03	6.642129E-15	1.547166E-16
4.110000E+03	6.622212E-15	1.538713E-16
4.120000E+03	6.597374E-15	1.529145E-16
4.130000E+03	6.566158E-15	1.518136E-16
4.140000E+03	6.527239E-15	1.505389E-16
4.150000E+03	6.479736E-15	1.490717E-16
4.160000E+03	6.423133E-15	1.474016E-16
4.170000E+03	6.357187E-15	1.455245E-16
4.180000E+03	6.282180E-15	1.434486E-16
4.190000E+03	6.198600E-15	1.411866E-16
4.200000E+03	6.107613E-15	1.387663E-16
4.210000E+03	6.010642E-15	1.362214E-16
4.220000E+03	5.909763E-15	1.335998E-16
4.230000E+03	5.807492E-15	1.309588E-16
4.240000E+03	5.706770E-15	1.283650E-16
4.250000E+03	5.610600E-15	1.258853E-16
4.260000E+03	5.522100E-15	1.235888E-16
4.270000E+03	5.443929E-15	1.215335E-16
4.280000E+03	5.378183E-15	1.197645E-16
4.290000E+03	5.326317E-15	1.183119E-16
4.300000E+03	5.288951E-15	1.171872E-16
4.310000E+03	5.265878E-15	1.163833E-16
4.320000E+03	5.256368E-15	1.158818E-16
4.330000E+03	5.259302E-15	1.156559E-16
4.340000E+03	5.273430E-15	1.156761E-16
4.350000E+03	5.297611E-15	1.159156E-16
4.360000E+03	5.331093E-15	1.163565E-16
4.370000E+03	5.373591E-15	1.169910E-16
4.380000E+03	5.425431E-15	1.178247E-16
4.390000E+03	5.487521E-15	1.188758E-16
4.400000E+03	5.559108E-15	1.201264E-16
4.410000E+03	5.637831E-15	1.215241E-16
4.420000E+03	5.721324E-15	1.230169E-16
4.430000E+03	5.807143E-15	1.245515E-16
4.440000E+03	5.892662E-15	1.260716E-16
4.450000E+03	5.975181E-15	1.275195E-16
4.460000E+03	6.051763E-15	1.288332E-16
4.470000E+03	6.119498E-15	1.299520E-16
4.480000E+03	6.175618E-15	1.308185E-16
4.490000E+03	6.217596E-15	1.313813E-16
4.500000E+03	6.243587E-15	1.316037E-16
4.510000E+03	6.252334E-15	1.314618E-16
4.520000E+03	6.243367E-15	1.309484E-16
4.530000E+03	6.217095E-15	1.300748E-16
4.540000E+03	6.174599E-15	1.288662E-16
4.550000E+03	6.117721E-15	1.273635E-16
4.560000E+03	6.048756E-15	1.256166E-16
4.570000E+03	5.970186E-15	1.236787E-16
4.580000E+03	5.884461E-15	1.216018E-16
4.590000E+03	5.793991E-15	1.194367E-16
4.600000E+03	5.700881E-15	1.172273E-16
4.610000E+03	5.606960E-15	1.150115E-16
4.620000E+03	5.513854E-15	1.128228E-16
4.630000E+03	5.422898E-15	1.106881E-16
4.640000E+03	5.335400E-15	1.086337E-16
4.650000E+03	5.252540E-15	1.066830E-16
4.660000E+03	5.175441E-15	1.048581E-16
4.670000E+03	5.105154E-15	1.031793E-16
4.680000E+03	5.042625E-15	1.016646E-16
4.690000E+03	4.988642E-15	1.003286E-16
4.700000E+03	4.943904E-15	9.918415E-17
4.710000E+03	4.908823E-15	9.823803E-17
4.720000E+03	4.883629E-15	9.749342E-17
4.730000E+03	4.868463E-15	9.695167E-17
4.740000E+03	4.863164E-15	9.660805E-17
4.750000E+03	4.867410E-15	9.645477E-17
4.760000E+03	4.880644E-15	9.647941E-17
4.770000E+03	4.901886E-15	9.666137E-17
4.780000E+03	4.929640E-15	9.697000E-17
4.790000E+03	4.961965E-15	9.736637E-17
4.800000E+03	4.996401E-15	9.780162E-17
4.810000E+03	5.030121E-15	9.822029E-17
4.820000E+03	5.060335E-15	9.856814E-17
4.830000E+03	5.084492E-15	9.879615E-17
4.840000E+03	5.100670E-15	9.886795E-17
4.850000E+03	5.107857E-15	9.876512E-17
4.860000E+03	5.106060E-15	9.848906E-17
4.870000E+03	5.096481E-15	9.806422E-17
4.880000E+03	5.081043E-15	9.752859E-17
4.890000E+03	5.062407E-15	9.693398E-17
4.900000E+03	5.043600E-15	9.633863E-17
4.910000E+03	5.027587E-15	9.579909E-17
4.920000E+03	5.017037E-15	9.536569E-17
4.930000E+03	5.014008E-15	9.507672E-17
4.940000E+03	5.020103E-15	9.496147E-17
4.950000E+03	5.036104E-15	9.503347E-17
4.960000E+03	5.062210E-15	9.529510E-17
4.970000E+03	5.098093E-15	9.573887E-17
4.980000E+03	5.143052E-15	9.635035E-17
4.990000E+03	5.196110E-15	9.711007E-17
5.000000E+03	5.256246E-15	9.799798E-17
5.010000E+03	5.322488E-15	9.899510E-17
5.020000E+03	5.393799E-15	1.000814E-16
5.030000E+03	5.469163E-15	1.012375E-16
5.040000E+03	5.547710E-15	1.024469E-16
5.050000E+03	5.628236E-15	1.036870E-16
5.060000E+03	5.709695E-15	1.049384E-16
5.070000E+03	5.790804E-15	1.061775E-16
5.080000E+03	5.869979E-15	1.073756E-16
5.090000E+03	5.945892E-15	1.085087E-16
5.100000E+03	6.016915E-15	1.095476E-16
5.110000E+03	6.081609E-15	1.104670E-16
5.120000E+03	6.138748E-15	1.112456E-16
5.130000E+03	6.187186E-15	1.118635E-16
5.140000E+03	6.226207E-15	1.123092E-16
5.150000E+03	6.255532E-15	1.125788E-16
5.160000E+03	6.275161E-15	1.126736E-16
5.170000E+03	6.285573E-15	1.126034E-16
5.180000E+03	6.287601E-15	1.123843E-16
5.190000E+03	6.282582E-15	1.120412E-16
5.200000E+03	6.272011E-15	1.116016E-16
5.210000E+03	6.257874E-15	1.111015E-16
5.220000E+03	6.242110E-15	1.105757E-16
5.230000E+03	6.226648E-15	1.100585E-16
5.240000E+03	6.213306E-15	1.095818E-16
5.250000E+03	6.203632E-15	1.091729E-16
5.260000E+03	6.198532E-15	1.088472E-16
5.270000E+03	6.198524E-15	1.086133E-16
5.280000E+03	6.203513E-15	1.084690E-16
5.290000E+03	6.212558E-15	1.083974E-16
5.300000E+03	6.224564E-15	1.083790E-16
5.310000E+03	6.237683E-15	1.083815E-16
5.320000E+03	6.250254E-15	1.083760E-16
5.330000E+03	6.260265E-15	1.083279E-16
5.340000E+03	6.266264E-15	1.082123E-16
5.350000E+03	6.267089E-15	1.080098E-16
5.360000E+03	6.262062E-15	1.077093E-16
5.370000E+03	6.251263E-15	1.073127E-16
5.380000E+03	6.234977E-15	1.068257E-16
5.390000E+03	6.214229E-15	1.062664E-16
5.400000E+03	6.189938E-15	1.056508E-16
5.410000E+03	6.162973E-15	1.049941E-16
5.420000E+03	6.133819E-15	1.043049E-16
5.430000E+03	6.102361E-15	1.035815E-16
5.440000E+03	6.067667E-15	1.028083E-16
5.450000E+03	6.028058E-15	1.019571E-16
5.460000E+03	5.981096E-15	1.009873E-16
5.470000E+03	5.923774E-15	9.984879E-17
5.480000E+03	5.852783E-15	9.848676E-17
5.490000E+03	5.765109E-15	9.685161E-17
5.500000E+03	5.660369E-15	9.493815E-17
5.510000E+03	5.543633E-15	9.283244E-17
5.520000E+03	5.421423E-15	9.064428E-17
5.530000E+03	5.300444E-15	8.848579E-17
5.540000E+03	5.187346E-15	8.646749E-17
5.550000E+03	5.088152E-15	8.468883E-17
5.560000E+03	5.008295E-15	8.323889E-17
5.570000E+03	4.952043E-15	8.218698E-17
5.580000E+03	4.922555E-15	8.158365E-17
5.590000E+03	4.921694E-15	8.145779E-17
5.600000E+03	4.949757E-15	8.181232E-17
5.610000E+03	5.005803E-15	8.262981E-17
5.620000E+03	5.087551E-15	8.387087E-17
5.630000E+03	5.191555E-15	8.547720E-17
5.640000E+03	5.313553E-15	8.737740E-17
5.650000E+03	5.448764E-15	8.949199E-17
5.660000E+03	5.592089E-15	9.173667E-17
5.670000E+03	5.738356E-15	9.402637E-17
5.680000E+03	5.882703E-15	9.628148E-17
5.690000E+03	6.020619E-15	9.842853E-17
5.700000E+03	6.147885E-15	1.003991E-16
5.710000E+03	6.261050E-15	1.021375E-16
5.720000E+03	6.357375E-15	1.036001E-16
5.730000E+03	6.434866E-15	1.047553E-16
5.740000E+03	6.492421E-15	1.055861E-16
5.750000E+03	6.529849E-15	1.060905E-16
5.760000E+03	6.547820E-15	1.062804E-16
5.770000E+03	6.547807E-15	1.061805E-16
5.780000E+03	6.531705E-15	1.058223E-16
5.790000E+03	6.501992E-15	1.052465E-16
5.800000E+03	6.461123E-15	1.044936E-16
5.810000E+03	6.411662E-15	1.036051E-16
5.820000E+03	6.356226E-15	1.026238E-16
5.830000E+03	6.296992E-15	1.015849E-16
5.840000E+03	6.236121E-15	1.005232E-16
5.850000E+03	6.175484E-15	9.946898E-17
5.860000E+03	6.116479E-15	9.844454E-17
5.870000E+03	6.060233E-15	9.746790E-17
5.880000E+03	6.007274E-15	9.654738E-17
5.890000E+03	5.957813E-15	9.568620E-17
5.900000E+03	5.911329E-15	9.487578E-17
5.910000E+03	5.866877E-15	9.410086E-17
5.920000E+03	5.823187E-15	9.334091E-17
5.930000E+03	5.778616E-15	9.256957E-17
5.940000E+03	5.731615E-15	9.176202E-17
5.950000E+03	5.680673E-15	9.089408E-17
5.960000E+03	5.624769E-15	8.994949E-17
5.970000E+03	5.563310E-15	8.891884E-17
5.980000E+03	5.496286E-15	8.780205E-17
5.990000E+03	5.424220E-15	8.660756E-17
6.000000E+03	5.348336E-15	8.535492E-17
6.010000E+03	5.270288E-15	8.407055E-17
6.020000E+03	5.192065E-15	8.278616E-17
6.030000E+03	5.116044E-15	8.153952E-17
6.040000E+03	5.044587E-15	8.036819E-17
6.050000E+03	4.980001E-15	7.930872E-17
6.060000E+03	4.924535E-15	7.839677E-17
6.070000E+03	4.879804E-15	7.765780E-17
6.080000E+03	4.847081E-15	7.711186E-17
6.090000E+03	4.826862E-15	7.676663E-17
6.100000E+03	4.819198E-15	7.662273E-17
6.110000E+03	4.823423E-15	7.666938E-17
6.120000E+03	4.838401E-15	7.688839E-17
6.130000E+03	4.862547E-15	7.725450E-17
6.140000E+03	4.893882E-15	7.773618E-17
6.150000E+03	4.930239E-15	7.829900E-17
6.160000E+03	4.969285E-15	7.890589E-17
6.170000E+03	5.008592E-15	7.951837E-17
6.180000E+03	5.045687E-15	8.009719E-17
6.190000E+03	5.078031E-15	8.060215E-17
6.200000E+03	5.103267E-15	8.099588E-17
6.210000E+03	5.119105E-15	8.124213E-17
6.220000E+03	5.123492E-15	8.130835E-17
6.230000E+03	5.114820E-15	8.116909E-17
6.240000E+03	5.092029E-15	8.080752E-17
6.250000E+03	5.054754E-15	8.021788E-17
6.260000E+03	5.003454E-15	7.940737E-17
6.270000E+03	4.939453E-15	7.839696E-17
6.280000E+03	4.864983E-15	7.722199E-17
6.290000E+03	4.782822E-15	7.592644E-17
6.300000E+03	4.696649E-15	7.456863E-17
6.310000E+03	4.610160E-15	7.320711E-17
6.320000E+03	4.527317E-15	7.190475E-17
6.330000E+03	4.451774E-15	7.071955E-17
6.340000E+03	4.386643E-15	6.970095E-17
6.350000E+03	4.334156E-15	6.888448E-17
6.360000E+03	4.295583E-15	6.829047E-17
6.370000E+03	4.271055E-15	6.792107E-17
6.380000E+03	4.259500E-15	6.775940E-17
6.390000E+03	4.258850E-15	6.777263E-17
6.400000E+03	4.266343E-15	6.791694E-17
6.410000E+03	4.278617E-15	6.813886E-17
6.420000E+03	4.292386E-15	6.838609E-17
6.430000E+03	4.304608E-15	6.861012E-17
6.440000E+03	4.312749E-15	6.877047E-17
6.450000E+03	4.315176E-15	6.884095E-17
6.460000E+03	4.310783E-15	6.880369E-17
6.470000E+03	4.299308E-15	6.865433E-17
6.480000E+03	4.280980E-15	6.839628E-17
6.490000E+03	4.256414E-15	6.803912E-17
6.500000E+03	4.226681E-15	6.759977E-17
6.510000E+03	4.193211E-15	6.710089E-17
6.520000E+03	4.157784E-15	6.657083E-17
6.530000E+03	4.122455E-15	6.604236E-17
6.540000E+03	4.088033E-15	6.552839E-17
6.550000E+03	4.053271E-15	6.500888E-17
6.560000E+03	4.017127E-15	6.446705E-17
6.570000E+03	3.979147E-15	6.389547E-17
6.580000E+03	3.938959E-15	6.328807E-17
6.590000E+03	3.896660E-15	6.264630E-17
6.600000E+03	3.852499E-15	6.197401E-17
6.610000E+03	3.806876E-15	6.127756E-17
6.620000E+03	3.760296E-15	6.056499E-17
6.630000E+03	3.713265E-15	5.984434E-17
6.640000E+03	3.666440E-15	5.912618E-17
6.650000E+03	3.620364E-15	5.841922E-17
6.660000E+03	3.575693E-15	5.773403E-17
6.670000E+03	3.532950E-15	5.707907E-17
6.680000E+03	3.492689E-15	5.646333E-17
6.690000E+03	3.455492E-15	5.589622E-17
6.700000E+03	3.421813E-15	5.538519E-17
6.710000E+03	3.391906E-15	5.493441E-17
6.720000E+03	3.366144E-15	5.455000E-17
6.730000E+03	3.344518E-15	5.423193E-17
6.740000E+03	3.327100E-15	5.398143E-17
6.750000E+03	3.313628E-15	5.379437E-17
6.760000E+03	3.303709E-15	5.366444E-17
6.770000E+03	3.297019E-15	5.358643E-17
6.780000E+03	3.292937E-15	5.355033E-17
6.790000E+03	3.290985E-15	5.354840E-17
6.800000E+03	3.290634E-15	5.357204E-17
6.810000E+03	3.291366E-15	5.361285E-17
6.820000E+03	3.292634E-15	5.366193E-17
6.830000E+03	3.294032E-15	5.371262E-17
6.840000E+03	3.295064E-15	5.375679E-17
6.850000E+03	3.295379E-15	5.378873E-17
6.860000E+03	3.294550E-15	5.380138E-17
6.870000E+03	3.292264E-15	5.378960E-17
6.880000E+03	3.288343E-15	5.375041E-17
6.890000E+03	3.282518E-15	5.367937E-17
6.900000E+03	3.274872E-15	5.357777E-17
6.910000E+03	3.265410E-15	5.344564E-17
6.920000E+03	3.254300E-15	5.328566E-17
6.930000E+03	3.241793E-15	5.310193E-17
6.940000E+03	3.228193E-15	5.289938E-17
6.950000E+03	3.213775E-15	5.268249E-17
6.960000E+03	3.198931E-15	5.245767E-17
6.970000E+03	3.183975E-15	5.223006E-17
6.980000E+03	3.169182E-15	5.200415E-17
6.990000E+03	3.154662E-15	5.178176E-17
7.000000E+03	3.140777E-15	5.156883E-17
7.010000E+03	3.127470E-15	5.136444E-17
7.020000E+03	3.114931E-15	5.117172E-17
7.030000E+03	3.103106E-15	5.098978E-17
7.040000E+03	3.091940E-15	5.081773E-17
7.050000E+03	3.081315E-15	5.065364E-17
7.060000E+03	3.071059E-15	5.049468E-17
7.070000E+03	3.060897E-15	5.033634E-17
7.080000E+03	3.050643E-15	5.017555E-17
7.090000E+03	3.040038E-15	5.000806E-17
7.100000E+03	3.028767E-15	4.982868E-17
7.110000E+03	3.016656E-15	4.963457E-17
7.120000E+03	3.003449E-15	4.942148E-17
7.130000E+03	2.988988E-15	4.918686E-17
7.140000E+03	2.973174E-15	4.892905E-17
7.150000E+03	2.956016E-15	4.864821E-17
7.160000E+03	2.937393E-15	4.834237E-17
7.170000E+03	2.917347E-15	4.801225E-17
7.180000E+03	2.896082E-15	4.766120E-17
7.190000E+03	2.873587E-15	4.728905E-17
7.200000E+03	2.849994E-15	4.689803E-17
7.210000E+03	2.825516E-15	4.649165E-17
7.220000E+03	2.800255E-15	4.607161E-17
7.230000E+03	2.774379E-15	4.564071E-17
7.240000E+03	2.748059E-15	4.520181E-17
7.250000E+03	2.721462E-15	4.475765E-17
7.260000E+03	2.694806E-15	4.431186E-17
7.270000E+03	2.668124E-15	4.386503E-17
7.280000E+03	2.641675E-15	4.342141E-17
7.290000E+03	2.615533E-15	4.298228E-17
7.300000E+03	2.589825E-15	4.254971E-17
7.310000E+03	2.564725E-15	4.212662E-17
7.320000E+03	2.540288E-15	4.171393E-17
7.330000E+03	2.516677E-15	4.131430E-17
7.340000E+03	2.493989E-15	4.092938E-17
7.350000E+03	2.472377E-15	4.056166E-17
7.360000E+03	2.451929E-15	4.021264E-17
7.370000E+03	2.432793E-15	3.988469E-17
7.380000E+03	2.415003E-15	3.957841E-17
7.390000E+03	2.398815E-15	3.929798E-17
7.400000E+03	2.384319E-15	3.904490E-17
7.410000E+03	2.371545E-15	3.881960E-17
7.420000E+03	2.360728E-15	3.862594E-17
7.430000E+03	2.351868E-15	3.846388E-17
7.440000E+03	2.345049E-15	3.833480E-17
7.450000E+03	2.340218E-15	3.823778E-17
7.460000E+03	2.337401E-15	3.817323E-17
7.470000E+03	2.336375E-15	3.813747E-17
7.480000E+03	2.337167E-15	3.813092E-17
7.490000E+03	2.339503E-15	3.814908E-17
7.500000E+03	2.343316E-15	3.819084E-17
7.510000E+03	2.348408E-15	3.825293E-17
7.520000E+03	2.354566E-15	3.833189E-17
7.530000E+03	2.361683E-15	3.842594E-17
7.540000E+03	2.369402E-15	3.852929E-17
7.550000E+03	2.377645E-15	3.864066E-17
7.560000E+03	2.386151E-15	3.875580E-17
7.570000E+03	2.394707E-15	3.887128E-17
7.580000E+03	2.403043E-15	3.898272E-17
7.590000E+03	2.411014E-15	3.908781E-17
7.600000E+03	2.418373E-15	3.918257E-17
7.610000E+03	2.424957E-15	3.926441E-17
7.620000E+03	2.430694E-15	3.933220E-17
7.630000E+03	2.435420E-15	3.938335E-17
7.640000E+03	2.439121E-15	3.941768E-17
7.650000E+03	2.441620E-15	3.943238E-17
7.660000E+03	2.443003E-15	3.942892E-17
7.670000E+03	2.443184E-15	3.940596E-17
7.680000E+03	2.442213E-15	3.936439E-17
7.690000E+03	2.440033E-15	3.930335E-17
7.700000E+03	2.436674E-15	3.922339E-17
7.710000E+03	2.432191E-15	3.912546E-17
7.720000E+03	2.426803E-15	3.901312E-17
7.730000E+03	2.420435E-15	3.888527E-17
7.740000E+03	2.413420E-15	3.874729E-17
7.750000E+03	2.405778E-15	3.859956E-17
7.760000E+03	2.397718E-15	3.844546E-17
