#wls	flux	fluxerr
1.600000E+03	6.487900E-16	3.067119E-17
1.640000E+03	6.707500E-16	3.096543E-17
1.680000E+03	6.915447E-16	3.115056E-17
1.720000E+03	7.105822E-16	3.120449E-17
1.760000E+03	7.274816E-16	3.111718E-17
1.800000E+03	7.417393E-16	3.087550E-17
1.840000E+03	7.528723E-16	3.046983E-17
1.880000E+03	7.604520E-16	2.989529E-17
1.920000E+03	7.642664E-16	2.915759E-17
1.960000E+03	7.639695E-16	2.825880E-17
2.000000E+03	7.596181E-16	2.721730E-17
2.040000E+03	7.513021E-16	2.605255E-17
2.080000E+03	7.392748E-16	2.478920E-17
2.120000E+03	7.239377E-16	2.345555E-17
2.160000E+03	7.058130E-16	2.208175E-17
2.200000E+03	6.856145E-16	2.070125E-17
2.240000E+03	6.638743E-16	1.933882E-17
2.280000E+03	6.414483E-16	1.802580E-17
2.320000E+03	6.188522E-16	1.678046E-17
2.360000E+03	5.966749E-16	1.562073E-17
2.400000E+03	5.755501E-16	1.456325E-17
2.440000E+03	5.559744E-16	1.361903E-17
2.480000E+03	5.384203E-16	1.279696E-17
2.520000E+03	5.234346E-16	1.210657E-17
2.560000E+03	5.114492E-16	1.155394E-17
2.600000E+03	5.024068E-16	1.113424E-17
2.640000E+03	4.951165E-16	1.081881E-17
2.680000E+03	4.899963E-16	1.061301E-17
2.720000E+03	4.877954E-16	1.052543E-17
2.760000E+03	4.883418E-16	1.054532E-17
2.800000E+03	4.910057E-16	1.065319E-17
2.840000E+03	4.954927E-16	1.083759E-17
2.880000E+03	5.015186E-16	1.108779E-17
2.920000E+03	5.087314E-16	1.139189E-17
2.960000E+03	5.170099E-16	1.174334E-17
3.000000E+03	5.261457E-16	1.213386E-17
3.010000E+03	5.285291E-16	1.223640E-17
3.020000E+03	5.309717E-16	1.234125E-17
3.030000E+03	5.334707E-16	1.244829E-17
3.040000E+03	5.359637E-16	1.255603E-17
3.050000E+03	5.385694E-16	1.266720E-17
3.060000E+03	5.411650E-16	1.277886E-17
3.070000E+03	5.437488E-16	1.289092E-17
3.080000E+03	5.464399E-16	1.300615E-17
3.090000E+03	5.491160E-16	1.312160E-17
3.100000E+03	5.518962E-16	1.324009E-17
3.110000E+03	5.546593E-16	1.335866E-17
3.120000E+03	5.574045E-16	1.347724E-17
3.130000E+03	5.602511E-16	1.359867E-17
3.140000E+03	5.631387E-16	1.372147E-17
3.150000E+03	5.660075E-16	1.384412E-17
3.160000E+03	5.689179E-16	1.396806E-17
3.170000E+03	5.719297E-16	1.409474E-17
3.180000E+03	5.749252E-16	1.422122E-17
3.190000E+03	5.779655E-16	1.434897E-17
3.200000E+03	5.810526E-16	1.447802E-17
3.210000E+03	5.841891E-16	1.460839E-17
3.220000E+03	5.873191E-16	1.473866E-17
3.230000E+03	5.905647E-16	1.487186E-17
3.240000E+03	5.938713E-16	1.500661E-17
3.250000E+03	5.972439E-16	1.514300E-17
3.260000E+03	6.006297E-16	1.527968E-17
3.270000E+03	6.041526E-16	1.541977E-17
3.280000E+03	6.077611E-16	1.556196E-17
3.290000E+03	6.114044E-16	1.570491E-17
3.300000E+03	6.152074E-16	1.585184E-17
3.310000E+03	6.191201E-16	1.600144E-17
3.320000E+03	6.231505E-16	1.615392E-17
3.330000E+03	6.273062E-16	1.630947E-17
3.340000E+03	6.315938E-16	1.646825E-17
3.350000E+03	6.360181E-16	1.663039E-17
3.360000E+03	6.405807E-16	1.679594E-17
3.370000E+03	6.452802E-16	1.696484E-17
3.380000E+03	6.501687E-16	1.713847E-17
3.390000E+03	6.551184E-16	1.731345E-17
3.400000E+03	6.602282E-16	1.749240E-17
3.410000E+03	6.654161E-16	1.767313E-17
3.420000E+03	6.706515E-16	1.785482E-17
3.430000E+03	6.758970E-16	1.803643E-17
3.440000E+03	6.811654E-16	1.821829E-17
3.450000E+03	6.862865E-16	1.839581E-17
3.460000E+03	6.913092E-16	1.857024E-17
3.470000E+03	6.960865E-16	1.873759E-17
3.480000E+03	7.004952E-16	1.889446E-17
3.490000E+03	7.044303E-16	1.903790E-17
3.500000E+03	7.076422E-16	1.916103E-17
3.510000E+03	7.099319E-16	1.925831E-17
3.520000E+03	7.111103E-16	1.932443E-17
3.530000E+03	7.110087E-16	1.935461E-17
3.540000E+03	7.095419E-16	1.934632E-17
3.550000E+03	7.065419E-16	1.929480E-17
3.560000E+03	7.019848E-16	1.919917E-17
3.570000E+03	6.957163E-16	1.905503E-17
3.580000E+03	6.878348E-16	1.886490E-17
3.590000E+03	6.783634E-16	1.862926E-17
3.600000E+03	6.672614E-16	1.834685E-17
3.610000E+03	6.547320E-16	1.802315E-17
3.620000E+03	6.409119E-16	1.766185E-17
3.630000E+03	6.258852E-16	1.726522E-17
3.640000E+03	6.099633E-16	1.684184E-17
3.650000E+03	5.933952E-16	1.639860E-17
3.660000E+03	5.764197E-16	1.594215E-17
3.670000E+03	5.593454E-16	1.548110E-17
3.680000E+03	5.424959E-16	1.502449E-17
3.690000E+03	5.262366E-16	1.458255E-17
3.700000E+03	5.108524E-16	1.416332E-17
3.710000E+03	4.966883E-16	1.377648E-17
3.720000E+03	4.839994E-16	1.342923E-17
3.730000E+03	4.730537E-16	1.312914E-17
3.740000E+03	4.641263E-16	1.288394E-17
3.750000E+03	4.574070E-16	1.269898E-17
3.760000E+03	4.531006E-16	1.258002E-17
3.770000E+03	4.514279E-16	1.253322E-17
3.780000E+03	4.525435E-16	1.256288E-17
3.790000E+03	4.566572E-16	1.267477E-17
3.800000E+03	4.638904E-16	1.287221E-17
3.810000E+03	4.745099E-16	1.316247E-17
3.820000E+03	4.886027E-16	1.354780E-17
3.830000E+03	5.063930E-16	1.403420E-17
3.840000E+03	5.279937E-16	1.462455E-17
3.850000E+03	5.535440E-16	1.532237E-17
3.860000E+03	5.830623E-16	1.612781E-17
3.870000E+03	6.165188E-16	1.703960E-17
3.880000E+03	6.537792E-16	1.805358E-17
3.890000E+03	6.946204E-16	1.916307E-17
3.900000E+03	7.385924E-16	2.035513E-17
3.910000E+03	7.851172E-16	2.161332E-17
3.920000E+03	8.334486E-16	2.291658E-17
3.930000E+03	8.827321E-16	2.424099E-17
3.940000E+03	9.318865E-16	2.555649E-17
3.950000E+03	9.797855E-16	2.683195E-17
3.960000E+03	1.025266E-15	2.803542E-17
3.970000E+03	1.067193E-15	2.913597E-17
3.980000E+03	1.104588E-15	3.010713E-17
3.990000E+03	1.136456E-15	3.092219E-17
4.000000E+03	1.162248E-15	3.156691E-17
4.010000E+03	1.181492E-15	3.202920E-17
4.020000E+03	1.193975E-15	3.230425E-17
4.030000E+03	1.199938E-15	3.239956E-17
4.040000E+03	1.199677E-15	3.232416E-17
4.050000E+03	1.193689E-15	3.209255E-17
4.060000E+03	1.182814E-15	3.172827E-17
4.070000E+03	1.167744E-15	3.125089E-17
4.080000E+03	1.149405E-15	3.068598E-17
4.090000E+03	1.128662E-15	3.005734E-17
4.100000E+03	1.106342E-15	2.938756E-17
4.110000E+03	1.083152E-15	2.869586E-17
4.120000E+03	1.059873E-15	2.800319E-17
4.130000E+03	1.036979E-15	2.732224E-17
4.140000E+03	1.014953E-15	2.666571E-17
4.150000E+03	9.942219E-16	2.604478E-17
4.160000E+03	9.750731E-16	2.546676E-17
4.170000E+03	9.576679E-16	2.493562E-17
4.180000E+03	9.421856E-16	2.445569E-17
4.190000E+03	9.286560E-16	2.402740E-17
4.200000E+03	9.171060E-16	2.365103E-17
4.210000E+03	9.075605E-16	2.332682E-17
4.220000E+03	8.999317E-16	2.305206E-17
4.230000E+03	8.941863E-16	2.282548E-17
4.240000E+03	8.901548E-16	2.264232E-17
4.250000E+03	8.878033E-16	2.250130E-17
4.260000E+03	8.869638E-16	2.239778E-17
4.270000E+03	8.874892E-16	2.232765E-17
4.280000E+03	8.892177E-16	2.228653E-17
4.290000E+03	8.919659E-16	2.226952E-17
4.300000E+03	8.955383E-16	2.227150E-17
4.310000E+03	8.997255E-16	2.228705E-17
4.320000E+03	9.043133E-16	2.231076E-17
4.330000E+03	9.090524E-16	2.233639E-17
4.340000E+03	9.137752E-16	2.235983E-17
4.350000E+03	9.182983E-16	2.237664E-17
4.360000E+03	9.224707E-16	2.238326E-17
4.370000E+03	9.261591E-16	2.237660E-17
4.380000E+03	9.293578E-16	2.235671E-17
4.390000E+03	9.322916E-16	2.232918E-17
4.400000E+03	9.352308E-16	2.230056E-17
4.410000E+03	9.388321E-16	2.228649E-17
4.420000E+03	9.437715E-16	2.230276E-17
4.430000E+03	9.506527E-16	2.236320E-17
4.440000E+03	9.601632E-16	2.248331E-17
4.450000E+03	9.728308E-16	2.267456E-17
4.460000E+03	9.890060E-16	2.294411E-17
4.470000E+03	1.009043E-15	2.329901E-17
4.480000E+03	1.033187E-15	2.374364E-17
4.490000E+03	1.061497E-15	2.427790E-17
4.500000E+03	1.093915E-15	2.489907E-17
4.510000E+03	1.130384E-15	2.560433E-17
4.520000E+03	1.170552E-15	2.638435E-17
4.530000E+03	1.214094E-15	2.723045E-17
4.540000E+03	1.260363E-15	2.812699E-17
4.550000E+03	1.308684E-15	2.905785E-17
4.560000E+03	1.358180E-15	3.000283E-17
4.570000E+03	1.407777E-15	3.093776E-17
4.580000E+03	1.456424E-15	3.183940E-17
4.590000E+03	1.502784E-15	3.267887E-17
4.600000E+03	1.545582E-15	3.342915E-17
4.610000E+03	1.583627E-15	3.406569E-17
4.620000E+03	1.615776E-15	3.456553E-17
4.630000E+03	1.640995E-15	3.490860E-17
4.640000E+03	1.658598E-15	3.508270E-17
4.650000E+03	1.668065E-15	3.507955E-17
4.660000E+03	1.669300E-15	3.490000E-17
4.670000E+03	1.662421E-15	3.454944E-17
4.680000E+03	1.647959E-15	3.404187E-17
4.690000E+03	1.626613E-15	3.339445E-17
4.700000E+03	1.599411E-15	3.263080E-17
4.710000E+03	1.567383E-15	3.177413E-17
4.720000E+03	1.531870E-15	3.085335E-17
4.730000E+03	1.494130E-15	2.989514E-17
4.740000E+03	1.455351E-15	2.892410E-17
4.750000E+03	1.416701E-15	2.796382E-17
4.760000E+03	1.379234E-15	2.703508E-17
4.770000E+03	1.343922E-15	2.615639E-17
4.780000E+03	1.311503E-15	2.534128E-17
4.790000E+03	1.282621E-15	2.460101E-17
4.800000E+03	1.257783E-15	2.394382E-17
4.810000E+03	1.237410E-15	2.337602E-17
4.820000E+03	1.221735E-15	2.290011E-17
4.830000E+03	1.210935E-15	2.251736E-17
4.840000E+03	1.205104E-15	2.222738E-17
4.850000E+03	1.204301E-15	2.202899E-17
4.860000E+03	1.208437E-15	2.191829E-17
4.870000E+03	1.217395E-15	2.189084E-17
4.880000E+03	1.230983E-15	2.194091E-17
4.890000E+03	1.248969E-15	2.206213E-17
4.900000E+03	1.270922E-15	2.224474E-17
4.910000E+03	1.296471E-15	2.248029E-17
4.920000E+03	1.325042E-15	2.275698E-17
4.930000E+03	1.356050E-15	2.306326E-17
4.940000E+03	1.388720E-15	2.338469E-17
4.950000E+03	1.422390E-15	2.370922E-17
4.960000E+03	1.456250E-15	2.402283E-17
4.970000E+03	1.489596E-15	2.431377E-17
4.980000E+03	1.521647E-15	2.456956E-17
4.990000E+03	1.551888E-15	2.478252E-17
5.000000E+03	1.579801E-15	2.494533E-17
5.010000E+03	1.605106E-15	2.505477E-17
5.020000E+03	1.627549E-15	2.510827E-17
5.030000E+03	1.647225E-15	2.510881E-17
5.040000E+03	1.664298E-15	2.506036E-17
5.050000E+03	1.678967E-15	2.496733E-17
5.060000E+03	1.691740E-15	2.483855E-17
5.070000E+03	1.703067E-15	2.468166E-17
5.080000E+03	1.713550E-15	2.450616E-17
5.090000E+03	1.723729E-15	2.432021E-17
5.100000E+03	1.734199E-15	2.413239E-17
5.110000E+03	1.745594E-15	2.395130E-17
5.120000E+03	1.758370E-15	2.378272E-17
5.130000E+03	1.773199E-15	2.363490E-17
5.140000E+03	1.790397E-15	2.351094E-17
5.150000E+03	1.810528E-15	2.341690E-17
5.160000E+03	1.833794E-15	2.335376E-17
5.170000E+03	1.860577E-15	2.332467E-17
5.180000E+03	1.891034E-15	2.332969E-17
5.190000E+03	1.925350E-15	2.336912E-17
5.200000E+03	1.963516E-15	2.344085E-17
5.210000E+03	2.005542E-15	2.354304E-17
5.220000E+03	2.051231E-15	2.367152E-17
5.230000E+03	2.100341E-15	2.382181E-17
5.240000E+03	2.152579E-15	2.398918E-17
5.250000E+03	2.207484E-15	2.416734E-17
5.260000E+03	2.264412E-15	2.434851E-17
5.270000E+03	2.322712E-15	2.452547E-17
5.280000E+03	2.381477E-15	2.468894E-17
5.290000E+03	2.439730E-15	2.482977E-17
5.300000E+03	2.496434E-15	2.493905E-17
5.310000E+03	2.550381E-15	2.500711E-17
5.320000E+03	2.600213E-15	2.502378E-17
5.330000E+03	2.644679E-15	2.498098E-17
5.340000E+03	2.682415E-15	2.487051E-17
5.350000E+03	2.712314E-15	2.468741E-17
5.360000E+03	2.733396E-15	2.442856E-17
5.370000E+03	2.744894E-15	2.409322E-17
5.380000E+03	2.746501E-15	2.368488E-17
5.390000E+03	2.738527E-15	2.321218E-17
5.400000E+03	2.721511E-15	2.268519E-17
5.410000E+03	2.696724E-15	2.211927E-17
5.420000E+03	2.666182E-15	2.153478E-17
5.430000E+03	2.632202E-15	2.095307E-17
5.440000E+03	2.597796E-15	2.039962E-17
5.450000E+03	2.566571E-15	1.990301E-17
5.460000E+03	2.542110E-15	1.949028E-17
5.470000E+03	2.528076E-15	1.918799E-17
5.480000E+03	2.527651E-15	1.901844E-17
5.490000E+03	2.542396E-15	1.899172E-17
5.500000E+03	2.572167E-15	1.910581E-17
5.510000E+03	2.614623E-15	1.934331E-17
5.520000E+03	2.665411E-15	1.967192E-17
5.530000E+03	2.718695E-15	2.004859E-17
5.540000E+03	2.768225E-15	2.042741E-17
5.550000E+03	2.807938E-15	2.076335E-17
5.560000E+03	2.832706E-15	2.101724E-17
5.570000E+03	2.838845E-15	2.115926E-17
5.580000E+03	2.824364E-15	2.117071E-17
5.590000E+03	2.789343E-15	2.104723E-17
5.600000E+03	2.735248E-15	2.079410E-17
5.610000E+03	2.665122E-15	2.042839E-17
5.620000E+03	2.582811E-15	1.997371E-17
5.630000E+03	2.492619E-15	1.945813E-17
5.640000E+03	2.398603E-15	1.890905E-17
5.650000E+03	2.304647E-15	1.835388E-17
5.660000E+03	2.213981E-15	1.781633E-17
5.670000E+03	2.129151E-15	1.731593E-17
5.680000E+03	2.052027E-15	1.686785E-17
5.690000E+03	1.983870E-15	1.648316E-17
5.700000E+03	1.925427E-15	1.616935E-17
5.710000E+03	1.877045E-15	1.593098E-17
5.720000E+03	1.838828E-15	1.577083E-17
5.730000E+03	1.810532E-15	1.568879E-17
5.740000E+03	1.791983E-15	1.568539E-17
5.750000E+03	1.782745E-15	1.575876E-17
5.760000E+03	1.782544E-15	1.590834E-17
5.770000E+03	1.790941E-15	1.613193E-17
5.780000E+03	1.807528E-15	1.642745E-17
5.790000E+03	1.831868E-15	1.679229E-17
5.800000E+03	1.863510E-15	1.722347E-17
5.810000E+03	1.901806E-15	1.771596E-17
5.820000E+03	1.946018E-15	1.826358E-17
5.830000E+03	1.995236E-15	1.885816E-17
5.840000E+03	2.048348E-15	1.948930E-17
5.850000E+03	2.104087E-15	2.014472E-17
5.860000E+03	2.160863E-15	2.080869E-17
5.870000E+03	2.216973E-15	2.146393E-17
5.880000E+03	2.270655E-15	2.209230E-17
5.890000E+03	2.319990E-15	2.267379E-17
5.900000E+03	2.363174E-15	2.318931E-17
5.910000E+03	2.398639E-15	2.362190E-17
5.920000E+03	2.424948E-15	2.395594E-17
5.930000E+03	2.441099E-15	2.418012E-17
5.940000E+03	2.446579E-15	2.428819E-17
5.950000E+03	2.441211E-15	2.427750E-17
5.960000E+03	2.425417E-15	2.415163E-17
5.970000E+03	2.399917E-15	2.391750E-17
5.980000E+03	2.365869E-15	2.358671E-17
5.990000E+03	2.324775E-15	2.317457E-17
6.000000E+03	2.278193E-15	2.269718E-17
6.010000E+03	2.227892E-15	2.217287E-17
6.020000E+03	2.175512E-15	2.161878E-17
6.030000E+03	2.122731E-15	2.105241E-17
6.040000E+03	2.070971E-15	2.048862E-17
6.050000E+03	2.021595E-15	1.994157E-17
6.060000E+03	1.975656E-15	1.942215E-17
6.070000E+03	1.934123E-15	1.894023E-17
6.080000E+03	1.897668E-15	1.850252E-17
6.090000E+03	1.866890E-15	1.811479E-17
6.100000E+03	1.842124E-15	1.778001E-17
6.110000E+03	1.823662E-15	1.750053E-17
6.120000E+03	1.811617E-15	1.727680E-17
6.130000E+03	1.805934E-15	1.710746E-17
6.140000E+03	1.806501E-15	1.699053E-17
6.150000E+03	1.813212E-15	1.692396E-17
6.160000E+03	1.825610E-15	1.690239E-17
6.170000E+03	1.843467E-15	1.692258E-17
6.180000E+03	1.866212E-15	1.697817E-17
6.190000E+03	1.893355E-15	1.706366E-17
6.200000E+03	1.924234E-15	1.717212E-17
6.210000E+03	1.958230E-15	1.729728E-17
6.220000E+03	1.994626E-15	1.743217E-17
6.230000E+03	2.032609E-15	1.756935E-17
6.240000E+03	2.071466E-15	1.770258E-17
6.250000E+03	2.110435E-15	1.782557E-17
6.260000E+03	2.148717E-15	1.793210E-17
6.270000E+03	2.185678E-15	1.801777E-17
6.280000E+03	2.220688E-15	1.807857E-17
6.290000E+03	2.253190E-15	1.811148E-17
6.300000E+03	2.282644E-15	1.811395E-17
6.310000E+03	2.308727E-15	1.808549E-17
6.320000E+03	2.331143E-15	1.802606E-17
6.330000E+03	2.349613E-15	1.793599E-17
6.340000E+03	2.364154E-15	1.781801E-17
6.350000E+03	2.374591E-15	1.767349E-17
6.360000E+03	2.381013E-15	1.750586E-17
6.370000E+03	2.383472E-15	1.731824E-17
6.380000E+03	2.382001E-15	1.711361E-17
6.390000E+03	2.376486E-15	1.689382E-17
6.400000E+03	2.366807E-15	1.666061E-17
6.410000E+03	2.352644E-15	1.641423E-17
6.420000E+03	2.333253E-15	1.615187E-17
6.430000E+03	2.307911E-15	1.587072E-17
6.440000E+03	2.275743E-15	1.556668E-17
6.450000E+03	2.235994E-15	1.523607E-17
6.460000E+03	2.188218E-15	1.487677E-17
6.470000E+03	2.132830E-15	1.449181E-17
6.480000E+03	2.070960E-15	1.408824E-17
6.490000E+03	2.004747E-15	1.367924E-17
6.500000E+03	1.937374E-15	1.328380E-17
6.510000E+03	1.872284E-15	1.292218E-17
6.520000E+03	1.812684E-15	1.261373E-17
6.530000E+03	1.761038E-15	1.237361E-17
6.540000E+03	1.718481E-15	1.220873E-17
6.550000E+03	1.684994E-15	1.211864E-17
6.560000E+03	1.659711E-15	1.209734E-17
6.570000E+03	1.641059E-15	1.213374E-17
6.580000E+03	1.627384E-15	1.221593E-17
6.590000E+03	1.617106E-15	1.233212E-17
6.600000E+03	1.608806E-15	1.247124E-17
6.610000E+03	1.601269E-15	1.262325E-17
6.620000E+03	1.593296E-15	1.277770E-17
6.630000E+03	1.583987E-15	1.292601E-17
6.640000E+03	1.572615E-15	1.306054E-17
6.650000E+03	1.558547E-15	1.317406E-17
6.660000E+03	1.541401E-15	1.326116E-17
6.670000E+03	1.521010E-15	1.331810E-17
6.680000E+03	1.497452E-15	1.334327E-17
6.690000E+03	1.470863E-15	1.333567E-17
6.700000E+03	1.441710E-15	1.329751E-17
6.710000E+03	1.410447E-15	1.323121E-17
6.720000E+03	1.377692E-15	1.314114E-17
6.730000E+03	1.343978E-15	1.303129E-17
6.740000E+03	1.310009E-15	1.290775E-17
6.750000E+03	1.276341E-15	1.277565E-17
6.760000E+03	1.243537E-15	1.264058E-17
6.770000E+03	1.212137E-15	1.250830E-17
6.780000E+03	1.182549E-15	1.238357E-17
6.790000E+03	1.155159E-15	1.227122E-17
6.800000E+03	1.130296E-15	1.217568E-17
6.810000E+03	1.108273E-15	1.210142E-17
6.820000E+03	1.089284E-15	1.205180E-17
6.830000E+03	1.073555E-15	1.203059E-17
6.840000E+03	1.061174E-15	1.204015E-17
6.850000E+03	1.052332E-15	1.208401E-17
6.860000E+03	1.047093E-15	1.216430E-17
6.870000E+03	1.045561E-15	1.228359E-17
6.880000E+03	1.047747E-15	1.244337E-17
6.890000E+03	1.053669E-15	1.264512E-17
6.900000E+03	1.063317E-15	1.288998E-17
6.910000E+03	1.076683E-15	1.317897E-17
6.920000E+03	1.093659E-15	1.351185E-17
6.930000E+03	1.114167E-15	1.388859E-17
6.940000E+03	1.137989E-15	1.430731E-17
6.950000E+03	1.165005E-15	1.476720E-17
6.960000E+03	1.194987E-15	1.526594E-17
6.970000E+03	1.227595E-15	1.579962E-17
6.980000E+03	1.262607E-15	1.636561E-17
6.990000E+03	1.299661E-15	1.695937E-17
7.000000E+03	1.338458E-15	1.757699E-17
7.010000E+03	1.378569E-15	1.821266E-17
7.020000E+03	1.419738E-15	1.886275E-17
7.030000E+03	1.461599E-15	1.952200E-17
7.040000E+03	1.503907E-15	2.018666E-17
7.050000E+03	1.546358E-15	2.085214E-17
7.060000E+03	1.588694E-15	2.151435E-17
7.070000E+03	1.630902E-15	2.217248E-17
7.080000E+03	1.672725E-15	2.282239E-17
7.090000E+03	1.714151E-15	2.346328E-17
7.100000E+03	1.755219E-15	2.409500E-17
7.110000E+03	1.795888E-15	2.471638E-17
7.120000E+03	1.836196E-15	2.532729E-17
7.130000E+03	1.876183E-15	2.592767E-17
7.140000E+03	1.915946E-15	2.651828E-17
7.150000E+03	1.955374E-15	2.709700E-17
7.160000E+03	1.994570E-15	2.766465E-17
7.170000E+03	2.033334E-15	2.821793E-17
7.180000E+03	2.071671E-15	2.875633E-17
7.190000E+03	2.109335E-15	2.927589E-17
7.200000E+03	2.146076E-15	2.977264E-17
7.210000E+03	2.181594E-15	3.024192E-17
7.220000E+03	2.215532E-15	3.067835E-17
7.230000E+03	2.247491E-15	3.107603E-17
7.240000E+03	2.277042E-15	3.142872E-17
7.250000E+03	2.303731E-15	3.172997E-17
7.260000E+03	2.327104E-15	3.197346E-17
7.270000E+03	2.346713E-15	3.215308E-17
7.280000E+03	2.362057E-15	3.226221E-17
7.290000E+03	2.372907E-15	3.229810E-17
7.300000E+03	2.378858E-15	3.225581E-17
7.310000E+03	2.379579E-15	3.213160E-17
7.320000E+03	2.375056E-15	3.192623E-17
7.330000E+03	2.365065E-15	3.163776E-17
7.340000E+03	2.349724E-15	3.126907E-17
7.350000E+03	2.329186E-15	3.082354E-17
7.360000E+03	2.303717E-15	3.030620E-17
7.370000E+03	2.273696E-15	2.972356E-17
7.380000E+03	2.239529E-15	2.908252E-17
7.390000E+03	2.201859E-15	2.839296E-17
7.400000E+03	2.161322E-15	2.766458E-17
7.410000E+03	2.118609E-15	2.690755E-17
7.420000E+03	2.074365E-15	2.613131E-17
7.430000E+03	2.029381E-15	2.534686E-17
7.440000E+03	1.984358E-15	2.456376E-17
7.450000E+03	1.939898E-15	2.379008E-17
7.460000E+03	1.896742E-15	2.303527E-17
7.470000E+03	1.855258E-15	2.230390E-17
7.480000E+03	1.816112E-15	2.160389E-17
7.490000E+03	1.779604E-15	2.093847E-17
7.500000E+03	1.746148E-15	2.031195E-17
7.510000E+03	1.715987E-15	1.972641E-17
7.520000E+03	1.689431E-15	1.918451E-17
7.530000E+03	1.666644E-15	1.868700E-17
7.540000E+03	1.647878E-15	1.823544E-17
7.550000E+03	1.633317E-15	1.783046E-17
7.560000E+03	1.623088E-15	1.747186E-17
7.570000E+03	1.617431E-15	1.716053E-17
7.580000E+03	1.616489E-15	1.689610E-17
7.590000E+03	1.620524E-15	1.667930E-17
7.600000E+03	1.629703E-15	1.650968E-17
7.610000E+03	1.644257E-15	1.638726E-17
7.620000E+03	1.664532E-15	1.631301E-17
7.630000E+03	1.690592E-15	1.628493E-17
7.640000E+03	1.722756E-15	1.630335E-17
7.650000E+03	1.761190E-15	1.636700E-17
7.660000E+03	1.805934E-15	1.647335E-17
7.670000E+03	1.857051E-15	1.662007E-17
7.680000E+03	1.914278E-15	1.680201E-17
7.690000E+03	1.977496E-15	1.701554E-17
7.700000E+03	2.046056E-15	1.725274E-17
7.710000E+03	2.119177E-15	1.750522E-17
7.720000E+03	2.195800E-15	1.776305E-17
7.730000E+03	2.274634E-15	1.801539E-17
7.740000E+03	2.353942E-15	1.824904E-17
7.750000E+03	2.431861E-15	1.845129E-17
7.760000E+03	2.506148E-15	1.860803E-17
