#wls	flux	fluxerr
1.600000E+03	2.552541E-16	8.753940E-18
1.640000E+03	2.615103E-16	8.852655E-18
1.680000E+03	2.675720E-16	8.938732E-18
1.720000E+03	2.732443E-16	9.006101E-18
1.760000E+03	2.785674E-16	9.056718E-18
1.800000E+03	2.834446E-16	9.088102E-18
1.840000E+03	2.878826E-16	9.101248E-18
1.880000E+03	2.917974E-16	9.094338E-18
1.920000E+03	2.952144E-16	9.069097E-18
1.960000E+03	2.980685E-16	9.024490E-18
2.000000E+03	3.004082E-16	8.963006E-18
2.040000E+03	3.021898E-16	8.884370E-18
2.080000E+03	3.034322E-16	8.790203E-18
2.120000E+03	3.042684E-16	8.685365E-18
2.160000E+03	3.045777E-16	8.567376E-18
2.200000E+03	3.045577E-16	8.442773E-18
2.240000E+03	3.040954E-16	8.309293E-18
2.280000E+03	3.033875E-16	8.173198E-18
2.320000E+03	3.023666E-16	8.033419E-18
2.360000E+03	3.010595E-16	7.891458E-18
2.400000E+03	2.995818E-16	7.751056E-18
2.440000E+03	2.977806E-16	7.608921E-18
2.480000E+03	2.957894E-16	7.469162E-18
2.520000E+03	2.934743E-16	7.329014E-18
2.560000E+03	2.908298E-16	7.188979E-18
2.600000E+03	2.877200E-16	7.046304E-18
2.640000E+03	2.841156E-16	6.900848E-18
2.680000E+03	2.801392E-16	6.756033E-18
2.720000E+03	2.760069E-16	6.617099E-18
2.760000E+03	2.719939E-16	6.489869E-18
2.800000E+03	2.682889E-16	6.377869E-18
2.840000E+03	2.650130E-16	6.283002E-18
2.880000E+03	2.623569E-16	6.208863E-18
2.920000E+03	2.604130E-16	6.156782E-18
2.960000E+03	2.593929E-16	6.130997E-18
3.000000E+03	2.593403E-16	6.131882E-18
3.010000E+03	2.594937E-16	6.136565E-18
3.020000E+03	2.597178E-16	6.143116E-18
3.030000E+03	2.600151E-16	6.151581E-18
3.040000E+03	2.603876E-16	6.162007E-18
3.050000E+03	2.608378E-16	6.174439E-18
3.060000E+03	2.614090E-16	6.189903E-18
3.070000E+03	2.620212E-16	6.206498E-18
3.080000E+03	2.627182E-16	6.225252E-18
3.090000E+03	2.635439E-16	6.247201E-18
3.100000E+03	2.644179E-16	6.270438E-18
3.110000E+03	2.654258E-16	6.296986E-18
3.120000E+03	2.664872E-16	6.324933E-18
3.130000E+03	2.676881E-16	6.356318E-18
3.140000E+03	2.689475E-16	6.389211E-18
3.150000E+03	2.703523E-16	6.425674E-18
3.160000E+03	2.718633E-16	6.464776E-18
3.170000E+03	2.734406E-16	6.505560E-18
3.180000E+03	2.751721E-16	6.550119E-18
3.190000E+03	2.770180E-16	6.597501E-18
3.200000E+03	2.789813E-16	6.647775E-18
3.210000E+03	2.810209E-16	6.699959E-18
3.220000E+03	2.832262E-16	6.756185E-18
3.230000E+03	2.855564E-16	6.815475E-18
3.240000E+03	2.880139E-16	6.877886E-18
3.250000E+03	2.906007E-16	6.943462E-18
3.260000E+03	2.933188E-16	7.012251E-18
3.270000E+03	2.961698E-16	7.084287E-18
3.280000E+03	2.991549E-16	7.159598E-18
3.290000E+03	3.022752E-16	7.238209E-18
3.300000E+03	3.055780E-16	7.321250E-18
3.310000E+03	3.089703E-16	7.406489E-18
3.320000E+03	3.124978E-16	7.495020E-18
3.330000E+03	3.161595E-16	7.586815E-18
3.340000E+03	3.200027E-16	7.683003E-18
3.350000E+03	3.239277E-16	7.781193E-18
3.360000E+03	3.279796E-16	7.882458E-18
3.370000E+03	3.322050E-16	7.987915E-18
3.380000E+03	3.364986E-16	8.095028E-18
3.390000E+03	3.409046E-16	8.204851E-18
3.400000E+03	3.454687E-16	8.318479E-18
3.410000E+03	3.500794E-16	8.433223E-18
3.420000E+03	3.548337E-16	8.551408E-18
3.430000E+03	3.596702E-16	8.671549E-18
3.440000E+03	3.645243E-16	8.792077E-18
3.450000E+03	3.694947E-16	8.915366E-18
3.460000E+03	3.744605E-16	9.038483E-18
3.470000E+03	3.795226E-16	9.163858E-18
3.480000E+03	3.846145E-16	9.289872E-18
3.490000E+03	3.897256E-16	9.416258E-18
3.500000E+03	3.947865E-16	9.541325E-18
3.510000E+03	3.999050E-16	9.667664E-18
3.520000E+03	4.050135E-16	9.793631E-18
3.530000E+03	4.101041E-16	9.919022E-18
3.540000E+03	4.151697E-16	1.004365E-17
3.550000E+03	4.201421E-16	1.016585E-17
3.560000E+03	4.251412E-16	1.028851E-17
3.570000E+03	4.301022E-16	1.041005E-17
3.580000E+03	4.350243E-16	1.053043E-17
3.590000E+03	4.399082E-16	1.064966E-17
3.600000E+03	4.447566E-16	1.076779E-17
3.610000E+03	4.495741E-16	1.088492E-17
3.620000E+03	4.543673E-16	1.100119E-17
3.630000E+03	4.591450E-16	1.111680E-17
3.640000E+03	4.639176E-16	1.123200E-17
3.650000E+03	4.686975E-16	1.134706E-17
3.660000E+03	4.734987E-16	1.146232E-17
3.670000E+03	4.783363E-16	1.157812E-17
3.680000E+03	4.832974E-16	1.169656E-17
3.690000E+03	4.882587E-16	1.181464E-17
3.700000E+03	4.933075E-16	1.193445E-17
3.710000E+03	4.984617E-16	1.205643E-17
3.720000E+03	5.037384E-16	1.218095E-17
3.730000E+03	5.091541E-16	1.230841E-17
3.740000E+03	5.147985E-16	1.244095E-17
3.750000E+03	5.205366E-16	1.257530E-17
3.760000E+03	5.264538E-16	1.271349E-17
3.770000E+03	5.325586E-16	1.285571E-17
3.780000E+03	5.389344E-16	1.300396E-17
3.790000E+03	5.454291E-16	1.315453E-17
3.800000E+03	5.521181E-16	1.330923E-17
3.810000E+03	5.589957E-16	1.346789E-17
3.820000E+03	5.661333E-16	1.363221E-17
3.830000E+03	5.733553E-16	1.379793E-17
3.840000E+03	5.807230E-16	1.396651E-17
3.850000E+03	5.882127E-16	1.413734E-17
3.860000E+03	5.958813E-16	1.431178E-17
3.870000E+03	6.035274E-16	1.448496E-17
3.880000E+03	6.111985E-16	1.465799E-17
3.890000E+03	6.189421E-16	1.483201E-17
3.900000E+03	6.265401E-16	1.500175E-17
3.910000E+03	6.340332E-16	1.516820E-17
3.920000E+03	6.414641E-16	1.533234E-17
3.930000E+03	6.486034E-16	1.548871E-17
3.940000E+03	6.554914E-16	1.563824E-17
3.950000E+03	6.620793E-16	1.577980E-17
3.960000E+03	6.684140E-16	1.591449E-17
3.970000E+03	6.742635E-16	1.603680E-17
3.980000E+03	6.796795E-16	1.614798E-17
3.990000E+03	6.847203E-16	1.624945E-17
4.000000E+03	6.891626E-16	1.633592E-17
4.010000E+03	6.930743E-16	1.640904E-17
4.020000E+03	6.964346E-16	1.646835E-17
4.030000E+03	6.993262E-16	1.651586E-17
4.040000E+03	7.015461E-16	1.654681E-17
4.050000E+03	7.031900E-16	1.656351E-17
4.060000E+03	7.042629E-16	1.656614E-17
4.070000E+03	7.048735E-16	1.655729E-17
4.080000E+03	7.048434E-16	1.653284E-17
4.090000E+03	7.042929E-16	1.649566E-17
4.100000E+03	7.032491E-16	1.644645E-17
4.110000E+03	7.017439E-16	1.638601E-17
4.120000E+03	6.998121E-16	1.631521E-17
4.130000E+03	6.975878E-16	1.623722E-17
4.140000E+03	6.949189E-16	1.614856E-17
4.150000E+03	6.919433E-16	1.605247E-17
4.160000E+03	6.887039E-16	1.594999E-17
4.170000E+03	6.852437E-16	1.584218E-17
4.180000E+03	6.816056E-16	1.573004E-17
4.190000E+03	6.778319E-16	1.561460E-17
4.200000E+03	6.739641E-16	1.549683E-17
4.210000E+03	6.700425E-16	1.537769E-17
4.220000E+03	6.661059E-16	1.525807E-17
4.230000E+03	6.621916E-16	1.513886E-17
4.240000E+03	6.583355E-16	1.502087E-17
4.250000E+03	6.545718E-16	1.490489E-17
4.260000E+03	6.508449E-16	1.478966E-17
4.270000E+03	6.473624E-16	1.467989E-17
4.280000E+03	6.440657E-16	1.457424E-17
4.290000E+03	6.409826E-16	1.447331E-17
4.300000E+03	6.381405E-16	1.437770E-17
4.310000E+03	6.354794E-16	1.428605E-17
4.320000E+03	6.331955E-16	1.420272E-17
4.330000E+03	6.312263E-16	1.412629E-17
4.340000E+03	6.295095E-16	1.405531E-17
4.350000E+03	6.282351E-16	1.399399E-17
4.360000E+03	6.272530E-16	1.393893E-17
4.370000E+03	6.267479E-16	1.389419E-17
4.380000E+03	6.265649E-16	1.385627E-17
4.390000E+03	6.268792E-16	1.382900E-17
4.400000E+03	6.275244E-16	1.380863E-17
4.410000E+03	6.286622E-16	1.379866E-17
4.420000E+03	6.301144E-16	1.379512E-17
4.430000E+03	6.319495E-16	1.379945E-17
4.440000E+03	6.342336E-16	1.381303E-17
4.450000E+03	6.367784E-16	1.383167E-17
4.460000E+03	6.396455E-16	1.385667E-17
4.470000E+03	6.428111E-16	1.388744E-17
4.480000E+03	6.462491E-16	1.392337E-17
4.490000E+03	6.499326E-16	1.396383E-17
4.500000E+03	6.539192E-16	1.400999E-17
4.510000E+03	6.580077E-16	1.405749E-17
4.520000E+03	6.622530E-16	1.410749E-17
4.530000E+03	6.665366E-16	1.415741E-17
4.540000E+03	6.710012E-16	1.421028E-17
4.550000E+03	6.755282E-16	1.426354E-17
4.560000E+03	6.800861E-16	1.431652E-17
4.570000E+03	6.846442E-16	1.436855E-17
4.580000E+03	6.890828E-16	1.441712E-17
4.590000E+03	6.935537E-16	1.446542E-17
4.600000E+03	6.979413E-16	1.451102E-17
4.610000E+03	7.021310E-16	1.455157E-17
4.620000E+03	7.062847E-16	1.459043E-17
4.630000E+03	7.102019E-16	1.462349E-17
4.640000E+03	7.140540E-16	1.465430E-17
4.650000E+03	7.176464E-16	1.467890E-17
4.660000E+03	7.210662E-16	1.469909E-17
4.670000E+03	7.243127E-16	1.471491E-17
4.680000E+03	7.274834E-16	1.472836E-17
4.690000E+03	7.303980E-16	1.473581E-17
4.700000E+03	7.331621E-16	1.473944E-17
4.710000E+03	7.357910E-16	1.473959E-17
4.720000E+03	7.383037E-16	1.473665E-17
4.730000E+03	7.407221E-16	1.473110E-17
4.740000E+03	7.430705E-16	1.472344E-17
4.750000E+03	7.453759E-16	1.471421E-17
4.760000E+03	7.476662E-16	1.470396E-17
4.770000E+03	7.498746E-16	1.469141E-17
4.780000E+03	7.522230E-16	1.468089E-17
4.790000E+03	7.546452E-16	1.467108E-17
4.800000E+03	7.570736E-16	1.466068E-17
4.810000E+03	7.597304E-16	1.465395E-17
4.820000E+03	7.624483E-16	1.464764E-17
4.830000E+03	7.654475E-16	1.464595E-17
4.840000E+03	7.685565E-16	1.464554E-17
4.850000E+03	7.718939E-16	1.464865E-17
4.860000E+03	7.754787E-16	1.465558E-17
4.870000E+03	7.794268E-16	1.466845E-17
4.880000E+03	7.835542E-16	1.468375E-17
4.890000E+03	7.879714E-16	1.470348E-17
4.900000E+03	7.926875E-16	1.472775E-17
4.910000E+03	7.977094E-16	1.475662E-17
4.920000E+03	8.030416E-16	1.479010E-17
4.930000E+03	8.086871E-16	1.482818E-17
4.940000E+03	8.145432E-16	1.486891E-17
4.950000E+03	8.208148E-16	1.491597E-17
4.960000E+03	8.273974E-16	1.496737E-17
4.970000E+03	8.341821E-16	1.502107E-17
4.980000E+03	8.413746E-16	1.508072E-17
4.990000E+03	8.487582E-16	1.514236E-17
5.000000E+03	8.565406E-16	1.520964E-17
5.010000E+03	8.645008E-16	1.527856E-17
5.020000E+03	8.727397E-16	1.535086E-17
5.030000E+03	8.813617E-16	1.542831E-17
5.040000E+03	8.901396E-16	1.550686E-17
5.050000E+03	8.991768E-16	1.558827E-17
5.060000E+03	9.084667E-16	1.567239E-17
5.070000E+03	9.180027E-16	1.575905E-17
5.080000E+03	9.277777E-16	1.584808E-17
5.090000E+03	9.377845E-16	1.593931E-17
5.100000E+03	9.480154E-16	1.603258E-17
5.110000E+03	9.584617E-16	1.612769E-17
5.120000E+03	9.689927E-16	1.622243E-17
5.130000E+03	9.798393E-16	1.632064E-17
5.140000E+03	9.908695E-16	1.642008E-17
5.150000E+03	1.001945E-15	1.651844E-17
5.160000E+03	1.013299E-15	1.661959E-17
5.170000E+03	1.024664E-15	1.671908E-17
5.180000E+03	1.036145E-15	1.681869E-17
5.190000E+03	1.047853E-15	1.692017E-17
5.200000E+03	1.059504E-15	1.701897E-17
5.210000E+03	1.071203E-15	1.711681E-17
5.220000E+03	1.082923E-15	1.721328E-17
5.230000E+03	1.094635E-15	1.730796E-17
5.240000E+03	1.106309E-15	1.740043E-17
5.250000E+03	1.117913E-15	1.749023E-17
5.260000E+03	1.129413E-15	1.757692E-17
5.270000E+03	1.140777E-15	1.766005E-17
5.280000E+03	1.151826E-15	1.773698E-17
5.290000E+03	1.162814E-15	1.781170E-17
5.300000E+03	1.173562E-15	1.788157E-17
5.310000E+03	1.183891E-15	1.794400E-17
5.320000E+03	1.194062E-15	1.800306E-17
5.330000E+03	1.203747E-15	1.805394E-17
5.340000E+03	1.213214E-15	1.810083E-17
5.350000E+03	1.222135E-15	1.813895E-17
5.360000E+03	1.230634E-15	1.817034E-17
5.370000E+03	1.238837E-15	1.819701E-17
5.380000E+03	1.246416E-15	1.821429E-17
5.390000E+03	1.253502E-15	1.822429E-17
5.400000E+03	1.260075E-15	1.822690E-17
5.410000E+03	1.266115E-15	1.822202E-17
5.420000E+03	1.271603E-15	1.820956E-17
5.430000E+03	1.276527E-15	1.818950E-17
5.440000E+03	1.280869E-15	1.816181E-17
5.450000E+03	1.284460E-15	1.812426E-17
5.460000E+03	1.287604E-15	1.808136E-17
5.470000E+03	1.290135E-15	1.803093E-17
5.480000E+03	1.291890E-15	1.797087E-17
5.490000E+03	1.293185E-15	1.790576E-17
5.500000E+03	1.293705E-15	1.783144E-17
5.510000E+03	1.293779E-15	1.775258E-17
5.520000E+03	1.293101E-15	1.766511E-17
5.530000E+03	1.292010E-15	1.757375E-17
5.540000E+03	1.290211E-15	1.747452E-17
5.550000E+03	1.287896E-15	1.737004E-17
5.560000E+03	1.285098E-15	1.726080E-17
5.570000E+03	1.281852E-15	1.714729E-17
5.580000E+03	1.278201E-15	1.703008E-17
5.590000E+03	1.274189E-15	1.690975E-17
5.600000E+03	1.269859E-15	1.678688E-17
5.610000E+03	1.265261E-15	1.666210E-17
5.620000E+03	1.260447E-15	1.653604E-17
5.630000E+03	1.255466E-15	1.640935E-17
5.640000E+03	1.250370E-15	1.628265E-17
5.650000E+03	1.245060E-15	1.615460E-17
5.660000E+03	1.239893E-15	1.602978E-17
5.670000E+03	1.234765E-15	1.590678E-17
5.680000E+03	1.229572E-15	1.578419E-17
5.690000E+03	1.224660E-15	1.566640E-17
5.700000E+03	1.219771E-15	1.555002E-17
5.710000E+03	1.215090E-15	1.543733E-17
5.720000E+03	1.210799E-15	1.533057E-17
5.730000E+03	1.206625E-15	1.522620E-17
5.740000E+03	1.202739E-15	1.512631E-17
5.750000E+03	1.199157E-15	1.503098E-17
5.760000E+03	1.196032E-15	1.494208E-17
5.770000E+03	1.193078E-15	1.485593E-17
5.780000E+03	1.190436E-15	1.477422E-17
5.790000E+03	1.188100E-15	1.469680E-17
5.800000E+03	1.186057E-15	1.462345E-17
5.810000E+03	1.184289E-15	1.455386E-17
5.820000E+03	1.182774E-15	1.448770E-17
5.830000E+03	1.181342E-15	1.442284E-17
5.840000E+03	1.180254E-15	1.436241E-17
5.850000E+03	1.179336E-15	1.430423E-17
5.860000E+03	1.178554E-15	1.424786E-17
5.870000E+03	1.177734E-15	1.419114E-17
5.880000E+03	1.177130E-15	1.413713E-17
5.890000E+03	1.176567E-15	1.408366E-17
5.900000E+03	1.175872E-15	1.402867E-17
5.910000E+03	1.175305E-15	1.397524E-17
5.920000E+03	1.174554E-15	1.391966E-17
5.930000E+03	1.173740E-15	1.386335E-17
5.940000E+03	1.172992E-15	1.380783E-17
5.950000E+03	1.172007E-15	1.374953E-17
5.960000E+03	1.170920E-15	1.369006E-17
5.970000E+03	1.169868E-15	1.363102E-17
5.980000E+03	1.168564E-15	1.356908E-17
5.990000E+03	1.167154E-15	1.350594E-17
6.000000E+03	1.165642E-15	1.344169E-17
6.010000E+03	1.164039E-15	1.337646E-17
6.020000E+03	1.162352E-15	1.331036E-17
6.030000E+03	1.160599E-15	1.324360E-17
6.040000E+03	1.158789E-15	1.317632E-17
6.050000E+03	1.156940E-15	1.310873E-17
6.060000E+03	1.155064E-15	1.304101E-17
6.070000E+03	1.153175E-15	1.297332E-17
6.080000E+03	1.151285E-15	1.290582E-17
6.090000E+03	1.149263E-15	1.283707E-17
6.100000E+03	1.147398E-15	1.277035E-17
6.110000E+03	1.145554E-15	1.270414E-17
6.120000E+03	1.143731E-15	1.263848E-17
6.130000E+03	1.141789E-15	1.257185E-17
6.140000E+03	1.139998E-15	1.250728E-17
6.150000E+03	1.138074E-15	1.244166E-17
6.160000E+03	1.136277E-15	1.237790E-17
6.170000E+03	1.134316E-15	1.231285E-17
6.180000E+03	1.132446E-15	1.224934E-17
6.190000E+03	1.130367E-15	1.218418E-17
6.200000E+03	1.128330E-15	1.212012E-17
6.210000E+03	1.126031E-15	1.205397E-17
6.220000E+03	1.123578E-15	1.198695E-17
6.230000E+03	1.121079E-15	1.192028E-17
6.240000E+03	1.118226E-15	1.185076E-17
6.250000E+03	1.115126E-15	1.177961E-17
6.260000E+03	1.111888E-15	1.170805E-17
6.270000E+03	1.108208E-15	1.163298E-17
6.280000E+03	1.104198E-15	1.155565E-17
6.290000E+03	1.099834E-15	1.147591E-17
6.300000E+03	1.095095E-15	1.139363E-17
6.310000E+03	1.089964E-15	1.130873E-17
6.320000E+03	1.084430E-15	1.122116E-17
6.330000E+03	1.078483E-15	1.113093E-17
6.340000E+03	1.072121E-15	1.103809E-17
6.350000E+03	1.065343E-15	1.094272E-17
6.360000E+03	1.058157E-15	1.084496E-17
6.370000E+03	1.050573E-15	1.074498E-17
6.380000E+03	1.042606E-15	1.064302E-17
6.390000E+03	1.034275E-15	1.053932E-17
6.400000E+03	1.025480E-15	1.043291E-17
6.410000E+03	1.016500E-15	1.032667E-17
6.420000E+03	1.007238E-15	1.021965E-17
6.430000E+03	9.977272E-16	1.011222E-17
6.440000E+03	9.878847E-16	1.000355E-17
6.450000E+03	9.779890E-16	9.896471E-18
6.460000E+03	9.679564E-16	9.790148E-18
6.470000E+03	9.577087E-16	9.683787E-18
6.480000E+03	9.475202E-16	9.580151E-18
6.490000E+03	9.373103E-16	9.478412E-18
6.500000E+03	9.269987E-16	9.377685E-18
6.510000E+03	9.168481E-16	9.280492E-18
6.520000E+03	9.066599E-16	9.184683E-18
6.530000E+03	8.966857E-16	9.092668E-18
6.540000E+03	8.867377E-16	9.002410E-18
6.550000E+03	8.769599E-16	8.915242E-18
6.560000E+03	8.674953E-16	8.832493E-18
6.570000E+03	8.581601E-16	8.752179E-18
6.580000E+03	8.491933E-16	8.676624E-18
6.590000E+03	8.404084E-16	8.603821E-18
6.600000E+03	8.319310E-16	8.534953E-18
6.610000E+03	8.238797E-16	8.471151E-18
6.620000E+03	8.160662E-16	8.410398E-18
6.630000E+03	8.086063E-16	8.353804E-18
6.640000E+03	8.015118E-16	8.301423E-18
6.650000E+03	7.947935E-16	8.253302E-18
6.660000E+03	7.885586E-16	8.210499E-18
6.670000E+03	7.826218E-16	8.171035E-18
6.680000E+03	7.770900E-16	8.135976E-18
6.690000E+03	7.719727E-16	8.105379E-18
6.700000E+03	7.672791E-16	8.079305E-18
6.710000E+03	7.630188E-16	8.057825E-18
6.720000E+03	7.592021E-16	8.041020E-18
6.730000E+03	7.558392E-16	8.028977E-18
6.740000E+03	7.529410E-16	8.021794E-18
6.750000E+03	7.505187E-16	8.019577E-18
6.760000E+03	7.485840E-16	8.022437E-18
6.770000E+03	7.471485E-16	8.030495E-18
6.780000E+03	7.462242E-16	8.043873E-18
6.790000E+03	7.458227E-16	8.062695E-18
6.800000E+03	7.459558E-16	8.087086E-18
6.810000E+03	7.466345E-16	8.117169E-18
6.820000E+03	7.477770E-16	8.152055E-18
6.830000E+03	7.495778E-16	8.193864E-18
6.840000E+03	7.519534E-16	8.241693E-18
6.850000E+03	7.549116E-16	8.295633E-18
6.860000E+03	7.583650E-16	8.354722E-18
6.870000E+03	7.625053E-16	8.421074E-18
6.880000E+03	7.672427E-16	8.493703E-18
6.890000E+03	7.725781E-16	8.572619E-18
6.900000E+03	7.784146E-16	8.656739E-18
6.910000E+03	7.849413E-16	8.748160E-18
6.920000E+03	7.919591E-16	8.844658E-18
6.930000E+03	7.996559E-16	8.948315E-18
6.940000E+03	8.079242E-16	9.057917E-18
6.950000E+03	8.166499E-16	9.172163E-18
6.960000E+03	8.260189E-16	9.293118E-18
6.970000E+03	8.358091E-16	9.418253E-18
6.980000E+03	8.462057E-16	9.549623E-18
6.990000E+03	8.569756E-16	9.684561E-18
7.000000E+03	8.683035E-16	9.825113E-18
7.010000E+03	8.799452E-16	9.968470E-18
7.020000E+03	8.919748E-16	1.011542E-17
7.030000E+03	9.044688E-16	1.026677E-17
7.040000E+03	9.171665E-16	1.041952E-17
7.050000E+03	9.302525E-16	1.057569E-17
7.060000E+03	9.434550E-16	1.073214E-17
7.070000E+03	9.568411E-16	1.088955E-17
7.080000E+03	9.703640E-16	1.104733E-17
7.090000E+03	9.840955E-16	1.120622E-17
7.100000E+03	9.977403E-16	1.136279E-17
7.110000E+03	1.011367E-15	1.151776E-17
7.120000E+03	1.024919E-15	1.167041E-17
7.130000E+03	1.038343E-15	1.182005E-17
7.140000E+03	1.051711E-15	1.196745E-17
7.150000E+03	1.064708E-15	1.210896E-17
7.160000E+03	1.077404E-15	1.224533E-17
7.170000E+03	1.089747E-15	1.237590E-17
7.180000E+03	1.101680E-15	1.249997E-17
7.190000E+03	1.113149E-15	1.261690E-17
7.200000E+03	1.124104E-15	1.272609E-17
7.210000E+03	1.134498E-15	1.282697E-17
7.220000E+03	1.144282E-15	1.291898E-17
7.230000E+03	1.153417E-15	1.300168E-17
7.240000E+03	1.161866E-15	1.307463E-17
7.250000E+03	1.169597E-15	1.313749E-17
7.260000E+03	1.176583E-15	1.318998E-17
7.270000E+03	1.182802E-15	1.323190E-17
7.280000E+03	1.188092E-15	1.326146E-17
7.290000E+03	1.192743E-15	1.328196E-17
7.300000E+03	1.196605E-15	1.329177E-17
7.310000E+03	1.199684E-15	1.329104E-17
7.320000E+03	1.201841E-15	1.327832E-17
7.330000E+03	1.203399E-15	1.325724E-17
7.340000E+03	1.204235E-15	1.322654E-17
7.350000E+03	1.204381E-15	1.318665E-17
7.360000E+03	1.203726E-15	1.313647E-17
7.370000E+03	1.202617E-15	1.307990E-17
7.380000E+03	1.200803E-15	1.301429E-17
7.390000E+03	1.198642E-15	1.294364E-17
7.400000E+03	1.196041E-15	1.286702E-17
7.410000E+03	1.192911E-15	1.278358E-17
7.420000E+03	1.189618E-15	1.269736E-17
7.430000E+03	1.185927E-15	1.260592E-17
7.440000E+03	1.182204E-15	1.251324E-17
7.450000E+03	1.178217E-15	1.241695E-17
7.460000E+03	1.174182E-15	1.231939E-17
7.470000E+03	1.170309E-15	1.222285E-17
7.480000E+03	1.166363E-15	1.212491E-17
7.490000E+03	1.162552E-15	1.202781E-17
7.500000E+03	1.159078E-15	1.193366E-17
7.510000E+03	1.155697E-15	1.183998E-17
7.520000E+03	1.152600E-15	1.174878E-17
7.530000E+03	1.149830E-15	1.166053E-17
7.540000E+03	1.147567E-15	1.157705E-17
7.550000E+03	1.145548E-15	1.149570E-17
7.560000E+03	1.143942E-15	1.141821E-17
7.570000E+03	1.142765E-15	1.134474E-17
7.580000E+03	1.142026E-15	1.127539E-17
7.590000E+03	1.141728E-15	1.121020E-17
7.600000E+03	1.141864E-15	1.114912E-17
7.610000E+03	1.142424E-15	1.109207E-17
7.620000E+03	1.143388E-15	1.103886E-17
7.630000E+03	1.144729E-15	1.098927E-17
7.640000E+03	1.146413E-15	1.094300E-17
7.650000E+03	1.148399E-15	1.089973E-17
7.660000E+03	1.150641E-15	1.085905E-17
7.670000E+03	1.153083E-15	1.082053E-17
7.680000E+03	1.155665E-15	1.078366E-17
7.690000E+03	1.158324E-15	1.074797E-17
7.700000E+03	1.160838E-15	1.071152E-17
7.710000E+03	1.163429E-15	1.067648E-17
7.720000E+03	1.165873E-15	1.064094E-17
7.730000E+03	1.167939E-15	1.060293E-17
7.740000E+03	1.169843E-15	1.056462E-17
7.750000E+03	1.171354E-15	1.052407E-17
7.760000E+03	1.172240E-15	1.047940E-17
