#wls	flux	fluxerr
1.600000E+03	1.662876E-16	7.885341E-18
1.640000E+03	1.700026E-16	8.038484E-18
1.680000E+03	1.736264E-16	8.185731E-18
1.720000E+03	1.771715E-16	8.327660E-18
1.760000E+03	1.805898E-16	8.462000E-18
1.800000E+03	1.838324E-16	8.586478E-18
1.840000E+03	1.869497E-16	8.703463E-18
1.880000E+03	1.899311E-16	8.812477E-18
1.920000E+03	1.926998E-16	8.909995E-18
1.960000E+03	1.953168E-16	8.998872E-18
2.000000E+03	1.977087E-16	9.075776E-18
2.040000E+03	1.999427E-16	9.143856E-18
2.080000E+03	2.019842E-16	9.201567E-18
2.120000E+03	2.038702E-16	9.250660E-18
2.160000E+03	2.055311E-16	9.288033E-18
2.200000E+03	2.070409E-16	9.317105E-18
2.240000E+03	2.083641E-16	9.336341E-18
2.280000E+03	2.094998E-16	9.345775E-18
2.320000E+03	2.104434E-16	9.345290E-18
2.360000E+03	2.111875E-16	9.334647E-18
2.400000E+03	2.117576E-16	9.315068E-18
2.440000E+03	2.121025E-16	9.284399E-18
2.480000E+03	2.122062E-16	9.242074E-18
2.520000E+03	2.120552E-16	9.187651E-18
2.560000E+03	2.116804E-16	9.122631E-18
2.600000E+03	2.110542E-16	9.045976E-18
2.640000E+03	2.101713E-16	8.957631E-18
2.680000E+03	2.091971E-16	8.864801E-18
2.720000E+03	2.081026E-16	8.766331E-18
2.760000E+03	2.070218E-16	8.667930E-18
2.800000E+03	2.060967E-16	8.575505E-18
2.840000E+03	2.054006E-16	8.491971E-18
2.880000E+03	2.050409E-16	8.421560E-18
2.920000E+03	2.051200E-16	8.368179E-18
2.960000E+03	2.057712E-16	8.336849E-18
3.000000E+03	2.070167E-16	8.327978E-18
3.010000E+03	2.074545E-16	8.330553E-18
3.020000E+03	2.079386E-16	8.334854E-18
3.030000E+03	2.084349E-16	8.339501E-18
3.040000E+03	2.090155E-16	8.347373E-18
3.050000E+03	2.096463E-16	8.357091E-18
3.060000E+03	2.102927E-16	8.367269E-18
3.070000E+03	2.110274E-16	8.380790E-18
3.080000E+03	2.118162E-16	8.396272E-18
3.090000E+03	2.126600E-16	8.413743E-18
3.100000E+03	2.135239E-16	8.431808E-18
3.110000E+03	2.144812E-16	8.453358E-18
3.120000E+03	2.154972E-16	8.476996E-18
3.130000E+03	2.165727E-16	8.502744E-18
3.140000E+03	2.177089E-16	8.530634E-18
3.150000E+03	2.188695E-16	8.559234E-18
3.160000E+03	2.201297E-16	8.591467E-18
3.170000E+03	2.214532E-16	8.625899E-18
3.180000E+03	2.228411E-16	8.662552E-18
3.190000E+03	2.242940E-16	8.701438E-18
3.200000E+03	2.258126E-16	8.742567E-18
3.210000E+03	2.273593E-16	8.784464E-18
3.220000E+03	2.290111E-16	8.830094E-18
3.230000E+03	2.307302E-16	8.877978E-18
3.240000E+03	2.325172E-16	8.928118E-18
3.250000E+03	2.343723E-16	8.980501E-18
3.260000E+03	2.362957E-16	9.035121E-18
3.270000E+03	2.382874E-16	9.091961E-18
3.280000E+03	2.403475E-16	9.151003E-18
3.290000E+03	2.424759E-16	9.212222E-18
3.300000E+03	2.446721E-16	9.275589E-18
3.310000E+03	2.469360E-16	9.341073E-18
3.320000E+03	2.492669E-16	9.408635E-18
3.330000E+03	2.516642E-16	9.478229E-18
3.340000E+03	2.540847E-16	9.548212E-18
3.350000E+03	2.566121E-16	9.621721E-18
3.360000E+03	2.592032E-16	9.697105E-18
3.370000E+03	2.618569E-16	9.774310E-18
3.380000E+03	2.645720E-16	9.853266E-18
3.390000E+03	2.673470E-16	9.933904E-18
3.400000E+03	2.701805E-16	1.001616E-17
3.410000E+03	2.730709E-16	1.009994E-17
3.420000E+03	2.760625E-16	1.018688E-17
3.430000E+03	2.790621E-16	1.027351E-17
3.440000E+03	2.821132E-16	1.036143E-17
3.450000E+03	2.852140E-16	1.045055E-17
3.460000E+03	2.883627E-16	1.054079E-17
3.470000E+03	2.915572E-16	1.063207E-17
3.480000E+03	2.947957E-16	1.072429E-17
3.490000E+03	2.980759E-16	1.081738E-17
3.500000E+03	3.013962E-16	1.091124E-17
3.510000E+03	3.047544E-16	1.100579E-17
3.520000E+03	3.081487E-16	1.110095E-17
3.530000E+03	3.115773E-16	1.119665E-17
3.540000E+03	3.150383E-16	1.129281E-17
3.550000E+03	3.185301E-16	1.138935E-17
3.560000E+03	3.220510E-16	1.148620E-17
3.570000E+03	3.256534E-16	1.158523E-17
3.580000E+03	3.292285E-16	1.168254E-17
3.590000E+03	3.328282E-16	1.177997E-17
3.600000E+03	3.364512E-16	1.187747E-17
3.610000E+03	3.400961E-16	1.197499E-17
3.620000E+03	3.437619E-16	1.207247E-17
3.630000E+03	3.474472E-16	1.216987E-17
3.640000E+03	3.511508E-16	1.226712E-17
3.650000E+03	3.548716E-16	1.236420E-17
3.660000E+03	3.586675E-16	1.246309E-17
3.670000E+03	3.624194E-16	1.255966E-17
3.680000E+03	3.661847E-16	1.265589E-17
3.690000E+03	3.699618E-16	1.275172E-17
3.700000E+03	3.737491E-16	1.284710E-17
3.710000E+03	3.775448E-16	1.294195E-17
3.720000E+03	3.813469E-16	1.303620E-17
3.730000E+03	3.851531E-16	1.312978E-17
3.740000E+03	3.890249E-16	1.322476E-17
3.750000E+03	3.928321E-16	1.331672E-17
3.760000E+03	3.966350E-16	1.340771E-17
3.770000E+03	4.004300E-16	1.349761E-17
3.780000E+03	4.042133E-16	1.358629E-17
3.790000E+03	4.079807E-16	1.367361E-17
3.800000E+03	4.117275E-16	1.375942E-17
3.810000E+03	4.154487E-16	1.384355E-17
3.820000E+03	4.192074E-16	1.392812E-17
3.830000E+03	4.228616E-16	1.400840E-17
3.840000E+03	4.264729E-16	1.408646E-17
3.850000E+03	4.300350E-16	1.416210E-17
3.860000E+03	4.335412E-16	1.423511E-17
3.870000E+03	4.369847E-16	1.430529E-17
3.880000E+03	4.403582E-16	1.437242E-17
3.890000E+03	4.436546E-16	1.443629E-17
3.900000E+03	4.469393E-16	1.449904E-17
3.910000E+03	4.500601E-16	1.455575E-17
3.920000E+03	4.530819E-16	1.460856E-17
3.930000E+03	4.559978E-16	1.465729E-17
3.940000E+03	4.588009E-16	1.470174E-17
3.950000E+03	4.614848E-16	1.474174E-17
3.960000E+03	4.640432E-16	1.477713E-17
3.970000E+03	4.664708E-16	1.480777E-17
3.980000E+03	4.687621E-16	1.483355E-17
3.990000E+03	4.709895E-16	1.485677E-17
4.000000E+03	4.729964E-16	1.487253E-17
4.010000E+03	4.748561E-16	1.488321E-17
4.020000E+03	4.765661E-16	1.488877E-17
4.030000E+03	4.781253E-16	1.488922E-17
4.040000E+03	4.795328E-16	1.488458E-17
4.050000E+03	4.807892E-16	1.487492E-17
4.060000E+03	4.818958E-16	1.486033E-17
4.070000E+03	4.828546E-16	1.484091E-17
4.080000E+03	4.836688E-16	1.481681E-17
4.090000E+03	4.843424E-16	1.478821E-17
4.100000E+03	4.848802E-16	1.475528E-17
4.110000E+03	4.852877E-16	1.471824E-17
4.120000E+03	4.855715E-16	1.467734E-17
4.130000E+03	4.857389E-16	1.463284E-17
4.140000E+03	4.857977E-16	1.458500E-17
4.150000E+03	4.857562E-16	1.453411E-17
4.160000E+03	4.856239E-16	1.448049E-17
4.170000E+03	4.854101E-16	1.442445E-17
4.180000E+03	4.851250E-16	1.436631E-17
4.190000E+03	4.847791E-16	1.430642E-17
4.200000E+03	4.843831E-16	1.424510E-17
4.210000E+03	4.839479E-16	1.418270E-17
4.220000E+03	4.834848E-16	1.411957E-17
4.230000E+03	4.830049E-16	1.405602E-17
4.240000E+03	4.825198E-16	1.399243E-17
4.250000E+03	4.820407E-16	1.392909E-17
4.260000E+03	4.815787E-16	1.386635E-17
4.270000E+03	4.811450E-16	1.380453E-17
4.280000E+03	4.807505E-16	1.374392E-17
4.290000E+03	4.803290E-16	1.368263E-17
4.300000E+03	4.800446E-16	1.362534E-17
4.310000E+03	4.798302E-16	1.357010E-17
4.320000E+03	4.796952E-16	1.351716E-17
4.330000E+03	4.796485E-16	1.346676E-17
4.340000E+03	4.796986E-16	1.341911E-17
4.350000E+03	4.798530E-16	1.337438E-17
4.360000E+03	4.800420E-16	1.333062E-17
4.370000E+03	4.804246E-16	1.329222E-17
4.380000E+03	4.809292E-16	1.325715E-17
4.390000E+03	4.815596E-16	1.322548E-17
4.400000E+03	4.822415E-16	1.319515E-17
4.410000E+03	4.831295E-16	1.317035E-17
4.420000E+03	4.841473E-16	1.314896E-17
4.430000E+03	4.852941E-16	1.313092E-17
4.440000E+03	4.864908E-16	1.311406E-17
4.450000E+03	4.878893E-16	1.310244E-17
4.460000E+03	4.894093E-16	1.309387E-17
4.470000E+03	4.910472E-16	1.308819E-17
4.480000E+03	4.927207E-16	1.308319E-17
4.490000E+03	4.945812E-16	1.308287E-17
4.500000E+03	4.964675E-16	1.308292E-17
4.510000E+03	4.985317E-16	1.308731E-17
4.520000E+03	5.006901E-16	1.309382E-17
4.530000E+03	5.028581E-16	1.310021E-17
4.540000E+03	5.051892E-16	1.311045E-17
4.550000E+03	5.075991E-16	1.312231E-17
4.560000E+03	5.100020E-16	1.313358E-17
4.570000E+03	5.125539E-16	1.314824E-17
4.580000E+03	5.150884E-16	1.316200E-17
4.590000E+03	5.177635E-16	1.317888E-17
4.600000E+03	5.204118E-16	1.319461E-17
4.610000E+03	5.231934E-16	1.321323E-17
4.620000E+03	5.259400E-16	1.323046E-17
4.630000E+03	5.288141E-16	1.325040E-17
4.640000E+03	5.316467E-16	1.326878E-17
4.650000E+03	5.346028E-16	1.328971E-17
4.660000E+03	5.375127E-16	1.330897E-17
4.670000E+03	5.404585E-16	1.332858E-17
4.680000E+03	5.435253E-16	1.335063E-17
4.690000E+03	5.465418E-16	1.337090E-17
4.700000E+03	5.496798E-16	1.339357E-17
4.710000E+03	5.527675E-16	1.341445E-17
4.720000E+03	5.558917E-16	1.343566E-17
4.730000E+03	5.591415E-16	1.345932E-17
4.740000E+03	5.623437E-16	1.348125E-17
4.750000E+03	5.655877E-16	1.350360E-17
4.760000E+03	5.688758E-16	1.352640E-17
4.770000E+03	5.723003E-16	1.355184E-17
4.780000E+03	5.756854E-16	1.357573E-17
4.790000E+03	5.791231E-16	1.360025E-17
4.800000E+03	5.826169E-16	1.362545E-17
4.810000E+03	5.862616E-16	1.365354E-17
4.820000E+03	5.898779E-16	1.368031E-17
4.830000E+03	5.935600E-16	1.370795E-17
4.840000E+03	5.973114E-16	1.373653E-17
4.850000E+03	6.011354E-16	1.376610E-17
4.860000E+03	6.050351E-16	1.379671E-17
4.870000E+03	6.090134E-16	1.382841E-17
4.880000E+03	6.130731E-16	1.386124E-17
4.890000E+03	6.172167E-16	1.389525E-17
4.900000E+03	6.214466E-16	1.393045E-17
4.910000E+03	6.258623E-16	1.396906E-17
4.920000E+03	6.302711E-16	1.400674E-17
4.930000E+03	6.346721E-16	1.404347E-17
4.940000E+03	6.392639E-16	1.408365E-17
4.950000E+03	6.439487E-16	1.412506E-17
4.960000E+03	6.487270E-16	1.416771E-17
4.970000E+03	6.535984E-16	1.421156E-17
4.980000E+03	6.585627E-16	1.425659E-17
4.990000E+03	6.636190E-16	1.430276E-17
5.000000E+03	6.687660E-16	1.435001E-17
5.010000E+03	6.740020E-16	1.439830E-17
5.020000E+03	6.793248E-16	1.444756E-17
5.030000E+03	6.846256E-16	1.449547E-17
5.040000E+03	6.901136E-16	1.454645E-17
5.050000E+03	6.956796E-16	1.459817E-17
5.060000E+03	7.013200E-16	1.465054E-17
5.070000E+03	7.070304E-16	1.470346E-17
5.080000E+03	7.126958E-16	1.475453E-17
5.090000E+03	7.185315E-16	1.480821E-17
5.100000E+03	7.244223E-16	1.486212E-17
5.110000E+03	7.302492E-16	1.491380E-17
5.120000E+03	7.362315E-16	1.496775E-17
5.130000E+03	7.422503E-16	1.502153E-17
5.140000E+03	7.481827E-16	1.507268E-17
5.150000E+03	7.542524E-16	1.512570E-17
5.160000E+03	7.602189E-16	1.517579E-17
5.170000E+03	7.663088E-16	1.522747E-17
5.180000E+03	7.723971E-16	1.527827E-17
5.190000E+03	7.783549E-16	1.532566E-17
5.200000E+03	7.844133E-16	1.537422E-17
5.210000E+03	7.903214E-16	1.541905E-17
5.220000E+03	7.963141E-16	1.546476E-17
5.230000E+03	8.021364E-16	1.550643E-17
5.240000E+03	8.079013E-16	1.554628E-17
5.250000E+03	8.137253E-16	1.558659E-17
5.260000E+03	8.193484E-16	1.562240E-17
5.270000E+03	8.250137E-16	1.565840E-17
5.280000E+03	8.304579E-16	1.568963E-17
5.290000E+03	8.357987E-16	1.571836E-17
5.300000E+03	8.411573E-16	1.574693E-17
5.310000E+03	8.462662E-16	1.577037E-17
5.320000E+03	8.512463E-16	1.579100E-17
5.330000E+03	8.562223E-16	1.581118E-17
5.340000E+03	8.609231E-16	1.582595E-17
5.350000E+03	8.654734E-16	1.583769E-17
5.360000E+03	8.698671E-16	1.584634E-17
5.370000E+03	8.742332E-16	1.585431E-17
5.380000E+03	8.782977E-16	1.585669E-17
5.390000E+03	8.821905E-16	1.585589E-17
5.400000E+03	8.859078E-16	1.585193E-17
5.410000E+03	8.894466E-16	1.584482E-17
5.420000E+03	8.928047E-16	1.583457E-17
5.430000E+03	8.959803E-16	1.582124E-17
5.440000E+03	8.991114E-16	1.580730E-17
5.450000E+03	9.019210E-16	1.578795E-17
5.460000E+03	9.045477E-16	1.576571E-17
5.470000E+03	9.069930E-16	1.574065E-17
5.480000E+03	9.092584E-16	1.571287E-17
5.490000E+03	9.113464E-16	1.568249E-17
5.500000E+03	9.132595E-16	1.564960E-17
5.510000E+03	9.149986E-16	1.561428E-17
5.520000E+03	9.165652E-16	1.557661E-17
5.530000E+03	9.179613E-16	1.553664E-17
5.540000E+03	9.190489E-16	1.549207E-17
5.550000E+03	9.201142E-16	1.544775E-17
5.560000E+03	9.210203E-16	1.540137E-17
5.570000E+03	9.217720E-16	1.535304E-17
5.580000E+03	9.223743E-16	1.530284E-17
5.590000E+03	9.228327E-16	1.525088E-17
5.600000E+03	9.231534E-16	1.519727E-17
5.610000E+03	9.232006E-16	1.513978E-17
5.620000E+03	9.232647E-16	1.508320E-17
5.630000E+03	9.232106E-16	1.502531E-17
5.640000E+03	9.230451E-16	1.496621E-17
5.650000E+03	9.226334E-16	1.490373E-17
5.660000E+03	9.222662E-16	1.484258E-17
5.670000E+03	9.218085E-16	1.478056E-17
5.680000E+03	9.212671E-16	1.471778E-17
5.690000E+03	9.205073E-16	1.465209E-17
5.700000E+03	9.198182E-16	1.458810E-17
5.710000E+03	9.189233E-16	1.452141E-17
5.720000E+03	9.181106E-16	1.445657E-17
5.730000E+03	9.172442E-16	1.439141E-17
5.740000E+03	9.161882E-16	1.432381E-17
5.750000E+03	9.152285E-16	1.425824E-17
5.760000E+03	9.140878E-16	1.419035E-17
5.770000E+03	9.130500E-16	1.412456E-17
5.780000E+03	9.118378E-16	1.405656E-17
5.790000E+03	9.107334E-16	1.399070E-17
5.800000E+03	9.094590E-16	1.392269E-17
5.810000E+03	9.082950E-16	1.385683E-17
5.820000E+03	9.069634E-16	1.378887E-17
5.830000E+03	9.057431E-16	1.372303E-17
5.840000E+03	9.043560E-16	1.365510E-17
5.850000E+03	9.030791E-16	1.358926E-17
5.860000E+03	9.016346E-16	1.352132E-17
5.870000E+03	9.002982E-16	1.345541E-17
5.880000E+03	8.987922E-16	1.338738E-17
5.890000E+03	8.972534E-16	1.331927E-17
5.900000E+03	8.958173E-16	1.325309E-17
5.910000E+03	8.942073E-16	1.318474E-17
5.920000E+03	8.925592E-16	1.311623E-17
5.930000E+03	8.910074E-16	1.304953E-17
5.940000E+03	8.892767E-16	1.298062E-17
5.950000E+03	8.875017E-16	1.291146E-17
5.960000E+03	8.856807E-16	1.284205E-17
5.970000E+03	8.839473E-16	1.277431E-17
5.980000E+03	8.820283E-16	1.270431E-17
5.990000E+03	8.800576E-16	1.263398E-17
6.000000E+03	8.780338E-16	1.256331E-17
6.010000E+03	8.759549E-16	1.249230E-17
6.020000E+03	8.739535E-16	1.242283E-17
6.030000E+03	8.717598E-16	1.235107E-17
6.040000E+03	8.695066E-16	1.227893E-17
6.050000E+03	8.671924E-16	1.220640E-17
6.060000E+03	8.648159E-16	1.213348E-17
6.070000E+03	8.623756E-16	1.206016E-17
6.080000E+03	8.598701E-16	1.198643E-17
6.090000E+03	8.572980E-16	1.191230E-17
6.100000E+03	8.546579E-16	1.183776E-17
6.110000E+03	8.519484E-16	1.176281E-17
6.120000E+03	8.491681E-16	1.168744E-17
6.130000E+03	8.464451E-16	1.161344E-17
6.140000E+03	8.435184E-16	1.153724E-17
6.150000E+03	8.405165E-16	1.146063E-17
6.160000E+03	8.373099E-16	1.138187E-17
6.170000E+03	8.341544E-16	1.130445E-17
6.180000E+03	8.309200E-16	1.122664E-17
6.190000E+03	8.276058E-16	1.114844E-17
6.200000E+03	8.242109E-16	1.106986E-17
6.210000E+03	8.207345E-16	1.099092E-17
6.220000E+03	8.171764E-16	1.091164E-17
6.230000E+03	8.135365E-16	1.083202E-17
6.240000E+03	8.098150E-16	1.075212E-17
6.250000E+03	8.060127E-16	1.067195E-17
6.260000E+03	8.021305E-16	1.059155E-17
6.270000E+03	7.980478E-16	1.050935E-17
6.280000E+03	7.940121E-16	1.042865E-17
6.290000E+03	7.899028E-16	1.034787E-17
6.300000E+03	7.857235E-16	1.026707E-17
6.310000E+03	7.814778E-16	1.018633E-17
6.320000E+03	7.771704E-16	1.010573E-17
6.330000E+03	7.726879E-16	1.002381E-17
6.340000E+03	7.682737E-16	9.943754E-18
6.350000E+03	7.638150E-16	9.864111E-18
6.360000E+03	7.593192E-16	9.784987E-18
6.370000E+03	7.546780E-16	9.705008E-18
6.380000E+03	7.501320E-16	9.627283E-18
6.390000E+03	7.455734E-16	9.550432E-18
6.400000E+03	7.408982E-16	9.473136E-18
6.410000E+03	7.363439E-16	9.398443E-18
6.420000E+03	7.318061E-16	9.325024E-18
6.430000E+03	7.271838E-16	9.251597E-18
6.440000E+03	7.227110E-16	9.181149E-18
6.450000E+03	7.182857E-16	9.112382E-18
6.460000E+03	7.138086E-16	9.044041E-18
6.470000E+03	7.095089E-16	8.979033E-18
6.480000E+03	7.052857E-16	8.916077E-18
6.490000E+03	7.010395E-16	8.853919E-18
6.500000E+03	6.969932E-16	8.795370E-18
6.510000E+03	6.929383E-16	8.737766E-18
6.520000E+03	6.890924E-16	8.683796E-18
6.530000E+03	6.852463E-16	8.630771E-18
6.540000E+03	6.816180E-16	8.581384E-18
6.550000E+03	6.780108E-16	8.533107E-18
6.560000E+03	6.746453E-16	8.488666E-18
6.570000E+03	6.713246E-16	8.445535E-18
6.580000E+03	6.682646E-16	8.406383E-18
6.590000E+03	6.652679E-16	8.368679E-18
6.600000E+03	6.625460E-16	8.335042E-18
6.610000E+03	6.599012E-16	8.302939E-18
6.620000E+03	6.575418E-16	8.274951E-18
6.630000E+03	6.552703E-16	8.248552E-18
6.640000E+03	6.532925E-16	8.226294E-18
6.650000E+03	6.514112E-16	8.205658E-18
6.660000E+03	6.498304E-16	8.189178E-18
6.670000E+03	6.483535E-16	8.174343E-18
6.680000E+03	6.470838E-16	8.162420E-18
6.690000E+03	6.461233E-16	8.154668E-18
6.700000E+03	6.452761E-16	8.148584E-18
6.710000E+03	6.447436E-16	8.146679E-18
6.720000E+03	6.443299E-16	8.146454E-18
6.730000E+03	6.441364E-16	8.149163E-18
6.740000E+03	6.442644E-16	8.156060E-18
6.750000E+03	6.445180E-16	8.164641E-18
6.760000E+03	6.449977E-16	8.176156E-18
6.770000E+03	6.458046E-16	8.191862E-18
6.780000E+03	6.467415E-16	8.209234E-18
6.790000E+03	6.479086E-16	8.229521E-18
6.800000E+03	6.493065E-16	8.252710E-18
6.810000E+03	6.510360E-16	8.280059E-18
6.820000E+03	6.528971E-16	8.309004E-18
6.830000E+03	6.549892E-16	8.340788E-18
6.840000E+03	6.573116E-16	8.375381E-18
6.850000E+03	6.599646E-16	8.414039E-18
6.860000E+03	6.627439E-16	8.454137E-18
6.870000E+03	6.657483E-16	8.496914E-18
6.880000E+03	6.689753E-16	8.542315E-18
6.890000E+03	6.724214E-16	8.590271E-18
6.900000E+03	6.761868E-16	8.642046E-18
6.910000E+03	6.800594E-16	8.694902E-18
6.920000E+03	6.841376E-16	8.750075E-18
6.930000E+03	6.884156E-16	8.807465E-18
6.940000E+03	6.928868E-16	8.866967E-18
6.950000E+03	6.975440E-16	8.928463E-18
6.960000E+03	7.024877E-16	8.993213E-18
6.970000E+03	7.074936E-16	9.058323E-18
6.980000E+03	7.126598E-16	9.125021E-18
6.990000E+03	7.179764E-16	9.193155E-18
7.000000E+03	7.234327E-16	9.262562E-18
7.010000E+03	7.290176E-16	9.333070E-18
7.020000E+03	7.347189E-16	9.404500E-18
7.030000E+03	7.405242E-16	9.476664E-18
7.040000E+03	7.464202E-16	9.549365E-18
7.050000E+03	7.523933E-16	9.622403E-18
7.060000E+03	7.584293E-16	9.695568E-18
7.070000E+03	7.645137E-16	9.768649E-18
7.080000E+03	7.706312E-16	9.841426E-18
7.090000E+03	7.767668E-16	9.913681E-18
7.100000E+03	7.829048E-16	9.985189E-18
7.110000E+03	7.890294E-16	1.005573E-17
7.120000E+03	7.951249E-16	1.012507E-17
7.130000E+03	8.011754E-16	1.019300E-17
7.140000E+03	8.071652E-16	1.025928E-17
7.150000E+03	8.130787E-16	1.032372E-17
7.160000E+03	8.189006E-16	1.038609E-17
7.170000E+03	8.246161E-16	1.044620E-17
7.180000E+03	8.302106E-16	1.050384E-17
7.190000E+03	8.356702E-16	1.055884E-17
7.200000E+03	8.409817E-16	1.061101E-17
7.210000E+03	8.461325E-16	1.066020E-17
7.220000E+03	8.511109E-16	1.070624E-17
7.230000E+03	8.557736E-16	1.074735E-17
7.240000E+03	8.603750E-16	1.078672E-17
7.250000E+03	8.647745E-16	1.082259E-17
7.260000E+03	8.689643E-16	1.085486E-17
7.270000E+03	8.729379E-16	1.088348E-17
7.280000E+03	8.766897E-16	1.090837E-17
7.290000E+03	8.802155E-16	1.092951E-17
7.300000E+03	8.833753E-16	1.094518E-17
7.310000E+03	8.864405E-16	1.095877E-17
7.320000E+03	8.892740E-16	1.096859E-17
7.330000E+03	8.918761E-16	1.097468E-17
7.340000E+03	8.942485E-16	1.097708E-17
7.350000E+03	8.962547E-16	1.097416E-17
7.360000E+03	8.981759E-16	1.096940E-17
7.370000E+03	8.998779E-16	1.096117E-17
7.380000E+03	9.013661E-16	1.094959E-17
7.390000E+03	9.025062E-16	1.093307E-17
7.400000E+03	9.035851E-16	1.091512E-17
7.410000E+03	9.044699E-16	1.089417E-17
7.420000E+03	9.050277E-16	1.086866E-17
7.430000E+03	9.055473E-16	1.084212E-17
7.440000E+03	9.058962E-16	1.081299E-17
7.450000E+03	9.059416E-16	1.077974E-17
7.460000E+03	9.059731E-16	1.074586E-17
7.470000E+03	9.058577E-16	1.070982E-17
7.480000E+03	9.054617E-16	1.067008E-17
7.490000E+03	9.050740E-16	1.063011E-17
7.500000E+03	9.045598E-16	1.058835E-17
7.510000E+03	9.037843E-16	1.054330E-17
7.520000E+03	9.030340E-16	1.049834E-17
7.530000E+03	9.021721E-16	1.045193E-17
7.540000E+03	9.010615E-16	1.040254E-17
7.550000E+03	8.999853E-16	1.035350E-17
7.560000E+03	8.986643E-16	1.030164E-17
7.570000E+03	8.973787E-16	1.025024E-17
7.580000E+03	8.958480E-16	1.019614E-17
7.590000E+03	8.943495E-16	1.014257E-17
7.600000E+03	8.926013E-16	1.008639E-17
7.610000E+03	8.908780E-16	1.003076E-17
7.620000E+03	8.888962E-16	9.972543E-18
7.630000E+03	8.869276E-16	9.914869E-18
7.640000E+03	8.846882E-16	9.854619E-18
7.650000E+03	8.824465E-16	9.794856E-18
7.660000E+03	8.799185E-16	9.732489E-18
7.670000E+03	8.773700E-16	9.670536E-18
7.680000E+03	8.745171E-16	9.605932E-18
7.690000E+03	8.716232E-16	9.541648E-18
7.700000E+03	8.684056E-16	9.474657E-18
7.710000E+03	8.651257E-16	9.407888E-18
7.720000E+03	8.615024E-16	9.338354E-18
7.730000E+03	8.577956E-16	9.268950E-18
7.740000E+03	8.537266E-16	9.196735E-18
7.750000E+03	8.494212E-16	9.123146E-18
7.760000E+03	8.450032E-16	9.049576E-18
