#wls	flux	fluxerr
1.600000E+03	1.395230E-16	5.997037E-18
1.640000E+03	1.425005E-16	6.107600E-18
1.680000E+03	1.454236E-16	6.214664E-18
1.720000E+03	1.482800E-16	6.317694E-18
1.760000E+03	1.510852E-16	6.417341E-18
1.800000E+03	1.537754E-16	6.510880E-18
1.840000E+03	1.563951E-16	6.600205E-18
1.880000E+03	1.589091E-16	6.683832E-18
1.920000E+03	1.612815E-16	6.760266E-18
1.960000E+03	1.635638E-16	6.831680E-18
2.000000E+03	1.657524E-16	6.897937E-18
2.040000E+03	1.677856E-16	6.956484E-18
2.080000E+03	1.696897E-16	7.008452E-18
2.120000E+03	1.714932E-16	7.055040E-18
2.160000E+03	1.731333E-16	7.093699E-18
2.200000E+03	1.746687E-16	7.126878E-18
2.240000E+03	1.760658E-16	7.153229E-18
2.280000E+03	1.773198E-16	7.172613E-18
2.320000E+03	1.784250E-16	7.184849E-18
2.360000E+03	1.793737E-16	7.189688E-18
2.400000E+03	1.801579E-16	7.186873E-18
2.440000E+03	1.808007E-16	7.177405E-18
2.480000E+03	1.812323E-16	7.158588E-18
2.520000E+03	1.815138E-16	7.132931E-18
2.560000E+03	1.816184E-16	7.099470E-18
2.600000E+03	1.815612E-16	7.058891E-18
2.640000E+03	1.813704E-16	7.012384E-18
2.680000E+03	1.810884E-16	6.961657E-18
2.720000E+03	1.808023E-16	6.910095E-18
2.760000E+03	1.805153E-16	6.857823E-18
2.800000E+03	1.803644E-16	6.810016E-18
2.840000E+03	1.803960E-16	6.768313E-18
2.880000E+03	1.806577E-16	6.734354E-18
2.920000E+03	1.812901E-16	6.713171E-18
2.960000E+03	1.823368E-16	6.706087E-18
3.000000E+03	1.839018E-16	6.716565E-18
3.010000E+03	1.843451E-16	6.720827E-18
3.020000E+03	1.848561E-16	6.727440E-18
3.030000E+03	1.854037E-16	6.735267E-18
3.040000E+03	1.859891E-16	6.744335E-18
3.050000E+03	1.866130E-16	6.754672E-18
3.060000E+03	1.872441E-16	6.765128E-18
3.070000E+03	1.879480E-16	6.778078E-18
3.080000E+03	1.886933E-16	6.792365E-18
3.090000E+03	1.894807E-16	6.808017E-18
3.100000E+03	1.903113E-16	6.825054E-18
3.110000E+03	1.911856E-16	6.843493E-18
3.120000E+03	1.921047E-16	6.863356E-18
3.130000E+03	1.930692E-16	6.884660E-18
3.140000E+03	1.940462E-16	6.906224E-18
3.150000E+03	1.951033E-16	6.930444E-18
3.160000E+03	1.962079E-16	6.956147E-18
3.170000E+03	1.973605E-16	6.983337E-18
3.180000E+03	1.985616E-16	7.012028E-18
3.190000E+03	1.998117E-16	7.042223E-18
3.200000E+03	2.011114E-16	7.073930E-18
3.210000E+03	2.024611E-16	7.107151E-18
3.220000E+03	2.038609E-16	7.141884E-18
3.230000E+03	2.053113E-16	7.178130E-18
3.240000E+03	2.068126E-16	7.215886E-18
3.250000E+03	2.083648E-16	7.255145E-18
3.260000E+03	2.099320E-16	7.294647E-18
3.270000E+03	2.115862E-16	7.336879E-18
3.280000E+03	2.132916E-16	7.380584E-18
3.290000E+03	2.150479E-16	7.425743E-18
3.300000E+03	2.168551E-16	7.472342E-18
3.310000E+03	2.187130E-16	7.520362E-18
3.320000E+03	2.206213E-16	7.569775E-18
3.330000E+03	2.225794E-16	7.620557E-18
3.340000E+03	2.245871E-16	7.672683E-18
3.350000E+03	2.266438E-16	7.726121E-18
3.360000E+03	2.287490E-16	7.780840E-18
3.370000E+03	2.309019E-16	7.836806E-18
3.380000E+03	2.331018E-16	7.893977E-18
3.390000E+03	2.353480E-16	7.952320E-18
3.400000E+03	2.376395E-16	8.011790E-18
3.410000E+03	2.399754E-16	8.072344E-18
3.420000E+03	2.423548E-16	8.133942E-18
3.430000E+03	2.447767E-16	8.196533E-18
3.440000E+03	2.472399E-16	8.260075E-18
3.450000E+03	2.497433E-16	8.324512E-18
3.460000E+03	2.522858E-16	8.389801E-18
3.470000E+03	2.548661E-16	8.455887E-18
3.480000E+03	2.574829E-16	8.522719E-18
3.490000E+03	2.601352E-16	8.590248E-18
3.500000E+03	2.628215E-16	8.658421E-18
3.510000E+03	2.655404E-16	8.727180E-18
3.520000E+03	2.682909E-16	8.796481E-18
3.530000E+03	2.710712E-16	8.866262E-18
3.540000E+03	2.739270E-16	8.937997E-18
3.550000E+03	2.767638E-16	9.008599E-18
3.560000E+03	2.796268E-16	9.079531E-18
3.570000E+03	2.825142E-16	9.150733E-18
3.580000E+03	2.854247E-16	9.222154E-18
3.590000E+03	2.883570E-16	9.293747E-18
3.600000E+03	2.913096E-16	9.365450E-18
3.610000E+03	2.942811E-16	9.437221E-18
3.620000E+03	2.972700E-16	9.508999E-18
3.630000E+03	3.002748E-16	9.580733E-18
3.640000E+03	3.032939E-16	9.652369E-18
3.650000E+03	3.063258E-16	9.723852E-18
3.660000E+03	3.093688E-16	9.795126E-18
3.670000E+03	3.124212E-16	9.866131E-18
3.680000E+03	3.154813E-16	9.936812E-18
3.690000E+03	3.185472E-16	1.000710E-17
3.700000E+03	3.216168E-16	1.007694E-17
3.710000E+03	3.246883E-16	1.014627E-17
3.720000E+03	3.278150E-16	1.021674E-17
3.730000E+03	3.308840E-16	1.028483E-17
3.740000E+03	3.339481E-16	1.035219E-17
3.750000E+03	3.370046E-16	1.041875E-17
3.760000E+03	3.400510E-16	1.048442E-17
3.770000E+03	3.430844E-16	1.054911E-17
3.780000E+03	3.461020E-16	1.061275E-17
3.790000E+03	3.491006E-16	1.067524E-17
3.800000E+03	3.520772E-16	1.073649E-17
3.810000E+03	3.550284E-16	1.079640E-17
3.820000E+03	3.579507E-16	1.085488E-17
3.830000E+03	3.608405E-16	1.091182E-17
3.840000E+03	3.636945E-16	1.096713E-17
3.850000E+03	3.665087E-16	1.102070E-17
3.860000E+03	3.692793E-16	1.107243E-17
3.870000E+03	3.720028E-16	1.112222E-17
3.880000E+03	3.746752E-16	1.116997E-17
3.890000E+03	3.772927E-16	1.121557E-17
3.900000E+03	3.799154E-16	1.126083E-17
3.910000E+03	3.824124E-16	1.130187E-17
3.920000E+03	3.848436E-16	1.134049E-17
3.930000E+03	3.872055E-16	1.137661E-17
3.940000E+03	3.894947E-16	1.141015E-17
3.950000E+03	3.917085E-16	1.144104E-17
3.960000E+03	3.938437E-16	1.146922E-17
3.970000E+03	3.958980E-16	1.149464E-17
3.980000E+03	3.978689E-16	1.151725E-17
3.990000E+03	3.997546E-16	1.153701E-17
4.000000E+03	4.015536E-16	1.155392E-17
4.010000E+03	4.032644E-16	1.156796E-17
4.020000E+03	4.048864E-16	1.157912E-17
4.030000E+03	4.064190E-16	1.158742E-17
4.040000E+03	4.078623E-16	1.159289E-17
4.050000E+03	4.092168E-16	1.159556E-17
4.060000E+03	4.104831E-16	1.159548E-17
4.070000E+03	4.116627E-16	1.159272E-17
4.080000E+03	4.127574E-16	1.158735E-17
4.090000E+03	4.137692E-16	1.157945E-17
4.100000E+03	4.147007E-16	1.156912E-17
4.110000E+03	4.155551E-16	1.155646E-17
4.120000E+03	4.163357E-16	1.154161E-17
4.130000E+03	4.170462E-16	1.152467E-17
4.140000E+03	4.176909E-16	1.150579E-17
4.150000E+03	4.182742E-16	1.148511E-17
4.160000E+03	4.188008E-16	1.146278E-17
4.170000E+03	4.192760E-16	1.143896E-17
4.180000E+03	4.197048E-16	1.141379E-17
4.190000E+03	4.200929E-16	1.138747E-17
4.200000E+03	4.203762E-16	1.135824E-17
4.210000E+03	4.207004E-16	1.133009E-17
4.220000E+03	4.210015E-16	1.130128E-17
4.230000E+03	4.212859E-16	1.127199E-17
4.240000E+03	4.215596E-16	1.124239E-17
4.250000E+03	4.218292E-16	1.121266E-17
4.260000E+03	4.221010E-16	1.118297E-17
4.270000E+03	4.223814E-16	1.115350E-17
4.280000E+03	4.226770E-16	1.112440E-17
4.290000E+03	4.229942E-16	1.109587E-17
4.300000E+03	4.233397E-16	1.106806E-17
4.310000E+03	4.236496E-16	1.103931E-17
4.320000E+03	4.240711E-16	1.101345E-17
4.330000E+03	4.245406E-16	1.098882E-17
4.340000E+03	4.250647E-16	1.096556E-17
4.350000E+03	4.256496E-16	1.094384E-17
4.360000E+03	4.263021E-16	1.092381E-17
4.370000E+03	4.269572E-16	1.090380E-17
4.380000E+03	4.277616E-16	1.088755E-17
4.390000E+03	4.286492E-16	1.087334E-17
4.400000E+03	4.296221E-16	1.086121E-17
4.410000E+03	4.306810E-16	1.085116E-17
4.420000E+03	4.318251E-16	1.084316E-17
4.430000E+03	4.329817E-16	1.083536E-17
4.440000E+03	4.342918E-16	1.083128E-17
4.450000E+03	4.356824E-16	1.082908E-17
4.460000E+03	4.371515E-16	1.082867E-17
4.470000E+03	4.386245E-16	1.082821E-17
4.480000E+03	4.402441E-16	1.083119E-17
4.490000E+03	4.419360E-16	1.083576E-17
4.500000E+03	4.436982E-16	1.084186E-17
4.510000E+03	4.454553E-16	1.084761E-17
4.520000E+03	4.473520E-16	1.085655E-17
4.530000E+03	4.493131E-16	1.086681E-17
4.540000E+03	4.513367E-16	1.087833E-17
4.550000E+03	4.533464E-16	1.088925E-17
4.560000E+03	4.554893E-16	1.090311E-17
4.570000E+03	4.576895E-16	1.091806E-17
4.580000E+03	4.598694E-16	1.093224E-17
4.590000E+03	4.621786E-16	1.094920E-17
4.600000E+03	4.645401E-16	1.096709E-17
4.610000E+03	4.668761E-16	1.098405E-17
4.620000E+03	4.693383E-16	1.100366E-17
4.630000E+03	4.717715E-16	1.102227E-17
4.640000E+03	4.743297E-16	1.104345E-17
4.650000E+03	4.769348E-16	1.106537E-17
4.660000E+03	4.795074E-16	1.108618E-17
4.670000E+03	4.822041E-16	1.110950E-17
4.680000E+03	4.848667E-16	1.113166E-17
4.690000E+03	4.876538E-16	1.115630E-17
4.700000E+03	4.904057E-16	1.117975E-17
4.710000E+03	4.932831E-16	1.120566E-17
4.720000E+03	4.962063E-16	1.123221E-17
4.730000E+03	4.990940E-16	1.125755E-17
4.740000E+03	5.021100E-16	1.128537E-17
4.750000E+03	5.050909E-16	1.131197E-17
4.760000E+03	5.082027E-16	1.134108E-17
4.770000E+03	5.112803E-16	1.136899E-17
4.780000E+03	5.144918E-16	1.139943E-17
4.790000E+03	5.176703E-16	1.142869E-17
4.800000E+03	5.209861E-16	1.146051E-17
4.810000E+03	5.242702E-16	1.149118E-17
4.820000E+03	5.276087E-16	1.152257E-17
4.830000E+03	5.310896E-16	1.155658E-17
4.840000E+03	5.345411E-16	1.158946E-17
4.850000E+03	5.381385E-16	1.162501E-17
4.860000E+03	5.417075E-16	1.165944E-17
4.870000E+03	5.453365E-16	1.169465E-17
4.880000E+03	5.491162E-16	1.173257E-17
4.890000E+03	5.528685E-16	1.176937E-17
4.900000E+03	5.566830E-16	1.180696E-17
4.910000E+03	5.606520E-16	1.184729E-17
4.920000E+03	5.645932E-16	1.188647E-17
4.930000E+03	5.685976E-16	1.192643E-17
4.940000E+03	5.727586E-16	1.196910E-17
4.950000E+03	5.768897E-16	1.201058E-17
4.960000E+03	5.810832E-16	1.205277E-17
4.970000E+03	5.854337E-16	1.209764E-17
4.980000E+03	5.897502E-16	1.214120E-17
4.990000E+03	5.941259E-16	1.218539E-17
5.000000E+03	5.985596E-16	1.223016E-17
5.010000E+03	6.031476E-16	1.227748E-17
5.020000E+03	6.076920E-16	1.232329E-17
5.030000E+03	6.122882E-16	1.236954E-17
5.040000E+03	6.169334E-16	1.241617E-17
5.050000E+03	6.216248E-16	1.246311E-17
5.060000E+03	6.264612E-16	1.251233E-17
5.070000E+03	6.312360E-16	1.255969E-17
5.080000E+03	6.360467E-16	1.260714E-17
5.090000E+03	6.408892E-16	1.265460E-17
5.100000E+03	6.457592E-16	1.270200E-17
5.110000E+03	6.506524E-16	1.274923E-17
5.120000E+03	6.555638E-16	1.279621E-17
5.130000E+03	6.605958E-16	1.284493E-17
5.140000E+03	6.655292E-16	1.289113E-17
5.150000E+03	6.704652E-16	1.293678E-17
5.160000E+03	6.753980E-16	1.298180E-17
5.170000E+03	6.803219E-16	1.302606E-17
5.180000E+03	6.852308E-16	1.306948E-17
5.190000E+03	6.901186E-16	1.311194E-17
5.200000E+03	6.949792E-16	1.315335E-17
5.210000E+03	6.998062E-16	1.319360E-17
5.220000E+03	7.045933E-16	1.323258E-17
5.230000E+03	7.093341E-16	1.327021E-17
5.240000E+03	7.140224E-16	1.330639E-17
5.250000E+03	7.186518E-16	1.334101E-17
5.260000E+03	7.232165E-16	1.337400E-17
5.270000E+03	7.277101E-16	1.340527E-17
5.280000E+03	7.321271E-16	1.343474E-17
5.290000E+03	7.364618E-16	1.346233E-17
5.300000E+03	7.405891E-16	1.348581E-17
5.310000E+03	7.447432E-16	1.350946E-17
5.320000E+03	7.488003E-16	1.353108E-17
5.330000E+03	7.527562E-16	1.355060E-17
5.340000E+03	7.566072E-16	1.356800E-17
5.350000E+03	7.603500E-16	1.358327E-17
5.360000E+03	7.639818E-16	1.359638E-17
5.370000E+03	7.673761E-16	1.360513E-17
5.380000E+03	7.707790E-16	1.361393E-17
5.390000E+03	7.740658E-16	1.362060E-17
5.400000E+03	7.772356E-16	1.362515E-17
5.410000E+03	7.802880E-16	1.362764E-17
5.420000E+03	7.830965E-16	1.362588E-17
5.430000E+03	7.859146E-16	1.362434E-17
5.440000E+03	7.886167E-16	1.362086E-17
5.450000E+03	7.912039E-16	1.361550E-17
5.460000E+03	7.935486E-16	1.360611E-17
5.470000E+03	7.959084E-16	1.359715E-17
5.480000E+03	7.981563E-16	1.358647E-17
5.490000E+03	8.001632E-16	1.357193E-17
5.500000E+03	8.021884E-16	1.355795E-17
5.510000E+03	8.041031E-16	1.354239E-17
5.520000E+03	8.057774E-16	1.352310E-17
5.530000E+03	8.074714E-16	1.350446E-17
5.540000E+03	8.090559E-16	1.348431E-17
5.550000E+03	8.104000E-16	1.346047E-17
5.560000E+03	8.117658E-16	1.343733E-17
5.570000E+03	8.130225E-16	1.341271E-17
5.580000E+03	8.140393E-16	1.338446E-17
5.590000E+03	8.150794E-16	1.335693E-17
5.600000E+03	8.158804E-16	1.332582E-17
5.610000E+03	8.167067E-16	1.329546E-17
5.620000E+03	8.172960E-16	1.326157E-17
5.630000E+03	8.179135E-16	1.322848E-17
5.640000E+03	8.184291E-16	1.319408E-17
5.650000E+03	8.187125E-16	1.315626E-17
5.660000E+03	8.190303E-16	1.311934E-17
5.670000E+03	8.191204E-16	1.307911E-17
5.680000E+03	8.191176E-16	1.303773E-17
5.690000E+03	8.191568E-16	1.299735E-17
5.700000E+03	8.189762E-16	1.295382E-17
5.710000E+03	8.188431E-16	1.291137E-17
5.720000E+03	8.184960E-16	1.286587E-17
5.730000E+03	8.182020E-16	1.282154E-17
5.740000E+03	8.176995E-16	1.277426E-17
5.750000E+03	8.172553E-16	1.272822E-17
5.760000E+03	8.166082E-16	1.267934E-17
5.770000E+03	8.158926E-16	1.262972E-17
5.780000E+03	8.152422E-16	1.258143E-17
5.790000E+03	8.143962E-16	1.253043E-17
5.800000E+03	8.134881E-16	1.247880E-17
5.810000E+03	8.126508E-16	1.242856E-17
5.820000E+03	8.116235E-16	1.237574E-17
5.830000E+03	8.105391E-16	1.232235E-17
5.840000E+03	8.095291E-16	1.227041E-17
5.850000E+03	8.083334E-16	1.221596E-17
5.860000E+03	8.070837E-16	1.216101E-17
5.870000E+03	8.059105E-16	1.210753E-17
5.880000E+03	8.045544E-16	1.205160E-17
5.890000E+03	8.031458E-16	1.199520E-17
5.900000E+03	8.018143E-16	1.194026E-17
5.910000E+03	8.003013E-16	1.188294E-17
5.920000E+03	7.987364E-16	1.182516E-17
5.930000E+03	7.971195E-16	1.176694E-17
5.940000E+03	7.954504E-16	1.170827E-17
5.950000E+03	7.938569E-16	1.165104E-17
5.960000E+03	7.920826E-16	1.159149E-17
5.970000E+03	7.902552E-16	1.153149E-17
5.980000E+03	7.883744E-16	1.147105E-17
5.990000E+03	7.864400E-16	1.141019E-17
6.000000E+03	7.845778E-16	1.135071E-17
6.010000E+03	7.825342E-16	1.128897E-17
6.020000E+03	7.804357E-16	1.122680E-17
6.030000E+03	7.782816E-16	1.116420E-17
6.040000E+03	7.760715E-16	1.110118E-17
6.050000E+03	7.738051E-16	1.103774E-17
6.060000E+03	7.714818E-16	1.097389E-17
6.070000E+03	7.691013E-16	1.090962E-17
6.080000E+03	7.667867E-16	1.084670E-17
6.090000E+03	7.642902E-16	1.078163E-17
6.100000E+03	7.617355E-16	1.071616E-17
6.110000E+03	7.591224E-16	1.065032E-17
6.120000E+03	7.564505E-16	1.058410E-17
6.130000E+03	7.537198E-16	1.051753E-17
6.140000E+03	7.509304E-16	1.045061E-17
6.150000E+03	7.480823E-16	1.038336E-17
6.160000E+03	7.451755E-16	1.031580E-17
6.170000E+03	7.422106E-16	1.024794E-17
6.180000E+03	7.391880E-16	1.017980E-17
6.190000E+03	7.361083E-16	1.011141E-17
6.200000E+03	7.329723E-16	1.004279E-17
6.210000E+03	7.297810E-16	9.973968E-18
6.220000E+03	7.265358E-16	9.904980E-18
6.230000E+03	7.232382E-16	9.835856E-18
6.240000E+03	7.198897E-16	9.766633E-18
6.250000E+03	7.164927E-16	9.697355E-18
6.260000E+03	7.130493E-16	9.628065E-18
6.270000E+03	7.095622E-16	9.558812E-18
6.280000E+03	7.059208E-16	9.488120E-18
6.290000E+03	7.023563E-16	9.419114E-18
6.300000E+03	6.987582E-16	9.350317E-18
6.310000E+03	6.951305E-16	9.281791E-18
6.320000E+03	6.914778E-16	9.213610E-18
6.330000E+03	6.878046E-16	9.145843E-18
6.340000E+03	6.841162E-16	9.078569E-18
6.350000E+03	6.804181E-16	9.011871E-18
6.360000E+03	6.766070E-16	8.944392E-18
6.370000E+03	6.729080E-16	8.879114E-18
6.380000E+03	6.692177E-16	8.814678E-18
6.390000E+03	6.655430E-16	8.751177E-18
6.400000E+03	6.618910E-16	8.688711E-18
6.410000E+03	6.582689E-16	8.627380E-18
6.420000E+03	6.545789E-16	8.565906E-18
6.430000E+03	6.510401E-16	8.507162E-18
6.440000E+03	6.475546E-16	8.449866E-18
6.450000E+03	6.441304E-16	8.394127E-18
6.460000E+03	6.407762E-16	8.340056E-18
6.470000E+03	6.373978E-16	8.286430E-18
6.480000E+03	6.342102E-16	8.236047E-18
6.490000E+03	6.311198E-16	8.187688E-18
6.500000E+03	6.281369E-16	8.141484E-18
6.510000E+03	6.251713E-16	8.096246E-18
6.520000E+03	6.224357E-16	8.054693E-18
6.530000E+03	6.198384E-16	8.015599E-18
6.540000E+03	6.172848E-16	7.977708E-18
6.550000E+03	6.149748E-16	7.943569E-18
6.560000E+03	6.128069E-16	7.911835E-18
6.570000E+03	6.106811E-16	7.881183E-18
6.580000E+03	6.087944E-16	7.854126E-18
6.590000E+03	6.070480E-16	7.829356E-18
6.600000E+03	6.053449E-16	7.805593E-18
6.610000E+03	6.038818E-16	7.785344E-18
6.620000E+03	6.025617E-16	7.767333E-18
6.630000E+03	6.012892E-16	7.750301E-18
6.640000E+03	6.002598E-16	7.736740E-18
6.650000E+03	5.993775E-16	7.725391E-18
6.660000E+03	5.985474E-16	7.715001E-18
6.670000E+03	5.979639E-16	7.708057E-18
6.680000E+03	5.975315E-16	7.703301E-18
6.690000E+03	5.971551E-16	7.699486E-18
6.700000E+03	5.970286E-16	7.699089E-18
6.710000E+03	5.969603E-16	7.699618E-18
6.720000E+03	5.971439E-16	7.703548E-18
6.730000E+03	5.973873E-16	7.708382E-18
6.740000E+03	5.978842E-16	7.716600E-18
6.750000E+03	5.985387E-16	7.726945E-18
6.760000E+03	5.992547E-16	7.738156E-18
6.770000E+03	6.002257E-16	7.752715E-18
6.780000E+03	6.012584E-16	7.768106E-18
6.790000E+03	6.025465E-16	7.786813E-18
6.800000E+03	6.038956E-16	7.806308E-18
6.810000E+03	6.054998E-16	7.829082E-18
6.820000E+03	6.071633E-16	7.852585E-18
6.830000E+03	6.090809E-16	7.879320E-18
6.840000E+03	6.110548E-16	7.906713E-18
6.850000E+03	6.132808E-16	7.937278E-18
6.860000E+03	6.155590E-16	7.968413E-18
6.870000E+03	6.180860E-16	8.002645E-18
6.880000E+03	6.206598E-16	8.037343E-18
6.890000E+03	6.234778E-16	8.075046E-18
6.900000E+03	6.263357E-16	8.113092E-18
6.910000E+03	6.294319E-16	8.154033E-18
6.920000E+03	6.325595E-16	8.195171E-18
6.930000E+03	6.359180E-16	8.239077E-18
6.940000E+03	6.392977E-16	8.283015E-18
6.950000E+03	6.427955E-16	8.328224E-18
6.960000E+03	6.465106E-16	8.375972E-18
6.970000E+03	6.502283E-16	8.423459E-18
6.980000E+03	6.541522E-16	8.473308E-18
6.990000E+03	6.580643E-16	8.522677E-18
7.000000E+03	6.620629E-16	8.572821E-18
7.010000E+03	6.662482E-16	8.625022E-18
7.020000E+03	6.703975E-16	8.676380E-18
7.030000E+03	6.747188E-16	8.729570E-18
7.040000E+03	6.789861E-16	8.781651E-18
7.050000E+03	6.832993E-16	8.833899E-18
7.060000E+03	6.877604E-16	8.887619E-18
7.070000E+03	6.921384E-16	8.939808E-18
7.080000E+03	6.965347E-16	8.991762E-18
7.090000E+03	7.010532E-16	9.044806E-18
7.100000E+03	7.054577E-16	9.095881E-18
7.110000E+03	7.098515E-16	9.146305E-18
7.120000E+03	7.143406E-16	9.197431E-18
7.130000E+03	7.186845E-16	9.246151E-18
7.140000E+03	7.229886E-16	9.293812E-18
7.150000E+03	7.272432E-16	9.340278E-18
7.160000E+03	7.315577E-16	9.386947E-18
7.170000E+03	7.356862E-16	9.430653E-18
7.180000E+03	7.397379E-16	9.472793E-18
7.190000E+03	7.438245E-16	9.514791E-18
7.200000E+03	7.476973E-16	9.553460E-18
7.210000E+03	7.514683E-16	9.590232E-18
7.220000E+03	7.551299E-16	9.625010E-18
7.230000E+03	7.587982E-16	9.659270E-18
7.240000E+03	7.622209E-16	9.689803E-18
7.250000E+03	7.655145E-16	9.718097E-18
7.260000E+03	7.686733E-16	9.744084E-18
7.270000E+03	7.716924E-16	9.767709E-18
7.280000E+03	7.746932E-16	9.790514E-18
7.290000E+03	7.774207E-16	9.809285E-18
7.300000E+03	7.799968E-16	9.825575E-18
7.310000E+03	7.824188E-16	9.839364E-18
7.320000E+03	7.846846E-16	9.850639E-18
7.330000E+03	7.869206E-16	9.860999E-18
7.340000E+03	7.888700E-16	9.867244E-18
7.350000E+03	7.906599E-16	9.870985E-18
7.360000E+03	7.922904E-16	9.872243E-18
7.370000E+03	7.937616E-16	9.871045E-18
7.380000E+03	7.950743E-16	9.867420E-18
7.390000E+03	7.963591E-16	9.863010E-18
7.400000E+03	7.973587E-16	9.854653E-18
7.410000E+03	7.982040E-16	9.843997E-18
7.420000E+03	7.988969E-16	9.831094E-18
7.430000E+03	7.994395E-16	9.816001E-18
7.440000E+03	7.998341E-16	9.798772E-18
7.450000E+03	8.000826E-16	9.779464E-18
7.460000E+03	8.001875E-16	9.758137E-18
7.470000E+03	8.001509E-16	9.734852E-18
7.480000E+03	8.001049E-16	9.711244E-18
7.490000E+03	7.997911E-16	9.684209E-18
7.500000E+03	7.993415E-16	9.655387E-18
7.510000E+03	7.987574E-16	9.624829E-18
7.520000E+03	7.980400E-16	9.592588E-18
7.530000E+03	7.971901E-16	9.558711E-18
7.540000E+03	7.962083E-16	9.523243E-18
7.550000E+03	7.950946E-16	9.486224E-18
7.560000E+03	7.938489E-16	9.447694E-18
7.570000E+03	7.924706E-16	9.407683E-18
7.580000E+03	7.909585E-16	9.366222E-18
7.590000E+03	7.893114E-16	9.323337E-18
7.600000E+03	7.875273E-16	9.279047E-18
7.610000E+03	7.856041E-16	9.233371E-18
7.620000E+03	7.835393E-16	9.186323E-18
7.630000E+03	7.813301E-16	9.137915E-18
7.640000E+03	7.789734E-16	9.088156E-18
7.650000E+03	7.764659E-16	9.037051E-18
7.660000E+03	7.738040E-16	8.984606E-18
7.670000E+03	7.709844E-16	8.930825E-18
7.680000E+03	7.680032E-16	8.875712E-18
7.690000E+03	7.648568E-16	8.819269E-18
7.700000E+03	7.615417E-16	8.761502E-18
7.710000E+03	7.580544E-16	8.702415E-18
7.720000E+03	7.543918E-16	8.642017E-18
7.730000E+03	7.505510E-16	8.580319E-18
7.740000E+03	7.464073E-16	8.515941E-18
7.750000E+03	7.422036E-16	8.451698E-18
7.760000E+03	7.378156E-16	8.386212E-18
