#wls	flux	fluxerr
1.600000E+03	7.805727E-17	3.146854E-18
1.640000E+03	8.020554E-17	3.215131E-18
1.680000E+03	8.251111E-17	3.288262E-18
1.720000E+03	8.498144E-17	3.366387E-18
1.760000E+03	8.764589E-17	3.450499E-18
1.800000E+03	9.051381E-17	3.540768E-18
1.840000E+03	9.360621E-17	3.637804E-18
1.880000E+03	9.694528E-17	3.742233E-18
1.920000E+03	1.005436E-16	3.854275E-18
1.960000E+03	1.044598E-16	3.975887E-18
2.000000E+03	1.086869E-16	4.106469E-18
2.040000E+03	1.132998E-16	4.248482E-18
2.080000E+03	1.183302E-16	4.402691E-18
2.120000E+03	1.238362E-16	4.570765E-18
2.160000E+03	1.298917E-16	4.754888E-18
2.200000E+03	1.365881E-16	4.957747E-18
2.240000E+03	1.440224E-16	5.182110E-18
2.280000E+03	1.522982E-16	5.430816E-18
2.320000E+03	1.615382E-16	5.707221E-18
2.360000E+03	1.718048E-16	6.012375E-18
2.400000E+03	1.832040E-16	6.348705E-18
2.440000E+03	1.957754E-16	6.716186E-18
2.480000E+03	2.096143E-16	7.116566E-18
2.520000E+03	2.248017E-16	7.550942E-18
2.560000E+03	2.414162E-16	8.020154E-18
2.600000E+03	2.595469E-16	8.525216E-18
2.640000E+03	2.792437E-16	9.065680E-18
2.680000E+03	3.006060E-16	9.642547E-18
2.720000E+03	3.236363E-16	1.025354E-17
2.760000E+03	3.483748E-16	1.089747E-17
2.800000E+03	3.748115E-16	1.157151E-17
2.840000E+03	4.028741E-16	1.227087E-17
2.880000E+03	4.325182E-16	1.299166E-17
2.920000E+03	4.636646E-16	1.372898E-17
2.960000E+03	4.962183E-16	1.447759E-17
3.000000E+03	5.300318E-16	1.523084E-17
3.010000E+03	5.386761E-16	1.541944E-17
3.020000E+03	5.473612E-16	1.560709E-17
3.030000E+03	5.560939E-16	1.579393E-17
3.040000E+03	5.648984E-16	1.598065E-17
3.050000E+03	5.737446E-16	1.616635E-17
3.060000E+03	5.826194E-16	1.635064E-17
3.070000E+03	5.915449E-16	1.653413E-17
3.080000E+03	6.004705E-16	1.671538E-17
3.090000E+03	6.094345E-16	1.689544E-17
3.100000E+03	6.184028E-16	1.707335E-17
3.110000E+03	6.273581E-16	1.724862E-17
3.120000E+03	6.363182E-16	1.742175E-17
3.130000E+03	6.452462E-16	1.759171E-17
3.140000E+03	6.541578E-16	1.775893E-17
3.150000E+03	6.630144E-16	1.792237E-17
3.160000E+03	6.717944E-16	1.808146E-17
3.170000E+03	6.805279E-16	1.823703E-17
3.180000E+03	6.891562E-16	1.838751E-17
3.190000E+03	6.976901E-16	1.853323E-17
3.200000E+03	7.061040E-16	1.867354E-17
3.210000E+03	7.143721E-16	1.880779E-17
3.220000E+03	7.224848E-16	1.893578E-17
3.230000E+03	7.304148E-16	1.905685E-17
3.240000E+03	7.381683E-16	1.917121E-17
3.250000E+03	7.456830E-16	1.927732E-17
3.260000E+03	7.529641E-16	1.937540E-17
3.270000E+03	7.599831E-16	1.946478E-17
3.280000E+03	7.667277E-16	1.954526E-17
3.290000E+03	7.731533E-16	1.961579E-17
3.300000E+03	7.792488E-16	1.967621E-17
3.310000E+03	7.849875E-16	1.972596E-17
3.320000E+03	7.903593E-16	1.976493E-17
3.330000E+03	7.953398E-16	1.979264E-17
3.340000E+03	7.998910E-16	1.980828E-17
3.350000E+03	8.040074E-16	1.981188E-17
3.360000E+03	8.076557E-16	1.980280E-17
3.370000E+03	8.108351E-16	1.978117E-17
3.380000E+03	8.135173E-16	1.974649E-17
3.390000E+03	8.156928E-16	1.969872E-17
3.400000E+03	8.173405E-16	1.963754E-17
3.410000E+03	8.184579E-16	1.956308E-17
3.420000E+03	8.190332E-16	1.947528E-17
3.430000E+03	8.190739E-16	1.937451E-17
3.440000E+03	8.185546E-16	1.926038E-17
3.450000E+03	8.175116E-16	1.913396E-17
3.460000E+03	8.159518E-16	1.899561E-17
3.470000E+03	8.138951E-16	1.884598E-17
3.480000E+03	8.113990E-16	1.868661E-17
3.490000E+03	8.084999E-16	1.851848E-17
3.500000E+03	8.052626E-16	1.834325E-17
3.510000E+03	8.017906E-16	1.816338E-17
3.520000E+03	7.981584E-16	1.798066E-17
3.530000E+03	7.945002E-16	1.779815E-17
3.540000E+03	7.909205E-16	1.761821E-17
3.550000E+03	7.875777E-16	1.744433E-17
3.560000E+03	7.845955E-16	1.727913E-17
3.570000E+03	7.821293E-16	1.712591E-17
3.580000E+03	7.803101E-16	1.698731E-17
3.590000E+03	7.792363E-16	1.686525E-17
3.600000E+03	7.789108E-16	1.675949E-17
3.610000E+03	7.792262E-16	1.666747E-17
3.620000E+03	7.800403E-16	1.658593E-17
3.630000E+03	7.811519E-16	1.651042E-17
3.640000E+03	7.823870E-16	1.643719E-17
3.650000E+03	7.835648E-16	1.636241E-17
3.660000E+03	7.845490E-16	1.628328E-17
3.670000E+03	7.851997E-16	1.619701E-17
3.680000E+03	7.854223E-16	1.610177E-17
3.690000E+03	7.851616E-16	1.599662E-17
3.700000E+03	7.843815E-16	1.588101E-17
3.710000E+03	7.831108E-16	1.575573E-17
3.720000E+03	7.813957E-16	1.562189E-17
3.730000E+03	7.793512E-16	1.548196E-17
3.740000E+03	7.771268E-16	1.533901E-17
3.750000E+03	7.749034E-16	1.519668E-17
3.760000E+03	7.729110E-16	1.505945E-17
3.770000E+03	7.713955E-16	1.493199E-17
3.780000E+03	7.706247E-16	1.481929E-17
3.790000E+03	7.708631E-16	1.472612E-17
3.800000E+03	7.723774E-16	1.465717E-17
3.810000E+03	7.754063E-16	1.461646E-17
3.820000E+03	7.801992E-16	1.460809E-17
3.830000E+03	7.869437E-16	1.463489E-17
3.840000E+03	7.958371E-16	1.469979E-17
3.850000E+03	8.070148E-16	1.480446E-17
3.860000E+03	8.205991E-16	1.495029E-17
3.870000E+03	8.366494E-16	1.513745E-17
3.880000E+03	8.552015E-16	1.536568E-17
3.890000E+03	8.762231E-16	1.563348E-17
3.900000E+03	8.996213E-16	1.593830E-17
3.910000E+03	9.252509E-16	1.627673E-17
3.920000E+03	9.528747E-16	1.664382E-17
3.930000E+03	9.821721E-16	1.703330E-17
3.940000E+03	1.012743E-15	1.743770E-17
3.950000E+03	1.044104E-15	1.784830E-17
3.960000E+03	1.075672E-15	1.825499E-17
3.970000E+03	1.106800E-15	1.864683E-17
3.980000E+03	1.136787E-15	1.901231E-17
3.990000E+03	1.164929E-15	1.934021E-17
4.000000E+03	1.190510E-15	1.961950E-17
4.010000E+03	1.212870E-15	1.984032E-17
4.020000E+03	1.231431E-15	1.999456E-17
4.030000E+03	1.245746E-15	2.007643E-17
4.040000E+03	1.255545E-15	2.008320E-17
4.050000E+03	1.260691E-15	2.001436E-17
4.060000E+03	1.261276E-15	1.987310E-17
4.070000E+03	1.257499E-15	1.966416E-17
4.080000E+03	1.249761E-15	1.939539E-17
4.090000E+03	1.238536E-15	1.907547E-17
4.100000E+03	1.224383E-15	1.871420E-17
4.110000E+03	1.207899E-15	1.832168E-17
4.120000E+03	1.189691E-15	1.790786E-17
4.130000E+03	1.170362E-15	1.748232E-17
4.140000E+03	1.150471E-15	1.705375E-17
4.150000E+03	1.130519E-15	1.662970E-17
4.160000E+03	1.110969E-15	1.621692E-17
4.170000E+03	1.092234E-15	1.582127E-17
4.180000E+03	1.074669E-15	1.544753E-17
4.190000E+03	1.058568E-15	1.509953E-17
4.200000E+03	1.044175E-15	1.478022E-17
4.210000E+03	1.031689E-15	1.449182E-17
4.220000E+03	1.021274E-15	1.423600E-17
4.230000E+03	1.013034E-15	1.401355E-17
4.240000E+03	1.007010E-15	1.382433E-17
4.250000E+03	1.003233E-15	1.366809E-17
4.260000E+03	1.001627E-15	1.354314E-17
4.270000E+03	1.002092E-15	1.344748E-17
4.280000E+03	1.004458E-15	1.337827E-17
4.290000E+03	1.008457E-15	1.333142E-17
4.300000E+03	1.013760E-15	1.330221E-17
4.310000E+03	1.019931E-15	1.328462E-17
4.320000E+03	1.026444E-15	1.327167E-17
4.330000E+03	1.032674E-15	1.325530E-17
4.340000E+03	1.037888E-15	1.322632E-17
4.350000E+03	1.041287E-15	1.317497E-17
4.360000E+03	1.042051E-15	1.309151E-17
4.370000E+03	1.039421E-15	1.296720E-17
4.380000E+03	1.032798E-15	1.279556E-17
4.390000E+03	1.022010E-15	1.257546E-17
4.400000E+03	1.007550E-15	1.231392E-17
4.410000E+03	9.904754E-16	1.202463E-17
4.420000E+03	9.721232E-16	1.172428E-17
4.430000E+03	9.538006E-16	1.142874E-17
4.440000E+03	9.366679E-16	1.115173E-17
4.450000E+03	9.217025E-16	1.090446E-17
4.460000E+03	9.096495E-16	1.069513E-17
4.470000E+03	9.010820E-16	1.052974E-17
4.480000E+03	8.963735E-16	1.041184E-17
4.490000E+03	8.957581E-16	1.034330E-17
4.500000E+03	8.993378E-16	1.032445E-17
4.510000E+03	9.070626E-16	1.035389E-17
4.520000E+03	9.187790E-16	1.042910E-17
4.530000E+03	9.341819E-16	1.054595E-17
4.540000E+03	9.528483E-16	1.069906E-17
4.550000E+03	9.742177E-16	1.088169E-17
4.560000E+03	9.975920E-16	1.108570E-17
4.570000E+03	1.022134E-15	1.130161E-17
4.580000E+03	1.046906E-15	1.151903E-17
4.590000E+03	1.070884E-15	1.172684E-17
4.600000E+03	1.093028E-15	1.191395E-17
4.610000E+03	1.112344E-15	1.206996E-17
4.620000E+03	1.127927E-15	1.218562E-17
4.630000E+03	1.139059E-15	1.225381E-17
4.640000E+03	1.145287E-15	1.227036E-17
4.650000E+03	1.146446E-15	1.223418E-17
4.660000E+03	1.142719E-15	1.214788E-17
4.670000E+03	1.134591E-15	1.201718E-17
4.680000E+03	1.122874E-15	1.185113E-17
4.690000E+03	1.108586E-15	1.166078E-17
4.700000E+03	1.092874E-15	1.145837E-17
4.710000E+03	1.076837E-15	1.125546E-17
4.720000E+03	1.061387E-15	1.106152E-17
4.730000E+03	1.046971E-15	1.088104E-17
4.740000E+03	1.033571E-15	1.071370E-17
4.750000E+03	1.020856E-15	1.055591E-17
4.760000E+03	1.008433E-15	1.040348E-17
4.770000E+03	9.958846E-16	1.025197E-17
4.780000E+03	9.829371E-16	1.009846E-17
4.790000E+03	9.694252E-16	9.941175E-18
4.800000E+03	9.553236E-16	9.779776E-18
4.810000E+03	9.407224E-16	9.615104E-18
4.820000E+03	9.258284E-16	9.449185E-18
4.830000E+03	9.109384E-16	9.284951E-18
4.840000E+03	8.964089E-16	9.125926E-18
4.850000E+03	8.826596E-16	8.976267E-18
4.860000E+03	8.701333E-16	8.840352E-18
4.870000E+03	8.592513E-16	8.722340E-18
4.880000E+03	8.504417E-16	8.626451E-18
4.890000E+03	8.440949E-16	8.556529E-18
4.900000E+03	8.405324E-16	8.515724E-18
4.910000E+03	8.400135E-16	8.506568E-18
4.920000E+03	8.427274E-16	8.530897E-18
4.930000E+03	8.487391E-16	8.589302E-18
4.940000E+03	8.579956E-16	8.681200E-18
4.950000E+03	8.703415E-16	8.804987E-18
4.960000E+03	8.854320E-16	8.957157E-18
4.970000E+03	9.027861E-16	9.132839E-18
4.980000E+03	9.217531E-16	9.325455E-18
4.990000E+03	9.415329E-16	9.526919E-18
5.000000E+03	9.612167E-16	9.728042E-18
5.010000E+03	9.798114E-16	9.918774E-18
5.020000E+03	9.963466E-16	1.008928E-17
5.030000E+03	1.009922E-15	1.023043E-17
5.040000E+03	1.019829E-15	1.033499E-17
5.050000E+03	1.025599E-15	1.039815E-17
5.060000E+03	1.027051E-15	1.041801E-17
5.070000E+03	1.024337E-15	1.039603E-17
5.080000E+03	1.017907E-15	1.033668E-17
5.090000E+03	1.008420E-15	1.024656E-17
5.100000E+03	9.967247E-16	1.013422E-17
5.110000E+03	9.837331E-16	1.000887E-17
5.120000E+03	9.703333E-16	9.879491E-18
5.130000E+03	9.573569E-16	9.754528E-18
5.140000E+03	9.454640E-16	9.640695E-18
5.150000E+03	9.351822E-16	9.543382E-18
5.160000E+03	9.268566E-16	9.466135E-18
5.170000E+03	9.206976E-16	9.411139E-18
5.180000E+03	9.167690E-16	9.379091E-18
5.190000E+03	9.150534E-16	9.369864E-18
5.200000E+03	9.154476E-16	9.382458E-18
5.210000E+03	9.178103E-16	9.415477E-18
5.220000E+03	9.220116E-16	9.467647E-18
5.230000E+03	9.278966E-16	9.537434E-18
5.240000E+03	9.353204E-16	9.623399E-18
5.250000E+03	9.441648E-16	9.724382E-18
5.260000E+03	9.542941E-16	9.839040E-18
5.270000E+03	9.655774E-16	9.966073E-18
5.280000E+03	9.778248E-16	1.010357E-17
5.290000E+03	9.908259E-16	1.024941E-17
5.300000E+03	1.004298E-15	1.040070E-17
5.310000E+03	1.017890E-15	1.055383E-17
5.320000E+03	1.031155E-15	1.070421E-17
5.330000E+03	1.043631E-15	1.084703E-17
5.340000E+03	1.054782E-15	1.097670E-17
5.350000E+03	1.064059E-15	1.108748E-17
5.360000E+03	1.070963E-15	1.117411E-17
5.370000E+03	1.075030E-15	1.123165E-17
5.380000E+03	1.075952E-15	1.125678E-17
5.390000E+03	1.073536E-15	1.124731E-17
5.400000E+03	1.067798E-15	1.120323E-17
5.410000E+03	1.058981E-15	1.112690E-17
5.420000E+03	1.047512E-15	1.102264E-17
5.430000E+03	1.034054E-15	1.089727E-17
5.440000E+03	1.019464E-15	1.075971E-17
5.450000E+03	1.004715E-15	1.062016E-17
5.460000E+03	9.908906E-16	1.049004E-17
5.470000E+03	9.790538E-16	1.038064E-17
5.480000E+03	9.701578E-16	1.030216E-17
5.490000E+03	9.648764E-16	1.026187E-17
5.500000E+03	9.633694E-16	1.026163E-17
5.510000E+03	9.652350E-16	1.029733E-17
5.520000E+03	9.696038E-16	1.035982E-17
5.530000E+03	9.754329E-16	1.043803E-17
5.540000E+03	9.816681E-16	1.052072E-17
5.550000E+03	9.873152E-16	1.059723E-17
5.560000E+03	9.915875E-16	1.065904E-17
5.570000E+03	9.938293E-16	1.069902E-17
5.580000E+03	9.936235E-16	1.071255E-17
5.590000E+03	9.907216E-16	1.069683E-17
5.600000E+03	9.850158E-16	1.065053E-17
5.610000E+03	9.764916E-16	1.057337E-17
5.620000E+03	9.651939E-16	1.046570E-17
5.630000E+03	9.511561E-16	1.032774E-17
5.640000E+03	9.344504E-16	1.016017E-17
5.650000E+03	9.151617E-16	9.963783E-18
5.660000E+03	8.934176E-16	9.739867E-18
5.670000E+03	8.694662E-16	9.491033E-18
5.680000E+03	8.436547E-16	9.220995E-18
5.690000E+03	8.164888E-16	8.935223E-18
5.700000E+03	7.886207E-16	8.640824E-18
5.710000E+03	7.608220E-16	8.346252E-18
5.720000E+03	7.339367E-16	8.060800E-18
5.730000E+03	7.088229E-16	7.793958E-18
5.740000E+03	6.862945E-16	7.554772E-18
5.750000E+03	6.670807E-16	7.351392E-18
5.760000E+03	6.517714E-16	7.190461E-18
5.770000E+03	6.408243E-16	7.077189E-18
5.780000E+03	6.345612E-16	7.015296E-18
5.790000E+03	6.331535E-16	7.006849E-18
5.800000E+03	6.366644E-16	7.052717E-18
5.810000E+03	6.450054E-16	7.152083E-18
5.820000E+03	6.579775E-16	7.302895E-18
5.830000E+03	6.752675E-16	7.501821E-18
5.840000E+03	6.964060E-16	7.743770E-18
5.850000E+03	7.207984E-16	8.022242E-18
5.860000E+03	7.476980E-16	8.329011E-18
5.870000E+03	7.762421E-16	8.654530E-18
5.880000E+03	8.054918E-16	8.988371E-18
5.890000E+03	8.344209E-16	9.319092E-18
5.900000E+03	8.620426E-16	9.635657E-18
5.910000E+03	8.874158E-16	9.927508E-18
5.920000E+03	9.097118E-16	1.018531E-17
5.930000E+03	9.282953E-16	1.040188E-17
5.940000E+03	9.427387E-16	1.057233E-17
5.950000E+03	9.528105E-16	1.069396E-17
5.960000E+03	9.585224E-16	1.076681E-17
5.970000E+03	9.600342E-16	1.079257E-17
5.980000E+03	9.576594E-16	1.077469E-17
5.990000E+03	9.518340E-16	1.071797E-17
6.000000E+03	9.430290E-16	1.062765E-17
6.010000E+03	9.317385E-16	1.050925E-17
6.020000E+03	9.184656E-16	1.036839E-17
6.030000E+03	9.036922E-16	1.021047E-17
6.040000E+03	8.878569E-16	1.004042E-17
6.050000E+03	8.713585E-16	9.862741E-18
6.060000E+03	8.545719E-16	9.681670E-18
6.070000E+03	8.378008E-16	9.500652E-18
6.080000E+03	8.213059E-16	9.322653E-18
6.090000E+03	8.052819E-16	9.149902E-18
6.100000E+03	7.898878E-16	8.984229E-18
6.110000E+03	7.751975E-16	8.826504E-18
6.120000E+03	7.612465E-16	8.677158E-18
6.130000E+03	7.480481E-16	8.536377E-18
6.140000E+03	7.355544E-16	8.403645E-18
6.150000E+03	7.236870E-16	8.278094E-18
6.160000E+03	7.123725E-16	8.158914E-18
6.170000E+03	7.015361E-16	8.045272E-18
6.180000E+03	6.910779E-16	7.936042E-18
6.190000E+03	6.809674E-16	7.830889E-18
6.200000E+03	6.712073E-16	7.729833E-18
6.210000E+03	6.619227E-16	7.634297E-18
6.220000E+03	6.532537E-16	7.545884E-18
6.230000E+03	6.452864E-16	7.465589E-18
6.240000E+03	6.380777E-16	7.394074E-18
6.250000E+03	6.316573E-16	7.331696E-18
6.260000E+03	6.260247E-16	7.278464E-18
6.270000E+03	6.211962E-16	7.234586E-18
6.280000E+03	6.171948E-16	7.200351E-18
6.290000E+03	6.140525E-16	7.176160E-18
6.300000E+03	6.117795E-16	7.162157E-18
6.310000E+03	6.104224E-16	7.158923E-18
6.320000E+03	6.099731E-16	7.166398E-18
6.330000E+03	6.103982E-16	7.184223E-18
6.340000E+03	6.116351E-16	7.211696E-18
6.350000E+03	6.135437E-16	7.247194E-18
6.360000E+03	6.159487E-16	7.288665E-18
6.370000E+03	6.186207E-16	7.333402E-18
6.380000E+03	6.213153E-16	7.378500E-18
6.390000E+03	6.237541E-16	7.420629E-18
6.400000E+03	6.256797E-16	7.456685E-18
6.410000E+03	6.268385E-16	7.483589E-18
6.420000E+03	6.270239E-16	7.498803E-18
6.430000E+03	6.260807E-16	7.500390E-18
6.440000E+03	6.239239E-16	7.487244E-18
6.450000E+03	6.205168E-16	7.458833E-18
6.460000E+03	6.159110E-16	7.415689E-18
6.470000E+03	6.102179E-16	7.359073E-18
6.480000E+03	6.036160E-16	7.291065E-18
6.490000E+03	5.963532E-16	7.214606E-18
6.500000E+03	5.887019E-16	7.132951E-18
6.510000E+03	5.810082E-16	7.050273E-18
6.520000E+03	5.736048E-16	6.970610E-18
6.530000E+03	5.668633E-16	6.898496E-18
6.540000E+03	5.611159E-16	6.838010E-18
6.550000E+03	5.566648E-16	6.792889E-18
6.560000E+03	5.537858E-16	6.766560E-18
6.570000E+03	5.526918E-16	6.761698E-18
6.580000E+03	5.535263E-16	6.780135E-18
6.590000E+03	5.563840E-16	6.823108E-18
6.600000E+03	5.612658E-16	6.890702E-18
6.610000E+03	5.681388E-16	6.982580E-18
6.620000E+03	5.768682E-16	7.097141E-18
6.630000E+03	5.872888E-16	7.232399E-18
6.640000E+03	5.991386E-16	7.385159E-18
6.650000E+03	6.121271E-16	7.551857E-18
6.660000E+03	6.258978E-16	7.728098E-18
6.670000E+03	6.400769E-16	7.909256E-18
6.680000E+03	6.542481E-16	8.090159E-18
6.690000E+03	6.679962E-16	8.265638E-18
6.700000E+03	6.809255E-16	8.430751E-18
6.710000E+03	6.926426E-16	8.580576E-18
6.720000E+03	7.028039E-16	8.710803E-18
6.730000E+03	7.111295E-16	8.817908E-18
6.740000E+03	7.173781E-16	8.898849E-18
6.750000E+03	7.213880E-16	8.951576E-18
6.760000E+03	7.230696E-16	8.974936E-18
6.770000E+03	7.224034E-16	8.968664E-18
6.780000E+03	7.194494E-16	8.933485E-18
6.790000E+03	7.143045E-16	8.870595E-18
6.800000E+03	7.071421E-16	8.782152E-18
6.810000E+03	6.981448E-16	8.670436E-18
6.820000E+03	6.875789E-16	8.538775E-18
6.830000E+03	6.757160E-16	8.390572E-18
6.840000E+03	6.628272E-16	8.229223E-18
6.850000E+03	6.492568E-16	8.059041E-18
6.860000E+03	6.352908E-16	7.883610E-18
6.870000E+03	6.212852E-16	7.707385E-18
6.880000E+03	6.075256E-16	7.533943E-18
6.890000E+03	5.943506E-16	7.367508E-18
6.900000E+03	5.820252E-16	7.211388E-18
6.910000E+03	5.708090E-16	7.068812E-18
6.920000E+03	5.609377E-16	6.942706E-18
6.930000E+03	5.525974E-16	6.835369E-18
6.940000E+03	5.459303E-16	6.748549E-18
6.950000E+03	5.410311E-16	6.683397E-18
6.960000E+03	5.379351E-16	6.640321E-18
6.970000E+03	5.366541E-16	6.619435E-18
6.980000E+03	5.371080E-16	6.619714E-18
6.990000E+03	5.391928E-16	6.639837E-18
7.000000E+03	5.427432E-16	6.677732E-18
7.010000E+03	5.475560E-16	6.730862E-18
7.020000E+03	5.533551E-16	6.795807E-18
7.030000E+03	5.598718E-16	6.869244E-18
7.040000E+03	5.667836E-16	6.947206E-18
7.050000E+03	5.737691E-16	7.025755E-18
7.060000E+03	5.805135E-16	7.101052E-18
7.070000E+03	5.867351E-16	7.169678E-18
7.080000E+03	5.921679E-16	7.228425E-18
7.090000E+03	5.966195E-16	7.274996E-18
7.100000E+03	5.999353E-16	7.307567E-18
7.110000E+03	6.020507E-16	7.325419E-18
7.120000E+03	6.029569E-16	7.328520E-18
7.130000E+03	6.026974E-16	7.317467E-18
7.140000E+03	6.013945E-16	7.293819E-18
7.150000E+03	5.992025E-16	7.259511E-18
7.160000E+03	5.963052E-16	7.216828E-18
7.170000E+03	5.929119E-16	7.168356E-18
7.180000E+03	5.891964E-16	7.116238E-18
7.190000E+03	5.853543E-16	7.062873E-18
7.200000E+03	5.815581E-16	7.010371E-18
7.210000E+03	5.779273E-16	6.960196E-18
7.220000E+03	5.745603E-16	6.913554E-18
7.230000E+03	5.715343E-16	6.871391E-18
7.240000E+03	5.688718E-16	6.833994E-18
7.250000E+03	5.665895E-16	6.801583E-18
7.260000E+03	5.646553E-16	6.773790E-18
7.270000E+03	5.630366E-16	6.750247E-18
7.280000E+03	5.616688E-16	6.730204E-18
7.290000E+03	5.604684E-16	6.712688E-18
7.300000E+03	5.593239E-16	6.696392E-18
7.310000E+03	5.581464E-16	6.680285E-18
7.320000E+03	5.567914E-16	6.662672E-18
7.330000E+03	5.551476E-16	6.642255E-18
7.340000E+03	5.530967E-16	6.617649E-18
7.350000E+03	5.505323E-16	6.587612E-18
7.360000E+03	5.473681E-16	6.551138E-18
7.370000E+03	5.435437E-16	6.507523E-18
7.380000E+03	5.390298E-16	6.456429E-18
7.390000E+03	5.338425E-16	6.398054E-18
7.400000E+03	5.279961E-16	6.332568E-18
7.410000E+03	5.215858E-16	6.261104E-18
7.420000E+03	5.147129E-16	6.184864E-18
7.430000E+03	5.075055E-16	6.105372E-18
7.440000E+03	5.001029E-16	6.024286E-18
7.450000E+03	4.926728E-16	5.943611E-18
7.460000E+03	4.853937E-16	5.865492E-18
7.470000E+03	4.784465E-16	5.792114E-18
7.480000E+03	4.720028E-16	5.725569E-18
7.490000E+03	4.662104E-16	5.667677E-18
7.500000E+03	4.611701E-16	5.619713E-18
7.510000E+03	4.569033E-16	5.581992E-18
7.520000E+03	4.533044E-16	5.553295E-18
7.530000E+03	4.501892E-16	5.531425E-18
7.540000E+03	4.472720E-16	5.512915E-18
7.550000E+03	4.442937E-16	5.494589E-18
7.560000E+03	4.410154E-16	5.473475E-18
7.570000E+03	4.372643E-16	5.447372E-18
7.580000E+03	4.329043E-16	5.414477E-18
7.590000E+03	4.279048E-16	5.374261E-18
7.600000E+03	4.223051E-16	5.327064E-18
7.610000E+03	4.161771E-16	5.273634E-18
7.620000E+03	4.096845E-16	5.215902E-18
7.630000E+03	4.029884E-16	5.155793E-18
7.640000E+03	3.963135E-16	5.096093E-18
7.650000E+03	3.898652E-16	5.039389E-18
7.660000E+03	3.838565E-16	4.988433E-18
7.670000E+03	3.784874E-16	4.945867E-18
7.680000E+03	3.739260E-16	4.913984E-18
7.690000E+03	3.703479E-16	4.895235E-18
7.700000E+03	3.678376E-16	4.890924E-18
7.710000E+03	3.664776E-16	4.902373E-18
7.720000E+03	3.663101E-16	4.930400E-18
7.730000E+03	3.673088E-16	4.974924E-18
7.740000E+03	3.694456E-16	5.035844E-18
7.750000E+03	3.726374E-16	5.112311E-18
7.760000E+03	3.767501E-16	5.202748E-18
