#wls	flux	fluxerr
1.600000E+03	8.140099E-18	3.593094E-19
1.640000E+03	8.203674E-18	3.599951E-19
1.680000E+03	8.271502E-18	3.607969E-19
1.720000E+03	8.346967E-18	3.618573E-19
1.760000E+03	8.427035E-18	3.630387E-19
1.800000E+03	8.513513E-18	3.644139E-19
1.840000E+03	8.606611E-18	3.659857E-19
1.880000E+03	8.709915E-18	3.678992E-19
1.920000E+03	8.818653E-18	3.699448E-19
1.960000E+03	8.938168E-18	3.723396E-19
2.000000E+03	9.067084E-18	3.750163E-19
2.040000E+03	9.205720E-18	3.779791E-19
2.080000E+03	9.356185E-18	3.813044E-19
2.120000E+03	9.517092E-18	3.849247E-19
2.160000E+03	9.692440E-18	3.889904E-19
2.200000E+03	9.880901E-18	3.934347E-19
2.240000E+03	1.008293E-17	3.982631E-19
2.280000E+03	1.030092E-17	4.035555E-19
2.320000E+03	1.053542E-17	4.093191E-19
2.360000E+03	1.078703E-17	4.155610E-19
2.400000E+03	1.105836E-17	4.223645E-19
2.440000E+03	1.134812E-17	4.296630E-19
2.480000E+03	1.166105E-17	4.376171E-19
2.520000E+03	1.199801E-17	4.462384E-19
2.560000E+03	1.235783E-17	4.554623E-19
2.600000E+03	1.274561E-17	4.654556E-19
2.640000E+03	1.316245E-17	4.762346E-19
2.680000E+03	1.361167E-17	4.878950E-19
2.720000E+03	1.409683E-17	5.005373E-19
2.760000E+03	1.461945E-17	5.141875E-19
2.800000E+03	1.518348E-17	5.289556E-19
2.840000E+03	1.579773E-17	5.451177E-19
2.880000E+03	1.646231E-17	5.626417E-19
2.920000E+03	1.718693E-17	5.818255E-19
2.960000E+03	1.797723E-17	6.028212E-19
3.000000E+03	1.884435E-17	6.259607E-19
3.010000E+03	1.907333E-17	6.320821E-19
3.020000E+03	1.930934E-17	6.384078E-19
3.030000E+03	1.954997E-17	6.448572E-19
3.040000E+03	1.979528E-17	6.514320E-19
3.050000E+03	2.004788E-17	6.582173E-19
3.060000E+03	2.030788E-17	6.652158E-19
3.070000E+03	2.057539E-17	6.724299E-19
3.080000E+03	2.084795E-17	6.797783E-19
3.090000E+03	2.112565E-17	6.872635E-19
3.100000E+03	2.141372E-17	6.950552E-19
3.110000E+03	2.170714E-17	7.029887E-19
3.120000E+03	2.200859E-17	7.111508E-19
3.130000E+03	2.232081E-17	7.196286E-19
3.140000E+03	2.263867E-17	7.282558E-19
3.150000E+03	2.296491E-17	7.371200E-19
3.160000E+03	2.329964E-17	7.462237E-19
3.170000E+03	2.364565E-17	7.556554E-19
3.180000E+03	2.400038E-17	7.653324E-19
3.190000E+03	2.436395E-17	7.752572E-19
3.200000E+03	2.473642E-17	7.854317E-19
3.210000E+03	2.512062E-17	7.959445E-19
3.220000E+03	2.551666E-17	8.067980E-19
3.230000E+03	2.592188E-17	8.179070E-19
3.240000E+03	2.633629E-17	8.292719E-19
3.250000E+03	2.676549E-17	8.410679E-19
3.260000E+03	2.720393E-17	8.531196E-19
3.270000E+03	2.765437E-17	8.655131E-19
3.280000E+03	2.811677E-17	8.782464E-19
3.290000E+03	2.859384E-17	8.914036E-19
3.300000E+03	2.907977E-17	9.048029E-19
3.310000E+03	2.958001E-17	9.186138E-19
3.320000E+03	3.009142E-17	9.327379E-19
3.330000E+03	3.061648E-17	9.472524E-19
3.340000E+03	3.115181E-17	9.620521E-19
3.350000E+03	3.169677E-17	9.771181E-19
3.360000E+03	3.225643E-17	9.926066E-19
3.370000E+03	3.282406E-17	1.008311E-18
3.380000E+03	3.340443E-17	1.024378E-18
3.390000E+03	3.399035E-17	1.040588E-18
3.400000E+03	3.458627E-17	1.057079E-18
3.410000E+03	3.518745E-17	1.073707E-18
3.420000E+03	3.579192E-17	1.090415E-18
3.430000E+03	3.640036E-17	1.107224E-18
3.440000E+03	3.700714E-17	1.123966E-18
3.450000E+03	3.761529E-17	1.140735E-18
3.460000E+03	3.821541E-17	1.157251E-18
3.470000E+03	3.880672E-17	1.173492E-18
3.480000E+03	3.938803E-17	1.189428E-18
3.490000E+03	3.995172E-17	1.204831E-18
3.500000E+03	4.049286E-17	1.219560E-18
3.510000E+03	4.100928E-17	1.233554E-18
3.520000E+03	4.149558E-17	1.246656E-18
3.530000E+03	4.194344E-17	1.258622E-18
3.540000E+03	4.235352E-17	1.269480E-18
3.550000E+03	4.271788E-17	1.278997E-18
3.560000E+03	4.303197E-17	1.287044E-18
3.570000E+03	4.329190E-17	1.293512E-18
3.580000E+03	4.350013E-17	1.298481E-18
3.590000E+03	4.364856E-17	1.301715E-18
3.600000E+03	4.373978E-17	1.303299E-18
3.610000E+03	4.377722E-17	1.303339E-18
3.620000E+03	4.376815E-17	1.302057E-18
3.630000E+03	4.371251E-17	1.299455E-18
3.640000E+03	4.362410E-17	1.295945E-18
3.650000E+03	4.350407E-17	1.291563E-18
3.660000E+03	4.336419E-17	1.286657E-18
3.670000E+03	4.320647E-17	1.281288E-18
3.680000E+03	4.304281E-17	1.275807E-18
3.690000E+03	4.287786E-17	1.270351E-18
3.700000E+03	4.272082E-17	1.265191E-18
3.710000E+03	4.257825E-17	1.260519E-18
3.720000E+03	4.245639E-17	1.256518E-18
3.730000E+03	4.235904E-17	1.253298E-18
3.740000E+03	4.229802E-17	1.251208E-18
3.750000E+03	4.227214E-17	1.250211E-18
3.760000E+03	4.229235E-17	1.250628E-18
3.770000E+03	4.235916E-17	1.252473E-18
3.780000E+03	4.247900E-17	1.255936E-18
3.790000E+03	4.265811E-17	1.261200E-18
3.800000E+03	4.289890E-17	1.268336E-18
3.810000E+03	4.320569E-17	1.277472E-18
3.820000E+03	4.358459E-17	1.288788E-18
3.830000E+03	4.403973E-17	1.302409E-18
3.840000E+03	4.457503E-17	1.318450E-18
3.850000E+03	4.519233E-17	1.336970E-18
3.860000E+03	4.589836E-17	1.358168E-18
3.870000E+03	4.669565E-17	1.382124E-18
3.880000E+03	4.758433E-17	1.408843E-18
3.890000E+03	4.856534E-17	1.438359E-18
3.900000E+03	4.964219E-17	1.470780E-18
3.910000E+03	5.081013E-17	1.505969E-18
3.920000E+03	5.206844E-17	1.543912E-18
3.930000E+03	5.341320E-17	1.584496E-18
3.940000E+03	5.483909E-17	1.627571E-18
3.950000E+03	5.633928E-17	1.672939E-18
3.960000E+03	5.790737E-17	1.720416E-18
3.970000E+03	5.953202E-17	1.769671E-18
3.980000E+03	6.120252E-17	1.820391E-18
3.990000E+03	6.290713E-17	1.872231E-18
4.000000E+03	6.463517E-17	1.924878E-18
4.010000E+03	6.636963E-17	1.977829E-18
4.020000E+03	6.810058E-17	2.030790E-18
4.030000E+03	6.981407E-17	2.083347E-18
4.040000E+03	7.149238E-17	2.134973E-18
4.050000E+03	7.312397E-17	2.185321E-18
4.060000E+03	7.469829E-17	2.234076E-18
4.070000E+03	7.620060E-17	2.280793E-18
4.080000E+03	7.762223E-17	2.325208E-18
4.090000E+03	7.895917E-17	2.367198E-18
4.100000E+03	8.020861E-17	2.406672E-18
4.110000E+03	8.136727E-17	2.443526E-18
4.120000E+03	8.244084E-17	2.477924E-18
4.130000E+03	8.343403E-17	2.510002E-18
4.140000E+03	8.435767E-17	2.540079E-18
4.150000E+03	8.521862E-17	2.568356E-18
4.160000E+03	8.603023E-17	2.595231E-18
4.170000E+03	8.680241E-17	2.620998E-18
4.180000E+03	8.754471E-17	2.645942E-18
4.190000E+03	8.826939E-17	2.670431E-18
4.200000E+03	8.898202E-17	2.694632E-18
4.210000E+03	8.969028E-17	2.718775E-18
4.220000E+03	9.039830E-17	2.742986E-18
4.230000E+03	9.111015E-17	2.767387E-18
4.240000E+03	9.182628E-17	2.791991E-18
4.250000E+03	9.254526E-17	2.816755E-18
4.260000E+03	9.326553E-17	2.841631E-18
4.270000E+03	9.398035E-17	2.866412E-18
4.280000E+03	9.468314E-17	2.890897E-18
4.290000E+03	9.536750E-17	2.914888E-18
4.300000E+03	9.602431E-17	2.938102E-18
4.310000E+03	9.664059E-17	2.960141E-18
4.320000E+03	9.720974E-17	2.980795E-18
4.330000E+03	9.771930E-17	2.999677E-18
4.340000E+03	9.816133E-17	3.016536E-18
4.350000E+03	9.853011E-17	3.031189E-18
4.360000E+03	9.882007E-17	3.043455E-18
4.370000E+03	9.903315E-17	3.053385E-18
4.380000E+03	9.917531E-17	3.061154E-18
4.390000E+03	9.925895E-17	3.067137E-18
4.400000E+03	9.930072E-17	3.071842E-18
4.410000E+03	9.932349E-17	3.075972E-18
4.420000E+03	9.935334E-17	3.080332E-18
4.430000E+03	9.941698E-17	3.085752E-18
4.440000E+03	9.953780E-17	3.092960E-18
4.450000E+03	9.973810E-17	3.102654E-18
4.460000E+03	1.000335E-16	3.115331E-18
4.470000E+03	1.004380E-16	3.131433E-18
4.480000E+03	1.009583E-16	3.151180E-18
4.490000E+03	1.015970E-16	3.174667E-18
4.500000E+03	1.023520E-16	3.201837E-18
4.510000E+03	1.032173E-16	3.232513E-18
4.520000E+03	1.041820E-16	3.266367E-18
4.530000E+03	1.052356E-16	3.303076E-18
4.540000E+03	1.063651E-16	3.342243E-18
4.550000E+03	1.075530E-16	3.383322E-18
4.560000E+03	1.087831E-16	3.425805E-18
4.570000E+03	1.100348E-16	3.469053E-18
4.580000E+03	1.112892E-16	3.512466E-18
4.590000E+03	1.125244E-16	3.555351E-18
4.600000E+03	1.137223E-16	3.597133E-18
4.610000E+03	1.148599E-16	3.637081E-18
4.620000E+03	1.159216E-16	3.674688E-18
4.630000E+03	1.168881E-16	3.709339E-18
4.640000E+03	1.177490E-16	3.740688E-18
4.650000E+03	1.184930E-16	3.768366E-18
4.660000E+03	1.191156E-16	3.792214E-18
4.670000E+03	1.196131E-16	3.812103E-18
4.680000E+03	1.199863E-16	3.828046E-18
4.690000E+03	1.202403E-16	3.840192E-18
4.700000E+03	1.203796E-16	3.848670E-18
4.710000E+03	1.204124E-16	3.853729E-18
4.720000E+03	1.203426E-16	3.855487E-18
4.730000E+03	1.201784E-16	3.854196E-18
4.740000E+03	1.199245E-16	3.849992E-18
4.750000E+03	1.195839E-16	3.842966E-18
4.760000E+03	1.191583E-16	3.833162E-18
4.770000E+03	1.186557E-16	3.820830E-18
4.780000E+03	1.180780E-16	3.806024E-18
4.790000E+03	1.174339E-16	3.789016E-18
4.800000E+03	1.167311E-16	3.770049E-18
4.810000E+03	1.159792E-16	3.749430E-18
4.820000E+03	1.151930E-16	3.727630E-18
4.830000E+03	1.143858E-16	3.705075E-18
4.840000E+03	1.135745E-16	3.682316E-18
4.850000E+03	1.127785E-16	3.659979E-18
4.860000E+03	1.120206E-16	3.638804E-18
4.870000E+03	1.113217E-16	3.619480E-18
4.880000E+03	1.107051E-16	3.602768E-18
4.890000E+03	1.101939E-16	3.589427E-18
4.900000E+03	1.098101E-16	3.580181E-18
4.910000E+03	1.095712E-16	3.575618E-18
4.920000E+03	1.094978E-16	3.576418E-18
4.930000E+03	1.096017E-16	3.582989E-18
4.940000E+03	1.098948E-16	3.595727E-18
4.950000E+03	1.103831E-16	3.614844E-18
4.960000E+03	1.110640E-16	3.640280E-18
4.970000E+03	1.119330E-16	3.671891E-18
4.980000E+03	1.129783E-16	3.709316E-18
4.990000E+03	1.141758E-16	3.751768E-18
5.000000E+03	1.155020E-16	3.798487E-18
5.010000E+03	1.169186E-16	3.848225E-18
5.020000E+03	1.183885E-16	3.899766E-18
5.030000E+03	1.198669E-16	3.951632E-18
5.040000E+03	1.213088E-16	4.002336E-18
5.050000E+03	1.226703E-16	4.050432E-18
5.060000E+03	1.239119E-16	4.094604E-18
5.070000E+03	1.250010E-16	4.133762E-18
5.080000E+03	1.259145E-16	4.167126E-18
5.090000E+03	1.266402E-16	4.194283E-18
5.100000E+03	1.271781E-16	4.215218E-18
5.110000E+03	1.275386E-16	4.230260E-18
5.120000E+03	1.277460E-16	4.240203E-18
5.130000E+03	1.278267E-16	4.245912E-18
5.140000E+03	1.278173E-16	4.248592E-18
5.150000E+03	1.277497E-16	4.249303E-18
5.160000E+03	1.276583E-16	4.249184E-18
5.170000E+03	1.275735E-16	4.249241E-18
5.180000E+03	1.275157E-16	4.250163E-18
5.190000E+03	1.275049E-16	4.252616E-18
5.200000E+03	1.275496E-16	4.256884E-18
5.210000E+03	1.276582E-16	4.263250E-18
5.220000E+03	1.278311E-16	4.271736E-18
5.230000E+03	1.280668E-16	4.282295E-18
5.240000E+03	1.283625E-16	4.294837E-18
5.250000E+03	1.287145E-16	4.309241E-18
5.260000E+03	1.291194E-16	4.325396E-18
5.270000E+03	1.295749E-16	4.343228E-18
5.280000E+03	1.300764E-16	4.362588E-18
5.290000E+03	1.306203E-16	4.383352E-18
5.300000E+03	1.312034E-16	4.405422E-18
5.310000E+03	1.318182E-16	4.428543E-18
5.320000E+03	1.324574E-16	4.452470E-18
5.330000E+03	1.331111E-16	4.476879E-18
5.340000E+03	1.337691E-16	4.501421E-18
5.350000E+03	1.344215E-16	4.525761E-18
5.360000E+03	1.350570E-16	4.549524E-18
5.370000E+03	1.356676E-16	4.572434E-18
5.380000E+03	1.362490E-16	4.594348E-18
5.390000E+03	1.368016E-16	4.615273E-18
5.400000E+03	1.373317E-16	4.635428E-18
5.410000E+03	1.378474E-16	4.655079E-18
5.420000E+03	1.383653E-16	4.674791E-18
5.430000E+03	1.389067E-16	4.695281E-18
5.440000E+03	1.394919E-16	4.717237E-18
5.450000E+03	1.401477E-16	4.741563E-18
5.460000E+03	1.408982E-16	4.769089E-18
5.470000E+03	1.417691E-16	4.800680E-18
5.480000E+03	1.427789E-16	4.836971E-18
5.490000E+03	1.439400E-16	4.878388E-18
5.500000E+03	1.452548E-16	4.925018E-18
5.510000E+03	1.467132E-16	4.976526E-18
5.520000E+03	1.482928E-16	5.032155E-18
5.530000E+03	1.499608E-16	5.090798E-18
5.540000E+03	1.516704E-16	5.150866E-18
5.550000E+03	1.533728E-16	5.210706E-18
5.560000E+03	1.550110E-16	5.268380E-18
5.570000E+03	1.565242E-16	5.321815E-18
5.580000E+03	1.578555E-16	5.369070E-18
5.590000E+03	1.589510E-16	5.408306E-18
5.600000E+03	1.597660E-16	5.437991E-18
5.610000E+03	1.602637E-16	5.456865E-18
5.620000E+03	1.604221E-16	5.464164E-18
5.630000E+03	1.602331E-16	5.459604E-18
5.640000E+03	1.597050E-16	5.443453E-18
5.650000E+03	1.588576E-16	5.416377E-18
5.660000E+03	1.577186E-16	5.379311E-18
5.670000E+03	1.563330E-16	5.333778E-18
5.680000E+03	1.547424E-16	5.281199E-18
5.690000E+03	1.530007E-16	5.223401E-18
5.700000E+03	1.511614E-16	5.162213E-18
5.710000E+03	1.492780E-16	5.099459E-18
5.720000E+03	1.474064E-16	5.037049E-18
5.730000E+03	1.456034E-16	4.976928E-18
5.740000E+03	1.439276E-16	4.921100E-18
5.750000E+03	1.424333E-16	4.871428E-18
5.760000E+03	1.411802E-16	4.829964E-18
5.770000E+03	1.402236E-16	4.798604E-18
5.780000E+03	1.396134E-16	4.779072E-18
5.790000E+03	1.393993E-16	4.773077E-18
5.800000E+03	1.396225E-16	4.782043E-18
5.810000E+03	1.403206E-16	4.807270E-18
5.820000E+03	1.415182E-16	4.849614E-18
5.830000E+03	1.432291E-16	4.909568E-18
5.840000E+03	1.454564E-16	4.987249E-18
5.850000E+03	1.481914E-16	5.082374E-18
5.860000E+03	1.514085E-16	5.194082E-18
5.870000E+03	1.550631E-16	5.320849E-18
5.880000E+03	1.590986E-16	5.460753E-18
5.890000E+03	1.634363E-16	5.611094E-18
5.900000E+03	1.679799E-16	5.768584E-18
5.910000E+03	1.726225E-16	5.929548E-18
5.920000E+03	1.772385E-16	6.089680E-18
5.930000E+03	1.816977E-16	6.244506E-18
5.940000E+03	1.858711E-16	6.389581E-18
5.950000E+03	1.896313E-16	6.520526E-18
5.960000E+03	1.928643E-16	6.633410E-18
5.970000E+03	1.954817E-16	6.725172E-18
5.980000E+03	1.974124E-16	6.793359E-18
5.990000E+03	1.986174E-16	6.836608E-18
6.000000E+03	1.990889E-16	6.854634E-18
6.010000E+03	1.988412E-16	6.847906E-18
6.020000E+03	1.979184E-16	6.817932E-18
6.030000E+03	1.963825E-16	6.766826E-18
6.040000E+03	1.943084E-16	6.697158E-18
6.050000E+03	1.917806E-16	6.611827E-18
6.060000E+03	1.888922E-16	6.514026E-18
6.070000E+03	1.857332E-16	6.406855E-18
6.080000E+03	1.823929E-16	6.293391E-18
6.090000E+03	1.789541E-16	6.176478E-18
6.100000E+03	1.754936E-16	6.058773E-18
6.110000E+03	1.720802E-16	5.942648E-18
6.120000E+03	1.687703E-16	5.830050E-18
6.130000E+03	1.656136E-16	5.722708E-18
6.140000E+03	1.626506E-16	5.622016E-18
6.150000E+03	1.599091E-16	5.528949E-18
6.160000E+03	1.574096E-16	5.444221E-18
6.170000E+03	1.551643E-16	5.368258E-18
6.180000E+03	1.531757E-16	5.301162E-18
6.190000E+03	1.514425E-16	5.242892E-18
6.200000E+03	1.499593E-16	5.193271E-18
6.210000E+03	1.487089E-16	5.151709E-18
6.220000E+03	1.476689E-16	5.117441E-18
6.230000E+03	1.468146E-16	5.089616E-18
6.240000E+03	1.461162E-16	5.067205E-18
6.250000E+03	1.455411E-16	5.049083E-18
6.260000E+03	1.450535E-16	5.034011E-18
6.270000E+03	1.446176E-16	5.020750E-18
6.280000E+03	1.441980E-16	5.008068E-18
6.290000E+03	1.437593E-16	4.994738E-18
6.300000E+03	1.432695E-16	4.979644E-18
6.310000E+03	1.427043E-16	4.961943E-18
6.320000E+03	1.420420E-16	4.940872E-18
6.330000E+03	1.412719E-16	4.916055E-18
6.340000E+03	1.403893E-16	4.887324E-18
6.350000E+03	1.394040E-16	4.855015E-18
6.360000E+03	1.383258E-16	4.819461E-18
6.370000E+03	1.371791E-16	4.781513E-18
6.380000E+03	1.359875E-16	4.741984E-18
6.390000E+03	1.347773E-16	4.701790E-18
6.400000E+03	1.335789E-16	4.661992E-18
6.410000E+03	1.324186E-16	4.623510E-18
6.420000E+03	1.313174E-16	4.587075E-18
6.430000E+03	1.302973E-16	4.553456E-18
6.440000E+03	1.293704E-16	4.523085E-18
6.450000E+03	1.285494E-16	4.496405E-18
6.460000E+03	1.278382E-16	4.473559E-18
6.470000E+03	1.272376E-16	4.454581E-18
6.480000E+03	1.267450E-16	4.439379E-18
6.490000E+03	1.263533E-16	4.427716E-18
6.500000E+03	1.260580E-16	4.419432E-18
6.510000E+03	1.258493E-16	4.414196E-18
6.520000E+03	1.257194E-16	4.411730E-18
6.530000E+03	1.256624E-16	4.411834E-18
6.540000E+03	1.256730E-16	4.414329E-18
6.550000E+03	1.257485E-16	4.419115E-18
6.560000E+03	1.258885E-16	4.426191E-18
6.570000E+03	1.260987E-16	4.435750E-18
6.580000E+03	1.263811E-16	4.447876E-18
6.590000E+03	1.267468E-16	4.462957E-18
6.600000E+03	1.272000E-16	4.481146E-18
6.610000E+03	1.277480E-16	4.502707E-18
6.620000E+03	1.283941E-16	4.527761E-18
6.630000E+03	1.291387E-16	4.556327E-18
6.640000E+03	1.299739E-16	4.588135E-18
6.650000E+03	1.308902E-16	4.622846E-18
6.660000E+03	1.318640E-16	4.659638E-18
6.670000E+03	1.328744E-16	4.697774E-18
6.680000E+03	1.338891E-16	4.736112E-18
6.690000E+03	1.348732E-16	4.773420E-18
6.700000E+03	1.357895E-16	4.808377E-18
6.710000E+03	1.365998E-16	4.839625E-18
6.720000E+03	1.372669E-16	4.865844E-18
6.730000E+03	1.377586E-16	4.885881E-18
6.740000E+03	1.380421E-16	4.898561E-18
6.750000E+03	1.380969E-16	4.903149E-18
6.760000E+03	1.379047E-16	4.898980E-18
6.770000E+03	1.374565E-16	4.885716E-18
6.780000E+03	1.367511E-16	4.863304E-18
6.790000E+03	1.357955E-16	4.831975E-18
6.800000E+03	1.346041E-16	4.792231E-18
6.810000E+03	1.332002E-16	4.744883E-18
6.820000E+03	1.316097E-16	4.690843E-18
6.830000E+03	1.298656E-16	4.631279E-18
6.840000E+03	1.280046E-16	4.567485E-18
6.850000E+03	1.260658E-16	4.500854E-18
6.860000E+03	1.240902E-16	4.432848E-18
6.870000E+03	1.221189E-16	4.364925E-18
6.880000E+03	1.201924E-16	4.298539E-18
6.890000E+03	1.183507E-16	4.235125E-18
6.900000E+03	1.166278E-16	4.175901E-18
6.910000E+03	1.150602E-16	4.122183E-18
6.920000E+03	1.136760E-16	4.074990E-18
6.930000E+03	1.125057E-16	4.035426E-18
6.940000E+03	1.115723E-16	4.004329E-18
6.950000E+03	1.108966E-16	3.982458E-18
6.960000E+03	1.104958E-16	3.970455E-18
6.970000E+03	1.103832E-16	3.968809E-18
6.980000E+03	1.105671E-16	3.977846E-18
6.990000E+03	1.110514E-16	3.997715E-18
7.000000E+03	1.118334E-16	4.028350E-18
7.010000E+03	1.129046E-16	4.069460E-18
7.020000E+03	1.142495E-16	4.120504E-18
7.030000E+03	1.158453E-16	4.180684E-18
7.040000E+03	1.176620E-16	4.248933E-18
7.050000E+03	1.196646E-16	4.323998E-18
7.060000E+03	1.218075E-16	4.404254E-18
7.070000E+03	1.240455E-16	4.488066E-18
7.080000E+03	1.263301E-16	4.573696E-18
7.090000E+03	1.286098E-16	4.659278E-18
7.100000E+03	1.308342E-16	4.742985E-18
7.110000E+03	1.329620E-16	4.823321E-18
7.120000E+03	1.349537E-16	4.898845E-18
7.130000E+03	1.367791E-16	4.968449E-18
7.140000E+03	1.384175E-16	5.031377E-18
7.150000E+03	1.398583E-16	5.087224E-18
7.160000E+03	1.411001E-16	5.135927E-18
7.170000E+03	1.421521E-16	5.177812E-18
7.180000E+03	1.430257E-16	5.213279E-18
7.190000E+03	1.437450E-16	5.243195E-18
7.200000E+03	1.443324E-16	5.268363E-18
7.210000E+03	1.448153E-16	5.289783E-18
7.220000E+03	1.452176E-16	5.308312E-18
7.230000E+03	1.455622E-16	5.324791E-18
7.240000E+03	1.458690E-16	5.339938E-18
7.250000E+03	1.461546E-16	5.354363E-18
7.260000E+03	1.464270E-16	5.368357E-18
7.270000E+03	1.466919E-16	5.382130E-18
7.280000E+03	1.469482E-16	5.395640E-18
7.290000E+03	1.471857E-16	5.408513E-18
7.300000E+03	1.473993E-16	5.420563E-18
7.310000E+03	1.475726E-16	5.431188E-18
7.320000E+03	1.476867E-16	5.439680E-18
7.330000E+03	1.477244E-16	5.445410E-18
7.340000E+03	1.476657E-16	5.447629E-18
7.350000E+03	1.474892E-16	5.445542E-18
7.360000E+03	1.471806E-16	5.438607E-18
7.370000E+03	1.467217E-16	5.426144E-18
7.380000E+03	1.461004E-16	5.407691E-18
7.390000E+03	1.453104E-16	5.382996E-18
7.400000E+03	1.443450E-16	5.351798E-18
7.410000E+03	1.432089E-16	5.314255E-18
7.420000E+03	1.419124E-16	5.270734E-18
7.430000E+03	1.404677E-16	5.221666E-18
7.440000E+03	1.388932E-16	5.167727E-18
7.450000E+03	1.372132E-16	5.109805E-18
7.460000E+03	1.354480E-16	5.048647E-18
7.470000E+03	1.336246E-16	4.985251E-18
7.480000E+03	1.317689E-16	4.920575E-18
7.490000E+03	1.298997E-16	4.855316E-18
7.500000E+03	1.280378E-16	4.790253E-18
7.510000E+03	1.261990E-16	4.725976E-18
7.520000E+03	1.243978E-16	4.663027E-18
7.530000E+03	1.226520E-16	4.602077E-18
7.540000E+03	1.209772E-16	4.543719E-18
7.550000E+03	1.193825E-16	4.488299E-18
7.560000E+03	1.178757E-16	4.436123E-18
7.570000E+03	1.164627E-16	4.387415E-18
7.580000E+03	1.151477E-16	4.342350E-18
7.590000E+03	1.139339E-16	4.301055E-18
7.600000E+03	1.128243E-16	4.263656E-18
7.610000E+03	1.118202E-16	4.230210E-18
7.620000E+03	1.109258E-16	4.200892E-18
7.630000E+03	1.101424E-16	4.175758E-18
7.640000E+03	1.094743E-16	4.154991E-18
7.650000E+03	1.089245E-16	4.138705E-18
7.660000E+03	1.084937E-16	4.126951E-18
7.670000E+03	1.081841E-16	4.119822E-18
7.680000E+03	1.079988E-16	4.117449E-18
7.690000E+03	1.079371E-16	4.119825E-18
7.700000E+03	1.079990E-16	4.126964E-18
7.710000E+03	1.081850E-16	4.138894E-18
7.720000E+03	1.084909E-16	4.155481E-18
7.730000E+03	1.089145E-16	4.176651E-18
7.740000E+03	1.094488E-16	4.202149E-18
7.750000E+03	1.100868E-16	4.231725E-18
7.760000E+03	1.108212E-16	4.265107E-18
