#wls	flux	fluxerr
1.600000E+03	8.526749E-18	4.820777E-19
1.640000E+03	8.598763E-18	4.821652E-19
1.680000E+03	8.677111E-18	4.824639E-19
1.720000E+03	8.762008E-18	4.829744E-19
1.760000E+03	8.851951E-18	4.836030E-19
1.800000E+03	8.950608E-18	4.845384E-19
1.840000E+03	9.056516E-18	4.856867E-19
1.880000E+03	9.171710E-18	4.871424E-19
1.920000E+03	9.294717E-18	4.888114E-19
1.960000E+03	9.427639E-18	4.907880E-19
2.000000E+03	9.572673E-18	4.931671E-19
2.040000E+03	9.728393E-18	4.958537E-19
2.080000E+03	9.895191E-18	4.988471E-19
2.120000E+03	1.007538E-17	5.022418E-19
2.160000E+03	1.027140E-17	5.061325E-19
2.200000E+03	1.047992E-17	5.103272E-19
2.240000E+03	1.070737E-17	5.151113E-19
2.280000E+03	1.094842E-17	5.201964E-19
2.320000E+03	1.120973E-17	5.258680E-19
2.360000E+03	1.148996E-17	5.320272E-19
2.400000E+03	1.178987E-17	5.386730E-19
2.440000E+03	1.211232E-17	5.458976E-19
2.480000E+03	1.245820E-17	5.536995E-19
2.520000E+03	1.282839E-17	5.620753E-19
2.560000E+03	1.322607E-17	5.711192E-19
2.600000E+03	1.365233E-17	5.808299E-19
2.640000E+03	1.411058E-17	5.913030E-19
2.680000E+03	1.459977E-17	6.024417E-19
2.720000E+03	1.512832E-17	6.145412E-19
2.760000E+03	1.569546E-17	6.275097E-19
2.800000E+03	1.630782E-17	6.415527E-19
2.840000E+03	1.696744E-17	6.566869E-19
2.880000E+03	1.768429E-17	6.732308E-19
2.920000E+03	1.846126E-17	6.912208E-19
2.960000E+03	1.930689E-17	7.109035E-19
3.000000E+03	2.023326E-17	7.326433E-19
3.010000E+03	2.047811E-17	7.384131E-19
3.020000E+03	2.072788E-17	7.443004E-19
3.030000E+03	2.098540E-17	7.504056E-19
3.040000E+03	2.124803E-17	7.566321E-19
3.050000E+03	2.151585E-17	7.629821E-19
3.060000E+03	2.179173E-17	7.695562E-19
3.070000E+03	2.207580E-17	7.763569E-19
3.080000E+03	2.236539E-17	7.832884E-19
3.090000E+03	2.266342E-17	7.904517E-19
3.100000E+03	2.296717E-17	7.977508E-19
3.110000E+03	2.328247E-17	8.053866E-19
3.120000E+03	2.360377E-17	8.131647E-19
3.130000E+03	2.393405E-17	8.211869E-19
3.140000E+03	2.427346E-17	8.294567E-19
3.150000E+03	2.461927E-17	8.378791E-19
3.160000E+03	2.497740E-17	8.466551E-19
3.170000E+03	2.534513E-17	8.556900E-19
3.180000E+03	2.572263E-17	8.649880E-19
3.190000E+03	2.611300E-17	8.746515E-19
3.200000E+03	2.651347E-17	8.845861E-19
3.210000E+03	2.692418E-17	8.947953E-19
3.220000E+03	2.734528E-17	9.052829E-19
3.230000E+03	2.777992E-17	9.161521E-19
3.240000E+03	2.822828E-17	9.274069E-19
3.250000E+03	2.868744E-17	9.389504E-19
3.260000E+03	2.916056E-17	9.508853E-19
3.270000E+03	2.964774E-17	9.632134E-19
3.280000E+03	3.014907E-17	9.759361E-19
3.290000E+03	3.066455E-17	9.890536E-19
3.300000E+03	3.119418E-17	1.002565E-18
3.310000E+03	3.173788E-17	1.016467E-18
3.320000E+03	3.229550E-17	1.030755E-18
3.330000E+03	3.286999E-17	1.045523E-18
3.340000E+03	3.345782E-17	1.060660E-18
3.350000E+03	3.406176E-17	1.076254E-18
3.360000E+03	3.468124E-17	1.092287E-18
3.370000E+03	3.531552E-17	1.108739E-18
3.380000E+03	3.596039E-17	1.125477E-18
3.390000E+03	3.661793E-17	1.142572E-18
3.400000E+03	3.728999E-17	1.160083E-18
3.410000E+03	3.797159E-17	1.177859E-18
3.420000E+03	3.866064E-17	1.195840E-18
3.430000E+03	3.935798E-17	1.214056E-18
3.440000E+03	4.005738E-17	1.232322E-18
3.450000E+03	4.075876E-17	1.250643E-18
3.460000E+03	4.145814E-17	1.268903E-18
3.470000E+03	4.215095E-17	1.286973E-18
3.480000E+03	4.283198E-17	1.304702E-18
3.490000E+03	4.349879E-17	1.322027E-18
3.500000E+03	4.414153E-17	1.338660E-18
3.510000E+03	4.475323E-17	1.354403E-18
3.520000E+03	4.532982E-17	1.369147E-18
3.530000E+03	4.586691E-17	1.382774E-18
3.540000E+03	4.635001E-17	1.394861E-18
3.550000E+03	4.677491E-17	1.405297E-18
3.560000E+03	4.713780E-17	1.413983E-18
3.570000E+03	4.742923E-17	1.420651E-18
3.580000E+03	4.764762E-17	1.425267E-18
3.590000E+03	4.778695E-17	1.427666E-18
3.600000E+03	4.785368E-17	1.428052E-18
3.610000E+03	4.784489E-17	1.426349E-18
3.620000E+03	4.777259E-17	1.422922E-18
3.630000E+03	4.764416E-17	1.417997E-18
3.640000E+03	4.746520E-17	1.411743E-18
3.650000E+03	4.724790E-17	1.404520E-18
3.660000E+03	4.700181E-17	1.396610E-18
3.670000E+03	4.673656E-17	1.388295E-18
3.680000E+03	4.646165E-17	1.379852E-18
3.690000E+03	4.618879E-17	1.371625E-18
3.700000E+03	4.592649E-17	1.363861E-18
3.710000E+03	4.568033E-17	1.356721E-18
3.720000E+03	4.546265E-17	1.350567E-18
3.730000E+03	4.527548E-17	1.345455E-18
3.740000E+03	4.512978E-17	1.341709E-18
3.750000E+03	4.503121E-17	1.339494E-18
3.760000E+03	4.498281E-17	1.338899E-18
3.770000E+03	4.499172E-17	1.340137E-18
3.780000E+03	4.506463E-17	1.343409E-18
3.790000E+03	4.520177E-17	1.348725E-18
3.800000E+03	4.541154E-17	1.356339E-18
3.810000E+03	4.569796E-17	1.366376E-18
3.820000E+03	4.606299E-17	1.378903E-18
3.830000E+03	4.651233E-17	1.394098E-18
3.840000E+03	4.704945E-17	1.412077E-18
3.850000E+03	4.767942E-17	1.433002E-18
3.860000E+03	4.840298E-17	1.456910E-18
3.870000E+03	4.922226E-17	1.483881E-18
3.880000E+03	5.014060E-17	1.514030E-18
3.890000E+03	5.115669E-17	1.547336E-18
3.900000E+03	5.227206E-17	1.583864E-18
3.910000E+03	5.348715E-17	1.623647E-18
3.920000E+03	5.479543E-17	1.666507E-18
3.930000E+03	5.619667E-17	1.712459E-18
3.940000E+03	5.768156E-17	1.761239E-18
3.950000E+03	5.924705E-17	1.812774E-18
3.960000E+03	6.088479E-17	1.866829E-18
3.970000E+03	6.258110E-17	1.923003E-18
3.980000E+03	6.432886E-17	1.981093E-18
3.990000E+03	6.611588E-17	2.040739E-18
4.000000E+03	6.792700E-17	2.101485E-18
4.010000E+03	6.974831E-17	2.162909E-18
4.020000E+03	7.156744E-17	2.224633E-18
4.030000E+03	7.336787E-17	2.286147E-18
4.040000E+03	7.513738E-17	2.347068E-18
4.050000E+03	7.685829E-17	2.406839E-18
4.060000E+03	7.852238E-17	2.465192E-18
4.070000E+03	8.011494E-17	2.521654E-18
4.080000E+03	8.162968E-17	2.576011E-18
4.090000E+03	8.306089E-17	2.628064E-18
4.100000E+03	8.440378E-17	2.677641E-18
4.110000E+03	8.565867E-17	2.724731E-18
4.120000E+03	8.682888E-17	2.769416E-18
4.130000E+03	8.791839E-17	2.811803E-18
4.140000E+03	8.893557E-17	2.852136E-18
4.150000E+03	8.989048E-17	2.890720E-18
4.160000E+03	9.079232E-17	2.927833E-18
4.170000E+03	9.165280E-17	2.963839E-18
4.180000E+03	9.248161E-17	2.999037E-18
4.190000E+03	9.328780E-17	3.033713E-18
4.200000E+03	9.408324E-17	3.068244E-18
4.210000E+03	9.487256E-17	3.102778E-18
4.220000E+03	9.566065E-17	3.137471E-18
4.230000E+03	9.645230E-17	3.172477E-18
4.240000E+03	9.724839E-17	3.207825E-18
4.250000E+03	9.804762E-17	3.243470E-18
4.260000E+03	9.884482E-17	3.279240E-18
4.270000E+03	9.963819E-17	3.315071E-18
4.280000E+03	1.004169E-16	3.350598E-18
4.290000E+03	1.011739E-16	3.385580E-18
4.300000E+03	1.018974E-16	3.419613E-18
4.310000E+03	1.025769E-16	3.452330E-18
4.320000E+03	1.032019E-16	3.483360E-18
4.330000E+03	1.037592E-16	3.512238E-18
4.340000E+03	1.042441E-16	3.538786E-18
4.350000E+03	1.046479E-16	3.562679E-18
4.360000E+03	1.049686E-16	3.583827E-18
4.370000E+03	1.052072E-16	3.602234E-18
4.380000E+03	1.053712E-16	3.618131E-18
4.390000E+03	1.054731E-16	3.631925E-18
4.400000E+03	1.055300E-16	3.644185E-18
4.410000E+03	1.055626E-16	3.655613E-18
4.420000E+03	1.055956E-16	3.667056E-18
4.430000E+03	1.056516E-16	3.679299E-18
4.440000E+03	1.057585E-16	3.693320E-18
4.450000E+03	1.059358E-16	3.709818E-18
4.460000E+03	1.062028E-16	3.729483E-18
4.470000E+03	1.065714E-16	3.752762E-18
4.480000E+03	1.070503E-16	3.779992E-18
4.490000E+03	1.076427E-16	3.811309E-18
4.500000E+03	1.083524E-16	3.846885E-18
4.510000E+03	1.091721E-16	3.886486E-18
4.520000E+03	1.100963E-16	3.929948E-18
4.530000E+03	1.111161E-16	3.976980E-18
4.540000E+03	1.122164E-16	4.027064E-18
4.550000E+03	1.133827E-16	4.079696E-18
4.560000E+03	1.145973E-16	4.134258E-18
4.570000E+03	1.158415E-16	4.190082E-18
4.580000E+03	1.170943E-16	4.246411E-18
4.590000E+03	1.183327E-16	4.302410E-18
4.600000E+03	1.195350E-16	4.357278E-18
4.610000E+03	1.206829E-16	4.410336E-18
4.620000E+03	1.217534E-16	4.460722E-18
4.630000E+03	1.227303E-16	4.507816E-18
4.640000E+03	1.235986E-16	4.551040E-18
4.650000E+03	1.243482E-16	4.589986E-18
4.660000E+03	1.249695E-16	4.624263E-18
4.670000E+03	1.254583E-16	4.653677E-18
4.680000E+03	1.258165E-16	4.678266E-18
4.690000E+03	1.260432E-16	4.697956E-18
4.700000E+03	1.261459E-16	4.712991E-18
4.710000E+03	1.261291E-16	4.723504E-18
4.720000E+03	1.259996E-16	4.729718E-18
4.730000E+03	1.257654E-16	4.731903E-18
4.740000E+03	1.254311E-16	4.730206E-18
4.750000E+03	1.250026E-16	4.724821E-18
4.760000E+03	1.244862E-16	4.715966E-18
4.770000E+03	1.238880E-16	4.703846E-18
4.780000E+03	1.232150E-16	4.688708E-18
4.790000E+03	1.224793E-16	4.670992E-18
4.800000E+03	1.216919E-16	4.651109E-18
4.810000E+03	1.208644E-16	4.629489E-18
4.820000E+03	1.200141E-16	4.606783E-18
4.830000E+03	1.191571E-16	4.583610E-18
4.840000E+03	1.183163E-16	4.560848E-18
4.850000E+03	1.175102E-16	4.539221E-18
4.860000E+03	1.167614E-16	4.519611E-18
4.870000E+03	1.160960E-16	4.503041E-18
4.880000E+03	1.155328E-16	4.490268E-18
4.890000E+03	1.150965E-16	4.482274E-18
4.900000E+03	1.148063E-16	4.479840E-18
4.910000E+03	1.146800E-16	4.483697E-18
4.920000E+03	1.147312E-16	4.494412E-18
4.930000E+03	1.149724E-16	4.512516E-18
4.940000E+03	1.154085E-16	4.538248E-18
4.950000E+03	1.160424E-16	4.571761E-18
4.960000E+03	1.168672E-16	4.612824E-18
4.970000E+03	1.178750E-16	4.661166E-18
4.980000E+03	1.190462E-16	4.716046E-18
4.990000E+03	1.203586E-16	4.776618E-18
5.000000E+03	1.217824E-16	4.841728E-18
5.010000E+03	1.232826E-16	4.909993E-18
5.020000E+03	1.248170E-16	4.979750E-18
5.030000E+03	1.263479E-16	5.049493E-18
5.040000E+03	1.278288E-16	5.117356E-18
5.050000E+03	1.292219E-16	5.181812E-18
5.060000E+03	1.304912E-16	5.241392E-18
5.070000E+03	1.316045E-16	5.294777E-18
5.080000E+03	1.325440E-16	5.341211E-18
5.090000E+03	1.332973E-16	5.380157E-18
5.100000E+03	1.338653E-16	5.411621E-18
5.110000E+03	1.342545E-16	5.435826E-18
5.120000E+03	1.344859E-16	5.453586E-18
5.130000E+03	1.345829E-16	5.465825E-18
5.140000E+03	1.345764E-16	5.473773E-18
5.150000E+03	1.344945E-16	5.478557E-18
5.160000E+03	1.343709E-16	5.481537E-18
5.170000E+03	1.342326E-16	5.483811E-18
5.180000E+03	1.341043E-16	5.486385E-18
5.190000E+03	1.340076E-16	5.490147E-18
5.200000E+03	1.339564E-16	5.495673E-18
5.210000E+03	1.339615E-16	5.503416E-18
5.220000E+03	1.340312E-16	5.513728E-18
5.230000E+03	1.341675E-16	5.526698E-18
5.240000E+03	1.343714E-16	5.542384E-18
5.250000E+03	1.346418E-16	5.560749E-18
5.260000E+03	1.349780E-16	5.581771E-18
5.270000E+03	1.353750E-16	5.605259E-18
5.280000E+03	1.358296E-16	5.631090E-18
5.290000E+03	1.363353E-16	5.658994E-18
5.300000E+03	1.368853E-16	5.688704E-18
5.310000E+03	1.374720E-16	5.719907E-18
5.320000E+03	1.380865E-16	5.752241E-18
5.330000E+03	1.387211E-16	5.785379E-18
5.340000E+03	1.393644E-16	5.818858E-18
5.350000E+03	1.400072E-16	5.852287E-18
5.360000E+03	1.406404E-16	5.885288E-18
5.370000E+03	1.412615E-16	5.917751E-18
5.380000E+03	1.418669E-16	5.949530E-18
5.390000E+03	1.424587E-16	5.980703E-18
5.400000E+03	1.430433E-16	6.011537E-18
5.410000E+03	1.436299E-16	6.042424E-18
5.420000E+03	1.442351E-16	6.074061E-18
5.430000E+03	1.448771E-16	6.107215E-18
5.440000E+03	1.455753E-16	6.142710E-18
5.450000E+03	1.463529E-16	6.181535E-18
5.460000E+03	1.472311E-16	6.224587E-18
5.470000E+03	1.482268E-16	6.272600E-18
5.480000E+03	1.493532E-16	6.326150E-18
5.490000E+03	1.506173E-16	6.385537E-18
5.500000E+03	1.520179E-16	6.450732E-18
5.510000E+03	1.535411E-16	6.521157E-18
5.520000E+03	1.551637E-16	6.595837E-18
5.530000E+03	1.568539E-16	6.673434E-18
5.540000E+03	1.585700E-16	6.752171E-18
5.550000E+03	1.602612E-16	6.829886E-18
5.560000E+03	1.618771E-16	6.904428E-18
5.570000E+03	1.633606E-16	6.973345E-18
5.580000E+03	1.646568E-16	7.034285E-18
5.590000E+03	1.657154E-16	7.085069E-18
5.600000E+03	1.664949E-16	7.123900E-18
5.610000E+03	1.669582E-16	7.149162E-18
5.620000E+03	1.670873E-16	7.160051E-18
5.630000E+03	1.668714E-16	7.156079E-18
5.640000E+03	1.663156E-16	7.137429E-18
5.650000E+03	1.654373E-16	7.104819E-18
5.660000E+03	1.642658E-16	7.059481E-18
5.670000E+03	1.628417E-16	7.003137E-18
5.680000E+03	1.612106E-16	6.937731E-18
5.690000E+03	1.594259E-16	6.865544E-18
5.700000E+03	1.575448E-16	6.789037E-18
5.710000E+03	1.556278E-16	6.710813E-18
5.720000E+03	1.537380E-16	6.633591E-18
5.730000E+03	1.519360E-16	6.559999E-18
5.740000E+03	1.502818E-16	6.492634E-18
5.750000E+03	1.488382E-16	6.434231E-18
5.760000E+03	1.476598E-16	6.387171E-18
5.770000E+03	1.468040E-16	6.353958E-18
5.780000E+03	1.463172E-16	6.336632E-18
5.790000E+03	1.462452E-16	6.337207E-18
5.800000E+03	1.466250E-16	6.357323E-18
5.810000E+03	1.474848E-16	6.398234E-18
5.820000E+03	1.488460E-16	6.460906E-18
5.830000E+03	1.507182E-16	6.545792E-18
5.840000E+03	1.530963E-16	6.652711E-18
5.850000E+03	1.559676E-16	6.781145E-18
5.860000E+03	1.593008E-16	6.929767E-18
5.870000E+03	1.630486E-16	7.096546E-18
5.880000E+03	1.671520E-16	7.278945E-18
5.890000E+03	1.715294E-16	7.473431E-18
5.900000E+03	1.760863E-16	7.675898E-18
5.910000E+03	1.807165E-16	7.881731E-18
5.920000E+03	1.852978E-16	8.085596E-18
5.930000E+03	1.897092E-16	8.282214E-18
5.940000E+03	1.938218E-16	8.465940E-18
5.950000E+03	1.975164E-16	8.631544E-18
5.960000E+03	2.006877E-16	8.774397E-18
5.970000E+03	2.032427E-16	8.890396E-18
5.980000E+03	2.051171E-16	8.976700E-18
5.990000E+03	2.062690E-16	9.031419E-18
6.000000E+03	2.066852E-16	9.053940E-18
6.010000E+03	2.063772E-16	9.044726E-18
6.020000E+03	2.053845E-16	9.005460E-18
6.030000E+03	2.037630E-16	8.938553E-18
6.040000E+03	2.015840E-16	8.847110E-18
6.050000E+03	1.989323E-16	8.734810E-18
6.060000E+03	1.958964E-16	8.605522E-18
6.070000E+03	1.925712E-16	8.463391E-18
6.080000E+03	1.890440E-16	8.312249E-18
6.090000E+03	1.854034E-16	8.155972E-18
6.100000E+03	1.817258E-16	7.997923E-18
6.110000E+03	1.780846E-16	7.841336E-18
6.120000E+03	1.745409E-16	7.688906E-18
6.130000E+03	1.711480E-16	7.542987E-18
6.140000E+03	1.679496E-16	7.405516E-18
6.150000E+03	1.649801E-16	7.278027E-18
6.160000E+03	1.622666E-16	7.161730E-18
6.170000E+03	1.598272E-16	7.057445E-18
6.180000E+03	1.576716E-16	6.965618E-18
6.190000E+03	1.558011E-16	6.886320E-18
6.200000E+03	1.542055E-16	6.819128E-18
6.210000E+03	1.528635E-16	6.763112E-18
6.220000E+03	1.517485E-16	6.717111E-18
6.230000E+03	1.508324E-16	6.679895E-18
6.240000E+03	1.500823E-16	6.650017E-18
6.250000E+03	1.494617E-16	6.625874E-18
6.260000E+03	1.489361E-16	6.605937E-18
6.270000E+03	1.484708E-16	6.588674E-18
6.280000E+03	1.480290E-16	6.572457E-18
6.290000E+03	1.475806E-16	6.555947E-18
6.300000E+03	1.470956E-16	6.537812E-18
6.310000E+03	1.465493E-16	6.516945E-18
6.320000E+03	1.459234E-16	6.492532E-18
6.330000E+03	1.452054E-16	6.464010E-18
6.340000E+03	1.443924E-16	6.431239E-18
6.350000E+03	1.434842E-16	6.394203E-18
6.360000E+03	1.424884E-16	6.353237E-18
6.370000E+03	1.414224E-16	6.309109E-18
6.380000E+03	1.403005E-16	6.262447E-18
6.390000E+03	1.391441E-16	6.214210E-18
6.400000E+03	1.379755E-16	6.165385E-18
6.410000E+03	1.368156E-16	6.116905E-18
6.420000E+03	1.356851E-16	6.069697E-18
6.430000E+03	1.346012E-16	6.024534E-18
6.440000E+03	1.335795E-16	5.982115E-18
6.450000E+03	1.326314E-16	5.942953E-18
6.460000E+03	1.317676E-16	5.907538E-18
6.470000E+03	1.309909E-16	5.876001E-18
6.480000E+03	1.303083E-16	5.848655E-18
6.490000E+03	1.297212E-16	5.825577E-18
6.500000E+03	1.292308E-16	5.806828E-18
6.510000E+03	1.288357E-16	5.792347E-18
6.520000E+03	1.285343E-16	5.782070E-18
6.530000E+03	1.283269E-16	5.776023E-18
6.540000E+03	1.282165E-16	5.774339E-18
6.550000E+03	1.282018E-16	5.776977E-18
6.560000E+03	1.282895E-16	5.784237E-18
6.570000E+03	1.284847E-16	5.796360E-18
6.580000E+03	1.287900E-16	5.813475E-18
6.590000E+03	1.292135E-16	5.835954E-18
6.600000E+03	1.297565E-16	5.863868E-18
6.610000E+03	1.304223E-16	5.897370E-18
6.620000E+03	1.312109E-16	5.936472E-18
6.630000E+03	1.321138E-16	5.980798E-18
6.640000E+03	1.331214E-16	6.029927E-18
6.650000E+03	1.342173E-16	6.083120E-18
6.660000E+03	1.353810E-16	6.139457E-18
6.670000E+03	1.365817E-16	6.197548E-18
6.680000E+03	1.377902E-16	6.256061E-18
6.690000E+03	1.389686E-16	6.313288E-18
6.700000E+03	1.400799E-16	6.367537E-18
6.710000E+03	1.410816E-16	6.416869E-18
6.720000E+03	1.419381E-16	6.459664E-18
6.730000E+03	1.426136E-16	6.494271E-18
6.740000E+03	1.430745E-16	6.519153E-18
6.750000E+03	1.432967E-16	6.533189E-18
6.760000E+03	1.432592E-16	6.535399E-18
6.770000E+03	1.429538E-16	6.525396E-18
6.780000E+03	1.423728E-16	6.502798E-18
6.790000E+03	1.415262E-16	6.468045E-18
6.800000E+03	1.404259E-16	6.421658E-18
6.810000E+03	1.390912E-16	6.364502E-18
6.820000E+03	1.375519E-16	6.297914E-18
6.830000E+03	1.358414E-16	6.223412E-18
6.840000E+03	1.339975E-16	6.142714E-18
6.850000E+03	1.320629E-16	6.057771E-18
6.860000E+03	1.300773E-16	5.970391E-18
6.870000E+03	1.280859E-16	5.882647E-18
6.880000E+03	1.261314E-16	5.796498E-18
6.890000E+03	1.242551E-16	5.713856E-18
6.900000E+03	1.224962E-16	5.636521E-18
6.910000E+03	1.208923E-16	5.566240E-18
6.920000E+03	1.194730E-16	5.504388E-18
6.930000E+03	1.182706E-16	5.452467E-18
6.940000E+03	1.173086E-16	5.411586E-18
6.950000E+03	1.166065E-16	5.382668E-18
6.960000E+03	1.161839E-16	5.366635E-18
6.970000E+03	1.160514E-16	5.364003E-18
6.980000E+03	1.162159E-16	5.375125E-18
6.990000E+03	1.166805E-16	5.400164E-18
7.000000E+03	1.174386E-16	5.438848E-18
7.010000E+03	1.184827E-16	5.490855E-18
7.020000E+03	1.197937E-16	5.555331E-18
7.030000E+03	1.213518E-16	5.631380E-18
7.040000E+03	1.231264E-16	5.717608E-18
7.050000E+03	1.250828E-16	5.812423E-18
7.060000E+03	1.271812E-16	5.913991E-18
7.070000E+03	1.293778E-16	6.020295E-18
7.080000E+03	1.316265E-16	6.129202E-18
7.090000E+03	1.338809E-16	6.238554E-18
7.100000E+03	1.360975E-16	6.346324E-18
7.110000E+03	1.382313E-16	6.450415E-18
7.120000E+03	1.402491E-16	6.549268E-18
7.130000E+03	1.421197E-16	6.641420E-18
7.140000E+03	1.438213E-16	6.725836E-18
7.150000E+03	1.453388E-16	6.801798E-18
7.160000E+03	1.466729E-16	6.869317E-18
7.170000E+03	1.478209E-16	6.928257E-18
7.180000E+03	1.487946E-16	6.979150E-18
7.190000E+03	1.496091E-16	7.022691E-18
7.200000E+03	1.502850E-16	7.059827E-18
7.210000E+03	1.508412E-16	7.091444E-18
7.220000E+03	1.512987E-16	7.118507E-18
7.230000E+03	1.516771E-16	7.141940E-18
7.240000E+03	1.519933E-16	7.162524E-18
7.250000E+03	1.522626E-16	7.180983E-18
7.260000E+03	1.524918E-16	7.197631E-18
7.270000E+03	1.526853E-16	7.212674E-18
7.280000E+03	1.528424E-16	7.226077E-18
7.290000E+03	1.529604E-16	7.237704E-18
7.300000E+03	1.530281E-16	7.247028E-18
7.310000E+03	1.530353E-16	7.253563E-18
7.320000E+03	1.529653E-16	7.256503E-18
7.330000E+03	1.528017E-16	7.255067E-18
7.340000E+03	1.525296E-16	7.248535E-18
7.350000E+03	1.521307E-16	7.236027E-18
7.360000E+03	1.515922E-16	7.216910E-18
7.370000E+03	1.508998E-16	7.190498E-18
7.380000E+03	1.500471E-16	7.156458E-18
7.390000E+03	1.490275E-16	7.114458E-18
7.400000E+03	1.478440E-16	7.064614E-18
7.410000E+03	1.465023E-16	7.007181E-18
7.420000E+03	1.450114E-16	6.942564E-18
7.430000E+03	1.433890E-16	6.871591E-18
7.440000E+03	1.416528E-16	6.795096E-18
7.450000E+03	1.398277E-16	6.714247E-18
7.460000E+03	1.379358E-16	6.630103E-18
7.470000E+03	1.360021E-16	6.543847E-18
7.480000E+03	1.340521E-16	6.456704E-18
7.490000E+03	1.321075E-16	6.369712E-18
7.500000E+03	1.301834E-16	6.283602E-18
7.510000E+03	1.282997E-16	6.199331E-18
7.520000E+03	1.264688E-16	6.117506E-18
7.530000E+03	1.247036E-16	6.038761E-18
7.540000E+03	1.230126E-16	5.963511E-18
7.550000E+03	1.214067E-16	5.892296E-18
7.560000E+03	1.198890E-16	5.825277E-18
7.570000E+03	1.184614E-16	5.762565E-18
7.580000E+03	1.171277E-16	5.704353E-18
7.590000E+03	1.158902E-16	5.650771E-18
7.600000E+03	1.147494E-16	5.601853E-18
7.610000E+03	1.137097E-16	5.557836E-18
7.620000E+03	1.127741E-16	5.518880E-18
7.630000E+03	1.119453E-16	5.485125E-18
7.640000E+03	1.112276E-16	5.456807E-18
7.650000E+03	1.106271E-16	5.434240E-18
7.660000E+03	1.101473E-16	5.417617E-18
7.670000E+03	1.097942E-16	5.407251E-18
7.680000E+03	1.095706E-16	5.403301E-18
7.690000E+03	1.094810E-16	5.406014E-18
7.700000E+03	1.095247E-16	5.415388E-18
7.710000E+03	1.097057E-16	5.431633E-18
7.720000E+03	1.100229E-16	5.454726E-18
7.730000E+03	1.104723E-16	5.484500E-18
7.740000E+03	1.110492E-16	5.520744E-18
7.750000E+03	1.117484E-16	5.563225E-18
7.760000E+03	1.125596E-16	5.611454E-18
