#wls	flux	fluxerr
1.600000E+03	4.385421E-18	1.705563E-19
1.640000E+03	4.411529E-18	1.707505E-19
1.680000E+03	4.439270E-18	1.709788E-19
1.720000E+03	4.467852E-18	1.712094E-19
1.760000E+03	4.498012E-18	1.714690E-19
1.800000E+03	4.529717E-18	1.717549E-19
1.840000E+03	4.562928E-18	1.720638E-19
1.880000E+03	4.597603E-18	1.723925E-19
1.920000E+03	4.634462E-18	1.727662E-19
1.960000E+03	4.672679E-18	1.731520E-19
2.000000E+03	4.712963E-18	1.735742E-19
2.040000E+03	4.755243E-18	1.740281E-19
2.080000E+03	4.799438E-18	1.745083E-19
2.120000E+03	4.845455E-18	1.750092E-19
2.160000E+03	4.893190E-18	1.755249E-19
2.200000E+03	4.943308E-18	1.760767E-19
2.240000E+03	4.994895E-18	1.766295E-19
2.280000E+03	5.049369E-18	1.772310E-19
2.320000E+03	5.105782E-18	1.778447E-19
2.360000E+03	5.163949E-18	1.784618E-19
2.400000E+03	5.224447E-18	1.790993E-19
2.440000E+03	5.287043E-18	1.797464E-19
2.480000E+03	5.351477E-18	1.803913E-19
2.520000E+03	5.418245E-18	1.810478E-19
2.560000E+03	5.487020E-18	1.817021E-19
2.600000E+03	5.557446E-18	1.823393E-19
2.640000E+03	5.629124E-18	1.829439E-19
2.680000E+03	5.703169E-18	1.835494E-19
2.720000E+03	5.778317E-18	1.841123E-19
2.760000E+03	5.855577E-18	1.846622E-19
2.800000E+03	5.932839E-18	1.851302E-19
2.840000E+03	6.011019E-18	1.855434E-19
2.880000E+03	6.090226E-18	1.859034E-19
2.920000E+03	6.169037E-18	1.861654E-19
2.960000E+03	6.248294E-18	1.863541E-19
3.000000E+03	6.327376E-18	1.864501E-19
3.010000E+03	6.346897E-18	1.864530E-19
3.020000E+03	6.366596E-18	1.864557E-19
3.030000E+03	6.386465E-18	1.864578E-19
3.040000E+03	6.405776E-18	1.864382E-19
3.050000E+03	6.425969E-18	1.864387E-19
3.060000E+03	6.445598E-18	1.864173E-19
3.070000E+03	6.464665E-18	1.863742E-19
3.080000E+03	6.484605E-18	1.863508E-19
3.090000E+03	6.503983E-18	1.863057E-19
3.100000E+03	6.524232E-18	1.862800E-19
3.110000E+03	6.543928E-18	1.862329E-19
3.120000E+03	6.563086E-18	1.861650E-19
3.130000E+03	6.583126E-18	1.861167E-19
3.140000E+03	6.603349E-18	1.860679E-19
3.150000E+03	6.623070E-18	1.859993E-19
3.160000E+03	6.643005E-18	1.859312E-19
3.170000E+03	6.663866E-18	1.858834E-19
3.180000E+03	6.684285E-18	1.858176E-19
3.190000E+03	6.704983E-18	1.857538E-19
3.200000E+03	6.725986E-18	1.856927E-19
3.210000E+03	6.747327E-18	1.856351E-19
3.220000E+03	6.768359E-18	1.855633E-19
3.230000E+03	6.790490E-18	1.855157E-19
3.240000E+03	6.813078E-18	1.854746E-19
3.250000E+03	6.836173E-18	1.854412E-19
3.260000E+03	6.859160E-18	1.853988E-19
3.270000E+03	6.883442E-18	1.853851E-19
3.280000E+03	6.908413E-18	1.853835E-19
3.290000E+03	6.933478E-18	1.853780E-19
3.300000E+03	6.960044E-18	1.854060E-19
3.310000E+03	6.987529E-18	1.854516E-19
3.320000E+03	7.016023E-18	1.855169E-19
3.330000E+03	7.045621E-18	1.856042E-19
3.340000E+03	7.076425E-18	1.857159E-19
3.350000E+03	7.108547E-18	1.858544E-19
3.360000E+03	7.142099E-18	1.860223E-19
3.370000E+03	7.177207E-18	1.862225E-19
3.380000E+03	7.214643E-18	1.864746E-19
3.390000E+03	7.253252E-18	1.867480E-19
3.400000E+03	7.294466E-18	1.870792E-19
3.410000E+03	7.337788E-18	1.874546E-19
3.420000E+03	7.383372E-18	1.878777E-19
3.430000E+03	7.431379E-18	1.883517E-19
3.440000E+03	7.482614E-18	1.888964E-19
3.450000E+03	7.535965E-18	1.894828E-19
3.460000E+03	7.592889E-18	1.901467E-19
3.470000E+03	7.652921E-18	1.908756E-19
3.480000E+03	7.716243E-18	1.916729E-19
3.490000E+03	7.783678E-18	1.925581E-19
3.500000E+03	7.854772E-18	1.935188E-19
3.510000E+03	7.929710E-18	1.945584E-19
3.520000E+03	8.008682E-18	1.956804E-19
3.530000E+03	8.091873E-18	1.968881E-19
3.540000E+03	8.180118E-18	1.982004E-19
3.550000E+03	8.272966E-18	1.996050E-19
3.560000E+03	8.371260E-18	2.011208E-19
3.570000E+03	8.473907E-18	2.027199E-19
3.580000E+03	8.582424E-18	2.044371E-19
3.590000E+03	8.697054E-18	2.062766E-19
3.600000E+03	8.816747E-18	2.082117E-19
3.610000E+03	8.943111E-18	2.102786E-19
3.620000E+03	9.076473E-18	2.124830E-19
3.630000E+03	9.215837E-18	2.147996E-19
3.640000E+03	9.362900E-18	2.172660E-19
3.650000E+03	9.518042E-18	2.198887E-19
3.660000E+03	9.680962E-18	2.226583E-19
3.670000E+03	9.852039E-18	2.255811E-19
3.680000E+03	1.003166E-17	2.286634E-19
3.690000E+03	1.022090E-17	2.319274E-19
3.700000E+03	1.041947E-17	2.353631E-19
3.710000E+03	1.062850E-17	2.389932E-19
3.720000E+03	1.084764E-17	2.428071E-19
3.730000E+03	1.107730E-17	2.468106E-19
3.740000E+03	1.131864E-17	2.510262E-19
3.750000E+03	1.157130E-17	2.554427E-19
3.760000E+03	1.183567E-17	2.600651E-19
3.770000E+03	1.211296E-17	2.649161E-19
3.780000E+03	1.240274E-17	2.699833E-19
3.790000E+03	1.270624E-17	2.752888E-19
3.800000E+03	1.302219E-17	2.808017E-19
3.810000E+03	1.335346E-17	2.865795E-19
3.820000E+03	1.369791E-17	2.925722E-19
3.830000E+03	1.405755E-17	2.988189E-19
3.840000E+03	1.443189E-17	3.053042E-19
3.850000E+03	1.482208E-17	3.120487E-19
3.860000E+03	1.522757E-17	3.190358E-19
3.870000E+03	1.564858E-17	3.262661E-19
3.880000E+03	1.608533E-17	3.337393E-19
3.890000E+03	1.653897E-17	3.414748E-19
3.900000E+03	1.700871E-17	3.494519E-19
3.910000E+03	1.749466E-17	3.576679E-19
3.920000E+03	1.799688E-17	3.661196E-19
3.930000E+03	1.851642E-17	3.748240E-19
3.940000E+03	1.905227E-17	3.837559E-19
3.950000E+03	1.960433E-17	3.929089E-19
3.960000E+03	2.017251E-17	4.022767E-19
3.970000E+03	2.075660E-17	4.118512E-19
3.980000E+03	2.135755E-17	4.216468E-19
3.990000E+03	2.197281E-17	4.316092E-19
4.000000E+03	2.260439E-17	4.417740E-19
4.010000E+03	2.325078E-17	4.521078E-19
4.020000E+03	2.391034E-17	4.625754E-19
4.030000E+03	2.458510E-17	4.732129E-19
4.040000E+03	2.527338E-17	4.839845E-19
4.050000E+03	2.597336E-17	4.948526E-19
4.060000E+03	2.668715E-17	5.058545E-19
4.070000E+03	2.741153E-17	5.169272E-19
4.080000E+03	2.814728E-17	5.280831E-19
4.090000E+03	2.889386E-17	5.393099E-19
4.100000E+03	2.965069E-17	5.505954E-19
4.110000E+03	3.041573E-17	5.619003E-19
4.120000E+03	3.119137E-17	5.732673E-19
4.130000E+03	3.197407E-17	5.846304E-19
4.140000E+03	3.276323E-17	5.959785E-19
4.150000E+03	3.355981E-17	6.073287E-19
4.160000E+03	3.436328E-17	6.186708E-19
4.170000E+03	3.517152E-17	6.299673E-19
4.180000E+03	3.598557E-17	6.412371E-19
4.190000E+03	3.680326E-17	6.524422E-19
4.200000E+03	3.762401E-17	6.635733E-19
4.210000E+03	3.844892E-17	6.746511E-19
4.220000E+03	3.927571E-17	6.856370E-19
4.230000E+03	4.010548E-17	6.965518E-19
4.240000E+03	4.093404E-17	7.073249E-19
4.250000E+03	4.176414E-17	7.180066E-19
4.260000E+03	4.259324E-17	7.285551E-19
4.270000E+03	4.342042E-17	7.389581E-19
4.280000E+03	4.424471E-17	7.492023E-19
4.290000E+03	4.506500E-17	7.592727E-19
4.300000E+03	4.588017E-17	7.691542E-19
4.310000E+03	4.668894E-17	7.788300E-19
4.320000E+03	4.749003E-17	7.882833E-19
4.330000E+03	4.828018E-17	7.974657E-19
4.340000E+03	4.906011E-17	8.063943E-19
4.350000E+03	4.982873E-17	8.150576E-19
4.360000E+03	5.058537E-17	8.234502E-19
4.370000E+03	5.132779E-17	8.315425E-19
4.380000E+03	5.205641E-17	8.393476E-19
4.390000E+03	5.277595E-17	8.469480E-19
4.400000E+03	5.348015E-17	8.542494E-19
4.410000E+03	5.417226E-17	8.613104E-19
4.420000E+03	5.485157E-17	8.681259E-19
4.430000E+03	5.551378E-17	8.746347E-19
4.440000E+03	5.616349E-17	8.809162E-19
4.450000E+03	5.680155E-17	8.869897E-19
4.460000E+03	5.742474E-17	8.928117E-19
4.470000E+03	5.803632E-17	8.984392E-19
4.480000E+03	5.863962E-17	9.039295E-19
4.490000E+03	5.923360E-17	9.092721E-19
4.500000E+03	5.981713E-17	9.144553E-19
4.510000E+03	6.039543E-17	9.195640E-19
4.520000E+03	6.096487E-17	9.245472E-19
4.530000E+03	6.153038E-17	9.294823E-19
4.540000E+03	6.208794E-17	9.343112E-19
4.550000E+03	6.263989E-17	9.390719E-19
4.560000E+03	6.318619E-17	9.437662E-19
4.570000E+03	6.372436E-17	9.483594E-19
4.580000E+03	6.425833E-17	9.529126E-19
4.590000E+03	6.478296E-17	9.573517E-19
4.600000E+03	6.529731E-17	9.616654E-19
4.610000E+03	6.580243E-17	9.658722E-19
4.620000E+03	6.629696E-17	9.699545E-19
4.630000E+03	6.677709E-17	9.738590E-19
4.640000E+03	6.724327E-17	9.775956E-19
4.650000E+03	6.769135E-17	9.811069E-19
4.660000E+03	6.812159E-17	9.843996E-19
4.670000E+03	6.852971E-17	9.874154E-19
4.680000E+03	6.891608E-17	9.901629E-19
4.690000E+03	6.927687E-17	9.925904E-19
4.700000E+03	6.961322E-17	9.947179E-19
4.710000E+03	6.992028E-17	9.964792E-19
4.720000E+03	7.020284E-17	9.979462E-19
4.730000E+03	7.046111E-17	9.991244E-19
4.740000E+03	7.069263E-17	9.999819E-19
4.750000E+03	7.089753E-17	1.000523E-18
4.760000E+03	7.107671E-17	1.000764E-18
4.770000E+03	7.123398E-17	1.000759E-18
4.780000E+03	7.136913E-17	1.000508E-18
4.790000E+03	7.148445E-17	1.000045E-18
4.800000E+03	7.158233E-17	9.994034E-19
4.810000E+03	7.166743E-17	9.986503E-19
4.820000E+03	7.173986E-17	9.977876E-19
4.830000E+03	7.180185E-17	9.968465E-19
4.840000E+03	7.185546E-17	9.958563E-19
4.850000E+03	7.190485E-17	9.948741E-19
4.860000E+03	7.194952E-17	9.938932E-19
4.870000E+03	7.199105E-17	9.929348E-19
4.880000E+03	7.203083E-17	9.920178E-19
4.890000E+03	7.207227E-17	9.911871E-19
4.900000E+03	7.211210E-17	9.903958E-19
4.910000E+03	7.215562E-17	9.897142E-19
4.920000E+03	7.220143E-17	9.891211E-19
4.930000E+03	7.225232E-17	9.886524E-19
4.940000E+03	7.230450E-17	9.882540E-19
4.950000E+03	7.236268E-17	9.879882E-19
4.960000E+03	7.242499E-17	9.878271E-19
4.970000E+03	7.249375E-17	9.878003E-19
4.980000E+03	7.256479E-17	9.878487E-19
4.990000E+03	7.264239E-17	9.880285E-19
5.000000E+03	7.272437E-17	9.883080E-19
5.010000E+03	7.281270E-17	9.887122E-19
5.020000E+03	7.290300E-17	9.891791E-19
5.030000E+03	7.299929E-17	9.897619E-19
5.040000E+03	7.310134E-17	9.904552E-19
5.050000E+03	7.320466E-17	9.911963E-19
5.060000E+03	7.331320E-17	9.920374E-19
5.070000E+03	7.342461E-17	9.929444E-19
5.080000E+03	7.354075E-17	9.939411E-19
5.090000E+03	7.365927E-17	9.949938E-19
5.100000E+03	7.377997E-17	9.960985E-19
5.110000E+03	7.390479E-17	9.972797E-19
5.120000E+03	7.402938E-17	9.984770E-19
5.130000E+03	7.415994E-17	9.997728E-19
5.140000E+03	7.429012E-17	1.001080E-18
5.150000E+03	7.442619E-17	1.002482E-18
5.160000E+03	7.456187E-17	1.003892E-18
5.170000E+03	7.470145E-17	1.005367E-18
5.180000E+03	7.484290E-17	1.006879E-18
5.190000E+03	7.498849E-17	1.008456E-18
5.200000E+03	7.513627E-17	1.010071E-18
5.210000E+03	7.528858E-17	1.011756E-18
5.220000E+03	7.544355E-17	1.013482E-18
5.230000E+03	7.560144E-17	1.015253E-18
5.240000E+03	7.576464E-17	1.017100E-18
5.250000E+03	7.593349E-17	1.019027E-18
5.260000E+03	7.610618E-17	1.021008E-18
5.270000E+03	7.628519E-17	1.023075E-18
5.280000E+03	7.646870E-17	1.025203E-18
5.290000E+03	7.665708E-17	1.027397E-18
5.300000E+03	7.685272E-17	1.029687E-18
5.310000E+03	7.705592E-17	1.032078E-18
5.320000E+03	7.726480E-17	1.034542E-18
5.330000E+03	7.748162E-17	1.037110E-18
5.340000E+03	7.770435E-17	1.039753E-18
5.350000E+03	7.793508E-17	1.042500E-18
5.360000E+03	7.817364E-17	1.045347E-18
5.370000E+03	7.841752E-17	1.048260E-18
5.380000E+03	7.866614E-17	1.051232E-18
5.390000E+03	7.892307E-17	1.054309E-18
5.400000E+03	7.918292E-17	1.057418E-18
5.410000E+03	7.944433E-17	1.060543E-18
5.420000E+03	7.970998E-17	1.063716E-18
5.430000E+03	7.997355E-17	1.066854E-18
5.440000E+03	8.023273E-17	1.069924E-18
5.450000E+03	8.048940E-17	1.072951E-18
5.460000E+03	8.073644E-17	1.075839E-18
5.470000E+03	8.097110E-17	1.078551E-18
5.480000E+03	8.119528E-17	1.081110E-18
5.490000E+03	8.140254E-17	1.083432E-18
5.500000E+03	8.159406E-17	1.085531E-18
5.510000E+03	8.176994E-17	1.087409E-18
5.520000E+03	8.193122E-17	1.089078E-18
5.530000E+03	8.207719E-17	1.090529E-18
5.540000E+03	8.221190E-17	1.091817E-18
5.550000E+03	8.233717E-17	1.092964E-18
5.560000E+03	8.245476E-17	1.093993E-18
5.570000E+03	8.256631E-17	1.094928E-18
5.580000E+03	8.267100E-17	1.095756E-18
5.590000E+03	8.277463E-17	1.096554E-18
5.600000E+03	8.287376E-17	1.097277E-18
5.610000E+03	8.297159E-17	1.097968E-18
5.620000E+03	8.306893E-17	1.098636E-18
5.630000E+03	8.316877E-17	1.099321E-18
5.640000E+03	8.326718E-17	1.099973E-18
5.650000E+03	8.336701E-17	1.100628E-18
5.660000E+03	8.346879E-17	1.101293E-18
5.670000E+03	8.357302E-17	1.101977E-18
5.680000E+03	8.368023E-17	1.102684E-18
5.690000E+03	8.379089E-17	1.103424E-18
5.700000E+03	8.390547E-17	1.104201E-18
5.710000E+03	8.402445E-17	1.105023E-18
5.720000E+03	8.415056E-17	1.105926E-18
5.730000E+03	8.427957E-17	1.106855E-18
5.740000E+03	8.441644E-17	1.107876E-18
5.750000E+03	8.455678E-17	1.108931E-18
5.760000E+03	8.470535E-17	1.110085E-18
5.770000E+03	8.485987E-17	1.111307E-18
5.780000E+03	8.502023E-17	1.112596E-18
5.790000E+03	8.518613E-17	1.113951E-18
5.800000E+03	8.535946E-17	1.115396E-18
5.810000E+03	8.553725E-17	1.116895E-18
5.820000E+03	8.571868E-17	1.118436E-18
5.830000E+03	8.590272E-17	1.120008E-18
5.840000E+03	8.608817E-17	1.121596E-18
5.850000E+03	8.627598E-17	1.123215E-18
5.860000E+03	8.646228E-17	1.124815E-18
5.870000E+03	8.664533E-17	1.126375E-18
5.880000E+03	8.682570E-17	1.127905E-18
5.890000E+03	8.699909E-17	1.129350E-18
5.900000E+03	8.716353E-17	1.130687E-18
5.910000E+03	8.731942E-17	1.131923E-18
5.920000E+03	8.746239E-17	1.133004E-18
5.930000E+03	8.759047E-17	1.133906E-18
5.940000E+03	8.770423E-17	1.134638E-18
5.950000E+03	8.779951E-17	1.135151E-18
5.960000E+03	8.787719E-17	1.135456E-18
5.970000E+03	8.793341E-17	1.135508E-18
5.980000E+03	8.796696E-17	1.135293E-18
5.990000E+03	8.797928E-17	1.134833E-18
6.000000E+03	8.796714E-17	1.134087E-18
6.010000E+03	8.793244E-17	1.133085E-18
6.020000E+03	8.787237E-17	1.131790E-18
6.030000E+03	8.778919E-17	1.130237E-18
6.040000E+03	8.768046E-17	1.128395E-18
6.050000E+03	8.754877E-17	1.126301E-18
6.060000E+03	8.739192E-17	1.123929E-18
6.070000E+03	8.721269E-17	1.121316E-18
6.080000E+03	8.700900E-17	1.118439E-18
6.090000E+03	8.678373E-17	1.115337E-18
6.100000E+03	8.653487E-17	1.111985E-18
6.110000E+03	8.626526E-17	1.108423E-18
6.120000E+03	8.597540E-17	1.104658E-18
6.130000E+03	8.566342E-17	1.100669E-18
6.140000E+03	8.533000E-17	1.096466E-18
6.150000E+03	8.498088E-17	1.092124E-18
6.160000E+03	8.461021E-17	1.087569E-18
6.170000E+03	8.422709E-17	1.082920E-18
6.180000E+03	8.382946E-17	1.078152E-18
6.190000E+03	8.342258E-17	1.073332E-18
6.200000E+03	8.300583E-17	1.068454E-18
6.210000E+03	8.258175E-17	1.063550E-18
6.220000E+03	8.215031E-17	1.058616E-18
6.230000E+03	8.170980E-17	1.053627E-18
6.240000E+03	8.126384E-17	1.048625E-18
6.250000E+03	8.081403E-17	1.043628E-18
6.260000E+03	8.035991E-17	1.038627E-18
6.270000E+03	7.990560E-17	1.033671E-18
6.280000E+03	7.945288E-17	1.028781E-18
6.290000E+03	7.900341E-17	1.023974E-18
6.300000E+03	7.855642E-17	1.019239E-18
6.310000E+03	7.811545E-17	1.014618E-18
6.320000E+03	7.768164E-17	1.010123E-18
6.330000E+03	7.725370E-17	1.005735E-18
6.340000E+03	7.683680E-17	1.001519E-18
6.350000E+03	7.642715E-17	9.974226E-19
6.360000E+03	7.602737E-17	9.934785E-19
6.370000E+03	7.563783E-17	9.896893E-19
6.380000E+03	7.525872E-17	9.860554E-19
6.390000E+03	7.488802E-17	9.825487E-19
6.400000E+03	7.452797E-17	9.791964E-19
6.410000E+03	7.418067E-17	9.760247E-19
6.420000E+03	7.384175E-17	9.729745E-19
6.430000E+03	7.351323E-17	9.700708E-19
6.440000E+03	7.319493E-17	9.673097E-19
6.450000E+03	7.288661E-17	9.646868E-19
6.460000E+03	7.258590E-17	9.621695E-19
6.470000E+03	7.229673E-17	9.598084E-19
6.480000E+03	7.201665E-17	9.575701E-19
6.490000E+03	7.174318E-17	9.554204E-19
6.500000E+03	7.148017E-17	9.534091E-19
6.510000E+03	7.122508E-17	9.515018E-19
6.520000E+03	7.097538E-17	9.496636E-19
6.530000E+03	7.073480E-17	9.479433E-19
6.540000E+03	7.050079E-17	9.463061E-19
6.550000E+03	7.027081E-17	9.447166E-19
6.560000E+03	7.004853E-17	9.432237E-19
6.570000E+03	6.983142E-17	9.417921E-19
6.580000E+03	6.961900E-17	9.404151E-19
6.590000E+03	6.941083E-17	9.390855E-19
6.600000E+03	6.920650E-17	9.377973E-19
6.610000E+03	6.900764E-17	9.365719E-19
6.620000E+03	6.880980E-17	9.353483E-19
6.630000E+03	6.861473E-17	9.341494E-19
6.640000E+03	6.842418E-17	9.329986E-19
6.650000E+03	6.823589E-17	9.318648E-19
6.660000E+03	6.804971E-17	9.307450E-19
6.670000E+03	6.786556E-17	9.296380E-19
6.680000E+03	6.768546E-17	9.285709E-19
6.690000E+03	6.750543E-17	9.274887E-19
6.700000E+03	6.732966E-17	9.264489E-19
6.710000E+03	6.715639E-17	9.254269E-19
6.720000E+03	6.698797E-17	9.244550E-19
6.730000E+03	6.682079E-17	9.234833E-19
6.740000E+03	6.665943E-17	9.225751E-19
6.750000E+03	6.650250E-17	9.217111E-19
6.760000E+03	6.635070E-17	9.209013E-19
6.770000E+03	6.620687E-17	9.201853E-19
6.780000E+03	6.606988E-17	9.195478E-19
6.790000E+03	6.594070E-17	9.190027E-19
6.800000E+03	6.582036E-17	9.185647E-19
6.810000E+03	6.571195E-17	9.182780E-19
6.820000E+03	6.561462E-17	9.181309E-19
6.830000E+03	6.553152E-17	9.181688E-19
6.840000E+03	6.545985E-17	9.183530E-19
6.850000E+03	6.540476E-17	9.187572E-19
6.860000E+03	6.536546E-17	9.193709E-19
6.870000E+03	6.534506E-17	9.202394E-19
6.880000E+03	6.534264E-17	9.213512E-19
6.890000E+03	6.535926E-17	9.227222E-19
6.900000E+03	6.539584E-17	9.243671E-19
6.910000E+03	6.545524E-17	9.263278E-19
6.920000E+03	6.553620E-17	9.285881E-19
6.930000E+03	6.564134E-17	9.311868E-19
6.940000E+03	6.576706E-17	9.340748E-19
6.950000E+03	6.591778E-17	9.373164E-19
6.960000E+03	6.609365E-17	9.409158E-19
6.970000E+03	6.629061E-17	9.448169E-19
6.980000E+03	6.651256E-17	9.490775E-19
6.990000E+03	6.675710E-17	9.536652E-19
7.000000E+03	6.702581E-17	9.586047E-19
7.010000E+03	6.731383E-17	9.638283E-19
7.020000E+03	6.762445E-17	9.693853E-19
7.030000E+03	6.795457E-17	9.752336E-19
7.040000E+03	6.830513E-17	9.813884E-19
7.050000E+03	6.867268E-17	9.878026E-19
7.060000E+03	6.905359E-17	9.944259E-19
7.070000E+03	6.945276E-17	1.001331E-18
7.080000E+03	6.986200E-17	1.008402E-18
7.090000E+03	7.028170E-17	1.015647E-18
7.100000E+03	7.071223E-17	1.023073E-18
7.110000E+03	7.114947E-17	1.030622E-18
7.120000E+03	7.159150E-17	1.038270E-18
7.130000E+03	7.203636E-17	1.045989E-18
7.140000E+03	7.248439E-17	1.053787E-18
7.150000E+03	7.292908E-17	1.061571E-18
7.160000E+03	7.337313E-17	1.069382E-18
7.170000E+03	7.381005E-17	1.077128E-18
7.180000E+03	7.424273E-17	1.084853E-18
7.190000E+03	7.466713E-17	1.092500E-18
7.200000E+03	7.508160E-17	1.100046E-18
7.210000E+03	7.548463E-17	1.107472E-18
7.220000E+03	7.587477E-17	1.114759E-18
7.230000E+03	7.625072E-17	1.121887E-18
7.240000E+03	7.661123E-17	1.128843E-18
7.250000E+03	7.695524E-17	1.135610E-18
7.260000E+03	7.728174E-17	1.142176E-18
7.270000E+03	7.758988E-17	1.148531E-18
7.280000E+03	7.787642E-17	1.154627E-18
7.290000E+03	7.814567E-17	1.160530E-18
7.300000E+03	7.839463E-17	1.166197E-18
7.310000E+03	7.862030E-17	1.171585E-18
7.320000E+03	7.882739E-17	1.176765E-18
7.330000E+03	7.901055E-17	1.181659E-18
7.340000E+03	7.917208E-17	1.186302E-18
7.350000E+03	7.931176E-17	1.190693E-18
7.360000E+03	7.942946E-17	1.194829E-18
7.370000E+03	7.952500E-17	1.198709E-18
7.380000E+03	7.959560E-17	1.202293E-18
7.390000E+03	7.964362E-17	1.205615E-18
7.400000E+03	7.966876E-17	1.208673E-18
7.410000E+03	7.967067E-17	1.211461E-18
7.420000E+03	7.964630E-17	1.213933E-18
7.430000E+03	7.959773E-17	1.216121E-18
7.440000E+03	7.952439E-17	1.218015E-18
7.450000E+03	7.942310E-17	1.219567E-18
7.460000E+03	7.929843E-17	1.220845E-18
7.470000E+03	7.914219E-17	1.221722E-18
7.480000E+03	7.896189E-17	1.222314E-18
7.490000E+03	7.875255E-17	1.222540E-18
7.500000E+03	7.851746E-17	1.222450E-18
7.510000E+03	7.825520E-17	1.222021E-18
7.520000E+03	7.796947E-17	1.221308E-18
7.530000E+03	7.765867E-17	1.220282E-18
7.540000E+03	7.732663E-17	1.219003E-18
7.550000E+03	7.697507E-17	1.217494E-18
7.560000E+03	7.660353E-17	1.215747E-18
7.570000E+03	7.621673E-17	1.213832E-18
7.580000E+03	7.581431E-17	1.211739E-18
7.590000E+03	7.540086E-17	1.209535E-18
7.600000E+03	7.497566E-17	1.207204E-18
7.610000E+03	7.454035E-17	1.204764E-18
7.620000E+03	7.410120E-17	1.202314E-18
7.630000E+03	7.365183E-17	1.199744E-18
7.640000E+03	7.319798E-17	1.197143E-18
7.650000E+03	7.274017E-17	1.194515E-18
7.660000E+03	7.227626E-17	1.191820E-18
7.670000E+03	7.180880E-17	1.189094E-18
7.680000E+03	7.133294E-17	1.186255E-18
7.690000E+03	7.085570E-17	1.183412E-18
7.700000E+03	7.037200E-17	1.180476E-18
7.710000E+03	6.988147E-17	1.177438E-18
7.720000E+03	6.938372E-17	1.174285E-18
7.730000E+03	6.888063E-17	1.171043E-18
7.740000E+03	6.836941E-17	1.167661E-18
7.750000E+03	6.785194E-17	1.164165E-18
7.760000E+03	6.732547E-17	1.160503E-18
