#wls	flux	fluxerr
1.600000E+03	3.501708E-18	1.862380E-19
1.640000E+03	3.516690E-18	1.860642E-19
1.680000E+03	3.531479E-18	1.858494E-19
1.720000E+03	3.547253E-18	1.856546E-19
1.760000E+03	3.563363E-18	1.854445E-19
1.800000E+03	3.580367E-18	1.852472E-19
1.840000E+03	3.597610E-18	1.850271E-19
1.880000E+03	3.615031E-18	1.847805E-19
1.920000E+03	3.633180E-18	1.845342E-19
1.960000E+03	3.651990E-18	1.842835E-19
2.000000E+03	3.670776E-18	1.839924E-19
2.040000E+03	3.690068E-18	1.836868E-19
2.080000E+03	3.710386E-18	1.833910E-19
2.120000E+03	3.730418E-18	1.830386E-19
2.160000E+03	3.750672E-18	1.826540E-19
2.200000E+03	3.771641E-18	1.822599E-19
2.240000E+03	3.792597E-18	1.818198E-19
2.280000E+03	3.813416E-18	1.813271E-19
2.320000E+03	3.834562E-18	1.808028E-19
2.360000E+03	3.855287E-18	1.802109E-19
2.400000E+03	3.876037E-18	1.795718E-19
2.440000E+03	3.896646E-18	1.788771E-19
2.480000E+03	3.916942E-18	1.781184E-19
2.520000E+03	3.936747E-18	1.772873E-19
2.560000E+03	3.956468E-18	1.764020E-19
2.600000E+03	3.974742E-18	1.754018E-19
2.640000E+03	3.993143E-18	1.743568E-19
2.680000E+03	4.009745E-18	1.731830E-19
2.720000E+03	4.026122E-18	1.719499E-19
2.760000E+03	4.041543E-18	1.706263E-19
2.800000E+03	4.055330E-18	1.691851E-19
2.840000E+03	4.068544E-18	1.676721E-19
2.880000E+03	4.081161E-18	1.660872E-19
2.920000E+03	4.092153E-18	1.643897E-19
2.960000E+03	4.103345E-18	1.626546E-19
3.000000E+03	4.113965E-18	1.608514E-19
3.010000E+03	4.116786E-18	1.604000E-19
3.020000E+03	4.119478E-18	1.599408E-19
3.030000E+03	4.122053E-18	1.594742E-19
3.040000E+03	4.125052E-18	1.590212E-19
3.050000E+03	4.127958E-18	1.585617E-19
3.060000E+03	4.131310E-18	1.581164E-19
3.070000E+03	4.134075E-18	1.576458E-19
3.080000E+03	4.137317E-18	1.571905E-19
3.090000E+03	4.141050E-18	1.567508E-19
3.100000E+03	4.144254E-18	1.562881E-19
3.110000E+03	4.147986E-18	1.558424E-19
3.120000E+03	4.152265E-18	1.554140E-19
3.130000E+03	4.156085E-18	1.549653E-19
3.140000E+03	4.160497E-18	1.545355E-19
3.150000E+03	4.165525E-18	1.541253E-19
3.160000E+03	4.170686E-18	1.537165E-19
3.170000E+03	4.176009E-18	1.533103E-19
3.180000E+03	4.181528E-18	1.529077E-19
3.190000E+03	4.187780E-18	1.525283E-19
3.200000E+03	4.194295E-18	1.521547E-19
3.210000E+03	4.201111E-18	1.517882E-19
3.220000E+03	4.208768E-18	1.514480E-19
3.230000E+03	4.216807E-18	1.511174E-19
3.240000E+03	4.225769E-18	1.508155E-19
3.250000E+03	4.234707E-18	1.505082E-19
3.260000E+03	4.245156E-18	1.502500E-19
3.270000E+03	4.255682E-18	1.499895E-19
3.280000E+03	4.267328E-18	1.497633E-19
3.290000E+03	4.279657E-18	1.495558E-19
3.300000E+03	4.293220E-18	1.493856E-19
3.310000E+03	4.307585E-18	1.492375E-19
3.320000E+03	4.322821E-18	1.491133E-19
3.330000E+03	4.339486E-18	1.490318E-19
3.340000E+03	4.357160E-18	1.489780E-19
3.350000E+03	4.375920E-18	1.489542E-19
3.360000E+03	4.396334E-18	1.489789E-19
3.370000E+03	4.417995E-18	1.490379E-19
3.380000E+03	4.441479E-18	1.491497E-19
3.390000E+03	4.466386E-18	1.493004E-19
3.400000E+03	4.492812E-18	1.494922E-19
3.410000E+03	4.521347E-18	1.497442E-19
3.420000E+03	4.551602E-18	1.500425E-19
3.430000E+03	4.583687E-18	1.503899E-19
3.440000E+03	4.618208E-18	1.508053E-19
3.450000E+03	4.654789E-18	1.512755E-19
3.460000E+03	4.693555E-18	1.518034E-19
3.470000E+03	4.735134E-18	1.524082E-19
3.480000E+03	4.779665E-18	1.530932E-19
3.490000E+03	4.826284E-18	1.538294E-19
3.500000E+03	4.876148E-18	1.546524E-19
3.510000E+03	4.928903E-18	1.555496E-19
3.520000E+03	4.985225E-18	1.565409E-19
3.530000E+03	5.044770E-18	1.576137E-19
3.540000E+03	5.108233E-18	1.587882E-19
3.550000E+03	5.174751E-18	1.600358E-19
3.560000E+03	5.246089E-18	1.614094E-19
3.570000E+03	5.320858E-18	1.628642E-19
3.580000E+03	5.400323E-18	1.644371E-19
3.590000E+03	5.484155E-18	1.661157E-19
3.600000E+03	5.573103E-18	1.679208E-19
3.610000E+03	5.666822E-18	1.698393E-19
3.620000E+03	5.765507E-18	1.718750E-19
3.630000E+03	5.869929E-18	1.740483E-19
3.640000E+03	5.979734E-18	1.763459E-19
3.650000E+03	6.095127E-18	1.787714E-19
3.660000E+03	6.216924E-18	1.813459E-19
3.670000E+03	6.344762E-18	1.840558E-19
3.680000E+03	6.478866E-18	1.869047E-19
3.690000E+03	6.620099E-18	1.899143E-19
3.700000E+03	6.768091E-18	1.930706E-19
3.710000E+03	6.923088E-18	1.963774E-19
3.720000E+03	7.086009E-18	1.998572E-19
3.730000E+03	7.256475E-18	2.034957E-19
3.740000E+03	7.434755E-18	2.072967E-19
3.750000E+03	7.621826E-18	2.112836E-19
3.760000E+03	7.817295E-18	2.154413E-19
3.770000E+03	8.021450E-18	2.197737E-19
3.780000E+03	8.234584E-18	2.242848E-19
3.790000E+03	8.457760E-18	2.289990E-19
3.800000E+03	8.691333E-18	2.339212E-19
3.810000E+03	8.934062E-18	2.390132E-19
3.820000E+03	9.187845E-18	2.443212E-19
3.830000E+03	9.452215E-18	2.498277E-19
3.840000E+03	9.727487E-18	2.555360E-19
3.850000E+03	1.001486E-17	2.614723E-19
3.860000E+03	1.031291E-17	2.675943E-19
3.870000E+03	1.062374E-17	2.739510E-19
3.880000E+03	1.094772E-17	2.805462E-19
3.890000E+03	1.128332E-17	2.873347E-19
3.900000E+03	1.163273E-17	2.943672E-19
3.910000E+03	1.199534E-17	3.016214E-19
3.920000E+03	1.237144E-17	3.090989E-19
3.930000E+03	1.276238E-17	3.168275E-19
3.940000E+03	1.316745E-17	3.247825E-19
3.950000E+03	1.358688E-17	3.329639E-19
3.960000E+03	1.402097E-17	3.413724E-19
3.970000E+03	1.446994E-17	3.500074E-19
3.980000E+03	1.493403E-17	3.588678E-19
3.990000E+03	1.541472E-17	3.679828E-19
4.000000E+03	1.591101E-17	3.773219E-19
4.010000E+03	1.642308E-17	3.868825E-19
4.020000E+03	1.695109E-17	3.966623E-19
4.030000E+03	1.749518E-17	4.066579E-19
4.040000E+03	1.805691E-17	4.168989E-19
4.050000E+03	1.863352E-17	4.273156E-19
4.060000E+03	1.922800E-17	4.379697E-19
4.070000E+03	1.983893E-17	4.488230E-19
4.080000E+03	2.046632E-17	4.598694E-19
4.090000E+03	2.111015E-17	4.711026E-19
4.100000E+03	2.177034E-17	4.825152E-19
4.110000E+03	2.244679E-17	4.940996E-19
4.120000E+03	2.313935E-17	5.058470E-19
4.130000E+03	2.384964E-17	5.177877E-19
4.140000E+03	2.457383E-17	5.298336E-19
4.150000E+03	2.531340E-17	5.420125E-19
4.160000E+03	2.606996E-17	5.543547E-19
4.170000E+03	2.683920E-17	5.667648E-19
4.180000E+03	2.762464E-17	5.793135E-19
4.190000E+03	2.842163E-17	5.919007E-19
4.200000E+03	2.923156E-17	6.045534E-19
4.210000E+03	3.005592E-17	6.173001E-19
4.220000E+03	3.088953E-17	6.300330E-19
4.230000E+03	3.173594E-17	6.428242E-19
4.240000E+03	3.258958E-17	6.555604E-19
4.250000E+03	3.345158E-17	6.682659E-19
4.260000E+03	3.432070E-17	6.809170E-19
4.270000E+03	3.519558E-17	6.934889E-19
4.280000E+03	3.607471E-17	7.059551E-19
4.290000E+03	3.695646E-17	7.182876E-19
4.300000E+03	3.783910E-17	7.304573E-19
4.310000E+03	3.872072E-17	7.424330E-19
4.320000E+03	3.959655E-17	7.541305E-19
4.330000E+03	4.047001E-17	7.656226E-19
4.340000E+03	4.133332E-17	7.767709E-19
4.350000E+03	4.218709E-17	7.875966E-19
4.360000E+03	4.302914E-17	7.980699E-19
4.370000E+03	4.385746E-17	8.081649E-19
4.380000E+03	4.467017E-17	8.178590E-19
4.390000E+03	4.546262E-17	8.270802E-19
4.400000E+03	4.623657E-17	8.358749E-19
4.410000E+03	4.699113E-17	8.442405E-19
4.420000E+03	4.772576E-17	8.521814E-19
4.430000E+03	4.843701E-17	8.596505E-19
4.440000E+03	4.913138E-17	8.667772E-19
4.450000E+03	4.980256E-17	8.734640E-19
4.460000E+03	5.045084E-17	8.797306E-19
4.470000E+03	5.108333E-17	8.857149E-19
4.480000E+03	5.169385E-17	8.913226E-19
4.490000E+03	5.228628E-17	8.966337E-19
4.500000E+03	5.286113E-17	9.016699E-19
4.510000E+03	5.341543E-17	9.063930E-19
4.520000E+03	5.395303E-17	9.108809E-19
4.530000E+03	5.447430E-17	9.151503E-19
4.540000E+03	5.497600E-17	9.191547E-19
4.550000E+03	5.546183E-17	9.229639E-19
4.560000E+03	5.593187E-17	9.265858E-19
4.570000E+03	5.638254E-17	9.299679E-19
4.580000E+03	5.681725E-17	9.331730E-19
4.590000E+03	5.723213E-17	9.361437E-19
4.600000E+03	5.763039E-17	9.389384E-19
4.610000E+03	5.801153E-17	9.415545E-19
4.620000E+03	5.837130E-17	9.439281E-19
4.630000E+03	5.871259E-17	9.461112E-19
4.640000E+03	5.903459E-17	9.480955E-19
4.650000E+03	5.933270E-17	9.498117E-19
4.660000E+03	5.960965E-17	9.513080E-19
4.670000E+03	5.986077E-17	9.525141E-19
4.680000E+03	6.008880E-17	9.534778E-19
4.690000E+03	6.028919E-17	9.541304E-19
4.700000E+03	6.046497E-17	9.545234E-19
4.710000E+03	6.061571E-17	9.546529E-19
4.720000E+03	6.073772E-17	9.544634E-19
4.730000E+03	6.083139E-17	9.539635E-19
4.740000E+03	6.090489E-17	9.532830E-19
4.750000E+03	6.094851E-17	9.522713E-19
4.760000E+03	6.097116E-17	9.510687E-19
4.770000E+03	6.097467E-17	9.497042E-19
4.780000E+03	6.095739E-17	9.481519E-19
4.790000E+03	6.092501E-17	9.465001E-19
4.800000E+03	6.087600E-17	9.447243E-19
4.810000E+03	6.081607E-17	9.429121E-19
4.820000E+03	6.074364E-17	9.410378E-19
4.830000E+03	6.066427E-17	9.391859E-19
4.840000E+03	6.057626E-17	9.373285E-19
4.850000E+03	6.048493E-17	9.355463E-19
4.860000E+03	6.038842E-17	9.338083E-19
4.870000E+03	6.029182E-17	9.321917E-19
4.880000E+03	6.019308E-17	9.306625E-19
4.890000E+03	6.009359E-17	9.292384E-19
4.900000E+03	5.999811E-17	9.279885E-19
4.910000E+03	5.990780E-17	9.269256E-19
4.920000E+03	5.982028E-17	9.260085E-19
4.930000E+03	5.973997E-17	9.253012E-19
4.940000E+03	5.966434E-17	9.247598E-19
4.950000E+03	5.959422E-17	9.243932E-19
4.960000E+03	5.953375E-17	9.242614E-19
4.970000E+03	5.948018E-17	9.243175E-19
4.980000E+03	5.943752E-17	9.246203E-19
4.990000E+03	5.940625E-17	9.251738E-19
5.000000E+03	5.938014E-17	9.258772E-19
5.010000E+03	5.936968E-17	9.268909E-19
5.020000E+03	5.936519E-17	9.280609E-19
5.030000E+03	5.937369E-17	9.294936E-19
5.040000E+03	5.939547E-17	9.311909E-19
5.050000E+03	5.942745E-17	9.331019E-19
5.060000E+03	5.947316E-17	9.352798E-19
5.070000E+03	5.952949E-17	9.376729E-19
5.080000E+03	5.959660E-17	9.402818E-19
5.090000E+03	5.967793E-17	9.431586E-19
5.100000E+03	5.977032E-17	9.462512E-19
5.110000E+03	5.987715E-17	9.496116E-19
5.120000E+03	5.999850E-17	9.532395E-19
5.130000E+03	6.013114E-17	9.570819E-19
5.140000E+03	6.027506E-17	9.611372E-19
5.150000E+03	6.043365E-17	9.654579E-19
5.160000E+03	6.060355E-17	9.699890E-19
5.170000E+03	6.078472E-17	9.747289E-19
5.180000E+03	6.098380E-17	9.797826E-19
5.190000E+03	6.119070E-17	9.849873E-19
5.200000E+03	6.141197E-17	9.904473E-19
5.210000E+03	6.164748E-17	9.961597E-19
5.220000E+03	6.189371E-17	1.002067E-18
5.230000E+03	6.215375E-17	1.008218E-18
5.240000E+03	6.242398E-17	1.014553E-18
5.250000E+03	6.270403E-17	1.021066E-18
5.260000E+03	6.299689E-17	1.027805E-18
5.270000E+03	6.330211E-17	1.034761E-18
5.280000E+03	6.361570E-17	1.041869E-18
5.290000E+03	6.393700E-17	1.049117E-18
5.300000E+03	6.426870E-17	1.056549E-18
5.310000E+03	6.460999E-17	1.064150E-18
5.320000E+03	6.495641E-17	1.071847E-18
5.330000E+03	6.530682E-17	1.079619E-18
5.340000E+03	6.566353E-17	1.087505E-18
5.350000E+03	6.602518E-17	1.095480E-18
5.360000E+03	6.638669E-17	1.103460E-18
5.370000E+03	6.674995E-17	1.111475E-18
5.380000E+03	6.710954E-17	1.119434E-18
5.390000E+03	6.746708E-17	1.127361E-18
5.400000E+03	6.781680E-17	1.135161E-18
5.410000E+03	6.815639E-17	1.142791E-18
5.420000E+03	6.849079E-17	1.150334E-18
5.430000E+03	6.881013E-17	1.157620E-18
5.440000E+03	6.911185E-17	1.164604E-18
5.450000E+03	6.939703E-17	1.171302E-18
5.460000E+03	6.965945E-17	1.177605E-18
5.470000E+03	6.990044E-17	1.183533E-18
5.480000E+03	7.011794E-17	1.189048E-18
5.490000E+03	7.030667E-17	1.194056E-18
5.500000E+03	7.046964E-17	1.198607E-18
5.510000E+03	7.060336E-17	1.202638E-18
5.520000E+03	7.071259E-17	1.206227E-18
5.530000E+03	7.079513E-17	1.209333E-18
5.540000E+03	7.085659E-17	1.212051E-18
5.550000E+03	7.089905E-17	1.214414E-18
5.560000E+03	7.092087E-17	1.216392E-18
5.570000E+03	7.092801E-17	1.218086E-18
5.580000E+03	7.091891E-17	1.219467E-18
5.590000E+03	7.089946E-17	1.220636E-18
5.600000E+03	7.087175E-17	1.221629E-18
5.610000E+03	7.083400E-17	1.222413E-18
5.620000E+03	7.079182E-17	1.223086E-18
5.630000E+03	7.074326E-17	1.223614E-18
5.640000E+03	7.069369E-17	1.224090E-18
5.650000E+03	7.064463E-17	1.224540E-18
5.660000E+03	7.059373E-17	1.224924E-18
5.670000E+03	7.054600E-17	1.225330E-18
5.680000E+03	7.050260E-17	1.225778E-18
5.690000E+03	7.046079E-17	1.226222E-18
5.700000E+03	7.042526E-17	1.226743E-18
5.710000E+03	7.039678E-17	1.227358E-18
5.720000E+03	7.037232E-17	1.228013E-18
5.730000E+03	7.035620E-17	1.228786E-18
5.740000E+03	7.034518E-17	1.229621E-18
5.750000E+03	7.034709E-17	1.230657E-18
5.760000E+03	7.035105E-17	1.231704E-18
5.770000E+03	7.036846E-17	1.232964E-18
5.780000E+03	7.039195E-17	1.234308E-18
5.790000E+03	7.042529E-17	1.235805E-18
5.800000E+03	7.046843E-17	1.237456E-18
5.810000E+03	7.051749E-17	1.239194E-18
5.820000E+03	7.057600E-17	1.241083E-18
5.830000E+03	7.064367E-17	1.243119E-18
5.840000E+03	7.071643E-17	1.245232E-18
5.850000E+03	7.079757E-17	1.247484E-18
5.860000E+03	7.088661E-17	1.249866E-18
5.870000E+03	7.098300E-17	1.252371E-18
5.880000E+03	7.108237E-17	1.254925E-18
5.890000E+03	7.118782E-17	1.257583E-18
5.900000E+03	7.129862E-17	1.260336E-18
5.910000E+03	7.141400E-17	1.263171E-18
5.920000E+03	7.152935E-17	1.266010E-18
5.930000E+03	7.164759E-17	1.268906E-18
5.940000E+03	7.176779E-17	1.271845E-18
5.950000E+03	7.188519E-17	1.274745E-18
5.960000E+03	7.200257E-17	1.277657E-18
5.970000E+03	7.211888E-17	1.280565E-18
5.980000E+03	7.223304E-17	1.283452E-18
5.990000E+03	7.234386E-17	1.286301E-18
6.000000E+03	7.244631E-17	1.289022E-18
6.010000E+03	7.254296E-17	1.291665E-18
6.020000E+03	7.263249E-17	1.294209E-18
6.030000E+03	7.271351E-17	1.296631E-18
6.040000E+03	7.278069E-17	1.298837E-18
6.050000E+03	7.284024E-17	1.300942E-18
6.060000E+03	7.288280E-17	1.302781E-18
6.070000E+03	7.291054E-17	1.304393E-18
6.080000E+03	7.291781E-17	1.305681E-18
6.090000E+03	7.291051E-17	1.306751E-18
6.100000E+03	7.287893E-17	1.307431E-18
6.110000E+03	7.282498E-17	1.307758E-18
6.120000E+03	7.274663E-17	1.307695E-18
6.130000E+03	7.264184E-17	1.307207E-18
6.140000E+03	7.250866E-17	1.306261E-18
6.150000E+03	7.234138E-17	1.304754E-18
6.160000E+03	7.214612E-17	1.302796E-18
6.170000E+03	7.191387E-17	1.300225E-18
6.180000E+03	7.164774E-17	1.297097E-18
6.190000E+03	7.134756E-17	1.293408E-18
6.200000E+03	7.101026E-17	1.289099E-18
6.210000E+03	7.064498E-17	1.284331E-18
6.220000E+03	7.024636E-17	1.279000E-18
6.230000E+03	6.982462E-17	1.273287E-18
6.240000E+03	6.937521E-17	1.267104E-18
6.250000E+03	6.890499E-17	1.260570E-18
6.260000E+03	6.841708E-17	1.253738E-18
6.270000E+03	6.791086E-17	1.246592E-18
6.280000E+03	6.739663E-17	1.239315E-18
6.290000E+03	6.687346E-17	1.231888E-18
6.300000E+03	6.634037E-17	1.224287E-18
6.310000E+03	6.580337E-17	1.216620E-18
6.320000E+03	6.526464E-17	1.208924E-18
6.330000E+03	6.472967E-17	1.201297E-18
6.340000E+03	6.418973E-17	1.193575E-18
6.350000E+03	6.365693E-17	1.185981E-18
6.360000E+03	6.312916E-17	1.178473E-18
6.370000E+03	6.260769E-17	1.171072E-18
6.380000E+03	6.209362E-17	1.163798E-18
6.390000E+03	6.158455E-17	1.156604E-18
6.400000E+03	6.108803E-17	1.149630E-18
6.410000E+03	6.059810E-17	1.142763E-18
6.420000E+03	6.011868E-17	1.136077E-18
6.430000E+03	5.965030E-17	1.129579E-18
6.440000E+03	5.919657E-17	1.123339E-18
6.450000E+03	5.875136E-17	1.117239E-18
6.460000E+03	5.831819E-17	1.111346E-18
6.470000E+03	5.789725E-17	1.105664E-18
6.480000E+03	5.748868E-17	1.100194E-18
6.490000E+03	5.708945E-17	1.094879E-18
6.500000E+03	5.670590E-17	1.089841E-18
6.510000E+03	5.633488E-17	1.085018E-18
6.520000E+03	5.597638E-17	1.080413E-18
6.530000E+03	5.562734E-17	1.075964E-18
6.540000E+03	5.529379E-17	1.071790E-18
6.550000E+03	5.496959E-17	1.067773E-18
6.560000E+03	5.466070E-17	1.064027E-18
6.570000E+03	5.436100E-17	1.060436E-18
6.580000E+03	5.407641E-17	1.057114E-18
6.590000E+03	5.380084E-17	1.053944E-18
6.600000E+03	5.354015E-17	1.051041E-18
6.610000E+03	5.328834E-17	1.048288E-18
6.620000E+03	5.304828E-17	1.045742E-18
6.630000E+03	5.282283E-17	1.043461E-18
6.640000E+03	5.260607E-17	1.041328E-18
6.650000E+03	5.240089E-17	1.039402E-18
6.660000E+03	5.220725E-17	1.037683E-18
6.670000E+03	5.202515E-17	1.036171E-18
6.680000E+03	5.185748E-17	1.034926E-18
6.690000E+03	5.169847E-17	1.033833E-18
6.700000E+03	5.155108E-17	1.032953E-18
6.710000E+03	5.141537E-17	1.032288E-18
6.720000E+03	5.129141E-17	1.031840E-18
6.730000E+03	5.117932E-17	1.031613E-18
6.740000E+03	5.107921E-17	1.031612E-18
6.750000E+03	5.099122E-17	1.031839E-18
6.760000E+03	5.091552E-17	1.032299E-18
6.770000E+03	5.085227E-17	1.032999E-18
6.780000E+03	5.080167E-17	1.033942E-18
6.790000E+03	5.076392E-17	1.035134E-18
6.800000E+03	5.074206E-17	1.036640E-18
6.810000E+03	5.073066E-17	1.038350E-18
6.820000E+03	5.072990E-17	1.040270E-18
6.830000E+03	5.074574E-17	1.042522E-18
6.840000E+03	5.077554E-17	1.045055E-18
6.850000E+03	5.081954E-17	1.047875E-18
6.860000E+03	5.087795E-17	1.050989E-18
6.870000E+03	5.095098E-17	1.054403E-18
6.880000E+03	5.103885E-17	1.058124E-18
6.890000E+03	5.114174E-17	1.062158E-18
6.900000E+03	5.125980E-17	1.066509E-18
6.910000E+03	5.139319E-17	1.071183E-18
6.920000E+03	5.154205E-17	1.076186E-18
6.930000E+03	5.170645E-17	1.081521E-18
6.940000E+03	5.188646E-17	1.087191E-18
6.950000E+03	5.207917E-17	1.093139E-18
6.960000E+03	5.229046E-17	1.099490E-18
6.970000E+03	5.251736E-17	1.106184E-18
6.980000E+03	5.275978E-17	1.113222E-18
6.990000E+03	5.301762E-17	1.120604E-18
7.000000E+03	5.329072E-17	1.128329E-18
7.010000E+03	5.357582E-17	1.136331E-18
7.020000E+03	5.387877E-17	1.144737E-18
7.030000E+03	5.419622E-17	1.153478E-18
7.040000E+03	5.452474E-17	1.162484E-18
7.050000E+03	5.487017E-17	1.171882E-18
7.060000E+03	5.522898E-17	1.181600E-18
7.070000E+03	5.559752E-17	1.191563E-18
7.080000E+03	5.598161E-17	1.201897E-18
7.090000E+03	5.637432E-17	1.212457E-18
7.100000E+03	5.678149E-17	1.223373E-18
7.110000E+03	5.719600E-17	1.234492E-18
7.120000E+03	5.762370E-17	1.245944E-18
7.130000E+03	5.805727E-17	1.257575E-18
7.140000E+03	5.849925E-17	1.269442E-18
7.150000E+03	5.895223E-17	1.281604E-18
7.160000E+03	5.940862E-17	1.293899E-18
7.170000E+03	5.987092E-17	1.306385E-18
7.180000E+03	6.033821E-17	1.319044E-18
7.190000E+03	6.080954E-17	1.331859E-18
7.200000E+03	6.128394E-17	1.344811E-18
7.210000E+03	6.176039E-17	1.357881E-18
7.220000E+03	6.223780E-17	1.371048E-18
7.230000E+03	6.271510E-17	1.384291E-18
7.240000E+03	6.319109E-17	1.397586E-18
7.250000E+03	6.366090E-17	1.410829E-18
7.260000E+03	6.413066E-17	1.424157E-18
7.270000E+03	6.459537E-17	1.437463E-18
7.280000E+03	6.504989E-17	1.450634E-18
7.290000E+03	6.549653E-17	1.463723E-18
7.300000E+03	6.593763E-17	1.476786E-18
7.310000E+03	6.636396E-17	1.489618E-18
7.320000E+03	6.677772E-17	1.502268E-18
7.330000E+03	6.717716E-17	1.514700E-18
7.340000E+03	6.756047E-17	1.526874E-18
7.350000E+03	6.792574E-17	1.538748E-18
7.360000E+03	6.826699E-17	1.550185E-18
7.370000E+03	6.859008E-17	1.561320E-18
7.380000E+03	6.888888E-17	1.572013E-18
7.390000E+03	6.915699E-17	1.582116E-18
7.400000E+03	6.939608E-17	1.591667E-18
7.410000E+03	6.960371E-17	1.600606E-18
7.420000E+03	6.977731E-17	1.608874E-18
7.430000E+03	6.991435E-17	1.616407E-18
7.440000E+03	7.001223E-17	1.623142E-18
7.450000E+03	7.006838E-17	1.629015E-18
7.460000E+03	7.007617E-17	1.633865E-18
7.470000E+03	7.004153E-17	1.637824E-18
7.480000E+03	6.995407E-17	1.640642E-18
7.490000E+03	6.981621E-17	1.642366E-18
7.500000E+03	6.962672E-17	1.642960E-18
7.510000E+03	6.938516E-17	1.642402E-18
7.520000E+03	6.908798E-17	1.640598E-18
7.530000E+03	6.874505E-17	1.637771E-18
7.540000E+03	6.835053E-17	1.633773E-18
7.550000E+03	6.791146E-17	1.628758E-18
7.560000E+03	6.743105E-17	1.622790E-18
7.570000E+03	6.691266E-17	1.615937E-18
7.580000E+03	6.635971E-17	1.608266E-18
7.590000E+03	6.577558E-17	1.599847E-18
7.600000E+03	6.515962E-17	1.590651E-18
7.610000E+03	6.451897E-17	1.580840E-18
7.620000E+03	6.385665E-17	1.570476E-18
7.630000E+03	6.317547E-17	1.559619E-18
7.640000E+03	6.247805E-17	1.548324E-18
7.650000E+03	6.176309E-17	1.536547E-18
7.660000E+03	6.104035E-17	1.524524E-18
7.670000E+03	6.030446E-17	1.512113E-18
7.680000E+03	5.956102E-17	1.499446E-18
7.690000E+03	5.880816E-17	1.486468E-18
7.700000E+03	5.805466E-17	1.473396E-18
7.710000E+03	5.729476E-17	1.460077E-18
7.720000E+03	5.653332E-17	1.446630E-18
7.730000E+03	5.577147E-17	1.433078E-18
7.740000E+03	5.501023E-17	1.419444E-18
7.750000E+03	5.425051E-17	1.405746E-18
7.760000E+03	5.348986E-17	1.391919E-18
