#wls	flux	fluxerr
1.577598E+03	1.568915E-18	3.137979E-19
1.617038E+03	1.699571E-18	3.385819E-19
1.656478E+03	1.832118E-18	3.635014E-19
1.695918E+03	1.965342E-18	3.883044E-19
1.735358E+03	2.096465E-18	4.124349E-19
1.774798E+03	2.221000E-18	4.350116E-19
1.814238E+03	2.330838E-18	4.544633E-19
1.853678E+03	2.416779E-18	4.690367E-19
1.893118E+03	2.468174E-18	4.767342E-19
1.932558E+03	2.475958E-18	4.759055E-19
1.971998E+03	2.439671E-18	4.665850E-19
2.011438E+03	2.373734E-18	4.516450E-19
2.050878E+03	2.312999E-18	4.377731E-19
2.090317E+03	2.308657E-18	4.345929E-19
2.129757E+03	2.414622E-18	4.520244E-19
2.169197E+03	2.673104E-18	4.975729E-19
2.208637E+03	3.106103E-18	5.748073E-19
2.248077E+03	3.713023E-18	6.830232E-19
2.287517E+03	4.473601E-18	8.179017E-19
2.326957E+03	5.356119E-18	9.731133E-19
2.366397E+03	6.322505E-18	1.141310E-18
2.405837E+03	7.333640E-18	1.315121E-18
2.445277E+03	8.348531E-18	1.487020E-18
2.484717E+03	9.325371E-18	1.649533E-18
2.524157E+03	1.021911E-17	1.794827E-18
2.563597E+03	1.098631E-17	1.915582E-18
2.603037E+03	1.159186E-17	2.006159E-18
2.642477E+03	1.202104E-17	2.064616E-18
2.681917E+03	1.228175E-17	2.092972E-18
2.721357E+03	1.239584E-17	2.095581E-18
2.760797E+03	1.239179E-17	2.077810E-18
2.800237E+03	1.229914E-17	2.045063E-18
2.839677E+03	1.214692E-17	2.002506E-18
2.879117E+03	1.196293E-17	1.954947E-18
2.918556E+03	1.177304E-17	1.906728E-18
2.957996E+03	1.160167E-17	1.861812E-18
2.967856E+03	1.156441E-17	1.851520E-18
2.977716E+03	1.152984E-17	1.841674E-18
2.987576E+03	1.149874E-17	1.832392E-18
2.997436E+03	1.147112E-17	1.823673E-18
3.007296E+03	1.144873E-17	1.815791E-18
3.017156E+03	1.143281E-17	1.808936E-18
3.027016E+03	1.142347E-17	1.803120E-18
3.036876E+03	1.142030E-17	1.798268E-18
3.046736E+03	1.142402E-17	1.794489E-18
3.056596E+03	1.143491E-17	1.791816E-18
3.066456E+03	1.145335E-17	1.790304E-18
3.076316E+03	1.147934E-17	1.789940E-18
3.086176E+03	1.151266E-17	1.790686E-18
3.096036E+03	1.155387E-17	1.792615E-18
3.105896E+03	1.160286E-17	1.795705E-18
3.115756E+03	1.166003E-17	1.800009E-18
3.125616E+03	1.172562E-17	1.805550E-18
3.135476E+03	1.179990E-17	1.812362E-18
3.145336E+03	1.188340E-17	1.820516E-18
3.155196E+03	1.197648E-17	1.830056E-18
3.165056E+03	1.207933E-17	1.841000E-18
3.174916E+03	1.219282E-17	1.853468E-18
3.184776E+03	1.231724E-17	1.867489E-18
3.194636E+03	1.245331E-17	1.883161E-18
3.204496E+03	1.260157E-17	1.900551E-18
3.214356E+03	1.276240E-17	1.919701E-18
3.224216E+03	1.293679E-17	1.940745E-18
3.234076E+03	1.312492E-17	1.963691E-18
3.243936E+03	1.332776E-17	1.988669E-18
3.253796E+03	1.354583E-17	2.015738E-18
3.263656E+03	1.377920E-17	2.044888E-18
3.273516E+03	1.402865E-17	2.076215E-18
3.283376E+03	1.429440E-17	2.109734E-18
3.293236E+03	1.457633E-17	2.145405E-18
3.303096E+03	1.487428E-17	2.183185E-18
3.312956E+03	1.518784E-17	2.222993E-18
3.322816E+03	1.551627E-17	2.264703E-18
3.332676E+03	1.585847E-17	2.308135E-18
3.342536E+03	1.621295E-17	2.353054E-18
3.352396E+03	1.657753E-17	2.399131E-18
3.362256E+03	1.694960E-17	2.445973E-18
3.372116E+03	1.732673E-17	2.493224E-18
3.381976E+03	1.770504E-17	2.540318E-18
3.391836E+03	1.808121E-17	2.586778E-18
3.401696E+03	1.845130E-17	2.632047E-18
3.411556E+03	1.881161E-17	2.675602E-18
3.421416E+03	1.915814E-17	2.716890E-18
3.431276E+03	1.948752E-17	2.755449E-18
3.441136E+03	1.979717E-17	2.790940E-18
3.450996E+03	2.008476E-17	2.823057E-18
3.460856E+03	2.034919E-17	2.851674E-18
3.470716E+03	2.058930E-17	2.876659E-18
3.480576E+03	2.080554E-17	2.898106E-18
3.490436E+03	2.099830E-17	2.916097E-18
3.500296E+03	2.116848E-17	2.930787E-18
3.510156E+03	2.131682E-17	2.942308E-18
3.520016E+03	2.144281E-17	2.950617E-18
3.529876E+03	2.154630E-17	2.955722E-18
3.539736E+03	2.162629E-17	2.957514E-18
3.549596E+03	2.168145E-17	2.955844E-18
3.559456E+03	2.171104E-17	2.950640E-18
3.569316E+03	2.171334E-17	2.941704E-18
3.579176E+03	2.168712E-17	2.928905E-18
3.589036E+03	2.163134E-17	2.912139E-18
3.598896E+03	2.154545E-17	2.891368E-18
3.608756E+03	2.142949E-17	2.866640E-18
3.618616E+03	2.128452E-17	2.838134E-18
3.628476E+03	2.111292E-17	2.806204E-18
3.638336E+03	2.091850E-17	2.771388E-18
3.648196E+03	2.070639E-17	2.734394E-18
3.658056E+03	2.048404E-17	2.696227E-18
3.667916E+03	2.025941E-17	2.657943E-18
3.677776E+03	2.004246E-17	2.620850E-18
3.687636E+03	1.984380E-17	2.586319E-18
3.697496E+03	1.967483E-17	2.555810E-18
3.707356E+03	1.954761E-17	2.530844E-18
3.717216E+03	1.947331E-17	2.512811E-18
3.727076E+03	1.946368E-17	2.503151E-18
3.736936E+03	1.952979E-17	2.503201E-18
3.746796E+03	1.968157E-17	2.514132E-18
3.756655E+03	1.992889E-17	2.537088E-18
3.766515E+03	2.028058E-17	2.573065E-18
3.776375E+03	2.074418E-17	2.622880E-18
3.786235E+03	2.132622E-17	2.687212E-18
3.796095E+03	2.203237E-17	2.766617E-18
3.805955E+03	2.286570E-17	2.861317E-18
3.815815E+03	2.382776E-17	2.971340E-18
3.825675E+03	2.491712E-17	3.096338E-18
3.835535E+03	2.612935E-17	3.235598E-18
3.845395E+03	2.745634E-17	3.387957E-18
3.855255E+03	2.888546E-17	3.551712E-18
3.865115E+03	3.040028E-17	3.724717E-18
3.874975E+03	3.198043E-17	3.904370E-18
3.884835E+03	3.360128E-17	4.087592E-18
3.894695E+03	3.523524E-17	4.270984E-18
3.904555E+03	3.685317E-17	4.451009E-18
3.914415E+03	3.842529E-17	4.624104E-18
3.924275E+03	3.992338E-17	4.786947E-18
3.934135E+03	4.132214E-17	4.936611E-18
3.943995E+03	4.260068E-17	5.070741E-18
3.953855E+03	4.374299E-17	5.187598E-18
3.963715E+03	4.473995E-17	5.286281E-18
3.973575E+03	4.558883E-17	5.366662E-18
3.983435E+03	4.629317E-17	5.429348E-18
3.993295E+03	4.686158E-17	5.475540E-18
4.003155E+03	4.730724E-17	5.506948E-18
4.013015E+03	4.764694E-17	5.525683E-18
4.022875E+03	4.789929E-17	5.534033E-18
4.032735E+03	4.808412E-17	5.534398E-18
4.042595E+03	4.822066E-17	5.529071E-18
4.052455E+03	4.832740E-17	5.520230E-18
4.062315E+03	4.842043E-17	5.509743E-18
4.072175E+03	4.851334E-17	5.499172E-18
4.082035E+03	4.861720E-17	5.489769E-18
4.091895E+03	4.873960E-17	5.482373E-18
4.101755E+03	4.888552E-17	5.477519E-18
4.111615E+03	4.905644E-17	5.475344E-18
4.121475E+03	4.925226E-17	5.475805E-18
4.131335E+03	4.947038E-17	5.478583E-18
4.141195E+03	4.970817E-17	5.483359E-18
4.151055E+03	4.996142E-17	5.489649E-18
4.160915E+03	5.022665E-17	5.497054E-18
4.170775E+03	5.049963E-17	5.505096E-18
4.180635E+03	5.077829E-17	5.513545E-18
4.190495E+03	5.105948E-17	5.522052E-18
4.200355E+03	5.134188E-17	5.530475E-18
4.210215E+03	5.162243E-17	5.538487E-18
4.220075E+03	5.189799E-17	5.545756E-18
4.229935E+03	5.216566E-17	5.551981E-18
4.239795E+03	5.241942E-17	5.556539E-18
4.249655E+03	5.265416E-17	5.558907E-18
4.259515E+03	5.286179E-17	5.558263E-18
4.269375E+03	5.303593E-17	5.553975E-18
4.279235E+03	5.316944E-17	5.545344E-18
4.289095E+03	5.325634E-17	5.531802E-18
4.298955E+03	5.329376E-17	5.513114E-18
4.308815E+03	5.328146E-17	5.489321E-18
4.318675E+03	5.322394E-17	5.460948E-18
4.328535E+03	5.312949E-17	5.428901E-18
4.338395E+03	5.301708E-17	5.395158E-18
4.348255E+03	5.291235E-17	5.362338E-18
4.358115E+03	5.284243E-17	5.333168E-18
4.367975E+03	5.283304E-17	5.310186E-18
4.377835E+03	5.290720E-17	5.295620E-18
4.387695E+03	5.308241E-17	5.291107E-18
4.397555E+03	5.337174E-17	5.297820E-18
4.407415E+03	5.378186E-17	5.316274E-18
4.417275E+03	5.431348E-17	5.346389E-18
4.427135E+03	5.496109E-17	5.387472E-18
4.436995E+03	5.571396E-17	5.438336E-18
4.446855E+03	5.655605E-17	5.497288E-18
4.456715E+03	5.746776E-17	5.562324E-18
4.466575E+03	5.842438E-17	5.630976E-18
4.476435E+03	5.939924E-17	5.700631E-18
4.486295E+03	6.036383E-17	5.768540E-18
4.496155E+03	6.128762E-17	5.831815E-18
4.506015E+03	6.214196E-17	5.887788E-18
4.515875E+03	6.289801E-17	5.933826E-18
4.525735E+03	6.353068E-17	5.967691E-18
4.535595E+03	6.401738E-17	5.987422E-18
4.545455E+03	6.434182E-17	5.991678E-18
4.555315E+03	6.449176E-17	5.979523E-18
4.565175E+03	6.445997E-17	5.950500E-18
4.575035E+03	6.424579E-17	5.904769E-18
4.584894E+03	6.385378E-17	5.842968E-18
4.594754E+03	6.329248E-17	5.766088E-18
4.604614E+03	6.257379E-17	5.675413E-18
4.614474E+03	6.171484E-17	5.572679E-18
4.624334E+03	6.073379E-17	5.459686E-18
4.634194E+03	5.964926E-17	5.338247E-18
4.644054E+03	5.848197E-17	5.210332E-18
4.653914E+03	5.725322E-17	5.077926E-18
4.663774E+03	5.598289E-17	4.942859E-18
4.673634E+03	5.469254E-17	4.807074E-18
4.683494E+03	5.340233E-17	4.672358E-18
4.693354E+03	5.213284E-17	4.540502E-18
4.703214E+03	5.090303E-17	4.413122E-18
4.713074E+03	4.972988E-17	4.291637E-18
4.722934E+03	4.862946E-17	4.177358E-18
4.732794E+03	4.761458E-17	4.071294E-18
4.742654E+03	4.669655E-17	3.974303E-18
4.752514E+03	4.588307E-17	3.886924E-18
4.762374E+03	4.517969E-17	3.809499E-18
4.772234E+03	4.458913E-17	3.742127E-18
4.782094E+03	4.411201E-17	3.684726E-18
4.791954E+03	4.374532E-17	3.636912E-18
4.801814E+03	4.348401E-17	3.598138E-18
4.811674E+03	4.331989E-17	3.567606E-18
4.821534E+03	4.324359E-17	3.544437E-18
4.831394E+03	4.324221E-17	3.527475E-18
4.841254E+03	4.330134E-17	3.515467E-18
4.851114E+03	4.340494E-17	3.507048E-18
4.860974E+03	4.353720E-17	3.500894E-18
4.870834E+03	4.368217E-17	3.495703E-18
4.880694E+03	4.382579E-17	3.490340E-18
4.890554E+03	4.395728E-17	3.483957E-18
4.900414E+03	4.406851E-17	3.475929E-18
4.910274E+03	4.415596E-17	3.466006E-18
4.920134E+03	4.422001E-17	3.454249E-18
4.929994E+03	4.426588E-17	3.441092E-18
4.939854E+03	4.430164E-17	3.427184E-18
4.949714E+03	4.433730E-17	3.413311E-18
4.959574E+03	4.438448E-17	3.400367E-18
4.969434E+03	4.445488E-17	3.389234E-18
4.979294E+03	4.455885E-17	3.380676E-18
4.989154E+03	4.470606E-17	3.375390E-18
4.999014E+03	4.490364E-17	3.373869E-18
5.008874E+03	4.515575E-17	3.376374E-18
5.018734E+03	4.546563E-17	3.383092E-18
5.028594E+03	4.583427E-17	3.394041E-18
5.038454E+03	4.626057E-17	3.409082E-18
5.048314E+03	4.674260E-17	3.428021E-18
5.058174E+03	4.727730E-17	3.450584E-18
5.068034E+03	4.786077E-17	3.476440E-18
5.077894E+03	4.848772E-17	3.505168E-18
5.087754E+03	4.915291E-17	3.536354E-18
5.097614E+03	4.984870E-17	3.569425E-18
5.107474E+03	5.056774E-17	3.603837E-18
5.117334E+03	5.130073E-17	3.638922E-18
5.127194E+03	5.203790E-17	3.673988E-18
5.137054E+03	5.276858E-17	3.708296E-18
5.146914E+03	5.348174E-17	3.741097E-18
5.156774E+03	5.416500E-17	3.771559E-18
5.166634E+03	5.480849E-17	3.799044E-18
5.176494E+03	5.540144E-17	3.822860E-18
5.186354E+03	5.593468E-17	3.842441E-18
5.196214E+03	5.640002E-17	3.857296E-18
5.206074E+03	5.679136E-17	3.867087E-18
5.215934E+03	5.710449E-17	3.871609E-18
5.225794E+03	5.733694E-17	3.870777E-18
5.235654E+03	5.748800E-17	3.864624E-18
5.245514E+03	5.755785E-17	3.853245E-18
5.255374E+03	5.754941E-17	3.836912E-18
5.265234E+03	5.746430E-17	3.815805E-18
5.275094E+03	5.730553E-17	3.790195E-18
5.284954E+03	5.707750E-17	3.760434E-18
5.294814E+03	5.678215E-17	3.726710E-18
5.304674E+03	5.642368E-17	3.689352E-18
5.314534E+03	5.600457E-17	3.648569E-18
5.324394E+03	5.552889E-17	3.604672E-18
5.334254E+03	5.500036E-17	3.557939E-18
5.344114E+03	5.442573E-17	3.508842E-18
5.353974E+03	5.381171E-17	3.457837E-18
5.363834E+03	5.316792E-17	3.405562E-18
5.373694E+03	5.250376E-17	3.352631E-18
5.383554E+03	5.183083E-17	3.299789E-18
5.393414E+03	5.115910E-17	3.247664E-18
5.403274E+03	5.049616E-17	3.196730E-18
5.413134E+03	4.984711E-17	3.147284E-18
5.422993E+03	4.921345E-17	3.099394E-18
5.432853E+03	4.859872E-17	3.053254E-18
5.442713E+03	4.800379E-17	3.008893E-18
5.452573E+03	4.742525E-17	2.966072E-18
5.462433E+03	4.685979E-17	2.924556E-18
5.472293E+03	4.630233E-17	2.884010E-18
5.482153E+03	4.575207E-17	2.844363E-18
5.492013E+03	4.520953E-17	2.805628E-18
5.501873E+03	4.467861E-17	2.768028E-18
5.511733E+03	4.416711E-17	2.732028E-18
5.521593E+03	4.368594E-17	2.698279E-18
5.531453E+03	4.324798E-17	2.667553E-18
5.541313E+03	4.286895E-17	2.640796E-18
5.551173E+03	4.256327E-17	2.618868E-18
5.561033E+03	4.234672E-17	2.602713E-18
5.570893E+03	4.223170E-17	2.593065E-18
5.580753E+03	4.223013E-17	2.590631E-18
5.590613E+03	4.235013E-17	2.595885E-18
5.600473E+03	4.259590E-17	2.609064E-18
5.610333E+03	4.296905E-17	2.630247E-18
5.620193E+03	4.346709E-17	2.659271E-18
5.630053E+03	4.408459E-17	2.695792E-18
5.639913E+03	4.481270E-17	2.739265E-18
5.649773E+03	4.563961E-17	2.788967E-18
5.659633E+03	4.655309E-17	2.844153E-18
5.669493E+03	4.753876E-17	2.903950E-18
5.679353E+03	4.858138E-17	2.967434E-18
5.689213E+03	4.966662E-17	3.033738E-18
5.699073E+03	5.078076E-17	3.102037E-18
5.708933E+03	5.191027E-17	3.171514E-18
5.718793E+03	5.304181E-17	3.241363E-18
5.728653E+03	5.416369E-17	3.310882E-18
5.738513E+03	5.526461E-17	3.379388E-18
5.748373E+03	5.633292E-17	3.446177E-18
5.758233E+03	5.735630E-17	3.510501E-18
5.768093E+03	5.832373E-17	3.571689E-18
5.777953E+03	5.922384E-17	3.629048E-18
5.787813E+03	6.004666E-17	3.681963E-18
5.797673E+03	6.078278E-17	3.729854E-18
5.807533E+03	6.142374E-17	3.772194E-18
5.817393E+03	6.196449E-17	3.808663E-18
5.827253E+03	6.240096E-17	3.838996E-18
5.837113E+03	6.273421E-17	3.863244E-18
5.846973E+03	6.296334E-17	3.881333E-18
5.856833E+03	6.309205E-17	3.893470E-18
5.866693E+03	6.312546E-17	3.899952E-18
5.876553E+03	6.306819E-17	3.901042E-18
5.886413E+03	6.292593E-17	3.897071E-18
5.896273E+03	6.270521E-17	3.888418E-18
5.906133E+03	6.241103E-17	3.875373E-18
5.915993E+03	6.204940E-17	3.858287E-18
5.925853E+03	6.162393E-17	3.837361E-18
5.935713E+03	6.114061E-17	3.812947E-18
5.945573E+03	6.060223E-17	3.785197E-18
5.955433E+03	6.001398E-17	3.754413E-18
5.965293E+03	5.937690E-17	3.720641E-18
5.975153E+03	5.869506E-17	3.684113E-18
5.985013E+03	5.796996E-17	3.644903E-18
5.994873E+03	5.720361E-17	3.603116E-18
6.004733E+03	5.639672E-17	3.558775E-18
6.014593E+03	5.555323E-17	3.512108E-18
6.024453E+03	5.467467E-17	3.463191E-18
6.034313E+03	5.376722E-17	3.412396E-18
6.044173E+03	5.283509E-17	3.359969E-18
6.054033E+03	5.188582E-17	3.306375E-18
6.063893E+03	5.092708E-17	3.252085E-18
6.073753E+03	4.996746E-17	3.197630E-18
6.083613E+03	4.901341E-17	3.143405E-18
6.093473E+03	4.807227E-17	3.089872E-18
6.103333E+03	4.714944E-17	3.037368E-18
6.113193E+03	4.624971E-17	2.986196E-18
6.123053E+03	4.537699E-17	2.936607E-18
6.132913E+03	4.453592E-17	2.888901E-18
6.142773E+03	4.373184E-17	2.843430E-18
6.152633E+03	4.296867E-17	2.800453E-18
6.162493E+03	4.224889E-17	2.760143E-18
6.172353E+03	4.157225E-17	2.722494E-18
6.182213E+03	4.093773E-17	2.687452E-18
6.192073E+03	4.034531E-17	2.655027E-18
6.201933E+03	3.979458E-17	2.625205E-18
6.211793E+03	3.928470E-17	2.597943E-18
6.221653E+03	3.881441E-17	2.573173E-18
6.231513E+03	3.838034E-17	2.550683E-18
6.241373E+03	3.797931E-17	2.530275E-18
6.251232E+03	3.760590E-17	2.511596E-18
6.261092E+03	3.725575E-17	2.494365E-18
6.270952E+03	3.692436E-17	2.478286E-18
6.280812E+03	3.660861E-17	2.463156E-18
6.290672E+03	3.630550E-17	2.448774E-18
6.300532E+03	3.601382E-17	2.435063E-18
6.310392E+03	3.573313E-17	2.421994E-18
6.320252E+03	3.546359E-17	2.409581E-18
6.330112E+03	3.520674E-17	2.397930E-18
6.339972E+03	3.496507E-17	2.387216E-18
6.349832E+03	3.474118E-17	2.377622E-18
6.359692E+03	3.453737E-17	2.369311E-18
6.369552E+03	3.435590E-17	2.362446E-18
6.379412E+03	3.419813E-17	2.357130E-18
6.389272E+03	3.406400E-17	2.353368E-18
6.399132E+03	3.395190E-17	2.351058E-18
6.408992E+03	3.386084E-17	2.350141E-18
6.418852E+03	3.378798E-17	2.350425E-18
6.428712E+03	3.372931E-17	2.351639E-18
6.438572E+03	3.368144E-17	2.353552E-18
6.448432E+03	3.364027E-17	2.355878E-18
6.458292E+03	3.360118E-17	2.358297E-18
6.468152E+03	3.356029E-17	2.360533E-18
6.478012E+03	3.351514E-17	2.362413E-18
6.487872E+03	3.346111E-17	2.363605E-18
6.497732E+03	3.339674E-17	2.364003E-18
6.507592E+03	3.332004E-17	2.363459E-18
6.517452E+03	3.322843E-17	2.361784E-18
6.527312E+03	3.312192E-17	2.358972E-18
6.537172E+03	3.299866E-17	2.354883E-18
6.547032E+03	3.285924E-17	2.349553E-18
6.556892E+03	3.270229E-17	2.342878E-18
6.566752E+03	3.252826E-17	2.334880E-18
6.576612E+03	3.233724E-17	2.325562E-18
6.586472E+03	3.212905E-17	2.314905E-18
6.596332E+03	3.190438E-17	2.302950E-18
6.606192E+03	3.166485E-17	2.289810E-18
6.616052E+03	3.141145E-17	2.275552E-18
6.625912E+03	3.114619E-17	2.260318E-18
6.635772E+03	3.087157E-17	2.244286E-18
6.645632E+03	3.059053E-17	2.227668E-18
6.655492E+03	3.030635E-17	2.210704E-18
6.665352E+03	3.002257E-17	2.193653E-18
6.675212E+03	2.974232E-17	2.176744E-18
6.685072E+03	2.946976E-17	2.160288E-18
6.694932E+03	2.920837E-17	2.144544E-18
6.704792E+03	2.896080E-17	2.129711E-18
6.714652E+03	2.873035E-17	2.116041E-18
6.724512E+03	2.851877E-17	2.103671E-18
6.734372E+03	2.832781E-17	2.092737E-18
6.744232E+03	2.815862E-17	2.083334E-18
6.754092E+03	2.801179E-17	2.075513E-18
6.763952E+03	2.788785E-17	2.069325E-18
6.773812E+03	2.778532E-17	2.064668E-18
6.783672E+03	2.770388E-17	2.061525E-18
6.793532E+03	2.764234E-17	2.059819E-18
6.803392E+03	2.759883E-17	2.059416E-18
6.813252E+03	2.757240E-17	2.060254E-18
6.823112E+03	2.756162E-17	2.062231E-18
6.832972E+03	2.756461E-17	2.065214E-18
6.842832E+03	2.758017E-17	2.069118E-18
6.852692E+03	2.760783E-17	2.073915E-18
6.862552E+03	2.764624E-17	2.079507E-18
6.872412E+03	2.769472E-17	2.085850E-18
6.882272E+03	2.775268E-17	2.092903E-18
6.892132E+03	2.781956E-17	2.100628E-18
6.901992E+03	2.789414E-17	2.108939E-18
6.911852E+03	2.797672E-17	2.117863E-18
6.921712E+03	2.806521E-17	2.127246E-18
6.931572E+03	2.815894E-17	2.137042E-18
6.941432E+03	2.825592E-17	2.147102E-18
6.951292E+03	2.835451E-17	2.157307E-18
6.961152E+03	2.845352E-17	2.167569E-18
6.971012E+03	2.855058E-17	2.177710E-18
6.980872E+03	2.864335E-17	2.187553E-18
6.990732E+03	2.873129E-17	2.197061E-18
7.000592E+03	2.881235E-17	2.206076E-18
7.010452E+03	2.888470E-17	2.214461E-18
7.020312E+03	2.894792E-17	2.222184E-18
7.030172E+03	2.900078E-17	2.229151E-18
7.040032E+03	2.904351E-17	2.235381E-18
7.049892E+03	2.907552E-17	2.240827E-18
7.059752E+03	2.909770E-17	2.245560E-18
7.069612E+03	2.910945E-17	2.249535E-18
7.079472E+03	2.911223E-17	2.252863E-18
7.089331E+03	2.910767E-17	2.255672E-18
7.099191E+03	2.909569E-17	2.257958E-18
7.109051E+03	2.907746E-17	2.259812E-18
7.118911E+03	2.905472E-17	2.261372E-18
7.128771E+03	2.902845E-17	2.262716E-18
7.138631E+03	2.899891E-17	2.263867E-18
7.148491E+03	2.896739E-17	2.264929E-18
7.158351E+03	2.893383E-17	2.265900E-18
7.168211E+03	2.889861E-17	2.266813E-18
7.178071E+03	2.886271E-17	2.267747E-18
7.187931E+03	2.882577E-17	2.268679E-18
7.197791E+03	2.878866E-17	2.269679E-18
7.207651E+03	2.875095E-17	2.270719E-18
7.217511E+03	2.871280E-17	2.271813E-18
7.227371E+03	2.867552E-17	2.273071E-18
7.237231E+03	2.863784E-17	2.274394E-18
7.247091E+03	2.860089E-17	2.275876E-18
7.256951E+03	2.856383E-17	2.277455E-18
7.266811E+03	2.852699E-17	2.279162E-18
7.276671E+03	2.849073E-17	2.281026E-18
7.286531E+03	2.845409E-17	2.282978E-18
7.296391E+03	2.841809E-17	2.285102E-18
7.306251E+03	2.838253E-17	2.287386E-18
7.316111E+03	2.834790E-17	2.289873E-18
7.325971E+03	2.831405E-17	2.292555E-18
7.335831E+03	2.828082E-17	2.295424E-18
7.345691E+03	2.824862E-17	2.298517E-18
7.355551E+03	2.821579E-17	2.301703E-18
7.365411E+03	2.818181E-17	2.304943E-18
7.375271E+03	2.814535E-17	2.308128E-18
7.385131E+03	2.810623E-17	2.311248E-18
7.394991E+03	2.806286E-17	2.314173E-18
7.404851E+03	2.801370E-17	2.316775E-18
7.414711E+03	2.795798E-17	2.318989E-18
7.424571E+03	2.789527E-17	2.320777E-18
7.434431E+03	2.782494E-17	2.322084E-18
7.444291E+03	2.774839E-17	2.323020E-18
7.454151E+03	2.766580E-17	2.323593E-18
7.464011E+03	2.758092E-17	2.324109E-18
7.473871E+03	2.749646E-17	2.324790E-18
7.483731E+03	2.741665E-17	2.325992E-18
7.493591E+03	2.734570E-17	2.328072E-18
7.503451E+03	2.728915E-17	2.331508E-18
7.513311E+03	2.725080E-17	2.336635E-18
7.523171E+03	2.723240E-17	2.343615E-18
7.533031E+03	2.723350E-17	2.352427E-18
7.542891E+03	2.725434E-17	2.363106E-18
7.552751E+03	2.729355E-17	2.375551E-18
7.562611E+03	2.735163E-17	2.389820E-18
7.572471E+03	2.742551E-17	2.405661E-18
7.582331E+03	2.751601E-17	2.423162E-18
7.592191E+03	2.762101E-17	2.442149E-18
7.602051E+03	2.773814E-17	2.462428E-18
7.611911E+03	2.786626E-17	2.483907E-18
7.621771E+03	2.800335E-17	2.506416E-18
7.631631E+03	2.814720E-17	2.529767E-18
7.641491E+03	2.829552E-17	2.553758E-18
7.651351E+03	2.844660E-17	2.578239E-18
