#wls	flux	fluxerr
1.577598E+03	5.164602E-18	1.366408E-19
1.617038E+03	5.389707E-18	1.422109E-19
1.656478E+03	5.590653E-18	1.471031E-19
1.695918E+03	5.760678E-18	1.511437E-19
1.735358E+03	5.893694E-18	1.541795E-19
1.774798E+03	5.979590E-18	1.559544E-19
1.814238E+03	6.002347E-18	1.560621E-19
1.853678E+03	5.943249E-18	1.540328E-19
1.893118E+03	5.786784E-18	1.494861E-19
1.932558E+03	5.528744E-18	1.423393E-19
1.971998E+03	5.181432E-18	1.329359E-19
2.011438E+03	4.790153E-18	1.224601E-19
2.050878E+03	4.430436E-18	1.128500E-19
2.090317E+03	4.195556E-18	1.064660E-19
2.129757E+03	4.161323E-18	1.051899E-19
2.169197E+03	4.370966E-18	1.100514E-19
2.208637E+03	4.825322E-18	1.209965E-19
2.248077E+03	5.490642E-18	1.371038E-19
2.287517E+03	6.309584E-18	1.568764E-19
2.326957E+03	7.219706E-18	1.787129E-19
2.366397E+03	8.165211E-18	2.012016E-19
2.405837E+03	9.102234E-18	2.232474E-19
2.445277E+03	9.997325E-18	2.440292E-19
2.484717E+03	1.083735E-17	2.632356E-19
2.524157E+03	1.161200E-17	2.806305E-19
2.563597E+03	1.232180E-17	2.962438E-19
2.603037E+03	1.296895E-17	3.101469E-19
2.642477E+03	1.356680E-17	3.226753E-19
2.681917E+03	1.412664E-17	3.341100E-19
2.721357E+03	1.467038E-17	3.449769E-19
2.760797E+03	1.521948E-17	3.557788E-19
2.800237E+03	1.580155E-17	3.671505E-19
2.839677E+03	1.644850E-17	3.798092E-19
2.879117E+03	1.719948E-17	3.946194E-19
2.918556E+03	1.809712E-17	4.125001E-19
2.957996E+03	1.919396E-17	4.345668E-19
2.967856E+03	1.950834E-17	4.409302E-19
2.977716E+03	1.983966E-17	4.476480E-19
2.987576E+03	2.018630E-17	4.546814E-19
2.997436E+03	2.055515E-17	4.621834E-19
3.007296E+03	2.094930E-17	4.702205E-19
3.017156E+03	2.136920E-17	4.787998E-19
3.027016E+03	2.181570E-17	4.879367E-19
3.036876E+03	2.229276E-17	4.977162E-19
3.046736E+03	2.279869E-17	5.080970E-19
3.056596E+03	2.333900E-17	5.191978E-19
3.066456E+03	2.391184E-17	5.309731E-19
3.076316E+03	2.452137E-17	5.435105E-19
3.086176E+03	2.516886E-17	5.568337E-19
3.096036E+03	2.585261E-17	5.709001E-19
3.105896E+03	2.658032E-17	5.858743E-19
3.115756E+03	2.734716E-17	6.016446E-19
3.125616E+03	2.815788E-17	6.183097E-19
3.135476E+03	2.901750E-17	6.359737E-19
3.145336E+03	2.992087E-17	6.545176E-19
3.155196E+03	3.087651E-17	6.741212E-19
3.165056E+03	3.188263E-17	6.947385E-19
3.174916E+03	3.294070E-17	7.163945E-19
3.184776E+03	3.405599E-17	7.391963E-19
3.194636E+03	3.522613E-17	7.630846E-19
3.204496E+03	3.645627E-17	7.881630E-19
3.214356E+03	3.774341E-17	8.143588E-19
3.224216E+03	3.909243E-17	8.417685E-19
3.234076E+03	4.050384E-17	8.703943E-19
3.243936E+03	4.197785E-17	9.002320E-19
3.253796E+03	4.351412E-17	9.312654E-19
3.263656E+03	4.511185E-17	9.634680E-19
3.273516E+03	4.676957E-17	9.967998E-19
3.283376E+03	4.848997E-17	1.031309E-18
3.293236E+03	5.026547E-17	1.066825E-18
3.303096E+03	5.209227E-17	1.103260E-18
3.312956E+03	5.397085E-17	1.140616E-18
3.322816E+03	5.589580E-17	1.178770E-18
3.332676E+03	5.786068E-17	1.217580E-18
3.342536E+03	5.985244E-17	1.256765E-18
3.352396E+03	6.187343E-17	1.296370E-18
3.362256E+03	6.390851E-17	1.336074E-18
3.372116E+03	6.595286E-17	1.375771E-18
3.381976E+03	6.798312E-17	1.414976E-18
3.391836E+03	7.000471E-17	1.453799E-18
3.401696E+03	7.199273E-17	1.491727E-18
3.411556E+03	7.393979E-17	1.528609E-18
3.421416E+03	7.583226E-17	1.564170E-18
3.431276E+03	7.765654E-17	1.598136E-18
3.441136E+03	7.939930E-17	1.630242E-18
3.450996E+03	8.105419E-17	1.660369E-18
3.460856E+03	8.260928E-17	1.688284E-18
3.470716E+03	8.404709E-17	1.713646E-18
3.480576E+03	8.536417E-17	1.736400E-18
3.490436E+03	8.655184E-17	1.756386E-18
3.500296E+03	8.760282E-17	1.773475E-18
3.510156E+03	8.851757E-17	1.787696E-18
3.520016E+03	8.928526E-17	1.798851E-18
3.529876E+03	8.990331E-17	1.806908E-18
3.539736E+03	9.038336E-17	1.812123E-18
3.549596E+03	9.071412E-17	1.814289E-18
3.559456E+03	9.091115E-17	1.813740E-18
3.569316E+03	9.097388E-17	1.810484E-18
3.579176E+03	9.091006E-17	1.804695E-18
3.589036E+03	9.073541E-17	1.796702E-18
3.598896E+03	9.046157E-17	1.786753E-18
3.608756E+03	9.010192E-17	1.775126E-18
3.618616E+03	8.967136E-17	1.762128E-18
3.628476E+03	8.918605E-17	1.748086E-18
3.638336E+03	8.866811E-17	1.733440E-18
3.648196E+03	8.813486E-17	1.718535E-18
3.658056E+03	8.759924E-17	1.703625E-18
3.667916E+03	8.708893E-17	1.689246E-18
3.677776E+03	8.661221E-17	1.675557E-18
3.687636E+03	8.619609E-17	1.663072E-18
3.697496E+03	8.585757E-17	1.652110E-18
3.707356E+03	8.560904E-17	1.642898E-18
3.717216E+03	8.547117E-17	1.635817E-18
3.727076E+03	8.545980E-17	1.631151E-18
3.736936E+03	8.559427E-17	1.629251E-18
3.746796E+03	8.588145E-17	1.630223E-18
3.756655E+03	8.634403E-17	1.634473E-18
3.766515E+03	8.699615E-17	1.642241E-18
3.776375E+03	8.785192E-17	1.653761E-18
3.786235E+03	8.892140E-17	1.669190E-18
3.796095E+03	9.022602E-17	1.688895E-18
3.805955E+03	9.177569E-17	1.713024E-18
3.815815E+03	9.358392E-17	1.741788E-18
3.825675E+03	9.566396E-17	1.775391E-18
3.835535E+03	9.803230E-17	1.814094E-18
3.845395E+03	1.007007E-16	1.858067E-18
3.855255E+03	1.036756E-16	1.907380E-18
3.865115E+03	1.069725E-16	1.962267E-18
3.874975E+03	1.105883E-16	2.022616E-18
3.884835E+03	1.145262E-16	2.088435E-18
3.894695E+03	1.187793E-16	2.159544E-18
3.904555E+03	1.233363E-16	2.235686E-18
3.914415E+03	1.281635E-16	2.316201E-18
3.924275E+03	1.332268E-16	2.400428E-18
3.934135E+03	1.384781E-16	2.487463E-18
3.943995E+03	1.438403E-16	2.575896E-18
3.953855E+03	1.492368E-16	2.664337E-18
3.963715E+03	1.545619E-16	2.750897E-18
3.973575E+03	1.596950E-16	2.833450E-18
3.983435E+03	1.645148E-16	2.909879E-18
3.993295E+03	1.688923E-16	2.977959E-18
4.003155E+03	1.727046E-16	3.035605E-18
4.013015E+03	1.758407E-16	3.080965E-18
4.022875E+03	1.782194E-16	3.112731E-18
4.032735E+03	1.797928E-16	3.130198E-18
4.042595E+03	1.805473E-16	3.133265E-18
4.052455E+03	1.805178E-16	3.122669E-18
4.062315E+03	1.797703E-16	3.099684E-18
4.072175E+03	1.783884E-16	3.065866E-18
4.082035E+03	1.765025E-16	3.023555E-18
4.091895E+03	1.742286E-16	2.974821E-18
4.101755E+03	1.717012E-16	2.922015E-18
4.111615E+03	1.690393E-16	2.867203E-18
4.121475E+03	1.663482E-16	2.812186E-18
4.131335E+03	1.637181E-16	2.758491E-18
4.141195E+03	1.612176E-16	2.707262E-18
4.151055E+03	1.589029E-16	2.659415E-18
4.160915E+03	1.568127E-16	2.615567E-18
4.170775E+03	1.549735E-16	2.576122E-18
4.180635E+03	1.534045E-16	2.541355E-18
4.190495E+03	1.521087E-16	2.511270E-18
4.200355E+03	1.510825E-16	2.485763E-18
4.210215E+03	1.503174E-16	2.464648E-18
4.220075E+03	1.497826E-16	2.447380E-18
4.229935E+03	1.494459E-16	2.433395E-18
4.239795E+03	1.492635E-16	2.421949E-18
4.249655E+03	1.491811E-16	2.412138E-18
4.259515E+03	1.491454E-16	2.403087E-18
4.269375E+03	1.490862E-16	2.393661E-18
4.279235E+03	1.489330E-16	2.382738E-18
4.289095E+03	1.486174E-16	2.369243E-18
4.298955E+03	1.480595E-16	2.351936E-18
4.308815E+03	1.472001E-16	2.329920E-18
4.318675E+03	1.459979E-16	2.302599E-18
4.328535E+03	1.444626E-16	2.270180E-18
4.338395E+03	1.426892E-16	2.234210E-18
4.348255E+03	1.408368E-16	2.197214E-18
4.358115E+03	1.390850E-16	2.161994E-18
4.367975E+03	1.375927E-16	2.130997E-18
4.377835E+03	1.364847E-16	2.106104E-18
4.387695E+03	1.358514E-16	2.088637E-18
4.397555E+03	1.357478E-16	2.079360E-18
4.407415E+03	1.362047E-16	2.078654E-18
4.417275E+03	1.372432E-16	2.086741E-18
4.427135E+03	1.388734E-16	2.103676E-18
4.436995E+03	1.411072E-16	2.129540E-18
4.446855E+03	1.439533E-16	2.164360E-18
4.456715E+03	1.474329E-16	2.208349E-18
4.466575E+03	1.515611E-16	2.261626E-18
4.476435E+03	1.563556E-16	2.324345E-18
4.486295E+03	1.618237E-16	2.396500E-18
4.496155E+03	1.679588E-16	2.477879E-18
4.506015E+03	1.747365E-16	2.568011E-18
4.515875E+03	1.821046E-16	2.666025E-18
4.525735E+03	1.899863E-16	2.770698E-18
4.535595E+03	1.982746E-16	2.880390E-18
4.545455E+03	2.068480E-16	2.993275E-18
4.555315E+03	2.155632E-16	3.107236E-18
4.565175E+03	2.242724E-16	3.220131E-18
4.575035E+03	2.328289E-16	3.329859E-18
4.584894E+03	2.410977E-16	3.434524E-18
4.594754E+03	2.489419E-16	3.532234E-18
4.604614E+03	2.562446E-16	3.621405E-18
4.614474E+03	2.628850E-16	3.700430E-18
4.624334E+03	2.687451E-16	3.767767E-18
4.634194E+03	2.737029E-16	3.821843E-18
4.644054E+03	2.776324E-16	3.861059E-18
4.653914E+03	2.804045E-16	3.883801E-18
4.663774E+03	2.818901E-16	3.888484E-18
4.673634E+03	2.819718E-16	3.873712E-18
4.683494E+03	2.805485E-16	3.838341E-18
4.693354E+03	2.775497E-16	3.781662E-18
4.703214E+03	2.729456E-16	3.703541E-18
4.713074E+03	2.667580E-16	3.604542E-18
4.722934E+03	2.590614E-16	3.485936E-18
4.732794E+03	2.500196E-16	3.350173E-18
4.742654E+03	2.398762E-16	3.200731E-18
4.752514E+03	2.289696E-16	3.042294E-18
4.762374E+03	2.176924E-16	2.880183E-18
4.772234E+03	2.064399E-16	2.719672E-18
4.782094E+03	1.956003E-16	2.565847E-18
4.791954E+03	1.855101E-16	2.423033E-18
4.801814E+03	1.764666E-16	2.294971E-18
4.811674E+03	1.687031E-16	2.184505E-18
4.821534E+03	1.624108E-16	2.093883E-18
4.831394E+03	1.577376E-16	2.024756E-18
4.841254E+03	1.548082E-16	1.978444E-18
4.851114E+03	1.537296E-16	1.956013E-18
4.860974E+03	1.546082E-16	1.958500E-18
4.870834E+03	1.575430E-16	1.986825E-18
4.880694E+03	1.626380E-16	2.041947E-18
4.890554E+03	1.699811E-16	2.124601E-18
4.900414E+03	1.796311E-16	2.235143E-18
4.910274E+03	1.915815E-16	2.373104E-18
4.920134E+03	2.057283E-16	2.536818E-18
4.929994E+03	2.218271E-16	2.722921E-18
4.939854E+03	2.394325E-16	2.925643E-18
4.949714E+03	2.578674E-16	3.136502E-18
4.959574E+03	2.761937E-16	3.344003E-18
4.969434E+03	2.932813E-16	3.534550E-18
4.979294E+03	3.079156E-16	3.693787E-18
4.989154E+03	3.189901E-16	3.808912E-18
4.999014E+03	3.256901E-16	3.870844E-18
5.008874E+03	3.277065E-16	3.876654E-18
5.018734E+03	3.253218E-16	3.830452E-18
5.028594E+03	3.193031E-16	3.741957E-18
5.038454E+03	3.107026E-16	3.624045E-18
5.048314E+03	3.006629E-16	3.490407E-18
5.058174E+03	2.902395E-16	3.353473E-18
5.068034E+03	2.802823E-16	3.223078E-18
5.077894E+03	2.713840E-16	3.105928E-18
5.087754E+03	2.639075E-16	3.005980E-18
5.097614E+03	2.580071E-16	2.924751E-18
5.107474E+03	2.536651E-16	2.861783E-18
5.117334E+03	2.507614E-16	2.815473E-18
5.127194E+03	2.491092E-16	2.783504E-18
5.137054E+03	2.485058E-16	2.763417E-18
5.146914E+03	2.487608E-16	2.752940E-18
5.156774E+03	2.497069E-16	2.750095E-18
5.166634E+03	2.512327E-16	2.753553E-18
5.176494E+03	2.532711E-16	2.762493E-18
5.186354E+03	2.558047E-16	2.776648E-18
5.196214E+03	2.588505E-16	2.796128E-18
5.206074E+03	2.624463E-16	2.821262E-18
5.215934E+03	2.666281E-16	2.852356E-18
5.225794E+03	2.714189E-16	2.889567E-18
5.235654E+03	2.768162E-16	2.932783E-18
5.245514E+03	2.827745E-16	2.981437E-18
5.255374E+03	2.892094E-16	3.034564E-18
5.265234E+03	2.959838E-16	3.090671E-18
5.275094E+03	3.029199E-16	3.147866E-18
5.284954E+03	3.098040E-16	3.203926E-18
5.294814E+03	3.163850E-16	3.256283E-18
5.304674E+03	3.224098E-16	3.302403E-18
5.314534E+03	3.276196E-16	3.339736E-18
5.324394E+03	3.317831E-16	3.366069E-18
5.334254E+03	3.347370E-16	3.379910E-18
5.344114E+03	3.363895E-16	3.380523E-18
5.353974E+03	3.367686E-16	3.368377E-18
5.363834E+03	3.360347E-16	3.345257E-18
5.373694E+03	3.344993E-16	3.314410E-18
5.383554E+03	3.326042E-16	3.280305E-18
5.393414E+03	3.309131E-16	3.248530E-18
5.403274E+03	3.300446E-16	3.225102E-18
5.413134E+03	3.305706E-16	3.215476E-18
5.422993E+03	3.328315E-16	3.222767E-18
5.432853E+03	3.368691E-16	3.247156E-18
5.442713E+03	3.424839E-16	3.286505E-18
5.452573E+03	3.493508E-16	3.337510E-18
5.462433E+03	3.570612E-16	3.396135E-18
5.472293E+03	3.651547E-16	3.457923E-18
5.482153E+03	3.731172E-16	3.517989E-18
5.492013E+03	3.803789E-16	3.571011E-18
5.501873E+03	3.863620E-16	3.611681E-18
5.511733E+03	3.905042E-16	3.634927E-18
5.521593E+03	3.923096E-16	3.636373E-18
5.531453E+03	3.913834E-16	3.612653E-18
5.541313E+03	3.875209E-16	3.562198E-18
5.551173E+03	3.807141E-16	3.485263E-18
5.561033E+03	3.711570E-16	3.383943E-18
5.570893E+03	3.591707E-16	3.261442E-18
5.580753E+03	3.451963E-16	3.122003E-18
5.590613E+03	3.297334E-16	2.970321E-18
5.600473E+03	3.133168E-16	2.811333E-18
5.610333E+03	2.964967E-16	2.650037E-18
5.620193E+03	2.798149E-16	2.491274E-18
5.630053E+03	2.637869E-16	2.339579E-18
5.639913E+03	2.489019E-16	2.199186E-18
5.649773E+03	2.355823E-16	2.073677E-18
5.659633E+03	2.241800E-16	1.965966E-18
5.669493E+03	2.149628E-16	1.878185E-18
5.679353E+03	2.081371E-16	1.811911E-18
5.689213E+03	2.038573E-16	1.768243E-18
5.699073E+03	2.022389E-16	1.747935E-18
5.708933E+03	2.033759E-16	1.751545E-18
5.718793E+03	2.073580E-16	1.779594E-18
5.728653E+03	2.142521E-16	1.832400E-18
5.738513E+03	2.241092E-16	1.910151E-18
5.748373E+03	2.369507E-16	2.012778E-18
5.758233E+03	2.527376E-16	2.139715E-18
5.768093E+03	2.713489E-16	2.289710E-18
5.777953E+03	2.925389E-16	2.460486E-18
5.787813E+03	3.159146E-16	2.648566E-18
5.797673E+03	3.409055E-16	2.849037E-18
5.807533E+03	3.667711E-16	3.055639E-18
5.817393E+03	3.926353E-16	3.261064E-18
5.827253E+03	4.175335E-16	3.457362E-18
5.837113E+03	4.405052E-16	3.636713E-18
5.846973E+03	4.607078E-16	3.792360E-18
5.856833E+03	4.774978E-16	3.919253E-18
5.866693E+03	4.904653E-16	4.014309E-18
5.876553E+03	4.995158E-16	4.077043E-18
5.886413E+03	5.047863E-16	4.108855E-18
5.896273E+03	5.066378E-16	4.112937E-18
5.906133E+03	5.055466E-16	4.093378E-18
5.915993E+03	5.020501E-16	4.054703E-18
5.925853E+03	4.966275E-16	4.000922E-18
5.935713E+03	4.896615E-16	3.935222E-18
5.945573E+03	4.814369E-16	3.859970E-18
5.955433E+03	4.721547E-16	3.776834E-18
5.965293E+03	4.619737E-16	3.687131E-18
5.975153E+03	4.510345E-16	3.592014E-18
5.985013E+03	4.395187E-16	3.492952E-18
5.994873E+03	4.276764E-16	3.391940E-18
6.004733E+03	4.157932E-16	3.291238E-18
6.014593E+03	4.041604E-16	3.193132E-18
6.024453E+03	3.930582E-16	3.099802E-18
6.034313E+03	3.827310E-16	3.013132E-18
6.044173E+03	3.733657E-16	2.934545E-18
6.054033E+03	3.650847E-16	2.864949E-18
6.063893E+03	3.579527E-16	2.804797E-18
6.073753E+03	3.520023E-16	2.754295E-18
6.083613E+03	3.472268E-16	2.713341E-18
6.093473E+03	3.435927E-16	2.681632E-18
6.103333E+03	3.410414E-16	2.658674E-18
6.113193E+03	3.394866E-16	2.643763E-18
6.123053E+03	3.388134E-16	2.635982E-18
6.132913E+03	3.388911E-16	2.634295E-18
6.142773E+03	3.395672E-16	2.637502E-18
6.152633E+03	3.406708E-16	2.644257E-18
6.162493E+03	3.420191E-16	2.653132E-18
6.172353E+03	3.434176E-16	2.662607E-18
6.182213E+03	3.446684E-16	2.671145E-18
6.192073E+03	3.456009E-16	2.677418E-18
6.201933E+03	3.460538E-16	2.680174E-18
6.211793E+03	3.459323E-16	2.678674E-18
6.221653E+03	3.451879E-16	2.672535E-18
6.231513E+03	3.438424E-16	2.661922E-18
6.241373E+03	3.419663E-16	2.647369E-18
6.251232E+03	3.396829E-16	2.629822E-18
6.261092E+03	3.371182E-16	2.610242E-18
6.270952E+03	3.344097E-16	2.589685E-18
6.280812E+03	3.316668E-16	2.568986E-18
6.290672E+03	3.289623E-16	2.548698E-18
6.300532E+03	3.263323E-16	2.529091E-18
6.310392E+03	3.237565E-16	2.509997E-18
6.320252E+03	3.211792E-16	2.490977E-18
6.330112E+03	3.185041E-16	2.471274E-18
6.339972E+03	3.156046E-16	2.449894E-18
6.349832E+03	3.123391E-16	2.425728E-18
6.359692E+03	3.085755E-16	2.397737E-18
6.369552E+03	3.041863E-16	2.364914E-18
6.379412E+03	2.990877E-16	2.326593E-18
6.389272E+03	2.932371E-16	2.282422E-18
6.399132E+03	2.866677E-16	2.232643E-18
6.408992E+03	2.794803E-16	2.178023E-18
6.418852E+03	2.718594E-16	2.119984E-18
6.428712E+03	2.640575E-16	2.060484E-18
6.438572E+03	2.564043E-16	2.002088E-18
6.448432E+03	2.492537E-16	1.947557E-18
6.458292E+03	2.429612E-16	1.899674E-18
6.468152E+03	2.378650E-16	1.861093E-18
6.478012E+03	2.342743E-16	1.834253E-18
6.487872E+03	2.324471E-16	1.821194E-18
6.497732E+03	2.325964E-16	1.823613E-18
6.507592E+03	2.348903E-16	1.842856E-18
6.517452E+03	2.394561E-16	1.879957E-18
6.527312E+03	2.463733E-16	1.935571E-18
6.537172E+03	2.556679E-16	2.009939E-18
6.547032E+03	2.672931E-16	2.102726E-18
6.556892E+03	2.811030E-16	2.212816E-18
6.566752E+03	2.968422E-16	2.338227E-18
6.576612E+03	3.141311E-16	2.475991E-18
6.586472E+03	3.324457E-16	2.621991E-18
6.596332E+03	3.511564E-16	2.771270E-18
6.606192E+03	3.695892E-16	2.918503E-18
6.616052E+03	3.870819E-16	3.058446E-18
6.625912E+03	4.030343E-16	3.186336E-18
6.635772E+03	4.169646E-16	3.298334E-18
6.645632E+03	4.285245E-16	3.391651E-18
6.655492E+03	4.374985E-16	3.464545E-18
6.665352E+03	4.437885E-16	3.516201E-18
6.675212E+03	4.473912E-16	3.546559E-18
6.685072E+03	4.483612E-16	3.556017E-18
6.694932E+03	4.468203E-16	3.545511E-18
6.704792E+03	4.429101E-16	3.516136E-18
6.714652E+03	4.368160E-16	3.469341E-18
6.724512E+03	4.287439E-16	3.406742E-18
6.734372E+03	4.189051E-16	3.330001E-18
6.744232E+03	4.075487E-16	3.241085E-18
6.754092E+03	3.949488E-16	3.142166E-18
6.763952E+03	3.813988E-16	3.035571E-18
6.773812E+03	3.672260E-16	2.923903E-18
6.783672E+03	3.527899E-16	2.810025E-18
6.793532E+03	3.384795E-16	2.697041E-18
6.803392E+03	3.246839E-16	2.588057E-18
6.813252E+03	3.117892E-16	2.486164E-18
6.823112E+03	3.001677E-16	2.394342E-18
6.832972E+03	2.901475E-16	2.315223E-18
6.842832E+03	2.820147E-16	2.251112E-18
6.852692E+03	2.759976E-16	2.203847E-18
6.862552E+03	2.722760E-16	2.174888E-18
6.872412E+03	2.709755E-16	2.165259E-18
6.882272E+03	2.721591E-16	2.175489E-18
6.892132E+03	2.758356E-16	2.205674E-18
6.901992E+03	2.819855E-16	2.255683E-18
6.911852E+03	2.905146E-16	2.324790E-18
6.921712E+03	3.012796E-16	2.411877E-18
6.931572E+03	3.140430E-16	2.515071E-18
6.941432E+03	3.284446E-16	2.631514E-18
6.951292E+03	3.440107E-16	2.757441E-18
6.961152E+03	3.601255E-16	2.887936E-18
6.971012E+03	3.760636E-16	3.017203E-18
6.980872E+03	3.910242E-16	3.138827E-18
6.990732E+03	4.042375E-16	3.246632E-18
7.000592E+03	4.150586E-16	3.335429E-18
7.010452E+03	4.230306E-16	3.401530E-18
7.020312E+03	4.279298E-16	3.443110E-18
7.030172E+03	4.297956E-16	3.460453E-18
7.040032E+03	4.288773E-16	3.455530E-18
7.049892E+03	4.256143E-16	3.431844E-18
7.059752E+03	4.205337E-16	3.393615E-18
7.069612E+03	4.142216E-16	3.345543E-18
7.079472E+03	4.072459E-16	3.292196E-18
7.089331E+03	4.001014E-16	3.237567E-18
7.099191E+03	3.932201E-16	3.185148E-18
7.109051E+03	3.869408E-16	3.137696E-18
7.118911E+03	3.815156E-16	3.097273E-18
7.128771E+03	3.771112E-16	3.065260E-18
7.138631E+03	3.738329E-16	3.042545E-18
7.148491E+03	3.716971E-16	3.029305E-18
7.158351E+03	3.706791E-16	3.025381E-18
7.168211E+03	3.707029E-16	3.030199E-18
7.178071E+03	3.716715E-16	3.043017E-18
7.187931E+03	3.734399E-16	3.062694E-18
7.197791E+03	3.758507E-16	3.087986E-18
7.207651E+03	3.787186E-16	3.117411E-18
7.217511E+03	3.818349E-16	3.149289E-18
7.227371E+03	3.849933E-16	3.181944E-18
7.237231E+03	3.879596E-16	3.213459E-18
7.247091E+03	3.905404E-16	3.242236E-18
7.256951E+03	3.925556E-16	3.266774E-18
7.266811E+03	3.938732E-16	3.285952E-18
7.276671E+03	3.944193E-16	3.299128E-18
7.286531E+03	3.941537E-16	3.305922E-18
7.296391E+03	3.930848E-16	3.306362E-18
7.306251E+03	3.912476E-16	3.300693E-18
7.316111E+03	3.886910E-16	3.289275E-18
7.325971E+03	3.855022E-16	3.272793E-18
7.335831E+03	3.817574E-16	3.251846E-18
7.345691E+03	3.775490E-16	3.227171E-18
7.355551E+03	3.729597E-16	3.199432E-18
7.365411E+03	3.680710E-16	3.169287E-18
7.375271E+03	3.629473E-16	3.137254E-18
7.385131E+03	3.576509E-16	3.103830E-18
7.394991E+03	3.522411E-16	3.069488E-18
7.404851E+03	3.467613E-16	3.034567E-18
7.414711E+03	3.412527E-16	2.999396E-18
7.424571E+03	3.357545E-16	2.964290E-18
7.434431E+03	3.302904E-16	2.929435E-18
7.444291E+03	3.248869E-16	2.895045E-18
7.454151E+03	3.195515E-16	2.861168E-18
7.464011E+03	3.143032E-16	2.827961E-18
7.473871E+03	3.091427E-16	2.795417E-18
7.483731E+03	3.040703E-16	2.763526E-18
7.493591E+03	2.990832E-16	2.732254E-18
7.503451E+03	2.941798E-16	2.701575E-18
7.513311E+03	2.893668E-16	2.671542E-18
7.523171E+03	2.846603E-16	2.642297E-18
7.533031E+03	2.800951E-16	2.614160E-18
7.542891E+03	2.756941E-16	2.587351E-18
7.552751E+03	2.714762E-16	2.562053E-18
7.562611E+03	2.674619E-16	2.538472E-18
7.572471E+03	2.636626E-16	2.516735E-18
7.582331E+03	2.600848E-16	2.496924E-18
7.592191E+03	2.567308E-16	2.479081E-18
7.602051E+03	2.535956E-16	2.463184E-18
7.611911E+03	2.506780E-16	2.449244E-18
7.621771E+03	2.479705E-16	2.437214E-18
7.631631E+03	2.454636E-16	2.427025E-18
7.641491E+03	2.431458E-16	2.418586E-18
7.651351E+03	2.410007E-16	2.411759E-18
