#wls	flux	fluxerr
1.577598E+03	9.183020E-19	4.633009E-20
1.617038E+03	9.422464E-19	4.750039E-20
1.656478E+03	9.597319E-19	4.834241E-20
1.695918E+03	9.704020E-19	4.883891E-20
1.735358E+03	9.734360E-19	4.894944E-20
1.774798E+03	9.672683E-19	4.859630E-20
1.814238E+03	9.501306E-19	4.769195E-20
1.853678E+03	9.197825E-19	4.612558E-20
1.893118E+03	8.752289E-19	4.384928E-20
1.932558E+03	8.166939E-19	4.087645E-20
1.971998E+03	7.470863E-19	3.735480E-20
2.011438E+03	6.740022E-19	3.366567E-20
2.050878E+03	6.083697E-19	3.035512E-20
2.090317E+03	5.623004E-19	2.802588E-20
2.129757E+03	5.446795E-19	2.711728E-20
2.169197E+03	5.590773E-19	2.780216E-20
2.208637E+03	6.036941E-19	2.998559E-20
2.248077E+03	6.729157E-19	3.338353E-20
2.287517E+03	7.590696E-19	3.761109E-20
2.326957E+03	8.542232E-19	4.227221E-20
2.366397E+03	9.524437E-19	4.707153E-20
2.405837E+03	1.049410E-18	5.179471E-20
2.445277E+03	1.142974E-18	5.633575E-20
2.484717E+03	1.232002E-18	6.063894E-20
2.524157E+03	1.316405E-18	6.470054E-20
2.563597E+03	1.396851E-18	6.855377E-20
2.603037E+03	1.473825E-18	7.222288E-20
2.642477E+03	1.548147E-18	7.574837E-20
2.681917E+03	1.620957E-18	7.918609E-20
2.721357E+03	1.692875E-18	8.256631E-20
2.760797E+03	1.765063E-18	8.594533E-20
2.800237E+03	1.838101E-18	8.935096E-20
2.839677E+03	1.912839E-18	9.282385E-20
2.879117E+03	1.990134E-18	9.640457E-20
2.918556E+03	2.071196E-18	1.001507E-19
2.957996E+03	2.156957E-18	1.041056E-19
2.967856E+03	2.179009E-18	1.051208E-19
2.977716E+03	2.201402E-18	1.061513E-19
2.987576E+03	2.224520E-18	1.072154E-19
2.997436E+03	2.247702E-18	1.082813E-19
3.007296E+03	2.271525E-18	1.093768E-19
3.017156E+03	2.296595E-18	1.105310E-19
3.027016E+03	2.322114E-18	1.117053E-19
3.036876E+03	2.348833E-18	1.129358E-19
3.046736E+03	2.375956E-18	1.141843E-19
3.056596E+03	2.404392E-18	1.154943E-19
3.066456E+03	2.433706E-18	1.168449E-19
3.076316E+03	2.463452E-18	1.182145E-19
3.086176E+03	2.494398E-18	1.196400E-19
3.096036E+03	2.525704E-18	1.210809E-19
3.105896E+03	2.558162E-18	1.225753E-19
3.115756E+03	2.591340E-18	1.241023E-19
3.125616E+03	2.624795E-18	1.256407E-19
3.135476E+03	2.659363E-18	1.272303E-19
3.145336E+03	2.694606E-18	1.288503E-19
3.155196E+03	2.730075E-18	1.304790E-19
3.165056E+03	2.766648E-18	1.321585E-19
3.174916E+03	2.803884E-18	1.338674E-19
3.184776E+03	2.841784E-18	1.356058E-19
3.194636E+03	2.879887E-18	1.373517E-19
3.204496E+03	2.919124E-18	1.391494E-19
3.214356E+03	2.959046E-18	1.409774E-19
3.224216E+03	2.999664E-18	1.428363E-19
3.234076E+03	3.040990E-18	1.447264E-19
3.243936E+03	3.083045E-18	1.466486E-19
3.253796E+03	3.125841E-18	1.486037E-19
3.263656E+03	3.168892E-18	1.505683E-19
3.273516E+03	3.213235E-18	1.525916E-19
3.283376E+03	3.258392E-18	1.546508E-19
3.293236E+03	3.304388E-18	1.567472E-19
3.303096E+03	3.351250E-18	1.588819E-19
3.312956E+03	3.399015E-18	1.610564E-19
3.322816E+03	3.447707E-18	1.632719E-19
3.332676E+03	3.497367E-18	1.655303E-19
3.342536E+03	3.548028E-18	1.678330E-19
3.352396E+03	3.599730E-18	1.701818E-19
3.362256E+03	3.652511E-18	1.725783E-19
3.372116E+03	3.706412E-18	1.750245E-19
3.381976E+03	3.761483E-18	1.775225E-19
3.391836E+03	3.818371E-18	1.801029E-19
3.401696E+03	3.875917E-18	1.827107E-19
3.411556E+03	3.934770E-18	1.853764E-19
3.421416E+03	3.994980E-18	1.881024E-19
3.431276E+03	4.056601E-18	1.908910E-19
3.441136E+03	4.119690E-18	1.937447E-19
3.450996E+03	4.184298E-18	1.966659E-19
3.460856E+03	4.250491E-18	1.996574E-19
3.470716E+03	4.319010E-18	2.027539E-19
3.480576E+03	4.388559E-18	2.058944E-19
3.490436E+03	4.459877E-18	2.091134E-19
3.500296E+03	4.533029E-18	2.124138E-19
3.510156E+03	4.608091E-18	2.157989E-19
3.520016E+03	4.685868E-18	2.193063E-19
3.529876E+03	4.764966E-18	2.228704E-19
3.539736E+03	4.846192E-18	2.265290E-19
3.549596E+03	4.929617E-18	2.302851E-19
3.559456E+03	5.016120E-18	2.341794E-19
3.569316E+03	5.104211E-18	2.381423E-19
3.579176E+03	5.194750E-18	2.422135E-19
3.589036E+03	5.288659E-18	2.464359E-19
3.598896E+03	5.384378E-18	2.507365E-19
3.608756E+03	5.482814E-18	2.551573E-19
3.618616E+03	5.584065E-18	2.597025E-19
3.628476E+03	5.689111E-18	2.644175E-19
3.638336E+03	5.796290E-18	2.692246E-19
3.648196E+03	5.906574E-18	2.741689E-19
3.658056E+03	6.021009E-18	2.792984E-19
3.667916E+03	6.137833E-18	2.845311E-19
3.677776E+03	6.258076E-18	2.899145E-19
3.687636E+03	6.382846E-18	2.954995E-19
3.697496E+03	6.510274E-18	3.011992E-19
3.707356E+03	6.641454E-18	3.070638E-19
3.717216E+03	6.777553E-18	3.131470E-19
3.727076E+03	6.916594E-18	3.193570E-19
3.736936E+03	7.059730E-18	3.257465E-19
3.746796E+03	7.208195E-18	3.323723E-19
3.756655E+03	7.359891E-18	3.391369E-19
3.766515E+03	7.516035E-18	3.460962E-19
3.776375E+03	7.677930E-18	3.533095E-19
3.786235E+03	7.843344E-18	3.606738E-19
3.796095E+03	8.013558E-18	3.682475E-19
3.805955E+03	8.189953E-18	3.760935E-19
3.815815E+03	8.370142E-18	3.841016E-19
3.825675E+03	8.555479E-18	3.923335E-19
3.835535E+03	8.747422E-18	4.008556E-19
3.845395E+03	8.943417E-18	4.095501E-19
3.855255E+03	9.144887E-18	4.184817E-19
3.865115E+03	9.353375E-18	4.277205E-19
3.874975E+03	9.566139E-18	4.371404E-19
3.884835E+03	9.784674E-18	4.468092E-19
3.894695E+03	1.001061E-17	4.568009E-19
3.904555E+03	1.024100E-17	4.669799E-19
3.914415E+03	1.047742E-17	4.774176E-19
3.924275E+03	1.072157E-17	4.881914E-19
3.934135E+03	1.097029E-17	4.991557E-19
3.943995E+03	1.122522E-17	5.103856E-19
3.953855E+03	1.148817E-17	5.219620E-19
3.963715E+03	1.175571E-17	5.337283E-19
3.973575E+03	1.202957E-17	5.457629E-19
3.983435E+03	1.230977E-17	5.580658E-19
3.993295E+03	1.259822E-17	5.707232E-19
4.003155E+03	1.289113E-17	5.835619E-19
4.013015E+03	1.319034E-17	5.966653E-19
4.022875E+03	1.349582E-17	6.100308E-19
4.032735E+03	1.380959E-17	6.237497E-19
4.042595E+03	1.412746E-17	6.376310E-19
4.052455E+03	1.445137E-17	6.517628E-19
4.062315E+03	1.478122E-17	6.661395E-19
4.072175E+03	1.511689E-17	6.807550E-19
4.082035E+03	1.546058E-17	6.957072E-19
4.091895E+03	1.580749E-17	7.107805E-19
4.101755E+03	1.615974E-17	7.260689E-19
4.111615E+03	1.651713E-17	7.415629E-19
4.121475E+03	1.687943E-17	7.572521E-19
4.131335E+03	1.724641E-17	7.731252E-19
4.141195E+03	1.761780E-17	7.891700E-19
4.151055E+03	1.799603E-17	8.054945E-19
4.160915E+03	1.837546E-17	8.218453E-19
4.170775E+03	1.875840E-17	8.383263E-19
4.180635E+03	1.914452E-17	8.549221E-19
4.190495E+03	1.953347E-17	8.716166E-19
4.200355E+03	1.992488E-17	8.883928E-19
4.210215E+03	2.031836E-17	9.052332E-19
4.220075E+03	2.071351E-17	9.221199E-19
4.229935E+03	2.110991E-17	9.390342E-19
4.239795E+03	2.150714E-17	9.559571E-19
4.249655E+03	2.190477E-17	9.728692E-19
4.259515E+03	2.230236E-17	9.897511E-19
4.269375E+03	2.269609E-17	1.006433E-18
4.279235E+03	2.309221E-17	1.023193E-18
4.289095E+03	2.348696E-17	1.039864E-18
4.298955E+03	2.387991E-17	1.056427E-18
4.308815E+03	2.427062E-17	1.072864E-18
4.318675E+03	2.465871E-17	1.089156E-18
4.328535E+03	2.504007E-17	1.105124E-18
4.338395E+03	2.542174E-17	1.121078E-18
4.348255E+03	2.579976E-17	1.136844E-18
4.358115E+03	2.617388E-17	1.152412E-18
4.367975E+03	2.653995E-17	1.167599E-18
4.377835E+03	2.690557E-17	1.182740E-18
4.387695E+03	2.726671E-17	1.197658E-18
4.397555E+03	2.761915E-17	1.212170E-18
4.407415E+03	2.797089E-17	1.226625E-18
4.417275E+03	2.831782E-17	1.240845E-18
4.427135E+03	2.865567E-17	1.254643E-18
4.436995E+03	2.899281E-17	1.268387E-18
4.446855E+03	2.932077E-17	1.281705E-18
4.456715E+03	2.964812E-17	1.294975E-18
4.466575E+03	2.996627E-17	1.307820E-18
4.476435E+03	3.028405E-17	1.320626E-18
4.486295E+03	3.059270E-17	1.333013E-18
4.496155E+03	3.090127E-17	1.345375E-18
4.506015E+03	3.120089E-17	1.357327E-18
4.515875E+03	3.149619E-17	1.369070E-18
4.525735E+03	3.179200E-17	1.380815E-18
4.535595E+03	3.207926E-17	1.392169E-18
4.545455E+03	3.236278E-17	1.403340E-18
4.555315E+03	3.264754E-17	1.414547E-18
4.565175E+03	3.292430E-17	1.425387E-18
4.575035E+03	3.319801E-17	1.436077E-18
4.584894E+03	3.346894E-17	1.446629E-18
4.594754E+03	3.373736E-17	1.457054E-18
4.604614E+03	3.400850E-17	1.467578E-18
4.614474E+03	3.427277E-17	1.477787E-18
4.624334E+03	3.453537E-17	1.487907E-18
4.634194E+03	3.479661E-17	1.497951E-18
4.644054E+03	3.505677E-17	1.507932E-18
4.653914E+03	3.531617E-17	1.517863E-18
4.663774E+03	3.557511E-17	1.527757E-18
4.673634E+03	3.583390E-17	1.537627E-18
4.683494E+03	3.609285E-17	1.547488E-18
4.693354E+03	3.634700E-17	1.557126E-18
4.703214E+03	3.660714E-17	1.567004E-18
4.713074E+03	3.686836E-17	1.576912E-18
4.722934E+03	3.713096E-17	1.586862E-18
4.732794E+03	3.739522E-17	1.596866E-18
4.742654E+03	3.765601E-17	1.606706E-18
4.752514E+03	3.792447E-17	1.616856E-18
4.762374E+03	3.819545E-17	1.627097E-18
4.772234E+03	3.846374E-17	1.637206E-18
4.782094E+03	3.874055E-17	1.647662E-18
4.791954E+03	3.902075E-17	1.658243E-18
4.801814E+03	3.929887E-17	1.668720E-18
4.811674E+03	3.958642E-17	1.679580E-18
4.821534E+03	3.987231E-17	1.690353E-18
4.831394E+03	4.016816E-17	1.701529E-18
4.841254E+03	4.046267E-17	1.712632E-18
4.851114E+03	4.076767E-17	1.724161E-18
4.860974E+03	4.107159E-17	1.735625E-18
4.870834E+03	4.138046E-17	1.747282E-18
4.880694E+03	4.170038E-17	1.759386E-18
4.890554E+03	4.201963E-17	1.771443E-18
4.900414E+03	4.234419E-17	1.783706E-18
4.910274E+03	4.267418E-17	1.796179E-18
4.920134E+03	4.300970E-17	1.808866E-18
4.929994E+03	4.335697E-17	1.822027E-18
4.939854E+03	4.370374E-17	1.835148E-18
4.949714E+03	4.405618E-17	1.848487E-18
4.959574E+03	4.441423E-17	1.862043E-18
4.969434E+03	4.477792E-17	1.875815E-18
4.979294E+03	4.514720E-17	1.889801E-18
4.989154E+03	4.552203E-17	1.903999E-18
4.999014E+03	4.590226E-17	1.918403E-18
5.008874E+03	4.628785E-17	1.933010E-18
5.018734E+03	4.667861E-17	1.947814E-18
5.028594E+03	4.706770E-17	1.962527E-18
5.038454E+03	4.746831E-17	1.977700E-18
5.048314E+03	4.787355E-17	1.993046E-18
5.058174E+03	4.828317E-17	2.008553E-18
5.068034E+03	4.869002E-17	2.023924E-18
5.077894E+03	4.910755E-17	2.039719E-18
5.087754E+03	4.952863E-17	2.055642E-18
5.097614E+03	4.994582E-17	2.071383E-18
5.107474E+03	5.037287E-17	2.087512E-18
5.117334E+03	5.079510E-17	2.103422E-18
5.127194E+03	5.122651E-17	2.119693E-18
5.137054E+03	5.165216E-17	2.135706E-18
5.146914E+03	5.208619E-17	2.152047E-18
5.156774E+03	5.251340E-17	2.168087E-18
5.166634E+03	5.294805E-17	2.184416E-18
5.176494E+03	5.337473E-17	2.200398E-18
5.186354E+03	5.380031E-17	2.216318E-18
5.196214E+03	5.423194E-17	2.232470E-18
5.206074E+03	5.465363E-17	2.248196E-18
5.215934E+03	5.507248E-17	2.263790E-18
5.225794E+03	5.548788E-17	2.279226E-18
5.235654E+03	5.589915E-17	2.294479E-18
5.245514E+03	5.630570E-17	2.309524E-18
5.255374E+03	5.671488E-17	2.324665E-18
5.265234E+03	5.711006E-17	2.339218E-18
5.275094E+03	5.749857E-17	2.353488E-18
5.284954E+03	5.787975E-17	2.367446E-18
5.294814E+03	5.825298E-17	2.381071E-18
5.304674E+03	5.861755E-17	2.394332E-18
5.314534E+03	5.896454E-17	2.406868E-18
5.324394E+03	5.930992E-17	2.419332E-18
5.334254E+03	5.964478E-17	2.431361E-18
5.344114E+03	5.996857E-17	2.442935E-18
5.353974E+03	6.028063E-17	2.454027E-18
5.363834E+03	6.058046E-17	2.464619E-18
5.373694E+03	6.085894E-17	2.474341E-18
5.383554E+03	6.113269E-17	2.483872E-18
5.393414E+03	6.139267E-17	2.492844E-18
5.403274E+03	6.162989E-17	2.500895E-18
5.413134E+03	6.186129E-17	2.508713E-18
5.422993E+03	6.206926E-17	2.515587E-18
5.432853E+03	6.227114E-17	2.522219E-18
5.442713E+03	6.244942E-17	2.527903E-18
5.452573E+03	6.262169E-17	2.533351E-18
5.462433E+03	6.277042E-17	2.537856E-18
5.472293E+03	6.291346E-17	2.542140E-18
5.482153E+03	6.303335E-17	2.545499E-18
5.492013E+03	6.313912E-17	2.548299E-18
5.501873E+03	6.323995E-17	2.550911E-18
5.511733E+03	6.331839E-17	2.552634E-18
5.521593E+03	6.338362E-17	2.553837E-18
5.531453E+03	6.344489E-17	2.554895E-18
5.541313E+03	6.348478E-17	2.555106E-18
5.551173E+03	6.351263E-17	2.554849E-18
5.561033E+03	6.352879E-17	2.554137E-18
5.570893E+03	6.353376E-17	2.552992E-18
5.580753E+03	6.352786E-17	2.551428E-18
5.590613E+03	6.351167E-17	2.549468E-18
5.600473E+03	6.348551E-17	2.547126E-18
5.610333E+03	6.344987E-17	2.544422E-18
5.620193E+03	6.340524E-17	2.541377E-18
5.630053E+03	6.335202E-17	2.538007E-18
5.639913E+03	6.329072E-17	2.534333E-18
5.649773E+03	6.322168E-17	2.530369E-18
5.659633E+03	6.314545E-17	2.526137E-18
5.669493E+03	6.306231E-17	2.521650E-18
5.679353E+03	6.297276E-17	2.516928E-18
5.689213E+03	6.287711E-17	2.511983E-18
5.699073E+03	6.276701E-17	2.506482E-18
5.708933E+03	6.266040E-17	2.501142E-18
5.718793E+03	6.254873E-17	2.495622E-18
5.728653E+03	6.242363E-17	2.489588E-18
5.738513E+03	6.230290E-17	2.483750E-18
5.748373E+03	6.217801E-17	2.477769E-18
5.758233E+03	6.204053E-17	2.471309E-18
5.768093E+03	6.190801E-17	2.465068E-18
5.777953E+03	6.176332E-17	2.458366E-18
5.787813E+03	6.162399E-17	2.451900E-18
5.797673E+03	6.147278E-17	2.444984E-18
5.807533E+03	6.132706E-17	2.438310E-18
5.817393E+03	6.116981E-17	2.431199E-18
5.827253E+03	6.101812E-17	2.424333E-18
5.837113E+03	6.085494E-17	2.417034E-18
5.846973E+03	6.069740E-17	2.409981E-18
5.856833E+03	6.052844E-17	2.402498E-18
5.866693E+03	6.035647E-17	2.394919E-18
5.876553E+03	6.018997E-17	2.387580E-18
5.886413E+03	6.001193E-17	2.379808E-18
5.896273E+03	5.983073E-17	2.371933E-18
5.906133E+03	5.964620E-17	2.363949E-18
5.915993E+03	5.946654E-17	2.356182E-18
5.925853E+03	5.927500E-17	2.347968E-18
5.935713E+03	5.907972E-17	2.339629E-18
5.945573E+03	5.888058E-17	2.331161E-18
5.955433E+03	5.867733E-17	2.322554E-18
5.965293E+03	5.846979E-17	2.313800E-18
5.975153E+03	5.825781E-17	2.304895E-18
5.985013E+03	5.804934E-17	2.296152E-18
5.994873E+03	5.782779E-17	2.286915E-18
6.004733E+03	5.760124E-17	2.277504E-18
6.014593E+03	5.736947E-17	2.267911E-18
6.024453E+03	5.713222E-17	2.258124E-18
6.034313E+03	5.688141E-17	2.247826E-18
6.044173E+03	5.663274E-17	2.237635E-18
6.054033E+03	5.637815E-17	2.227234E-18
6.063893E+03	5.611736E-17	2.216612E-18
6.073753E+03	5.585034E-17	2.205767E-18
6.083613E+03	5.557685E-17	2.194689E-18
6.093473E+03	5.529681E-17	2.183374E-18
6.103333E+03	5.501011E-17	2.171818E-18
6.113193E+03	5.470908E-17	2.159718E-18
6.123053E+03	5.440897E-17	2.147675E-18
6.132913E+03	5.410205E-17	2.135383E-18
6.142773E+03	5.378843E-17	2.122846E-18
6.152633E+03	5.346068E-17	2.109772E-18
6.162493E+03	5.313401E-17	2.096759E-18
6.172353E+03	5.280117E-17	2.083520E-18
6.182213E+03	5.245508E-17	2.069777E-18
6.192073E+03	5.211086E-17	2.056125E-18
6.201933E+03	5.175426E-17	2.042001E-18
6.211793E+03	5.140025E-17	2.027996E-18
6.221653E+03	5.104194E-17	2.013837E-18
6.231513E+03	5.067269E-17	1.999262E-18
6.241373E+03	5.030719E-17	1.984849E-18
6.251232E+03	4.993177E-17	1.970060E-18
6.261092E+03	4.956092E-17	1.955464E-18
6.270952E+03	4.918118E-17	1.940531E-18
6.280812E+03	4.880683E-17	1.925823E-18
6.290672E+03	4.842463E-17	1.910819E-18
6.300532E+03	4.804193E-17	1.895806E-18
6.310392E+03	4.766586E-17	1.881066E-18
6.320252E+03	4.728348E-17	1.866088E-18
6.330112E+03	4.690853E-17	1.851415E-18
6.339972E+03	4.652828E-17	1.836542E-18
6.349832E+03	4.614978E-17	1.821747E-18
6.359692E+03	4.577987E-17	1.807301E-18
6.369552E+03	4.540610E-17	1.792711E-18
6.379412E+03	4.503535E-17	1.778249E-18
6.389272E+03	4.466800E-17	1.763930E-18
6.399132E+03	4.431068E-17	1.750014E-18
6.408992E+03	4.395128E-17	1.736023E-18
6.418852E+03	4.359644E-17	1.722219E-18
6.428712E+03	4.324651E-17	1.708616E-18
6.438572E+03	4.290785E-17	1.695465E-18
6.448432E+03	4.256872E-17	1.682301E-18
6.458292E+03	4.223549E-17	1.669377E-18
6.468152E+03	4.190848E-17	1.656703E-18
6.478012E+03	4.158798E-17	1.644292E-18
6.487872E+03	4.127426E-17	1.632155E-18
6.497732E+03	4.096760E-17	1.620301E-18
6.507592E+03	4.066826E-17	1.608742E-18
6.517452E+03	4.037648E-17	1.597486E-18
6.527312E+03	4.009812E-17	1.586766E-18
6.537172E+03	3.982210E-17	1.576143E-18
6.547032E+03	3.955431E-17	1.565849E-18
6.556892E+03	3.929493E-17	1.555892E-18
6.566752E+03	3.904416E-17	1.546281E-18
6.576612E+03	3.879673E-17	1.536805E-18
6.586472E+03	3.856372E-17	1.527904E-18
6.596332E+03	3.833982E-17	1.519368E-18
6.606192E+03	3.812516E-17	1.511202E-18
6.616052E+03	3.791989E-17	1.503411E-18
6.625912E+03	3.772413E-17	1.496002E-18
6.635772E+03	3.753801E-17	1.488978E-18
6.645632E+03	3.736163E-17	1.482345E-18
6.655492E+03	3.719510E-17	1.476106E-18
6.665352E+03	3.703330E-17	1.470058E-18
6.675212E+03	3.688677E-17	1.464621E-18
6.685072E+03	3.675034E-17	1.459588E-18
6.694932E+03	3.662410E-17	1.454965E-18
6.704792E+03	3.650812E-17	1.450753E-18
6.714652E+03	3.639732E-17	1.446752E-18
6.724512E+03	3.630204E-17	1.443372E-18
6.734372E+03	3.621718E-17	1.440410E-18
6.744232E+03	3.614279E-17	1.437870E-18
6.754092E+03	3.607381E-17	1.435550E-18
6.763952E+03	3.602046E-17	1.433858E-18
6.773812E+03	3.597766E-17	1.432591E-18
6.783672E+03	3.594038E-17	1.431549E-18
6.793532E+03	3.591876E-17	1.431137E-18
6.803392E+03	3.590775E-17	1.431153E-18
6.813252E+03	3.590228E-17	1.431397E-18
6.823112E+03	3.591247E-17	1.432272E-18
6.832972E+03	3.592818E-17	1.433374E-18
6.842832E+03	3.595953E-17	1.435107E-18
6.852692E+03	3.599635E-17	1.437065E-18
6.862552E+03	3.604876E-17	1.439654E-18
6.872412E+03	3.611165E-17	1.442670E-18
6.882272E+03	3.617985E-17	1.445907E-18
6.892132E+03	3.626353E-17	1.449770E-18
6.901992E+03	3.635239E-17	1.453850E-18
6.911852E+03	3.645660E-17	1.458554E-18
6.921712E+03	3.656579E-17	1.463467E-18
6.931572E+03	3.668500E-17	1.468791E-18
6.941432E+03	3.681931E-17	1.474730E-18
6.951292E+03	3.695823E-17	1.480865E-18
6.961152E+03	3.711204E-17	1.487608E-18
6.971012E+03	3.727011E-17	1.494535E-18
6.980872E+03	3.743752E-17	1.501847E-18
6.990732E+03	3.761940E-17	1.509753E-18
7.000592E+03	3.780494E-17	1.517820E-18
7.010452E+03	3.799921E-17	1.526250E-18
7.020312E+03	3.820740E-17	1.535254E-18
7.030172E+03	3.841846E-17	1.544387E-18
7.040032E+03	3.863750E-17	1.553857E-18
7.049892E+03	3.886974E-17	1.563872E-18
7.059752E+03	3.910387E-17	1.573980E-18
7.069612E+03	3.934504E-17	1.584387E-18
7.079472E+03	3.959287E-17	1.595080E-18
7.089331E+03	3.985265E-17	1.606271E-18
7.099191E+03	4.011267E-17	1.617489E-18
7.109051E+03	4.037812E-17	1.628945E-18
7.118911E+03	4.064854E-17	1.640620E-18
7.128771E+03	4.092342E-17	1.652493E-18
7.138631E+03	4.120224E-17	1.664545E-18
7.148491E+03	4.149035E-17	1.676993E-18
7.158351E+03	4.177541E-17	1.689337E-18
7.168211E+03	4.206266E-17	1.701791E-18
7.178071E+03	4.235147E-17	1.714328E-18
7.187931E+03	4.264114E-17	1.726922E-18
7.197791E+03	4.293100E-17	1.739544E-18
7.207651E+03	4.322030E-17	1.752166E-18
7.217511E+03	4.350828E-17	1.764756E-18
7.227371E+03	4.379415E-17	1.777283E-18
7.237231E+03	4.407709E-17	1.789714E-18
7.247091E+03	4.435627E-17	1.802014E-18
7.256951E+03	4.463079E-17	1.814148E-18
7.266811E+03	4.489979E-17	1.826080E-18
7.276671E+03	4.516233E-17	1.837773E-18
7.286531E+03	4.541750E-17	1.849188E-18
7.296391E+03	4.566433E-17	1.860287E-18
7.306251E+03	4.590186E-17	1.871030E-18
7.316111E+03	4.612913E-17	1.881377E-18
7.325971E+03	4.633851E-17	1.891016E-18
7.335831E+03	4.654223E-17	1.900446E-18
7.345691E+03	4.673273E-17	1.909358E-18
7.355551E+03	4.690900E-17	1.917711E-18
7.365411E+03	4.707008E-17	1.925463E-18
7.375271E+03	4.721500E-17	1.932574E-18
7.385131E+03	4.733605E-17	1.938728E-18
7.394991E+03	4.744582E-17	1.944439E-18
7.404851E+03	4.753668E-17	1.949393E-18
7.414711E+03	4.760778E-17	1.953555E-18
7.424571E+03	4.765147E-17	1.956608E-18
7.434431E+03	4.768065E-17	1.959080E-18
7.444291E+03	4.768781E-17	1.960661E-18
7.454151E+03	4.766545E-17	1.961041E-18
7.464011E+03	4.762672E-17	1.960757E-18
7.473871E+03	4.756428E-17	1.959507E-18
7.483731E+03	4.747093E-17	1.956991E-18
7.493591E+03	4.736003E-17	1.953758E-18
7.503451E+03	4.721785E-17	1.949238E-18
7.513311E+03	4.705798E-17	1.943990E-18
7.523171E+03	4.687382E-17	1.937740E-18
7.533031E+03	4.665901E-17	1.930222E-18
7.542891E+03	4.642749E-17	1.922010E-18
7.552751E+03	4.616646E-17	1.912572E-18
7.562611E+03	4.588993E-17	1.902485E-18
7.572471E+03	4.558540E-17	1.891229E-18
7.582331E+03	4.526684E-17	1.879382E-18
7.592191E+03	4.492204E-17	1.866435E-18
7.602051E+03	4.455846E-17	1.852694E-18
7.611911E+03	4.418345E-17	1.838463E-18
7.621771E+03	4.378516E-17	1.823249E-18
7.631631E+03	4.337728E-17	1.807618E-18
7.641491E+03	4.294824E-17	1.791086E-18
7.651351E+03	4.250539E-17	1.773959E-18
