#wls	flux	fluxerr
1.577598E+03	5.507901E-19	2.994708E-20
1.617038E+03	5.648256E-19	3.069085E-20
1.656478E+03	5.750351E-19	3.122537E-20
1.695918E+03	5.812215E-19	3.154030E-20
1.735358E+03	5.828008E-19	3.160440E-20
1.774798E+03	5.789524E-19	3.137367E-20
1.814238E+03	5.685274E-19	3.078654E-20
1.853678E+03	5.504914E-19	2.978782E-20
1.893118E+03	5.238494E-19	2.832467E-20
1.932558E+03	4.889301E-19	2.641597E-20
1.971998E+03	4.475314E-19	2.415994E-20
2.011438E+03	4.039404E-19	2.178879E-20
2.050878E+03	3.649224E-19	1.966756E-20
2.090317E+03	3.376004E-19	1.817933E-20
2.129757E+03	3.274022E-19	1.761455E-20
2.169197E+03	3.365312E-19	1.808926E-20
2.208637E+03	3.639930E-19	1.954716E-20
2.248077E+03	4.064388E-19	2.180575E-20
2.287517E+03	4.593158E-19	2.461853E-20
2.326957E+03	5.181552E-19	2.774437E-20
2.366397E+03	5.790874E-19	3.097510E-20
2.405837E+03	6.398084E-19	3.418701E-20
2.445277E+03	6.987026E-19	3.729366E-20
2.484717E+03	7.554263E-19	4.027679E-20
2.524157E+03	8.096698E-19	4.312006E-20
2.563597E+03	8.619657E-19	4.585201E-20
2.603037E+03	9.125958E-19	4.848775E-20
2.642477E+03	9.620488E-19	5.105330E-20
2.681917E+03	1.010840E-18	5.357597E-20
2.721357E+03	1.059488E-18	5.608312E-20
2.760797E+03	1.108506E-18	5.860172E-20
2.800237E+03	1.158404E-18	6.115831E-20
2.839677E+03	1.209688E-18	6.377924E-20
2.879117E+03	1.262872E-18	6.649097E-20
2.918556E+03	1.318713E-18	6.933266E-20
2.957996E+03	1.377303E-18	7.230829E-20
2.967856E+03	1.392482E-18	7.307834E-20
2.977716E+03	1.407891E-18	7.385978E-20
2.987576E+03	1.423792E-18	7.466623E-20
2.997436E+03	1.439729E-18	7.547390E-20
3.007296E+03	1.456090E-18	7.630297E-20
3.017156E+03	1.473018E-18	7.716095E-20
3.027016E+03	1.490486E-18	7.804643E-20
3.036876E+03	1.508488E-18	7.895903E-20
3.046736E+03	1.527009E-18	7.989792E-20
3.056596E+03	1.546131E-18	8.086733E-20
3.066456E+03	1.566100E-18	8.188011E-20
3.076316E+03	1.586343E-18	8.290626E-20
3.086176E+03	1.607110E-18	8.395882E-20
3.096036E+03	1.628382E-18	8.503671E-20
3.105896E+03	1.650141E-18	8.613903E-20
3.115756E+03	1.672375E-18	8.726503E-20
3.125616E+03	1.695070E-18	8.841407E-20
3.135476E+03	1.718521E-18	8.960136E-20
3.145336E+03	1.742121E-18	9.079528E-20
3.155196E+03	1.766163E-18	9.201109E-20
3.165056E+03	1.790645E-18	9.324862E-20
3.174916E+03	1.815567E-18	9.450781E-20
3.184776E+03	1.840929E-18	9.578870E-20
3.194636E+03	1.867062E-18	9.710842E-20
3.204496E+03	1.893322E-18	9.843342E-20
3.214356E+03	1.920038E-18	9.978081E-20
3.224216E+03	1.947219E-18	1.011510E-19
3.234076E+03	1.974874E-18	1.025444E-19
3.243936E+03	2.003014E-18	1.039616E-19
3.253796E+03	2.032009E-18	1.054218E-19
3.263656E+03	2.061166E-18	1.068889E-19
3.273516E+03	2.090853E-18	1.083819E-19
3.283376E+03	2.121086E-18	1.099017E-19
3.293236E+03	2.151885E-18	1.114493E-19
3.303096E+03	2.183649E-18	1.130453E-19
3.312956E+03	2.215644E-18	1.146515E-19
3.322816E+03	2.248266E-18	1.162885E-19
3.332676E+03	2.281540E-18	1.179576E-19
3.342536E+03	2.315491E-18	1.196598E-19
3.352396E+03	2.350554E-18	1.214178E-19
3.362256E+03	2.385943E-18	1.231907E-19
3.372116E+03	2.422088E-18	1.250008E-19
3.381976E+03	2.459021E-18	1.268496E-19
3.391836E+03	2.496771E-18	1.287386E-19
3.401696E+03	2.535812E-18	1.306922E-19
3.411556E+03	2.575300E-18	1.326666E-19
3.421416E+03	2.615701E-18	1.346861E-19
3.431276E+03	2.657056E-18	1.367523E-19
3.441136E+03	2.699866E-18	1.388913E-19
3.450996E+03	2.743236E-18	1.410568E-19
3.460856E+03	2.787666E-18	1.432744E-19
3.470716E+03	2.833201E-18	1.455464E-19
3.480576E+03	2.879875E-18	1.478744E-19
3.490436E+03	2.928241E-18	1.502867E-19
3.500296E+03	2.977333E-18	1.527336E-19
3.510156E+03	3.027696E-18	1.552430E-19
3.520016E+03	3.079372E-18	1.578170E-19
3.529876E+03	3.132955E-18	1.604858E-19
3.539736E+03	3.187413E-18	1.631965E-19
3.549596E+03	3.243326E-18	1.659786E-19
3.559456E+03	3.300745E-18	1.688348E-19
3.569316E+03	3.359726E-18	1.717675E-19
3.579176E+03	3.420909E-18	1.748096E-19
3.589036E+03	3.483173E-18	1.779035E-19
3.598896E+03	3.547153E-18	1.810815E-19
3.608756E+03	3.612910E-18	1.843466E-19
3.618616E+03	3.681135E-18	1.877340E-19
3.628476E+03	3.750622E-18	1.911819E-19
3.638336E+03	3.822058E-18	1.947252E-19
3.648196E+03	3.895501E-18	1.983666E-19
3.658056E+03	3.971704E-18	2.021445E-19
3.667916E+03	4.049363E-18	2.059921E-19
3.677776E+03	4.129218E-18	2.099470E-19
3.687636E+03	4.211335E-18	2.140123E-19
3.697496E+03	4.295778E-18	2.181911E-19
3.707356E+03	4.383371E-18	2.225251E-19
3.717216E+03	4.472681E-18	2.269412E-19
3.727076E+03	4.564518E-18	2.314804E-19
3.736936E+03	4.658950E-18	2.361458E-19
3.746796E+03	4.756872E-18	2.409827E-19
3.756655E+03	4.856725E-18	2.459117E-19
3.766515E+03	4.959380E-18	2.509768E-19
3.776375E+03	5.064911E-18	2.561815E-19
3.786235E+03	5.173387E-18	2.615290E-19
3.796095E+03	5.285794E-18	2.670689E-19
3.805955E+03	5.400390E-18	2.727128E-19
3.815815E+03	5.518143E-18	2.785094E-19
3.825675E+03	5.639117E-18	2.844617E-19
3.835535E+03	5.764380E-18	2.906232E-19
3.845395E+03	5.892026E-18	2.968974E-19
3.855255E+03	6.023094E-18	3.033367E-19
3.865115E+03	6.157650E-18	3.099438E-19
3.874975E+03	6.295755E-18	3.167216E-19
3.884835E+03	6.438577E-18	3.237284E-19
3.894695E+03	6.583976E-18	3.308565E-19
3.904555E+03	6.733093E-18	3.381627E-19
3.914415E+03	6.885975E-18	3.456491E-19
3.924275E+03	7.042671E-18	3.533179E-19
3.934135E+03	7.204463E-18	3.612329E-19
3.943995E+03	7.368932E-18	3.692725E-19
3.953855E+03	7.537320E-18	3.774986E-19
3.963715E+03	7.709658E-18	3.859126E-19
3.973575E+03	7.885961E-18	3.945146E-19
3.983435E+03	8.067633E-18	4.033746E-19
3.993295E+03	8.251928E-18	4.123549E-19
4.003155E+03	8.440206E-18	4.215230E-19
4.013015E+03	8.632447E-18	4.308778E-19
4.022875E+03	8.828632E-18	4.404178E-19
4.032735E+03	9.030284E-18	4.502187E-19
4.042595E+03	9.234286E-18	4.601245E-19
4.052455E+03	9.442104E-18	4.702082E-19
4.062315E+03	9.653670E-18	4.804659E-19
4.072175E+03	9.868905E-18	4.908934E-19
4.082035E+03	1.008772E-17	5.014858E-19
4.091895E+03	1.031177E-17	5.123255E-19
4.101755E+03	1.053744E-17	5.232318E-19
4.111615E+03	1.076633E-17	5.342841E-19
4.121475E+03	1.099828E-17	5.454745E-19
4.131335E+03	1.123312E-17	5.567945E-19
4.141195E+03	1.147068E-17	5.682346E-19
4.151055E+03	1.171076E-17	5.797849E-19
4.160915E+03	1.195518E-17	5.915358E-19
4.170775E+03	1.219966E-17	6.032749E-19
4.180635E+03	1.244597E-17	6.150891E-19
4.190495E+03	1.269383E-17	6.269654E-19
4.200355E+03	1.294298E-17	6.388900E-19
4.210215E+03	1.319312E-17	6.508486E-19
4.220075E+03	1.344395E-17	6.628259E-19
4.229935E+03	1.369752E-17	6.749225E-19
4.239795E+03	1.394883E-17	6.868929E-19
4.249655E+03	1.419987E-17	6.988348E-19
4.259515E+03	1.445032E-17	7.107320E-19
4.269375E+03	1.469984E-17	7.225681E-19
4.279235E+03	1.494809E-17	7.343271E-19
4.289095E+03	1.519476E-17	7.459932E-19
4.298955E+03	1.543953E-17	7.575510E-19
4.308815E+03	1.568210E-17	7.689863E-19
4.318675E+03	1.592220E-17	7.802854E-19
4.328535E+03	1.616232E-17	7.915714E-19
4.338395E+03	1.639675E-17	8.025642E-19
4.348255E+03	1.662801E-17	8.133875E-19
4.358115E+03	1.685593E-17	8.240335E-19
4.367975E+03	1.708036E-17	8.344952E-19
4.377835E+03	1.730118E-17	8.447675E-19
4.387695E+03	1.751832E-17	8.548464E-19
4.397555E+03	1.773171E-17	8.647297E-19
4.407415E+03	1.794132E-17	8.744157E-19
4.417275E+03	1.814714E-17	8.839050E-19
4.427135E+03	1.834919E-17	8.931982E-19
4.436995E+03	1.854751E-17	9.022976E-19
4.446855E+03	1.874215E-17	9.112065E-19
4.456715E+03	1.893318E-17	9.199288E-19
4.466575E+03	1.912070E-17	9.284693E-19
4.476435E+03	1.930482E-17	9.368337E-19
4.486295E+03	1.948566E-17	9.450279E-19
4.496155E+03	1.966334E-17	9.530590E-19
4.506015E+03	1.983803E-17	9.609341E-19
4.515875E+03	2.000986E-17	9.686611E-19
4.525735E+03	2.017901E-17	9.762482E-19
4.535595E+03	2.034564E-17	9.837037E-19
4.545455E+03	2.050993E-17	9.910365E-19
4.555315E+03	2.067207E-17	9.982559E-19
4.565175E+03	2.083223E-17	1.005371E-18
4.575035E+03	2.099062E-17	1.012391E-18
4.584894E+03	2.114743E-17	1.019325E-18
4.594754E+03	2.130284E-17	1.026184E-18
4.604614E+03	2.145707E-17	1.032977E-18
4.614474E+03	2.161030E-17	1.039713E-18
4.624334E+03	2.176273E-17	1.046402E-18
4.634194E+03	2.191456E-17	1.053053E-18
4.644054E+03	2.206599E-17	1.059677E-18
4.653914E+03	2.221721E-17	1.066283E-18
4.663774E+03	2.236461E-17	1.072697E-18
4.673634E+03	2.251597E-17	1.079292E-18
4.683494E+03	2.266769E-17	1.085897E-18
4.693354E+03	2.281996E-17	1.092519E-18
4.703214E+03	2.297297E-17	1.099169E-18
4.713074E+03	2.312688E-17	1.105853E-18
4.722934E+03	2.328187E-17	1.112581E-18
4.732794E+03	2.343812E-17	1.119361E-18
4.742654E+03	2.359579E-17	1.126201E-18
4.752514E+03	2.375101E-17	1.132915E-18
4.762374E+03	2.391197E-17	1.139894E-18
4.772234E+03	2.407481E-17	1.146955E-18
4.782094E+03	2.423968E-17	1.154105E-18
4.791954E+03	2.440673E-17	1.161349E-18
4.801814E+03	2.457608E-17	1.168694E-18
4.811674E+03	2.474366E-17	1.175946E-18
4.821534E+03	2.491797E-17	1.183510E-18
4.831394E+03	2.509494E-17	1.191191E-18
4.841254E+03	2.527469E-17	1.198995E-18
4.851114E+03	2.545730E-17	1.206926E-18
4.860974E+03	2.563853E-17	1.214782E-18
4.870834E+03	2.582713E-17	1.222978E-18
4.880694E+03	2.601886E-17	1.231314E-18
4.890554E+03	2.621378E-17	1.239790E-18
4.900414E+03	2.641195E-17	1.248412E-18
4.910274E+03	2.660892E-17	1.256967E-18
4.920134E+03	2.681371E-17	1.265882E-18
4.929994E+03	2.702188E-17	1.274946E-18
4.939854E+03	2.723344E-17	1.284161E-18
4.949714E+03	2.744377E-17	1.293308E-18
4.959574E+03	2.766211E-17	1.302823E-18
4.969434E+03	2.788385E-17	1.312488E-18
4.979294E+03	2.810897E-17	1.322301E-18
4.989154E+03	2.833263E-17	1.332036E-18
4.999014E+03	2.856433E-17	1.342139E-18
5.008874E+03	2.879927E-17	1.352384E-18
5.018734E+03	2.903245E-17	1.362535E-18
5.028594E+03	2.927357E-17	1.373050E-18
5.038454E+03	2.951766E-17	1.383692E-18
5.048314E+03	2.975956E-17	1.394223E-18
5.058174E+03	3.000916E-17	1.405103E-18
5.068034E+03	3.026133E-17	1.416094E-18
5.077894E+03	3.051074E-17	1.426945E-18
5.087754E+03	3.076749E-17	1.438130E-18
5.097614E+03	3.102626E-17	1.449398E-18
5.107474E+03	3.128156E-17	1.460494E-18
5.117334E+03	3.154367E-17	1.471899E-18
5.127194E+03	3.180712E-17	1.483356E-18
5.137054E+03	3.206621E-17	1.494599E-18
5.146914E+03	3.233145E-17	1.506120E-18
5.156774E+03	3.259167E-17	1.517398E-18
5.166634E+03	3.285751E-17	1.528928E-18
5.176494E+03	3.312318E-17	1.540441E-18
5.186354E+03	3.338269E-17	1.551659E-18
5.196214E+03	3.364692E-17	1.563088E-18
5.206074E+03	3.390416E-17	1.574184E-18
5.215934E+03	3.416543E-17	1.585459E-18
5.225794E+03	3.441885E-17	1.596362E-18
5.235654E+03	3.467557E-17	1.607411E-18
5.245514E+03	3.492352E-17	1.618046E-18
5.255374E+03	3.517403E-17	1.628794E-18
5.265234E+03	3.542082E-17	1.639363E-18
5.275094E+03	3.565746E-17	1.649457E-18
5.284954E+03	3.589552E-17	1.659611E-18
5.294814E+03	3.612253E-17	1.669249E-18
5.304674E+03	3.635024E-17	1.678916E-18
5.314534E+03	3.656606E-17	1.688030E-18
5.324394E+03	3.678195E-17	1.697144E-18
5.334254E+03	3.698519E-17	1.705672E-18
5.344114E+03	3.718796E-17	1.714175E-18
5.353974E+03	3.737747E-17	1.722067E-18
5.363834E+03	3.755977E-17	1.729625E-18
5.373694E+03	3.774105E-17	1.737136E-18
5.383554E+03	3.790848E-17	1.744010E-18
5.393414E+03	3.807474E-17	1.750831E-18
5.403274E+03	3.822697E-17	1.757008E-18
5.413134E+03	3.837802E-17	1.763132E-18
5.422993E+03	3.851492E-17	1.768610E-18
5.432853E+03	3.865038E-17	1.774024E-18
5.442713E+03	3.877111E-17	1.778766E-18
5.452573E+03	3.888340E-17	1.783124E-18
5.462433E+03	3.899361E-17	1.787391E-18
5.472293E+03	3.908846E-17	1.790959E-18
5.482153E+03	3.918101E-17	1.794427E-18
5.492013E+03	3.925802E-17	1.797188E-18
5.501873E+03	3.932605E-17	1.799545E-18
5.511733E+03	3.939179E-17	1.801804E-18
5.521593E+03	3.944204E-17	1.803360E-18
5.531453E+03	3.948354E-17	1.804524E-18
5.541313E+03	3.952309E-17	1.805607E-18
5.551173E+03	3.954755E-17	1.806008E-18
5.561033E+03	3.956378E-17	1.806042E-18
5.570893E+03	3.957865E-17	1.806022E-18
5.580753E+03	3.957907E-17	1.805352E-18
5.590613E+03	3.957195E-17	1.804348E-18
5.600473E+03	3.956422E-17	1.803325E-18
5.610333E+03	3.954281E-17	1.801688E-18
5.620193E+03	3.951466E-17	1.799755E-18
5.630053E+03	3.948669E-17	1.797840E-18
5.639913E+03	3.944585E-17	1.795350E-18
5.649773E+03	3.939909E-17	1.792601E-18
5.659633E+03	3.934665E-17	1.789605E-18
5.669493E+03	3.929542E-17	1.786674E-18
5.679353E+03	3.923238E-17	1.783219E-18
5.689213E+03	3.916443E-17	1.779551E-18
5.699073E+03	3.909177E-17	1.775681E-18
5.708933E+03	3.902120E-17	1.771918E-18
5.718793E+03	3.893978E-17	1.767674E-18
5.728653E+03	3.885427E-17	1.763256E-18
5.738513E+03	3.876487E-17	1.758674E-18
5.748373E+03	3.867824E-17	1.754230E-18
5.758233E+03	3.858152E-17	1.749339E-18
5.768093E+03	3.848135E-17	1.744306E-18
5.777953E+03	3.837788E-17	1.739135E-18
5.787813E+03	3.827121E-17	1.733831E-18
5.797673E+03	3.816786E-17	1.728690E-18
5.807533E+03	3.805506E-17	1.723134E-18
5.817393E+03	3.793932E-17	1.717457E-18
5.827253E+03	3.782069E-17	1.711662E-18
5.837113E+03	3.769923E-17	1.705752E-18
5.846973E+03	3.757497E-17	1.699728E-18
5.856833E+03	3.745424E-17	1.693875E-18
5.866693E+03	3.732442E-17	1.687625E-18
5.876553E+03	3.719183E-17	1.681262E-18
5.886413E+03	3.705648E-17	1.674787E-18
5.896273E+03	3.691834E-17	1.668199E-18
5.906133E+03	3.677740E-17	1.661498E-18
5.915993E+03	3.663362E-17	1.654680E-18
5.925853E+03	3.649310E-17	1.648023E-18
5.935713E+03	3.634352E-17	1.640969E-18
5.945573E+03	3.619098E-17	1.633795E-18
5.955433E+03	3.603546E-17	1.626498E-18
5.965293E+03	3.587690E-17	1.619077E-18
5.975153E+03	3.571528E-17	1.611531E-18
5.985013E+03	3.555055E-17	1.603858E-18
5.994873E+03	3.538270E-17	1.596056E-18
6.004733E+03	3.521170E-17	1.588125E-18
6.014593E+03	3.503755E-17	1.580064E-18
6.024453E+03	3.486026E-17	1.571874E-18
6.034313E+03	3.467985E-17	1.563556E-18
6.044173E+03	3.449635E-17	1.555112E-18
6.054033E+03	3.430984E-17	1.546544E-18
6.063893E+03	3.412614E-17	1.538115E-18
6.073753E+03	3.393384E-17	1.529310E-18
6.083613E+03	3.373886E-17	1.520397E-18
6.093473E+03	3.354135E-17	1.511381E-18
6.103333E+03	3.334150E-17	1.502271E-18
6.113193E+03	3.313953E-17	1.493076E-18
6.123053E+03	3.293567E-17	1.483806E-18
6.132913E+03	3.273017E-17	1.474474E-18
6.142773E+03	3.252330E-17	1.465090E-18
6.152633E+03	3.231533E-17	1.455666E-18
6.162493E+03	3.210642E-17	1.446209E-18
6.172353E+03	3.189655E-17	1.436718E-18
6.182213E+03	3.168035E-17	1.426952E-18
6.192073E+03	3.146851E-17	1.417390E-18
6.201933E+03	3.125567E-17	1.407792E-18
6.211793E+03	3.104188E-17	1.398160E-18
6.221653E+03	3.082718E-17	1.388495E-18
6.231513E+03	3.061168E-17	1.378801E-18
6.241373E+03	3.039548E-17	1.369083E-18
6.251232E+03	3.017872E-17	1.359347E-18
6.261092E+03	2.996156E-17	1.349600E-18
6.270952E+03	2.974418E-17	1.339850E-18
6.280812E+03	2.952677E-17	1.330105E-18
6.290672E+03	2.930955E-17	1.320375E-18
6.300532E+03	2.909273E-17	1.310669E-18
6.310392E+03	2.887652E-17	1.300996E-18
6.320252E+03	2.866116E-17	1.291367E-18
6.330112E+03	2.844210E-17	1.281577E-18
6.339972E+03	2.822917E-17	1.272068E-18
6.349832E+03	2.801779E-17	1.262634E-18
6.359692E+03	2.780817E-17	1.253283E-18
6.369552E+03	2.760054E-17	1.244028E-18
6.379412E+03	2.739513E-17	1.234876E-18
6.389272E+03	2.719213E-17	1.225838E-18
6.399132E+03	2.699176E-17	1.216921E-18
6.408992E+03	2.678971E-17	1.207933E-18
6.418852E+03	2.659521E-17	1.199289E-18
6.428712E+03	2.640390E-17	1.190793E-18
6.438572E+03	2.621596E-17	1.182452E-18
6.448432E+03	2.603155E-17	1.174273E-18
6.458292E+03	2.585083E-17	1.166264E-18
6.468152E+03	2.566962E-17	1.158236E-18
6.478012E+03	2.549673E-17	1.150586E-18
6.487872E+03	2.532795E-17	1.143124E-18
6.497732E+03	2.516340E-17	1.135856E-18
6.507592E+03	2.500318E-17	1.128787E-18
6.517452E+03	2.484323E-17	1.121731E-18
6.527312E+03	2.469203E-17	1.115074E-18
6.537172E+03	2.454547E-17	1.108628E-18
6.547032E+03	2.440363E-17	1.102398E-18
6.556892E+03	2.426659E-17	1.096388E-18
6.566752E+03	2.413036E-17	1.090416E-18
6.576612E+03	2.400315E-17	1.084854E-18
6.586472E+03	2.388094E-17	1.079520E-18
6.596332E+03	2.376378E-17	1.074417E-18
6.606192E+03	2.364774E-17	1.069366E-18
6.616052E+03	2.354084E-17	1.064731E-18
6.625912E+03	2.343912E-17	1.060333E-18
6.635772E+03	2.334261E-17	1.056172E-18
6.645632E+03	2.324744E-17	1.052075E-18
6.655492E+03	2.316147E-17	1.048395E-18
6.665352E+03	2.308078E-17	1.044958E-18
6.675212E+03	2.300540E-17	1.041763E-18
6.685072E+03	2.293148E-17	1.038636E-18
6.694932E+03	2.286677E-17	1.035929E-18
6.704792E+03	2.280740E-17	1.033467E-18
6.714652E+03	2.275336E-17	1.031249E-18
6.724512E+03	2.270085E-17	1.029102E-18
6.734372E+03	2.265750E-17	1.027374E-18
6.744232E+03	2.261949E-17	1.025890E-18
6.754092E+03	2.258300E-17	1.024478E-18
6.763952E+03	2.255562E-17	1.023482E-18
6.773812E+03	2.253355E-17	1.022730E-18
6.783672E+03	2.251295E-17	1.022049E-18
6.793532E+03	2.250141E-17	1.021781E-18
6.803392E+03	2.249509E-17	1.021754E-18
6.813252E+03	2.249019E-17	1.021795E-18
6.823112E+03	2.249425E-17	1.022247E-18
6.832972E+03	2.250344E-17	1.022936E-18
6.842832E+03	2.251394E-17	1.023687E-18
6.852692E+03	2.253329E-17	1.024845E-18
6.862552E+03	2.255764E-17	1.026235E-18
6.872412E+03	2.258315E-17	1.027681E-18
6.882272E+03	2.261736E-17	1.029528E-18
6.892132E+03	2.265642E-17	1.031601E-18
6.901992E+03	2.269644E-17	1.033721E-18
6.911852E+03	2.274499E-17	1.036235E-18
6.921712E+03	2.279433E-17	1.038790E-18
6.931572E+03	2.285207E-17	1.041732E-18
6.941432E+03	2.291428E-17	1.044884E-18
6.951292E+03	2.297700E-17	1.048064E-18
6.961152E+03	2.304788E-17	1.051622E-18
6.971012E+03	2.312292E-17	1.055376E-18
6.980872E+03	2.319812E-17	1.059143E-18
6.990732E+03	2.328117E-17	1.063275E-18
7.000592E+03	2.336410E-17	1.067407E-18
7.010452E+03	2.345463E-17	1.071893E-18
7.020312E+03	2.354472E-17	1.076366E-18
7.030172E+03	2.364216E-17	1.081180E-18
7.040032E+03	2.374280E-17	1.086149E-18
7.049892E+03	2.384247E-17	1.091080E-18
7.059752E+03	2.394900E-17	1.096333E-18
7.069612E+03	2.405412E-17	1.101529E-18
7.079472E+03	2.416575E-17	1.107029E-18
7.089331E+03	2.427550E-17	1.112452E-18
7.099191E+03	2.439134E-17	1.118162E-18
7.109051E+03	2.450893E-17	1.123960E-18
7.118911E+03	2.462387E-17	1.129645E-18
7.128771E+03	2.474419E-17	1.135584E-18
7.138631E+03	2.486125E-17	1.141383E-18
7.148491E+03	2.498314E-17	1.147412E-18
7.158351E+03	2.510115E-17	1.153272E-18
7.168211E+03	2.522339E-17	1.159334E-18
7.178071E+03	2.534104E-17	1.165195E-18
7.187931E+03	2.546228E-17	1.171230E-18
7.197791E+03	2.557819E-17	1.177029E-18
7.207651E+03	2.569699E-17	1.182969E-18
7.217511E+03	2.580964E-17	1.188636E-18
7.227371E+03	2.592443E-17	1.194411E-18
7.237231E+03	2.603223E-17	1.199873E-18
7.247091E+03	2.614138E-17	1.205406E-18
7.256951E+03	2.624264E-17	1.210585E-18
7.266811E+03	2.634441E-17	1.215797E-18
7.276671E+03	2.643737E-17	1.220610E-18
7.286531E+03	2.652999E-17	1.225418E-18
7.296391E+03	2.661284E-17	1.229783E-18
7.306251E+03	2.669447E-17	1.234100E-18
7.316111E+03	2.676539E-17	1.237931E-18
7.325971E+03	2.682965E-17	1.241463E-18
7.335831E+03	2.689136E-17	1.244884E-18
7.345691E+03	2.694098E-17	1.247755E-18
7.355551E+03	2.698719E-17	1.250475E-18
7.365411E+03	2.702046E-17	1.252603E-18
7.375271E+03	2.704952E-17	1.254543E-18
7.385131E+03	2.706486E-17	1.255854E-18
7.394991E+03	2.707528E-17	1.256943E-18
7.404851E+03	2.707130E-17	1.257370E-18
7.414711E+03	2.705724E-17	1.257334E-18
7.424571E+03	2.703743E-17	1.257036E-18
7.434431E+03	2.700252E-17	1.256041E-18
7.444291E+03	2.696150E-17	1.254765E-18
7.454151E+03	2.690513E-17	1.252779E-18
7.464011E+03	2.683796E-17	1.250292E-18
7.473871E+03	2.676449E-17	1.247513E-18
7.483731E+03	2.667571E-17	1.244022E-18
7.493591E+03	2.658075E-17	1.240244E-18
7.503451E+03	2.647074E-17	1.235763E-18
7.513311E+03	2.635035E-17	1.230797E-18
7.523171E+03	2.622407E-17	1.225554E-18
7.533031E+03	2.608304E-17	1.219620E-18
7.542891E+03	2.593182E-17	1.213206E-18
7.552751E+03	2.577493E-17	1.206523E-18
7.562611E+03	2.560377E-17	1.199169E-18
7.572471E+03	2.542730E-17	1.191561E-18
7.582331E+03	2.523714E-17	1.183306E-18
7.592191E+03	2.503795E-17	1.174621E-18
7.602051E+03	2.483430E-17	1.165721E-18
7.611911E+03	2.461812E-17	1.156224E-18
7.621771E+03	2.439407E-17	1.146350E-18
7.631631E+03	2.416670E-17	1.136311E-18
7.641491E+03	2.392823E-17	1.125742E-18
7.651351E+03	2.368327E-17	1.114857E-18
