#wls	flux	fluxerr
1.577598E+03	5.182613E-19	2.826554E-20
1.617038E+03	5.313936E-19	2.896432E-20
1.656478E+03	5.410261E-19	2.947114E-20
1.695918E+03	5.467828E-19	2.976581E-20
1.735358E+03	5.483099E-19	2.982949E-20
1.774798E+03	5.447378E-19	2.961532E-20
1.814238E+03	5.349842E-19	2.906506E-20
1.853678E+03	5.179811E-19	2.812144E-20
1.893118E+03	4.929790E-19	2.674467E-20
1.932558E+03	4.601048E-19	2.494266E-20
1.971998E+03	4.211428E-19	2.281307E-20
2.011438E+03	3.802612E-19	2.058241E-20
2.050878E+03	3.435395E-19	1.857984E-20
2.090317E+03	3.178328E-19	1.717537E-20
2.129757E+03	3.083064E-19	1.664649E-20
2.169197E+03	3.169290E-19	1.709723E-20
2.208637E+03	3.428868E-19	1.848113E-20
2.248077E+03	3.829165E-19	2.061988E-20
2.287517E+03	4.328689E-19	2.328804E-20
2.326957E+03	4.883941E-19	2.625012E-20
2.366397E+03	5.460141E-19	2.931830E-20
2.405837E+03	6.033750E-19	3.236577E-20
2.445277E+03	6.590405E-19	3.531538E-20
2.484717E+03	7.126862E-19	3.814982E-20
2.524157E+03	7.641534E-19	4.086073E-20
2.563597E+03	8.138250E-19	4.346872E-20
2.603037E+03	8.618092E-19	4.597969E-20
2.642477E+03	9.087003E-19	4.842538E-20
2.681917E+03	9.549806E-19	5.083150E-20
2.721357E+03	1.001136E-18	5.322375E-20
2.760797E+03	1.047832E-18	5.563736E-20
2.800237E+03	1.095182E-18	5.807794E-20
2.839677E+03	1.144039E-18	6.059040E-20
2.879117E+03	1.194487E-18	6.317857E-20
2.918556E+03	1.247429E-18	6.588967E-20
2.957996E+03	1.302944E-18	6.872705E-20
2.967856E+03	1.317378E-18	6.946411E-20
2.977716E+03	1.332030E-18	7.021199E-20
2.987576E+03	1.346908E-18	7.097111E-20
2.997436E+03	1.362054E-18	7.174371E-20
3.007296E+03	1.377599E-18	7.253659E-20
3.017156E+03	1.393679E-18	7.335693E-20
3.027016E+03	1.410269E-18	7.420335E-20
3.036876E+03	1.427362E-18	7.507551E-20
3.046736E+03	1.444944E-18	7.597260E-20
3.056596E+03	1.463093E-18	7.689864E-20
3.066456E+03	1.481519E-18	7.783842E-20
3.076316E+03	1.500718E-18	7.881795E-20
3.086176E+03	1.520410E-18	7.982247E-20
3.096036E+03	1.540577E-18	8.085099E-20
3.105896E+03	1.561203E-18	8.190265E-20
3.115756E+03	1.582274E-18	8.297671E-20
3.125616E+03	1.603779E-18	8.407256E-20
3.135476E+03	1.625710E-18	8.518972E-20
3.145336E+03	1.648061E-18	8.632781E-20
3.155196E+03	1.670826E-18	8.748657E-20
3.165056E+03	1.694004E-18	8.866583E-20
3.174916E+03	1.717593E-18	8.986554E-20
3.184776E+03	1.741595E-18	9.108570E-20
3.194636E+03	1.766013E-18	9.232646E-20
3.204496E+03	1.790851E-18	9.358800E-20
3.214356E+03	1.816115E-18	9.487063E-20
3.224216E+03	1.841813E-18	9.617470E-20
3.234076E+03	1.867955E-18	9.750067E-20
3.243936E+03	1.894550E-18	9.884907E-20
3.253796E+03	1.921612E-18	1.002205E-19
3.263656E+03	1.949153E-18	1.016155E-19
3.273516E+03	1.977188E-18	1.030350E-19
3.283376E+03	2.005734E-18	1.044797E-19
3.293236E+03	2.034449E-18	1.059318E-19
3.303096E+03	2.064062E-18	1.074292E-19
3.312956E+03	2.094240E-18	1.089546E-19
3.322816E+03	2.125005E-18	1.105089E-19
3.332676E+03	2.156378E-18	1.120934E-19
3.342536E+03	2.188381E-18	1.137090E-19
3.352396E+03	2.221040E-18	1.153570E-19
3.362256E+03	2.254379E-18	1.170388E-19
3.372116E+03	2.288424E-18	1.187555E-19
3.381976E+03	2.323204E-18	1.205085E-19
3.391836E+03	2.358745E-18	1.222993E-19
3.401696E+03	2.395079E-18	1.241294E-19
3.411556E+03	2.432234E-18	1.260001E-19
3.421416E+03	2.470243E-18	1.279132E-19
3.431276E+03	2.509138E-18	1.298702E-19
3.441136E+03	2.548952E-18	1.318727E-19
3.450996E+03	2.589720E-18	1.339226E-19
3.460856E+03	2.631478E-18	1.360214E-19
3.470716E+03	2.674263E-18	1.381712E-19
3.480576E+03	2.718110E-18	1.403736E-19
3.490436E+03	2.763063E-18	1.426309E-19
3.500296E+03	2.809157E-18	1.449446E-19
3.510156E+03	2.856434E-18	1.473170E-19
3.520016E+03	2.904938E-18	1.497501E-19
3.529876E+03	2.954708E-18	1.522460E-19
3.539736E+03	3.005793E-18	1.548069E-19
3.549596E+03	3.058234E-18	1.574350E-19
3.559456E+03	3.112081E-18	1.601326E-19
3.569316E+03	3.167378E-18	1.629020E-19
3.579176E+03	3.224177E-18	1.657456E-19
3.589036E+03	3.282524E-18	1.686659E-19
3.598896E+03	3.342472E-18	1.716652E-19
3.608756E+03	3.404076E-18	1.747463E-19
3.618616E+03	3.467382E-18	1.779115E-19
3.628476E+03	3.532449E-18	1.811635E-19
3.638336E+03	3.599332E-18	1.845053E-19
3.648196E+03	3.668084E-18	1.879391E-19
3.658056E+03	3.738766E-18	1.914681E-19
3.667916E+03	3.811434E-18	1.950950E-19
3.677776E+03	3.886150E-18	1.988227E-19
3.687636E+03	3.962974E-18	2.026541E-19
3.697496E+03	4.041963E-18	2.065921E-19
3.707356E+03	4.123184E-18	2.106398E-19
3.717216E+03	4.206700E-18	2.148002E-19
3.727076E+03	4.292571E-18	2.190763E-19
3.736936E+03	4.380864E-18	2.234713E-19
3.746796E+03	4.471644E-18	2.279881E-19
3.756655E+03	4.564979E-18	2.326303E-19
3.766515E+03	4.660928E-18	2.374005E-19
3.776375E+03	4.759568E-18	2.423023E-19
3.786235E+03	4.860957E-18	2.473386E-19
3.796095E+03	4.965161E-18	2.525125E-19
3.805955E+03	5.072255E-18	2.578274E-19
3.815815E+03	5.182298E-18	2.632864E-19
3.825675E+03	5.295356E-18	2.688923E-19
3.835535E+03	5.411499E-18	2.746484E-19
3.845395E+03	5.530790E-18	2.805578E-19
3.855255E+03	5.653288E-18	2.866231E-19
3.865115E+03	5.779060E-18	2.928475E-19
3.874975E+03	5.908163E-18	2.992335E-19
3.884835E+03	6.040653E-18	3.057838E-19
3.894695E+03	6.176593E-18	3.125012E-19
3.904555E+03	6.316031E-18	3.193877E-19
3.914415E+03	6.459022E-18	3.264461E-19
3.924275E+03	6.605606E-18	3.336778E-19
3.934135E+03	6.755833E-18	3.410852E-19
3.943995E+03	6.909739E-18	3.486697E-19
3.953855E+03	7.067357E-18	3.564328E-19
3.963715E+03	7.228718E-18	3.643755E-19
3.973575E+03	7.393849E-18	3.724990E-19
3.983435E+03	7.562760E-18	3.808034E-19
3.993295E+03	7.735465E-18	3.892891E-19
4.003155E+03	7.911968E-18	3.979560E-19
4.013015E+03	8.092261E-18	4.068034E-19
4.022875E+03	8.276331E-18	4.158302E-19
4.032735E+03	8.464157E-18	4.250350E-19
4.042595E+03	8.655700E-18	4.344156E-19
4.052455E+03	8.850922E-18	4.439697E-19
4.062315E+03	9.049760E-18	4.536939E-19
4.072175E+03	9.252151E-18	4.635847E-19
4.082035E+03	9.456371E-18	4.735555E-19
4.091895E+03	9.665571E-18	4.837636E-19
4.101755E+03	9.878035E-18	4.941230E-19
4.111615E+03	1.009364E-17	5.046271E-19
4.121475E+03	1.031225E-17	5.152687E-19
4.131335E+03	1.053369E-17	5.260395E-19
4.141195E+03	1.075781E-17	5.369307E-19
4.151055E+03	1.098441E-17	5.479325E-19
4.160915E+03	1.121327E-17	5.590343E-19
4.170775E+03	1.144417E-17	5.702244E-19
4.180635E+03	1.167687E-17	5.814905E-19
4.190495E+03	1.191111E-17	5.928194E-19
4.200355E+03	1.214659E-17	6.041968E-19
4.210215E+03	1.238302E-17	6.156079E-19
4.220075E+03	1.261791E-17	6.269283E-19
4.229935E+03	1.285525E-17	6.383567E-19
4.239795E+03	1.309255E-17	6.497692E-19
4.249655E+03	1.332945E-17	6.611485E-19
4.259515E+03	1.356560E-17	6.724764E-19
4.269375E+03	1.380062E-17	6.837346E-19
4.279235E+03	1.403414E-17	6.949050E-19
4.289095E+03	1.426579E-17	7.059691E-19
4.298955E+03	1.449521E-17	7.169094E-19
4.308815E+03	1.472206E-17	7.277090E-19
4.318675E+03	1.494341E-17	7.382242E-19
4.328535E+03	1.516412E-17	7.486944E-19
4.338395E+03	1.538139E-17	7.589826E-19
4.348255E+03	1.559504E-17	7.690795E-19
4.358115E+03	1.580493E-17	7.789786E-19
4.367975E+03	1.601096E-17	7.886752E-19
4.377835E+03	1.621305E-17	7.981663E-19
4.387695E+03	1.641118E-17	8.074507E-19
4.397555E+03	1.660247E-17	8.163873E-19
4.407415E+03	1.679264E-17	8.252576E-19
4.417275E+03	1.697889E-17	8.339249E-19
4.427135E+03	1.716130E-17	8.423927E-19
4.436995E+03	1.733994E-17	8.506655E-19
4.446855E+03	1.751491E-17	8.587482E-19
4.456715E+03	1.768329E-17	8.664979E-19
4.466575E+03	1.785127E-17	8.742184E-19
4.476435E+03	1.801597E-17	8.817689E-19
4.486295E+03	1.817754E-17	8.891569E-19
4.496155E+03	1.833613E-17	8.963907E-19
4.506015E+03	1.848874E-17	9.033231E-19
4.515875E+03	1.864188E-17	9.102726E-19
4.525735E+03	1.879256E-17	9.170939E-19
4.535595E+03	1.894098E-17	9.237962E-19
4.545455E+03	1.908731E-17	9.303889E-19
4.555315E+03	1.922844E-17	9.367197E-19
4.565175E+03	1.937115E-17	9.431201E-19
4.575035E+03	1.951235E-17	9.494391E-19
4.584894E+03	1.965224E-17	9.556863E-19
4.594754E+03	1.979100E-17	9.618714E-19
4.604614E+03	1.992541E-17	9.678372E-19
4.614474E+03	2.006248E-17	9.739253E-19
4.624334E+03	2.019901E-17	9.799795E-19
4.634194E+03	2.033518E-17	9.860091E-19
4.644054E+03	2.046766E-17	9.918529E-19
4.653914E+03	2.060366E-17	9.978597E-19
4.663774E+03	2.073985E-17	1.003869E-18
4.673634E+03	2.087643E-17	1.009890E-18
4.683494E+03	2.100996E-17	1.015756E-18
4.693354E+03	2.114781E-17	1.021823E-18
4.703214E+03	2.128655E-17	1.027928E-18
4.713074E+03	2.142637E-17	1.034076E-18
4.722934E+03	2.156373E-17	1.040099E-18
4.732794E+03	2.170615E-17	1.046359E-18
4.742654E+03	2.185012E-17	1.052686E-18
4.752514E+03	2.199201E-17	1.058906E-18
4.762374E+03	2.213950E-17	1.065388E-18
4.772234E+03	2.228897E-17	1.071959E-18
4.782094E+03	2.243671E-17	1.078438E-18
4.791954E+03	2.259054E-17	1.085203E-18
4.801814E+03	2.274674E-17	1.092074E-18
4.811674E+03	2.290544E-17	1.099058E-18
4.821534E+03	2.306280E-17	1.105969E-18
4.831394E+03	2.322682E-17	1.113192E-18
4.841254E+03	2.339366E-17	1.120543E-18
4.851114E+03	2.355939E-17	1.127832E-18
4.860974E+03	2.373215E-17	1.135450E-18
4.870834E+03	2.390391E-17	1.143012E-18
4.880694E+03	2.408292E-17	1.150912E-18
4.890554E+03	2.426517E-17	1.158958E-18
4.900414E+03	2.444654E-17	1.166955E-18
4.910274E+03	2.463544E-17	1.175302E-18
4.920134E+03	2.482775E-17	1.183803E-18
4.929994E+03	2.501922E-17	1.192256E-18
4.939854E+03	2.521843E-17	1.201069E-18
4.949714E+03	2.541679E-17	1.209831E-18
4.959574E+03	2.562297E-17	1.218958E-18
4.969434E+03	2.583267E-17	1.228243E-18
4.979294E+03	2.604142E-17	1.237473E-18
4.989154E+03	2.625807E-17	1.247070E-18
4.999014E+03	2.647364E-17	1.256606E-18
5.008874E+03	2.669712E-17	1.266509E-18
5.018734E+03	2.692395E-17	1.276561E-18
5.028594E+03	2.714942E-17	1.286538E-18
5.038454E+03	2.738270E-17	1.296877E-18
5.048314E+03	2.761437E-17	1.307130E-18
5.058174E+03	2.785373E-17	1.317737E-18
5.068034E+03	2.809115E-17	1.328243E-18
5.077894E+03	2.833608E-17	1.339094E-18
5.087754E+03	2.857869E-17	1.349827E-18
5.097614E+03	2.882857E-17	1.360893E-18
5.107474E+03	2.907569E-17	1.371820E-18
5.117334E+03	2.932975E-17	1.383065E-18
5.127194E+03	2.958055E-17	1.394146E-18
5.137054E+03	2.983790E-17	1.405527E-18
5.146914E+03	3.009139E-17	1.416718E-18
5.156774E+03	3.035099E-17	1.428187E-18
5.166634E+03	3.060606E-17	1.439433E-18
5.176494E+03	3.086670E-17	1.450934E-18
5.186354E+03	3.112207E-17	1.462178E-18
5.196214E+03	3.138240E-17	1.473647E-18
5.206074E+03	3.163664E-17	1.484822E-18
5.215934E+03	3.189516E-17	1.496190E-18
5.225794E+03	3.214670E-17	1.507223E-18
5.235654E+03	3.240176E-17	1.518414E-18
5.245514E+03	3.264888E-17	1.529226E-18
5.255374E+03	3.289872E-17	1.540159E-18
5.265234E+03	3.313960E-17	1.550667E-18
5.275094E+03	3.337664E-17	1.560988E-18
5.284954E+03	3.361508E-17	1.571371E-18
5.294814E+03	3.384301E-17	1.581257E-18
5.304674E+03	3.407146E-17	1.591162E-18
5.314534E+03	3.428836E-17	1.600525E-18
5.324394E+03	3.450491E-17	1.609867E-18
5.334254E+03	3.470892E-17	1.618622E-18
5.344114E+03	3.490583E-17	1.627043E-18
5.353974E+03	3.510123E-17	1.635392E-18
5.363834E+03	3.528283E-17	1.643097E-18
5.373694E+03	3.545627E-17	1.650421E-18
5.383554E+03	3.562737E-17	1.657636E-18
5.393414E+03	3.578379E-17	1.664169E-18
5.403274E+03	3.593756E-17	1.670580E-18
5.413134E+03	3.607627E-17	1.676292E-18
5.422993E+03	3.620590E-17	1.681584E-18
5.432853E+03	3.633249E-17	1.686738E-18
5.442713E+03	3.644350E-17	1.691173E-18
5.452573E+03	3.654501E-17	1.695169E-18
5.462433E+03	3.664317E-17	1.699015E-18
5.472293E+03	3.672550E-17	1.702131E-18
5.482153E+03	3.679825E-17	1.704808E-18
5.492013E+03	3.686781E-17	1.707344E-18
5.501873E+03	3.692175E-17	1.709161E-18
5.511733E+03	3.696652E-17	1.710560E-18
5.521593E+03	3.700865E-17	1.711844E-18
5.531453E+03	3.703577E-17	1.712440E-18
5.541313E+03	3.705444E-17	1.712653E-18
5.551173E+03	3.706496E-17	1.712497E-18
5.561033E+03	3.707395E-17	1.712278E-18
5.570893E+03	3.706907E-17	1.711427E-18
5.580753E+03	3.705697E-17	1.710252E-18
5.590613E+03	3.704430E-17	1.709058E-18
5.600473E+03	3.701873E-17	1.707279E-18
5.610333E+03	3.698691E-17	1.705220E-18
5.620193E+03	3.694916E-17	1.702898E-18
5.630053E+03	3.691208E-17	1.700616E-18
5.639913E+03	3.686338E-17	1.697809E-18
5.649773E+03	3.680965E-17	1.694780E-18
5.659633E+03	3.675118E-17	1.691543E-18
5.669493E+03	3.668825E-17	1.688111E-18
5.679353E+03	3.662735E-17	1.684783E-18
5.689213E+03	3.655624E-17	1.680996E-18
5.699073E+03	3.648140E-17	1.677048E-18
5.708933E+03	3.640305E-17	1.672949E-18
5.718793E+03	3.632141E-17	1.668709E-18
5.728653E+03	3.624282E-17	1.664621E-18
5.738513E+03	3.615511E-17	1.660125E-18
5.748373E+03	3.606461E-17	1.655512E-18
5.758233E+03	3.597149E-17	1.650789E-18
5.768093E+03	3.587586E-17	1.645963E-18
5.777953E+03	3.578394E-17	1.641318E-18
5.787813E+03	3.568362E-17	1.636298E-18
5.797673E+03	3.558110E-17	1.631189E-18
5.807533E+03	3.547645E-17	1.625994E-18
5.817393E+03	3.536972E-17	1.620714E-18
5.827253E+03	3.526097E-17	1.615353E-18
5.837113E+03	3.515620E-17	1.610186E-18
5.846973E+03	3.504343E-17	1.604664E-18
5.856833E+03	3.492869E-17	1.599062E-18
5.866693E+03	3.481195E-17	1.593381E-18
5.876553E+03	3.469321E-17	1.587619E-18
5.886413E+03	3.457243E-17	1.581775E-18
5.896273E+03	3.444956E-17	1.575847E-18
5.906133E+03	3.432456E-17	1.569833E-18
5.915993E+03	3.419737E-17	1.563730E-18
5.925853E+03	3.407372E-17	1.557800E-18
5.935713E+03	3.394190E-17	1.551509E-18
5.945573E+03	3.380767E-17	1.545118E-18
5.955433E+03	3.367094E-17	1.538624E-18
5.965293E+03	3.353161E-17	1.532023E-18
5.975153E+03	3.338960E-17	1.525311E-18
5.985013E+03	3.324482E-17	1.518483E-18
5.994873E+03	3.309717E-17	1.511535E-18
6.004733E+03	3.294657E-17	1.504464E-18
6.014593E+03	3.279294E-17	1.497266E-18
6.024453E+03	3.263620E-17	1.489938E-18
6.034313E+03	3.247630E-17	1.482475E-18
6.044173E+03	3.231318E-17	1.474878E-18
6.054033E+03	3.214682E-17	1.467143E-18
6.063893E+03	3.197721E-17	1.459271E-18
6.073753E+03	3.180435E-17	1.451261E-18
6.083613E+03	3.162829E-17	1.443116E-18
6.093473E+03	3.144909E-17	1.434838E-18
6.103333E+03	3.127217E-17	1.426674E-18
6.113193E+03	3.108701E-17	1.418144E-18
6.123053E+03	3.089910E-17	1.409498E-18
6.132913E+03	3.070866E-17	1.400746E-18
6.142773E+03	3.051589E-17	1.391896E-18
6.152633E+03	3.032096E-17	1.382957E-18
6.162493E+03	3.012403E-17	1.373936E-18
6.172353E+03	2.992007E-17	1.364602E-18
6.182213E+03	2.971937E-17	1.355425E-18
6.192073E+03	2.951684E-17	1.346172E-18
6.201933E+03	2.931259E-17	1.336849E-18
6.211793E+03	2.910671E-17	1.327459E-18
6.221653E+03	2.889937E-17	1.318009E-18
6.231513E+03	2.869072E-17	1.308506E-18
6.241373E+03	2.848097E-17	1.298960E-18
6.251232E+03	2.827033E-17	1.289380E-18
6.261092E+03	2.805905E-17	1.279777E-18
6.270952E+03	2.784737E-17	1.270161E-18
6.280812E+03	2.763555E-17	1.260546E-18
6.290672E+03	2.742385E-17	1.250941E-18
6.300532E+03	2.721254E-17	1.241359E-18
6.310392E+03	2.700187E-17	1.231811E-18
6.320252E+03	2.679211E-17	1.222311E-18
6.330112E+03	2.658353E-17	1.212868E-18
6.339972E+03	2.637636E-17	1.203494E-18
6.349832E+03	2.616640E-17	1.193998E-18
6.359692E+03	2.596282E-17	1.184797E-18
6.369552E+03	2.576138E-17	1.175697E-18
6.379412E+03	2.556227E-17	1.166707E-18
6.389272E+03	2.536571E-17	1.157838E-18
6.399132E+03	2.517191E-17	1.149098E-18
6.408992E+03	2.498103E-17	1.140495E-18
6.418852E+03	2.479327E-17	1.132037E-18
6.428712E+03	2.460880E-17	1.123733E-18
6.438572E+03	2.442359E-17	1.115398E-18
6.448432E+03	2.424617E-17	1.107421E-18
6.458292E+03	2.407247E-17	1.099617E-18
6.468152E+03	2.390262E-17	1.091992E-18
6.478012E+03	2.373674E-17	1.084550E-18
6.487872E+03	2.357495E-17	1.077298E-18
6.497732E+03	2.341735E-17	1.070239E-18
6.507592E+03	2.326006E-17	1.063198E-18
6.517452E+03	2.311113E-17	1.056540E-18
6.527312E+03	2.296665E-17	1.050088E-18
6.537172E+03	2.282669E-17	1.043845E-18
6.547032E+03	2.269132E-17	1.037814E-18
6.556892E+03	2.256061E-17	1.031997E-18
6.566752E+03	2.243077E-17	1.026223E-18
6.576612E+03	2.230953E-17	1.020844E-18
6.586472E+03	2.219308E-17	1.015687E-18
6.596332E+03	2.208148E-17	1.010753E-18
6.606192E+03	2.197474E-17	1.006043E-18
6.616052E+03	2.186916E-17	1.001389E-18
6.625912E+03	2.177226E-17	9.971336E-19
6.635772E+03	2.168030E-17	9.931066E-19
6.645632E+03	2.159330E-17	9.893092E-19
6.655492E+03	2.151128E-17	9.857414E-19
6.665352E+03	2.143059E-17	9.822366E-19
6.675212E+03	2.135856E-17	9.791309E-19
6.685072E+03	2.129153E-17	9.762565E-19
6.694932E+03	2.122949E-17	9.736132E-19
6.704792E+03	2.117245E-17	9.712012E-19
6.714652E+03	2.111681E-17	9.688555E-19
6.724512E+03	2.106977E-17	9.669066E-19
6.734372E+03	2.102769E-17	9.651882E-19
6.744232E+03	2.099059E-17	9.637003E-19
6.754092E+03	2.095486E-17	9.622780E-19
6.763952E+03	2.092764E-17	9.612493E-19
6.773812E+03	2.090534E-17	9.604489E-19
6.783672E+03	2.088795E-17	9.598766E-19
6.793532E+03	2.087185E-17	9.593669E-19
6.803392E+03	2.086416E-17	9.592467E-19
6.813252E+03	2.086129E-17	9.593509E-19
6.823112E+03	2.085964E-17	9.595143E-19
6.832972E+03	2.086630E-17	9.600633E-19
6.842832E+03	2.087768E-17	9.608325E-19
6.852692E+03	2.089372E-17	9.618200E-19
6.862552E+03	2.091083E-17	9.628601E-19
6.872412E+03	2.093607E-17	9.642787E-19
6.882272E+03	2.096586E-17	9.659102E-19
6.892132E+03	2.099653E-17	9.675865E-19
6.901992E+03	2.103520E-17	9.696354E-19
6.911852E+03	2.107823E-17	9.718895E-19
6.921712E+03	2.112554E-17	9.743455E-19
6.931572E+03	2.117347E-17	9.768343E-19
6.941432E+03	2.122914E-17	9.796849E-19
6.951292E+03	2.128887E-17	9.827278E-19
6.961152E+03	2.134893E-17	9.857909E-19
6.971012E+03	2.141651E-17	9.892060E-19
6.980872E+03	2.148787E-17	9.928010E-19
6.990732E+03	2.155922E-17	9.964013E-19
7.000592E+03	2.163781E-17	1.000341E-18
7.010452E+03	2.171984E-17	1.004446E-18
7.020312E+03	2.180147E-17	1.008538E-18
7.030172E+03	2.188998E-17	1.012955E-18
7.040032E+03	2.198154E-17	1.017518E-18
7.049892E+03	2.207221E-17	1.022047E-18
7.059752E+03	2.216936E-17	1.026882E-18
7.069612E+03	2.226525E-17	1.031666E-18
7.079472E+03	2.236729E-17	1.036741E-18
7.089331E+03	2.247152E-17	1.041925E-18
7.099191E+03	2.257387E-17	1.047028E-18
7.109051E+03	2.268181E-17	1.052398E-18
7.118911E+03	2.279129E-17	1.057846E-18
7.128771E+03	2.289816E-17	1.063181E-18
7.138631E+03	2.300997E-17	1.068752E-18
7.148491E+03	2.311862E-17	1.074185E-18
7.158351E+03	2.323172E-17	1.079832E-18
7.168211E+03	2.334504E-17	1.085497E-18
7.178071E+03	2.345429E-17	1.090980E-18
7.187931E+03	2.356714E-17	1.096639E-18
7.197791E+03	2.367523E-17	1.102085E-18
7.207651E+03	2.378630E-17	1.107678E-18
7.217511E+03	2.389598E-17	1.113214E-18
7.227371E+03	2.399978E-17	1.118484E-18
7.237231E+03	2.410554E-17	1.123854E-18
7.247091E+03	2.420462E-17	1.128921E-18
7.256951E+03	2.430491E-17	1.134052E-18
7.266811E+03	2.440186E-17	1.139036E-18
7.276671E+03	2.449086E-17	1.143657E-18
7.286531E+03	2.457985E-17	1.148286E-18
7.296391E+03	2.466001E-17	1.152510E-18
7.306251E+03	2.473931E-17	1.156702E-18
7.316111E+03	2.480887E-17	1.160447E-18
7.325971E+03	2.487671E-17	1.164118E-18
7.335831E+03	2.493389E-17	1.167298E-18
7.345691E+03	2.498847E-17	1.170364E-18
7.355551E+03	2.503577E-17	1.173097E-18
7.365411E+03	2.507107E-17	1.175273E-18
7.375271E+03	2.510251E-17	1.177276E-18
7.385131E+03	2.512111E-17	1.178683E-18
7.394991E+03	2.513509E-17	1.179878E-18
7.404851E+03	2.513546E-17	1.180441E-18
7.414711E+03	2.513053E-17	1.180760E-18
7.424571E+03	2.511139E-17	1.180416E-18
7.434431E+03	2.508638E-17	1.179800E-18
7.444291E+03	2.504669E-17	1.178498E-18
7.454151E+03	2.500077E-17	1.176905E-18
7.464011E+03	2.493991E-17	1.174612E-18
7.473871E+03	2.487264E-17	1.172018E-18
7.483731E+03	2.479041E-17	1.168720E-18
7.493591E+03	2.470180E-17	1.165122E-18
7.503451E+03	2.459841E-17	1.160827E-18
7.513311E+03	2.448880E-17	1.156237E-18
7.523171E+03	2.436465E-17	1.150960E-18
7.533031E+03	2.423445E-17	1.145394E-18
7.542891E+03	2.409001E-17	1.139153E-18
7.552751E+03	2.393980E-17	1.132636E-18
7.562611E+03	2.377582E-17	1.125463E-18
7.572471E+03	2.360655E-17	1.118036E-18
7.582331E+03	2.342421E-17	1.109983E-18
7.592191E+03	2.323722E-17	1.101705E-18
7.602051E+03	2.303800E-17	1.092841E-18
7.611911E+03	2.283102E-17	1.083602E-18
7.621771E+03	2.262060E-17	1.074191E-18
7.631631E+03	2.239943E-17	1.064263E-18
7.641491E+03	2.217573E-17	1.054205E-18
7.651351E+03	2.194234E-17	1.043678E-18
