#wls	flux	fluxerr
1.600000E+03	1.083403E-16	2.198439E-19
1.640000E+03	1.107205E-16	2.246739E-19
1.680000E+03	1.132781E-16	2.298636E-19
1.720000E+03	1.160109E-16	2.354092E-19
1.760000E+03	1.189417E-16	2.413563E-19
1.800000E+03	1.220681E-16	2.477004E-19
1.840000E+03	1.254244E-16	2.545109E-19
1.880000E+03	1.289960E-16	2.617583E-19
1.920000E+03	1.328290E-16	2.695363E-19
1.960000E+03	1.369203E-16	2.778384E-19
2.000000E+03	1.412793E-16	2.866837E-19
2.040000E+03	1.459272E-16	2.961152E-19
2.080000E+03	1.508850E-16	3.061754E-19
2.120000E+03	1.561616E-16	3.168827E-19
2.160000E+03	1.617537E-16	3.282303E-19
2.200000E+03	1.677184E-16	3.403338E-19
2.240000E+03	1.740881E-16	3.532591E-19
2.280000E+03	1.810134E-16	3.673118E-19
2.320000E+03	1.885022E-16	3.825080E-19
2.360000E+03	1.965629E-16	3.988648E-19
2.400000E+03	2.052399E-16	4.164719E-19
2.440000E+03	2.145658E-16	4.353959E-19
2.480000E+03	2.246328E-16	4.558237E-19
2.520000E+03	2.354868E-16	4.778484E-19
2.560000E+03	2.472096E-16	5.016360E-19
2.600000E+03	2.598501E-16	5.272859E-19
2.640000E+03	2.734822E-16	5.549476E-19
2.680000E+03	2.881595E-16	5.847300E-19
2.720000E+03	3.039503E-16	6.167720E-19
2.760000E+03	3.209046E-16	6.511744E-19
2.800000E+03	3.390429E-16	6.879791E-19
2.840000E+03	3.584149E-16	7.272866E-19
2.880000E+03	3.790202E-16	7.690962E-19
2.920000E+03	4.009465E-16	8.135852E-19
2.960000E+03	4.244833E-16	8.613412E-19
3.000000E+03	4.499437E-16	9.129986E-19
3.010000E+03	4.566553E-16	9.266158E-19
3.020000E+03	4.635140E-16	9.405312E-19
3.030000E+03	4.705211E-16	9.547475E-19
3.040000E+03	4.777008E-16	9.693141E-19
3.050000E+03	4.850437E-16	9.842115E-19
3.060000E+03	4.925627E-16	9.994659E-19
3.070000E+03	5.002598E-16	1.015082E-18
3.080000E+03	5.081482E-16	1.031085E-18
3.090000E+03	5.162302E-16	1.047482E-18
3.100000E+03	5.245194E-16	1.064298E-18
3.110000E+03	5.330184E-16	1.081540E-18
3.120000E+03	5.417295E-16	1.099212E-18
3.130000E+03	5.506671E-16	1.117343E-18
3.140000E+03	5.598341E-16	1.135939E-18
3.150000E+03	5.692566E-16	1.155053E-18
3.160000E+03	5.789151E-16	1.174646E-18
3.170000E+03	5.888363E-16	1.194771E-18
3.180000E+03	5.990243E-16	1.215437E-18
3.190000E+03	6.094948E-16	1.236676E-18
3.200000E+03	6.202410E-16	1.258473E-18
3.210000E+03	6.312910E-16	1.280887E-18
3.220000E+03	6.426507E-16	1.303928E-18
3.230000E+03	6.543142E-16	1.327585E-18
3.240000E+03	6.663115E-16	1.351918E-18
3.250000E+03	6.786613E-16	1.376966E-18
3.260000E+03	6.913483E-16	1.402697E-18
3.270000E+03	7.044030E-16	1.429173E-18
3.280000E+03	7.178234E-16	1.456391E-18
3.290000E+03	7.315863E-16	1.484302E-18
3.300000E+03	7.456573E-16	1.512837E-18
3.310000E+03	7.600132E-16	1.541949E-18
3.320000E+03	7.746241E-16	1.571578E-18
3.330000E+03	7.894625E-16	1.601666E-18
3.340000E+03	8.045055E-16	1.632169E-18
3.350000E+03	8.197409E-16	1.663060E-18
3.360000E+03	8.351745E-16	1.694352E-18
3.370000E+03	8.507935E-16	1.726019E-18
3.380000E+03	8.666058E-16	1.758077E-18
3.390000E+03	8.826242E-16	1.790551E-18
3.400000E+03	8.988579E-16	1.823460E-18
3.410000E+03	9.153041E-16	1.856799E-18
3.420000E+03	9.319430E-16	1.890527E-18
3.430000E+03	9.487548E-16	1.924604E-18
3.440000E+03	9.657437E-16	1.959038E-18
3.450000E+03	9.828912E-16	1.993793E-18
3.460000E+03	1.000173E-15	2.028818E-18
3.470000E+03	1.017601E-15	2.064138E-18
3.480000E+03	1.035181E-15	2.099765E-18
3.490000E+03	1.052909E-15	2.135691E-18
3.500000E+03	1.070781E-15	2.171908E-18
3.510000E+03	1.088819E-15	2.208460E-18
3.520000E+03	1.106998E-15	2.245296E-18
3.530000E+03	1.125375E-15	2.282534E-18
3.540000E+03	1.143962E-15	2.320195E-18
3.550000E+03	1.162791E-15	2.358349E-18
3.560000E+03	1.181929E-15	2.397129E-18
3.570000E+03	1.201417E-15	2.436618E-18
3.580000E+03	1.221271E-15	2.476850E-18
3.590000E+03	1.241457E-15	2.517755E-18
3.600000E+03	1.261849E-15	2.559080E-18
3.610000E+03	1.282355E-15	2.600640E-18
3.620000E+03	1.302859E-15	2.642195E-18
3.630000E+03	1.323152E-15	2.683327E-18
3.640000E+03	1.342932E-15	2.723422E-18
3.650000E+03	1.361815E-15	2.761702E-18
3.660000E+03	1.379343E-15	2.797238E-18
3.670000E+03	1.395037E-15	2.829059E-18
3.680000E+03	1.408335E-15	2.856023E-18
3.690000E+03	1.418677E-15	2.876997E-18
3.700000E+03	1.425582E-15	2.891002E-18
3.710000E+03	1.428775E-15	2.897481E-18
3.720000E+03	1.428128E-15	2.896173E-18
3.720002E+03	1.295656E-15	2.627526E-18
3.721496E+03	1.303080E-15	2.642582E-18
3.722999E+03	1.308091E-15	2.652745E-18
3.724503E+03	1.312703E-15	2.662099E-18
3.725996E+03	1.317629E-15	2.672090E-18
3.727500E+03	1.324363E-15	2.685748E-18
3.729003E+03	1.333563E-15	2.704406E-18
3.730497E+03	1.337239E-15	2.711860E-18
3.732000E+03	1.341119E-15	2.719729E-18
3.733504E+03	1.349328E-15	2.736378E-18
3.734997E+03	1.354097E-15	2.746050E-18
3.736501E+03	1.363703E-15	2.765530E-18
3.738004E+03	1.373568E-15	2.785536E-18
3.739497E+03	1.379608E-15	2.797786E-18
3.741001E+03	1.385372E-15	2.809477E-18
3.742505E+03	1.387710E-15	2.814218E-18
3.743998E+03	1.397035E-15	2.833129E-18
3.745501E+03	1.402248E-15	2.843702E-18
3.746995E+03	1.403623E-15	2.846490E-18
3.748498E+03	1.405818E-15	2.850942E-18
3.750002E+03	1.409657E-15	2.858728E-18
3.751495E+03	1.412808E-15	2.865120E-18
3.752999E+03	1.412122E-15	2.863729E-18
3.754502E+03	1.411434E-15	2.862334E-18
3.755996E+03	1.406086E-15	2.851488E-18
3.757499E+03	1.400462E-15	2.840084E-18
3.759003E+03	1.397440E-15	2.833957E-18
3.760496E+03	1.394144E-15	2.827273E-18
3.762000E+03	1.390162E-15	2.819197E-18
3.763503E+03	1.385903E-15	2.810561E-18
3.764997E+03	1.376711E-15	2.791919E-18
3.766500E+03	1.366421E-15	2.771053E-18
3.768004E+03	1.358336E-15	2.754656E-18
3.769497E+03	1.348839E-15	2.735398E-18
3.771001E+03	1.339876E-15	2.717221E-18
3.772504E+03	1.331406E-15	2.700044E-18
3.773997E+03	1.323374E-15	2.683754E-18
3.775501E+03	1.315710E-15	2.668212E-18
3.777004E+03	1.308389E-15	2.653365E-18
3.778498E+03	1.301368E-15	2.639126E-18
3.780001E+03	1.294606E-15	2.625414E-18
3.781505E+03	1.288091E-15	2.612201E-18
3.782998E+03	1.281781E-15	2.599404E-18
3.784502E+03	1.275662E-15	2.586995E-18
3.785995E+03	1.269734E-15	2.574972E-18
3.787499E+03	1.263709E-15	2.562754E-18
3.789002E+03	1.260178E-15	2.555593E-18
3.790496E+03	1.256344E-15	2.547817E-18
3.791999E+03	1.251332E-15	2.537652E-18
3.793503E+03	1.247154E-15	2.529179E-18
3.794996E+03	1.242347E-15	2.519429E-18
3.796500E+03	1.236291E-15	2.507147E-18
3.798003E+03	1.232578E-15	2.499616E-18
3.799497E+03	1.229795E-15	2.493972E-18
3.801000E+03	1.223835E-15	2.481883E-18
3.802503E+03	1.215585E-15	2.465152E-18
3.803997E+03	1.207992E-15	2.449754E-18
3.805501E+03	1.204249E-15	2.442162E-18
3.807004E+03	1.200642E-15	2.434846E-18
3.808497E+03	1.198048E-15	2.429584E-18
3.810001E+03	1.198085E-15	2.429657E-18
3.811504E+03	1.196819E-15	2.427088E-18
3.812998E+03	1.196442E-15	2.426322E-18
3.814501E+03	1.196545E-15	2.426529E-18
3.816005E+03	1.194563E-15	2.422510E-18
3.817498E+03	1.193665E-15	2.420686E-18
3.819002E+03	1.196820E-15	2.427082E-18
3.820495E+03	1.201055E-15	2.435670E-18
3.821999E+03	1.206578E-15	2.446866E-18
3.823502E+03	1.207715E-15	2.449172E-18
3.824996E+03	1.206745E-15	2.447201E-18
3.826499E+03	1.207759E-15	2.449255E-18
3.828003E+03	1.214989E-15	2.463915E-18
3.829496E+03	1.216796E-15	2.467577E-18
3.830999E+03	1.211221E-15	2.456271E-18
3.832503E+03	1.210631E-15	2.455070E-18
3.833996E+03	1.214366E-15	2.462643E-18
3.835500E+03	1.215704E-15	2.465352E-18
3.837003E+03	1.217685E-15	2.469367E-18
3.838497E+03	1.224785E-15	2.483763E-18
3.840000E+03	1.228133E-15	2.490550E-18
3.841504E+03	1.225567E-15	2.485342E-18
3.842997E+03	1.225916E-15	2.486048E-18
3.844501E+03	1.233272E-15	2.500962E-18
3.846004E+03	1.240791E-15	2.516207E-18
3.847498E+03	1.243150E-15	2.520986E-18
3.849001E+03	1.248655E-15	2.532146E-18
3.850505E+03	1.256335E-15	2.547717E-18
3.851998E+03	1.259690E-15	2.554517E-18
3.853502E+03	1.264453E-15	2.564171E-18
3.854995E+03	1.275660E-15	2.586893E-18
3.856499E+03	1.286920E-15	2.609723E-18
3.858002E+03	1.297931E-15	2.632050E-18
3.859495E+03	1.307314E-15	2.651073E-18
3.860999E+03	1.313042E-15	2.662684E-18
3.862503E+03	1.317292E-15	2.671297E-18
3.863996E+03	1.321500E-15	2.679825E-18
3.865499E+03	1.325857E-15	2.688656E-18
3.867003E+03	1.327396E-15	2.691771E-18
3.868496E+03	1.332394E-15	2.701901E-18
3.870000E+03	1.342356E-15	2.722097E-18
3.871503E+03	1.350715E-15	2.739043E-18
3.872997E+03	1.357009E-15	2.751800E-18
3.874500E+03	1.367787E-15	2.773650E-18
3.876004E+03	1.381667E-15	2.801790E-18
3.877497E+03	1.394725E-15	2.828264E-18
3.879001E+03	1.404635E-15	2.848353E-18
3.880504E+03	1.414545E-15	2.868443E-18
3.881998E+03	1.423086E-15	2.885755E-18
3.883501E+03	1.428207E-15	2.896133E-18
3.885005E+03	1.435513E-15	2.910942E-18
3.886498E+03	1.442684E-15	2.925475E-18
3.888002E+03	1.449714E-15	2.939725E-18
3.889495E+03	1.456197E-15	2.952863E-18
3.890999E+03	1.460903E-15	2.962397E-18
3.892502E+03	1.468477E-15	2.977747E-18
3.893995E+03	1.476733E-15	2.994481E-18
3.895499E+03	1.480613E-15	3.002341E-18
3.897003E+03	1.480394E-15	3.001889E-18
3.898496E+03	1.480038E-15	3.001158E-18
3.899999E+03	1.482687E-15	3.006521E-18
3.901503E+03	1.487931E-15	3.017145E-18
3.902996E+03	1.493310E-15	3.028044E-18
3.904500E+03	1.495000E-15	3.031461E-18
3.906003E+03	1.495186E-15	3.031828E-18
3.907497E+03	1.497011E-15	3.035520E-18
3.909000E+03	1.499244E-15	3.040038E-18
3.910504E+03	1.501204E-15	3.044002E-18
3.911997E+03	1.503846E-15	3.049349E-18
3.913501E+03	1.507988E-15	3.057738E-18
3.915004E+03	1.512402E-15	3.066678E-18
3.916498E+03	1.515314E-15	3.072573E-18
3.918001E+03	1.517952E-15	3.077910E-18
3.919505E+03	1.525366E-15	3.092932E-18
3.920998E+03	1.531551E-15	3.105463E-18
3.922502E+03	1.539099E-15	3.120756E-18
3.923995E+03	1.546374E-15	3.135495E-18
3.925499E+03	1.553509E-15	3.149949E-18
3.927002E+03	1.560234E-15	3.163573E-18
3.928495E+03	1.566958E-15	3.177194E-18
3.929999E+03	1.576681E-15	3.196897E-18
3.931503E+03	1.583264E-15	3.210232E-18
3.932996E+03	1.588346E-15	3.220522E-18
3.934499E+03	1.598201E-15	3.240490E-18
3.936003E+03	1.603279E-15	3.250774E-18
3.937496E+03	1.607674E-15	3.259671E-18
3.939000E+03	1.614251E-15	3.272991E-18
3.940503E+03	1.619460E-15	3.283540E-18
3.941997E+03	1.626852E-15	3.298513E-18
3.943500E+03	1.628924E-15	3.302698E-18
3.945004E+03	1.635220E-15	3.315450E-18
3.946497E+03	1.642199E-15	3.329584E-18
3.948001E+03	1.643039E-15	3.331272E-18
3.949504E+03	1.641969E-15	3.329086E-18
3.950998E+03	1.639401E-15	3.323864E-18
3.952501E+03	1.639693E-15	3.324440E-18
3.954005E+03	1.638623E-15	3.322254E-18
3.955498E+03	1.640414E-15	3.325869E-18
3.957002E+03	1.645747E-15	3.336665E-18
3.958495E+03	1.645493E-15	3.336133E-18
3.959999E+03	1.643056E-15	3.331175E-18
3.961502E+03	1.640483E-15	3.325941E-18
3.962995E+03	1.635186E-15	3.315184E-18
3.964499E+03	1.633839E-15	3.312435E-18
3.966003E+03	1.632900E-15	3.310513E-18
3.967496E+03	1.627875E-15	3.300308E-18
3.968999E+03	1.628162E-15	3.300871E-18
3.970503E+03	1.628583E-15	3.301707E-18
3.971996E+03	1.627916E-15	3.300336E-18
3.973500E+03	1.628200E-15	3.300892E-18
3.975003E+03	1.633931E-15	3.312492E-18
3.976497E+03	1.636664E-15	3.318014E-18
3.978000E+03	1.635449E-15	3.315530E-18
3.979504E+03	1.637636E-15	3.319944E-18
3.980997E+03	1.642546E-15	3.329877E-18
3.982501E+03	1.645002E-15	3.334836E-18
3.984004E+03	1.644600E-15	3.334001E-18
3.985498E+03	1.644062E-15	3.332889E-18
3.987001E+03	1.644339E-15	3.333430E-18
3.988505E+03	1.646384E-15	3.337554E-18
3.989998E+03	1.647749E-15	3.340299E-18
3.991502E+03	1.645983E-15	3.336697E-18
3.992995E+03	1.643537E-15	3.331717E-18
3.994499E+03	1.644355E-15	3.333353E-18
3.996002E+03	1.647348E-15	3.339398E-18
3.997495E+03	1.647485E-15	3.339653E-18
3.998999E+03	1.647076E-15	3.338801E-18
4.000502E+03	1.648027E-15	3.340706E-18
4.001996E+03	1.649113E-15	3.342884E-18
4.003499E+03	1.651559E-15	3.347818E-18
4.005003E+03	1.650875E-15	3.346407E-18
4.006496E+03	1.651415E-15	3.347479E-18
4.008000E+03	1.654264E-15	3.353230E-18
4.009503E+03	1.652899E-15	3.350438E-18
4.010997E+03	1.650855E-15	3.346270E-18
4.012500E+03	1.648947E-15	3.342376E-18
4.014004E+03	1.649347E-15	3.343162E-18
4.015497E+03	1.651786E-15	3.348079E-18
4.017001E+03	1.652863E-15	3.350237E-18
4.018504E+03	1.650409E-15	3.345236E-18
4.019998E+03	1.645916E-15	3.336105E-18
4.021501E+03	1.641152E-15	3.326422E-18
4.023005E+03	1.639783E-15	3.323621E-18
4.024498E+03	1.637737E-15	3.319446E-18
4.026001E+03	1.634466E-15	3.312789E-18
4.027495E+03	1.629024E-15	3.301732E-18
4.028999E+03	1.626840E-15	3.297278E-18
4.030502E+03	1.634565E-15	3.312906E-18
4.031995E+03	1.640253E-15	3.324408E-18
4.033499E+03	1.642817E-15	3.329575E-18
4.035002E+03	1.646601E-15	3.337215E-18
4.036496E+03	1.651741E-15	3.347605E-18
4.037999E+03	1.651995E-15	3.348089E-18
4.039503E+03	1.652383E-15	3.348846E-18
4.040996E+03	1.656163E-15	3.356477E-18
4.042500E+03	1.659669E-15	3.363552E-18
4.044003E+03	1.664666E-15	3.373650E-18
4.045497E+03	1.666543E-15	3.377423E-18
4.047000E+03	1.664621E-15	3.373496E-18
4.048504E+03	1.665818E-15	3.375890E-18
4.049997E+03	1.668777E-15	3.381855E-18
4.051501E+03	1.672818E-15	3.390012E-18
4.053004E+03	1.676723E-15	3.397894E-18
4.054497E+03	1.676560E-15	3.397531E-18
4.056001E+03	1.679107E-15	3.402659E-18
4.057505E+03	1.684770E-15	3.414101E-18
4.058998E+03	1.688670E-15	3.421971E-18
4.060501E+03	1.691213E-15	3.427089E-18
4.062005E+03	1.694024E-15	3.432753E-18
4.063498E+03	1.696566E-15	3.437868E-18
4.065002E+03	1.698970E-15	3.442705E-18
4.066495E+03	1.706927E-15	3.458793E-18
4.067999E+03	1.715421E-15	3.475969E-18
4.069502E+03	1.717550E-15	3.480247E-18
4.070996E+03	1.722386E-15	3.490009E-18
4.072499E+03	1.735749E-15	3.517049E-18
4.074003E+03	1.745182E-15	3.536125E-18
4.075496E+03	1.747846E-15	3.541485E-18
4.077000E+03	1.749831E-15	3.545469E-18
4.078503E+03	1.753303E-15	3.552465E-18
4.079997E+03	1.755964E-15	3.557818E-18
4.081500E+03	1.762410E-15	3.570839E-18
4.083004E+03	1.772372E-15	3.590983E-18
4.084497E+03	1.775975E-15	3.598243E-18
4.086001E+03	1.777410E-15	3.601110E-18
4.087504E+03	1.780332E-15	3.606989E-18
4.088997E+03	1.782984E-15	3.612321E-18
4.090501E+03	1.786310E-15	3.619017E-18
4.092005E+03	1.782874E-15	3.612013E-18
4.093498E+03	1.775248E-15	3.596523E-18
4.095001E+03	1.775868E-15	3.597735E-18
4.096505E+03	1.779325E-15	3.604697E-18
4.097998E+03	1.782242E-15	3.610563E-18
4.099502E+03	1.782183E-15	3.610400E-18
4.100995E+03	1.781043E-15	3.608048E-18
4.102499E+03	1.776255E-15	3.598305E-18
4.104002E+03	1.772682E-15	3.591024E-18
4.105496E+03	1.773974E-15	3.593595E-18
4.106999E+03	1.772561E-15	3.590690E-18
4.108503E+03	1.768988E-15	3.583406E-18
4.109996E+03	1.768252E-15	3.581871E-18
4.111500E+03	1.767514E-15	3.580332E-18
4.113003E+03	1.763131E-15	3.571408E-18
4.114497E+03	1.758479E-15	3.561940E-18
4.116000E+03	1.755581E-15	3.556024E-18
4.117504E+03	1.753628E-15	3.552021E-18
4.118997E+03	1.749382E-15	3.543376E-18
4.120501E+03	1.743651E-15	3.531722E-18
4.122004E+03	1.738865E-15	3.521981E-18
4.123498E+03	1.734755E-15	3.513610E-18
4.125001E+03	1.730509E-15	3.504964E-18
4.126505E+03	1.724106E-15	3.491948E-18
4.127998E+03	1.713255E-15	3.469926E-18
4.129501E+03	1.705101E-15	3.453363E-18
4.130995E+03	1.701938E-15	3.446912E-18
4.132498E+03	1.697830E-15	3.438544E-18
4.134002E+03	1.694531E-15	3.431816E-18
4.135495E+03	1.690965E-15	3.424545E-18
4.136999E+03	1.683758E-15	3.409903E-18
4.138502E+03	1.677631E-15	3.397448E-18
4.139996E+03	1.672583E-15	3.387178E-18
4.141499E+03	1.670364E-15	3.382637E-18
4.143003E+03	1.665451E-15	3.372639E-18
4.144496E+03	1.656096E-15	3.353647E-18
4.146000E+03	1.647953E-15	3.337110E-18
4.147503E+03	1.646408E-15	3.333933E-18
4.148997E+03	1.644596E-15	3.330215E-18
4.150500E+03	1.640762E-15	3.322405E-18
4.152004E+03	1.635584E-15	3.311871E-18
4.153497E+03	1.630407E-15	3.301340E-18
4.155001E+03	1.626710E-15	3.293805E-18
4.156504E+03	1.616825E-15	3.273741E-18
4.157997E+03	1.609902E-15	3.259677E-18
4.159501E+03	1.604997E-15	3.249696E-18
4.161005E+03	1.598613E-15	3.236721E-18
4.162498E+03	1.593038E-15	3.225385E-18
4.164001E+03	1.589883E-15	3.218948E-18
4.165505E+03	1.589148E-15	3.217412E-18
4.166998E+03	1.589758E-15	3.218598E-18
4.168502E+03	1.590769E-15	3.220597E-18
4.169995E+03	1.590169E-15	3.219331E-18
4.171499E+03	1.592791E-15	3.224591E-18
4.173002E+03	1.594204E-15	3.227401E-18
4.174496E+03	1.591048E-15	3.220963E-18
4.175999E+03	1.587759E-15	3.214254E-18
4.177503E+03	1.589572E-15	3.217874E-18
4.178996E+03	1.590447E-15	3.219595E-18
4.180500E+03	1.587828E-15	3.214244E-18
4.182003E+03	1.584001E-15	3.206446E-18
4.183497E+03	1.584605E-15	3.207619E-18
4.185000E+03	1.586685E-15	3.211778E-18
4.186504E+03	1.591179E-15	3.220823E-18
4.187997E+03	1.593392E-15	3.225251E-18
4.189501E+03	1.594797E-15	3.228043E-18
4.191004E+03	1.600896E-15	3.240337E-18
4.192497E+03	1.607263E-15	3.253173E-18
4.194001E+03	1.610006E-15	3.258672E-18
4.195505E+03	1.612881E-15	3.264438E-18
4.196998E+03	1.614819E-15	3.268307E-18
4.198501E+03	1.613000E-15	3.264573E-18
4.200005E+03	1.612389E-15	3.263283E-18
4.201498E+03	1.616066E-15	3.270672E-18
4.203002E+03	1.620680E-15	3.279956E-18
4.204495E+03	1.625561E-15	3.289781E-18
4.205999E+03	1.628966E-15	3.296616E-18
4.207502E+03	1.629421E-15	3.297484E-18
4.208996E+03	1.628271E-15	3.295102E-18
4.210499E+03	1.625780E-15	3.290007E-18
4.212003E+03	1.623156E-15	3.284642E-18
4.213496E+03	1.619195E-15	3.276572E-18
4.215000E+03	1.616705E-15	3.271480E-18
4.216503E+03	1.614618E-15	3.267202E-18
4.217997E+03	1.613067E-15	3.264010E-18
4.219500E+03	1.614458E-15	3.266771E-18
4.221004E+03	1.618526E-15	3.274947E-18
4.222497E+03	1.620319E-15	3.278520E-18
4.224000E+03	1.621440E-15	3.280735E-18
4.225504E+03	1.620690E-15	3.279162E-18
4.226997E+03	1.623551E-15	3.284897E-18
4.228501E+03	1.626276E-15	3.290355E-18
4.230004E+03	1.622850E-15	3.283369E-18
4.231498E+03	1.618758E-15	3.275036E-18
4.233001E+03	1.615200E-15	3.267783E-18
4.234505E+03	1.612311E-15	3.261884E-18
4.235998E+03	1.608891E-15	3.254909E-18
4.237502E+03	1.606804E-15	3.250633E-18
4.238995E+03	1.604320E-15	3.245553E-18
4.240499E+03	1.602768E-15	3.242361E-18
4.242002E+03	1.600550E-15	3.237820E-18
4.243496E+03	1.596865E-15	3.230311E-18
4.244999E+03	1.591977E-15	3.220371E-18
4.246503E+03	1.588693E-15	3.213674E-18
4.247996E+03	1.583409E-15	3.202932E-18
4.249499E+03	1.577458E-15	3.190840E-18
4.251003E+03	1.571374E-15	3.178483E-18
4.252496E+03	1.563693E-15	3.162893E-18
4.254000E+03	1.561082E-15	3.157560E-18
4.255503E+03	1.557270E-15	3.149799E-18
4.256997E+03	1.548793E-15	3.132602E-18
4.258500E+03	1.542052E-15	3.118915E-18
4.260004E+03	1.535844E-15	3.106309E-18
4.261497E+03	1.528440E-15	3.091284E-18
4.263001E+03	1.521836E-15	3.077878E-18
4.264504E+03	1.516034E-15	3.066094E-18
4.265998E+03	1.510102E-15	3.054047E-18
4.267501E+03	1.503638E-15	3.040925E-18
4.269005E+03	1.502103E-15	3.037774E-18
4.270498E+03	1.500705E-15	3.034897E-18
4.272002E+03	1.494643E-15	3.022591E-18
4.273495E+03	1.489384E-15	3.011909E-18
4.274999E+03	1.486789E-15	3.006612E-18
4.276502E+03	1.484326E-15	3.001586E-18
4.277995E+03	1.482134E-15	2.997105E-18
4.279499E+03	1.479673E-15	2.992084E-18
4.281003E+03	1.472822E-15	2.978184E-18
4.282496E+03	1.464644E-15	2.961603E-18
4.283999E+03	1.459261E-15	2.950673E-18
4.285503E+03	1.454943E-15	2.941897E-18
4.286996E+03	1.449564E-15	2.930977E-18
4.288500E+03	1.442990E-15	2.917640E-18
4.290003E+03	1.434023E-15	2.899467E-18
4.291497E+03	1.428782E-15	2.888828E-18
4.293000E+03	1.428063E-15	2.887331E-18
4.294504E+03	1.421229E-15	2.873474E-18
4.295997E+03	1.414532E-15	2.859893E-18
4.297501E+03	1.409298E-15	2.849269E-18
4.299004E+03	1.404463E-15	2.839455E-18
4.300498E+03	1.399100E-15	2.828573E-18
4.302001E+03	1.395731E-15	2.821722E-18
4.303505E+03	1.393558E-15	2.817291E-18
4.304998E+03	1.386873E-15	2.803737E-18
4.306502E+03	1.380452E-15	2.790721E-18
4.307995E+03	1.375895E-15	2.781471E-18
4.309499E+03	1.367754E-15	2.764977E-18
4.311002E+03	1.360545E-15	2.750368E-18
4.312495E+03	1.355595E-15	2.740327E-18
4.313999E+03	1.349717E-15	2.728410E-18
4.315503E+03	1.345035E-15	2.718913E-18
4.316996E+03	1.341418E-15	2.711568E-18
4.318499E+03	1.337535E-15	2.703687E-18
4.320003E+03	1.333389E-15	2.695274E-18
4.321496E+03	1.328715E-15	2.685795E-18
4.323000E+03	1.323777E-15	2.675783E-18
4.324503E+03	1.319583E-15	2.667275E-18
