#wls	flux	fluxerr
1.600000E+03	2.348055E-17	2.508353E-21
1.640000E+03	2.342626E-17	2.502553E-21
1.680000E+03	2.338062E-17	2.497677E-21
1.720000E+03	2.333923E-17	2.493256E-21
1.760000E+03	2.330662E-17	2.489772E-21
1.800000E+03	2.328732E-17	2.487710E-21
1.840000E+03	2.328140E-17	2.487078E-21
1.880000E+03	2.328455E-17	2.487414E-21
1.920000E+03	2.330575E-17	2.489679E-21
1.960000E+03	2.334516E-17	2.493888E-21
2.000000E+03	2.340291E-17	2.500058E-21
2.040000E+03	2.347924E-17	2.508212E-21
2.080000E+03	2.358320E-17	2.519317E-21
2.120000E+03	2.371065E-17	2.532932E-21
2.160000E+03	2.386635E-17	2.549565E-21
2.200000E+03	2.404629E-17	2.568788E-21
2.240000E+03	2.425979E-17	2.591595E-21
2.280000E+03	2.450300E-17	2.617576E-21
2.320000E+03	2.477663E-17	2.646808E-21
2.360000E+03	2.508153E-17	2.679378E-21
2.400000E+03	2.541868E-17	2.715395E-21
2.440000E+03	2.578925E-17	2.754982E-21
2.480000E+03	2.619903E-17	2.798757E-21
2.520000E+03	2.664083E-17	2.845954E-21
2.560000E+03	2.712099E-17	2.897247E-21
2.600000E+03	2.764173E-17	2.952876E-21
2.640000E+03	2.820126E-17	3.012648E-21
2.680000E+03	2.881148E-17	3.077836E-21
2.720000E+03	2.946712E-17	3.147876E-21
2.760000E+03	3.017680E-17	3.223688E-21
2.800000E+03	3.094087E-17	3.305311E-21
2.840000E+03	3.176951E-17	3.393831E-21
2.880000E+03	3.267381E-17	3.490434E-21
2.920000E+03	3.365692E-17	3.595457E-21
2.960000E+03	3.474155E-17	3.711323E-21
3.000000E+03	3.594280E-17	3.839649E-21
3.010000E+03	3.626006E-17	3.873540E-21
3.020000E+03	3.659203E-17	3.909004E-21
3.030000E+03	3.692952E-17	3.945057E-21
3.040000E+03	3.727743E-17	3.982222E-21
3.050000E+03	3.763602E-17	4.020529E-21
3.060000E+03	3.800552E-17	4.060002E-21
3.070000E+03	3.838618E-17	4.100667E-21
3.080000E+03	3.878308E-17	4.143066E-21
3.090000E+03	3.918682E-17	4.186196E-21
3.100000E+03	3.960249E-17	4.230601E-21
3.110000E+03	4.003521E-17	4.276826E-21
3.120000E+03	4.048042E-17	4.324386E-21
3.130000E+03	4.093836E-17	4.373307E-21
3.140000E+03	4.141426E-17	4.424145E-21
3.150000E+03	4.190348E-17	4.476406E-21
3.160000E+03	4.241127E-17	4.530652E-21
3.170000E+03	4.293293E-17	4.586379E-21
3.180000E+03	4.347882E-17	4.644695E-21
3.190000E+03	4.403919E-17	4.704556E-21
3.200000E+03	4.461428E-17	4.765992E-21
3.210000E+03	4.521456E-17	4.830117E-21
3.220000E+03	4.583528E-17	4.896426E-21
3.230000E+03	4.647671E-17	4.964948E-21
3.240000E+03	4.713914E-17	5.035713E-21
3.250000E+03	4.782806E-17	5.109308E-21
3.260000E+03	4.853854E-17	5.185206E-21
3.270000E+03	4.927609E-17	5.263996E-21
3.280000E+03	5.003568E-17	5.345139E-21
3.290000E+03	5.082819E-17	5.429801E-21
3.300000E+03	5.164317E-17	5.516862E-21
3.310000E+03	5.248611E-17	5.606910E-21
3.320000E+03	5.335719E-17	5.699965E-21
3.330000E+03	5.426198E-17	5.796621E-21
3.340000E+03	5.519508E-17	5.896300E-21
3.350000E+03	5.616199E-17	5.999591E-21
3.360000E+03	5.715706E-17	6.105891E-21
3.370000E+03	5.818567E-17	6.215773E-21
3.380000E+03	5.924751E-17	6.329206E-21
3.390000E+03	6.034783E-17	6.446749E-21
3.400000E+03	6.148032E-17	6.567729E-21
3.410000E+03	6.264406E-17	6.692047E-21
3.420000E+03	6.384364E-17	6.820194E-21
3.430000E+03	6.507178E-17	6.951391E-21
3.440000E+03	6.633827E-17	7.086686E-21
3.450000E+03	6.763493E-17	7.225203E-21
3.460000E+03	6.895880E-17	7.366627E-21
3.470000E+03	7.030626E-17	7.510572E-21
3.480000E+03	7.168496E-17	7.657853E-21
3.490000E+03	7.307765E-17	7.806628E-21
3.500000E+03	7.448408E-17	7.956873E-21
3.510000E+03	7.589689E-17	8.107797E-21
3.520000E+03	7.730743E-17	8.258480E-21
3.530000E+03	7.871187E-17	8.408511E-21
3.540000E+03	8.009885E-17	8.556677E-21
3.550000E+03	8.144949E-17	8.700961E-21
3.560000E+03	8.276202E-17	8.841174E-21
3.570000E+03	8.400904E-17	8.974388E-21
3.580000E+03	8.518705E-17	9.100230E-21
3.590000E+03	8.628059E-17	9.217048E-21
3.600000E+03	8.727124E-17	9.322876E-21
3.610000E+03	8.816347E-17	9.418189E-21
3.620000E+03	8.896173E-17	9.503464E-21
3.630000E+03	8.966634E-17	9.578735E-21
3.640000E+03	9.030077E-17	9.646509E-21
3.650000E+03	9.085125E-17	9.705314E-21
3.660000E+03	9.133212E-17	9.756683E-21
3.670000E+03	9.174589E-17	9.800884E-21
3.680000E+03	9.209005E-17	9.837649E-21
3.690000E+03	9.238012E-17	9.868635E-21
3.700000E+03	9.261214E-17	9.893421E-21
3.710000E+03	9.280171E-17	9.913671E-21
3.720000E+03	9.296793E-17	9.931428E-21
3.730000E+03	9.312428E-17	9.948130E-21
3.740000E+03	9.329494E-17	9.966361E-21
3.750000E+03	9.351461E-17	9.989827E-21
3.760000E+03	9.381412E-17	1.002182E-20
3.770000E+03	9.424049E-17	1.006737E-20
3.780000E+03	9.483666E-17	1.013105E-20
3.790000E+03	9.565898E-17	1.021890E-20
3.800000E+03	9.676166E-17	1.033669E-20
3.810000E+03	9.819906E-17	1.049025E-20
3.820000E+03	1.000144E-16	1.068418E-20
3.830000E+03	1.022519E-16	1.092319E-20
3.840000E+03	1.049281E-16	1.120908E-20
3.850000E+03	1.080681E-16	1.154452E-20
3.860000E+03	1.116874E-16	1.193116E-20
3.870000E+03	1.157918E-16	1.236961E-20
3.880000E+03	1.203934E-16	1.286119E-20
3.890000E+03	1.254759E-16	1.340413E-20
3.900000E+03	1.310246E-16	1.399688E-20
3.910000E+03	1.370059E-16	1.463583E-20
3.920000E+03	1.433623E-16	1.531486E-20
3.930000E+03	1.500288E-16	1.602702E-20
3.940000E+03	1.569147E-16	1.676261E-20
3.950000E+03	1.639256E-16	1.751156E-20
3.960000E+03	1.709451E-16	1.826142E-20
3.970000E+03	1.778531E-16	1.899938E-20
3.980000E+03	1.845231E-16	1.971191E-20
3.990000E+03	1.908276E-16	2.038540E-20
3.998999E+03	2.228222E-16	2.380326E-20
4.000502E+03	2.223147E-16	2.374904E-20
4.001996E+03	2.204820E-16	2.355326E-20
4.003499E+03	2.175264E-16	2.323753E-20
4.005003E+03	2.142534E-16	2.288789E-20
4.006496E+03	2.160623E-16	2.308112E-20
4.008000E+03	2.261512E-16	2.415888E-20
4.009503E+03	2.385237E-16	2.548059E-20
4.010997E+03	2.392104E-16	2.555394E-20
4.012500E+03	2.340932E-16	2.500730E-20
4.014004E+03	2.360270E-16	2.521387E-20
4.015497E+03	2.332319E-16	2.491528E-20
4.017001E+03	2.231297E-16	2.383611E-20
4.018504E+03	2.087948E-16	2.230476E-20
4.019998E+03	2.007021E-16	2.144025E-20
4.021501E+03	2.104881E-16	2.248565E-20
4.023005E+03	2.133601E-16	2.279246E-20
4.024498E+03	2.111710E-16	2.255860E-20
4.026001E+03	2.059904E-16	2.200518E-20
4.027495E+03	1.981551E-16	2.116816E-20
4.028999E+03	1.927072E-16	2.058618E-20
4.030502E+03	1.873150E-16	2.001015E-20
4.031995E+03	1.833720E-16	1.958894E-20
4.033499E+03	1.848481E-16	1.974663E-20
4.035002E+03	1.855826E-16	1.982509E-20
4.036496E+03	1.794227E-16	1.916705E-20
4.037999E+03	1.818459E-16	1.942591E-20
4.039503E+03	1.875680E-16	2.003718E-20
4.040996E+03	1.949315E-16	2.082380E-20
4.042500E+03	2.012392E-16	2.149763E-20
4.044003E+03	2.028210E-16	2.166660E-20
4.045497E+03	2.067044E-16	2.208145E-20
4.047000E+03	2.170155E-16	2.318295E-20
4.048504E+03	2.276283E-16	2.431667E-20
4.049997E+03	2.283292E-16	2.439155E-20
4.051501E+03	2.287661E-16	2.443821E-20
4.053004E+03	2.305916E-16	2.463323E-20
4.054497E+03	2.371229E-16	2.533094E-20
4.056001E+03	2.531674E-16	2.704492E-20
4.057505E+03	2.611202E-16	2.789448E-20
4.058998E+03	2.728069E-16	2.914293E-20
4.060501E+03	2.775903E-16	2.965391E-20
4.062005E+03	2.861585E-16	3.056922E-20
4.063498E+03	2.821789E-16	3.014410E-20
4.065002E+03	2.816578E-16	3.008844E-20
4.066495E+03	2.886446E-16	3.083481E-20
4.067999E+03	2.967571E-16	3.170143E-20
4.069502E+03	3.045049E-16	3.252910E-20
4.070996E+03	3.107066E-16	3.319161E-20
4.072499E+03	3.144343E-16	3.358982E-20
4.074003E+03	3.122279E-16	3.335412E-20
4.075496E+03	3.016955E-16	3.222898E-20
4.077000E+03	2.991228E-16	3.195415E-20
4.078503E+03	3.020073E-16	3.226229E-20
4.079997E+03	3.060174E-16	3.269067E-20
4.081500E+03	3.127853E-16	3.341366E-20
4.083004E+03	3.142365E-16	3.356869E-20
4.084497E+03	3.156879E-16	3.372374E-20
4.086001E+03	3.064756E-16	3.273962E-20
4.087504E+03	3.027214E-16	3.233857E-20
4.088997E+03	3.072402E-16	3.282130E-20
4.090501E+03	2.989832E-16	3.193924E-20
4.092005E+03	2.845901E-16	3.040168E-20
4.093498E+03	2.770150E-16	2.959246E-20
4.095001E+03	2.838055E-16	3.031786E-20
4.096505E+03	2.953062E-16	3.154644E-20
4.097998E+03	2.963364E-16	3.165649E-20
4.099502E+03	2.930880E-16	3.130947E-20
4.100995E+03	2.889944E-16	3.087217E-20
4.102499E+03	2.852105E-16	3.046795E-20
4.104002E+03	2.917879E-16	3.117059E-20
4.105496E+03	2.983661E-16	3.187331E-20
4.106999E+03	3.038190E-16	3.245583E-20
4.108503E+03	3.132716E-16	3.346561E-20
4.109996E+03	3.156282E-16	3.371736E-20
4.111500E+03	3.115356E-16	3.328016E-20
4.113003E+03	3.119213E-16	3.332135E-20
4.114497E+03	3.071519E-16	3.281187E-20
4.116000E+03	3.010303E-16	3.215791E-20
4.117504E+03	2.975842E-16	3.178978E-20
4.118997E+03	2.920812E-16	3.120191E-20
4.120501E+03	2.843235E-16	3.037319E-20
4.122004E+03	2.770807E-16	2.959947E-20
4.123498E+03	2.618057E-16	2.796770E-20
4.125001E+03	2.431501E-16	2.597479E-20
4.126505E+03	2.267918E-16	2.422730E-20
4.127998E+03	2.139742E-16	2.285804E-20
4.129501E+03	2.064684E-16	2.205623E-20
4.130995E+03	2.077933E-16	2.219776E-20
4.132498E+03	2.046108E-16	2.185778E-20
4.134002E+03	1.984817E-16	2.120304E-20
4.135495E+03	1.834029E-16	1.959222E-20
4.136999E+03	1.668246E-16	1.782124E-20
4.138502E+03	1.590790E-16	1.699380E-20
4.139996E+03	1.554016E-16	1.660096E-20
4.141499E+03	1.526067E-16	1.630239E-20
4.143003E+03	1.566286E-16	1.673203E-20
4.144496E+03	1.543411E-16	1.648767E-20
4.146000E+03	1.533822E-16	1.638523E-20
4.147503E+03	1.583785E-16	1.691896E-20
4.148997E+03	1.588474E-16	1.696906E-20
4.150500E+03	1.585631E-16	1.693868E-20
4.152004E+03	1.732908E-16	1.851199E-20
4.153497E+03	1.895812E-16	2.025223E-20
4.155001E+03	1.991207E-16	2.127130E-20
4.156504E+03	2.036154E-16	2.175145E-20
4.157997E+03	2.014211E-16	2.151704E-20
4.159501E+03	2.068598E-16	2.209803E-20
4.161005E+03	2.063257E-16	2.204098E-20
4.162498E+03	2.128386E-16	2.273672E-20
4.164001E+03	2.150892E-16	2.297715E-20
4.165505E+03	2.127742E-16	2.272984E-20
4.166998E+03	2.151863E-16	2.298752E-20
4.168502E+03	2.191466E-16	2.341059E-20
4.169995E+03	2.242204E-16	2.395260E-20
4.171499E+03	2.264877E-16	2.419480E-20
4.173002E+03	2.245377E-16	2.398650E-20
4.174496E+03	2.157731E-16	2.305020E-20
4.175999E+03	2.124971E-16	2.270024E-20
4.177503E+03	2.118428E-16	2.263035E-20
4.178996E+03	2.177133E-16	2.325747E-20
4.180500E+03	2.211859E-16	2.362844E-20
4.182003E+03	2.271436E-16	2.426487E-20
4.183497E+03	2.323362E-16	2.481958E-20
4.185000E+03	2.344091E-16	2.504101E-20
4.186504E+03	2.302798E-16	2.459990E-20
4.187997E+03	2.316377E-16	2.474495E-20
4.189501E+03	2.407411E-16	2.571744E-20
4.191004E+03	2.522868E-16	2.695082E-20
4.192497E+03	2.590125E-16	2.766930E-20
4.194001E+03	2.667807E-16	2.849915E-20
4.195505E+03	2.747343E-16	2.934880E-20
4.196998E+03	2.837729E-16	3.031436E-20
4.198501E+03	2.862327E-16	3.057713E-20
4.200005E+03	2.853261E-16	3.048028E-20
4.201498E+03	2.840797E-16	3.034713E-20
4.203002E+03	2.843617E-16	3.037726E-20
4.204495E+03	2.859456E-16	3.054646E-20
4.205999E+03	2.916345E-16	3.115418E-20
4.207502E+03	2.950317E-16	3.151709E-20
4.208996E+03	2.914083E-16	3.113002E-20
4.210499E+03	2.802503E-16	2.993805E-20
4.212003E+03	2.708515E-16	2.893401E-20
4.213496E+03	2.652768E-16	2.833849E-20
4.215000E+03	2.605538E-16	2.783395E-20
4.216503E+03	2.608665E-16	2.786735E-20
4.217997E+03	2.617172E-16	2.795823E-20
4.219500E+03	2.558314E-16	2.732947E-20
4.221004E+03	2.533219E-16	2.706139E-20
4.222497E+03	2.556405E-16	2.730908E-20
4.224000E+03	2.521133E-16	2.693229E-20
4.225504E+03	2.564537E-16	2.739595E-20
4.226997E+03	2.670169E-16	2.852437E-20
4.228501E+03	2.738662E-16	2.925605E-20
4.230004E+03	2.759765E-16	2.948149E-20
4.231498E+03	2.750448E-16	2.938197E-20
4.233001E+03	2.785004E-16	2.975111E-20
4.234505E+03	2.878672E-16	3.075173E-20
4.235998E+03	2.892884E-16	3.090355E-20
4.237502E+03	2.999865E-16	3.204639E-20
4.238995E+03	2.999629E-16	3.204386E-20
4.240499E+03	2.961942E-16	3.164127E-20
4.242002E+03	3.012219E-16	3.217836E-20
4.243496E+03	2.995245E-16	3.199703E-20
4.244999E+03	2.945346E-16	3.146398E-20
4.246503E+03	2.892884E-16	3.090355E-20
4.247996E+03	2.871638E-16	3.067658E-20
4.249499E+03	2.856069E-16	3.051027E-20
4.251003E+03	2.858957E-16	3.054112E-20
4.252496E+03	2.847646E-16	3.042028E-20
4.254000E+03	2.852809E-16	3.047544E-20
4.255503E+03	2.888654E-16	3.085836E-20
4.256997E+03	2.879904E-16	3.076488E-20
4.258500E+03	2.794043E-16	2.984767E-20
4.260004E+03	2.763376E-16	2.952006E-20
4.261497E+03	2.691606E-16	2.875337E-20
4.263001E+03	2.636906E-16	2.816903E-20
4.264504E+03	2.623413E-16	2.802489E-20
4.265998E+03	2.608466E-16	2.786522E-20
4.267501E+03	2.604636E-16	2.782431E-20
4.269005E+03	2.598932E-16	2.776337E-20
4.270498E+03	2.649681E-16	2.830550E-20
4.272002E+03	2.692851E-16	2.876667E-20
4.273495E+03	2.680700E-16	2.863687E-20
4.274999E+03	2.656629E-16	2.837972E-20
4.276502E+03	2.642400E-16	2.822772E-20
4.277995E+03	2.678737E-16	2.861590E-20
4.279499E+03	2.720041E-16	2.905713E-20
4.281003E+03	2.739922E-16	2.926951E-20
4.282496E+03	2.745146E-16	2.932531E-20
4.283999E+03	2.731838E-16	2.918315E-20
4.285503E+03	2.667868E-16	2.849978E-20
4.286996E+03	2.587731E-16	2.764371E-20
4.288500E+03	2.534553E-16	2.707563E-20
4.290003E+03	2.533097E-16	2.706008E-20
4.291497E+03	2.592673E-16	2.769650E-20
4.293000E+03	2.576268E-16	2.752126E-20
4.294504E+03	2.496675E-16	2.667100E-20
4.295997E+03	2.433279E-16	2.599376E-20
4.297501E+03	2.392790E-16	2.556123E-20
4.299004E+03	2.337550E-16	2.497112E-20
4.300498E+03	2.302057E-16	2.459197E-20
4.302001E+03	2.223834E-16	2.375634E-20
4.303505E+03	2.185353E-16	2.334526E-20
4.304998E+03	2.197842E-16	2.347868E-20
4.306502E+03	2.267059E-16	2.421810E-20
4.307995E+03	2.338664E-16	2.498302E-20
4.309499E+03	2.398135E-16	2.561833E-20
4.311002E+03	2.409442E-16	2.573911E-20
4.312495E+03	2.437766E-16	2.604169E-20
4.313999E+03	2.380587E-16	2.543087E-20
4.315503E+03	2.366571E-16	2.528115E-20
4.316996E+03	2.457541E-16	2.625294E-20
4.318499E+03	2.419199E-16	2.584334E-20
4.320003E+03	2.359790E-16	2.520870E-20
4.321496E+03	2.308508E-16	2.466087E-20
4.323000E+03	2.340833E-16	2.500619E-20
4.324503E+03	2.337785E-16	2.497363E-20
4.325997E+03	2.297172E-16	2.453978E-20
4.327500E+03	2.288372E-16	2.444577E-20
4.329004E+03	2.301076E-16	2.458148E-20
4.330497E+03	2.422261E-16	2.587606E-20
4.332001E+03	2.455044E-16	2.622627E-20
4.333504E+03	2.396893E-16	2.560506E-20
4.334998E+03	2.381871E-16	2.544458E-20
4.336501E+03	2.378868E-16	2.541250E-20
4.338005E+03	2.372316E-16	2.534251E-20
4.339498E+03	2.333756E-16	2.493059E-20
4.341002E+03	2.278040E-16	2.433540E-20
4.342495E+03	2.213256E-16	2.364333E-20
4.343999E+03	2.181362E-16	2.330262E-20
4.345502E+03	2.205891E-16	2.356465E-20
4.346995E+03	2.179803E-16	2.328597E-20
4.348499E+03	2.116832E-16	2.261328E-20
4.350002E+03	2.060778E-16	2.201448E-20
4.351496E+03	2.054437E-16	2.194673E-20
4.352999E+03	2.066989E-16	2.208083E-20
4.354503E+03	2.090328E-16	2.233014E-20
4.355996E+03	2.081756E-16	2.223857E-20
4.357500E+03	2.090252E-16	2.232933E-20
4.359003E+03	2.154347E-16	2.301403E-20
4.360497E+03	2.178811E-16	2.327537E-20
4.362000E+03	2.192900E-16	2.342587E-20
4.363504E+03	2.206018E-16	2.356601E-20
4.364997E+03	2.277243E-16	2.432688E-20
4.366501E+03	2.440117E-16	2.606680E-20
4.368004E+03	2.489819E-16	2.659774E-20
4.369498E+03	2.492432E-16	2.662565E-20
4.371001E+03	2.509070E-16	2.680339E-20
4.372505E+03	2.529738E-16	2.702418E-20
4.373998E+03	2.524204E-16	2.696507E-20
4.375502E+03	2.448284E-16	2.615404E-20
4.376995E+03	2.365724E-16	2.527209E-20
4.378498E+03	2.351312E-16	2.511813E-20
4.380002E+03	2.360247E-16	2.521358E-20
4.381495E+03	2.355148E-16	2.515910E-20
4.382999E+03	2.303994E-16	2.461265E-20
4.384502E+03	2.263901E-16	2.418435E-20
4.385996E+03	2.241521E-16	2.394527E-20
4.387499E+03	2.206759E-16	2.357392E-20
4.389003E+03	2.174521E-16	2.322953E-20
4.390496E+03	2.131183E-16	2.276658E-20
4.392000E+03	2.098201E-16	2.241424E-20
4.393503E+03	2.037412E-16	2.176486E-20
4.394997E+03	1.959803E-16	2.093579E-20
4.396500E+03	1.873812E-16	2.001718E-20
4.398004E+03	1.861861E-16	1.988952E-20
4.399497E+03	1.821568E-16	1.945908E-20
4.401001E+03	1.776592E-16	1.897862E-20
4.402504E+03	1.745904E-16	1.865079E-20
4.403998E+03	1.768334E-16	1.889040E-20
4.405501E+03	1.825797E-16	1.950425E-20
4.407005E+03	1.805724E-16	1.928983E-20
4.408498E+03	1.778110E-16	1.899483E-20
4.410002E+03	1.822220E-16	1.946604E-20
4.411505E+03	1.877119E-16	2.005250E-20
4.412998E+03	1.915663E-16	2.046426E-20
4.414502E+03	1.903654E-16	2.033597E-20
4.415995E+03	1.892622E-16	2.021811E-20
4.417499E+03	1.930651E-16	2.062437E-20
4.419002E+03	2.012714E-16	2.150101E-20
4.420496E+03	2.069977E-16	2.211273E-20
4.421999E+03	2.097634E-16	2.240818E-20
4.423503E+03	2.139040E-16	2.285050E-20
4.424996E+03	2.179795E-16	2.328588E-20
4.426500E+03	2.242532E-16	2.395606E-20
4.428003E+03	2.332379E-16	2.491587E-20
4.429497E+03	2.455950E-16	2.623592E-20
4.431000E+03	2.520380E-16	2.692420E-20
4.432504E+03	2.535762E-16	2.708852E-20
4.433997E+03	2.559894E-16	2.734632E-20
4.435501E+03	2.592878E-16	2.769867E-20
4.437004E+03	2.642160E-16	2.822513E-20
4.438498E+03	2.649384E-16	2.830230E-20
4.440001E+03	2.655343E-16	2.836596E-20
4.441505E+03	2.694241E-16	2.878149E-20
4.442998E+03	2.668952E-16	2.851134E-20
4.444502E+03	2.635076E-16	2.814945E-20
4.446005E+03	2.620739E-16	2.799629E-20
4.447498E+03	2.625196E-16	2.804390E-20
4.449002E+03	2.640806E-16	2.821066E-20
4.450495E+03	2.643793E-16	2.824257E-20
4.451999E+03	2.666649E-16	2.848673E-20
4.453502E+03	2.658704E-16	2.840185E-20
4.454996E+03	2.648167E-16	2.828930E-20
4.456499E+03	2.720352E-16	2.906042E-20
4.458003E+03	2.742993E-16	2.930228E-20
4.459496E+03	2.716255E-16	2.901665E-20
4.461000E+03	2.723500E-16	2.909405E-20
4.462503E+03	2.735375E-16	2.922090E-20
4.463997E+03	2.752576E-16	2.940465E-20
4.465500E+03	2.728711E-16	2.914971E-20
4.467004E+03	2.688279E-16	2.871780E-20
4.468497E+03	2.674926E-16	2.857515E-20
4.470001E+03	2.671210E-16	2.853545E-20
4.471504E+03	2.654827E-16	2.836044E-20
4.472998E+03	2.596607E-16	2.773850E-20
4.474501E+03	2.542619E-16	2.716176E-20
4.476005E+03	2.506473E-16	2.677563E-20
4.477498E+03	2.482636E-16	2.652099E-20
4.479002E+03	2.427599E-16	2.593305E-20
4.480505E+03	2.333634E-16	2.492927E-20
4.481998E+03	2.268151E-16	2.422974E-20
4.483502E+03	2.218048E-16	2.369451E-20
4.484995E+03	2.147666E-16	2.294264E-20
4.486499E+03	2.038490E-16	2.177636E-20
4.488002E+03	1.917466E-16	2.048351E-20
4.489496E+03	1.812971E-16	1.936723E-20
4.490999E+03	1.717748E-16	1.835000E-20
4.492503E+03	1.609155E-16	1.718995E-20
4.493996E+03	1.529938E-16	1.634371E-20
4.495500E+03	1.465361E-16	1.565386E-20
4.497003E+03	1.417451E-16	1.514205E-20
4.498497E+03	1.394610E-16	1.489804E-20
4.500000E+03	1.430419E-16	1.528058E-20
4.501504E+03	1.522900E-16	1.626851E-20
4.502997E+03	1.627894E-16	1.739013E-20
4.504501E+03	1.713857E-16	1.830844E-20
4.506004E+03	1.807626E-16	1.931013E-20
4.507498E+03	1.927922E-16	2.059521E-20
4.509001E+03	2.070611E-16	2.211950E-20
4.510505E+03	2.260356E-16	2.414646E-20
4.511998E+03	2.442399E-16	2.609115E-20
4.513502E+03	2.570500E-16	2.745960E-20
4.514995E+03	2.701480E-16	2.885881E-20
4.516498E+03	2.801907E-16	2.993163E-20
4.518002E+03	2.842817E-16	3.036865E-20
4.519495E+03	2.875614E-16	3.071901E-20
4.520999E+03	2.900157E-16	3.098119E-20
4.522502E+03	2.955405E-16	3.157138E-20
4.523996E+03	3.002895E-16	3.207869E-20
4.525499E+03	3.044834E-16	3.252671E-20
4.527003E+03	3.069751E-16	3.279289E-20
4.528496E+03	3.046167E-16	3.254095E-20
4.530000E+03	3.086395E-16	3.297069E-20
4.531503E+03	3.150473E-16	3.365521E-20
4.532997E+03	3.124545E-16	3.337823E-20
4.534500E+03	3.114211E-16	3.326784E-20
4.536004E+03	3.144794E-16	3.359455E-20
4.537497E+03	3.137992E-16	3.352188E-20
4.539001E+03	3.102033E-16	3.313774E-20
4.540504E+03	3.061636E-16	3.270620E-20
4.541998E+03	3.031530E-16	3.238458E-20
4.543501E+03	3.015269E-16	3.221088E-20
4.545005E+03	3.026427E-16	3.233007E-20
4.546498E+03	3.002782E-16	3.207748E-20
4.548001E+03	2.938944E-16	3.139553E-20
4.549495E+03	2.899801E-16	3.097738E-20
4.550998E+03	2.935392E-16	3.135758E-20
4.552502E+03	2.981044E-16	3.184526E-20
4.553995E+03	2.940231E-16	3.140927E-20
4.555499E+03	2.887141E-16	3.084214E-20
4.557002E+03	2.950647E-16	3.152054E-20
4.558496E+03	3.019890E-16	3.226024E-20
4.559999E+03	3.048549E-16	3.256639E-20
4.561503E+03	3.061549E-16	3.270527E-20
4.562996E+03	3.098224E-16	3.309705E-20
