#wls	flux	fluxerr
1.600000E+03	1.932502E-17	4.301675E-19
1.640000E+03	1.927770E-17	4.287744E-19
1.680000E+03	1.923420E-17	4.274698E-19
1.720000E+03	1.919458E-17	4.262549E-19
1.760000E+03	1.916640E-17	4.252973E-19
1.800000E+03	1.914600E-17	4.245149E-19
1.840000E+03	1.913722E-17	4.239927E-19
1.880000E+03	1.913643E-17	4.236499E-19
1.920000E+03	1.914752E-17	4.235716E-19
1.960000E+03	1.917063E-17	4.237609E-19
2.000000E+03	1.920966E-17	4.243030E-19
2.040000E+03	1.926480E-17	4.252016E-19
2.080000E+03	1.933634E-17	4.264621E-19
2.120000E+03	1.942455E-17	4.280896E-19
2.160000E+03	1.952979E-17	4.300916E-19
2.200000E+03	1.965986E-17	4.326387E-19
2.240000E+03	1.980786E-17	4.355781E-19
2.280000E+03	1.997805E-17	4.390024E-19
2.320000E+03	2.017480E-17	4.430070E-19
2.360000E+03	2.039521E-17	4.475266E-19
2.400000E+03	2.064020E-17	4.525808E-19
2.440000E+03	2.091455E-17	4.582729E-19
2.480000E+03	2.121585E-17	4.645492E-19
2.520000E+03	2.154927E-17	4.715215E-19
2.560000E+03	2.191657E-17	4.792269E-19
2.600000E+03	2.231605E-17	4.876271E-19
2.640000E+03	2.275753E-17	4.969352E-19
2.680000E+03	2.324382E-17	5.072105E-19
2.720000E+03	2.377442E-17	5.184408E-19
2.760000E+03	2.435689E-17	5.307885E-19
2.800000E+03	2.499945E-17	5.444312E-19
2.840000E+03	2.570735E-17	5.594803E-19
2.880000E+03	2.649438E-17	5.762336E-19
2.920000E+03	2.736775E-17	5.948444E-19
2.960000E+03	2.834760E-17	6.157472E-19
3.000000E+03	2.944383E-17	6.391526E-19
3.010000E+03	2.974125E-17	6.455068E-19
3.020000E+03	3.004355E-17	6.519652E-19
3.030000E+03	3.035903E-17	6.587076E-19
3.040000E+03	3.068384E-17	6.656507E-19
3.050000E+03	3.101821E-17	6.727990E-19
3.060000E+03	3.136233E-17	6.801568E-19
3.070000E+03	3.172057E-17	6.878187E-19
3.080000E+03	3.208903E-17	6.957001E-19
3.090000E+03	3.246798E-17	7.038064E-19
3.100000E+03	3.285761E-17	7.121420E-19
3.110000E+03	3.326657E-17	7.208943E-19
3.120000E+03	3.368255E-17	7.297961E-19
3.130000E+03	3.411844E-17	7.391266E-19
3.140000E+03	3.456182E-17	7.486168E-19
3.150000E+03	3.502571E-17	7.585486E-19
3.160000E+03	3.550187E-17	7.687433E-19
3.170000E+03	3.599918E-17	7.793929E-19
3.180000E+03	3.650930E-17	7.903168E-19
3.190000E+03	3.703684E-17	8.016147E-19
3.200000E+03	3.758206E-17	8.132922E-19
3.210000E+03	3.814970E-17	8.254514E-19
3.220000E+03	3.873118E-17	8.379065E-19
3.230000E+03	3.933564E-17	8.508553E-19
3.240000E+03	3.996340E-17	8.643045E-19
3.250000E+03	4.061025E-17	8.781626E-19
3.260000E+03	4.127637E-17	8.924336E-19
3.270000E+03	4.196653E-17	9.072202E-19
3.280000E+03	4.268097E-17	9.225276E-19
3.290000E+03	4.341524E-17	9.382591E-19
3.300000E+03	4.417873E-17	9.546179E-19
3.310000E+03	4.496695E-17	9.715064E-19
3.320000E+03	4.577519E-17	9.888226E-19
3.330000E+03	4.661765E-17	1.006873E-18
3.340000E+03	4.747996E-17	1.025348E-18
3.350000E+03	4.837152E-17	1.044449E-18
3.360000E+03	4.928720E-17	1.064065E-18
3.370000E+03	5.023635E-17	1.084398E-18
3.380000E+03	5.120865E-17	1.105226E-18
3.390000E+03	5.220824E-17	1.126637E-18
3.400000E+03	5.323419E-17	1.148611E-18
3.410000E+03	5.428531E-17	1.171121E-18
3.420000E+03	5.536519E-17	1.194246E-18
3.430000E+03	5.646698E-17	1.217838E-18
3.440000E+03	5.759362E-17	1.241959E-18
3.450000E+03	5.874253E-17	1.266553E-18
3.460000E+03	5.990548E-17	1.291444E-18
3.470000E+03	6.108917E-17	1.316775E-18
3.480000E+03	6.228420E-17	1.342344E-18
3.490000E+03	6.348559E-17	1.368043E-18
3.500000E+03	6.468761E-17	1.393749E-18
3.510000E+03	6.588901E-17	1.419435E-18
3.520000E+03	6.708236E-17	1.444941E-18
3.530000E+03	6.825930E-17	1.470087E-18
3.540000E+03	6.941049E-17	1.494671E-18
3.550000E+03	7.053090E-17	1.518587E-18
3.560000E+03	7.159869E-17	1.541364E-18
3.570000E+03	7.261257E-17	1.562974E-18
3.580000E+03	7.356023E-17	1.583154E-18
3.590000E+03	7.442998E-17	1.601653E-18
3.600000E+03	7.521321E-17	1.618285E-18
3.610000E+03	7.590957E-17	1.633045E-18
3.620000E+03	7.652922E-17	1.646151E-18
3.630000E+03	7.707369E-17	1.657637E-18
3.640000E+03	7.755537E-17	1.667771E-18
3.650000E+03	7.798167E-17	1.676711E-18
3.660000E+03	7.835518E-17	1.684515E-18
3.670000E+03	7.869338E-17	1.691558E-18
3.680000E+03	7.900432E-17	1.698014E-18
3.690000E+03	7.928756E-17	1.703874E-18
3.700000E+03	7.956749E-17	1.709662E-18
3.710000E+03	7.984681E-17	1.715436E-18
3.720000E+03	8.014858E-17	1.721691E-18
3.730000E+03	8.048020E-17	1.728586E-18
3.740000E+03	8.086932E-17	1.736714E-18
3.750000E+03	8.133299E-17	1.746443E-18
3.760000E+03	8.189928E-17	1.758372E-18
3.770000E+03	8.259410E-17	1.773058E-18
3.780000E+03	8.344087E-17	1.791003E-18
3.790000E+03	8.447625E-17	1.812991E-18
3.800000E+03	8.572036E-17	1.839453E-18
3.810000E+03	8.720852E-17	1.871146E-18
3.820000E+03	8.896165E-17	1.908515E-18
3.830000E+03	9.100572E-17	1.952117E-18
3.840000E+03	9.335889E-17	2.002337E-18
3.850000E+03	9.603093E-17	2.059384E-18
3.860000E+03	9.903490E-17	2.123534E-18
3.870000E+03	1.023743E-16	2.194860E-18
3.880000E+03	1.060421E-16	2.273209E-18
3.890000E+03	1.100365E-16	2.358539E-18
3.900000E+03	1.143346E-16	2.450358E-18
3.910000E+03	1.189128E-16	2.548155E-18
3.920000E+03	1.237229E-16	2.650899E-18
3.930000E+03	1.287243E-16	2.757716E-18
3.940000E+03	1.338528E-16	2.867231E-18
3.950000E+03	1.390425E-16	2.978030E-18
3.960000E+03	1.442253E-16	3.088656E-18
3.970000E+03	1.493182E-16	3.197331E-18
3.980000E+03	1.542422E-16	3.302362E-18
3.990000E+03	1.589230E-16	3.402165E-18
3.997760E+03	1.707924E-16	3.655915E-18
4.002443E+03	1.656588E-16	3.545827E-18
4.007116E+03	1.593927E-16	3.411510E-18
4.011799E+03	1.576558E-16	3.374143E-18
4.016483E+03	1.622137E-16	3.471495E-18
4.021156E+03	1.639689E-16	3.508861E-18
4.025839E+03	1.619385E-16	3.465215E-18
4.030512E+03	1.652341E-16	3.535537E-18
4.035195E+03	1.650521E-16	3.531444E-18
4.039879E+03	1.658779E-16	3.548914E-18
4.044552E+03	1.662665E-16	3.557029E-18
4.049235E+03	1.679597E-16	3.593051E-18
4.053919E+03	1.737248E-16	3.716172E-18
4.058592E+03	1.747774E-16	3.738481E-18
4.063275E+03	1.755895E-16	3.755642E-18
4.067948E+03	1.790187E-16	3.828776E-18
4.072631E+03	1.815881E-16	3.883513E-18
4.077315E+03	1.830107E-16	3.913721E-18
4.081988E+03	1.859418E-16	3.976183E-18
4.086671E+03	1.810970E-16	3.872367E-18
4.091354E+03	1.741611E-16	3.723853E-18
4.096028E+03	1.730791E-16	3.700514E-18
4.100711E+03	1.779951E-16	3.805411E-18
4.105394E+03	1.799988E-16	3.848038E-18
4.110067E+03	1.752023E-16	3.745293E-18
4.114751E+03	1.715319E-16	3.666629E-18
4.119424E+03	1.680828E-16	3.592707E-18
4.124107E+03	1.663084E-16	3.554587E-18
4.128790E+03	1.628329E-16	3.480114E-18
4.133463E+03	1.637127E-16	3.498727E-18
4.138147E+03	1.638128E-16	3.500677E-18
4.142830E+03	1.622454E-16	3.466993E-18
4.147503E+03	1.594561E-16	3.407204E-18
4.152186E+03	1.599335E-16	3.417221E-18
4.156860E+03	1.647402E-16	3.519735E-18
4.161543E+03	1.673919E-16	3.576195E-18
4.166226E+03	1.665828E-16	3.558718E-18
4.170899E+03	1.655449E-16	3.536357E-18
4.175583E+03	1.662907E-16	3.552099E-18
4.180266E+03	1.698728E-16	3.628420E-18
4.184939E+03	1.710123E-16	3.652566E-18
4.189622E+03	1.719603E-16	3.672618E-18
4.194296E+03	1.734078E-16	3.703335E-18
4.198979E+03	1.749542E-16	3.736161E-18
4.203662E+03	1.776041E-16	3.792550E-18
4.208335E+03	1.805811E-16	3.855916E-18
4.213019E+03	1.824946E-16	3.896570E-18
4.217702E+03	1.813951E-16	3.872890E-18
4.222375E+03	1.820465E-16	3.886591E-18
4.227058E+03	1.807378E-16	3.858450E-18
4.231742E+03	1.790540E-16	3.822303E-18
4.236415E+03	1.813251E-16	3.870583E-18
4.241098E+03	1.837752E-16	3.922678E-18
4.245771E+03	1.823713E-16	3.892509E-18
4.250454E+03	1.836509E-16	3.919614E-18
4.255138E+03	1.852806E-16	3.954192E-18
4.259811E+03	1.892873E-16	4.039491E-18
4.264494E+03	1.934525E-16	4.128164E-18
4.269177E+03	1.964860E-16	4.192680E-18
4.273851E+03	1.991286E-16	4.248852E-18
4.278534E+03	1.986451E-16	4.238315E-18
4.283207E+03	1.977918E-16	4.219893E-18
4.287890E+03	1.948111E-16	4.156086E-18
4.292574E+03	1.942712E-16	4.144355E-18
4.297247E+03	1.987178E-16	4.238997E-18
4.301930E+03	1.984178E-16	4.232382E-18
4.306613E+03	1.932808E-16	4.122595E-18
4.311287E+03	1.896842E-16	4.045676E-18
4.315970E+03	1.833887E-16	3.911204E-18
4.320643E+03	1.805058E-16	3.849523E-18
4.325326E+03	1.794015E-16	3.825780E-18
4.330010E+03	1.792001E-16	3.821292E-18
4.334683E+03	1.783514E-16	3.803001E-18
4.339366E+03	1.781875E-16	3.799315E-18
4.344049E+03	1.789346E-16	3.815053E-18
4.348722E+03	1.780242E-16	3.795454E-18
4.353406E+03	1.765526E-16	3.763891E-18
4.358089E+03	1.690632E-16	3.604044E-18
4.362762E+03	1.630589E-16	3.475873E-18
4.367445E+03	1.619034E-16	3.451071E-18
4.372119E+03	1.585009E-16	3.378376E-18
4.376802E+03	1.573847E-16	3.354419E-18
4.381485E+03	1.532364E-16	3.265842E-18
4.386158E+03	1.484362E-16	3.163382E-18
4.390842E+03	1.479871E-16	3.153654E-18
4.395525E+03	1.458537E-16	3.108037E-18
4.400198E+03	1.422308E-16	3.030688E-18
4.404881E+03	1.393292E-16	2.968715E-18
4.409555E+03	1.390847E-16	2.963360E-18
4.414238E+03	1.375338E-16	2.930174E-18
4.418921E+03	1.378200E-16	2.936128E-18
4.423594E+03	1.384204E-16	2.948776E-18
4.428278E+03	1.442904E-16	3.073674E-18
4.432961E+03	1.519388E-16	3.236443E-18
4.437634E+03	1.546384E-16	3.293789E-18
4.442317E+03	1.552354E-16	3.306345E-18
4.446990E+03	1.593232E-16	3.393248E-18
4.451674E+03	1.663826E-16	3.543425E-18
4.456357E+03	1.753565E-16	3.734362E-18
4.461030E+03	1.803070E-16	3.839603E-18
4.465713E+03	1.846778E-16	3.932491E-18
4.470397E+03	1.882590E-16	4.008558E-18
4.475070E+03	1.879701E-16	4.002216E-18
4.479753E+03	1.895786E-16	4.036272E-18
4.484426E+03	1.888025E-16	4.019557E-18
4.489110E+03	1.878910E-16	3.999962E-18
4.493793E+03	1.856910E-16	3.952939E-18
4.498466E+03	1.812658E-16	3.858556E-18
4.503149E+03	1.764190E-16	3.755205E-18
4.507833E+03	1.719718E-16	3.660373E-18
4.512506E+03	1.675697E-16	3.566508E-18
4.517189E+03	1.654356E-16	3.520921E-18
4.521873E+03	1.644487E-16	3.499753E-18
4.526546E+03	1.664099E-16	3.541327E-18
4.531229E+03	1.701893E-16	3.621586E-18
4.535902E+03	1.737560E-16	3.697312E-18
4.540585E+03	1.792496E-16	3.814033E-18
4.545269E+03	1.869096E-16	3.976837E-18
4.549942E+03	1.947258E-16	4.142950E-18
4.554625E+03	2.022330E-16	4.302474E-18
4.559308E+03	2.130820E-16	4.533076E-18
4.563982E+03	2.276490E-16	4.842751E-18
4.568665E+03	2.360044E-16	5.020265E-18
4.573338E+03	2.456513E-16	5.225234E-18
4.578021E+03	2.562721E-16	5.450901E-18
4.582705E+03	2.646915E-16	5.629725E-18
4.587378E+03	2.739096E-16	5.825521E-18
4.592061E+03	2.805214E-16	5.965870E-18
4.596744E+03	2.848267E-16	6.057157E-18
4.601417E+03	2.904834E-16	6.177174E-18
4.606101E+03	2.954314E-16	6.282113E-18
4.610774E+03	2.988679E-16	6.354901E-18
4.615457E+03	3.039083E-16	6.461788E-18
4.620141E+03	3.069716E-16	6.526627E-18
4.624814E+03	3.114998E-16	6.622609E-18
4.629497E+03	3.132498E-16	6.659519E-18
4.634180E+03	3.130097E-16	6.654118E-18
4.638853E+03	3.158766E-16	6.714767E-18
4.643537E+03	3.205878E-16	6.814614E-18
4.648210E+03	3.225722E-16	6.856493E-18
4.652893E+03	3.256218E-16	6.921009E-18
4.657576E+03	3.257917E-16	6.924317E-18
4.662250E+03	3.253724E-16	6.915103E-18
4.666933E+03	3.275177E-16	6.960392E-18
4.671616E+03	3.275833E-16	6.961480E-18
4.676289E+03	3.261554E-16	6.930836E-18
4.680973E+03	3.244707E-16	6.894735E-18
4.685656E+03	3.228144E-16	6.859243E-18
4.690329E+03	3.200261E-16	6.799702E-18
4.695012E+03	3.184957E-16	6.766893E-18
4.699685E+03	3.168608E-16	6.731869E-18
4.704369E+03	3.110171E-16	6.607432E-18
4.709052E+03	3.028431E-16	6.433503E-18
4.713725E+03	2.949466E-16	6.265485E-18
4.718408E+03	2.878891E-16	6.115303E-18
4.723092E+03	2.796674E-16	5.940406E-18
4.727765E+03	2.690771E-16	5.715215E-18
4.732448E+03	2.588251E-16	5.497227E-18
4.737121E+03	2.507099E-16	5.324644E-18
4.741805E+03	2.443313E-16	5.188954E-18
4.746488E+03	2.370371E-16	5.033832E-18
4.751161E+03	2.290843E-16	4.864738E-18
4.755844E+03	2.234395E-16	4.744669E-18
4.760528E+03	2.195484E-16	4.661847E-18
4.765201E+03	2.150964E-16	4.567125E-18
4.769884E+03	2.139283E-16	4.542134E-18
4.774557E+03	2.145253E-16	4.554620E-18
4.779241E+03	2.143484E-16	4.550676E-18
4.783924E+03	2.164560E-16	4.595231E-18
4.788597E+03	2.192241E-16	4.653804E-18
4.793280E+03	2.217798E-16	4.707864E-18
4.797964E+03	2.253301E-16	4.783033E-18
4.802637E+03	2.288539E-16	4.857634E-18
4.807320E+03	2.331933E-16	4.949539E-18
4.812003E+03	2.366175E-16	5.022014E-18
4.816676E+03	2.392865E-16	5.078455E-18
4.821360E+03	2.434086E-16	5.165728E-18
4.826033E+03	2.462058E-16	5.224882E-18
4.830716E+03	2.496816E-16	5.298429E-18
4.835400E+03	2.514731E-16	5.336231E-18
4.840073E+03	2.508608E-16	5.323026E-18
4.844756E+03	2.471354E-16	5.243767E-18
4.849439E+03	2.443333E-16	5.184104E-18
4.854112E+03	2.397899E-16	5.087502E-18
4.858796E+03	2.339804E-16	4.964047E-18
4.863469E+03	2.271458E-16	4.818857E-18
4.868152E+03	2.200076E-16	4.667235E-18
4.872836E+03	2.138479E-16	4.536385E-18
4.877509E+03	2.085263E-16	4.423323E-18
4.882192E+03	2.032726E-16	4.311711E-18
4.886875E+03	1.999907E-16	4.241930E-18
4.891548E+03	1.996512E-16	4.234565E-18
4.896232E+03	2.032219E-16	4.310131E-18
4.900905E+03	2.053811E-16	4.355757E-18
4.905588E+03	2.080255E-16	4.411667E-18
4.910271E+03	2.148837E-16	4.556936E-18
4.914944E+03	2.208078E-16	4.682386E-18
4.919628E+03	2.261744E-16	4.796004E-18
4.924311E+03	2.328305E-16	4.936957E-18
4.928984E+03	2.415872E-16	5.122439E-18
4.933668E+03	2.501233E-16	5.303228E-18
4.938341E+03	2.585467E-16	5.481618E-18
4.943024E+03	2.650600E-16	5.619497E-18
4.947707E+03	2.701524E-16	5.727243E-18
4.952380E+03	2.755593E-16	5.841650E-18
4.957064E+03	2.796146E-16	5.927396E-18
4.961747E+03	2.840161E-16	6.020473E-18
4.966420E+03	2.859266E-16	6.060746E-18
4.971104E+03	2.857499E-16	6.056774E-18
4.975787E+03	2.850709E-16	6.042155E-18
4.980460E+03	2.840772E-16	6.020871E-18
4.985143E+03	2.810832E-16	5.957194E-18
4.989816E+03	2.766474E-16	5.862966E-18
4.994500E+03	2.707271E-16	5.737286E-18
4.999183E+03	2.634982E-16	5.583885E-18
5.003856E+03	2.561936E-16	5.428892E-18
5.008539E+03	2.485519E-16	5.266768E-18
5.013223E+03	2.408350E-16	5.103061E-18
5.017896E+03	2.338471E-16	4.954816E-18
5.022579E+03	2.279616E-16	4.829936E-18
5.027252E+03	2.227758E-16	4.719892E-18
5.031936E+03	2.193151E-16	4.646402E-18
5.036619E+03	2.165235E-16	4.587095E-18
5.041292E+03	2.140434E-16	4.534391E-18
5.045975E+03	2.119924E-16	4.490782E-18
5.050659E+03	2.097720E-16	4.443587E-18
5.055332E+03	2.088684E-16	4.424289E-18
5.060015E+03	2.086373E-16	4.419238E-18
5.064688E+03	2.106057E-16	4.460774E-18
5.069372E+03	2.122901E-16	4.496292E-18
5.074055E+03	2.125864E-16	4.502410E-18
5.078728E+03	2.126412E-16	4.503412E-18
5.083411E+03	2.124849E-16	4.499945E-18
5.088095E+03	2.141008E-16	4.534007E-18
5.092768E+03	2.167466E-16	4.589877E-18
5.097451E+03	2.204109E-16	4.667313E-18
5.102124E+03	2.238389E-16	4.739739E-18
5.106807E+03	2.247168E-16	4.758164E-18
5.111491E+03	2.238874E-16	4.740439E-18
5.116164E+03	2.237608E-16	4.737597E-18
5.120847E+03	2.231455E-16	4.724409E-18
5.125530E+03	2.243898E-16	4.750591E-18
5.130204E+03	2.266590E-16	4.798469E-18
5.134887E+03	2.271199E-16	4.808064E-18
5.139570E+03	2.253245E-16	4.769896E-18
5.144243E+03	2.243260E-16	4.748598E-18
5.148927E+03	2.260184E-16	4.784263E-18
5.153600E+03	2.291527E-16	4.850447E-18
5.158283E+03	2.329927E-16	4.931564E-18
5.162966E+03	2.390013E-16	5.058574E-18
5.167640E+03	2.446684E-16	5.178351E-18
5.172323E+03	2.484414E-16	5.258032E-18
5.177006E+03	2.499006E-16	5.288739E-18
5.181679E+03	2.514785E-16	5.321960E-18
5.186363E+03	2.546031E-16	5.387908E-18
5.191036E+03	2.589268E-16	5.479228E-18
5.195719E+03	2.645800E-16	5.598675E-18
5.200402E+03	2.672267E-16	5.654498E-18
5.205075E+03	2.686514E-16	5.684461E-18
5.209759E+03	2.701978E-16	5.716997E-18
5.214442E+03	2.739642E-16	5.796502E-18
5.219115E+03	2.789667E-16	5.902157E-18
5.223798E+03	2.808317E-16	5.941424E-18
5.228482E+03	2.820756E-16	5.967553E-18
5.233155E+03	2.831933E-16	5.991010E-18
5.237838E+03	2.865877E-16	6.062626E-18
5.242511E+03	2.891593E-16	6.116836E-18
5.247195E+03	2.906225E-16	6.147596E-18
5.251878E+03	2.948920E-16	6.237714E-18
5.256551E+03	3.004797E-16	6.355710E-18
5.261234E+03	3.048845E-16	6.448678E-18
5.265918E+03	3.074903E-16	6.503594E-18
5.270591E+03	3.096490E-16	6.549050E-18
5.275274E+03	3.131837E-16	6.623605E-18
5.279947E+03	3.181097E-16	6.727581E-18
5.284631E+03	3.238614E-16	6.849012E-18
5.289314E+03	3.282182E-16	6.940938E-18
5.293987E+03	3.336987E-16	7.056622E-18
5.298670E+03	3.391191E-16	7.171028E-18
5.303354E+03	3.437250E-16	7.268206E-18
5.308027E+03	3.477389E-16	7.352862E-18
5.312710E+03	3.512333E-16	7.426528E-18
5.317383E+03	3.560261E-16	7.527643E-18
5.322066E+03	3.626718E-16	7.667929E-18
5.326750E+03	3.683391E-16	7.787522E-18
5.331423E+03	3.717255E-16	7.858886E-18
5.336106E+03	3.737929E-16	7.902361E-18
5.340789E+03	3.782267E-16	7.995862E-18
5.345463E+03	3.846220E-16	8.130824E-18
5.350146E+03	3.877552E-16	8.196821E-18
5.354829E+03	3.910553E-16	8.266343E-18
5.359502E+03	3.965751E-16	8.382781E-18
5.364186E+03	3.988871E-16	8.431410E-18
5.368859E+03	3.992471E-16	8.438778E-18
5.373542E+03	3.995085E-16	8.444061E-18
5.378225E+03	4.026449E-16	8.510111E-18
5.382899E+03	4.049259E-16	8.558078E-18
5.387582E+03	4.067831E-16	8.597089E-18
5.392265E+03	4.085153E-16	8.633453E-18
5.396938E+03	4.083509E-16	8.629738E-18
5.401622E+03	4.092254E-16	8.647977E-18
5.406295E+03	4.136085E-16	8.740361E-18
5.410978E+03	4.165654E-16	8.802602E-18
5.415661E+03	4.167077E-16	8.805366E-18
5.420334E+03	4.156377E-16	8.782513E-18
5.425018E+03	4.143804E-16	8.755707E-18
5.429701E+03	4.139266E-16	8.745878E-18
5.434374E+03	4.152431E-16	8.773457E-18
5.439057E+03	4.150074E-16	8.768241E-18
5.443731E+03	4.155726E-16	8.779944E-18
5.448414E+03	4.207656E-16	8.889420E-18
5.453097E+03	4.270681E-16	9.022329E-18
5.457770E+03	4.307943E-16	9.100808E-18
5.462454E+03	4.343889E-16	9.176503E-18
5.467137E+03	4.400020E-16	9.294834E-18
5.471810E+03	4.467209E-16	9.436520E-18
5.476493E+03	4.541291E-16	9.592759E-18
5.481167E+03	4.592577E-16	9.700839E-18
5.485850E+03	4.617399E-16	9.753015E-18
5.490533E+03	4.661517E-16	9.845948E-18
5.495206E+03	4.721606E-16	9.972608E-18
5.499890E+03	4.768017E-16	1.007038E-17
5.504573E+03	4.785186E-16	1.010638E-17
5.509246E+03	4.790014E-16	1.011632E-17
5.513929E+03	4.825567E-16	1.019114E-17
5.518613E+03	4.869654E-16	1.028399E-17
5.523286E+03	4.894429E-16	1.033605E-17
5.527969E+03	4.903191E-16	1.035430E-17
5.532642E+03	4.908257E-16	1.036474E-17
5.537325E+03	4.912480E-16	1.037340E-17
5.542009E+03	4.891791E-16	1.032945E-17
5.546682E+03	4.859309E-16	1.026061E-17
5.551365E+03	4.832563E-16	1.020389E-17
5.556048E+03	4.798520E-16	1.013176E-17
5.560722E+03	4.757617E-16	1.004515E-17
5.565405E+03	4.737486E-16	1.000240E-17
5.570078E+03	4.726725E-16	9.979443E-18
5.574761E+03	4.701761E-16	9.926497E-18
5.579445E+03	4.640744E-16	9.797444E-18
5.584118E+03	4.589547E-16	9.689127E-18
5.588801E+03	4.565532E-16	9.638200E-18
5.593484E+03	4.559342E-16	9.624904E-18
5.598158E+03	4.555582E-16	9.616742E-18
5.602841E+03	4.560691E-16	9.627303E-18
5.607514E+03	4.551268E-16	9.607188E-18
5.612197E+03	4.539422E-16	9.581961E-18
5.616881E+03	4.537252E-16	9.577159E-18
5.621554E+03	4.516974E-16	9.534137E-18
5.626237E+03	4.479824E-16	9.455509E-18
5.630920E+03	4.456787E-16	9.406670E-18
5.635593E+03	4.449040E-16	9.390106E-18
5.640277E+03	4.439281E-16	9.369298E-18
5.644950E+03	4.455983E-16	9.404338E-18
5.649633E+03	4.486253E-16	9.468011E-18
5.654316E+03	4.508459E-16	9.514664E-18
5.658990E+03	4.551410E-16	9.605096E-18
5.663673E+03	4.595468E-16	9.697861E-18
5.668356E+03	4.632257E-16	9.775283E-18
5.673029E+03	4.666192E-16	9.846681E-18
5.677713E+03	4.704032E-16	9.926316E-18
5.682396E+03	4.753737E-16	1.003099E-17
5.687069E+03	4.829600E-16	1.019085E-17
5.691752E+03	4.900943E-16	1.034117E-17
5.696426E+03	4.959855E-16	1.046525E-17
5.701109E+03	4.992863E-16	1.053468E-17
5.705792E+03	5.019067E-16	1.058974E-17
5.710465E+03	5.049182E-16	1.065306E-17
5.715149E+03	5.049157E-16	1.065279E-17
5.719832E+03	5.004063E-16	1.055743E-17
5.724505E+03	4.955094E-16	1.045390E-17
5.729188E+03	4.916449E-16	1.037216E-17
5.733861E+03	4.862100E-16	1.025729E-17
5.738545E+03	4.789313E-16	1.010353E-17
5.743228E+03	4.699327E-16	9.913496E-18
5.747901E+03	4.588263E-16	9.679006E-18
5.752584E+03	4.461661E-16	9.411750E-18
5.757268E+03	4.335272E-16	9.144954E-18
