#wls	flux	fluxerr
1.600000E+03	1.019970E-17	4.375413E-19
1.640000E+03	1.024804E-17	4.390703E-19
1.680000E+03	1.030170E-17	4.408086E-19
1.720000E+03	1.036087E-17	4.427630E-19
1.760000E+03	1.042760E-17	4.450196E-19
1.800000E+03	1.050026E-17	4.475068E-19
1.840000E+03	1.057911E-17	4.502345E-19
1.880000E+03	1.066811E-17	4.533696E-19
1.920000E+03	1.076390E-17	4.567662E-19
1.960000E+03	1.086866E-17	4.605156E-19
2.000000E+03	1.098467E-17	4.647110E-19
2.040000E+03	1.111236E-17	4.693685E-19
2.080000E+03	1.125223E-17	4.745057E-19
2.120000E+03	1.140486E-17	4.801435E-19
2.160000E+03	1.157086E-17	4.863040E-19
2.200000E+03	1.175283E-17	4.930926E-19
2.240000E+03	1.195155E-17	5.005377E-19
2.280000E+03	1.216987E-17	5.087530E-19
2.320000E+03	1.240880E-17	5.177750E-19
2.360000E+03	1.267142E-17	5.277265E-19
2.400000E+03	1.295708E-17	5.385727E-19
2.440000E+03	1.327116E-17	5.505296E-19
2.480000E+03	1.361329E-17	5.635737E-19
2.520000E+03	1.399134E-17	5.780207E-19
2.560000E+03	1.440333E-17	5.937779E-19
2.600000E+03	1.485770E-17	6.111816E-19
2.640000E+03	1.535496E-17	6.302390E-19
2.680000E+03	1.590217E-17	6.512245E-19
2.720000E+03	1.650246E-17	6.742499E-19
2.760000E+03	1.716361E-17	6.996138E-19
2.800000E+03	1.789159E-17	7.275384E-19
2.840000E+03	1.869267E-17	7.582548E-19
2.880000E+03	1.957331E-17	7.919990E-19
2.920000E+03	2.054011E-17	8.290084E-19
2.960000E+03	2.160436E-17	8.697069E-19
3.000000E+03	2.277254E-17	9.143195E-19
3.010000E+03	2.308325E-17	9.261770E-19
3.020000E+03	2.339980E-17	9.382498E-19
3.030000E+03	2.372223E-17	9.505385E-19
3.040000E+03	2.405305E-17	9.631435E-19
3.050000E+03	2.439230E-17	9.760657E-19
3.060000E+03	2.473750E-17	9.892049E-19
3.070000E+03	2.509120E-17	1.002662E-18
3.080000E+03	2.545342E-17	1.016438E-18
3.090000E+03	2.582160E-17	1.030430E-18
3.100000E+03	2.620090E-17	1.044842E-18
3.110000E+03	2.658616E-17	1.059468E-18
3.120000E+03	2.697994E-17	1.074409E-18
3.130000E+03	2.738221E-17	1.089664E-18
3.140000E+03	2.779297E-17	1.105231E-18
3.150000E+03	2.820948E-17	1.121001E-18
3.160000E+03	2.863703E-17	1.137183E-18
3.170000E+03	2.907289E-17	1.153668E-18
3.180000E+03	2.951697E-17	1.170452E-18
3.190000E+03	2.997191E-17	1.187638E-18
3.200000E+03	3.043218E-17	1.205006E-18
3.210000E+03	3.090312E-17	1.222767E-18
3.220000E+03	3.138185E-17	1.240807E-18
3.230000E+03	3.186825E-17	1.259118E-18
3.240000E+03	3.236493E-17	1.277805E-18
3.250000E+03	3.286897E-17	1.296751E-18
3.260000E+03	3.338299E-17	1.316058E-18
3.270000E+03	3.390401E-17	1.335607E-18
3.280000E+03	3.443466E-17	1.355503E-18
3.290000E+03	3.497478E-17	1.375736E-18
3.300000E+03	3.552130E-17	1.396186E-18
3.310000E+03	3.607687E-17	1.416957E-18
3.320000E+03	3.664132E-17	1.438040E-18
3.330000E+03	3.721154E-17	1.459313E-18
3.340000E+03	3.779315E-17	1.480995E-18
3.350000E+03	3.838306E-17	1.502964E-18
3.360000E+03	3.898109E-17	1.525213E-18
3.370000E+03	3.958417E-17	1.547620E-18
3.380000E+03	4.020096E-17	1.570523E-18
3.390000E+03	4.082253E-17	1.593572E-18
3.400000E+03	4.145470E-17	1.616994E-18
3.410000E+03	4.209445E-17	1.640670E-18
3.420000E+03	4.274180E-17	1.664600E-18
3.430000E+03	4.339974E-17	1.688899E-18
3.440000E+03	4.406837E-17	1.713571E-18
3.450000E+03	4.474485E-17	1.738503E-18
3.460000E+03	4.543236E-17	1.763819E-18
3.470000E+03	4.613118E-17	1.789528E-18
3.480000E+03	4.684163E-17	1.815641E-18
3.490000E+03	4.756105E-17	1.842055E-18
3.500000E+03	4.829596E-17	1.869020E-18
3.510000E+03	4.904384E-17	1.896438E-18
3.520000E+03	4.980525E-17	1.924329E-18
3.530000E+03	5.058081E-17	1.952715E-18
3.540000E+03	5.137425E-17	1.981740E-18
3.550000E+03	5.218321E-17	2.011310E-18
3.560000E+03	5.300842E-17	2.041452E-18
3.570000E+03	5.385683E-17	2.072431E-18
3.580000E+03	5.472304E-17	2.104039E-18
3.590000E+03	5.560780E-17	2.136301E-18
3.600000E+03	5.651810E-17	2.169485E-18
3.610000E+03	5.744848E-17	2.203378E-18
3.620000E+03	5.840593E-17	2.238246E-18
3.630000E+03	5.938486E-17	2.273873E-18
3.640000E+03	6.039221E-17	2.310522E-18
3.650000E+03	6.142548E-17	2.348095E-18
3.660000E+03	6.248520E-17	2.386609E-18
3.670000E+03	6.357506E-17	2.426202E-18
3.680000E+03	6.469232E-17	2.466768E-18
3.690000E+03	6.584052E-17	2.508439E-18
3.700000E+03	6.701997E-17	2.551222E-18
3.710000E+03	6.823084E-17	2.595122E-18
3.720000E+03	6.947001E-17	2.640017E-18
3.730000E+03	7.074387E-17	2.686146E-18
3.740000E+03	7.204578E-17	2.733256E-18
3.750000E+03	7.338186E-17	2.781574E-18
3.760000E+03	7.474837E-17	2.830955E-18
3.770000E+03	7.614455E-17	2.881369E-18
3.780000E+03	7.756943E-17	2.932776E-18
3.790000E+03	7.902844E-17	2.985377E-18
3.800000E+03	8.051017E-17	3.038739E-18
3.810000E+03	8.201949E-17	3.093044E-18
3.820000E+03	8.355430E-17	3.148209E-18
3.830000E+03	8.511222E-17	3.204143E-18
3.840000E+03	8.669048E-17	3.260739E-18
3.850000E+03	8.828258E-17	3.317752E-18
3.860000E+03	8.989179E-17	3.375302E-18
3.870000E+03	9.150749E-17	3.432989E-18
3.880000E+03	9.313224E-17	3.490910E-18
3.890000E+03	9.475809E-17	3.548765E-18
3.900000E+03	9.638015E-17	3.606373E-18
3.910000E+03	9.799327E-17	3.663539E-18
3.920000E+03	9.959191E-17	3.720060E-18
3.930000E+03	1.011740E-16	3.775859E-18
3.940000E+03	1.027302E-16	3.830590E-18
3.950000E+03	1.042581E-16	3.884164E-18
3.960000E+03	1.057484E-16	3.936241E-18
3.970000E+03	1.071953E-16	3.986608E-18
3.980000E+03	1.085931E-16	4.035058E-18
3.990000E+03	1.099399E-16	4.081524E-18
4.000000E+03	1.112272E-16	4.125696E-18
4.010000E+03	1.124537E-16	4.167533E-18
4.020000E+03	1.136119E-16	4.206767E-18
4.030000E+03	1.146983E-16	4.243269E-18
4.040000E+03	1.157100E-16	4.276945E-18
4.050000E+03	1.166448E-16	4.307714E-18
4.060000E+03	1.175044E-16	4.335656E-18
4.070000E+03	1.182818E-16	4.360513E-18
4.080000E+03	1.189806E-16	4.382430E-18
4.090000E+03	1.196017E-16	4.401446E-18
4.100000E+03	1.201442E-16	4.417538E-18
4.110000E+03	1.206138E-16	4.430923E-18
4.120000E+03	1.210112E-16	4.441628E-18
4.130000E+03	1.213402E-16	4.449812E-18
4.140000E+03	1.216028E-16	4.455543E-18
4.150000E+03	1.218103E-16	4.459246E-18
4.160000E+03	1.219619E-16	4.460903E-18
4.170000E+03	1.220639E-16	4.460740E-18
4.180000E+03	1.221220E-16	4.458976E-18
4.190000E+03	1.221422E-16	4.455833E-18
4.200000E+03	1.221274E-16	4.451424E-18
4.210000E+03	1.220836E-16	4.445965E-18
4.220000E+03	1.220163E-16	4.439665E-18
4.230000E+03	1.219284E-16	4.432630E-18
4.240000E+03	1.218256E-16	4.425065E-18
4.250000E+03	1.217134E-16	4.417179E-18
4.260000E+03	1.215976E-16	4.409176E-18
4.270000E+03	1.214787E-16	4.401082E-18
4.280000E+03	1.213629E-16	4.393119E-18
4.290000E+03	1.212589E-16	4.385596E-18
4.300000E+03	1.211681E-16	4.378571E-18
4.310000E+03	1.210971E-16	4.372278E-18
4.320000E+03	1.210525E-16	4.366955E-18
4.330000E+03	1.210390E-16	4.362767E-18
4.340000E+03	1.210633E-16	4.359955E-18
4.350000E+03	1.211301E-16	4.358683E-18
4.360000E+03	1.212442E-16	4.359123E-18
4.370000E+03	1.214166E-16	4.361666E-18
4.380000E+03	1.216474E-16	4.366305E-18
4.390000E+03	1.219416E-16	4.373223E-18
4.400000E+03	1.223032E-16	4.382550E-18
4.410000E+03	1.227335E-16	4.394333E-18
4.420000E+03	1.232309E-16	4.408508E-18
4.430000E+03	1.237928E-16	4.424974E-18
4.440000E+03	1.244199E-16	4.443751E-18
4.450000E+03	1.251080E-16	4.464687E-18
4.460000E+03	1.258521E-16	4.487597E-18
4.470000E+03	1.266485E-16	4.512342E-18
4.480000E+03	1.274926E-16	4.538755E-18
4.490000E+03	1.283769E-16	4.566568E-18
4.500000E+03	1.292954E-16	4.595556E-18
4.510000E+03	1.302427E-16	4.625536E-18
4.520000E+03	1.312068E-16	4.656072E-18
4.530000E+03	1.321787E-16	4.686843E-18
4.540000E+03	1.331506E-16	4.717577E-18
4.550000E+03	1.341099E-16	4.747826E-18
4.560000E+03	1.350436E-16	4.777127E-18
4.570000E+03	1.359418E-16	4.805141E-18
4.580000E+03	1.367931E-16	4.831463E-18
4.590000E+03	1.375840E-16	4.855618E-18
4.600000E+03	1.383057E-16	4.877306E-18
4.610000E+03	1.389445E-16	4.896047E-18
4.620000E+03	1.394964E-16	4.911705E-18
4.630000E+03	1.399530E-16	4.923996E-18
4.640000E+03	1.403101E-16	4.932777E-18
4.650000E+03	1.405656E-16	4.937984E-18
4.660000E+03	1.407212E-16	4.939685E-18
4.670000E+03	1.407748E-16	4.937812E-18
4.680000E+03	1.407321E-16	4.932573E-18
4.690000E+03	1.405980E-16	4.924149E-18
4.700000E+03	1.403807E-16	4.912832E-18
4.710000E+03	1.400839E-16	4.898758E-18
4.720000E+03	1.397199E-16	4.882363E-18
4.730000E+03	1.392960E-16	4.863908E-18
4.740000E+03	1.388238E-16	4.843803E-18
4.750000E+03	1.383116E-16	4.822339E-18
4.760000E+03	1.377713E-16	4.799932E-18
4.770000E+03	1.372130E-16	4.776937E-18
4.780000E+03	1.366445E-16	4.753626E-18
4.790000E+03	1.360785E-16	4.730446E-18
4.800000E+03	1.355219E-16	4.707629E-18
4.810000E+03	1.349825E-16	4.685448E-18
4.820000E+03	1.344710E-16	4.664270E-18
4.830000E+03	1.339896E-16	4.644173E-18
4.840000E+03	1.335450E-16	4.625386E-18
4.850000E+03	1.331424E-16	4.608084E-18
4.860000E+03	1.327839E-16	4.592334E-18
4.870000E+03	1.324682E-16	4.578093E-18
4.880000E+03	1.321980E-16	4.565448E-18
4.890000E+03	1.319695E-16	4.554265E-18
4.900000E+03	1.317815E-16	4.544497E-18
4.910000E+03	1.316285E-16	4.535953E-18
4.920000E+03	1.315111E-16	4.528656E-18
4.930000E+03	1.314199E-16	4.522271E-18
4.940000E+03	1.313553E-16	4.516812E-18
4.950000E+03	1.313091E-16	4.512002E-18
4.960000E+03	1.312809E-16	4.507818E-18
4.970000E+03	1.312673E-16	4.504143E-18
4.980000E+03	1.312642E-16	4.500838E-18
4.990000E+03	1.312738E-16	4.497977E-18
5.000000E+03	1.312933E-16	4.495464E-18
5.010000E+03	1.313295E-16	4.493529E-18
5.020000E+03	1.313826E-16	4.492177E-18
5.030000E+03	1.314590E-16	4.491629E-18
5.040000E+03	1.315653E-16	4.492104E-18
5.050000E+03	1.317092E-16	4.493866E-18
5.060000E+03	1.319015E-16	4.497281E-18
5.070000E+03	1.321522E-16	4.502684E-18
5.080000E+03	1.324704E-16	4.510383E-18
5.090000E+03	1.328708E-16	4.520870E-18
5.100000E+03	1.333615E-16	4.534415E-18
5.110000E+03	1.339549E-16	4.551438E-18
5.120000E+03	1.346634E-16	4.572348E-18
5.130000E+03	1.354948E-16	4.597404E-18
5.140000E+03	1.364571E-16	4.626868E-18
5.150000E+03	1.375564E-16	4.660937E-18
5.160000E+03	1.387984E-16	4.699798E-18
5.170000E+03	1.401850E-16	4.743502E-18
5.180000E+03	1.417126E-16	4.791919E-18
5.190000E+03	1.433821E-16	4.845071E-18
5.200000E+03	1.451893E-16	4.902806E-18
5.210000E+03	1.471245E-16	4.964785E-18
5.220000E+03	1.491829E-16	5.030842E-18
5.230000E+03	1.513533E-16	5.100591E-18
5.240000E+03	1.536245E-16	5.173643E-18
5.250000E+03	1.559835E-16	5.249561E-18
5.260000E+03	1.584159E-16	5.327855E-18
5.270000E+03	1.609043E-16	5.407928E-18
5.280000E+03	1.634331E-16	5.489263E-18
5.290000E+03	1.659824E-16	5.571180E-18
5.300000E+03	1.685323E-16	5.653021E-18
5.310000E+03	1.710648E-16	5.734176E-18
5.320000E+03	1.735549E-16	5.813813E-18
5.330000E+03	1.759818E-16	5.891240E-18
5.340000E+03	1.783270E-16	5.965839E-18
5.350000E+03	1.805696E-16	6.036922E-18
5.360000E+03	1.826928E-16	6.103933E-18
5.370000E+03	1.846835E-16	6.166444E-18
5.380000E+03	1.865309E-16	6.224102E-18
5.390000E+03	1.882312E-16	6.276795E-18
5.400000E+03	1.897883E-16	6.324655E-18
5.410000E+03	1.912028E-16	6.367721E-18
5.420000E+03	1.924856E-16	6.406359E-18
5.430000E+03	1.936469E-16	6.440923E-18
5.440000E+03	1.946964E-16	6.471741E-18
5.450000E+03	1.956487E-16	6.499301E-18
5.460000E+03	1.965111E-16	6.523861E-18
5.470000E+03	1.972995E-16	6.545947E-18
5.480000E+03	1.980231E-16	6.565875E-18
5.490000E+03	1.986836E-16	6.583702E-18
5.500000E+03	1.992859E-16	6.599600E-18
5.510000E+03	1.998215E-16	6.613285E-18
5.520000E+03	2.002813E-16	6.624465E-18
5.530000E+03	2.006489E-16	6.632602E-18
5.540000E+03	2.009112E-16	6.637266E-18
5.550000E+03	2.010527E-16	6.637957E-18
5.560000E+03	2.010593E-16	6.634215E-18
5.570000E+03	2.009193E-16	6.625659E-18
5.580000E+03	2.006262E-16	6.612084E-18
5.590000E+03	2.001749E-16	6.593333E-18
5.600000E+03	1.995643E-16	6.569375E-18
5.610000E+03	1.987992E-16	6.540380E-18
5.620000E+03	1.978827E-16	6.506456E-18
5.630000E+03	1.968250E-16	6.467946E-18
5.640000E+03	1.956352E-16	6.425156E-18
5.650000E+03	1.943252E-16	6.378485E-18
5.660000E+03	1.929050E-16	6.328264E-18
5.670000E+03	1.913826E-16	6.274765E-18
5.680000E+03	1.897748E-16	6.218540E-18
5.690000E+03	1.880955E-16	6.160049E-18
5.700000E+03	1.863589E-16	6.099763E-18
5.710000E+03	1.845889E-16	6.038462E-18
5.720000E+03	1.828027E-16	5.976713E-18
5.730000E+03	1.810287E-16	5.915442E-18
5.740000E+03	1.792903E-16	5.855412E-18
5.750000E+03	1.776162E-16	5.797559E-18
5.760000E+03	1.760335E-16	5.742758E-18
5.770000E+03	1.745678E-16	5.691846E-18
5.780000E+03	1.732436E-16	5.645608E-18
5.790000E+03	1.720827E-16	5.604750E-18
5.800000E+03	1.711058E-16	5.569934E-18
5.810000E+03	1.703239E-16	5.541511E-18
5.820000E+03	1.697526E-16	5.519974E-18
5.830000E+03	1.693974E-16	5.505494E-18
5.840000E+03	1.692638E-16	5.498237E-18
5.850000E+03	1.693496E-16	5.498117E-18
5.860000E+03	1.696525E-16	5.505054E-18
5.870000E+03	1.701605E-16	5.518641E-18
5.880000E+03	1.708676E-16	5.538677E-18
5.890000E+03	1.717524E-16	5.564461E-18
5.900000E+03	1.728001E-16	5.595500E-18
5.910000E+03	1.739871E-16	5.631025E-18
5.920000E+03	1.752870E-16	5.670172E-18
5.930000E+03	1.766778E-16	5.712225E-18
5.940000E+03	1.781294E-16	5.756214E-18
5.950000E+03	1.796139E-16	5.801227E-18
5.960000E+03	1.811012E-16	5.846294E-18
5.970000E+03	1.825671E-16	5.890633E-18
5.980000E+03	1.839863E-16	5.933431E-18
5.990000E+03	1.853416E-16	5.974136E-18
6.000000E+03	1.866141E-16	6.012140E-18
6.010000E+03	1.877981E-16	6.047269E-18
6.020000E+03	1.888837E-16	6.079205E-18
6.030000E+03	1.898746E-16	6.108070E-18
6.040000E+03	1.907696E-16	6.133836E-18
6.050000E+03	1.915760E-16	6.156740E-18
6.060000E+03	1.923050E-16	6.177145E-18
6.070000E+03	1.929733E-16	6.195594E-18
6.080000E+03	1.935956E-16	6.212558E-18
6.090000E+03	1.941884E-16	6.228570E-18
6.100000E+03	1.947744E-16	6.244361E-18
6.110000E+03	1.953746E-16	6.260606E-18
6.120000E+03	1.960106E-16	6.277990E-18
6.130000E+03	1.966985E-16	6.297033E-18
6.140000E+03	1.974634E-16	6.318534E-18
6.150000E+03	1.983215E-16	6.343011E-18
6.160000E+03	1.992895E-16	6.370986E-18
6.170000E+03	2.003799E-16	6.402866E-18
6.180000E+03	2.016025E-16	6.438946E-18
6.190000E+03	2.029620E-16	6.479383E-18
6.200000E+03	2.044594E-16	6.524196E-18
6.210000E+03	2.060885E-16	6.573183E-18
6.220000E+03	2.078438E-16	6.626164E-18
6.230000E+03	2.097137E-16	6.682766E-18
6.240000E+03	2.116801E-16	6.742410E-18
6.250000E+03	2.137262E-16	6.804555E-18
6.260000E+03	2.158296E-16	6.868484E-18
6.270000E+03	2.179615E-16	6.933282E-18
6.280000E+03	2.200950E-16	6.998096E-18
6.290000E+03	2.221951E-16	7.061811E-18
6.300000E+03	2.242319E-16	7.123481E-18
6.310000E+03	2.261619E-16	7.181726E-18
6.320000E+03	2.279445E-16	7.235268E-18
6.330000E+03	2.295443E-16	7.282988E-18
6.340000E+03	2.309141E-16	7.323396E-18
6.350000E+03	2.320202E-16	7.355435E-18
6.360000E+03	2.328215E-16	7.377815E-18
6.370000E+03	2.332958E-16	7.389843E-18
6.380000E+03	2.334184E-16	7.390754E-18
6.390000E+03	2.331878E-16	7.380515E-18
6.400000E+03	2.326057E-16	7.359187E-18
6.410000E+03	2.316883E-16	7.327302E-18
6.420000E+03	2.304664E-16	7.285844E-18
6.430000E+03	2.289742E-16	7.235908E-18
6.440000E+03	2.272592E-16	7.179001E-18
6.450000E+03	2.253716E-16	7.116720E-18
6.460000E+03	2.233623E-16	7.050671E-18
6.470000E+03	2.212890E-16	6.982684E-18
6.480000E+03	2.192082E-16	6.914543E-18
6.490000E+03	2.171658E-16	6.847693E-18
6.500000E+03	2.152136E-16	6.783766E-18
6.510000E+03	2.133920E-16	6.724033E-18
6.520000E+03	2.117301E-16	6.669409E-18
6.530000E+03	2.102522E-16	6.620646E-18
6.540000E+03	2.089650E-16	6.577956E-18
6.550000E+03	2.078612E-16	6.541099E-18
6.560000E+03	2.069247E-16	6.509563E-18
6.570000E+03	2.061371E-16	6.482763E-18
6.580000E+03	2.054724E-16	6.459879E-18
6.590000E+03	2.049088E-16	6.440219E-18
6.600000E+03	2.044223E-16	6.423022E-18
6.610000E+03	2.039918E-16	6.407630E-18
6.620000E+03	2.035925E-16	6.393255E-18
6.630000E+03	2.032035E-16	6.379246E-18
6.640000E+03	2.028092E-16	6.365107E-18
6.650000E+03	2.023926E-16	6.350307E-18
6.660000E+03	2.019390E-16	6.334387E-18
6.670000E+03	2.014361E-16	6.316954E-18
6.680000E+03	2.008757E-16	6.297761E-18
6.690000E+03	2.002499E-16	6.276553E-18
6.700000E+03	1.995503E-16	6.253073E-18
6.710000E+03	1.987796E-16	6.227409E-18
6.720000E+03	1.979323E-16	6.199381E-18
6.730000E+03	1.970164E-16	6.169248E-18
6.740000E+03	1.960365E-16	6.137152E-18
6.750000E+03	1.949966E-16	6.103219E-18
6.760000E+03	1.939043E-16	6.067690E-18
6.770000E+03	1.927741E-16	6.031017E-18
6.780000E+03	1.916128E-16	5.993409E-18
6.790000E+03	1.904278E-16	5.955104E-18
6.800000E+03	1.892351E-16	5.916600E-18
6.810000E+03	1.880457E-16	5.878239E-18
6.820000E+03	1.868682E-16	5.840292E-18
6.830000E+03	1.857142E-16	5.803115E-18
6.840000E+03	1.845974E-16	5.767139E-18
6.850000E+03	1.835289E-16	5.732712E-18
6.860000E+03	1.825168E-16	5.700082E-18
6.870000E+03	1.815740E-16	5.669648E-18
6.880000E+03	1.807098E-16	5.641707E-18
6.890000E+03	1.799356E-16	5.616603E-18
6.900000E+03	1.792537E-16	5.594415E-18
6.910000E+03	1.786734E-16	5.575426E-18
6.920000E+03	1.781999E-16	5.559800E-18
6.930000E+03	1.778375E-16	5.547668E-18
6.940000E+03	1.775889E-16	5.539112E-18
6.950000E+03	1.774559E-16	5.534187E-18
6.960000E+03	1.774411E-16	5.532973E-18
6.970000E+03	1.775387E-16	5.535285E-18
6.980000E+03	1.777492E-16	5.541142E-18
6.990000E+03	1.780721E-16	5.550526E-18
7.000000E+03	1.784988E-16	5.563166E-18
7.010000E+03	1.790272E-16	5.578996E-18
7.020000E+03	1.796528E-16	5.597876E-18
7.030000E+03	1.803705E-16	5.619648E-18
7.040000E+03	1.811754E-16	5.644156E-18
7.050000E+03	1.820602E-16	5.671173E-18
7.060000E+03	1.830230E-16	5.700643E-18
7.070000E+03	1.840604E-16	5.732454E-18
7.080000E+03	1.851664E-16	5.766425E-18
7.090000E+03	1.863391E-16	5.802494E-18
7.100000E+03	1.875770E-16	5.840615E-18
7.110000E+03	1.888825E-16	5.880865E-18
7.120000E+03	1.902503E-16	5.923078E-18
7.130000E+03	1.916871E-16	5.967463E-18
7.140000E+03	1.931886E-16	6.013890E-18
7.150000E+03	1.947598E-16	6.062510E-18
7.160000E+03	1.963995E-16	6.113290E-18
7.170000E+03	1.981095E-16	6.166285E-18
7.180000E+03	1.998909E-16	6.221533E-18
7.190000E+03	2.017474E-16	6.279148E-18
7.200000E+03	2.036723E-16	6.338922E-18
7.210000E+03	2.056637E-16	6.400800E-18
7.220000E+03	2.077213E-16	6.464774E-18
7.230000E+03	2.098399E-16	6.530683E-18
7.240000E+03	2.120061E-16	6.598110E-18
7.250000E+03	2.142140E-16	6.666877E-18
7.260000E+03	2.164489E-16	6.736522E-18
7.270000E+03	2.187005E-16	6.806733E-18
7.280000E+03	2.209498E-16	6.876920E-18
7.290000E+03	2.231792E-16	6.946534E-18
7.300000E+03	2.253692E-16	7.014969E-18
7.310000E+03	2.274983E-16	7.081562E-18
7.320000E+03	2.295406E-16	7.145508E-18
7.330000E+03	2.314727E-16	7.206079E-18
7.340000E+03	2.332706E-16	7.262527E-18
7.350000E+03	2.349103E-16	7.314111E-18
7.360000E+03	2.363686E-16	7.360105E-18
7.370000E+03	2.376233E-16	7.399820E-18
7.380000E+03	2.386505E-16	7.432512E-18
7.390000E+03	2.394324E-16	7.457625E-18
7.400000E+03	2.399573E-16	7.474795E-18
7.410000E+03	2.402065E-16	7.483440E-18
7.420000E+03	2.401795E-16	7.483540E-18
7.430000E+03	2.398688E-16	7.474859E-18
7.440000E+03	2.392715E-16	7.457306E-18
7.450000E+03	2.383997E-16	7.431251E-18
7.460000E+03	2.372554E-16	7.396759E-18
7.470000E+03	2.358591E-16	7.354459E-18
7.480000E+03	2.342208E-16	7.304664E-18
7.490000E+03	2.323650E-16	7.248127E-18
7.500000E+03	2.303187E-16	7.185696E-18
7.510000E+03	2.281014E-16	7.117970E-18
7.520000E+03	2.257453E-16	7.045947E-18
7.530000E+03	2.232835E-16	6.970664E-18
7.540000E+03	2.207437E-16	6.892976E-18
7.550000E+03	2.181574E-16	6.813866E-18
7.560000E+03	2.155588E-16	6.734403E-18
7.570000E+03	2.129753E-16	6.655439E-18
7.580000E+03	2.104394E-16	6.577987E-18
7.590000E+03	2.079752E-16	6.502806E-18
7.600000E+03	2.056145E-16	6.430885E-18
7.610000E+03	2.033737E-16	6.362745E-18
7.620000E+03	2.012758E-16	6.299102E-18
7.630000E+03	1.993375E-16	6.240484E-18
7.640000E+03	1.975717E-16	6.187302E-18
7.650000E+03	1.959914E-16	6.139964E-18
7.660000E+03	1.945991E-16	6.098555E-18
7.670000E+03	1.933969E-16	6.063147E-18
7.680000E+03	1.923828E-16	6.033687E-18
7.690000E+03	1.915543E-16	6.010096E-18
7.700000E+03	1.909018E-16	5.992085E-18
7.710000E+03	1.904064E-16	5.979069E-18
7.720000E+03	1.900605E-16	5.970813E-18
7.730000E+03	1.898385E-16	5.966519E-18
7.740000E+03	1.897179E-16	5.965488E-18
7.750000E+03	1.896766E-16	5.967031E-18
7.760000E+03	1.896847E-16	5.970207E-18
