#wls	flux	fluxerr
1.600000E+03	4.798720E-18	1.725883E-19
1.640000E+03	4.832940E-18	1.737536E-19
1.680000E+03	4.869190E-18	1.749893E-19
1.720000E+03	4.908481E-18	1.763316E-19
1.760000E+03	4.950990E-18	1.777866E-19
1.800000E+03	4.995160E-18	1.792982E-19
1.840000E+03	5.042916E-18	1.809353E-19
1.880000E+03	5.094477E-18	1.827055E-19
1.920000E+03	5.148291E-18	1.845530E-19
1.960000E+03	5.207276E-18	1.865820E-19
2.000000E+03	5.268994E-18	1.887050E-19
2.040000E+03	5.336451E-18	1.910292E-19
2.080000E+03	5.407200E-18	1.934667E-19
2.120000E+03	5.483409E-18	1.960948E-19
2.160000E+03	5.565449E-18	1.989263E-19
2.200000E+03	5.652750E-18	2.019404E-19
2.240000E+03	5.746691E-18	2.051858E-19
2.280000E+03	5.846739E-18	2.086431E-19
2.320000E+03	5.954368E-18	2.123642E-19
2.360000E+03	6.069092E-18	2.163313E-19
2.400000E+03	6.191447E-18	2.205627E-19
2.440000E+03	6.324144E-18	2.251544E-19
2.480000E+03	6.465756E-18	2.300547E-19
2.520000E+03	6.616966E-18	2.352871E-19
2.560000E+03	6.779643E-18	2.409171E-19
2.600000E+03	6.954662E-18	2.469747E-19
2.640000E+03	7.141788E-18	2.534505E-19
2.680000E+03	7.341968E-18	2.603769E-19
2.720000E+03	7.558727E-18	2.678776E-19
2.760000E+03	7.790829E-18	2.759071E-19
2.800000E+03	8.039512E-18	2.845080E-19
2.840000E+03	8.307487E-18	2.937744E-19
2.880000E+03	8.596361E-18	3.037610E-19
2.920000E+03	8.906472E-18	3.144779E-19
2.960000E+03	9.241125E-18	3.260393E-19
3.000000E+03	9.600942E-18	3.384647E-19
3.010000E+03	9.694697E-18	3.417012E-19
3.020000E+03	9.791761E-18	3.450526E-19
3.030000E+03	9.889050E-18	3.484102E-19
3.040000E+03	9.989754E-18	3.518865E-19
3.050000E+03	1.009235E-17	3.554275E-19
3.060000E+03	1.019524E-17	3.589774E-19
3.070000E+03	1.030172E-17	3.626516E-19
3.080000E+03	1.040856E-17	3.663367E-19
3.090000E+03	1.051910E-17	3.701501E-19
3.100000E+03	1.063175E-17	3.740358E-19
3.110000E+03	1.074656E-17	3.779953E-19
3.120000E+03	1.086185E-17	3.819699E-19
3.130000E+03	1.098110E-17	3.860815E-19
3.140000E+03	1.110265E-17	3.902721E-19
3.150000E+03	1.122657E-17	3.945435E-19
3.160000E+03	1.135289E-17	3.988973E-19
3.170000E+03	1.148168E-17	4.033357E-19
3.180000E+03	1.161301E-17	4.078605E-19
3.190000E+03	1.174692E-17	4.124739E-19
3.200000E+03	1.188347E-17	4.171776E-19
3.210000E+03	1.202273E-17	4.219740E-19
3.220000E+03	1.216477E-17	4.268654E-19
3.230000E+03	1.230964E-17	4.318533E-19
3.240000E+03	1.245935E-17	4.370086E-19
3.250000E+03	1.261011E-17	4.421980E-19
3.260000E+03	1.276391E-17	4.474912E-19
3.270000E+03	1.292083E-17	4.528908E-19
3.280000E+03	1.308297E-17	4.584706E-19
3.290000E+03	1.324635E-17	4.640909E-19
3.300000E+03	1.341307E-17	4.698253E-19
3.310000E+03	1.358531E-17	4.757499E-19
3.320000E+03	1.375897E-17	4.817211E-19
3.330000E+03	1.393836E-17	4.878897E-19
3.340000E+03	1.411928E-17	4.941086E-19
3.350000E+03	1.430617E-17	5.005327E-19
3.360000E+03	1.449471E-17	5.070114E-19
3.370000E+03	1.468942E-17	5.137024E-19
3.380000E+03	1.488593E-17	5.204526E-19
3.390000E+03	1.508886E-17	5.274236E-19
3.400000E+03	1.529371E-17	5.344578E-19
3.410000E+03	1.550523E-17	5.417214E-19
3.420000E+03	1.572122E-17	5.491369E-19
3.430000E+03	1.593931E-17	5.566222E-19
3.440000E+03	1.616448E-17	5.643501E-19
3.450000E+03	1.639440E-17	5.722399E-19
3.460000E+03	1.662919E-17	5.802951E-19
3.470000E+03	1.686896E-17	5.885197E-19
3.480000E+03	1.711120E-17	5.968262E-19
3.490000E+03	1.736119E-17	6.053983E-19
3.500000E+03	1.761649E-17	6.141505E-19
3.510000E+03	1.787720E-17	6.230867E-19
3.520000E+03	1.814342E-17	6.322098E-19
3.530000E+03	1.841527E-17	6.415241E-19
3.540000E+03	1.869287E-17	6.510334E-19
3.550000E+03	1.897633E-17	6.607414E-19
3.560000E+03	1.926575E-17	6.706515E-19
3.570000E+03	1.956124E-17	6.807675E-19
3.580000E+03	1.986294E-17	6.910935E-19
3.590000E+03	2.017093E-17	7.016330E-19
3.600000E+03	2.048535E-17	7.123897E-19
3.610000E+03	2.080629E-17	7.233674E-19
3.620000E+03	2.113386E-17	7.345694E-19
3.630000E+03	2.146817E-17	7.459991E-19
3.640000E+03	2.180934E-17	7.576606E-19
3.650000E+03	2.215744E-17	7.695566E-19
3.660000E+03	2.251595E-17	7.818070E-19
3.670000E+03	2.287830E-17	7.941837E-19
3.680000E+03	2.324791E-17	8.068054E-19
3.690000E+03	2.362485E-17	8.196740E-19
3.700000E+03	2.400920E-17	8.327927E-19
3.710000E+03	2.440105E-17	8.461639E-19
3.720000E+03	2.480416E-17	8.599176E-19
3.730000E+03	2.521131E-17	8.738034E-19
3.740000E+03	2.562617E-17	8.879487E-19
3.750000E+03	2.604881E-17	9.023551E-19
3.760000E+03	2.648317E-17	9.171592E-19
3.770000E+03	2.692157E-17	9.320945E-19
3.780000E+03	2.736787E-17	9.472950E-19
3.790000E+03	2.782212E-17	9.627614E-19
3.800000E+03	2.828845E-17	9.786367E-19
3.810000E+03	2.875865E-17	9.946371E-19
3.820000E+03	2.923681E-17	1.010903E-18
3.830000E+03	2.972724E-17	1.027584E-18
3.840000E+03	3.022129E-17	1.044380E-18
3.850000E+03	3.072319E-17	1.061437E-18
3.860000E+03	3.123743E-17	1.078911E-18
3.870000E+03	3.175492E-17	1.096487E-18
3.880000E+03	3.228003E-17	1.114315E-18
3.890000E+03	3.281265E-17	1.132392E-18
3.900000E+03	3.335747E-17	1.150880E-18
3.910000E+03	3.390479E-17	1.169443E-18
3.920000E+03	3.445915E-17	1.188237E-18
3.930000E+03	3.502543E-17	1.207432E-18
3.940000E+03	3.559339E-17	1.226673E-18
3.950000E+03	3.616776E-17	1.246123E-18
3.960000E+03	3.675353E-17	1.265955E-18
3.970000E+03	3.733996E-17	1.285798E-18
3.980000E+03	3.793191E-17	1.305819E-18
3.990000E+03	3.852902E-17	1.326005E-18
4.000000E+03	3.913651E-17	1.346537E-18
4.010000E+03	3.974287E-17	1.367018E-18
4.020000E+03	4.035316E-17	1.387621E-18
4.030000E+03	4.096689E-17	1.408331E-18
4.040000E+03	4.158947E-17	1.429332E-18
4.050000E+03	4.220863E-17	1.450204E-18
4.060000E+03	4.282957E-17	1.471124E-18
4.070000E+03	4.345170E-17	1.492072E-18
4.080000E+03	4.408061E-17	1.513241E-18
4.090000E+03	4.470321E-17	1.534180E-18
4.100000E+03	4.532492E-17	1.555076E-18
4.110000E+03	4.594499E-17	1.575903E-18
4.120000E+03	4.656260E-17	1.596634E-18
4.130000E+03	4.717695E-17	1.617241E-18
4.140000E+03	4.779387E-17	1.637923E-18
4.150000E+03	4.839914E-17	1.658193E-18
4.160000E+03	4.899844E-17	1.678247E-18
4.170000E+03	4.959084E-17	1.698053E-18
4.180000E+03	5.017537E-17	1.717577E-18
4.190000E+03	5.075103E-17	1.736786E-18
4.200000E+03	5.131683E-17	1.755646E-18
4.210000E+03	5.187171E-17	1.774121E-18
4.220000E+03	5.241470E-17	1.792178E-18
4.230000E+03	5.294473E-17	1.809782E-18
4.240000E+03	5.346078E-17	1.826897E-18
4.250000E+03	5.396186E-17	1.843491E-18
4.260000E+03	5.444697E-17	1.859529E-18
4.270000E+03	5.490752E-17	1.874719E-18
4.280000E+03	5.535774E-17	1.889547E-18
4.290000E+03	5.578918E-17	1.903725E-18
4.300000E+03	5.620099E-17	1.917225E-18
4.310000E+03	5.659239E-17	1.930021E-18
4.320000E+03	5.695480E-17	1.941821E-18
4.330000E+03	5.730320E-17	1.953137E-18
4.340000E+03	5.762923E-17	1.963683E-18
4.350000E+03	5.792446E-17	1.973174E-18
4.360000E+03	5.820436E-17	1.982137E-18
4.370000E+03	5.846073E-17	1.990293E-18
4.380000E+03	5.868533E-17	1.997364E-18
4.390000E+03	5.889415E-17	2.003893E-18
4.400000E+03	5.907111E-17	2.009335E-18
4.410000E+03	5.923246E-17	2.014244E-18
4.420000E+03	5.936230E-17	2.018078E-18
4.430000E+03	5.947714E-17	2.021399E-18
4.440000E+03	5.956122E-17	2.023675E-18
4.450000E+03	5.962320E-17	2.025197E-18
4.460000E+03	5.967180E-17	2.026266E-18
4.470000E+03	5.969157E-17	2.026354E-18
4.480000E+03	5.969139E-17	2.025766E-18
4.490000E+03	5.967218E-17	2.024533E-18
4.500000E+03	5.963486E-17	2.022685E-18
4.510000E+03	5.958848E-17	2.020532E-18
4.520000E+03	5.951799E-17	2.017563E-18
4.530000E+03	5.943254E-17	2.014089E-18
4.540000E+03	5.933326E-17	2.010148E-18
4.550000E+03	5.922128E-17	2.005779E-18
4.560000E+03	5.909779E-17	2.001023E-18
4.570000E+03	5.895604E-17	1.995651E-18
4.580000E+03	5.881309E-17	1.990242E-18
4.590000E+03	5.866219E-17	1.984567E-18
4.600000E+03	5.850450E-17	1.978666E-18
4.610000E+03	5.834121E-17	1.972578E-18
4.620000E+03	5.816571E-17	1.966081E-18
4.630000E+03	5.799471E-17	1.959740E-18
4.640000E+03	5.782153E-17	1.953329E-18
4.650000E+03	5.763957E-17	1.946625E-18
4.660000E+03	5.746533E-17	1.940185E-18
4.670000E+03	5.728450E-17	1.933526E-18
4.680000E+03	5.711336E-17	1.927198E-18
4.690000E+03	5.693769E-17	1.920721E-18
4.700000E+03	5.676605E-17	1.914383E-18
4.710000E+03	5.660687E-17	1.908469E-18
4.720000E+03	5.644600E-17	1.902501E-18
4.730000E+03	5.629182E-17	1.896762E-18
4.740000E+03	5.614513E-17	1.891278E-18
4.750000E+03	5.600674E-17	1.886076E-18
4.760000E+03	5.587738E-17	1.881182E-18
4.770000E+03	5.575777E-17	1.876618E-18
4.780000E+03	5.564860E-17	1.872408E-18
4.790000E+03	5.555051E-17	1.868574E-18
4.800000E+03	5.546415E-17	1.865135E-18
4.810000E+03	5.539008E-17	1.862112E-18
4.820000E+03	5.532889E-17	1.859523E-18
4.830000E+03	5.527386E-17	1.857142E-18
4.840000E+03	5.524000E-17	1.855474E-18
4.850000E+03	5.522054E-17	1.854290E-18
4.860000E+03	5.520871E-17	1.853363E-18
4.870000E+03	5.521940E-17	1.853192E-18
4.880000E+03	5.523855E-17	1.853304E-18
4.890000E+03	5.528099E-17	1.854198E-18
4.900000E+03	5.533263E-17	1.855400E-18
4.910000E+03	5.540101E-17	1.857162E-18
4.920000E+03	5.549368E-17	1.859737E-18
4.930000E+03	5.559644E-17	1.862648E-18
4.940000E+03	5.571679E-17	1.866147E-18
4.950000E+03	5.585494E-17	1.870240E-18
4.960000E+03	5.601110E-17	1.874933E-18
4.970000E+03	5.618546E-17	1.880233E-18
4.980000E+03	5.637816E-17	1.886143E-18
4.990000E+03	5.658933E-17	1.892667E-18
5.000000E+03	5.681907E-17	1.899808E-18
5.010000E+03	5.706742E-17	1.907568E-18
5.020000E+03	5.733446E-17	1.915948E-18
5.030000E+03	5.761270E-17	1.924697E-18
5.040000E+03	5.791701E-17	1.934312E-18
5.050000E+03	5.823237E-17	1.944290E-18
5.060000E+03	5.857369E-17	1.955129E-18
5.070000E+03	5.893335E-17	1.966574E-18
5.080000E+03	5.930349E-17	1.978362E-18
5.090000E+03	5.969145E-17	1.990738E-18
5.100000E+03	6.010472E-17	2.003951E-18
5.110000E+03	6.052748E-17	2.017473E-18
5.120000E+03	6.096709E-17	2.031549E-18
5.130000E+03	6.142309E-17	2.046163E-18
5.140000E+03	6.189501E-17	2.061299E-18
5.150000E+03	6.239032E-17	2.077205E-18
5.160000E+03	6.289239E-17	2.093328E-18
5.170000E+03	6.340856E-17	2.109911E-18
5.180000E+03	6.392983E-17	2.126655E-18
5.190000E+03	6.447180E-17	2.144078E-18
5.200000E+03	6.502542E-17	2.161879E-18
5.210000E+03	6.558976E-17	2.180026E-18
5.220000E+03	6.616380E-17	2.198486E-18
5.230000E+03	6.673791E-17	2.216938E-18
5.240000E+03	6.732795E-17	2.235910E-18
5.250000E+03	6.791554E-17	2.254790E-18
5.260000E+03	6.851669E-17	2.274110E-18
5.270000E+03	6.911260E-17	2.293245E-18
5.280000E+03	6.971942E-17	2.312733E-18
5.290000E+03	7.031795E-17	2.331935E-18
5.300000E+03	7.091546E-17	2.351094E-18
5.310000E+03	7.151040E-17	2.370158E-18
5.320000E+03	7.211034E-17	2.389378E-18
5.330000E+03	7.269527E-17	2.408090E-18
5.340000E+03	7.327263E-17	2.426542E-18
5.350000E+03	7.384074E-17	2.444679E-18
5.360000E+03	7.439788E-17	2.462444E-18
5.370000E+03	7.494236E-17	2.479781E-18
5.380000E+03	7.547250E-17	2.496635E-18
5.390000E+03	7.597697E-17	2.512632E-18
5.400000E+03	7.647349E-17	2.528359E-18
5.410000E+03	7.695089E-17	2.543446E-18
5.420000E+03	7.740771E-17	2.557847E-18
5.430000E+03	7.783271E-17	2.571190E-18
5.440000E+03	7.824438E-17	2.584086E-18
5.450000E+03	7.862175E-17	2.595845E-18
5.460000E+03	7.898378E-17	2.607093E-18
5.470000E+03	7.930959E-17	2.617141E-18
5.480000E+03	7.960853E-17	2.626299E-18
5.490000E+03	7.989023E-17	2.634885E-18
5.500000E+03	8.013408E-17	2.642220E-18
5.510000E+03	8.035001E-17	2.648634E-18
5.520000E+03	8.053803E-17	2.654125E-18
5.530000E+03	8.070853E-17	2.659039E-18
5.540000E+03	8.084139E-17	2.662712E-18
5.550000E+03	8.094735E-17	2.665500E-18
5.560000E+03	8.102706E-17	2.667424E-18
5.570000E+03	8.108134E-17	2.668513E-18
5.580000E+03	8.110088E-17	2.668459E-18
5.590000E+03	8.110732E-17	2.667977E-18
5.600000E+03	8.109155E-17	2.666767E-18
5.610000E+03	8.105492E-17	2.664874E-18
5.620000E+03	8.099876E-17	2.662342E-18
5.630000E+03	8.091431E-17	2.658883E-18
5.640000E+03	8.082357E-17	2.655222E-18
5.650000E+03	8.070763E-17	2.650737E-18
5.660000E+03	8.058856E-17	2.646153E-18
5.670000E+03	8.044753E-17	2.640852E-18
5.680000E+03	8.030656E-17	2.635559E-18
5.690000E+03	8.014696E-17	2.629659E-18
5.700000E+03	7.999063E-17	2.623871E-18
5.710000E+03	7.981895E-17	2.617584E-18
5.720000E+03	7.964364E-17	2.611184E-18
5.730000E+03	7.946625E-17	2.604721E-18
5.740000E+03	7.928832E-17	2.598245E-18
5.750000E+03	7.912130E-17	2.592132E-18
5.760000E+03	7.894663E-17	2.585773E-18
5.770000E+03	7.877573E-17	2.579543E-18
5.780000E+03	7.860992E-17	2.573485E-18
5.790000E+03	7.845049E-17	2.567641E-18
5.800000E+03	7.829867E-17	2.562050E-18
5.810000E+03	7.814577E-17	2.556428E-18
5.820000E+03	7.801262E-17	2.551458E-18
5.830000E+03	7.789043E-17	2.546850E-18
5.840000E+03	7.778018E-17	2.542637E-18
5.850000E+03	7.768280E-17	2.538848E-18
5.860000E+03	7.758939E-17	2.535194E-18
5.870000E+03	7.752037E-17	2.532339E-18
5.880000E+03	7.745692E-17	2.529670E-18
5.890000E+03	7.741929E-17	2.527848E-18
5.900000E+03	7.739838E-17	2.526575E-18
5.910000E+03	7.738502E-17	2.525550E-18
5.920000E+03	7.739929E-17	2.525430E-18
5.930000E+03	7.742214E-17	2.525592E-18
5.940000E+03	7.746377E-17	2.526369E-18
5.950000E+03	7.753436E-17	2.528093E-18
5.960000E+03	7.761472E-17	2.530135E-18
5.970000E+03	7.771487E-17	2.532825E-18
5.980000E+03	7.783508E-17	2.536169E-18
5.990000E+03	7.798535E-17	2.540494E-18
6.000000E+03	7.814621E-17	2.545164E-18
6.010000E+03	7.832757E-17	2.550502E-18
6.020000E+03	7.852945E-17	2.556508E-18
6.030000E+03	7.875188E-17	2.563183E-18
6.040000E+03	7.899480E-17	2.570524E-18
6.050000E+03	7.925812E-17	2.578529E-18
6.060000E+03	7.954168E-17	2.587192E-18
6.070000E+03	7.984531E-17	2.596505E-18
6.080000E+03	8.016874E-17	2.606462E-18
6.090000E+03	8.051169E-17	2.617052E-18
6.100000E+03	8.086359E-17	2.627930E-18
6.110000E+03	8.124440E-17	2.639747E-18
6.120000E+03	8.164347E-17	2.652155E-18
6.130000E+03	8.206032E-17	2.665139E-18
6.140000E+03	8.248393E-17	2.678340E-18
6.150000E+03	8.293444E-17	2.692411E-18
6.160000E+03	8.340077E-17	2.706994E-18
6.170000E+03	8.387158E-17	2.721720E-18
6.180000E+03	8.436714E-17	2.737247E-18
6.190000E+03	8.486533E-17	2.752856E-18
6.200000E+03	8.538654E-17	2.769209E-18
6.210000E+03	8.590823E-17	2.785575E-18
6.220000E+03	8.645093E-17	2.802620E-18
6.230000E+03	8.699173E-17	2.819600E-18
6.240000E+03	8.755125E-17	2.837184E-18
6.250000E+03	8.810617E-17	2.854617E-18
6.260000E+03	8.866610E-17	2.872209E-18
6.270000E+03	8.924086E-17	2.890280E-18
6.280000E+03	8.980650E-17	2.908052E-18
6.290000E+03	9.037264E-17	2.925839E-18
6.300000E+03	9.093766E-17	2.943588E-18
6.310000E+03	9.151145E-17	2.961619E-18
6.320000E+03	9.206925E-17	2.979131E-18
6.330000E+03	9.262078E-17	2.996438E-18
6.340000E+03	9.316424E-17	3.013484E-18
6.350000E+03	9.369781E-17	3.030209E-18
6.360000E+03	9.421962E-17	3.046553E-18
6.370000E+03	9.472783E-17	3.062457E-18
6.380000E+03	9.522059E-17	3.077862E-18
6.390000E+03	9.569603E-17	3.092708E-18
6.400000E+03	9.615232E-17	3.106936E-18
6.410000E+03	9.658767E-17	3.120489E-18
6.420000E+03	9.700034E-17	3.133311E-18
6.430000E+03	9.738863E-17	3.145348E-18
6.440000E+03	9.775094E-17	3.156548E-18
6.450000E+03	9.808574E-17	3.166863E-18
6.460000E+03	9.839160E-17	3.176247E-18
6.470000E+03	9.865476E-17	3.184257E-18
6.480000E+03	9.889898E-17	3.191660E-18
6.490000E+03	9.911081E-17	3.198023E-18
6.500000E+03	9.928937E-17	3.203318E-18
6.510000E+03	9.942142E-17	3.207118E-18
6.520000E+03	9.953157E-17	3.210218E-18
6.530000E+03	9.960693E-17	3.212204E-18
6.540000E+03	9.963474E-17	3.212662E-18
6.550000E+03	9.964027E-17	3.212410E-18
6.560000E+03	9.961111E-17	3.211047E-18
6.570000E+03	9.953505E-17	3.208180E-18
6.580000E+03	9.943788E-17	3.204641E-18
6.590000E+03	9.929513E-17	3.199641E-18
6.600000E+03	9.913287E-17	3.194021E-18
6.610000E+03	9.892700E-17	3.187005E-18
6.620000E+03	9.870376E-17	3.179437E-18
6.630000E+03	9.843936E-17	3.170553E-18
6.640000E+03	9.814772E-17	3.160801E-18
6.650000E+03	9.784273E-17	3.150628E-18
6.660000E+03	9.750101E-17	3.139281E-18
6.670000E+03	9.714895E-17	3.127610E-18
6.680000E+03	9.676345E-17	3.114873E-18
6.690000E+03	9.635851E-17	3.101519E-18
6.700000E+03	9.594804E-17	3.087996E-18
6.710000E+03	9.550924E-17	3.073570E-18
6.720000E+03	9.505603E-17	3.058691E-18
6.730000E+03	9.459007E-17	3.043410E-18
6.740000E+03	9.411298E-17	3.027780E-18
6.750000E+03	9.363830E-17	3.012237E-18
6.760000E+03	9.314369E-17	2.996062E-18
6.770000E+03	9.264268E-17	2.979690E-18
6.780000E+03	9.213672E-17	2.963168E-18
6.790000E+03	9.162725E-17	2.946542E-18
6.800000E+03	9.111568E-17	2.929856E-18
6.810000E+03	9.060329E-17	2.913153E-18
6.820000E+03	9.009136E-17	2.896474E-18
6.830000E+03	8.959253E-17	2.880223E-18
6.840000E+03	8.908501E-17	2.863702E-18
6.850000E+03	8.858140E-17	2.847315E-18
6.860000E+03	8.807146E-17	2.830731E-18
6.870000E+03	8.757869E-17	2.814708E-18
6.880000E+03	8.709270E-17	2.798910E-18
6.890000E+03	8.661431E-17	2.783364E-18
6.900000E+03	8.614431E-17	2.768095E-18
6.910000E+03	8.568344E-17	2.753127E-18
6.920000E+03	8.523235E-17	2.738480E-18
6.930000E+03	8.479166E-17	2.724174E-18
6.940000E+03	8.436195E-17	2.710228E-18
6.950000E+03	8.393296E-17	2.696312E-18
6.960000E+03	8.352670E-17	2.683134E-18
6.970000E+03	8.313281E-17	2.670358E-18
6.980000E+03	8.275163E-17	2.657998E-18
6.990000E+03	8.237298E-17	2.645725E-18
7.000000E+03	8.201825E-17	2.634227E-18
7.010000E+03	8.167714E-17	2.623173E-18
7.020000E+03	8.133940E-17	2.612233E-18
7.030000E+03	8.102611E-17	2.602084E-18
7.040000E+03	8.072697E-17	2.592395E-18
7.050000E+03	8.043175E-17	2.582839E-18
7.060000E+03	8.016121E-17	2.574080E-18
7.070000E+03	7.989482E-17	2.565461E-18
7.080000E+03	7.965311E-17	2.557640E-18
7.090000E+03	7.942582E-17	2.550287E-18
7.100000E+03	7.920276E-17	2.543076E-18
7.110000E+03	7.900427E-17	2.536660E-18
7.120000E+03	7.880993E-17	2.530382E-18
7.130000E+03	7.862984E-17	2.524567E-18
7.140000E+03	7.847399E-17	2.519536E-18
7.150000E+03	7.832205E-17	2.514637E-18
7.160000E+03	7.819407E-17	2.510511E-18
7.170000E+03	7.806972E-17	2.506508E-18
7.180000E+03	7.795895E-17	2.502947E-18
7.190000E+03	7.787157E-17	2.500142E-18
7.200000E+03	7.778734E-17	2.497443E-18
7.210000E+03	7.771607E-17	2.495166E-18
7.220000E+03	7.766756E-17	2.493626E-18
7.230000E+03	7.762157E-17	2.492172E-18
7.240000E+03	7.758785E-17	2.491118E-18
7.250000E+03	7.756615E-17	2.490455E-18
7.260000E+03	7.755621E-17	2.490176E-18
7.270000E+03	7.756780E-17	2.490593E-18
7.280000E+03	7.758058E-17	2.491055E-18
7.290000E+03	7.760429E-17	2.491874E-18
7.300000E+03	7.763863E-17	2.493040E-18
7.310000E+03	7.768330E-17	2.494544E-18
7.320000E+03	7.773800E-17	2.496376E-18
7.330000E+03	7.780238E-17	2.498526E-18
7.340000E+03	7.787614E-17	2.500983E-18
7.350000E+03	7.795893E-17	2.503736E-18
7.360000E+03	7.805039E-17	2.506774E-18
7.370000E+03	7.815019E-17	2.510087E-18
7.380000E+03	7.825797E-17	2.513663E-18
7.390000E+03	7.837334E-17	2.517490E-18
7.400000E+03	7.849592E-17	2.521556E-18
7.410000E+03	7.862532E-17	2.525847E-18
7.420000E+03	7.875091E-17	2.530023E-18
7.430000E+03	7.889272E-17	2.534728E-18
7.440000E+03	7.904011E-17	2.539620E-18
7.450000E+03	7.919263E-17	2.544684E-18
7.460000E+03	7.934983E-17	2.549907E-18
7.470000E+03	7.950091E-17	2.554940E-18
7.480000E+03	7.966605E-17	2.560434E-18
7.490000E+03	7.983443E-17	2.566040E-18
7.500000E+03	7.999511E-17	2.571406E-18
7.510000E+03	8.016838E-17	2.577186E-18
7.520000E+03	8.034330E-17	2.583028E-18
7.530000E+03	8.050878E-17	2.588574E-18
7.540000E+03	8.068523E-17	2.594483E-18
7.550000E+03	8.085099E-17	2.600057E-18
7.560000E+03	8.102652E-17	2.605954E-18
7.570000E+03	8.119003E-17	2.611473E-18
7.580000E+03	8.136202E-17	2.617275E-18
7.590000E+03	8.152055E-17	2.622654E-18
7.600000E+03	8.168620E-17	2.628271E-18
7.610000E+03	8.183685E-17	2.633416E-18
7.620000E+03	8.198240E-17	2.638406E-18
7.630000E+03	8.213283E-17	2.643564E-18
7.640000E+03	8.226578E-17	2.648168E-18
7.650000E+03	8.239115E-17	2.652539E-18
7.660000E+03	8.251892E-17	2.656998E-18
7.670000E+03	8.262653E-17	2.660818E-18
7.680000E+03	8.272388E-17	2.664317E-18
7.690000E+03	8.281003E-17	2.667467E-18
7.700000E+03	8.289494E-17	2.670587E-18
7.710000E+03	8.295583E-17	2.672944E-18
7.720000E+03	8.300260E-17	2.674856E-18
7.730000E+03	8.303427E-17	2.676292E-18
7.740000E+03	8.304980E-17	2.677219E-18
7.750000E+03	8.304821E-17	2.677603E-18
7.760000E+03	8.302845E-17	2.677413E-18
