#wls	flux	fluxerr
1.600000E+03	2.674033E-18	1.422705E-19
1.640000E+03	2.693784E-18	1.432539E-19
1.680000E+03	2.714817E-18	1.443026E-19
1.720000E+03	2.737712E-18	1.454475E-19
1.760000E+03	2.761586E-18	1.466413E-19
1.800000E+03	2.787527E-18	1.479418E-19
1.840000E+03	2.814654E-18	1.493017E-19
1.880000E+03	2.844085E-18	1.507804E-19
1.920000E+03	2.875451E-18	1.523578E-19
1.960000E+03	2.908370E-18	1.540136E-19
2.000000E+03	2.944025E-18	1.558100E-19
2.040000E+03	2.982062E-18	1.577280E-19
2.080000E+03	3.022655E-18	1.597764E-19
2.120000E+03	3.066536E-18	1.619936E-19
2.160000E+03	3.112824E-18	1.643325E-19
2.200000E+03	3.162276E-18	1.668327E-19
2.240000E+03	3.215129E-18	1.695062E-19
2.280000E+03	3.272224E-18	1.723968E-19
2.320000E+03	3.332689E-18	1.754579E-19
2.360000E+03	3.397999E-18	1.787666E-19
2.400000E+03	3.467910E-18	1.823093E-19
2.440000E+03	3.542782E-18	1.861043E-19
2.480000E+03	3.622372E-18	1.901377E-19
2.520000E+03	3.708379E-18	1.944981E-19
2.560000E+03	3.800649E-18	1.991762E-19
2.600000E+03	3.900391E-18	2.042344E-19
2.640000E+03	4.006810E-18	2.096296E-19
2.680000E+03	4.121202E-18	2.154286E-19
2.720000E+03	4.244251E-18	2.216655E-19
2.760000E+03	4.377481E-18	2.284185E-19
2.800000E+03	4.520201E-18	2.356495E-19
2.840000E+03	4.674895E-18	2.434862E-19
2.880000E+03	4.840947E-18	2.518945E-19
2.920000E+03	5.021147E-18	2.610170E-19
2.960000E+03	5.215897E-18	2.708721E-19
3.000000E+03	5.426552E-18	2.815272E-19
3.010000E+03	5.481632E-18	2.843120E-19
3.020000E+03	5.537818E-18	2.871525E-19
3.030000E+03	5.595135E-18	2.900497E-19
3.040000E+03	5.654602E-18	2.930565E-19
3.050000E+03	5.714271E-18	2.960718E-19
3.060000E+03	5.775149E-18	2.991479E-19
3.070000E+03	5.837268E-18	3.022861E-19
3.080000E+03	5.901687E-18	3.055415E-19
3.090000E+03	5.966380E-18	3.088088E-19
3.100000E+03	6.032397E-18	3.121426E-19
3.110000E+03	6.099772E-18	3.155445E-19
3.120000E+03	6.169614E-18	3.190717E-19
3.130000E+03	6.239807E-18	3.226148E-19
3.140000E+03	6.311452E-18	3.262306E-19
3.150000E+03	6.384582E-18	3.299207E-19
3.160000E+03	6.460362E-18	3.337453E-19
3.170000E+03	6.536579E-18	3.375900E-19
3.180000E+03	6.614387E-18	3.415142E-19
3.190000E+03	6.694991E-18	3.455803E-19
3.200000E+03	6.776102E-18	3.496697E-19
3.210000E+03	6.858916E-18	3.538443E-19
3.220000E+03	6.943471E-18	3.581059E-19
3.230000E+03	7.031035E-18	3.625197E-19
3.240000E+03	7.119206E-18	3.669620E-19
3.250000E+03	7.209239E-18	3.714972E-19
3.260000E+03	7.302452E-18	3.761931E-19
3.270000E+03	7.396355E-18	3.809214E-19
3.280000E+03	7.492249E-18	3.857491E-19
3.290000E+03	7.591505E-18	3.907464E-19
3.300000E+03	7.691534E-18	3.957803E-19
3.310000E+03	7.793694E-18	4.009202E-19
3.320000E+03	7.898029E-18	4.061685E-19
3.330000E+03	8.005984E-18	4.115994E-19
3.340000E+03	8.114834E-18	4.170725E-19
3.350000E+03	8.226008E-18	4.226613E-19
3.360000E+03	8.341007E-18	4.284427E-19
3.370000E+03	8.457000E-18	4.342712E-19
3.380000E+03	8.575468E-18	4.402227E-19
3.390000E+03	8.697981E-18	4.463776E-19
3.400000E+03	8.821584E-18	4.525842E-19
3.410000E+03	8.947826E-18	4.589219E-19
3.420000E+03	9.078340E-18	4.654741E-19
3.430000E+03	9.210046E-18	4.720829E-19
3.440000E+03	9.344557E-18	4.788308E-19
3.450000E+03	9.483578E-18	4.858049E-19
3.460000E+03	9.623895E-18	4.928405E-19
3.470000E+03	9.767189E-18	5.000236E-19
3.480000E+03	9.915239E-18	5.074450E-19
3.490000E+03	1.006469E-17	5.149327E-19
3.500000E+03	1.021906E-17	5.226671E-19
3.510000E+03	1.037491E-17	5.304710E-19
3.520000E+03	1.053402E-17	5.384365E-19
3.530000E+03	1.069832E-17	5.466612E-19
3.540000E+03	1.086419E-17	5.549603E-19
3.550000E+03	1.103350E-17	5.634292E-19
3.560000E+03	1.120826E-17	5.721703E-19
3.570000E+03	1.138468E-17	5.809898E-19
3.580000E+03	1.156473E-17	5.899878E-19
3.590000E+03	1.175049E-17	5.992708E-19
3.600000E+03	1.193800E-17	6.086362E-19
3.610000E+03	1.212929E-17	6.181877E-19
3.620000E+03	1.232658E-17	6.280374E-19
3.630000E+03	1.252568E-17	6.379723E-19
3.640000E+03	1.273092E-17	6.482130E-19
3.650000E+03	1.293802E-17	6.585402E-19
3.660000E+03	1.314917E-17	6.690665E-19
3.670000E+03	1.336676E-17	6.799120E-19
3.680000E+03	1.358621E-17	6.908445E-19
3.690000E+03	1.380986E-17	7.019825E-19
3.700000E+03	1.404017E-17	7.134503E-19
3.710000E+03	1.427237E-17	7.250061E-19
3.720000E+03	1.450889E-17	7.367722E-19
3.730000E+03	1.475228E-17	7.488786E-19
3.740000E+03	1.499755E-17	7.610709E-19
3.750000E+03	1.524984E-17	7.736106E-19
3.760000E+03	1.550396E-17	7.862337E-19
3.770000E+03	1.576250E-17	7.990713E-19
3.780000E+03	1.602825E-17	8.122646E-19
3.790000E+03	1.629574E-17	8.255360E-19
3.800000E+03	1.656766E-17	8.390218E-19
3.810000E+03	1.684692E-17	8.528694E-19
3.820000E+03	1.712776E-17	8.667861E-19
3.830000E+03	1.741303E-17	8.809161E-19
3.840000E+03	1.770571E-17	8.954107E-19
3.850000E+03	1.799976E-17	9.099628E-19
3.860000E+03	1.829812E-17	9.247221E-19
3.870000E+03	1.860395E-17	9.398475E-19
3.880000E+03	1.891085E-17	9.550148E-19
3.890000E+03	1.922520E-17	9.705472E-19
3.900000E+03	1.954037E-17	9.861089E-19
3.910000E+03	1.985954E-17	1.001860E-18
3.920000E+03	2.018608E-17	1.017971E-18
3.930000E+03	2.051300E-17	1.034089E-18
3.940000E+03	2.084362E-17	1.050380E-18
3.950000E+03	2.118143E-17	1.067022E-18
3.960000E+03	2.151909E-17	1.083642E-18
3.970000E+03	2.186004E-17	1.100416E-18
3.980000E+03	2.220793E-17	1.117525E-18
3.990000E+03	2.255502E-17	1.134581E-18
4.000000E+03	2.290490E-17	1.151764E-18
4.010000E+03	2.326135E-17	1.169264E-18
4.020000E+03	2.361625E-17	1.186672E-18
4.030000E+03	2.397333E-17	1.204176E-18
4.040000E+03	2.433651E-17	1.221972E-18
4.050000E+03	2.469729E-17	1.239635E-18
4.060000E+03	2.505950E-17	1.257355E-18
4.070000E+03	2.542725E-17	1.275338E-18
4.080000E+03	2.579161E-17	1.293138E-18
4.090000E+03	2.615659E-17	1.310955E-18
4.100000E+03	2.652189E-17	1.328773E-18
4.110000E+03	2.689178E-17	1.346808E-18
4.120000E+03	2.725683E-17	1.364586E-18
4.130000E+03	2.762124E-17	1.382317E-18
4.140000E+03	2.798945E-17	1.400225E-18
4.150000E+03	2.835160E-17	1.417815E-18
4.160000E+03	2.871207E-17	1.435308E-18
4.170000E+03	2.907546E-17	1.452932E-18
4.180000E+03	2.943153E-17	1.470177E-18
4.190000E+03	2.978482E-17	1.487269E-18
4.200000E+03	3.013494E-17	1.504189E-18
4.210000E+03	3.048674E-17	1.521179E-18
4.220000E+03	3.082947E-17	1.537704E-18
4.230000E+03	3.116792E-17	1.554002E-18
4.240000E+03	3.150170E-17	1.570054E-18
4.250000E+03	3.183589E-17	1.586113E-18
4.260000E+03	3.215931E-17	1.601624E-18
4.270000E+03	3.247696E-17	1.616835E-18
4.280000E+03	3.278852E-17	1.631731E-18
4.290000E+03	3.309929E-17	1.646575E-18
4.300000E+03	3.339773E-17	1.660794E-18
4.310000E+03	3.368910E-17	1.674651E-18
4.320000E+03	3.397314E-17	1.688131E-18
4.330000E+03	3.425540E-17	1.701513E-18
4.340000E+03	3.452402E-17	1.714207E-18
4.350000E+03	3.478458E-17	1.726491E-18
4.360000E+03	3.503687E-17	1.738355E-18
4.370000E+03	3.528073E-17	1.749791E-18
4.380000E+03	3.552206E-17	1.761092E-18
4.390000E+03	3.574869E-17	1.771656E-18
4.400000E+03	3.596654E-17	1.781777E-18
4.410000E+03	3.617550E-17	1.791449E-18
4.420000E+03	3.637550E-17	1.800671E-18
4.430000E+03	3.657271E-17	1.809747E-18
4.440000E+03	3.675475E-17	1.818065E-18
4.450000E+03	3.692779E-17	1.825932E-18
4.460000E+03	3.709190E-17	1.833352E-18
4.470000E+03	3.724716E-17	1.840328E-18
4.480000E+03	3.739366E-17	1.846866E-18
4.490000E+03	3.753791E-17	1.853288E-18
4.500000E+03	3.766735E-17	1.858975E-18
4.510000E+03	3.778850E-17	1.864248E-18
4.520000E+03	3.790157E-17	1.869117E-18
4.530000E+03	3.800677E-17	1.873596E-18
4.540000E+03	3.810436E-17	1.877695E-18
4.550000E+03	3.819458E-17	1.881428E-18
4.560000E+03	3.827771E-17	1.884809E-18
4.570000E+03	3.836053E-17	1.888172E-18
4.580000E+03	3.843035E-17	1.890893E-18
4.590000E+03	3.849397E-17	1.893306E-18
4.600000E+03	3.855171E-17	1.895428E-18
4.610000E+03	3.860390E-17	1.897275E-18
4.620000E+03	3.865085E-17	1.898863E-18
4.630000E+03	3.869291E-17	1.900209E-18
4.640000E+03	3.873042E-17	1.901331E-18
4.650000E+03	3.876373E-17	1.902245E-18
4.660000E+03	3.879316E-17	1.902968E-18
4.670000E+03	3.881907E-17	1.903517E-18
4.680000E+03	3.884179E-17	1.903910E-18
4.690000E+03	3.886167E-17	1.904162E-18
4.700000E+03	3.887903E-17	1.904291E-18
4.710000E+03	3.889420E-17	1.904311E-18
4.720000E+03	3.890754E-17	1.904242E-18
4.730000E+03	3.891931E-17	1.904095E-18
4.740000E+03	3.892987E-17	1.903889E-18
4.750000E+03	3.893951E-17	1.903638E-18
4.760000E+03	3.894853E-17	1.903357E-18
4.770000E+03	3.895722E-17	1.903059E-18
4.780000E+03	3.896585E-17	1.902758E-18
4.790000E+03	3.897470E-17	1.902467E-18
4.800000E+03	3.898404E-17	1.902200E-18
4.810000E+03	3.899410E-17	1.901968E-18
4.820000E+03	3.900513E-17	1.901783E-18
4.830000E+03	3.901736E-17	1.901656E-18
4.840000E+03	3.903100E-17	1.901598E-18
4.850000E+03	3.904628E-17	1.901620E-18
4.860000E+03	3.906337E-17	1.901728E-18
4.870000E+03	3.908247E-17	1.901935E-18
4.880000E+03	3.910373E-17	1.902246E-18
4.890000E+03	3.912733E-17	1.902670E-18
4.900000E+03	3.915342E-17	1.903214E-18
4.910000E+03	3.918214E-17	1.903885E-18
4.920000E+03	3.920698E-17	1.904367E-18
4.930000E+03	3.924128E-17	1.905308E-18
4.940000E+03	3.927855E-17	1.906392E-18
4.950000E+03	3.931886E-17	1.907622E-18
4.960000E+03	3.936229E-17	1.909002E-18
4.970000E+03	3.940892E-17	1.910535E-18
4.980000E+03	3.945878E-17	1.912225E-18
4.990000E+03	3.950528E-17	1.913749E-18
5.000000E+03	3.956174E-17	1.915755E-18
5.010000E+03	3.962152E-17	1.917919E-18
5.020000E+03	3.968466E-17	1.920244E-18
5.030000E+03	3.975113E-17	1.922728E-18
5.040000E+03	3.981423E-17	1.925048E-18
5.050000E+03	3.988733E-17	1.927848E-18
5.060000E+03	3.996369E-17	1.930804E-18
5.070000E+03	4.004329E-17	1.933914E-18
5.080000E+03	4.012605E-17	1.937174E-18
5.090000E+03	4.020518E-17	1.940256E-18
5.100000E+03	4.029409E-17	1.943808E-18
5.110000E+03	4.038597E-17	1.947500E-18
5.120000E+03	4.048072E-17	1.951328E-18
5.130000E+03	4.057143E-17	1.954958E-18
5.140000E+03	4.067163E-17	1.959042E-18
5.150000E+03	4.077442E-17	1.963248E-18
5.160000E+03	4.087966E-17	1.967569E-18
5.170000E+03	4.098036E-17	1.971668E-18
5.180000E+03	4.109015E-17	1.976202E-18
5.190000E+03	4.120202E-17	1.980832E-18
5.200000E+03	4.130893E-17	1.985221E-18
5.210000E+03	4.142459E-17	1.990027E-18
5.220000E+03	4.154195E-17	1.994911E-18
5.230000E+03	4.165389E-17	1.999531E-18
5.240000E+03	4.177422E-17	2.004552E-18
5.250000E+03	4.189586E-17	2.009631E-18
5.260000E+03	4.201161E-17	2.014425E-18
5.270000E+03	4.213544E-17	2.019603E-18
5.280000E+03	4.226019E-17	2.024822E-18
5.290000E+03	4.237862E-17	2.029734E-18
5.300000E+03	4.250483E-17	2.035016E-18
5.310000E+03	4.262449E-17	2.039981E-18
5.320000E+03	4.275175E-17	2.045307E-18
5.330000E+03	4.287943E-17	2.050650E-18
5.340000E+03	4.300022E-17	2.055660E-18
5.350000E+03	4.312844E-17	2.061022E-18
5.360000E+03	4.324964E-17	2.066046E-18
5.370000E+03	4.337821E-17	2.071419E-18
5.380000E+03	4.349963E-17	2.076448E-18
5.390000E+03	4.362844E-17	2.081826E-18
5.400000E+03	4.375737E-17	2.087208E-18
5.410000E+03	4.387907E-17	2.092242E-18
5.420000E+03	4.400827E-17	2.097631E-18
5.430000E+03	4.413027E-17	2.102675E-18
5.440000E+03	4.425989E-17	2.108079E-18
5.450000E+03	4.438240E-17	2.113141E-18
5.460000E+03	4.451270E-17	2.118573E-18
5.470000E+03	4.463599E-17	2.123668E-18
5.480000E+03	4.476726E-17	2.129141E-18
5.490000E+03	4.489161E-17	2.134283E-18
5.500000E+03	4.502407E-17	2.139808E-18
5.510000E+03	4.514953E-17	2.144999E-18
5.520000E+03	4.527543E-17	2.150208E-18
5.530000E+03	4.540926E-17	2.155793E-18
5.540000E+03	4.553575E-17	2.161027E-18
5.550000E+03	4.567002E-17	2.166628E-18
5.560000E+03	4.579673E-17	2.171869E-18
5.570000E+03	4.593109E-17	2.177471E-18
5.580000E+03	4.605768E-17	2.182703E-18
5.590000E+03	4.618412E-17	2.187926E-18
5.600000E+03	4.631812E-17	2.193505E-18
5.610000E+03	4.644416E-17	2.198705E-18
5.620000E+03	4.657774E-17	2.204261E-18
5.630000E+03	4.670331E-17	2.209436E-18
5.640000E+03	4.682866E-17	2.214599E-18
5.650000E+03	4.696165E-17	2.220122E-18
5.660000E+03	4.708666E-17	2.225266E-18
5.670000E+03	4.721158E-17	2.230404E-18
5.680000E+03	4.734436E-17	2.235912E-18
5.690000E+03	4.746930E-17	2.241048E-18
5.700000E+03	4.759436E-17	2.246189E-18
5.710000E+03	4.772764E-17	2.251716E-18
5.720000E+03	4.785331E-17	2.256882E-18
5.730000E+03	4.797942E-17	2.262068E-18
5.740000E+03	4.811416E-17	2.267659E-18
5.750000E+03	4.824158E-17	2.272903E-18
5.760000E+03	4.836985E-17	2.278186E-18
5.770000E+03	4.849908E-17	2.283514E-18
5.780000E+03	4.863757E-17	2.289275E-18
5.790000E+03	4.876922E-17	2.294713E-18
5.800000E+03	4.890227E-17	2.300217E-18
5.810000E+03	4.904506E-17	2.306176E-18
5.820000E+03	4.918136E-17	2.311829E-18
5.830000E+03	4.931950E-17	2.317567E-18
5.840000E+03	4.945962E-17	2.323397E-18
5.850000E+03	4.960183E-17	2.329323E-18
5.860000E+03	4.975458E-17	2.335743E-18
5.870000E+03	4.990141E-17	2.341884E-18
5.880000E+03	5.005070E-17	2.348138E-18
5.890000E+03	5.020258E-17	2.354512E-18
5.900000E+03	5.035714E-17	2.361011E-18
5.910000E+03	5.052291E-17	2.368034E-18
5.920000E+03	5.068314E-17	2.374795E-18
5.930000E+03	5.084630E-17	2.381692E-18
5.940000E+03	5.101245E-17	2.388728E-18
5.950000E+03	5.118167E-17	2.395905E-18
5.960000E+03	5.135396E-17	2.403225E-18
5.970000E+03	5.153799E-17	2.411093E-18
5.980000E+03	5.171656E-17	2.418703E-18
5.990000E+03	5.189828E-17	2.426458E-18
6.000000E+03	5.208311E-17	2.434358E-18
6.010000E+03	5.227104E-17	2.442401E-18
6.020000E+03	5.246202E-17	2.450584E-18
6.030000E+03	5.265598E-17	2.458906E-18
6.040000E+03	5.285287E-17	2.467362E-18
6.050000E+03	5.306146E-17	2.476363E-18
6.060000E+03	5.326395E-17	2.485077E-18
6.070000E+03	5.346903E-17	2.493911E-18
6.080000E+03	5.367661E-17	2.502859E-18
6.090000E+03	5.388648E-17	2.511913E-18
6.100000E+03	5.409851E-17	2.521066E-18
6.110000E+03	5.431251E-17	2.530309E-18
6.120000E+03	5.452827E-17	2.539633E-18
6.130000E+03	5.474557E-17	2.549027E-18
6.140000E+03	5.496417E-17	2.558482E-18
6.150000E+03	5.518385E-17	2.567984E-18
6.160000E+03	5.540431E-17	2.577523E-18
6.170000E+03	5.562529E-17	2.587084E-18
6.180000E+03	5.584650E-17	2.596656E-18
6.190000E+03	5.606762E-17	2.606223E-18
6.200000E+03	5.628834E-17	2.615770E-18
6.210000E+03	5.650833E-17	2.625284E-18
6.220000E+03	5.672723E-17	2.634746E-18
6.230000E+03	5.694470E-17	2.644142E-18
6.240000E+03	5.716038E-17	2.653456E-18
6.250000E+03	5.737388E-17	2.662668E-18
6.260000E+03	5.758485E-17	2.671764E-18
6.270000E+03	5.779288E-17	2.680725E-18
6.280000E+03	5.799761E-17	2.689533E-18
6.290000E+03	5.819864E-17	2.698171E-18
6.300000E+03	5.839558E-17	2.706621E-18
6.310000E+03	5.858805E-17	2.714866E-18
6.320000E+03	5.877566E-17	2.722887E-18
6.330000E+03	5.895803E-17	2.730669E-18
6.340000E+03	5.913480E-17	2.738193E-18
6.350000E+03	5.930561E-17	2.745445E-18
6.360000E+03	5.947012E-17	2.752408E-18
6.370000E+03	5.961802E-17	2.758607E-18
6.380000E+03	5.976890E-17	2.764947E-18
6.390000E+03	5.991255E-17	2.770957E-18
6.400000E+03	6.004867E-17	2.776623E-18
6.410000E+03	6.017704E-17	2.781937E-18
6.420000E+03	6.029743E-17	2.786886E-18
6.430000E+03	6.040967E-17	2.791464E-18
6.440000E+03	6.051359E-17	2.795664E-18
6.450000E+03	6.059896E-17	2.799013E-18
6.460000E+03	6.068591E-17	2.802442E-18
6.470000E+03	6.076431E-17	2.805483E-18
6.480000E+03	6.083412E-17	2.808135E-18
6.490000E+03	6.089541E-17	2.810401E-18
6.500000E+03	6.094819E-17	2.812282E-18
6.510000E+03	6.099254E-17	2.813782E-18
6.520000E+03	6.101839E-17	2.814438E-18
6.530000E+03	6.104620E-17	2.815193E-18
6.540000E+03	6.106577E-17	2.815577E-18
6.550000E+03	6.107699E-17	2.815584E-18
6.560000E+03	6.107968E-17	2.815208E-18
6.570000E+03	6.106351E-17	2.813972E-18
6.580000E+03	6.104879E-17	2.812812E-18
6.590000E+03	6.102521E-17	2.811253E-18
6.600000E+03	6.099273E-17	2.809293E-18
6.610000E+03	6.095133E-17	2.806932E-18
6.620000E+03	6.089087E-17	2.803703E-18
6.630000E+03	6.083176E-17	2.800545E-18
6.640000E+03	6.076391E-17	2.796995E-18
6.650000E+03	6.068747E-17	2.793059E-18
6.660000E+03	6.059246E-17	2.788278E-18
6.670000E+03	6.049936E-17	2.783594E-18
6.680000E+03	6.039827E-17	2.778553E-18
6.690000E+03	6.028941E-17	2.773164E-18
6.700000E+03	6.016304E-17	2.766979E-18
6.710000E+03	6.003956E-17	2.760936E-18
6.720000E+03	5.990925E-17	2.754589E-18
6.730000E+03	5.977241E-17	2.747952E-18
6.740000E+03	5.961945E-17	2.740583E-18
6.750000E+03	5.947069E-17	2.733417E-18
6.760000E+03	5.931652E-17	2.726012E-18
6.770000E+03	5.914741E-17	2.717930E-18
6.780000E+03	5.898359E-17	2.710100E-18
6.790000E+03	5.881552E-17	2.702085E-18
6.800000E+03	5.863380E-17	2.693451E-18
6.810000E+03	5.845845E-17	2.685120E-18
6.820000E+03	5.828005E-17	2.676658E-18
6.830000E+03	5.808930E-17	2.667637E-18
6.840000E+03	5.790603E-17	2.658970E-18
6.850000E+03	5.772089E-17	2.650225E-18
6.860000E+03	5.752463E-17	2.640979E-18
6.870000E+03	5.733692E-17	2.632134E-18
6.880000E+03	5.714849E-17	2.623265E-18
6.890000E+03	5.695013E-17	2.613949E-18
6.900000E+03	5.676133E-17	2.605080E-18
6.910000E+03	5.657284E-17	2.596234E-18
6.920000E+03	5.637556E-17	2.586994E-18
6.930000E+03	5.618871E-17	2.578240E-18
6.940000E+03	5.600314E-17	2.569553E-18
6.950000E+03	5.580982E-17	2.560519E-18
6.960000E+03	5.562772E-17	2.552008E-18
6.970000E+03	5.543848E-17	2.543177E-18
6.980000E+03	5.526094E-17	2.534891E-18
6.990000E+03	5.508604E-17	2.526734E-18
7.000000E+03	5.490482E-17	2.518295E-18
7.010000E+03	5.473592E-17	2.510429E-18
7.020000E+03	5.456118E-17	2.502302E-18
7.030000E+03	5.439911E-17	2.494765E-18
7.040000E+03	5.423163E-17	2.486986E-18
7.050000E+03	5.407712E-17	2.479810E-18
7.060000E+03	5.392660E-17	2.472825E-18
7.070000E+03	5.377121E-17	2.465623E-18
7.080000E+03	5.362915E-17	2.459041E-18
7.090000E+03	5.348251E-17	2.452255E-18
7.100000E+03	5.334935E-17	2.446095E-18
7.110000E+03	5.321187E-17	2.439744E-18
7.120000E+03	5.308800E-17	2.434025E-18
7.130000E+03	5.296000E-17	2.428123E-18
7.140000E+03	5.284570E-17	2.422856E-18
7.150000E+03	5.272740E-17	2.417414E-18
7.160000E+03	5.262284E-17	2.412609E-18
7.170000E+03	5.251439E-17	2.407632E-18
7.180000E+03	5.241966E-17	2.403291E-18
7.190000E+03	5.232107E-17	2.398781E-18
7.200000E+03	5.223620E-17	2.394907E-18
7.210000E+03	5.214745E-17	2.390862E-18
7.220000E+03	5.207232E-17	2.387449E-18
7.230000E+03	5.199329E-17	2.383864E-18
7.240000E+03	5.192775E-17	2.380905E-18
7.250000E+03	5.185821E-17	2.377770E-18
7.260000E+03	5.180203E-17	2.375255E-18
7.270000E+03	5.174169E-17	2.372557E-18
7.280000E+03	5.169452E-17	2.370470E-18
7.290000E+03	5.164303E-17	2.368192E-18
7.300000E+03	5.160446E-17	2.366515E-18
7.310000E+03	5.156137E-17	2.364637E-18
7.320000E+03	5.153092E-17	2.363348E-18
7.330000E+03	5.149568E-17	2.361846E-18
7.340000E+03	5.147281E-17	2.360919E-18
7.350000E+03	5.144483E-17	2.359766E-18
7.360000E+03	5.142023E-17	2.358776E-18
7.370000E+03	5.140747E-17	2.358337E-18
7.380000E+03	5.138908E-17	2.357648E-18
7.390000E+03	5.138214E-17	2.357493E-18
7.400000E+03	5.136916E-17	2.357069E-18
7.410000E+03	5.135858E-17	2.356763E-18
7.420000E+03	5.135878E-17	2.356961E-18
7.430000E+03	5.135227E-17	2.356859E-18
7.440000E+03	5.135607E-17	2.357240E-18
7.450000E+03	5.135266E-17	2.357298E-18
7.460000E+03	5.135039E-17	2.357418E-18
7.470000E+03	5.135764E-17	2.357983E-18
7.480000E+03	5.135687E-17	2.358190E-18
7.490000E+03	5.136503E-17	2.358816E-18
7.500000E+03	5.136456E-17	2.359055E-18
7.510000E+03	5.136379E-17	2.359289E-18
7.520000E+03	5.137104E-17	2.359902E-18
7.530000E+03	5.136869E-17	2.360083E-18
7.540000E+03	5.136506E-17	2.360216E-18
7.550000E+03	5.136846E-17	2.360681E-18
7.560000E+03	5.136124E-17	2.360668E-18
7.570000E+03	5.135170E-17	2.360559E-18
7.580000E+03	5.134811E-17	2.360733E-18
7.590000E+03	5.133283E-17	2.360379E-18
7.600000E+03	5.131411E-17	2.359878E-18
7.610000E+03	5.130022E-17	2.359610E-18
7.620000E+03	5.127352E-17	2.358762E-18
7.630000E+03	5.124224E-17	2.357714E-18
7.640000E+03	5.121462E-17	2.356845E-18
7.650000E+03	5.117303E-17	2.355343E-18
7.660000E+03	5.112570E-17	2.353588E-18
7.670000E+03	5.108085E-17	2.351957E-18
7.680000E+03	5.102086E-17	2.349640E-18
7.690000E+03	5.095398E-17	2.347015E-18
7.700000E+03	5.087980E-17	2.344065E-18
7.710000E+03	5.080651E-17	2.341166E-18
7.720000E+03	5.071662E-17	2.337512E-18
7.730000E+03	5.061830E-17	2.333480E-18
7.740000E+03	5.051975E-17	2.329447E-18
7.750000E+03	5.040353E-17	2.324609E-18
7.760000E+03	5.027787E-17	2.319345E-18
