#wls	flux	fluxerr
1.600000E+03	2.235957E-18	1.344605E-19
1.640000E+03	2.252733E-18	1.354028E-19
1.680000E+03	2.270599E-18	1.364078E-19
1.720000E+03	2.290042E-18	1.375047E-19
1.760000E+03	2.310319E-18	1.386487E-19
1.800000E+03	2.332347E-18	1.398946E-19
1.840000E+03	2.355380E-18	1.411974E-19
1.880000E+03	2.380362E-18	1.426135E-19
1.920000E+03	2.406547E-18	1.440980E-19
1.960000E+03	2.434912E-18	1.457090E-19
2.000000E+03	2.464710E-18	1.474016E-19
2.040000E+03	2.496956E-18	1.492361E-19
2.080000E+03	2.531356E-18	1.511947E-19
2.120000E+03	2.567606E-18	1.532588E-19
2.160000E+03	2.606792E-18	1.554927E-19
2.200000E+03	2.648642E-18	1.578798E-19
2.240000E+03	2.693355E-18	1.604315E-19
2.280000E+03	2.741145E-18	1.631600E-19
2.320000E+03	2.792248E-18	1.660788E-19
2.360000E+03	2.846920E-18	1.692023E-19
2.400000E+03	2.905436E-18	1.725465E-19
2.440000E+03	2.968099E-18	1.761283E-19
2.480000E+03	3.035239E-18	1.799666E-19
2.520000E+03	3.107215E-18	1.840819E-19
2.560000E+03	3.184420E-18	1.884962E-19
2.600000E+03	3.267285E-18	1.932343E-19
2.640000E+03	3.356880E-18	1.983580E-19
2.680000E+03	3.452537E-18	2.038266E-19
2.720000E+03	3.555407E-18	2.097067E-19
2.760000E+03	3.666765E-18	2.160718E-19
2.800000E+03	3.786003E-18	2.228844E-19
2.840000E+03	3.914506E-18	2.302242E-19
2.880000E+03	4.053815E-18	2.381797E-19
2.920000E+03	4.203416E-18	2.467184E-19
2.960000E+03	4.365774E-18	2.559824E-19
3.000000E+03	4.540452E-18	2.659432E-19
3.010000E+03	4.586709E-18	2.685808E-19
3.020000E+03	4.633885E-18	2.712703E-19
3.030000E+03	4.681166E-18	2.739643E-19
3.040000E+03	4.730233E-18	2.767608E-19
3.050000E+03	4.780280E-18	2.796129E-19
3.060000E+03	4.830471E-18	2.824714E-19
3.070000E+03	4.882538E-18	2.854377E-19
3.080000E+03	4.935652E-18	2.884631E-19
3.090000E+03	4.988951E-18	2.914973E-19
3.100000E+03	5.044222E-18	2.946446E-19
3.110000E+03	5.100612E-18	2.978551E-19
3.120000E+03	5.157230E-18	3.010767E-19
3.130000E+03	5.215924E-18	3.044172E-19
3.140000E+03	5.274877E-18	3.077706E-19
3.150000E+03	5.335978E-18	3.112469E-19
3.160000E+03	5.398327E-18	3.147936E-19
3.170000E+03	5.460983E-18	3.183558E-19
3.180000E+03	5.525903E-18	3.220474E-19
3.190000E+03	5.592157E-18	3.258141E-19
3.200000E+03	5.658767E-18	3.295990E-19
3.210000E+03	5.727764E-18	3.335202E-19
3.220000E+03	5.798186E-18	3.375216E-19
3.230000E+03	5.869018E-18	3.415441E-19
3.240000E+03	5.942367E-18	3.457102E-19
3.250000E+03	6.017233E-18	3.499615E-19
3.260000E+03	6.093652E-18	3.543002E-19
3.270000E+03	6.170561E-18	3.586642E-19
3.280000E+03	6.250171E-18	3.631821E-19
3.290000E+03	6.331433E-18	3.677928E-19
3.300000E+03	6.413249E-18	3.724323E-19
3.310000E+03	6.497913E-18	3.772338E-19
3.320000E+03	6.584338E-18	3.821342E-19
3.330000E+03	6.671381E-18	3.870668E-19
3.340000E+03	6.761427E-18	3.921701E-19
3.350000E+03	6.853349E-18	3.973785E-19
3.360000E+03	6.945954E-18	4.026226E-19
3.370000E+03	7.041727E-18	4.080466E-19
3.380000E+03	7.139495E-18	4.135821E-19
3.390000E+03	7.238013E-18	4.191571E-19
3.400000E+03	7.339871E-18	4.249214E-19
3.410000E+03	7.443846E-18	4.308040E-19
3.420000E+03	7.548644E-18	4.367298E-19
3.430000E+03	7.656960E-18	4.428548E-19
3.440000E+03	7.767519E-18	4.491050E-19
3.450000E+03	7.880366E-18	4.554828E-19
3.460000E+03	7.994130E-18	4.619088E-19
3.470000E+03	8.111662E-18	4.685478E-19
3.480000E+03	8.231614E-18	4.753215E-19
3.490000E+03	8.352550E-18	4.821470E-19
3.500000E+03	8.477451E-18	4.891962E-19
3.510000E+03	8.604904E-18	4.963873E-19
3.520000E+03	8.733411E-18	5.036338E-19
3.530000E+03	8.866081E-18	5.111149E-19
3.540000E+03	9.001438E-18	5.187452E-19
3.550000E+03	9.139528E-18	5.265271E-19
3.560000E+03	9.278754E-18	5.343686E-19
3.570000E+03	9.422416E-18	5.424595E-19
3.580000E+03	9.568944E-18	5.507092E-19
3.590000E+03	9.716664E-18	5.590212E-19
3.600000E+03	9.869026E-18	5.675939E-19
3.610000E+03	1.002438E-17	5.763321E-19
3.620000E+03	1.018098E-17	5.851348E-19
3.630000E+03	1.034242E-17	5.942093E-19
3.640000E+03	1.050698E-17	6.034560E-19
3.650000E+03	1.067470E-17	6.128767E-19
3.660000E+03	1.084371E-17	6.223639E-19
3.670000E+03	1.101782E-17	6.321369E-19
3.680000E+03	1.119520E-17	6.420900E-19
3.690000E+03	1.137388E-17	6.521095E-19
3.700000E+03	1.155788E-17	6.624259E-19
3.710000E+03	1.174524E-17	6.729268E-19
3.720000E+03	1.193389E-17	6.834936E-19
3.730000E+03	1.212803E-17	6.943664E-19
3.740000E+03	1.232561E-17	7.054274E-19
3.750000E+03	1.252445E-17	7.165520E-19
3.760000E+03	1.272895E-17	7.279917E-19
3.770000E+03	1.293695E-17	7.396220E-19
3.780000E+03	1.314847E-17	7.514445E-19
3.790000E+03	1.336116E-17	7.633245E-19
3.800000E+03	1.357969E-17	7.755284E-19
3.810000E+03	1.380177E-17	7.879251E-19
3.820000E+03	1.402490E-17	8.003720E-19
3.830000E+03	1.425400E-17	8.131495E-19
3.840000E+03	1.448662E-17	8.261173E-19
3.850000E+03	1.472015E-17	8.391267E-19
3.860000E+03	1.495972E-17	8.524697E-19
3.870000E+03	1.520275E-17	8.659993E-19
3.880000E+03	1.544921E-17	8.797135E-19
3.890000E+03	1.569631E-17	8.934529E-19
3.900000E+03	1.594950E-17	9.075271E-19
3.910000E+03	1.620599E-17	9.217780E-19
3.920000E+03	1.646286E-17	9.360388E-19
3.930000E+03	1.672578E-17	9.506320E-19
3.940000E+03	1.699183E-17	9.653915E-19
3.950000E+03	1.725793E-17	9.801409E-19
3.960000E+03	1.753000E-17	9.952177E-19
3.970000E+03	1.780496E-17	1.010446E-18
3.980000E+03	1.807956E-17	1.025642E-18
3.990000E+03	1.836000E-17	1.041156E-18
4.000000E+03	1.864303E-17	1.056804E-18
4.010000E+03	1.892522E-17	1.072392E-18
4.020000E+03	1.921303E-17	1.088285E-18
4.030000E+03	1.950307E-17	1.104292E-18
4.040000E+03	1.979170E-17	1.120205E-18
4.050000E+03	2.008569E-17	1.136408E-18
4.060000E+03	2.038144E-17	1.152698E-18
4.070000E+03	2.067514E-17	1.168858E-18
4.080000E+03	2.097385E-17	1.185287E-18
4.090000E+03	2.127377E-17	1.201772E-18
4.100000E+03	2.157094E-17	1.218088E-18
4.110000E+03	2.187267E-17	1.234647E-18
4.120000E+03	2.217499E-17	1.251225E-18
4.130000E+03	2.247376E-17	1.267590E-18
4.140000E+03	2.277654E-17	1.284167E-18
4.150000E+03	2.307922E-17	1.300724E-18
4.160000E+03	2.337744E-17	1.317017E-18
4.170000E+03	2.367908E-17	1.333488E-18
4.180000E+03	2.397982E-17	1.349895E-18
4.190000E+03	2.427510E-17	1.365981E-18
4.200000E+03	2.457311E-17	1.382206E-18
4.210000E+03	2.486934E-17	1.398318E-18
4.220000E+03	2.515905E-17	1.414050E-18
4.230000E+03	2.545069E-17	1.429878E-18
4.240000E+03	2.573958E-17	1.445537E-18
4.250000E+03	2.602081E-17	1.460754E-18
4.260000E+03	2.630311E-17	1.476017E-18
4.270000E+03	2.658161E-17	1.491055E-18
4.280000E+03	2.685123E-17	1.505581E-18
4.290000E+03	2.712097E-17	1.520103E-18
4.300000E+03	2.738099E-17	1.534067E-18
4.310000E+03	2.764046E-17	1.547989E-18
4.320000E+03	2.789424E-17	1.561581E-18
4.330000E+03	2.813704E-17	1.574547E-18
4.340000E+03	2.837825E-17	1.587413E-18
4.350000E+03	2.861265E-17	1.599887E-18
4.360000E+03	2.883481E-17	1.611667E-18
4.370000E+03	2.905446E-17	1.623297E-18
4.380000E+03	2.926116E-17	1.634194E-18
4.390000E+03	2.946490E-17	1.644916E-18
4.400000E+03	2.966044E-17	1.655172E-18
4.410000E+03	2.984252E-17	1.664668E-18
4.420000E+03	3.002156E-17	1.673987E-18
4.430000E+03	3.018717E-17	1.682549E-18
4.440000E+03	3.035000E-17	1.690950E-18
4.450000E+03	3.050491E-17	1.698902E-18
4.460000E+03	3.064669E-17	1.706117E-18
4.470000E+03	3.078624E-17	1.713202E-18
4.480000E+03	3.091297E-17	1.719568E-18
4.490000E+03	3.103788E-17	1.725828E-18
4.500000E+03	3.115580E-17	1.731694E-18
4.510000E+03	3.126147E-17	1.736874E-18
4.520000E+03	3.136601E-17	1.741987E-18
4.530000E+03	3.145873E-17	1.746440E-18
4.540000E+03	3.155081E-17	1.750853E-18
4.550000E+03	3.163150E-17	1.754631E-18
4.560000E+03	3.171206E-17	1.758398E-18
4.570000E+03	3.178722E-17	1.761862E-18
4.580000E+03	3.185164E-17	1.764729E-18
4.590000E+03	3.191670E-17	1.767628E-18
4.600000E+03	3.197150E-17	1.769956E-18
4.610000E+03	3.202742E-17	1.772344E-18
4.620000E+03	3.207355E-17	1.774189E-18
4.630000E+03	3.212130E-17	1.776121E-18
4.640000E+03	3.216534E-17	1.777846E-18
4.650000E+03	3.220026E-17	1.779066E-18
4.660000E+03	3.223754E-17	1.780414E-18
4.670000E+03	3.226618E-17	1.781284E-18
4.680000E+03	3.229765E-17	1.782309E-18
4.690000E+03	3.232092E-17	1.782880E-18
4.700000E+03	3.234747E-17	1.783632E-18
4.710000E+03	3.236626E-17	1.783955E-18
4.720000E+03	3.238878E-17	1.784482E-18
4.730000E+03	3.240394E-17	1.784604E-18
4.740000E+03	3.242327E-17	1.784954E-18
4.750000E+03	3.243563E-17	1.784920E-18
4.760000E+03	3.245256E-17	1.785137E-18
4.770000E+03	3.246291E-17	1.784991E-18
4.780000E+03	3.247819E-17	1.785116E-18
4.790000E+03	3.248727E-17	1.784900E-18
4.800000E+03	3.250163E-17	1.784974E-18
4.810000E+03	3.251011E-17	1.784724E-18
4.820000E+03	3.252422E-17	1.784783E-18
4.830000E+03	3.253275E-17	1.784535E-18
4.840000E+03	3.254721E-17	1.784612E-18
4.850000E+03	3.255638E-17	1.784399E-18
4.860000E+03	3.257176E-17	1.784526E-18
4.870000E+03	3.258212E-17	1.784377E-18
4.880000E+03	3.259894E-17	1.784582E-18
4.890000E+03	3.261096E-17	1.784523E-18
4.900000E+03	3.262967E-17	1.784830E-18
4.910000E+03	3.264379E-17	1.784885E-18
4.920000E+03	3.266481E-17	1.785317E-18
4.930000E+03	3.268141E-17	1.785507E-18
4.940000E+03	3.270509E-17	1.786082E-18
4.950000E+03	3.272450E-17	1.786424E-18
4.960000E+03	3.274543E-17	1.786848E-18
4.970000E+03	3.277364E-17	1.787669E-18
4.980000E+03	3.279778E-17	1.788266E-18
4.990000E+03	3.282932E-17	1.789266E-18
5.000000E+03	3.285687E-17	1.790048E-18
5.010000E+03	3.289192E-17	1.791237E-18
5.020000E+03	3.292305E-17	1.792212E-18
5.030000E+03	3.295602E-17	1.793285E-18
5.040000E+03	3.299657E-17	1.794770E-18
5.050000E+03	3.303326E-17	1.796043E-18
5.060000E+03	3.307760E-17	1.797731E-18
5.070000E+03	3.311808E-17	1.799208E-18
5.080000E+03	3.316624E-17	1.801100E-18
5.090000E+03	3.321052E-17	1.802780E-18
5.100000E+03	3.325670E-17	1.804562E-18
5.110000E+03	3.331056E-17	1.806759E-18
5.120000E+03	3.336051E-17	1.808742E-18
5.130000E+03	3.341232E-17	1.810824E-18
5.140000E+03	3.347179E-17	1.813319E-18
5.150000E+03	3.352727E-17	1.815596E-18
5.160000E+03	3.359037E-17	1.818284E-18
5.170000E+03	3.364943E-17	1.820751E-18
5.180000E+03	3.371022E-17	1.823310E-18
5.190000E+03	3.377860E-17	1.826278E-18
5.200000E+03	3.384278E-17	1.829016E-18
5.210000E+03	3.390861E-17	1.831841E-18
5.220000E+03	3.398196E-17	1.835070E-18
5.230000E+03	3.405098E-17	1.838063E-18
5.240000E+03	3.412747E-17	1.841458E-18
5.250000E+03	3.419954E-17	1.844611E-18
5.260000E+03	3.427307E-17	1.847841E-18
5.270000E+03	3.435397E-17	1.851466E-18
5.280000E+03	3.443031E-17	1.854843E-18
5.290000E+03	3.450800E-17	1.858290E-18
5.300000E+03	3.459300E-17	1.862129E-18
5.310000E+03	3.467326E-17	1.865710E-18
5.320000E+03	3.475476E-17	1.869355E-18
5.330000E+03	3.483744E-17	1.873062E-18
5.340000E+03	3.492733E-17	1.877154E-18
5.350000E+03	3.501230E-17	1.880979E-18
5.360000E+03	3.509832E-17	1.884859E-18
5.370000E+03	3.519149E-17	1.889120E-18
5.380000E+03	3.527956E-17	1.893105E-18
5.390000E+03	3.536859E-17	1.897139E-18
5.400000E+03	3.546468E-17	1.901550E-18
5.410000E+03	3.555550E-17	1.905676E-18
5.420000E+03	3.564714E-17	1.909844E-18
5.430000E+03	3.573957E-17	1.914052E-18
5.440000E+03	3.583895E-17	1.918630E-18
5.450000E+03	3.593280E-17	1.922910E-18
5.460000E+03	3.602731E-17	1.927223E-18
5.470000E+03	3.612866E-17	1.931900E-18
5.480000E+03	3.622433E-17	1.936271E-18
5.490000E+03	3.632053E-17	1.940669E-18
5.500000E+03	3.641723E-17	1.945092E-18
5.510000E+03	3.652079E-17	1.949879E-18
5.520000E+03	3.661857E-17	1.954356E-18
5.530000E+03	3.671695E-17	1.958863E-18
5.540000E+03	3.681594E-17	1.963402E-18
5.550000E+03	3.691559E-17	1.967974E-18
5.560000E+03	3.702236E-17	1.972924E-18
5.570000E+03	3.712346E-17	1.977571E-18
5.580000E+03	3.722536E-17	1.982257E-18
5.590000E+03	3.732807E-17	1.986986E-18
5.600000E+03	3.743814E-17	1.992104E-18
5.610000E+03	3.754265E-17	1.996925E-18
5.620000E+03	3.764809E-17	2.001794E-18
5.630000E+03	3.775453E-17	2.006714E-18
5.640000E+03	3.786198E-17	2.011686E-18
5.650000E+03	3.797709E-17	2.017063E-18
5.660000E+03	3.808673E-17	2.022148E-18
5.670000E+03	3.819753E-17	2.027292E-18
5.680000E+03	3.830952E-17	2.032498E-18
5.690000E+03	3.842274E-17	2.037767E-18
5.700000E+03	3.854392E-17	2.043456E-18
5.710000E+03	3.865977E-17	2.048861E-18
5.720000E+03	3.877698E-17	2.054336E-18
5.730000E+03	3.889563E-17	2.059885E-18
5.740000E+03	3.901574E-17	2.065509E-18
5.750000E+03	3.913736E-17	2.071212E-18
5.760000E+03	3.926735E-17	2.077355E-18
5.770000E+03	3.939216E-17	2.083222E-18
5.780000E+03	3.951865E-17	2.089175E-18
5.790000E+03	3.964685E-17	2.095217E-18
5.800000E+03	3.977681E-17	2.101350E-18
5.810000E+03	3.990857E-17	2.107576E-18
5.820000E+03	4.004913E-17	2.114264E-18
5.830000E+03	4.018467E-17	2.120685E-18
5.840000E+03	4.032215E-17	2.127206E-18
5.850000E+03	4.046162E-17	2.133830E-18
5.860000E+03	4.060311E-17	2.140558E-18
5.870000E+03	4.074666E-17	2.147392E-18
5.880000E+03	4.089230E-17	2.154334E-18
5.890000E+03	4.104006E-17	2.161385E-18
5.900000E+03	4.118996E-17	2.168547E-18
5.910000E+03	4.134921E-17	2.176199E-18
5.920000E+03	4.150349E-17	2.183586E-18
5.930000E+03	4.165998E-17	2.191087E-18
5.940000E+03	4.181868E-17	2.198702E-18
5.950000E+03	4.197958E-17	2.206431E-18
5.960000E+03	4.214268E-17	2.214273E-18
5.970000E+03	4.230799E-17	2.222228E-18
5.980000E+03	4.247547E-17	2.230295E-18
5.990000E+03	4.264511E-17	2.238473E-18
6.000000E+03	4.281688E-17	2.246760E-18
6.010000E+03	4.299820E-17	2.255546E-18
6.020000E+03	4.317415E-17	2.264048E-18
6.030000E+03	4.335210E-17	2.272652E-18
6.040000E+03	4.353197E-17	2.281355E-18
6.050000E+03	4.371374E-17	2.290155E-18
6.060000E+03	4.389730E-17	2.299047E-18
6.070000E+03	4.408258E-17	2.308026E-18
6.080000E+03	4.426948E-17	2.317088E-18
6.090000E+03	4.445791E-17	2.326229E-18
6.100000E+03	4.464775E-17	2.335440E-18
6.110000E+03	4.483889E-17	2.344718E-18
6.120000E+03	4.503121E-17	2.354056E-18
6.130000E+03	4.522455E-17	2.363445E-18
6.140000E+03	4.541879E-17	2.372880E-18
6.150000E+03	4.561377E-17	2.382352E-18
6.160000E+03	4.580931E-17	2.391851E-18
6.170000E+03	4.600525E-17	2.401370E-18
6.180000E+03	4.620141E-17	2.410900E-18
6.190000E+03	4.639760E-17	2.420430E-18
6.200000E+03	4.659361E-17	2.429949E-18
6.210000E+03	4.678924E-17	2.439448E-18
6.220000E+03	4.698427E-17	2.448915E-18
6.230000E+03	4.717846E-17	2.458337E-18
6.240000E+03	4.737159E-17	2.467705E-18
6.250000E+03	4.756341E-17	2.477003E-18
6.260000E+03	4.775367E-17	2.486221E-18
6.270000E+03	4.794208E-17	2.495343E-18
6.280000E+03	4.812841E-17	2.504357E-18
6.290000E+03	4.831235E-17	2.513248E-18
6.300000E+03	4.849363E-17	2.522001E-18
6.310000E+03	4.867194E-17	2.530600E-18
6.320000E+03	4.884698E-17	2.539032E-18
6.330000E+03	4.901844E-17	2.547279E-18
6.340000E+03	4.918599E-17	2.555325E-18
6.350000E+03	4.934930E-17	2.563153E-18
6.360000E+03	4.950804E-17	2.570746E-18
6.370000E+03	4.966187E-17	2.578088E-18
6.380000E+03	4.981041E-17	2.585158E-18
6.390000E+03	4.995333E-17	2.591940E-18
6.400000E+03	5.009024E-17	2.598414E-18
6.410000E+03	5.022075E-17	2.604560E-18
6.420000E+03	5.034450E-17	2.610360E-18
6.430000E+03	5.046109E-17	2.615795E-18
6.440000E+03	5.057012E-17	2.620842E-18
6.450000E+03	5.067120E-17	2.625483E-18
6.460000E+03	5.076392E-17	2.629697E-18
6.470000E+03	5.083907E-17	2.633008E-18
6.480000E+03	5.091388E-17	2.636307E-18
6.490000E+03	5.097917E-17	2.639121E-18
6.500000E+03	5.103459E-17	2.641432E-18
6.510000E+03	5.107982E-17	2.643222E-18
6.520000E+03	5.111461E-17	2.644482E-18
6.530000E+03	5.113879E-17	2.645201E-18
6.540000E+03	5.115231E-17	2.645378E-18
6.550000E+03	5.115530E-17	2.645019E-18
6.560000E+03	5.114794E-17	2.644134E-18
6.570000E+03	5.113054E-17	2.642739E-18
6.580000E+03	5.110338E-17	2.640850E-18
6.590000E+03	5.105798E-17	2.638028E-18
6.600000E+03	5.101241E-17	2.635207E-18
6.610000E+03	5.095817E-17	2.631947E-18
6.620000E+03	5.089566E-17	2.628271E-18
6.630000E+03	5.082524E-17	2.624195E-18
6.640000E+03	5.074731E-17	2.619743E-18
6.650000E+03	5.066224E-17	2.614931E-18
6.660000E+03	5.057042E-17	2.609780E-18
6.670000E+03	5.047221E-17	2.604310E-18
6.680000E+03	5.035924E-17	2.598089E-18
6.690000E+03	5.024935E-17	2.592036E-18
6.700000E+03	5.013416E-17	2.585720E-18
6.710000E+03	5.001400E-17	2.579157E-18
6.720000E+03	4.988922E-17	2.572366E-18
6.730000E+03	4.976014E-17	2.565363E-18
6.740000E+03	4.962712E-17	2.558167E-18
6.750000E+03	4.948190E-17	2.550351E-18
6.760000E+03	4.934194E-17	2.542816E-18
6.770000E+03	4.919899E-17	2.535137E-18
6.780000E+03	4.905334E-17	2.527328E-18
6.790000E+03	4.890529E-17	2.519405E-18
6.800000E+03	4.875512E-17	2.511383E-18
6.810000E+03	4.859472E-17	2.502842E-18
6.820000E+03	4.844122E-17	2.494666E-18
6.830000E+03	4.828645E-17	2.486434E-18
6.840000E+03	4.813068E-17	2.478159E-18
6.850000E+03	4.797416E-17	2.469855E-18
6.860000E+03	4.781714E-17	2.461534E-18
6.870000E+03	4.765161E-17	2.452784E-18
6.880000E+03	4.749435E-17	2.444468E-18
6.890000E+03	4.733731E-17	2.436172E-18
6.900000E+03	4.718069E-17	2.427906E-18
6.910000E+03	4.702474E-17	2.419684E-18
6.920000E+03	4.686152E-17	2.411095E-18
6.930000E+03	4.670750E-17	2.402988E-18
6.940000E+03	4.655472E-17	2.394953E-18
6.950000E+03	4.640338E-17	2.387001E-18
6.960000E+03	4.625363E-17	2.379138E-18
6.970000E+03	4.609766E-17	2.370963E-18
6.980000E+03	4.595163E-17	2.363308E-18
6.990000E+03	4.580769E-17	2.355768E-18
7.000000E+03	4.566597E-17	2.348349E-18
7.010000E+03	4.552660E-17	2.341060E-18
7.020000E+03	4.538183E-17	2.333500E-18
7.030000E+03	4.524757E-17	2.326488E-18
7.040000E+03	4.511600E-17	2.319623E-18
7.050000E+03	4.498727E-17	2.312910E-18
7.060000E+03	4.485364E-17	2.305953E-18
7.070000E+03	4.473081E-17	2.299559E-18
7.080000E+03	4.461106E-17	2.293330E-18
7.090000E+03	4.449445E-17	2.287270E-18
7.100000E+03	4.438105E-17	2.281382E-18
7.110000E+03	4.426322E-17	2.275274E-18
7.120000E+03	4.415641E-17	2.269740E-18
7.130000E+03	4.405295E-17	2.264384E-18
7.140000E+03	4.395288E-17	2.259211E-18
7.150000E+03	4.384860E-17	2.253828E-18
7.160000E+03	4.375540E-17	2.249021E-18
7.170000E+03	4.366562E-17	2.244398E-18
7.180000E+03	4.357930E-17	2.239959E-18
7.190000E+03	4.348887E-17	2.235317E-18
7.200000E+03	4.340944E-17	2.231247E-18
7.210000E+03	4.333344E-17	2.227360E-18
7.220000E+03	4.325332E-17	2.223269E-18
7.230000E+03	4.318410E-17	2.219745E-18
7.240000E+03	4.311821E-17	2.216399E-18
7.250000E+03	4.305560E-17	2.213230E-18
7.260000E+03	4.298877E-17	2.209850E-18
7.270000E+03	4.293260E-17	2.207026E-18
7.280000E+03	4.287955E-17	2.204370E-18
7.290000E+03	4.282954E-17	2.201877E-18
7.300000E+03	4.277508E-17	2.199163E-18
7.310000E+03	4.273096E-17	2.196988E-18
7.320000E+03	4.268965E-17	2.194965E-18
7.330000E+03	4.264362E-17	2.192707E-18
7.340000E+03	4.260762E-17	2.190973E-18
7.350000E+03	4.257413E-17	2.189375E-18
7.360000E+03	4.253562E-17	2.187527E-18
7.370000E+03	4.250678E-17	2.186184E-18
7.380000E+03	4.248008E-17	2.184959E-18
7.390000E+03	4.245538E-17	2.183845E-18
7.400000E+03	4.242517E-17	2.182456E-18
7.410000E+03	4.240406E-17	2.181542E-18
7.420000E+03	4.238452E-17	2.180718E-18
7.430000E+03	4.235902E-17	2.179596E-18
7.440000E+03	4.234215E-17	2.178926E-18
7.450000E+03	4.232635E-17	2.178320E-18
7.460000E+03	4.230409E-17	2.177391E-18
7.470000E+03	4.228992E-17	2.176885E-18
7.480000E+03	4.227627E-17	2.176416E-18
7.490000E+03	4.225562E-17	2.175596E-18
7.500000E+03	4.224247E-17	2.175170E-18
7.510000E+03	4.222925E-17	2.174750E-18
7.520000E+03	4.220842E-17	2.173947E-18
7.530000E+03	4.219444E-17	2.173506E-18
7.540000E+03	4.217975E-17	2.173039E-18
7.550000E+03	4.215681E-17	2.172155E-18
7.560000E+03	4.214004E-17	2.171599E-18
7.570000E+03	4.212187E-17	2.170980E-18
7.580000E+03	4.209474E-17	2.169910E-18
7.590000E+03	4.207308E-17	2.169131E-18
7.600000E+03	4.204929E-17	2.168251E-18
7.610000E+03	4.201581E-17	2.166883E-18
7.620000E+03	4.198704E-17	2.165766E-18
7.630000E+03	4.194807E-17	2.164134E-18
7.640000E+03	4.191328E-17	2.162727E-18
7.650000E+03	4.187508E-17	2.161155E-18
7.660000E+03	4.182595E-17	2.159028E-18
7.670000E+03	4.178017E-17	2.157085E-18
7.680000E+03	4.173020E-17	2.154935E-18
7.690000E+03	4.166852E-17	2.152190E-18
7.700000E+03	4.160937E-17	2.149587E-18
7.710000E+03	4.153801E-17	2.146362E-18
7.720000E+03	4.146864E-17	2.143250E-18
7.730000E+03	4.139373E-17	2.139861E-18
7.740000E+03	4.130585E-17	2.135813E-18
7.750000E+03	4.121913E-17	2.131833E-18
7.760000E+03	4.111895E-17	2.127167E-18
