#wls	flux	fluxerr
1.585257E+03	3.200532E-04	4.296688E-05
1.624889E+03	3.289007E-04	4.389355E-05
1.664520E+03	3.361833E-04	4.459232E-05
1.704151E+03	3.416332E-04	4.503121E-05
1.743783E+03	3.450692E-04	4.519064E-05
1.783414E+03	3.460983E-04	4.502433E-05
1.823046E+03	3.441942E-04	4.447043E-05
1.862677E+03	3.387562E-04	4.345969E-05
1.902309E+03	3.294867E-04	4.196412E-05
1.941940E+03	3.162952E-04	3.998344E-05
1.981571E+03	2.998072E-04	3.760802E-05
2.021203E+03	2.817761E-04	3.506665E-05
2.060834E+03	2.652827E-04	3.274526E-05
2.100466E+03	2.538236E-04	3.106817E-05
2.140097E+03	2.502515E-04	3.036658E-05
2.179729E+03	2.554347E-04	3.072012E-05
2.219360E+03	2.683756E-04	3.198120E-05
2.258991E+03	2.867706E-04	3.385139E-05
2.298623E+03	3.082652E-04	3.603581E-05
2.338254E+03	3.311110E-04	3.831998E-05
2.377886E+03	3.543661E-04	4.058973E-05
2.417517E+03	3.777783E-04	4.281339E-05
2.457149E+03	4.016373E-04	4.502124E-05
2.496780E+03	4.263108E-04	4.725076E-05
2.536411E+03	4.524919E-04	4.957313E-05
2.576043E+03	4.808261E-04	5.205063E-05
2.615674E+03	5.118026E-04	5.472526E-05
2.655306E+03	5.459959E-04	5.764511E-05
2.694937E+03	5.834502E-04	6.079953E-05
2.734569E+03	6.242085E-04	6.417712E-05
2.774200E+03	6.678688E-04	6.772073E-05
2.813831E+03	7.139281E-04	7.136505E-05
2.853463E+03	7.616009E-04	7.501961E-05
2.893094E+03	8.095915E-04	7.854886E-05
2.932726E+03	8.567518E-04	8.183908E-05
2.972357E+03	9.014907E-04	8.474195E-05
2.982265E+03	9.120133E-04	8.538160E-05
2.992173E+03	9.224007E-04	8.599947E-05
3.002081E+03	9.323862E-04	8.657091E-05
3.011989E+03	9.420765E-04	8.710624E-05
3.021896E+03	9.515107E-04	8.760936E-05
3.031804E+03	9.607293E-04	8.808425E-05
3.041712E+03	9.696849E-04	8.852685E-05
3.051620E+03	9.784522E-04	8.894420E-05
3.061528E+03	9.867439E-04	8.931052E-05
3.071436E+03	9.946401E-04	8.963357E-05
3.081344E+03	1.002224E-03	8.992124E-05
3.091251E+03	1.009339E-03	9.015992E-05
3.101159E+03	1.015951E-03	9.034716E-05
3.111067E+03	1.022152E-03	9.049168E-05
3.120975E+03	1.027795E-03	9.058100E-05
3.130883E+03	1.032981E-03	9.062459E-05
3.140791E+03	1.037567E-03	9.061062E-05
3.150699E+03	1.041784E-03	9.055975E-05
3.160606E+03	1.045376E-03	9.045038E-05
3.170514E+03	1.048340E-03	9.028304E-05
3.180422E+03	1.050914E-03	9.007883E-05
3.190330E+03	1.052978E-03	8.982807E-05
3.200238E+03	1.054541E-03	8.953206E-05
3.210146E+03	1.055614E-03	8.919242E-05
3.220054E+03	1.056326E-03	8.882057E-05
3.229961E+03	1.056581E-03	8.840902E-05
3.239869E+03	1.056515E-03	8.796962E-05
3.249777E+03	1.056041E-03	8.749557E-05
3.259685E+03	1.055413E-03	8.700827E-05
3.269593E+03	1.054435E-03	8.649203E-05
3.279501E+03	1.053256E-03	8.595930E-05
3.289409E+03	1.051909E-03	8.541311E-05
3.299316E+03	1.050536E-03	8.486521E-05
3.309224E+03	1.049067E-03	8.430993E-05
3.319132E+03	1.047643E-03	8.375874E-05
3.329040E+03	1.046192E-03	8.320587E-05
3.338948E+03	1.044850E-03	8.266220E-05
3.348856E+03	1.043645E-03	8.212976E-05
3.358763E+03	1.042700E-03	8.161806E-05
3.368671E+03	1.041932E-03	8.112028E-05
3.378579E+03	1.041354E-03	8.063733E-05
3.388487E+03	1.041068E-03	8.017684E-05
3.398395E+03	1.040977E-03	7.973093E-05
3.408303E+03	1.041258E-03	7.931298E-05
3.418211E+03	1.041798E-03	7.891401E-05
3.428118E+03	1.042576E-03	7.853197E-05
3.438026E+03	1.043567E-03	7.816491E-05
3.447934E+03	1.044929E-03	7.782416E-05
3.457842E+03	1.046465E-03	7.749487E-05
3.467750E+03	1.048253E-03	7.718246E-05
3.477658E+03	1.050280E-03	7.688574E-05
3.487566E+03	1.052528E-03	7.660312E-05
3.497473E+03	1.055056E-03	7.633852E-05
3.507381E+03	1.057834E-03	7.608948E-05
3.517289E+03	1.060741E-03	7.584708E-05
3.527197E+03	1.063895E-03	7.561958E-05
3.537105E+03	1.067093E-03	7.539225E-05
3.547013E+03	1.070442E-03	7.517266E-05
3.556921E+03	1.073892E-03	7.495710E-05
3.566828E+03	1.077318E-03	7.473684E-05
3.576736E+03	1.080754E-03	7.451425E-05
3.586644E+03	1.084165E-03	7.428692E-05
3.596552E+03	1.087453E-03	7.404825E-05
3.606460E+03	1.090821E-03	7.381215E-05
3.616368E+03	1.094056E-03	7.356428E-05
3.626276E+03	1.097320E-03	7.331560E-05
3.636183E+03	1.100650E-03	7.306867E-05
3.646091E+03	1.104044E-03	7.282315E-05
3.655999E+03	1.107720E-03	7.259335E-05
3.665907E+03	1.111655E-03	7.237747E-05
3.675815E+03	1.116053E-03	7.218842E-05
3.685723E+03	1.121137E-03	7.203991E-05
3.695631E+03	1.127025E-03	7.193875E-05
3.705538E+03	1.133926E-03	7.189707E-05
3.715446E+03	1.142125E-03	7.193166E-05
3.725354E+03	1.151804E-03	7.205235E-05
3.735262E+03	1.163281E-03	7.227693E-05
3.745170E+03	1.176762E-03	7.261599E-05
3.755078E+03	1.192581E-03	7.308744E-05
3.764986E+03	1.211015E-03	7.370538E-05
3.774893E+03	1.232342E-03	7.448324E-05
3.784801E+03	1.256779E-03	7.543049E-05
3.794709E+03	1.284704E-03	7.656590E-05
3.804617E+03	1.316255E-03	7.789334E-05
3.814525E+03	1.351719E-03	7.942517E-05
3.824433E+03	1.391303E-03	8.116872E-05
3.834341E+03	1.435116E-03	8.312537E-05
3.844248E+03	1.483404E-03	8.530404E-05
3.854156E+03	1.536122E-03	8.769682E-05
3.864064E+03	1.593336E-03	9.030219E-05
3.873972E+03	1.654977E-03	9.311096E-05
3.883880E+03	1.720826E-03	9.610562E-05
3.893788E+03	1.790689E-03	9.927056E-05
3.903696E+03	1.864134E-03	1.025775E-04
3.913603E+03	1.940747E-03	1.059997E-04
3.923511E+03	2.019865E-03	1.094978E-04
3.933419E+03	2.100782E-03	1.130312E-04
3.943327E+03	2.182692E-03	1.165552E-04
3.953235E+03	2.264714E-03	1.200225E-04
3.963143E+03	2.345921E-03	1.233846E-04
3.973051E+03	2.425305E-03	1.265904E-04
3.982958E+03	2.502032E-03	1.295997E-04
3.992866E+03	2.575125E-03	1.323660E-04
4.002774E+03	2.644019E-03	1.348652E-04
4.012682E+03	2.708070E-03	1.370704E-04
4.022590E+03	2.766798E-03	1.389639E-04
4.032498E+03	2.820054E-03	1.405450E-04
4.042406E+03	2.867704E-03	1.418140E-04
4.052313E+03	2.909848E-03	1.427829E-04
4.062221E+03	2.946719E-03	1.434699E-04
4.072129E+03	2.978579E-03	1.438941E-04
4.082037E+03	3.005844E-03	1.440819E-04
4.091945E+03	3.028985E-03	1.440611E-04
4.101853E+03	3.048428E-03	1.438570E-04
4.111761E+03	3.064758E-03	1.435015E-04
4.121668E+03	3.078404E-03	1.430184E-04
4.131576E+03	3.089775E-03	1.424300E-04
4.141484E+03	3.099382E-03	1.417624E-04
4.151392E+03	3.107538E-03	1.410321E-04
4.161300E+03	3.114493E-03	1.402523E-04
4.171208E+03	3.120556E-03	1.394385E-04
4.181116E+03	3.125754E-03	1.385932E-04
4.191023E+03	3.130246E-03	1.377246E-04
4.200931E+03	3.133996E-03	1.368322E-04
4.210839E+03	3.136920E-03	1.359136E-04
4.220747E+03	3.139034E-03	1.349705E-04
4.230655E+03	3.140214E-03	1.339987E-04
4.240563E+03	3.140397E-03	1.329970E-04
4.250471E+03	3.139399E-03	1.319588E-04
4.260378E+03	3.137223E-03	1.308857E-04
4.270286E+03	3.133735E-03	1.297734E-04
4.280194E+03	3.128835E-03	1.286194E-04
4.290102E+03	3.122326E-03	1.274172E-04
4.300010E+03	3.114091E-03	1.261635E-04
4.309918E+03	3.103851E-03	1.248491E-04
4.319826E+03	3.091888E-03	1.234868E-04
4.329733E+03	3.078927E-03	1.221071E-04
4.339641E+03	3.066356E-03	1.207656E-04
4.349549E+03	3.056121E-03	1.195380E-04
4.359457E+03	3.049894E-03	1.184867E-04
4.369365E+03	3.048946E-03	1.176570E-04
4.379273E+03	3.054107E-03	1.170760E-04
4.389181E+03	3.065706E-03	1.167510E-04
4.399088E+03	3.083637E-03	1.166725E-04
4.408996E+03	3.107386E-03	1.168164E-04
4.418904E+03	3.136313E-03	1.171539E-04
4.428812E+03	3.169338E-03	1.176411E-04
4.438720E+03	3.205444E-03	1.182371E-04
4.448628E+03	3.243446E-03	1.188962E-04
4.458536E+03	3.282228E-03	1.195759E-04
4.468443E+03	3.320553E-03	1.202308E-04
4.478351E+03	3.357346E-03	1.208219E-04
4.488259E+03	3.391683E-03	1.213169E-04
4.498167E+03	3.422634E-03	1.216837E-04
4.508075E+03	3.449636E-03	1.219044E-04
4.517983E+03	3.472179E-03	1.219627E-04
4.527891E+03	3.489962E-03	1.218506E-04
4.537798E+03	3.502944E-03	1.215690E-04
4.547706E+03	3.511334E-03	1.211275E-04
4.557614E+03	3.515406E-03	1.205377E-04
4.567522E+03	3.515611E-03	1.198169E-04
4.577430E+03	3.512463E-03	1.189842E-04
4.587338E+03	3.506487E-03	1.180589E-04
4.597246E+03	3.498154E-03	1.170577E-04
4.607153E+03	3.487827E-03	1.159934E-04
4.617061E+03	3.475627E-03	1.148708E-04
4.626969E+03	3.461670E-03	1.136941E-04
4.636877E+03	3.445745E-03	1.124570E-04
4.646785E+03	3.427455E-03	1.111473E-04
4.656693E+03	3.406342E-03	1.097511E-04
4.666601E+03	3.381765E-03	1.082492E-04
4.676508E+03	3.353108E-03	1.066237E-04
4.686416E+03	3.319820E-03	1.048594E-04
4.696324E+03	3.281484E-03	1.029458E-04
4.706232E+03	3.237982E-03	1.008821E-04
4.716140E+03	3.189532E-03	9.867831E-05
4.726048E+03	3.136763E-03	9.635668E-05
4.735956E+03	3.080603E-03	9.394828E-05
4.745863E+03	3.022353E-03	9.149471E-05
4.755771E+03	2.963607E-03	8.904532E-05
4.765679E+03	2.906052E-03	8.665077E-05
4.775587E+03	2.851505E-03	8.436409E-05
4.785495E+03	2.801751E-03	8.223571E-05
4.795403E+03	2.758413E-03	8.030962E-05
4.805311E+03	2.723033E-03	7.862587E-05
4.815218E+03	2.697005E-03	7.721869E-05
4.825126E+03	2.681437E-03	7.611272E-05
4.835034E+03	2.677305E-03	7.532755E-05
4.844942E+03	2.685346E-03	7.487501E-05
4.854850E+03	2.706144E-03	7.476171E-05
4.864758E+03	2.739918E-03	7.498341E-05
4.874666E+03	2.786735E-03	7.553131E-05
4.884573E+03	2.846301E-03	7.638654E-05
4.894481E+03	2.917872E-03	7.751831E-05
4.904389E+03	3.000282E-03	7.888528E-05
4.914297E+03	3.091936E-03	8.043601E-05
4.924205E+03	3.190621E-03	8.210465E-05
4.934113E+03	3.293701E-03	8.381697E-05
4.944021E+03	3.398096E-03	8.549045E-05
4.953928E+03	3.500451E-03	8.703922E-05
4.963836E+03	3.597318E-03	8.837913E-05
4.973744E+03	3.685412E-03	8.943418E-05
4.983652E+03	3.761755E-03	9.013991E-05
4.993560E+03	3.823928E-03	9.044896E-05
5.003468E+03	3.870234E-03	9.033418E-05
5.013376E+03	3.899805E-03	8.979000E-05
5.023283E+03	3.912666E-03	8.883265E-05
5.033191E+03	3.909604E-03	8.749582E-05
5.043099E+03	3.892054E-03	8.582685E-05
5.053007E+03	3.862063E-03	8.388482E-05
5.062915E+03	3.821974E-03	8.173285E-05
5.072823E+03	3.774283E-03	7.943432E-05
5.082731E+03	3.721455E-03	7.704884E-05
5.092638E+03	3.665783E-03	7.462927E-05
5.102546E+03	3.609317E-03	7.222056E-05
5.112454E+03	3.553651E-03	6.985585E-05
5.122362E+03	3.500209E-03	6.756283E-05
5.132270E+03	3.449835E-03	6.535613E-05
5.142178E+03	3.403249E-03	6.324686E-05
5.152086E+03	3.360828E-03	6.123882E-05
5.161993E+03	3.322711E-03	5.933099E-05
5.171901E+03	3.288928E-03	5.752021E-05
5.181809E+03	3.259453E-03	5.580235E-05
5.191717E+03	3.234153E-03	5.417148E-05
5.201625E+03	3.212946E-03	5.262278E-05
5.211533E+03	3.195722E-03	5.115115E-05
5.221441E+03	3.182314E-03	4.975078E-05
5.231348E+03	3.172729E-03	4.841895E-05
5.241256E+03	3.166808E-03	4.715052E-05
5.251164E+03	3.164447E-03	4.594156E-05
5.261072E+03	3.165521E-03	4.478819E-05
5.270980E+03	3.169903E-03	4.368695E-05
5.280888E+03	3.177398E-03	4.263386E-05
5.290796E+03	3.187703E-03	4.162420E-05
5.300703E+03	3.200616E-03	4.065529E-05
5.310611E+03	3.215805E-03	3.972358E-05
5.320519E+03	3.232960E-03	3.882670E-05
5.330427E+03	3.251803E-03	3.796355E-05
5.340335E+03	3.272000E-03	3.713340E-05
5.350243E+03	3.293248E-03	3.633682E-05
5.360151E+03	3.315395E-03	3.557703E-05
5.370058E+03	3.338275E-03	3.485790E-05
5.379966E+03	3.361908E-03	3.418602E-05
5.389874E+03	3.386554E-03	3.357102E-05
5.399782E+03	3.412789E-03	3.302582E-05
5.409690E+03	3.441450E-03	3.256594E-05
5.419598E+03	3.473532E-03	3.220821E-05
5.429506E+03	3.510042E-03	3.196946E-05
5.439413E+03	3.551485E-03	3.186194E-05
5.449321E+03	3.597554E-03	3.189101E-05
5.459229E+03	3.646657E-03	3.205115E-05
5.469137E+03	3.696314E-03	3.232944E-05
5.479045E+03	3.743920E-03	3.271022E-05
5.488953E+03	3.787097E-03	3.317374E-05
5.498861E+03	3.823792E-03	3.369959E-05
5.508768E+03	3.852391E-03	3.426837E-05
5.518676E+03	3.871579E-03	3.486041E-05
5.528584E+03	3.880448E-03	3.545696E-05
5.538492E+03	3.878339E-03	3.603926E-05
5.548400E+03	3.864817E-03	3.658875E-05
5.558308E+03	3.839774E-03	3.708869E-05
5.568216E+03	3.803481E-03	3.752526E-05
5.578123E+03	3.756554E-03	3.788808E-05
5.588031E+03	3.700158E-03	3.817294E-05
5.597939E+03	3.636063E-03	3.838343E-05
5.607847E+03	3.566501E-03	3.853033E-05
5.617755E+03	3.494357E-03	3.863450E-05
5.627663E+03	3.422758E-03	3.872329E-05
5.637571E+03	3.355178E-03	3.883210E-05
5.647478E+03	3.295003E-03	3.899971E-05
5.657386E+03	3.245598E-03	3.926891E-05
5.667294E+03	3.210035E-03	3.968306E-05
5.677202E+03	3.191150E-03	4.028618E-05
5.687110E+03	3.191419E-03	4.112094E-05
5.697018E+03	3.212940E-03	4.222769E-05
5.706926E+03	3.257487E-03	4.364452E-05
5.716833E+03	3.326471E-03	4.540611E-05
5.726741E+03	3.420746E-03	4.754035E-05
5.736649E+03	3.540732E-03	5.006932E-05
5.746557E+03	3.686020E-03	5.300285E-05
5.756465E+03	3.855431E-03	5.633833E-05
5.766373E+03	4.046909E-03	6.005823E-05
5.776281E+03	4.257184E-03	6.412404E-05
5.786188E+03	4.482164E-03	6.848098E-05
5.796096E+03	4.716718E-03	7.305398E-05
5.806004E+03	4.954982E-03	7.775170E-05
5.815912E+03	5.190740E-03	8.247214E-05
5.825820E+03	5.417630E-03	8.710602E-05
5.835728E+03	5.629491E-03	9.154277E-05
5.845636E+03	5.820804E-03	9.567839E-05
5.855543E+03	5.986922E-03	9.942027E-05
5.865451E+03	6.124213E-03	1.026907E-04
5.875359E+03	6.230327E-03	1.054327E-04
5.885267E+03	6.303979E-03	1.076071E-04
5.895175E+03	6.345127E-03	1.091971E-04
5.905083E+03	6.354556E-03	1.102017E-04
5.914991E+03	6.334106E-03	1.106401E-04
5.924898E+03	6.286204E-03	1.105443E-04
5.934806E+03	6.213955E-03	1.099607E-04
5.944714E+03	6.120725E-03	1.089429E-04
5.954622E+03	6.010174E-03	1.075522E-04
5.964530E+03	5.886030E-03	1.058533E-04
5.974438E+03	5.751996E-03	1.039126E-04
5.984346E+03	5.611400E-03	1.017913E-04
5.994253E+03	5.467413E-03	9.954913E-05
6.004161E+03	5.322747E-03	9.723850E-05
6.014069E+03	5.179658E-03	9.490415E-05
6.023977E+03	5.039932E-03	9.258267E-05
6.033885E+03	4.904988E-03	9.030408E-05
6.043793E+03	4.775625E-03	8.808704E-05
6.053701E+03	4.652448E-03	8.594649E-05
6.063608E+03	4.535636E-03	8.388932E-05
6.073516E+03	4.425127E-03	8.191770E-05
6.083424E+03	4.320545E-03	8.002779E-05
6.093332E+03	4.221428E-03	7.821384E-05
6.103240E+03	4.127199E-03	7.646777E-05
6.113148E+03	4.037083E-03	7.477766E-05
6.123056E+03	3.950520E-03	7.313539E-05
6.132963E+03	3.866974E-03	7.153318E-05
6.142871E+03	3.786257E-03	6.996959E-05
6.152779E+03	3.708525E-03	6.844945E-05
6.162687E+03	3.634179E-03	6.698195E-05
6.172595E+03	3.564032E-03	6.558373E-05
6.182503E+03	3.499234E-03	6.427745E-05
6.192411E+03	3.441223E-03	6.309069E-05
6.202318E+03	3.391555E-03	6.205292E-05
6.212226E+03	3.352018E-03	6.119745E-05
6.222134E+03	3.324258E-03	6.055462E-05
6.232042E+03	3.309895E-03	6.015392E-05
6.241950E+03	3.310410E-03	6.002198E-05
6.251858E+03	3.326988E-03	6.017980E-05
6.261766E+03	3.360561E-03	6.064365E-05
6.271673E+03	3.411723E-03	6.142373E-05
6.281581E+03	3.480717E-03	6.252396E-05
6.291489E+03	3.567265E-03	6.393925E-05
6.301397E+03	3.670630E-03	6.565668E-05
6.311305E+03	3.789440E-03	6.765258E-05
6.321213E+03	3.921647E-03	6.989196E-05
6.331121E+03	4.064506E-03	7.232826E-05
6.341028E+03	4.214642E-03	7.490460E-05
6.350936E+03	4.368051E-03	7.755381E-05
6.360844E+03	4.520448E-03	8.020447E-05
6.370752E+03	4.667653E-03	8.278763E-05
6.380660E+03	4.805761E-03	8.523946E-05
6.390568E+03	4.931786E-03	8.751242E-05
6.400476E+03	5.043809E-03	8.957763E-05
6.410383E+03	5.141477E-03	9.143343E-05
6.420291E+03	5.225607E-03	9.309852E-05
6.430199E+03	5.298039E-03	9.460923E-05
6.440107E+03	5.361512E-03	9.601773E-05
6.450015E+03	5.418692E-03	9.737485E-05
6.459923E+03	5.472616E-03	9.873700E-05
6.469831E+03	5.526572E-03	1.001631E-04
6.479738E+03	5.585305E-03	1.017390E-04
6.489646E+03	5.654470E-03	1.035691E-04
6.499554E+03	5.739668E-03	1.057592E-04
6.509462E+03	5.844798E-03	1.083866E-04
6.519370E+03	5.972099E-03	1.115001E-04
6.529278E+03	6.121543E-03	1.151076E-04
6.539186E+03	6.291301E-03	1.191840E-04
6.549093E+03	6.478080E-03	1.236752E-04
6.559001E+03	6.677069E-03	1.284969E-04
6.568909E+03	6.882595E-03	1.335447E-04
6.578817E+03	7.088252E-03	1.386966E-04
6.588725E+03	7.287415E-03	1.438217E-04
6.598633E+03	7.473456E-03	1.487839E-04
6.608541E+03	7.640186E-03	1.534512E-04
6.618448E+03	7.782246E-03	1.577030E-04
6.628356E+03	7.895090E-03	1.614310E-04
6.638264E+03	7.975360E-03	1.645475E-04
6.648172E+03	8.021027E-03	1.669894E-04
6.658080E+03	8.030896E-03	1.687093E-04
6.667988E+03	8.004861E-03	1.696816E-04
6.677896E+03	7.943699E-03	1.698992E-04
6.687803E+03	7.849041E-03	1.693743E-04
6.697711E+03	7.723107E-03	1.681330E-04
6.707619E+03	7.568652E-03	1.662154E-04
6.717527E+03	7.389204E-03	1.636809E-04
6.727435E+03	7.188702E-03	1.606011E-04
6.737343E+03	6.971890E-03	1.570694E-04
6.747251E+03	6.743759E-03	1.531888E-04
6.757158E+03	6.509715E-03	1.490758E-04
6.767066E+03	6.275643E-03	1.448625E-04
6.776974E+03	6.047248E-03	1.406815E-04
6.786882E+03	5.830152E-03	1.366678E-04
6.796790E+03	5.629586E-03	1.329511E-04
6.806698E+03	5.450212E-03	1.296516E-04
6.816606E+03	5.295968E-03	1.268749E-04
6.826513E+03	5.170041E-03	1.247110E-04
6.836421E+03	5.074635E-03	1.232277E-04
6.846329E+03	5.011156E-03	1.224741E-04
6.856237E+03	4.980151E-03	1.224786E-04
6.866145E+03	4.981317E-03	1.232480E-04
6.876053E+03	5.013508E-03	1.247672E-04
6.885961E+03	5.074714E-03	1.269979E-04
6.895868E+03	5.162040E-03	1.298778E-04
6.905776E+03	5.271711E-03	1.333197E-04
6.915684E+03	5.399148E-03	1.372135E-04
6.925592E+03	5.538744E-03	1.414197E-04
6.935500E+03	5.684674E-03	1.457902E-04
6.945408E+03	5.830437E-03	1.501566E-04
6.955316E+03	5.969726E-03	1.543523E-04
6.965223E+03	6.096557E-03	1.582169E-04
6.975131E+03	6.205674E-03	1.616068E-04
6.985039E+03	6.293057E-03	1.644096E-04
6.994947E+03	6.356133E-03	1.665499E-04
7.004855E+03	6.393910E-03	1.679942E-04
7.014763E+03	6.406977E-03	1.687510E-04
7.024671E+03	6.397332E-03	1.688675E-04
7.034578E+03	6.368109E-03	1.684221E-04
7.044486E+03	6.323069E-03	1.675113E-04
7.054394E+03	6.266758E-03	1.662541E-04
7.064302E+03	6.203295E-03	1.647591E-04
7.074210E+03	6.136830E-03	1.631367E-04
7.084118E+03	6.070849E-03	1.614805E-04
7.094026E+03	6.008383E-03	1.598720E-04
7.103933E+03	5.951333E-03	1.583627E-04
7.113841E+03	5.901102E-03	1.569907E-04
7.123749E+03	5.858328E-03	1.557737E-04
7.133657E+03	5.822651E-03	1.547023E-04
7.143565E+03	5.793522E-03	1.537618E-04
7.153473E+03	5.769456E-03	1.529126E-04
7.163381E+03	5.748864E-03	1.521123E-04
7.173288E+03	5.729764E-03	1.513082E-04
7.183196E+03	5.710208E-03	1.504489E-04
7.193104E+03	5.688073E-03	1.494787E-04
7.203012E+03	5.661688E-03	1.483546E-04
7.212920E+03	5.629324E-03	1.470327E-04
7.222828E+03	5.589981E-03	1.454891E-04
7.232736E+03	5.542893E-03	1.437064E-04
7.242643E+03	5.487816E-03	1.416815E-04
7.252551E+03	5.424798E-03	1.394195E-04
7.262459E+03	5.354529E-03	1.369420E-04
7.272367E+03	5.277773E-03	1.342728E-04
7.282275E+03	5.195539E-03	1.314416E-04
7.292183E+03	5.108848E-03	1.284785E-04
7.302091E+03	5.018768E-03	1.254140E-04
7.311998E+03	4.926332E-03	1.222775E-04
7.321906E+03	4.832299E-03	1.190912E-04
7.331814E+03	4.737313E-03	1.158739E-04
7.341722E+03	4.641826E-03	1.126394E-04
7.351630E+03	4.546110E-03	1.093968E-04
7.361538E+03	4.450278E-03	1.061514E-04
7.371446E+03	4.354326E-03	1.029055E-04
7.381353E+03	4.258173E-03	9.965961E-05
7.391261E+03	4.161705E-03	9.641379E-05
7.401169E+03	4.064832E-03	9.316856E-05
7.411077E+03	3.967530E-03	8.992620E-05
7.420985E+03	3.869889E-03	8.669150E-05
7.430893E+03	3.772139E-03	8.347237E-05
7.440801E+03	3.674630E-03	8.027908E-05
7.450708E+03	3.578028E-03	7.712830E-05
7.460616E+03	3.482983E-03	7.403563E-05
7.470524E+03	3.390474E-03	7.102263E-05
7.480432E+03	3.301460E-03	6.810921E-05
7.490340E+03	3.217012E-03	6.531614E-05
7.500248E+03	3.138258E-03	6.266370E-05
7.510156E+03	3.066205E-03	6.016804E-05
7.520063E+03	3.001860E-03	5.784350E-05
7.529971E+03	2.946057E-03	5.569943E-05
7.539879E+03	2.899474E-03	5.374060E-05
7.549787E+03	2.862593E-03	5.196671E-05
7.559695E+03	2.835686E-03	5.037251E-05
7.569603E+03	2.818822E-03	4.894824E-05
7.579511E+03	2.811745E-03	4.767799E-05
7.589418E+03	2.814013E-03	4.654269E-05
7.599326E+03	2.824864E-03	4.551830E-05
7.609234E+03	2.843433E-03	4.458000E-05
7.619142E+03	2.868542E-03	4.369932E-05
7.629050E+03	2.899030E-03	4.284968E-05
7.638958E+03	2.933692E-03	4.200573E-05
7.648866E+03	2.971231E-03	4.114285E-05
7.658773E+03	3.010575E-03	4.024167E-05
7.668681E+03	3.050637E-03	3.928458E-05
7.678589E+03	3.090489E-03	3.825807E-05
7.688497E+03	3.129339E-03	3.715205E-05
