#wls	flux	fluxerr
1.585257E+03	1.898538E-04	3.254502E-05
1.624889E+03	1.945241E-04	3.314097E-05
1.664520E+03	1.982671E-04	3.356506E-05
1.704151E+03	2.009418E-04	3.379622E-05
1.743783E+03	2.024615E-04	3.382325E-05
1.783414E+03	2.025768E-04	3.360842E-05
1.823046E+03	2.010389E-04	3.311556E-05
1.862677E+03	1.975148E-04	3.229614E-05
1.902309E+03	1.918104E-04	3.112605E-05
1.941940E+03	1.838862E-04	2.960745E-05
1.981571E+03	1.741471E-04	2.781405E-05
2.021203E+03	1.636057E-04	2.591402E-05
2.060834E+03	1.539513E-04	2.417671E-05
2.100466E+03	1.472977E-04	2.292835E-05
2.140097E+03	1.452358E-04	2.240245E-05
2.179729E+03	1.483233E-04	2.266492E-05
2.219360E+03	1.559017E-04	2.359350E-05
2.258991E+03	1.667198E-04	2.498018E-05
2.298623E+03	1.793473E-04	2.659718E-05
2.338254E+03	1.928187E-04	2.829327E-05
2.377886E+03	2.065285E-04	2.997533E-05
2.417517E+03	2.202869E-04	3.161361E-05
2.457149E+03	2.342030E-04	3.322205E-05
2.496780E+03	2.484948E-04	3.482903E-05
2.536411E+03	2.634397E-04	3.646963E-05
2.576043E+03	2.793170E-04	3.817725E-05
2.615674E+03	2.963677E-04	3.997791E-05
2.655306E+03	3.148143E-04	4.189331E-05
2.694937E+03	3.347431E-04	4.392540E-05
2.734569E+03	3.561307E-04	4.606104E-05
2.774200E+03	3.789476E-04	4.828625E-05
2.813831E+03	4.029319E-04	5.055788E-05
2.853463E+03	4.276870E-04	5.281801E-05
2.893094E+03	4.528803E-04	5.501950E-05
2.932726E+03	4.779529E-04	5.709083E-05
2.972357E+03	5.023282E-04	5.896306E-05
2.982265E+03	5.082529E-04	5.939326E-05
2.992173E+03	5.140795E-04	5.980492E-05
3.002081E+03	5.197959E-04	6.019678E-05
3.011989E+03	5.254008E-04	6.056885E-05
3.021896E+03	5.309204E-04	6.092427E-05
3.031804E+03	5.364528E-04	6.127435E-05
3.041712E+03	5.419062E-04	6.160864E-05
3.051620E+03	5.472598E-04	6.192486E-05
3.061528E+03	5.525649E-04	6.222895E-05
3.071436E+03	5.577327E-04	6.251100E-05
3.081344E+03	5.628171E-04	6.277724E-05
3.091251E+03	5.677317E-04	6.301818E-05
3.101159E+03	5.725335E-04	6.324039E-05
3.111067E+03	5.772099E-04	6.344264E-05
3.120975E+03	5.816786E-04	6.361613E-05
3.130883E+03	5.860722E-04	6.377562E-05
3.140791E+03	5.902405E-04	6.390495E-05
3.150699E+03	5.942482E-04	6.401146E-05
3.160606E+03	5.980904E-04	6.409488E-05
3.170514E+03	6.017640E-04	6.415514E-05
3.180422E+03	6.053373E-04	6.419977E-05
3.190330E+03	6.087398E-04	6.422149E-05
3.200238E+03	6.119732E-04	6.422074E-05
3.210146E+03	6.150404E-04	6.419815E-05
3.220054E+03	6.180148E-04	6.416159E-05
3.229961E+03	6.209014E-04	6.411172E-05
3.239869E+03	6.236382E-04	6.404235E-05
3.249777E+03	6.263011E-04	6.396149E-05
3.259685E+03	6.288984E-04	6.387008E-05
3.269593E+03	6.314388E-04	6.376916E-05
3.279501E+03	6.339322E-04	6.365979E-05
3.289409E+03	6.363886E-04	6.354306E-05
3.299316E+03	6.388835E-04	6.342656E-05
3.309224E+03	6.412968E-04	6.329836E-05
3.319132E+03	6.438327E-04	6.317865E-05
3.329040E+03	6.463713E-04	6.305553E-05
3.338948E+03	6.489224E-04	6.292996E-05
3.348856E+03	6.516204E-04	6.281488E-05
3.358763E+03	6.543467E-04	6.269870E-05
3.368671E+03	6.572322E-04	6.259382E-05
3.378579E+03	6.601590E-04	6.248883E-05
3.388487E+03	6.632542E-04	6.239564E-05
3.398395E+03	6.665201E-04	6.231417E-05
3.408303E+03	6.698995E-04	6.223882E-05
3.418211E+03	6.734536E-04	6.217507E-05
3.428118E+03	6.771831E-04	6.212268E-05
3.438026E+03	6.810294E-04	6.207602E-05
3.447934E+03	6.851061E-04	6.204518E-05
3.457842E+03	6.894072E-04	6.202926E-05
3.467750E+03	6.938130E-04	6.201716E-05
3.477658E+03	6.984850E-04	6.202306E-05
3.487566E+03	7.033027E-04	6.203588E-05
3.497473E+03	7.083134E-04	6.205952E-05
3.507381E+03	7.135086E-04	6.209292E-05
3.517289E+03	7.188806E-04	6.213508E-05
3.527197E+03	7.244224E-04	6.218514E-05
3.537105E+03	7.301809E-04	6.224680E-05
3.547013E+03	7.361507E-04	6.231922E-05
3.556921E+03	7.423281E-04	6.240176E-05
3.566828E+03	7.487122E-04	6.249399E-05
3.576736E+03	7.553054E-04	6.259576E-05
3.586644E+03	7.621136E-04	6.270723E-05
3.596552E+03	7.691975E-04	6.283298E-05
3.606460E+03	7.765219E-04	6.296971E-05
3.616368E+03	7.841574E-04	6.312270E-05
3.626276E+03	7.921793E-04	6.329745E-05
3.636183E+03	8.005227E-04	6.348817E-05
3.646091E+03	8.093257E-04	6.370519E-05
3.655999E+03	8.185870E-04	6.394762E-05
3.665907E+03	8.284102E-04	6.422274E-05
3.675815E+03	8.388567E-04	6.453433E-05
3.685723E+03	8.499965E-04	6.488664E-05
3.695631E+03	8.619070E-04	6.528440E-05
3.705538E+03	8.746703E-04	6.573246E-05
3.715446E+03	8.884228E-04	6.623952E-05
3.725354E+03	9.032113E-04	6.680738E-05
3.735262E+03	9.192264E-04	6.744826E-05
3.745170E+03	9.364755E-04	6.816062E-05
3.755078E+03	9.551051E-04	6.895294E-05
3.764986E+03	9.752175E-04	6.983022E-05
3.774893E+03	9.969554E-04	7.080008E-05
3.784801E+03	1.020412E-03	7.186635E-05
3.794709E+03	1.045582E-03	7.302582E-05
3.804617E+03	1.072683E-03	7.429061E-05
3.814525E+03	1.101731E-03	7.565871E-05
3.824433E+03	1.132731E-03	7.712718E-05
3.834341E+03	1.165809E-03	7.870135E-05
3.844248E+03	1.200881E-03	8.037223E-05
3.854156E+03	1.238031E-03	8.214214E-05
3.864064E+03	1.277220E-03	8.400523E-05
3.873972E+03	1.318281E-03	8.594744E-05
3.883880E+03	1.361214E-03	8.796583E-05
3.893788E+03	1.405889E-03	9.004920E-05
3.903696E+03	1.452091E-03	9.218141E-05
3.913603E+03	1.499677E-03	9.435124E-05
3.923511E+03	1.548424E-03	9.654294E-05
3.933419E+03	1.598032E-03	9.873645E-05
3.943327E+03	1.648228E-03	1.009142E-04
3.953235E+03	1.698837E-03	1.030652E-04
3.963143E+03	1.749408E-03	1.051622E-04
3.973051E+03	1.799760E-03	1.071951E-04
3.982958E+03	1.849617E-03	1.091488E-04
3.992866E+03	1.898666E-03	1.110063E-04
4.002774E+03	1.946678E-03	1.127564E-04
4.012682E+03	1.993456E-03	1.143904E-04
4.022590E+03	2.038850E-03	1.159024E-04
4.032498E+03	2.082751E-03	1.172894E-04
4.042406E+03	2.125044E-03	1.185480E-04
4.052313E+03	2.165775E-03	1.196843E-04
4.062221E+03	2.204926E-03	1.207004E-04
4.072129E+03	2.242520E-03	1.216010E-04
4.082037E+03	2.278738E-03	1.223991E-04
4.091945E+03	2.313683E-03	1.231030E-04
4.101853E+03	2.347540E-03	1.237255E-04
4.111761E+03	2.380518E-03	1.242799E-04
4.121668E+03	2.412731E-03	1.247743E-04
4.131576E+03	2.444467E-03	1.252256E-04
4.141484E+03	2.475904E-03	1.256445E-04
4.151392E+03	2.507270E-03	1.260438E-04
4.161300E+03	2.538723E-03	1.264325E-04
4.171208E+03	2.570405E-03	1.268186E-04
4.181116E+03	2.602486E-03	1.272111E-04
4.191023E+03	2.635102E-03	1.276171E-04
4.200931E+03	2.668252E-03	1.280371E-04
4.210839E+03	2.701997E-03	1.284744E-04
4.220747E+03	2.736307E-03	1.289280E-04
4.230655E+03	2.771154E-03	1.293972E-04
4.240563E+03	2.806362E-03	1.298745E-04
4.250471E+03	2.841863E-03	1.303576E-04
4.260378E+03	2.877337E-03	1.308330E-04
4.270286E+03	2.912578E-03	1.312929E-04
4.280194E+03	2.947346E-03	1.317283E-04
4.290102E+03	2.981275E-03	1.321248E-04
4.300010E+03	3.014098E-03	1.324731E-04
4.309918E+03	3.045481E-03	1.327613E-04
4.319826E+03	3.075267E-03	1.329855E-04
4.329733E+03	3.103598E-03	1.331548E-04
4.339641E+03	3.130877E-03	1.332892E-04
4.349549E+03	3.157619E-03	1.334127E-04
4.359457E+03	3.184605E-03	1.335599E-04
4.369365E+03	3.212428E-03	1.337565E-04
4.379273E+03	3.241630E-03	1.340251E-04
4.389181E+03	3.272621E-03	1.343812E-04
4.399088E+03	3.305656E-03	1.348336E-04
4.408996E+03	3.340768E-03	1.353814E-04
4.418904E+03	3.377970E-03	1.360233E-04
4.428812E+03	3.417006E-03	1.367469E-04
4.438720E+03	3.457561E-03	1.375381E-04
4.448628E+03	3.499134E-03	1.383755E-04
4.458536E+03	3.541004E-03	1.392296E-04
4.468443E+03	3.582604E-03	1.400774E-04
4.478351E+03	3.623055E-03	1.408841E-04
4.488259E+03	3.661637E-03	1.416221E-04
4.498167E+03	3.697425E-03	1.422561E-04
4.508075E+03	3.729666E-03	1.427579E-04
4.517983E+03	3.757658E-03	1.431019E-04
4.527891E+03	3.780721E-03	1.432637E-04
4.537798E+03	3.798267E-03	1.432227E-04
4.547706E+03	3.809818E-03	1.429625E-04
4.557614E+03	3.815056E-03	1.424734E-04
4.567522E+03	3.813732E-03	1.417479E-04
4.577430E+03	3.805710E-03	1.407832E-04
4.587338E+03	3.791009E-03	1.395817E-04
4.597246E+03	3.769697E-03	1.381481E-04
4.607153E+03	3.741970E-03	1.364915E-04
4.617061E+03	3.708101E-03	1.346236E-04
4.626969E+03	3.668336E-03	1.325550E-04
4.636877E+03	3.623074E-03	1.303018E-04
4.646785E+03	3.572770E-03	1.278820E-04
4.656693E+03	3.517938E-03	1.253152E-04
4.666601E+03	3.459066E-03	1.226202E-04
4.676508E+03	3.396840E-03	1.198222E-04
4.686416E+03	3.331881E-03	1.169440E-04
4.696324E+03	3.265010E-03	1.140153E-04
4.706232E+03	3.196993E-03	1.110629E-04
4.716140E+03	3.128733E-03	1.081184E-04
4.726048E+03	3.061146E-03	1.052130E-04
4.735956E+03	2.995182E-03	1.023786E-04
4.745863E+03	2.931877E-03	9.964932E-05
4.755771E+03	2.872119E-03	9.705359E-05
4.765679E+03	2.816908E-03	9.462287E-05
4.775587E+03	2.767129E-03	9.238397E-05
4.785495E+03	2.723604E-03	9.036083E-05
4.795403E+03	2.687081E-03	8.857415E-05
4.805311E+03	2.658216E-03	8.704086E-05
4.815218E+03	2.637600E-03	8.577504E-05
4.825126E+03	2.625686E-03	8.478560E-05
4.835034E+03	2.622818E-03	8.407720E-05
4.844942E+03	2.629245E-03	8.365102E-05
4.854850E+03	2.644995E-03	8.350068E-05
4.864758E+03	2.670074E-03	8.361872E-05
4.874666E+03	2.704267E-03	8.399055E-05
4.884573E+03	2.747183E-03	8.459604E-05
4.894481E+03	2.798269E-03	8.541015E-05
4.904389E+03	2.856672E-03	8.639907E-05
4.914297E+03	2.921447E-03	8.752686E-05
4.924205E+03	2.991367E-03	8.875009E-05
4.934113E+03	3.064971E-03	9.001953E-05
4.944021E+03	3.140715E-03	9.128521E-05
4.953928E+03	3.216781E-03	9.249101E-05
4.963836E+03	3.291410E-03	9.358469E-05
4.973744E+03	3.362727E-03	9.451309E-05
4.983652E+03	3.428963E-03	9.522855E-05
4.993560E+03	3.488535E-03	9.569112E-05
5.003468E+03	3.540016E-03	9.586751E-05
5.013376E+03	3.582356E-03	9.573680E-05
5.023283E+03	3.614804E-03	9.528801E-05
5.033191E+03	3.636943E-03	9.452027E-05
5.043099E+03	3.648803E-03	9.344537E-05
5.053007E+03	3.650727E-03	9.208337E-05
5.062915E+03	3.643363E-03	9.046193E-05
5.072823E+03	3.627608E-03	8.861424E-05
5.082731E+03	3.604544E-03	8.657691E-05
5.092638E+03	3.575370E-03	8.438793E-05
5.102546E+03	3.541336E-03	8.208480E-05
5.112454E+03	3.503682E-03	7.970301E-05
5.122362E+03	3.463599E-03	7.727502E-05
5.132270E+03	3.422189E-03	7.482937E-05
5.142178E+03	3.380435E-03	7.239032E-05
5.152086E+03	3.339201E-03	6.997789E-05
5.161993E+03	3.299218E-03	6.760783E-05
5.171901E+03	3.261086E-03	6.529200E-05
5.181809E+03	3.225291E-03	6.303883E-05
5.191717E+03	3.192237E-03	6.085437E-05
5.201625E+03	3.162134E-03	5.874023E-05
5.211533E+03	3.135208E-03	5.669795E-05
5.221441E+03	3.111577E-03	5.472680E-05
5.231348E+03	3.091304E-03	5.282493E-05
5.241256E+03	3.074367E-03	5.098907E-05
5.251164E+03	3.060801E-03	4.921712E-05
5.261072E+03	3.050485E-03	4.750469E-05
5.270980E+03	3.043368E-03	4.584902E-05
5.280888E+03	3.039323E-03	4.424672E-05
5.290796E+03	3.038275E-03	4.269593E-05
5.300703E+03	3.040114E-03	4.119510E-05
5.310611E+03	3.044701E-03	3.974330E-05
5.320519E+03	3.051965E-03	3.834173E-05
5.330427E+03	3.061781E-03	3.699216E-05
5.340335E+03	3.074061E-03	3.569849E-05
5.350243E+03	3.088759E-03	3.446681E-05
5.360151E+03	3.105770E-03	3.330460E-05
5.370058E+03	3.124996E-03	3.222172E-05
5.379966E+03	3.146455E-03	3.123169E-05
5.389874E+03	3.170123E-03	3.035007E-05
5.399782E+03	3.196026E-03	2.959538E-05
5.409690E+03	3.224286E-03	2.898916E-05
5.419598E+03	3.254815E-03	2.855266E-05
5.429506E+03	3.287441E-03	2.830724E-05
5.439413E+03	3.321840E-03	2.827252E-05
5.449321E+03	3.357432E-03	2.846399E-05
5.459229E+03	3.393377E-03	2.889069E-05
5.469137E+03	3.428677E-03	2.954899E-05
5.479045E+03	3.462219E-03	3.042462E-05
5.488953E+03	3.492721E-03	3.149563E-05
5.498861E+03	3.519066E-03	3.273599E-05
5.508768E+03	3.540036E-03	3.411418E-05
5.518676E+03	3.554669E-03	3.559741E-05
5.528584E+03	3.562138E-03	3.715174E-05
5.538492E+03	3.561994E-03	3.874555E-05
5.548400E+03	3.553956E-03	4.034855E-05
5.558308E+03	3.538181E-03	4.193575E-05
5.568216E+03	3.515162E-03	4.348751E-05
5.578123E+03	3.485618E-03	4.498918E-05
5.588031E+03	3.450702E-03	4.643466E-05
5.597939E+03	3.411689E-03	4.782325E-05
5.607847E+03	3.370189E-03	4.916316E-05
5.617755E+03	3.327821E-03	5.046754E-05
5.627663E+03	3.286419E-03	5.175765E-05
5.637571E+03	3.247700E-03	5.305812E-05
5.647478E+03	3.213443E-03	5.439950E-05
5.657386E+03	3.185311E-03	5.581519E-05
5.667294E+03	3.164836E-03	5.734086E-05
5.677202E+03	3.153371E-03	5.901293E-05
5.687110E+03	3.152152E-03	6.086916E-05
5.697018E+03	3.162162E-03	6.294551E-05
5.706926E+03	3.184236E-03	6.527744E-05
5.716833E+03	3.218901E-03	6.789589E-05
5.726741E+03	3.266566E-03	7.083058E-05
5.736649E+03	3.327297E-03	7.410442E-05
5.746557E+03	3.400914E-03	7.773476E-05
5.756465E+03	3.486937E-03	8.173123E-05
5.766373E+03	3.584532E-03	8.609366E-05
5.776281E+03	3.692592E-03	9.081301E-05
5.786188E+03	3.809594E-03	9.586692E-05
5.796096E+03	3.933703E-03	1.012213E-04
5.806004E+03	4.062806E-03	1.068305E-04
5.815912E+03	4.194392E-03	1.126330E-04
5.825820E+03	4.325848E-03	1.185589E-04
5.835728E+03	4.454387E-03	1.245278E-04
5.845636E+03	4.577144E-03	1.304505E-04
5.855543E+03	4.691362E-03	1.362353E-04
5.865451E+03	4.794508E-03	1.417912E-04
5.875359E+03	4.884203E-03	1.470268E-04
5.885267E+03	4.958623E-03	1.518629E-04
5.895175E+03	5.016163E-03	1.562241E-04
5.905083E+03	5.055999E-03	1.600565E-04
5.914991E+03	5.077541E-03	1.633131E-04
5.924898E+03	5.080951E-03	1.659705E-04
5.934806E+03	5.066727E-03	1.680176E-04
5.944714E+03	5.035843E-03	1.694611E-04
5.954622E+03	4.989585E-03	1.703204E-04
5.964530E+03	4.929605E-03	1.706312E-04
5.974438E+03	4.857704E-03	1.704376E-04
5.984346E+03	4.775737E-03	1.697900E-04
5.994253E+03	4.685592E-03	1.687434E-04
6.004161E+03	4.589253E-03	1.673604E-04
6.014069E+03	4.488430E-03	1.656973E-04
6.023977E+03	4.384823E-03	1.638133E-04
6.033885E+03	4.279886E-03	1.617615E-04
6.043793E+03	4.174934E-03	1.595921E-04
6.053701E+03	4.071100E-03	1.573509E-04
6.063608E+03	3.969297E-03	1.550766E-04
6.073516E+03	3.870316E-03	1.528051E-04
6.083424E+03	3.774805E-03	1.505674E-04
6.093332E+03	3.683285E-03	1.483904E-04
6.103240E+03	3.596149E-03	1.462966E-04
6.113148E+03	3.513819E-03	1.443101E-04
6.123056E+03	3.436596E-03	1.424506E-04
6.132963E+03	3.364754E-03	1.407366E-04
6.142871E+03	3.298495E-03	1.391842E-04
6.152779E+03	3.238156E-03	1.378152E-04
6.162687E+03	3.183989E-03	1.366479E-04
6.172595E+03	3.136296E-03	1.357031E-04
6.182503E+03	3.095431E-03	1.350038E-04
6.192411E+03	3.061697E-03	1.345714E-04
6.202318E+03	3.035493E-03	1.344313E-04
6.212226E+03	3.017120E-03	1.346052E-04
6.222134E+03	3.006921E-03	1.351165E-04
6.232042E+03	3.005202E-03	1.359870E-04
6.241950E+03	3.012187E-03	1.372353E-04
6.251858E+03	3.028032E-03	1.388765E-04
6.261766E+03	3.052807E-03	1.409216E-04
6.271673E+03	3.086537E-03	1.433794E-04
6.281581E+03	3.129006E-03	1.462473E-04
6.291489E+03	3.179988E-03	1.495213E-04
6.301397E+03	3.239049E-03	1.531874E-04
6.311305E+03	3.305569E-03	1.572219E-04
6.321213E+03	3.378911E-03	1.615990E-04
6.331121E+03	3.458129E-03	1.662778E-04
6.341028E+03	3.542256E-03	1.712147E-04
6.350936E+03	3.630232E-03	1.763606E-04
6.360844E+03	3.720913E-03	1.816613E-04
6.370752E+03	3.813146E-03	1.870606E-04
6.380660E+03	3.905871E-03	1.925060E-04
6.390568E+03	3.998133E-03	1.979492E-04
6.400476E+03	4.089137E-03	2.033491E-04
6.410383E+03	4.178251E-03	2.086718E-04
6.420291E+03	4.265121E-03	2.138972E-04
6.430199E+03	4.349699E-03	2.190202E-04
6.440107E+03	4.432071E-03	2.240425E-04
6.450015E+03	4.512708E-03	2.289855E-04
6.459923E+03	4.592051E-03	2.338696E-04
6.469831E+03	4.670793E-03	2.387278E-04
6.479738E+03	4.749665E-03	2.435957E-04
6.489646E+03	4.829092E-03	2.484938E-04
6.499554E+03	4.909616E-03	2.534488E-04
6.509462E+03	4.991464E-03	2.584713E-04
6.519370E+03	5.074657E-03	2.635614E-04
6.529278E+03	5.159115E-03	2.687140E-04
6.539186E+03	5.244308E-03	2.739001E-04
6.549093E+03	5.329442E-03	2.790768E-04
6.559001E+03	5.413425E-03	2.841848E-04
6.568909E+03	5.494894E-03	2.891504E-04
6.578817E+03	5.572336E-03	2.938909E-04
6.588725E+03	5.643972E-03	2.983092E-04
6.598633E+03	5.708025E-03	3.023077E-04
6.608541E+03	5.762812E-03	3.057932E-04
6.618448E+03	5.806706E-03	3.086749E-04
6.628356E+03	5.838212E-03	3.108691E-04
6.638264E+03	5.856303E-03	3.123168E-04
6.648172E+03	5.860018E-03	3.129628E-04
6.658080E+03	5.848962E-03	3.127821E-04
6.667988E+03	5.823068E-03	3.117682E-04
6.677896E+03	5.782670E-03	3.099361E-04
6.687803E+03	5.728490E-03	3.073226E-04
6.697711E+03	5.661684E-03	3.039886E-04
6.707619E+03	5.583607E-03	3.000062E-04
6.717527E+03	5.496025E-03	2.954703E-04
6.727435E+03	5.400812E-03	2.904823E-04
6.737343E+03	5.300067E-03	2.851562E-04
6.747251E+03	5.196118E-03	2.796190E-04
6.757158E+03	5.091089E-03	2.739866E-04
6.767066E+03	4.987205E-03	2.683806E-04
6.776974E+03	4.886715E-03	2.629241E-04
6.786882E+03	4.791507E-03	2.577203E-04
6.796790E+03	4.703456E-03	2.528715E-04
6.806698E+03	4.624159E-03	2.484647E-04
6.816606E+03	4.554967E-03	2.445733E-04
6.826513E+03	4.496966E-03	2.412553E-04
6.836421E+03	4.450960E-03	2.385536E-04
6.846329E+03	4.417420E-03	2.364923E-04
6.856237E+03	4.396685E-03	2.350878E-04
6.866145E+03	4.388602E-03	2.343297E-04
6.876053E+03	4.392949E-03	2.342032E-04
6.885961E+03	4.409022E-03	2.346677E-04
6.895868E+03	4.436069E-03	2.356795E-04
6.905776E+03	4.472887E-03	2.371708E-04
6.915684E+03	4.518212E-03	2.390708E-04
6.925592E+03	4.570541E-03	2.412962E-04
6.935500E+03	4.628230E-03	2.437563E-04
6.945408E+03	4.689487E-03	2.463537E-04
6.955316E+03	4.752653E-03	2.489984E-04
6.965223E+03	4.815879E-03	2.515914E-04
6.975131E+03	4.877528E-03	2.540457E-04
6.985039E+03	4.936245E-03	2.562902E-04
6.994947E+03	4.990602E-03	2.582509E-04
7.004855E+03	5.039789E-03	2.598869E-04
7.014763E+03	5.082924E-03	2.611543E-04
7.024671E+03	5.119723E-03	2.620409E-04
7.034578E+03	5.150070E-03	2.625433E-04
7.044486E+03	5.173971E-03	2.626652E-04
7.054394E+03	5.191893E-03	2.624333E-04
7.064302E+03	5.204275E-03	2.618732E-04
7.074210E+03	5.211713E-03	2.610181E-04
7.084118E+03	5.214778E-03	2.598996E-04
7.094026E+03	5.214218E-03	2.585578E-04
7.103933E+03	5.210464E-03	2.570165E-04
7.113841E+03	5.204100E-03	2.553070E-04
7.123749E+03	5.195266E-03	2.534380E-04
7.133657E+03	5.184346E-03	2.514304E-04
7.143565E+03	5.171260E-03	2.492823E-04
7.153473E+03	5.155922E-03	2.469917E-04
7.163381E+03	5.138189E-03	2.445539E-04
7.173288E+03	5.117694E-03	2.419543E-04
7.183196E+03	5.094067E-03	2.391784E-04
7.193104E+03	5.066962E-03	2.362138E-04
7.203012E+03	5.035836E-03	2.330393E-04
7.212920E+03	5.000427E-03	2.296476E-04
7.222828E+03	4.960330E-03	2.260257E-04
7.232736E+03	4.915214E-03	2.221645E-04
7.242643E+03	4.865024E-03	2.180682E-04
7.252551E+03	4.809553E-03	2.137344E-04
7.262459E+03	4.748876E-03	2.091739E-04
7.272367E+03	4.683105E-03	2.043991E-04
7.282275E+03	4.612441E-03	1.994265E-04
7.292183E+03	4.537159E-03	1.942755E-04
7.302091E+03	4.457542E-03	1.889658E-04
7.311998E+03	4.374043E-03	1.835239E-04
7.321906E+03	4.287089E-03	1.779747E-04
7.331814E+03	4.197138E-03	1.723437E-04
7.341722E+03	4.104667E-03	1.666567E-04
7.351630E+03	4.010116E-03	1.609370E-04
7.361538E+03	3.914091E-03	1.552140E-04
7.371446E+03	3.817099E-03	1.495122E-04
7.381353E+03	3.719611E-03	1.438535E-04
7.391261E+03	3.622209E-03	1.382635E-04
7.401169E+03	3.525344E-03	1.327614E-04
7.411077E+03	3.429625E-03	1.273716E-04
7.420985E+03	3.335625E-03	1.221156E-04
7.430893E+03	3.243882E-03	1.170127E-04
7.440801E+03	3.155030E-03	1.120838E-04
7.450708E+03	3.069616E-03	1.073459E-04
7.460616E+03	2.988258E-03	1.028165E-04
7.470524E+03	2.911474E-03	9.850849E-05
7.480432E+03	2.839799E-03	9.443378E-05
7.490340E+03	2.773726E-03	9.060136E-05
7.500248E+03	2.713695E-03	8.701721E-05
7.510156E+03	2.660131E-03	8.368535E-05
7.520063E+03	2.613280E-03	8.060302E-05
7.529971E+03	2.573458E-03	7.776862E-05
7.539879E+03	2.540799E-03	7.517393E-05
7.549787E+03	2.515390E-03	7.280874E-05
7.559695E+03	2.497229E-03	7.065971E-05
7.569603E+03	2.486262E-03	6.871173E-05
7.579511E+03	2.482251E-03	6.694440E-05
7.589418E+03	2.484964E-03	6.533786E-05
7.599326E+03	2.494089E-03	6.387040E-05
7.609234E+03	2.509168E-03	6.251722E-05
7.619142E+03	2.529662E-03	6.125257E-05
7.629050E+03	2.555075E-03	6.005284E-05
7.638958E+03	2.584782E-03	5.889268E-05
7.648866E+03	2.618049E-03	5.774592E-05
7.658773E+03	2.654243E-03	5.659048E-05
7.668681E+03	2.692580E-03	5.540286E-05
7.678589E+03	2.732408E-03	5.416444E-05
7.688497E+03	2.773020E-03	5.285739E-05
