#wls	flux	fluxerr
1.585257E+03	2.519323E-05	1.008383E-05
1.624889E+03	2.599315E-05	1.031466E-05
1.664520E+03	2.670853E-05	1.050515E-05
1.704151E+03	2.732376E-05	1.064995E-05
1.743783E+03	2.783285E-05	1.074771E-05
1.783414E+03	2.819170E-05	1.078259E-05
1.823046E+03	2.836630E-05	1.074330E-05
1.862677E+03	2.830272E-05	1.061164E-05
1.902309E+03	2.795940E-05	1.037489E-05
1.941940E+03	2.731222E-05	1.002750E-05
1.981571E+03	2.638958E-05	9.583482E-06
2.021203E+03	2.532929E-05	9.095774E-06
2.060834E+03	2.439063E-05	8.658282E-06
2.100466E+03	2.390299E-05	8.385237E-06
2.140097E+03	2.416260E-05	8.373724E-06
2.179729E+03	2.531443E-05	8.663784E-06
2.219360E+03	2.731431E-05	9.228728E-06
2.258991E+03	2.997876E-05	9.995856E-06
2.298623E+03	3.309031E-05	1.088426E-05
2.338254E+03	3.647049E-05	1.182939E-05
2.377886E+03	4.000426E-05	1.279013E-05
2.417517E+03	4.362373E-05	1.374226E-05
2.457149E+03	4.730838E-05	1.467750E-05
2.496780E+03	5.107878E-05	1.560050E-05
2.536411E+03	5.495812E-05	1.651626E-05
2.576043E+03	5.897686E-05	1.743145E-05
2.615674E+03	6.316860E-05	1.835300E-05
2.655306E+03	6.756819E-05	1.928748E-05
2.694937E+03	7.223946E-05	2.024881E-05
2.734569E+03	7.720211E-05	2.123737E-05
2.774200E+03	8.251487E-05	2.226360E-05
2.813831E+03	8.820880E-05	2.332926E-05
2.853463E+03	9.436132E-05	2.444734E-05
2.893094E+03	1.010114E-04	2.561935E-05
2.932726E+03	1.082261E-04	2.685271E-05
2.972357E+03	1.160678E-04	2.815215E-05
2.982265E+03	1.181459E-04	2.849071E-05
2.992173E+03	1.202589E-04	2.883143E-05
3.002081E+03	1.224213E-04	2.917758E-05
3.011989E+03	1.246508E-04	2.953311E-05
3.021896E+03	1.269303E-04	2.989373E-05
3.031804E+03	1.292848E-04	3.026503E-05
3.041712E+03	1.316994E-04	3.064320E-05
3.051620E+03	1.342019E-04	3.103443E-05
3.061528E+03	1.367782E-04	3.143504E-05
3.071436E+03	1.394281E-04	3.184468E-05
3.081344E+03	1.421369E-04	3.225965E-05
3.091251E+03	1.449345E-04	3.268645E-05
3.101159E+03	1.478067E-04	3.312148E-05
3.111067E+03	1.507542E-04	3.356453E-05
3.120975E+03	1.537619E-04	3.401196E-05
3.130883E+03	1.568622E-04	3.447057E-05
3.140791E+03	1.600406E-04	3.493678E-05
3.150699E+03	1.632984E-04	3.541052E-05
3.160606E+03	1.666370E-04	3.589172E-05
3.170514E+03	1.700581E-04	3.638035E-05
3.180422E+03	1.735633E-04	3.687638E-05
3.190330E+03	1.771718E-04	3.738350E-05
3.200238E+03	1.808515E-04	3.789445E-05
3.210146E+03	1.846391E-04	3.841660E-05
3.220054E+03	1.885200E-04	3.894636E-05
3.229961E+03	1.924965E-04	3.948384E-05
3.239869E+03	1.965714E-04	4.002913E-05
3.249777E+03	2.007662E-04	4.058611E-05
3.259685E+03	2.050657E-04	4.115119E-05
3.269593E+03	2.094731E-04	4.172451E-05
3.279501E+03	2.139916E-04	4.230623E-05
3.289409E+03	2.186444E-04	4.290038E-05
3.299316E+03	2.234160E-04	4.350330E-05
3.309224E+03	2.283101E-04	4.411517E-05
3.319132E+03	2.333513E-04	4.474013E-05
3.329040E+03	2.385235E-04	4.537447E-05
3.338948E+03	2.438312E-04	4.601838E-05
3.348856E+03	2.492999E-04	4.667608E-05
3.358763E+03	2.549136E-04	4.734378E-05
3.368671E+03	2.606989E-04	4.802577E-05
3.378579E+03	2.666392E-04	4.871822E-05
3.388487E+03	2.727622E-04	4.942542E-05
3.398395E+03	2.790511E-04	5.014352E-05
3.408303E+03	2.855112E-04	5.087270E-05
3.418211E+03	2.921715E-04	5.161731E-05
3.428118E+03	2.990385E-04	5.237758E-05
3.438026E+03	3.060948E-04	5.314952E-05
3.447934E+03	3.133708E-04	5.393753E-05
3.457842E+03	3.208485E-04	5.473752E-05
3.467750E+03	3.285594E-04	5.555392E-05
3.477658E+03	3.364851E-04	5.638256E-05
3.487566E+03	3.446580E-04	5.722788E-05
3.497473E+03	3.530858E-04	5.809000E-05
3.507381E+03	3.617491E-04	5.896464E-05
3.517289E+03	3.706819E-04	5.985621E-05
3.527197E+03	3.798644E-04	6.076036E-05
3.537105E+03	3.893598E-04	6.168596E-05
3.547013E+03	3.991201E-04	6.262409E-05
3.556921E+03	4.091518E-04	6.357460E-05
3.566828E+03	4.195208E-04	6.454640E-05
3.576736E+03	4.301762E-04	6.553026E-05
3.586644E+03	4.411549E-04	6.653050E-05
3.596552E+03	4.524651E-04	6.754691E-05
3.606460E+03	4.640832E-04	6.857453E-05
3.616368E+03	4.760476E-04	6.961769E-05
3.626276E+03	4.883661E-04	7.067599E-05
3.636183E+03	5.010467E-04	7.174905E-05
3.646091E+03	5.140972E-04	7.283642E-05
3.655999E+03	5.274913E-04	7.393284E-05
3.665907E+03	5.412696E-04	7.504248E-05
3.675815E+03	5.554396E-04	7.616475E-05
3.685723E+03	5.700086E-04	7.729901E-05
3.695631E+03	5.849845E-04	7.844465E-05
3.705538E+03	6.003739E-04	7.960087E-05
3.715446E+03	6.161456E-04	8.076188E-05
3.725354E+03	6.323427E-04	8.193173E-05
3.735262E+03	6.490112E-04	8.311459E-05
3.745170E+03	6.660388E-04	8.429439E-05
3.755078E+03	6.835474E-04	8.548496E-05
3.764986E+03	7.015024E-04	8.668014E-05
3.774893E+03	7.198651E-04	8.787352E-05
3.784801E+03	7.387196E-04	8.907368E-05
3.794709E+03	7.579805E-04	9.026863E-05
3.804617E+03	7.776871E-04	9.146154E-05
3.814525E+03	7.978317E-04	9.264991E-05
3.824433E+03	8.183578E-04	9.382574E-05
3.834341E+03	8.393383E-04	9.499605E-05
3.844248E+03	8.606575E-04	9.614639E-05
3.854156E+03	8.823272E-04	9.727710E-05
3.864064E+03	9.043031E-04	9.838238E-05
3.873972E+03	9.264808E-04	9.945027E-05
3.883880E+03	9.488373E-04	1.004781E-04
3.893788E+03	9.712865E-04	1.014568E-04
3.903696E+03	9.937283E-04	1.023763E-04
3.913603E+03	1.015995E-03	1.032204E-04
3.923511E+03	1.038008E-03	1.039827E-04
3.933419E+03	1.059625E-03	1.046512E-04
3.943327E+03	1.080645E-03	1.052088E-04
3.953235E+03	1.100968E-03	1.056493E-04
3.963143E+03	1.120393E-03	1.059576E-04
3.973051E+03	1.138835E-03	1.061304E-04
3.982958E+03	1.156113E-03	1.061564E-04
3.992866E+03	1.172184E-03	1.060371E-04
4.002774E+03	1.186915E-03	1.057670E-04
4.012682E+03	1.200265E-03	1.053488E-04
4.022590E+03	1.212278E-03	1.047929E-04
4.032498E+03	1.222979E-03	1.041078E-04
4.042406E+03	1.232318E-03	1.032957E-04
4.052313E+03	1.240492E-03	1.023791E-04
4.062221E+03	1.247509E-03	1.013643E-04
4.072129E+03	1.253610E-03	1.002762E-04
4.082037E+03	1.258896E-03	9.912707E-05
4.091945E+03	1.263522E-03	9.793335E-05
4.101853E+03	1.267650E-03	9.671082E-05
4.111761E+03	1.271437E-03	9.547428E-05
4.121668E+03	1.275030E-03	9.423704E-05
4.131576E+03	1.278514E-03	9.300707E-05
4.141484E+03	1.282112E-03	9.180213E-05
4.151392E+03	1.285826E-03	9.062323E-05
4.161300E+03	1.289743E-03	8.947737E-05
4.171208E+03	1.294034E-03	8.837700E-05
4.181116E+03	1.298598E-03	8.731569E-05
4.191023E+03	1.303574E-03	8.630333E-05
4.200931E+03	1.308983E-03	8.534162E-05
4.210839E+03	1.314781E-03	8.442832E-05
4.220747E+03	1.320966E-03	8.356386E-05
4.230655E+03	1.327521E-03	8.274801E-05
4.240563E+03	1.334467E-03	8.198310E-05
4.250471E+03	1.341667E-03	8.126175E-05
4.260378E+03	1.349169E-03	8.058837E-05
4.270286E+03	1.356814E-03	7.995490E-05
4.280194E+03	1.364577E-03	7.936184E-05
4.290102E+03	1.372374E-03	7.880629E-05
4.300010E+03	1.380115E-03	7.828531E-05
4.309918E+03	1.387675E-03	7.779423E-05
4.319826E+03	1.395076E-03	7.733677E-05
4.329733E+03	1.402396E-03	7.691970E-05
4.339641E+03	1.409751E-03	7.655140E-05
4.349549E+03	1.417589E-03	7.625791E-05
4.359457E+03	1.426101E-03	7.605062E-05
4.369365E+03	1.435711E-03	7.595294E-05
4.379273E+03	1.446667E-03	7.597732E-05
4.389181E+03	1.459225E-03	7.613497E-05
4.399088E+03	1.473542E-03	7.643149E-05
4.408996E+03	1.489866E-03	7.687731E-05
4.418904E+03	1.508247E-03	7.747251E-05
4.428812E+03	1.528726E-03	7.821689E-05
4.438720E+03	1.551239E-03	7.910508E-05
4.448628E+03	1.575763E-03	8.013403E-05
4.458536E+03	1.602178E-03	8.129580E-05
4.468443E+03	1.630262E-03	8.257760E-05
4.478351E+03	1.659851E-03	8.396949E-05
4.488259E+03	1.690693E-03	8.545723E-05
4.498167E+03	1.722394E-03	8.701946E-05
4.508075E+03	1.754795E-03	8.864657E-05
4.517983E+03	1.787398E-03	9.031159E-05
4.527891E+03	1.819950E-03	9.200000E-05
4.537798E+03	1.852027E-03	9.368822E-05
4.547706E+03	1.883245E-03	9.535461E-05
4.557614E+03	1.913220E-03	9.697723E-05
4.567522E+03	1.941569E-03	9.853386E-05
4.577430E+03	1.967974E-03	1.000054E-04
4.587338E+03	1.991956E-03	1.013645E-04
4.597246E+03	2.013233E-03	1.025933E-04
4.607153E+03	2.031552E-03	1.036755E-04
4.617061E+03	2.046519E-03	1.045876E-04
4.626969E+03	2.057962E-03	1.053172E-04
4.636877E+03	2.065703E-03	1.058515E-04
4.646785E+03	2.069622E-03	1.061813E-04
4.656693E+03	2.069610E-03	1.062975E-04
4.666601E+03	2.065801E-03	1.062042E-04
4.676508E+03	2.058173E-03	1.058976E-04
4.686416E+03	2.046956E-03	1.053870E-04
4.696324E+03	2.032345E-03	1.046806E-04
4.706232E+03	2.014779E-03	1.037992E-04
4.716140E+03	1.994548E-03	1.027566E-04
4.726048E+03	1.972119E-03	1.015760E-04
4.735956E+03	1.948125E-03	1.002892E-04
4.745863E+03	1.923031E-03	9.891987E-05
4.755771E+03	1.897446E-03	9.749922E-05
4.765679E+03	1.872104E-03	9.606481E-05
4.775587E+03	1.847540E-03	9.464409E-05
4.785495E+03	1.824446E-03	9.327227E-05
4.795403E+03	1.803395E-03	9.197824E-05
4.805311E+03	1.785032E-03	9.079433E-05
4.815218E+03	1.769917E-03	8.974784E-05
4.825126E+03	1.758517E-03	8.886086E-05
4.835034E+03	1.751338E-03	8.815675E-05
4.844942E+03	1.748770E-03	8.765227E-05
4.854850E+03	1.751128E-03	8.735967E-05
4.864758E+03	1.758592E-03	8.728365E-05
4.874666E+03	1.771333E-03	8.742766E-05
4.884573E+03	1.789316E-03	8.778422E-05
4.894481E+03	1.812507E-03	8.834538E-05
4.904389E+03	1.840549E-03	8.908690E-05
4.914297E+03	1.873062E-03	8.998327E-05
4.924205E+03	1.909409E-03	9.099669E-05
4.934113E+03	1.948926E-03	9.208853E-05
4.944021E+03	1.990599E-03	9.320443E-05
4.953928E+03	2.033417E-03	9.429160E-05
4.963836E+03	2.076216E-03	9.529174E-05
4.973744E+03	2.117714E-03	9.614355E-05
4.983652E+03	2.156782E-03	9.679505E-05
4.993560E+03	2.192132E-03	9.719010E-05
5.003468E+03	2.222816E-03	9.729054E-05
5.013376E+03	2.247842E-03	9.705926E-05
5.023283E+03	2.266618E-03	9.647912E-05
5.033191E+03	2.278753E-03	9.554394E-05
5.043099E+03	2.284133E-03	9.426076E-05
5.053007E+03	2.282909E-03	9.264884E-05
5.062915E+03	2.275471E-03	9.073738E-05
5.072823E+03	2.262352E-03	8.856108E-05
5.082731E+03	2.244395E-03	8.616595E-05
5.092638E+03	2.222369E-03	8.359333E-05
5.102546E+03	2.197136E-03	8.088629E-05
5.112454E+03	2.169549E-03	7.808535E-05
5.122362E+03	2.140413E-03	7.522701E-05
5.132270E+03	2.110462E-03	7.234284E-05
5.142178E+03	2.080335E-03	6.945897E-05
5.152086E+03	2.050572E-03	6.659615E-05
5.161993E+03	2.021662E-03	6.377160E-05
5.171901E+03	1.993853E-03	6.099343E-05
5.181809E+03	1.967451E-03	5.827041E-05
5.191717E+03	1.942685E-03	5.560796E-05
5.201625E+03	1.919625E-03	5.300620E-05
5.211533E+03	1.898332E-03	5.046476E-05
5.221441E+03	1.878827E-03	4.798207E-05
5.231348E+03	1.861094E-03	4.555579E-05
5.241256E+03	1.845139E-03	4.318436E-05
5.251164E+03	1.830819E-03	4.086343E-05
5.261072E+03	1.818158E-03	3.859337E-05
5.270980E+03	1.807049E-03	3.637276E-05
5.280888E+03	1.797437E-03	3.420288E-05
5.290796E+03	1.789315E-03	3.208789E-05
5.300703E+03	1.782617E-03	3.003326E-05
5.310611E+03	1.777336E-03	2.804895E-05
5.320519E+03	1.773489E-03	2.614957E-05
5.330427E+03	1.771164E-03	2.435632E-05
5.340335E+03	1.770347E-03	2.269614E-05
5.350243E+03	1.771259E-03	2.120795E-05
5.360151E+03	1.773895E-03	1.993779E-05
5.370058E+03	1.778473E-03	1.894395E-05
5.379966E+03	1.785100E-03	1.828925E-05
5.389874E+03	1.793966E-03	1.803492E-05
5.399782E+03	1.805164E-03	1.822685E-05
5.409690E+03	1.818795E-03	1.887817E-05
5.419598E+03	1.834949E-03	1.996705E-05
5.429506E+03	1.853531E-03	2.145262E-05
5.439413E+03	1.874348E-03	2.328702E-05
5.449321E+03	1.897055E-03	2.542256E-05
5.459229E+03	1.921048E-03	2.781352E-05
5.469137E+03	1.945475E-03	3.041567E-05
5.479045E+03	1.969381E-03	3.318632E-05
5.488953E+03	1.991764E-03	3.608308E-05
5.498861E+03	2.011544E-03	3.906139E-05
5.508768E+03	2.027613E-03	4.207382E-05
5.518676E+03	2.038998E-03	4.507240E-05
5.528584E+03	2.044956E-03	4.801111E-05
5.538492E+03	2.044704E-03	5.084012E-05
5.548400E+03	2.037969E-03	5.351981E-05
5.558308E+03	2.024502E-03	5.601047E-05
5.568216E+03	2.004458E-03	5.828350E-05
5.578123E+03	1.978159E-03	6.031689E-05
5.588031E+03	1.946249E-03	6.210129E-05
5.597939E+03	1.909520E-03	6.363650E-05
5.607847E+03	1.868910E-03	6.493239E-05
5.617755E+03	1.825451E-03	6.600799E-05
5.627663E+03	1.780185E-03	6.688892E-05
5.637571E+03	1.734234E-03	6.761026E-05
5.647478E+03	1.688642E-03	6.821044E-05
5.657386E+03	1.644377E-03	6.873096E-05
5.667294E+03	1.602316E-03	6.921491E-05
5.677202E+03	1.563185E-03	6.970378E-05
5.687110E+03	1.527707E-03	7.024290E-05
5.697018E+03	1.496332E-03	7.086880E-05
5.706926E+03	1.469535E-03	7.162161E-05
5.716833E+03	1.447535E-03	7.253120E-05
5.726741E+03	1.430578E-03	7.362992E-05
5.736649E+03	1.418670E-03	7.493861E-05
5.746557E+03	1.411852E-03	7.647988E-05
5.756465E+03	1.409943E-03	7.826390E-05
5.766373E+03	1.412797E-03	8.030181E-05
5.776281E+03	1.420086E-03	8.259318E-05
5.786188E+03	1.431429E-03	8.513228E-05
5.796096E+03	1.446359E-03	8.790619E-05
5.806004E+03	1.464338E-03	9.089471E-05
5.815912E+03	1.484786E-03	9.407213E-05
5.825820E+03	1.506963E-03	9.739933E-05
5.835728E+03	1.530220E-03	1.008392E-04
5.845636E+03	1.553783E-03	1.043428E-04
5.855543E+03	1.576902E-03	1.078592E-04
5.865451E+03	1.598891E-03	1.113376E-04
5.875359E+03	1.619032E-03	1.147224E-04
5.885267E+03	1.636722E-03	1.179622E-04
5.895175E+03	1.651451E-03	1.210099E-04
5.905083E+03	1.662866E-03	1.238278E-04
5.914991E+03	1.670667E-03	1.263808E-04
5.924898E+03	1.674727E-03	1.286458E-04
5.934806E+03	1.675101E-03	1.306135E-04
5.944714E+03	1.671890E-03	1.322791E-04
5.954622E+03	1.665360E-03	1.336512E-04
5.964530E+03	1.655913E-03	1.347515E-04
5.974438E+03	1.643954E-03	1.356036E-04
5.984346E+03	1.629986E-03	1.362414E-04
5.994253E+03	1.614586E-03	1.367075E-04
6.004161E+03	1.598266E-03	1.370415E-04
6.014069E+03	1.581613E-03	1.372918E-04
6.023977E+03	1.565112E-03	1.375004E-04
6.033885E+03	1.549291E-03	1.377153E-04
6.043793E+03	1.534525E-03	1.379725E-04
6.053701E+03	1.521318E-03	1.383217E-04
6.063608E+03	1.509940E-03	1.387927E-04
6.073516E+03	1.500679E-03	1.394181E-04
6.083424E+03	1.493801E-03	1.402292E-04
6.093332E+03	1.489449E-03	1.412468E-04
6.103240E+03	1.487783E-03	1.424935E-04
6.113148E+03	1.488842E-03	1.439806E-04
6.123056E+03	1.492692E-03	1.457219E-04
6.132963E+03	1.499312E-03	1.477227E-04
6.142871E+03	1.508568E-03	1.499770E-04
6.152779E+03	1.520462E-03	1.524914E-04
6.162687E+03	1.534778E-03	1.552503E-04
6.172595E+03	1.551329E-03	1.582403E-04
6.182503E+03	1.569968E-03	1.614510E-04
6.192411E+03	1.590322E-03	1.648483E-04
6.202318E+03	1.612216E-03	1.684170E-04
6.212226E+03	1.635212E-03	1.721137E-04
6.222134E+03	1.659085E-03	1.759160E-04
6.232042E+03	1.683392E-03	1.797777E-04
6.241950E+03	1.707799E-03	1.836625E-04
6.251858E+03	1.731883E-03	1.875238E-04
6.261766E+03	1.755353E-03	1.913280E-04
6.271673E+03	1.777757E-03	1.950229E-04
6.281581E+03	1.798749E-03	1.985672E-04
6.291489E+03	1.818054E-03	2.019262E-04
6.301397E+03	1.835389E-03	2.050640E-04
6.311305E+03	1.850513E-03	2.079488E-04
6.321213E+03	1.863228E-03	2.105530E-04
6.331121E+03	1.873340E-03	2.128494E-04
6.341028E+03	1.880793E-03	2.148264E-04
6.350936E+03	1.885538E-03	2.164730E-04
6.360844E+03	1.887570E-03	2.177835E-04
6.370752E+03	1.886879E-03	2.187521E-04
6.380660E+03	1.883633E-03	2.193938E-04
6.390568E+03	1.877849E-03	2.197061E-04
6.400476E+03	1.869705E-03	2.197066E-04
6.410383E+03	1.859404E-03	2.194156E-04
6.420291E+03	1.847018E-03	2.188390E-04
6.430199E+03	1.832770E-03	2.180008E-04
6.440107E+03	1.816844E-03	2.169209E-04
6.450015E+03	1.799413E-03	2.156186E-04
6.459923E+03	1.780656E-03	2.141140E-04
6.469831E+03	1.760736E-03	2.124260E-04
6.479738E+03	1.739809E-03	2.105729E-04
6.489646E+03	1.718062E-03	2.085774E-04
6.499554E+03	1.695536E-03	2.064443E-04
6.509462E+03	1.672392E-03	2.041933E-04
6.519370E+03	1.648771E-03	2.018426E-04
6.529278E+03	1.624719E-03	1.993978E-04
6.539186E+03	1.600309E-03	1.968691E-04
6.549093E+03	1.575604E-03	1.942647E-04
6.559001E+03	1.550656E-03	1.915922E-04
6.568909E+03	1.525550E-03	1.888628E-04
6.578817E+03	1.500248E-03	1.860730E-04
6.588725E+03	1.474865E-03	1.832381E-04
6.598633E+03	1.449437E-03	1.803637E-04
6.608541E+03	1.423930E-03	1.774467E-04
6.618448E+03	1.398464E-03	1.745033E-04
6.628356E+03	1.373094E-03	1.715414E-04
6.638264E+03	1.347809E-03	1.685610E-04
6.648172E+03	1.322754E-03	1.655814E-04
6.658080E+03	1.298013E-03	1.626145E-04
6.667988E+03	1.273611E-03	1.596646E-04
6.677896E+03	1.249723E-03	1.567550E-04
6.687803E+03	1.226465E-03	1.539014E-04
6.697711E+03	1.203925E-03	1.511160E-04
6.707619E+03	1.182266E-03	1.484204E-04
6.717527E+03	1.161563E-03	1.458252E-04
6.727435E+03	1.142046E-03	1.433604E-04
6.737343E+03	1.123795E-03	1.410366E-04
6.747251E+03	1.106953E-03	1.388726E-04
6.757158E+03	1.091686E-03	1.368901E-04
6.767066E+03	1.078104E-03	1.351030E-04
6.776974E+03	1.066369E-03	1.335320E-04
6.786882E+03	1.056581E-03	1.321897E-04
6.796790E+03	1.048893E-03	1.310949E-04
6.806698E+03	1.043395E-03	1.302584E-04
6.816606E+03	1.040227E-03	1.296970E-04
6.826513E+03	1.039465E-03	1.294193E-04
6.836421E+03	1.041236E-03	1.294398E-04
6.846329E+03	1.045631E-03	1.297681E-04
6.856237E+03	1.052676E-03	1.304057E-04
6.866145E+03	1.062528E-03	1.313699E-04
6.876053E+03	1.075195E-03	1.326589E-04
6.885961E+03	1.090726E-03	1.342763E-04
6.895868E+03	1.109189E-03	1.362272E-04
6.905776E+03	1.130578E-03	1.385072E-04
6.915684E+03	1.154928E-03	1.411170E-04
6.925592E+03	1.182229E-03	1.440513E-04
6.935500E+03	1.212415E-03	1.472977E-04
6.945408E+03	1.245429E-03	1.508446E-04
6.955316E+03	1.281226E-03	1.546820E-04
6.965223E+03	1.319667E-03	1.587881E-04
6.975131E+03	1.360626E-03	1.631424E-04
6.985039E+03	1.403989E-03	1.677264E-04
6.994947E+03	1.449586E-03	1.725146E-04
7.004855E+03	1.497193E-03	1.774749E-04
7.014763E+03	1.546599E-03	1.825773E-04
7.024671E+03	1.597587E-03	1.877912E-04
7.034578E+03	1.649972E-03	1.930902E-04
7.044486E+03	1.703522E-03	1.984422E-04
7.054394E+03	1.757906E-03	2.038047E-04
7.064302E+03	1.812978E-03	2.091564E-04
7.074210E+03	1.868448E-03	2.144603E-04
7.084118E+03	1.924074E-03	2.196854E-04
7.094026E+03	1.979668E-03	2.248072E-04
7.103933E+03	2.034929E-03	2.297891E-04
7.113841E+03	2.089606E-03	2.346007E-04
7.123749E+03	2.143438E-03	2.392115E-04
7.133657E+03	2.196146E-03	2.435896E-04
7.143565E+03	2.247503E-03	2.477096E-04
7.153473E+03	2.297073E-03	2.515240E-04
7.163381E+03	2.344641E-03	2.550110E-04
7.173288E+03	2.389782E-03	2.581267E-04
7.183196E+03	2.432041E-03	2.608255E-04
7.193104E+03	2.471134E-03	2.630819E-04
7.203012E+03	2.506562E-03	2.648485E-04
7.212920E+03	2.537804E-03	2.660779E-04
7.222828E+03	2.564549E-03	2.667463E-04
7.232736E+03	2.586279E-03	2.668104E-04
7.242643E+03	2.602499E-03	2.662311E-04
7.252551E+03	2.612959E-03	2.649966E-04
7.262459E+03	2.617173E-03	2.630729E-04
7.272367E+03	2.614939E-03	2.604564E-04
7.282275E+03	2.606061E-03	2.571457E-04
7.292183E+03	2.590363E-03	2.531425E-04
7.302091E+03	2.567985E-03	2.484807E-04
7.311998E+03	2.538894E-03	2.431773E-04
7.321906E+03	2.503373E-03	2.372805E-04
7.331814E+03	2.461752E-03	2.308422E-04
7.341722E+03	2.414394E-03	2.239166E-04
7.351630E+03	2.361893E-03	2.165783E-04
7.361538E+03	2.304858E-03	2.089011E-04
7.371446E+03	2.243902E-03	2.009573E-04
7.381353E+03	2.179818E-03	1.928326E-04
7.391261E+03	2.113302E-03	1.846013E-04
7.401169E+03	2.045188E-03	1.763467E-04
7.411077E+03	1.976243E-03	1.681427E-04
7.420985E+03	1.907155E-03	1.600534E-04
7.430893E+03	1.838693E-03	1.521462E-04
7.440801E+03	1.771466E-03	1.444719E-04
7.450708E+03	1.706131E-03	1.370823E-04
7.460616E+03	1.643182E-03	1.300128E-04
7.470524E+03	1.583100E-03	1.232951E-04
7.480432E+03	1.526339E-03	1.169562E-04
7.490340E+03	1.473238E-03	1.110120E-04
7.500248E+03	1.424033E-03	1.054687E-04
7.510156E+03	1.378942E-03	1.003293E-04
7.520063E+03	1.338130E-03	9.559176E-05
7.529971E+03	1.301750E-03	9.125179E-05
7.539879E+03	1.269868E-03	8.729803E-05
7.549787E+03	1.242480E-03	8.371336E-05
7.559695E+03	1.219587E-03	8.048083E-05
7.569603E+03	1.201161E-03	7.758104E-05
7.579511E+03	1.187187E-03	7.499518E-05
7.589418E+03	1.177559E-03	7.269841E-05
7.599326E+03	1.172191E-03	7.066729E-05
7.609234E+03	1.170976E-03	6.887740E-05
7.619142E+03	1.173829E-03	6.730558E-05
7.629050E+03	1.180578E-03	6.592404E-05
7.638958E+03	1.191103E-03	6.470843E-05
7.648866E+03	1.205155E-03	6.362803E-05
7.658773E+03	1.222606E-03	6.265937E-05
7.668681E+03	1.243195E-03	6.177299E-05
7.678589E+03	1.266666E-03	6.094082E-05
7.688497E+03	1.292771E-03	6.013665E-05
