#wls	flux	fluxerr
1.585257E+03	3.733269E-05	6.272373E-07
1.624889E+03	3.815435E-05	6.399012E-07
1.664520E+03	3.883638E-05	6.501472E-07
1.704151E+03	3.937438E-05	6.579123E-07
1.743783E+03	3.974428E-05	6.628065E-07
1.783414E+03	3.990877E-05	6.642237E-07
1.823046E+03	3.981244E-05	6.612626E-07
1.862677E+03	3.937992E-05	6.527004E-07
1.902309E+03	3.857600E-05	6.379903E-07
1.941940E+03	3.736348E-05	6.165603E-07
1.981571E+03	3.580349E-05	5.894642E-07
2.021203E+03	3.407742E-05	5.597249E-07
2.060834E+03	3.253593E-05	5.331118E-07
2.100466E+03	3.161009E-05	5.166525E-07
2.140097E+03	3.167780E-05	5.164344E-07
2.179729E+03	3.289628E-05	5.348886E-07
2.219360E+03	3.517179E-05	5.703423E-07
2.258991E+03	3.823814E-05	6.183435E-07
2.298623E+03	4.180144E-05	6.740356E-07
2.338254E+03	4.561484E-05	7.333680E-07
2.377886E+03	4.950919E-05	7.935799E-07
2.417517E+03	5.340864E-05	8.534331E-07
2.457149E+03	5.728622E-05	9.124821E-07
2.496780E+03	6.114915E-05	9.708296E-07
2.536411E+03	6.502317E-05	1.028870E-06
2.576043E+03	6.893203E-05	1.086960E-06
2.615674E+03	7.292501E-05	1.145851E-06
2.655306E+03	7.704279E-05	1.206150E-06
2.694937E+03	8.132700E-05	1.268467E-06
2.734569E+03	8.581990E-05	1.333411E-06
2.774200E+03	9.055023E-05	1.401369E-06
2.813831E+03	9.559122E-05	1.473404E-06
2.853463E+03	1.009601E-04	1.549701E-06
2.893094E+03	1.067213E-04	1.631157E-06
2.932726E+03	1.129283E-04	1.718482E-06
2.972357E+03	1.196388E-04	1.812431E-06
2.982265E+03	1.213899E-04	1.836859E-06
2.992173E+03	1.231950E-04	1.862032E-06
3.002081E+03	1.250365E-04	1.887679E-06
3.011989E+03	1.268982E-04	1.913555E-06
3.021896E+03	1.288294E-04	1.940401E-06
3.031804E+03	1.308214E-04	1.968080E-06
3.041712E+03	1.328730E-04	1.996573E-06
3.051620E+03	1.349831E-04	2.025857E-06
3.061528E+03	1.371509E-04	2.055918E-06
3.071436E+03	1.393755E-04	2.086737E-06
3.081344E+03	1.416564E-04	2.118304E-06
3.091251E+03	1.439931E-04	2.150608E-06
3.101159E+03	1.464078E-04	2.183976E-06
3.111067E+03	1.488559E-04	2.217739E-06
3.120975E+03	1.513594E-04	2.252220E-06
3.130883E+03	1.539183E-04	2.287417E-06
3.140791E+03	1.565567E-04	2.323684E-06
3.150699E+03	1.592277E-04	2.360320E-06
3.160606E+03	1.619797E-04	2.398038E-06
3.170514E+03	1.647646E-04	2.436121E-06
3.180422E+03	1.676323E-04	2.475305E-06
3.190330E+03	1.705591E-04	2.515235E-06
3.200238E+03	1.735198E-04	2.555533E-06
3.210146E+03	1.765671E-04	2.596973E-06
3.220054E+03	1.796761E-04	2.639185E-06
3.229961E+03	1.828481E-04	2.682180E-06
3.239869E+03	1.860841E-04	2.725969E-06
3.249777E+03	1.893853E-04	2.770566E-06
3.259685E+03	1.927531E-04	2.815986E-06
3.269593E+03	1.961887E-04	2.862241E-06
3.279501E+03	1.996934E-04	2.909347E-06
3.289409E+03	2.032689E-04	2.957319E-06
3.299316E+03	2.069164E-04	3.006174E-06
3.309224E+03	2.106376E-04	3.055928E-06
3.319132E+03	2.144339E-04	3.106597E-06
3.329040E+03	2.183394E-04	3.158667E-06
3.338948E+03	2.222915E-04	3.211228E-06
3.348856E+03	2.263237E-04	3.264757E-06
3.358763E+03	2.304715E-04	3.319762E-06
3.368671E+03	2.346694E-04	3.375288E-06
3.378579E+03	2.389874E-04	3.432340E-06
3.388487E+03	2.433577E-04	3.489935E-06
3.398395E+03	2.478528E-04	3.549106E-06
3.408303E+03	2.524392E-04	3.609365E-06
3.418211E+03	2.570812E-04	3.670196E-06
3.428118E+03	2.618547E-04	3.732675E-06
3.438026E+03	2.667245E-04	3.796292E-06
3.447934E+03	2.716528E-04	3.860501E-06
3.457842E+03	2.767193E-04	3.926428E-06
3.467750E+03	2.818867E-04	3.993535E-06
3.477658E+03	2.871564E-04	4.061831E-06
3.487566E+03	2.925298E-04	4.131329E-06
3.497473E+03	2.980082E-04	4.202039E-06
3.507381E+03	3.035927E-04	4.273967E-06
3.517289E+03	3.092843E-04	4.347119E-06
3.527197E+03	3.150841E-04	4.421501E-06
3.537105E+03	3.209929E-04	4.497116E-06
3.547013E+03	3.270113E-04	4.573962E-06
3.556921E+03	3.331400E-04	4.652040E-06
3.566828E+03	3.393793E-04	4.731344E-06
3.576736E+03	3.457787E-04	4.812555E-06
3.586644E+03	3.522406E-04	4.894303E-06
3.596552E+03	3.588134E-04	4.977252E-06
3.606460E+03	3.654965E-04	5.061388E-06
3.616368E+03	3.723423E-04	5.147419E-06
3.626276E+03	3.792454E-04	5.233885E-06
3.636183E+03	3.862568E-04	5.321475E-06
3.646091E+03	3.934304E-04	5.410925E-06
3.655999E+03	4.006551E-04	5.500695E-06
3.665907E+03	4.080407E-04	5.592284E-06
3.675815E+03	4.154718E-04	5.684100E-06
3.685723E+03	4.230616E-04	5.777682E-06
3.695631E+03	4.306902E-04	5.871382E-06
3.705538E+03	4.384740E-04	5.966782E-06
3.715446E+03	4.462888E-04	6.062178E-06
3.725354E+03	4.542546E-04	6.159193E-06
3.735262E+03	4.622425E-04	6.256071E-06
3.745170E+03	4.703758E-04	6.354472E-06
3.755078E+03	4.785215E-04	6.452590E-06
3.764986E+03	4.868063E-04	6.552127E-06
3.774893E+03	4.951606E-04	6.652136E-06
3.784801E+03	5.035106E-04	6.751620E-06
3.794709E+03	5.119888E-04	6.852350E-06
3.804617E+03	5.205220E-04	6.953335E-06
3.814525E+03	5.290329E-04	7.053538E-06
3.824433E+03	5.376597E-04	7.154801E-06
3.834341E+03	5.463261E-04	7.256096E-06
3.844248E+03	5.549512E-04	7.356345E-06
3.854156E+03	5.636800E-04	7.457471E-06
3.864064E+03	5.724329E-04	7.558408E-06
3.873972E+03	5.811261E-04	7.658051E-06
3.883880E+03	5.899113E-04	7.758398E-06
3.893788E+03	5.987064E-04	7.858358E-06
3.903696E+03	6.074249E-04	7.956800E-06
3.913603E+03	6.162257E-04	8.055801E-06
3.923511E+03	6.250241E-04	8.154252E-06
3.933419E+03	6.338170E-04	8.252105E-06
3.943327E+03	6.425149E-04	8.348201E-06
3.953235E+03	6.512867E-04	8.444732E-06
3.963143E+03	6.600449E-04	8.540559E-06
3.973051E+03	6.686982E-04	8.634503E-06
3.982958E+03	6.774227E-04	8.728839E-06
3.992866E+03	6.861287E-04	8.822406E-06
4.002774E+03	6.947228E-04	8.914006E-06
4.012682E+03	7.033877E-04	9.005984E-06
4.022590E+03	7.120312E-04	9.097158E-06
4.032498E+03	7.205573E-04	9.186300E-06
4.042406E+03	7.291544E-04	9.275818E-06
4.052313E+03	7.376299E-04	9.363257E-06
4.062221E+03	7.461756E-04	9.451057E-06
4.072129E+03	7.546930E-04	9.537965E-06
4.082037E+03	7.630795E-04	9.622688E-06
4.091945E+03	7.715305E-04	9.707696E-06
4.101853E+03	7.798405E-04	9.790398E-06
4.111761E+03	7.882068E-04	9.873281E-06
4.121668E+03	7.964177E-04	9.953690E-06
4.131576E+03	8.046718E-04	1.003411E-05
4.141484E+03	8.127507E-04	1.011183E-05
4.151392E+03	8.207472E-04	1.018801E-05
4.161300E+03	8.287560E-04	1.026383E-05
4.171208E+03	8.365486E-04	1.033646E-05
4.181116E+03	8.442158E-04	1.040704E-05
4.191023E+03	8.518501E-04	1.047671E-05
4.200931E+03	8.592141E-04	1.054258E-05
4.210839E+03	8.663963E-04	1.060574E-05
4.220747E+03	8.734894E-04	1.066733E-05
4.230655E+03	8.802480E-04	1.072439E-05
4.240563E+03	8.867628E-04	1.077804E-05
4.250471E+03	8.930144E-04	1.082806E-05
4.260378E+03	8.989832E-04	1.087424E-05
4.270286E+03	9.046531E-04	1.091641E-05
4.280194E+03	9.100086E-04	1.095442E-05
4.290102E+03	9.150385E-04	1.098815E-05
4.300010E+03	9.197361E-04	1.101755E-05
4.309918E+03	9.240960E-04	1.104259E-05
4.319826E+03	9.281166E-04	1.106328E-05
4.329733E+03	9.317969E-04	1.107964E-05
4.339641E+03	9.350184E-04	1.109030E-05
4.349549E+03	9.380158E-04	1.109806E-05
4.359457E+03	9.406758E-04	1.110163E-05
4.369365E+03	9.428831E-04	1.109966E-05
4.379273E+03	9.448841E-04	1.109510E-05
4.389181E+03	9.464537E-04	1.108532E-05
4.399088E+03	9.478406E-04	1.107327E-05
4.408996E+03	9.488214E-04	1.105637E-05
4.418904E+03	9.496497E-04	1.103760E-05
4.428812E+03	9.501000E-04	1.101436E-05
4.438720E+03	9.503058E-04	1.098823E-05
4.448628E+03	9.503986E-04	1.096075E-05
4.458536E+03	9.501495E-04	1.092930E-05
4.468443E+03	9.496884E-04	1.089540E-05
4.478351E+03	9.490207E-04	1.085913E-05
4.488259E+03	9.481517E-04	1.082057E-05
4.498167E+03	9.470853E-04	1.077979E-05
4.508075E+03	9.458216E-04	1.073681E-05
4.517983E+03	9.443635E-04	1.069168E-05
4.527891E+03	9.427078E-04	1.064438E-05
4.537798E+03	9.407388E-04	1.059364E-05
4.547706E+03	9.386869E-04	1.054206E-05
4.557614E+03	9.364348E-04	1.048834E-05
4.567522E+03	9.338674E-04	1.043123E-05
4.577430E+03	9.312168E-04	1.037332E-05
4.587338E+03	9.282551E-04	1.031211E-05
4.597246E+03	9.252165E-04	1.025021E-05
4.607153E+03	9.218801E-04	1.018520E-05
4.617061E+03	9.183717E-04	1.011849E-05
4.626969E+03	9.147026E-04	1.005023E-05
4.636877E+03	9.110011E-04	9.981821E-06
4.646785E+03	9.070645E-04	9.911071E-06
4.656693E+03	9.030265E-04	9.839456E-06
4.666601E+03	8.989138E-04	9.767277E-06
4.676508E+03	8.946454E-04	9.693666E-06
4.686416E+03	8.904709E-04	9.621335E-06
4.696324E+03	8.863143E-04	9.549459E-06
4.706232E+03	8.822108E-04	9.478417E-06
4.716140E+03	8.780908E-04	9.407460E-06
4.726048E+03	8.742038E-04	9.339257E-06
4.735956E+03	8.703752E-04	9.271930E-06
4.745863E+03	8.668520E-04	9.208098E-06
4.755771E+03	8.634600E-04	9.145890E-06
4.765679E+03	8.603376E-04	9.086760E-06
4.775587E+03	8.575158E-04	9.031009E-06
4.785495E+03	8.550223E-04	8.978906E-06
4.795403E+03	8.528818E-04	8.930681E-06
4.805311E+03	8.511145E-04	8.886514E-06
4.815218E+03	8.497365E-04	8.846542E-06
4.825126E+03	8.487588E-04	8.810848E-06
4.835034E+03	8.481872E-04	8.779457E-06
4.844942E+03	8.479214E-04	8.751299E-06
4.854850E+03	8.481585E-04	8.728379E-06
4.864758E+03	8.486857E-04	8.708471E-06
4.874666E+03	8.496891E-04	8.693455E-06
4.884573E+03	8.509452E-04	8.681013E-06
4.894481E+03	8.525284E-04	8.671882E-06
4.904389E+03	8.545089E-04	8.666747E-06
4.914297E+03	8.566490E-04	8.663174E-06
4.924205E+03	8.590113E-04	8.661783E-06
4.934113E+03	8.615544E-04	8.662142E-06
4.944021E+03	8.642350E-04	8.663806E-06
4.953928E+03	8.669065E-04	8.665300E-06
4.963836E+03	8.697297E-04	8.668231E-06
4.973744E+03	8.725590E-04	8.671145E-06
4.983652E+03	8.752505E-04	8.672619E-06
4.993560E+03	8.779721E-04	8.674328E-06
5.003468E+03	8.804833E-04	8.673905E-06
5.013376E+03	8.829612E-04	8.673113E-06
5.023283E+03	8.851743E-04	8.669690E-06
5.033191E+03	8.872077E-04	8.664495E-06
5.043099E+03	8.890484E-04	8.657424E-06
5.053007E+03	8.906903E-04	8.648434E-06
5.062915E+03	8.921326E-04	8.637542E-06
5.072823E+03	8.933806E-04	8.624819E-06
5.082731E+03	8.944449E-04	8.610389E-06
5.092638E+03	8.952363E-04	8.593414E-06
5.102546E+03	8.959841E-04	8.576116E-06
5.112454E+03	8.966067E-04	8.557727E-06
5.122362E+03	8.970262E-04	8.537516E-06
5.132270E+03	8.974802E-04	8.517763E-06
5.142178E+03	8.977897E-04	8.496772E-06
5.152086E+03	8.980905E-04	8.475845E-06
5.161993E+03	8.984143E-04	8.455281E-06
5.171901E+03	8.987924E-04	8.435380E-06
5.181809E+03	8.992559E-04	8.416432E-06
5.191717E+03	8.998351E-04	8.398718E-06
5.201625E+03	9.005593E-04	8.382508E-06
5.211533E+03	9.014566E-04	8.368055E-06
5.221441E+03	9.025536E-04	8.355597E-06
5.231348E+03	9.037706E-04	8.344392E-06
5.241256E+03	9.053411E-04	8.336582E-06
5.251164E+03	9.070774E-04	8.330426E-06
5.261072E+03	9.092102E-04	8.328030E-06
5.270980E+03	9.115477E-04	8.327619E-06
5.280888E+03	9.142133E-04	8.330309E-06
5.290796E+03	9.172200E-04	8.336202E-06
5.300703E+03	9.206895E-04	8.346385E-06
5.310611E+03	9.244198E-04	8.359006E-06
5.320519E+03	9.285245E-04	8.375080E-06
5.330427E+03	9.329023E-04	8.393678E-06
5.340335E+03	9.377716E-04	8.416750E-06
5.350243E+03	9.430229E-04	8.443293E-06
5.360151E+03	9.486533E-04	8.473264E-06
5.370058E+03	9.545433E-04	8.505585E-06
5.379966E+03	9.608993E-04	8.542084E-06
5.389874E+03	9.674827E-04	8.580626E-06
5.399782E+03	9.743806E-04	8.621978E-06
5.409690E+03	9.816791E-04	8.666894E-06
5.419598E+03	9.891189E-04	8.713077E-06
5.429506E+03	9.967727E-04	8.761168E-06
5.439413E+03	1.004598E-03	8.810793E-06
5.449321E+03	1.012543E-03	8.861515E-06
5.459229E+03	1.020562E-03	8.912920E-06
5.469137E+03	1.028600E-03	8.964549E-06
5.479045E+03	1.036603E-03	9.015950E-06
5.488953E+03	1.044518E-03	9.066666E-06
5.498861E+03	1.052170E-03	9.115207E-06
5.508768E+03	1.059752E-03	9.163256E-06
5.518676E+03	1.066978E-03	9.208354E-06
5.528584E+03	1.074054E-03	9.252282E-06
5.538492E+03	1.080707E-03	9.292705E-06
5.548400E+03	1.087039E-03	9.330520E-06
5.558308E+03	1.093171E-03	9.366756E-06
5.568216E+03	1.098853E-03	9.399301E-06
5.578123E+03	1.104226E-03	9.429364E-06
5.588031E+03	1.109317E-03	9.457185E-06
5.597939E+03	1.114164E-03	9.483098E-06
5.607847E+03	1.118816E-03	9.507514E-06
5.617755E+03	1.123328E-03	9.530912E-06
5.627663E+03	1.127767E-03	9.553851E-06
5.637571E+03	1.132074E-03	9.575824E-06
5.647478E+03	1.136580E-03	9.599638E-06
5.657386E+03	1.141232E-03	9.624822E-06
5.667294E+03	1.145975E-03	9.650906E-06
5.677202E+03	1.151142E-03	9.680671E-06
5.687110E+03	1.156539E-03	9.712467E-06
5.697018E+03	1.162353E-03	9.747859E-06
5.706926E+03	1.168772E-03	9.788387E-06
5.716833E+03	1.175570E-03	9.832129E-06
5.726741E+03	1.182906E-03	9.880412E-06
5.736649E+03	1.190797E-03	9.933340E-06
5.746557E+03	1.199245E-03	9.990895E-06
5.756465E+03	1.208235E-03	1.005295E-05
5.766373E+03	1.217741E-03	1.011925E-05
5.776281E+03	1.227723E-03	1.018943E-05
5.786188E+03	1.238125E-03	1.026303E-05
5.796096E+03	1.248881E-03	1.033946E-05
5.806004E+03	1.259913E-03	1.041806E-05
5.815912E+03	1.270991E-03	1.049692E-05
5.825820E+03	1.282311E-03	1.057765E-05
5.835728E+03	1.293487E-03	1.065705E-05
5.845636E+03	1.304719E-03	1.073674E-05
5.855543E+03	1.315614E-03	1.081352E-05
5.865451E+03	1.326387E-03	1.088912E-05
5.875359E+03	1.336660E-03	1.096045E-05
5.885267E+03	1.346516E-03	1.102819E-05
5.895175E+03	1.356063E-03	1.109323E-05
5.905083E+03	1.364960E-03	1.115276E-05
5.914991E+03	1.373347E-03	1.120797E-05
5.924898E+03	1.381236E-03	1.125893E-05
5.934806E+03	1.388653E-03	1.130586E-05
5.944714E+03	1.395648E-03	1.134918E-05
5.954622E+03	1.402295E-03	1.138948E-05
5.964530E+03	1.408681E-03	1.142747E-05
5.974438E+03	1.414911E-03	1.146399E-05
5.984346E+03	1.421106E-03	1.150001E-05
5.994253E+03	1.427394E-03	1.153657E-05
6.004161E+03	1.433752E-03	1.157345E-05
6.014069E+03	1.440646E-03	1.161442E-05
6.023977E+03	1.448057E-03	1.165927E-05
6.033885E+03	1.455958E-03	1.170776E-05
6.043793E+03	1.464817E-03	1.176363E-05
6.053701E+03	1.474423E-03	1.182514E-05
6.063608E+03	1.485223E-03	1.189582E-05
6.073516E+03	1.496976E-03	1.197372E-05
6.083424E+03	1.509928E-03	1.206072E-05
6.093332E+03	1.524311E-03	1.215865E-05
6.103240E+03	1.539813E-03	1.226493E-05
6.113148E+03	1.556615E-03	1.238097E-05
6.123056E+03	1.574879E-03	1.250799E-05
6.132963E+03	1.594203E-03	1.264272E-05
6.142871E+03	1.614690E-03	1.278593E-05
6.152779E+03	1.636235E-03	1.293671E-05
6.162687E+03	1.658703E-03	1.309395E-05
6.172595E+03	1.681930E-03	1.325629E-05
6.182503E+03	1.705725E-03	1.342219E-05
6.192411E+03	1.729869E-03	1.358987E-05
6.202318E+03	1.754122E-03	1.375741E-05
6.212226E+03	1.778225E-03	1.392276E-05
6.222134E+03	1.801699E-03	1.408215E-05
6.232042E+03	1.824671E-03	1.423657E-05
6.241950E+03	1.846654E-03	1.438221E-05
6.251858E+03	1.867368E-03	1.451693E-05
6.261766E+03	1.886328E-03	1.463699E-05
6.271673E+03	1.903715E-03	1.474384E-05
6.281581E+03	1.919089E-03	1.483412E-05
6.291489E+03	1.932034E-03	1.490470E-05
6.301397E+03	1.942831E-03	1.495783E-05
6.311305E+03	1.950916E-03	1.498925E-05
6.321213E+03	1.956655E-03	1.500190E-05
6.331121E+03	1.959564E-03	1.499215E-05
6.341028E+03	1.960094E-03	1.496359E-05
6.350936E+03	1.957839E-03	1.491323E-05
6.360844E+03	1.953104E-03	1.484351E-05
6.370752E+03	1.946221E-03	1.475708E-05
6.380660E+03	1.936881E-03	1.465172E-05
6.390568E+03	1.925465E-03	1.453043E-05
6.400476E+03	1.912148E-03	1.439464E-05
6.410383E+03	1.897329E-03	1.424746E-05
6.420291E+03	1.880759E-03	1.408711E-05
6.430199E+03	1.862845E-03	1.391676E-05
6.440107E+03	1.843770E-03	1.373782E-05
6.450015E+03	1.823708E-03	1.355170E-05
6.459923E+03	1.802823E-03	1.335967E-05
6.469831E+03	1.781267E-03	1.316293E-05
6.479738E+03	1.759177E-03	1.296254E-05
6.489646E+03	1.736678E-03	1.275947E-05
6.499554E+03	1.713878E-03	1.255455E-05
6.509462E+03	1.690874E-03	1.234852E-05
6.519370E+03	1.667747E-03	1.214202E-05
6.529278E+03	1.644570E-03	1.193560E-05
6.539186E+03	1.621403E-03	1.172972E-05
6.549093E+03	1.598116E-03	1.152344E-05
6.559001E+03	1.575123E-03	1.131980E-05
6.568909E+03	1.552278E-03	1.111773E-05
6.578817E+03	1.529617E-03	1.091751E-05
6.588725E+03	1.507001E-03	1.071814E-05
6.598633E+03	1.484813E-03	1.052237E-05
6.608541E+03	1.462912E-03	1.032918E-05
6.618448E+03	1.441164E-03	1.013765E-05
6.628356E+03	1.419942E-03	9.950381E-06
6.638264E+03	1.398960E-03	9.765353E-06
6.648172E+03	1.378582E-03	9.585119E-06
6.658080E+03	1.358541E-03	9.407782E-06
6.667988E+03	1.339202E-03	9.235865E-06
6.677896E+03	1.320311E-03	9.067570E-06
6.687803E+03	1.302234E-03	8.905395E-06
6.697711E+03	1.284732E-03	8.747652E-06
6.707619E+03	1.268168E-03	8.596781E-06
6.717527E+03	1.252317E-03	8.451178E-06
6.727435E+03	1.237394E-03	8.312251E-06
6.737343E+03	1.223610E-03	8.181344E-06
6.747251E+03	1.210749E-03	8.056919E-06
6.757158E+03	1.199021E-03	7.940299E-06
6.767066E+03	1.188629E-03	7.832715E-06
6.776974E+03	1.179356E-03	7.732640E-06
6.786882E+03	1.171400E-03	7.641256E-06
6.796790E+03	1.164814E-03	7.558777E-06
6.806698E+03	1.159644E-03	7.485381E-06
6.816606E+03	1.155934E-03	7.421195E-06
6.826513E+03	1.153717E-03	7.366288E-06
6.836421E+03	1.153155E-03	7.321527E-06
6.846329E+03	1.154001E-03	7.285183E-06
6.856237E+03	1.156401E-03	7.258004E-06
6.866145E+03	1.160359E-03	7.239850E-06
6.876053E+03	1.165871E-03	7.230512E-06
6.885961E+03	1.172923E-03	7.229716E-06
6.895868E+03	1.181355E-03	7.236302E-06
6.905776E+03	1.191410E-03	7.251570E-06
6.915684E+03	1.202909E-03	7.274239E-06
6.925592E+03	1.215805E-03	7.303834E-06
6.935500E+03	1.230039E-03	7.339821E-06
6.945408E+03	1.245546E-03	7.381625E-06
6.955316E+03	1.262252E-03	7.428641E-06
6.965223E+03	1.279929E-03	7.479356E-06
6.975131E+03	1.298786E-03	7.534841E-06
6.985039E+03	1.318588E-03	7.593560E-06
6.994947E+03	1.339082E-03	7.653929E-06
7.004855E+03	1.360484E-03	7.717039E-06
7.014763E+03	1.382541E-03	7.781330E-06
7.024671E+03	1.404991E-03	7.845212E-06
7.034578E+03	1.428062E-03	7.909867E-06
7.044486E+03	1.451494E-03	7.973750E-06
7.054394E+03	1.475020E-03	8.035319E-06
7.064302E+03	1.498887E-03	8.095867E-06
7.074210E+03	1.522654E-03	8.152948E-06
7.084118E+03	1.546580E-03	8.207921E-06
7.094026E+03	1.570215E-03	8.258358E-06
7.103933E+03	1.593640E-03	8.304692E-06
7.113841E+03	1.616946E-03	8.347393E-06
7.123749E+03	1.639655E-03	8.383999E-06
7.133657E+03	1.661845E-03	8.414964E-06
7.143565E+03	1.683598E-03	8.440740E-06
7.153473E+03	1.704396E-03	8.458801E-06
7.163381E+03	1.724301E-03	8.469562E-06
7.173288E+03	1.743168E-03	8.472435E-06
7.183196E+03	1.761051E-03	8.467807E-06
7.193104E+03	1.777373E-03	8.453076E-06
7.203012E+03	1.792170E-03	8.428629E-06
7.212920E+03	1.805265E-03	8.393866E-06
7.222828E+03	1.816478E-03	8.348224E-06
7.232736E+03	1.825631E-03	8.291185E-06
7.242643E+03	1.832549E-03	8.222290E-06
7.252551E+03	1.837068E-03	8.141174E-06
7.262459E+03	1.839038E-03	8.047576E-06
7.272367E+03	1.838326E-03	7.941350E-06
7.282275E+03	1.834824E-03	7.822493E-06
7.292183E+03	1.828452E-03	7.691155E-06
7.302091E+03	1.819161E-03	7.547640E-06
7.311998E+03	1.806938E-03	7.392415E-06
7.321906E+03	1.791595E-03	7.225254E-06
7.331814E+03	1.773619E-03	7.048667E-06
7.341722E+03	1.752896E-03	6.862704E-06
7.351630E+03	1.729563E-03	6.668418E-06
7.361538E+03	1.703587E-03	6.466189E-06
7.371446E+03	1.675580E-03	6.258815E-06
7.381353E+03	1.645564E-03	6.046797E-06
7.391261E+03	1.613596E-03	5.830755E-06
7.401169E+03	1.580333E-03	5.613427E-06
7.411077E+03	1.545670E-03	5.394742E-06
7.420985E+03	1.510262E-03	5.177256E-06
7.430893E+03	1.474028E-03	4.960893E-06
7.440801E+03	1.437598E-03	4.747941E-06
7.450708E+03	1.400894E-03	4.538238E-06
7.460616E+03	1.364341E-03	4.333246E-06
7.470524E+03	1.328332E-03	4.134210E-06
7.480432E+03	1.292761E-03	3.940757E-06
7.490340E+03	1.257980E-03	3.753910E-06
7.500248E+03	1.224307E-03	3.574495E-06
7.510156E+03	1.191589E-03	3.401915E-06
7.520063E+03	1.160100E-03	3.236795E-06
7.529971E+03	1.129937E-03	3.079213E-06
7.539879E+03	1.101177E-03	2.929163E-06
7.549787E+03	1.073877E-03	2.786569E-06
7.559695E+03	1.048072E-03	2.651282E-06
7.569603E+03	1.023782E-03	2.523105E-06
7.579511E+03	1.001009E-03	2.401800E-06
7.589418E+03	9.797413E-04	2.287092E-06
7.599326E+03	9.599540E-04	2.178683E-06
7.609234E+03	9.416120E-04	2.076264E-06
7.619142E+03	9.246694E-04	1.979518E-06
7.629050E+03	9.090713E-04	1.888123E-06
7.638958E+03	8.947563E-04	1.801771E-06
7.648866E+03	8.815526E-04	1.719960E-06
7.658773E+03	8.695995E-04	1.642831E-06
7.668681E+03	8.587147E-04	1.569917E-06
7.678589E+03	8.487149E-04	1.500809E-06
7.688497E+03	8.397246E-04	1.435684E-06
