#wls	flux	fluxerr
1.581262E+03	3.365528E-01	6.038707E-03
1.620794E+03	3.595854E-01	6.383139E-03
1.660325E+03	3.821178E-01	6.710478E-03
1.699857E+03	4.035198E-01	7.010281E-03
1.739388E+03	4.230663E-01	7.270985E-03
1.778920E+03	4.399688E-01	7.480498E-03
1.818451E+03	4.534280E-01	7.627132E-03
1.857983E+03	4.627288E-01	7.701152E-03
1.897514E+03	4.673685E-01	7.696781E-03
1.937046E+03	4.672312E-01	7.614822E-03
1.976578E+03	4.627731E-01	7.465274E-03
2.016109E+03	4.550450E-01	7.267215E-03
2.055641E+03	4.446734E-01	7.032155E-03
2.095172E+03	4.309422E-01	6.749988E-03
2.134704E+03	4.166653E-01	6.465700E-03
2.174235E+03	4.029007E-01	6.195594E-03
2.213767E+03	3.893740E-01	5.935069E-03
2.253298E+03	3.723396E-01	5.627166E-03
2.292830E+03	3.541768E-01	5.308541E-03
2.332362E+03	3.381097E-01	5.027184E-03
2.371893E+03	3.240724E-01	4.781044E-03
2.411425E+03	3.118400E-01	4.565851E-03
2.450956E+03	3.014079E-01	4.380701E-03
2.490488E+03	2.929798E-01	4.227747E-03
2.530019E+03	2.867026E-01	4.108248E-03
2.569551E+03	2.814715E-01	4.005592E-03
2.609082E+03	2.722797E-01	3.848490E-03
2.648614E+03	2.607810E-01	3.661097E-03
2.688145E+03	2.506886E-01	3.495660E-03
2.727677E+03	2.421057E-01	3.353055E-03
2.767209E+03	2.345925E-01	3.226672E-03
2.806740E+03	2.278411E-01	3.111895E-03
2.846272E+03	2.217202E-01	3.006634E-03
2.885803E+03	2.162226E-01	2.910537E-03
2.925335E+03	2.114164E-01	2.824273E-03
2.964866E+03	2.074157E-01	2.749094E-03
2.974749E+03	2.065579E-01	2.732216E-03
2.984632E+03	2.057621E-01	2.716160E-03
2.994515E+03	2.050309E-01	2.700956E-03
3.004398E+03	2.043668E-01	2.686632E-03
3.014281E+03	2.037727E-01	2.673219E-03
3.024164E+03	2.032519E-01	2.660753E-03
3.034047E+03	2.028070E-01	2.649262E-03
3.043929E+03	2.024422E-01	2.638793E-03
3.053812E+03	2.021604E-01	2.629379E-03
3.063695E+03	2.019660E-01	2.621068E-03
3.073578E+03	2.018634E-01	2.613907E-03
3.083461E+03	2.018572E-01	2.607950E-03
3.093344E+03	2.019529E-01	2.603257E-03
3.103227E+03	2.021538E-01	2.599861E-03
3.113110E+03	2.024542E-01	2.597677E-03
3.122993E+03	2.028299E-01	2.596389E-03
3.132875E+03	2.032309E-01	2.595349E-03
3.142758E+03	2.035887E-01	2.593681E-03
3.152641E+03	2.038301E-01	2.590458E-03
3.162524E+03	2.038871E-01	2.584828E-03
3.172407E+03	2.037031E-01	2.576092E-03
3.182290E+03	2.032418E-01	2.563816E-03
3.192173E+03	2.024956E-01	2.547928E-03
3.202056E+03	2.014793E-01	2.528644E-03
3.211939E+03	2.002298E-01	2.506451E-03
3.221821E+03	1.988014E-01	2.482051E-03
3.231704E+03	1.972564E-01	2.456238E-03
3.241587E+03	1.956540E-01	2.429760E-03
3.251470E+03	1.940471E-01	2.403280E-03
3.261353E+03	1.924750E-01	2.377284E-03
3.271236E+03	1.909629E-01	2.352080E-03
3.281119E+03	1.895218E-01	2.327799E-03
3.291002E+03	1.881528E-01	2.304448E-03
3.300885E+03	1.868517E-01	2.281970E-03
3.310767E+03	1.856190E-01	2.260363E-03
3.320650E+03	1.844528E-01	2.239600E-03
3.330533E+03	1.833245E-01	2.219329E-03
3.340416E+03	1.821512E-01	2.198544E-03
3.350299E+03	1.808354E-01	2.176081E-03
3.360182E+03	1.792932E-01	2.150948E-03
3.370065E+03	1.774618E-01	2.122420E-03
3.379948E+03	1.753041E-01	2.090091E-03
3.389831E+03	1.728161E-01	2.053950E-03
3.399713E+03	1.700299E-01	2.014418E-03
3.409596E+03	1.670026E-01	1.972205E-03
3.419479E+03	1.638069E-01	1.928197E-03
3.429362E+03	1.605283E-01	1.883419E-03
3.439245E+03	1.572198E-01	1.838505E-03
3.449128E+03	1.538986E-01	1.793661E-03
3.459011E+03	1.506332E-01	1.749687E-03
3.468894E+03	1.475294E-01	1.707804E-03
3.478776E+03	1.446631E-01	1.668871E-03
3.488659E+03	1.420678E-01	1.633250E-03
3.498542E+03	1.397473E-01	1.600952E-03
3.508425E+03	1.376954E-01	1.571875E-03
3.518308E+03	1.359101E-01	1.545966E-03
3.528191E+03	1.343901E-01	1.523182E-03
3.538074E+03	1.331118E-01	1.503223E-03
3.547957E+03	1.320146E-01	1.485380E-03
3.557840E+03	1.310214E-01	1.468766E-03
3.567722E+03	1.300759E-01	1.452744E-03
3.577605E+03	1.291694E-01	1.437210E-03
3.587488E+03	1.283189E-01	1.422349E-03
3.597371E+03	1.275380E-01	1.408308E-03
3.607254E+03	1.268291E-01	1.395103E-03
3.617137E+03	1.261859E-01	1.382658E-03
3.627020E+03	1.256011E-01	1.370887E-03
3.636903E+03	1.250751E-01	1.359786E-03
3.646786E+03	1.246006E-01	1.349272E-03
3.656668E+03	1.241501E-01	1.339042E-03
3.666551E+03	1.236781E-01	1.328606E-03
3.676434E+03	1.231245E-01	1.317326E-03
3.686317E+03	1.224445E-01	1.304733E-03
3.696200E+03	1.216343E-01	1.290808E-03
3.706083E+03	1.207138E-01	1.275778E-03
3.715966E+03	1.197106E-01	1.259950E-03
3.725849E+03	1.186653E-01	1.243761E-03
3.735732E+03	1.176233E-01	1.227694E-03
3.745614E+03	1.166134E-01	1.212048E-03
3.755497E+03	1.156333E-01	1.196796E-03
3.765380E+03	1.146656E-01	1.181756E-03
3.775263E+03	1.136903E-01	1.166724E-03
3.785146E+03	1.126861E-01	1.151484E-03
3.795029E+03	1.116312E-01	1.135819E-03
3.804912E+03	1.105120E-01	1.119600E-03
3.814795E+03	1.093449E-01	1.103002E-03
3.824678E+03	1.081554E-01	1.086288E-03
3.834560E+03	1.069711E-01	1.069739E-03
3.844443E+03	1.058266E-01	1.053700E-03
3.854326E+03	1.047527E-01	1.038472E-03
3.864209E+03	1.037630E-01	1.024182E-03
3.874092E+03	1.028417E-01	1.010664E-03
3.883975E+03	1.019577E-01	9.976066E-04
3.893858E+03	1.010894E-01	9.847970E-04
3.903741E+03	1.002384E-01	9.722476E-04
3.913624E+03	9.941476E-02	9.600568E-04
3.923506E+03	9.862385E-02	9.482726E-04
3.933389E+03	9.786569E-02	9.368925E-04
3.943272E+03	9.713593E-02	9.258722E-04
3.953155E+03	9.643610E-02	9.152240E-04
3.963038E+03	9.578681E-02	9.051399E-04
3.972921E+03	9.521325E-02	8.958521E-04
3.982804E+03	9.472055E-02	8.874006E-04
3.992687E+03	9.427874E-02	8.794975E-04
4.002570E+03	9.384059E-02	8.716991E-04
4.012452E+03	9.337032E-02	8.636757E-04
4.022335E+03	9.286363E-02	8.553926E-04
4.032218E+03	9.232520E-02	8.468982E-04
4.042101E+03	9.176109E-02	8.382527E-04
4.051984E+03	9.118556E-02	8.295899E-04
4.061867E+03	9.060329E-02	8.209546E-04
4.071750E+03	9.000083E-02	8.122272E-04
4.081633E+03	8.935965E-02	8.032442E-04
4.091516E+03	8.865909E-02	7.938256E-04
4.101398E+03	8.789170E-02	7.839122E-04
4.111281E+03	8.707616E-02	7.736772E-04
4.121164E+03	8.624984E-02	7.634569E-04
4.131047E+03	8.544790E-02	7.535625E-04
4.140930E+03	8.468090E-02	7.440848E-04
4.150813E+03	8.394881E-02	7.350204E-04
4.160696E+03	8.325543E-02	7.263995E-04
4.170579E+03	8.262213E-02	7.184047E-04
4.180462E+03	8.207120E-02	7.112241E-04
4.190344E+03	8.160679E-02	7.048867E-04
4.200227E+03	8.120584E-02	6.991875E-04
4.210110E+03	8.083210E-02	6.938105E-04
4.219993E+03	8.044863E-02	6.884384E-04
4.229876E+03	8.000936E-02	6.826795E-04
4.239759E+03	7.948092E-02	6.762544E-04
4.249642E+03	7.886368E-02	6.691729E-04
4.259525E+03	7.820953E-02	6.618801E-04
4.269408E+03	7.759830E-02	6.550513E-04
4.279290E+03	7.711674E-02	6.494112E-04
4.289173E+03	7.685978E-02	6.457463E-04
4.299056E+03	7.689350E-02	6.445949E-04
4.308939E+03	7.719705E-02	6.457644E-04
4.318822E+03	7.760959E-02	6.478970E-04
4.328705E+03	7.785167E-02	6.486574E-04
4.338588E+03	7.752374E-02	6.447299E-04
4.348471E+03	7.655886E-02	6.355825E-04
4.358354E+03	7.530804E-02	6.241483E-04
4.368236E+03	7.406563E-02	6.128703E-04
4.378119E+03	7.297097E-02	6.028949E-04
4.388002E+03	7.206634E-02	5.945613E-04
4.397885E+03	7.134964E-02	5.878419E-04
4.407768E+03	7.078596E-02	5.824399E-04
4.417651E+03	7.032840E-02	5.779621E-04
4.427534E+03	6.994209E-02	5.741165E-04
4.437417E+03	6.961637E-02	5.708113E-04
4.447300E+03	6.935650E-02	5.680855E-04
4.457182E+03	6.916585E-02	5.659629E-04
4.467065E+03	6.903634E-02	5.643739E-04
4.476948E+03	6.895555E-02	5.632137E-04
4.486831E+03	6.890578E-02	5.623348E-04
4.496714E+03	6.885624E-02	5.614840E-04
4.506597E+03	6.877840E-02	5.604270E-04
4.516480E+03	6.864665E-02	5.589539E-04
4.526363E+03	6.843243E-02	5.568317E-04
4.536245E+03	6.811666E-02	5.539047E-04
4.546128E+03	6.770043E-02	5.501816E-04
4.556011E+03	6.721113E-02	5.458846E-04
4.565894E+03	6.668795E-02	5.413309E-04
4.575777E+03	6.615175E-02	5.366886E-04
4.585660E+03	6.559012E-02	5.318554E-04
4.595543E+03	6.498075E-02	5.266491E-04
4.605426E+03	6.432339E-02	5.210669E-04
4.615309E+03	6.365671E-02	5.154207E-04
4.625191E+03	6.303728E-02	5.101670E-04
4.635074E+03	6.250905E-02	5.056597E-04
4.644957E+03	6.208650E-02	5.020134E-04
4.654840E+03	6.176068E-02	4.991533E-04
4.664723E+03	6.148873E-02	4.967312E-04
4.674606E+03	6.118015E-02	4.940146E-04
4.684489E+03	6.073773E-02	4.902182E-04
4.694372E+03	6.010854E-02	4.849157E-04
4.704255E+03	5.930116E-02	4.781774E-04
4.714137E+03	5.837370E-02	4.704728E-04
4.724020E+03	5.741327E-02	4.625047E-04
4.733903E+03	5.651794E-02	4.550623E-04
4.743786E+03	5.577796E-02	4.488707E-04
4.753669E+03	5.523356E-02	4.442510E-04
4.763552E+03	5.484218E-02	4.408582E-04
4.773435E+03	5.452548E-02	4.380602E-04
4.783318E+03	5.423069E-02	4.354318E-04
4.793201E+03	5.395700E-02	4.329659E-04
4.803083E+03	5.373740E-02	4.309261E-04
4.812966E+03	5.359916E-02	4.295297E-04
4.822849E+03	5.354564E-02	4.288020E-04
4.832732E+03	5.356237E-02	4.286253E-04
4.842615E+03	5.361907E-02	4.287556E-04
4.852498E+03	5.365360E-02	4.286954E-04
4.862381E+03	5.360130E-02	4.279283E-04
4.872264E+03	5.342704E-02	4.261756E-04
4.882147E+03	5.313271E-02	4.234546E-04
4.892029E+03	5.275421E-02	4.200536E-04
4.901912E+03	5.233981E-02	4.163582E-04
4.911795E+03	5.193814E-02	4.127561E-04
4.921678E+03	5.159182E-02	4.095854E-04
4.931561E+03	5.132167E-02	4.070098E-04
4.941444E+03	5.110628E-02	4.048579E-04
4.951327E+03	5.090699E-02	4.028224E-04
4.961210E+03	5.069309E-02	4.006602E-04
4.971093E+03	5.045166E-02	3.982699E-04
4.980975E+03	5.018631E-02	3.956809E-04
4.990858E+03	4.990512E-02	3.929575E-04
5.000741E+03	4.960967E-02	3.901131E-04
5.010624E+03	4.930383E-02	3.871786E-04
5.020507E+03	4.899706E-02	3.842289E-04
5.030390E+03	4.869940E-02	3.813431E-04
5.040273E+03	4.842543E-02	3.786352E-04
5.050156E+03	4.819248E-02	3.762398E-04
5.060039E+03	4.800309E-02	3.741758E-04
5.069921E+03	4.786071E-02	3.724687E-04
5.079804E+03	4.776816E-02	3.711390E-04
5.089687E+03	4.771105E-02	3.700733E-04
5.099570E+03	4.767302E-02	3.691438E-04
5.109453E+03	4.764213E-02	3.682580E-04
5.119336E+03	4.759735E-02	3.672533E-04
5.129219E+03	4.752055E-02	3.659912E-04
5.139102E+03	4.739947E-02	3.643791E-04
5.148985E+03	4.722735E-02	3.623674E-04
5.158867E+03	4.700312E-02	3.599507E-04
5.168750E+03	4.673591E-02	3.572016E-04
5.178633E+03	4.644608E-02	3.542778E-04
5.188516E+03	4.615949E-02	3.513780E-04
5.198399E+03	4.589381E-02	3.486366E-04
5.208282E+03	4.564699E-02	3.460380E-04
5.218165E+03	4.540876E-02	3.435040E-04
5.228048E+03	4.517246E-02	3.409845E-04
5.237931E+03	4.493352E-02	3.384457E-04
5.247813E+03	4.469372E-02	3.359016E-04
5.257696E+03	4.446183E-02	3.334189E-04
5.267579E+03	4.423932E-02	3.310085E-04
5.277462E+03	4.403368E-02	3.287267E-04
5.287345E+03	4.385044E-02	3.266144E-04
5.297228E+03	4.367394E-02	3.245547E-04
5.307111E+03	4.348994E-02	3.224423E-04
5.316994E+03	4.329612E-02	3.202612E-04
5.326877E+03	4.308943E-02	3.179899E-04
5.336759E+03	4.287797E-02	3.156894E-04
5.346642E+03	4.267801E-02	3.134801E-04
5.356525E+03	4.250020E-02	3.114400E-04
5.366408E+03	4.236112E-02	3.096900E-04
5.376291E+03	4.226793E-02	3.082807E-04
5.386174E+03	4.221052E-02	3.071361E-04
5.396057E+03	4.217842E-02	3.061782E-04
5.405940E+03	4.215803E-02	3.053070E-04
5.415823E+03	4.210531E-02	3.042035E-04
5.425705E+03	4.195869E-02	3.024254E-04
5.435588E+03	4.168390E-02	2.997311E-04
5.445471E+03	4.135239E-02	2.966394E-04
5.455354E+03	4.102842E-02	2.936129E-04
5.465237E+03	4.074878E-02	2.909141E-04
5.475120E+03	4.050466E-02	2.884776E-04
5.485003E+03	4.027688E-02	2.861653E-04
5.494886E+03	4.005339E-02	2.838910E-04
5.504768E+03	3.982000E-02	2.815541E-04
5.514651E+03	3.957132E-02	2.791170E-04
5.524534E+03	3.931265E-02	2.766178E-04
5.534417E+03	3.905056E-02	2.741033E-04
5.544300E+03	3.879688E-02	2.716564E-04
5.554183E+03	3.856023E-02	2.693372E-04
5.564066E+03	3.832895E-02	2.670634E-04
5.573949E+03	3.808855E-02	2.647342E-04
5.583832E+03	3.783054E-02	2.622916E-04
5.593714E+03	3.754354E-02	2.596576E-04
5.603597E+03	3.722922E-02	2.568456E-04
5.613480E+03	3.690011E-02	2.539434E-04
5.623363E+03	3.656654E-02	2.510229E-04
5.633246E+03	3.624983E-02	2.482304E-04
5.643129E+03	3.597475E-02	2.457347E-04
5.653012E+03	3.574257E-02	2.435424E-04
5.662895E+03	3.555423E-02	2.416582E-04
5.672778E+03	3.540945E-02	2.400781E-04
5.682660E+03	3.528205E-02	2.386233E-04
5.692543E+03	3.514816E-02	2.371322E-04
5.702426E+03	3.499625E-02	2.355279E-04
5.712309E+03	3.481861E-02	2.337601E-04
5.722192E+03	3.462556E-02	2.318993E-04
5.732075E+03	3.444108E-02	2.301071E-04
5.741958E+03	3.427731E-02	2.284644E-04
5.751841E+03	3.415563E-02	2.271128E-04
5.761724E+03	3.409025E-02	2.261451E-04
5.771606E+03	3.405069E-02	2.253575E-04
5.781489E+03	3.400362E-02	2.245293E-04
5.791372E+03	3.393682E-02	2.235809E-04
5.801255E+03	3.384056E-02	2.224500E-04
5.811138E+03	3.372086E-02	2.211778E-04
5.821021E+03	3.359043E-02	2.198492E-04
5.830904E+03	3.344460E-02	2.184349E-04
5.840787E+03	3.327386E-02	2.168739E-04
5.850670E+03	3.307033E-02	2.151168E-04
5.860552E+03	3.282754E-02	2.131232E-04
5.870435E+03	3.255419E-02	2.109516E-04
5.880318E+03	3.227030E-02	2.087331E-04
5.890201E+03	3.199044E-02	2.065627E-04
5.900084E+03	3.174435E-02	2.046322E-04
5.909967E+03	3.155836E-02	2.031105E-04
5.919850E+03	3.141300E-02	2.018714E-04
5.929733E+03	3.128899E-02	2.007905E-04
5.939616E+03	3.117457E-02	1.997925E-04
5.949498E+03	3.104170E-02	1.986984E-04
5.959381E+03	3.088106E-02	1.974497E-04
5.969264E+03	3.071135E-02	1.961670E-04
5.979147E+03	3.054968E-02	1.949603E-04
5.989030E+03	3.043534E-02	1.940806E-04
5.998913E+03	3.039924E-02	1.937247E-04
6.008796E+03	3.041453E-02	1.937216E-04
6.018679E+03	3.044441E-02	1.938374E-04
6.028562E+03	3.046945E-02	1.939493E-04
6.038444E+03	3.046545E-02	1.939043E-04
6.048327E+03	3.042919E-02	1.936829E-04
6.058210E+03	3.038876E-02	1.934648E-04
6.068093E+03	3.038056E-02	1.934822E-04
6.077976E+03	3.045533E-02	1.940587E-04
6.087859E+03	3.064177E-02	1.953784E-04
6.097742E+03	3.089171E-02	1.971357E-04
6.107625E+03	3.108348E-02	1.985550E-04
6.117508E+03	3.095712E-02	1.979732E-04
6.127390E+03	3.038690E-02	1.945776E-04
6.137273E+03	2.969502E-02	1.904218E-04
6.147156E+03	2.911866E-02	1.870233E-04
6.157039E+03	2.870015E-02	1.846563E-04
6.166922E+03	2.839506E-02	1.830383E-04
6.176805E+03	2.815808E-02	1.818797E-04
6.186688E+03	2.795183E-02	1.809404E-04
6.196571E+03	2.776408E-02	1.801416E-04
6.206454E+03	2.759709E-02	1.794980E-04
6.216336E+03	2.744410E-02	1.789659E-04
6.226219E+03	2.730336E-02	1.785340E-04
6.236102E+03	2.717550E-02	1.782065E-04
6.245985E+03	2.704357E-02	1.778720E-04
6.255868E+03	2.689596E-02	1.774532E-04
6.265751E+03	2.673319E-02	1.769520E-04
6.275634E+03	2.654995E-02	1.763315E-04
6.285517E+03	2.635377E-02	1.756397E-04
6.295400E+03	2.615812E-02	1.749649E-04
6.305282E+03	2.596339E-02	1.743083E-04
6.315165E+03	2.577477E-02	1.737037E-04
6.325048E+03	2.559989E-02	1.732018E-04
6.334931E+03	2.543399E-02	1.727701E-04
6.344814E+03	2.527621E-02	1.724022E-04
6.354697E+03	2.513063E-02	1.721256E-04
6.364580E+03	2.499246E-02	1.719071E-04
6.374463E+03	2.486285E-02	1.717544E-04
6.384346E+03	2.475100E-02	1.717310E-04
6.394228E+03	2.466542E-02	1.718968E-04
6.404111E+03	2.462033E-02	1.723527E-04
6.413994E+03	2.463217E-02	1.732175E-04
6.423877E+03	2.469658E-02	1.744649E-04
6.433760E+03	2.479447E-02	1.759638E-04
6.443643E+03	2.486611E-02	1.772910E-04
6.453526E+03	2.478030E-02	1.775035E-04
6.463409E+03	2.451350E-02	1.764153E-04
6.473291E+03	2.420960E-02	1.750475E-04
6.483174E+03	2.394806E-02	1.739729E-04
6.493057E+03	2.376639E-02	1.734687E-04
6.502940E+03	2.368541E-02	1.736949E-04
6.512823E+03	2.370123E-02	1.746327E-04
6.522706E+03	2.380033E-02	1.761915E-04
6.532589E+03	2.395751E-02	1.781919E-04
6.542472E+03	2.412534E-02	1.802852E-04
6.552355E+03	2.424578E-02	1.820359E-04
6.562237E+03	2.427237E-02	1.830883E-04
6.572120E+03	2.417977E-02	1.832399E-04
6.582003E+03	2.396382E-02	1.824459E-04
6.591886E+03	2.364455E-02	1.808459E-04
6.601769E+03	2.326100E-02	1.787286E-04
6.611652E+03	2.286490E-02	1.764861E-04
6.621535E+03	2.249625E-02	1.744269E-04
6.631418E+03	2.217385E-02	1.726999E-04
6.641301E+03	2.190635E-02	1.713773E-04
6.651183E+03	2.169320E-02	1.704603E-04
6.661066E+03	2.151928E-02	1.698349E-04
6.670949E+03	2.136936E-02	1.693842E-04
6.680832E+03	2.123710E-02	1.690599E-04
6.690715E+03	2.111463E-02	1.688006E-04
6.700598E+03	2.100343E-02	1.686190E-04
6.710481E+03	2.090873E-02	1.685582E-04
6.720364E+03	2.082944E-02	1.686108E-04
6.730247E+03	2.076524E-02	1.687755E-04
6.740129E+03	2.071733E-02	1.690635E-04
6.750012E+03	2.067919E-02	1.694226E-04
6.759895E+03	2.064411E-02	1.697985E-04
6.769778E+03	2.060715E-02	1.701505E-04
6.779661E+03	2.056059E-02	1.704142E-04
6.789544E+03	2.049696E-02	1.705264E-04
6.799427E+03	2.041170E-02	1.704475E-04
6.809310E+03	2.029860E-02	1.701230E-04
6.819193E+03	2.015465E-02	1.695252E-04
6.829075E+03	1.998684E-02	1.687104E-04
6.838958E+03	1.980649E-02	1.677722E-04
6.848841E+03	1.963379E-02	1.668814E-04
6.858724E+03	1.948372E-02	1.661662E-04
6.868607E+03	1.935756E-02	1.656398E-04
6.878490E+03	1.925094E-02	1.652666E-04
6.888373E+03	1.915745E-02	1.649932E-04
6.898256E+03	1.906090E-02	1.646808E-04
6.908139E+03	1.894917E-02	1.642242E-04
6.918021E+03	1.881766E-02	1.635821E-04
6.927904E+03	1.866744E-02	1.627626E-04
6.937787E+03	1.850806E-02	1.618477E-04
6.947670E+03	1.835260E-02	1.609517E-04
6.957553E+03	1.820867E-02	1.601419E-04
6.967436E+03	1.808446E-02	1.594915E-04
6.977319E+03	1.798644E-02	1.590594E-04
6.987202E+03	1.791158E-02	1.588208E-04
6.997085E+03	1.785715E-02	1.587531E-04
7.006967E+03	1.782253E-02	1.588522E-04
7.016850E+03	1.780271E-02	1.590747E-04
7.026733E+03	1.779445E-02	1.593929E-04
7.036616E+03	1.779444E-02	1.597777E-04
7.046499E+03	1.778879E-02	1.601047E-04
7.056382E+03	1.776375E-02	1.602496E-04
7.066265E+03	1.770984E-02	1.601255E-04
7.076148E+03	1.761789E-02	1.596477E-04
7.086031E+03	1.748827E-02	1.588174E-04
7.095913E+03	1.732935E-02	1.577088E-04
7.105796E+03	1.715832E-02	1.564773E-04
7.115679E+03	1.699762E-02	1.553275E-04
7.125562E+03	1.686461E-02	1.544192E-04
7.135445E+03	1.675818E-02	1.537440E-04
7.145328E+03	1.667111E-02	1.532371E-04
7.155211E+03	1.659673E-02	1.528384E-04
7.165094E+03	1.652483E-02	1.524546E-04
7.174977E+03	1.644861E-02	1.520230E-04
7.184859E+03	1.636621E-02	1.515265E-04
7.194742E+03	1.627570E-02	1.509471E-04
7.204625E+03	1.618113E-02	1.503223E-04
7.214508E+03	1.609091E-02	1.497303E-04
7.224391E+03	1.601414E-02	1.492566E-04
7.234274E+03	1.596150E-02	1.490014E-04
7.244157E+03	1.593800E-02	1.490130E-04
7.254040E+03	1.593328E-02	1.491958E-04
7.263923E+03	1.593205E-02	1.494075E-04
7.273805E+03	1.592279E-02	1.495402E-04
7.283688E+03	1.589739E-02	1.495175E-04
7.293571E+03	1.585274E-02	1.493096E-04
7.303454E+03	1.579177E-02	1.489436E-04
7.313337E+03	1.571761E-02	1.484487E-04
7.323220E+03	1.563568E-02	1.478759E-04
7.333103E+03	1.554990E-02	1.472623E-04
7.342986E+03	1.546029E-02	1.466082E-04
7.352869E+03	1.536519E-02	1.458980E-04
7.362751E+03	1.526734E-02	1.451578E-04
7.372634E+03	1.517144E-02	1.444324E-04
7.382517E+03	1.508538E-02	1.437975E-04
7.392400E+03	1.501725E-02	1.433309E-04
7.402283E+03	1.496654E-02	1.430285E-04
7.412166E+03	1.493228E-02	1.428821E-04
7.422049E+03	1.491237E-02	1.428724E-04
7.431932E+03	1.490209E-02	1.429549E-04
7.441814E+03	1.489736E-02	1.430910E-04
7.451697E+03	1.489502E-02	1.432508E-04
7.461580E+03	1.489252E-02	1.434102E-04
7.471463E+03	1.488764E-02	1.435480E-04
7.481346E+03	1.487830E-02	1.436444E-04
7.491229E+03	1.486068E-02	1.436624E-04
7.501112E+03	1.483054E-02	1.435612E-04
7.510995E+03	1.478710E-02	1.433329E-04
7.520878E+03	1.473124E-02	1.429859E-04
7.530760E+03	1.466624E-02	1.425517E-04
7.540643E+03	1.459398E-02	1.420487E-04
7.550526E+03	1.451645E-02	1.414961E-04
7.560409E+03	1.443298E-02	1.408876E-04
7.570292E+03	1.434225E-02	1.402101E-04
7.580175E+03	1.424105E-02	1.394322E-04
7.590058E+03	1.412775E-02	1.385376E-04
7.599941E+03	1.400353E-02	1.375376E-04
7.609824E+03	1.387504E-02	1.364973E-04
7.619706E+03	1.375292E-02	1.355215E-04
7.629589E+03	1.364534E-02	1.346913E-04
7.639472E+03	1.355372E-02	1.340216E-04
7.649355E+03	1.347856E-02	1.335186E-04
7.659238E+03	1.341934E-02	1.331779E-04
7.669121E+03	1.337336E-02	1.329739E-04
