#wls	flux	fluxerr
1.581262E+03	2.178967E-01	0.000000E+00
1.620794E+03	2.365541E-01	0.000000E+00
1.660325E+03	2.557285E-01	0.000000E+00
1.699857E+03	2.751235E-01	0.000000E+00
1.739388E+03	2.943794E-01	0.000000E+00
1.778920E+03	3.130886E-01	0.000000E+00
1.818451E+03	3.308144E-01	0.000000E+00
1.857983E+03	3.471198E-01	0.000000E+00
1.897514E+03	3.615722E-01	0.000000E+00
1.937046E+03	3.736561E-01	0.000000E+00
1.976578E+03	3.824011E-01	0.000000E+00
2.016109E+03	3.853878E-01	0.000000E+00
2.055641E+03	3.780181E-01	0.000000E+00
2.095172E+03	3.584681E-01	0.000000E+00
2.134704E+03	3.319357E-01	0.000000E+00
2.174235E+03	3.044600E-01	0.000000E+00
2.213767E+03	2.788208E-01	0.000000E+00
2.253298E+03	2.573961E-01	0.000000E+00
2.292830E+03	2.394836E-01	0.000000E+00
2.332362E+03	2.238352E-01	0.000000E+00
2.371893E+03	2.103359E-01	0.000000E+00
2.411425E+03	1.987724E-01	0.000000E+00
2.450956E+03	1.888755E-01	0.000000E+00
2.490488E+03	1.803168E-01	0.000000E+00
2.530019E+03	1.726005E-01	0.000000E+00
2.569551E+03	1.652081E-01	0.000000E+00
2.609082E+03	1.586286E-01	0.000000E+00
2.648614E+03	1.525063E-01	0.000000E+00
2.688145E+03	1.465239E-01	0.000000E+00
2.727677E+03	1.410231E-01	0.000000E+00
2.767209E+03	1.361511E-01	0.000000E+00
2.806740E+03	1.319072E-01	0.000000E+00
2.846272E+03	1.282545E-01	0.000000E+00
2.885803E+03	1.251687E-01	0.000000E+00
2.925335E+03	1.226500E-01	0.000000E+00
2.964866E+03	1.207200E-01	0.000000E+00
2.974749E+03	1.203333E-01	0.000000E+00
2.984632E+03	1.199857E-01	0.000000E+00
2.994515E+03	1.196783E-01	0.000000E+00
3.004398E+03	1.194110E-01	0.000000E+00
3.014281E+03	1.191844E-01	0.000000E+00
3.024164E+03	1.189989E-01	0.000000E+00
3.034047E+03	1.188542E-01	0.000000E+00
3.043929E+03	1.187500E-01	0.000000E+00
3.053812E+03	1.186860E-01	0.000000E+00
3.063695E+03	1.186609E-01	0.000000E+00
3.073578E+03	1.186723E-01	0.000000E+00
3.083461E+03	1.187181E-01	0.000000E+00
3.093344E+03	1.187945E-01	0.000000E+00
3.103227E+03	1.188977E-01	0.000000E+00
3.113110E+03	1.190205E-01	0.000000E+00
3.122993E+03	1.191498E-01	0.000000E+00
3.132875E+03	1.192665E-01	0.000000E+00
3.142758E+03	1.193470E-01	0.000000E+00
3.152641E+03	1.193628E-01	0.000000E+00
3.162524E+03	1.192802E-01	0.000000E+00
3.172407E+03	1.190690E-01	0.000000E+00
3.182290E+03	1.187074E-01	0.000000E+00
3.192173E+03	1.181801E-01	0.000000E+00
3.202056E+03	1.174856E-01	0.000000E+00
3.211939E+03	1.166382E-01	0.000000E+00
3.221821E+03	1.156603E-01	0.000000E+00
3.231704E+03	1.145871E-01	0.000000E+00
3.241587E+03	1.134560E-01	0.000000E+00
3.251470E+03	1.122926E-01	0.000000E+00
3.261353E+03	1.111217E-01	0.000000E+00
3.271236E+03	1.099694E-01	0.000000E+00
3.281119E+03	1.088529E-01	0.000000E+00
3.291002E+03	1.077915E-01	0.000000E+00
3.300885E+03	1.068038E-01	0.000000E+00
3.310767E+03	1.058962E-01	0.000000E+00
3.320650E+03	1.050754E-01	0.000000E+00
3.330533E+03	1.043446E-01	0.000000E+00
3.340416E+03	1.036911E-01	0.000000E+00
3.350299E+03	1.031003E-01	0.000000E+00
3.360182E+03	1.025545E-01	0.000000E+00
3.370065E+03	1.020197E-01	0.000000E+00
3.379948E+03	1.014600E-01	0.000000E+00
3.389831E+03	1.008378E-01	0.000000E+00
3.399713E+03	1.001058E-01	0.000000E+00
3.409596E+03	9.922110E-02	0.000000E+00
3.419479E+03	9.815590E-02	0.000000E+00
3.429362E+03	9.689738E-02	0.000000E+00
3.439245E+03	9.546214E-02	0.000000E+00
3.449128E+03	9.389864E-02	0.000000E+00
3.459011E+03	9.227332E-02	0.000000E+00
3.468894E+03	9.066000E-02	0.000000E+00
3.478776E+03	8.912497E-02	0.000000E+00
3.488659E+03	8.771689E-02	0.000000E+00
3.498542E+03	8.646267E-02	0.000000E+00
3.508425E+03	8.537220E-02	0.000000E+00
3.518308E+03	8.444764E-02	0.000000E+00
3.528191E+03	8.368115E-02	0.000000E+00
3.538074E+03	8.305717E-02	0.000000E+00
3.547957E+03	8.255590E-02	0.000000E+00
3.557840E+03	8.215415E-02	0.000000E+00
3.567722E+03	8.182874E-02	0.000000E+00
3.577605E+03	8.156038E-02	0.000000E+00
3.587488E+03	8.133240E-02	0.000000E+00
3.597371E+03	8.113277E-02	0.000000E+00
3.607254E+03	8.095645E-02	0.000000E+00
3.617137E+03	8.079984E-02	0.000000E+00
3.627020E+03	8.066038E-02	0.000000E+00
3.636903E+03	8.054462E-02	0.000000E+00
3.646786E+03	8.045524E-02	0.000000E+00
3.656668E+03	8.039178E-02	0.000000E+00
3.666551E+03	8.036036E-02	0.000000E+00
3.676434E+03	8.036384E-02	0.000000E+00
3.686317E+03	8.040223E-02	0.000000E+00
3.696200E+03	8.047975E-02	0.000000E+00
3.706083E+03	8.060037E-02	0.000000E+00
3.715966E+03	8.076419E-02	0.000000E+00
3.725849E+03	8.097295E-02	0.000000E+00
3.735732E+03	8.122421E-02	0.000000E+00
3.745614E+03	8.151002E-02	0.000000E+00
3.755497E+03	8.181705E-02	0.000000E+00
3.765380E+03	8.212239E-02	0.000000E+00
3.775263E+03	8.239049E-02	0.000000E+00
3.785146E+03	8.257387E-02	0.000000E+00
3.795029E+03	8.261242E-02	0.000000E+00
3.804912E+03	8.245088E-02	0.000000E+00
3.814795E+03	8.206110E-02	0.000000E+00
3.824678E+03	8.142648E-02	0.000000E+00
3.834560E+03	8.055116E-02	0.000000E+00
3.844443E+03	7.948247E-02	0.000000E+00
3.854326E+03	7.828323E-02	0.000000E+00
3.864209E+03	7.700938E-02	0.000000E+00
3.874092E+03	7.571288E-02	0.000000E+00
3.883975E+03	7.443979E-02	0.000000E+00
3.893858E+03	7.322806E-02	0.000000E+00
3.903741E+03	7.210988E-02	0.000000E+00
3.913624E+03	7.111375E-02	0.000000E+00
3.923506E+03	7.025527E-02	0.000000E+00
3.933389E+03	6.952506E-02	0.000000E+00
3.943272E+03	6.890472E-02	0.000000E+00
3.953155E+03	6.837117E-02	0.000000E+00
3.963038E+03	6.789228E-02	0.000000E+00
3.972921E+03	6.743595E-02	0.000000E+00
3.982804E+03	6.698112E-02	0.000000E+00
3.992687E+03	6.651960E-02	0.000000E+00
4.002570E+03	6.605476E-02	0.000000E+00
4.012452E+03	6.559631E-02	0.000000E+00
4.022335E+03	6.515530E-02	0.000000E+00
4.032218E+03	6.474535E-02	0.000000E+00
4.042101E+03	6.437933E-02	0.000000E+00
4.051984E+03	6.406208E-02	0.000000E+00
4.061867E+03	6.379370E-02	0.000000E+00
4.071750E+03	6.355990E-02	0.000000E+00
4.081633E+03	6.332229E-02	0.000000E+00
4.091516E+03	6.303695E-02	0.000000E+00
4.101398E+03	6.267146E-02	0.000000E+00
4.111281E+03	6.220698E-02	0.000000E+00
4.121164E+03	6.164207E-02	0.000000E+00
4.131047E+03	6.099324E-02	0.000000E+00
4.140930E+03	6.028601E-02	0.000000E+00
4.150813E+03	5.955407E-02	0.000000E+00
4.160696E+03	5.882703E-02	0.000000E+00
4.170579E+03	5.811508E-02	0.000000E+00
4.180462E+03	5.742490E-02	0.000000E+00
4.190344E+03	5.676068E-02	0.000000E+00
4.200227E+03	5.611444E-02	0.000000E+00
4.210110E+03	5.548368E-02	0.000000E+00
4.219993E+03	5.487396E-02	0.000000E+00
4.229876E+03	5.428548E-02	0.000000E+00
4.239759E+03	5.373057E-02	0.000000E+00
4.249642E+03	5.322977E-02	0.000000E+00
4.259525E+03	5.278795E-02	0.000000E+00
4.269408E+03	5.241667E-02	0.000000E+00
4.279290E+03	5.213327E-02	0.000000E+00
4.289173E+03	5.193568E-02	0.000000E+00
4.299056E+03	5.181640E-02	0.000000E+00
4.308939E+03	5.175350E-02	0.000000E+00
4.318822E+03	5.168221E-02	0.000000E+00
4.328705E+03	5.153228E-02	0.000000E+00
4.338588E+03	5.126048E-02	0.000000E+00
4.348471E+03	5.085948E-02	0.000000E+00
4.358354E+03	5.035874E-02	0.000000E+00
4.368236E+03	4.980584E-02	0.000000E+00
4.378119E+03	4.924064E-02	0.000000E+00
4.388002E+03	4.870052E-02	0.000000E+00
4.397885E+03	4.821241E-02	0.000000E+00
4.407768E+03	4.777513E-02	0.000000E+00
4.417651E+03	4.738380E-02	0.000000E+00
4.427534E+03	4.703670E-02	0.000000E+00
4.437417E+03	4.672550E-02	0.000000E+00
4.447300E+03	4.644868E-02	0.000000E+00
4.457182E+03	4.620800E-02	0.000000E+00
4.467065E+03	4.599328E-02	0.000000E+00
4.476948E+03	4.579640E-02	0.000000E+00
4.486831E+03	4.561376E-02	0.000000E+00
4.496714E+03	4.543735E-02	0.000000E+00
4.506597E+03	4.526498E-02	0.000000E+00
4.516480E+03	4.510144E-02	0.000000E+00
4.526363E+03	4.494593E-02	0.000000E+00
4.536245E+03	4.480398E-02	0.000000E+00
4.546128E+03	4.468941E-02	0.000000E+00
4.556011E+03	4.460953E-02	0.000000E+00
4.565894E+03	4.457434E-02	0.000000E+00
4.575777E+03	4.459133E-02	0.000000E+00
4.585660E+03	4.464731E-02	0.000000E+00
4.595543E+03	4.472601E-02	0.000000E+00
4.605426E+03	4.481656E-02	0.000000E+00
4.615309E+03	4.490646E-02	0.000000E+00
4.625191E+03	4.498496E-02	0.000000E+00
4.635074E+03	4.503644E-02	0.000000E+00
4.644957E+03	4.502667E-02	0.000000E+00
4.654840E+03	4.491058E-02	0.000000E+00
4.664723E+03	4.464095E-02	0.000000E+00
4.674606E+03	4.417239E-02	0.000000E+00
4.684489E+03	4.347423E-02	0.000000E+00
4.694372E+03	4.255400E-02	0.000000E+00
4.704255E+03	4.146640E-02	0.000000E+00
4.714137E+03	4.029431E-02	0.000000E+00
4.724020E+03	3.911890E-02	0.000000E+00
4.733903E+03	3.800045E-02	0.000000E+00
4.743786E+03	3.698297E-02	0.000000E+00
4.753669E+03	3.609221E-02	0.000000E+00
4.763552E+03	3.532974E-02	0.000000E+00
4.773435E+03	3.468737E-02	0.000000E+00
4.783318E+03	3.415435E-02	0.000000E+00
4.793201E+03	3.371368E-02	0.000000E+00
4.803083E+03	3.334928E-02	0.000000E+00
4.812966E+03	3.304393E-02	0.000000E+00
4.822849E+03	3.277254E-02	0.000000E+00
4.832732E+03	3.250655E-02	0.000000E+00
4.842615E+03	3.221864E-02	0.000000E+00
4.852498E+03	3.188049E-02	0.000000E+00
4.862381E+03	3.147170E-02	0.000000E+00
4.872264E+03	3.098701E-02	0.000000E+00
4.882147E+03	3.043911E-02	0.000000E+00
4.892029E+03	2.985389E-02	0.000000E+00
4.901912E+03	2.925938E-02	0.000000E+00
4.911795E+03	2.867528E-02	0.000000E+00
4.921678E+03	2.811783E-02	0.000000E+00
4.931561E+03	2.759688E-02	0.000000E+00
4.941444E+03	2.711377E-02	0.000000E+00
4.951327E+03	2.666689E-02	0.000000E+00
4.961210E+03	2.625304E-02	0.000000E+00
4.971093E+03	2.586570E-02	0.000000E+00
4.980975E+03	2.550128E-02	0.000000E+00
4.990858E+03	2.515729E-02	0.000000E+00
5.000741E+03	2.482817E-02	0.000000E+00
5.010624E+03	2.451052E-02	0.000000E+00
5.020507E+03	2.420380E-02	0.000000E+00
5.030390E+03	2.390708E-02	0.000000E+00
5.040273E+03	2.362116E-02	0.000000E+00
5.050156E+03	2.334850E-02	0.000000E+00
5.060039E+03	2.308707E-02	0.000000E+00
5.069921E+03	2.283673E-02	0.000000E+00
5.079804E+03	2.259684E-02	0.000000E+00
5.089687E+03	2.236526E-02	0.000000E+00
5.099570E+03	2.214027E-02	0.000000E+00
5.109453E+03	2.192158E-02	0.000000E+00
5.119336E+03	2.170625E-02	0.000000E+00
5.129219E+03	2.149268E-02	0.000000E+00
5.139102E+03	2.128022E-02	0.000000E+00
5.148985E+03	2.106606E-02	0.000000E+00
5.158867E+03	2.084906E-02	0.000000E+00
5.168750E+03	2.063097E-02	0.000000E+00
5.178633E+03	2.041242E-02	0.000000E+00
5.188516E+03	2.019620E-02	0.000000E+00
5.198399E+03	1.998616E-02	0.000000E+00
5.208282E+03	1.978204E-02	0.000000E+00
5.218165E+03	1.958479E-02	0.000000E+00
5.228048E+03	1.939665E-02	0.000000E+00
5.237931E+03	1.921588E-02	0.000000E+00
5.247813E+03	1.904295E-02	0.000000E+00
5.257696E+03	1.888044E-02	0.000000E+00
5.267579E+03	1.872625E-02	0.000000E+00
5.277462E+03	1.858067E-02	0.000000E+00
5.287345E+03	1.844463E-02	0.000000E+00
5.297228E+03	1.831309E-02	0.000000E+00
5.307111E+03	1.818379E-02	0.000000E+00
5.316994E+03	1.805726E-02	0.000000E+00
5.326877E+03	1.793118E-02	0.000000E+00
5.336759E+03	1.780582E-02	0.000000E+00
5.346642E+03	1.768139E-02	0.000000E+00
5.356525E+03	1.754855E-02	0.000000E+00
5.366408E+03	1.739858E-02	0.000000E+00
5.376291E+03	1.722543E-02	0.000000E+00
5.386174E+03	1.702140E-02	0.000000E+00
5.396057E+03	1.678727E-02	0.000000E+00
5.405940E+03	1.653956E-02	0.000000E+00
5.415823E+03	1.630926E-02	0.000000E+00
5.425705E+03	1.613243E-02	0.000000E+00
5.435588E+03	1.602810E-02	0.000000E+00
5.445471E+03	1.598557E-02	0.000000E+00
5.455354E+03	1.598436E-02	0.000000E+00
5.465237E+03	1.600829E-02	0.000000E+00
5.475120E+03	1.604680E-02	0.000000E+00
5.485003E+03	1.609847E-02	0.000000E+00
5.494886E+03	1.616636E-02	0.000000E+00
5.504768E+03	1.624592E-02	0.000000E+00
5.514651E+03	1.633272E-02	0.000000E+00
5.524534E+03	1.642389E-02	0.000000E+00
5.534417E+03	1.651224E-02	0.000000E+00
5.544300E+03	1.659019E-02	0.000000E+00
5.554183E+03	1.665033E-02	0.000000E+00
5.564066E+03	1.668361E-02	0.000000E+00
5.573949E+03	1.668215E-02	0.000000E+00
5.583832E+03	1.664039E-02	0.000000E+00
5.593714E+03	1.655486E-02	0.000000E+00
5.603597E+03	1.642604E-02	0.000000E+00
5.613480E+03	1.625961E-02	0.000000E+00
5.623363E+03	1.606357E-02	0.000000E+00
5.633246E+03	1.584892E-02	0.000000E+00
5.643129E+03	1.562825E-02	0.000000E+00
5.653012E+03	1.540934E-02	0.000000E+00
5.662895E+03	1.520012E-02	0.000000E+00
5.672778E+03	1.500765E-02	0.000000E+00
5.682660E+03	1.483312E-02	0.000000E+00
5.692543E+03	1.467857E-02	0.000000E+00
5.702426E+03	1.454674E-02	0.000000E+00
5.712309E+03	1.443469E-02	0.000000E+00
5.722192E+03	1.434083E-02	0.000000E+00
5.732075E+03	1.426537E-02	0.000000E+00
5.741958E+03	1.420247E-02	0.000000E+00
5.751841E+03	1.414656E-02	0.000000E+00
5.761724E+03	1.409396E-02	0.000000E+00
5.771606E+03	1.403687E-02	0.000000E+00
5.781489E+03	1.397115E-02	0.000000E+00
5.791372E+03	1.389658E-02	0.000000E+00
5.801255E+03	1.381543E-02	0.000000E+00
5.811138E+03	1.373289E-02	0.000000E+00
5.821021E+03	1.365558E-02	0.000000E+00
5.830904E+03	1.358604E-02	0.000000E+00
5.840787E+03	1.352489E-02	0.000000E+00
5.850670E+03	1.347114E-02	0.000000E+00
5.860552E+03	1.342056E-02	0.000000E+00
5.870435E+03	1.336922E-02	0.000000E+00
5.880318E+03	1.331552E-02	0.000000E+00
5.890201E+03	1.325667E-02	0.000000E+00
5.900084E+03	1.319274E-02	0.000000E+00
5.909967E+03	1.312426E-02	0.000000E+00
5.919850E+03	1.304942E-02	0.000000E+00
5.929733E+03	1.296674E-02	0.000000E+00
5.939616E+03	1.287690E-02	0.000000E+00
5.949498E+03	1.277837E-02	0.000000E+00
5.959381E+03	1.267340E-02	0.000000E+00
5.969264E+03	1.256607E-02	0.000000E+00
5.979147E+03	1.245767E-02	0.000000E+00
5.989030E+03	1.235108E-02	0.000000E+00
5.998913E+03	1.225097E-02	0.000000E+00
6.008796E+03	1.215633E-02	0.000000E+00
6.018679E+03	1.206724E-02	0.000000E+00
6.028562E+03	1.198491E-02	0.000000E+00
6.038444E+03	1.190630E-02	0.000000E+00
6.048327E+03	1.182985E-02	0.000000E+00
6.058210E+03	1.175608E-02	0.000000E+00
6.068093E+03	1.168246E-02	0.000000E+00
6.077976E+03	1.160835E-02	0.000000E+00
6.087859E+03	1.153517E-02	0.000000E+00
6.097742E+03	1.146223E-02	0.000000E+00
6.107625E+03	1.139040E-02	0.000000E+00
6.117508E+03	1.132125E-02	0.000000E+00
6.127390E+03	1.125402E-02	0.000000E+00
6.137273E+03	1.118846E-02	0.000000E+00
6.147156E+03	1.112504E-02	0.000000E+00
6.157039E+03	1.106186E-02	0.000000E+00
6.166922E+03	1.099851E-02	0.000000E+00
6.176805E+03	1.093683E-02	0.000000E+00
6.186688E+03	1.087686E-02	0.000000E+00
6.196571E+03	1.082126E-02	0.000000E+00
6.206454E+03	1.077492E-02	0.000000E+00
6.216336E+03	1.073787E-02	0.000000E+00
6.226219E+03	1.070989E-02	0.000000E+00
6.236102E+03	1.069120E-02	0.000000E+00
6.245985E+03	1.067779E-02	0.000000E+00
6.255868E+03	1.066641E-02	0.000000E+00
6.265751E+03	1.065564E-02	0.000000E+00
6.275634E+03	1.064246E-02	0.000000E+00
6.285517E+03	1.062573E-02	0.000000E+00
6.295400E+03	1.060555E-02	0.000000E+00
6.305282E+03	1.057961E-02	0.000000E+00
6.315165E+03	1.054611E-02	0.000000E+00
6.325048E+03	1.050568E-02	0.000000E+00
6.334931E+03	1.045746E-02	0.000000E+00
6.344814E+03	1.040290E-02	0.000000E+00
6.354697E+03	1.034454E-02	0.000000E+00
6.364580E+03	1.028287E-02	0.000000E+00
6.374463E+03	1.022003E-02	0.000000E+00
6.384346E+03	1.015892E-02	0.000000E+00
6.394228E+03	1.010158E-02	0.000000E+00
6.404111E+03	1.005095E-02	0.000000E+00
6.413994E+03	1.001115E-02	0.000000E+00
6.423877E+03	9.984449E-03	0.000000E+00
6.433760E+03	9.973188E-03	0.000000E+00
6.443643E+03	9.979095E-03	0.000000E+00
6.453526E+03	1.000136E-02	0.000000E+00
6.463409E+03	1.003916E-02	0.000000E+00
6.473291E+03	1.009223E-02	0.000000E+00
6.483174E+03	1.015949E-02	0.000000E+00
6.493057E+03	1.023922E-02	0.000000E+00
6.502940E+03	1.032944E-02	0.000000E+00
6.512823E+03	1.042498E-02	0.000000E+00
6.522706E+03	1.051754E-02	0.000000E+00
6.532589E+03	1.059727E-02	0.000000E+00
6.542472E+03	1.065278E-02	0.000000E+00
6.552355E+03	1.067208E-02	0.000000E+00
6.562237E+03	1.064721E-02	0.000000E+00
6.572120E+03	1.057583E-02	0.000000E+00
6.582003E+03	1.046134E-02	0.000000E+00
6.591886E+03	1.031236E-02	0.000000E+00
6.601769E+03	1.014154E-02	0.000000E+00
6.611652E+03	9.962329E-03	0.000000E+00
6.621535E+03	9.786525E-03	0.000000E+00
6.631418E+03	9.621478E-03	0.000000E+00
6.641301E+03	9.471051E-03	0.000000E+00
6.651183E+03	9.336570E-03	0.000000E+00
6.661066E+03	9.215801E-03	0.000000E+00
6.670949E+03	9.106158E-03	0.000000E+00
6.680832E+03	9.005069E-03	0.000000E+00
6.690715E+03	8.910281E-03	0.000000E+00
6.700598E+03	8.820229E-03	0.000000E+00
6.710481E+03	8.734775E-03	0.000000E+00
6.720364E+03	8.653496E-03	0.000000E+00
6.730247E+03	8.576818E-03	0.000000E+00
6.740129E+03	8.505094E-03	0.000000E+00
6.750012E+03	8.438408E-03	0.000000E+00
6.759895E+03	8.377072E-03	0.000000E+00
6.769778E+03	8.320952E-03	0.000000E+00
6.779661E+03	8.269359E-03	0.000000E+00
6.789544E+03	8.221658E-03	0.000000E+00
6.799427E+03	8.177424E-03	0.000000E+00
6.809310E+03	8.135288E-03	0.000000E+00
6.819193E+03	8.094415E-03	0.000000E+00
6.829075E+03	8.055216E-03	0.000000E+00
6.838958E+03	8.017384E-03	0.000000E+00
6.848841E+03	7.981229E-03	0.000000E+00
6.858724E+03	7.946948E-03	0.000000E+00
6.868607E+03	7.914136E-03	0.000000E+00
6.878490E+03	7.881262E-03	0.000000E+00
6.888373E+03	7.847181E-03	0.000000E+00
6.898256E+03	7.810137E-03	0.000000E+00
6.908139E+03	7.768921E-03	0.000000E+00
6.918021E+03	7.723817E-03	0.000000E+00
6.927904E+03	7.675537E-03	0.000000E+00
6.937787E+03	7.625664E-03	0.000000E+00
6.947670E+03	7.576693E-03	0.000000E+00
6.957553E+03	7.530177E-03	0.000000E+00
6.967436E+03	7.487699E-03	0.000000E+00
6.977319E+03	7.450072E-03	0.000000E+00
6.987202E+03	7.417342E-03	0.000000E+00
6.997085E+03	7.389236E-03	0.000000E+00
7.006967E+03	7.365503E-03	0.000000E+00
7.016850E+03	7.345042E-03	0.000000E+00
7.026733E+03	7.326852E-03	0.000000E+00
7.036616E+03	7.309766E-03	0.000000E+00
7.046499E+03	7.292160E-03	0.000000E+00
7.056382E+03	7.271992E-03	0.000000E+00
7.066265E+03	7.248126E-03	0.000000E+00
7.076148E+03	7.219415E-03	0.000000E+00
7.086031E+03	7.185935E-03	0.000000E+00
7.095913E+03	7.148370E-03	0.000000E+00
7.105796E+03	7.108310E-03	0.000000E+00
7.115679E+03	7.067363E-03	0.000000E+00
7.125562E+03	7.027515E-03	0.000000E+00
7.135445E+03	6.989034E-03	0.000000E+00
7.145328E+03	6.952065E-03	0.000000E+00
7.155211E+03	6.916211E-03	0.000000E+00
7.165094E+03	6.880681E-03	0.000000E+00
7.174977E+03	6.844748E-03	0.000000E+00
7.184859E+03	6.808508E-03	0.000000E+00
7.194742E+03	6.772153E-03	0.000000E+00
7.204625E+03	6.736233E-03	0.000000E+00
7.214508E+03	6.701992E-03	0.000000E+00
7.224391E+03	6.670271E-03	0.000000E+00
7.234274E+03	6.641666E-03	0.000000E+00
7.244157E+03	6.616024E-03	0.000000E+00
7.254040E+03	6.592584E-03	0.000000E+00
7.263923E+03	6.570065E-03	0.000000E+00
7.273805E+03	6.547352E-03	0.000000E+00
7.283688E+03	6.522742E-03	0.000000E+00
7.293571E+03	6.495663E-03	0.000000E+00
7.303454E+03	6.466200E-03	0.000000E+00
7.313337E+03	6.433988E-03	0.000000E+00
7.323220E+03	6.399839E-03	0.000000E+00
7.333103E+03	6.363873E-03	0.000000E+00
7.342986E+03	6.326259E-03	0.000000E+00
7.352869E+03	6.287662E-03	0.000000E+00
7.362751E+03	6.248480E-03	0.000000E+00
7.372634E+03	6.209163E-03	0.000000E+00
7.382517E+03	6.170517E-03	0.000000E+00
7.392400E+03	6.133065E-03	0.000000E+00
7.402283E+03	6.097219E-03	0.000000E+00
7.412166E+03	6.062837E-03	0.000000E+00
7.422049E+03	6.029576E-03	0.000000E+00
7.431932E+03	5.996975E-03	0.000000E+00
7.441814E+03	5.964251E-03	0.000000E+00
7.451697E+03	5.931269E-03	0.000000E+00
7.461580E+03	5.897782E-03	0.000000E+00
7.471463E+03	5.863886E-03	0.000000E+00
7.481346E+03	5.830383E-03	0.000000E+00
7.491229E+03	5.797352E-03	0.000000E+00
7.501112E+03	5.765532E-03	0.000000E+00
7.510995E+03	5.735402E-03	0.000000E+00
7.520878E+03	5.707511E-03	0.000000E+00
7.530760E+03	5.682069E-03	0.000000E+00
7.540643E+03	5.659411E-03	0.000000E+00
7.550526E+03	5.638862E-03	0.000000E+00
7.560409E+03	5.619616E-03	0.000000E+00
7.570292E+03	5.600778E-03	0.000000E+00
7.580175E+03	5.581233E-03	0.000000E+00
7.590058E+03	5.560165E-03	0.000000E+00
7.599941E+03	5.537558E-03	0.000000E+00
7.609824E+03	5.513440E-03	0.000000E+00
7.619706E+03	5.488701E-03	0.000000E+00
7.629589E+03	5.463901E-03	0.000000E+00
7.639472E+03	5.438849E-03	0.000000E+00
7.649355E+03	5.412897E-03	0.000000E+00
7.659238E+03	5.385713E-03	0.000000E+00
7.669121E+03	5.356727E-03	0.000000E+00
