#wls	flux	fluxerr
1.581262E+03	5.847211E-04	9.656309E-05
1.620794E+03	5.923486E-04	9.763844E-05
1.660325E+03	6.002465E-04	9.874839E-05
1.699857E+03	6.083551E-04	9.988258E-05
1.739388E+03	6.166087E-04	1.010297E-04
1.778920E+03	6.252036E-04	1.022213E-04
1.818451E+03	6.335247E-04	1.033563E-04
1.857983E+03	6.422990E-04	1.045529E-04
1.897514E+03	6.509006E-04	1.057087E-04
1.937046E+03	6.595089E-04	1.068525E-04
1.976578E+03	6.677586E-04	1.079248E-04
2.016109E+03	6.763631E-04	1.090406E-04
2.055641E+03	6.844060E-04	1.100518E-04
2.095172E+03	6.923170E-04	1.110274E-04
2.134704E+03	6.999755E-04	1.119479E-04
2.174235E+03	7.072523E-04	1.127926E-04
2.213767E+03	7.140082E-04	1.135396E-04
2.253298E+03	7.200949E-04	1.141654E-04
2.292830E+03	7.256065E-04	1.146856E-04
2.332362E+03	7.301177E-04	1.150335E-04
2.371893E+03	7.337016E-04	1.152219E-04
2.411425E+03	7.359348E-04	1.151854E-04
2.450956E+03	7.368834E-04	1.149363E-04
2.490488E+03	7.363752E-04	1.144496E-04
2.530019E+03	7.344713E-04	1.137370E-04
2.569551E+03	7.305934E-04	1.127114E-04
2.609082E+03	7.252650E-04	1.114568E-04
2.648614E+03	7.181665E-04	1.099269E-04
2.688145E+03	7.094146E-04	1.081428E-04
2.727677E+03	6.991255E-04	1.061253E-04
2.767209E+03	6.870741E-04	1.038438E-04
2.806740E+03	6.735813E-04	1.013503E-04
2.846272E+03	6.587754E-04	9.866743E-05
2.885803E+03	6.424925E-04	9.577400E-05
2.925335E+03	6.248996E-04	9.269852E-05
2.964866E+03	6.064086E-04	8.950534E-05
2.974749E+03	6.016097E-04	8.868370E-05
2.984632E+03	5.966588E-04	8.784082E-05
2.994515E+03	5.917965E-04	8.701217E-05
3.004398E+03	5.867847E-04	8.616277E-05
3.014281E+03	5.818569E-04	8.532695E-05
3.024164E+03	5.767841E-04	8.447112E-05
3.034047E+03	5.716815E-04	8.361226E-05
3.043929E+03	5.665501E-04	8.275053E-05
3.053812E+03	5.613902E-04	8.188600E-05
3.063695E+03	5.561003E-04	8.100393E-05
3.073578E+03	5.508897E-04	8.013486E-05
3.083461E+03	5.456547E-04	7.926368E-05
3.093344E+03	5.403976E-04	7.839076E-05
3.103227E+03	5.351203E-04	7.751642E-05
3.113110E+03	5.298262E-04	7.664115E-05
3.122993E+03	5.245178E-04	7.576536E-05
3.132875E+03	5.192883E-04	7.490250E-05
3.142758E+03	5.139610E-04	7.402711E-05
3.152641E+03	5.087169E-04	7.316529E-05
3.162524E+03	5.034717E-04	7.230489E-05
3.172407E+03	4.983129E-04	7.145848E-05
3.182290E+03	4.931602E-04	7.061454E-05
3.192173E+03	4.880207E-04	6.977406E-05
3.202056E+03	4.829776E-04	6.894895E-05
3.211939E+03	4.780334E-04	6.813953E-05
3.221821E+03	4.731179E-04	6.733573E-05
3.231704E+03	4.683116E-04	6.654901E-05
3.241587E+03	4.635485E-04	6.576995E-05
3.251470E+03	4.589755E-04	6.501934E-05
3.261353E+03	4.544606E-04	6.427839E-05
3.271236E+03	4.500800E-04	6.355785E-05
3.281119E+03	4.459054E-04	6.286775E-05
3.291002E+03	4.418154E-04	6.219087E-05
3.300885E+03	4.379463E-04	6.154631E-05
3.310767E+03	4.342432E-04	6.092627E-05
3.320650E+03	4.307172E-04	6.033216E-05
3.330533E+03	4.273800E-04	5.976553E-05
3.340416E+03	4.243563E-04	5.924366E-05
3.350299E+03	4.214864E-04	5.874407E-05
3.360182E+03	4.189508E-04	5.829179E-05
3.370065E+03	4.166510E-04	5.787291E-05
3.379948E+03	4.147070E-04	5.750391E-05
3.389831E+03	4.130276E-04	5.717190E-05
3.399713E+03	4.116798E-04	5.688598E-05
3.409596E+03	4.107294E-04	5.665495E-05
3.419479E+03	4.101416E-04	5.647377E-05
3.429362E+03	4.099349E-04	5.634469E-05
3.439245E+03	4.101753E-04	5.627650E-05
3.449128E+03	4.108819E-04	5.627147E-05
3.459011E+03	4.120743E-04	5.633195E-05
3.468894E+03	4.137746E-04	5.646055E-05
3.478776E+03	4.159621E-04	5.665408E-05
3.488659E+03	4.187966E-04	5.693388E-05
3.498542E+03	4.221712E-04	5.728495E-05
3.508425E+03	4.262041E-04	5.772284E-05
3.518308E+03	4.309257E-04	5.825116E-05
3.528191E+03	4.363698E-04	5.887390E-05
3.538074E+03	4.425280E-04	5.958936E-05
3.547957E+03	4.495256E-04	6.041377E-05
3.557840E+03	4.574021E-04	6.135175E-05
3.567722E+03	4.661148E-04	6.239684E-05
3.577605E+03	4.758386E-04	6.357172E-05
3.587488E+03	4.865352E-04	6.487041E-05
3.597371E+03	4.982557E-04	6.629889E-05
3.607254E+03	5.111408E-04	6.787496E-05
3.617137E+03	5.252036E-04	6.959936E-05
3.627020E+03	5.405483E-04	7.148482E-05
3.636903E+03	5.571932E-04	7.353266E-05
3.646786E+03	5.752020E-04	7.575010E-05
3.656668E+03	5.947349E-04	7.815698E-05
3.666551E+03	6.157705E-04	8.074914E-05
3.676434E+03	6.384281E-04	8.354082E-05
3.686317E+03	6.628335E-04	8.654698E-05
3.696200E+03	6.890188E-04	8.977021E-05
3.706083E+03	7.170674E-04	9.321971E-05
3.715966E+03	7.471191E-04	9.691189E-05
3.725849E+03	7.792695E-04	1.008572E-04
3.735732E+03	8.136756E-04	1.050741E-04
3.745614E+03	8.503410E-04	1.095608E-04
3.755497E+03	8.894949E-04	1.143446E-04
3.765380E+03	9.312137E-04	1.194329E-04
3.775263E+03	9.756988E-04	1.248492E-04
3.785146E+03	1.023049E-03	1.306032E-04
3.795029E+03	1.073557E-03	1.367296E-04
3.804912E+03	1.127352E-03	1.432415E-04
3.814795E+03	1.184632E-03	1.501611E-04
3.824678E+03	1.245678E-03	1.575202E-04
3.834560E+03	1.310647E-03	1.653351E-04
3.844443E+03	1.379841E-03	1.736396E-04
3.854326E+03	1.453494E-03	1.824591E-04
3.864209E+03	1.531840E-03	1.918183E-04
3.874092E+03	1.615181E-03	2.017503E-04
3.883975E+03	1.703567E-03	2.122561E-04
3.893858E+03	1.797429E-03	2.233840E-04
3.903741E+03	1.896671E-03	2.351168E-04
3.913624E+03	2.001672E-03	2.474955E-04
3.923506E+03	2.112429E-03	2.605138E-04
3.933389E+03	2.228883E-03	2.741583E-04
3.943272E+03	2.351209E-03	2.884444E-04
3.953155E+03	2.479250E-03	3.033467E-04
3.963038E+03	2.612892E-03	3.188449E-04
3.972921E+03	2.752077E-03	3.349259E-04
3.982804E+03	2.896488E-03	3.515451E-04
3.992687E+03	3.045863E-03	3.686648E-04
4.002570E+03	3.200128E-03	3.862705E-04
4.012452E+03	3.358715E-03	4.042881E-04
4.022335E+03	3.521229E-03	4.226651E-04
4.032218E+03	3.687509E-03	4.413773E-04
4.042101E+03	3.856857E-03	4.603369E-04
4.051984E+03	4.028953E-03	4.795017E-04
4.061867E+03	4.203329E-03	4.988125E-04
4.071750E+03	4.379399E-03	5.181967E-04
4.081633E+03	4.556874E-03	5.376176E-04
4.091516E+03	4.735379E-03	5.570288E-04
4.101398E+03	4.914455E-03	5.763743E-04
4.111281E+03	5.094018E-03	5.956429E-04
4.121164E+03	5.273786E-03	6.148001E-04
4.131047E+03	5.453896E-03	6.338608E-04
4.140930E+03	5.634146E-03	6.528003E-04
4.150813E+03	5.814914E-03	6.716612E-04
4.160696E+03	5.996558E-03	6.904831E-04
4.170579E+03	6.179548E-03	7.093182E-04
4.180462E+03	6.364286E-03	7.282100E-04
4.190344E+03	6.551422E-03	7.472296E-04
4.200227E+03	6.741641E-03	7.664516E-04
4.210110E+03	6.935494E-03	7.859338E-04
4.219993E+03	7.133655E-03	8.057473E-04
4.229876E+03	7.336917E-03	8.259758E-04
4.239759E+03	7.545289E-03	8.466132E-04
4.249642E+03	7.759474E-03	8.677314E-04
4.259525E+03	7.979480E-03	8.893237E-04
4.269408E+03	8.205099E-03	9.113592E-04
4.279290E+03	8.436059E-03	9.338001E-04
4.289173E+03	8.671665E-03	9.565625E-04
4.299056E+03	8.911156E-03	9.795561E-04
4.308939E+03	9.153576E-03	1.002671E-03
4.318822E+03	9.397626E-03	1.025759E-03
4.328705E+03	9.641931E-03	1.048670E-03
4.338588E+03	9.885522E-03	1.071295E-03
4.348471E+03	1.012701E-02	1.093484E-03
4.358354E+03	1.036557E-02	1.115151E-03
4.368236E+03	1.060060E-02	1.136233E-03
4.378119E+03	1.083146E-02	1.156663E-03
4.388002E+03	1.105785E-02	1.176414E-03
4.397885E+03	1.127939E-02	1.195451E-03
4.407768E+03	1.149600E-02	1.213768E-03
4.417651E+03	1.170748E-02	1.231351E-03
4.427534E+03	1.191405E-02	1.248226E-03
4.437417E+03	1.211557E-02	1.264385E-03
4.447300E+03	1.231188E-02	1.279815E-03
4.457182E+03	1.250317E-02	1.294542E-03
4.467065E+03	1.268878E-02	1.308504E-03
4.476948E+03	1.286875E-02	1.321709E-03
4.486831E+03	1.304260E-02	1.334115E-03
4.496714E+03	1.320992E-02	1.345688E-03
4.506597E+03	1.336963E-02	1.356324E-03
4.516480E+03	1.352149E-02	1.366009E-03
4.526363E+03	1.366422E-02	1.374622E-03
4.536245E+03	1.379727E-02	1.382120E-03
4.546128E+03	1.391972E-02	1.388423E-03
4.556011E+03	1.403073E-02	1.393458E-03
4.565894E+03	1.412976E-02	1.397190E-03
4.575777E+03	1.421612E-02	1.399562E-03
4.585660E+03	1.429012E-02	1.400622E-03
4.595543E+03	1.435145E-02	1.400356E-03
4.605426E+03	1.440072E-02	1.398838E-03
4.615309E+03	1.443893E-02	1.396182E-03
4.625191E+03	1.446711E-02	1.392500E-03
4.635074E+03	1.448745E-02	1.388015E-03
4.644957E+03	1.450156E-02	1.382891E-03
4.654840E+03	1.451197E-02	1.377377E-03
4.664723E+03	1.452168E-02	1.371760E-03
4.674606E+03	1.453318E-02	1.366275E-03
4.684489E+03	1.454964E-02	1.361218E-03
4.694372E+03	1.457448E-02	1.356898E-03
4.704255E+03	1.461050E-02	1.353564E-03
4.714137E+03	1.466074E-02	1.351480E-03
4.724020E+03	1.472795E-02	1.350879E-03
4.733903E+03	1.481436E-02	1.351940E-03
4.743786E+03	1.492189E-02	1.354811E-03
4.753669E+03	1.505209E-02	1.359600E-03
4.763552E+03	1.520553E-02	1.366327E-03
4.773435E+03	1.538209E-02	1.374948E-03
4.783318E+03	1.558127E-02	1.385383E-03
4.793201E+03	1.580165E-02	1.397475E-03
4.803083E+03	1.604094E-02	1.410991E-03
4.812966E+03	1.629637E-02	1.425659E-03
4.822849E+03	1.656493E-02	1.441194E-03
4.832732E+03	1.684262E-02	1.457228E-03
4.842615E+03	1.712528E-02	1.473388E-03
4.852498E+03	1.740855E-02	1.489293E-03
4.862381E+03	1.768839E-02	1.504597E-03
4.872264E+03	1.796012E-02	1.518908E-03
4.882147E+03	1.822008E-02	1.531927E-03
4.892029E+03	1.846460E-02	1.543365E-03
4.901912E+03	1.869030E-02	1.552961E-03
4.911795E+03	1.889494E-02	1.560558E-03
4.921678E+03	1.907655E-02	1.566023E-03
4.931561E+03	1.923377E-02	1.569280E-03
4.941444E+03	1.936610E-02	1.570325E-03
4.951327E+03	1.947328E-02	1.569172E-03
4.961210E+03	1.955621E-02	1.565932E-03
4.971093E+03	1.961573E-02	1.560707E-03
4.980975E+03	1.965375E-02	1.553685E-03
4.990858E+03	1.967176E-02	1.545015E-03
5.000741E+03	1.967261E-02	1.534950E-03
5.010624E+03	1.965859E-02	1.523695E-03
5.020507E+03	1.963239E-02	1.511480E-03
5.030390E+03	1.959702E-02	1.498554E-03
5.040273E+03	1.955552E-02	1.485164E-03
5.050156E+03	1.951074E-02	1.471532E-03
5.060039E+03	1.946537E-02	1.457868E-03
5.069921E+03	1.942213E-02	1.444374E-03
5.079804E+03	1.938351E-02	1.431231E-03
5.089687E+03	1.935123E-02	1.418560E-03
5.099570E+03	1.932707E-02	1.406479E-03
5.109453E+03	1.931241E-02	1.395074E-03
5.119336E+03	1.930797E-02	1.384384E-03
5.129219E+03	1.931429E-02	1.374430E-03
5.139102E+03	1.933108E-02	1.365176E-03
5.148985E+03	1.935831E-02	1.356600E-03
5.158867E+03	1.939522E-02	1.348635E-03
5.168750E+03	1.944101E-02	1.341209E-03
5.178633E+03	1.949428E-02	1.334213E-03
5.188516E+03	1.955412E-02	1.327571E-03
5.198399E+03	1.961893E-02	1.321166E-03
5.208282E+03	1.968771E-02	1.314923E-03
5.218165E+03	1.975888E-02	1.308730E-03
5.228048E+03	1.983154E-02	1.302525E-03
5.237931E+03	1.990428E-02	1.296213E-03
5.247813E+03	1.997639E-02	1.289748E-03
5.257696E+03	2.004651E-02	1.283045E-03
5.267579E+03	2.011441E-02	1.276093E-03
5.277462E+03	2.017920E-02	1.268839E-03
5.287345E+03	2.024036E-02	1.261257E-03
5.297228E+03	2.029791E-02	1.253355E-03
5.307111E+03	2.035145E-02	1.245115E-03
5.316994E+03	2.040134E-02	1.236565E-03
5.326877E+03	2.044730E-02	1.227695E-03
5.336759E+03	2.049002E-02	1.218555E-03
5.346642E+03	2.052997E-02	1.209177E-03
5.356525E+03	2.056774E-02	1.199602E-03
5.366408E+03	2.060429E-02	1.189890E-03
5.376291E+03	2.064049E-02	1.180092E-03
5.386174E+03	2.067727E-02	1.170264E-03
5.396057E+03	2.071562E-02	1.160461E-03
5.405940E+03	2.075691E-02	1.150755E-03
5.415823E+03	2.080157E-02	1.141168E-03
5.425705E+03	2.085041E-02	1.131738E-03
5.435588E+03	2.090392E-02	1.122485E-03
5.445471E+03	2.096156E-02	1.113374E-03
5.455354E+03	2.102329E-02	1.104395E-03
5.465237E+03	2.108837E-02	1.095505E-03
5.475120E+03	2.115570E-02	1.086641E-03
5.485003E+03	2.122432E-02	1.077752E-03
5.494886E+03	2.129323E-02	1.068786E-03
5.504768E+03	2.136150E-02	1.059696E-03
5.514651E+03	2.142828E-02	1.050445E-03
5.524534E+03	2.149284E-02	1.040999E-03
5.534417E+03	2.155441E-02	1.031326E-03
5.544300E+03	2.161254E-02	1.021414E-03
5.554183E+03	2.166720E-02	1.011266E-03
5.564066E+03	2.171781E-02	1.000864E-03
5.573949E+03	2.176455E-02	9.902254E-04
5.583832E+03	2.180726E-02	9.793513E-04
5.593714E+03	2.184625E-02	9.682638E-04
5.603597E+03	2.188118E-02	9.569578E-04
5.613480E+03	2.191221E-02	9.454484E-04
5.623363E+03	2.193970E-02	9.337606E-04
5.633246E+03	2.196342E-02	9.218941E-04
5.643129E+03	2.198368E-02	9.098701E-04
5.653012E+03	2.200111E-02	8.977234E-04
5.662895E+03	2.201584E-02	8.854682E-04
5.672778E+03	2.202889E-02	8.731519E-04
5.682660E+03	2.204080E-02	8.608031E-04
5.692543E+03	2.205303E-02	8.484828E-04
5.702426E+03	2.206655E-02	8.362321E-04
5.712309E+03	2.208337E-02	8.241278E-04
5.722192E+03	2.210474E-02	8.122152E-04
5.732075E+03	2.213218E-02	8.005463E-04
5.741958E+03	2.216758E-02	7.891835E-04
5.751841E+03	2.221230E-02	7.781666E-04
5.761724E+03	2.226747E-02	7.675258E-04
5.771606E+03	2.233417E-02	7.572871E-04
5.781489E+03	2.241312E-02	7.474626E-04
5.791372E+03	2.250441E-02	7.380431E-04
5.801255E+03	2.260764E-02	7.290048E-04
5.811138E+03	2.272231E-02	7.203228E-04
5.821021E+03	2.284702E-02	7.119452E-04
5.830904E+03	2.297984E-02	7.038093E-04
5.840787E+03	2.311866E-02	6.958514E-04
5.850670E+03	2.326077E-02	6.879968E-04
5.860552E+03	2.340375E-02	6.801853E-04
5.870435E+03	2.354445E-02	6.723423E-04
5.880318E+03	2.368029E-02	6.644167E-04
5.890201E+03	2.380898E-02	6.563716E-04
5.900084E+03	2.392864E-02	6.481871E-04
5.909967E+03	2.403751E-02	6.398500E-04
5.919850E+03	2.413531E-02	6.313910E-04
5.929733E+03	2.422127E-02	6.228289E-04
5.939616E+03	2.429614E-02	6.142225E-04
5.949498E+03	2.436096E-02	6.056369E-04
5.959381E+03	2.441692E-02	5.971404E-04
5.969264E+03	2.446594E-02	5.888166E-04
5.979147E+03	2.450909E-02	5.807263E-04
5.989030E+03	2.454868E-02	5.729585E-04
5.998913E+03	2.458531E-02	5.655596E-04
6.008796E+03	2.461997E-02	5.585843E-04
6.018679E+03	2.465264E-02	5.520642E-04
6.028562E+03	2.468243E-02	5.460106E-04
6.038444E+03	2.470711E-02	5.404067E-04
6.048327E+03	2.472353E-02	5.352170E-04
6.058210E+03	2.472743E-02	5.303829E-04
6.068093E+03	2.471358E-02	5.258259E-04
6.077976E+03	2.467617E-02	5.214540E-04
6.087859E+03	2.460932E-02	5.171727E-04
6.097742E+03	2.450787E-02	5.128969E-04
6.107625E+03	2.436780E-02	5.085590E-04
6.117508E+03	2.418736E-02	5.041296E-04
6.127390E+03	2.396676E-02	4.996007E-04
6.137273E+03	2.370739E-02	4.949691E-04
6.147156E+03	2.341308E-02	4.902719E-04
6.157039E+03	2.308909E-02	4.855699E-04
6.166922E+03	2.274037E-02	4.809122E-04
6.176805E+03	2.237281E-02	4.763651E-04
6.186688E+03	2.199069E-02	4.719605E-04
6.196571E+03	2.159771E-02	4.677183E-04
6.206454E+03	2.119652E-02	4.636370E-04
6.216336E+03	2.078880E-02	4.596967E-04
6.226219E+03	2.037540E-02	4.558605E-04
6.236102E+03	1.995706E-02	4.520914E-04
6.245985E+03	1.953458E-02	4.483556E-04
6.255868E+03	1.910875E-02	4.446224E-04
6.265751E+03	1.868182E-02	4.408984E-04
6.275634E+03	1.825617E-02	4.371985E-04
6.285517E+03	1.783540E-02	4.335731E-04
6.295400E+03	1.742470E-02	4.301201E-04
6.305282E+03	1.702936E-02	4.269504E-04
6.315165E+03	1.665607E-02	4.242227E-04
6.325048E+03	1.631222E-02	4.221270E-04
6.334931E+03	1.600546E-02	4.208767E-04
6.344814E+03	1.574384E-02	4.207120E-04
6.354697E+03	1.553506E-02	4.218810E-04
6.364580E+03	1.538692E-02	4.246512E-04
6.374463E+03	1.530664E-02	4.292920E-04
6.384346E+03	1.530103E-02	4.360773E-04
6.394228E+03	1.537591E-02	4.452672E-04
6.404111E+03	1.553654E-02	4.571200E-04
6.413994E+03	1.578722E-02	4.718768E-04
6.423877E+03	1.613088E-02	4.897479E-04
6.433760E+03	1.656934E-02	5.109164E-04
6.443643E+03	1.710191E-02	5.354921E-04
6.453526E+03	1.772654E-02	5.635411E-04
6.463409E+03	1.843770E-02	5.950147E-04
6.473291E+03	1.922740E-02	6.297720E-04
6.483174E+03	2.008350E-02	6.675203E-04
6.493057E+03	2.099171E-02	7.078701E-04
6.502940E+03	2.193368E-02	7.502647E-04
6.512823E+03	2.288943E-02	7.940551E-04
6.522706E+03	2.383646E-02	8.384643E-04
6.532589E+03	2.475216E-02	8.826673E-04
6.542472E+03	2.561306E-02	9.257631E-04
6.552355E+03	2.639781E-02	9.668833E-04
6.562237E+03	2.708752E-02	1.005210E-03
6.572120E+03	2.766612E-02	1.039993E-03
6.582003E+03	2.812221E-02	1.070632E-03
6.591886E+03	2.844856E-02	1.096665E-03
6.601769E+03	2.864219E-02	1.117785E-03
6.611652E+03	2.870482E-02	1.133863E-03
6.621535E+03	2.864272E-02	1.144960E-03
6.631418E+03	2.846403E-02	1.151224E-03
6.641301E+03	2.818017E-02	1.152957E-03
6.651183E+03	2.780482E-02	1.150575E-03
6.661066E+03	2.735136E-02	1.144508E-03
6.670949E+03	2.683404E-02	1.135254E-03
6.680832E+03	2.626721E-02	1.123337E-03
6.690715E+03	2.566412E-02	1.109264E-03
6.700598E+03	2.503634E-02	1.093495E-03
6.710481E+03	2.439541E-02	1.076508E-03
6.720364E+03	2.375055E-02	1.058699E-03
6.730247E+03	2.311018E-02	1.040448E-03
6.740129E+03	2.248046E-02	1.022044E-03
6.750012E+03	2.186712E-02	1.003768E-03
6.759895E+03	2.127441E-02	9.858449E-04
6.769778E+03	2.070552E-02	9.684538E-04
6.779661E+03	2.016244E-02	9.517249E-04
6.789544E+03	1.964665E-02	9.357660E-04
6.799427E+03	1.915919E-02	9.206669E-04
6.809310E+03	1.870008E-02	9.064681E-04
6.819193E+03	1.826936E-02	8.932119E-04
6.829075E+03	1.786606E-02	8.808891E-04
6.838958E+03	1.748962E-02	8.695100E-04
6.848841E+03	1.713884E-02	8.590509E-04
6.858724E+03	1.681305E-02	8.495122E-04
6.868607E+03	1.651060E-02	8.408438E-04
6.878490E+03	1.623024E-02	8.330121E-04
6.888373E+03	1.597069E-02	8.259803E-04
6.898256E+03	1.573087E-02	8.197192E-04
6.908139E+03	1.550912E-02	8.141665E-04
6.918021E+03	1.530439E-02	8.092905E-04
6.927904E+03	1.511548E-02	8.050486E-04
6.937787E+03	1.494123E-02	8.013991E-04
6.947670E+03	1.478034E-02	7.982898E-04
6.957553E+03	1.463196E-02	7.956911E-04
6.967436E+03	1.449471E-02	7.935435E-04
6.977319E+03	1.436806E-02	7.918311E-04
6.987202E+03	1.425096E-02	7.905088E-04
6.997085E+03	1.414244E-02	7.895339E-04
7.006967E+03	1.404196E-02	7.888871E-04
7.016850E+03	1.394888E-02	7.885411E-04
7.026733E+03	1.386240E-02	7.884604E-04
7.036616E+03	1.378218E-02	7.886331E-04
7.046499E+03	1.370755E-02	7.890281E-04
7.056382E+03	1.363808E-02	7.896267E-04
7.066265E+03	1.357335E-02	7.904119E-04
7.076148E+03	1.351301E-02	7.913677E-04
7.086031E+03	1.345652E-02	7.924683E-04
7.095913E+03	1.340373E-02	7.937100E-04
7.105796E+03	1.335434E-02	7.950779E-04
7.115679E+03	1.330784E-02	7.965471E-04
7.125562E+03	1.326410E-02	7.981129E-04
7.135445E+03	1.322245E-02	7.997381E-04
7.145328E+03	1.318293E-02	8.014278E-04
7.155211E+03	1.314502E-02	8.031534E-04
7.165094E+03	1.310821E-02	8.048855E-04
7.174977E+03	1.307251E-02	8.066268E-04
7.184859E+03	1.303720E-02	8.083352E-04
7.194742E+03	1.300213E-02	8.100013E-04
7.204625E+03	1.296677E-02	8.115934E-04
7.214508E+03	1.293096E-02	8.131021E-04
7.224391E+03	1.289419E-02	8.144963E-04
7.234274E+03	1.285618E-02	8.157573E-04
7.244157E+03	1.281683E-02	8.168785E-04
7.254040E+03	1.277571E-02	8.178332E-04
7.263923E+03	1.273261E-02	8.186072E-04
7.273805E+03	1.268738E-02	8.191889E-04
7.283688E+03	1.263988E-02	8.195697E-04
7.293571E+03	1.259004E-02	8.197434E-04
7.303454E+03	1.253781E-02	8.197069E-04
7.313337E+03	1.248322E-02	8.194597E-04
7.323220E+03	1.242613E-02	8.189932E-04
7.333103E+03	1.236699E-02	8.183359E-04
7.342986E+03	1.230559E-02	8.174727E-04
7.352869E+03	1.224227E-02	8.164259E-04
7.362751E+03	1.217704E-02	8.151961E-04
7.372634E+03	1.211030E-02	8.138091E-04
7.382517E+03	1.204191E-02	8.122567E-04
7.392400E+03	1.197248E-02	8.105785E-04
7.402283E+03	1.190222E-02	8.087907E-04
7.412166E+03	1.183104E-02	8.068858E-04
7.422049E+03	1.175966E-02	8.049153E-04
7.431932E+03	1.168796E-02	8.028707E-04
7.441814E+03	1.161646E-02	8.007897E-04
7.451697E+03	1.154501E-02	7.986619E-04
7.461580E+03	1.147427E-02	7.965357E-04
7.471463E+03	1.140389E-02	7.943869E-04
7.481346E+03	1.133451E-02	7.922625E-04
7.491229E+03	1.126594E-02	7.901500E-04
7.501112E+03	1.119847E-02	7.880725E-04
7.510995E+03	1.113225E-02	7.860421E-04
7.520878E+03	1.106761E-02	7.840831E-04
7.530760E+03	1.100437E-02	7.821861E-04
7.540643E+03	1.094322E-02	7.804017E-04
7.550526E+03	1.088387E-02	7.787108E-04
7.560409E+03	1.082684E-02	7.771546E-04
7.570292E+03	1.077238E-02	7.757521E-04
7.580175E+03	1.072071E-02	7.745222E-04
7.590058E+03	1.067204E-02	7.734836E-04
7.599941E+03	1.062674E-02	7.726664E-04
7.609824E+03	1.058469E-02	7.720633E-04
7.619706E+03	1.054634E-02	7.717123E-04
7.629589E+03	1.051164E-02	7.716122E-04
7.639472E+03	1.048080E-02	7.717823E-04
7.649355E+03	1.045381E-02	7.722248E-04
7.659238E+03	1.043058E-02	7.729372E-04
7.669121E+03	1.041096E-02	7.739113E-04
