#wls	flux	fluxerr
1.581262E+03	9.811141E-05	6.586055E-06
1.620794E+03	9.945930E-05	6.655341E-06
1.660325E+03	1.008279E-04	6.724881E-06
1.699857E+03	1.022429E-04	6.796325E-06
1.739388E+03	1.036146E-04	6.863670E-06
1.778920E+03	1.050258E-04	6.932378E-06
1.818451E+03	1.064443E-04	7.000267E-06
1.857983E+03	1.078667E-04	7.067059E-06
1.897514E+03	1.092895E-04	7.132487E-06
1.937046E+03	1.106812E-04	7.194470E-06
1.976578E+03	1.120946E-04	7.256399E-06
2.016109E+03	1.134983E-04	7.316197E-06
2.055641E+03	1.149168E-04	7.375395E-06
2.095172E+03	1.162921E-04	7.430244E-06
2.134704E+03	1.176766E-04	7.484052E-06
2.174235E+03	1.190406E-04	7.534901E-06
2.213767E+03	1.203827E-04	7.582666E-06
2.253298E+03	1.217280E-04	7.628904E-06
2.292830E+03	1.230756E-04	7.673499E-06
2.332362E+03	1.243992E-04	7.714772E-06
2.371893E+03	1.257255E-04	7.754354E-06
2.411425E+03	1.270305E-04	7.790718E-06
2.450956E+03	1.283676E-04	7.827089E-06
2.490488E+03	1.296900E-04	7.860546E-06
2.530019E+03	1.310522E-04	7.894344E-06
2.569551E+03	1.324354E-04	7.927258E-06
2.609082E+03	1.338714E-04	7.961097E-06
2.648614E+03	1.353686E-04	7.996247E-06
2.688145E+03	1.369375E-04	8.033189E-06
2.727677E+03	1.386136E-04	8.073848E-06
2.767209E+03	1.403876E-04	8.117480E-06
2.806740E+03	1.423446E-04	8.168787E-06
2.846272E+03	1.444567E-04	8.225859E-06
2.885803E+03	1.467899E-04	8.292150E-06
2.925335E+03	1.493898E-04	8.369820E-06
2.964866E+03	1.522824E-04	8.459854E-06
2.974749E+03	1.530603E-04	8.484732E-06
2.984632E+03	1.538477E-04	8.509855E-06
2.994515E+03	1.546673E-04	8.536471E-06
3.004398E+03	1.555197E-04	8.564594E-06
3.014281E+03	1.563832E-04	8.593028E-06
3.024164E+03	1.572806E-04	8.623006E-06
3.034047E+03	1.582124E-04	8.654546E-06
3.043929E+03	1.591572E-04	8.686464E-06
3.053812E+03	1.601377E-04	8.719986E-06
3.063695E+03	1.611543E-04	8.755132E-06
3.073578E+03	1.621859E-04	8.790727E-06
3.083461E+03	1.632771E-04	8.829181E-06
3.093344E+03	1.643846E-04	8.868134E-06
3.103227E+03	1.655312E-04	8.908800E-06
3.113110E+03	1.666955E-04	8.950021E-06
3.122993E+03	1.679225E-04	8.994186E-06
3.132875E+03	1.691688E-04	9.038960E-06
3.142758E+03	1.704573E-04	9.085550E-06
3.152641E+03	1.718108E-04	9.135149E-06
3.162524E+03	1.731864E-04	9.185447E-06
3.172407E+03	1.746067E-04	9.237643E-06
3.182290E+03	1.760730E-04	9.291765E-06
3.192173E+03	1.775860E-04	9.347844E-06
3.202056E+03	1.791468E-04	9.405912E-06
3.211939E+03	1.807565E-04	9.465999E-06
3.221821E+03	1.824383E-04	9.529296E-06
3.231704E+03	1.841490E-04	9.593525E-06
3.241587E+03	1.859119E-04	9.659874E-06
3.251470E+03	1.877504E-04	9.729535E-06
3.261353E+03	1.896436E-04	9.801391E-06
3.271236E+03	1.915927E-04	9.875476E-06
3.281119E+03	1.935990E-04	9.951832E-06
3.291002E+03	1.956863E-04	1.003165E-05
3.300885E+03	1.978336E-04	1.011382E-05
3.310767E+03	2.000424E-04	1.019838E-05
3.320650E+03	2.023366E-04	1.028652E-05
3.330533E+03	2.046953E-04	1.037715E-05
3.340416E+03	2.071201E-04	1.047029E-05
3.350299E+03	2.096352E-04	1.056716E-05
3.360182E+03	2.122196E-04	1.066664E-05
3.370065E+03	2.148981E-04	1.076994E-05
3.379948E+03	2.176494E-04	1.087595E-05
3.389831E+03	2.205215E-04	1.098703E-05
3.399713E+03	2.234471E-04	1.109976E-05
3.409596E+03	2.264978E-04	1.121768E-05
3.419479E+03	2.296290E-04	1.133851E-05
3.429362E+03	2.328428E-04	1.146232E-05
3.439245E+03	2.361883E-04	1.159147E-05
3.449128E+03	2.396207E-04	1.172370E-05
3.459011E+03	2.431660E-04	1.186023E-05
3.468894E+03	2.468264E-04	1.200112E-05
3.478776E+03	2.506046E-04	1.214643E-05
3.488659E+03	2.545031E-04	1.229622E-05
3.498542E+03	2.585244E-04	1.245055E-05
3.508425E+03	2.626712E-04	1.260949E-05
3.518308E+03	2.669461E-04	1.277309E-05
3.528191E+03	2.713520E-04	1.294142E-05
3.538074E+03	2.758916E-04	1.311454E-05
3.547957E+03	2.805928E-04	1.329370E-05
3.557840E+03	2.854084E-04	1.347658E-05
3.567722E+03	2.903917E-04	1.366563E-05
3.577605E+03	2.955206E-04	1.385972E-05
3.587488E+03	3.008238E-04	1.406011E-05
3.597371E+03	3.062788E-04	1.426567E-05
3.607254E+03	3.118889E-04	1.447645E-05
3.617137E+03	3.176829E-04	1.469371E-05
3.627020E+03	3.236386E-04	1.491632E-05
3.636903E+03	3.297854E-04	1.514554E-05
3.646786E+03	3.360999E-04	1.538018E-05
3.656668E+03	3.426126E-04	1.562156E-05
3.666551E+03	3.493271E-04	1.586972E-05
3.676434E+03	3.562196E-04	1.612346E-05
3.686317E+03	3.633484E-04	1.638533E-05
3.696200E+03	3.706619E-04	1.665285E-05
3.706083E+03	3.781630E-04	1.692607E-05
3.715966E+03	3.859115E-04	1.720753E-05
3.725849E+03	3.938831E-04	1.749601E-05
3.735732E+03	4.020520E-04	1.779025E-05
3.745614E+03	4.104796E-04	1.809283E-05
3.755497E+03	4.191109E-04	1.840119E-05
3.765380E+03	4.280075E-04	1.871791E-05
3.775263E+03	4.371432E-04	1.904168E-05
3.785146E+03	4.465215E-04	1.937252E-05
3.795029E+03	4.561447E-04	1.971038E-05
3.804912E+03	4.660154E-04	2.005523E-05
3.814795E+03	4.761673E-04	2.040836E-05
3.824678E+03	4.865721E-04	2.076840E-05
3.834560E+03	4.972320E-04	2.113530E-05
3.844443E+03	5.081800E-04	2.151028E-05
3.854326E+03	5.193870E-04	2.189196E-05
3.864209E+03	5.308865E-04	2.228158E-05
3.874092E+03	5.426477E-04	2.267767E-05
3.883975E+03	5.546708E-04	2.308008E-05
3.893858E+03	5.670232E-04	2.349144E-05
3.903741E+03	5.796056E-04	2.390746E-05
3.913624E+03	5.925187E-04	2.433212E-05
3.923506E+03	6.056945E-04	2.476244E-05
3.933389E+03	6.191322E-04	2.519822E-05
3.943272E+03	6.328649E-04	2.564063E-05
3.953155E+03	6.469267E-04	2.609087E-05
3.963038E+03	6.612098E-04	2.654441E-05
3.972921E+03	6.758182E-04	2.700524E-05
3.982804E+03	6.906776E-04	2.747021E-05
3.992687E+03	7.058205E-04	2.794045E-05
4.002570E+03	7.212433E-04	2.841562E-05
4.012452E+03	7.369412E-04	2.889537E-05
4.022335E+03	7.528723E-04	2.937786E-05
4.032218E+03	7.691059E-04	2.986565E-05
4.042101E+03	7.855607E-04	3.035539E-05
4.051984E+03	8.022675E-04	3.084811E-05
4.061867E+03	8.192196E-04	3.134340E-05
4.071750E+03	8.364091E-04	3.184077E-05
4.081633E+03	8.538279E-04	3.233978E-05
4.091516E+03	8.714670E-04	3.283992E-05
4.101398E+03	8.893179E-04	3.334072E-05
4.111281E+03	9.073303E-04	3.384016E-05
4.121164E+03	9.255339E-04	3.433923E-05
4.131047E+03	9.439580E-04	3.483887E-05
4.140930E+03	9.625117E-04	3.533559E-05
4.150813E+03	9.811823E-04	3.582883E-05
4.160696E+03	1.000040E-03	3.632105E-05
4.170579E+03	1.018992E-03	3.680874E-05
4.180462E+03	1.038106E-03	3.729433E-05
4.190344E+03	1.057248E-03	3.777282E-05
4.200227E+03	1.076529E-03	3.824818E-05
4.210110E+03	1.095853E-03	3.871691E-05
4.219993E+03	1.115250E-03	3.918001E-05
4.229876E+03	1.134709E-03	3.963700E-05
4.239759E+03	1.154174E-03	4.008594E-05
4.249642E+03	1.173634E-03	4.052641E-05
4.259525E+03	1.193122E-03	4.095949E-05
4.269408E+03	1.212626E-03	4.138478E-05
4.279290E+03	1.232093E-03	4.180048E-05
4.289173E+03	1.251516E-03	4.220628E-05
4.299056E+03	1.270884E-03	4.260191E-05
4.308939E+03	1.290234E-03	4.298859E-05
4.318822E+03	1.309472E-03	4.336321E-05
4.328705E+03	1.328680E-03	4.372853E-05
4.338588E+03	1.347766E-03	4.408151E-05
4.348471E+03	1.366803E-03	4.442467E-05
4.358354E+03	1.385685E-03	4.475455E-05
4.368236E+03	1.404435E-03	4.507199E-05
4.378119E+03	1.423032E-03	4.537643E-05
4.388002E+03	1.441459E-03	4.566736E-05
4.397885E+03	1.459607E-03	4.594150E-05
4.407768E+03	1.477590E-03	4.620258E-05
4.417651E+03	1.495259E-03	4.644607E-05
4.427534E+03	1.512685E-03	4.667436E-05
4.437417E+03	1.529809E-03	4.688578E-05
4.447300E+03	1.546615E-03	4.708005E-05
4.457182E+03	1.563090E-03	4.725697E-05
4.467065E+03	1.579176E-03	4.741503E-05
4.476948E+03	1.594950E-03	4.755676E-05
4.486831E+03	1.610315E-03	4.767943E-05
4.496714E+03	1.625261E-03	4.778301E-05
4.506597E+03	1.639826E-03	4.786881E-05
4.516480E+03	1.653960E-03	4.793561E-05
4.526363E+03	1.667658E-03	4.798350E-05
4.536245E+03	1.680960E-03	4.801388E-05
4.546128E+03	1.693777E-03	4.802444E-05
4.556011E+03	1.706151E-03	4.801665E-05
4.565894E+03	1.718081E-03	4.799074E-05
4.575777E+03	1.729527E-03	4.794582E-05
4.585660E+03	1.740533E-03	4.788340E-05
4.595543E+03	1.751101E-03	4.780381E-05
4.605426E+03	1.761152E-03	4.770512E-05
4.615309E+03	1.770775E-03	4.759007E-05
4.625191E+03	1.779891E-03	4.745681E-05
4.635074E+03	1.788592E-03	4.730804E-05
4.644957E+03	1.796802E-03	4.714203E-05
4.654840E+03	1.804613E-03	4.696145E-05
4.664723E+03	1.811910E-03	4.676361E-05
4.674606E+03	1.818786E-03	4.655118E-05
4.684489E+03	1.825252E-03	4.632468E-05
4.694372E+03	1.831277E-03	4.608363E-05
4.704255E+03	1.836875E-03	4.582861E-05
4.714137E+03	1.842019E-03	4.555922E-05
4.724020E+03	1.846801E-03	4.527802E-05
4.733903E+03	1.851194E-03	4.498459E-05
4.743786E+03	1.855175E-03	4.467860E-05
4.753669E+03	1.858834E-03	4.436248E-05
4.763552E+03	1.862071E-03	4.403407E-05
4.773435E+03	1.864978E-03	4.369580E-05
4.783318E+03	1.867570E-03	4.334823E-05
4.793201E+03	1.869823E-03	4.299106E-05
4.803083E+03	1.871755E-03	4.262488E-05
4.812966E+03	1.873381E-03	4.225027E-05
4.822849E+03	1.874716E-03	4.186780E-05
4.832732E+03	1.875814E-03	4.147884E-05
4.842615E+03	1.876618E-03	4.108232E-05
4.852498E+03	1.877180E-03	4.067958E-05
4.862381E+03	1.877516E-03	4.027117E-05
4.872264E+03	1.877606E-03	3.985682E-05
4.882147E+03	1.877539E-03	3.943858E-05
4.892029E+03	1.877258E-03	3.901543E-05
4.901912E+03	1.876782E-03	3.858789E-05
4.911795E+03	1.876160E-03	3.815715E-05
4.921678E+03	1.875407E-03	3.772368E-05
4.931561E+03	1.874507E-03	3.728722E-05
4.941444E+03	1.873508E-03	3.684889E-05
4.951327E+03	1.872392E-03	3.640847E-05
4.961210E+03	1.871176E-03	3.596639E-05
4.971093E+03	1.869908E-03	3.552368E-05
4.980975E+03	1.868570E-03	3.508012E-05
4.990858E+03	1.867211E-03	3.463671E-05
5.000741E+03	1.865782E-03	3.419260E-05
5.010624E+03	1.864393E-03	3.374996E-05
5.020507E+03	1.862965E-03	3.330738E-05
5.030390E+03	1.861576E-03	3.286635E-05
5.040273E+03	1.860211E-03	3.242665E-05
5.050156E+03	1.858884E-03	3.198861E-05
5.060039E+03	1.857642E-03	3.155310E-05
5.069921E+03	1.856471E-03	3.111988E-05
5.079804E+03	1.855415E-03	3.068977E-05
5.089687E+03	1.854460E-03	3.026258E-05
5.099570E+03	1.853623E-03	2.983859E-05
5.109453E+03	1.852949E-03	2.941860E-05
5.119336E+03	1.852426E-03	2.900240E-05
5.129219E+03	1.852070E-03	2.859030E-05
5.139102E+03	1.851929E-03	2.818304E-05
5.148985E+03	1.852020E-03	2.778090E-05
5.158867E+03	1.852332E-03	2.738371E-05
5.168750E+03	1.852884E-03	2.699179E-05
5.178633E+03	1.853754E-03	2.660627E-05
5.188516E+03	1.854875E-03	2.622620E-05
5.198399E+03	1.856356E-03	2.585312E-05
5.208282E+03	1.858162E-03	2.548654E-05
5.218165E+03	1.860344E-03	2.512717E-05
5.228048E+03	1.862900E-03	2.477499E-05
5.237931E+03	1.865911E-03	2.443108E-05
5.247813E+03	1.869349E-03	2.409508E-05
5.257696E+03	1.873272E-03	2.376774E-05
5.267579E+03	1.877711E-03	2.344946E-05
5.277462E+03	1.882670E-03	2.314032E-05
5.287345E+03	1.888241E-03	2.284146E-05
5.297228E+03	1.894432E-03	2.255300E-05
5.307111E+03	1.901254E-03	2.227511E-05
5.316994E+03	1.908804E-03	2.200897E-05
5.326877E+03	1.917097E-03	2.175478E-05
5.336759E+03	1.926149E-03	2.151280E-05
5.346642E+03	1.936061E-03	2.128424E-05
5.356525E+03	1.946850E-03	2.106938E-05
5.366408E+03	1.958563E-03	2.086882E-05
5.376291E+03	1.971240E-03	2.068316E-05
5.386174E+03	1.984952E-03	2.051329E-05
5.396057E+03	1.999677E-03	2.035917E-05
5.405940E+03	2.015500E-03	2.022193E-05
5.415823E+03	2.032411E-03	2.010175E-05
5.425705E+03	2.050420E-03	1.999906E-05
5.435588E+03	2.069537E-03	1.991434E-05
5.445471E+03	2.089796E-03	1.984838E-05
5.455354E+03	2.111259E-03	1.980221E-05
5.465237E+03	2.133916E-03	1.977630E-05
5.475120E+03	2.157748E-03	1.977104E-05
5.485003E+03	2.182817E-03	1.978764E-05
5.494886E+03	2.209121E-03	1.982673E-05
5.504768E+03	2.236589E-03	1.988841E-05
5.514651E+03	2.265234E-03	1.997357E-05
5.524534E+03	2.295037E-03	2.008282E-05
5.534417E+03	2.325998E-03	2.021660E-05
5.544300E+03	2.358026E-03	2.037413E-05
5.554183E+03	2.391121E-03	2.055538E-05
5.564066E+03	2.425274E-03	2.076021E-05
5.573949E+03	2.460387E-03	2.098768E-05
5.583832E+03	2.496423E-03	2.123734E-05
5.593714E+03	2.533405E-03	2.150925E-05
5.603597E+03	2.571230E-03	2.180231E-05
5.613480E+03	2.609887E-03	2.211621E-05
5.623363E+03	2.649332E-03	2.245031E-05
5.633246E+03	2.689490E-03	2.280367E-05
5.643129E+03	2.730342E-03	2.317581E-05
5.653012E+03	2.771811E-03	2.356569E-05
5.662895E+03	2.813842E-03	2.397245E-05
5.672778E+03	2.856383E-03	2.439524E-05
5.682660E+03	2.899415E-03	2.483345E-05
5.692543E+03	2.942848E-03	2.528584E-05
5.702426E+03	2.986621E-03	2.575139E-05
5.712309E+03	3.030670E-03	2.622905E-05
5.722192E+03	3.074936E-03	2.671777E-05
5.732075E+03	3.119311E-03	2.721609E-05
5.741958E+03	3.163766E-03	2.772319E-05
5.751841E+03	3.208228E-03	2.823789E-05
5.761724E+03	3.252588E-03	2.875865E-05
5.771606E+03	3.296809E-03	2.928460E-05
5.781489E+03	3.340774E-03	2.981410E-05
5.791372E+03	3.384443E-03	3.034623E-05
5.801255E+03	3.427650E-03	3.087895E-05
5.811138E+03	3.470399E-03	3.141171E-05
5.821021E+03	3.512560E-03	3.194279E-05
5.830904E+03	3.554007E-03	3.247049E-05
5.840787E+03	3.594735E-03	3.299423E-05
5.850670E+03	3.634574E-03	3.351193E-05
5.860552E+03	3.673473E-03	3.402260E-05
5.870435E+03	3.711304E-03	3.452459E-05
5.880318E+03	3.748020E-03	3.501698E-05
5.890201E+03	3.783489E-03	3.549810E-05
5.900084E+03	3.817674E-03	3.596717E-05
5.909967E+03	3.850436E-03	3.642251E-05
5.919850E+03	3.881699E-03	3.686301E-05
5.929733E+03	3.911376E-03	3.728753E-05
5.939616E+03	3.939445E-03	3.769555E-05
5.949498E+03	3.965733E-03	3.808515E-05
5.959381E+03	3.990221E-03	3.845591E-05
5.969264E+03	4.012848E-03	3.880704E-05
5.979147E+03	4.033556E-03	3.913781E-05
5.989030E+03	4.052296E-03	3.944764E-05
5.998913E+03	4.068974E-03	3.973552E-05
6.008796E+03	4.083610E-03	4.000159E-05
6.018679E+03	4.096173E-03	4.024553E-05
6.028562E+03	4.106649E-03	4.046725E-05
6.038444E+03	4.114976E-03	4.066616E-05
6.048327E+03	4.121150E-03	4.084236E-05
6.058210E+03	4.125226E-03	4.099647E-05
6.068093E+03	4.127204E-03	4.112871E-05
6.077976E+03	4.127054E-03	4.123891E-05
6.087859E+03	4.124824E-03	4.132781E-05
6.097742E+03	4.120471E-03	4.139520E-05
6.107625E+03	4.114048E-03	4.144187E-05
6.117508E+03	4.105494E-03	4.146747E-05
6.127390E+03	4.094898E-03	4.147319E-05
6.137273E+03	4.082330E-03	4.146001E-05
6.147156E+03	4.067977E-03	4.142990E-05
6.157039E+03	4.051965E-03	4.138420E-05
6.166922E+03	4.034368E-03	4.132371E-05
6.176805E+03	4.015346E-03	4.125012E-05
6.186688E+03	3.994963E-03	4.116420E-05
6.196571E+03	3.973431E-03	4.106820E-05
6.206454E+03	3.950757E-03	4.096231E-05
6.216336E+03	3.927107E-03	4.084838E-05
6.226219E+03	3.902634E-03	4.072814E-05
6.236102E+03	3.877362E-03	4.060197E-05
6.245985E+03	3.851449E-03	4.047168E-05
6.255868E+03	3.825059E-03	4.033917E-05
6.265751E+03	3.798214E-03	4.020484E-05
6.275634E+03	3.771117E-03	4.007102E-05
6.285517E+03	3.743886E-03	3.993917E-05
6.295400E+03	3.716541E-03	3.980969E-05
6.305282E+03	3.689324E-03	3.968538E-05
6.315165E+03	3.662252E-03	3.956667E-05
6.325048E+03	3.635475E-03	3.945539E-05
6.334931E+03	3.609092E-03	3.935287E-05
6.344814E+03	3.583154E-03	3.925990E-05
6.354697E+03	3.557837E-03	3.917867E-05
6.364580E+03	3.533185E-03	3.910996E-05
6.374463E+03	3.509273E-03	3.905486E-05
6.384346E+03	3.486215E-03	3.901494E-05
6.394228E+03	3.464030E-03	3.899070E-05
6.404111E+03	3.442772E-03	3.898306E-05
6.413994E+03	3.422517E-03	3.899320E-05
6.423877E+03	3.403286E-03	3.902164E-05
6.433760E+03	3.385084E-03	3.906830E-05
6.443643E+03	3.367881E-03	3.913254E-05
6.453526E+03	3.351636E-03	3.921361E-05
6.463409E+03	3.336326E-03	3.931093E-05
6.473291E+03	3.321991E-03	3.942472E-05
6.483174E+03	3.308578E-03	3.955410E-05
6.493057E+03	3.296062E-03	3.969853E-05
6.502940E+03	3.284437E-03	3.985770E-05
6.512823E+03	3.273654E-03	4.003079E-05
6.522706E+03	3.263648E-03	4.021680E-05
6.532589E+03	3.254312E-03	4.041414E-05
6.542472E+03	3.245660E-03	4.062280E-05
6.552355E+03	3.237580E-03	4.084112E-05
6.562237E+03	3.230004E-03	4.106801E-05
6.572120E+03	3.222863E-03	4.130234E-05
6.582003E+03	3.216135E-03	4.154358E-05
6.591886E+03	3.209720E-03	4.179016E-05
6.601769E+03	3.203603E-03	4.204164E-05
6.611652E+03	3.197692E-03	4.229653E-05
6.621535E+03	3.192019E-03	4.255499E-05
6.631418E+03	3.186465E-03	4.281516E-05
6.641301E+03	3.181027E-03	4.307671E-05
6.651183E+03	3.175674E-03	4.333897E-05
6.661066E+03	3.170381E-03	4.360129E-05
6.670949E+03	3.165160E-03	4.386359E-05
6.680832E+03	3.159908E-03	4.412417E-05
6.690715E+03	3.154691E-03	4.438367E-05
6.700598E+03	3.149457E-03	4.464113E-05
6.710481E+03	3.144239E-03	4.489674E-05
6.720364E+03	3.138985E-03	4.514955E-05
6.730247E+03	3.133737E-03	4.539990E-05
6.740129E+03	3.128451E-03	4.564694E-05
6.750012E+03	3.123173E-03	4.589114E-05
6.759895E+03	3.117860E-03	4.613165E-05
6.769778E+03	3.112610E-03	4.636975E-05
6.779661E+03	3.107339E-03	4.660399E-05
6.789544E+03	3.102104E-03	4.683508E-05
6.799427E+03	3.096911E-03	4.706293E-05
6.809310E+03	3.091773E-03	4.728762E-05
6.819193E+03	3.086701E-03	4.750918E-05
6.829075E+03	3.081668E-03	4.772708E-05
6.838958E+03	3.076766E-03	4.794264E-05
6.848841E+03	3.071969E-03	4.815533E-05
6.858724E+03	3.067286E-03	4.836526E-05
6.868607E+03	3.062736E-03	4.857260E-05
6.878490E+03	3.058322E-03	4.877737E-05
6.888373E+03	3.054099E-03	4.898037E-05
6.898256E+03	3.049997E-03	4.918045E-05
6.908139E+03	3.046107E-03	4.937903E-05
6.918021E+03	3.042397E-03	4.957557E-05
6.927904E+03	3.038914E-03	4.977080E-05
6.937787E+03	3.035581E-03	4.996344E-05
6.947670E+03	3.032490E-03	5.015502E-05
6.957553E+03	3.029604E-03	5.034488E-05
6.967436E+03	3.026922E-03	5.053305E-05
6.977319E+03	3.024493E-03	5.072032E-05
6.987202E+03	3.022271E-03	5.090595E-05
6.997085E+03	3.020261E-03	5.109003E-05
7.006967E+03	3.018501E-03	5.127322E-05
7.016850E+03	3.016946E-03	5.145476E-05
7.026733E+03	3.015597E-03	5.163473E-05
7.036616E+03	3.014485E-03	5.181365E-05
7.046499E+03	3.013569E-03	5.199086E-05
7.056382E+03	3.012838E-03	5.216620E-05
7.066265E+03	3.012331E-03	5.234035E-05
7.076148E+03	3.011992E-03	5.251243E-05
7.086031E+03	3.011817E-03	5.268236E-05
7.095913E+03	3.011790E-03	5.284991E-05
7.105796E+03	3.011951E-03	5.301582E-05
7.115679E+03	3.012238E-03	5.317905E-05
7.125562E+03	3.012689E-03	5.334031E-05
7.135445E+03	3.013243E-03	5.349855E-05
7.145328E+03	3.013887E-03	5.365364E-05
7.155211E+03	3.014610E-03	5.380538E-05
7.165094E+03	3.015441E-03	5.395436E-05
7.174977E+03	3.016318E-03	5.409953E-05
7.184859E+03	3.017230E-03	5.424077E-05
7.194742E+03	3.018207E-03	5.437866E-05
7.204625E+03	3.019186E-03	5.451212E-05
7.214508E+03	3.020152E-03	5.464098E-05
7.224391E+03	3.021092E-03	5.476507E-05
7.234274E+03	3.022034E-03	5.488496E-05
7.244157E+03	3.022875E-03	5.499888E-05
7.254040E+03	3.023686E-03	5.510820E-05
7.263923E+03	3.024456E-03	5.521281E-05
7.273805E+03	3.025078E-03	5.531086E-05
7.283688E+03	3.025631E-03	5.540388E-05
7.293571E+03	3.026051E-03	5.549086E-05
7.303454E+03	3.026327E-03	5.557166E-05
7.313337E+03	3.026449E-03	5.564622E-05
7.323220E+03	3.026445E-03	5.571521E-05
7.333103E+03	3.026214E-03	5.577689E-05
7.342986E+03	3.025834E-03	5.583283E-05
7.352869E+03	3.025250E-03	5.588217E-05
7.362751E+03	3.024453E-03	5.592489E-05
7.372634E+03	3.023476E-03	5.596176E-05
7.382517E+03	3.022217E-03	5.599108E-05
7.392400E+03	3.020765E-03	5.601465E-05
7.402283E+03	3.019059E-03	5.603151E-05
7.412166E+03	3.017094E-03	5.604177E-05
7.422049E+03	3.014862E-03	5.604546E-05
7.431932E+03	3.012357E-03	5.604270E-05
7.441814E+03	3.009619E-03	5.603439E-05
7.451697E+03	3.006547E-03	5.601890E-05
7.461580E+03	3.003233E-03	5.599816E-05
7.471463E+03	2.999622E-03	5.597133E-05
7.481346E+03	2.995710E-03	5.593861E-05
7.491229E+03	2.991491E-03	5.590007E-05
7.501112E+03	2.986964E-03	5.585598E-05
7.510995E+03	2.982170E-03	5.580731E-05
7.520878E+03	2.977060E-03	5.575342E-05
7.530760E+03	2.971582E-03	5.569357E-05
7.540643E+03	2.965830E-03	5.562975E-05
7.550526E+03	2.959752E-03	5.556129E-05
7.560409E+03	2.953393E-03	5.548924E-05
7.570292E+03	2.946657E-03	5.541211E-05
7.580175E+03	2.939640E-03	5.533191E-05
7.590058E+03	2.932240E-03	5.524701E-05
7.599941E+03	2.924556E-03	5.515953E-05
7.609824E+03	2.916537E-03	5.506876E-05
7.619706E+03	2.908184E-03	5.497498E-05
7.629589E+03	2.899547E-03	5.487939E-05
7.639472E+03	2.890530E-03	5.478045E-05
7.649355E+03	2.881233E-03	5.468026E-05
7.659238E+03	2.871559E-03	5.457724E-05
7.669121E+03	2.861610E-03	5.447358E-05
