#wls	flux	fluxerr
1.600000E+03	3.805126E-17	4.713826E-21
1.640000E+03	3.832094E-17	4.747234E-21
1.680000E+03	3.862141E-17	4.784456E-21
1.720000E+03	3.894648E-17	4.824726E-21
1.760000E+03	3.931226E-17	4.870038E-21
1.800000E+03	3.970521E-17	4.918717E-21
1.840000E+03	4.014940E-17	4.973743E-21
1.880000E+03	4.062375E-17	5.032505E-21
1.920000E+03	4.115287E-17	5.098053E-21
1.960000E+03	4.172327E-17	5.168715E-21
2.000000E+03	4.235250E-17	5.246664E-21
2.040000E+03	4.303491E-17	5.331201E-21
2.080000E+03	4.377265E-17	5.422593E-21
2.120000E+03	4.458429E-17	5.523139E-21
2.160000E+03	4.545620E-17	5.631150E-21
2.200000E+03	4.641576E-17	5.750021E-21
2.240000E+03	4.744091E-17	5.877017E-21
2.280000E+03	4.855973E-17	6.015616E-21
2.320000E+03	4.977555E-17	6.166233E-21
2.360000E+03	5.108282E-17	6.328177E-21
2.400000E+03	5.249323E-17	6.502900E-21
2.440000E+03	5.402788E-17	6.693014E-21
2.480000E+03	5.567168E-17	6.896648E-21
2.520000E+03	5.744546E-17	7.116384E-21
2.560000E+03	5.936102E-17	7.353684E-21
2.600000E+03	6.141050E-17	7.607575E-21
2.640000E+03	6.362371E-17	7.881747E-21
2.680000E+03	6.599075E-17	8.174977E-21
2.720000E+03	6.852976E-17	8.489511E-21
2.760000E+03	7.124738E-17	8.826171E-21
2.800000E+03	7.414785E-17	9.185482E-21
2.840000E+03	7.723228E-17	9.567582E-21
2.880000E+03	8.050855E-17	9.973448E-21
2.920000E+03	8.398014E-17	1.040351E-20
2.960000E+03	8.764477E-17	1.085748E-20
3.000000E+03	9.149314E-17	1.133422E-20
3.010000E+03	9.248959E-17	1.145766E-20
3.020000E+03	9.348944E-17	1.158152E-20
3.030000E+03	9.449190E-17	1.170571E-20
3.040000E+03	9.551867E-17	1.183291E-20
3.050000E+03	9.654639E-17	1.196022E-20
3.060000E+03	9.758544E-17	1.208894E-20
3.070000E+03	9.862355E-17	1.221754E-20
3.080000E+03	9.968236E-17	1.234870E-20
3.090000E+03	1.007497E-16	1.248092E-20
3.100000E+03	1.018129E-16	1.261263E-20
3.110000E+03	1.028936E-16	1.274651E-20
3.120000E+03	1.039793E-16	1.288101E-20
3.130000E+03	1.050687E-16	1.301597E-20
3.140000E+03	1.061606E-16	1.315123E-20
3.150000E+03	1.072651E-16	1.328806E-20
3.160000E+03	1.083579E-16	1.342343E-20
3.170000E+03	1.094717E-16	1.356141E-20
3.180000E+03	1.105708E-16	1.369757E-20
3.190000E+03	1.116880E-16	1.383597E-20
3.200000E+03	1.127875E-16	1.397217E-20
3.210000E+03	1.139016E-16	1.411019E-20
3.220000E+03	1.150060E-16	1.424700E-20
3.230000E+03	1.161103E-16	1.438380E-20
3.240000E+03	1.172127E-16	1.452037E-20
3.250000E+03	1.183113E-16	1.465647E-20
3.260000E+03	1.194043E-16	1.479186E-20
3.270000E+03	1.204897E-16	1.492632E-20
3.280000E+03	1.215657E-16	1.505961E-20
3.290000E+03	1.226414E-16	1.519288E-20
3.300000E+03	1.237037E-16	1.532448E-20
3.310000E+03	1.247507E-16	1.545418E-20
3.320000E+03	1.257914E-16	1.558310E-20
3.330000E+03	1.268130E-16	1.570965E-20
3.340000E+03	1.278243E-16	1.583493E-20
3.350000E+03	1.288235E-16	1.595872E-20
3.360000E+03	1.298086E-16	1.608075E-20
3.370000E+03	1.307778E-16	1.620081E-20
3.380000E+03	1.317400E-16	1.632001E-20
3.390000E+03	1.326722E-16	1.643549E-20
3.400000E+03	1.335837E-16	1.654841E-20
3.410000E+03	1.344937E-16	1.666114E-20
3.420000E+03	1.353698E-16	1.676967E-20
3.430000E+03	1.362417E-16	1.687768E-20
3.440000E+03	1.370882E-16	1.698254E-20
3.450000E+03	1.379185E-16	1.708539E-20
3.460000E+03	1.387321E-16	1.718618E-20
3.470000E+03	1.395289E-16	1.728490E-20
3.480000E+03	1.403091E-16	1.738155E-20
3.490000E+03	1.410828E-16	1.747740E-20
3.500000E+03	1.418414E-16	1.757137E-20
3.510000E+03	1.425958E-16	1.766483E-20
3.520000E+03	1.433385E-16	1.775683E-20
3.530000E+03	1.440910E-16	1.785005E-20
3.540000E+03	1.448473E-16	1.794374E-20
3.550000E+03	1.456027E-16	1.803732E-20
3.560000E+03	1.463809E-16	1.813373E-20
3.570000E+03	1.471886E-16	1.823378E-20
3.580000E+03	1.480246E-16	1.833735E-20
3.590000E+03	1.489080E-16	1.844677E-20
3.600000E+03	1.498500E-16	1.856347E-20
3.610000E+03	1.508557E-16	1.868806E-20
3.620000E+03	1.519577E-16	1.882458E-20
3.630000E+03	1.531644E-16	1.897407E-20
3.640000E+03	1.545028E-16	1.913986E-20
3.650000E+03	1.559846E-16	1.932343E-20
3.660000E+03	1.576393E-16	1.952841E-20
3.670000E+03	1.594893E-16	1.975759E-20
3.680000E+03	1.615581E-16	2.001387E-20
3.690000E+03	1.638703E-16	2.030031E-20
3.700000E+03	1.664593E-16	2.062104E-20
3.710000E+03	1.693353E-16	2.097732E-20
3.720000E+03	1.725493E-16	2.137546E-20
3.730000E+03	1.761124E-16	2.181686E-20
3.740000E+03	1.800681E-16	2.230689E-20
3.750000E+03	1.844276E-16	2.284695E-20
3.760000E+03	1.892254E-16	2.344130E-20
3.770000E+03	1.944949E-16	2.409409E-20
3.780000E+03	2.002513E-16	2.480719E-20
3.790000E+03	2.065231E-16	2.558414E-20
3.800000E+03	2.133184E-16	2.642594E-20
3.810000E+03	2.206568E-16	2.733503E-20
3.820000E+03	2.285436E-16	2.831205E-20
3.830000E+03	2.369761E-16	2.935666E-20
3.840000E+03	2.459425E-16	3.046742E-20
3.850000E+03	2.554204E-16	3.164155E-20
3.860000E+03	2.653758E-16	3.287483E-20
3.866320E+03	2.287427E-16	2.833670E-20
3.867790E+03	2.345900E-16	2.906107E-20
3.869260E+03	2.390051E-16	2.960801E-20
3.870730E+03	2.457065E-16	3.043819E-20
3.872200E+03	2.514093E-16	3.114465E-20
3.873670E+03	2.546023E-16	3.154020E-20
3.875140E+03	2.604366E-16	3.226295E-20
3.876610E+03	2.654166E-16	3.287988E-20
3.878080E+03	2.676242E-16	3.315336E-20
3.879550E+03	2.687804E-16	3.329659E-20
3.881020E+03	2.705281E-16	3.351309E-20
3.882490E+03	2.745227E-16	3.400795E-20
3.883960E+03	2.790166E-16	3.456465E-20
3.885430E+03	2.814081E-16	3.486091E-20
3.886900E+03	2.853238E-16	3.534599E-20
3.888370E+03	2.899886E-16	3.592386E-20
3.889840E+03	2.936152E-16	3.637313E-20
3.891310E+03	2.971630E-16	3.681263E-20
3.892780E+03	3.011445E-16	3.730586E-20
3.894250E+03	3.055595E-16	3.785279E-20
3.895720E+03	3.090811E-16	3.828905E-20
3.897190E+03	3.112492E-16	3.855763E-20
3.898660E+03	3.148627E-16	3.900527E-20
3.900130E+03	3.189361E-16	3.950988E-20
3.901600E+03	3.229307E-16	4.000473E-20
3.903070E+03	3.268333E-16	4.048819E-20
3.904540E+03	3.305388E-16	4.094723E-20
3.906010E+03	3.329566E-16	4.124675E-20
3.907480E+03	3.368198E-16	4.172532E-20
3.908950E+03	3.395003E-16	4.205739E-20
3.910420E+03	3.417867E-16	4.234063E-20
3.911890E+03	3.452688E-16	4.277198E-20
3.913360E+03	3.483961E-16	4.315940E-20
3.914830E+03	3.508665E-16	4.346543E-20
3.916300E+03	3.526404E-16	4.368518E-20
3.917770E+03	3.540070E-16	4.385447E-20
3.919240E+03	3.547559E-16	4.394725E-20
3.920710E+03	3.572788E-16	4.425979E-20
3.922180E+03	3.586191E-16	4.442582E-20
3.923650E+03	3.604587E-16	4.465371E-20
3.925120E+03	3.618515E-16	4.482626E-20
3.926590E+03	3.637568E-16	4.506229E-20
3.928060E+03	3.669630E-16	4.545947E-20
3.929530E+03	3.673309E-16	4.550505E-20
3.931000E+03	3.672521E-16	4.549528E-20
3.932470E+03	3.657015E-16	4.530319E-20
3.933940E+03	3.648081E-16	4.519251E-20
3.935410E+03	3.673046E-16	4.550179E-20
3.936880E+03	3.689866E-16	4.571015E-20
3.938350E+03	3.705896E-16	4.590873E-20
3.939820E+03	3.711941E-16	4.598361E-20
3.941290E+03	3.707605E-16	4.592990E-20
3.942760E+03	3.708262E-16	4.593803E-20
3.944230E+03	3.716934E-16	4.604547E-20
3.945700E+03	3.729680E-16	4.620336E-20
3.947170E+03	3.739797E-16	4.632870E-20
3.948640E+03	3.760034E-16	4.657939E-20
3.950110E+03	3.764895E-16	4.663961E-20
3.951580E+03	3.765814E-16	4.665100E-20
3.953050E+03	3.778560E-16	4.680889E-20
3.954520E+03	3.801687E-16	4.709539E-20
3.955990E+03	3.812725E-16	4.723213E-20
3.957460E+03	3.839398E-16	4.756256E-20
3.958930E+03	3.858714E-16	4.780184E-20
3.960400E+03	3.872249E-16	4.796952E-20
3.961870E+03	3.866468E-16	4.789789E-20
3.963340E+03	3.858846E-16	4.780348E-20
3.964810E+03	3.876979E-16	4.802811E-20
3.966280E+03	3.891696E-16	4.821042E-20
3.967750E+03	3.899974E-16	4.831297E-20
3.969220E+03	3.911538E-16	4.845622E-20
3.970690E+03	3.930591E-16	4.869225E-20
3.972160E+03	3.944256E-16	4.886153E-20
3.973630E+03	3.947541E-16	4.890223E-20
3.975100E+03	3.949249E-16	4.892339E-20
3.976570E+03	3.965017E-16	4.911873E-20
3.978040E+03	3.971588E-16	4.920012E-20
3.979510E+03	3.978026E-16	4.927988E-20
3.980980E+03	3.990509E-16	4.943451E-20
3.982450E+03	4.014423E-16	4.973077E-20
3.983920E+03	4.019811E-16	4.979751E-20
3.985390E+03	4.027563E-16	4.989355E-20
3.986860E+03	4.036499E-16	5.000424E-20
3.988330E+03	4.052529E-16	5.020282E-20
3.989800E+03	4.056340E-16	5.025004E-20
3.991270E+03	4.045565E-16	5.011655E-20
3.992740E+03	4.054369E-16	5.022561E-20
3.994210E+03	4.065800E-16	5.036723E-20
3.995680E+03	4.069217E-16	5.040955E-20
3.997150E+03	4.083409E-16	5.058536E-20
3.998620E+03	4.095629E-16	5.073674E-20
4.000090E+03	4.097336E-16	5.075789E-20
4.001560E+03	4.100622E-16	5.079860E-20
4.003030E+03	4.122171E-16	5.106555E-20
4.004500E+03	4.147663E-16	5.138135E-20
4.005970E+03	4.164482E-16	5.158970E-20
4.007440E+03	4.174863E-16	5.171829E-20
4.008910E+03	4.195887E-16	5.197874E-20
4.010380E+03	4.224927E-16	5.233849E-20
4.011850E+03	4.217305E-16	5.224407E-20
4.013320E+03	4.226503E-16	5.235801E-20
4.014790E+03	4.246607E-16	5.260706E-20
4.016260E+03	4.257908E-16	5.274705E-20
4.017730E+03	4.270653E-16	5.290495E-20
4.019200E+03	4.274727E-16	5.295542E-20
4.020670E+03	4.264609E-16	5.283007E-20
4.022140E+03	4.265529E-16	5.284147E-20
4.023610E+03	4.280245E-16	5.302377E-20
4.025080E+03	4.296802E-16	5.322888E-20
4.026550E+03	4.297459E-16	5.323701E-20
4.028020E+03	4.298510E-16	5.325003E-20
4.029490E+03	4.311650E-16	5.341282E-20
4.030960E+03	4.319271E-16	5.350722E-20
4.032430E+03	4.311650E-16	5.341282E-20
4.033900E+03	4.302189E-16	5.329561E-20
4.035370E+03	4.296670E-16	5.322724E-20
4.036840E+03	4.276829E-16	5.298145E-20
4.038310E+03	4.262112E-16	5.279913E-20
4.039780E+03	4.250811E-16	5.265913E-20
4.041250E+03	4.243452E-16	5.256798E-20
4.042720E+03	4.251206E-16	5.266402E-20
4.044190E+03	4.250417E-16	5.265426E-20
4.045660E+03	4.248840E-16	5.263472E-20
4.047130E+03	4.243715E-16	5.257123E-20
4.048600E+03	4.216910E-16	5.223916E-20
4.050070E+03	4.196673E-16	5.198848E-20
4.051540E+03	4.188526E-16	5.188755E-20
4.053010E+03	4.190366E-16	5.191034E-20
4.054480E+03	4.180117E-16	5.178337E-20
4.055950E+03	4.160538E-16	5.154083E-20
4.057420E+03	4.151340E-16	5.142688E-20
4.058890E+03	4.169604E-16	5.165314E-20
4.060360E+03	4.177883E-16	5.175570E-20
4.061830E+03	4.159618E-16	5.152943E-20
4.063300E+03	4.155545E-16	5.147897E-20
4.064770E+03	4.144770E-16	5.134549E-20
4.066240E+03	4.119804E-16	5.103621E-20
4.067710E+03	4.104692E-16	5.084901E-20
4.069180E+03	4.097991E-16	5.076599E-20
4.070650E+03	4.079069E-16	5.053158E-20
4.072120E+03	4.073025E-16	5.045672E-20
4.073590E+03	4.056468E-16	5.025161E-20
4.075060E+03	4.046088E-16	5.012302E-20
4.076530E+03	4.044248E-16	5.010023E-20
4.078000E+03	4.035838E-16	4.999605E-20
4.079470E+03	4.020465E-16	4.980559E-20
4.080940E+03	4.003382E-16	4.959398E-20
4.082410E+03	4.007850E-16	4.964932E-20
4.083880E+03	4.012711E-16	4.970955E-20
4.085350E+03	4.017310E-16	4.976651E-20
4.086820E+03	4.009820E-16	4.967373E-20
4.088290E+03	3.993264E-16	4.946863E-20
4.089760E+03	3.968692E-16	4.916423E-20
4.091230E+03	3.944908E-16	4.886960E-20
4.092700E+03	3.932820E-16	4.871985E-20
4.094170E+03	3.940966E-16	4.882076E-20
4.095640E+03	3.940703E-16	4.881750E-20
4.097110E+03	3.930454E-16	4.869053E-20
4.098580E+03	3.928877E-16	4.867100E-20
4.100050E+03	3.926511E-16	4.864170E-20
4.101520E+03	3.929402E-16	4.867751E-20
4.102990E+03	3.927300E-16	4.865146E-20
4.104460E+03	3.922176E-16	4.858799E-20
4.105930E+03	3.914949E-16	4.849846E-20
4.107400E+03	3.915474E-16	4.850496E-20
4.108870E+03	3.920336E-16	4.856520E-20
4.110340E+03	3.919416E-16	4.855379E-20
4.111810E+03	3.923095E-16	4.859937E-20
4.113280E+03	3.904961E-16	4.837473E-20
4.114750E+03	3.878288E-16	4.804430E-20
4.116220E+03	3.875791E-16	4.801337E-20
4.117690E+03	3.890508E-16	4.819568E-20
4.119160E+03	3.871980E-16	4.796616E-20
4.120630E+03	3.838999E-16	4.755758E-20
4.122100E+03	3.834662E-16	4.750386E-20
4.123570E+03	3.845962E-16	4.764385E-20
4.125040E+03	3.843597E-16	4.761455E-20
4.126510E+03	3.852007E-16	4.771873E-20
4.127980E+03	3.855686E-16	4.776431E-20
4.129450E+03	3.870009E-16	4.794174E-20
4.130920E+03	3.869746E-16	4.793848E-20
4.132390E+03	3.857920E-16	4.779198E-20
4.133860E+03	3.856868E-16	4.777896E-20
4.135330E+03	3.847539E-16	4.766339E-20
4.136800E+03	3.837158E-16	4.753478E-20
4.138270E+03	3.833479E-16	4.748920E-20
4.139740E+03	3.827829E-16	4.741921E-20
4.141210E+03	3.830062E-16	4.744688E-20
4.142680E+03	3.832690E-16	4.747943E-20
4.144150E+03	3.828354E-16	4.742572E-20
4.145620E+03	3.834793E-16	4.750548E-20
4.147090E+03	3.831376E-16	4.746315E-20
4.148560E+03	3.826383E-16	4.740130E-20
4.150030E+03	3.820338E-16	4.732642E-20
4.151500E+03	3.813111E-16	4.723689E-20
4.152970E+03	3.802074E-16	4.710015E-20
4.154440E+03	3.801679E-16	4.709526E-20
4.155910E+03	3.799708E-16	4.707085E-20
4.157380E+03	3.802204E-16	4.710177E-20
4.158850E+03	3.799183E-16	4.706434E-20
4.160320E+03	3.787751E-16	4.692272E-20
4.161790E+03	3.778421E-16	4.680714E-20
4.163260E+03	3.756872E-16	4.654019E-20
4.164730E+03	3.745439E-16	4.639856E-20
4.166200E+03	3.740710E-16	4.633997E-20
4.167670E+03	3.733745E-16	4.625369E-20
4.169140E+03	3.724546E-16	4.613974E-20
4.170610E+03	3.725598E-16	4.615277E-20
4.172080E+03	3.720341E-16	4.608765E-20
4.173550E+03	3.717976E-16	4.605835E-20
4.175020E+03	3.719159E-16	4.607301E-20
4.176490E+03	3.706019E-16	4.591022E-20
4.177960E+03	3.697478E-16	4.580442E-20
4.179430E+03	3.702602E-16	4.586790E-20
4.180900E+03	3.717845E-16	4.605673E-20
4.182370E+03	3.740577E-16	4.633832E-20
4.183840E+03	3.744782E-16	4.639041E-20
4.185310E+03	3.739263E-16	4.632205E-20
4.186780E+03	3.723100E-16	4.612183E-20
4.188250E+03	3.712457E-16	4.598998E-20
4.189720E+03	3.708778E-16	4.594440E-20
4.191190E+03	3.710223E-16	4.596230E-20
4.192660E+03	3.713377E-16	4.600137E-20
4.194130E+03	3.704704E-16	4.589393E-20
4.195600E+03	3.705099E-16	4.589882E-20
4.197070E+03	3.704836E-16	4.589556E-20
4.198540E+03	3.708515E-16	4.594114E-20
4.200010E+03	3.720210E-16	4.608601E-20
4.201480E+03	3.725597E-16	4.615275E-20
4.202950E+03	3.730196E-16	4.620973E-20
4.204420E+03	3.742810E-16	4.636599E-20
4.205890E+03	3.729407E-16	4.619995E-20
4.207360E+03	3.726911E-16	4.616903E-20
4.208830E+03	3.743073E-16	4.636924E-20
4.210300E+03	3.744255E-16	4.638389E-20
4.211770E+03	3.753848E-16	4.650272E-20
4.213240E+03	3.759761E-16	4.657597E-20
4.214710E+03	3.745306E-16	4.639691E-20
4.216180E+03	3.736371E-16	4.628622E-20
4.217650E+03	3.730721E-16	4.621623E-20
4.219120E+03	3.718764E-16	4.606810E-20
4.220590E+03	3.701681E-16	4.585648E-20
4.222060E+03	3.691957E-16	4.573602E-20
4.223530E+03	3.691038E-16	4.572463E-20
4.225000E+03	3.692089E-16	4.573765E-20
4.226470E+03	3.707200E-16	4.592485E-20
4.227940E+03	3.717187E-16	4.604856E-20
4.229410E+03	3.720209E-16	4.608600E-20
4.230880E+03	3.725727E-16	4.615437E-20
4.232350E+03	3.732559E-16	4.623900E-20
4.233820E+03	3.721128E-16	4.609739E-20
4.235290E+03	3.714295E-16	4.601274E-20
4.236760E+03	3.696293E-16	4.578973E-20
4.238230E+03	3.683679E-16	4.563347E-20
4.239700E+03	3.692614E-16	4.574415E-20
4.241170E+03	3.697739E-16	4.580764E-20
4.242640E+03	3.706673E-16	4.591832E-20
4.244110E+03	3.714820E-16	4.601925E-20
4.245580E+03	3.714295E-16	4.601274E-20
4.247050E+03	3.719814E-16	4.608111E-20
4.248520E+03	3.719288E-16	4.607459E-20
4.249990E+03	3.711009E-16	4.597203E-20
4.251460E+03	3.704571E-16	4.589228E-20
4.252930E+03	3.694847E-16	4.577182E-20
4.254400E+03	3.679868E-16	4.558626E-20
4.255870E+03	3.671195E-16	4.547882E-20
4.257340E+03	3.670933E-16	4.547556E-20
4.258810E+03	3.656873E-16	4.530139E-20
4.260280E+03	3.659632E-16	4.533557E-20
4.261750E+03	3.657660E-16	4.531115E-20
4.263220E+03	3.652010E-16	4.524115E-20
4.264690E+03	3.662391E-16	4.536975E-20
4.266160E+03	3.661209E-16	4.535510E-20
4.267630E+03	3.649645E-16	4.521185E-20
4.269100E+03	3.656215E-16	4.529324E-20
4.270570E+03	3.667384E-16	4.543160E-20
4.272040E+03	3.657660E-16	4.531114E-20
4.273510E+03	3.641103E-16	4.510604E-20
4.274980E+03	3.641629E-16	4.511255E-20
4.276450E+03	3.627438E-16	4.493675E-20
4.277920E+03	3.609174E-16	4.471049E-20
4.279390E+03	3.603523E-16	4.464049E-20
4.280860E+03	3.613510E-16	4.476420E-20
4.282330E+03	3.608647E-16	4.470397E-20
4.283800E+03	3.600501E-16	4.460305E-20
4.285270E+03	3.591959E-16	4.449724E-20
4.286740E+03	3.586703E-16	4.443213E-20
4.288210E+03	3.578951E-16	4.433609E-20
4.289680E+03	3.578163E-16	4.432632E-20
4.291150E+03	3.583156E-16	4.438818E-20
4.292620E+03	3.571067E-16	4.423842E-20
4.294090E+03	3.551488E-16	4.399588E-20
4.295560E+03	3.533355E-16	4.377125E-20
4.297030E+03	3.536245E-16	4.380705E-20
4.298500E+03	3.534668E-16	4.378752E-20
4.299970E+03	3.535194E-16	4.379403E-20
4.301440E+03	3.528756E-16	4.371427E-20
4.302910E+03	3.517587E-16	4.357591E-20
4.304380E+03	3.509966E-16	4.348150E-20
4.305850E+03	3.493671E-16	4.327964E-20
4.307320E+03	3.487496E-16	4.320314E-20
4.308790E+03	3.471859E-16	4.300944E-20
4.310260E+03	3.451755E-16	4.276038E-20
4.311730E+03	3.442294E-16	4.264318E-20
4.313200E+03	3.431914E-16	4.251459E-20
4.314670E+03	3.425212E-16	4.243156E-20
4.316140E+03	3.415882E-16	4.231599E-20
4.317610E+03	3.402611E-16	4.215159E-20
4.319080E+03	3.392493E-16	4.202624E-20
4.320550E+03	3.378565E-16	4.185370E-20
4.322020E+03	3.353861E-16	4.154767E-20
4.323490E+03	3.352284E-16	4.152813E-20
4.324960E+03	3.345320E-16	4.144186E-20
4.326430E+03	3.322983E-16	4.116515E-20
4.327900E+03	3.321406E-16	4.114561E-20
4.329370E+03	3.319960E-16	4.112770E-20
4.330840E+03	3.297359E-16	4.084772E-20
4.332310E+03	3.276992E-16	4.059542E-20
4.333780E+03	3.270027E-16	4.050914E-20
4.335250E+03	3.273969E-16	4.055797E-20
4.336720E+03	3.262801E-16	4.041961E-20
4.338190E+03	3.260698E-16	4.039356E-20
4.339660E+03	3.260173E-16	4.038705E-20
4.341130E+03	3.259252E-16	4.037565E-20
4.342600E+03	3.249528E-16	4.025519E-20
4.344070E+03	3.237703E-16	4.010870E-20
4.345540E+03	3.226008E-16	3.996382E-20
4.347010E+03	3.215890E-16	3.983848E-20
4.348480E+03	3.218255E-16	3.986778E-20
4.349950E+03	3.217336E-16	3.985639E-20
4.351420E+03	3.206824E-16	3.972617E-20
4.352890E+03	3.196574E-16	3.959919E-20
4.354360E+03	3.190004E-16	3.951780E-20
4.355830E+03	3.181200E-16	3.940874E-20
4.357300E+03	3.170557E-16	3.927690E-20
4.358770E+03	3.171083E-16	3.928341E-20
4.360240E+03	3.147036E-16	3.898552E-20
4.361710E+03	3.139678E-16	3.889436E-20
4.363180E+03	3.147956E-16	3.899691E-20
4.364650E+03	3.150978E-16	3.903434E-20
4.366120E+03	3.141255E-16	3.891389E-20
4.367590E+03	3.145065E-16	3.896110E-20
4.369060E+03	3.154789E-16	3.908155E-20
4.370530E+03	3.158205E-16	3.912388E-20
4.372000E+03	3.151109E-16	3.903598E-20
4.373470E+03	3.149533E-16	3.901644E-20
4.374940E+03	3.139020E-16	3.888621E-20
4.376410E+03	3.130348E-16	3.877878E-20
4.377880E+03	3.121412E-16	3.866808E-20
4.379350E+03	3.117865E-16	3.862414E-20
4.380820E+03	3.115368E-16	3.859320E-20
4.382290E+03	3.108536E-16	3.850857E-20
4.383760E+03	3.102359E-16	3.843205E-20
4.385230E+03	3.097629E-16	3.837345E-20
4.386700E+03	3.095133E-16	3.834253E-20
4.388170E+03	3.087774E-16	3.825137E-20
4.389640E+03	3.073714E-16	3.807720E-20
4.391110E+03	3.061888E-16	3.793069E-20
4.392580E+03	3.070298E-16	3.803488E-20
4.394050E+03	3.071612E-16	3.805115E-20
4.395520E+03	3.075291E-16	3.809673E-20
4.396990E+03	3.078707E-16	3.813904E-20
4.398460E+03	3.086854E-16	3.823997E-20
4.399930E+03	3.097497E-16	3.837182E-20
4.401400E+03	3.091847E-16	3.830183E-20
4.402870E+03	3.084620E-16	3.821230E-20
4.404340E+03	3.083174E-16	3.819439E-20
4.405810E+03	3.101702E-16	3.842391E-20
4.407280E+03	3.111031E-16	3.853948E-20
4.408750E+03	3.108535E-16	3.850855E-20
4.410220E+03	3.110112E-16	3.852809E-20
4.411690E+03	3.113396E-16	3.856878E-20
4.413160E+03	3.129165E-16	3.876412E-20
4.414630E+03	3.140333E-16	3.890248E-20
4.416100E+03	3.148218E-16	3.900015E-20
4.417570E+03	3.145064E-16	3.896108E-20
4.419040E+03	3.145458E-16	3.896595E-20
4.420510E+03	3.149794E-16	3.901968E-20
4.421980E+03	3.159780E-16	3.914338E-20
4.423450E+03	3.169635E-16	3.926546E-20
4.424920E+03	3.173446E-16	3.931268E-20
4.426390E+03	3.183957E-16	3.944289E-20
4.427860E+03	3.187374E-16	3.948521E-20
4.429330E+03	3.178833E-16	3.937941E-20
4.430800E+03	3.182118E-16	3.942010E-20
4.432270E+03	3.195521E-16	3.958614E-20
4.433740E+03	3.213391E-16	3.980751E-20
4.435210E+03	3.223903E-16	3.993774E-20
4.436680E+03	3.236518E-16	4.009401E-20
4.438150E+03	3.261878E-16	4.040817E-20
