#wls	flux	fluxerr
1.600000E+03	1.832110E-17	6.178224E-19
1.640000E+03	1.851673E-17	6.224161E-19
1.680000E+03	1.872794E-17	6.274377E-19
1.720000E+03	1.895248E-17	6.328041E-19
1.760000E+03	1.919799E-17	6.387619E-19
1.800000E+03	1.945905E-17	6.451211E-19
1.840000E+03	1.974025E-17	6.520238E-19
1.880000E+03	2.004294E-17	6.595037E-19
1.920000E+03	2.036864E-17	6.675980E-19
1.960000E+03	2.071894E-17	6.763456E-19
2.000000E+03	2.109554E-17	6.857877E-19
2.040000E+03	2.150032E-17	6.959691E-19
2.080000E+03	2.193524E-17	7.069355E-19
2.120000E+03	2.240242E-17	7.187373E-19
2.160000E+03	2.290790E-17	7.315462E-19
2.200000E+03	2.344655E-17	7.451756E-19
2.240000E+03	2.402860E-17	7.599262E-19
2.280000E+03	2.465289E-17	7.757338E-19
2.320000E+03	2.532638E-17	7.927869E-19
2.360000E+03	2.604803E-17	8.110201E-19
2.400000E+03	2.682086E-17	8.304925E-19
2.440000E+03	2.765238E-17	8.513985E-19
2.480000E+03	2.854147E-17	8.736610E-19
2.520000E+03	2.949121E-17	8.973303E-19
2.560000E+03	3.051414E-17	9.227383E-19
2.600000E+03	3.159903E-17	9.494920E-19
2.640000E+03	3.276314E-17	9.780550E-19
2.680000E+03	3.399887E-17	1.008139E-18
2.720000E+03	3.531301E-17	1.039881E-18
2.760000E+03	3.670659E-17	1.073245E-18
2.800000E+03	3.817382E-17	1.107991E-18
2.840000E+03	3.971876E-17	1.144168E-18
2.880000E+03	4.133842E-17	1.181614E-18
2.920000E+03	4.302791E-17	1.220116E-18
2.960000E+03	4.478005E-17	1.259398E-18
3.000000E+03	4.657842E-17	1.298932E-18
3.010000E+03	4.704119E-17	1.309013E-18
3.020000E+03	4.749867E-17	1.318877E-18
3.030000E+03	4.796421E-17	1.328895E-18
3.040000E+03	4.842385E-17	1.338678E-18
3.050000E+03	4.889113E-17	1.348601E-18
3.060000E+03	4.935886E-17	1.358463E-18
3.070000E+03	4.982678E-17	1.368258E-18
3.080000E+03	5.029457E-17	1.377976E-18
3.090000E+03	5.076191E-17	1.387608E-18
3.100000E+03	5.122849E-17	1.397144E-18
3.110000E+03	5.170125E-17	1.406774E-18
3.120000E+03	5.216535E-17	1.416093E-18
3.130000E+03	5.263506E-17	1.425488E-18
3.140000E+03	5.310273E-17	1.434752E-18
3.150000E+03	5.356054E-17	1.443673E-18
3.160000E+03	5.402304E-17	1.452644E-18
3.170000E+03	5.449002E-17	1.461659E-18
3.180000E+03	5.494602E-17	1.470301E-18
3.190000E+03	5.539819E-17	1.478764E-18
3.200000E+03	5.585392E-17	1.487245E-18
3.210000E+03	5.629745E-17	1.495323E-18
3.220000E+03	5.674393E-17	1.503403E-18
3.230000E+03	5.718530E-17	1.511270E-18
3.240000E+03	5.762125E-17	1.518916E-18
3.250000E+03	5.805146E-17	1.526335E-18
3.260000E+03	5.847563E-17	1.533518E-18
3.270000E+03	5.890151E-17	1.540669E-18
3.280000E+03	5.931287E-17	1.547364E-18
3.290000E+03	5.972551E-17	1.554017E-18
3.300000E+03	6.013122E-17	1.560413E-18
3.310000E+03	6.052171E-17	1.566340E-18
3.320000E+03	6.091304E-17	1.572215E-18
3.330000E+03	6.129701E-17	1.577825E-18
3.340000E+03	6.168175E-17	1.583381E-18
3.350000E+03	6.205081E-17	1.588462E-18
3.360000E+03	6.241236E-17	1.593278E-18
3.370000E+03	6.277473E-17	1.598043E-18
3.380000E+03	6.312143E-17	1.602337E-18
3.390000E+03	6.346918E-17	1.606588E-18
3.400000E+03	6.380982E-17	1.610588E-18
3.410000E+03	6.414357E-17	1.614345E-18
3.420000E+03	6.447065E-17	1.617864E-18
3.430000E+03	6.479133E-17	1.621154E-18
3.440000E+03	6.511439E-17	1.624435E-18
3.450000E+03	6.542333E-17	1.627295E-18
3.460000E+03	6.572698E-17	1.629957E-18
3.470000E+03	6.603433E-17	1.632643E-18
3.480000E+03	6.633742E-17	1.635157E-18
3.490000E+03	6.663682E-17	1.637512E-18
3.500000E+03	6.693318E-17	1.639725E-18
3.510000E+03	6.722720E-17	1.641815E-18
3.520000E+03	6.751968E-17	1.643800E-18
3.530000E+03	6.781149E-17	1.645701E-18
3.540000E+03	6.810363E-17	1.647543E-18
3.550000E+03	6.840580E-17	1.649559E-18
3.560000E+03	6.870205E-17	1.651364E-18
3.570000E+03	6.901100E-17	1.653404E-18
3.580000E+03	6.932562E-17	1.655508E-18
3.590000E+03	6.963898E-17	1.657510E-18
3.600000E+03	6.997026E-17	1.659865E-18
3.610000E+03	7.031259E-17	1.662405E-18
3.620000E+03	7.066789E-17	1.665173E-18
3.630000E+03	7.104705E-17	1.668421E-18
3.640000E+03	7.143485E-17	1.671787E-18
3.650000E+03	7.184244E-17	1.675529E-18
3.660000E+03	7.228120E-17	1.679906E-18
3.670000E+03	7.273609E-17	1.684560E-18
3.680000E+03	7.322754E-17	1.689961E-18
3.690000E+03	7.374946E-17	1.695957E-18
3.700000E+03	7.429563E-17	1.702399E-18
3.710000E+03	7.488677E-17	1.709753E-18
3.720000E+03	7.551668E-17	1.717865E-18
3.730000E+03	7.618805E-17	1.726788E-18
3.740000E+03	7.690350E-17	1.736569E-18
3.750000E+03	7.766560E-17	1.747253E-18
3.760000E+03	7.847672E-17	1.758882E-18
3.770000E+03	7.934857E-17	1.771704E-18
3.780000E+03	8.026445E-17	1.785331E-18
3.790000E+03	8.123562E-17	1.800000E-18
3.800000E+03	8.227343E-17	1.815948E-18
3.810000E+03	8.336004E-17	1.832762E-18
3.820000E+03	8.451609E-17	1.850883E-18
3.830000E+03	8.572279E-17	1.869880E-18
3.840000E+03	8.700065E-17	1.890186E-18
3.850000E+03	8.834004E-17	1.911571E-18
3.860000E+03	8.974095E-17	1.934019E-18
3.870000E+03	9.119245E-17	1.957277E-18
3.880000E+03	9.271479E-17	1.981763E-18
3.890000E+03	9.429652E-17	2.007214E-18
3.900000E+03	9.593630E-17	2.033584E-18
3.910000E+03	9.763247E-17	2.060819E-18
3.920000E+03	9.938304E-17	2.088863E-18
3.930000E+03	1.011858E-16	2.117653E-18
3.940000E+03	1.030382E-16	2.147119E-18
3.950000E+03	1.049376E-16	2.177192E-18
3.960000E+03	1.068812E-16	2.207799E-18
3.970000E+03	1.088658E-16	2.238860E-18
3.980000E+03	1.109008E-16	2.270557E-18
3.990000E+03	1.129584E-16	2.302303E-18
4.000000E+03	1.150474E-16	2.334274E-18
4.010000E+03	1.171649E-16	2.366397E-18
4.020000E+03	1.193075E-16	2.398594E-18
4.030000E+03	1.214858E-16	2.431070E-18
4.040000E+03	1.236700E-16	2.463221E-18
4.050000E+03	1.258708E-16	2.495250E-18
4.060000E+03	1.280854E-16	2.527100E-18
4.070000E+03	1.303115E-16	2.558719E-18
4.080000E+03	1.325613E-16	2.590341E-18
4.090000E+03	1.348042E-16	2.621359E-18
4.100000E+03	1.370525E-16	2.652017E-18
4.110000E+03	1.393048E-16	2.682277E-18
4.120000E+03	1.415594E-16	2.712111E-18
4.130000E+03	1.438308E-16	2.741789E-18
4.140000E+03	1.460869E-16	2.770696E-18
4.150000E+03	1.483421E-16	2.799108E-18
4.160000E+03	1.505953E-16	2.827000E-18
4.170000E+03	1.528459E-16	2.854362E-18
4.180000E+03	1.550928E-16	2.881173E-18
4.190000E+03	1.573353E-16	2.907419E-18
4.200000E+03	1.595725E-16	2.933083E-18
4.210000E+03	1.618036E-16	2.958149E-18
4.220000E+03	1.640276E-16	2.982602E-18
4.230000E+03	1.662434E-16	3.006423E-18
4.240000E+03	1.684323E-16	3.029275E-18
4.250000E+03	1.706283E-16	3.051771E-18
4.260000E+03	1.728124E-16	3.073574E-18
4.270000E+03	1.749652E-16	3.094341E-18
4.280000E+03	1.771214E-16	3.114691E-18
4.290000E+03	1.792428E-16	3.133955E-18
4.300000E+03	1.813648E-16	3.152755E-18
4.310000E+03	1.834484E-16	3.170419E-18
4.320000E+03	1.855298E-16	3.187576E-18
4.330000E+03	1.875691E-16	3.203550E-18
4.340000E+03	1.895841E-16	3.218650E-18
4.350000E+03	1.915737E-16	3.232867E-18
4.360000E+03	1.935370E-16	3.246194E-18
4.370000E+03	1.954742E-16	3.258638E-18
4.380000E+03	1.973858E-16	3.270218E-18
4.390000E+03	1.992732E-16	3.280966E-18
4.400000E+03	2.011144E-16	3.290525E-18
4.410000E+03	2.029441E-16	3.299476E-18
4.420000E+03	2.047169E-16	3.307089E-18
4.430000E+03	2.064695E-16	3.313970E-18
4.440000E+03	2.081571E-16	3.319412E-18
4.450000E+03	2.097967E-16	3.323705E-18
4.460000E+03	2.113855E-16	3.326817E-18
4.470000E+03	2.129204E-16	3.328720E-18
4.480000E+03	2.143989E-16	3.329389E-18
4.490000E+03	2.158183E-16	3.328803E-18
4.500000E+03	2.171761E-16	3.326939E-18
4.510000E+03	2.184486E-16	3.323459E-18
4.520000E+03	2.196767E-16	3.319005E-18
4.530000E+03	2.208153E-16	3.312918E-18
4.540000E+03	2.218844E-16	3.305524E-18
4.550000E+03	2.228832E-16	3.296831E-18
4.560000E+03	2.238106E-16	3.286849E-18
4.570000E+03	2.246664E-16	3.275598E-18
4.580000E+03	2.254295E-16	3.262794E-18
4.590000E+03	2.261442E-16	3.249106E-18
4.600000E+03	2.267686E-16	3.233951E-18
4.610000E+03	2.273486E-16	3.218012E-18
4.620000E+03	2.278435E-16	3.200729E-18
4.630000E+03	2.282789E-16	3.182490E-18
4.640000E+03	2.286590E-16	3.163372E-18
4.650000E+03	2.289670E-16	3.143164E-18
4.660000E+03	2.292525E-16	3.122565E-18
4.670000E+03	2.294776E-16	3.101075E-18
4.680000E+03	2.296929E-16	3.079389E-18
4.690000E+03	2.298615E-16	3.057026E-18
4.700000E+03	2.300128E-16	3.034387E-18
4.710000E+03	2.301542E-16	3.011577E-18
4.720000E+03	2.302716E-16	2.988419E-18
4.730000E+03	2.304161E-16	2.965582E-18
4.740000E+03	2.305518E-16	2.942598E-18
4.750000E+03	2.307074E-16	2.919839E-18
4.760000E+03	2.308900E-16	2.897387E-18
4.770000E+03	2.311061E-16	2.875317E-18
4.780000E+03	2.313613E-16	2.853691E-18
4.790000E+03	2.316610E-16	2.832566E-18
4.800000E+03	2.319882E-16	2.811722E-18
4.810000E+03	2.323684E-16	2.791461E-18
4.820000E+03	2.328045E-16	2.771804E-18
4.830000E+03	2.332988E-16	2.752762E-18
4.840000E+03	2.338527E-16	2.734337E-18
4.850000E+03	2.344451E-16	2.716268E-18
4.860000E+03	2.351190E-16	2.699041E-18
4.870000E+03	2.358302E-16	2.682132E-18
4.880000E+03	2.365987E-16	2.665756E-18
4.890000E+03	2.374220E-16	2.649873E-18
4.900000E+03	2.382975E-16	2.634440E-18
4.910000E+03	2.391998E-16	2.619168E-18
4.920000E+03	2.401694E-16	2.604492E-18
4.930000E+03	2.411581E-16	2.589880E-18
4.940000E+03	2.421843E-16	2.575524E-18
4.950000E+03	2.432438E-16	2.561376E-18
4.960000E+03	2.443107E-16	2.547160E-18
4.970000E+03	2.454258E-16	2.533301E-18
4.980000E+03	2.465411E-16	2.519302E-18
4.990000E+03	2.476761E-16	2.505365E-18
5.000000E+03	2.488281E-16	2.491466E-18
5.010000E+03	2.499954E-16	2.477587E-18
5.020000E+03	2.511533E-16	2.463492E-18
5.030000E+03	2.523464E-16	2.449623E-18
5.040000E+03	2.535283E-16	2.435531E-18
5.050000E+03	2.547216E-16	2.421445E-18
5.060000E+03	2.559262E-16	2.407368E-18
5.070000E+03	2.571194E-16	2.393096E-18
5.080000E+03	2.583477E-16	2.379069E-18
5.090000E+03	2.595653E-16	2.364871E-18
5.100000E+03	2.607957E-16	2.350726E-18
5.110000E+03	2.620394E-16	2.336645E-18
5.120000E+03	2.632964E-16	2.322637E-18
5.130000E+03	2.645665E-16	2.308707E-18
5.140000E+03	2.658254E-16	2.294654E-18
5.150000E+03	2.670956E-16	2.280686E-18
5.160000E+03	2.683758E-16	2.266801E-18
5.170000E+03	2.696639E-16	2.252992E-18
5.180000E+03	2.709573E-16	2.239249E-18
5.190000E+03	2.722290E-16	2.225365E-18
5.200000E+03	2.735238E-16	2.211721E-18
5.210000E+03	2.747890E-16	2.197906E-18
5.220000E+03	2.760448E-16	2.184100E-18
5.230000E+03	2.772863E-16	2.170285E-18
5.240000E+03	2.784841E-16	2.156252E-18
5.250000E+03	2.796820E-16	2.142364E-18
5.260000E+03	2.808253E-16	2.128222E-18
5.270000E+03	2.819335E-16	2.114003E-18
5.280000E+03	2.830013E-16	2.099691E-18
5.290000E+03	2.840233E-16	2.085275E-18
5.300000E+03	2.849696E-16	2.070562E-18
5.310000E+03	2.858855E-16	2.055914E-18
5.320000E+03	2.867162E-16	2.040963E-18
5.330000E+03	2.874827E-16	2.025892E-18
5.340000E+03	2.881809E-16	2.010703E-18
5.350000E+03	2.888076E-16	1.995401E-18
5.360000E+03	2.893342E-16	1.979822E-18
5.370000E+03	2.898085E-16	1.964324E-18
5.380000E+03	2.901776E-16	1.948575E-18
5.390000E+03	2.904649E-16	1.932763E-18
5.400000E+03	2.906692E-16	1.916908E-18
5.410000E+03	2.907646E-16	1.900864E-18
5.420000E+03	2.908028E-16	1.884975E-18
5.430000E+03	2.907354E-16	1.868919E-18
5.440000E+03	2.906184E-16	1.853050E-18
5.450000E+03	2.904099E-16	1.837088E-18
5.460000E+03	2.901235E-16	1.821111E-18
5.470000E+03	2.898302E-16	1.805552E-18
5.480000E+03	2.895332E-16	1.790405E-18
5.490000E+03	2.892453E-16	1.775729E-18
5.500000E+03	2.890170E-16	1.761806E-18
5.510000E+03	2.888432E-16	1.748575E-18
5.520000E+03	2.886422E-16	1.735515E-18
5.530000E+03	2.883924E-16	1.722479E-18
5.540000E+03	2.881305E-16	1.709666E-18
5.550000E+03	2.878001E-16	1.696722E-18
5.560000E+03	2.874496E-16	1.683920E-18
5.570000E+03	2.870321E-16	1.670964E-18
5.580000E+03	2.865781E-16	1.658017E-18
5.590000E+03	2.860956E-16	1.645108E-18
5.600000E+03	2.855940E-16	1.632273E-18
5.610000E+03	2.850593E-16	1.619414E-18
5.620000E+03	2.845521E-16	1.606859E-18
5.630000E+03	2.840349E-16	1.594373E-18
5.640000E+03	2.835444E-16	1.582147E-18
5.650000E+03	2.830925E-16	1.570225E-18
5.660000E+03	2.826908E-16	1.558651E-18
5.670000E+03	2.823507E-16	1.547467E-18
5.680000E+03	2.820826E-16	1.536710E-18
5.690000E+03	2.818718E-16	1.526279E-18
5.700000E+03	2.817513E-16	1.516332E-18
5.710000E+03	2.817530E-16	1.507019E-18
5.720000E+03	2.818341E-16	1.498090E-18
5.730000E+03	2.820235E-16	1.489679E-18
5.740000E+03	2.823242E-16	1.481782E-18
5.750000E+03	2.827131E-16	1.474257E-18
5.760000E+03	2.832387E-16	1.467341E-18
5.770000E+03	2.838502E-16	1.460750E-18
5.780000E+03	2.845929E-16	1.454702E-18
5.790000E+03	2.854128E-16	1.448905E-18
5.800000E+03	2.863277E-16	1.443435E-18
5.810000E+03	2.873301E-16	1.438244E-18
5.820000E+03	2.884109E-16	1.433275E-18
5.830000E+03	2.895605E-16	1.428471E-18
5.840000E+03	2.907432E-16	1.423653E-18
5.850000E+03	2.919986E-16	1.419012E-18
5.860000E+03	2.932655E-16	1.414248E-18
5.870000E+03	2.945579E-16	1.409433E-18
5.880000E+03	2.958912E-16	1.404646E-18
5.890000E+03	2.972048E-16	1.399605E-18
5.900000E+03	2.985152E-16	1.394402E-18
5.910000E+03	2.998152E-16	1.389017E-18
5.920000E+03	3.010723E-16	1.383317E-18
5.930000E+03	3.023340E-16	1.377543E-18
5.940000E+03	3.035452E-16	1.371467E-18
5.950000E+03	3.047571E-16	1.365345E-18
5.960000E+03	3.059179E-16	1.358974E-18
5.970000E+03	3.070563E-16	1.352515E-18
5.980000E+03	3.082029E-16	1.346135E-18
5.990000E+03	3.093104E-16	1.339665E-18
6.000000E+03	3.104126E-16	1.333291E-18
6.010000E+03	3.114909E-16	1.326976E-18
6.020000E+03	3.126082E-16	1.321032E-18
6.030000E+03	3.137478E-16	1.315433E-18
6.040000E+03	3.148926E-16	1.310158E-18
6.050000E+03	3.161071E-16	1.305526E-18
6.060000E+03	3.173470E-16	1.301409E-18
6.070000E+03	3.186758E-16	1.298126E-18
6.080000E+03	3.200472E-16	1.295548E-18
6.090000E+03	3.214957E-16	1.293879E-18
6.100000E+03	3.230273E-16	1.293212E-18
6.110000E+03	3.246467E-16	1.293637E-18
6.120000E+03	3.263576E-16	1.295243E-18
6.130000E+03	3.281632E-16	1.298124E-18
6.140000E+03	3.300674E-16	1.302374E-18
6.150000E+03	3.320466E-16	1.307987E-18
6.160000E+03	3.341667E-16	1.315310E-18
6.170000E+03	3.363835E-16	1.324261E-18
6.180000E+03	3.387763E-16	1.335242E-18
6.190000E+03	3.413164E-16	1.348239E-18
6.200000E+03	3.440305E-16	1.363453E-18
6.210000E+03	3.468869E-16	1.380859E-18
6.220000E+03	3.497665E-16	1.400080E-18
6.230000E+03	3.526465E-16	1.421115E-18
6.240000E+03	3.554811E-16	1.443859E-18
6.250000E+03	3.582297E-16	1.468181E-18
6.260000E+03	3.608558E-16	1.493922E-18
6.270000E+03	3.633265E-16	1.520924E-18
6.280000E+03	3.655802E-16	1.548891E-18
6.290000E+03	3.676528E-16	1.577921E-18
6.300000E+03	3.694884E-16	1.607712E-18
6.310000E+03	3.710329E-16	1.637949E-18
6.320000E+03	3.723316E-16	1.668737E-18
6.330000E+03	3.733048E-16	1.699617E-18
6.340000E+03	3.740046E-16	1.730710E-18
6.350000E+03	3.743575E-16	1.761555E-18
6.360000E+03	3.743907E-16	1.792142E-18
6.370000E+03	3.741027E-16	1.822325E-18
6.380000E+03	3.735278E-16	1.852132E-18
6.390000E+03	3.726065E-16	1.881125E-18
6.400000E+03	3.713798E-16	1.909357E-18
6.410000E+03	3.698592E-16	1.936741E-18
6.420000E+03	3.680586E-16	1.963205E-18
6.430000E+03	3.659946E-16	1.988696E-18
6.440000E+03	3.636853E-16	2.013175E-18
6.450000E+03	3.611191E-16	2.036442E-18
6.460000E+03	3.583800E-16	2.058845E-18
6.470000E+03	3.554580E-16	2.080214E-18
6.480000E+03	3.523751E-16	2.100571E-18
6.490000E+03	3.491231E-16	2.119763E-18
6.500000E+03	3.457853E-16	2.138200E-18
6.510000E+03	3.423224E-16	2.155562E-18
6.520000E+03	3.388154E-16	2.172283E-18
6.530000E+03	3.352252E-16	2.188052E-18
6.540000E+03	3.316296E-16	2.203318E-18
6.550000E+03	3.279886E-16	2.217775E-18
6.560000E+03	3.243768E-16	2.231884E-18
6.570000E+03	3.207531E-16	2.245340E-18
6.580000E+03	3.171608E-16	2.258414E-18
6.590000E+03	3.136136E-16	2.271193E-18
6.600000E+03	3.101241E-16	2.283758E-18
6.610000E+03	3.067306E-16	2.296394E-18
6.620000E+03	3.033897E-16	2.308786E-18
6.630000E+03	3.001382E-16	2.321214E-18
6.640000E+03	2.969848E-16	2.333765E-18
6.650000E+03	2.939378E-16	2.346522E-18
6.660000E+03	2.910048E-16	2.359569E-18
6.670000E+03	2.881926E-16	2.372994E-18
6.680000E+03	2.855075E-16	2.386878E-18
6.690000E+03	2.829309E-16	2.401100E-18
6.700000E+03	2.805182E-16	2.416167E-18
6.710000E+03	2.782500E-16	2.431959E-18
6.720000E+03	2.761311E-16	2.448565E-18
6.730000E+03	2.741425E-16	2.465862E-18
6.740000E+03	2.723375E-16	2.484376E-18
6.750000E+03	2.706962E-16	2.503987E-18
6.760000E+03	2.691993E-16	2.524568E-18
6.770000E+03	2.678989E-16	2.546663E-18
6.780000E+03	2.667752E-16	2.570151E-18
6.790000E+03	2.658089E-16	2.594904E-18
6.800000E+03	2.650506E-16	2.621480E-18
6.810000E+03	2.644574E-16	2.649521E-18
6.820000E+03	2.640558E-16	2.679356E-18
6.830000E+03	2.638726E-16	2.711329E-18
6.840000E+03	2.638638E-16	2.745063E-18
6.850000E+03	2.640554E-16	2.780892E-18
6.860000E+03	2.644729E-16	2.819163E-18
6.870000E+03	2.650713E-16	2.859472E-18
6.880000E+03	2.658752E-16	2.902153E-18
6.890000E+03	2.668852E-16	2.947288E-18
6.900000E+03	2.681017E-16	2.994957E-18
6.910000E+03	2.695480E-16	3.045498E-18
6.920000E+03	2.711753E-16	3.098437E-18
6.930000E+03	2.730054E-16	3.154092E-18
6.940000E+03	2.750355E-16	3.212504E-18
6.950000E+03	2.772624E-16	3.273706E-18
6.960000E+03	2.796812E-16	3.337711E-18
6.970000E+03	2.822867E-16	3.404526E-18
6.980000E+03	2.850469E-16	3.473827E-18
6.990000E+03	2.880048E-16	3.546197E-18
7.000000E+03	2.911266E-16	3.621286E-18
7.010000E+03	2.944023E-16	3.699027E-18
7.020000E+03	2.978208E-16	3.779331E-18
7.030000E+03	3.013427E-16	3.861743E-18
7.040000E+03	3.050080E-16	3.946813E-18
7.050000E+03	3.087750E-16	4.034046E-18
7.060000E+03	3.125994E-16	4.122890E-18
7.070000E+03	3.165193E-16	4.213868E-18
7.080000E+03	3.204591E-16	4.305996E-18
7.090000E+03	3.244560E-16	4.399779E-18
7.100000E+03	3.284309E-16	4.494150E-18
7.110000E+03	3.324197E-16	4.589592E-18
7.120000E+03	3.363398E-16	4.684955E-18
7.130000E+03	3.401967E-16	4.780282E-18
7.140000E+03	3.439963E-16	4.875631E-18
7.150000E+03	3.476517E-16	4.969732E-18
7.160000E+03	3.511679E-16	5.062602E-18
7.170000E+03	3.545196E-16	5.153812E-18
7.180000E+03	3.576814E-16	5.242930E-18
7.190000E+03	3.606614E-16	5.329999E-18
7.200000E+03	3.633705E-16	5.413624E-18
7.210000E+03	3.658186E-16	5.493848E-18
7.220000E+03	3.679845E-16	5.570258E-18
7.230000E+03	3.698489E-16	5.642449E-18
7.240000E+03	3.713608E-16	5.709530E-18
7.250000E+03	3.725725E-16	5.772183E-18
7.260000E+03	3.734383E-16	5.829583E-18
7.270000E+03	3.739488E-16	5.881459E-18
7.280000E+03	3.740635E-16	5.927043E-18
7.290000E+03	3.738470E-16	5.967226E-18
7.300000E+03	3.732654E-16	6.001344E-18
7.310000E+03	3.722876E-16	6.028769E-18
7.320000E+03	3.709881E-16	6.050576E-18
7.330000E+03	3.693083E-16	6.065694E-18
7.340000E+03	3.673281E-16	6.075311E-18
7.350000E+03	3.649953E-16	6.078458E-18
7.360000E+03	3.623609E-16	6.075871E-18
7.370000E+03	3.594447E-16	6.067783E-18
7.380000E+03	3.563010E-16	6.055022E-18
7.390000E+03	3.528871E-16	6.036787E-18
7.400000E+03	3.492602E-16	6.013974E-18
7.410000E+03	3.454456E-16	5.986950E-18
7.420000E+03	3.414683E-16	5.956098E-18
7.430000E+03	3.373544E-16	5.921819E-18
7.440000E+03	3.331291E-16	5.884524E-18
7.450000E+03	3.287869E-16	5.844078E-18
7.460000E+03	3.244129E-16	5.801973E-18
7.470000E+03	3.199993E-16	5.758061E-18
7.480000E+03	3.155389E-16	5.712203E-18
7.490000E+03	3.111103E-16	5.665823E-18
7.500000E+03	3.066745E-16	5.618219E-18
7.510000E+03	3.023054E-16	5.570759E-18
7.520000E+03	2.979619E-16	5.522705E-18
7.530000E+03	2.937128E-16	5.475356E-18
7.540000E+03	2.895148E-16	5.427931E-18
7.550000E+03	2.854049E-16	5.381154E-18
7.560000E+03	2.813911E-16	5.335208E-18
7.570000E+03	2.774794E-16	5.290242E-18
7.580000E+03	2.736741E-16	5.246376E-18
7.590000E+03	2.699781E-16	5.203703E-18
7.600000E+03	2.663926E-16	5.162287E-18
7.610000E+03	2.629174E-16	5.122163E-18
7.620000E+03	2.595273E-16	5.082874E-18
7.630000E+03	2.562682E-16	5.045357E-18
7.640000E+03	2.531123E-16	5.009102E-18
7.650000E+03	2.500318E-16	4.973597E-18
7.660000E+03	2.470687E-16	4.939704E-18
7.670000E+03	2.441706E-16	4.906412E-18
7.680000E+03	2.413548E-16	4.874093E-18
7.690000E+03	2.386370E-16	4.843095E-18
7.700000E+03	2.359653E-16	4.812392E-18
7.710000E+03	2.333554E-16	4.782322E-18
7.720000E+03	2.308003E-16	4.752762E-18
7.730000E+03	2.282929E-16	4.723589E-18
7.740000E+03	2.258269E-16	4.694684E-18
7.750000E+03	2.233743E-16	4.665482E-18
7.760000E+03	2.209718E-16	4.636755E-18
