#wls	flux	fluxerr
1.596313E+03	3.949872E-03	1.524899E-07
1.636220E+03	3.991008E-03	1.540780E-07
1.676128E+03	4.027532E-03	1.554881E-07
1.716036E+03	4.059576E-03	1.567252E-07
1.755944E+03	4.087631E-03	1.578083E-07
1.795852E+03	4.111692E-03	1.587372E-07
1.835759E+03	4.132074E-03	1.595240E-07
1.875667E+03	4.149216E-03	1.601858E-07
1.915575E+03	4.163328E-03	1.607306E-07
1.955483E+03	4.175258E-03	1.611912E-07
1.995391E+03	4.186323E-03	1.616183E-07
2.035298E+03	4.198868E-03	1.621026E-07
2.075206E+03	4.217009E-03	1.628030E-07
2.115114E+03	4.246250E-03	1.639319E-07
2.155022E+03	4.291835E-03	1.656917E-07
2.194930E+03	4.356835E-03	1.682011E-07
2.234838E+03	4.441001E-03	1.714504E-07
2.274745E+03	4.542166E-03	1.753560E-07
2.314653E+03	4.657805E-03	1.798204E-07
2.354561E+03	4.786042E-03	1.847711E-07
2.394469E+03	4.925554E-03	1.901571E-07
2.434377E+03	5.075536E-03	1.959474E-07
2.474284E+03	5.235594E-03	2.021266E-07
2.514192E+03	5.405400E-03	2.086821E-07
2.554100E+03	5.584560E-03	2.155988E-07
2.594008E+03	5.772762E-03	2.228645E-07
2.633916E+03	5.969842E-03	2.304730E-07
2.673823E+03	6.175748E-03	2.384222E-07
2.713731E+03	6.390391E-03	2.467087E-07
2.753639E+03	6.613938E-03	2.553390E-07
2.793547E+03	6.846865E-03	2.643314E-07
2.833455E+03	7.088867E-03	2.736742E-07
2.873363E+03	7.339216E-03	2.833391E-07
2.913270E+03	7.596329E-03	2.932653E-07
2.953178E+03	7.857891E-03	3.033631E-07
2.993086E+03	8.120162E-03	3.134883E-07
3.003063E+03	8.185413E-03	3.160074E-07
3.013040E+03	8.250135E-03	3.185061E-07
3.023017E+03	8.314544E-03	3.209926E-07
3.032994E+03	8.378314E-03	3.234545E-07
3.042971E+03	8.441469E-03	3.258927E-07
3.052948E+03	8.503917E-03	3.283036E-07
3.062925E+03	8.565411E-03	3.306776E-07
3.072902E+03	8.625926E-03	3.330138E-07
3.082879E+03	8.685343E-03	3.353077E-07
3.092856E+03	8.743466E-03	3.375516E-07
3.102832E+03	8.800339E-03	3.397472E-07
3.112809E+03	8.855825E-03	3.418893E-07
3.122786E+03	8.909913E-03	3.439774E-07
3.132763E+03	8.962588E-03	3.460110E-07
3.142740E+03	9.013702E-03	3.479843E-07
3.152717E+03	9.063249E-03	3.498971E-07
3.162694E+03	9.110915E-03	3.517373E-07
3.172671E+03	9.156278E-03	3.534885E-07
3.182648E+03	9.199011E-03	3.551383E-07
3.192625E+03	9.238402E-03	3.566590E-07
3.202602E+03	9.274021E-03	3.580341E-07
3.212579E+03	9.305200E-03	3.592378E-07
3.222556E+03	9.331710E-03	3.602612E-07
3.232533E+03	9.353255E-03	3.610930E-07
3.242510E+03	9.370014E-03	3.617399E-07
3.252487E+03	9.382373E-03	3.622171E-07
3.262464E+03	9.390992E-03	3.625498E-07
3.272441E+03	9.396842E-03	3.627756E-07
3.282418E+03	9.400921E-03	3.629331E-07
3.292395E+03	9.404156E-03	3.630580E-07
3.302372E+03	9.407482E-03	3.631863E-07
3.312348E+03	9.411733E-03	3.633505E-07
3.322325E+03	9.417285E-03	3.635648E-07
3.332302E+03	9.424262E-03	3.638341E-07
3.342279E+03	9.432426E-03	3.641493E-07
3.352256E+03	9.441139E-03	3.644856E-07
3.362233E+03	9.449622E-03	3.648131E-07
3.372210E+03	9.457033E-03	3.650992E-07
3.382187E+03	9.462502E-03	3.653103E-07
3.392164E+03	9.465777E-03	3.654367E-07
3.402141E+03	9.467000E-03	3.654839E-07
3.412118E+03	9.467024E-03	3.654848E-07
3.422095E+03	9.467511E-03	3.655036E-07
3.432072E+03	9.471071E-03	3.656411E-07
3.442049E+03	9.480513E-03	3.660056E-07
3.452026E+03	9.498935E-03	3.667168E-07
3.462003E+03	9.528564E-03	3.678606E-07
3.471980E+03	9.571732E-03	3.695271E-07
3.481957E+03	9.630289E-03	3.717877E-07
3.491934E+03	9.705923E-03	3.747077E-07
3.497581E+03	7.735779E-03	2.986481E-07
3.502340E+03	7.880433E-03	3.042326E-07
3.507099E+03	8.009832E-03	3.092282E-07
3.511858E+03	7.940138E-03	3.065376E-07
3.516617E+03	7.951204E-03	3.069648E-07
3.521376E+03	8.103200E-03	3.128328E-07
3.526135E+03	8.094631E-03	3.125019E-07
3.530894E+03	8.104642E-03	3.128884E-07
3.535653E+03	8.297034E-03	3.203159E-07
3.540412E+03	8.654880E-03	3.341310E-07
3.545171E+03	8.825087E-03	3.407020E-07
3.549930E+03	8.920337E-03	3.443792E-07
3.554689E+03	9.199375E-03	3.551517E-07
3.559448E+03	9.616737E-03	3.712644E-07
3.564207E+03	9.780173E-03	3.775741E-07
3.568966E+03	1.003867E-02	3.875534E-07
3.573725E+03	1.031498E-02	3.982208E-07
3.578484E+03	1.094938E-02	4.227126E-07
3.583243E+03	1.133054E-02	4.374274E-07
3.587992E+03	1.130940E-02	4.366114E-07
3.592751E+03	1.156971E-02	4.466610E-07
3.597510E+03	1.185705E-02	4.577541E-07
3.602269E+03	1.187345E-02	4.583871E-07
3.607028E+03	1.178830E-02	4.550997E-07
3.611787E+03	1.180019E-02	4.555587E-07
3.616546E+03	1.161492E-02	4.484063E-07
3.621305E+03	1.145236E-02	4.421305E-07
3.626064E+03	1.121702E-02	4.330449E-07
3.630823E+03	1.104256E-02	4.263097E-07
3.635582E+03	1.081619E-02	4.175706E-07
3.640341E+03	1.051029E-02	4.057609E-07
3.645100E+03	1.028759E-02	3.971635E-07
3.649859E+03	9.783678E-03	3.777092E-07
3.654618E+03	9.301476E-03	3.590933E-07
3.659377E+03	9.062034E-03	3.498494E-07
3.664136E+03	9.101674E-03	3.513797E-07
3.668895E+03	9.190450E-03	3.548070E-07
3.673654E+03	9.230242E-03	3.563432E-07
3.678413E+03	9.269907E-03	3.578745E-07
3.683172E+03	9.505115E-03	3.669549E-07
3.687931E+03	9.633097E-03	3.718958E-07
3.692690E+03	9.936044E-03	3.835914E-07
3.697449E+03	1.029924E-02	3.976128E-07
3.702208E+03	1.080820E-02	4.172617E-07
3.706967E+03	1.117223E-02	4.313156E-07
3.711726E+03	1.156436E-02	4.464543E-07
3.716485E+03	1.195338E-02	4.614727E-07
3.721244E+03	1.228154E-02	4.741415E-07
3.726003E+03	1.246208E-02	4.811115E-07
3.730762E+03	1.286648E-02	4.967238E-07
3.735521E+03	1.329116E-02	5.131190E-07
3.740280E+03	1.358993E-02	5.246533E-07
3.745029E+03	1.368839E-02	5.284544E-07
3.749788E+03	1.375571E-02	5.310534E-07
3.754547E+03	1.392840E-02	5.377203E-07
3.759306E+03	1.401543E-02	5.410800E-07
3.764065E+03	1.402901E-02	5.416046E-07
3.768824E+03	1.398040E-02	5.397280E-07
3.773583E+03	1.403977E-02	5.420199E-07
3.778342E+03	1.406718E-02	5.430779E-07
3.783101E+03	1.383856E-02	5.342518E-07
3.787860E+03	1.353370E-02	5.224825E-07
3.792619E+03	1.329503E-02	5.132684E-07
3.797378E+03	1.310117E-02	5.057840E-07
3.802137E+03	1.286571E-02	4.966940E-07
3.806896E+03	1.257616E-02	4.855155E-07
3.811655E+03	1.236903E-02	4.775190E-07
3.816414E+03	1.212423E-02	4.680683E-07
3.821173E+03	1.186145E-02	4.579234E-07
3.825932E+03	1.161617E-02	4.484540E-07
3.830691E+03	1.136727E-02	4.388451E-07
3.835450E+03	1.111799E-02	4.292213E-07
3.840209E+03	1.091168E-02	4.212567E-07
3.844968E+03	1.066463E-02	4.117190E-07
3.849727E+03	1.041624E-02	4.021297E-07
3.854486E+03	1.017027E-02	3.926335E-07
3.859245E+03	9.988683E-03	3.856233E-07
3.864004E+03	9.937106E-03	3.836321E-07
3.868763E+03	9.915541E-03	3.827996E-07
3.873522E+03	9.962815E-03	3.846246E-07
3.878281E+03	1.009820E-02	3.898512E-07
3.883040E+03	1.038252E-02	4.008278E-07
3.887799E+03	1.069204E-02	4.127770E-07
3.892558E+03	1.105615E-02	4.268339E-07
3.897317E+03	1.151064E-02	4.443798E-07
3.902066E+03	1.205110E-02	4.652448E-07
3.906825E+03	1.262124E-02	4.872559E-07
3.911584E+03	1.320302E-02	5.097161E-07
3.916343E+03	1.385316E-02	5.348152E-07
3.921102E+03	1.451072E-02	5.602010E-07
3.925861E+03	1.515084E-02	5.849135E-07
3.930620E+03	1.571620E-02	6.067398E-07
3.935379E+03	1.628609E-02	6.287408E-07
3.940138E+03	1.667727E-02	6.438429E-07
3.944897E+03	1.699022E-02	6.559245E-07
3.949656E+03	1.723862E-02	6.655144E-07
3.954415E+03	1.733367E-02	6.691838E-07
3.959174E+03	1.731393E-02	6.684217E-07
3.963933E+03	1.717712E-02	6.631401E-07
3.968692E+03	1.691363E-02	6.529677E-07
3.973451E+03	1.661039E-02	6.412610E-07
3.978210E+03	1.624251E-02	6.270584E-07
3.982969E+03	1.580445E-02	6.101467E-07
3.987728E+03	1.535734E-02	5.928857E-07
3.992487E+03	1.493702E-02	5.766588E-07
3.997246E+03	1.454126E-02	5.613799E-07
4.002005E+03	1.422511E-02	5.491748E-07
4.006764E+03	1.389809E-02	5.365498E-07
4.011523E+03	1.364158E-02	5.266470E-07
4.016282E+03	1.343863E-02	5.188117E-07
4.021041E+03	1.328593E-02	5.129167E-07
4.025800E+03	1.321178E-02	5.100539E-07
4.030559E+03	1.321560E-02	5.102015E-07
4.035318E+03	1.327647E-02	5.125512E-07
4.040077E+03	1.339488E-02	5.171229E-07
4.044836E+03	1.354832E-02	5.230463E-07
4.049595E+03	1.375760E-02	5.311257E-07
4.054354E+03	1.400647E-02	5.407336E-07
4.059103E+03	1.429776E-02	5.519793E-07
4.063862E+03	1.461775E-02	5.643326E-07
4.068621E+03	1.494580E-02	5.769976E-07
4.073380E+03	1.523379E-02	5.881155E-07
4.078139E+03	1.548785E-02	5.979240E-07
4.082899E+03	1.574175E-02	6.077258E-07
4.087658E+03	1.592714E-02	6.148832E-07
4.092417E+03	1.605398E-02	6.197800E-07
4.097176E+03	1.614948E-02	6.234668E-07
4.101935E+03	1.620942E-02	6.257805E-07
4.106694E+03	1.623345E-02	6.267083E-07
4.111453E+03	1.620398E-02	6.255706E-07
4.116212E+03	1.618600E-02	6.248764E-07
4.120971E+03	1.617425E-02	6.244230E-07
4.125730E+03	1.612177E-02	6.223970E-07
4.130489E+03	1.608075E-02	6.208130E-07
4.135248E+03	1.604453E-02	6.194148E-07
4.140007E+03	1.599013E-02	6.173149E-07
4.144766E+03	1.593099E-02	6.150316E-07
4.149525E+03	1.583848E-02	6.114602E-07
4.154284E+03	1.570005E-02	6.061160E-07
4.159043E+03	1.555230E-02	6.004118E-07
4.163802E+03	1.537595E-02	5.936036E-07
4.168561E+03	1.514603E-02	5.847274E-07
4.173320E+03	1.488697E-02	5.747260E-07
4.178079E+03	1.457920E-02	5.628442E-07
4.182838E+03	1.424038E-02	5.497639E-07
4.187597E+03	1.385767E-02	5.349890E-07
4.192356E+03	1.345625E-02	5.194917E-07
4.197115E+03	1.303433E-02	5.032029E-07
4.201874E+03	1.262343E-02	4.873400E-07
4.206633E+03	1.224008E-02	4.725404E-07
4.211392E+03	1.189802E-02	4.593347E-07
4.216141E+03	1.162078E-02	4.486314E-07
4.220900E+03	1.140668E-02	4.403661E-07
4.225659E+03	1.121196E-02	4.328487E-07
4.230418E+03	1.108118E-02	4.277999E-07
4.235177E+03	1.103290E-02	4.259360E-07
4.239936E+03	1.107181E-02	4.274381E-07
4.244695E+03	1.118407E-02	4.317719E-07
4.249454E+03	1.134852E-02	4.381208E-07
4.254213E+03	1.160112E-02	4.478725E-07
4.258972E+03	1.192932E-02	4.605429E-07
4.263731E+03	1.233533E-02	4.762175E-07
4.268490E+03	1.276932E-02	4.929719E-07
4.273249E+03	1.322360E-02	5.105099E-07
4.278008E+03	1.368232E-02	5.282191E-07
4.282767E+03	1.415328E-02	5.464013E-07
4.287526E+03	1.461586E-02	5.642594E-07
4.292285E+03	1.505256E-02	5.811188E-07
4.297044E+03	1.545691E-02	5.967290E-07
4.301803E+03	1.583307E-02	6.112511E-07
4.306562E+03	1.615881E-02	6.238265E-07
4.311321E+03	1.643234E-02	6.343863E-07
4.316080E+03	1.662383E-02	6.417793E-07
4.320839E+03	1.673578E-02	6.461011E-07
4.325598E+03	1.680027E-02	6.485909E-07
4.330357E+03	1.680222E-02	6.486659E-07
4.335116E+03	1.674425E-02	6.464280E-07
4.339875E+03	1.663798E-02	6.423252E-07
4.344634E+03	1.648017E-02	6.362330E-07
4.349393E+03	1.630045E-02	6.292947E-07
4.354152E+03	1.609273E-02	6.212756E-07
4.358911E+03	1.586441E-02	6.124611E-07
4.363670E+03	1.563489E-02	6.036003E-07
4.368429E+03	1.541622E-02	5.951582E-07
4.373178E+03	1.519189E-02	5.864975E-07
4.377937E+03	1.492851E-02	5.763296E-07
4.382696E+03	1.466816E-02	5.662786E-07
4.387455E+03	1.440090E-02	5.559607E-07
4.392214E+03	1.413733E-02	5.457851E-07
4.396973E+03	1.384685E-02	5.345710E-07
4.401732E+03	1.358966E-02	5.246419E-07
4.406491E+03	1.334448E-02	5.151764E-07
4.411250E+03	1.310468E-02	5.059187E-07
4.416009E+03	1.288342E-02	4.973771E-07
4.420768E+03	1.267104E-02	4.891778E-07
4.425527E+03	1.245244E-02	4.807386E-07
4.430286E+03	1.226590E-02	4.735370E-07
4.435045E+03	1.212103E-02	4.679439E-07
4.439804E+03	1.197506E-02	4.623089E-07
4.444563E+03	1.186379E-02	4.580131E-07
4.449322E+03	1.174584E-02	4.534597E-07
4.454081E+03	1.170141E-02	4.517441E-07
4.458840E+03	1.168080E-02	4.509485E-07
4.463599E+03	1.169338E-02	4.514344E-07
4.468358E+03	1.171363E-02	4.522159E-07
4.473117E+03	1.176444E-02	4.541775E-07
4.477876E+03	1.184995E-02	4.574789E-07
4.482635E+03	1.195649E-02	4.615918E-07
4.487394E+03	1.207184E-02	4.660451E-07
4.492153E+03	1.221235E-02	4.714697E-07
4.496912E+03	1.236643E-02	4.774181E-07
4.501671E+03	1.253644E-02	4.839816E-07
4.506430E+03	1.270843E-02	4.906213E-07
4.511189E+03	1.287519E-02	4.970594E-07
4.515948E+03	1.304266E-02	5.035247E-07
4.520707E+03	1.321865E-02	5.103187E-07
4.525466E+03	1.338891E-02	5.168920E-07
4.530225E+03	1.355848E-02	5.234381E-07
4.534974E+03	1.370442E-02	5.290725E-07
4.539733E+03	1.382063E-02	5.335589E-07
4.544492E+03	1.391391E-02	5.371598E-07
4.549251E+03	1.398559E-02	5.399273E-07
4.554010E+03	1.404461E-02	5.422057E-07
4.558769E+03	1.409405E-02	5.441145E-07
4.563528E+03	1.414035E-02	5.459021E-07
4.568287E+03	1.416934E-02	5.470211E-07
4.573046E+03	1.416947E-02	5.470262E-07
4.577805E+03	1.415883E-02	5.466152E-07
4.582564E+03	1.416420E-02	5.468228E-07
4.587323E+03	1.417963E-02	5.474185E-07
4.592082E+03	1.418966E-02	5.478057E-07
4.596841E+03	1.418291E-02	5.475449E-07
4.601600E+03	1.420029E-02	5.482161E-07
4.606359E+03	1.419170E-02	5.478843E-07
4.611118E+03	1.418796E-02	5.477402E-07
4.615877E+03	1.419608E-02	5.480533E-07
4.620636E+03	1.419909E-02	5.481697E-07
4.625395E+03	1.419986E-02	5.481993E-07
4.630154E+03	1.418694E-02	5.477004E-07
4.634913E+03	1.417525E-02	5.472493E-07
4.639672E+03	1.415272E-02	5.463794E-07
4.644431E+03	1.413077E-02	5.455323E-07
4.649190E+03	1.409399E-02	5.441123E-07
4.653949E+03	1.405255E-02	5.425124E-07
4.658708E+03	1.399019E-02	5.401050E-07
4.663467E+03	1.390800E-02	5.369317E-07
4.668226E+03	1.379320E-02	5.324999E-07
4.672985E+03	1.365661E-02	5.272266E-07
4.677744E+03	1.348942E-02	5.207722E-07
4.682503E+03	1.327196E-02	5.123769E-07
4.687262E+03	1.301855E-02	5.025939E-07
4.692011E+03	1.272596E-02	4.912983E-07
4.696770E+03	1.239480E-02	4.785133E-07
4.701529E+03	1.201224E-02	4.637441E-07
4.706288E+03	1.160941E-02	4.481927E-07
4.711047E+03	1.119465E-02	4.321804E-07
4.715806E+03	1.080156E-02	4.170048E-07
4.720565E+03	1.044731E-02	4.033286E-07
4.725325E+03	1.012715E-02	3.909685E-07
4.730084E+03	9.873337E-03	3.811699E-07
4.734843E+03	9.677616E-03	3.736138E-07
4.739602E+03	9.559606E-03	3.690580E-07
4.744361E+03	9.521951E-03	3.676043E-07
4.749120E+03	9.573554E-03	3.695965E-07
4.753879E+03	9.708880E-03	3.748208E-07
4.758638E+03	9.926227E-03	3.832117E-07
4.763397E+03	1.022711E-02	3.948276E-07
4.768156E+03	1.059103E-02	4.088769E-07
4.772915E+03	1.100662E-02	4.249213E-07
4.777674E+03	1.147423E-02	4.429741E-07
4.782433E+03	1.199053E-02	4.629061E-07
4.787192E+03	1.255809E-02	4.848175E-07
4.791951E+03	1.313243E-02	5.069902E-07
4.796710E+03	1.371687E-02	5.295535E-07
4.801469E+03	1.428972E-02	5.516687E-07
4.806228E+03	1.482424E-02	5.723046E-07
4.810987E+03	1.533264E-02	5.919318E-07
4.815746E+03	1.578850E-02	6.095305E-07
4.820505E+03	1.618386E-02	6.247939E-07
4.825264E+03	1.651679E-02	6.376469E-07
4.830023E+03	1.677402E-02	6.475777E-07
4.834782E+03	1.696196E-02	6.548334E-07
4.839541E+03	1.708058E-02	6.594127E-07
4.844300E+03	1.714918E-02	6.620612E-07
4.849049E+03	1.716775E-02	6.627778E-07
4.853808E+03	1.712658E-02	6.611884E-07
4.858567E+03	1.703049E-02	6.574791E-07
4.863326E+03	1.690527E-02	6.526445E-07
4.868085E+03	1.674606E-02	6.464983E-07
4.872844E+03	1.656738E-02	6.396001E-07
4.877603E+03	1.636438E-02	6.317630E-07
4.882362E+03	1.613222E-02	6.228005E-07
4.887121E+03	1.589042E-02	6.134656E-07
4.891880E+03	1.563173E-02	6.034783E-07
4.896639E+03	1.537016E-02	5.933803E-07
4.901398E+03	1.507525E-02	5.819949E-07
4.906157E+03	1.475182E-02	5.695086E-07
4.910916E+03	1.442666E-02	5.569556E-07
4.915675E+03	1.411124E-02	5.447784E-07
4.920434E+03	1.380169E-02	5.328279E-07
4.925193E+03	1.352433E-02	5.221202E-07
4.929952E+03	1.329353E-02	5.132099E-07
4.934711E+03	1.311803E-02	5.064344E-07
4.939470E+03	1.300252E-02	5.019752E-07
4.944229E+03	1.293167E-02	4.992402E-07
4.948988E+03	1.291341E-02	4.985351E-07
4.953747E+03	1.292224E-02	4.988759E-07
4.958506E+03	1.296009E-02	5.003373E-07
4.963265E+03	1.302133E-02	5.027016E-07
4.968024E+03	1.309675E-02	5.056132E-07
4.972783E+03	1.316891E-02	5.083989E-07
4.977542E+03	1.323168E-02	5.108222E-07
4.982301E+03	1.330638E-02	5.137059E-07
4.987060E+03	1.337088E-02	5.161960E-07
4.991819E+03	1.339143E-02	5.169894E-07
4.996578E+03	1.339095E-02	5.169711E-07
5.001337E+03	1.333990E-02	5.150003E-07
5.006086E+03	1.323731E-02	5.110398E-07
5.010845E+03	1.311080E-02	5.061555E-07
5.015604E+03	1.293434E-02	4.993431E-07
5.020363E+03	1.273655E-02	4.917072E-07
5.025122E+03	1.251063E-02	4.829853E-07
5.029881E+03	1.226321E-02	4.734334E-07
5.034640E+03	1.201027E-02	4.636687E-07
5.039399E+03	1.175636E-02	4.538663E-07
5.044158E+03	1.150454E-02	4.441443E-07
5.048917E+03	1.126029E-02	4.347149E-07
5.053676E+03	1.102719E-02	4.257159E-07
5.058435E+03	1.081072E-02	4.173588E-07
5.063194E+03	1.063544E-02	4.105917E-07
5.067953E+03	1.049764E-02	4.052719E-07
5.072712E+03	1.040135E-02	4.015547E-07
5.077471E+03	1.034578E-02	3.994095E-07
5.082230E+03	1.033449E-02	3.989734E-07
5.086989E+03	1.038363E-02	4.008706E-07
5.091748E+03	1.046929E-02	4.041776E-07
5.096507E+03	1.059069E-02	4.088642E-07
5.101266E+03	1.072276E-02	4.139628E-07
5.106025E+03	1.084919E-02	4.188439E-07
5.110784E+03	1.100134E-02	4.247180E-07
5.115543E+03	1.115546E-02	4.306680E-07
5.120302E+03	1.127358E-02	4.352279E-07
5.125061E+03	1.139754E-02	4.400136E-07
5.129820E+03	1.151862E-02	4.446881E-07
5.134579E+03	1.162471E-02	4.487837E-07
5.139338E+03	1.171953E-02	4.524442E-07
5.144097E+03	1.178481E-02	4.549644E-07
5.148856E+03	1.182200E-02	4.564003E-07
5.153615E+03	1.184129E-02	4.571449E-07
5.158374E+03	1.183022E-02	4.567179E-07
5.163123E+03	1.180369E-02	4.556933E-07
5.167882E+03	1.177136E-02	4.544454E-07
5.172641E+03	1.172614E-02	4.526998E-07
5.177400E+03	1.168031E-02	4.509304E-07
5.182159E+03	1.163856E-02	4.493186E-07
5.186918E+03	1.159137E-02	4.474965E-07
5.191677E+03	1.153757E-02	4.454197E-07
5.196436E+03	1.148981E-02	4.435757E-07
5.201195E+03	1.143950E-02	4.416337E-07
5.205954E+03	1.139004E-02	4.397242E-07
5.210713E+03	1.135292E-02	4.382912E-07
5.215472E+03	1.132654E-02	4.372726E-07
5.220231E+03	1.131363E-02	4.367742E-07
5.224990E+03	1.130369E-02	4.363905E-07
5.229749E+03	1.130725E-02	4.365279E-07
5.234508E+03	1.132219E-02	4.371049E-07
5.239267E+03	1.134142E-02	4.378473E-07
5.244026E+03	1.136315E-02	4.386859E-07
5.248785E+03	1.137199E-02	4.390274E-07
5.253544E+03	1.138091E-02	4.393719E-07
5.258303E+03	1.138165E-02	4.394003E-07
5.263062E+03	1.139219E-02	4.398071E-07
5.267821E+03	1.140653E-02	4.403608E-07
5.272580E+03	1.140815E-02	4.404233E-07
5.277339E+03	1.140661E-02	4.403640E-07
5.282098E+03	1.140338E-02	4.402391E-07
5.286857E+03	1.139617E-02	4.399608E-07
5.291616E+03	1.136780E-02	4.388655E-07
5.296375E+03	1.134243E-02	4.378860E-07
5.301134E+03	1.130059E-02	4.362711E-07
5.305893E+03	1.126304E-02	4.348213E-07
5.310652E+03	1.123060E-02	4.335690E-07
5.315411E+03	1.118932E-02	4.319752E-07
5.320160E+03	1.113495E-02	4.298761E-07
5.324919E+03	1.108683E-02	4.280184E-07
5.329678E+03	1.103813E-02	4.261384E-07
5.334437E+03	1.098627E-02	4.241362E-07
5.339196E+03	1.094162E-02	4.224127E-07
5.343955E+03	1.088795E-02	4.203406E-07
5.348714E+03	1.083972E-02	4.184785E-07
5.353473E+03	1.078636E-02	4.164186E-07
5.358232E+03	1.072136E-02	4.139094E-07
5.362991E+03	1.065349E-02	4.112891E-07
5.367750E+03	1.057804E-02	4.083761E-07
5.372510E+03	1.051030E-02	4.057612E-07
5.377269E+03	1.044964E-02	4.034192E-07
5.382028E+03	1.039557E-02	4.013317E-07
5.386787E+03	1.034597E-02	3.994170E-07
5.391546E+03	1.029108E-02	3.972977E-07
5.396305E+03	1.025029E-02	3.957232E-07
5.401064E+03	1.021809E-02	3.944802E-07
5.405823E+03	1.017782E-02	3.929254E-07
5.410582E+03	1.014188E-02	3.915379E-07
5.415341E+03	1.011127E-02	3.903561E-07
5.420100E+03	1.008927E-02	3.895068E-07
5.424859E+03	1.008161E-02	3.892112E-07
5.429618E+03	1.008326E-02	3.892747E-07
5.434377E+03	1.007815E-02	3.890774E-07
5.439136E+03	1.007758E-02	3.890557E-07
5.443895E+03	1.008241E-02	3.892420E-07
5.448654E+03	1.007471E-02	3.889448E-07
5.453413E+03	1.007306E-02	3.888809E-07
5.458172E+03	1.006461E-02	3.885547E-07
5.462931E+03	1.006564E-02	3.885948E-07
5.467690E+03	1.005858E-02	3.883219E-07
5.472449E+03	1.005013E-02	3.879958E-07
5.477198E+03	1.003387E-02	3.873680E-07
5.481957E+03	1.000781E-02	3.863620E-07
5.486716E+03	9.976887E-03	3.851682E-07
5.491475E+03	9.935129E-03	3.835561E-07
5.496234E+03	9.906148E-03	3.824372E-07
5.500993E+03	9.860527E-03	3.806760E-07
5.505752E+03	9.820232E-03	3.791204E-07
5.510511E+03	9.783956E-03	3.777199E-07
5.515270E+03	9.738784E-03	3.759760E-07
5.520029E+03	9.702578E-03	3.745782E-07
