#wls	flux	fluxerr
1.596313E+03	9.888544E-06	5.752059E-09
1.636220E+03	1.009282E-05	5.870885E-09
1.676128E+03	1.030233E-05	5.992755E-09
1.716036E+03	1.052035E-05	6.119574E-09
1.755944E+03	1.074395E-05	6.249637E-09
1.795852E+03	1.097580E-05	6.384507E-09
1.835759E+03	1.121219E-05	6.522007E-09
1.875667E+03	1.145524E-05	6.663391E-09
1.915575E+03	1.170391E-05	6.808036E-09
1.955483E+03	1.195425E-05	6.953658E-09
1.995391E+03	1.221308E-05	7.104217E-09
2.035298E+03	1.247776E-05	7.258175E-09
2.075206E+03	1.276019E-05	7.422463E-09
2.115114E+03	1.307410E-05	7.605065E-09
2.155022E+03	1.343373E-05	7.814253E-09
2.194930E+03	1.385018E-05	8.056500E-09
2.234838E+03	1.431870E-05	8.329035E-09
2.274745E+03	1.483187E-05	8.627539E-09
2.314653E+03	1.538554E-05	8.949602E-09
2.354561E+03	1.597179E-05	9.290619E-09
2.394469E+03	1.659312E-05	9.652040E-09
2.434377E+03	1.725124E-05	1.003486E-08
2.474284E+03	1.794955E-05	1.044106E-08
2.514192E+03	1.869250E-05	1.087323E-08
2.554100E+03	1.948528E-05	1.133438E-08
2.594008E+03	2.033770E-05	1.183022E-08
2.633916E+03	2.125651E-05	1.236468E-08
2.673823E+03	2.224501E-05	1.293968E-08
2.713731E+03	2.331984E-05	1.356490E-08
2.753639E+03	2.448634E-05	1.424344E-08
2.793547E+03	2.575969E-05	1.498413E-08
2.833455E+03	2.715238E-05	1.579425E-08
2.873363E+03	2.867862E-05	1.668204E-08
2.913270E+03	3.035956E-05	1.765983E-08
2.953178E+03	3.220890E-05	1.873556E-08
2.993086E+03	3.425814E-05	1.992759E-08
3.003063E+03	3.480400E-05	2.024510E-08
3.013040E+03	3.536735E-05	2.057280E-08
3.023017E+03	3.593764E-05	2.090453E-08
3.032994E+03	3.653189E-05	2.125020E-08
3.042971E+03	3.713403E-05	2.160046E-08
3.052948E+03	3.775585E-05	2.196216E-08
3.062925E+03	3.839789E-05	2.233563E-08
3.072902E+03	3.905482E-05	2.271776E-08
3.082879E+03	3.972700E-05	2.310876E-08
3.092856E+03	4.042077E-05	2.351232E-08
3.102832E+03	4.113666E-05	2.392874E-08
3.112809E+03	4.186917E-05	2.435484E-08
3.122786E+03	4.261866E-05	2.479081E-08
3.132763E+03	4.339174E-05	2.524049E-08
3.142740E+03	4.418268E-05	2.570058E-08
3.152717E+03	4.499822E-05	2.617496E-08
3.162694E+03	4.583894E-05	2.666400E-08
3.172671E+03	4.669886E-05	2.716421E-08
3.182648E+03	4.757833E-05	2.767578E-08
3.192625E+03	4.848431E-05	2.820278E-08
3.202602E+03	4.941735E-05	2.874552E-08
3.212579E+03	5.037104E-05	2.930027E-08
3.222556E+03	5.135254E-05	2.987120E-08
3.232533E+03	5.235523E-05	3.045445E-08
3.242510E+03	5.338633E-05	3.105423E-08
3.252487E+03	5.443892E-05	3.166650E-08
3.262464E+03	5.552026E-05	3.229551E-08
3.272441E+03	5.663052E-05	3.294133E-08
3.282418E+03	5.776225E-05	3.359964E-08
3.292395E+03	5.892272E-05	3.427468E-08
3.302372E+03	6.010408E-05	3.496186E-08
3.312348E+03	6.132138E-05	3.566994E-08
3.322325E+03	6.255076E-05	3.638506E-08
3.332302E+03	6.381507E-05	3.712049E-08
3.342279E+03	6.509768E-05	3.786657E-08
3.352256E+03	6.639737E-05	3.862258E-08
3.362233E+03	6.772934E-05	3.939737E-08
3.372210E+03	6.907580E-05	4.018059E-08
3.382187E+03	7.044346E-05	4.097614E-08
3.392164E+03	7.182201E-05	4.177802E-08
3.402141E+03	7.321799E-05	4.259004E-08
3.412118E+03	7.462931E-05	4.341099E-08
3.422095E+03	7.604481E-05	4.423437E-08
3.432072E+03	7.747988E-05	4.506913E-08
3.442049E+03	7.891406E-05	4.590337E-08
3.452026E+03	8.035373E-05	4.674081E-08
3.462003E+03	8.178701E-05	4.757453E-08
3.471980E+03	8.322058E-05	4.840841E-08
3.481957E+03	8.465211E-05	4.924111E-08
3.491934E+03	8.607957E-05	5.007144E-08
3.501911E+03	8.750127E-05	5.089843E-08
3.511888E+03	8.890621E-05	5.171566E-08
3.521864E+03	9.030351E-05	5.252845E-08
3.531841E+03	9.169316E-05	5.333679E-08
3.541818E+03	9.307609E-05	5.414122E-08
3.551795E+03	9.445411E-05	5.494279E-08
3.561772E+03	9.581952E-05	5.573703E-08
3.571749E+03	9.719586E-05	5.653762E-08
3.581726E+03	9.856662E-05	5.733497E-08
3.591703E+03	9.994477E-05	5.813662E-08
3.601680E+03	1.013248E-04	5.893936E-08
3.611657E+03	1.026870E-04	5.973173E-08
3.621634E+03	1.040426E-04	6.052026E-08
3.631611E+03	1.053718E-04	6.129347E-08
3.641588E+03	1.066550E-04	6.203983E-08
3.651565E+03	1.078937E-04	6.276041E-08
3.661542E+03	1.090802E-04	6.345056E-08
3.671519E+03	1.102173E-04	6.411201E-08
3.681496E+03	1.112772E-04	6.472852E-08
3.691473E+03	1.122640E-04	6.530250E-08
3.701450E+03	1.131723E-04	6.583086E-08
3.711427E+03	1.139862E-04	6.630429E-08
3.721404E+03	1.147229E-04	6.673282E-08
3.731381E+03	1.153677E-04	6.710791E-08
3.741357E+03	1.159173E-04	6.742756E-08
3.751334E+03	1.163583E-04	6.768409E-08
3.761311E+03	1.167097E-04	6.788853E-08
3.771288E+03	1.169591E-04	6.803359E-08
3.781265E+03	1.170953E-04	6.811280E-08
3.791242E+03	1.171384E-04	6.813784E-08
3.801219E+03	1.170682E-04	6.809702E-08
3.811196E+03	1.169060E-04	6.800264E-08
3.821173E+03	1.166334E-04	6.784407E-08
3.831150E+03	1.162729E-04	6.763439E-08
3.841127E+03	1.158180E-04	6.736977E-08
3.851104E+03	1.152633E-04	6.704710E-08
3.861081E+03	1.146335E-04	6.668070E-08
3.871058E+03	1.139246E-04	6.626839E-08
3.881035E+03	1.131350E-04	6.580904E-08
3.891012E+03	1.122907E-04	6.531792E-08
3.900989E+03	1.113913E-04	6.479472E-08
3.910966E+03	1.104373E-04	6.423979E-08
3.920943E+03	1.094568E-04	6.366943E-08
3.930920E+03	1.084515E-04	6.308463E-08
3.940897E+03	1.074327E-04	6.249204E-08
3.950873E+03	1.064122E-04	6.189836E-08
3.960850E+03	1.054019E-04	6.131068E-08
3.970827E+03	1.044143E-04	6.073618E-08
3.980804E+03	1.034617E-04	6.018208E-08
3.990781E+03	1.025570E-04	5.965580E-08
4.000758E+03	1.017130E-04	5.916482E-08
4.010735E+03	1.009501E-04	5.872101E-08
4.020712E+03	1.002651E-04	5.832254E-08
4.030689E+03	9.967145E-05	5.797721E-08
4.040666E+03	9.917427E-05	5.768798E-08
4.050643E+03	9.878437E-05	5.746115E-08
4.060620E+03	9.848651E-05	5.728785E-08
4.070597E+03	9.829220E-05	5.717479E-08
4.080574E+03	9.818621E-05	5.711311E-08
4.090551E+03	9.817978E-05	5.710933E-08
4.100528E+03	9.825770E-05	5.715462E-08
4.110505E+03	9.843319E-05	5.725666E-08
4.120482E+03	9.870371E-05	5.741397E-08
4.130459E+03	9.906850E-05	5.762612E-08
4.140436E+03	9.954769E-05	5.790481E-08
4.150413E+03	1.001441E-04	5.825169E-08
4.160390E+03	1.008618E-04	5.866910E-08
4.170366E+03	1.017238E-04	5.917047E-08
4.180343E+03	1.027286E-04	5.975485E-08
4.190320E+03	1.038734E-04	6.042071E-08
4.200297E+03	1.051746E-04	6.117751E-08
4.210274E+03	1.066262E-04	6.202182E-08
4.220251E+03	1.082213E-04	6.294962E-08
4.230228E+03	1.099711E-04	6.396737E-08
4.240205E+03	1.118566E-04	6.506401E-08
4.250182E+03	1.138763E-04	6.623876E-08
4.260159E+03	1.160265E-04	6.748941E-08
4.270136E+03	1.182772E-04	6.879849E-08
4.280113E+03	1.206154E-04	7.015845E-08
4.290090E+03	1.230183E-04	7.155605E-08
4.300067E+03	1.254541E-04	7.297281E-08
4.310044E+03	1.278885E-04	7.438871E-08
4.320021E+03	1.302847E-04	7.578241E-08
4.329998E+03	1.325900E-04	7.712327E-08
4.339975E+03	1.347748E-04	7.839396E-08
4.349952E+03	1.367821E-04	7.956145E-08
4.359929E+03	1.385748E-04	8.060411E-08
4.369906E+03	1.401171E-04	8.150111E-08
4.379882E+03	1.413778E-04	8.223434E-08
4.389859E+03	1.423843E-04	8.281968E-08
4.399836E+03	1.431840E-04	8.328472E-08
4.409813E+03	1.438624E-04	8.367921E-08
4.419790E+03	1.444904E-04	8.404439E-08
4.429767E+03	1.451686E-04	8.443880E-08
4.439744E+03	1.459712E-04	8.490554E-08
4.449721E+03	1.469717E-04	8.548743E-08
4.459698E+03	1.482584E-04	8.623577E-08
4.469675E+03	1.498876E-04	8.718334E-08
4.479652E+03	1.519143E-04	8.836214E-08
4.489629E+03	1.543748E-04	8.979326E-08
4.499606E+03	1.573141E-04	9.150290E-08
4.509583E+03	1.607256E-04	9.348721E-08
4.519560E+03	1.646071E-04	9.574489E-08
4.529537E+03	1.689356E-04	9.826258E-08
4.539514E+03	1.736347E-04	1.009959E-07
4.549491E+03	1.786160E-04	1.038933E-07
4.559468E+03	1.837920E-04	1.069040E-07
4.569445E+03	1.890042E-04	1.099357E-07
4.579422E+03	1.941179E-04	1.129103E-07
4.589398E+03	1.989744E-04	1.157351E-07
4.599375E+03	2.034095E-04	1.183149E-07
4.609352E+03	2.073064E-04	1.205817E-07
4.619329E+03	2.105257E-04	1.224543E-07
4.629306E+03	2.131075E-04	1.239561E-07
4.639283E+03	2.151199E-04	1.251267E-07
4.649260E+03	2.166328E-04	1.260068E-07
4.659237E+03	2.177863E-04	1.266778E-07
4.669214E+03	2.187082E-04	1.272142E-07
4.679191E+03	2.195506E-04	1.277043E-07
4.689168E+03	2.204364E-04	1.282196E-07
4.699145E+03	2.215281E-04	1.288547E-07
4.709122E+03	2.229561E-04	1.296854E-07
4.719099E+03	2.248344E-04	1.307780E-07
4.729076E+03	2.272825E-04	1.322021E-07
4.739053E+03	2.303858E-04	1.340072E-07
4.749030E+03	2.342292E-04	1.362429E-07
4.759007E+03	2.388533E-04	1.389326E-07
4.768984E+03	2.443183E-04	1.421115E-07
4.778961E+03	2.505700E-04	1.457479E-07
4.788938E+03	2.575325E-04	1.497978E-07
4.798915E+03	2.650910E-04	1.541943E-07
4.808891E+03	2.730820E-04	1.588425E-07
4.818868E+03	2.812665E-04	1.636031E-07
4.828845E+03	2.893620E-04	1.683120E-07
4.834233E+03	4.008265E-04	2.331471E-07
4.838822E+03	3.996769E-04	2.324784E-07
4.843412E+03	3.967333E-04	2.307662E-07
4.848001E+03	3.930903E-04	2.286472E-07
4.852591E+03	3.883458E-04	2.258874E-07
4.857180E+03	3.829732E-04	2.227623E-07
4.861769E+03	3.772253E-04	2.194189E-07
4.866359E+03	3.724651E-04	2.166500E-07
4.870948E+03	3.684931E-04	2.143396E-07
4.875538E+03	3.644959E-04	2.120145E-07
4.880127E+03	3.615636E-04	2.103089E-07
4.884716E+03	3.592214E-04	2.089465E-07
4.889306E+03	3.555943E-04	2.068366E-07
4.893895E+03	3.513696E-04	2.043792E-07
4.898485E+03	3.460479E-04	2.012837E-07
4.903074E+03	3.408797E-04	1.982775E-07
4.907663E+03	3.344321E-04	1.945271E-07
4.912253E+03	3.255344E-04	1.893515E-07
4.916842E+03	3.146826E-04	1.830394E-07
4.921431E+03	3.030543E-04	1.762756E-07
4.926021E+03	2.927973E-04	1.703094E-07
4.930610E+03	2.845526E-04	1.655136E-07
4.935200E+03	2.786850E-04	1.621006E-07
4.939789E+03	2.731203E-04	1.588638E-07
4.944378E+03	2.664093E-04	1.549602E-07
4.948968E+03	2.573987E-04	1.497189E-07
4.953557E+03	2.497555E-04	1.452731E-07
4.958147E+03	2.454140E-04	1.427477E-07
4.962736E+03	2.453829E-04	1.427296E-07
4.967325E+03	2.476809E-04	1.440661E-07
4.971915E+03	2.513709E-04	1.462123E-07
4.976514E+03	2.537166E-04	1.475766E-07
4.981104E+03	2.587714E-04	1.505167E-07
4.985693E+03	2.664645E-04	1.549913E-07
4.990282E+03	2.726651E-04	1.585978E-07
4.994872E+03	2.789785E-04	1.622699E-07
4.999461E+03	2.866164E-04	1.667124E-07
5.004051E+03	2.962779E-04	1.723320E-07
5.008640E+03	3.063989E-04	1.782188E-07
5.013229E+03	3.159279E-04	1.837612E-07
5.017819E+03	3.247998E-04	1.889214E-07
5.022408E+03	3.318635E-04	1.930298E-07
5.026998E+03	3.375572E-04	1.963414E-07
5.031587E+03	3.399320E-04	1.977225E-07
5.036176E+03	3.395537E-04	1.975023E-07
5.040766E+03	3.361707E-04	1.955343E-07
5.045355E+03	3.290246E-04	1.913776E-07
5.049945E+03	3.194466E-04	1.858063E-07
5.054534E+03	3.080050E-04	1.791511E-07
5.059123E+03	2.957755E-04	1.720376E-07
5.063713E+03	2.827466E-04	1.644592E-07
5.068302E+03	2.699429E-04	1.570117E-07
5.072892E+03	2.583153E-04	1.502483E-07
5.077481E+03	2.468819E-04	1.435979E-07
5.082070E+03	2.360216E-04	1.372809E-07
5.086660E+03	2.271955E-04	1.321470E-07
5.091249E+03	2.200169E-04	1.279714E-07
5.095839E+03	2.143364E-04	1.246673E-07
5.100428E+03	2.077081E-04	1.208118E-07
5.105017E+03	1.995780E-04	1.160828E-07
5.109607E+03	1.914511E-04	1.113557E-07
5.114196E+03	1.845423E-04	1.073371E-07
5.118786E+03	1.804160E-04	1.049369E-07
5.123375E+03	1.787612E-04	1.039742E-07
5.127964E+03	1.792662E-04	1.042678E-07
5.132554E+03	1.813365E-04	1.054717E-07
5.137143E+03	1.850609E-04	1.076378E-07
5.141733E+03	1.905071E-04	1.108053E-07
5.146322E+03	1.965784E-04	1.143363E-07
5.150911E+03	2.042880E-04	1.188203E-07
5.155501E+03	2.139539E-04	1.244420E-07
5.160090E+03	2.256116E-04	1.312222E-07
5.164680E+03	2.378900E-04	1.383635E-07
5.169269E+03	2.504738E-04	1.456823E-07
5.173858E+03	2.632214E-04	1.530963E-07
5.178448E+03	2.746485E-04	1.597423E-07
5.183037E+03	2.852119E-04	1.658858E-07
5.187627E+03	2.941457E-04	1.710816E-07
5.192216E+03	3.016989E-04	1.754743E-07
5.196805E+03	3.079793E-04	1.791267E-07
5.201395E+03	3.119892E-04	1.814586E-07
5.205984E+03	3.147000E-04	1.830348E-07
5.210574E+03	3.162961E-04	1.839627E-07
5.215163E+03	3.172907E-04	1.845407E-07
5.219752E+03	3.174748E-04	1.846474E-07
5.224342E+03	3.173299E-04	1.845627E-07
5.228931E+03	3.165923E-04	1.841332E-07
5.233521E+03	3.146794E-04	1.830202E-07
5.238110E+03	3.126548E-04	1.818422E-07
5.242709E+03	3.094970E-04	1.800052E-07
5.247299E+03	3.049622E-04	1.773672E-07
5.251888E+03	3.004452E-04	1.747397E-07
5.256478E+03	2.964078E-04	1.723911E-07
5.261067E+03	2.930928E-04	1.704626E-07
5.265656E+03	2.905892E-04	1.690061E-07
5.270246E+03	2.891845E-04	1.681886E-07
5.274835E+03	2.898493E-04	1.685749E-07
5.279425E+03	2.917490E-04	1.696793E-07
5.284014E+03	2.943338E-04	1.711820E-07
5.288603E+03	2.974608E-04	1.730002E-07
5.293193E+03	3.012855E-04	1.752242E-07
5.297782E+03	3.048371E-04	1.772892E-07
5.302372E+03	3.079164E-04	1.790796E-07
5.306961E+03	3.100143E-04	1.802992E-07
5.311550E+03	3.118372E-04	1.813588E-07
5.316140E+03	3.129312E-04	1.819945E-07
5.320729E+03	3.138265E-04	1.825147E-07
5.325319E+03	3.152204E-04	1.833248E-07
5.329908E+03	3.151309E-04	1.832722E-07
5.334497E+03	3.141987E-04	1.827296E-07
5.339087E+03	3.128443E-04	1.819413E-07
5.343676E+03	3.126524E-04	1.818292E-07
5.348266E+03	3.126815E-04	1.818456E-07
5.352855E+03	3.118779E-04	1.813777E-07
5.357444E+03	3.106178E-04	1.806444E-07
5.362034E+03	3.100113E-04	1.802911E-07
5.366623E+03	3.092927E-04	1.798727E-07
5.371212E+03	3.089285E-04	1.796603E-07
5.375802E+03	3.091414E-04	1.797836E-07
5.380391E+03	3.106888E-04	1.806830E-07
5.384981E+03	3.134384E-04	1.822816E-07
5.389570E+03	3.167685E-04	1.842176E-07
5.394159E+03	3.202338E-04	1.862324E-07
5.398749E+03	3.242471E-04	1.885658E-07
5.403338E+03	3.281066E-04	1.908098E-07
5.407928E+03	3.314217E-04	1.927372E-07
5.412517E+03	3.342031E-04	1.943542E-07
5.417106E+03	3.373985E-04	1.962119E-07
5.421696E+03	3.404612E-04	1.979925E-07
5.426285E+03	3.427658E-04	1.993322E-07
5.430875E+03	3.435964E-04	1.998147E-07
5.435464E+03	3.427836E-04	1.993416E-07
5.440053E+03	3.420809E-04	1.989325E-07
5.444643E+03	3.418908E-04	1.988214E-07
5.449232E+03	3.411846E-04	1.984103E-07
5.453822E+03	3.400625E-04	1.977574E-07
5.458411E+03	3.394531E-04	1.974026E-07
5.463000E+03	3.384387E-04	1.968123E-07
5.467590E+03	3.367724E-04	1.958429E-07
5.472179E+03	3.358318E-04	1.952956E-07
5.476769E+03	3.358755E-04	1.953207E-07
5.481358E+03	3.368483E-04	1.958861E-07
5.485947E+03	3.386950E-04	1.969597E-07
5.490537E+03	3.411357E-04	1.983787E-07
5.495126E+03	3.438567E-04	1.999608E-07
5.499716E+03	3.461507E-04	2.012946E-07
5.504305E+03	3.491742E-04	2.030527E-07
5.508904E+03	3.525009E-04	2.049870E-07
5.513494E+03	3.566137E-04	2.073786E-07
5.518083E+03	3.613672E-04	2.101428E-07
5.522673E+03	3.641983E-04	2.117891E-07
5.527262E+03	3.661290E-04	2.129118E-07
5.531851E+03	3.672600E-04	2.135694E-07
5.536441E+03	3.681530E-04	2.140888E-07
5.541030E+03	3.681329E-04	2.140772E-07
5.545620E+03	3.660394E-04	2.128599E-07
5.550209E+03	3.624567E-04	2.107765E-07
5.554798E+03	3.572148E-04	2.077284E-07
5.559388E+03	3.504143E-04	2.037740E-07
5.563977E+03	3.425498E-04	1.992008E-07
5.568567E+03	3.344100E-04	1.944675E-07
5.573156E+03	3.276972E-04	1.905641E-07
5.577745E+03	3.223560E-04	1.874583E-07
5.582335E+03	3.171016E-04	1.844030E-07
5.586924E+03	3.115959E-04	1.812015E-07
5.591514E+03	3.065722E-04	1.782804E-07
5.596103E+03	3.016360E-04	1.754101E-07
5.600692E+03	2.970469E-04	1.727417E-07
5.605282E+03	2.935504E-04	1.707087E-07
5.609871E+03	2.910909E-04	1.692788E-07
5.614461E+03	2.892851E-04	1.682290E-07
5.619050E+03	2.871390E-04	1.669813E-07
5.623639E+03	2.845624E-04	1.654832E-07
5.628229E+03	2.834197E-04	1.648190E-07
5.632818E+03	2.843786E-04	1.653771E-07
5.637408E+03	2.860726E-04	1.663626E-07
5.641997E+03	2.876992E-04	1.673089E-07
5.646586E+03	2.895637E-04	1.683935E-07
5.651176E+03	2.912817E-04	1.693930E-07
5.655765E+03	2.921064E-04	1.698730E-07
5.660355E+03	2.925919E-04	1.701557E-07
5.664944E+03	2.939377E-04	1.709388E-07
5.669533E+03	2.948992E-04	1.714983E-07
5.674123E+03	2.955214E-04	1.718606E-07
5.678712E+03	2.965403E-04	1.724535E-07
5.683302E+03	2.978769E-04	1.732312E-07
5.687891E+03	2.991009E-04	1.739435E-07
5.692480E+03	2.997703E-04	1.743332E-07
5.697070E+03	3.010295E-04	1.750659E-07
5.701659E+03	3.028564E-04	1.761288E-07
5.706249E+03	3.045256E-04	1.770999E-07
5.710838E+03	3.064792E-04	1.782365E-07
5.715427E+03	3.082639E-04	1.792748E-07
5.720017E+03	3.098002E-04	1.801687E-07
5.724606E+03	3.118821E-04	1.813799E-07
5.729196E+03	3.135227E-04	1.823344E-07
5.733785E+03	3.147445E-04	1.830454E-07
5.738374E+03	3.146617E-04	1.829976E-07
5.742964E+03	3.124897E-04	1.817349E-07
5.747553E+03	3.078639E-04	1.790450E-07
5.752143E+03	3.006464E-04	1.748479E-07
5.756732E+03	2.904378E-04	1.689112E-07
5.761321E+03	2.783726E-04	1.618948E-07
5.765911E+03	2.641428E-04	1.536194E-07
5.770500E+03	2.477127E-04	1.440643E-07
5.775100E+03	2.286601E-04	1.329840E-07
5.779689E+03	2.072671E-04	1.205425E-07
5.784278E+03	1.860243E-04	1.081883E-07
5.788868E+03	1.655576E-04	9.628544E-08
5.793457E+03	1.454347E-04	8.458246E-08
5.798047E+03	1.263162E-04	7.346358E-08
5.802636E+03	1.099384E-04	6.393862E-08
5.807225E+03	9.681823E-05	5.630819E-08
5.811815E+03	8.757076E-05	5.093007E-08
5.816404E+03	8.276773E-05	4.813676E-08
5.820994E+03	8.390590E-05	4.879879E-08
5.825583E+03	9.209371E-05	5.356081E-08
5.830172E+03	1.058263E-04	6.154766E-08
5.834762E+03	1.258282E-04	7.318069E-08
5.839351E+03	1.528304E-04	8.888503E-08
5.843940E+03	1.847906E-04	1.074730E-07
5.848530E+03	2.211081E-04	1.285952E-07
5.853119E+03	2.610329E-04	1.518154E-07
5.857709E+03	3.025460E-04	1.759594E-07
5.862298E+03	3.446665E-04	2.004567E-07
5.866887E+03	3.864693E-04	2.247693E-07
5.871477E+03	4.262165E-04	2.478863E-07
5.876066E+03	4.631404E-04	2.693614E-07
5.880656E+03	4.955912E-04	2.882350E-07
5.885245E+03	5.226267E-04	3.039590E-07
5.889834E+03	5.438761E-04	3.163178E-07
5.894424E+03	5.578912E-04	3.244692E-07
5.899013E+03	5.653184E-04	3.287891E-07
5.903603E+03	5.672175E-04	3.298938E-07
5.908192E+03	5.634227E-04	3.276868E-07
5.912781E+03	5.547540E-04	3.226453E-07
5.917371E+03	5.422505E-04	3.153733E-07
5.921960E+03	5.260345E-04	3.059421E-07
5.926550E+03	5.066644E-04	2.946766E-07
5.931139E+03	4.852508E-04	2.822224E-07
5.935728E+03	4.633305E-04	2.694736E-07
5.940318E+03	4.418564E-04	2.569842E-07
5.944907E+03	4.209437E-04	2.448213E-07
5.949497E+03	4.017770E-04	2.336740E-07
5.954086E+03	3.849909E-04	2.239111E-07
5.958675E+03	3.698972E-04	2.151325E-07
5.963265E+03	3.568774E-04	2.075601E-07
5.967854E+03	3.466133E-04	2.015904E-07
5.972444E+03	3.388312E-04	1.970643E-07
5.977033E+03	3.340295E-04	1.942716E-07
5.981622E+03	3.314970E-04	1.927985E-07
5.986212E+03	3.299441E-04	1.918952E-07
5.990801E+03	3.293146E-04	1.915290E-07
5.995391E+03	3.298172E-04	1.918211E-07
5.999980E+03	3.299752E-04	1.919129E-07
6.004569E+03	3.290719E-04	1.913873E-07
6.009159E+03	3.268516E-04	1.900958E-07
6.013748E+03	3.238679E-04	1.883603E-07
6.018338E+03	3.203739E-04	1.863280E-07
6.022927E+03	3.163575E-04	1.839918E-07
6.027516E+03	3.129410E-04	1.820046E-07
6.032106E+03	3.096503E-04	1.800905E-07
6.036695E+03	3.063579E-04	1.781754E-07
6.041295E+03	3.031338E-04	1.763000E-07
6.045884E+03	2.997801E-04	1.743493E-07
6.050473E+03	2.967263E-04	1.725730E-07
6.055063E+03	2.939728E-04	1.709713E-07
6.059652E+03	2.915663E-04	1.695714E-07
6.064242E+03	2.897862E-04	1.685358E-07
6.068831E+03	2.887032E-04	1.679056E-07
6.073420E+03	2.882484E-04	1.676407E-07
6.078010E+03	2.893652E-04	1.682899E-07
6.082599E+03	2.917997E-04	1.697054E-07
6.087189E+03	2.951930E-04	1.716785E-07
6.091778E+03	3.007349E-04	1.749012E-07
6.096367E+03	3.076012E-04	1.788940E-07
6.100957E+03	3.154203E-04	1.834410E-07
6.105546E+03	3.243923E-04	1.886584E-07
6.110136E+03	3.331645E-04	1.937596E-07
6.114725E+03	3.416314E-04	1.986832E-07
6.119314E+03	3.500616E-04	2.035854E-07
6.123904E+03	3.581392E-04	2.082825E-07
6.128493E+03	3.660744E-04	2.128968E-07
6.133083E+03	3.735509E-04	2.172442E-07
6.137672E+03	3.797715E-04	2.208612E-07
6.142261E+03	3.845233E-04	2.236240E-07
6.146851E+03	3.876279E-04	2.254287E-07
6.151440E+03	3.889536E-04	2.261990E-07
6.156030E+03	3.884857E-04	2.259261E-07
6.160619E+03	3.859982E-04	2.244788E-07
6.165208E+03	3.821457E-04	2.222375E-07
6.169798E+03	3.770200E-04	2.192559E-07
