#wls	flux	fluxerr
1.600000E+03	4.894915E-15	2.415673E-17
1.640000E+03	5.030543E-15	2.482606E-17
1.680000E+03	5.176506E-15	2.554640E-17
1.720000E+03	5.333448E-15	2.632091E-17
1.760000E+03	5.502572E-15	2.715555E-17
1.800000E+03	5.684565E-15	2.805370E-17
1.840000E+03	5.880683E-15	2.902155E-17
1.880000E+03	6.092213E-15	3.006547E-17
1.920000E+03	6.319942E-15	3.118932E-17
1.960000E+03	6.565237E-15	3.239987E-17
2.000000E+03	6.829525E-15	3.370415E-17
2.040000E+03	7.114292E-15	3.510949E-17
2.080000E+03	7.420549E-15	3.662089E-17
2.120000E+03	7.749933E-15	3.824642E-17
2.160000E+03	8.103075E-15	3.998920E-17
2.200000E+03	8.480700E-15	4.185280E-17
2.240000E+03	8.881416E-15	4.383036E-17
2.280000E+03	9.303917E-15	4.591543E-17
2.320000E+03	9.753137E-15	4.813236E-17
2.360000E+03	1.023647E-14	5.051763E-17
2.400000E+03	1.076044E-14	5.310345E-17
2.440000E+03	1.133072E-14	5.591784E-17
2.480000E+03	1.195273E-14	5.898747E-17
2.520000E+03	1.263271E-14	6.234325E-17
2.560000E+03	1.337612E-14	6.601201E-17
2.600000E+03	1.418982E-14	7.002765E-17
2.640000E+03	1.507981E-14	7.441980E-17
2.680000E+03	1.605107E-14	7.921305E-17
2.720000E+03	1.710987E-14	8.443831E-17
2.760000E+03	1.826055E-14	9.011699E-17
2.800000E+03	1.950646E-14	9.626563E-17
2.840000E+03	2.084898E-14	1.028910E-16
2.880000E+03	2.228822E-14	1.099938E-16
2.920000E+03	2.382646E-14	1.175851E-16
2.960000E+03	2.547100E-14	1.257010E-16
3.000000E+03	2.722961E-14	1.343799E-16
3.010000E+03	2.768762E-14	1.366402E-16
3.020000E+03	2.815423E-14	1.389429E-16
3.030000E+03	2.862799E-14	1.412809E-16
3.040000E+03	2.910942E-14	1.436568E-16
3.050000E+03	2.959971E-14	1.460764E-16
3.060000E+03	3.009742E-14	1.485327E-16
3.070000E+03	3.060378E-14	1.510316E-16
3.080000E+03	3.111868E-14	1.535726E-16
3.090000E+03	3.164208E-14	1.561557E-16
3.100000E+03	3.217398E-14	1.587806E-16
3.110000E+03	3.271575E-14	1.614543E-16
3.120000E+03	3.220098E-14	1.589138E-16
3.122000E+03	3.240996E-14	1.599452E-16
3.124000E+03	3.255840E-14	1.606777E-16
3.126000E+03	3.263806E-14	1.610709E-16
3.128000E+03	3.277230E-14	1.617333E-16
3.130000E+03	3.294290E-14	1.625753E-16
3.132000E+03	3.310992E-14	1.633995E-16
3.134000E+03	3.331038E-14	1.643888E-16
3.136000E+03	3.361296E-14	1.658820E-16
3.138000E+03	3.388670E-14	1.672330E-16
3.140000E+03	3.415863E-14	1.685750E-16
3.142000E+03	3.437529E-14	1.696442E-16
3.144000E+03	3.449675E-14	1.702436E-16
3.146000E+03	3.471094E-14	1.713007E-16
3.148000E+03	3.492683E-14	1.723661E-16
3.150000E+03	3.512445E-14	1.733413E-16
3.152000E+03	3.528619E-14	1.741396E-16
3.154000E+03	3.547428E-14	1.750678E-16
3.156000E+03	3.565174E-14	1.759436E-16
3.158000E+03	3.580741E-14	1.767118E-16
3.160000E+03	3.602290E-14	1.777753E-16
3.162000E+03	3.621131E-14	1.787051E-16
3.164000E+03	3.642314E-14	1.797505E-16
3.166000E+03	3.657325E-14	1.804913E-16
3.168000E+03	3.672152E-14	1.812230E-16
3.170000E+03	3.689791E-14	1.820935E-16
3.172000E+03	3.706483E-14	1.829172E-16
3.174000E+03	3.720173E-14	1.835929E-16
3.176000E+03	3.735618E-14	1.843551E-16
3.178000E+03	3.762617E-14	1.856875E-16
3.180000E+03	3.780921E-14	1.865908E-16
3.182000E+03	3.798278E-14	1.874474E-16
3.184000E+03	3.818151E-14	1.884281E-16
3.186000E+03	3.831853E-14	1.891044E-16
3.188000E+03	3.842497E-14	1.896296E-16
3.190000E+03	3.860937E-14	1.905396E-16
3.192000E+03	3.879250E-14	1.914434E-16
3.194000E+03	3.904771E-14	1.927029E-16
3.196000E+03	3.931983E-14	1.940458E-16
3.198000E+03	3.944051E-14	1.946414E-16
3.200000E+03	3.960979E-14	1.954768E-16
3.202000E+03	3.977956E-14	1.963146E-16
3.204000E+03	3.985307E-14	1.966774E-16
3.206000E+03	4.000566E-14	1.974304E-16
3.208000E+03	4.012592E-14	1.980239E-16
3.210000E+03	4.019506E-14	1.983651E-16
3.212000E+03	4.031044E-14	1.989346E-16
3.214000E+03	4.037122E-14	1.992345E-16
3.216000E+03	4.036918E-14	1.992244E-16
3.218000E+03	4.040752E-14	1.994136E-16
3.220000E+03	4.031860E-14	1.989748E-16
3.222000E+03	4.036266E-14	1.991922E-16
3.224000E+03	4.028181E-14	1.987932E-16
3.226000E+03	4.018801E-14	1.983303E-16
3.228000E+03	4.009825E-14	1.978874E-16
3.230000E+03	4.016546E-14	1.982190E-16
3.232000E+03	4.015817E-14	1.981831E-16
3.234000E+03	4.006588E-14	1.977276E-16
3.236000E+03	3.997706E-14	1.972893E-16
3.238000E+03	3.990632E-14	1.969402E-16
3.240000E+03	3.986949E-14	1.967584E-16
3.242000E+03	3.977463E-14	1.962903E-16
3.244000E+03	3.961823E-14	1.955185E-16
3.246000E+03	3.950101E-14	1.949400E-16
3.248000E+03	3.958393E-14	1.953492E-16
3.250000E+03	3.959126E-14	1.953853E-16
3.252000E+03	3.952653E-14	1.950659E-16
3.254000E+03	3.948222E-14	1.948472E-16
3.256000E+03	3.945246E-14	1.947004E-16
3.258000E+03	3.945481E-14	1.947120E-16
3.260000E+03	3.942492E-14	1.945644E-16
3.262000E+03	3.935167E-14	1.942029E-16
3.264000E+03	3.934152E-14	1.941528E-16
3.266000E+03	3.929271E-14	1.939120E-16
3.268000E+03	3.925259E-14	1.937140E-16
3.270000E+03	3.926268E-14	1.937638E-16
3.272000E+03	3.918852E-14	1.933978E-16
3.274000E+03	3.918385E-14	1.933748E-16
3.276000E+03	3.933220E-14	1.941068E-16
3.278000E+03	3.942666E-14	1.945730E-16
3.280000E+03	3.952103E-14	1.950387E-16
3.282000E+03	3.968712E-14	1.958584E-16
3.284000E+03	3.992901E-14	1.970521E-16
3.286000E+03	4.009659E-14	1.978792E-16
3.288000E+03	4.023250E-14	1.985499E-16
3.290000E+03	4.034902E-14	1.991249E-16
3.292000E+03	4.056174E-14	2.001747E-16
3.294000E+03	4.093652E-14	2.020243E-16
3.296000E+03	4.124809E-14	2.035619E-16
3.298000E+03	4.155071E-14	2.050554E-16
3.300000E+03	4.191323E-14	2.068444E-16
3.302000E+03	4.231403E-14	2.088224E-16
3.304000E+03	4.273211E-14	2.108856E-16
3.306000E+03	4.321058E-14	2.132469E-16
3.308000E+03	4.367830E-14	2.155551E-16
3.310000E+03	4.411429E-14	2.177068E-16
3.312000E+03	4.466249E-14	2.204122E-16
3.314000E+03	4.518303E-14	2.229810E-16
3.316000E+03	4.571317E-14	2.255974E-16
3.318000E+03	4.624244E-14	2.282093E-16
3.320000E+03	4.683663E-14	2.311417E-16
3.322000E+03	4.742351E-14	2.340380E-16
3.324000E+03	4.802811E-14	2.370217E-16
3.326000E+03	4.872780E-14	2.404747E-16
3.328000E+03	4.934101E-14	2.435010E-16
3.330000E+03	4.995096E-14	2.465111E-16
3.332000E+03	5.058788E-14	2.496543E-16
3.334000E+03	5.125236E-14	2.529336E-16
3.336000E+03	5.191528E-14	2.562051E-16
3.338000E+03	5.257723E-14	2.594719E-16
3.340000E+03	5.325680E-14	2.628256E-16
3.342000E+03	5.404461E-14	2.667135E-16
3.344000E+03	5.478549E-14	2.703698E-16
3.346000E+03	5.551953E-14	2.739923E-16
3.348000E+03	5.626939E-14	2.776929E-16
3.350000E+03	5.701937E-14	2.813942E-16
3.352000E+03	5.773986E-14	2.849498E-16
3.354000E+03	5.849528E-14	2.886779E-16
3.356000E+03	5.921310E-14	2.922203E-16
3.358000E+03	5.988985E-14	2.955601E-16
3.360000E+03	6.059513E-14	2.990407E-16
3.362000E+03	6.129414E-14	3.024904E-16
3.364000E+03	6.196368E-14	3.057946E-16
3.366000E+03	6.262116E-14	3.090393E-16
3.368000E+03	6.333032E-14	3.125391E-16
3.370000E+03	6.399842E-14	3.158362E-16
3.372000E+03	6.466025E-14	3.191024E-16
3.374000E+03	6.535632E-14	3.225375E-16
3.376000E+03	6.599979E-14	3.257131E-16
3.378000E+03	6.676427E-14	3.294858E-16
3.380000E+03	6.744141E-14	3.328275E-16
3.382000E+03	6.815273E-14	3.363380E-16
3.384000E+03	6.889242E-14	3.399884E-16
3.386000E+03	6.966043E-14	3.437785E-16
3.388000E+03	7.042207E-14	3.475373E-16
3.390000E+03	7.115423E-14	3.511506E-16
3.392000E+03	7.185692E-14	3.546184E-16
3.394000E+03	7.254172E-14	3.579979E-16
3.396000E+03	7.330100E-14	3.617450E-16
3.398000E+03	7.404810E-14	3.654320E-16
3.400000E+03	7.473111E-14	3.688027E-16
3.402000E+03	7.544239E-14	3.723129E-16
3.404000E+03	7.622223E-14	3.761614E-16
3.406000E+03	7.697834E-14	3.798929E-16
3.408000E+03	7.761856E-14	3.830524E-16
3.410000E+03	7.829274E-14	3.863795E-16
3.412000E+03	7.894903E-14	3.896184E-16
3.414000E+03	7.952985E-14	3.924848E-16
3.416000E+03	8.011009E-14	3.953483E-16
3.418000E+03	8.066098E-14	3.980670E-16
3.420000E+03	8.121131E-14	4.007828E-16
3.422000E+03	8.173229E-14	4.033539E-16
3.424000E+03	8.218949E-14	4.056102E-16
3.426000E+03	8.252547E-14	4.072683E-16
3.428000E+03	8.290695E-14	4.091509E-16
3.430000E+03	8.326495E-14	4.109177E-16
3.432000E+03	8.358804E-14	4.125122E-16
3.434000E+03	8.388197E-14	4.139627E-16
3.436000E+03	8.418691E-14	4.154677E-16
3.438000E+03	8.449140E-14	4.169703E-16
3.440000E+03	8.478970E-14	4.184424E-16
3.442000E+03	8.506460E-14	4.197991E-16
3.444000E+03	8.527030E-14	4.208142E-16
3.446000E+03	8.549277E-14	4.219121E-16
3.448000E+03	8.570909E-14	4.229797E-16
3.450000E+03	8.585058E-14	4.236779E-16
3.452000E+03	8.603174E-14	4.245720E-16
3.454000E+03	8.622966E-14	4.255487E-16
3.456000E+03	8.635285E-14	4.261567E-16
3.458000E+03	8.649279E-14	4.268473E-16
3.460000E+03	8.666664E-14	4.277052E-16
3.462000E+03	8.678296E-14	4.282793E-16
3.464000E+03	8.687038E-14	4.287107E-16
3.466000E+03	8.693461E-14	4.290277E-16
3.468000E+03	8.706124E-14	4.296526E-16
3.470000E+03	8.710197E-14	4.298536E-16
3.472000E+03	8.714236E-14	4.300529E-16
3.474000E+03	8.726789E-14	4.306725E-16
3.476000E+03	8.735885E-14	4.311214E-16
3.478000E+03	8.740959E-14	4.313717E-16
3.480000E+03	8.751120E-14	4.318732E-16
3.482000E+03	8.760106E-14	4.323167E-16
3.484000E+03	8.762798E-14	4.324495E-16
3.486000E+03	8.770573E-14	4.328332E-16
3.488000E+03	8.782856E-14	4.334394E-16
3.490000E+03	8.797370E-14	4.341556E-16
3.492000E+03	8.806730E-14	4.346176E-16
3.494000E+03	8.813781E-14	4.349655E-16
3.496000E+03	8.824765E-14	4.355076E-16
3.498000E+03	8.835707E-14	4.360476E-16
3.500000E+03	8.842074E-14	4.363618E-16
3.502000E+03	8.855201E-14	4.370096E-16
3.504000E+03	8.869981E-14	4.377391E-16
3.506000E+03	8.885848E-14	4.385221E-16
3.508000E+03	8.908456E-14	4.396378E-16
3.510000E+03	8.923658E-14	4.403881E-16
3.512000E+03	8.946162E-14	4.414986E-16
3.514000E+03	8.971434E-14	4.427458E-16
3.516000E+03	9.000603E-14	4.441853E-16
3.518000E+03	9.028580E-14	4.455660E-16
3.520000E+03	9.056496E-14	4.469437E-16
3.522000E+03	9.091681E-14	4.486801E-16
3.524000E+03	9.134689E-14	4.508025E-16
3.526000E+03	9.178745E-14	4.529767E-16
3.528000E+03	9.217090E-14	4.548691E-16
3.530000E+03	9.263805E-14	4.571745E-16
3.532000E+03	9.308748E-14	4.593925E-16
3.534000E+03	9.354734E-14	4.616619E-16
3.536000E+03	9.409065E-14	4.643432E-16
3.538000E+03	9.461057E-14	4.669090E-16
3.540000E+03	9.514079E-14	4.695257E-16
3.542000E+03	9.575425E-14	4.725532E-16
3.544000E+03	9.642277E-14	4.758523E-16
3.546000E+03	9.707898E-14	4.790908E-16
3.548000E+03	9.773968E-14	4.823514E-16
3.550000E+03	9.843288E-14	4.857724E-16
3.552000E+03	9.918089E-14	4.894638E-16
3.554000E+03	9.984377E-14	4.927352E-16
3.556000E+03	1.004440E-13	4.956974E-16
3.558000E+03	1.010934E-13	4.989023E-16
3.560000E+03	1.017417E-13	5.021017E-16
3.562000E+03	1.023331E-13	5.050201E-16
3.564000E+03	1.028563E-13	5.076021E-16
3.566000E+03	1.033172E-13	5.098769E-16
3.568000E+03	1.038439E-13	5.124763E-16
3.570000E+03	1.042415E-13	5.144384E-16
3.572000E+03	1.045993E-13	5.162042E-16
3.574000E+03	1.049506E-13	5.179379E-16
3.576000E+03	1.052621E-13	5.194747E-16
3.578000E+03	1.054838E-13	5.205689E-16
3.580000E+03	1.056659E-13	5.214677E-16
3.582000E+03	1.058306E-13	5.222806E-16
3.584000E+03	1.059115E-13	5.226800E-16
3.586000E+03	1.058975E-13	5.226106E-16
3.588000E+03	1.058553E-13	5.224024E-16
3.590000E+03	1.057739E-13	5.220010E-16
3.592000E+03	1.056258E-13	5.212698E-16
3.594000E+03	1.054164E-13	5.202367E-16
3.596000E+03	1.051240E-13	5.187933E-16
3.598000E+03	1.047982E-13	5.171854E-16
3.600000E+03	1.044392E-13	5.154141E-16
3.602000E+03	1.040305E-13	5.133968E-16
3.604000E+03	1.035005E-13	5.107816E-16
3.606000E+03	1.028936E-13	5.077865E-16
3.608000E+03	1.022485E-13	5.046028E-16
3.610000E+03	1.015486E-13	5.011487E-16
3.612000E+03	1.007612E-13	4.972629E-16
3.614000E+03	9.983148E-14	4.926745E-16
3.616000E+03	9.888050E-14	4.879814E-16
3.618000E+03	9.782057E-14	4.827506E-16
3.620000E+03	9.672866E-14	4.773619E-16
3.622000E+03	9.559938E-14	4.717888E-16
3.624000E+03	9.438901E-14	4.658156E-16
3.626000E+03	9.314151E-14	4.596591E-16
3.628000E+03	9.185151E-14	4.532929E-16
3.630000E+03	9.051365E-14	4.466905E-16
3.632000E+03	8.915535E-14	4.399872E-16
3.634000E+03	8.775485E-14	4.330756E-16
3.636000E+03	8.630680E-14	4.259294E-16
3.638000E+03	8.494752E-14	4.192213E-16
3.640000E+03	8.360063E-14	4.125743E-16
3.642000E+03	8.220629E-14	4.056931E-16
3.644000E+03	8.086788E-14	3.990880E-16
3.646000E+03	7.954188E-14	3.925441E-16
3.648000E+03	7.826083E-14	3.862220E-16
3.650000E+03	7.703548E-14	3.801749E-16
3.652000E+03	7.585491E-14	3.743487E-16
3.654000E+03	7.468112E-14	3.685560E-16
3.656000E+03	7.358446E-14	3.631438E-16
3.658000E+03	7.248367E-14	3.577114E-16
3.660000E+03	7.148141E-14	3.527652E-16
3.662000E+03	7.052891E-14	3.480645E-16
3.664000E+03	6.964223E-14	3.436887E-16
3.666000E+03	6.882122E-14	3.396370E-16
3.668000E+03	6.810347E-14	3.360948E-16
3.670000E+03	6.752099E-14	3.332202E-16
3.672000E+03	6.697133E-14	3.305077E-16
3.674000E+03	6.646516E-14	3.280097E-16
3.676000E+03	6.603461E-14	3.258849E-16
3.678000E+03	6.566873E-14	3.240792E-16
3.680000E+03	6.532453E-14	3.223806E-16
3.682000E+03	6.505549E-14	3.210529E-16
3.684000E+03	6.489887E-14	3.202799E-16
3.686000E+03	6.475285E-14	3.195593E-16
3.688000E+03	6.468681E-14	3.192334E-16
3.690000E+03	6.471124E-14	3.193539E-16
3.692000E+03	6.471927E-14	3.193936E-16
3.694000E+03	6.475888E-14	3.195891E-16
3.696000E+03	6.480872E-14	3.198350E-16
3.698000E+03	6.486873E-14	3.201312E-16
3.700000E+03	6.494422E-14	3.205038E-16
3.702000E+03	6.496083E-14	3.205857E-16
3.704000E+03	6.497706E-14	3.206658E-16
3.706000E+03	6.501939E-14	3.208747E-16
3.708000E+03	6.498719E-14	3.207158E-16
3.710000E+03	6.490179E-14	3.202943E-16
3.712000E+03	6.475807E-14	3.195851E-16
3.714000E+03	6.463538E-14	3.189796E-16
3.716000E+03	6.455477E-14	3.185818E-16
3.718000E+03	6.433695E-14	3.175068E-16
3.720000E+03	6.414024E-14	3.165360E-16
3.722000E+03	6.389095E-14	3.153058E-16
3.724000E+03	6.356824E-14	3.137132E-16
3.726000E+03	6.323528E-14	3.120700E-16
3.728000E+03	6.289213E-14	3.103765E-16
3.730000E+03	6.254405E-14	3.086587E-16
3.732000E+03	6.220153E-14	3.069684E-16
3.734000E+03	6.186457E-14	3.053054E-16
3.736000E+03	6.151748E-14	3.035925E-16
3.738000E+03	6.117595E-14	3.019071E-16
3.740000E+03	6.088689E-14	3.004806E-16
3.742000E+03	6.061372E-14	2.991324E-16
3.744000E+03	6.038238E-14	2.979908E-16
3.746000E+03	6.019278E-14	2.970551E-16
3.748000E+03	6.001362E-14	2.961709E-16
3.750000E+03	5.987083E-14	2.954662E-16
3.752000E+03	5.977465E-14	2.949916E-16
3.754000E+03	5.975602E-14	2.948996E-16
3.756000E+03	5.979919E-14	2.951127E-16
3.758000E+03	5.988331E-14	2.955278E-16
3.760000E+03	6.000308E-14	2.961189E-16
3.762000E+03	6.016871E-14	2.969363E-16
3.764000E+03	6.039551E-14	2.980555E-16
3.766000E+03	6.067299E-14	2.994249E-16
3.768000E+03	6.103699E-14	3.012213E-16
3.770000E+03	6.144101E-14	3.032152E-16
3.772000E+03	6.191057E-14	3.055325E-16
3.774000E+03	6.246082E-14	3.082480E-16
3.776000E+03	6.303009E-14	3.110574E-16
3.778000E+03	6.366944E-14	3.142126E-16
3.780000E+03	6.438374E-14	3.177377E-16
3.782000E+03	6.519828E-14	3.217575E-16
3.784000E+03	6.606682E-14	3.260438E-16
3.786000E+03	6.702485E-14	3.307718E-16
3.788000E+03	6.805678E-14	3.358644E-16
3.790000E+03	6.909631E-14	3.409946E-16
3.792000E+03	7.017387E-14	3.463124E-16
3.794000E+03	7.131464E-14	3.519421E-16
3.796000E+03	7.247284E-14	3.576579E-16
3.798000E+03	7.367875E-14	3.636092E-16
3.800000E+03	7.487153E-14	3.694956E-16
3.802000E+03	7.610674E-14	3.755915E-16
3.804000E+03	7.737920E-14	3.818711E-16
3.806000E+03	7.862831E-14	3.880355E-16
3.808000E+03	7.989940E-14	3.943084E-16
3.810000E+03	8.119240E-14	4.006895E-16
3.812000E+03	8.253230E-14	4.073020E-16
3.814000E+03	8.388383E-14	4.139719E-16
3.816000E+03	8.525194E-14	4.207236E-16
3.818000E+03	8.662154E-14	4.274826E-16
3.820000E+03	8.802759E-14	4.344216E-16
3.822000E+03	8.945498E-14	4.414658E-16
3.824000E+03	9.088365E-14	4.485164E-16
3.826000E+03	9.231857E-14	4.555978E-16
3.828000E+03	9.377960E-14	4.628081E-16
3.830000E+03	9.523182E-14	4.699749E-16
3.832000E+03	9.669512E-14	4.771964E-16
3.834000E+03	9.813969E-14	4.843254E-16
3.836000E+03	9.960020E-14	4.915331E-16
3.838000E+03	1.010470E-13	4.986731E-16
3.840000E+03	1.024552E-13	5.056229E-16
3.842000E+03	1.038894E-13	5.127006E-16
3.844000E+03	1.053098E-13	5.197103E-16
3.846000E+03	1.067017E-13	5.265793E-16
3.848000E+03	1.080110E-13	5.330410E-16
3.850000E+03	1.092923E-13	5.393641E-16
3.852000E+03	1.105503E-13	5.455725E-16
3.854000E+03	1.117803E-13	5.516427E-16
3.856000E+03	1.129139E-13	5.572369E-16
3.858000E+03	1.139611E-13	5.624049E-16
3.860000E+03	1.150247E-13	5.676540E-16
3.862000E+03	1.160414E-13	5.726714E-16
3.864000E+03	1.168213E-13	5.765201E-16
3.866000E+03	1.176229E-13	5.804764E-16
3.868000E+03	1.187137E-13	5.858595E-16
3.870000E+03	1.198691E-13	5.915615E-16
3.872000E+03	1.209339E-13	5.968163E-16
3.874000E+03	1.219084E-13	6.016255E-16
3.876000E+03	1.227736E-13	6.058952E-16
3.878000E+03	1.235588E-13	6.097704E-16
3.880000E+03	1.242932E-13	6.133947E-16
3.882000E+03	1.248953E-13	6.163659E-16
3.884000E+03	1.254326E-13	6.190178E-16
3.886000E+03	1.259104E-13	6.213758E-16
3.888000E+03	1.263097E-13	6.233459E-16
3.890000E+03	1.266115E-13	6.248353E-16
3.892000E+03	1.267923E-13	6.257277E-16
3.894000E+03	1.269051E-13	6.262845E-16
3.896000E+03	1.269693E-13	6.266013E-16
3.898000E+03	1.269278E-13	6.263967E-16
3.900000E+03	1.268241E-13	6.258846E-16
3.902000E+03	1.267865E-13	6.256992E-16
3.904000E+03	1.267626E-13	6.255814E-16
3.906000E+03	1.266767E-13	6.251572E-16
3.908000E+03	1.265287E-13	6.244268E-16
3.910000E+03	1.263096E-13	6.233456E-16
3.912000E+03	1.259911E-13	6.217740E-16
3.914000E+03	1.256258E-13	6.199711E-16
3.916000E+03	1.251948E-13	6.178441E-16
3.918000E+03	1.246985E-13	6.153947E-16
3.920000E+03	1.241653E-13	6.127633E-16
3.922000E+03	1.235954E-13	6.099507E-16
3.924000E+03	1.229935E-13	6.069803E-16
3.926000E+03	1.224067E-13	6.040844E-16
3.928000E+03	1.218209E-13	6.011936E-16
3.930000E+03	1.212361E-13	5.983074E-16
3.932000E+03	1.206476E-13	5.954033E-16
3.934000E+03	1.200695E-13	5.925505E-16
3.936000E+03	1.195156E-13	5.898168E-16
3.938000E+03	1.189069E-13	5.868128E-16
3.940000E+03	1.183317E-13	5.839742E-16
3.942000E+03	1.178364E-13	5.815299E-16
3.944000E+03	1.173418E-13	5.790892E-16
3.946000E+03	1.168527E-13	5.766753E-16
3.948000E+03	1.163597E-13	5.742425E-16
3.950000E+03	1.159230E-13	5.720869E-16
3.952000E+03	1.154868E-13	5.699342E-16
3.954000E+03	1.150605E-13	5.678305E-16
3.956000E+03	1.146899E-13	5.660019E-16
3.958000E+03	1.143428E-13	5.642886E-16
3.960000E+03	1.140327E-13	5.627586E-16
3.962000E+03	1.137413E-13	5.613205E-16
3.964000E+03	1.134776E-13	5.600189E-16
3.966000E+03	1.132552E-13	5.589212E-16
3.968000E+03	1.130830E-13	5.580713E-16
3.970000E+03	1.129108E-13	5.572216E-16
3.972000E+03	1.127477E-13	5.564166E-16
3.974000E+03	1.125890E-13	5.556336E-16
3.976000E+03	1.124122E-13	5.547611E-16
3.978000E+03	1.122083E-13	5.537551E-16
3.980000E+03	1.120091E-13	5.527716E-16
3.982000E+03	1.118234E-13	5.518551E-16
3.984000E+03	1.116197E-13	5.508503E-16
3.986000E+03	1.114072E-13	5.498016E-16
3.988000E+03	1.111455E-13	5.485097E-16
3.990000E+03	1.108659E-13	5.471302E-16
3.992000E+03	1.105196E-13	5.454210E-16
3.994000E+03	1.100844E-13	5.432731E-16
3.996000E+03	1.095784E-13	5.407761E-16
3.998000E+03	1.090288E-13	5.380637E-16
4.000000E+03	1.084224E-13	5.350711E-16
4.002000E+03	1.077105E-13	5.315578E-16
4.004000E+03	1.069246E-13	5.276796E-16
4.006000E+03	1.061006E-13	5.236130E-16
4.008000E+03	1.053006E-13	5.196651E-16
4.010000E+03	1.044715E-13	5.155733E-16
4.012000E+03	1.036621E-13	5.115789E-16
4.014000E+03	1.031014E-13	5.088118E-16
4.016000E+03	1.026477E-13	5.065729E-16
4.018000E+03	1.020454E-13	5.036002E-16
4.020000E+03	1.013388E-13	5.001133E-16
4.022000E+03	1.006077E-13	4.965053E-16
4.024000E+03	9.990453E-14	4.930350E-16
4.026000E+03	9.920290E-14	4.895724E-16
4.028000E+03	9.848544E-14	4.860317E-16
4.030000E+03	9.776536E-14	4.824780E-16
4.032000E+03	9.708611E-14	4.791259E-16
4.034000E+03	9.641715E-14	4.758245E-16
4.036000E+03	9.577579E-14	4.726594E-16
4.038000E+03	9.515760E-14	4.696086E-16
4.040000E+03	9.460145E-14	4.668639E-16
4.042000E+03	9.412006E-14	4.644883E-16
4.044000E+03	9.368721E-14	4.623521E-16
4.046000E+03	9.329406E-14	4.604119E-16
4.048000E+03	9.304379E-14	4.591768E-16
