#wls	flux	fluxerr
1.600000E+03	3.337769E-15	3.408038E-16
1.640000E+03	3.351893E-15	3.401885E-16
1.680000E+03	3.366764E-15	3.395797E-16
1.720000E+03	3.382753E-15	3.390114E-16
1.760000E+03	3.399725E-15	3.384664E-16
1.800000E+03	3.418022E-15	3.379748E-16
1.840000E+03	3.437481E-15	3.375160E-16
1.880000E+03	3.459367E-15	3.372087E-16
1.920000E+03	3.482991E-15	3.369792E-16
1.960000E+03	3.509079E-15	3.368911E-16
2.000000E+03	3.538312E-15	3.370014E-16
2.040000E+03	3.571328E-15	3.373605E-16
2.080000E+03	3.607790E-15	3.379253E-16
2.120000E+03	3.649157E-15	3.388198E-16
2.160000E+03	3.695894E-15	3.400716E-16
2.200000E+03	3.747957E-15	3.416594E-16
2.240000E+03	3.805689E-15	3.435966E-16
2.280000E+03	3.869793E-15	3.459269E-16
2.320000E+03	3.940018E-15	3.486059E-16
2.360000E+03	4.016053E-15	3.515846E-16
2.400000E+03	4.098351E-15	3.548803E-16
2.440000E+03	4.185628E-15	3.583589E-16
2.480000E+03	4.278177E-15	3.620246E-16
2.520000E+03	4.374214E-15	3.657055E-16
2.560000E+03	4.474276E-15	3.694283E-16
2.600000E+03	4.576474E-15	3.730193E-16
2.640000E+03	4.680780E-15	3.764620E-16
2.680000E+03	4.785937E-15	3.796423E-16
2.720000E+03	4.890983E-15	3.824744E-16
2.760000E+03	4.995536E-15	3.849219E-16
2.800000E+03	5.097366E-15	3.868097E-16
2.840000E+03	5.195844E-15	3.880931E-16
2.880000E+03	5.288858E-15	3.886222E-16
2.920000E+03	5.375117E-15	3.883172E-16
2.960000E+03	5.453661E-15	3.871292E-16
3.000000E+03	5.523975E-15	3.850466E-16
3.010000E+03	5.540399E-15	3.843984E-16
3.020000E+03	5.555967E-15	3.836728E-16
3.030000E+03	5.570907E-15	3.828861E-16
3.040000E+03	5.585429E-15	3.820534E-16
3.050000E+03	5.599463E-15	3.811703E-16
3.060000E+03	5.612671E-15	3.802142E-16
3.070000E+03	5.625260E-15	3.792000E-16
3.080000E+03	5.637163E-15	3.781235E-16
3.090000E+03	5.648323E-15	3.769819E-16
3.100000E+03	5.658953E-15	3.757899E-16
3.110000E+03	5.668759E-15	3.745285E-16
3.120000E+03	5.678241E-15	3.732315E-16
3.130000E+03	5.686908E-15	3.718672E-16
3.140000E+03	5.695566E-15	3.704886E-16
3.150000E+03	5.703578E-15	3.690546E-16
3.160000E+03	5.711836E-15	3.676234E-16
3.170000E+03	5.720325E-15	3.661936E-16
3.180000E+03	5.729580E-15	3.647991E-16
3.190000E+03	5.739745E-15	3.634481E-16
3.200000E+03	5.751521E-15	3.621840E-16
3.210000E+03	5.765689E-15	3.610539E-16
3.220000E+03	5.782694E-15	3.600829E-16
3.230000E+03	5.803584E-15	3.593329E-16
3.240000E+03	5.829665E-15	3.588803E-16
3.250000E+03	5.862428E-15	3.588105E-16
3.260000E+03	5.903630E-15	3.592234E-16
3.270000E+03	5.956083E-15	3.602799E-16
3.280000E+03	6.022417E-15	3.621258E-16
3.290000E+03	6.105150E-15	3.648966E-16
3.300000E+03	6.207380E-15	3.687581E-16
3.310000E+03	6.331511E-15	3.738309E-16
3.320000E+03	6.479701E-15	3.802173E-16
3.330000E+03	6.653045E-15	3.879543E-16
3.340000E+03	6.851999E-15	3.970402E-16
3.350000E+03	7.076546E-15	4.074451E-16
3.360000E+03	7.324140E-15	4.189944E-16
3.370000E+03	7.591149E-15	4.314555E-16
3.380000E+03	7.871855E-15	4.444828E-16
3.390000E+03	8.159363E-15	4.576736E-16
3.400000E+03	8.446403E-15	4.706143E-16
3.410000E+03	8.725632E-15	4.828982E-16
3.420000E+03	8.992120E-15	4.942622E-16
3.430000E+03	9.242524E-15	5.045375E-16
3.440000E+03	9.475751E-15	5.136824E-16
3.450000E+03	9.693257E-15	5.217942E-16
3.460000E+03	9.898769E-15	5.290895E-16
3.470000E+03	1.009595E-14	5.357761E-16
3.480000E+03	1.029023E-14	5.421485E-16
3.490000E+03	1.048704E-14	5.484944E-16
3.500000E+03	1.069121E-14	5.550606E-16
3.510000E+03	1.090741E-14	5.620799E-16
3.520000E+03	1.113855E-14	5.696859E-16
3.530000E+03	1.138613E-14	5.779373E-16
3.540000E+03	1.164877E-14	5.867455E-16
3.550000E+03	1.192145E-14	5.958408E-16
3.560000E+03	1.219549E-14	6.047810E-16
3.570000E+03	1.245864E-14	6.129615E-16
3.580000E+03	1.269492E-14	6.196143E-16
3.590000E+03	1.288646E-14	6.239063E-16
3.600000E+03	1.301601E-14	6.250613E-16
3.610000E+03	1.307559E-14	6.227721E-16
3.620000E+03	1.306168E-14	6.169558E-16
3.630000E+03	1.297032E-14	6.075144E-16
3.640000E+03	1.279815E-14	5.943839E-16
3.650000E+03	1.254285E-14	5.775540E-16
3.660000E+03	1.220564E-14	5.571807E-16
3.670000E+03	1.179416E-14	5.337080E-16
3.680000E+03	1.132379E-14	5.079152E-16
3.690000E+03	1.081726E-14	4.808840E-16
3.700000E+03	1.030277E-14	4.539018E-16
3.710000E+03	9.811145E-15	4.283244E-16
3.720000E+03	9.372968E-15	4.054482E-16
3.730000E+03	9.014668E-15	3.863426E-16
3.740000E+03	8.758797E-15	3.718700E-16
3.750000E+03	8.624559E-15	3.627153E-16
3.760000E+03	8.629461E-15	3.594623E-16
3.770000E+03	8.790435E-15	3.626424E-16
3.780000E+03	9.126275E-15	3.728358E-16
3.790000E+03	9.657603E-15	3.906667E-16
3.800000E+03	1.040615E-14	4.167704E-16
3.810000E+03	1.139322E-14	4.517302E-16
3.820000E+03	1.263531E-14	4.959070E-16
3.830000E+03	1.413777E-14	5.492028E-16
3.840000E+03	1.588929E-14	6.108706E-16
3.850000E+03	1.785978E-14	6.794671E-16
3.860000E+03	1.999929E-14	7.528518E-16
3.870000E+03	2.224220E-14	8.283799E-16
3.880000E+03	2.451523E-14	9.032317E-16
3.890000E+03	2.674666E-14	9.747613E-16
3.900000E+03	2.887648E-14	1.040860E-15
3.910000E+03	3.086021E-14	1.100071E-15
3.920000E+03	3.266830E-14	1.151530E-15
3.930000E+03	3.428263E-14	1.194825E-15
3.940000E+03	3.569017E-14	1.229742E-15
3.950000E+03	3.687477E-14	1.255983E-15
3.960000E+03	3.781379E-14	1.273058E-15
3.970000E+03	3.847732E-14	1.280268E-15
3.980000E+03	3.882986E-14	1.276776E-15
3.990000E+03	3.883825E-14	1.261876E-15
4.000000E+03	3.848393E-14	1.235379E-15
4.010000E+03	3.776928E-14	1.197788E-15
4.020000E+03	3.672154E-14	1.150375E-15
4.030000E+03	3.539355E-14	1.095161E-15
4.040000E+03	3.385744E-14	1.034671E-15
4.050000E+03	3.219441E-14	9.715901E-16
4.060000E+03	3.048216E-14	9.083725E-16
4.070000E+03	2.879034E-14	8.471172E-16
4.080000E+03	2.717463E-14	7.894107E-16
4.090000E+03	2.567902E-14	7.364216E-16
4.100000E+03	2.433513E-14	6.889036E-16
4.110000E+03	2.316473E-14	6.472899E-16
4.120000E+03	2.217986E-14	6.117161E-16
4.130000E+03	2.138501E-14	5.820970E-16
4.140000E+03	2.077791E-14	5.581623E-16
4.150000E+03	2.034943E-14	5.394671E-16
4.160000E+03	2.008474E-14	5.254338E-16
4.170000E+03	1.996381E-14	5.153742E-16
4.180000E+03	1.996336E-14	5.085491E-16
4.190000E+03	2.005712E-14	5.041792E-16
4.200000E+03	2.021795E-14	5.015019E-16
4.210000E+03	2.042004E-14	4.998249E-16
4.220000E+03	2.064029E-14	4.985579E-16
4.230000E+03	2.085951E-14	4.972342E-16
4.240000E+03	2.106245E-14	4.955045E-16
4.250000E+03	2.124002E-14	4.931820E-16
4.260000E+03	2.138783E-14	4.901977E-16
4.270000E+03	2.150862E-14	4.866491E-16
4.280000E+03	2.161372E-14	4.828209E-16
4.290000E+03	2.172618E-14	4.792437E-16
4.300000E+03	2.188461E-14	4.767604E-16
4.310000E+03	2.214378E-14	4.765219E-16
4.320000E+03	2.256892E-14	4.798467E-16
4.330000E+03	2.322588E-14	4.880069E-16
4.340000E+03	2.416072E-14	5.018075E-16
4.350000E+03	2.536805E-14	5.209671E-16
4.360000E+03	2.673209E-14	5.429817E-16
4.370000E+03	2.797389E-14	5.621841E-16
4.380000E+03	2.863825E-14	5.696409E-16
4.390000E+03	2.820731E-14	5.555362E-16
4.400000E+03	2.687540E-14	5.243000E-16
4.410000E+03	2.541939E-14	4.914206E-16
4.420000E+03	2.437671E-14	4.672259E-16
4.430000E+03	2.398489E-14	4.559986E-16
4.440000E+03	2.428578E-14	4.582185E-16
4.450000E+03	2.522978E-14	4.726705E-16
4.460000E+03	2.672358E-14	4.973893E-16
4.470000E+03	2.865092E-14	5.300616E-16
4.480000E+03	3.089637E-14	5.684686E-16
4.490000E+03	3.336642E-14	6.108579E-16
4.500000E+03	3.599580E-14	6.560374E-16
4.510000E+03	3.873583E-14	7.031431E-16
4.520000E+03	4.154548E-14	7.514659E-16
4.530000E+03	4.437725E-14	8.001900E-16
4.540000E+03	4.717045E-14	8.482698E-16
4.550000E+03	4.984471E-14	8.943123E-16
4.560000E+03	5.230149E-14	9.366035E-16
4.570000E+03	5.443371E-14	9.732775E-16
4.580000E+03	5.613920E-14	1.002554E-15
4.590000E+03	5.733167E-14	1.022925E-15
4.600000E+03	5.795312E-14	1.033377E-15
4.610000E+03	5.798197E-14	1.033528E-15
4.620000E+03	5.743551E-14	1.023673E-15
4.630000E+03	5.636520E-14	1.004701E-15
4.640000E+03	5.484952E-14	9.779754E-16
4.650000E+03	5.298558E-14	9.451829E-16
4.660000E+03	5.087761E-14	9.081384E-16
4.670000E+03	4.862665E-14	8.686037E-16
4.680000E+03	4.632407E-14	8.281741E-16
4.690000E+03	4.404844E-14	7.882245E-16
4.700000E+03	4.185961E-14	7.498031E-16
4.710000E+03	3.980519E-14	7.137477E-16
4.720000E+03	3.792138E-14	6.806979E-16
4.730000E+03	3.623660E-14	6.511601E-16
4.740000E+03	3.477276E-14	6.255291E-16
4.750000E+03	3.354580E-14	6.040954E-16
4.760000E+03	3.256503E-14	5.870331E-16
4.770000E+03	3.183188E-14	5.743753E-16
4.780000E+03	3.133904E-14	5.659975E-16
4.790000E+03	3.106874E-14	5.615846E-16
4.800000E+03	3.099848E-14	5.607345E-16
4.810000E+03	3.110560E-14	5.630392E-16
4.820000E+03	3.137411E-14	5.682088E-16
4.830000E+03	3.179496E-14	5.760767E-16
4.840000E+03	3.237066E-14	5.866842E-16
4.850000E+03	3.311188E-14	6.002182E-16
4.860000E+03	3.402834E-14	6.168462E-16
4.870000E+03	3.511402E-14	6.364476E-16
4.880000E+03	3.633030E-14	6.583083E-16
4.890000E+03	3.760178E-14	6.810463E-16
4.900000E+03	3.881567E-14	7.026037E-16
4.910000E+03	3.982768E-14	7.203578E-16
4.920000E+03	4.048620E-14	7.315656E-16
4.930000E+03	4.067055E-14	7.340577E-16
4.940000E+03	4.032227E-14	7.268060E-16
4.950000E+03	3.946214E-14	7.102241E-16
4.960000E+03	3.818583E-14	6.860801E-16
4.970000E+03	3.664559E-14	6.571546E-16
4.980000E+03	3.501533E-14	6.266021E-16
4.990000E+03	3.345552E-14	5.973142E-16
5.000000E+03	3.209371E-14	5.715700E-16
5.010000E+03	3.101591E-14	5.508850E-16
5.020000E+03	3.026548E-14	5.359981E-16
5.030000E+03	2.984708E-14	5.269494E-16
5.040000E+03	2.973735E-14	5.232781E-16
5.050000E+03	2.989298E-14	5.241739E-16
5.060000E+03	3.025824E-14	5.286134E-16
5.070000E+03	3.077074E-14	5.354687E-16
5.080000E+03	3.137112E-14	5.436780E-16
5.090000E+03	3.201064E-14	5.523783E-16
5.100000E+03	3.265486E-14	5.609662E-16
5.110000E+03	3.328558E-14	5.691267E-16
5.120000E+03	3.390412E-14	5.768839E-16
5.130000E+03	3.452525E-14	5.844896E-16
5.140000E+03	3.517467E-14	5.923751E-16
5.150000E+03	3.588409E-14	6.010642E-16
5.160000E+03	3.668590E-14	6.110803E-16
5.170000E+03	3.760734E-14	6.228491E-16
5.180000E+03	3.866646E-14	6.366339E-16
5.190000E+03	3.986789E-14	6.524714E-16
5.200000E+03	4.120487E-14	6.702106E-16
5.210000E+03	4.265399E-14	6.894345E-16
5.220000E+03	4.418060E-14	7.095552E-16
5.230000E+03	4.574120E-14	7.298593E-16
5.240000E+03	4.728869E-14	7.495960E-16
5.250000E+03	4.877732E-14	7.680573E-16
5.260000E+03	5.016298E-14	7.845822E-16
5.270000E+03	5.140737E-14	7.986210E-16
5.280000E+03	5.247665E-14	8.097106E-16
5.290000E+03	5.334113E-14	8.174675E-16
5.300000E+03	5.397523E-14	8.215840E-16
5.310000E+03	5.435794E-14	8.218323E-16
5.320000E+03	5.448204E-14	8.182001E-16
5.330000E+03	5.435559E-14	8.109040E-16
5.340000E+03	5.400959E-14	8.004956E-16
5.350000E+03	5.350160E-14	7.879025E-16
5.360000E+03	5.291233E-14	7.743665E-16
5.370000E+03	5.233350E-14	7.612575E-16
5.380000E+03	5.185215E-14	7.498446E-16
5.390000E+03	5.153170E-14	7.410285E-16
5.400000E+03	5.140193E-14	7.352108E-16
5.410000E+03	5.144035E-14	7.320446E-16
5.420000E+03	5.156571E-14	7.303620E-16
5.430000E+03	5.165166E-14	7.283842E-16
5.440000E+03	5.154858E-14	7.240366E-16
5.450000E+03	5.112051E-14	7.154640E-16
5.460000E+03	5.029059E-14	7.016522E-16
5.470000E+03	4.909126E-14	6.831050E-16
5.480000E+03	4.767926E-14	6.620301E-16
5.490000E+03	4.632012E-14	6.421071E-16
5.500000E+03	4.523033E-14	6.262919E-16
5.510000E+03	4.428936E-14	6.128665E-16
5.520000E+03	4.340830E-14	6.005625E-16
5.530000E+03	4.255524E-14	5.889062E-16
5.540000E+03	4.172724E-14	5.778261E-16
5.550000E+03	4.093419E-14	5.674307E-16
5.560000E+03	4.017878E-14	5.577307E-16
5.570000E+03	3.944261E-14	5.484463E-16
5.580000E+03	3.869033E-14	5.390612E-16
5.590000E+03	3.787750E-14	5.289295E-16
5.600000E+03	3.696048E-14	5.174112E-16
5.610000E+03	3.590837E-14	5.040387E-16
5.620000E+03	3.471359E-14	4.886676E-16
5.630000E+03	3.339988E-14	4.715942E-16
5.640000E+03	3.201686E-14	4.534860E-16
5.650000E+03	3.063318E-14	4.352908E-16
5.660000E+03	2.932891E-14	4.181338E-16
5.670000E+03	2.818493E-14	4.031694E-16
5.680000E+03	2.727553E-14	3.914753E-16
5.690000E+03	2.666402E-14	3.839875E-16
5.700000E+03	2.639901E-14	3.814433E-16
5.710000E+03	2.650968E-14	3.843086E-16
5.720000E+03	2.700273E-14	3.927267E-16
5.730000E+03	2.786691E-14	4.065795E-16
5.740000E+03	2.907559E-14	4.255183E-16
5.750000E+03	3.058703E-14	4.489656E-16
5.760000E+03	3.234527E-14	4.761230E-16
5.770000E+03	3.428497E-14	5.060408E-16
5.780000E+03	3.633297E-14	5.376398E-16
5.790000E+03	3.841101E-14	5.697515E-16
5.800000E+03	4.043646E-14	6.011298E-16
5.810000E+03	4.232418E-14	6.304789E-16
5.820000E+03	4.399222E-14	6.565424E-16
5.830000E+03	4.537334E-14	6.782768E-16
5.840000E+03	4.642202E-14	6.949612E-16
5.850000E+03	4.712564E-14	7.063704E-16
5.860000E+03	4.750853E-14	7.128387E-16
5.870000E+03	4.762879E-14	7.152159E-16
5.880000E+03	4.756507E-14	7.146692E-16
5.890000E+03	4.739357E-14	7.123368E-16
5.900000E+03	4.717219E-14	7.090864E-16
5.910000E+03	4.693645E-14	7.054524E-16
5.920000E+03	4.669497E-14	7.015653E-16
5.930000E+03	4.643653E-14	6.972582E-16
5.940000E+03	4.613579E-14	6.921541E-16
5.950000E+03	4.576581E-14	6.858541E-16
5.960000E+03	4.530821E-14	6.780915E-16
5.970000E+03	4.475526E-14	6.687621E-16
5.980000E+03	4.411141E-14	6.579467E-16
5.990000E+03	4.339306E-14	6.459058E-16
6.000000E+03	4.262312E-14	6.329970E-16
6.010000E+03	4.182810E-14	6.196291E-16
6.020000E+03	4.103508E-14	6.062168E-16
6.030000E+03	4.026856E-14	5.931325E-16
6.040000E+03	3.954959E-14	5.806938E-16
6.050000E+03	3.889492E-14	5.691507E-16
6.060000E+03	3.831885E-14	5.587135E-16
6.070000E+03	3.782993E-14	5.495048E-16
6.080000E+03	3.743376E-14	5.416014E-16
6.090000E+03	3.713101E-14	5.350072E-16
6.100000E+03	3.691583E-14	5.296312E-16
6.110000E+03	3.677634E-14	5.252968E-16
6.120000E+03	3.669090E-14	5.216916E-16
6.130000E+03	3.662907E-14	5.183842E-16
6.140000E+03	3.654981E-14	5.148019E-16
6.150000E+03	3.640919E-14	5.103433E-16
6.160000E+03	3.616899E-14	5.044998E-16
6.170000E+03	3.580393E-14	4.969525E-16
6.180000E+03	3.530906E-14	4.876714E-16
6.190000E+03	3.470254E-14	4.769448E-16
6.200000E+03	3.402495E-14	4.653624E-16
6.210000E+03	3.332764E-14	4.536489E-16
6.220000E+03	3.265772E-14	4.424569E-16
6.230000E+03	3.205128E-14	4.322783E-16
6.240000E+03	3.152946E-14	4.233956E-16
6.250000E+03	3.109969E-14	4.159035E-16
6.260000E+03	3.075784E-14	4.097426E-16
6.270000E+03	3.049527E-14	4.047959E-16
6.280000E+03	3.030447E-14	4.009648E-16
6.290000E+03	3.018489E-14	3.982457E-16
6.300000E+03	3.014144E-14	3.967091E-16
6.310000E+03	3.018167E-14	3.964619E-16
6.320000E+03	3.031236E-14	3.976031E-16
6.330000E+03	3.053888E-14	4.002169E-16
6.340000E+03	3.086190E-14	4.043292E-16
6.350000E+03	3.127747E-14	4.099108E-16
6.360000E+03	3.177677E-14	4.168730E-16
6.370000E+03	3.234440E-14	4.250452E-16
6.380000E+03	3.295933E-14	4.341858E-16
6.390000E+03	3.359368E-14	4.439629E-16
6.400000E+03	3.421563E-14	4.539898E-16
6.410000E+03	3.478895E-14	4.638066E-16
6.420000E+03	3.527961E-14	4.729563E-16
6.430000E+03	3.566124E-14	4.810672E-16
6.440000E+03	3.591917E-14	4.879099E-16
6.450000E+03	3.604889E-14	4.933806E-16
6.460000E+03	3.605212E-14	4.974515E-16
6.470000E+03	3.593272E-14	5.001178E-16
6.480000E+03	3.569560E-14	5.013851E-16
6.490000E+03	3.534536E-14	5.012515E-16
6.500000E+03	3.490767E-14	5.000146E-16
6.510000E+03	3.446220E-14	4.987649E-16
6.520000E+03	3.417501E-14	4.999034E-16
6.530000E+03	3.426116E-14	5.066633E-16
6.540000E+03	3.475545E-14	5.197302E-16
6.550000E+03	3.542922E-14	5.358407E-16
6.560000E+03	3.606448E-14	5.517448E-16
6.570000E+03	3.652385E-14	5.652886E-16
6.580000E+03	3.674729E-14	5.754282E-16
6.590000E+03	3.673445E-14	5.820165E-16
6.600000E+03	3.652145E-14	5.854876E-16
6.610000E+03	3.615896E-14	5.865352E-16
6.620000E+03	3.569589E-14	5.858622E-16
6.630000E+03	3.517420E-14	5.840925E-16
6.640000E+03	3.462550E-14	5.817089E-16
6.650000E+03	3.407235E-14	5.790667E-16
6.660000E+03	3.353100E-14	5.764303E-16
6.670000E+03	3.301269E-14	5.739919E-16
6.680000E+03	3.252776E-14	5.719368E-16
6.690000E+03	3.208309E-14	5.703984E-16
6.700000E+03	3.168295E-14	5.694694E-16
6.710000E+03	3.132529E-14	5.691312E-16
6.720000E+03	3.100270E-14	5.692661E-16
6.730000E+03	3.070144E-14	5.696337E-16
6.740000E+03	3.040310E-14	5.698955E-16
6.750000E+03	3.008656E-14	5.696486E-16
6.760000E+03	2.973489E-14	5.685543E-16
6.770000E+03	2.933738E-14	5.663826E-16
6.780000E+03	2.889302E-14	5.630857E-16
6.790000E+03	2.840764E-14	5.587508E-16
6.800000E+03	2.789625E-14	5.536520E-16
6.810000E+03	2.737847E-14	5.481683E-16
6.820000E+03	2.687530E-14	5.427204E-16
6.830000E+03	2.640825E-14	5.377545E-16
6.840000E+03	2.599500E-14	5.336526E-16
6.850000E+03	2.564948E-14	5.307299E-16
6.860000E+03	2.538066E-14	5.292070E-16
6.870000E+03	2.519192E-14	5.291910E-16
6.880000E+03	2.508061E-14	5.306626E-16
6.890000E+03	2.503801E-14	5.334694E-16
6.900000E+03	2.504999E-14	5.373368E-16
6.910000E+03	2.509829E-14	5.418912E-16
6.920000E+03	2.516198E-14	5.466907E-16
6.930000E+03	2.521989E-14	5.512748E-16
6.940000E+03	2.525162E-14	5.551904E-16
6.950000E+03	2.524289E-14	5.581086E-16
6.960000E+03	2.518417E-14	5.598011E-16
6.970000E+03	2.507342E-14	5.602031E-16
6.980000E+03	2.491552E-14	5.594059E-16
6.990000E+03	2.472220E-14	5.576591E-16
7.000000E+03	2.450714E-14	5.552627E-16
7.010000E+03	2.428535E-14	5.525526E-16
7.020000E+03	2.407072E-14	5.498464E-16
7.030000E+03	2.387424E-14	5.473995E-16
7.040000E+03	2.370312E-14	5.453840E-16
7.050000E+03	2.356082E-14	5.438872E-16
7.060000E+03	2.344742E-14	5.429183E-16
7.070000E+03	2.336202E-14	5.424632E-16
7.080000E+03	2.330124E-14	5.424488E-16
7.090000E+03	2.326191E-14	5.428058E-16
7.100000E+03	2.324113E-14	5.434690E-16
7.110000E+03	2.323787E-14	5.444169E-16
7.120000E+03	2.324998E-14	5.456001E-16
7.130000E+03	2.327722E-14	5.470142E-16
7.140000E+03	2.331792E-14	5.486199E-16
7.150000E+03	2.336958E-14	5.503579E-16
7.160000E+03	2.342978E-14	5.521709E-16
7.170000E+03	2.349388E-14	5.539477E-16
7.180000E+03	2.355674E-14	5.555662E-16
7.190000E+03	2.361291E-14	5.568958E-16
7.200000E+03	2.365749E-14	5.578195E-16
7.210000E+03	2.368572E-14	5.582245E-16
7.220000E+03	2.369530E-14	5.580563E-16
7.230000E+03	2.368492E-14	5.572841E-16
7.240000E+03	2.365620E-14	5.559477E-16
7.250000E+03	2.361258E-14	5.541293E-16
7.260000E+03	2.355988E-14	5.519675E-16
7.270000E+03	2.350416E-14	5.496058E-16
7.280000E+03	2.345442E-14	5.472555E-16
7.290000E+03	2.341910E-14	5.451129E-16
7.300000E+03	2.340578E-14	5.433526E-16
7.310000E+03	2.342000E-14	5.420988E-16
7.320000E+03	2.346662E-14	5.414579E-16
7.330000E+03	2.354511E-14	5.414103E-16
7.340000E+03	2.365212E-14	5.418706E-16
7.350000E+03	2.378124E-14	5.426837E-16
7.360000E+03	2.392090E-14	5.435793E-16
7.370000E+03	2.405679E-14	5.442286E-16
7.380000E+03	2.417069E-14	5.442212E-16
7.390000E+03	2.424289E-14	5.431209E-16
7.400000E+03	2.425337E-14	5.404957E-16
7.410000E+03	2.418226E-14	5.359275E-16
7.420000E+03	2.401144E-14	5.290495E-16
7.430000E+03	2.372716E-14	5.196029E-16
7.440000E+03	2.332094E-14	5.074548E-16
7.450000E+03	2.279105E-14	4.926262E-16
7.460000E+03	2.214415E-14	4.753238E-16
7.470000E+03	2.139407E-14	4.559061E-16
7.480000E+03	2.056488E-14	4.349434E-16
7.490000E+03	1.968835E-14	4.131543E-16
7.500000E+03	1.880132E-14	3.913439E-16
7.510000E+03	1.794214E-14	3.703234E-16
7.520000E+03	1.715003E-14	3.508952E-16
7.530000E+03	1.645814E-14	3.337082E-16
7.540000E+03	1.589311E-14	3.192530E-16
7.550000E+03	1.547267E-14	3.078208E-16
7.560000E+03	1.520726E-14	2.995404E-16
7.570000E+03	1.510003E-14	2.943875E-16
7.580000E+03	1.514736E-14	2.921999E-16
7.590000E+03	1.534084E-14	2.927241E-16
7.600000E+03	1.566643E-14	2.956042E-16
7.610000E+03	1.610667E-14	3.004297E-16
7.620000E+03	1.663833E-14	3.066970E-16
7.630000E+03	1.723522E-14	3.138679E-16
7.640000E+03	1.786760E-14	3.213630E-16
7.650000E+03	1.850383E-14	3.285958E-16
7.660000E+03	1.911440E-14	3.350473E-16
7.670000E+03	1.967314E-14	3.402845E-16
7.680000E+03	2.016285E-14	3.440534E-16
7.690000E+03	2.057372E-14	3.462422E-16
7.700000E+03	2.090914E-14	3.469690E-16
7.710000E+03	2.117909E-14	3.464584E-16
7.720000E+03	2.139986E-14	3.450283E-16
7.730000E+03	2.158778E-14	3.429834E-16
7.740000E+03	2.175728E-14	3.405844E-16
7.750000E+03	2.191776E-14	3.380016E-16
7.760000E+03	2.207079E-14	3.352795E-16
