#wls	flux	fluxerr
1.600000E+03	1.065887E-16	3.887826E-17
1.640000E+03	1.072297E-16	3.880528E-17
1.680000E+03	1.078131E-16	3.870210E-17
1.720000E+03	1.083487E-16	3.857251E-17
1.760000E+03	1.088456E-16	3.841998E-17
1.800000E+03	1.092726E-16	3.823379E-17
1.840000E+03	1.096176E-16	3.801022E-17
1.880000E+03	1.099064E-16	3.775885E-17
1.920000E+03	1.100862E-16	3.746204E-17
1.960000E+03	1.101811E-16	3.712896E-17
2.000000E+03	1.101565E-16	3.674880E-17
2.040000E+03	1.100159E-16	3.632384E-17
2.080000E+03	1.097241E-16	3.584374E-17
2.120000E+03	1.093026E-16	3.531708E-17
2.160000E+03	1.087348E-16	3.473991E-17
2.200000E+03	1.079863E-16	3.410301E-17
2.240000E+03	1.070781E-16	3.341505E-17
2.280000E+03	1.059776E-16	3.266789E-17
2.320000E+03	1.047067E-16	3.187055E-17
2.360000E+03	1.032362E-16	3.101646E-17
2.400000E+03	1.015738E-16	3.011047E-17
2.440000E+03	9.972813E-17	2.915771E-17
2.480000E+03	9.769457E-17	2.815944E-17
2.520000E+03	9.547227E-17	2.711811E-17
2.560000E+03	9.310614E-17	2.604907E-17
2.600000E+03	9.058573E-17	2.495174E-17
2.640000E+03	8.793276E-17	2.383450E-17
2.680000E+03	8.517115E-17	2.270600E-17
2.720000E+03	8.232659E-17	2.157497E-17
2.760000E+03	7.943701E-17	2.045286E-17
2.800000E+03	7.652934E-17	1.934770E-17
2.840000E+03	7.362246E-17	1.826501E-17
2.880000E+03	7.077252E-17	1.721902E-17
2.920000E+03	6.798910E-17	1.621179E-17
2.960000E+03	6.532372E-17	1.525494E-17
3.000000E+03	6.279420E-17	1.435137E-17
3.010000E+03	6.218816E-17	1.413479E-17
3.020000E+03	6.159588E-17	1.392260E-17
3.030000E+03	6.101753E-17	1.371479E-17
3.040000E+03	6.044691E-17	1.350993E-17
3.050000E+03	5.989713E-17	1.331092E-17
3.060000E+03	5.935576E-17	1.311493E-17
3.070000E+03	5.882945E-17	1.292340E-17
3.080000E+03	5.831254E-17	1.273505E-17
3.090000E+03	5.781735E-17	1.255251E-17
3.100000E+03	5.733817E-17	1.237449E-17
3.110000E+03	5.687539E-17	1.220100E-17
3.120000E+03	5.642943E-17	1.203209E-17
3.130000E+03	5.600076E-17	1.186778E-17
3.140000E+03	5.558988E-17	1.170813E-17
3.150000E+03	5.520261E-17	1.155428E-17
3.160000E+03	5.483413E-17	1.140516E-17
3.170000E+03	5.448511E-17	1.126082E-17
3.180000E+03	5.416130E-17	1.112238E-17
3.190000E+03	5.385833E-17	1.098885E-17
3.200000E+03	5.358196E-17	1.086131E-17
3.210000E+03	5.332815E-17	1.073886E-17
3.220000E+03	5.310269E-17	1.062257E-17
3.230000E+03	5.290653E-17	1.051251E-17
3.240000E+03	5.273622E-17	1.040789E-17
3.250000E+03	5.259766E-17	1.030976E-17
3.260000E+03	5.249666E-17	1.021914E-17
3.270000E+03	5.242584E-17	1.013443E-17
3.280000E+03	5.239139E-17	1.005672E-17
3.290000E+03	5.239523E-17	9.986225E-18
3.300000E+03	5.243946E-17	9.923181E-18
3.310000E+03	5.253063E-17	9.868657E-18
3.320000E+03	5.266708E-17	9.822153E-18
3.330000E+03	5.285172E-17	9.784020E-18
3.340000E+03	5.309182E-17	9.755396E-18
3.350000E+03	5.338682E-17	9.735951E-18
3.360000E+03	5.374469E-17	9.726897E-18
3.370000E+03	5.416974E-17	9.728746E-18
3.380000E+03	5.466282E-17	9.741367E-18
3.390000E+03	5.523327E-17	9.766128E-18
3.400000E+03	5.588707E-17	9.803749E-18
3.410000E+03	5.663484E-17	9.855727E-18
3.420000E+03	5.747607E-17	9.921575E-18
3.430000E+03	5.842700E-17	1.000367E-17
3.440000E+03	5.948895E-17	1.010178E-17
3.450000E+03	6.068424E-17	1.021918E-17
3.460000E+03	6.201657E-17	1.035591E-17
3.470000E+03	6.349891E-17	1.051354E-17
3.480000E+03	6.514999E-17	1.069450E-17
3.490000E+03	6.698636E-17	1.090074E-17
3.500000E+03	6.902661E-17	1.113446E-17
3.510000E+03	7.128742E-17	1.139745E-17
3.520000E+03	7.380102E-17	1.169387E-17
3.530000E+03	7.658987E-17	1.202612E-17
3.540000E+03	7.968884E-17	1.239845E-17
3.550000E+03	8.312769E-17	1.281408E-17
3.560000E+03	8.694511E-17	1.327745E-17
3.570000E+03	9.118995E-17	1.379427E-17
3.580000E+03	9.591229E-17	1.437020E-17
3.590000E+03	1.011688E-16	1.501153E-17
3.600000E+03	1.070234E-16	1.572533E-17
3.610000E+03	1.135420E-16	1.651857E-17
3.620000E+03	1.208235E-16	1.740254E-17
3.630000E+03	1.289396E-16	1.838414E-17
3.640000E+03	1.380029E-16	1.947557E-17
3.650000E+03	1.481232E-16	2.068800E-17
3.660000E+03	1.594124E-16	2.203222E-17
3.670000E+03	1.720058E-16	2.352161E-17
3.680000E+03	1.860411E-16	2.516901E-17
3.690000E+03	2.016744E-16	2.698893E-17
3.700000E+03	2.190445E-16	2.899272E-17
3.710000E+03	2.383398E-16	3.119733E-17
3.720000E+03	2.597350E-16	3.361687E-17
3.730000E+03	2.834566E-16	3.627106E-17
3.740000E+03	3.096948E-16	3.917362E-17
3.750000E+03	3.387393E-16	4.234968E-17
3.760000E+03	3.708607E-16	4.582023E-17
3.770000E+03	4.063733E-16	4.961008E-17
3.780000E+03	4.456241E-16	5.374607E-17
3.790000E+03	4.889908E-16	5.825670E-17
3.800000E+03	5.368978E-16	6.317373E-17
3.810000E+03	5.897690E-16	6.852641E-17
3.820000E+03	6.480053E-16	7.433884E-17
3.830000E+03	7.120311E-16	8.063548E-17
3.840000E+03	7.822300E-16	8.743377E-17
3.850000E+03	8.588217E-16	9.473083E-17
3.860000E+03	9.419890E-16	1.025186E-16
3.870000E+03	1.031773E-15	1.107727E-16
3.880000E+03	1.128008E-15	1.194468E-16
3.890000E+03	1.230249E-15	1.284664E-16
3.900000E+03	1.338051E-15	1.377598E-16
3.910000E+03	1.450578E-15	1.472182E-16
3.920000E+03	1.566957E-15	1.567344E-16
3.930000E+03	1.686087E-15	1.661838E-16
3.940000E+03	1.806919E-15	1.754533E-16
3.950000E+03	1.928172E-15	1.844141E-16
3.960000E+03	2.048541E-15	1.929426E-16
3.970000E+03	2.166593E-15	2.009112E-16
3.980000E+03	2.281016E-15	2.082116E-16
3.990000E+03	2.390339E-15	2.147291E-16
4.000000E+03	2.492962E-15	2.203460E-16
4.010000E+03	2.587643E-15	2.249851E-16
4.020000E+03	2.673147E-15	2.285769E-16
4.030000E+03	2.748644E-15	2.310929E-16
4.040000E+03	2.813769E-15	2.325480E-16
4.050000E+03	2.868706E-15	2.330034E-16
4.060000E+03	2.914292E-15	2.325710E-16
4.070000E+03	2.951694E-15	2.313840E-16
4.080000E+03	2.982818E-15	2.296257E-16
4.090000E+03	3.009587E-15	2.274697E-16
4.100000E+03	3.034272E-15	2.251047E-16
4.110000E+03	3.059031E-15	2.226982E-16
4.120000E+03	3.085752E-15	2.203871E-16
4.130000E+03	3.116087E-15	2.182812E-16
4.140000E+03	3.151397E-15	2.164615E-16
4.150000E+03	3.192459E-15	2.149630E-16
4.160000E+03	3.239846E-15	2.138034E-16
4.170000E+03	3.293907E-15	2.129833E-16
4.180000E+03	3.354605E-15	2.124781E-16
4.190000E+03	3.421710E-15	2.122518E-16
4.200000E+03	3.494943E-15	2.122679E-16
4.210000E+03	3.573648E-15	2.124696E-16
4.220000E+03	3.657222E-15	2.128074E-16
4.230000E+03	3.744806E-15	2.132217E-16
4.240000E+03	3.835432E-15	2.136519E-16
4.250000E+03	3.928493E-15	2.140628E-16
4.260000E+03	4.023254E-15	2.144165E-16
4.270000E+03	4.119634E-15	2.147139E-16
4.280000E+03	4.217856E-15	2.149725E-16
4.290000E+03	4.318557E-15	2.152310E-16
4.300000E+03	4.422604E-15	2.155375E-16
4.310000E+03	4.530744E-15	2.159324E-16
4.320000E+03	4.643097E-15	2.164252E-16
4.330000E+03	4.758640E-15	2.169751E-16
4.340000E+03	4.874490E-15	2.174643E-16
4.350000E+03	4.985508E-15	2.176897E-16
4.360000E+03	5.084444E-15	2.173781E-16
4.370000E+03	5.162596E-15	2.162212E-16
4.380000E+03	5.211528E-15	2.139487E-16
4.390000E+03	5.226987E-15	2.104809E-16
4.400000E+03	5.212532E-15	2.060525E-16
4.410000E+03	5.179219E-15	2.011699E-16
4.420000E+03	5.141562E-15	1.964343E-16
4.430000E+03	5.113421E-15	1.923819E-16
4.440000E+03	5.106598E-15	1.894411E-16
4.450000E+03	5.129711E-15	1.879039E-16
4.460000E+03	5.188185E-15	1.879393E-16
4.470000E+03	5.284701E-15	1.896205E-16
4.480000E+03	5.418720E-15	1.929150E-16
4.490000E+03	5.587046E-15	1.977096E-16
4.500000E+03	5.783982E-15	2.038087E-16
4.510000E+03	6.001394E-15	2.109396E-16
4.520000E+03	6.229790E-15	2.187893E-16
4.530000E+03	6.458567E-15	2.270085E-16
4.540000E+03	6.676882E-15	2.352356E-16
4.550000E+03	6.874835E-15	2.431327E-16
4.560000E+03	7.043618E-15	2.503869E-16
4.570000E+03	7.176766E-15	2.567520E-16
4.580000E+03	7.269887E-15	2.620394E-16
4.590000E+03	7.321216E-15	2.661403E-16
4.600000E+03	7.331322E-15	2.690189E-16
4.610000E+03	7.302536E-15	2.706970E-16
4.620000E+03	7.239221E-15	2.712691E-16
4.630000E+03	7.146371E-15	2.708558E-16
4.640000E+03	7.029803E-15	2.696147E-16
4.650000E+03	6.895355E-15	2.677133E-16
4.660000E+03	6.748600E-15	2.653199E-16
4.670000E+03	6.594584E-15	2.625933E-16
4.680000E+03	6.437640E-15	2.596755E-16
4.690000E+03	6.281241E-15	2.566842E-16
4.700000E+03	6.128293E-15	2.537234E-16
4.710000E+03	5.980690E-15	2.508628E-16
4.720000E+03	5.839876E-15	2.481594E-16
4.730000E+03	5.706851E-15	2.456561E-16
4.740000E+03	5.582324E-15	2.433870E-16
4.750000E+03	5.466855E-15	2.413828E-16
4.760000E+03	5.360945E-15	2.396740E-16
4.770000E+03	5.265076E-15	2.382924E-16
4.780000E+03	5.179694E-15	2.372701E-16
4.790000E+03	5.105154E-15	2.366366E-16
4.800000E+03	5.041657E-15	2.364155E-16
4.810000E+03	4.989309E-15	2.366264E-16
4.820000E+03	4.947817E-15	2.372706E-16
4.830000E+03	4.916827E-15	2.383456E-16
4.840000E+03	4.895808E-15	2.398393E-16
4.850000E+03	4.884290E-15	2.417419E-16
4.860000E+03	4.881652E-15	2.440344E-16
4.870000E+03	4.887200E-15	2.466931E-16
4.880000E+03	4.900120E-15	2.496864E-16
4.890000E+03	4.919275E-15	2.529644E-16
4.900000E+03	4.942988E-15	2.564468E-16
4.910000E+03	4.969089E-15	2.600242E-16
4.920000E+03	4.994556E-15	2.635386E-16
4.930000E+03	5.016050E-15	2.668098E-16
4.940000E+03	5.029903E-15	2.696346E-16
4.950000E+03	5.032450E-15	2.718046E-16
4.960000E+03	5.020756E-15	2.731459E-16
4.970000E+03	4.992944E-15	2.735390E-16
4.980000E+03	4.948707E-15	2.729493E-16
4.990000E+03	4.889396E-15	2.714350E-16
5.000000E+03	4.817961E-15	2.691468E-16
5.010000E+03	4.738818E-15	2.663229E-16
5.020000E+03	4.657060E-15	2.632464E-16
5.030000E+03	4.577911E-15	2.602148E-16
5.040000E+03	4.506303E-15	2.575155E-16
5.050000E+03	4.446259E-15	2.553896E-16
5.060000E+03	4.400714E-15	2.540192E-16
5.070000E+03	4.371262E-15	2.535113E-16
5.080000E+03	4.358324E-15	2.539054E-16
5.090000E+03	4.361325E-15	2.551824E-16
5.100000E+03	4.378621E-15	2.572587E-16
5.110000E+03	4.408067E-15	2.600186E-16
5.120000E+03	4.447069E-15	2.633178E-16
5.130000E+03	4.492915E-15	2.670017E-16
5.140000E+03	4.542778E-15	2.709064E-16
5.150000E+03	4.594198E-15	2.748873E-16
5.160000E+03	4.644892E-15	2.788089E-16
5.170000E+03	4.692833E-15	2.825490E-16
5.180000E+03	4.736367E-15	2.860071E-16
5.190000E+03	4.774196E-15	2.891033E-16
5.200000E+03	4.805277E-15	2.917724E-16
5.210000E+03	4.828791E-15	2.939628E-16
5.220000E+03	4.844286E-15	2.956449E-16
5.230000E+03	4.851488E-15	2.968004E-16
5.240000E+03	4.850279E-15	2.974203E-16
5.250000E+03	4.840753E-15	2.975093E-16
5.260000E+03	4.823181E-15	2.970830E-16
5.270000E+03	4.797874E-15	2.961599E-16
5.280000E+03	4.765111E-15	2.947568E-16
5.290000E+03	4.725425E-15	2.929065E-16
5.300000E+03	4.679241E-15	2.906355E-16
5.310000E+03	4.627078E-15	2.879762E-16
5.320000E+03	4.569497E-15	2.849639E-16
5.330000E+03	4.507068E-15	2.816349E-16
5.340000E+03	4.440477E-15	2.780325E-16
5.350000E+03	4.370494E-15	2.742058E-16
5.360000E+03	4.297977E-15	2.702096E-16
5.370000E+03	4.223823E-15	2.661012E-16
5.380000E+03	4.149021E-15	2.619442E-16
5.390000E+03	4.074503E-15	2.577989E-16
5.400000E+03	4.001157E-15	2.537232E-16
5.410000E+03	3.929603E-15	2.497580E-16
5.420000E+03	3.860311E-15	2.459352E-16
5.430000E+03	3.793288E-15	2.422562E-16
5.440000E+03	3.728237E-15	2.387007E-16
5.450000E+03	3.664405E-15	2.352191E-16
5.460000E+03	3.600749E-15	2.317426E-16
5.470000E+03	3.535967E-15	2.281853E-16
5.480000E+03	3.468620E-15	2.244513E-16
5.490000E+03	3.397184E-15	2.204383E-16
5.500000E+03	3.320134E-15	2.160430E-16
5.510000E+03	3.236212E-15	2.111784E-16
5.520000E+03	3.144621E-15	2.057866E-16
5.530000E+03	3.045113E-15	1.998455E-16
5.540000E+03	2.938322E-15	1.933908E-16
5.550000E+03	2.825559E-15	1.865034E-16
5.560000E+03	2.708734E-15	1.793052E-16
5.570000E+03	2.590273E-15	1.719538E-16
5.580000E+03	2.472688E-15	1.646146E-16
5.590000E+03	2.358641E-15	1.574653E-16
5.600000E+03	2.250480E-15	1.506644E-16
5.610000E+03	2.150349E-15	1.443589E-16
5.620000E+03	2.059985E-15	1.386699E-16
5.630000E+03	1.980760E-15	1.336952E-16
5.640000E+03	1.913660E-15	1.295075E-16
5.650000E+03	1.859341E-15	1.261577E-16
5.660000E+03	1.818188E-15	1.236788E-16
5.670000E+03	1.790412E-15	1.220916E-16
5.680000E+03	1.775985E-15	1.214010E-16
5.690000E+03	1.774814E-15	1.216068E-16
5.700000E+03	1.786713E-15	1.227023E-16
5.710000E+03	1.811379E-15	1.246721E-16
5.720000E+03	1.848459E-15	1.274968E-16
5.730000E+03	1.897460E-15	1.311472E-16
5.740000E+03	1.957806E-15	1.355870E-16
5.750000E+03	2.028746E-15	1.407676E-16
5.760000E+03	2.109333E-15	1.466259E-16
5.770000E+03	2.198399E-15	1.530824E-16
5.780000E+03	2.294490E-15	1.600369E-16
5.790000E+03	2.395947E-15	1.673739E-16
5.800000E+03	2.500759E-15	1.749522E-16
5.810000E+03	2.606672E-15	1.826128E-16
5.820000E+03	2.711326E-15	1.901881E-16
5.830000E+03	2.812182E-15	1.974972E-16
5.840000E+03	2.906830E-15	2.043676E-16
5.850000E+03	2.993021E-15	2.106375E-16
5.860000E+03	3.068815E-15	2.161665E-16
5.870000E+03	3.132679E-15	2.208430E-16
5.880000E+03	3.183515E-15	2.245861E-16
5.890000E+03	3.220739E-15	2.273517E-16
5.900000E+03	3.244270E-15	2.291313E-16
5.910000E+03	3.254378E-15	2.299424E-16
5.920000E+03	3.251727E-15	2.298304E-16
5.930000E+03	3.237232E-15	2.288593E-16
5.940000E+03	3.212134E-15	2.271168E-16
5.950000E+03	3.177697E-15	2.246927E-16
5.960000E+03	3.135375E-15	2.216907E-16
5.970000E+03	3.086697E-15	2.182200E-16
5.980000E+03	3.033219E-15	2.143921E-16
5.990000E+03	2.976584E-15	2.103247E-16
6.000000E+03	2.918410E-15	2.061338E-16
6.010000E+03	2.860196E-15	2.019268E-16
6.020000E+03	2.803569E-15	1.978199E-16
6.030000E+03	2.749909E-15	1.939119E-16
6.040000E+03	2.700622E-15	1.903027E-16
6.050000E+03	2.656999E-15	1.870841E-16
6.060000E+03	2.620195E-15	1.843376E-16
6.070000E+03	2.591384E-15	1.821457E-16
6.080000E+03	2.571610E-15	1.805812E-16
6.090000E+03	2.561962E-15	1.797196E-16
6.100000E+03	2.563442E-15	1.796300E-16
6.110000E+03	2.577041E-15	1.803797E-16
6.120000E+03	2.603627E-15	1.820275E-16
6.130000E+03	2.644070E-15	1.846315E-16
6.140000E+03	2.698957E-15	1.882299E-16
6.150000E+03	2.768704E-15	1.928482E-16
6.160000E+03	2.853276E-15	1.984811E-16
6.170000E+03	2.952241E-15	2.050951E-16
6.180000E+03	3.064564E-15	2.126155E-16
6.190000E+03	3.188390E-15	2.209110E-16
6.200000E+03	3.321163E-15	2.298029E-16
6.210000E+03	3.459478E-15	2.390551E-16
6.220000E+03	3.599199E-15	2.483826E-16
6.230000E+03	3.735587E-15	2.574605E-16
6.240000E+03	3.863771E-15	2.659569E-16
6.250000E+03	3.978695E-15	2.735292E-16
6.260000E+03	4.075981E-15	2.798831E-16
6.270000E+03	4.151874E-15	2.847683E-16
6.280000E+03	4.203742E-15	2.880126E-16
6.290000E+03	4.230257E-15	2.895335E-16
6.300000E+03	4.231374E-15	2.893357E-16
6.310000E+03	4.208299E-15	2.875091E-16
6.320000E+03	4.163324E-15	2.842162E-16
6.330000E+03	4.099569E-15	2.796748E-16
6.340000E+03	4.020785E-15	2.741444E-16
6.350000E+03	3.930757E-15	2.678850E-16
6.360000E+03	3.833510E-15	2.611719E-16
6.370000E+03	3.732667E-15	2.542521E-16
6.380000E+03	3.631466E-15	2.473457E-16
6.390000E+03	3.532747E-15	2.406448E-16
6.400000E+03	3.438776E-15	2.343033E-16
6.410000E+03	3.351297E-15	2.284386E-16
6.420000E+03	3.271506E-15	2.231320E-16
6.430000E+03	3.200201E-15	2.184377E-16
6.440000E+03	3.137704E-15	2.143779E-16
6.450000E+03	3.083902E-15	2.109458E-16
6.460000E+03	3.038333E-15	2.081111E-16
6.470000E+03	3.000211E-15	2.058217E-16
6.480000E+03	2.968337E-15	2.039958E-16
6.490000E+03	2.941274E-15	2.025336E-16
6.500000E+03	2.917278E-15	2.013141E-16
6.510000E+03	2.894551E-15	2.002116E-16
6.520000E+03	2.871284E-15	1.990989E-16
6.530000E+03	2.846008E-15	1.978708E-16
6.540000E+03	2.817536E-15	1.964410E-16
6.550000E+03	2.785198E-15	1.947581E-16
6.560000E+03	2.748729E-15	1.927985E-16
6.570000E+03	2.708245E-15	1.905649E-16
6.580000E+03	2.664053E-15	1.880737E-16
6.590000E+03	2.616719E-15	1.853594E-16
6.600000E+03	2.566853E-15	1.824607E-16
6.610000E+03	2.515132E-15	1.794212E-16
6.620000E+03	2.462290E-15	1.762896E-16
6.630000E+03	2.409029E-15	1.731131E-16
6.640000E+03	2.356045E-15	1.699393E-16
6.650000E+03	2.303917E-15	1.668081E-16
6.660000E+03	2.253230E-15	1.637610E-16
6.670000E+03	2.204396E-15	1.608273E-16
6.680000E+03	2.157785E-15	1.580339E-16
6.690000E+03	2.113672E-15	1.554016E-16
6.700000E+03	2.072191E-15	1.529409E-16
6.710000E+03	2.033444E-15	1.506604E-16
6.720000E+03	1.997439E-15	1.485618E-16
6.730000E+03	1.964153E-15	1.466449E-16
6.740000E+03	1.933476E-15	1.449026E-16
6.750000E+03	1.905327E-15	1.433303E-16
6.760000E+03	1.879590E-15	1.419205E-16
6.770000E+03	1.856164E-15	1.406668E-16
6.780000E+03	1.834961E-15	1.395639E-16
6.790000E+03	1.815948E-15	1.386103E-16
6.800000E+03	1.799092E-15	1.378048E-16
6.810000E+03	1.784392E-15	1.371483E-16
6.820000E+03	1.771843E-15	1.366417E-16
6.830000E+03	1.761515E-15	1.362915E-16
6.840000E+03	1.753418E-15	1.360995E-16
6.850000E+03	1.747568E-15	1.360683E-16
6.860000E+03	1.743968E-15	1.361990E-16
6.870000E+03	1.742616E-15	1.364925E-16
6.880000E+03	1.743456E-15	1.369454E-16
6.890000E+03	1.746358E-15	1.375483E-16
6.900000E+03	1.751268E-15	1.382975E-16
6.910000E+03	1.757997E-15	1.391787E-16
6.920000E+03	1.766405E-15	1.401812E-16
6.930000E+03	1.776325E-15	1.412918E-16
6.940000E+03	1.787572E-15	1.424959E-16
6.950000E+03	1.800060E-15	1.437864E-16
6.960000E+03	1.813640E-15	1.451513E-16
6.970000E+03	1.828261E-15	1.465859E-16
6.980000E+03	1.843975E-15	1.480940E-16
6.990000E+03	1.860805E-15	1.496771E-16
7.000000E+03	1.878916E-15	1.513477E-16
7.010000E+03	1.898498E-15	1.531207E-16
7.020000E+03	1.919886E-15	1.550225E-16
7.030000E+03	1.943388E-15	1.570774E-16
7.040000E+03	1.969414E-15	1.593177E-16
7.050000E+03	1.998452E-15	1.617824E-16
7.060000E+03	2.030992E-15	1.645101E-16
7.070000E+03	2.067488E-15	1.675367E-16
7.080000E+03	2.108521E-15	1.709077E-16
7.090000E+03	2.154471E-15	1.746527E-16
7.100000E+03	2.205799E-15	1.788069E-16
7.110000E+03	2.262756E-15	1.833884E-16
7.120000E+03	2.325581E-15	1.884136E-16
7.130000E+03	2.394226E-15	1.938756E-16
7.140000E+03	2.468530E-15	1.997575E-16
7.150000E+03	2.548030E-15	2.060177E-16
7.160000E+03	2.632067E-15	2.125984E-16
7.170000E+03	2.719625E-15	2.194128E-16
7.180000E+03	2.809435E-15	2.263538E-16
7.190000E+03	2.899955E-15	2.332926E-16
7.200000E+03	2.989364E-15	2.400789E-16
7.210000E+03	3.075752E-15	2.465557E-16
7.220000E+03	3.157045E-15	2.525547E-16
7.230000E+03	3.231225E-15	2.579138E-16
7.240000E+03	3.296367E-15	2.624800E-16
7.250000E+03	3.350866E-15	2.661280E-16
7.260000E+03	3.393357E-15	2.687539E-16
7.270000E+03	3.422867E-15	2.702866E-16
7.280000E+03	3.438922E-15	2.706967E-16
7.290000E+03	3.441378E-15	2.699820E-16
7.300000E+03	3.430467E-15	2.681713E-16
7.310000E+03	3.406751E-15	2.653198E-16
7.320000E+03	3.371182E-15	2.615136E-16
7.330000E+03	3.324678E-15	2.568360E-16
7.340000E+03	3.268458E-15	2.513934E-16
7.350000E+03	3.203721E-15	2.452899E-16
7.360000E+03	3.131693E-15	2.386307E-16
7.370000E+03	3.053641E-15	2.315229E-16
7.380000E+03	2.970808E-15	2.240708E-16
7.390000E+03	2.884328E-15	2.163688E-16
7.400000E+03	2.795413E-15	2.085156E-16
7.410000E+03	2.705119E-15	2.005966E-16
7.420000E+03	2.614597E-15	1.927024E-16
7.430000E+03	2.524793E-15	1.849069E-16
7.440000E+03	2.436661E-15	1.772822E-16
7.450000E+03	2.351101E-15	1.698951E-16
7.460000E+03	2.268890E-15	1.628014E-16
7.470000E+03	2.190710E-15	1.560483E-16
7.480000E+03	2.117139E-15	1.496738E-16
7.490000E+03	2.048712E-15	1.437112E-16
7.500000E+03	1.985775E-15	1.381794E-16
7.510000E+03	1.928607E-15	1.330912E-16
7.520000E+03	1.877446E-15	1.284556E-16
7.530000E+03	1.832391E-15	1.242709E-16
7.540000E+03	1.793458E-15	1.205295E-16
7.550000E+03	1.760615E-15	1.172199E-16
7.560000E+03	1.733713E-15	1.143223E-16
7.570000E+03	1.712608E-15	1.118177E-16
7.580000E+03	1.697038E-15	1.096790E-16
7.590000E+03	1.686761E-15	1.078808E-16
7.600000E+03	1.681404E-15	1.063899E-16
7.610000E+03	1.680657E-15	1.051776E-16
7.620000E+03	1.684128E-15	1.042110E-16
7.630000E+03	1.691402E-15	1.034563E-16
7.640000E+03	1.702023E-15	1.028786E-16
7.650000E+03	1.715500E-15	1.024420E-16
7.660000E+03	1.731297E-15	1.021094E-16
7.670000E+03	1.748881E-15	1.018453E-16
7.680000E+03	1.767554E-15	1.016066E-16
7.690000E+03	1.786731E-15	1.013584E-16
7.700000E+03	1.805707E-15	1.010616E-16
7.710000E+03	1.823772E-15	1.006785E-16
7.720000E+03	1.840285E-15	1.001781E-16
7.730000E+03	1.854645E-15	9.953331E-17
7.740000E+03	1.866238E-15	9.871867E-17
7.750000E+03	1.874634E-15	9.772042E-17
7.760000E+03	1.879408E-15	9.652645E-17
