#wls	flux	fluxerr
1.600000E+03	6.913044E-17	1.756092E-20
1.640000E+03	7.036766E-17	1.787521E-20
1.680000E+03	7.172965E-17	1.822119E-20
1.720000E+03	7.321595E-17	1.859874E-20
1.760000E+03	7.483979E-17	1.901124E-20
1.800000E+03	7.661611E-17	1.946247E-20
1.840000E+03	7.857562E-17	1.996024E-20
1.880000E+03	8.070984E-17	2.050239E-20
1.920000E+03	8.306853E-17	2.110156E-20
1.960000E+03	8.566225E-17	2.176043E-20
2.000000E+03	8.851883E-17	2.248607E-20
2.040000E+03	9.168609E-17	2.329064E-20
2.080000E+03	9.516849E-17	2.417526E-20
2.120000E+03	9.904041E-17	2.515883E-20
2.160000E+03	1.033331E-16	2.624929E-20
2.200000E+03	1.081202E-16	2.746534E-20
2.240000E+03	1.134274E-16	2.881350E-20
2.280000E+03	1.193657E-16	3.032197E-20
2.320000E+03	1.259994E-16	3.200710E-20
2.360000E+03	1.334246E-16	3.389330E-20
2.400000E+03	1.417520E-16	3.600866E-20
2.440000E+03	1.511351E-16	3.839222E-20
2.480000E+03	1.616976E-16	4.107538E-20
2.520000E+03	1.736084E-16	4.410103E-20
2.560000E+03	1.870603E-16	4.751815E-20
2.600000E+03	2.023075E-16	5.139134E-20
2.640000E+03	2.195309E-16	5.576651E-20
2.680000E+03	2.390804E-16	6.073261E-20
2.720000E+03	2.612717E-16	6.636978E-20
2.760000E+03	2.863488E-16	7.274000E-20
2.800000E+03	3.147513E-16	7.995495E-20
2.840000E+03	3.467200E-16	8.807585E-20
2.880000E+03	3.827508E-16	9.722860E-20
2.920000E+03	4.229158E-16	1.074315E-19
2.960000E+03	4.673960E-16	1.187307E-19
3.000000E+03	5.161884E-16	1.311252E-19
3.010000E+03	5.290094E-16	1.343820E-19
3.020000E+03	5.420611E-16	1.376975E-19
3.030000E+03	5.553312E-16	1.410685E-19
3.040000E+03	5.688048E-16	1.444911E-19
3.050000E+03	5.824649E-16	1.479611E-19
3.060000E+03	5.962921E-16	1.514736E-19
3.070000E+03	6.102642E-16	1.550229E-19
3.080000E+03	6.243558E-16	1.586025E-19
3.090000E+03	6.385390E-16	1.622054E-19
3.100000E+03	6.527822E-16	1.658235E-19
3.110000E+03	6.670504E-16	1.694480E-19
3.120000E+03	6.813054E-16	1.730692E-19
3.130000E+03	6.955046E-16	1.766761E-19
3.140000E+03	7.096019E-16	1.802572E-19
3.150000E+03	7.235471E-16	1.837996E-19
3.158000E+03	7.770493E-16	1.973906E-19
3.160000E+03	7.670002E-16	1.948379E-19
3.162000E+03	7.544024E-16	1.916377E-19
3.164000E+03	7.440994E-16	1.890205E-19
3.166000E+03	7.381332E-16	1.875049E-19
3.168000E+03	7.368616E-16	1.871819E-19
3.170000E+03	7.361415E-16	1.869989E-19
3.172000E+03	7.316505E-16	1.858581E-19
3.174000E+03	7.282326E-16	1.849899E-19
3.176000E+03	7.263497E-16	1.845116E-19
3.178000E+03	7.225143E-16	1.835373E-19
3.180000E+03	7.206314E-16	1.830590E-19
3.182000E+03	7.185695E-16	1.825352E-19
3.184000E+03	7.228128E-16	1.836131E-19
3.186000E+03	7.239110E-16	1.838921E-19
3.188000E+03	7.259633E-16	1.844134E-19
3.190000E+03	7.279113E-16	1.849083E-19
3.192000E+03	7.312456E-16	1.857553E-19
3.194000E+03	7.352211E-16	1.867652E-19
3.196000E+03	7.361408E-16	1.869988E-19
3.198000E+03	7.361362E-16	1.869976E-19
3.200000E+03	7.504429E-16	1.906319E-19
3.202000E+03	7.583694E-16	1.926454E-19
3.204000E+03	7.618984E-16	1.935419E-19
3.206000E+03	7.482086E-16	1.900643E-19
3.208000E+03	7.432994E-16	1.888172E-19
3.210000E+03	7.581588E-16	1.925919E-19
3.212000E+03	7.669657E-16	1.948291E-19
3.214000E+03	7.678861E-16	1.950629E-19
3.216000E+03	7.810766E-16	1.984136E-19
3.218000E+03	7.934476E-16	2.015562E-19
3.220000E+03	8.030608E-16	2.039982E-19
3.222000E+03	8.216498E-16	2.087203E-19
3.224000E+03	8.377048E-16	2.127986E-19
3.226000E+03	8.397296E-16	2.133130E-19
3.228000E+03	8.486133E-16	2.155697E-19
3.230000E+03	8.603154E-16	2.185423E-19
3.232000E+03	8.594032E-16	2.183106E-19
3.234000E+03	8.751915E-16	2.223212E-19
3.236000E+03	8.794985E-16	2.234153E-19
3.238000E+03	8.811365E-16	2.238314E-19
3.240000E+03	8.780625E-16	2.230505E-19
3.242000E+03	8.679350E-16	2.204779E-19
3.244000E+03	8.649054E-16	2.197083E-19
3.246000E+03	8.681986E-16	2.205449E-19
3.248000E+03	8.736543E-16	2.219307E-19
3.250000E+03	8.762916E-16	2.226007E-19
3.252000E+03	8.747981E-16	2.222213E-19
3.254000E+03	8.689052E-16	2.207243E-19
3.256000E+03	8.680976E-16	2.205192E-19
3.258000E+03	8.701981E-16	2.210528E-19
3.260000E+03	8.682720E-16	2.205635E-19
3.262000E+03	8.672556E-16	2.203053E-19
3.264000E+03	8.746061E-16	2.221725E-19
3.266000E+03	8.714420E-16	2.213688E-19
3.268000E+03	8.635649E-16	2.193678E-19
3.270000E+03	8.550909E-16	2.172152E-19
3.272000E+03	8.529855E-16	2.166803E-19
3.274000E+03	8.554441E-16	2.173049E-19
3.276000E+03	8.534431E-16	2.167966E-19
3.278000E+03	8.557676E-16	2.173870E-19
3.280000E+03	8.564067E-16	2.175494E-19
3.282000E+03	8.504677E-16	2.160407E-19
3.284000E+03	8.449611E-16	2.146419E-19
3.286000E+03	8.367396E-16	2.125534E-19
3.288000E+03	8.362597E-16	2.124315E-19
3.290000E+03	8.370030E-16	2.126204E-19
3.292000E+03	8.363292E-16	2.124492E-19
3.294000E+03	8.387584E-16	2.130663E-19
3.296000E+03	8.391586E-16	2.131679E-19
3.298000E+03	8.378435E-16	2.128339E-19
3.300000E+03	8.344396E-16	2.119692E-19
3.302000E+03	8.317071E-16	2.112751E-19
3.304000E+03	8.296757E-16	2.107590E-19
3.306000E+03	8.287780E-16	2.105310E-19
3.308000E+03	8.252993E-16	2.096473E-19
3.310000E+03	8.228500E-16	2.090251E-19
3.312000E+03	8.238768E-16	2.092860E-19
3.314000E+03	8.272164E-16	2.101343E-19
3.316000E+03	8.319882E-16	2.113465E-19
3.318000E+03	8.330004E-16	2.116036E-19
3.320000E+03	8.324610E-16	2.114666E-19
3.322000E+03	8.338910E-16	2.118298E-19
3.324000E+03	8.329486E-16	2.115904E-19
3.326000E+03	8.323941E-16	2.114496E-19
3.328000E+03	8.352120E-16	2.121654E-19
3.330000E+03	8.362841E-16	2.124377E-19
3.332000E+03	8.387887E-16	2.130740E-19
3.334000E+03	8.352650E-16	2.121788E-19
3.336000E+03	8.337854E-16	2.118030E-19
3.338000E+03	8.338428E-16	2.118176E-19
3.340000E+03	8.353627E-16	2.122037E-19
3.342000E+03	8.348980E-16	2.120856E-19
3.344000E+03	8.294637E-16	2.107052E-19
3.346000E+03	8.252680E-16	2.096393E-19
3.348000E+03	8.243255E-16	2.093999E-19
3.350000E+03	8.219205E-16	2.087890E-19
3.352000E+03	8.169783E-16	2.075335E-19
3.354000E+03	8.137523E-16	2.067141E-19
3.356000E+03	8.103470E-16	2.058490E-19
3.358000E+03	8.091356E-16	2.055413E-19
3.360000E+03	8.081332E-16	2.052867E-19
3.362000E+03	8.031905E-16	2.040311E-19
3.364000E+03	7.994417E-16	2.030788E-19
3.366000E+03	7.984241E-16	2.028203E-19
3.368000E+03	7.998545E-16	2.031837E-19
3.370000E+03	8.007474E-16	2.034105E-19
3.372000E+03	8.016854E-16	2.036488E-19
3.374000E+03	7.983691E-16	2.028063E-19
3.376000E+03	7.975457E-16	2.025972E-19
3.378000E+03	7.954832E-16	2.020732E-19
3.380000E+03	7.941819E-16	2.017427E-19
3.382000E+03	7.977770E-16	2.026559E-19
3.384000E+03	7.995509E-16	2.031065E-19
3.386000E+03	8.001008E-16	2.032462E-19
3.388000E+03	8.012629E-16	2.035414E-19
3.390000E+03	8.024995E-16	2.038556E-19
3.392000E+03	8.024077E-16	2.038322E-19
3.394000E+03	8.024501E-16	2.038430E-19
3.396000E+03	8.009101E-16	2.034518E-19
3.398000E+03	7.961304E-16	2.022376E-19
3.400000E+03	7.942767E-16	2.017667E-19
3.402000E+03	7.934830E-16	2.015651E-19
3.404000E+03	7.946600E-16	2.018641E-19
3.406000E+03	7.921494E-16	2.012264E-19
3.408000E+03	7.890115E-16	2.004293E-19
3.410000E+03	7.899348E-16	2.006638E-19
3.412000E+03	7.901714E-16	2.007239E-19
3.414000E+03	7.852565E-16	1.994754E-19
3.416000E+03	7.836713E-16	1.990727E-19
3.418000E+03	7.841318E-16	1.991897E-19
3.420000E+03	7.871158E-16	1.999477E-19
3.422000E+03	7.891889E-16	2.004743E-19
3.424000E+03	7.865884E-16	1.998137E-19
3.426000E+03	7.865412E-16	1.998017E-19
3.428000E+03	7.860610E-16	1.996798E-19
3.430000E+03	7.891350E-16	2.004606E-19
3.432000E+03	7.939114E-16	2.016740E-19
3.434000E+03	7.976725E-16	2.026294E-19
3.436000E+03	7.983126E-16	2.027920E-19
3.438000E+03	8.012077E-16	2.035274E-19
3.440000E+03	8.051335E-16	2.045247E-19
3.442000E+03	8.044595E-16	2.043534E-19
3.444000E+03	8.050400E-16	2.045009E-19
3.446000E+03	8.034699E-16	2.041021E-19
3.448000E+03	8.018101E-16	2.036804E-19
3.450000E+03	8.021666E-16	2.037710E-19
3.452000E+03	8.030608E-16	2.039981E-19
3.454000E+03	7.999523E-16	2.032085E-19
3.456000E+03	7.967689E-16	2.023998E-19
3.458000E+03	7.970806E-16	2.024790E-19
3.460000E+03	7.957641E-16	2.021446E-19
3.462000E+03	7.955680E-16	2.020948E-19
3.464000E+03	7.979112E-16	2.026900E-19
3.466000E+03	8.013450E-16	2.035623E-19
3.468000E+03	8.036885E-16	2.041576E-19
3.470000E+03	8.022377E-16	2.037890E-19
3.472000E+03	8.025496E-16	2.038683E-19
3.474000E+03	8.050127E-16	2.044940E-19
3.476000E+03	8.049812E-16	2.044860E-19
3.478000E+03	8.027684E-16	2.039239E-19
3.480000E+03	8.011832E-16	2.035212E-19
3.482000E+03	8.035120E-16	2.041127E-19
3.484000E+03	8.041976E-16	2.042869E-19
3.486000E+03	8.066910E-16	2.049203E-19
3.488000E+03	8.068986E-16	2.049730E-19
3.490000E+03	8.017126E-16	2.036556E-19
3.492000E+03	7.976321E-16	2.026191E-19
3.494000E+03	7.982878E-16	2.027857E-19
3.496000E+03	8.003181E-16	2.033014E-19
3.498000E+03	8.033048E-16	2.040601E-19
3.500000E+03	8.018091E-16	2.036802E-19
3.502000E+03	7.995214E-16	2.030990E-19
3.504000E+03	7.989071E-16	2.029430E-19
3.506000E+03	7.999964E-16	2.032197E-19
3.508000E+03	7.995166E-16	2.030978E-19
3.510000E+03	7.963621E-16	2.022965E-19
3.512000E+03	7.963157E-16	2.022847E-19
3.514000E+03	7.969268E-16	2.024399E-19
3.516000E+03	7.952964E-16	2.020258E-19
3.518000E+03	7.965949E-16	2.023556E-19
3.520000E+03	7.990443E-16	2.029778E-19
3.522000E+03	8.028537E-16	2.039455E-19
3.524000E+03	8.043617E-16	2.043286E-19
3.526000E+03	8.069609E-16	2.049888E-19
3.528000E+03	8.077068E-16	2.051783E-19
3.530000E+03	8.085574E-16	2.053944E-19
3.532000E+03	8.102003E-16	2.058117E-19
3.534000E+03	8.115591E-16	2.061569E-19
3.536000E+03	8.099737E-16	2.057542E-19
3.538000E+03	8.095839E-16	2.056552E-19
3.540000E+03	8.101059E-16	2.057878E-19
3.542000E+03	8.110913E-16	2.060381E-19
3.544000E+03	8.091321E-16	2.055404E-19
3.546000E+03	8.083536E-16	2.053426E-19
3.548000E+03	8.094886E-16	2.056309E-19
3.550000E+03	8.084711E-16	2.053725E-19
3.552000E+03	8.065416E-16	2.048823E-19
3.554000E+03	8.038796E-16	2.042061E-19
3.556000E+03	7.982726E-16	2.027818E-19
3.558000E+03	7.982714E-16	2.027815E-19
3.560000E+03	7.957886E-16	2.021508E-19
3.562000E+03	7.912576E-16	2.009998E-19
3.564000E+03	7.885803E-16	2.003197E-19
3.566000E+03	7.883547E-16	2.002624E-19
3.568000E+03	7.876806E-16	2.000911E-19
3.570000E+03	7.845546E-16	1.992971E-19
3.572000E+03	7.822658E-16	1.987156E-19
3.574000E+03	7.820251E-16	1.986545E-19
3.576000E+03	7.819191E-16	1.986276E-19
3.578000E+03	7.823812E-16	1.987450E-19
3.580000E+03	7.812884E-16	1.984674E-19
3.582000E+03	7.816908E-16	1.985696E-19
3.584000E+03	7.784448E-16	1.977450E-19
3.586000E+03	7.811648E-16	1.984360E-19
3.588000E+03	7.818664E-16	1.986142E-19
3.590000E+03	7.834950E-16	1.990279E-19
3.592000E+03	7.828657E-16	1.988680E-19
3.594000E+03	7.809055E-16	1.983701E-19
3.596000E+03	7.811885E-16	1.984420E-19
3.598000E+03	7.828322E-16	1.988595E-19
3.600000E+03	7.850293E-16	1.994176E-19
3.602000E+03	7.852525E-16	1.994743E-19
3.604000E+03	7.845785E-16	1.993031E-19
3.606000E+03	7.846671E-16	1.993256E-19
3.608000E+03	7.838285E-16	1.991126E-19
3.610000E+03	7.836629E-16	1.990705E-19
3.612000E+03	7.864587E-16	1.997807E-19
3.614000E+03	7.892695E-16	2.004947E-19
3.616000E+03	7.890740E-16	2.004451E-19
3.618000E+03	7.872783E-16	1.999889E-19
3.620000E+03	7.893863E-16	2.005244E-19
3.622000E+03	7.908064E-16	2.008852E-19
3.624000E+03	7.922265E-16	2.012459E-19
3.626000E+03	7.911487E-16	2.009721E-19
3.628000E+03	7.914172E-16	2.010403E-19
3.630000E+03	7.948119E-16	2.019027E-19
3.632000E+03	7.950207E-16	2.019557E-19
3.634000E+03	7.946908E-16	2.018719E-19
3.636000E+03	7.926108E-16	2.013435E-19
3.638000E+03	7.904559E-16	2.007961E-19
3.640000E+03	7.910237E-16	2.009403E-19
3.642000E+03	7.909033E-16	2.009098E-19
3.644000E+03	7.898553E-16	2.006435E-19
3.646000E+03	7.904231E-16	2.007878E-19
3.648000E+03	7.864278E-16	1.997729E-19
3.650000E+03	7.820733E-16	1.986667E-19
3.652000E+03	7.801724E-16	1.981838E-19
3.654000E+03	7.806952E-16	1.983166E-19
3.656000E+03	7.834475E-16	1.990158E-19
3.658000E+03	7.856313E-16	1.995705E-19
3.660000E+03	7.860047E-16	1.996654E-19
3.662000E+03	7.840439E-16	1.991673E-19
3.664000E+03	7.779082E-16	1.976087E-19
3.666000E+03	7.740469E-16	1.966278E-19
3.668000E+03	7.755125E-16	1.970001E-19
3.670000E+03	7.759008E-16	1.970987E-19
3.672000E+03	7.779352E-16	1.976155E-19
3.674000E+03	7.783834E-16	1.977294E-19
3.676000E+03	7.764522E-16	1.972388E-19
3.678000E+03	7.727103E-16	1.962883E-19
3.680000E+03	7.676362E-16	1.949993E-19
3.682000E+03	7.665578E-16	1.947254E-19
3.684000E+03	7.681434E-16	1.951282E-19
3.686000E+03	7.719440E-16	1.960936E-19
3.688000E+03	7.764632E-16	1.972416E-19
3.690000E+03	7.802192E-16	1.981957E-19
3.692000E+03	7.856518E-16	1.995757E-19
3.694000E+03	7.908300E-16	2.008911E-19
3.696000E+03	7.935838E-16	2.015907E-19
3.698000E+03	7.909043E-16	2.009100E-19
3.700000E+03	7.911285E-16	2.009669E-19
3.702000E+03	7.921312E-16	2.012217E-19
3.704000E+03	7.928943E-16	2.014155E-19
3.706000E+03	8.000942E-16	2.032445E-19
3.708000E+03	8.031330E-16	2.040164E-19
3.710000E+03	8.074442E-16	2.051116E-19
3.712000E+03	8.142557E-16	2.068418E-19
3.714000E+03	8.212619E-16	2.086216E-19
3.716000E+03	8.243463E-16	2.094051E-19
3.718000E+03	8.251701E-16	2.096144E-19
3.720000E+03	8.240179E-16	2.093217E-19
3.722000E+03	8.221171E-16	2.088389E-19
3.724000E+03	8.174165E-16	2.076448E-19
3.726000E+03	8.118025E-16	2.062187E-19
3.728000E+03	8.078352E-16	2.052109E-19
3.730000E+03	8.062934E-16	2.048192E-19
3.732000E+03	8.064284E-16	2.048535E-19
3.734000E+03	8.134659E-16	2.066412E-19
3.736000E+03	8.198301E-16	2.082579E-19
3.738000E+03	8.244125E-16	2.094219E-19
3.740000E+03	8.274229E-16	2.101867E-19
3.742000E+03	8.328592E-16	2.115676E-19
3.744000E+03	8.377867E-16	2.128193E-19
3.746000E+03	8.393002E-16	2.132038E-19
3.748000E+03	8.407687E-16	2.135768E-19
3.750000E+03	8.391075E-16	2.131548E-19
3.752000E+03	8.383448E-16	2.129611E-19
3.754000E+03	8.380763E-16	2.128929E-19
3.756000E+03	8.371339E-16	2.126535E-19
3.758000E+03	8.377640E-16	2.128135E-19
3.760000E+03	8.372708E-16	2.126883E-19
3.762000E+03	8.348906E-16	2.120836E-19
3.764000E+03	8.320909E-16	2.113724E-19
3.766000E+03	8.308039E-16	2.110455E-19
3.768000E+03	8.335608E-16	2.117458E-19
3.770000E+03	8.367972E-16	2.125679E-19
3.772000E+03	8.413518E-16	2.137249E-19
3.774000E+03	8.464309E-16	2.150152E-19
3.776000E+03	8.553898E-16	2.172909E-19
3.778000E+03	8.645886E-16	2.196277E-19
3.780000E+03	8.713012E-16	2.213328E-19
3.782000E+03	8.762914E-16	2.226005E-19
3.784000E+03	8.798287E-16	2.234991E-19
3.786000E+03	8.834262E-16	2.244129E-19
3.788000E+03	8.858104E-16	2.250185E-19
3.790000E+03	8.882096E-16	2.256280E-19
3.792000E+03	8.917325E-16	2.265229E-19
3.794000E+03	8.920346E-16	2.265997E-19
3.796000E+03	8.894302E-16	2.259381E-19
3.798000E+03	8.893428E-16	2.259159E-19
3.800000E+03	8.910683E-16	2.263542E-19
3.802000E+03	8.937227E-16	2.270285E-19
3.804000E+03	8.934406E-16	2.269568E-19
3.806000E+03	8.882889E-16	2.256481E-19
3.808000E+03	8.801252E-16	2.235744E-19
3.810000E+03	8.726356E-16	2.216718E-19
3.812000E+03	8.650259E-16	2.197387E-19
3.814000E+03	8.625105E-16	2.190998E-19
3.816000E+03	8.637414E-16	2.194124E-19
3.818000E+03	8.609563E-16	2.187049E-19
3.820000E+03	8.601640E-16	2.185037E-19
3.822000E+03	8.570042E-16	2.177010E-19
3.824000E+03	8.567664E-16	2.176406E-19
3.826000E+03	8.582371E-16	2.180142E-19
3.828000E+03	8.633197E-16	2.193053E-19
3.830000E+03	8.726737E-16	2.216815E-19
3.832000E+03	8.816385E-16	2.239588E-19
3.834000E+03	8.889849E-16	2.258249E-19
3.836000E+03	8.942784E-16	2.271696E-19
3.838000E+03	8.971441E-16	2.278976E-19
3.840000E+03	9.023630E-16	2.292233E-19
3.842000E+03	9.041048E-16	2.296658E-19
3.844000E+03	9.026090E-16	2.292858E-19
3.846000E+03	8.999440E-16	2.286088E-19
3.848000E+03	9.005317E-16	2.287581E-19
3.850000E+03	9.018540E-16	2.290940E-19
3.852000E+03	9.035660E-16	2.295289E-19
3.854000E+03	9.078265E-16	2.306112E-19
3.856000E+03	9.097187E-16	2.310918E-19
3.858000E+03	9.099919E-16	2.311612E-19
3.860000E+03	9.105201E-16	2.312954E-19
3.862000E+03	9.083347E-16	2.307403E-19
3.864000E+03	9.020715E-16	2.291492E-19
3.866000E+03	8.982068E-16	2.281675E-19
3.868000E+03	8.973255E-16	2.279436E-19
3.870000E+03	8.984082E-16	2.282187E-19
3.872000E+03	9.004805E-16	2.287451E-19
3.874000E+03	9.042173E-16	2.296943E-19
3.876000E+03	9.096935E-16	2.310854E-19
3.878000E+03	9.188285E-16	2.334059E-19
3.880000E+03	9.301981E-16	2.362941E-19
3.882000E+03	9.402187E-16	2.388396E-19
3.884000E+03	9.470308E-16	2.405700E-19
3.886000E+03	9.513689E-16	2.416720E-19
3.888000E+03	9.555422E-16	2.427322E-19
3.890000E+03	9.583361E-16	2.434419E-19
3.892000E+03	9.555815E-16	2.427421E-19
3.894000E+03	9.520769E-16	2.418519E-19
3.896000E+03	9.511818E-16	2.416245E-19
3.898000E+03	9.462973E-16	2.403837E-19
3.900000E+03	9.431973E-16	2.395962E-19
3.902000E+03	9.414321E-16	2.391478E-19
3.904000E+03	9.423065E-16	2.393699E-19
3.906000E+03	9.449507E-16	2.400416E-19
3.908000E+03	9.470252E-16	2.405686E-19
3.910000E+03	9.517845E-16	2.417776E-19
3.912000E+03	9.591840E-16	2.436573E-19
3.914000E+03	9.689838E-16	2.461467E-19
3.916000E+03	9.789640E-16	2.486819E-19
3.918000E+03	9.866946E-16	2.506456E-19
3.920000E+03	9.966304E-16	2.531696E-19
3.922000E+03	1.005367E-15	2.553889E-19
3.924000E+03	1.010414E-15	2.566709E-19
3.926000E+03	1.012745E-15	2.572630E-19
3.928000E+03	1.015737E-15	2.580231E-19
3.930000E+03	1.016943E-15	2.583295E-19
3.932000E+03	1.016499E-15	2.582167E-19
3.934000E+03	1.017000E-15	2.583441E-19
3.936000E+03	1.016047E-15	2.581020E-19
3.938000E+03	1.015348E-15	2.579244E-19
3.940000E+03	1.011079E-15	2.568399E-19
3.942000E+03	1.003643E-15	2.549510E-19
3.944000E+03	9.967323E-16	2.531954E-19
3.946000E+03	9.907210E-16	2.516684E-19
3.948000E+03	9.821891E-16	2.495011E-19
3.950000E+03	9.726215E-16	2.470707E-19
3.952000E+03	9.627083E-16	2.445525E-19
3.954000E+03	9.523596E-16	2.419236E-19
3.956000E+03	9.412301E-16	2.390965E-19
3.958000E+03	9.301752E-16	2.362882E-19
3.960000E+03	9.216860E-16	2.341318E-19
3.962000E+03	9.138868E-16	2.321506E-19
3.964000E+03	9.063875E-16	2.302456E-19
3.966000E+03	9.022046E-16	2.291830E-19
3.968000E+03	9.042201E-16	2.296950E-19
3.970000E+03	9.062655E-16	2.302146E-19
3.972000E+03	9.103224E-16	2.312451E-19
3.974000E+03	9.182518E-16	2.332594E-19
3.976000E+03	9.269321E-16	2.354644E-19
3.978000E+03	9.345470E-16	2.373988E-19
3.980000E+03	9.452094E-16	2.401073E-19
3.982000E+03	9.564726E-16	2.429684E-19
3.984000E+03	9.674062E-16	2.457458E-19
3.986000E+03	9.785053E-16	2.485653E-19
3.988000E+03	9.897552E-16	2.514231E-19
3.990000E+03	9.995042E-16	2.538996E-19
3.992000E+03	1.010410E-15	2.566698E-19
3.994000E+03	1.021466E-15	2.594783E-19
3.996000E+03	1.032057E-15	2.621688E-19
3.998000E+03	1.042994E-15	2.649471E-19
4.000000E+03	1.053436E-15	2.675996E-19
4.002000E+03	1.063909E-15	2.702599E-19
4.004000E+03	1.072535E-15	2.724511E-19
4.006000E+03	1.080261E-15	2.744138E-19
4.008000E+03	1.089233E-15	2.766930E-19
4.010000E+03	1.098085E-15	2.789417E-19
4.012000E+03	1.110182E-15	2.820146E-19
4.014000E+03	1.125777E-15	2.859761E-19
4.016000E+03	1.141839E-15	2.900563E-19
4.018000E+03	1.157242E-15	2.939689E-19
4.020000E+03	1.169115E-15	2.969850E-19
4.022000E+03	1.176950E-15	2.989753E-19
4.024000E+03	1.184980E-15	3.010151E-19
4.026000E+03	1.193070E-15	3.030703E-19
4.028000E+03	1.197077E-15	3.040880E-19
4.030000E+03	1.196713E-15	3.039956E-19
4.032000E+03	1.195598E-15	3.037124E-19
4.034000E+03	1.194873E-15	3.035283E-19
4.036000E+03	1.192887E-15	3.030238E-19
4.038000E+03	1.190060E-15	3.023056E-19
4.040000E+03	1.186121E-15	3.013049E-19
4.042000E+03	1.185607E-15	3.011743E-19
4.044000E+03	1.184446E-15	3.008795E-19
4.046000E+03	1.180432E-15	2.998597E-19
4.048000E+03	1.179678E-15	2.996681E-19
4.050000E+03	1.182618E-15	3.004150E-19
4.052000E+03	1.184296E-15	3.008413E-19
4.054000E+03	1.184669E-15	3.009360E-19
4.056000E+03	1.184800E-15	3.009694E-19
4.058000E+03	1.184962E-15	3.010106E-19
4.060000E+03	1.181819E-15	3.002121E-19
4.062000E+03	1.175069E-15	2.984974E-19
4.064000E+03	1.166427E-15	2.963022E-19
4.066000E+03	1.158069E-15	2.941790E-19
4.068000E+03	1.152371E-15	2.927316E-19
4.070000E+03	1.144884E-15	2.908297E-19
4.072000E+03	1.134228E-15	2.881226E-19
4.074000E+03	1.123464E-15	2.853885E-19
4.076000E+03	1.113182E-15	2.827764E-19
4.078000E+03	1.102613E-15	2.800918E-19
