#wls	flux	fluxerr
1.592832E+03	8.246579E-03	2.305804E-04
1.632653E+03	8.275664E-03	2.307940E-04
1.672474E+03	8.260097E-03	2.297464E-04
1.712295E+03	8.197050E-03	2.273690E-04
1.752115E+03	8.083379E-03	2.235858E-04
1.791936E+03	7.921227E-03	2.184679E-04
1.831757E+03	7.711252E-03	2.120459E-04
1.871578E+03	7.460366E-03	2.045219E-04
1.911399E+03	7.177201E-03	1.961432E-04
1.951220E+03	6.873624E-03	1.872431E-04
1.991040E+03	6.560763E-03	1.781307E-04
2.030861E+03	6.243785E-03	1.689498E-04
2.070682E+03	5.913641E-03	1.594597E-04
2.110503E+03	5.575147E-03	1.497952E-04
2.150324E+03	5.282331E-03	1.414072E-04
2.190144E+03	5.085086E-03	1.356144E-04
2.229965E+03	5.001634E-03	1.328734E-04
2.269786E+03	5.026743E-03	1.330109E-04
2.309607E+03	5.169108E-03	1.362213E-04
2.349428E+03	5.444683E-03	1.428844E-04
2.389248E+03	5.857297E-03	1.530541E-04
2.429069E+03	6.408682E-03	1.667260E-04
2.468890E+03	7.105452E-03	1.840195E-04
2.508711E+03	7.958491E-03	2.051587E-04
2.548532E+03	8.974028E-03	2.302408E-04
2.588352E+03	1.013837E-02	2.588487E-04
2.628173E+03	1.142029E-02	2.901245E-04
2.667994E+03	1.281039E-02	3.237755E-04
2.707815E+03	1.433186E-02	3.603321E-04
2.747636E+03	1.599881E-02	4.000830E-04
2.787456E+03	1.779732E-02	4.426095E-04
2.827277E+03	1.968999E-02	4.869185E-04
2.867098E+03	2.162384E-02	5.316530E-04
2.906919E+03	2.354183E-02	5.753856E-04
2.946740E+03	2.538654E-02	6.167134E-04
2.986560E+03	2.710317E-02	6.543318E-04
2.996516E+03	2.750577E-02	6.630040E-04
3.006471E+03	2.789680E-02	6.713628E-04
3.016426E+03	2.827386E-02	6.793512E-04
3.026381E+03	2.863787E-02	6.869930E-04
3.036336E+03	2.898710E-02	6.942478E-04
3.046292E+03	2.932050E-02	7.010925E-04
3.056247E+03	2.963772E-02	7.075201E-04
3.066202E+03	2.993841E-02	7.135243E-04
3.076157E+03	3.022098E-02	7.190687E-04
3.086112E+03	3.048581E-02	7.241645E-04
3.096068E+03	3.073141E-02	7.287784E-04
3.106023E+03	3.095771E-02	7.329110E-04
3.115978E+03	3.116482E-02	7.365668E-04
3.125933E+03	3.135253E-02	7.397434E-04
3.135889E+03	3.152061E-02	7.424373E-04
3.145844E+03	3.167210E-02	7.447226E-04
3.155799E+03	3.180792E-02	7.466227E-04
3.165754E+03	3.193230E-02	7.482386E-04
3.175709E+03	3.204888E-02	7.496569E-04
3.185665E+03	3.216167E-02	7.509719E-04
3.195620E+03	3.227468E-02	7.522778E-04
3.205575E+03	3.239282E-02	7.536885E-04
3.215530E+03	3.251871E-02	7.552644E-04
3.225485E+03	3.265494E-02	7.570643E-04
3.235441E+03	3.280395E-02	7.591436E-04
3.245396E+03	3.296746E-02	7.615402E-04
3.255351E+03	3.314531E-02	7.642483E-04
3.265306E+03	3.333761E-02	7.672692E-04
3.275261E+03	3.354307E-02	7.705707E-04
3.285217E+03	3.376007E-02	7.741144E-04
3.295172E+03	3.398519E-02	7.778200E-04
3.305127E+03	3.421486E-02	7.816051E-04
3.315082E+03	3.444604E-02	7.853998E-04
3.325037E+03	3.467344E-02	7.890833E-04
3.334993E+03	3.489350E-02	7.925749E-04
3.344948E+03	3.510296E-02	7.958021E-04
3.354903E+03	3.529805E-02	7.986806E-04
3.364858E+03	3.547814E-02	8.011981E-04
3.374813E+03	3.564190E-02	8.033266E-04
3.384769E+03	3.579035E-02	8.050909E-04
3.394724E+03	3.592633E-02	8.065571E-04
3.404679E+03	3.605272E-02	8.077912E-04
3.414634E+03	3.617353E-02	8.088840E-04
3.424589E+03	3.629217E-02	8.099126E-04
3.434545E+03	3.641288E-02	8.109715E-04
3.444500E+03	3.653776E-02	8.121072E-04
3.454455E+03	3.666655E-02	8.133132E-04
3.464410E+03	3.679739E-02	8.145479E-04
3.474365E+03	3.692505E-02	8.156955E-04
3.484321E+03	3.704245E-02	8.166005E-04
3.494276E+03	3.714127E-02	8.170809E-04
3.504231E+03	3.721180E-02	8.169262E-04
3.514186E+03	3.724452E-02	8.159320E-04
3.524141E+03	3.723034E-02	8.139045E-04
3.534097E+03	3.716092E-02	8.106686E-04
3.544052E+03	3.702924E-02	8.060792E-04
3.554007E+03	3.682985E-02	8.000262E-04
3.563962E+03	3.655868E-02	7.924317E-04
3.573917E+03	3.621377E-02	7.832629E-04
3.583873E+03	3.579644E-02	7.725591E-04
3.593828E+03	3.531023E-02	7.604068E-04
3.603783E+03	3.476344E-02	7.469942E-04
3.613738E+03	3.416961E-02	7.326208E-04
3.623693E+03	3.354557E-02	7.176531E-04
3.633649E+03	3.291227E-02	7.025433E-04
3.643604E+03	3.229294E-02	6.877874E-04
3.653559E+03	3.171192E-02	6.739010E-04
3.663514E+03	3.119255E-02	6.613740E-04
3.673469E+03	3.075577E-02	6.506404E-04
3.683425E+03	3.042006E-02	6.420787E-04
3.693380E+03	3.019832E-02	6.359464E-04
3.703335E+03	3.010028E-02	6.324314E-04
3.713290E+03	3.013117E-02	6.316256E-04
3.723245E+03	3.029284E-02	6.335490E-04
3.733201E+03	3.058357E-02	6.381469E-04
3.743156E+03	3.099856E-02	6.453004E-04
3.753111E+03	3.153037E-02	6.548371E-04
3.763066E+03	3.216782E-02	6.665079E-04
3.773021E+03	3.289644E-02	6.799984E-04
3.782977E+03	3.369763E-02	6.949115E-04
3.792932E+03	3.455046E-02	7.108057E-04
3.802887E+03	3.543028E-02	7.271678E-04
3.812842E+03	3.631142E-02	7.434676E-04
3.822797E+03	3.716673E-02	7.591504E-04
3.832753E+03	3.797084E-02	7.737031E-04
3.842708E+03	3.869897E-02	7.866295E-04
3.852663E+03	3.933078E-02	7.975283E-04
3.862618E+03	3.984901E-02	8.060644E-04
3.872573E+03	4.024092E-02	8.119982E-04
3.882529E+03	4.049936E-02	8.152039E-04
3.892484E+03	4.062277E-02	8.156707E-04
3.902439E+03	4.061534E-02	8.135023E-04
3.912394E+03	4.048655E-02	8.089080E-04
3.922349E+03	4.025080E-02	8.021927E-04
3.932305E+03	3.992723E-02	7.937535E-04
3.942260E+03	3.953742E-02	7.840315E-04
3.952215E+03	3.910337E-02	7.734716E-04
3.962170E+03	3.864853E-02	7.625438E-04
3.972125E+03	3.819441E-02	7.516744E-04
3.982081E+03	3.776058E-02	7.412475E-04
3.992036E+03	3.736273E-02	7.315677E-04
4.001991E+03	3.701243E-02	7.228556E-04
4.011946E+03	3.671637E-02	7.152345E-04
4.021901E+03	3.647493E-02	7.087038E-04
4.031857E+03	3.628430E-02	7.031816E-04
4.041812E+03	3.613710E-02	6.985177E-04
4.051767E+03	3.602436E-02	6.945328E-04
4.061722E+03	3.593545E-02	6.910175E-04
4.071677E+03	3.585929E-02	6.877557E-04
4.081633E+03	3.578402E-02	6.845188E-04
4.091588E+03	3.569773E-02	6.810796E-04
4.101543E+03	3.558946E-02	6.772314E-04
4.111498E+03	3.544946E-02	6.727925E-04
4.121453E+03	3.526934E-02	6.676089E-04
4.131409E+03	3.504369E-02	6.615848E-04
4.141364E+03	3.476861E-02	6.546538E-04
4.151319E+03	3.444266E-02	6.467960E-04
4.161274E+03	3.406604E-02	6.380232E-04
4.171229E+03	3.364037E-02	6.283731E-04
4.181185E+03	3.316948E-02	6.179247E-04
4.191140E+03	3.266059E-02	6.068189E-04
4.201095E+03	3.212459E-02	5.952632E-04
4.211050E+03	3.157684E-02	5.835455E-04
4.221005E+03	3.103657E-02	5.720221E-04
4.230961E+03	3.052555E-02	5.610920E-04
4.240916E+03	3.006583E-02	5.511553E-04
4.250871E+03	2.967829E-02	5.425859E-04
4.260826E+03	2.937860E-02	5.356590E-04
4.270781E+03	2.917712E-02	5.305499E-04
4.280737E+03	2.907711E-02	5.273034E-04
4.290692E+03	2.907595E-02	5.258575E-04
4.300647E+03	2.916531E-02	5.260471E-04
4.310602E+03	2.933353E-02	5.276497E-04
4.320557E+03	2.956807E-02	5.304289E-04
4.330513E+03	2.985701E-02	5.341621E-04
4.340468E+03	3.019173E-02	5.386876E-04
4.350423E+03	3.056658E-02	5.438986E-04
4.360378E+03	3.098058E-02	5.497721E-04
4.370333E+03	3.143492E-02	5.563236E-04
4.380289E+03	3.192837E-02	5.635255E-04
4.390244E+03	3.245648E-02	5.712943E-04
4.400199E+03	3.301198E-02	5.794976E-04
4.410154E+03	3.358508E-02	5.879598E-04
4.420110E+03	3.416392E-02	5.964720E-04
4.430065E+03	3.473273E-02	6.047587E-04
4.440020E+03	3.527317E-02	6.125028E-04
4.449975E+03	3.576471E-02	6.193533E-04
4.459930E+03	3.618771E-02	6.249779E-04
4.469886E+03	3.652349E-02	6.290646E-04
4.479841E+03	3.675618E-02	6.313533E-04
4.489796E+03	3.687561E-02	6.316841E-04
4.499751E+03	3.687639E-02	6.299808E-04
4.509706E+03	3.675972E-02	6.262805E-04
4.519662E+03	3.653317E-02	6.207279E-04
4.529617E+03	3.620939E-02	6.135528E-04
4.539572E+03	3.580444E-02	6.050397E-04
4.549527E+03	3.533619E-02	5.955010E-04
4.559482E+03	3.482245E-02	5.852445E-04
4.569438E+03	3.427880E-02	5.745373E-04
4.579393E+03	3.371772E-02	5.635922E-04
4.589348E+03	3.315018E-02	5.525941E-04
4.599303E+03	3.258455E-02	5.416830E-04
4.609258E+03	3.202757E-02	5.309699E-04
4.619214E+03	3.148648E-02	5.205734E-04
4.629169E+03	3.096856E-02	5.106111E-04
4.639124E+03	3.048126E-02	5.012021E-04
4.649079E+03	3.003297E-02	4.924800E-04
4.659034E+03	2.963090E-02	4.845570E-04
4.668990E+03	2.928166E-02	4.775348E-04
4.678945E+03	2.899004E-02	4.714840E-04
4.688900E+03	2.875955E-02	4.664536E-04
4.698855E+03	2.859193E-02	4.624637E-04
4.708810E+03	2.848879E-02	4.595319E-04
4.718766E+03	2.845053E-02	4.576558E-04
4.728721E+03	2.847803E-02	4.568410E-04
4.738676E+03	2.856973E-02	4.570540E-04
4.748631E+03	2.872232E-02	4.582336E-04
4.758586E+03	2.892857E-02	4.602568E-04
4.768542E+03	2.917513E-02	4.629047E-04
4.778497E+03	2.944401E-02	4.658875E-04
4.788452E+03	2.971199E-02	4.688361E-04
4.798407E+03	2.995499E-02	4.713719E-04
4.808362E+03	3.014986E-02	4.731348E-04
4.818318E+03	3.027824E-02	4.738441E-04
4.828273E+03	3.033034E-02	4.733557E-04
4.838228E+03	3.030591E-02	4.716755E-04
4.848183E+03	3.021329E-02	4.689429E-04
4.858138E+03	3.006954E-02	4.654306E-04
4.868094E+03	2.989708E-02	4.614915E-04
4.878049E+03	2.971994E-02	4.574990E-04
4.888004E+03	2.956234E-02	4.538255E-04
4.897959E+03	2.944520E-02	4.507891E-04
4.907914E+03	2.938464E-02	4.486304E-04
4.917870E+03	2.939087E-02	4.474981E-04
4.927825E+03	2.946798E-02	4.474461E-04
4.937780E+03	2.961537E-02	4.484564E-04
4.947735E+03	2.982780E-02	4.504416E-04
4.957690E+03	3.009784E-02	4.532816E-04
4.967646E+03	3.041722E-02	4.568455E-04
4.977601E+03	3.077812E-02	4.610105E-04
4.987556E+03	3.117390E-02	4.656724E-04
4.997511E+03	3.159912E-02	4.707465E-04
5.007466E+03	3.204889E-02	4.761567E-04
5.017422E+03	3.251877E-02	4.818349E-04
5.027377E+03	3.300379E-02	4.877056E-04
5.037332E+03	3.349777E-02	4.936763E-04
5.047287E+03	3.399306E-02	4.996339E-04
5.057242E+03	3.448055E-02	5.054452E-04
5.067198E+03	3.494931E-02	5.109520E-04
5.077153E+03	3.538922E-02	5.160094E-04
5.087108E+03	3.578980E-02	5.204685E-04
5.097063E+03	3.614084E-02	5.241867E-04
5.107018E+03	3.643452E-02	5.270567E-04
5.116974E+03	3.666554E-02	5.290093E-04
5.126929E+03	3.683073E-02	5.300061E-04
5.136884E+03	3.692889E-02	5.300381E-04
5.146839E+03	3.696267E-02	5.291505E-04
5.156794E+03	3.693751E-02	5.274290E-04
5.166750E+03	3.686072E-02	5.249840E-04
5.176705E+03	3.674296E-02	5.219730E-04
5.186660E+03	3.659723E-02	5.185848E-04
5.196615E+03	3.643838E-02	5.150326E-04
5.206570E+03	3.628094E-02	5.115224E-04
5.216526E+03	3.613874E-02	5.082491E-04
5.226481E+03	3.602300E-02	5.053684E-04
5.236436E+03	3.594212E-02	5.029953E-04
5.246391E+03	3.589956E-02	5.011746E-04
5.256346E+03	3.589345E-02	4.998768E-04
5.266302E+03	3.591764E-02	4.990129E-04
5.276257E+03	3.596080E-02	4.984231E-04
5.286212E+03	3.600874E-02	4.979097E-04
5.296167E+03	3.604617E-02	4.972616E-04
5.306122E+03	3.605749E-02	4.962656E-04
5.316078E+03	3.602976E-02	4.947467E-04
5.326033E+03	3.595402E-02	4.925862E-04
5.335988E+03	3.582638E-02	4.897355E-04
5.345943E+03	3.564843E-02	4.862214E-04
5.355898E+03	3.542676E-02	4.821382E-04
5.365854E+03	3.517160E-02	4.776286E-04
5.375809E+03	3.489466E-02	4.728544E-04
5.385764E+03	3.460734E-02	4.679716E-04
5.395719E+03	3.431810E-02	4.630950E-04
5.405674E+03	3.402965E-02	4.582613E-04
5.415630E+03	3.373867E-02	4.534257E-04
5.425585E+03	3.343463E-02	4.484472E-04
5.435540E+03	3.310163E-02	4.431136E-04
5.445495E+03	3.271851E-02	4.371443E-04
5.455450E+03	3.226455E-02	4.302664E-04
5.465406E+03	3.172268E-02	4.222572E-04
5.475361E+03	3.109116E-02	4.130989E-04
5.485316E+03	3.038647E-02	4.030156E-04
5.495271E+03	2.963872E-02	3.924099E-04
5.505226E+03	2.888607E-02	3.817877E-04
5.515182E+03	2.816988E-02	3.716942E-04
5.525137E+03	2.753196E-02	3.626761E-04
5.535092E+03	2.701087E-02	3.552345E-04
5.545047E+03	2.663913E-02	3.497880E-04
5.555002E+03	2.644073E-02	3.466412E-04
5.564958E+03	2.643007E-02	3.459713E-04
5.574913E+03	2.661066E-02	3.478129E-04
5.584868E+03	2.697550E-02	3.520633E-04
5.594823E+03	2.750762E-02	3.584910E-04
5.604778E+03	2.818206E-02	3.667622E-04
5.614734E+03	2.896819E-02	3.764718E-04
5.624689E+03	2.983192E-02	3.871720E-04
5.634644E+03	3.073896E-02	3.984150E-04
5.644599E+03	3.165746E-02	4.097872E-04
5.654555E+03	3.255738E-02	4.209006E-04
5.664510E+03	3.341066E-02	4.313946E-04
5.674465E+03	3.419318E-02	4.409611E-04
5.684420E+03	3.488408E-02	4.493355E-04
5.694375E+03	3.546569E-02	4.562952E-04
5.704331E+03	3.592553E-02	4.616853E-04
5.714286E+03	3.625737E-02	4.654311E-04
5.724241E+03	3.646053E-02	4.675300E-04
5.734196E+03	3.654146E-02	4.680698E-04
5.744151E+03	3.650992E-02	4.671802E-04
5.754107E+03	3.638032E-02	4.650499E-04
5.764062E+03	3.616865E-02	4.618867E-04
5.774017E+03	3.589193E-02	4.579103E-04
5.783972E+03	3.556611E-02	4.533260E-04
5.793927E+03	3.520696E-02	4.483362E-04
5.803883E+03	3.482873E-02	4.431226E-04
5.813838E+03	3.444395E-02	4.378449E-04
5.823793E+03	3.406481E-02	4.326575E-04
5.833748E+03	3.370054E-02	4.276771E-04
5.843703E+03	3.335894E-02	4.230015E-04
5.853659E+03	3.304412E-02	4.186819E-04
5.863614E+03	3.275732E-02	4.147327E-04
5.873569E+03	3.249536E-02	4.111127E-04
5.883524E+03	3.225117E-02	4.077312E-04
5.893479E+03	3.201473E-02	4.044612E-04
5.903435E+03	3.177280E-02	4.011350E-04
5.913390E+03	3.151310E-02	3.975973E-04
5.923345E+03	3.122396E-02	3.937014E-04
5.933300E+03	3.089665E-02	3.893377E-04
5.943255E+03	3.052594E-02	3.844409E-04
5.953211E+03	3.011158E-02	3.790083E-04
5.963166E+03	2.965763E-02	3.730917E-04
5.973121E+03	2.917102E-02	3.667786E-04
5.983076E+03	2.866354E-02	3.602174E-04
5.993031E+03	2.814868E-02	3.535775E-04
6.002987E+03	2.764259E-02	3.470616E-04
6.012942E+03	2.716151E-02	3.408726E-04
6.022897E+03	2.672286E-02	3.352285E-04
6.032852E+03	2.634190E-02	3.303195E-04
6.042807E+03	2.603066E-02	3.262953E-04
6.052763E+03	2.579757E-02	3.232603E-04
6.062718E+03	2.564695E-02	3.212675E-04
6.072673E+03	2.557798E-02	3.203054E-04
6.082628E+03	2.558628E-02	3.203181E-04
6.092583E+03	2.566336E-02	3.211989E-04
6.102539E+03	2.579885E-02	3.228172E-04
6.112494E+03	2.598075E-02	3.250227E-04
6.122449E+03	2.619547E-02	3.276450E-04
6.132404E+03	2.642969E-02	3.305177E-04
6.142359E+03	2.667039E-02	3.334780E-04
6.152315E+03	2.690385E-02	3.363548E-04
6.162270E+03	2.711665E-02	3.389804E-04
6.172225E+03	2.729455E-02	3.411773E-04
6.182180E+03	2.742369E-02	3.427725E-04
6.192135E+03	2.749031E-02	3.435944E-04
6.202091E+03	2.748239E-02	3.434930E-04
6.212046E+03	2.739103E-02	3.423570E-04
6.222001E+03	2.721076E-02	3.401180E-04
6.231956E+03	2.694180E-02	3.367787E-04
6.241911E+03	2.659064E-02	3.324196E-04
6.251867E+03	2.616955E-02	3.271938E-04
6.261822E+03	2.569579E-02	3.213164E-04
6.271777E+03	2.519106E-02	3.150581E-04
6.281732E+03	2.468139E-02	3.087439E-04
6.291687E+03	2.419260E-02	3.026966E-04
6.301643E+03	2.375197E-02	2.972571E-04
6.311598E+03	2.338182E-02	2.927051E-04
6.321553E+03	2.309981E-02	2.892621E-04
6.331508E+03	2.291706E-02	2.870682E-04
6.341463E+03	2.283498E-02	2.861423E-04
6.351419E+03	2.284626E-02	2.863934E-04
6.361374E+03	2.293562E-02	2.876314E-04
6.371329E+03	2.308245E-02	2.895985E-04
6.381284E+03	2.326203E-02	2.919853E-04
6.391239E+03	2.344935E-02	2.944780E-04
6.401195E+03	2.362308E-02	2.968085E-04
6.411150E+03	2.376749E-02	2.987789E-04
6.421105E+03	2.387284E-02	3.002658E-04
6.431060E+03	2.393428E-02	3.012071E-04
6.441015E+03	2.395132E-02	3.015955E-04
6.450971E+03	2.392628E-02	3.014590E-04
6.460926E+03	2.386371E-02	3.008536E-04
6.470881E+03	2.376914E-02	2.998480E-04
6.480836E+03	2.364925E-02	2.985253E-04
6.490791E+03	2.351226E-02	2.969883E-04
6.500747E+03	2.336436E-02	2.953147E-04
6.510702E+03	2.320864E-02	2.935428E-04
6.520657E+03	2.304269E-02	2.916417E-04
6.530612E+03	2.286350E-02	2.895724E-04
6.540567E+03	2.266824E-02	2.872987E-04
6.550523E+03	2.245601E-02	2.848083E-04
6.560478E+03	2.222737E-02	2.821074E-04
6.570433E+03	2.198445E-02	2.792227E-04
6.580388E+03	2.172922E-02	2.761781E-04
6.590343E+03	2.146566E-02	2.730239E-04
6.600299E+03	2.119701E-02	2.698008E-04
6.610254E+03	2.092701E-02	2.665560E-04
6.620209E+03	2.065971E-02	2.633409E-04
6.630164E+03	2.039810E-02	2.601935E-04
6.640119E+03	2.014659E-02	2.571699E-04
6.650075E+03	1.990856E-02	2.543136E-04
6.660030E+03	1.968770E-02	2.516718E-04
6.669985E+03	1.948783E-02	2.492937E-04
6.679940E+03	1.931167E-02	2.472145E-04
6.689895E+03	1.916152E-02	2.454644E-04
6.699851E+03	1.903858E-02	2.440590E-04
6.709806E+03	1.894310E-02	2.430022E-04
6.719761E+03	1.887342E-02	2.422733E-04
6.729716E+03	1.882714E-02	2.418420E-04
6.739671E+03	1.880139E-02	2.416719E-04
6.749627E+03	1.879226E-02	2.417131E-04
6.759582E+03	1.879611E-02	2.419189E-04
6.769537E+03	1.880986E-02	2.422499E-04
6.779492E+03	1.882968E-02	2.426569E-04
6.789447E+03	1.885330E-02	2.431106E-04
6.799403E+03	1.887792E-02	2.435746E-04
6.809358E+03	1.890008E-02	2.440044E-04
6.819313E+03	1.891774E-02	2.443734E-04
6.829268E+03	1.892793E-02	2.446429E-04
6.839223E+03	1.892829E-02	2.447820E-04
6.849179E+03	1.891687E-02	2.447653E-04
6.859134E+03	1.889240E-02	2.445760E-04
6.869089E+03	1.885474E-02	2.442118E-04
6.879044E+03	1.880358E-02	2.436684E-04
6.889000E+03	1.874081E-02	2.429701E-04
6.898955E+03	1.866762E-02	2.421319E-04
6.908910E+03	1.858701E-02	2.411925E-04
6.918865E+03	1.850070E-02	2.401742E-04
6.928820E+03	1.841178E-02	2.391169E-04
6.938776E+03	1.832171E-02	2.380394E-04
6.948731E+03	1.823269E-02	2.369704E-04
6.958686E+03	1.814623E-02	2.359296E-04
6.968641E+03	1.806319E-02	2.349282E-04
6.978596E+03	1.798518E-02	2.339869E-04
6.988552E+03	1.791203E-02	2.331040E-04
6.998507E+03	1.784390E-02	2.322813E-04
7.008462E+03	1.778084E-02	2.315195E-04
7.018417E+03	1.772208E-02	2.308087E-04
7.028372E+03	1.766609E-02	2.301290E-04
7.038328E+03	1.761131E-02	2.294602E-04
7.048283E+03	1.755632E-02	2.287837E-04
7.058238E+03	1.749889E-02	2.280705E-04
7.068193E+03	1.743716E-02	2.272963E-04
7.078148E+03	1.736947E-02	2.264394E-04
7.088104E+03	1.729477E-02	2.254862E-04
7.098059E+03	1.721129E-02	2.244137E-04
7.108014E+03	1.711910E-02	2.232227E-04
7.117969E+03	1.701723E-02	2.219006E-04
7.127924E+03	1.690613E-02	2.204533E-04
7.137880E+03	1.678619E-02	2.188862E-04
7.147835E+03	1.665804E-02	2.172074E-04
7.157790E+03	1.652213E-02	2.154230E-04
7.167745E+03	1.637971E-02	2.135492E-04
7.177700E+03	1.623177E-02	2.115993E-04
7.187656E+03	1.607902E-02	2.095827E-04
7.197611E+03	1.592252E-02	2.075133E-04
7.207566E+03	1.576368E-02	2.054095E-04
7.217521E+03	1.560313E-02	2.032800E-04
7.227476E+03	1.544180E-02	2.011367E-04
7.237432E+03	1.528082E-02	1.989948E-04
7.247387E+03	1.512059E-02	1.968594E-04
7.257342E+03	1.496174E-02	1.947391E-04
7.267297E+03	1.480555E-02	1.926504E-04
7.277252E+03	1.465159E-02	1.905883E-04
7.287208E+03	1.450141E-02	1.885726E-04
7.297163E+03	1.435489E-02	1.866020E-04
7.307118E+03	1.421315E-02	1.846913E-04
7.317073E+03	1.407637E-02	1.828429E-04
7.327028E+03	1.394537E-02	1.810673E-04
7.336984E+03	1.382099E-02	1.793756E-04
7.346939E+03	1.370350E-02	1.777715E-04
7.356894E+03	1.359453E-02	1.762758E-04
7.366849E+03	1.349447E-02	1.748939E-04
7.376804E+03	1.340409E-02	1.736355E-04
7.386760E+03	1.332532E-02	1.725255E-04
7.396715E+03	1.325779E-02	1.715593E-04
7.406670E+03	1.320285E-02	1.707539E-04
7.416625E+03	1.316067E-02	1.701115E-04
7.426580E+03	1.313057E-02	1.696230E-04
7.436536E+03	1.311194E-02	1.692805E-04
7.446491E+03	1.310430E-02	1.690776E-04
7.456446E+03	1.310673E-02	1.690021E-04
7.466401E+03	1.311847E-02	1.690443E-04
7.476356E+03	1.313840E-02	1.691893E-04
7.486312E+03	1.316527E-02	1.694213E-04
7.496267E+03	1.319810E-02	1.697273E-04
7.506222E+03	1.323581E-02	1.700932E-04
7.516177E+03	1.327687E-02	1.704997E-04
7.526132E+03	1.332033E-02	1.709344E-04
7.536088E+03	1.336415E-02	1.713712E-04
7.546043E+03	1.340760E-02	1.718007E-04
7.555998E+03	1.344896E-02	1.722012E-04
7.565953E+03	1.348667E-02	1.725527E-04
7.575908E+03	1.352002E-02	1.728464E-04
7.585864E+03	1.354787E-02	1.730681E-04
7.595819E+03	1.357001E-02	1.732152E-04
7.605774E+03	1.358608E-02	1.732836E-04
7.615729E+03	1.359553E-02	1.732664E-04
7.625684E+03	1.359853E-02	1.731662E-04
7.635640E+03	1.359455E-02	1.729767E-04
7.645595E+03	1.358378E-02	1.727005E-04
7.655550E+03	1.356611E-02	1.723366E-04
7.665505E+03	1.354121E-02	1.718812E-04
7.675460E+03	1.350965E-02	1.713418E-04
7.685416E+03	1.347191E-02	1.707251E-04
7.695371E+03	1.342878E-02	1.700412E-04
7.705326E+03	1.338123E-02	1.693026E-04
7.715281E+03	1.333032E-02	1.685233E-04
7.725236E+03	1.327708E-02	1.677164E-04
