#wls	flux	fluxerr
1.592832E+03	7.274154E-03	3.713024E-04
1.632653E+03	7.253665E-03	3.595299E-04
1.672474E+03	7.192260E-03	3.459000E-04
1.712295E+03	7.087104E-03	3.304874E-04
1.752115E+03	6.934911E-03	3.133621E-04
1.791936E+03	6.734697E-03	2.947108E-04
1.831757E+03	6.485953E-03	2.747404E-04
1.871578E+03	6.190478E-03	2.537465E-04
1.911399E+03	5.856062E-03	2.322407E-04
1.951220E+03	5.491490E-03	2.107173E-04
1.991040E+03	5.111751E-03	1.898399E-04
2.030861E+03	4.742014E-03	1.705493E-04
2.070682E+03	4.415537E-03	1.539410E-04
2.110503E+03	4.157029E-03	1.406773E-04
2.150324E+03	3.956499E-03	1.301866E-04
2.190144E+03	3.809231E-03	1.221164E-04
2.229965E+03	3.722447E-03	1.165295E-04
2.269786E+03	3.708440E-03	1.136520E-04
2.309607E+03	3.767121E-03	1.133297E-04
2.349428E+03	3.885644E-03	1.150591E-04
2.389248E+03	4.052488E-03	1.184324E-04
2.429069E+03	4.256714E-03	1.231014E-04
2.468890E+03	4.487626E-03	1.287566E-04
2.508711E+03	4.738101E-03	1.352128E-04
2.548532E+03	5.011926E-03	1.426087E-04
2.588352E+03	5.339004E-03	1.518340E-04
2.628173E+03	5.764434E-03	1.642273E-04
2.667994E+03	6.289086E-03	1.799056E-04
2.707815E+03	6.861315E-03	1.975143E-04
2.747636E+03	7.434844E-03	2.158437E-04
2.787456E+03	7.980850E-03	2.341591E-04
2.827277E+03	8.479419E-03	2.519308E-04
2.867098E+03	8.914953E-03	2.686412E-04
2.906919E+03	9.271766E-03	2.836933E-04
2.946740E+03	9.540341E-03	2.966214E-04
2.986560E+03	9.709637E-03	3.068709E-04
2.996516E+03	9.734989E-03	3.089411E-04
3.006471E+03	9.754577E-03	3.108391E-04
3.016426E+03	9.767571E-03	3.125348E-04
3.026381E+03	9.773958E-03	3.140240E-04
3.036336E+03	9.773759E-03	3.153034E-04
3.046292E+03	9.767012E-03	3.163704E-04
3.056247E+03	9.753808E-03	3.172243E-04
3.066202E+03	9.734268E-03	3.178653E-04
3.076157E+03	9.709290E-03	3.183191E-04
3.086112E+03	9.678345E-03	3.185653E-04
3.096068E+03	9.641712E-03	3.186097E-04
3.106023E+03	9.600406E-03	3.184827E-04
3.115978E+03	9.554095E-03	3.181706E-04
3.125933E+03	9.503896E-03	3.177081E-04
3.135889E+03	9.450277E-03	3.171085E-04
3.145844E+03	9.393098E-03	3.163651E-04
3.155799E+03	9.333615E-03	3.155183E-04
3.165754E+03	9.273081E-03	3.146092E-04
3.175709E+03	9.210880E-03	3.136160E-04
3.185665E+03	9.148982E-03	3.126047E-04
3.195620E+03	9.086879E-03	3.115577E-04
3.205575E+03	9.027172E-03	3.105638E-04
3.215530E+03	8.969429E-03	3.096088E-04
3.225485E+03	8.914498E-03	3.087222E-04
3.235441E+03	8.864400E-03	3.079749E-04
3.245396E+03	8.818906E-03	3.073603E-04
3.255351E+03	8.780118E-03	3.069530E-04
3.265306E+03	8.748532E-03	3.067723E-04
3.275261E+03	8.725849E-03	3.068799E-04
3.285217E+03	8.712811E-03	3.073044E-04
3.295172E+03	8.711375E-03	3.081176E-04
3.305127E+03	8.723637E-03	3.093969E-04
3.315082E+03	8.750782E-03	3.111877E-04
3.325037E+03	8.795120E-03	3.135761E-04
3.334993E+03	8.858375E-03	3.166278E-04
3.344948E+03	8.941916E-03	3.203961E-04
3.354903E+03	9.046936E-03	3.249280E-04
3.364858E+03	9.173168E-03	3.302184E-04
3.374813E+03	9.319350E-03	3.362258E-04
3.384769E+03	9.483839E-03	3.428938E-04
3.394724E+03	9.663709E-03	3.501193E-04
3.404679E+03	9.856501E-03	3.578146E-04
3.414634E+03	1.005727E-02	3.658008E-04
3.424589E+03	1.026293E-02	3.739653E-04
3.434545E+03	1.046972E-02	3.821700E-04
3.444500E+03	1.067325E-02	3.902521E-04
3.454455E+03	1.086954E-02	3.980635E-04
3.464410E+03	1.105453E-02	4.054524E-04
3.474365E+03	1.122296E-02	4.122217E-04
3.484321E+03	1.137219E-02	4.182699E-04
3.494276E+03	1.149622E-02	4.233718E-04
3.504231E+03	1.159127E-02	4.273830E-04
3.514186E+03	1.165268E-02	4.301268E-04
3.524141E+03	1.167726E-02	4.314802E-04
3.534097E+03	1.166088E-02	4.312860E-04
3.544052E+03	1.160079E-02	4.294383E-04
3.554007E+03	1.149483E-02	4.258528E-04
3.563962E+03	1.134305E-02	4.205284E-04
3.573917E+03	1.114544E-02	4.134621E-04
3.583873E+03	1.090492E-02	4.047611E-04
3.593828E+03	1.062510E-02	3.945589E-04
3.603783E+03	1.031167E-02	3.830669E-04
3.613738E+03	9.971046E-03	3.705253E-04
3.623693E+03	9.612554E-03	3.572829E-04
3.633649E+03	9.244696E-03	3.436583E-04
3.643604E+03	8.878047E-03	3.300479E-04
3.653559E+03	8.522672E-03	3.168293E-04
3.663514E+03	8.188704E-03	3.043824E-04
3.673469E+03	7.885099E-03	2.930427E-04
3.683425E+03	7.620999E-03	2.831522E-04
3.693380E+03	7.403434E-03	2.749731E-04
3.703335E+03	7.238952E-03	2.687488E-04
3.713290E+03	7.132914E-03	2.646773E-04
3.723245E+03	7.090167E-03	2.629360E-04
3.733201E+03	7.114841E-03	2.636742E-04
3.743156E+03	7.211211E-03	2.670452E-04
3.753111E+03	7.382766E-03	2.731713E-04
3.763066E+03	7.633346E-03	2.821861E-04
3.773021E+03	7.966679E-03	2.942173E-04
3.782977E+03	8.386145E-03	3.093778E-04
3.792932E+03	8.893978E-03	3.277362E-04
3.802887E+03	9.492207E-03	3.493517E-04
3.812842E+03	1.017992E-02	3.741740E-04
3.822797E+03	1.095485E-02	4.021008E-04
3.832753E+03	1.181130E-02	4.329047E-04
3.842708E+03	1.274053E-02	4.662452E-04
3.852663E+03	1.373018E-02	5.016514E-04
3.862618E+03	1.476398E-02	5.385117E-04
3.872573E+03	1.582247E-02	5.761011E-04
3.882529E+03	1.688446E-02	6.136372E-04
3.892484E+03	1.792677E-02	6.502708E-04
3.902439E+03	1.892628E-02	6.851610E-04
3.912394E+03	1.986170E-02	7.175414E-04
3.922349E+03	2.071450E-02	7.467521E-04
3.932305E+03	2.146952E-02	7.722610E-04
3.942260E+03	2.211591E-02	7.936980E-04
3.952215E+03	2.264832E-02	8.108939E-04
3.962170E+03	2.306484E-02	8.238071E-04
3.972125E+03	2.336796E-02	8.325540E-04
3.982081E+03	2.356292E-02	8.373509E-04
3.992036E+03	2.365763E-02	8.385067E-04
4.001991E+03	2.366241E-02	8.364152E-04
4.011946E+03	2.358952E-02	8.315355E-04
4.021901E+03	2.345091E-02	8.243121E-04
4.031857E+03	2.325970E-02	8.152265E-04
4.041812E+03	2.303066E-02	8.048130E-04
4.051767E+03	2.277674E-02	7.935376E-04
4.061722E+03	2.251071E-02	7.818542E-04
4.071677E+03	2.224477E-02	7.701916E-04
4.081633E+03	2.198827E-02	7.588756E-04
4.091588E+03	2.174834E-02	7.481508E-04
4.101543E+03	2.152895E-02	7.381499E-04
4.111498E+03	2.132998E-02	7.288647E-04
4.121453E+03	2.114937E-02	7.202199E-04
4.131409E+03	2.098216E-02	7.120431E-04
4.141364E+03	2.082136E-02	7.040952E-04
4.151319E+03	2.065936E-02	6.961197E-04
4.161274E+03	2.049013E-02	6.879161E-04
4.171229E+03	2.030769E-02	6.792898E-04
4.181185E+03	2.010904E-02	6.701472E-04
4.191140E+03	1.989261E-02	6.604443E-04
4.201095E+03	1.965955E-02	6.502284E-04
4.211050E+03	1.941199E-02	6.395773E-04
4.221005E+03	1.915518E-02	6.286715E-04
4.230961E+03	1.889433E-02	6.176867E-04
4.240916E+03	1.863693E-02	6.068703E-04
4.250871E+03	1.839122E-02	5.964905E-04
4.260826E+03	1.816771E-02	5.868835E-04
4.270781E+03	1.797611E-02	5.783547E-04
4.280737E+03	1.782699E-02	5.712328E-04
4.290692E+03	1.772920E-02	5.657845E-04
4.300647E+03	1.768948E-02	5.622057E-04
4.310602E+03	1.770923E-02	5.605191E-04
4.320557E+03	1.778548E-02	5.606096E-04
4.330513E+03	1.790751E-02	5.621200E-04
4.340468E+03	1.805917E-02	5.645287E-04
4.350423E+03	1.822548E-02	5.673601E-04
4.360378E+03	1.839728E-02	5.703255E-04
4.370333E+03	1.857164E-02	5.733342E-04
4.380289E+03	1.875429E-02	5.765624E-04
4.390244E+03	1.895727E-02	5.803762E-04
4.400199E+03	1.919496E-02	5.852070E-04
4.410154E+03	1.948132E-02	5.914667E-04
4.420110E+03	1.982743E-02	5.994733E-04
4.430065E+03	2.024266E-02	6.094860E-04
4.440020E+03	2.073281E-02	6.216519E-04
4.449975E+03	2.129958E-02	6.359923E-04
4.459930E+03	2.193906E-02	6.523613E-04
4.469886E+03	2.264058E-02	6.704142E-04
4.479841E+03	2.338650E-02	6.896064E-04
4.489796E+03	2.415307E-02	7.092220E-04
4.499751E+03	2.491210E-02	7.284272E-04
4.509706E+03	2.563338E-02	7.463422E-04
4.519662E+03	2.628868E-02	7.621605E-04
4.529617E+03	2.685490E-02	7.752365E-04
4.539572E+03	2.731474E-02	7.851035E-04
4.549527E+03	2.765854E-02	7.915216E-04
4.559482E+03	2.788266E-02	7.944278E-04
4.569438E+03	2.798800E-02	7.938901E-04
4.579393E+03	2.797951E-02	7.900903E-04
4.589348E+03	2.786211E-02	7.832078E-04
4.599303E+03	2.764280E-02	7.734784E-04
4.609258E+03	2.732689E-02	7.610875E-04
4.619214E+03	2.692075E-02	7.462483E-04
4.629169E+03	2.643162E-02	7.291951E-04
4.639124E+03	2.586704E-02	7.101672E-04
4.649079E+03	2.523740E-02	6.894794E-04
4.659034E+03	2.455530E-02	6.675007E-04
4.668990E+03	2.383586E-02	6.446626E-04
4.678945E+03	2.309747E-02	6.214769E-04
4.688900E+03	2.236045E-02	5.984976E-04
4.698855E+03	2.164591E-02	5.762878E-04
4.708810E+03	2.097495E-02	5.553990E-04
4.718766E+03	2.036835E-02	5.363619E-04
4.728721E+03	1.984425E-02	5.196251E-04
4.738676E+03	1.941878E-02	5.055741E-04
4.748631E+03	1.910512E-02	4.945070E-04
4.758586E+03	1.891352E-02	4.866375E-04
4.768542E+03	1.885135E-02	4.820979E-04
4.778497E+03	1.892200E-02	4.809134E-04
4.788452E+03	1.912481E-02	4.830028E-04
4.798407E+03	1.945498E-02	4.881805E-04
4.808362E+03	1.990265E-02	4.961349E-04
4.818318E+03	2.045188E-02	5.064103E-04
4.828273E+03	2.108128E-02	5.184251E-04
4.838228E+03	2.176408E-02	5.314797E-04
4.848183E+03	2.246933E-02	5.447908E-04
4.858138E+03	2.316446E-02	5.575576E-04
4.868094E+03	2.381779E-02	5.690227E-04
4.878049E+03	2.440160E-02	5.785466E-04
4.888004E+03	2.489475E-02	5.856653E-04
4.897959E+03	2.528556E-02	5.901521E-04
4.907914E+03	2.557067E-02	5.919836E-04
4.917870E+03	2.575684E-02	5.913728E-04
4.927825E+03	2.585724E-02	5.886750E-04
4.937780E+03	2.589135E-02	5.843792E-04
4.947735E+03	2.588059E-02	5.790037E-04
4.957690E+03	2.584706E-02	5.730659E-04
4.967646E+03	2.581153E-02	5.670364E-04
4.977601E+03	2.579141E-02	5.612963E-04
4.987556E+03	2.580039E-02	5.561324E-04
4.997511E+03	2.584801E-02	5.517311E-04
5.007466E+03	2.594108E-02	5.482130E-04
5.017422E+03	2.608263E-02	5.456127E-04
5.027377E+03	2.627514E-02	5.439515E-04
5.037332E+03	2.651997E-02	5.432244E-04
5.047287E+03	2.681842E-02	5.434236E-04
5.057242E+03	2.717305E-02	5.445653E-04
5.067198E+03	2.758714E-02	5.466774E-04
5.077153E+03	2.806468E-02	5.497982E-04
5.087108E+03	2.860982E-02	5.539652E-04
5.097063E+03	2.922574E-02	5.591938E-04
5.107018E+03	2.991537E-02	5.654910E-04
5.116974E+03	3.067741E-02	5.727826E-04
5.126929E+03	3.150890E-02	5.809647E-04
5.136884E+03	3.240243E-02	5.898557E-04
5.146839E+03	3.334777E-02	5.992300E-04
5.156794E+03	3.433082E-02	6.088049E-04
5.166750E+03	3.533586E-02	6.182822E-04
5.176705E+03	3.634521E-02	6.273464E-04
5.186660E+03	3.734195E-02	6.357128E-04
5.196615E+03	3.831005E-02	6.431286E-04
5.206570E+03	3.923536E-02	6.493892E-04
5.216526E+03	4.010787E-02	6.543720E-04
5.226481E+03	4.092130E-02	6.580248E-04
5.236436E+03	4.167368E-02	6.603714E-04
5.246391E+03	4.236914E-02	6.615334E-04
5.256346E+03	4.301696E-02	6.617091E-04
5.266302E+03	4.363185E-02	6.611717E-04
5.276257E+03	4.423264E-02	6.602434E-04
5.286212E+03	4.484111E-02	6.592740E-04
5.296167E+03	4.547899E-02	6.585949E-04
5.306122E+03	4.616266E-02	6.584445E-04
5.316078E+03	4.690094E-02	6.589431E-04
5.326033E+03	4.768898E-02	6.600175E-04
5.335988E+03	4.850779E-02	6.614099E-04
5.345943E+03	4.932336E-02	6.626792E-04
5.355898E+03	5.009189E-02	6.632845E-04
5.365854E+03	5.076750E-02	6.626934E-04
5.375809E+03	5.130720E-02	6.604439E-04
5.385764E+03	5.168116E-02	6.562697E-04
5.395719E+03	5.188014E-02	6.501778E-04
5.405674E+03	5.190970E-02	6.423573E-04
5.415630E+03	5.178223E-02	6.330694E-04
5.425585E+03	5.150422E-02	6.224876E-04
5.435540E+03	5.108447E-02	6.108002E-04
5.445495E+03	5.054070E-02	5.982851E-04
5.455450E+03	4.990077E-02	5.853193E-04
5.465406E+03	4.918950E-02	5.722229E-04
5.475361E+03	4.840848E-02	5.590303E-04
5.485316E+03	4.752759E-02	5.454038E-04
5.495271E+03	4.650599E-02	5.308816E-04
5.505226E+03	4.531602E-02	5.151476E-04
5.515182E+03	4.395846E-02	4.981775E-04
5.525137E+03	4.246173E-02	4.802354E-04
5.535092E+03	4.088192E-02	4.618862E-04
5.545047E+03	3.929674E-02	4.439315E-04
5.555002E+03	3.779045E-02	4.272478E-04
5.564958E+03	3.644497E-02	4.126943E-04
5.574913E+03	3.532723E-02	4.009767E-04
5.584868E+03	3.448731E-02	3.926301E-04
5.594823E+03	3.395517E-02	3.879809E-04
5.604778E+03	3.374238E-02	3.871648E-04
5.614734E+03	3.384662E-02	3.901728E-04
5.624689E+03	3.425653E-02	3.969019E-04
5.634644E+03	3.495537E-02	4.071933E-04
5.644599E+03	3.592185E-02	4.208370E-04
5.654555E+03	3.713234E-02	4.375950E-04
5.664510E+03	3.855762E-02	4.571586E-04
5.674465E+03	4.016569E-02	4.791792E-04
5.684420E+03	4.191686E-02	5.032057E-04
5.694375E+03	4.376490E-02	5.286949E-04
5.704331E+03	4.565964E-02	5.550397E-04
5.714286E+03	4.754750E-02	5.815738E-04
5.724241E+03	4.937885E-02	6.076612E-04
5.734196E+03	5.110837E-02	6.327024E-04
5.744151E+03	5.269947E-02	6.561928E-04
5.754107E+03	5.412511E-02	6.777362E-04
5.764062E+03	5.536679E-02	6.970375E-04
5.774017E+03	5.641281E-02	7.138847E-04
5.783972E+03	5.725417E-02	7.280998E-04
5.793927E+03	5.788512E-02	7.395479E-04
5.803883E+03	5.830238E-02	7.481284E-04
5.813838E+03	5.850603E-02	7.537886E-04
5.823793E+03	5.850065E-02	7.565395E-04
5.833748E+03	5.829689E-02	7.564776E-04
5.843703E+03	5.791208E-02	7.537943E-04
5.853659E+03	5.736997E-02	7.487737E-04
5.863614E+03	5.669845E-02	7.417628E-04
5.873569E+03	5.592925E-02	7.331676E-04
5.883524E+03	5.509362E-02	7.233952E-04
5.893479E+03	5.421900E-02	7.128091E-04
5.903435E+03	5.333069E-02	7.017487E-04
5.913390E+03	5.244687E-02	6.904625E-04
5.923345E+03	5.158008E-02	6.791265E-04
5.933300E+03	5.073920E-02	6.678690E-04
5.943255E+03	4.992840E-02	6.567561E-04
5.953211E+03	4.915089E-02	6.458417E-04
5.963166E+03	4.840718E-02	6.351433E-04
5.973121E+03	4.769804E-02	6.246812E-04
5.983076E+03	4.702171E-02	6.144427E-04
5.993031E+03	4.637332E-02	6.043740E-04
6.002987E+03	4.574312E-02	5.943584E-04
6.012942E+03	4.511868E-02	5.842456E-04
6.022897E+03	4.448163E-02	5.738114E-04
6.032852E+03	4.381337E-02	5.628328E-04
6.042807E+03	4.309452E-02	5.510820E-04
6.052763E+03	4.231160E-02	5.384124E-04
6.062718E+03	4.145616E-02	5.247461E-04
6.072673E+03	4.053014E-02	5.101405E-04
6.082628E+03	3.954479E-02	4.947708E-04
6.092583E+03	3.851937E-02	4.789098E-04
6.102539E+03	3.747900E-02	4.628976E-04
6.112494E+03	3.645205E-02	4.471061E-04
6.122449E+03	3.546748E-02	4.319047E-04
6.132404E+03	3.455178E-02	4.176213E-04
6.142359E+03	3.372705E-02	4.045210E-04
6.152315E+03	3.300967E-02	3.927908E-04
6.162270E+03	3.241040E-02	3.825439E-04
6.172225E+03	3.193322E-02	3.738089E-04
6.182180E+03	3.157690E-02	3.665518E-04
6.192135E+03	3.133358E-02	3.606625E-04
6.202091E+03	3.119086E-02	3.559823E-04
6.212046E+03	3.113142E-02	3.523030E-04
6.222001E+03	3.113451E-02	3.493853E-04
6.231956E+03	3.117596E-02	3.469618E-04
6.241911E+03	3.123007E-02	3.447586E-04
6.251867E+03	3.126950E-02	3.424943E-04
6.261822E+03	3.126804E-02	3.399106E-04
6.271777E+03	3.120450E-02	3.368115E-04
6.281732E+03	3.106516E-02	3.330870E-04
6.291687E+03	3.084809E-02	3.287544E-04
6.301643E+03	3.056288E-02	3.239507E-04
6.311598E+03	3.023066E-02	3.189283E-04
6.321553E+03	2.988237E-02	3.140358E-04
6.331508E+03	2.955174E-02	3.096426E-04
6.341463E+03	2.927180E-02	3.061061E-04
6.351419E+03	2.907005E-02	3.037237E-04
6.361374E+03	2.896592E-02	3.027109E-04
6.371329E+03	2.896958E-02	3.031911E-04
6.381284E+03	2.908181E-02	3.051961E-04
6.391239E+03	2.929636E-02	3.086907E-04
6.401195E+03	2.960208E-02	3.135831E-04
6.411150E+03	2.998505E-02	3.197404E-04
6.421105E+03	3.042994E-02	3.270139E-04
6.431060E+03	3.092089E-02	3.352473E-04
6.441015E+03	3.144222E-02	3.442809E-04
6.450971E+03	3.197958E-02	3.539638E-04
6.460926E+03	3.251923E-02	3.641443E-04
6.470881E+03	3.304994E-02	3.746905E-04
6.480836E+03	3.356371E-02	3.854994E-04
6.490791E+03	3.405661E-02	3.965085E-04
6.500747E+03	3.452691E-02	4.076763E-04
6.510702E+03	3.497341E-02	4.189649E-04
6.520657E+03	3.539200E-02	4.302983E-04
6.530612E+03	3.577861E-02	4.415967E-04
6.540567E+03	3.613035E-02	4.527904E-04
6.550523E+03	3.644529E-02	4.638190E-04
6.560478E+03	3.671861E-02	4.745820E-04
6.570433E+03	3.694540E-02	4.849734E-04
6.580388E+03	3.711663E-02	4.948275E-04
6.590343E+03	3.722142E-02	5.039461E-04
6.600299E+03	3.724813E-02	5.121107E-04
6.610254E+03	3.718655E-02	5.191134E-04
6.620209E+03	3.702931E-02	5.247779E-04
6.630164E+03	3.677244E-02	5.289707E-04
6.640119E+03	3.641789E-02	5.316420E-04
6.650075E+03	3.597446E-02	5.328467E-04
6.660030E+03	3.545513E-02	5.327105E-04
6.669985E+03	3.487934E-02	5.314706E-04
6.679940E+03	3.427042E-02	5.294422E-04
6.689895E+03	3.365203E-02	5.269666E-04
6.699851E+03	3.304943E-02	5.244321E-04
6.709806E+03	3.248320E-02	5.221742E-04
6.719761E+03	3.197112E-02	5.204999E-04
6.729716E+03	3.152736E-02	5.196720E-04
6.739671E+03	3.115990E-02	5.198616E-04
6.749627E+03	3.087388E-02	5.211976E-04
6.759582E+03	3.067055E-02	5.237464E-04
6.769537E+03	3.054828E-02	5.275242E-04
6.779492E+03	3.050293E-02	5.325013E-04
6.789447E+03	3.052851E-02	5.386111E-04
6.799403E+03	3.061574E-02	5.457228E-04
6.809358E+03	3.075521E-02	5.536950E-04
6.819313E+03	3.093490E-02	5.623318E-04
6.829268E+03	3.114241E-02	5.714204E-04
6.839223E+03	3.136531E-02	5.807388E-04
6.849179E+03	3.159204E-02	5.900724E-04
6.859134E+03	3.181313E-02	5.992382E-04
6.869089E+03	3.202017E-02	6.080680E-04
6.879044E+03	3.220722E-02	6.164354E-04
6.889000E+03	3.237058E-02	6.242546E-04
6.898955E+03	3.250660E-02	6.314397E-04
6.908910E+03	3.261436E-02	6.379563E-04
6.918865E+03	3.269231E-02	6.437584E-04
6.928820E+03	3.274018E-02	6.488251E-04
6.938776E+03	3.275889E-02	6.531609E-04
6.948731E+03	3.275085E-02	6.568008E-04
6.958686E+03	3.272032E-02	6.598194E-04
6.968641E+03	3.267122E-02	6.622877E-04
6.978596E+03	3.260966E-02	6.643228E-04
6.988552E+03	3.254211E-02	6.660528E-04
6.998507E+03	3.247370E-02	6.675810E-04
7.008462E+03	3.241013E-02	6.690245E-04
7.018417E+03	3.235721E-02	6.705044E-04
7.028372E+03	3.231755E-02	6.720773E-04
7.038328E+03	3.229335E-02	6.737918E-04
7.048283E+03	3.228437E-02	6.756448E-04
7.058238E+03	3.228772E-02	6.775784E-04
7.068193E+03	3.229912E-02	6.795033E-04
7.078148E+03	3.231341E-02	6.813112E-04
7.088104E+03	3.232407E-02	6.828637E-04
7.098059E+03	3.232538E-02	6.840387E-04
7.108014E+03	3.231271E-02	6.847362E-04
7.117969E+03	3.228343E-02	6.848994E-04
7.127924E+03	3.223546E-02	6.844826E-04
7.137880E+03	3.217017E-02	6.835148E-04
7.147835E+03	3.208992E-02	6.820461E-04
7.157790E+03	3.200014E-02	6.801928E-04
7.167745E+03	3.190486E-02	6.780421E-04
7.177700E+03	3.181079E-02	6.757382E-04
7.187656E+03	3.172280E-02	6.733860E-04
7.197611E+03	3.164575E-02	6.710900E-04
7.207566E+03	3.158168E-02	6.688944E-04
7.217521E+03	3.153235E-02	6.668366E-04
7.227476E+03	3.149661E-02	6.648925E-04
7.237432E+03	3.147220E-02	6.630135E-04
7.247387E+03	3.145380E-02	6.610876E-04
7.257342E+03	3.143517E-02	6.589839E-04
7.267297E+03	3.140717E-02	6.565125E-04
7.277252E+03	3.136115E-02	6.534960E-04
7.287208E+03	3.128776E-02	6.497456E-04
7.297163E+03	3.117783E-02	6.450792E-04
7.307118E+03	3.102411E-02	6.393591E-04
7.317073E+03	3.082210E-02	6.325067E-04
7.327028E+03	3.056874E-02	6.244771E-04
7.336984E+03	3.026584E-02	6.153262E-04
7.346939E+03	2.991777E-02	6.051635E-04
7.356894E+03	2.953331E-02	5.941864E-04
7.366849E+03	2.912273E-02	5.826196E-04
7.376804E+03	2.869956E-02	5.707490E-04
7.386760E+03	2.827699E-02	5.588482E-04
7.396715E+03	2.786818E-02	5.471828E-04
7.406670E+03	2.748486E-02	5.359847E-04
7.416625E+03	2.713720E-02	5.254480E-04
7.426580E+03	2.683174E-02	5.156905E-04
7.436536E+03	2.657481E-02	5.068213E-04
7.446491E+03	2.636837E-02	4.988617E-04
7.456446E+03	2.621366E-02	4.918170E-04
7.466401E+03	2.610979E-02	4.856506E-04
7.476356E+03	2.605490E-02	4.803077E-04
7.486312E+03	2.604519E-02	4.756978E-04
7.496267E+03	2.607681E-02	4.717311E-04
7.506222E+03	2.614477E-02	4.682991E-04
7.516177E+03	2.624349E-02	4.652859E-04
7.526132E+03	2.636692E-02	4.625707E-04
7.536088E+03	2.650873E-02	4.600322E-04
7.546043E+03	2.666309E-02	4.575617E-04
7.555998E+03	2.682390E-02	4.550510E-04
7.565953E+03	2.698723E-02	4.524331E-04
7.575908E+03	2.715005E-02	4.496594E-04
7.585864E+03	2.731211E-02	4.467293E-04
7.595819E+03	2.747432E-02	4.436618E-04
7.605774E+03	2.763874E-02	4.404938E-04
7.615729E+03	2.780782E-02	4.372671E-04
7.625684E+03	2.798352E-02	4.340142E-04
7.635640E+03	2.816664E-02	4.307484E-04
7.645595E+03	2.835640E-02	4.274597E-04
7.655550E+03	2.855094E-02	4.241225E-04
7.665505E+03	2.874548E-02	4.206711E-04
7.675460E+03	2.893612E-02	4.170574E-04
7.685416E+03	2.911706E-02	4.132107E-04
7.695371E+03	2.928306E-02	4.090737E-04
7.705326E+03	2.942929E-02	4.046006E-04
7.715281E+03	2.955161E-02	3.997599E-04
7.725236E+03	2.964686E-02	3.945374E-04
