#wls	flux	fluxerr
1.592832E+03	7.321218E-04	3.434947E-05
1.632653E+03	7.489425E-04	3.503495E-05
1.672474E+03	7.652050E-04	3.568707E-05
1.712295E+03	7.807999E-04	3.630076E-05
1.752115E+03	7.956263E-04	3.687141E-05
1.791936E+03	8.097339E-04	3.740144E-05
1.831757E+03	8.229034E-04	3.788089E-05
1.871578E+03	8.350693E-04	3.830697E-05
1.911399E+03	8.461807E-04	3.867765E-05
1.951220E+03	8.563567E-04	3.899868E-05
1.991040E+03	8.654350E-04	3.926299E-05
2.030861E+03	8.734192E-04	3.947115E-05
2.070682E+03	8.804816E-04	3.963133E-05
2.110503E+03	8.863464E-04	3.973151E-05
2.150324E+03	8.913627E-04	3.978782E-05
2.190144E+03	8.955751E-04	3.980258E-05
2.229965E+03	8.988698E-04	3.977113E-05
2.269786E+03	9.012783E-04	3.969528E-05
2.309607E+03	9.028173E-04	3.957622E-05
2.349428E+03	9.034820E-04	3.941421E-05
2.389248E+03	9.033962E-04	3.921510E-05
2.429069E+03	9.024974E-04	3.897664E-05
2.468890E+03	9.003835E-04	3.868204E-05
2.508711E+03	8.972537E-04	3.834062E-05
2.548532E+03	8.928492E-04	3.794210E-05
2.588352E+03	8.872780E-04	3.749194E-05
2.628173E+03	8.804778E-04	3.698842E-05
2.667994E+03	8.727239E-04	3.644400E-05
2.707815E+03	8.644574E-04	3.587778E-05
2.747636E+03	8.563569E-04	3.531825E-05
2.787456E+03	8.488249E-04	3.478184E-05
2.827277E+03	8.425309E-04	3.429547E-05
2.867098E+03	8.376793E-04	3.386645E-05
2.906919E+03	8.350077E-04	3.352326E-05
2.946740E+03	8.349403E-04	3.328101E-05
2.986560E+03	8.376045E-04	3.314247E-05
2.996516E+03	8.388005E-04	3.312783E-05
3.006471E+03	8.402070E-04	3.312103E-05
3.016426E+03	8.418300E-04	3.312227E-05
3.026381E+03	8.436752E-04	3.313171E-05
3.036336E+03	8.457488E-04	3.314954E-05
3.046292E+03	8.480573E-04	3.317598E-05
3.056247E+03	8.506062E-04	3.321118E-05
3.066202E+03	8.534014E-04	3.325530E-05
3.076157E+03	8.564491E-04	3.330854E-05
3.086112E+03	8.598973E-04	3.337657E-05
3.096068E+03	8.634676E-04	3.344851E-05
3.106023E+03	8.673077E-04	3.353005E-05
3.115978E+03	8.714233E-04	3.362135E-05
3.125933E+03	8.758198E-04	3.372252E-05
3.135889E+03	8.805024E-04	3.383372E-05
3.145844E+03	8.856224E-04	3.396066E-05
3.155799E+03	8.908938E-04	3.409230E-05
3.165754E+03	8.964664E-04	3.423431E-05
3.175709E+03	9.023445E-04	3.438679E-05
3.185665E+03	9.086823E-04	3.455551E-05
3.195620E+03	9.151853E-04	3.472920E-05
3.205575E+03	9.220057E-04	3.491355E-05
3.215530E+03	9.291466E-04	3.510861E-05
3.225485E+03	9.367640E-04	3.532018E-05
3.235441E+03	9.445546E-04	3.553672E-05
3.245396E+03	9.528273E-04	3.576978E-05
3.255351E+03	9.612734E-04	3.600766E-05
3.265306E+03	9.700475E-04	3.625611E-05
3.275261E+03	9.793089E-04	3.652096E-05
3.285217E+03	9.887380E-04	3.679020E-05
3.295172E+03	9.986543E-04	3.707564E-05
3.305127E+03	1.008730E-03	3.736502E-05
3.315082E+03	1.019125E-03	3.766415E-05
3.325037E+03	1.029999E-03	3.797891E-05
3.334993E+03	1.041015E-03	3.829670E-05
3.344948E+03	1.052503E-03	3.862963E-05
3.354903E+03	1.064116E-03	3.896482E-05
3.364858E+03	1.076188E-03	3.931450E-05
3.374813E+03	1.088364E-03	3.966553E-05
3.384769E+03	1.100984E-03	4.003029E-05
3.394724E+03	1.113864E-03	4.040193E-05
3.404679E+03	1.126809E-03	4.077338E-05
3.414634E+03	1.140172E-03	4.115727E-05
3.424589E+03	1.153571E-03	4.153983E-05
3.434545E+03	1.167366E-03	4.193389E-05
3.444500E+03	1.181169E-03	4.232546E-05
3.454455E+03	1.195346E-03	4.272761E-05
3.464410E+03	1.209696E-03	4.313303E-05
3.474365E+03	1.224007E-03	4.353421E-05
3.484321E+03	1.238662E-03	4.394464E-05
3.494276E+03	1.253453E-03	4.435689E-05
3.504231E+03	1.268165E-03	4.476336E-05
3.514186E+03	1.283193E-03	4.517794E-05
3.524141E+03	1.298327E-03	4.559316E-05
3.534097E+03	1.313347E-03	4.600130E-05
3.544052E+03	1.328667E-03	4.641680E-05
3.554007E+03	1.344072E-03	4.683209E-05
3.563962E+03	1.359340E-03	4.723944E-05
3.573917E+03	1.374901E-03	4.765376E-05
3.583873E+03	1.390538E-03	4.806746E-05
3.593828E+03	1.406251E-03	4.848052E-05
3.603783E+03	1.421812E-03	4.888512E-05
3.613738E+03	1.437676E-03	4.929681E-05
3.623693E+03	1.453621E-03	4.970794E-05
3.633649E+03	1.469650E-03	5.011860E-05
3.643604E+03	1.485532E-03	5.052086E-05
3.653559E+03	1.501740E-03	5.093083E-05
3.663514E+03	1.518045E-03	5.134067E-05
3.673469E+03	1.534451E-03	5.175046E-05
3.683425E+03	1.550716E-03	5.215205E-05
3.693380E+03	1.567333E-03	5.256195E-05
3.703335E+03	1.584058E-03	5.297195E-05
3.713290E+03	1.600891E-03	5.338201E-05
3.723245E+03	1.617831E-03	5.379202E-05
3.733201E+03	1.634613E-03	5.419322E-05
3.743156E+03	1.651746E-03	5.460239E-05
3.753111E+03	1.668962E-03	5.501066E-05
3.763066E+03	1.686247E-03	5.541756E-05
3.773021E+03	1.703586E-03	5.582249E-05
3.782977E+03	1.720687E-03	5.621593E-05
3.792932E+03	1.738063E-03	5.661467E-05
3.802887E+03	1.755418E-03	5.700900E-05
3.812842E+03	1.772720E-03	5.739788E-05
3.822797E+03	1.789932E-03	5.778017E-05
3.832753E+03	1.806732E-03	5.814549E-05
3.842708E+03	1.823641E-03	5.851065E-05
3.852663E+03	1.840330E-03	5.886517E-05
3.862618E+03	1.856752E-03	5.920757E-05
3.872573E+03	1.872563E-03	5.952699E-05
3.882529E+03	1.888292E-03	5.984039E-05
3.892484E+03	1.903596E-03	6.013694E-05
3.902439E+03	1.918419E-03	6.041502E-05
3.912394E+03	1.932707E-03	6.067311E-05
3.922349E+03	1.946104E-03	6.090019E-05
3.932305E+03	1.959163E-03	6.111377E-05
3.942260E+03	1.971533E-03	6.130307E-05
3.952215E+03	1.983167E-03	6.146686E-05
3.962170E+03	1.993714E-03	6.159451E-05
3.972125E+03	2.003754E-03	6.170418E-05
3.982081E+03	2.012946E-03	6.178561E-05
3.992036E+03	2.021262E-03	6.183819E-05
4.001991E+03	2.028369E-03	6.185203E-05
4.011946E+03	2.034878E-03	6.184608E-05
4.021901E+03	2.040469E-03	6.181081E-05
4.031857E+03	2.045140E-03	6.174650E-05
4.041812E+03	2.048581E-03	6.164409E-05
4.051767E+03	2.051437E-03	6.152329E-05
4.061722E+03	2.053411E-03	6.137545E-05
4.071677E+03	2.054215E-03	6.119222E-05
4.081633E+03	2.054512E-03	6.099369E-05
4.091588E+03	2.054025E-03	6.077182E-05
4.101543E+03	2.052483E-03	6.051885E-05
4.111498E+03	2.050564E-03	6.025509E-05
4.121453E+03	2.048008E-03	5.997298E-05
4.131409E+03	2.044557E-03	5.966527E-05
4.141364E+03	2.040900E-03	5.935225E-05
4.151319E+03	2.036787E-03	5.902673E-05
4.161274E+03	2.031971E-03	5.868180E-05
4.171229E+03	2.027145E-03	5.833754E-05
4.181185E+03	2.021755E-03	5.797816E-05
4.191140E+03	2.016490E-03	5.762350E-05
4.201095E+03	2.010804E-03	5.725797E-05
4.211050E+03	2.005379E-03	5.690112E-05
4.221005E+03	1.999674E-03	5.653753E-05
4.230961E+03	1.994366E-03	5.618640E-05
4.240916E+03	1.988913E-03	5.583243E-05
4.250871E+03	1.983987E-03	5.549443E-05
4.260826E+03	1.979045E-03	5.515716E-05
4.270781E+03	1.974749E-03	5.483903E-05
4.280737E+03	1.970557E-03	5.452483E-05
4.290692E+03	1.967121E-03	5.423251E-05
4.300647E+03	1.963892E-03	5.394682E-05
4.310602E+03	1.961216E-03	5.367717E-05
4.320557E+03	1.959429E-03	5.343257E-05
4.330513E+03	1.957975E-03	5.319767E-05
4.340468E+03	1.957477E-03	5.298922E-05
4.350423E+03	1.957368E-03	5.279169E-05
4.360378E+03	1.957962E-03	5.261344E-05
4.370333E+03	1.959275E-03	5.245465E-05
4.380289E+03	1.961609E-03	5.232321E-05
4.390244E+03	1.964374E-03	5.220318E-05
4.400199E+03	1.967865E-03	5.210220E-05
4.410154E+03	1.972069E-03	5.201982E-05
4.420110E+03	1.977272E-03	5.196326E-05
4.430065E+03	1.982858E-03	5.191618E-05
4.440020E+03	1.989100E-03	5.188554E-05
4.449975E+03	1.995970E-03	5.187042E-05
4.459930E+03	2.003436E-03	5.186980E-05
4.469886E+03	2.011465E-03	5.188264E-05
4.479841E+03	2.020018E-03	5.190781E-05
4.489796E+03	2.029058E-03	5.194417E-05
4.499751E+03	2.038851E-03	5.199836E-05
4.509706E+03	2.048746E-03	5.205366E-05
4.519662E+03	2.059009E-03	5.211672E-05
4.529617E+03	2.069599E-03	5.218641E-05
4.539572E+03	2.080166E-03	5.225386E-05
4.549527E+03	2.091291E-03	5.233361E-05
4.559482E+03	2.102629E-03	5.241688E-05
4.569438E+03	2.114147E-03	5.250278E-05
4.579393E+03	2.125812E-03	5.259046E-05
4.589348E+03	2.137595E-03	5.267915E-05
4.599303E+03	2.149470E-03	5.276820E-05
4.609258E+03	2.161415E-03	5.285702E-05
4.619214E+03	2.173089E-03	5.293729E-05
4.629169E+03	2.185121E-03	5.302433E-05
4.639124E+03	2.197179E-03	5.311004E-05
4.649079E+03	2.209255E-03	5.319421E-05
4.659034E+03	2.221019E-03	5.326890E-05
4.668990E+03	2.233127E-03	5.334991E-05
4.678945E+03	2.244927E-03	5.342158E-05
4.688900E+03	2.257089E-03	5.349991E-05
4.698855E+03	2.269295E-03	5.357730E-05
4.708810E+03	2.281225E-03	5.364617E-05
4.718766E+03	2.293570E-03	5.372282E-05
4.728721E+03	2.305676E-03	5.379186E-05
4.738676E+03	2.318246E-03	5.386970E-05
4.748631E+03	2.330624E-03	5.394103E-05
4.758586E+03	2.343523E-03	5.402234E-05
4.768542E+03	2.356283E-03	5.409834E-05
4.778497E+03	2.369276E-03	5.417759E-05
4.788452E+03	2.382884E-03	5.426869E-05
4.798407E+03	2.396437E-03	5.435630E-05
4.808362E+03	2.410312E-03	5.444899E-05
4.818318E+03	2.424895E-03	5.455532E-05
4.828273E+03	2.439503E-03	5.465980E-05
4.838228E+03	2.454516E-03	5.477093E-05
4.848183E+03	2.469960E-03	5.488916E-05
4.858138E+03	2.485856E-03	5.501488E-05
4.868094E+03	2.502594E-03	5.515654E-05
4.878049E+03	2.519459E-03	5.529826E-05
4.888004E+03	2.536834E-03	5.544836E-05
4.897959E+03	2.554734E-03	5.560702E-05
4.907914E+03	2.573169E-03	5.577439E-05
4.917870E+03	2.592149E-03	5.595053E-05
4.927825E+03	2.611683E-03	5.613547E-05
4.937780E+03	2.631774E-03	5.632918E-05
4.947735E+03	2.652425E-03	5.653158E-05
4.957690E+03	2.673637E-03	5.674256E-05
4.967646E+03	2.695015E-03	5.695362E-05
4.977601E+03	2.717336E-03	5.718115E-05
4.987556E+03	2.740206E-03	5.741660E-05
4.997511E+03	2.763616E-03	5.765969E-05
5.007466E+03	2.787554E-03	5.791005E-05
5.017422E+03	2.811598E-03	5.815886E-05
5.027377E+03	2.836551E-03	5.842262E-05
5.037332E+03	2.861988E-03	5.869244E-05
5.047287E+03	2.887470E-03	5.895927E-05
5.057242E+03	2.913814E-03	5.923970E-05
5.067198E+03	2.940580E-03	5.952467E-05
5.077153E+03	2.967310E-03	5.980489E-05
5.087108E+03	2.994838E-03	6.009710E-05
5.097063E+03	3.022266E-03	6.038325E-05
5.107018E+03	3.050437E-03	6.068015E-05
5.116974E+03	3.078436E-03	6.096953E-05
5.126929E+03	3.106663E-03	6.125942E-05
5.136884E+03	3.135537E-03	6.155799E-05
5.146839E+03	3.164111E-03	6.184663E-05
5.156794E+03	3.192792E-03	6.213342E-05
5.166750E+03	3.222002E-03	6.242656E-05
5.176705E+03	3.250765E-03	6.270715E-05
5.186660E+03	3.279495E-03	6.298331E-05
5.196615E+03	3.308140E-03	6.325416E-05
5.206570E+03	3.337132E-03	6.352798E-05
5.216526E+03	3.365456E-03	6.378554E-05
5.226481E+03	3.393535E-03	6.403506E-05
5.236436E+03	3.421315E-03	6.427567E-05
5.246391E+03	3.448740E-03	6.450646E-05
5.256346E+03	3.475753E-03	6.472657E-05
5.266302E+03	3.502298E-03	6.493513E-05
5.276257E+03	3.528319E-03	6.513131E-05
5.286212E+03	3.553762E-03	6.531434E-05
5.296167E+03	3.578573E-03	6.548344E-05
5.306122E+03	3.602698E-03	6.563791E-05
5.316078E+03	3.626087E-03	6.577708E-05
5.326033E+03	3.648691E-03	6.590036E-05
5.335988E+03	3.669935E-03	6.599765E-05
5.345943E+03	3.690832E-03	6.608751E-05
5.355898E+03	3.710813E-03	6.616000E-05
5.365854E+03	3.729842E-03	6.621479E-05
5.375809E+03	3.747346E-03	6.624206E-05
5.385764E+03	3.764373E-03	6.626070E-05
5.395719E+03	3.780361E-03	6.626107E-05
5.405674E+03	3.794744E-03	6.623360E-05
5.415630E+03	3.808596E-03	6.619746E-05
5.425585E+03	3.820813E-03	6.613373E-05
5.435540E+03	3.832489E-03	6.606170E-05
5.445495E+03	3.842522E-03	6.596270E-05
5.455450E+03	3.852021E-03	6.585613E-05
5.465406E+03	3.859890E-03	6.572351E-05
5.475361E+03	3.867251E-03	6.558431E-05
5.485316E+03	3.873008E-03	6.542021E-05
5.495271E+03	3.878294E-03	6.525066E-05
5.505226E+03	3.882021E-03	6.505752E-05
5.515182E+03	3.884775E-03	6.485076E-05
5.525137E+03	3.887155E-03	6.464048E-05
5.535092E+03	3.888090E-03	6.440892E-05
5.545047E+03	3.888181E-03	6.416620E-05
5.555002E+03	3.887479E-03	6.391323E-05
5.564958E+03	3.886036E-03	6.365091E-05
5.574913E+03	3.884475E-03	6.338950E-05
5.584868E+03	3.881730E-03	6.311157E-05
5.594823E+03	3.878422E-03	6.282733E-05
5.604778E+03	3.874618E-03	6.253785E-05
5.614734E+03	3.870378E-03	6.224413E-05
5.624689E+03	3.865756E-03	6.194701E-05
5.634644E+03	3.860822E-03	6.164758E-05
5.644599E+03	3.855632E-03	6.134673E-05
5.654555E+03	3.850240E-03	6.104525E-05
5.664510E+03	3.844698E-03	6.074394E-05
5.674465E+03	3.839063E-03	6.044363E-05
5.684420E+03	3.833372E-03	6.014484E-05
5.694375E+03	3.827673E-03	5.984827E-05
5.704331E+03	3.821450E-03	5.954580E-05
5.714286E+03	3.815834E-03	5.925503E-05
5.724241E+03	3.810305E-03	5.896772E-05
5.734196E+03	3.804880E-03	5.868406E-05
5.744151E+03	3.799030E-03	5.839586E-05
5.754107E+03	3.793862E-03	5.812006E-05
5.764062E+03	3.788830E-03	5.784819E-05
5.774017E+03	3.783402E-03	5.757205E-05
5.783972E+03	3.778647E-03	5.730790E-05
5.793927E+03	3.774020E-03	5.704733E-05
5.803883E+03	3.768976E-03	5.678205E-05
5.813838E+03	3.764572E-03	5.652798E-05
5.823793E+03	3.759715E-03	5.626862E-05
5.833748E+03	3.755465E-03	5.601981E-05
5.843703E+03	3.750721E-03	5.576506E-05
5.853659E+03	3.746535E-03	5.552000E-05
5.863614E+03	3.741811E-03	5.526832E-05
5.873569E+03	3.737600E-03	5.502558E-05
5.883524E+03	3.732803E-03	5.477554E-05
5.893479E+03	3.728473E-03	5.453366E-05
5.903435E+03	3.723513E-03	5.428388E-05
5.913390E+03	3.718446E-03	5.403386E-05
5.923345E+03	3.713773E-03	5.379088E-05
5.933300E+03	3.708425E-03	5.353943E-05
5.943255E+03	3.702910E-03	5.328694E-05
5.953211E+03	3.697219E-03	5.303328E-05
5.963166E+03	3.691867E-03	5.278584E-05
5.973121E+03	3.685785E-03	5.252937E-05
5.983076E+03	3.679499E-03	5.227141E-05
5.993031E+03	3.672992E-03	5.201181E-05
6.002987E+03	3.666267E-03	5.175062E-05
6.012942E+03	3.659837E-03	5.149513E-05
6.022897E+03	3.652644E-03	5.123047E-05
6.032852E+03	3.645215E-03	5.096414E-05
6.042807E+03	3.637544E-03	5.069611E-05
6.052763E+03	3.629616E-03	5.042623E-05
6.062718E+03	3.621431E-03	5.015459E-05
6.072673E+03	3.612980E-03	4.988112E-05
6.082628E+03	3.604253E-03	4.960575E-05
6.092583E+03	3.595239E-03	4.932841E-05
6.102539E+03	3.585925E-03	4.904901E-05
6.112494E+03	3.576294E-03	4.876739E-05
6.122449E+03	3.566336E-03	4.848351E-05
6.132404E+03	3.556031E-03	4.819719E-05
6.142359E+03	3.545358E-03	4.790825E-05
6.152315E+03	3.533799E-03	4.760978E-05
6.162270E+03	3.522339E-03	4.731520E-05
6.172225E+03	3.510455E-03	4.701755E-05
6.182180E+03	3.498123E-03	4.671661E-05
6.192135E+03	3.485324E-03	4.641224E-05
6.202091E+03	3.471546E-03	4.609776E-05
6.212046E+03	3.457758E-03	4.578617E-05
6.222001E+03	3.443450E-03	4.547079E-05
6.231956E+03	3.428606E-03	4.515154E-05
6.241911E+03	3.412726E-03	4.482196E-05
6.251867E+03	3.396779E-03	4.449493E-05
6.261822E+03	3.380271E-03	4.416404E-05
6.271777E+03	3.362718E-03	4.382312E-05
6.281732E+03	3.345087E-03	4.348489E-05
6.291687E+03	3.326903E-03	4.314325E-05
6.301643E+03	3.307702E-03	4.279233E-05
6.311598E+03	3.288452E-03	4.244472E-05
6.321553E+03	3.268229E-03	4.208862E-05
6.331508E+03	3.247998E-03	4.173653E-05
6.341463E+03	3.226856E-03	4.137694E-05
6.351419E+03	3.205767E-03	4.102228E-05
6.361374E+03	3.183849E-03	4.066133E-05
6.371329E+03	3.162061E-03	4.030640E-05
6.381284E+03	3.139544E-03	3.994659E-05
6.391239E+03	3.117251E-03	3.959406E-05
6.401195E+03	3.094342E-03	3.923819E-05
6.411150E+03	3.071766E-03	3.889103E-05
6.421105E+03	3.048701E-03	3.854219E-05
6.431060E+03	3.025654E-03	3.819811E-05
6.441015E+03	3.003121E-03	3.786504E-05
6.450971E+03	2.980309E-03	3.753296E-05
6.460926E+03	2.957717E-03	3.720818E-05
6.470881E+03	2.935837E-03	3.689681E-05
6.480836E+03	2.913884E-03	3.658882E-05
6.490791E+03	2.892335E-03	3.628998E-05
6.500747E+03	2.871647E-03	3.600575E-05
6.510702E+03	2.851045E-03	3.572620E-05
6.520657E+03	2.831000E-03	3.545700E-05
6.530612E+03	2.811566E-03	3.519860E-05
6.540567E+03	2.793184E-03	3.495634E-05
6.550523E+03	2.775091E-03	3.472041E-05
6.560478E+03	2.757723E-03	3.449609E-05
6.570433E+03	2.741113E-03	3.428360E-05
6.580388E+03	2.725294E-03	3.408316E-05
6.590343E+03	2.710297E-03	3.389498E-05
6.600299E+03	2.696540E-03	3.372411E-05
6.610254E+03	2.683279E-03	3.356107E-05
6.620209E+03	2.670932E-03	3.341093E-05
6.630164E+03	2.659527E-03	3.327390E-05
6.640119E+03	2.649092E-03	3.315018E-05
6.650075E+03	2.639654E-03	3.303994E-05
6.660030E+03	2.631238E-03	3.294340E-05
6.669985E+03	2.623867E-03	3.286070E-05
6.679940E+03	2.617567E-03	3.279205E-05
6.689895E+03	2.612360E-03	3.273758E-05
6.699851E+03	2.608266E-03	3.269746E-05
6.709806E+03	2.605306E-03	3.267183E-05
6.719761E+03	2.603499E-03	3.266083E-05
6.729716E+03	2.602864E-03	3.266458E-05
6.739671E+03	2.603416E-03	3.268319E-05
6.749627E+03	2.605171E-03	3.271676E-05
6.759582E+03	2.608143E-03	3.276535E-05
6.769537E+03	2.612343E-03	3.282904E-05
6.779492E+03	2.617783E-03	3.290785E-05
6.789447E+03	2.624092E-03	3.299706E-05
6.799403E+03	2.632031E-03	3.310611E-05
6.809358E+03	2.641226E-03	3.323024E-05
6.819313E+03	2.651678E-03	3.336936E-05
6.829268E+03	2.663387E-03	3.352335E-05
6.839223E+03	2.676346E-03	3.369206E-05
6.849179E+03	2.690161E-03	3.387041E-05
6.859134E+03	2.705592E-03	3.406789E-05
6.869089E+03	2.722239E-03	3.427934E-05
6.879044E+03	2.740084E-03	3.450443E-05
6.889000E+03	2.758704E-03	3.473775E-05
6.898955E+03	2.778867E-03	3.498882E-05
6.908910E+03	2.800145E-03	3.525217E-05
6.918865E+03	2.822502E-03	3.552722E-05
6.928820E+03	2.845489E-03	3.580818E-05
6.938776E+03	2.869876E-03	3.610465E-05
6.948731E+03	2.895207E-03	3.641074E-05
6.958686E+03	2.921008E-03	3.672035E-05
6.968641E+03	2.948056E-03	3.704316E-05
6.978596E+03	2.975443E-03	3.736758E-05
6.988552E+03	3.003954E-03	3.770337E-05
6.998507E+03	3.033092E-03	3.804414E-05
7.008462E+03	3.062338E-03	3.838324E-05
7.018417E+03	3.092492E-03	3.873058E-05
7.028372E+03	3.122580E-03	3.907382E-05
7.038328E+03	3.153413E-03	3.942298E-05
7.048283E+03	3.183993E-03	3.976546E-05
7.058238E+03	3.215144E-03	4.011141E-05
7.068193E+03	3.245844E-03	4.044799E-05
7.078148E+03	3.276932E-03	4.078554E-05
7.088104E+03	3.307367E-03	4.111097E-05
7.098059E+03	3.338003E-03	4.143483E-05
7.108014E+03	3.367781E-03	4.174387E-05
7.117969E+03	3.397574E-03	4.204885E-05
7.127924E+03	3.426309E-03	4.233641E-05
7.137880E+03	3.454876E-03	4.261751E-05
7.147835E+03	3.482193E-03	4.287875E-05
7.157790E+03	3.508670E-03	4.312518E-05
7.167745E+03	3.534734E-03	4.336201E-05
7.177700E+03	3.559290E-03	4.357580E-05
7.187656E+03	3.583297E-03	4.377834E-05
7.197611E+03	3.605650E-03	4.395613E-05
7.207566E+03	3.626810E-03	4.411489E-05
7.217521E+03	3.646724E-03	4.425403E-05
7.227476E+03	3.665891E-03	4.437965E-05
7.237432E+03	3.683209E-03	4.447852E-05
7.247387E+03	3.699181E-03	4.455685E-05
7.257342E+03	3.714337E-03	4.462113E-05
7.267297E+03	3.727592E-03	4.465847E-05
7.277252E+03	3.739484E-03	4.467545E-05
7.287208E+03	3.750025E-03	4.467244E-05
7.297163E+03	3.759237E-03	4.464984E-05
7.307118E+03	3.767694E-03	4.461465E-05
7.317073E+03	3.774343E-03	4.455457E-05
7.327028E+03	3.779774E-03	4.447680E-05
7.336984E+03	3.784034E-03	4.438210E-05
7.346939E+03	3.787191E-03	4.427149E-05
7.356894E+03	3.789299E-03	4.414582E-05
7.366849E+03	3.790429E-03	4.400613E-05
7.376804E+03	3.791207E-03	4.385988E-05
7.386760E+03	3.790606E-03	4.369538E-05
7.396715E+03	3.789252E-03	4.352013E-05
7.406670E+03	3.787223E-03	4.333523E-05
7.416625E+03	3.784596E-03	4.314178E-05
7.426580E+03	3.781448E-03	4.294088E-05
7.436536E+03	3.777857E-03	4.273361E-05
7.446491E+03	3.773894E-03	4.252100E-05
7.456446E+03	3.769624E-03	4.230396E-05
7.466401E+03	3.765111E-03	4.208344E-05
7.476356E+03	3.760413E-03	4.186028E-05
7.486312E+03	3.755581E-03	4.163525E-05
7.496267E+03	3.750660E-03	4.140903E-05
7.506222E+03	3.745687E-03	4.118225E-05
7.516177E+03	3.740143E-03	4.094941E-05
7.526132E+03	3.735139E-03	4.072292E-05
7.536088E+03	3.730143E-03	4.049713E-05
7.546043E+03	3.725158E-03	4.027227E-05
7.555998E+03	3.720171E-03	4.004842E-05
7.565953E+03	3.715171E-03	3.982570E-05
7.575908E+03	3.710127E-03	3.960400E-05
7.585864E+03	3.704468E-03	3.937748E-05
7.595819E+03	3.699227E-03	3.915740E-05
7.605774E+03	3.693817E-03	3.893778E-05
7.615729E+03	3.688172E-03	3.871818E-05
7.625684E+03	3.681687E-03	3.849256E-05
7.635640E+03	3.675368E-03	3.827177E-05
7.645595E+03	3.668596E-03	3.804962E-05
7.655550E+03	3.661281E-03	3.782552E-05
7.665505E+03	3.652799E-03	3.759334E-05
7.675460E+03	3.644135E-03	3.736363E-05
7.685416E+03	3.634649E-03	3.713012E-05
7.695371E+03	3.623720E-03	3.688684E-05
7.705326E+03	3.612321E-03	3.664410E-05
7.715281E+03	3.599821E-03	3.639580E-05
7.725236E+03	3.585602E-03	3.613612E-05
