#wls	flux	fluxerr
1.592832E+03	5.958491E-04	2.821090E-05
1.632653E+03	6.091242E-04	2.875749E-05
1.672474E+03	6.221031E-04	2.928448E-05
1.712295E+03	6.347226E-04	2.978884E-05
1.752115E+03	6.470376E-04	3.027311E-05
1.791936E+03	6.587656E-04	3.072408E-05
1.831757E+03	6.700896E-04	3.115035E-05
1.871578E+03	6.808529E-04	3.154466E-05
1.911399E+03	6.908994E-04	3.189992E-05
1.951220E+03	7.005707E-04	3.223201E-05
1.991040E+03	7.094825E-04	3.252334E-05
2.030861E+03	7.177468E-04	3.277927E-05
2.070682E+03	7.254880E-04	3.300562E-05
2.110503E+03	7.325805E-04	3.319684E-05
2.150324E+03	7.390259E-04	3.335322E-05
2.190144E+03	7.448252E-04	3.347502E-05
2.229965E+03	7.499754E-04	3.356235E-05
2.269786E+03	7.545998E-04	3.362097E-05
2.309607E+03	7.584137E-04	3.363844E-05
2.349428E+03	7.616526E-04	3.362555E-05
2.389248E+03	7.641428E-04	3.357492E-05
2.429069E+03	7.658353E-04	3.348482E-05
2.468890E+03	7.668131E-04	3.335928E-05
2.508711E+03	7.667709E-04	3.318552E-05
2.548532E+03	7.659671E-04	3.297529E-05
2.588352E+03	7.643118E-04	3.272524E-05
2.628173E+03	7.619198E-04	3.244084E-05
2.667994E+03	7.589887E-04	3.213098E-05
2.707815E+03	7.559232E-04	3.181308E-05
2.747636E+03	7.527927E-04	3.149017E-05
2.787456E+03	7.502247E-04	3.118839E-05
2.827277E+03	7.484675E-04	3.091758E-05
2.867098E+03	7.478961E-04	3.069248E-05
2.906919E+03	7.488736E-04	3.052692E-05
2.946740E+03	7.518764E-04	3.043886E-05
2.986560E+03	7.571061E-04	3.043466E-05
2.996516E+03	7.587339E-04	3.044537E-05
3.006471E+03	7.605248E-04	3.046213E-05
3.016426E+03	7.626140E-04	3.049030E-05
3.026381E+03	7.647460E-04	3.051962E-05
3.036336E+03	7.671858E-04	3.056063E-05
3.046292E+03	7.696764E-04	3.060305E-05
3.056247E+03	7.724843E-04	3.065744E-05
3.066202E+03	7.753509E-04	3.071348E-05
3.076157E+03	7.785444E-04	3.078176E-05
3.086112E+03	7.818034E-04	3.085188E-05
3.096068E+03	7.853985E-04	3.093450E-05
3.106023E+03	7.890656E-04	3.101913E-05
3.115978E+03	7.930777E-04	3.111649E-05
3.125933E+03	7.971680E-04	3.121602E-05
3.135889E+03	8.016106E-04	3.132844E-05
3.145844E+03	8.061371E-04	3.144318E-05
3.155799E+03	8.110238E-04	3.157097E-05
3.165754E+03	8.161371E-04	3.170654E-05
3.175709E+03	8.213403E-04	3.184452E-05
3.185665E+03	8.269139E-04	3.199575E-05
3.195620E+03	8.325799E-04	3.214940E-05
3.205575E+03	8.386223E-04	3.231638E-05
3.215530E+03	8.449018E-04	3.249124E-05
3.225485E+03	8.512757E-04	3.266844E-05
3.235441E+03	8.580330E-04	3.285903E-05
3.245396E+03	8.648838E-04	3.305182E-05
3.255351E+03	8.721203E-04	3.325793E-05
3.265306E+03	8.795979E-04	3.347176E-05
3.275261E+03	8.871652E-04	3.368749E-05
3.285217E+03	8.951207E-04	3.391640E-05
3.295172E+03	9.033143E-04	3.415271E-05
3.305127E+03	9.115902E-04	3.439049E-05
3.315082E+03	9.202529E-04	3.464116E-05
3.325037E+03	9.291476E-04	3.489881E-05
3.334993E+03	9.381130E-04	3.515733E-05
3.344948E+03	9.474607E-04	3.542834E-05
3.354903E+03	9.570302E-04	3.570575E-05
3.364858E+03	9.668177E-04	3.598935E-05
3.374813E+03	9.766540E-04	3.627280E-05
3.384769E+03	9.868618E-04	3.656803E-05
3.394724E+03	9.972729E-04	3.686873E-05
3.404679E+03	1.007712E-03	3.716837E-05
3.414634E+03	1.018512E-03	3.747913E-05
3.424589E+03	1.029497E-03	3.779456E-05
3.434545E+03	1.040663E-03	3.811435E-05
3.444500E+03	1.051825E-03	3.843178E-05
3.454455E+03	1.063330E-03	3.875939E-05
3.464410E+03	1.074995E-03	3.909050E-05
3.474365E+03	1.086815E-03	3.942482E-05
3.484321E+03	1.098598E-03	3.975541E-05
3.494276E+03	1.110704E-03	4.009523E-05
3.504231E+03	1.122944E-03	4.043741E-05
3.514186E+03	1.135313E-03	4.078168E-05
3.524141E+03	1.147804E-03	4.112775E-05
3.534097E+03	1.160216E-03	4.146846E-05
3.544052E+03	1.172930E-03	4.181732E-05
3.554007E+03	1.185748E-03	4.216724E-05
3.563962E+03	1.198664E-03	4.251799E-05
3.573917E+03	1.211471E-03	4.286216E-05
3.583873E+03	1.224565E-03	4.321377E-05
3.593828E+03	1.237742E-03	4.356554E-05
3.603783E+03	1.250995E-03	4.391724E-05
3.613738E+03	1.264321E-03	4.426866E-05
3.623693E+03	1.277713E-03	4.461959E-05
3.633649E+03	1.290952E-03	4.496233E-05
3.643604E+03	1.304459E-03	4.531158E-05
3.653559E+03	1.318017E-03	4.565970E-05
3.663514E+03	1.331619E-03	4.600645E-05
3.673469E+03	1.345259E-03	4.635159E-05
3.683425E+03	1.358704E-03	4.668711E-05
3.693380E+03	1.372396E-03	4.702820E-05
3.703335E+03	1.386104E-03	4.736685E-05
3.713290E+03	1.399818E-03	4.770276E-05
3.723245E+03	1.413528E-03	4.803558E-05
3.733201E+03	1.427224E-03	4.836494E-05
3.743156E+03	1.440656E-03	4.868238E-05
3.753111E+03	1.454286E-03	4.900355E-05
3.763066E+03	1.467863E-03	4.931997E-05
3.773021E+03	1.481373E-03	4.963116E-05
3.782977E+03	1.494799E-03	4.993659E-05
3.792932E+03	1.507876E-03	5.022740E-05
3.802887E+03	1.521081E-03	5.051958E-05
3.812842E+03	1.534148E-03	5.080425E-05
3.822797E+03	1.547056E-03	5.108079E-05
3.832753E+03	1.559785E-03	5.134855E-05
3.842708E+03	1.572053E-03	5.159833E-05
3.852663E+03	1.584355E-03	5.184646E-05
3.862618E+03	1.596409E-03	5.208375E-05
3.872573E+03	1.608194E-03	5.230954E-05
3.882529E+03	1.619685E-03	5.252316E-05
3.892484E+03	1.630860E-03	5.272393E-05
3.902439E+03	1.641425E-03	5.290252E-05
3.912394E+03	1.651898E-03	5.307568E-05
3.922349E+03	1.661987E-03	5.323416E-05
3.932305E+03	1.671673E-03	5.337743E-05
3.942260E+03	1.680937E-03	5.350502E-05
3.952215E+03	1.689484E-03	5.360770E-05
3.962170E+03	1.697851E-03	5.370269E-05
3.972125E+03	1.705749E-03	5.378090E-05
3.982081E+03	1.713167E-03	5.384213E-05
3.992036E+03	1.719813E-03	5.387740E-05
4.001991E+03	1.726244E-03	5.390433E-05
4.011946E+03	1.732173E-03	5.391408E-05
4.021901E+03	1.737600E-03	5.390681E-05
4.031857E+03	1.742243E-03	5.387390E-05
4.041812E+03	1.746672E-03	5.383325E-05
4.051767E+03	1.750613E-03	5.377644E-05
4.061722E+03	1.754075E-03	5.370394E-05
4.071677E+03	1.756783E-03	5.360753E-05
4.081633E+03	1.759327E-03	5.350535E-05
4.091588E+03	1.761439E-03	5.338935E-05
4.101543E+03	1.763138E-03	5.326027E-05
4.111498E+03	1.764162E-03	5.311032E-05
4.121453E+03	1.765110E-03	5.295771E-05
4.131409E+03	1.765721E-03	5.279469E-05
4.141364E+03	1.765739E-03	5.261371E-05
4.151319E+03	1.765768E-03	5.243292E-05
4.161274E+03	1.765554E-03	5.224481E-05
4.171229E+03	1.764844E-03	5.204201E-05
4.181185E+03	1.764247E-03	5.184255E-05
4.191140E+03	1.763511E-03	5.163905E-05
4.201095E+03	1.762387E-03	5.142431E-05
4.211050E+03	1.761483E-03	5.121614E-05
4.221005E+03	1.760552E-03	5.100728E-05
4.230961E+03	1.759344E-03	5.079062E-05
4.240916E+03	1.758468E-03	5.058370E-05
4.250871E+03	1.757392E-03	5.037119E-05
4.260826E+03	1.756719E-03	5.017043E-05
4.270781E+03	1.756203E-03	4.997424E-05
4.280737E+03	1.755593E-03	4.977555E-05
4.290692E+03	1.755492E-03	4.959138E-05
4.300647E+03	1.755366E-03	4.940655E-05
4.310602E+03	1.755812E-03	4.923785E-05
4.320557E+03	1.756293E-03	4.907013E-05
4.330513E+03	1.757405E-03	4.891992E-05
4.340468E+03	1.758888E-03	4.877989E-05
4.350423E+03	1.760483E-03	4.864274E-05
4.360378E+03	1.762774E-03	4.852456E-05
4.370333E+03	1.765209E-03	4.840999E-05
4.380289E+03	1.768365E-03	4.831477E-05
4.390244E+03	1.771679E-03	4.822336E-05
4.400199E+03	1.775433E-03	4.814341E-05
4.410154E+03	1.779913E-03	4.808246E-05
4.420110E+03	1.784538E-03	4.802474E-05
4.430065E+03	1.789874E-03	4.798533E-05
4.440020E+03	1.795336E-03	4.794840E-05
4.449975E+03	1.801488E-03	4.792891E-05
4.459930E+03	1.807738E-03	4.791098E-05
4.469886E+03	1.814361E-03	4.790181E-05
4.479841E+03	1.821633E-03	4.790856E-05
4.489796E+03	1.828956E-03	4.791535E-05
4.499751E+03	1.836900E-03	4.793703E-05
4.509706E+03	1.844860E-03	4.795771E-05
4.519662E+03	1.853115E-03	4.798458E-05
4.529617E+03	1.861945E-03	4.802479E-05
4.539572E+03	1.870741E-03	4.806251E-05
4.549527E+03	1.879785E-03	4.810495E-05
4.559482E+03	1.889062E-03	4.815167E-05
4.569438E+03	1.898860E-03	4.820994E-05
4.579393E+03	1.908564E-03	4.826399E-05
4.589348E+03	1.918463E-03	4.832115E-05
4.599303E+03	1.928546E-03	4.838109E-05
4.609258E+03	1.939112E-03	4.845124E-05
4.619214E+03	1.949537E-03	4.851590E-05
4.629169E+03	1.960122E-03	4.858257E-05
4.639124E+03	1.970860E-03	4.865107E-05
4.649079E+03	1.981748E-03	4.872123E-05
4.659034E+03	1.993100E-03	4.880073E-05
4.668990E+03	2.004282E-03	4.887395E-05
4.678945E+03	2.015609E-03	4.894863E-05
4.688900E+03	2.027083E-03	4.902474E-05
4.698855E+03	2.038707E-03	4.910231E-05
4.708810E+03	2.050484E-03	4.918140E-05
4.718766E+03	2.062419E-03	4.926206E-05
4.728721E+03	2.074518E-03	4.934442E-05
4.738676E+03	2.086789E-03	4.942859E-05
4.748631E+03	2.099239E-03	4.951470E-05
4.758586E+03	2.111876E-03	4.960291E-05
4.768542E+03	2.124710E-03	4.969339E-05
4.778497E+03	2.137751E-03	4.978630E-05
4.788452E+03	2.151007E-03	4.988180E-05
4.798407E+03	2.164489E-03	4.998009E-05
4.808362E+03	2.178206E-03	5.008133E-05
4.818318E+03	2.192170E-03	5.018568E-05
4.828273E+03	2.206389E-03	5.029330E-05
4.838228E+03	2.220873E-03	5.040434E-05
4.848183E+03	2.235630E-03	5.051893E-05
4.858138E+03	2.250668E-03	5.063718E-05
4.868094E+03	2.265995E-03	5.075919E-05
4.878049E+03	2.281258E-03	5.087700E-05
4.888004E+03	2.297180E-03	5.100674E-05
4.897959E+03	2.313409E-03	5.114040E-05
4.907914E+03	2.329947E-03	5.127801E-05
4.917870E+03	2.346798E-03	5.141954E-05
4.927825E+03	2.363590E-03	5.155681E-05
4.937780E+03	2.381066E-03	5.170603E-05
4.947735E+03	2.398856E-03	5.185897E-05
4.957690E+03	2.416956E-03	5.201551E-05
4.967646E+03	2.434979E-03	5.216729E-05
4.977601E+03	2.453686E-03	5.233056E-05
4.987556E+03	2.472687E-03	5.249692E-05
4.997511E+03	2.491583E-03	5.265785E-05
5.007466E+03	2.511147E-03	5.282968E-05
5.017422E+03	2.530979E-03	5.300384E-05
5.027377E+03	2.550663E-03	5.317168E-05
5.037332E+03	2.570988E-03	5.334960E-05
5.047287E+03	2.591131E-03	5.352047E-05
5.057242E+03	2.611888E-03	5.370076E-05
5.067198E+03	2.632423E-03	5.387320E-05
5.077153E+03	2.653542E-03	5.405433E-05
5.087108E+03	2.674393E-03	5.422675E-05
5.097063E+03	2.695791E-03	5.440702E-05
5.107018E+03	2.716868E-03	5.457763E-05
5.116974E+03	2.738452E-03	5.475525E-05
5.126929E+03	2.759659E-03	5.492220E-05
5.136884E+03	2.781327E-03	5.509524E-05
5.146839E+03	2.802557E-03	5.525657E-05
5.156794E+03	2.824197E-03	5.542303E-05
5.166750E+03	2.845335E-03	5.557674E-05
5.176705E+03	2.866381E-03	5.572586E-05
5.186660E+03	2.887757E-03	5.587866E-05
5.196615E+03	2.908529E-03	5.601712E-05
5.206570E+03	2.929115E-03	5.614950E-05
5.216526E+03	2.949946E-03	5.628413E-05
5.226481E+03	2.970069E-03	5.640293E-05
5.236436E+03	2.989912E-03	5.651423E-05
5.246391E+03	3.009915E-03	5.662649E-05
5.256346E+03	3.029107E-03	5.672155E-05
5.266302E+03	3.047928E-03	5.680791E-05
5.276257E+03	3.066349E-03	5.688519E-05
5.286212E+03	3.084342E-03	5.695308E-05
5.296167E+03	3.102368E-03	5.702022E-05
5.306122E+03	3.119431E-03	5.706851E-05
5.316078E+03	3.135992E-03	5.710666E-05
5.326033E+03	3.152030E-03	5.713449E-05
5.335988E+03	3.167526E-03	5.715188E-05
5.345943E+03	3.182462E-03	5.715875E-05
5.355898E+03	3.196823E-03	5.715505E-05
5.365854E+03	3.210597E-03	5.714079E-05
5.375809E+03	3.223773E-03	5.711601E-05
5.385764E+03	3.236342E-03	5.708082E-05
5.395719E+03	3.248299E-03	5.703534E-05
5.405674E+03	3.259640E-03	5.697974E-05
5.415630E+03	3.270365E-03	5.691425E-05
5.425585E+03	3.280472E-03	5.683910E-05
5.435540E+03	3.289965E-03	5.675458E-05
5.445495E+03	3.298849E-03	5.666098E-05
5.455450E+03	3.307128E-03	5.655864E-05
5.465406E+03	3.314811E-03	5.644789E-05
5.475361E+03	3.321901E-03	5.632905E-05
5.485316E+03	3.328405E-03	5.620242E-05
5.495271E+03	3.334326E-03	5.606822E-05
5.505226E+03	3.339670E-03	5.592666E-05
5.515182E+03	3.344446E-03	5.577793E-05
5.525137E+03	3.348144E-03	5.561359E-05
5.535092E+03	3.351817E-03	5.545125E-05
5.545047E+03	3.354957E-03	5.528246E-05
5.555002E+03	3.357579E-03	5.510749E-05
5.564958E+03	3.359173E-03	5.491807E-05
5.574913E+03	3.360805E-03	5.473164E-05
5.584868E+03	3.361967E-03	5.453992E-05
5.594823E+03	3.362679E-03	5.434323E-05
5.604778E+03	3.362436E-03	5.413345E-05
5.614734E+03	3.362305E-03	5.392783E-05
5.624689E+03	3.361783E-03	5.371820E-05
5.634644E+03	3.360368E-03	5.349658E-05
5.644599E+03	3.359126E-03	5.327997E-05
5.654555E+03	3.357555E-03	5.306034E-05
5.664510E+03	3.355152E-03	5.282975E-05
5.674465E+03	3.352982E-03	5.260500E-05
5.684420E+03	3.350020E-03	5.236994E-05
5.694375E+03	3.347327E-03	5.214117E-05
5.704331E+03	3.344398E-03	5.191075E-05
5.714286E+03	3.340730E-03	5.167086E-05
5.724241E+03	3.337375E-03	5.143781E-05
5.734196E+03	3.333310E-03	5.119572E-05
5.744151E+03	3.329582E-03	5.096073E-05
5.754107E+03	3.325167E-03	5.071707E-05
5.764062E+03	3.321106E-03	5.048066E-05
5.774017E+03	3.316375E-03	5.023585E-05
5.783972E+03	3.311496E-03	4.999058E-05
5.793927E+03	3.306987E-03	4.975263E-05
5.803883E+03	3.301822E-03	4.950650E-05
5.813838E+03	3.297031E-03	4.926766E-05
5.823793E+03	3.291587E-03	4.902070E-05
5.833748E+03	3.286004E-03	4.877332E-05
5.843703E+03	3.280790E-03	4.853303E-05
5.853659E+03	3.274921E-03	4.828464E-05
5.863614E+03	3.269415E-03	4.804316E-05
5.873569E+03	3.263248E-03	4.779354E-05
5.883524E+03	3.256927E-03	4.754324E-05
5.893479E+03	3.250446E-03	4.729218E-05
5.903435E+03	3.244306E-03	4.704762E-05
5.913390E+03	3.237491E-03	4.679482E-05
5.923345E+03	3.230501E-03	4.654107E-05
5.933300E+03	3.223331E-03	4.628631E-05
5.943255E+03	3.216476E-03	4.603764E-05
5.953211E+03	3.208930E-03	4.578066E-05
5.963166E+03	3.201189E-03	4.552252E-05
5.973121E+03	3.193247E-03	4.526317E-05
5.983076E+03	3.185099E-03	4.500258E-05
5.993031E+03	3.177236E-03	4.474767E-05
6.002987E+03	3.168663E-03	4.448447E-05
6.012942E+03	3.159871E-03	4.421994E-05
6.022897E+03	3.150856E-03	4.395408E-05
6.032852E+03	3.141613E-03	4.368687E-05
6.042807E+03	3.132139E-03	4.341831E-05
6.052763E+03	3.122428E-03	4.314838E-05
6.062718E+03	3.112477E-03	4.287709E-05
6.072673E+03	3.102765E-03	4.261107E-05
6.082628E+03	3.092321E-03	4.233704E-05
6.092583E+03	3.081625E-03	4.206167E-05
6.102539E+03	3.070673E-03	4.178497E-05
6.112494E+03	3.059462E-03	4.150697E-05
6.122449E+03	3.047989E-03	4.122769E-05
6.132404E+03	3.036250E-03	4.094717E-05
6.142359E+03	3.024244E-03	4.066545E-05
6.152315E+03	3.011968E-03	4.038255E-05
6.162270E+03	2.999420E-03	4.009856E-05
6.172225E+03	2.986600E-03	3.981353E-05
6.182180E+03	2.973046E-03	3.952140E-05
6.192135E+03	2.959685E-03	3.923459E-05
6.202091E+03	2.946054E-03	3.894702E-05
6.212046E+03	2.932159E-03	3.865881E-05
6.222001E+03	2.918002E-03	3.837011E-05
6.231956E+03	2.903591E-03	3.808106E-05
6.241911E+03	2.888934E-03	3.779186E-05
6.251867E+03	2.874039E-03	3.750269E-05
6.261822E+03	2.858918E-03	3.721378E-05
6.271777E+03	2.843143E-03	3.691963E-05
6.281732E+03	2.827615E-03	3.663203E-05
6.291687E+03	2.811908E-03	3.634549E-05
6.301643E+03	2.796040E-03	3.606031E-05
6.311598E+03	2.780033E-03	3.577683E-05
6.321553E+03	2.763480E-03	3.548988E-05
6.331508E+03	2.747269E-03	3.521093E-05
6.341463E+03	2.730995E-03	3.493479E-05
6.351419E+03	2.714686E-03	3.466188E-05
6.361374E+03	2.697954E-03	3.438728E-05
6.371329E+03	2.681672E-03	3.412216E-05
6.381284E+03	2.665450E-03	3.386159E-05
6.391239E+03	2.649323E-03	3.360602E-05
6.401195E+03	2.632916E-03	3.335072E-05
6.411150E+03	2.617085E-03	3.310655E-05
6.421105E+03	2.601453E-03	3.286876E-05
6.431060E+03	2.585653E-03	3.263272E-05
6.441015E+03	2.570526E-03	3.240905E-05
6.450971E+03	2.555701E-03	3.219307E-05
6.460926E+03	2.540817E-03	3.198024E-05
6.470881E+03	2.526699E-03	3.178093E-05
6.480836E+03	2.512979E-03	3.159038E-05
6.490791E+03	2.499294E-03	3.140382E-05
6.500747E+03	2.486448E-03	3.123118E-05
6.510702E+03	2.473691E-03	3.106283E-05
6.520657E+03	2.461821E-03	3.090863E-05
6.530612E+03	2.450097E-03	3.075908E-05
6.540567E+03	2.439305E-03	3.062390E-05
6.550523E+03	2.429085E-03	3.049839E-05
6.560478E+03	2.419079E-03	3.037790E-05
6.570433E+03	2.410060E-03	3.027199E-05
6.580388E+03	2.401293E-03	3.017126E-05
6.590343E+03	2.393545E-03	3.008520E-05
6.600299E+03	2.386081E-03	3.000447E-05
6.610254E+03	2.379661E-03	2.993844E-05
6.620209E+03	2.373554E-03	2.987783E-05
6.630164E+03	2.368513E-03	2.983197E-05
6.640119E+03	2.363810E-03	2.979158E-05
6.650075E+03	2.360190E-03	2.976594E-05
6.660030E+03	2.356929E-03	2.974581E-05
6.669985E+03	2.354402E-03	2.973582E-05
6.679940E+03	2.352985E-03	2.974061E-05
6.689895E+03	2.351951E-03	2.975089E-05
6.699851E+03	2.352042E-03	2.977597E-05
6.709806E+03	2.352529E-03	2.980652E-05
6.719761E+03	2.354152E-03	2.985185E-05
6.729716E+03	2.356183E-03	2.990262E-05
6.739671E+03	2.358993E-03	2.996345E-05
6.749627E+03	2.362952E-03	3.003898E-05
6.759582E+03	2.367328E-03	3.011983E-05
6.769537E+03	2.372489E-03	3.021059E-05
6.779492E+03	2.378807E-03	3.031593E-05
6.789447E+03	2.385540E-03	3.042632E-05
6.799403E+03	2.393055E-03	3.054636E-05
6.809358E+03	2.401723E-03	3.068073E-05
6.819313E+03	2.410791E-03	3.081974E-05
6.829268E+03	2.420627E-03	3.096798E-05
6.839223E+03	2.431600E-03	3.113014E-05
6.849179E+03	2.442944E-03	3.129632E-05
6.859134E+03	2.455023E-03	3.147113E-05
6.869089E+03	2.467825E-03	3.165430E-05
6.879044E+03	2.481720E-03	3.185053E-05
6.889000E+03	2.495917E-03	3.204959E-05
6.898955E+03	2.510782E-03	3.225608E-05
6.908910E+03	2.526291E-03	3.246963E-05
6.918865E+03	2.542819E-03	3.269495E-05
6.928820E+03	2.559544E-03	3.292143E-05
6.938776E+03	2.576834E-03	3.315368E-05
6.948731E+03	2.594657E-03	3.339121E-05
6.958686E+03	2.612978E-03	3.363349E-05
6.968641E+03	2.632175E-03	3.388528E-05
6.978596E+03	2.651388E-03	3.413545E-05
6.988552E+03	2.670986E-03	3.438863E-05
6.998507E+03	2.690928E-03	3.464420E-05
7.008462E+03	2.711170E-03	3.490152E-05
7.018417E+03	2.731666E-03	3.515989E-05
7.028372E+03	2.752369E-03	3.541864E-05
7.038328E+03	2.773664E-03	3.568261E-05
7.048283E+03	2.794640E-03	3.593998E-05
7.058238E+03	2.815673E-03	3.619554E-05
7.068193E+03	2.836715E-03	3.644855E-05
7.078148E+03	2.857712E-03	3.669827E-05
7.088104E+03	2.878614E-03	3.694396E-05
7.098059E+03	2.899368E-03	3.718486E-05
7.108014E+03	2.919922E-03	3.742026E-05
7.117969E+03	2.940226E-03	3.764943E-05
7.127924E+03	2.960229E-03	3.787169E-05
7.137880E+03	2.979883E-03	3.808633E-05
7.147835E+03	2.999140E-03	3.829273E-05
7.157790E+03	3.017953E-03	3.849024E-05
7.167745E+03	3.036281E-03	3.867829E-05
7.177700E+03	3.054080E-03	3.885632E-05
7.187656E+03	3.071313E-03	3.902383E-05
7.197611E+03	3.087943E-03	3.918035E-05
7.207566E+03	3.103938E-03	3.932546E-05
7.217521E+03	3.119267E-03	3.945880E-05
7.227476E+03	3.133905E-03	3.958005E-05
7.237432E+03	3.147827E-03	3.968895E-05
7.247387E+03	3.161016E-03	3.978529E-05
7.257342E+03	3.173455E-03	3.986893E-05
7.267297E+03	3.185132E-03	3.993976E-05
7.277252E+03	3.196039E-03	3.999776E-05
7.287208E+03	3.206172E-03	4.004293E-05
7.297163E+03	3.215529E-03	4.007534E-05
7.307118E+03	3.224113E-03	4.009510E-05
7.317073E+03	3.231421E-03	4.009609E-05
7.327028E+03	3.238477E-03	4.009111E-05
7.336984E+03	3.244785E-03	4.007412E-05
7.346939E+03	3.250359E-03	4.004541E-05
7.356894E+03	3.255215E-03	4.000529E-05
7.366849E+03	3.259373E-03	3.995414E-05
7.376804E+03	3.262851E-03	3.989231E-05
7.386760E+03	3.265157E-03	3.981395E-05
7.396715E+03	3.267339E-03	3.973201E-05
7.406670E+03	3.268908E-03	3.964064E-05
7.416625E+03	3.269885E-03	3.954026E-05
7.426580E+03	3.270293E-03	3.943131E-05
7.436536E+03	3.269639E-03	3.930801E-05
7.446491E+03	3.268973E-03	3.918319E-05
7.456446E+03	3.267800E-03	3.905103E-05
7.466401E+03	3.266138E-03	3.891192E-05
7.476356E+03	3.263488E-03	3.876013E-05
7.486312E+03	3.260892E-03	3.860822E-05
7.496267E+03	3.257848E-03	3.845039E-05
7.506222E+03	3.254364E-03	3.828693E-05
7.516177E+03	3.249932E-03	3.811207E-05
7.526132E+03	3.245581E-03	3.793809E-05
7.536088E+03	3.240797E-03	3.775915E-05
7.546043E+03	3.235066E-03	3.756949E-05
7.555998E+03	3.229403E-03	3.738110E-05
7.565953E+03	3.223287E-03	3.718814E-05
7.575908E+03	3.216196E-03	3.698482E-05
7.585864E+03	3.209131E-03	3.678290E-05
7.595819E+03	3.201565E-03	3.657651E-05
7.605774E+03	3.192970E-03	3.635990E-05
7.615729E+03	3.184335E-03	3.614454E-05
7.625684E+03	3.175128E-03	3.592462E-05
7.635640E+03	3.164819E-03	3.569441E-05
7.645595E+03	3.154384E-03	3.546517E-05
7.655550E+03	3.142794E-03	3.522554E-05
7.665505E+03	3.131013E-03	3.498664E-05
7.675460E+03	3.118515E-03	3.474276E-05
7.685416E+03	3.104776E-03	3.448836E-05
7.695371E+03	3.090754E-03	3.423434E-05
7.705326E+03	3.075441E-03	3.396976E-05
7.715281E+03	3.059787E-03	3.370538E-05
7.725236E+03	3.042800E-03	3.343049E-05
