#wls	flux	fluxerr
1.600000E+03	2.489662E-17	1.566141E-21
1.640000E+03	2.489399E-17	1.565976E-21
1.680000E+03	2.491003E-17	1.566984E-21
1.720000E+03	2.493126E-17	1.568320E-21
1.760000E+03	2.497246E-17	1.570911E-21
1.800000E+03	2.503442E-17	1.574809E-21
1.840000E+03	2.511333E-17	1.579773E-21
1.880000E+03	2.521489E-17	1.586161E-21
1.920000E+03	2.534499E-17	1.594345E-21
1.960000E+03	2.550494E-17	1.604407E-21
2.000000E+03	2.570102E-17	1.616742E-21
2.040000E+03	2.593501E-17	1.631461E-21
2.080000E+03	2.620890E-17	1.648690E-21
2.120000E+03	2.653468E-17	1.669183E-21
2.160000E+03	2.691025E-17	1.692809E-21
2.200000E+03	2.734362E-17	1.720070E-21
2.240000E+03	2.783353E-17	1.750888E-21
2.280000E+03	2.839401E-17	1.786145E-21
2.320000E+03	2.902002E-17	1.825525E-21
2.360000E+03	2.972204E-17	1.869686E-21
2.400000E+03	3.050652E-17	1.919034E-21
2.440000E+03	3.137569E-17	1.973710E-21
2.480000E+03	3.234314E-17	2.034568E-21
2.520000E+03	3.341345E-17	2.101896E-21
2.560000E+03	3.459776E-17	2.176396E-21
2.600000E+03	3.590903E-17	2.258882E-21
2.640000E+03	3.736228E-17	2.350300E-21
2.680000E+03	3.897495E-17	2.451745E-21
2.720000E+03	4.076727E-17	2.564493E-21
2.760000E+03	4.276291E-17	2.690030E-21
2.800000E+03	4.498309E-17	2.829691E-21
2.840000E+03	4.746586E-17	2.985871E-21
2.880000E+03	5.023520E-17	3.160078E-21
2.920000E+03	5.334731E-17	3.355848E-21
2.960000E+03	5.686041E-17	3.576841E-21
3.000000E+03	6.084243E-17	3.827332E-21
3.010000E+03	6.191544E-17	3.894830E-21
3.020000E+03	6.303502E-17	3.965258E-21
3.030000E+03	6.418701E-17	4.037725E-21
3.040000E+03	6.538061E-17	4.112809E-21
3.050000E+03	6.661732E-17	4.190605E-21
3.060000E+03	6.789049E-17	4.270695E-21
3.070000E+03	6.921810E-17	4.354209E-21
3.080000E+03	7.058524E-17	4.440210E-21
3.090000E+03	7.201049E-17	4.529865E-21
3.100000E+03	7.348727E-17	4.622763E-21
3.110000E+03	7.500864E-17	4.718466E-21
3.120000E+03	7.659405E-17	4.818197E-21
3.130000E+03	7.823676E-17	4.921533E-21
3.140000E+03	7.994805E-17	5.029183E-21
3.150000E+03	8.172106E-17	5.140714E-21
3.160000E+03	8.355795E-17	5.256266E-21
3.170000E+03	8.547057E-17	5.376580E-21
3.180000E+03	8.745184E-17	5.501213E-21
3.190000E+03	8.952398E-17	5.631562E-21
3.200000E+03	9.167002E-17	5.766560E-21
3.210000E+03	9.390265E-17	5.907005E-21
3.220000E+03	9.622476E-17	6.053078E-21
3.230000E+03	9.863927E-17	6.204965E-21
3.240000E+03	1.011491E-16	6.362848E-21
3.250000E+03	1.037572E-16	6.526912E-21
3.260000E+03	1.064777E-16	6.698043E-21
3.270000E+03	1.093138E-16	6.876455E-21
3.280000E+03	1.122575E-16	7.061627E-21
3.290000E+03	1.153230E-16	7.254467E-21
3.300000E+03	1.185135E-16	7.455165E-21
3.310000E+03	1.218317E-16	7.663900E-21
3.320000E+03	1.252803E-16	7.880834E-21
3.330000E+03	1.288740E-16	8.106900E-21
3.340000E+03	1.326025E-16	8.341439E-21
3.350000E+03	1.364797E-16	8.585337E-21
3.360000E+03	1.405070E-16	8.838677E-21
3.370000E+03	1.446709E-16	9.100609E-21
3.380000E+03	1.489976E-16	9.372786E-21
3.390000E+03	1.534717E-16	9.654228E-21
3.400000E+03	1.581039E-16	9.945621E-21
3.410000E+03	1.628894E-16	1.024666E-20
3.420000E+03	1.678063E-16	1.055596E-20
3.430000E+03	1.728746E-16	1.087478E-20
3.440000E+03	1.780516E-16	1.120044E-20
3.450000E+03	1.833515E-16	1.153384E-20
3.460000E+03	1.887545E-16	1.187371E-20
3.470000E+03	1.942358E-16	1.221852E-20
3.480000E+03	1.997654E-16	1.256636E-20
3.490000E+03	2.053066E-16	1.291493E-20
3.500000E+03	2.108323E-16	1.326253E-20
3.510000E+03	2.162751E-16	1.360491E-20
3.520000E+03	2.215926E-16	1.393941E-20
3.530000E+03	2.267172E-16	1.426178E-20
3.540000E+03	2.315735E-16	1.456727E-20
3.550000E+03	2.360788E-16	1.485068E-20
3.560000E+03	2.401624E-16	1.510756E-20
3.570000E+03	2.437348E-16	1.533228E-20
3.580000E+03	2.467100E-16	1.551944E-20
3.590000E+03	2.489958E-16	1.566322E-20
3.600000E+03	2.505747E-16	1.576255E-20
3.610000E+03	2.514389E-16	1.581691E-20
3.620000E+03	2.516521E-16	1.583032E-20
3.630000E+03	2.512629E-16	1.580584E-20
3.640000E+03	2.503638E-16	1.574928E-20
3.650000E+03	2.490369E-16	1.566581E-20
3.660000E+03	2.473510E-16	1.555976E-20
3.670000E+03	2.454193E-16	1.543825E-20
3.680000E+03	2.433069E-16	1.530536E-20
3.690000E+03	2.410904E-16	1.516593E-20
3.700000E+03	2.388427E-16	1.502454E-20
3.710000E+03	2.366450E-16	1.488629E-20
3.720000E+03	2.345478E-16	1.475436E-20
3.730000E+03	2.326114E-16	1.463255E-20
3.740000E+03	2.309161E-16	1.452591E-20
3.750000E+03	2.294780E-16	1.443545E-20
3.760000E+03	2.283817E-16	1.436648E-20
3.770000E+03	2.276389E-16	1.431976E-20
3.780000E+03	2.273273E-16	1.430015E-20
3.790000E+03	2.274654E-16	1.430884E-20
3.800000E+03	2.280927E-16	1.434830E-20
3.810000E+03	2.292665E-16	1.442214E-20
3.820000E+03	2.309905E-16	1.453059E-20
3.830000E+03	2.333276E-16	1.467760E-20
3.840000E+03	2.362775E-16	1.486317E-20
3.850000E+03	2.398973E-16	1.509087E-20
3.860000E+03	2.441813E-16	1.536036E-20
3.870000E+03	2.491692E-16	1.567413E-20
3.880000E+03	2.548665E-16	1.603252E-20
3.890000E+03	2.612827E-16	1.643613E-20
3.900000E+03	2.684101E-16	1.688449E-20
3.910000E+03	2.762629E-16	1.737847E-20
3.920000E+03	2.848149E-16	1.791644E-20
3.930000E+03	2.940284E-16	1.849602E-20
3.940000E+03	3.038622E-16	1.911462E-20
3.950000E+03	3.142707E-16	1.976937E-20
3.960000E+03	3.251708E-16	2.045505E-20
3.970000E+03	3.364723E-16	2.116597E-20
3.980000E+03	3.480556E-16	2.189463E-20
3.990000E+03	3.598150E-16	2.263436E-20
3.998624E+03	2.768632E-16	1.741623E-20
4.000094E+03	2.885198E-16	1.814949E-20
4.001564E+03	2.949319E-16	1.855285E-20
4.003035E+03	3.034880E-16	1.909108E-20
4.004505E+03	3.137778E-16	1.973836E-20
4.005965E+03	3.250539E-16	2.044769E-20
4.007435E+03	3.329551E-16	2.094472E-20
4.008905E+03	3.381971E-16	2.127447E-20
4.010376E+03	3.476113E-16	2.186668E-20
4.011846E+03	3.541545E-16	2.227828E-20
4.013316E+03	3.601258E-16	2.265391E-20
4.014786E+03	3.647997E-16	2.294792E-20
4.016257E+03	3.711961E-16	2.335029E-20
4.017727E+03	3.757604E-16	2.363741E-20
4.019197E+03	3.789240E-16	2.383642E-20
4.020667E+03	3.838099E-16	2.414377E-20
4.022138E+03	3.887667E-16	2.445558E-20
4.023608E+03	3.903131E-16	2.455286E-20
4.025078E+03	3.937611E-16	2.476976E-20
4.026548E+03	4.009402E-16	2.522136E-20
4.028019E+03	4.057858E-16	2.552618E-20
4.029489E+03	4.054286E-16	2.550370E-20
4.030959E+03	4.049637E-16	2.547446E-20
4.032429E+03	4.066509E-16	2.558060E-20
4.033899E+03	4.066880E-16	2.558293E-20
4.035370E+03	4.092712E-16	2.574543E-20
4.036840E+03	4.089851E-16	2.572743E-20
4.038310E+03	4.069419E-16	2.559890E-20
4.039780E+03	4.089864E-16	2.572751E-20
4.041251E+03	4.114606E-16	2.588315E-20
4.042721E+03	4.111023E-16	2.586061E-20
4.044191E+03	4.069802E-16	2.560131E-20
4.045662E+03	4.044717E-16	2.544351E-20
4.047132E+03	4.030387E-16	2.535337E-20
4.048602E+03	3.995632E-16	2.513474E-20
4.050072E+03	3.946549E-16	2.482598E-20
4.051542E+03	3.942619E-16	2.480126E-20
4.053013E+03	3.965558E-16	2.494556E-20
4.054483E+03	4.007120E-16	2.520701E-20
4.055953E+03	3.990287E-16	2.510112E-20
4.057423E+03	3.944804E-16	2.481500E-20
4.058894E+03	3.893597E-16	2.449289E-20
4.060364E+03	3.843832E-16	2.417983E-20
4.061834E+03	3.784048E-16	2.380376E-20
4.063304E+03	3.790153E-16	2.384216E-20
4.064775E+03	3.809860E-16	2.396613E-20
4.066245E+03	3.838154E-16	2.414412E-20
4.067705E+03	3.867876E-16	2.433108E-20
4.069175E+03	3.867525E-16	2.432887E-20
4.070645E+03	3.830670E-16	2.409704E-20
4.072116E+03	3.788811E-16	2.383372E-20
4.073586E+03	3.726564E-16	2.344215E-20
4.075056E+03	3.673629E-16	2.310916E-20
4.076526E+03	3.645388E-16	2.293151E-20
4.077997E+03	3.621443E-16	2.278088E-20
4.079467E+03	3.612883E-16	2.272704E-20
4.080937E+03	3.626139E-16	2.281042E-20
4.082407E+03	3.630451E-16	2.283755E-20
4.083878E+03	3.610804E-16	2.271396E-20
4.085348E+03	3.647294E-16	2.294350E-20
4.086818E+03	3.701653E-16	2.328544E-20
4.088288E+03	3.731692E-16	2.347441E-20
4.089758E+03	3.763154E-16	2.367232E-20
4.091229E+03	3.823916E-16	2.405455E-20
4.092699E+03	3.915400E-16	2.463004E-20
4.094169E+03	3.963986E-16	2.493567E-20
4.095639E+03	4.023637E-16	2.531091E-20
4.097110E+03	4.121862E-16	2.592880E-20
4.098580E+03	4.233642E-16	2.663195E-20
4.100050E+03	4.297535E-16	2.703388E-20
4.101520E+03	4.362843E-16	2.744470E-20
4.102991E+03	4.445994E-16	2.796776E-20
4.104461E+03	4.563767E-16	2.870862E-20
4.105931E+03	4.700798E-16	2.957062E-20
4.107401E+03	4.819950E-16	3.032015E-20
4.108872E+03	4.889811E-16	3.075962E-20
4.110342E+03	4.966084E-16	3.123942E-20
4.111812E+03	5.053048E-16	3.178647E-20
4.113282E+03	5.130001E-16	3.227055E-20
4.114752E+03	5.203726E-16	3.273432E-20
4.116223E+03	5.253884E-16	3.304984E-20
4.117693E+03	5.361119E-16	3.372440E-20
4.119163E+03	5.450136E-16	3.428437E-20
4.120633E+03	5.497042E-16	3.457943E-20
4.122104E+03	5.574611E-16	3.506739E-20
4.123574E+03	5.610079E-16	3.529050E-20
4.125044E+03	5.626282E-16	3.539243E-20
4.126514E+03	5.671720E-16	3.567826E-20
4.127985E+03	5.733191E-16	3.606494E-20
4.129455E+03	5.753295E-16	3.619141E-20
4.130915E+03	5.781239E-16	3.636719E-20
4.132385E+03	5.764618E-16	3.626264E-20
4.133855E+03	5.728397E-16	3.603479E-20
4.135326E+03	5.681134E-16	3.573748E-20
4.136796E+03	5.661673E-16	3.561506E-20
4.138266E+03	5.636515E-16	3.545680E-20
4.139736E+03	5.587847E-16	3.515065E-20
4.141207E+03	5.560204E-16	3.497676E-20
4.142677E+03	5.573527E-16	3.506057E-20
4.144147E+03	5.545532E-16	3.488447E-20
4.145617E+03	5.490123E-16	3.453591E-20
4.147088E+03	5.450745E-16	3.428820E-20
4.148558E+03	5.419564E-16	3.409205E-20
4.150028E+03	5.373080E-16	3.379964E-20
4.151498E+03	5.292787E-16	3.329456E-20
4.152968E+03	5.238137E-16	3.295078E-20
4.154439E+03	5.191326E-16	3.265631E-20
4.155909E+03	5.139186E-16	3.232832E-20
4.157379E+03	5.082430E-16	3.197130E-20
4.158850E+03	5.004695E-16	3.148230E-20
4.160320E+03	4.954010E-16	3.116346E-20
4.161790E+03	4.872032E-16	3.064778E-20
4.163260E+03	4.786871E-16	3.011206E-20
4.164730E+03	4.730887E-16	2.975990E-20
4.166201E+03	4.647889E-16	2.923779E-20
4.167671E+03	4.543930E-16	2.858383E-20
4.169141E+03	4.448880E-16	2.798592E-20
4.170611E+03	4.362380E-16	2.744178E-20
4.172082E+03	4.241777E-16	2.668312E-20
4.173552E+03	4.144653E-16	2.607216E-20
4.175022E+03	4.049327E-16	2.547250E-20
4.176492E+03	3.954020E-16	2.487297E-20
4.177963E+03	3.890709E-16	2.447471E-20
4.179433E+03	3.817107E-16	2.401171E-20
4.180903E+03	3.722919E-16	2.341922E-20
4.182373E+03	3.683091E-16	2.316868E-20
4.183844E+03	3.647177E-16	2.294276E-20
4.185314E+03	3.584638E-16	2.254936E-20
4.186784E+03	3.509296E-16	2.207541E-20
4.188254E+03	3.462333E-16	2.177999E-20
4.189725E+03	3.436040E-16	2.161459E-20
4.191195E+03	3.379014E-16	2.125587E-20
4.192665E+03	3.291018E-16	2.070232E-20
4.194125E+03	3.248606E-16	2.043553E-20
4.195595E+03	3.237601E-16	2.036630E-20
4.197065E+03	3.243344E-16	2.040243E-20
4.198536E+03	3.230284E-16	2.032027E-20
4.200006E+03	3.173952E-16	1.996591E-20
4.201476E+03	3.141572E-16	1.976222E-20
4.202947E+03	3.142887E-16	1.977050E-20
4.204417E+03	3.144626E-16	1.978144E-20
4.205887E+03	3.190115E-16	2.006758E-20
4.207357E+03	3.252183E-16	2.045803E-20
4.208828E+03	3.247597E-16	2.042918E-20
4.210298E+03	3.198603E-16	2.012098E-20
4.211768E+03	3.145118E-16	1.978453E-20
4.213238E+03	3.081760E-16	1.938597E-20
4.214708E+03	3.014482E-16	1.896275E-20
4.216179E+03	2.984415E-16	1.877362E-20
4.217649E+03	2.984925E-16	1.877683E-20
4.219119E+03	2.979163E-16	1.874058E-20
4.220589E+03	2.941070E-16	1.850095E-20
4.222060E+03	2.908756E-16	1.829768E-20
4.223530E+03	2.904208E-16	1.826907E-20
4.225000E+03	2.906740E-16	1.828500E-20
4.226470E+03	2.896845E-16	1.822276E-20
4.227941E+03	2.907374E-16	1.828899E-20
4.229411E+03	2.930146E-16	1.843224E-20
4.230881E+03	2.926725E-16	1.841072E-20
4.232351E+03	2.909294E-16	1.830107E-20
4.233822E+03	2.887197E-16	1.816207E-20
4.235292E+03	2.870941E-16	1.805980E-20
4.236762E+03	2.876722E-16	1.809617E-20
4.238232E+03	2.870229E-16	1.805533E-20
4.239703E+03	2.882302E-16	1.813127E-20
4.241173E+03	2.902149E-16	1.825612E-20
4.242643E+03	2.902088E-16	1.825574E-20
4.244113E+03	2.894073E-16	1.820532E-20
4.245583E+03	2.916489E-16	1.834632E-20
4.247054E+03	2.970104E-16	1.868359E-20
4.248524E+03	3.012504E-16	1.895031E-20
4.249994E+03	3.037617E-16	1.910829E-20
4.251464E+03	3.047673E-16	1.917154E-20
4.252935E+03	3.076589E-16	1.935344E-20
4.254405E+03	3.112771E-16	1.958105E-20
4.255865E+03	3.129596E-16	1.968689E-20
4.257335E+03	3.172365E-16	1.995593E-20
4.258805E+03	3.212616E-16	2.020913E-20
4.260276E+03	3.213884E-16	2.021711E-20
4.261746E+03	3.226306E-16	2.029525E-20
4.263216E+03	3.240065E-16	2.038179E-20
4.264686E+03	3.235045E-16	2.035022E-20
4.266157E+03	3.250703E-16	2.044871E-20
4.267627E+03	3.282372E-16	2.064793E-20
4.269097E+03	3.316325E-16	2.086152E-20
4.270567E+03	3.322372E-16	2.089955E-20
4.272038E+03	3.302247E-16	2.077296E-20
4.273508E+03	3.270209E-16	2.057142E-20
4.274978E+03	3.272483E-16	2.058572E-20
4.276448E+03	3.260760E-16	2.051198E-20
4.277918E+03	3.249003E-16	2.043802E-20
4.279389E+03	3.214093E-16	2.021842E-20
4.280859E+03	3.196988E-16	2.011082E-20
4.282329E+03	3.196305E-16	2.010652E-20
4.283800E+03	3.186814E-16	2.004682E-20
4.285270E+03	3.186378E-16	2.004407E-20
4.286740E+03	3.182453E-16	2.001939E-20
4.288210E+03	3.145813E-16	1.978890E-20
4.289680E+03	3.118864E-16	1.961938E-20
4.291151E+03	3.106497E-16	1.954158E-20
4.292621E+03	3.077974E-16	1.936216E-20
4.294091E+03	3.023340E-16	1.901848E-20
4.295561E+03	2.988322E-16	1.879819E-20
4.297032E+03	2.971329E-16	1.869130E-20
4.298502E+03	2.954059E-16	1.858266E-20
4.299972E+03	2.931304E-16	1.843952E-20
4.301442E+03	2.909821E-16	1.830438E-20
4.302913E+03	2.878880E-16	1.810974E-20
4.304383E+03	2.843094E-16	1.788463E-20
4.305853E+03	2.800706E-16	1.761798E-20
4.307323E+03	2.750733E-16	1.730363E-20
4.308794E+03	2.697468E-16	1.696856E-20
4.310264E+03	2.644603E-16	1.663601E-20
4.311734E+03	2.586515E-16	1.627060E-20
4.313204E+03	2.562527E-16	1.611971E-20
4.314675E+03	2.554953E-16	1.607207E-20
4.316145E+03	2.512916E-16	1.580763E-20
4.317605E+03	2.487227E-16	1.564603E-20
4.319075E+03	2.456869E-16	1.545506E-20
4.320545E+03	2.413035E-16	1.517932E-20
4.322016E+03	2.370123E-16	1.490938E-20
4.323486E+03	2.335508E-16	1.469163E-20
4.324956E+03	2.340218E-16	1.472126E-20
4.326426E+03	2.338502E-16	1.471047E-20
4.327896E+03	2.317871E-16	1.458069E-20
4.329367E+03	2.305245E-16	1.450126E-20
4.330837E+03	2.302866E-16	1.448630E-20
4.332307E+03	2.292559E-16	1.442146E-20
4.333777E+03	2.287270E-16	1.438819E-20
4.335248E+03	2.288260E-16	1.439442E-20
4.336718E+03	2.290020E-16	1.440549E-20
4.338188E+03	2.324702E-16	1.462366E-20
4.339658E+03	2.335079E-16	1.468893E-20
4.341129E+03	2.350535E-16	1.478616E-20
4.342599E+03	2.365707E-16	1.488160E-20
4.344069E+03	2.367662E-16	1.489390E-20
4.345539E+03	2.377850E-16	1.495798E-20
4.347010E+03	2.363827E-16	1.486977E-20
4.348480E+03	2.354045E-16	1.480824E-20
4.349950E+03	2.359536E-16	1.484278E-20
4.351420E+03	2.363028E-16	1.486475E-20
4.352891E+03	2.375902E-16	1.494573E-20
4.354361E+03	2.378164E-16	1.495997E-20
4.355831E+03	2.403598E-16	1.511996E-20
4.357301E+03	2.441414E-16	1.535784E-20
4.358771E+03	2.462246E-16	1.548889E-20
4.360242E+03	2.485101E-16	1.563265E-20
4.361712E+03	2.493501E-16	1.568549E-20
4.363182E+03	2.486086E-16	1.563885E-20
4.364653E+03	2.476400E-16	1.557792E-20
4.366123E+03	2.486962E-16	1.564436E-20
4.367593E+03	2.526892E-16	1.589555E-20
4.369063E+03	2.558840E-16	1.609651E-20
4.370533E+03	2.545545E-16	1.601288E-20
4.372004E+03	2.539523E-16	1.597500E-20
4.373474E+03	2.561947E-16	1.611606E-20
4.374944E+03	2.571717E-16	1.617752E-20
4.376414E+03	2.560695E-16	1.610818E-20
4.377885E+03	2.566723E-16	1.614610E-20
4.379355E+03	2.587660E-16	1.627781E-20
4.380815E+03	2.583766E-16	1.625331E-20
4.382285E+03	2.551274E-16	1.604892E-20
4.383755E+03	2.541132E-16	1.598512E-20
4.385226E+03	2.535985E-16	1.595275E-20
4.386696E+03	2.524172E-16	1.587843E-20
4.388166E+03	2.529600E-16	1.591258E-20
4.389636E+03	2.544586E-16	1.600685E-20
4.391107E+03	2.515611E-16	1.582458E-20
4.392577E+03	2.494144E-16	1.568954E-20
4.394047E+03	2.496047E-16	1.570151E-20
4.395517E+03	2.491430E-16	1.567247E-20
4.396988E+03	2.478654E-16	1.559210E-20
4.398458E+03	2.452147E-16	1.542535E-20
4.399928E+03	2.417595E-16	1.520801E-20
4.401398E+03	2.380962E-16	1.497756E-20
4.402868E+03	2.348033E-16	1.477042E-20
4.404339E+03	2.314519E-16	1.455960E-20
4.405809E+03	2.272760E-16	1.429692E-20
4.407279E+03	2.231361E-16	1.403649E-20
4.408749E+03	2.202335E-16	1.385390E-20
4.410220E+03	2.182336E-16	1.372809E-20
4.411690E+03	2.176615E-16	1.369211E-20
4.413160E+03	2.150218E-16	1.352606E-20
4.414630E+03	2.126023E-16	1.337386E-20
4.416101E+03	2.097066E-16	1.319170E-20
4.417571E+03	2.075354E-16	1.305512E-20
4.419041E+03	2.074451E-16	1.304944E-20
4.420511E+03	2.084191E-16	1.311071E-20
4.421982E+03	2.078590E-16	1.307547E-20
4.423452E+03	2.044618E-16	1.286177E-20
4.424922E+03	2.030332E-16	1.277191E-20
4.426392E+03	2.042538E-16	1.284869E-20
4.427863E+03	2.043722E-16	1.285613E-20
4.429333E+03	2.028398E-16	1.275974E-20
4.430803E+03	1.995151E-16	1.255060E-20
4.432273E+03	1.966081E-16	1.236773E-20
4.433744E+03	1.946850E-16	1.224676E-20
4.435214E+03	1.948600E-16	1.225777E-20
4.436684E+03	1.945939E-16	1.224103E-20
4.438154E+03	1.940918E-16	1.220945E-20
4.439624E+03	1.949504E-16	1.226346E-20
4.441095E+03	1.955277E-16	1.229977E-20
4.442565E+03	1.959277E-16	1.232493E-20
4.444025E+03	1.964735E-16	1.235927E-20
4.445495E+03	1.956139E-16	1.230519E-20
4.446966E+03	1.946572E-16	1.224501E-20
4.448436E+03	1.963296E-16	1.235021E-20
4.449906E+03	2.002484E-16	1.259673E-20
4.451376E+03	2.012745E-16	1.266127E-20
4.452846E+03	2.021165E-16	1.271424E-20
4.454317E+03	2.061363E-16	1.296711E-20
4.455787E+03	2.089489E-16	1.314403E-20
4.457257E+03	2.109705E-16	1.327121E-20
4.458727E+03	2.108713E-16	1.326497E-20
4.460198E+03	2.105053E-16	1.324194E-20
4.461668E+03	2.112997E-16	1.329191E-20
4.463138E+03	2.113595E-16	1.329568E-20
4.464608E+03	2.104638E-16	1.323933E-20
4.466079E+03	2.120640E-16	1.334000E-20
4.467549E+03	2.152039E-16	1.353751E-20
4.469019E+03	2.183702E-16	1.373669E-20
4.470489E+03	2.203454E-16	1.386094E-20
4.471960E+03	2.243330E-16	1.411178E-20
4.473430E+03	2.269947E-16	1.427921E-20
4.474900E+03	2.285833E-16	1.437915E-20
4.476370E+03	2.309529E-16	1.452821E-20
4.477841E+03	2.337398E-16	1.470352E-20
4.479311E+03	2.379672E-16	1.496945E-20
4.480781E+03	2.413118E-16	1.517984E-20
4.482251E+03	2.438296E-16	1.533822E-20
4.483721E+03	2.449194E-16	1.540678E-20
4.485192E+03	2.492179E-16	1.567718E-20
4.486662E+03	2.536288E-16	1.595465E-20
4.488132E+03	2.561183E-16	1.611125E-20
4.489602E+03	2.574331E-16	1.619396E-20
4.491073E+03	2.572905E-16	1.618499E-20
4.492543E+03	2.599919E-16	1.635492E-20
4.494013E+03	2.640383E-16	1.660946E-20
4.495483E+03	2.665960E-16	1.677036E-20
4.496954E+03	2.697530E-16	1.696895E-20
4.498424E+03	2.714776E-16	1.707744E-20
4.499894E+03	2.725359E-16	1.714401E-20
4.501364E+03	2.714700E-16	1.707695E-20
4.502835E+03	2.700801E-16	1.698953E-20
4.504295E+03	2.697456E-16	1.696848E-20
4.505765E+03	2.679394E-16	1.685486E-20
4.507235E+03	2.656687E-16	1.671202E-20
4.508705E+03	2.644319E-16	1.663422E-20
4.510176E+03	2.646491E-16	1.664788E-20
4.511646E+03	2.663919E-16	1.675751E-20
4.513116E+03	2.671009E-16	1.680211E-20
4.514586E+03	2.662742E-16	1.675011E-20
4.516057E+03	2.685077E-16	1.689061E-20
4.517527E+03	2.726573E-16	1.715165E-20
4.518997E+03	2.723632E-16	1.713314E-20
4.520467E+03	2.699601E-16	1.698197E-20
4.521938E+03	2.699552E-16	1.698167E-20
4.523408E+03	2.689701E-16	1.691970E-20
4.524878E+03	2.657881E-16	1.671953E-20
4.526348E+03	2.636212E-16	1.658322E-20
4.527819E+03	2.627302E-16	1.652718E-20
4.529289E+03	2.616333E-16	1.645818E-20
4.530759E+03	2.601037E-16	1.636196E-20
4.532229E+03	2.574065E-16	1.619229E-20
4.533699E+03	2.549815E-16	1.603974E-20
4.535170E+03	2.518840E-16	1.584489E-20
4.536640E+03	2.509646E-16	1.578705E-20
4.538110E+03	2.485280E-16	1.563378E-20
4.539580E+03	2.426183E-16	1.526202E-20
4.541051E+03	2.387801E-16	1.502058E-20
4.542521E+03	2.366898E-16	1.488909E-20
4.543991E+03	2.347546E-16	1.476735E-20
4.545461E+03	2.348026E-16	1.477038E-20
4.546932E+03	2.355056E-16	1.481460E-20
4.548402E+03	2.330433E-16	1.465970E-20
4.549872E+03	2.304172E-16	1.449451E-20
4.551342E+03	2.302806E-16	1.448591E-20
