#wls	flux	fluxerr
1.600000E+03	8.812977E-19	3.236056E-19
1.640000E+03	8.743283E-19	3.185960E-19
1.680000E+03	8.671413E-19	3.134886E-19
1.720000E+03	8.600274E-19	3.083903E-19
1.760000E+03	8.528253E-19	3.032437E-19
1.800000E+03	8.453820E-19	2.979963E-19
1.840000E+03	8.381206E-19	2.927990E-19
1.880000E+03	8.306010E-19	2.874987E-19
1.920000E+03	8.230981E-19	2.821931E-19
1.960000E+03	8.154637E-19	2.768326E-19
2.000000E+03	8.076928E-19	2.714180E-19
2.040000E+03	7.999142E-19	2.659947E-19
2.080000E+03	7.921205E-19	2.605616E-19
2.120000E+03	7.843055E-19	2.551181E-19
2.160000E+03	7.763393E-19	2.496240E-19
2.200000E+03	7.683515E-19	2.441237E-19
2.240000E+03	7.602219E-19	2.385812E-19
2.280000E+03	7.522037E-19	2.330782E-19
2.320000E+03	7.441825E-19	2.275800E-19
2.360000E+03	7.360570E-19	2.220578E-19
2.400000E+03	7.280830E-19	2.165907E-19
2.440000E+03	7.202807E-19	2.111848E-19
2.480000E+03	7.124596E-19	2.057844E-19
2.520000E+03	7.048850E-19	2.004674E-19
2.560000E+03	6.976044E-19	1.952455E-19
2.600000E+03	6.905737E-19	1.901046E-19
2.640000E+03	6.839737E-19	1.850921E-19
2.680000E+03	6.778938E-19	1.802277E-19
2.720000E+03	6.723441E-19	1.755083E-19
2.760000E+03	6.676535E-19	1.710124E-19
2.800000E+03	6.637838E-19	1.667193E-19
2.840000E+03	6.611156E-19	1.627122E-19
2.880000E+03	6.597799E-19	1.590057E-19
2.920000E+03	6.600505E-19	1.556452E-19
2.960000E+03	6.623494E-19	1.527039E-19
3.000000E+03	6.669882E-19	1.502207E-19
3.010000E+03	6.685718E-19	1.496802E-19
3.020000E+03	6.703242E-19	1.491702E-19
3.030000E+03	6.723441E-19	1.487120E-19
3.040000E+03	6.745512E-19	1.482869E-19
3.050000E+03	6.769559E-19	1.478962E-19
3.060000E+03	6.795693E-19	1.475416E-19
3.070000E+03	6.824023E-19	1.472247E-19
3.080000E+03	6.855574E-19	1.469664E-19
3.090000E+03	6.889577E-19	1.467491E-19
3.100000E+03	6.926159E-19	1.465744E-19
3.110000E+03	6.965471E-19	1.464444E-19
3.120000E+03	7.008566E-19	1.463799E-19
3.130000E+03	7.054705E-19	1.463641E-19
3.140000E+03	7.104055E-19	1.463991E-19
3.150000E+03	7.156793E-19	1.464872E-19
3.160000E+03	7.214039E-19	1.466496E-19
3.170000E+03	7.274147E-19	1.468512E-19
3.180000E+03	7.339188E-19	1.471324E-19
3.190000E+03	7.409407E-19	1.474958E-19
3.200000E+03	7.483170E-19	1.479069E-19
3.210000E+03	7.562628E-19	1.484065E-19
3.220000E+03	7.647119E-19	1.489791E-19
3.230000E+03	7.736935E-19	1.496282E-19
3.240000E+03	7.832399E-19	1.503578E-19
3.250000E+03	7.934825E-19	1.511903E-19
3.260000E+03	8.043606E-19	1.521113E-19
3.270000E+03	8.159138E-19	1.531253E-19
3.280000E+03	8.281824E-19	1.542370E-19
3.290000E+03	8.413140E-19	1.554705E-19
3.300000E+03	8.552550E-19	1.568121E-19
3.310000E+03	8.700567E-19	1.582676E-19
3.320000E+03	8.857736E-19	1.598431E-19
3.330000E+03	9.025727E-19	1.615643E-19
3.340000E+03	9.204115E-19	1.634189E-19
3.350000E+03	9.393575E-19	1.654143E-19
3.360000E+03	9.594836E-19	1.675582E-19
3.370000E+03	9.809837E-19	1.698789E-19
3.380000E+03	1.003830E-18	1.723656E-19
3.390000E+03	1.028114E-18	1.750277E-19
3.400000E+03	1.053932E-18	1.778753E-19
3.410000E+03	1.081389E-18	1.809189E-19
3.420000E+03	1.110728E-18	1.841916E-19
3.430000E+03	1.141948E-18	1.876846E-19
3.440000E+03	1.175316E-18	1.914332E-19
3.450000E+03	1.210706E-18	1.954073E-19
3.460000E+03	1.248546E-18	1.996666E-19
3.470000E+03	1.288867E-18	2.042046E-19
3.480000E+03	1.331848E-18	2.090383E-19
3.490000E+03	1.377681E-18	2.141860E-19
3.500000E+03	1.426736E-18	2.196913E-19
3.510000E+03	1.479085E-18	2.255512E-19
3.520000E+03	1.534972E-18	2.317876E-19
3.530000E+03	1.594659E-18	2.384237E-19
3.540000E+03	1.658611E-18	2.455115E-19
3.550000E+03	1.726964E-18	2.530514E-19
3.560000E+03	1.800044E-18	2.610712E-19
3.570000E+03	1.878207E-18	2.696007E-19
3.580000E+03	1.962048E-18	2.787016E-19
3.590000E+03	2.051557E-18	2.883470E-19
3.600000E+03	2.147613E-18	2.986338E-19
3.610000E+03	2.250474E-18	3.095681E-19
3.620000E+03	2.360903E-18	3.212233E-19
3.630000E+03	2.478947E-18	3.335718E-19
3.640000E+03	2.605714E-18	3.467269E-19
3.650000E+03	2.741575E-18	3.606986E-19
3.660000E+03	2.887205E-18	3.755340E-19
3.670000E+03	3.043648E-18	3.913237E-19
3.680000E+03	3.211047E-18	4.080379E-19
3.690000E+03	3.390890E-18	4.258146E-19
3.700000E+03	3.583743E-18	4.446687E-19
3.710000E+03	3.790945E-18	4.647068E-19
3.720000E+03	4.012741E-18	4.858949E-19
3.730000E+03	4.251021E-18	5.083945E-19
3.740000E+03	4.506079E-18	5.321676E-19
3.750000E+03	4.780042E-18	5.573884E-19
3.760000E+03	5.073775E-18	5.840731E-19
3.770000E+03	5.389210E-18	6.123547E-19
3.780000E+03	5.726747E-18	6.421832E-19
3.790000E+03	6.089060E-18	6.737577E-19
3.800000E+03	6.477226E-18	7.070879E-19
3.810000E+03	6.892950E-18	7.422453E-19
3.820000E+03	7.338012E-18	7.792994E-19
3.830000E+03	7.814271E-18	8.183183E-19
3.840000E+03	8.324495E-18	8.594534E-19
3.850000E+03	8.869115E-18	9.026026E-19
3.860000E+03	9.451921E-18	9.479991E-19
3.870000E+03	1.007431E-17	9.956174E-19
3.880000E+03	1.073852E-17	1.045508E-18
3.890000E+03	1.144690E-17	1.097719E-18
3.900000E+03	1.220301E-17	1.152400E-18
3.910000E+03	1.300705E-17	1.209369E-18
3.920000E+03	1.386396E-17	1.268878E-18
3.930000E+03	1.477369E-17	1.330702E-18
3.940000E+03	1.574158E-17	1.395096E-18
3.950000E+03	1.676890E-17	1.461930E-18
3.960000E+03	1.785827E-17	1.531186E-18
3.970000E+03	1.901228E-17	1.602829E-18
3.980000E+03	2.023352E-17	1.676812E-18
3.990000E+03	2.152650E-17	1.753231E-18
4.000000E+03	2.288982E-17	1.831686E-18
4.010000E+03	2.432772E-17	1.912234E-18
4.020000E+03	2.584483E-17	1.994937E-18
4.030000E+03	2.743871E-17	2.079300E-18
4.040000E+03	2.911620E-17	2.165535E-18
4.050000E+03	3.087672E-17	2.253280E-18
4.060000E+03	3.271892E-17	2.342123E-18
4.070000E+03	3.464985E-17	2.432254E-18
4.080000E+03	3.666780E-17	2.523226E-18
4.090000E+03	3.877350E-17	2.614772E-18
4.100000E+03	4.096737E-17	2.706603E-18
4.110000E+03	4.324944E-17	2.798412E-18
4.120000E+03	4.561530E-17	2.889615E-18
4.130000E+03	4.807199E-17	2.980367E-18
4.140000E+03	5.061439E-17	3.070058E-18
4.150000E+03	5.324069E-17	3.158308E-18
4.160000E+03	5.594860E-17	3.244727E-18
4.170000E+03	5.873521E-17	3.328910E-18
4.180000E+03	6.159707E-17	3.410449E-18
4.190000E+03	6.453011E-17	3.488929E-18
4.200000E+03	6.752965E-17	3.563935E-18
4.210000E+03	7.058435E-17	3.634747E-18
4.220000E+03	7.370004E-17	3.701574E-18
4.230000E+03	7.686436E-17	3.763720E-18
4.240000E+03	8.006336E-17	3.820491E-18
4.250000E+03	8.330246E-17	3.872176E-18
4.260000E+03	8.655953E-17	3.917806E-18
4.270000E+03	8.983985E-17	3.957745E-18
4.280000E+03	9.311927E-17	3.991090E-18
4.290000E+03	9.639518E-17	4.017968E-18
4.300000E+03	9.966555E-17	4.038563E-18
4.310000E+03	1.029037E-16	4.052122E-18
4.320000E+03	1.061070E-16	4.058949E-18
4.330000E+03	1.092556E-16	4.058756E-18
4.340000E+03	1.123565E-16	4.052324E-18
4.350000E+03	1.153904E-16	4.039513E-18
4.360000E+03	1.183373E-16	4.020273E-18
4.370000E+03	1.212062E-16	3.995611E-18
4.380000E+03	1.239683E-16	3.965321E-18
4.390000E+03	1.266243E-16	3.930255E-18
4.400000E+03	1.291663E-16	3.891023E-18
4.410000E+03	1.315871E-16	3.848315E-18
4.420000E+03	1.338701E-16	3.802595E-18
4.430000E+03	1.360309E-16	3.755294E-18
4.440000E+03	1.380441E-16	3.706699E-18
4.450000E+03	1.399164E-16	3.658025E-18
4.460000E+03	1.416455E-16	3.610220E-18
4.470000E+03	1.432292E-16	3.564235E-18
4.480000E+03	1.446554E-16	3.520744E-18
4.490000E+03	1.459349E-16	3.480947E-18
4.500000E+03	1.470679E-16	3.445699E-18
4.510000E+03	1.480553E-16	3.415786E-18
4.520000E+03	1.488991E-16	3.391905E-18
4.530000E+03	1.495906E-16	3.374386E-18
4.540000E+03	1.501564E-16	3.364000E-18
4.550000E+03	1.505670E-16	3.359819E-18
4.560000E+03	1.508610E-16	3.362277E-18
4.570000E+03	1.510321E-16	3.370677E-18
4.580000E+03	1.510741E-16	3.384235E-18
4.590000E+03	1.510034E-16	3.402591E-18
4.600000E+03	1.508257E-16	3.425097E-18
4.610000E+03	1.505349E-16	3.450815E-18
4.620000E+03	1.501480E-16	3.479319E-18
4.630000E+03	1.496703E-16	3.509936E-18
4.640000E+03	1.491073E-16	3.542020E-18
4.650000E+03	1.484532E-16	3.574694E-18
4.660000E+03	1.477247E-16	3.607651E-18
4.670000E+03	1.469271E-16	3.640374E-18
4.680000E+03	1.460653E-16	3.672390E-18
4.690000E+03	1.451342E-16	3.703016E-18
4.700000E+03	1.441497E-16	3.732158E-18
4.710000E+03	1.431062E-16	3.759220E-18
4.720000E+03	1.420296E-16	3.784489E-18
4.730000E+03	1.409040E-16	3.807197E-18
4.740000E+03	1.397447E-16	3.827442E-18
4.750000E+03	1.385463E-16	3.844812E-18
4.760000E+03	1.373235E-16	3.859483E-18
4.770000E+03	1.360808E-16	3.871392E-18
4.780000E+03	1.348130E-16	3.880225E-18
4.790000E+03	1.335340E-16	3.886254E-18
4.800000E+03	1.322479E-16	3.889494E-18
4.810000E+03	1.309587E-16	3.889981E-18
4.820000E+03	1.296609E-16	3.887496E-18
4.830000E+03	1.283585E-16	3.882111E-18
4.840000E+03	1.270733E-16	3.874459E-18
4.850000E+03	1.257903E-16	3.864084E-18
4.860000E+03	1.245219E-16	3.851363E-18
4.870000E+03	1.232622E-16	3.836132E-18
4.880000E+03	1.220228E-16	3.818774E-18
4.890000E+03	1.208062E-16	3.799400E-18
4.900000E+03	1.196063E-16	3.777860E-18
4.910000E+03	1.184420E-16	3.754795E-18
4.920000E+03	1.172905E-16	3.729528E-18
4.930000E+03	1.161782E-16	3.702950E-18
4.940000E+03	1.150904E-16	3.674647E-18
4.950000E+03	1.140287E-16	3.644723E-18
4.960000E+03	1.130021E-16	3.613525E-18
4.970000E+03	1.120116E-16	3.581138E-18
4.980000E+03	1.110579E-16	3.547642E-18
4.990000E+03	1.101340E-16	3.512868E-18
5.000000E+03	1.092481E-16	3.477128E-18
5.010000E+03	1.084005E-16	3.440481E-18
5.020000E+03	1.075838E-16	3.402749E-18
5.030000E+03	1.067982E-16	3.363988E-18
5.040000E+03	1.060583E-16	3.324700E-18
5.050000E+03	1.053493E-16	3.284466E-18
5.060000E+03	1.046781E-16	3.243546E-18
5.070000E+03	1.040371E-16	3.201751E-18
5.080000E+03	1.034331E-16	3.159327E-18
5.090000E+03	1.028653E-16	3.116292E-18
5.100000E+03	1.023262E-16	3.072456E-18
5.110000E+03	1.018220E-16	3.028048E-18
5.120000E+03	1.013450E-16	2.982879E-18
5.130000E+03	1.009081E-16	2.937366E-18
5.140000E+03	1.004900E-16	2.890929E-18
5.150000E+03	1.001100E-16	2.844171E-18
5.160000E+03	9.975364E-17	2.796722E-18
5.170000E+03	9.942656E-17	2.748789E-18
5.180000E+03	9.912106E-17	2.700212E-18
5.190000E+03	9.884261E-17	2.651199E-18
5.200000E+03	9.858996E-17	2.601774E-18
5.210000E+03	9.835532E-17	2.551801E-18
5.220000E+03	9.814392E-17	2.501493E-18
5.230000E+03	9.795436E-17	2.450896E-18
5.240000E+03	9.777873E-17	2.399907E-18
5.250000E+03	9.762201E-17	2.348755E-18
5.260000E+03	9.748258E-17	2.297517E-18
5.270000E+03	9.735239E-17	2.246137E-18
5.280000E+03	9.723611E-17	2.194874E-18
5.290000E+03	9.713194E-17	2.143851E-18
5.300000E+03	9.703159E-17	2.093070E-18
5.310000E+03	9.693948E-17	2.042840E-18
5.320000E+03	9.685354E-17	1.993343E-18
5.330000E+03	9.676528E-17	1.944661E-18
5.340000E+03	9.667887E-17	1.897161E-18
5.350000E+03	9.658568E-17	1.850983E-18
5.360000E+03	9.649603E-17	1.806658E-18
5.370000E+03	9.639491E-17	1.764258E-18
5.380000E+03	9.627996E-17	1.724128E-18
5.390000E+03	9.616132E-17	1.686848E-18
5.400000E+03	9.602405E-17	1.652565E-18
5.410000E+03	9.586582E-17	1.621658E-18
5.420000E+03	9.569685E-17	1.594708E-18
5.430000E+03	9.550250E-17	1.571856E-18
5.440000E+03	9.528077E-17	1.553425E-18
5.450000E+03	9.504227E-17	1.539889E-18
5.460000E+03	9.477302E-17	1.531242E-18
5.470000E+03	9.447778E-17	1.527449E-18
5.480000E+03	9.414900E-17	1.528029E-18
5.490000E+03	9.379168E-17	1.532637E-18
5.500000E+03	9.340529E-17	1.540803E-18
5.510000E+03	9.299005E-17	1.552039E-18
5.520000E+03	9.254072E-17	1.565755E-18
5.530000E+03	9.206468E-17	1.581575E-18
5.540000E+03	9.156353E-17	1.599040E-18
5.550000E+03	9.103334E-17	1.617616E-18
5.560000E+03	9.048223E-17	1.637008E-18
5.570000E+03	8.991256E-17	1.656856E-18
5.580000E+03	8.932685E-17	1.676837E-18
5.590000E+03	8.872196E-17	1.696558E-18
5.600000E+03	8.810643E-17	1.715879E-18
5.610000E+03	8.748301E-17	1.734592E-18
5.620000E+03	8.685450E-17	1.752519E-18
5.630000E+03	8.621811E-17	1.769401E-18
5.640000E+03	8.558228E-17	1.785235E-18
5.650000E+03	8.494430E-17	1.799814E-18
5.660000E+03	8.431788E-17	1.813304E-18
5.670000E+03	8.369475E-17	1.825426E-18
5.680000E+03	8.308300E-17	1.836268E-18
5.690000E+03	8.248514E-17	1.845817E-18
5.700000E+03	8.189833E-17	1.853957E-18
5.710000E+03	8.133549E-17	1.860939E-18
5.720000E+03	8.078836E-17	1.866544E-18
5.730000E+03	8.025916E-17	1.870801E-18
5.740000E+03	7.976028E-17	1.873985E-18
5.750000E+03	7.928334E-17	1.875896E-18
5.760000E+03	7.883527E-17	1.876696E-18
5.770000E+03	7.841774E-17	1.876427E-18
5.780000E+03	7.803224E-17	1.875133E-18
5.790000E+03	7.767520E-17	1.872737E-18
5.800000E+03	7.735288E-17	1.869400E-18
5.810000E+03	7.706641E-17	1.865160E-18
5.820000E+03	7.681675E-17	1.860054E-18
5.830000E+03	7.659979E-17	1.853993E-18
5.840000E+03	7.642608E-17	1.847244E-18
5.850000E+03	7.628628E-17	1.839593E-18
5.860000E+03	7.618569E-17	1.831177E-18
5.870000E+03	7.611962E-17	1.821895E-18
5.880000E+03	7.609794E-17	1.811992E-18
5.890000E+03	7.611073E-17	1.801241E-18
5.900000E+03	7.616262E-17	1.789764E-18
5.910000E+03	7.625321E-17	1.777560E-18
5.920000E+03	7.638189E-17	1.764629E-18
5.930000E+03	7.654298E-17	1.750857E-18
5.940000E+03	7.674544E-17	1.736468E-18
5.950000E+03	7.697826E-17	1.721238E-18
5.960000E+03	7.724517E-17	1.705283E-18
5.970000E+03	7.754472E-17	1.688612E-18
5.980000E+03	7.787534E-17	1.671242E-18
5.990000E+03	7.823022E-17	1.653092E-18
6.000000E+03	7.861243E-17	1.634308E-18
6.010000E+03	7.902498E-17	1.615050E-18
6.020000E+03	7.945543E-17	1.595180E-18
6.030000E+03	7.990642E-17	1.574898E-18
6.040000E+03	8.037018E-17	1.554223E-18
6.050000E+03	8.085429E-17	1.533508E-18
6.060000E+03	8.134545E-17	1.512736E-18
6.070000E+03	8.185105E-17	1.492327E-18
6.080000E+03	8.235736E-17	1.472347E-18
6.090000E+03	8.286628E-17	1.453200E-18
6.100000E+03	8.337434E-17	1.435238E-18
6.110000E+03	8.387253E-17	1.418766E-18
6.120000E+03	8.436800E-17	1.404407E-18
6.130000E+03	8.484607E-17	1.392456E-18
6.140000E+03	8.531387E-17	1.383601E-18
6.150000E+03	8.575648E-17	1.378182E-18
6.160000E+03	8.617550E-17	1.376810E-18
6.170000E+03	8.656704E-17	1.379982E-18
6.180000E+03	8.692733E-17	1.388156E-18
6.190000E+03	8.725268E-17	1.401721E-18
6.200000E+03	8.753396E-17	1.420805E-18
6.210000E+03	8.777933E-17	1.445428E-18
6.220000E+03	8.797452E-17	1.475091E-18
6.230000E+03	8.812850E-17	1.509592E-18
6.240000E+03	8.822788E-17	1.548292E-18
6.250000E+03	8.827706E-17	1.590806E-18
6.260000E+03	8.827529E-17	1.636637E-18
6.270000E+03	8.822242E-17	1.685284E-18
6.280000E+03	8.811879E-17	1.736261E-18
6.290000E+03	8.795940E-17	1.788978E-18
6.300000E+03	8.775678E-17	1.843221E-18
6.310000E+03	8.750079E-17	1.898335E-18
6.320000E+03	8.720432E-17	1.954176E-18
6.330000E+03	8.685761E-17	2.010138E-18
6.340000E+03	8.647375E-17	2.066152E-18
6.350000E+03	8.604328E-17	2.121660E-18
6.360000E+03	8.557380E-17	2.176526E-18
6.370000E+03	8.506730E-17	2.230516E-18
6.380000E+03	8.452580E-17	2.283418E-18
6.390000E+03	8.395136E-17	2.335048E-18
6.400000E+03	8.334606E-17	2.385245E-18
6.410000E+03	8.270654E-17	2.433709E-18
6.420000E+03	8.204576E-17	2.480638E-18
6.430000E+03	8.136034E-17	2.525777E-18
6.440000E+03	8.064703E-17	2.568874E-18
6.450000E+03	7.991848E-17	2.610198E-18
6.460000E+03	7.916614E-17	2.649360E-18
6.470000E+03	7.839725E-17	2.686491E-18
6.480000E+03	7.761889E-17	2.721750E-18
6.490000E+03	7.682265E-17	2.754769E-18
6.500000E+03	7.601555E-17	2.785726E-18
6.510000E+03	7.519936E-17	2.814632E-18
6.520000E+03	7.438079E-17	2.841695E-18
6.530000E+03	7.355165E-17	2.866570E-18
6.540000E+03	7.271858E-17	2.889482E-18
6.550000E+03	7.188320E-17	2.910475E-18
6.560000E+03	7.104237E-17	2.929406E-18
6.570000E+03	7.020708E-17	2.946720E-18
6.580000E+03	6.937403E-17	2.962286E-18
6.590000E+03	6.854466E-17	2.976173E-18
6.600000E+03	6.772035E-17	2.988453E-18
6.610000E+03	6.689795E-17	2.999002E-18
6.620000E+03	6.608771E-17	3.008298E-18
6.630000E+03	6.528635E-17	3.016224E-18
6.640000E+03	6.449075E-17	3.022665E-18
6.650000E+03	6.371067E-17	3.028108E-18
6.660000E+03	6.293868E-17	3.032239E-18
6.670000E+03	6.218422E-17	3.035552E-18
6.680000E+03	6.143996E-17	3.037732E-18
6.690000E+03	6.071508E-17	3.039276E-18
6.700000E+03	6.000232E-17	3.039868E-18
6.710000E+03	5.930660E-17	3.039802E-18
6.720000E+03	5.863268E-17	3.039374E-18
6.730000E+03	5.797342E-17	3.038265E-18
6.740000E+03	5.733349E-17	3.036768E-18
6.750000E+03	5.671357E-17	3.034971E-18
6.760000E+03	5.611805E-17	3.033164E-18
6.770000E+03	5.553996E-17	3.031025E-18
6.780000E+03	5.498363E-17	3.028840E-18
6.790000E+03	5.444961E-17	3.026691E-18
6.800000E+03	5.393835E-17	3.024658E-18
6.810000E+03	5.345030E-17	3.022817E-18
6.820000E+03	5.298586E-17	3.021244E-18
6.830000E+03	5.254540E-17	3.020011E-18
6.840000E+03	5.212927E-17	3.019190E-18
6.850000E+03	5.173778E-17	3.018849E-18
6.860000E+03	5.137119E-17	3.019052E-18
6.870000E+03	5.102977E-17	3.019864E-18
6.880000E+03	5.071373E-17	3.021345E-18
6.890000E+03	5.042326E-17	3.023553E-18
6.900000E+03	5.015515E-17	3.026339E-18
6.910000E+03	4.991634E-17	3.030167E-18
6.920000E+03	4.970354E-17	3.034881E-18
6.930000E+03	4.951685E-17	3.040530E-18
6.940000E+03	4.935298E-17	3.046954E-18
6.950000E+03	4.921870E-17	3.054608E-18
6.960000E+03	4.911067E-17	3.063328E-18
6.970000E+03	4.902557E-17	3.072942E-18
6.980000E+03	4.897004E-17	3.083904E-18
6.990000E+03	4.893737E-17	3.095829E-18
7.000000E+03	4.893416E-17	3.109167E-18
7.010000E+03	4.895365E-17	3.123526E-18
7.020000E+03	4.900239E-17	3.139357E-18
7.030000E+03	4.907355E-17	3.156254E-18
7.040000E+03	4.917030E-17	3.174455E-18
7.050000E+03	4.929579E-17	3.194194E-18
7.060000E+03	4.944306E-17	3.215053E-18
7.070000E+03	4.961519E-17	3.237262E-18
7.080000E+03	4.981189E-17	3.260833E-18
7.090000E+03	5.003282E-17	3.285774E-18
7.100000E+03	5.028101E-17	3.312316E-18
7.110000E+03	5.054918E-17	3.340011E-18
7.120000E+03	5.084027E-17	3.369082E-18
7.130000E+03	5.115376E-17	3.399528E-18
7.140000E+03	5.148908E-17	3.431341E-18
7.150000E+03	5.184203E-17	3.464273E-18
7.160000E+03	5.221901E-17	3.498784E-18
7.170000E+03	5.261575E-17	3.534624E-18
7.180000E+03	5.303143E-17	3.571771E-18
7.190000E+03	5.346146E-17	3.609952E-18
7.200000E+03	5.391226E-17	3.649636E-18
7.210000E+03	5.437912E-17	3.690544E-18
7.220000E+03	5.485717E-17	3.732383E-18
7.230000E+03	5.535277E-17	3.775627E-18
7.240000E+03	5.585704E-17	3.819712E-18
7.250000E+03	5.637245E-17	3.864850E-18
7.260000E+03	5.689756E-17	3.910986E-18
7.270000E+03	5.743488E-17	3.958341E-18
7.280000E+03	5.797487E-17	4.006305E-18
7.290000E+03	5.851986E-17	4.055088E-18
7.300000E+03	5.906807E-17	4.104616E-18
7.310000E+03	5.961774E-17	4.154819E-18
7.320000E+03	6.016275E-17	4.205323E-18
7.330000E+03	6.070952E-17	4.256630E-18
7.340000E+03	6.125188E-17	4.308363E-18
7.350000E+03	6.178778E-17	4.360433E-18
7.360000E+03	6.231070E-17	4.412434E-18
7.370000E+03	6.282278E-17	4.464570E-18
7.380000E+03	6.332626E-17	4.517056E-18
7.390000E+03	6.381005E-17	4.569155E-18
7.400000E+03	6.427631E-17	4.621073E-18
7.410000E+03	6.472277E-17	4.672694E-18
7.420000E+03	6.514719E-17	4.723906E-18
7.430000E+03	6.554728E-17	4.774586E-18
7.440000E+03	6.592083E-17	4.824616E-18
7.450000E+03	6.626563E-17	4.873869E-18
7.460000E+03	6.657479E-17	4.921871E-18
7.470000E+03	6.685564E-17	4.969188E-18
7.480000E+03	6.709668E-17	5.014987E-18
7.490000E+03	6.730545E-17	5.059846E-18
7.500000E+03	6.747058E-17	5.102918E-18
7.510000E+03	6.759511E-17	5.144429E-18
7.520000E+03	6.767745E-17	5.184248E-18
7.530000E+03	6.771621E-17	5.222223E-18
7.540000E+03	6.770535E-17	5.257803E-18
7.550000E+03	6.765361E-17	5.291570E-18
7.560000E+03	6.755551E-17	5.322996E-18
7.570000E+03	6.740588E-17	5.351564E-18
7.580000E+03	6.720964E-17	5.377539E-18
7.590000E+03	6.697211E-17	5.401228E-18
7.600000E+03	6.668463E-17	5.421811E-18
7.610000E+03	6.635332E-17	5.439646E-18
7.620000E+03	6.597463E-17	5.454307E-18
7.630000E+03	6.555893E-17	5.466514E-18
7.640000E+03	6.510216E-17	5.475798E-18
7.650000E+03	6.460068E-17	5.481708E-18
7.660000E+03	6.406518E-17	5.485009E-18
7.670000E+03	6.348808E-17	5.484916E-18
7.680000E+03	6.287607E-17	5.481859E-18
7.690000E+03	6.223132E-17	5.475893E-18
7.700000E+03	6.155613E-17	5.467089E-18
7.710000E+03	6.084848E-17	5.455133E-18
7.720000E+03	6.011963E-17	5.440908E-18
7.730000E+03	5.936319E-17	5.423723E-18
7.740000E+03	5.858591E-17	5.404075E-18
7.750000E+03	5.779430E-17	5.382459E-18
7.760000E+03	5.697789E-17	5.357802E-18
