#wls	flux	fluxerr
1.600000E+03	2.969856E-18	4.725208E-20
1.640000E+03	2.933478E-18	4.664609E-20
1.680000E+03	2.895837E-18	4.601998E-20
1.720000E+03	2.857459E-18	4.538215E-20
1.760000E+03	2.817360E-18	4.471702E-20
1.800000E+03	2.777056E-18	4.404871E-20
1.840000E+03	2.735110E-18	4.335446E-20
1.880000E+03	2.692538E-18	4.265044E-20
1.920000E+03	2.649377E-18	4.193727E-20
1.960000E+03	2.605218E-18	4.120853E-20
2.000000E+03	2.560144E-18	4.046558E-20
2.040000E+03	2.514681E-18	3.971678E-20
2.080000E+03	2.468479E-18	3.895667E-20
2.120000E+03	2.422070E-18	3.819367E-20
2.160000E+03	2.375145E-18	3.742296E-20
2.200000E+03	2.327843E-18	3.664678E-20
2.240000E+03	2.280708E-18	3.587373E-20
2.280000E+03	2.233876E-18	3.510597E-20
2.320000E+03	2.187128E-18	3.434009E-20
2.360000E+03	2.140656E-18	3.357913E-20
2.400000E+03	2.095023E-18	3.283194E-20
2.440000E+03	2.050425E-18	3.210158E-20
2.480000E+03	2.006738E-18	3.138610E-20
2.520000E+03	1.964545E-18	3.069463E-20
2.560000E+03	1.923775E-18	3.002598E-20
2.600000E+03	1.885035E-18	2.938960E-20
2.640000E+03	1.848306E-18	2.878513E-20
2.680000E+03	1.814228E-18	2.822247E-20
2.720000E+03	1.782851E-18	2.770224E-20
2.760000E+03	1.754861E-18	2.723502E-20
2.800000E+03	1.730390E-18	2.682267E-20
2.840000E+03	1.710198E-18	2.647677E-20
2.880000E+03	1.694807E-18	2.620518E-20
2.920000E+03	1.684537E-18	2.601257E-20
2.960000E+03	1.680344E-18	2.591337E-20
3.000000E+03	1.682744E-18	2.591515E-20
3.010000E+03	1.684479E-18	2.593294E-20
3.020000E+03	1.686697E-18	2.595810E-20
3.030000E+03	1.689417E-18	2.599091E-20
3.040000E+03	1.692655E-18	2.603160E-20
3.050000E+03	1.696699E-18	2.608462E-20
3.060000E+03	1.701027E-18	2.614191E-20
3.070000E+03	1.705929E-18	2.620792E-20
3.080000E+03	1.711698E-18	2.628715E-20
3.090000E+03	1.717809E-18	2.637151E-20
3.100000E+03	1.724559E-18	2.646555E-20
3.110000E+03	1.732244E-18	2.657384E-20
3.120000E+03	1.740340E-18	2.668827E-20
3.130000E+03	1.749424E-18	2.681773E-20
3.140000E+03	1.758968E-18	2.695407E-20
3.150000E+03	1.769557E-18	2.710628E-20
3.160000E+03	1.780944E-18	2.727052E-20
3.170000E+03	1.792874E-18	2.744290E-20
3.180000E+03	1.805948E-18	2.763259E-20
3.190000E+03	1.819916E-18	2.783575E-20
3.200000E+03	1.834524E-18	2.804849E-20
3.210000E+03	1.850388E-18	2.828021E-20
3.220000E+03	1.867259E-18	2.852707E-20
3.230000E+03	1.885180E-18	2.878970E-20
3.240000E+03	1.903894E-18	2.906418E-20
3.250000E+03	1.924042E-18	2.936027E-20
3.260000E+03	1.945377E-18	2.967418E-20
3.270000E+03	1.967949E-18	3.000663E-20
3.280000E+03	1.991814E-18	3.035844E-20
3.290000E+03	2.017025E-18	3.073043E-20
3.300000E+03	2.043642E-18	3.112347E-20
3.310000E+03	2.071728E-18	3.153848E-20
3.320000E+03	2.101349E-18	3.197645E-20
3.330000E+03	2.132572E-18	3.243837E-20
3.340000E+03	2.165473E-18	3.292534E-20
3.350000E+03	2.200126E-18	3.343848E-20
3.360000E+03	2.236615E-18	3.397899E-20
3.370000E+03	2.275374E-18	3.455347E-20
3.380000E+03	2.315795E-18	3.515263E-20
3.390000E+03	2.358320E-18	3.578313E-20
3.400000E+03	2.403048E-18	3.644642E-20
3.410000E+03	2.450462E-18	3.714979E-20
3.420000E+03	2.499924E-18	3.788353E-20
3.430000E+03	2.551920E-18	3.865494E-20
3.440000E+03	2.606574E-18	3.946584E-20
3.450000E+03	2.664424E-18	4.032433E-20
3.460000E+03	2.724796E-18	4.122013E-20
3.470000E+03	2.788661E-18	4.216788E-20
3.480000E+03	2.855325E-18	4.315701E-20
3.490000E+03	2.925364E-18	4.419618E-20
3.500000E+03	2.999403E-18	4.529471E-20
3.510000E+03	3.076712E-18	4.644156E-20
3.520000E+03	3.158406E-18	4.765342E-20
3.530000E+03	3.243726E-18	4.891877E-20
3.540000E+03	3.333853E-18	5.025535E-20
3.550000E+03	3.428521E-18	5.165903E-20
3.560000E+03	3.527423E-18	5.312508E-20
3.570000E+03	3.631850E-18	5.467284E-20
3.580000E+03	3.740965E-18	5.628961E-20
3.590000E+03	3.856146E-18	5.799600E-20
3.600000E+03	3.977116E-18	5.978770E-20
3.610000E+03	4.103544E-18	6.165963E-20
3.620000E+03	4.236947E-18	6.363443E-20
3.630000E+03	4.376384E-18	6.569781E-20
3.640000E+03	4.523476E-18	6.787398E-20
3.650000E+03	4.677931E-18	7.015835E-20
3.660000E+03	4.840104E-18	7.255611E-20
3.670000E+03	5.009622E-18	7.506148E-20
3.680000E+03	5.188348E-18	7.770217E-20
3.690000E+03	5.375961E-18	8.047320E-20
3.700000E+03	5.572884E-18	8.338066E-20
3.710000E+03	5.778697E-18	8.641806E-20
3.720000E+03	5.995543E-18	8.961723E-20
3.730000E+03	6.223067E-18	9.297260E-20
3.740000E+03	6.461755E-18	9.649119E-20
3.750000E+03	6.712115E-18	1.001803E-19
3.760000E+03	6.973638E-18	1.040321E-19
3.770000E+03	7.248891E-18	1.080845E-19
3.780000E+03	7.537433E-18	1.123307E-19
3.790000E+03	7.839838E-18	1.167789E-19
3.800000E+03	8.156693E-18	1.214375E-19
3.810000E+03	8.487352E-18	1.262966E-19
3.820000E+03	8.834880E-18	1.314013E-19
3.830000E+03	9.198706E-18	1.367429E-19
3.840000E+03	9.579469E-18	1.423303E-19
3.850000E+03	9.977823E-18	1.481729E-19
3.860000E+03	1.039443E-17	1.542801E-19
3.870000E+03	1.082995E-17	1.606613E-19
3.880000E+03	1.128342E-17	1.673017E-19
3.890000E+03	1.175873E-17	1.742584E-19
3.900000E+03	1.225500E-17	1.815179E-19
3.910000E+03	1.277288E-17	1.890894E-19
3.920000E+03	1.331304E-17	1.969822E-19
3.930000E+03	1.387616E-17	2.052057E-19
3.940000E+03	1.446287E-17	2.137688E-19
3.950000E+03	1.507164E-17	2.226482E-19
3.960000E+03	1.570735E-17	2.319155E-19
3.970000E+03	1.636851E-17	2.415478E-19
3.980000E+03	1.705566E-17	2.515528E-19
3.990000E+03	1.776934E-17	2.619374E-19
4.000000E+03	1.851004E-17	2.727083E-19
4.010000E+03	1.927543E-17	2.838306E-19
4.020000E+03	2.007134E-17	2.953893E-19
4.030000E+03	2.089545E-17	3.073496E-19
4.040000E+03	2.174802E-17	3.197147E-19
4.050000E+03	2.262927E-17	3.324868E-19
4.060000E+03	2.353596E-17	3.456177E-19
4.070000E+03	2.447473E-17	3.592043E-19
4.080000E+03	2.544232E-17	3.731978E-19
4.090000E+03	2.643856E-17	3.875951E-19
4.100000E+03	2.745931E-17	4.023347E-19
4.110000E+03	2.851190E-17	4.175232E-19
4.120000E+03	2.959208E-17	4.330977E-19
4.130000E+03	3.069489E-17	4.489848E-19
4.140000E+03	3.182817E-17	4.652986E-19
4.150000E+03	3.298683E-17	4.819639E-19
4.160000E+03	3.416504E-17	4.988949E-19
4.170000E+03	3.537115E-17	5.162128E-19
4.180000E+03	3.659916E-17	5.338295E-19
4.190000E+03	3.784228E-17	5.516453E-19
4.200000E+03	3.910939E-17	5.697892E-19
4.210000E+03	4.038784E-17	5.880763E-19
4.220000E+03	4.168688E-17	6.066411E-19
4.230000E+03	4.299287E-17	6.252842E-19
4.240000E+03	4.431544E-17	6.441458E-19
4.250000E+03	4.563992E-17	6.630122E-19
4.260000E+03	4.697638E-17	6.820294E-19
4.270000E+03	4.830914E-17	7.009695E-19
4.280000E+03	4.964876E-17	7.199859E-19
4.290000E+03	5.097859E-17	7.388369E-19
4.300000E+03	5.230240E-17	7.575776E-19
4.310000E+03	5.362461E-17	7.762716E-19
4.320000E+03	5.492733E-17	7.946607E-19
4.330000E+03	5.621474E-17	8.128053E-19
4.340000E+03	5.748371E-17	8.306610E-19
4.350000E+03	5.873937E-17	8.483020E-19
4.360000E+03	5.996257E-17	8.654522E-19
4.370000E+03	6.115844E-17	8.821867E-19
4.380000E+03	6.232425E-17	8.984666E-19
4.390000E+03	6.345745E-17	9.142562E-19
4.400000E+03	6.455569E-17	9.295223E-19
4.410000E+03	6.561682E-17	9.442348E-19
4.420000E+03	6.663896E-17	9.583678E-19
4.430000E+03	6.762046E-17	9.718986E-19
4.440000E+03	6.855990E-17	9.848079E-19
4.450000E+03	6.945615E-17	9.970805E-19
4.460000E+03	7.030833E-17	1.008705E-18
4.470000E+03	7.111577E-17	1.019673E-18
4.480000E+03	7.187805E-17	1.029979E-18
4.490000E+03	7.259501E-17	1.039623E-18
4.500000E+03	7.325660E-17	1.048461E-18
4.510000E+03	7.388302E-17	1.056786E-18
4.520000E+03	7.446473E-17	1.064459E-18
4.530000E+03	7.500228E-17	1.071492E-18
4.540000E+03	7.548608E-17	1.077748E-18
4.550000E+03	7.593753E-17	1.083534E-18
4.560000E+03	7.633697E-17	1.088570E-18
4.570000E+03	7.670621E-17	1.093170E-18
4.580000E+03	7.702562E-17	1.097053E-18
4.590000E+03	7.731739E-17	1.100537E-18
4.600000E+03	7.756188E-17	1.103344E-18
4.610000E+03	7.777098E-17	1.105644E-18
4.620000E+03	7.795673E-17	1.107609E-18
4.630000E+03	7.809950E-17	1.108961E-18
4.640000E+03	7.821140E-17	1.109873E-18
4.650000E+03	7.829398E-17	1.110368E-18
4.660000E+03	7.835939E-17	1.110618E-18
4.670000E+03	7.838805E-17	1.110347E-18
4.680000E+03	7.839215E-17	1.109729E-18
4.690000E+03	7.837322E-17	1.108786E-18
4.700000E+03	7.833285E-17	1.107540E-18
4.710000E+03	7.827259E-17	1.106015E-18
4.720000E+03	7.819394E-17	1.104233E-18
4.730000E+03	7.809841E-17	1.102214E-18
4.740000E+03	7.797699E-17	1.099833E-18
4.750000E+03	7.785205E-17	1.097406E-18
4.760000E+03	7.771451E-17	1.094805E-18
4.770000E+03	7.756571E-17	1.092048E-18
4.780000E+03	7.739660E-17	1.089010E-18
4.790000E+03	7.722915E-17	1.085999E-18
4.800000E+03	7.704395E-17	1.082743E-18
4.810000E+03	7.686272E-17	1.079547E-18
4.820000E+03	7.666606E-17	1.076139E-18
4.830000E+03	7.647550E-17	1.072822E-18
4.840000E+03	7.627164E-17	1.069324E-18
4.850000E+03	7.606567E-17	1.065800E-18
4.860000E+03	7.586856E-17	1.062407E-18
4.870000E+03	7.566099E-17	1.058872E-18
4.880000E+03	7.545386E-17	1.055348E-18
4.890000E+03	7.524794E-17	1.051847E-18
4.900000E+03	7.504391E-17	1.048378E-18
4.910000E+03	7.484243E-17	1.044950E-18
4.920000E+03	7.464410E-17	1.041572E-18
4.930000E+03	7.444946E-17	1.038250E-18
4.940000E+03	7.425901E-17	1.034992E-18
4.950000E+03	7.407321E-17	1.031805E-18
4.960000E+03	7.389246E-17	1.028693E-18
4.970000E+03	7.370738E-17	1.025527E-18
4.980000E+03	7.353778E-17	1.022582E-18
4.990000E+03	7.337415E-17	1.019725E-18
5.000000E+03	7.320709E-17	1.016825E-18
5.010000E+03	7.305607E-17	1.014154E-18
5.020000E+03	7.290199E-17	1.011446E-18
5.030000E+03	7.276414E-17	1.008968E-18
5.040000E+03	7.262342E-17	1.006456E-18
5.050000E+03	7.249896E-17	1.004175E-18
5.060000E+03	7.237168E-17	1.001859E-18
5.070000E+03	7.225106E-17	9.996410E-19
5.080000E+03	7.213702E-17	9.975190E-19
5.090000E+03	7.203886E-17	9.956219E-19
5.100000E+03	7.193753E-17	9.936860E-19
5.110000E+03	7.184231E-17	9.918396E-19
5.120000E+03	7.175298E-17	9.900796E-19
5.130000E+03	7.166928E-17	9.884025E-19
5.140000E+03	7.159097E-17	9.868047E-19
5.150000E+03	7.150838E-17	9.851532E-19
5.160000E+03	7.143991E-17	9.837014E-19
5.170000E+03	7.137586E-17	9.823155E-19
5.180000E+03	7.131587E-17	9.809908E-19
5.190000E+03	7.125029E-17	9.795942E-19
5.200000E+03	7.119730E-17	9.783761E-19
5.210000E+03	7.113795E-17	9.770759E-19
5.220000E+03	7.109037E-17	9.759428E-19
5.230000E+03	7.103563E-17	9.747167E-19
5.240000E+03	7.099180E-17	9.736458E-19
5.250000E+03	7.093998E-17	9.724709E-19
5.260000E+03	7.089821E-17	9.714395E-19
5.270000E+03	7.084766E-17	9.702933E-19
5.280000E+03	7.079713E-17	9.691533E-19
5.290000E+03	7.074623E-17	9.680142E-19
5.300000E+03	7.069459E-17	9.668708E-19
5.310000E+03	7.064184E-17	9.657186E-19
5.320000E+03	7.058764E-17	9.645527E-19
5.330000E+03	7.053170E-17	9.633693E-19
5.340000E+03	7.047371E-17	9.621646E-19
5.350000E+03	7.041344E-17	9.609351E-19
5.360000E+03	7.035065E-17	9.596780E-19
5.370000E+03	7.028517E-17	9.583909E-19
5.380000E+03	7.020776E-17	9.569482E-19
5.390000E+03	7.013649E-17	9.555962E-19
5.400000E+03	7.006219E-17	9.542101E-19
5.410000E+03	6.997578E-17	9.526665E-19
5.420000E+03	6.989537E-17	9.512119E-19
5.430000E+03	6.980291E-17	9.496008E-19
5.440000E+03	6.971650E-17	9.480798E-19
5.450000E+03	6.961822E-17	9.464051E-19
5.460000E+03	6.952615E-17	9.448227E-19
5.470000E+03	6.942245E-17	9.430902E-19
5.480000E+03	6.931619E-17	9.413308E-19
5.490000E+03	6.920740E-17	9.395454E-19
5.500000E+03	6.910499E-17	9.378543E-19
5.510000E+03	6.899104E-17	9.360146E-19
5.520000E+03	6.887431E-17	9.341453E-19
5.530000E+03	6.875460E-17	9.322436E-19
5.540000E+03	6.863175E-17	9.303073E-19
5.550000E+03	6.850554E-17	9.283335E-19
5.560000E+03	6.837582E-17	9.263202E-19
5.570000E+03	6.823368E-17	9.241467E-19
5.580000E+03	6.809658E-17	9.220494E-19
5.590000E+03	6.795564E-17	9.199082E-19
5.600000E+03	6.781082E-17	9.177224E-19
5.610000E+03	6.765343E-17	9.153746E-19
5.620000E+03	6.750088E-17	9.131004E-19
5.630000E+03	6.734456E-17	9.107831E-19
5.640000E+03	6.717590E-17	9.083070E-19
5.650000E+03	6.701234E-17	9.059078E-19
5.660000E+03	6.683677E-17	9.033543E-19
5.670000E+03	6.665802E-17	9.007657E-19
5.680000E+03	6.648482E-17	8.982601E-19
5.690000E+03	6.630028E-17	8.956093E-19
5.700000E+03	6.611321E-17	8.929321E-19
5.710000E+03	6.593229E-17	8.903460E-19
5.720000E+03	6.574084E-17	8.876255E-19
5.730000E+03	6.554759E-17	8.848884E-19
5.740000E+03	6.535278E-17	8.821382E-19
5.750000E+03	6.515666E-17	8.793780E-19
5.760000E+03	6.495947E-17	8.766111E-19
5.770000E+03	6.476142E-17	8.738403E-19
5.780000E+03	6.456273E-17	8.710685E-19
5.790000E+03	6.436360E-17	8.682984E-19
5.800000E+03	6.416421E-17	8.655323E-19
5.810000E+03	6.396470E-17	8.627721E-19
5.820000E+03	6.376523E-17	8.600200E-19
5.830000E+03	6.356589E-17	8.572771E-19
5.840000E+03	6.335866E-17	8.544352E-19
5.850000E+03	6.315987E-17	8.517144E-19
5.860000E+03	6.296138E-17	8.490052E-19
5.870000E+03	6.275518E-17	8.461992E-19
5.880000E+03	6.255736E-17	8.435133E-19
5.890000E+03	6.235180E-17	8.407305E-19
5.900000E+03	6.215442E-17	8.380650E-19
5.910000E+03	6.194919E-17	8.353008E-19
5.920000E+03	6.175185E-17	8.326501E-19
5.930000E+03	6.154640E-17	8.298972E-19
5.940000E+03	6.134848E-17	8.272526E-19
5.950000E+03	6.114210E-17	8.245012E-19
5.960000E+03	6.093496E-17	8.217462E-19
5.970000E+03	6.073454E-17	8.190889E-19
5.980000E+03	6.052503E-17	8.163158E-19
5.990000E+03	6.031395E-17	8.135283E-19
6.000000E+03	6.010099E-17	8.107222E-19
6.010000E+03	5.988585E-17	8.078933E-19
6.020000E+03	5.966820E-17	8.050372E-19
6.030000E+03	5.945533E-17	8.022523E-19
6.040000E+03	5.923168E-17	7.993284E-19
6.050000E+03	5.900452E-17	7.963638E-19
6.060000E+03	5.877356E-17	7.933542E-19
6.070000E+03	5.853846E-17	7.902949E-19
6.080000E+03	5.829144E-17	7.870812E-19
6.090000E+03	5.804716E-17	7.839105E-19
6.100000E+03	5.779781E-17	7.806776E-19
6.110000E+03	5.754313E-17	7.773787E-19
6.120000E+03	5.728287E-17	7.740102E-19
6.130000E+03	5.701676E-17	7.705687E-19
6.140000E+03	5.673737E-17	7.669533E-19
6.150000E+03	5.645903E-17	7.633578E-19
6.160000E+03	5.617430E-17	7.596815E-19
6.170000E+03	5.587591E-17	7.558255E-19
6.180000E+03	5.557813E-17	7.519828E-19
6.190000E+03	5.526665E-17	7.479593E-19
6.200000E+03	5.495567E-17	7.439471E-19
6.210000E+03	5.463812E-17	7.398501E-19
6.220000E+03	5.430715E-17	7.355754E-19
6.230000E+03	5.397682E-17	7.313131E-19
6.240000E+03	5.363336E-17	7.268763E-19
6.250000E+03	5.328379E-17	7.223600E-19
6.260000E+03	5.293489E-17	7.178555E-19
6.270000E+03	5.257302E-17	7.131780E-19
6.280000E+03	5.220503E-17	7.084197E-19
6.290000E+03	5.183758E-17	7.036711E-19
6.300000E+03	5.145744E-17	6.987521E-19
6.310000E+03	5.107145E-17	6.937551E-19
6.320000E+03	5.068625E-17	6.887705E-19
6.330000E+03	5.028907E-17	6.836240E-19
6.340000E+03	4.988669E-17	6.784079E-19
6.350000E+03	4.947940E-17	6.731257E-19
6.360000E+03	4.906756E-17	6.677819E-19
6.370000E+03	4.865150E-17	6.623807E-19
6.380000E+03	4.823160E-17	6.569273E-19
6.390000E+03	4.781439E-17	6.515101E-19
6.400000E+03	4.738795E-17	6.459668E-19
6.410000E+03	4.695892E-17	6.403873E-19
6.420000E+03	4.652772E-17	6.347774E-19
6.430000E+03	4.609481E-17	6.291429E-19
6.440000E+03	4.565479E-17	6.234099E-19
6.450000E+03	4.521987E-17	6.177452E-19
6.460000E+03	4.478465E-17	6.120744E-19
6.470000E+03	4.434956E-17	6.064037E-19
6.480000E+03	4.391509E-17	6.007394E-19
6.490000E+03	4.348168E-17	5.950873E-19
6.500000E+03	4.304981E-17	5.894540E-19
6.510000E+03	4.261445E-17	5.837704E-19
6.520000E+03	4.218704E-17	5.781931E-19
6.530000E+03	4.176251E-17	5.726524E-19
6.540000E+03	4.134125E-17	5.671538E-19
6.550000E+03	4.091845E-17	5.616312E-19
6.560000E+03	4.050505E-17	5.562345E-19
6.570000E+03	4.009614E-17	5.508964E-19
6.580000E+03	3.968699E-17	5.455519E-19
6.590000E+03	3.928822E-17	5.403467E-19
6.600000E+03	3.889500E-17	5.352148E-19
6.610000E+03	3.850273E-17	5.300924E-19
6.620000E+03	3.812166E-17	5.251209E-19
6.630000E+03	3.774221E-17	5.201685E-19
6.640000E+03	3.737447E-17	5.153739E-19
6.650000E+03	3.700900E-17	5.106073E-19
6.660000E+03	3.665562E-17	5.060042E-19
6.670000E+03	3.630509E-17	5.014370E-19
6.680000E+03	3.596702E-17	4.970385E-19
6.690000E+03	3.563230E-17	4.926828E-19
6.700000E+03	3.530579E-17	4.884376E-19
6.710000E+03	3.499217E-17	4.843672E-19
6.720000E+03	3.468254E-17	4.803489E-19
6.730000E+03	3.438159E-17	4.764475E-19
6.740000E+03	3.409385E-17	4.727261E-19
6.750000E+03	3.381058E-17	4.690637E-19
6.760000E+03	3.353635E-17	4.655236E-19
6.770000E+03	3.327552E-17	4.621667E-19
6.780000E+03	3.301957E-17	4.588745E-19
6.790000E+03	3.277287E-17	4.557082E-19
6.800000E+03	3.253548E-17	4.526688E-19
6.810000E+03	3.230746E-17	4.497569E-19
6.820000E+03	3.208883E-17	4.469733E-19
6.830000E+03	3.188373E-17	4.443758E-19
6.840000E+03	3.168393E-17	4.418499E-19
6.850000E+03	3.149357E-17	4.394534E-19
6.860000E+03	3.131265E-17	4.371863E-19
6.870000E+03	3.114115E-17	4.350489E-19
6.880000E+03	3.097904E-17	4.330408E-19
6.890000E+03	3.082631E-17	4.311620E-19
6.900000E+03	3.068293E-17	4.294122E-19
6.910000E+03	3.054884E-17	4.277909E-19
6.920000E+03	3.042397E-17	4.262973E-19
6.930000E+03	3.030829E-17	4.249312E-19
6.940000E+03	3.020171E-17	4.236913E-19
6.950000E+03	3.010416E-17	4.225772E-19
6.960000E+03	3.001557E-17	4.215877E-19
6.970000E+03	2.993582E-17	4.207216E-19
6.980000E+03	2.986096E-17	4.199234E-19
6.990000E+03	2.979862E-17	4.193007E-19
7.000000E+03	2.974480E-17	4.187974E-19
7.010000E+03	2.969941E-17	4.184123E-19
7.020000E+03	2.966226E-17	4.181431E-19
7.030000E+03	2.962941E-17	4.179343E-19
7.040000E+03	2.960838E-17	4.178921E-19
7.050000E+03	2.959517E-17	4.179604E-19
7.060000E+03	2.958962E-17	4.181370E-19
7.070000E+03	2.958767E-17	4.183648E-19
7.080000E+03	2.959686E-17	4.187504E-19
7.090000E+03	2.961312E-17	4.192365E-19
7.100000E+03	2.963239E-17	4.197659E-19
7.110000E+03	2.966215E-17	4.204445E-19
7.120000E+03	2.969833E-17	4.212148E-19
7.130000E+03	2.973677E-17	4.220181E-19
7.140000E+03	2.978500E-17	4.229611E-19
7.150000E+03	2.983495E-17	4.239297E-19
7.160000E+03	2.989413E-17	4.250304E-19
7.170000E+03	2.995444E-17	4.261483E-19
7.180000E+03	3.002338E-17	4.273901E-19
7.190000E+03	3.009277E-17	4.286397E-19
7.200000E+03	3.017013E-17	4.300043E-19
7.210000E+03	3.024723E-17	4.313663E-19
7.220000E+03	3.032763E-17	4.327768E-19
7.230000E+03	3.041489E-17	4.342867E-19
7.240000E+03	3.050069E-17	4.357772E-19
7.250000E+03	3.058855E-17	4.372986E-19
7.260000E+03	3.068206E-17	4.389022E-19
7.270000E+03	3.077272E-17	4.404667E-19
7.280000E+03	3.086409E-17	4.420426E-19
7.290000E+03	3.095973E-17	4.436813E-19
7.300000E+03	3.105104E-17	4.452594E-19
7.310000E+03	3.114153E-17	4.468273E-19
7.320000E+03	3.123068E-17	4.483772E-19
7.330000E+03	3.131794E-17	4.499014E-19
7.340000E+03	3.140689E-17	4.514510E-19
7.350000E+03	3.148871E-17	4.528995E-19
7.360000E+03	3.156693E-17	4.542974E-19
7.370000E+03	3.164096E-17	4.556360E-19
7.380000E+03	3.171020E-17	4.569066E-19
7.390000E+03	3.177406E-17	4.581005E-19
7.400000E+03	3.183191E-17	4.592085E-19
7.410000E+03	3.188315E-17	4.602217E-19
7.420000E+03	3.192716E-17	4.611312E-19
7.430000E+03	3.196336E-17	4.619281E-19
7.440000E+03	3.199112E-17	4.626032E-19
7.450000E+03	3.200985E-17	4.631478E-19
7.460000E+03	3.201898E-17	4.635533E-19
7.470000E+03	3.201796E-17	4.638114E-19
7.480000E+03	3.200622E-17	4.639138E-19
7.490000E+03	3.198326E-17	4.638528E-19
7.500000E+03	3.194437E-17	4.635598E-19
7.510000E+03	3.189754E-17	4.631504E-19
7.520000E+03	3.183813E-17	4.625570E-19
7.530000E+03	3.176578E-17	4.617740E-19
7.540000E+03	3.167595E-17	4.607350E-19
7.550000E+03	3.157680E-17	4.595583E-19
7.560000E+03	3.146389E-17	4.581791E-19
7.570000E+03	3.133708E-17	4.565950E-19
7.580000E+03	3.119214E-17	4.547438E-19
7.590000E+03	3.103735E-17	4.527461E-19
7.600000E+03	3.086450E-17	4.504817E-19
7.610000E+03	3.068193E-17	4.480718E-19
7.620000E+03	3.048572E-17	4.454590E-19
7.630000E+03	3.027208E-17	4.425876E-19
7.640000E+03	3.004942E-17	4.395801E-19
7.650000E+03	2.981011E-17	4.363247E-19
7.660000E+03	2.956254E-17	4.329438E-19
7.670000E+03	2.929930E-17	4.293287E-19
7.680000E+03	2.902493E-17	4.255454E-19
7.690000E+03	2.874380E-17	4.216580E-19
7.700000E+03	2.844886E-17	4.175627E-19
7.710000E+03	2.814837E-17	4.133805E-19
7.720000E+03	2.783544E-17	4.090099E-19
7.730000E+03	2.751455E-17	4.045169E-19
7.740000E+03	2.718639E-17	3.999109E-19
7.750000E+03	2.685523E-17	3.952551E-19
7.760000E+03	2.651456E-17	3.904533E-19
