#wls	flux	fluxerr
1.600000E+03	3.287472E-17	1.413123E-18
1.640000E+03	3.299817E-17	1.416103E-18
1.680000E+03	3.319234E-17	1.422040E-18
1.720000E+03	3.344654E-17	1.430460E-18
1.760000E+03	3.376319E-17	1.441450E-18
1.800000E+03	3.417115E-17	1.456223E-18
1.840000E+03	3.464761E-17	1.473785E-18
1.880000E+03	3.520922E-17	1.494823E-18
1.920000E+03	3.586001E-17	1.519482E-18
1.960000E+03	3.661792E-17	1.548495E-18
2.000000E+03	3.748813E-17	1.582047E-18
2.040000E+03	3.846230E-17	1.619752E-18
2.080000E+03	3.955982E-17	1.662390E-18
2.120000E+03	4.080110E-17	1.710776E-18
2.160000E+03	4.216382E-17	1.763929E-18
2.200000E+03	4.369796E-17	1.823888E-18
2.240000E+03	4.538088E-17	1.889653E-18
2.280000E+03	4.723371E-17	1.962045E-18
2.320000E+03	4.926265E-17	2.041256E-18
2.360000E+03	5.148939E-17	2.128114E-18
2.400000E+03	5.391993E-17	2.222789E-18
2.440000E+03	5.654273E-17	2.324724E-18
2.480000E+03	5.939561E-17	2.435387E-18
2.520000E+03	6.246591E-17	2.554164E-18
2.560000E+03	6.579282E-17	2.682555E-18
2.600000E+03	6.938145E-17	2.820657E-18
2.640000E+03	7.323671E-17	2.968548E-18
2.680000E+03	7.740219E-17	3.127867E-18
2.720000E+03	8.188589E-17	3.298790E-18
2.760000E+03	8.671677E-17	3.482330E-18
2.800000E+03	9.194742E-17	3.680423E-18
2.840000E+03	9.759359E-17	3.893505E-18
2.880000E+03	1.037376E-16	4.124644E-18
2.920000E+03	1.103825E-16	4.373713E-18
2.960000E+03	1.176443E-16	4.645043E-18
3.000000E+03	1.255821E-16	4.940647E-18
3.010000E+03	1.276799E-16	5.018603E-18
3.020000E+03	1.298406E-16	5.098860E-18
3.030000E+03	1.320420E-16	5.180541E-18
3.040000E+03	1.342848E-16	5.263666E-18
3.050000E+03	1.365930E-16	5.349172E-18
3.060000E+03	1.389679E-16	5.437095E-18
3.070000E+03	1.413867E-16	5.526542E-18
3.080000E+03	1.438741E-16	5.618468E-18
3.090000E+03	1.464311E-16	5.712906E-18
3.100000E+03	1.490352E-16	5.808968E-18
3.110000E+03	1.517110E-16	5.907606E-18
3.120000E+03	1.544841E-16	6.009806E-18
3.130000E+03	1.573075E-16	6.113735E-18
3.140000E+03	1.602067E-16	6.220369E-18
3.150000E+03	1.631828E-16	6.329744E-18
3.160000E+03	1.662374E-16	6.441912E-18
3.170000E+03	1.693719E-16	6.556917E-18
3.180000E+03	1.726126E-16	6.675764E-18
3.190000E+03	1.759364E-16	6.797549E-18
3.200000E+03	1.793448E-16	6.922321E-18
3.210000E+03	1.828395E-16	7.050129E-18
3.220000E+03	1.864475E-16	7.182006E-18
3.230000E+03	1.901708E-16	7.318009E-18
3.240000E+03	1.939860E-16	7.457232E-18
3.250000E+03	1.978948E-16	7.599720E-18
3.260000E+03	2.019509E-16	7.747525E-18
3.270000E+03	2.061049E-16	7.898731E-18
3.280000E+03	2.103848E-16	8.054403E-18
3.290000E+03	2.147669E-16	8.213611E-18
3.300000E+03	2.193060E-16	8.378440E-18
3.310000E+03	2.239785E-16	8.547965E-18
3.320000E+03	2.287871E-16	8.722272E-18
3.330000E+03	2.337613E-16	8.902466E-18
3.340000E+03	2.388501E-16	9.086588E-18
3.350000E+03	2.441102E-16	9.276775E-18
3.360000E+03	2.495451E-16	9.473133E-18
3.370000E+03	2.551305E-16	9.674724E-18
3.380000E+03	2.608695E-16	9.881639E-18
3.390000E+03	2.668209E-16	1.009609E-17
3.400000E+03	2.729326E-16	1.031607E-17
3.410000E+03	2.792645E-16	1.054382E-17
3.420000E+03	2.857637E-16	1.077732E-17
3.430000E+03	2.924911E-16	1.101883E-17
3.440000E+03	2.994222E-16	1.126742E-17
3.450000E+03	3.065611E-16	1.152319E-17
3.460000E+03	3.139408E-16	1.178737E-17
3.470000E+03	3.215370E-16	1.205901E-17
3.480000E+03	3.293833E-16	1.233933E-17
3.490000E+03	3.374846E-16	1.262849E-17
3.500000E+03	3.458457E-16	1.292663E-17
3.510000E+03	3.545018E-16	1.323502E-17
3.520000E+03	3.633980E-16	1.355159E-17
3.530000E+03	3.725998E-16	1.387873E-17
3.540000E+03	3.820821E-16	1.421548E-17
3.550000E+03	3.918811E-16	1.456313E-17
3.560000E+03	4.020025E-16	1.492185E-17
3.570000E+03	4.124210E-16	1.529066E-17
3.580000E+03	4.232045E-16	1.567204E-17
3.590000E+03	4.343278E-16	1.606500E-17
3.600000E+03	4.457966E-16	1.646970E-17
3.610000E+03	4.576486E-16	1.688749E-17
3.620000E+03	4.698574E-16	1.731734E-17
3.630000E+03	4.824611E-16	1.776059E-17
3.640000E+03	4.954654E-16	1.821742E-17
3.650000E+03	5.088757E-16	1.868795E-17
3.660000E+03	5.226973E-16	1.917232E-17
3.670000E+03	5.369688E-16	1.967189E-17
3.680000E+03	5.516613E-16	2.018554E-17
3.690000E+03	5.668131E-16	2.071461E-17
3.700000E+03	5.824283E-16	2.125918E-17
3.710000E+03	5.984760E-16	2.181806E-17
3.720000E+03	6.150280E-16	2.239380E-17
3.730000E+03	6.320520E-16	2.298516E-17
3.740000E+03	6.495496E-16	2.359212E-17
3.750000E+03	6.675566E-16	2.421592E-17
3.760000E+03	6.860734E-16	2.485650E-17
3.770000E+03	7.050989E-16	2.551374E-17
3.780000E+03	7.245947E-16	2.618619E-17
3.790000E+03	7.446300E-16	2.687627E-17
3.800000E+03	7.651271E-16	2.758111E-17
3.810000E+03	7.861904E-16	2.830439E-17
3.820000E+03	8.077391E-16	2.904313E-17
3.830000E+03	8.297640E-16	2.979694E-17
3.840000E+03	8.522921E-16	3.056670E-17
3.850000E+03	8.753498E-16	3.135329E-17
3.860000E+03	8.988476E-16	3.215344E-17
3.870000E+03	9.228083E-16	3.296789E-17
3.880000E+03	9.472530E-16	3.379733E-17
3.890000E+03	9.721261E-16	3.463970E-17
3.900000E+03	9.974459E-16	3.549561E-17
3.910000E+03	1.023152E-15	3.636281E-17
3.920000E+03	1.049259E-15	3.724182E-17
3.930000E+03	1.075745E-15	3.813176E-17
3.940000E+03	1.102583E-15	3.903164E-17
3.950000E+03	1.129707E-15	3.993905E-17
3.960000E+03	1.157130E-15	4.085442E-17
3.970000E+03	1.184863E-15	4.177811E-17
3.980000E+03	1.212798E-15	4.270627E-17
3.990000E+03	1.240986E-15	4.364065E-17
4.000000E+03	1.269319E-15	4.457742E-17
4.010000E+03	1.297850E-15	4.551842E-17
4.020000E+03	1.326511E-15	4.646124E-17
4.030000E+03	1.355276E-15	4.740499E-17
4.040000E+03	1.384120E-15	4.834872E-17
4.050000E+03	1.412980E-15	4.929023E-17
4.060000E+03	1.441915E-15	5.023165E-17
4.070000E+03	1.470869E-15	5.117093E-17
4.080000E+03	1.499783E-15	5.210606E-17
4.090000E+03	1.528684E-15	5.303802E-17
4.100000E+03	1.557564E-15	5.396648E-17
4.110000E+03	1.586334E-15	5.488839E-17
4.120000E+03	1.615074E-15	5.580650E-17
4.130000E+03	1.643741E-15	5.671941E-17
4.140000E+03	1.672341E-15	5.762726E-17
4.150000E+03	1.700840E-15	5.852894E-17
4.160000E+03	1.729249E-15	5.942485E-17
4.170000E+03	1.757622E-15	6.031686E-17
4.180000E+03	1.785898E-15	6.120287E-17
4.190000E+03	1.814097E-15	6.208359E-17
4.200000E+03	1.842245E-15	6.295990E-17
4.210000E+03	1.870365E-15	6.383268E-17
4.220000E+03	1.898451E-15	6.470165E-17
4.230000E+03	1.926531E-15	6.556783E-17
4.240000E+03	1.954600E-15	6.643104E-17
4.250000E+03	1.982695E-15	6.729253E-17
4.260000E+03	2.010849E-15	6.815348E-17
4.270000E+03	2.039024E-15	6.901254E-17
4.280000E+03	2.067257E-15	6.987100E-17
4.290000E+03	2.095548E-15	7.072884E-17
4.300000E+03	2.123974E-15	7.158869E-17
4.310000E+03	2.152497E-15	7.244925E-17
4.320000E+03	2.181155E-15	7.331180E-17
4.330000E+03	2.209948E-15	7.417630E-17
4.340000E+03	2.238912E-15	7.504400E-17
4.350000E+03	2.268045E-15	7.591481E-17
4.360000E+03	2.297345E-15	7.678864E-17
4.370000E+03	2.326810E-15	7.766540E-17
4.380000E+03	2.356511E-15	7.854746E-17
4.390000E+03	2.386442E-15	7.943464E-17
4.400000E+03	2.416597E-15	8.032667E-17
4.410000E+03	2.446968E-15	8.122328E-17
4.420000E+03	2.477619E-15	8.212663E-17
4.430000E+03	2.508539E-15	8.303627E-17
4.440000E+03	2.539748E-15	8.395287E-17
4.450000E+03	2.571225E-15	8.487574E-17
4.460000E+03	2.603024E-15	8.580662E-17
4.470000E+03	2.635077E-15	8.674324E-17
4.480000E+03	2.667388E-15	8.768571E-17
4.490000E+03	2.699954E-15	8.863393E-17
4.500000E+03	2.732691E-15	8.958517E-17
4.510000E+03	2.765622E-15	9.054011E-17
4.520000E+03	2.798652E-15	9.149570E-17
4.530000E+03	2.831715E-15	9.244975E-17
4.540000E+03	2.864778E-15	9.340126E-17
4.550000E+03	2.897804E-15	9.434895E-17
4.560000E+03	2.930672E-15	9.528895E-17
4.570000E+03	2.963335E-15	9.621976E-17
4.580000E+03	2.995744E-15	9.713977E-17
4.590000E+03	3.027804E-15	9.804601E-17
4.600000E+03	3.059461E-15	9.893670E-17
4.610000E+03	3.090618E-15	9.980887E-17
4.620000E+03	3.121258E-15	1.006620E-16
4.630000E+03	3.151286E-15	1.014930E-16
4.640000E+03	3.180651E-15	1.023004E-16
4.650000E+03	3.209299E-15	1.030826E-16
4.660000E+03	3.237187E-15	1.038382E-16
4.670000E+03	3.264233E-15	1.045649E-16
4.680000E+03	3.290440E-15	1.052626E-16
4.690000E+03	3.315739E-15	1.059294E-16
4.700000E+03	3.340106E-15	1.065645E-16
4.710000E+03	3.363486E-15	1.071665E-16
4.720000E+03	3.385905E-15	1.077361E-16
4.730000E+03	3.407282E-15	1.082710E-16
4.740000E+03	3.427659E-15	1.087727E-16
4.750000E+03	3.446966E-15	1.092389E-16
4.760000E+03	3.465178E-15	1.096692E-16
4.770000E+03	3.482276E-15	1.100630E-16
4.780000E+03	3.498284E-15	1.104212E-16
4.790000E+03	3.513152E-15	1.107423E-16
4.800000E+03	3.526988E-15	1.110300E-16
4.810000E+03	3.539866E-15	1.112866E-16
4.820000E+03	3.551897E-15	1.115158E-16
4.830000E+03	3.563119E-15	1.117188E-16
4.840000E+03	3.573685E-15	1.119006E-16
4.850000E+03	3.583595E-15	1.120612E-16
4.860000E+03	3.593003E-15	1.122055E-16
4.870000E+03	3.601906E-15	1.123336E-16
4.880000E+03	3.610422E-15	1.124490E-16
4.890000E+03	3.618586E-15	1.125530E-16
4.900000E+03	3.626435E-15	1.126467E-16
4.910000E+03	3.634042E-15	1.127324E-16
4.920000E+03	3.641482E-15	1.128125E-16
4.930000E+03	3.648751E-15	1.128869E-16
4.940000E+03	3.655884E-15	1.129567E-16
4.950000E+03	3.662993E-15	1.130253E-16
4.960000E+03	3.670074E-15	1.130927E-16
4.970000E+03	3.677202E-15	1.131611E-16
4.980000E+03	3.684372E-15	1.132304E-16
4.990000E+03	3.691700E-15	1.133040E-16
5.000000E+03	3.699148E-15	1.133809E-16
5.010000E+03	3.706789E-15	1.134633E-16
5.020000E+03	3.714702E-15	1.135535E-16
5.030000E+03	3.722891E-15	1.136517E-16
5.040000E+03	3.731431E-15	1.137600E-16
5.050000E+03	3.740366E-15	1.138798E-16
5.060000E+03	3.749773E-15	1.140134E-16
5.070000E+03	3.759619E-15	1.141597E-16
5.080000E+03	3.770058E-15	1.143233E-16
5.090000E+03	3.781055E-15	1.145031E-16
5.100000E+03	3.792684E-15	1.147012E-16
5.110000E+03	3.804984E-15	1.149189E-16
5.120000E+03	3.818029E-15	1.151581E-16
5.130000E+03	3.831849E-15	1.154197E-16
5.140000E+03	3.846473E-15	1.157046E-16
5.150000E+03	3.861925E-15	1.160133E-16
5.160000E+03	3.878269E-15	1.163477E-16
5.170000E+03	3.895517E-15	1.167079E-16
5.180000E+03	3.913684E-15	1.170944E-16
5.190000E+03	3.932774E-15	1.175072E-16
5.200000E+03	3.952828E-15	1.179474E-16
5.210000E+03	3.973803E-15	1.184135E-16
5.220000E+03	3.995768E-15	1.189075E-16
5.230000E+03	4.018707E-15	1.194289E-16
5.240000E+03	4.042558E-15	1.199757E-16
5.250000E+03	4.067337E-15	1.205482E-16
5.260000E+03	4.093011E-15	1.211453E-16
5.270000E+03	4.119585E-15	1.217673E-16
5.280000E+03	4.147021E-15	1.224126E-16
5.290000E+03	4.175272E-15	1.230800E-16
5.300000E+03	4.204336E-15	1.237693E-16
5.310000E+03	4.234123E-15	1.244776E-16
5.320000E+03	4.264580E-15	1.252035E-16
5.330000E+03	4.295745E-15	1.259479E-16
5.340000E+03	4.327568E-15	1.267093E-16
5.350000E+03	4.359913E-15	1.274836E-16
5.360000E+03	4.392866E-15	1.282733E-16
5.370000E+03	4.426299E-15	1.290747E-16
5.380000E+03	4.460261E-15	1.298890E-16
5.390000E+03	4.494679E-15	1.307141E-16
5.400000E+03	4.529572E-15	1.315506E-16
5.410000E+03	4.564923E-15	1.323978E-16
5.420000E+03	4.600678E-15	1.332542E-16
5.430000E+03	4.636932E-15	1.341225E-16
5.440000E+03	4.673698E-15	1.350030E-16
5.450000E+03	4.710901E-15	1.358936E-16
5.460000E+03	4.748713E-15	1.367990E-16
5.470000E+03	4.787078E-15	1.377177E-16
5.480000E+03	4.826026E-15	1.386505E-16
5.490000E+03	4.865625E-15	1.395993E-16
5.500000E+03	4.905851E-15	1.405633E-16
5.510000E+03	4.946589E-15	1.415391E-16
5.520000E+03	4.987829E-15	1.425265E-16
5.530000E+03	5.029351E-15	1.435191E-16
5.540000E+03	5.071124E-15	1.445160E-16
5.550000E+03	5.112974E-15	1.455123E-16
5.560000E+03	5.154732E-15	1.465031E-16
5.570000E+03	5.196283E-15	1.474852E-16
5.580000E+03	5.237630E-15	1.484585E-16
5.590000E+03	5.278524E-15	1.494162E-16
5.600000E+03	5.318933E-15	1.503571E-16
5.610000E+03	5.358784E-15	1.512795E-16
5.620000E+03	5.398014E-15	1.521814E-16
5.630000E+03	5.436512E-15	1.530598E-16
5.640000E+03	5.474288E-15	1.539150E-16
5.650000E+03	5.511197E-15	1.547431E-16
5.660000E+03	5.547263E-15	1.555446E-16
5.670000E+03	5.582409E-15	1.563177E-16
5.680000E+03	5.616672E-15	1.570632E-16
5.690000E+03	5.649934E-15	1.577781E-16
5.700000E+03	5.682241E-15	1.584636E-16
5.710000E+03	5.713481E-15	1.591167E-16
5.720000E+03	5.743764E-15	1.597406E-16
5.730000E+03	5.772980E-15	1.603323E-16
5.740000E+03	5.801186E-15	1.608933E-16
5.750000E+03	5.828272E-15	1.614209E-16
5.760000E+03	5.854233E-15	1.619148E-16
5.770000E+03	5.879127E-15	1.623768E-16
5.780000E+03	5.902830E-15	1.628036E-16
5.790000E+03	5.925332E-15	1.631949E-16
5.800000E+03	5.946675E-15	1.635521E-16
5.810000E+03	5.966663E-15	1.638698E-16
5.820000E+03	5.985385E-15	1.641506E-16
5.830000E+03	6.002750E-15	1.643921E-16
5.840000E+03	6.018661E-15	1.645918E-16
5.850000E+03	6.033074E-15	1.647485E-16
5.860000E+03	6.045882E-15	1.648596E-16
5.870000E+03	6.057031E-15	1.649237E-16
5.880000E+03	6.066466E-15	1.649395E-16
5.890000E+03	6.074068E-15	1.649039E-16
5.900000E+03	6.079780E-15	1.648155E-16
5.910000E+03	6.083543E-15	1.646729E-16
5.920000E+03	6.085183E-15	1.644717E-16
5.930000E+03	6.084707E-15	1.642122E-16
5.940000E+03	6.082069E-15	1.638935E-16
5.950000E+03	6.077108E-15	1.635114E-16
5.960000E+03	6.069851E-15	1.630670E-16
5.970000E+03	6.060217E-15	1.625582E-16
5.980000E+03	6.048132E-15	1.619834E-16
5.990000E+03	6.033653E-15	1.613445E-16
6.000000E+03	6.016788E-15	1.606419E-16
6.010000E+03	5.997441E-15	1.598733E-16
6.020000E+03	5.975647E-15	1.590399E-16
6.030000E+03	5.951567E-15	1.581464E-16
6.040000E+03	5.925087E-15	1.571900E-16
6.050000E+03	5.896333E-15	1.561743E-16
6.060000E+03	5.865447E-15	1.551034E-16
6.070000E+03	5.832407E-15	1.539769E-16
6.080000E+03	5.797376E-15	1.527995E-16
6.090000E+03	5.760468E-15	1.515745E-16
6.100000E+03	5.721806E-15	1.503052E-16
6.110000E+03	5.681524E-15	1.489955E-16
6.120000E+03	5.639818E-15	1.476506E-16
6.130000E+03	5.596834E-15	1.462747E-16
6.140000E+03	5.552725E-15	1.448720E-16
6.150000E+03	5.507759E-15	1.434494E-16
6.160000E+03	5.462039E-15	1.420100E-16
6.170000E+03	5.415786E-15	1.405594E-16
6.180000E+03	5.369272E-15	1.391050E-16
6.190000E+03	5.322664E-15	1.376510E-16
6.200000E+03	5.276181E-15	1.362031E-16
6.210000E+03	5.230093E-15	1.347683E-16
6.220000E+03	5.184509E-15	1.333495E-16
6.230000E+03	5.139590E-15	1.319506E-16
6.240000E+03	5.095492E-15	1.305756E-16
6.250000E+03	5.052367E-15	1.292283E-16
6.260000E+03	5.010416E-15	1.279137E-16
6.270000E+03	4.969673E-15	1.266326E-16
6.280000E+03	4.930273E-15	1.253882E-16
6.290000E+03	4.892443E-15	1.241861E-16
6.300000E+03	4.856246E-15	1.230277E-16
6.310000E+03	4.821836E-15	1.219168E-16
6.320000E+03	4.789251E-15	1.208539E-16
6.330000E+03	4.758673E-15	1.198435E-16
6.340000E+03	4.730111E-15	1.188855E-16
6.350000E+03	4.703714E-15	1.179834E-16
6.360000E+03	4.679461E-15	1.171362E-16
6.370000E+03	4.657415E-15	1.163454E-16
6.380000E+03	4.637619E-15	1.156115E-16
6.390000E+03	4.619997E-15	1.149325E-16
6.400000E+03	4.604607E-15	1.143095E-16
6.410000E+03	4.591379E-15	1.137403E-16
6.420000E+03	4.580231E-15	1.132226E-16
6.430000E+03	4.571052E-15	1.127533E-16
6.440000E+03	4.563767E-15	1.123304E-16
6.450000E+03	4.558229E-15	1.119499E-16
6.460000E+03	4.554269E-15	1.116073E-16
6.470000E+03	4.551704E-15	1.112980E-16
6.480000E+03	4.550437E-15	1.110194E-16
6.490000E+03	4.550250E-15	1.107659E-16
6.500000E+03	4.550969E-15	1.105332E-16
6.510000E+03	4.552301E-15	1.103140E-16
6.520000E+03	4.554101E-15	1.101047E-16
6.530000E+03	4.556115E-15	1.098990E-16
6.540000E+03	4.558077E-15	1.096907E-16
6.550000E+03	4.559720E-15	1.094732E-16
6.560000E+03	4.560886E-15	1.092430E-16
6.570000E+03	4.561214E-15	1.089913E-16
6.580000E+03	4.560572E-15	1.087152E-16
6.590000E+03	4.558689E-15	1.084085E-16
6.600000E+03	4.555426E-15	1.080681E-16
6.610000E+03	4.550565E-15	1.076890E-16
6.620000E+03	4.544026E-15	1.072698E-16
6.630000E+03	4.535712E-15	1.068083E-16
6.640000E+03	4.525501E-15	1.063022E-16
6.650000E+03	4.513415E-15	1.057522E-16
6.660000E+03	4.499403E-15	1.051575E-16
6.670000E+03	4.483554E-15	1.045206E-16
6.680000E+03	4.465875E-15	1.038420E-16
6.690000E+03	4.446513E-15	1.031254E-16
6.700000E+03	4.425529E-15	1.023727E-16
6.710000E+03	4.403058E-15	1.015872E-16
6.720000E+03	4.379253E-15	1.007728E-16
6.730000E+03	4.354282E-15	9.993357E-17
6.740000E+03	4.328318E-15	9.907380E-17
6.750000E+03	4.301543E-15	9.819784E-17
6.760000E+03	4.274086E-15	9.730881E-17
6.770000E+03	4.246183E-15	9.641225E-17
6.780000E+03	4.217962E-15	9.551115E-17
6.790000E+03	4.189645E-15	9.461069E-17
6.800000E+03	4.161347E-15	9.371345E-17
6.810000E+03	4.133165E-15	9.282171E-17
6.820000E+03	4.105354E-15	9.194116E-17
6.830000E+03	4.077935E-15	9.107229E-17
6.840000E+03	4.051084E-15	9.021894E-17
6.850000E+03	4.024905E-15	8.938341E-17
6.860000E+03	3.999438E-15	8.856647E-17
6.870000E+03	3.974817E-15	8.777099E-17
6.880000E+03	3.951004E-15	8.699602E-17
6.890000E+03	3.928161E-15	8.624502E-17
6.900000E+03	3.906278E-15	8.551765E-17
6.910000E+03	3.885338E-15	8.481337E-17
6.920000E+03	3.865417E-15	8.413372E-17
6.930000E+03	3.846530E-15	8.347885E-17
6.940000E+03	3.828682E-15	8.284876E-17
6.950000E+03	3.811820E-15	8.224214E-17
6.960000E+03	3.795938E-15	8.165868E-17
6.970000E+03	3.781019E-15	8.109793E-17
6.980000E+03	3.767096E-15	8.056045E-17
6.990000E+03	3.754042E-15	8.004339E-17
7.000000E+03	3.741933E-15	7.954821E-17
7.010000E+03	3.730632E-15	7.907194E-17
7.020000E+03	3.720157E-15	7.861482E-17
7.030000E+03	3.710419E-15	7.817486E-17
7.040000E+03	3.701431E-15	7.775227E-17
7.050000E+03	3.693153E-15	7.734613E-17
7.060000E+03	3.685437E-15	7.695325E-17
7.070000E+03	3.678346E-15	7.657490E-17
7.080000E+03	3.671836E-15	7.621010E-17
7.090000E+03	3.665756E-15	7.585569E-17
7.100000E+03	3.660117E-15	7.551186E-17
7.110000E+03	3.654872E-15	7.517763E-17
7.120000E+03	3.649976E-15	7.485207E-17
7.130000E+03	3.645332E-15	7.453318E-17
7.140000E+03	3.640999E-15	7.422219E-17
7.150000E+03	3.636776E-15	7.391503E-17
7.160000E+03	3.632776E-15	7.361404E-17
7.170000E+03	3.628799E-15	7.331519E-17
7.180000E+03	3.624907E-15	7.301981E-17
7.190000E+03	3.621008E-15	7.272610E-17
7.200000E+03	3.617113E-15	7.243438E-17
7.210000E+03	3.613136E-15	7.214296E-17
7.220000E+03	3.608988E-15	7.185016E-17
7.230000E+03	3.604742E-15	7.155759E-17
7.240000E+03	3.600317E-15	7.126368E-17
7.250000E+03	3.595636E-15	7.096705E-17
7.260000E+03	3.590783E-15	7.066947E-17
7.270000E+03	3.585639E-15	7.036868E-17
7.280000E+03	3.580296E-15	7.006666E-17
7.290000E+03	3.574644E-15	6.976134E-17
7.300000E+03	3.568736E-15	6.945388E-17
7.310000E+03	3.562580E-15	6.914457E-17
7.320000E+03	3.556133E-15	6.883270E-17
7.330000E+03	3.549469E-15	6.851981E-17
7.340000E+03	3.542667E-15	6.820754E-17
7.350000E+03	3.535651E-15	6.789455E-17
7.360000E+03	3.528516E-15	6.758273E-17
7.370000E+03	3.521303E-15	6.727301E-17
7.380000E+03	3.514066E-15	6.696647E-17
7.390000E+03	3.506859E-15	6.666423E-17
7.400000E+03	3.499797E-15	6.636857E-17
7.410000E+03	3.492891E-15	6.607973E-17
7.420000E+03	3.486210E-15	6.579908E-17
7.430000E+03	3.479880E-15	6.552905E-17
7.440000E+03	3.473971E-15	6.527101E-17
7.450000E+03	3.468505E-15	6.502538E-17
7.460000E+03	3.463608E-15	6.479453E-17
7.470000E+03	3.459295E-15	6.457880E-17
7.480000E+03	3.455685E-15	6.438041E-17
7.490000E+03	3.452784E-15	6.419948E-17
7.500000E+03	3.450691E-15	6.403786E-17
7.510000E+03	3.449436E-15	6.389606E-17
7.520000E+03	3.448977E-15	6.377322E-17
7.530000E+03	3.449356E-15	6.367011E-17
7.540000E+03	3.450492E-15	6.358516E-17
7.550000E+03	3.452398E-15	6.351862E-17
7.560000E+03	3.454970E-15	6.346851E-17
7.570000E+03	3.458207E-15	6.343481E-17
7.580000E+03	3.461990E-15	6.341537E-17
7.590000E+03	3.466258E-15	6.340903E-17
7.600000E+03	3.470998E-15	6.341561E-17
7.610000E+03	3.476086E-15	6.343288E-17
7.620000E+03	3.481510E-15	6.346062E-17
7.630000E+03	3.487143E-15	6.349657E-17
7.640000E+03	3.492915E-15	6.353950E-17
7.650000E+03	3.498753E-15	6.358816E-17
7.660000E+03	3.504649E-15	6.364245E-17
7.670000E+03	3.510531E-15	6.370111E-17
7.680000E+03	3.516272E-15	6.376194E-17
7.690000E+03	3.521863E-15	6.382480E-17
7.700000E+03	3.527176E-15	6.388747E-17
7.710000E+03	3.532266E-15	6.395101E-17
7.720000E+03	3.536947E-15	6.401211E-17
7.730000E+03	3.541217E-15	6.407080E-17
7.740000E+03	3.545012E-15	6.412601E-17
7.750000E+03	3.548215E-15	6.417568E-17
7.760000E+03	3.550949E-15	6.422206E-17
