#wls	flux	fluxerr
1.600000E+03	3.834406E-17	2.118597E-20
1.640000E+03	3.905066E-17	2.157637E-20
1.680000E+03	3.982645E-17	2.200499E-20
1.720000E+03	4.067449E-17	2.247354E-20
1.760000E+03	4.158259E-17	2.297528E-20
1.800000E+03	4.256954E-17	2.352058E-20
1.840000E+03	4.362328E-17	2.410277E-20
1.880000E+03	4.477931E-17	2.474149E-20
1.920000E+03	4.601002E-17	2.542146E-20
1.960000E+03	4.733570E-17	2.615391E-20
2.000000E+03	4.876106E-17	2.694143E-20
2.040000E+03	5.029103E-17	2.778675E-20
2.080000E+03	5.193079E-17	2.869273E-20
2.120000E+03	5.370316E-17	2.967197E-20
2.160000E+03	5.557923E-17	3.070851E-20
2.200000E+03	5.760000E-17	3.182500E-20
2.240000E+03	5.975420E-17	3.301520E-20
2.280000E+03	6.204814E-17	3.428262E-20
2.320000E+03	6.448842E-17	3.563088E-20
2.360000E+03	6.708181E-17	3.706374E-20
2.400000E+03	6.985520E-17	3.859605E-20
2.440000E+03	7.279691E-17	4.022135E-20
2.480000E+03	7.591457E-17	4.194386E-20
2.520000E+03	7.923735E-17	4.377971E-20
2.560000E+03	8.273168E-17	4.571032E-20
2.600000E+03	8.644921E-17	4.776426E-20
2.640000E+03	9.040069E-17	4.994745E-20
2.680000E+03	9.455099E-17	5.224049E-20
2.720000E+03	9.895642E-17	5.467448E-20
2.760000E+03	1.036296E-16	5.725642E-20
2.800000E+03	1.085841E-16	5.999375E-20
2.840000E+03	1.138340E-16	6.289427E-20
2.880000E+03	1.193941E-16	6.596620E-20
2.920000E+03	1.253344E-16	6.924818E-20
2.960000E+03	1.316476E-16	7.273620E-20
3.000000E+03	1.384101E-16	7.647245E-20
3.010000E+03	1.401899E-16	7.745577E-20
3.020000E+03	1.419890E-16	7.844975E-20
3.030000E+03	1.438077E-16	7.945458E-20
3.040000E+03	1.456754E-16	8.048645E-20
3.050000E+03	1.475633E-16	8.152953E-20
3.060000E+03	1.495014E-16	8.260031E-20
3.070000E+03	1.514903E-16	8.369916E-20
3.080000E+03	1.534708E-16	8.479336E-20
3.090000E+03	1.555331E-16	8.593277E-20
3.100000E+03	1.576179E-16	8.708458E-20
3.110000E+03	1.597557E-16	8.826570E-20
3.120000E+03	1.619167E-16	8.945962E-20
3.130000E+03	1.641629E-16	9.070067E-20
3.140000E+03	1.664022E-16	9.193784E-20
3.150000E+03	1.687285E-16	9.322309E-20
3.160000E+03	1.710797E-16	9.452209E-20
3.170000E+03	1.735199E-16	9.587030E-20
3.180000E+03	1.759861E-16	9.723286E-20
3.190000E+03	1.785110E-16	9.862782E-20
3.200000E+03	1.810953E-16	1.000556E-19
3.210000E+03	1.837069E-16	1.014985E-19
3.220000E+03	1.864121E-16	1.029931E-19
3.230000E+03	1.891790E-16	1.045218E-19
3.240000E+03	1.920083E-16	1.060849E-19
3.250000E+03	1.949008E-16	1.076830E-19
3.260000E+03	1.978573E-16	1.093164E-19
3.270000E+03	2.009127E-16	1.110045E-19
3.280000E+03	2.039994E-16	1.127099E-19
3.290000E+03	2.071870E-16	1.144710E-19
3.300000E+03	2.104419E-16	1.162693E-19
3.310000E+03	2.137999E-16	1.181245E-19
3.320000E+03	2.172268E-16	1.200179E-19
3.330000E+03	2.207592E-16	1.219695E-19
3.340000E+03	2.243624E-16	1.239602E-19
3.350000E+03	2.280731E-16	1.260103E-19
3.360000E+03	2.318563E-16	1.281005E-19
3.370000E+03	2.357490E-16	1.302511E-19
3.380000E+03	2.397525E-16	1.324630E-19
3.390000E+03	2.438680E-16	1.347368E-19
3.400000E+03	2.480968E-16	1.370731E-19
3.410000E+03	2.524022E-16	1.394518E-19
3.420000E+03	2.568604E-16	1.419149E-19
3.430000E+03	2.614351E-16	1.444423E-19
3.440000E+03	2.661271E-16	1.470346E-19
3.450000E+03	2.709377E-16	1.496924E-19
3.460000E+03	2.759063E-16	1.524375E-19
3.470000E+03	2.809564E-16	1.552276E-19
3.480000E+03	2.862061E-16	1.581280E-19
3.490000E+03	2.915783E-16	1.610960E-19
3.500000E+03	2.970738E-16	1.641322E-19
3.510000E+03	3.027730E-16	1.672810E-19
3.520000E+03	3.085974E-16	1.704989E-19
3.530000E+03	3.145880E-16	1.738085E-19
3.540000E+03	3.207456E-16	1.772105E-19
3.550000E+03	3.270712E-16	1.807053E-19
3.560000E+03	3.335655E-16	1.842933E-19
3.570000E+03	3.402292E-16	1.879749E-19
3.580000E+03	3.471048E-16	1.917736E-19
3.590000E+03	3.541512E-16	1.956665E-19
3.600000E+03	3.614109E-16	1.996774E-19
3.610000E+03	3.688425E-16	2.037832E-19
3.620000E+03	3.764883E-16	2.080074E-19
3.630000E+03	3.843492E-16	2.123504E-19
3.640000E+03	3.924252E-16	2.168123E-19
3.650000E+03	4.007166E-16	2.213931E-19
3.660000E+03	4.091796E-16	2.260688E-19
3.670000E+03	4.179449E-16	2.309115E-19
3.680000E+03	4.268810E-16	2.358485E-19
3.690000E+03	4.360753E-16	2.409281E-19
3.700000E+03	4.455272E-16	2.461501E-19
3.710000E+03	4.551917E-16	2.514896E-19
3.720000E+03	4.651120E-16	2.569703E-19
3.730000E+03	4.752871E-16	2.625919E-19
3.740000E+03	4.857157E-16	2.683535E-19
3.750000E+03	4.963960E-16	2.742541E-19
3.760000E+03	5.073260E-16	2.802927E-19
3.770000E+03	5.185492E-16	2.864933E-19
3.780000E+03	5.300637E-16	2.928548E-19
3.790000E+03	5.418206E-16	2.993503E-19
3.800000E+03	5.538630E-16	3.060034E-19
3.810000E+03	5.661413E-16	3.127869E-19
3.820000E+03	5.787447E-16	3.197500E-19
3.830000E+03	5.916700E-16	3.268909E-19
3.840000E+03	6.048191E-16	3.341555E-19
3.850000E+03	6.182811E-16	3.415929E-19
3.860000E+03	6.320512E-16	3.492006E-19
3.870000E+03	6.460770E-16	3.569495E-19
3.880000E+03	6.604474E-16	3.648888E-19
3.890000E+03	6.750615E-16	3.729628E-19
3.900000E+03	6.900079E-16	3.812203E-19
3.910000E+03	7.052321E-16	3.896312E-19
3.920000E+03	7.207745E-16	3.982180E-19
3.930000E+03	7.365796E-16	4.069499E-19
3.940000E+03	7.526869E-16	4.158488E-19
3.950000E+03	7.691362E-16	4.249366E-19
3.960000E+03	7.858218E-16	4.341549E-19
3.970000E+03	8.028307E-16	4.435519E-19
3.980000E+03	8.201047E-16	4.530953E-19
3.990000E+03	8.376813E-16	4.628058E-19
4.000000E+03	8.555496E-16	4.726776E-19
4.010000E+03	8.736983E-16	4.827042E-19
4.020000E+03	8.920669E-16	4.928523E-19
4.030000E+03	9.107397E-16	5.031685E-19
4.040000E+03	9.297036E-16	5.136455E-19
4.050000E+03	9.488970E-16	5.242492E-19
4.060000E+03	9.683543E-16	5.349988E-19
4.070000E+03	9.880610E-16	5.458861E-19
4.080000E+03	1.008002E-15	5.569030E-19
4.090000E+03	1.028163E-15	5.680411E-19
4.100000E+03	1.048575E-15	5.793180E-19
4.110000E+03	1.069174E-15	5.906983E-19
4.120000E+03	1.089944E-15	6.021732E-19
4.130000E+03	1.110963E-15	6.137852E-19
4.140000E+03	1.132117E-15	6.254724E-19
4.150000E+03	1.153487E-15	6.372782E-19
4.160000E+03	1.175002E-15	6.491645E-19
4.170000E+03	1.196648E-15	6.611232E-19
4.180000E+03	1.218402E-15	6.731417E-19
4.190000E+03	1.240296E-15	6.852373E-19
4.200000E+03	1.262308E-15	6.973981E-19
4.210000E+03	1.284419E-15	7.096133E-19
4.220000E+03	1.306562E-15	7.218464E-19
4.230000E+03	1.328810E-15	7.341375E-19
4.240000E+03	1.351050E-15	7.464245E-19
4.250000E+03	1.373355E-15	7.587469E-19
4.260000E+03	1.395657E-15	7.710681E-19
4.270000E+03	1.417938E-15	7.833773E-19
4.280000E+03	1.440178E-15	7.956639E-19
4.290000E+03	1.462400E-15	8.079408E-19
4.300000E+03	1.484542E-15	8.201729E-19
4.310000E+03	1.506582E-15	8.323492E-19
4.320000E+03	1.528504E-15	8.444599E-19
4.330000E+03	1.550330E-15	8.565180E-19
4.340000E+03	1.571999E-15	8.684891E-19
4.350000E+03	1.593495E-15	8.803644E-19
4.360000E+03	1.614798E-15	8.921335E-19
4.370000E+03	1.635894E-15	9.037875E-19
4.380000E+03	1.656765E-15	9.153181E-19
4.390000E+03	1.677356E-15	9.266932E-19
4.400000E+03	1.697697E-15	9.379310E-19
4.410000E+03	1.717747E-15	9.490071E-19
4.420000E+03	1.737502E-15	9.599208E-19
4.430000E+03	1.757003E-15	9.706940E-19
4.440000E+03	1.776129E-15	9.812601E-19
4.450000E+03	1.795006E-15	9.916885E-19
4.460000E+03	1.813556E-15	1.001936E-18
4.470000E+03	1.831784E-15	1.012006E-18
4.480000E+03	1.849700E-15	1.021903E-18
4.490000E+03	1.867347E-15	1.031652E-18
4.500000E+03	1.884661E-15	1.041217E-18
4.510000E+03	1.901726E-15	1.050645E-18
4.520000E+03	1.918554E-15	1.059941E-18
4.530000E+03	1.935157E-15	1.069113E-18
4.540000E+03	1.951548E-15	1.078168E-18
4.550000E+03	1.967814E-15	1.087153E-18
4.560000E+03	1.983859E-15	1.096017E-18
4.570000E+03	1.999737E-15	1.104789E-18
4.580000E+03	2.015467E-15	1.113478E-18
4.590000E+03	2.030959E-15	1.122036E-18
4.600000E+03	2.046239E-15	1.130478E-18
4.610000E+03	2.061295E-15	1.138794E-18
4.620000E+03	2.076151E-15	1.147001E-18
4.630000E+03	2.090767E-15	1.155075E-18
4.640000E+03	2.105169E-15	1.163031E-18
4.650000E+03	2.119290E-15	1.170832E-18
4.660000E+03	2.133226E-15	1.178530E-18
4.670000E+03	2.146910E-15	1.186090E-18
4.680000E+03	2.160347E-15	1.193512E-18
4.690000E+03	2.173538E-15	1.200799E-18
4.700000E+03	2.186489E-15	1.207953E-18
4.710000E+03	2.199204E-15	1.214977E-18
4.720000E+03	2.211663E-15	1.221859E-18
4.730000E+03	2.223902E-15	1.228620E-18
4.740000E+03	2.235904E-15	1.235250E-18
4.750000E+03	2.247649E-15	1.241738E-18
4.760000E+03	2.259178E-15	1.248106E-18
4.770000E+03	2.270445E-15	1.254330E-18
4.780000E+03	2.281497E-15	1.260435E-18
4.790000E+03	2.292316E-15	1.266412E-18
4.800000E+03	2.302920E-15	1.272269E-18
4.800069E+03	2.219825E-15	1.226362E-18
4.802922E+03	2.181045E-15	1.204938E-18
4.805775E+03	2.144569E-15	1.184786E-18
4.808627E+03	2.101812E-15	1.161165E-18
4.811480E+03	2.076095E-15	1.146956E-18
4.814333E+03	2.040203E-15	1.127127E-18
4.817186E+03	1.993567E-15	1.101363E-18
4.820039E+03	1.953468E-15	1.079210E-18
4.822892E+03	1.936748E-15	1.069973E-18
4.825745E+03	1.903691E-15	1.051709E-18
4.828597E+03	1.875822E-15	1.036313E-18
4.831450E+03	1.858570E-15	1.026782E-18
4.834303E+03	1.860532E-15	1.027866E-18
4.837156E+03	1.855993E-15	1.025357E-18
4.840008E+03	1.845117E-15	1.019349E-18
4.842861E+03	1.839778E-15	1.016399E-18
4.845714E+03	1.833986E-15	1.013199E-18
4.848567E+03	1.773654E-15	9.798681E-19
4.851420E+03	1.731636E-15	9.566546E-19
4.854273E+03	1.660575E-15	9.173963E-19
4.857126E+03	1.570760E-15	8.677774E-19
4.859978E+03	1.448202E-15	8.000692E-19
4.862831E+03	1.325497E-15	7.322797E-19
4.865684E+03	1.203324E-15	6.647844E-19
4.868537E+03	1.145726E-15	6.329641E-19
4.871389E+03	1.067159E-15	5.895590E-19
4.874242E+03	9.918549E-16	5.479566E-19
4.877095E+03	9.157933E-16	5.059358E-19
4.879948E+03	8.706455E-16	4.809935E-19
4.882801E+03	8.117724E-16	4.484686E-19
4.885653E+03	7.830891E-16	4.326223E-19
4.888506E+03	7.632966E-16	4.216877E-19
4.891359E+03	7.590869E-16	4.193619E-19
4.894212E+03	7.820318E-16	4.320379E-19
4.897064E+03	7.998790E-16	4.418976E-19
4.899917E+03	8.519817E-16	4.706819E-19
4.902770E+03	9.151563E-16	5.055830E-19
4.905623E+03	1.038699E-15	5.738345E-19
4.908476E+03	1.217752E-15	6.727533E-19
4.911329E+03	1.426749E-15	7.882147E-19
4.914182E+03	1.608277E-15	8.885003E-19
4.917034E+03	1.815838E-15	1.003168E-18
4.919887E+03	2.044789E-15	1.129653E-18
4.922740E+03	2.259036E-15	1.248015E-18
4.925593E+03	2.471061E-15	1.365149E-18
4.928446E+03	2.656733E-15	1.467724E-18
4.931298E+03	2.876063E-15	1.588893E-18
4.934151E+03	3.072272E-15	1.697290E-18
4.937004E+03	3.263525E-15	1.802948E-18
4.939857E+03	3.417387E-15	1.887949E-18
4.942709E+03	3.528730E-15	1.949460E-18
4.945562E+03	3.630265E-15	2.005554E-18
4.948415E+03	3.700568E-15	2.044393E-18
4.951268E+03	3.758950E-15	2.076646E-18
4.954121E+03	3.776305E-15	2.086233E-18
4.956974E+03	3.776892E-15	2.086557E-18
4.959827E+03	3.760309E-15	2.077395E-18
4.962679E+03	3.712504E-15	2.050984E-18
4.965532E+03	3.687545E-15	2.037195E-18
4.968385E+03	3.618732E-15	1.999179E-18
4.971238E+03	3.520326E-15	1.944814E-18
4.974090E+03	3.432535E-15	1.896313E-18
4.976943E+03	3.353367E-15	1.852576E-18
4.979796E+03	3.254837E-15	1.798143E-18
4.982649E+03	3.203964E-15	1.770038E-18
4.985502E+03	3.142322E-15	1.735983E-18
4.988355E+03	3.100583E-15	1.712924E-18
4.991208E+03	3.046084E-15	1.682816E-18
4.994060E+03	2.979676E-15	1.646128E-18
4.996913E+03	2.930158E-15	1.618771E-18
4.999766E+03	2.904083E-15	1.604366E-18
5.002619E+03	2.830345E-15	1.563629E-18
5.005471E+03	2.785402E-15	1.538799E-18
5.011177E+03	2.726921E-15	1.506491E-18
5.014030E+03	2.687587E-15	1.484761E-18
5.016883E+03	2.627395E-15	1.451507E-18
5.019735E+03	2.574823E-15	1.422464E-18
5.022588E+03	2.546168E-15	1.406633E-18
5.025441E+03	2.560067E-15	1.414311E-18
5.028294E+03	2.588496E-15	1.430017E-18
5.031146E+03	2.655965E-15	1.467289E-18
5.033999E+03	2.759747E-15	1.524624E-18
5.036852E+03	2.892213E-15	1.597804E-18
5.039705E+03	3.015293E-15	1.665800E-18
5.042558E+03	3.151617E-15	1.741112E-18
5.045411E+03	3.274789E-15	1.809157E-18
5.048264E+03	3.374773E-15	1.864393E-18
5.051116E+03	3.432574E-15	1.896325E-18
5.053969E+03	3.519178E-15	1.944169E-18
5.056822E+03	3.548706E-15	1.960481E-18
5.059675E+03	3.604012E-15	1.991035E-18
5.062528E+03	3.641243E-15	2.011603E-18
5.065380E+03	3.702376E-15	2.045375E-18
5.068233E+03	3.768192E-15	2.081735E-18
5.071086E+03	3.850673E-15	2.127301E-18
5.073939E+03	3.853912E-15	2.129090E-18
5.076792E+03	3.849330E-15	2.126558E-18
5.079645E+03	3.807254E-15	2.103313E-18
5.082497E+03	3.752214E-15	2.072906E-18
5.085350E+03	3.647454E-15	2.015031E-18
5.088203E+03	3.547756E-15	1.959952E-18
5.091056E+03	3.434399E-15	1.897328E-18
5.093909E+03	3.316173E-15	1.832014E-18
5.096761E+03	3.171555E-15	1.752119E-18
5.099614E+03	2.998771E-15	1.656665E-18
5.102467E+03	2.827163E-15	1.561860E-18
5.105320E+03	2.693098E-15	1.487796E-18
5.108172E+03	2.559415E-15	1.413943E-18
5.111025E+03	2.434108E-15	1.344717E-18
5.113878E+03	2.312210E-15	1.277374E-18
5.116731E+03	2.171679E-15	1.199738E-18
5.119584E+03	2.072135E-15	1.144745E-18
5.122436E+03	1.975664E-15	1.091450E-18
5.125290E+03	1.883063E-15	1.040293E-18
5.128142E+03	1.809301E-15	9.995427E-19
5.130995E+03	1.734387E-15	9.581566E-19
5.133848E+03	1.740751E-15	9.616724E-19
5.136701E+03	1.722778E-15	9.517428E-19
5.139554E+03	1.730396E-15	9.559511E-19
5.142406E+03	1.714701E-15	9.472806E-19
5.145259E+03	1.701232E-15	9.398393E-19
5.148112E+03	1.709187E-15	9.442336E-19
5.150965E+03	1.726053E-15	9.535509E-19
5.153817E+03	1.704804E-15	9.418120E-19
5.156670E+03	1.667496E-15	9.212011E-19
5.159523E+03	1.632067E-15	9.016286E-19
5.162376E+03	1.595320E-15	8.813276E-19
5.165229E+03	1.552283E-15	8.575516E-19
5.168082E+03	1.552161E-15	8.574839E-19
5.170935E+03	1.544606E-15	8.533102E-19
5.173787E+03	1.535335E-15	8.481883E-19
5.176640E+03	1.535091E-15	8.480534E-19
5.179493E+03	1.587831E-15	8.771892E-19
5.182346E+03	1.592787E-15	8.799269E-19
5.185198E+03	1.645526E-15	9.090620E-19
5.188051E+03	1.688205E-15	9.326399E-19
5.190904E+03	1.753463E-15	9.686911E-19
5.193757E+03	1.816435E-15	1.003479E-18
5.196610E+03	1.864429E-15	1.029993E-18
5.199462E+03	1.930430E-15	1.066455E-18
5.202315E+03	1.969448E-15	1.088010E-18
5.205168E+03	1.952154E-15	1.078456E-18
5.208021E+03	1.939717E-15	1.071585E-18
5.210873E+03	1.922130E-15	1.061869E-18
5.213727E+03	1.913803E-15	1.057268E-18
5.216580E+03	1.887407E-15	1.042686E-18
5.219432E+03	1.878731E-15	1.037892E-18
5.222285E+03	1.908070E-15	1.054100E-18
5.225138E+03	1.975196E-15	1.091184E-18
5.227991E+03	2.020768E-15	1.116359E-18
5.230843E+03	2.083944E-15	1.151260E-18
5.233696E+03	2.154493E-15	1.190234E-18
5.236549E+03	2.226639E-15	1.230091E-18
5.239402E+03	2.286491E-15	1.263155E-18
5.242255E+03	2.329872E-15	1.287121E-18
5.245107E+03	2.355185E-15	1.301104E-18
5.247960E+03	2.366257E-15	1.307220E-18
5.250813E+03	2.381501E-15	1.315641E-18
5.253666E+03	2.395538E-15	1.323396E-18
5.256519E+03	2.397796E-15	1.324643E-18
5.259372E+03	2.418801E-15	1.336247E-18
5.262224E+03	2.420250E-15	1.337047E-18
5.265077E+03	2.440732E-15	1.348362E-18
5.267930E+03	2.471899E-15	1.365579E-18
5.270783E+03	2.492027E-15	1.376699E-18
5.273636E+03	2.502263E-15	1.382353E-18
5.276488E+03	2.539245E-15	1.402783E-18
5.279341E+03	2.550671E-15	1.409095E-18
5.282194E+03	2.570781E-15	1.420205E-18
5.285047E+03	2.605574E-15	1.439425E-18
5.287899E+03	2.652706E-15	1.465463E-18
5.290752E+03	2.706232E-15	1.495032E-18
5.293605E+03	2.741463E-15	1.514495E-18
5.296458E+03	2.778800E-15	1.535121E-18
5.299311E+03	2.804073E-15	1.549083E-18
5.302164E+03	2.825453E-15	1.560893E-18
5.305017E+03	2.861283E-15	1.580687E-18
5.307869E+03	2.861908E-15	1.581032E-18
5.310722E+03	2.849157E-15	1.573988E-18
5.313575E+03	2.844631E-15	1.571487E-18
5.316428E+03	2.839586E-15	1.568699E-18
5.319281E+03	2.835335E-15	1.566351E-18
5.322133E+03	2.833423E-15	1.565294E-18
5.324986E+03	2.827622E-15	1.562089E-18
5.327839E+03	2.839295E-15	1.568537E-18
5.330692E+03	2.839880E-15	1.568860E-18
5.333544E+03	2.868903E-15	1.584894E-18
5.336398E+03	2.870277E-15	1.585652E-18
5.339250E+03	2.879982E-15	1.591013E-18
5.342103E+03	2.883914E-15	1.593185E-18
5.344956E+03	2.887384E-15	1.595101E-18
5.347809E+03	2.887649E-15	1.595248E-18
5.350662E+03	2.884599E-15	1.593562E-18
5.353514E+03	2.860078E-15	1.580016E-18
5.356367E+03	2.837096E-15	1.567320E-18
5.359220E+03	2.848191E-15	1.573448E-18
5.362073E+03	2.832222E-15	1.564626E-18
5.364925E+03	2.830405E-15	1.563622E-18
5.367778E+03	2.841423E-15	1.569709E-18
5.370631E+03	2.835374E-15	1.566366E-18
5.373484E+03	2.812657E-15	1.553816E-18
5.376337E+03	2.802206E-15	1.548043E-18
5.379189E+03	2.804814E-15	1.549483E-18
5.382042E+03	2.796751E-15	1.545028E-18
5.384895E+03	2.816859E-15	1.556136E-18
5.387748E+03	2.842946E-15	1.570548E-18
5.390601E+03	2.863093E-15	1.581677E-18
5.393454E+03	2.868746E-15	1.584800E-18
5.396306E+03	2.869830E-15	1.585399E-18
5.399159E+03	2.871594E-15	1.586372E-18
5.402012E+03	2.873863E-15	1.587626E-18
5.404865E+03	2.886387E-15	1.594544E-18
5.407718E+03	2.921983E-15	1.614208E-18
5.410570E+03	2.957224E-15	1.633676E-18
5.413423E+03	3.000997E-15	1.657857E-18
5.416276E+03	3.053984E-15	1.687129E-18
5.419129E+03	3.132474E-15	1.730489E-18
5.421981E+03	3.210938E-15	1.773835E-18
5.424834E+03	3.302020E-15	1.824152E-18
5.427688E+03	3.396889E-15	1.876560E-18
5.430540E+03	3.524979E-15	1.947321E-18
5.433393E+03	3.649785E-15	2.016268E-18
5.436246E+03	3.797663E-15	2.097961E-18
5.439099E+03	3.944013E-15	2.178809E-18
5.441951E+03	4.082406E-15	2.255262E-18
5.444804E+03	4.216543E-15	2.329363E-18
5.447657E+03	4.321560E-15	2.387377E-18
5.450510E+03	4.418631E-15	2.441002E-18
5.453363E+03	4.478410E-15	2.474026E-18
5.456215E+03	4.509215E-15	2.491043E-18
5.459068E+03	4.517541E-15	2.495642E-18
5.461921E+03	4.522385E-15	2.498318E-18
5.464774E+03	4.506583E-15	2.489587E-18
5.467627E+03	4.465370E-15	2.466819E-18
5.470480E+03	4.399154E-15	2.430239E-18
5.473332E+03	4.335222E-15	2.394920E-18
5.476185E+03	4.277889E-15	2.363247E-18
5.479038E+03	4.173534E-15	2.305598E-18
5.481891E+03	4.103166E-15	2.266723E-18
5.484744E+03	4.072214E-15	2.249624E-18
5.487596E+03	4.030421E-15	2.226536E-18
5.490449E+03	3.976542E-15	2.196771E-18
5.493302E+03	3.950083E-15	2.182154E-18
5.496155E+03	3.932646E-15	2.172520E-18
5.499007E+03	3.897959E-15	2.153358E-18
5.501860E+03	3.873313E-15	2.139742E-18
5.504713E+03	3.865453E-15	2.135400E-18
5.507566E+03	3.842334E-15	2.122627E-18
5.510419E+03	3.807196E-15	2.103216E-18
5.513271E+03	3.800005E-15	2.099242E-18
5.516124E+03	3.808785E-15	2.104093E-18
5.518977E+03	3.830924E-15	2.116322E-18
5.521830E+03	3.860465E-15	2.132641E-18
5.524683E+03	3.890209E-15	2.149072E-18
5.527536E+03	3.949772E-15	2.181976E-18
5.530389E+03	4.033187E-15	2.228057E-18
5.533241E+03	4.116615E-15	2.274145E-18
5.536094E+03	4.204863E-15	2.322895E-18
5.538947E+03	4.303583E-15	2.377431E-18
5.541800E+03	4.418823E-15	2.441092E-18
5.544652E+03	4.549550E-15	2.513309E-18
5.547505E+03	4.690949E-15	2.591421E-18
5.550358E+03	4.847420E-15	2.677860E-18
5.553211E+03	4.986739E-15	2.754823E-18
5.556064E+03	5.122024E-15	2.829559E-18
5.558917E+03	5.274122E-15	2.913581E-18
5.561770E+03	5.381125E-15	2.972692E-18
5.564622E+03	5.511493E-15	3.044711E-18
5.567475E+03	5.625242E-15	3.107548E-18
5.570328E+03	5.713527E-15	3.156319E-18
5.573181E+03	5.774728E-15	3.190127E-18
5.576033E+03	5.815013E-15	3.212381E-18
5.578886E+03	5.840600E-15	3.226515E-18
5.581739E+03	5.865592E-15	3.240321E-18
5.584592E+03	5.834760E-15	3.223288E-18
5.587445E+03	5.787587E-15	3.197228E-18
5.590297E+03	5.710568E-15	3.154680E-18
5.593150E+03	5.612231E-15	3.100355E-18
5.596003E+03	5.484712E-15	3.029909E-18
5.598856E+03	5.334790E-15	2.947087E-18
5.601708E+03	5.180490E-15	2.861847E-18
5.604561E+03	5.009554E-15	2.767416E-18
5.607415E+03	4.793824E-15	2.648241E-18
5.610267E+03	4.558639E-15	2.518318E-18
5.613120E+03	4.315201E-15	2.383835E-18
5.615973E+03	4.091333E-15	2.260164E-18
5.618826E+03	3.855508E-15	2.129887E-18
5.621678E+03	3.630536E-15	2.005606E-18
5.624531E+03	3.445096E-15	1.903163E-18
5.627384E+03	3.271206E-15	1.807101E-18
5.630237E+03	3.126641E-15	1.727240E-18
5.633090E+03	3.031287E-15	1.674563E-18
5.635942E+03	2.970913E-15	1.641211E-18
5.638795E+03	2.955241E-15	1.632553E-18
5.641648E+03	2.960582E-15	1.635503E-18
5.644501E+03	2.993919E-15	1.653919E-18
