#wls	flux	fluxerr
1.600000E+03	3.365289E-18	1.521716E-19
1.640000E+03	3.449604E-18	1.559181E-19
1.680000E+03	3.539400E-18	1.599070E-19
1.720000E+03	3.633924E-18	1.641037E-19
1.760000E+03	3.734466E-18	1.685659E-19
1.800000E+03	3.841330E-18	1.733067E-19
1.840000E+03	3.954842E-18	1.783400E-19
1.880000E+03	4.075344E-18	1.836807E-19
1.920000E+03	4.202118E-18	1.892956E-19
1.960000E+03	4.337705E-18	1.952981E-19
2.000000E+03	4.480331E-18	2.016077E-19
2.040000E+03	4.632641E-18	2.083423E-19
2.080000E+03	4.793994E-18	2.154718E-19
2.120000E+03	4.964874E-18	2.230169E-19
2.160000E+03	5.146979E-18	2.310525E-19
2.200000E+03	5.339696E-18	2.395497E-19
2.240000E+03	5.543595E-18	2.485324E-19
2.280000E+03	5.760521E-18	2.580818E-19
2.320000E+03	5.989894E-18	2.681699E-19
2.360000E+03	6.233669E-18	2.788825E-19
2.400000E+03	6.493944E-18	2.903109E-19
2.440000E+03	6.768881E-18	3.023707E-19
2.480000E+03	7.060619E-18	3.151548E-19
2.520000E+03	7.371449E-18	3.287627E-19
2.560000E+03	7.700915E-18	3.431710E-19
2.600000E+03	8.051443E-18	3.584844E-19
2.640000E+03	8.424102E-18	3.747466E-19
2.680000E+03	8.821558E-18	3.920724E-19
2.720000E+03	9.243459E-18	4.104414E-19
2.760000E+03	9.692603E-18	4.299733E-19
2.800000E+03	1.017197E-17	4.507949E-19
2.840000E+03	1.068127E-17	4.728875E-19
2.880000E+03	1.122537E-17	4.964599E-19
2.920000E+03	1.180585E-17	5.215755E-19
2.960000E+03	1.242616E-17	5.483783E-19
3.000000E+03	1.308607E-17	5.768502E-19
3.010000E+03	1.325916E-17	5.843129E-19
3.020000E+03	1.343402E-17	5.918477E-19
3.030000E+03	1.361260E-17	5.995411E-19
3.040000E+03	1.379297E-17	6.073078E-19
3.050000E+03	1.397714E-17	6.152356E-19
3.060000E+03	1.416314E-17	6.232382E-19
3.070000E+03	1.435299E-17	6.314043E-19
3.080000E+03	1.454673E-17	6.397349E-19
3.090000E+03	1.474440E-17	6.482320E-19
3.100000E+03	1.494400E-17	6.568074E-19
3.110000E+03	1.514758E-17	6.655513E-19
3.120000E+03	1.535312E-17	6.743741E-19
3.130000E+03	1.556270E-17	6.833677E-19
3.140000E+03	1.577636E-17	6.925335E-19
3.150000E+03	1.599415E-17	7.018729E-19
3.160000E+03	1.621609E-17	7.113873E-19
3.170000E+03	1.644010E-17	7.209843E-19
3.180000E+03	1.666830E-17	7.307578E-19
3.190000E+03	1.690075E-17	7.407097E-19
3.200000E+03	1.713748E-17	7.508407E-19
3.210000E+03	1.737632E-17	7.610561E-19
3.220000E+03	1.762170E-17	7.715492E-19
3.230000E+03	1.786923E-17	7.821277E-19
3.240000E+03	1.812114E-17	7.928891E-19
3.250000E+03	1.837972E-17	8.039333E-19
3.260000E+03	1.864050E-17	8.150645E-19
3.270000E+03	1.890575E-17	8.263813E-19
3.280000E+03	1.917550E-17	8.378854E-19
3.290000E+03	1.944976E-17	8.495767E-19
3.300000E+03	1.972858E-17	8.614567E-19
3.310000E+03	2.001195E-17	8.735253E-19
3.320000E+03	2.029991E-17	8.857838E-19
3.330000E+03	2.059249E-17	8.982326E-19
3.340000E+03	2.089206E-17	9.109756E-19
3.350000E+03	2.119391E-17	9.238062E-19
3.360000E+03	2.150282E-17	9.369334E-19
3.370000E+03	2.181399E-17	9.501473E-19
3.380000E+03	2.213228E-17	9.636590E-19
3.390000E+03	2.245773E-17	9.774699E-19
3.400000E+03	2.278545E-17	9.913671E-19
3.410000E+03	2.311788E-17	1.005457E-18
3.420000E+03	2.345752E-17	1.019847E-18
3.430000E+03	2.380444E-17	1.034539E-18
3.440000E+03	2.415357E-17	1.049314E-18
3.450000E+03	2.450998E-17	1.064391E-18
3.460000E+03	2.487113E-17	1.079660E-18
3.470000E+03	2.523958E-17	1.095231E-18
3.480000E+03	2.561278E-17	1.110993E-18
3.490000E+03	2.599070E-17	1.126945E-18
3.500000E+03	2.637594E-17	1.143198E-18
3.510000E+03	2.676588E-17	1.159639E-18
3.520000E+03	2.716313E-17	1.176381E-18
3.530000E+03	2.756505E-17	1.193308E-18
3.540000E+03	2.797428E-17	1.210535E-18
3.550000E+03	2.839081E-17	1.228060E-18
3.560000E+03	2.881195E-17	1.245767E-18
3.570000E+03	2.924035E-17	1.263770E-18
3.580000E+03	2.967328E-17	1.281950E-18
3.590000E+03	3.011343E-17	1.300424E-18
3.600000E+03	3.056078E-17	1.319189E-18
3.610000E+03	3.101531E-17	1.338245E-18
3.620000E+03	3.147420E-17	1.357468E-18
3.630000E+03	3.194017E-17	1.376977E-18
3.640000E+03	3.241320E-17	1.396769E-18
3.650000E+03	3.289040E-17	1.416721E-18
3.660000E+03	3.337738E-17	1.437072E-18
3.670000E+03	3.386842E-17	1.457575E-18
3.680000E+03	3.436915E-17	1.478474E-18
3.690000E+03	3.487380E-17	1.499517E-18
3.700000E+03	3.538512E-17	1.520826E-18
3.710000E+03	3.590309E-17	1.542395E-18
3.720000E+03	3.643051E-17	1.564348E-18
3.730000E+03	3.696150E-17	1.586428E-18
3.740000E+03	3.749886E-17	1.608757E-18
3.750000E+03	3.804250E-17	1.631330E-18
3.760000E+03	3.859529E-17	1.654270E-18
3.770000E+03	3.915120E-17	1.677317E-18
3.780000E+03	3.971607E-17	1.700722E-18
3.790000E+03	4.028681E-17	1.724350E-18
3.800000E+03	4.086331E-17	1.748197E-18
3.810000E+03	4.144844E-17	1.772386E-18
3.820000E+03	4.203609E-17	1.796653E-18
3.830000E+03	4.263212E-17	1.821250E-18
3.840000E+03	4.323339E-17	1.846041E-18
3.850000E+03	4.383977E-17	1.871020E-18
3.860000E+03	4.445415E-17	1.896311E-18
3.870000E+03	4.507334E-17	1.921775E-18
3.880000E+03	4.570026E-17	1.947538E-18
3.890000E+03	4.632859E-17	1.973329E-18
3.900000E+03	4.696742E-17	1.999534E-18
3.910000E+03	4.760734E-17	2.025754E-18
3.920000E+03	4.825434E-17	2.052242E-18
3.930000E+03	4.890827E-17	2.078990E-18
3.940000E+03	4.956585E-17	2.105859E-18
3.950000E+03	5.022690E-17	2.132842E-18
3.960000E+03	5.089436E-17	2.160061E-18
3.970000E+03	5.156803E-17	2.187508E-18
3.980000E+03	5.224463E-17	2.215043E-18
3.990000E+03	5.292394E-17	2.242658E-18
4.000000E+03	5.361206E-17	2.270608E-18
4.010000E+03	5.429936E-17	2.298486E-18
4.020000E+03	5.499194E-17	2.326550E-18
4.030000E+03	5.568962E-17	2.354792E-18
4.040000E+03	5.638904E-17	2.383068E-18
4.050000E+03	5.709316E-17	2.411504E-18
4.060000E+03	5.780178E-17	2.440091E-18
4.070000E+03	5.851155E-17	2.468686E-18
4.080000E+03	5.922545E-17	2.497415E-18
4.090000E+03	5.994010E-17	2.526135E-18
4.100000E+03	6.065849E-17	2.554972E-18
4.110000E+03	6.138041E-17	2.583916E-18
4.120000E+03	6.210253E-17	2.612826E-18
4.130000E+03	6.282465E-17	2.641695E-18
4.140000E+03	6.355293E-17	2.670780E-18
4.150000E+03	6.427770E-17	2.699674E-18
4.160000E+03	6.500827E-17	2.728769E-18
4.170000E+03	6.573816E-17	2.757791E-18
4.180000E+03	6.646720E-17	2.786734E-18
4.190000E+03	6.720157E-17	2.815856E-18
4.200000E+03	6.793162E-17	2.844753E-18
4.210000E+03	6.866355E-17	2.873684E-18
4.220000E+03	6.939722E-17	2.902642E-18
4.230000E+03	7.012935E-17	2.931491E-18
4.240000E+03	7.086298E-17	2.960356E-18
4.250000E+03	7.159486E-17	2.989103E-18
4.260000E+03	7.232489E-17	3.017726E-18
4.270000E+03	7.305613E-17	3.046353E-18
4.280000E+03	7.378538E-17	3.074851E-18
4.290000E+03	7.451569E-17	3.103346E-18
4.300000E+03	7.524078E-17	3.131576E-18
4.310000E+03	7.596996E-17	3.159930E-18
4.320000E+03	7.669388E-17	3.188017E-18
4.330000E+03	7.741872E-17	3.216095E-18
4.340000E+03	7.813832E-17	3.243907E-18
4.350000E+03	7.885886E-17	3.271710E-18
4.360000E+03	7.957731E-17	3.299379E-18
4.370000E+03	8.029677E-17	3.327041E-18
4.380000E+03	8.101116E-17	3.354444E-18
4.390000E+03	8.172364E-17	3.381719E-18
4.400000E+03	8.243431E-17	3.408871E-18
4.410000E+03	8.314327E-17	3.435902E-18
4.420000E+03	8.385065E-17	3.462820E-18
4.430000E+03	8.455660E-17	3.489629E-18
4.440000E+03	8.525823E-17	3.516211E-18
4.450000E+03	8.596179E-17	3.542822E-18
4.460000E+03	8.666142E-17	3.569222E-18
4.470000E+03	8.735734E-17	3.595419E-18
4.480000E+03	8.805279E-17	3.621546E-18
4.490000E+03	8.874800E-17	3.647614E-18
4.500000E+03	8.944024E-17	3.673509E-18
4.510000E+03	9.012979E-17	3.699244E-18
4.520000E+03	9.081993E-17	3.724952E-18
4.530000E+03	9.150798E-17	3.750523E-18
4.540000E+03	9.219427E-17	3.775972E-18
4.550000E+03	9.288210E-17	3.801433E-18
4.560000E+03	9.356886E-17	3.826798E-18
4.570000E+03	9.425199E-17	3.851963E-18
4.580000E+03	9.493775E-17	3.877184E-18
4.590000E+03	9.562066E-17	3.902238E-18
4.600000E+03	9.630698E-17	3.927378E-18
4.610000E+03	9.699136E-17	3.952386E-18
4.620000E+03	9.767699E-17	3.977393E-18
4.630000E+03	9.836161E-17	4.002306E-18
4.640000E+03	9.905127E-17	4.027371E-18
4.650000E+03	9.973800E-17	4.052264E-18
4.660000E+03	1.004308E-16	4.077348E-18
4.670000E+03	1.011215E-16	4.102294E-18
4.680000E+03	1.018163E-16	4.127354E-18
4.690000E+03	1.025158E-16	4.152549E-18
4.700000E+03	1.032149E-16	4.177670E-18
4.710000E+03	1.039196E-16	4.202966E-18
4.720000E+03	1.046250E-16	4.228230E-18
4.730000E+03	1.053370E-16	4.253707E-18
4.740000E+03	1.060536E-16	4.279312E-18
4.750000E+03	1.067751E-16	4.305059E-18
4.760000E+03	1.074994E-16	4.330860E-18
4.770000E+03	1.082298E-16	4.356849E-18
4.780000E+03	1.089669E-16	4.383050E-18
4.790000E+03	1.097112E-16	4.409478E-18
4.800000E+03	1.104605E-16	4.436050E-18
4.810000E+03	1.112182E-16	4.462895E-18
4.820000E+03	1.119819E-16	4.489923E-18
4.830000E+03	1.127550E-16	4.517265E-18
4.840000E+03	1.135355E-16	4.544838E-18
4.850000E+03	1.143264E-16	4.572767E-18
4.860000E+03	1.151257E-16	4.600969E-18
4.870000E+03	1.159338E-16	4.629455E-18
4.880000E+03	1.167514E-16	4.658256E-18
4.890000E+03	1.175790E-16	4.687386E-18
4.900000E+03	1.184170E-16	4.716868E-18
4.910000E+03	1.192688E-16	4.746827E-18
4.920000E+03	1.201294E-16	4.777068E-18
4.930000E+03	1.210020E-16	4.807719E-18
4.940000E+03	1.218872E-16	4.838796E-18
4.950000E+03	1.227881E-16	4.870426E-18
4.960000E+03	1.236971E-16	4.902301E-18
4.970000E+03	1.246228E-16	4.934767E-18
4.980000E+03	1.255601E-16	4.967616E-18
4.990000E+03	1.265152E-16	5.001091E-18
5.000000E+03	1.274800E-16	5.034873E-18
5.010000E+03	1.284633E-16	5.069306E-18
5.020000E+03	1.294600E-16	5.104188E-18
5.030000E+03	1.304704E-16	5.139530E-18
5.040000E+03	1.315004E-16	5.175561E-18
5.050000E+03	1.325422E-16	5.211970E-18
5.060000E+03	1.336014E-16	5.248984E-18
5.070000E+03	1.346785E-16	5.286612E-18
5.080000E+03	1.357711E-16	5.324760E-18
5.090000E+03	1.368820E-16	5.363539E-18
5.100000E+03	1.380089E-16	5.402851E-18
5.110000E+03	1.391517E-16	5.442699E-18
5.120000E+03	1.403138E-16	5.483205E-18
5.130000E+03	1.414922E-16	5.524257E-18
5.140000E+03	1.426872E-16	5.565860E-18
5.150000E+03	1.439017E-16	5.608131E-18
5.160000E+03	1.451332E-16	5.650959E-18
5.170000E+03	1.463843E-16	5.694457E-18
5.180000E+03	1.476495E-16	5.738398E-18
5.190000E+03	1.489344E-16	5.783007E-18
5.200000E+03	1.502391E-16	5.828280E-18
5.210000E+03	1.515580E-16	5.873994E-18
5.220000E+03	1.528964E-16	5.920363E-18
5.230000E+03	1.542515E-16	5.967270E-18
5.240000E+03	1.556233E-16	6.014715E-18
5.250000E+03	1.570145E-16	6.062798E-18
5.260000E+03	1.584189E-16	6.111279E-18
5.270000E+03	1.598425E-16	6.160390E-18
5.280000E+03	1.612819E-16	6.209997E-18
5.290000E+03	1.627400E-16	6.260206E-18
5.300000E+03	1.642105E-16	6.310776E-18
5.310000E+03	1.656992E-16	6.361930E-18
5.320000E+03	1.672027E-16	6.413535E-18
5.330000E+03	1.687208E-16	6.465579E-18
5.340000E+03	1.702532E-16	6.518051E-18
5.350000E+03	1.718027E-16	6.571055E-18
5.360000E+03	1.733658E-16	6.624458E-18
5.370000E+03	1.749423E-16	6.678250E-18
5.380000E+03	1.765319E-16	6.732415E-18
5.390000E+03	1.781342E-16	6.786941E-18
5.400000E+03	1.797488E-16	6.841812E-18
5.410000E+03	1.813787E-16	6.897137E-18
5.420000E+03	1.830174E-16	6.952668E-18
5.430000E+03	1.846707E-16	7.008629E-18
5.440000E+03	1.863352E-16	7.064886E-18
5.450000E+03	1.880109E-16	7.121435E-18
5.460000E+03	1.896972E-16	7.178260E-18
5.470000E+03	1.913940E-16	7.235349E-18
5.480000E+03	1.931041E-16	7.292813E-18
5.490000E+03	1.948205E-16	7.350381E-18
5.500000E+03	1.965492E-16	7.408282E-18
5.510000E+03	1.982824E-16	7.466222E-18
5.520000E+03	2.000257E-16	7.524407E-18
5.530000E+03	2.017708E-16	7.582531E-18
5.540000E+03	2.035232E-16	7.640797E-18
5.550000E+03	2.052745E-16	7.698891E-18
5.560000E+03	2.070303E-16	7.757018E-18
5.570000E+03	2.087820E-16	7.814864E-18
5.580000E+03	2.105350E-16	7.872629E-18
5.590000E+03	2.122808E-16	7.929997E-18
5.600000E+03	2.140217E-16	7.987048E-18
5.610000E+03	2.157595E-16	8.043860E-18
5.620000E+03	2.174823E-16	8.099983E-18
5.630000E+03	2.191993E-16	8.155763E-18
5.640000E+03	2.209055E-16	8.211019E-18
5.650000E+03	2.225959E-16	8.265564E-18
5.660000E+03	2.242730E-16	8.319489E-18
5.670000E+03	2.259354E-16	8.372750E-18
5.680000E+03	2.275818E-16	8.425299E-18
5.690000E+03	2.292074E-16	8.476962E-18
5.700000E+03	2.308147E-16	8.527830E-18
5.710000E+03	2.323989E-16	8.577732E-18
5.720000E+03	2.339626E-16	8.626766E-18
5.730000E+03	2.355011E-16	8.674758E-18
5.740000E+03	2.370171E-16	8.721817E-18
5.750000E+03	2.385097E-16	8.767910E-18
5.760000E+03	2.399741E-16	8.812864E-18
5.770000E+03	2.414098E-16	8.856661E-18
5.780000E+03	2.428194E-16	8.899407E-18
5.790000E+03	2.441948E-16	8.940805E-18
5.800000E+03	2.455466E-16	8.981245E-18
5.810000E+03	2.468629E-16	9.020299E-18
5.820000E+03	2.481505E-16	9.058219E-18
5.830000E+03	2.494052E-16	9.094853E-18
5.840000E+03	2.506264E-16	9.130188E-18
5.850000E+03	2.518138E-16	9.164214E-18
5.860000E+03	2.529670E-16	9.196922E-18
5.870000E+03	2.540893E-16	9.228440E-18
5.880000E+03	2.551731E-16	9.258486E-18
5.890000E+03	2.562216E-16	9.287195E-18
5.900000E+03	2.572389E-16	9.314709E-18
5.910000E+03	2.582171E-16	9.340749E-18
5.920000E+03	2.591597E-16	9.365451E-18
5.930000E+03	2.600671E-16	9.388829E-18
5.940000E+03	2.609352E-16	9.410744E-18
5.950000E+03	2.617722E-16	9.431491E-18
5.960000E+03	2.625703E-16	9.450800E-18
5.970000E+03	2.633338E-16	9.468824E-18
5.980000E+03	2.640589E-16	9.485437E-18
5.990000E+03	2.647539E-16	9.500942E-18
6.000000E+03	2.654114E-16	9.515074E-18
6.010000E+03	2.660319E-16	9.527855E-18
6.020000E+03	2.666200E-16	9.539458E-18
6.030000E+03	2.671761E-16	9.549901E-18
6.040000E+03	2.676970E-16	9.559076E-18
6.050000E+03	2.681874E-16	9.567152E-18
6.060000E+03	2.686443E-16	9.574026E-18
6.070000E+03	2.690723E-16	9.579868E-18
6.080000E+03	2.694723E-16	9.584715E-18
6.090000E+03	2.698375E-16	9.588324E-18
6.100000E+03	2.701805E-16	9.591157E-18
6.110000E+03	2.704947E-16	9.592974E-18
6.120000E+03	2.707810E-16	9.593816E-18
6.130000E+03	2.710408E-16	9.593732E-18
6.140000E+03	2.712829E-16	9.593042E-18
6.150000E+03	2.714969E-16	9.591377E-18
6.160000E+03	2.716918E-16	9.589065E-18
6.170000E+03	2.718691E-16	9.586154E-18
6.180000E+03	2.720259E-16	9.582550E-18
6.190000E+03	2.721637E-16	9.578307E-18
6.200000E+03	2.722878E-16	9.573616E-18
6.210000E+03	2.723957E-16	9.568390E-18
6.220000E+03	2.724927E-16	9.562819E-18
6.230000E+03	2.725762E-16	9.556814E-18
6.240000E+03	2.726516E-16	9.550566E-18
6.250000E+03	2.727206E-16	9.544134E-18
6.260000E+03	2.727804E-16	9.537427E-18
6.270000E+03	2.728365E-16	9.530633E-18
6.280000E+03	2.728861E-16	9.523664E-18
6.290000E+03	2.729349E-16	9.516714E-18
6.300000E+03	2.729840E-16	9.509826E-18
6.310000E+03	2.730310E-16	9.502915E-18
6.320000E+03	2.730811E-16	9.496164E-18
6.330000E+03	2.731355E-16	9.489618E-18
6.340000E+03	2.731917E-16	9.483186E-18
6.350000E+03	2.732585E-16	9.477182E-18
6.360000E+03	2.733294E-16	9.471374E-18
6.370000E+03	2.734132E-16	9.466073E-18
6.380000E+03	2.735031E-16	9.461042E-18
6.390000E+03	2.736039E-16	9.456444E-18
6.400000E+03	2.737166E-16	9.452319E-18
6.410000E+03	2.738459E-16	9.448828E-18
6.420000E+03	2.739844E-16	9.445715E-18
6.430000E+03	2.741410E-16	9.443286E-18
6.440000E+03	2.743117E-16	9.441407E-18
6.450000E+03	2.744972E-16	9.440100E-18
6.460000E+03	2.747015E-16	9.439506E-18
6.470000E+03	2.749210E-16	9.439496E-18
6.480000E+03	2.751554E-16	9.440065E-18
6.490000E+03	2.754087E-16	9.441345E-18
6.500000E+03	2.756765E-16	9.443190E-18
6.510000E+03	2.759625E-16	9.445726E-18
6.520000E+03	2.762661E-16	9.448936E-18
6.530000E+03	2.765832E-16	9.452673E-18
6.540000E+03	2.769177E-16	9.457076E-18
6.550000E+03	2.772703E-16	9.462167E-18
6.560000E+03	2.776373E-16	9.467823E-18
6.570000E+03	2.780278E-16	9.474353E-18
6.580000E+03	2.784341E-16	9.481492E-18
6.590000E+03	2.788648E-16	9.489541E-18
6.600000E+03	2.793121E-16	9.498231E-18
6.610000E+03	2.797845E-16	9.507851E-18
6.620000E+03	2.802780E-16	9.518264E-18
6.630000E+03	2.807927E-16	9.529474E-18
6.640000E+03	2.813281E-16	9.541471E-18
6.650000E+03	2.818887E-16	9.554399E-18
6.660000E+03	2.824697E-16	9.568097E-18
6.670000E+03	2.830710E-16	9.582559E-18
6.680000E+03	2.836965E-16	9.597913E-18
6.690000E+03	2.843455E-16	9.614142E-18
6.700000E+03	2.850137E-16	9.631088E-18
6.710000E+03	2.857003E-16	9.648730E-18
6.720000E+03	2.864093E-16	9.667198E-18
6.730000E+03	2.871400E-16	9.686472E-18
6.740000E+03	2.878921E-16	9.706536E-18
6.750000E+03	2.886651E-16	9.727370E-18
6.760000E+03	2.894537E-16	9.748800E-18
6.770000E+03	2.902619E-16	9.770960E-18
6.780000E+03	2.910894E-16	9.793832E-18
6.790000E+03	2.919398E-16	9.817542E-18
6.800000E+03	2.928038E-16	9.841774E-18
6.810000E+03	2.936851E-16	9.866655E-18
6.820000E+03	2.945833E-16	9.892167E-18
6.830000E+03	2.955026E-16	9.918448E-18
6.840000E+03	2.964330E-16	9.945169E-18
6.850000E+03	2.973833E-16	9.972619E-18
6.860000E+03	2.983486E-16	1.000063E-17
6.870000E+03	2.993280E-16	1.002918E-17
6.880000E+03	3.003260E-16	1.005842E-17
6.890000E+03	3.013373E-16	1.008816E-17
6.900000E+03	3.023615E-16	1.011840E-17
6.910000E+03	3.034027E-16	1.014926E-17
6.920000E+03	3.044557E-16	1.018059E-17
6.930000E+03	3.055251E-16	1.021252E-17
6.940000E+03	3.066053E-16	1.024488E-17
6.950000E+03	3.076960E-16	1.027764E-17
6.960000E+03	3.088016E-16	1.031097E-17
6.970000E+03	3.099217E-16	1.034484E-17
6.980000E+03	3.110509E-16	1.037908E-17
6.990000E+03	3.121937E-16	1.041383E-17
7.000000E+03	3.133446E-16	1.044892E-17
7.010000E+03	3.145083E-16	1.048449E-17
7.020000E+03	3.156842E-16	1.052053E-17
7.030000E+03	3.168669E-16	1.055686E-17
7.040000E+03	3.180610E-16	1.059364E-17
7.050000E+03	3.192661E-16	1.063084E-17
7.060000E+03	3.204817E-16	1.066846E-17
7.070000E+03	3.217021E-16	1.070630E-17
7.080000E+03	3.229322E-16	1.074453E-17
7.090000E+03	3.241659E-16	1.078294E-17
7.100000E+03	3.254138E-16	1.082190E-17
7.110000E+03	3.266644E-16	1.086100E-17
7.120000E+03	3.279229E-16	1.090044E-17
7.130000E+03	3.291886E-16	1.094018E-17
7.140000E+03	3.304611E-16	1.098022E-17
7.150000E+03	3.317401E-16	1.102054E-17
7.160000E+03	3.330193E-16	1.106093E-17
7.170000E+03	3.343038E-16	1.110158E-17
7.180000E+03	3.355935E-16	1.114247E-17
7.190000E+03	3.368877E-16	1.118357E-17
7.200000E+03	3.381859E-16	1.122489E-17
7.210000E+03	3.394878E-16	1.126640E-17
7.220000E+03	3.407929E-16	1.130809E-17
7.230000E+03	3.420951E-16	1.134976E-17
7.240000E+03	3.434055E-16	1.139177E-17
7.250000E+03	3.447121E-16	1.143374E-17
7.260000E+03	3.460202E-16	1.147584E-17
7.270000E+03	3.473357E-16	1.151826E-17
7.280000E+03	3.486461E-16	1.156059E-17
7.290000E+03	3.499570E-16	1.160302E-17
7.300000E+03	3.512683E-16	1.164555E-17
7.310000E+03	3.525796E-16	1.168816E-17
7.320000E+03	3.538905E-16	1.173084E-17
7.330000E+03	3.551946E-16	1.177338E-17
7.340000E+03	3.565040E-16	1.181619E-17
7.350000E+03	3.578125E-16	1.185906E-17
7.360000E+03	3.591133E-16	1.190176E-17
7.370000E+03	3.604189E-16	1.194471E-17
7.380000E+03	3.617165E-16	1.198749E-17
7.390000E+03	3.630186E-16	1.203051E-17
7.400000E+03	3.643122E-16	1.207335E-17
7.410000E+03	3.656035E-16	1.211621E-17
7.420000E+03	3.668992E-16	1.215932E-17
7.430000E+03	3.681858E-16	1.220222E-17
7.440000E+03	3.694697E-16	1.224513E-17
7.450000E+03	3.707510E-16	1.228807E-17
7.460000E+03	3.720362E-16	1.233124E-17
7.470000E+03	3.733117E-16	1.237419E-17
7.480000E+03	3.745844E-16	1.241716E-17
7.490000E+03	3.758539E-16	1.246013E-17
7.500000E+03	3.771204E-16	1.250312E-17
7.510000E+03	3.783836E-16	1.254611E-17
7.520000E+03	3.796435E-16	1.258911E-17
7.530000E+03	3.808931E-16	1.263189E-17
7.540000E+03	3.821465E-16	1.267491E-17
7.550000E+03	3.833962E-16	1.271793E-17
7.560000E+03	3.846425E-16	1.276096E-17
7.570000E+03	3.858854E-16	1.280400E-17
7.580000E+03	3.871175E-16	1.284681E-17
7.590000E+03	3.883532E-16	1.288988E-17
7.600000E+03	3.895853E-16	1.293295E-17
7.610000E+03	3.908062E-16	1.297579E-17
7.620000E+03	3.920309E-16	1.301889E-17
7.630000E+03	3.932518E-16	1.306200E-17
7.640000E+03	3.944615E-16	1.310488E-17
7.650000E+03	3.956750E-16	1.314802E-17
7.660000E+03	3.968769E-16	1.319093E-17
7.670000E+03	3.980826E-16	1.323411E-17
7.680000E+03	3.992767E-16	1.327706E-17
7.690000E+03	4.004745E-16	1.332028E-17
7.700000E+03	4.016603E-16	1.336325E-17
7.710000E+03	4.028420E-16	1.340625E-17
7.720000E+03	4.040270E-16	1.344952E-17
7.730000E+03	4.051996E-16	1.349253E-17
7.740000E+03	4.063675E-16	1.353555E-17
7.750000E+03	4.075380E-16	1.357883E-17
7.760000E+03	4.086952E-16	1.362183E-17
