#wls	flux	fluxerr
1.600000E+03	6.643211E-15	7.667807E-17
1.640000E+03	6.725678E-15	7.726438E-17
1.680000E+03	6.801735E-15	7.776089E-17
1.720000E+03	6.871563E-15	7.817042E-17
1.760000E+03	6.936051E-15	7.850380E-17
1.800000E+03	6.995574E-15	7.876592E-17
1.840000E+03	7.051224E-15	7.896962E-17
1.880000E+03	7.104469E-15	7.913176E-17
1.920000E+03	7.156446E-15	7.926515E-17
1.960000E+03	7.209215E-15	7.939252E-17
2.000000E+03	7.264869E-15	7.953645E-17
2.040000E+03	7.325536E-15	7.971937E-17
2.080000E+03	7.393740E-15	7.996739E-17
2.120000E+03	7.472042E-15	8.030631E-17
2.160000E+03	7.562846E-15	8.075954E-17
2.200000E+03	7.668764E-15	8.135195E-17
2.240000E+03	7.791872E-15	8.210194E-17
2.280000E+03	7.933872E-15	8.302335E-17
2.320000E+03	8.095715E-15	8.412160E-17
2.360000E+03	8.277760E-15	8.539564E-17
2.400000E+03	8.479578E-15	8.683614E-17
2.440000E+03	8.700496E-15	8.843137E-17
2.480000E+03	8.939972E-15	9.017101E-17
2.520000E+03	9.197402E-15	9.204427E-17
2.560000E+03	9.472116E-15	9.403983E-17
2.600000E+03	9.763727E-15	9.614938E-17
2.640000E+03	1.007237E-14	9.836982E-17
2.680000E+03	1.039863E-14	1.007023E-16
2.720000E+03	1.074337E-14	1.031505E-16
2.760000E+03	1.110827E-14	1.057258E-16
2.800000E+03	1.149596E-14	1.084478E-16
2.840000E+03	1.190831E-14	1.113283E-16
2.880000E+03	1.234706E-14	1.143774E-16
2.920000E+03	1.281328E-14	1.175984E-16
2.960000E+03	1.330753E-14	1.209900E-16
3.000000E+03	1.382892E-14	1.245376E-16
3.010000E+03	1.396353E-14	1.254484E-16
3.020000E+03	1.409937E-14	1.263643E-16
3.030000E+03	1.423697E-14	1.272899E-16
3.040000E+03	1.437587E-14	1.282212E-16
3.050000E+03	1.451618E-14	1.291591E-16
3.060000E+03	1.465783E-14	1.301026E-16
3.070000E+03	1.480055E-14	1.310496E-16
3.080000E+03	1.494445E-14	1.320009E-16
3.090000E+03	1.508943E-14	1.329555E-16
3.100000E+03	1.523522E-14	1.339111E-16
3.110000E+03	1.538189E-14	1.348682E-16
3.120000E+03	1.552917E-14	1.358245E-16
3.130000E+03	1.567692E-14	1.367788E-16
3.140000E+03	1.582505E-14	1.377302E-16
3.150000E+03	1.597325E-14	1.386761E-16
3.160000E+03	1.612156E-14	1.396168E-16
3.170000E+03	1.626967E-14	1.405498E-16
3.180000E+03	1.641724E-14	1.414721E-16
3.190000E+03	1.656433E-14	1.423843E-16
3.200000E+03	1.671038E-14	1.432818E-16
3.210000E+03	1.685540E-14	1.441647E-16
3.220000E+03	1.699888E-14	1.450288E-16
3.230000E+03	1.714079E-14	1.458739E-16
3.240000E+03	1.728058E-14	1.466956E-16
3.250000E+03	1.741805E-14	1.474923E-16
3.260000E+03	1.755277E-14	1.482607E-16
3.270000E+03	1.768437E-14	1.489979E-16
3.280000E+03	1.781259E-14	1.497018E-16
3.290000E+03	1.793700E-14	1.503693E-16
3.300000E+03	1.805701E-14	1.509955E-16
3.310000E+03	1.817216E-14	1.515772E-16
3.320000E+03	1.828218E-14	1.521123E-16
3.330000E+03	1.838646E-14	1.525962E-16
3.340000E+03	1.848456E-14	1.530257E-16
3.350000E+03	1.857603E-14	1.533976E-16
3.360000E+03	1.866031E-14	1.537076E-16
3.370000E+03	1.873698E-14	1.539529E-16
3.380000E+03	1.880570E-14	1.541312E-16
3.390000E+03	1.886582E-14	1.542377E-16
3.400000E+03	1.891724E-14	1.542723E-16
3.410000E+03	1.895963E-14	1.542327E-16
3.420000E+03	1.899270E-14	1.541174E-16
3.430000E+03	1.901629E-14	1.539256E-16
3.440000E+03	1.903064E-14	1.536599E-16
3.450000E+03	1.903547E-14	1.533186E-16
3.460000E+03	1.903142E-14	1.529076E-16
3.470000E+03	1.901844E-14	1.524269E-16
3.480000E+03	1.899722E-14	1.518828E-16
3.490000E+03	1.896812E-14	1.512786E-16
3.500000E+03	1.893219E-14	1.506231E-16
3.510000E+03	1.888997E-14	1.499212E-16
3.520000E+03	1.884267E-14	1.491828E-16
3.530000E+03	1.879096E-14	1.484135E-16
3.540000E+03	1.873627E-14	1.476249E-16
3.550000E+03	1.867976E-14	1.468263E-16
3.560000E+03	1.862227E-14	1.460244E-16
3.570000E+03	1.856536E-14	1.452316E-16
3.580000E+03	1.850990E-14	1.444546E-16
3.590000E+03	1.845750E-14	1.437059E-16
3.600000E+03	1.840926E-14	1.429940E-16
3.610000E+03	1.836687E-14	1.423317E-16
3.620000E+03	1.833209E-14	1.417323E-16
3.630000E+03	1.830656E-14	1.412081E-16
3.640000E+03	1.829135E-14	1.407667E-16
3.650000E+03	1.828749E-14	1.404157E-16
3.660000E+03	1.829520E-14	1.401559E-16
3.670000E+03	1.831413E-14	1.399840E-16
3.680000E+03	1.834351E-14	1.398938E-16
3.690000E+03	1.838213E-14	1.398753E-16
3.700000E+03	1.842821E-14	1.399147E-16
3.710000E+03	1.848025E-14	1.400001E-16
3.720000E+03	1.853652E-14	1.401183E-16
3.730000E+03	1.859615E-14	1.402623E-16
3.740000E+03	1.865866E-14	1.404287E-16
3.750000E+03	1.872454E-14	1.406207E-16
3.760000E+03	1.879533E-14	1.408499E-16
3.770000E+03	1.887397E-14	1.411380E-16
3.780000E+03	1.896403E-14	1.415112E-16
3.790000E+03	1.907009E-14	1.420033E-16
3.800000E+03	1.919752E-14	1.426533E-16
3.810000E+03	1.935162E-14	1.434996E-16
3.820000E+03	1.953718E-14	1.445765E-16
3.830000E+03	1.975850E-14	1.459144E-16
3.840000E+03	2.001870E-14	1.475346E-16
3.850000E+03	2.031925E-14	1.494464E-16
3.860000E+03	2.065987E-14	1.516461E-16
3.870000E+03	2.103837E-14	1.541157E-16
3.880000E+03	2.145079E-14	1.568251E-16
3.890000E+03	2.189109E-14	1.597287E-16
3.900000E+03	2.235163E-14	1.627698E-16
3.910000E+03	2.282282E-14	1.658782E-16
3.920000E+03	2.329417E-14	1.689773E-16
3.930000E+03	2.375422E-14	1.719844E-16
3.940000E+03	2.419126E-14	1.748156E-16
3.950000E+03	2.459418E-14	1.773917E-16
3.960000E+03	2.495274E-14	1.796408E-16
3.970000E+03	2.525835E-14	1.815029E-16
3.980000E+03	2.550442E-14	1.829330E-16
3.990000E+03	2.568651E-14	1.839019E-16
4.000000E+03	2.580247E-14	1.843968E-16
4.010000E+03	2.585175E-14	1.844164E-16
4.020000E+03	2.583528E-14	1.839698E-16
4.030000E+03	2.575508E-14	1.830740E-16
4.040000E+03	2.561394E-14	1.817511E-16
4.050000E+03	2.541554E-14	1.800296E-16
4.060000E+03	2.516389E-14	1.779397E-16
4.070000E+03	2.486392E-14	1.755182E-16
4.080000E+03	2.452166E-14	1.728091E-16
4.090000E+03	2.414405E-14	1.698628E-16
4.100000E+03	2.373846E-14	1.667320E-16
4.110000E+03	2.331416E-14	1.634827E-16
4.120000E+03	2.288072E-14	1.601822E-16
4.130000E+03	2.244833E-14	1.569021E-16
4.140000E+03	2.202805E-14	1.537193E-16
4.150000E+03	2.163117E-14	1.507117E-16
4.160000E+03	2.126833E-14	1.479528E-16
4.170000E+03	2.095078E-14	1.455192E-16
4.180000E+03	2.068833E-14	1.434773E-16
4.190000E+03	2.049013E-14	1.418889E-16
4.200000E+03	2.036355E-14	1.408028E-16
4.210000E+03	2.031424E-14	1.402556E-16
4.220000E+03	2.034475E-14	1.402627E-16
4.230000E+03	2.045503E-14	1.408213E-16
4.240000E+03	2.064073E-14	1.418993E-16
4.250000E+03	2.089340E-14	1.434365E-16
4.260000E+03	2.119953E-14	1.453385E-16
4.270000E+03	2.154152E-14	1.474836E-16
4.280000E+03	2.189762E-14	1.497220E-16
4.290000E+03	2.224317E-14	1.518854E-16
4.300000E+03	2.255179E-14	1.537943E-16
4.310000E+03	2.279829E-14	1.552782E-16
4.320000E+03	2.296000E-14	1.561846E-16
4.330000E+03	2.302083E-14	1.564066E-16
4.340000E+03	2.297179E-14	1.558857E-16
4.350000E+03	2.281395E-14	1.546319E-16
4.360000E+03	2.255698E-14	1.527131E-16
4.370000E+03	2.221962E-14	1.502584E-16
4.380000E+03	2.182680E-14	1.474378E-16
4.390000E+03	2.140793E-14	1.444507E-16
4.400000E+03	2.099300E-14	1.414996E-16
4.410000E+03	2.061114E-14	1.387802E-16
4.420000E+03	2.028775E-14	1.364625E-16
4.430000E+03	2.004356E-14	1.346843E-16
4.440000E+03	1.989393E-14	1.335470E-16
4.450000E+03	1.984814E-14	1.331108E-16
4.460000E+03	1.990984E-14	1.333981E-16
4.470000E+03	2.007703E-14	1.343932E-16
4.480000E+03	2.034176E-14	1.360413E-16
4.490000E+03	2.069143E-14	1.382562E-16
4.500000E+03	2.110770E-14	1.409142E-16
4.510000E+03	2.156835E-14	1.438658E-16
4.520000E+03	2.204719E-14	1.469359E-16
4.530000E+03	2.251576E-14	1.499348E-16
4.540000E+03	2.294443E-14	1.526656E-16
4.550000E+03	2.330506E-14	1.549419E-16
4.560000E+03	2.357283E-14	1.565999E-16
4.570000E+03	2.372729E-14	1.575054E-16
4.580000E+03	2.375563E-14	1.575750E-16
4.590000E+03	2.365197E-14	1.567718E-16
4.600000E+03	2.341861E-14	1.551127E-16
4.610000E+03	2.306583E-14	1.526674E-16
4.620000E+03	2.261029E-14	1.495479E-16
4.630000E+03	2.207332E-14	1.458961E-16
4.640000E+03	2.147986E-14	1.418779E-16
4.650000E+03	2.085622E-14	1.376675E-16
4.660000E+03	2.022835E-14	1.334362E-16
4.670000E+03	1.962021E-14	1.293419E-16
4.680000E+03	1.905338E-14	1.255261E-16
4.690000E+03	1.854599E-14	1.221078E-16
4.700000E+03	1.811259E-14	1.191818E-16
4.710000E+03	1.776408E-14	1.168186E-16
4.720000E+03	1.750743E-14	1.150631E-16
4.730000E+03	1.734668E-14	1.139405E-16
4.740000E+03	1.728192E-14	1.134503E-16
4.750000E+03	1.731082E-14	1.135762E-16
4.760000E+03	1.742786E-14	1.142808E-16
4.770000E+03	1.762505E-14	1.155108E-16
4.780000E+03	1.789149E-14	1.171940E-16
4.790000E+03	1.821457E-14	1.192472E-16
4.800000E+03	1.857906E-14	1.215699E-16
4.810000E+03	1.896842E-14	1.240539E-16
4.820000E+03	1.936541E-14	1.265860E-16
4.830000E+03	1.975225E-14	1.290501E-16
4.840000E+03	2.011253E-14	1.313391E-16
4.850000E+03	2.043141E-14	1.333566E-16
4.860000E+03	2.069735E-14	1.350277E-16
4.870000E+03	2.090159E-14	1.362955E-16
4.880000E+03	2.103962E-14	1.371316E-16
4.890000E+03	2.111032E-14	1.375289E-16
4.900000E+03	2.111548E-14	1.375001E-16
4.910000E+03	2.105936E-14	1.370731E-16
4.920000E+03	2.094738E-14	1.362839E-16
4.930000E+03	2.078544E-14	1.351712E-16
4.940000E+03	2.057994E-14	1.337771E-16
4.950000E+03	2.033719E-14	1.321429E-16
4.960000E+03	2.006318E-14	1.303078E-16
4.970000E+03	1.976436E-14	1.283139E-16
4.980000E+03	1.944747E-14	1.262050E-16
4.990000E+03	1.912011E-14	1.240306E-16
5.000000E+03	1.879047E-14	1.218439E-16
5.010000E+03	1.846719E-14	1.197008E-16
5.020000E+03	1.815983E-14	1.176631E-16
5.030000E+03	1.787678E-14	1.157851E-16
5.040000E+03	1.762661E-14	1.141221E-16
5.050000E+03	1.741589E-14	1.127162E-16
5.060000E+03	1.724971E-14	1.116002E-16
5.070000E+03	1.713094E-14	1.107923E-16
5.080000E+03	1.706021E-14	1.102962E-16
5.090000E+03	1.703601E-14	1.101017E-16
5.100000E+03	1.705506E-14	1.101876E-16
5.110000E+03	1.711245E-14	1.105217E-16
5.120000E+03	1.720214E-14	1.110647E-16
5.130000E+03	1.731766E-14	1.117749E-16
5.140000E+03	1.745208E-14	1.126074E-16
5.150000E+03	1.759921E-14	1.135220E-16
5.160000E+03	1.775268E-14	1.144778E-16
5.170000E+03	1.790747E-14	1.154424E-16
5.180000E+03	1.805889E-14	1.163856E-16
5.190000E+03	1.820290E-14	1.172813E-16
5.200000E+03	1.833574E-14	1.181055E-16
5.210000E+03	1.845445E-14	1.188393E-16
5.220000E+03	1.855576E-14	1.194616E-16
5.230000E+03	1.863682E-14	1.199543E-16
5.240000E+03	1.869450E-14	1.202974E-16
5.250000E+03	1.872624E-14	1.204744E-16
5.260000E+03	1.872982E-14	1.204714E-16
5.270000E+03	1.870302E-14	1.202742E-16
5.280000E+03	1.864507E-14	1.198779E-16
5.290000E+03	1.855561E-14	1.192804E-16
5.300000E+03	1.843545E-14	1.184871E-16
5.310000E+03	1.828681E-14	1.175123E-16
5.320000E+03	1.811197E-14	1.163707E-16
5.330000E+03	1.791507E-14	1.150891E-16
5.340000E+03	1.770004E-14	1.136927E-16
5.350000E+03	1.747169E-14	1.122125E-16
5.360000E+03	1.723482E-14	1.106792E-16
5.370000E+03	1.699404E-14	1.091225E-16
5.380000E+03	1.675399E-14	1.075723E-16
5.390000E+03	1.651868E-14	1.060541E-16
5.400000E+03	1.629131E-14	1.045884E-16
5.410000E+03	1.607442E-14	1.031917E-16
5.420000E+03	1.586967E-14	1.018745E-16
5.430000E+03	1.567796E-14	1.006425E-16
5.440000E+03	1.549890E-14	9.949321E-17
5.450000E+03	1.533181E-14	9.842223E-17
5.460000E+03	1.517535E-14	9.742082E-17
5.470000E+03	1.502766E-14	9.647700E-17
5.480000E+03	1.488674E-14	9.557784E-17
5.490000E+03	1.475092E-14	9.471252E-17
5.500000E+03	1.461839E-14	9.386943E-17
5.510000E+03	1.448763E-14	9.303866E-17
5.520000E+03	1.435786E-14	9.221526E-17
5.530000E+03	1.422790E-14	9.139147E-17
5.540000E+03	1.409757E-14	9.056614E-17
5.550000E+03	1.396640E-14	8.973620E-17
5.560000E+03	1.383461E-14	8.890293E-17
5.570000E+03	1.370234E-14	8.806723E-17
5.580000E+03	1.357000E-14	8.723170E-17
5.590000E+03	1.343849E-14	8.640205E-17
5.600000E+03	1.330877E-14	8.558437E-17
5.610000E+03	1.318155E-14	8.478325E-17
5.620000E+03	1.305850E-14	8.400927E-17
5.630000E+03	1.294044E-14	8.326783E-17
5.640000E+03	1.282871E-14	8.256749E-17
5.650000E+03	1.272425E-14	8.191424E-17
5.660000E+03	1.262789E-14	8.131351E-17
5.670000E+03	1.254024E-14	8.076912E-17
5.680000E+03	1.246161E-14	8.028311E-17
5.690000E+03	1.239181E-14	7.985435E-17
5.700000E+03	1.233082E-14	7.948260E-17
5.710000E+03	1.227834E-14	7.916605E-17
5.720000E+03	1.223374E-14	7.890066E-17
5.730000E+03	1.219676E-14	7.868471E-17
5.740000E+03	1.216698E-14	7.851554E-17
5.750000E+03	1.214370E-14	7.838866E-17
5.760000E+03	1.212656E-14	7.830176E-17
5.770000E+03	1.211495E-14	7.825093E-17
5.780000E+03	1.210798E-14	7.823037E-17
5.790000E+03	1.210457E-14	7.823324E-17
5.800000E+03	1.210375E-14	7.825327E-17
5.810000E+03	1.210425E-14	7.828210E-17
5.820000E+03	1.210483E-14	7.831188E-17
5.830000E+03	1.210438E-14	7.833535E-17
5.840000E+03	1.210183E-14	7.834552E-17
5.850000E+03	1.209642E-14	7.833752E-17
5.860000E+03	1.208752E-14	7.830720E-17
5.870000E+03	1.207498E-14	7.825357E-17
5.880000E+03	1.205861E-14	7.817541E-17
5.890000E+03	1.203849E-14	7.807314E-17
5.900000E+03	1.201474E-14	7.794750E-17
5.910000E+03	1.198777E-14	7.780126E-17
5.920000E+03	1.195788E-14	7.763614E-17
5.930000E+03	1.192558E-14	7.745557E-17
5.940000E+03	1.189133E-14	7.726245E-17
5.950000E+03	1.185583E-14	7.706141E-17
5.960000E+03	1.182002E-14	7.685843E-17
5.970000E+03	1.178448E-14	7.665730E-17
5.980000E+03	1.175022E-14	7.646467E-17
5.990000E+03	1.171795E-14	7.628508E-17
6.000000E+03	1.168856E-14	7.612442E-17
6.010000E+03	1.166240E-14	7.598502E-17
6.020000E+03	1.164018E-14	7.587141E-17
6.030000E+03	1.162173E-14	7.578260E-17
6.040000E+03	1.160736E-14	7.572072E-17
6.050000E+03	1.159636E-14	7.568102E-17
6.060000E+03	1.158830E-14	7.566078E-17
6.070000E+03	1.158205E-14	7.565271E-17
6.080000E+03	1.157627E-14	7.564809E-17
6.090000E+03	1.156941E-14	7.563669E-17
6.100000E+03	1.155929E-14	7.560432E-17
6.110000E+03	1.154351E-14	7.553532E-17
6.120000E+03	1.151956E-14	7.541308E-17
6.130000E+03	1.148451E-14	7.521850E-17
6.140000E+03	1.143537E-14	7.493175E-17
6.150000E+03	1.136943E-14	7.453505E-17
6.160000E+03	1.128398E-14	7.401038E-17
6.170000E+03	1.117674E-14	7.334272E-17
6.180000E+03	1.104637E-14	7.252296E-17
6.190000E+03	1.089221E-14	7.154659E-17
6.200000E+03	1.071441E-14	7.041433E-17
6.210000E+03	1.051415E-14	6.913369E-17
6.220000E+03	1.029369E-14	6.771936E-17
6.230000E+03	1.005602E-14	6.619076E-17
6.240000E+03	9.805310E-15	6.457509E-17
6.250000E+03	9.546522E-15	6.290498E-17
6.260000E+03	9.285305E-15	6.121752E-17
6.270000E+03	9.028160E-15	5.955554E-17
6.280000E+03	8.782163E-15	5.796576E-17
6.290000E+03	8.555143E-15	5.650000E-17
6.300000E+03	8.355472E-15	5.521375E-17
6.310000E+03	8.191985E-15	5.416574E-17
6.320000E+03	8.073906E-15	5.341740E-17
6.330000E+03	8.010792E-15	5.303254E-17
6.340000E+03	8.012389E-15	5.307640E-17
6.350000E+03	8.088956E-15	5.361780E-17
6.360000E+03	8.250862E-15	5.472650E-17
6.370000E+03	8.508808E-15	5.647469E-17
6.380000E+03	8.873507E-15	5.893486E-17
6.390000E+03	9.355235E-15	6.217684E-17
6.400000E+03	9.962870E-15	6.626141E-17
6.410000E+03	1.070278E-14	7.123292E-17
6.420000E+03	1.157689E-14	7.710615E-17
6.430000E+03	1.258005E-14	8.384914E-17
6.440000E+03	1.369850E-14	9.137219E-17
6.450000E+03	1.490752E-14	9.951231E-17
6.460000E+03	1.617194E-14	1.080362E-16
6.470000E+03	1.744643E-14	1.166420E-16
6.480000E+03	1.868003E-14	1.249890E-16
6.490000E+03	1.981953E-14	1.327208E-16
6.500000E+03	2.081604E-14	1.395081E-16
6.510000E+03	2.162838E-14	1.450726E-16
6.520000E+03	2.222885E-14	1.492254E-16
6.530000E+03	2.260256E-14	1.518630E-16
6.540000E+03	2.274932E-14	1.529802E-16
6.550000E+03	2.268130E-14	1.526550E-16
6.560000E+03	2.242036E-14	1.510308E-16
6.570000E+03	2.199481E-14	1.482950E-16
6.580000E+03	2.143600E-14	1.446560E-16
6.590000E+03	2.077650E-14	1.403314E-16
6.600000E+03	2.004671E-14	1.355246E-16
6.610000E+03	1.927436E-14	1.304218E-16
6.620000E+03	1.848362E-14	1.251859E-16
6.630000E+03	1.769361E-14	1.199458E-16
6.640000E+03	1.691995E-14	1.148075E-16
6.650000E+03	1.617493E-14	1.098546E-16
6.660000E+03	1.546641E-14	1.051411E-16
6.670000E+03	1.479997E-14	1.007053E-16
6.680000E+03	1.417878E-14	9.656973E-17
6.690000E+03	1.360417E-14	9.274409E-17
6.700000E+03	1.307599E-14	8.922824E-17
6.710000E+03	1.259307E-14	8.601502E-17
6.720000E+03	1.215345E-14	8.309185E-17
6.730000E+03	1.175450E-14	8.044151E-17
6.740000E+03	1.139371E-14	7.804757E-17
6.750000E+03	1.106786E-14	7.588870E-17
6.760000E+03	1.077449E-14	7.394857E-17
6.770000E+03	1.051062E-14	7.220743E-17
6.780000E+03	1.027343E-14	7.064644E-17
6.790000E+03	1.006080E-14	6.925144E-17
6.800000E+03	9.870055E-15	6.800451E-17
6.810000E+03	9.699113E-15	6.689171E-17
6.820000E+03	9.546241E-15	6.590147E-17
6.830000E+03	9.409441E-15	6.502030E-17
6.840000E+03	9.287523E-15	6.424030E-17
6.850000E+03	9.178960E-15	6.355118E-17
6.860000E+03	9.082328E-15	6.294332E-17
6.870000E+03	8.996734E-15	6.241077E-17
6.880000E+03	8.920571E-15	6.194257E-17
6.890000E+03	8.853027E-15	6.153327E-17
6.900000E+03	8.792865E-15	6.117442E-17
6.910000E+03	8.739183E-15	6.085989E-17
6.920000E+03	8.690669E-15	6.058064E-17
6.930000E+03	8.646513E-15	6.033114E-17
6.940000E+03	8.605830E-15	6.010528E-17
6.950000E+03	8.567823E-15	5.989756E-17
6.960000E+03	8.531649E-15	5.970212E-17
6.970000E+03	8.496712E-15	5.951483E-17
6.980000E+03	8.462664E-15	5.933326E-17
6.990000E+03	8.428962E-15	5.915362E-17
7.000000E+03	8.395158E-15	5.897277E-17
7.010000E+03	8.361328E-15	5.879124E-17
7.020000E+03	8.327042E-15	5.860600E-17
7.030000E+03	8.292378E-15	5.841759E-17
7.040000E+03	8.257325E-15	5.822593E-17
7.050000E+03	8.221775E-15	5.803024E-17
7.060000E+03	8.185799E-15	5.783102E-17
7.070000E+03	8.149497E-15	5.762897E-17
7.080000E+03	8.113136E-15	5.742597E-17
7.090000E+03	8.076711E-15	5.722199E-17
7.100000E+03	8.040244E-15	5.701719E-17
7.110000E+03	8.004065E-15	5.681391E-17
7.120000E+03	7.968384E-15	5.661366E-17
7.130000E+03	7.933430E-15	5.641807E-17
7.140000E+03	7.899293E-15	5.622780E-17
7.150000E+03	7.866198E-15	5.604448E-17
7.160000E+03	7.834487E-15	5.587058E-17
7.170000E+03	7.804180E-15	5.570627E-17
7.180000E+03	7.775392E-15	5.555241E-17
7.190000E+03	7.748184E-15	5.540947E-17
7.200000E+03	7.722718E-15	5.527864E-17
7.210000E+03	7.698684E-15	5.515774E-17
7.220000E+03	7.676171E-15	5.504746E-17
7.230000E+03	7.655098E-15	5.494725E-17
7.240000E+03	7.635362E-15	5.485640E-17
7.250000E+03	7.616694E-15	5.477302E-17
7.260000E+03	7.599230E-15	5.469811E-17
7.270000E+03	7.582502E-15	5.462834E-17
7.280000E+03	7.566297E-15	5.456220E-17
7.290000E+03	7.550513E-15	5.449896E-17
7.300000E+03	7.534874E-15	5.443665E-17
7.310000E+03	7.519075E-15	5.437309E-17
7.320000E+03	7.502644E-15	5.430487E-17
7.330000E+03	7.485230E-15	5.422943E-17
7.340000E+03	7.466753E-15	5.414619E-17
7.350000E+03	7.446546E-15	5.405030E-17
7.360000E+03	7.424373E-15	5.394002E-17
7.370000E+03	7.399708E-15	5.381150E-17
7.380000E+03	7.372483E-15	5.366420E-17
7.390000E+03	7.342074E-15	5.349353E-17
7.400000E+03	7.308479E-15	5.329944E-17
7.410000E+03	7.271315E-15	5.307906E-17
7.420000E+03	7.230554E-15	5.283213E-17
7.430000E+03	7.185956E-15	5.255683E-17
7.440000E+03	7.137658E-15	5.225409E-17
7.450000E+03	7.085744E-15	5.192446E-17
7.460000E+03	7.030262E-15	5.156823E-17
7.470000E+03	6.971788E-15	5.118956E-17
7.480000E+03	6.910576E-15	5.079024E-17
7.490000E+03	6.846979E-15	5.037284E-17
7.500000E+03	6.781868E-15	4.994371E-17
7.510000E+03	6.715632E-15	4.950572E-17
7.520000E+03	6.649163E-15	4.906539E-17
7.530000E+03	6.583281E-15	4.862882E-17
7.540000E+03	6.518747E-15	4.820163E-17
7.550000E+03	6.456652E-15	4.779194E-17
7.560000E+03	6.397975E-15	4.740707E-17
7.570000E+03	6.343555E-15	4.705331E-17
7.580000E+03	6.294454E-15	4.673867E-17
7.590000E+03	6.251397E-15	4.646866E-17
7.600000E+03	6.215275E-15	4.625008E-17
7.610000E+03	6.186728E-15	4.608785E-17
7.620000E+03	6.166241E-15	4.598580E-17
7.630000E+03	6.153975E-15	4.594534E-17
7.640000E+03	6.150254E-15	4.596910E-17
7.650000E+03	6.154600E-15	4.605374E-17
7.660000E+03	6.166760E-15	4.619761E-17
7.670000E+03	6.185772E-15	4.639370E-17
7.680000E+03	6.210545E-15	4.663402E-17
7.690000E+03	6.239937E-15	4.691017E-17
7.700000E+03	6.272422E-15	4.721082E-17
7.710000E+03	6.306571E-15	4.752530E-17
7.720000E+03	6.341254E-15	4.784518E-17
7.730000E+03	6.374850E-15	4.815827E-17
7.740000E+03	6.406276E-15	4.845635E-17
7.750000E+03	6.434455E-15	4.873126E-17
7.760000E+03	6.458493E-15	4.897614E-17
