#wls	flux	fluxerr
1.600000E+03	3.127698E-16	3.598276E-18
1.640000E+03	3.151058E-16	3.625150E-18
1.680000E+03	3.176007E-16	3.653853E-18
1.720000E+03	3.205110E-16	3.687335E-18
1.760000E+03	3.238395E-16	3.725627E-18
1.800000E+03	3.274589E-16	3.767266E-18
1.840000E+03	3.315000E-16	3.813757E-18
1.880000E+03	3.359645E-16	3.865119E-18
1.920000E+03	3.407223E-16	3.919855E-18
1.960000E+03	3.461692E-16	3.982519E-18
2.000000E+03	3.519104E-16	4.048569E-18
2.040000E+03	3.583442E-16	4.122586E-18
2.080000E+03	3.652047E-16	4.201513E-18
2.120000E+03	3.726246E-16	4.286875E-18
2.160000E+03	3.806024E-16	4.378656E-18
2.200000E+03	3.892714E-16	4.478388E-18
2.240000E+03	3.984930E-16	4.584478E-18
2.280000E+03	4.083989E-16	4.698441E-18
2.320000E+03	4.189838E-16	4.820215E-18
2.360000E+03	4.302408E-16	4.949722E-18
2.400000E+03	4.422997E-16	5.088453E-18
2.440000E+03	4.548734E-16	5.233108E-18
2.480000E+03	4.683665E-16	5.388339E-18
2.520000E+03	4.824881E-16	5.550801E-18
2.560000E+03	4.975030E-16	5.723541E-18
2.600000E+03	5.135371E-16	5.908005E-18
2.640000E+03	5.304357E-16	6.102415E-18
2.680000E+03	5.484648E-16	6.309831E-18
2.720000E+03	5.676117E-16	6.530107E-18
2.760000E+03	5.880070E-16	6.764744E-18
2.800000E+03	6.099263E-16	7.016916E-18
2.840000E+03	6.332307E-16	7.285021E-18
2.880000E+03	6.584949E-16	7.575673E-18
2.920000E+03	6.854643E-16	7.885944E-18
2.960000E+03	7.148893E-16	8.224464E-18
3.000000E+03	7.467034E-16	8.590470E-18
3.010000E+03	7.550554E-16	8.686555E-18
3.020000E+03	7.636972E-16	8.785975E-18
3.030000E+03	7.724907E-16	8.887140E-18
3.040000E+03	7.814385E-16	8.990080E-18
3.050000E+03	7.906836E-16	9.096441E-18
3.060000E+03	8.000887E-16	9.204642E-18
3.070000E+03	8.096571E-16	9.314721E-18
3.080000E+03	8.195324E-16	9.428332E-18
3.090000E+03	8.297186E-16	9.545520E-18
3.100000E+03	8.400793E-16	9.664714E-18
3.110000E+03	8.507592E-16	9.787581E-18
3.120000E+03	8.617630E-16	9.914174E-18
3.130000E+03	8.729552E-16	1.004294E-17
3.140000E+03	8.844817E-16	1.017554E-17
3.150000E+03	8.963481E-16	1.031206E-17
3.160000E+03	9.085605E-16	1.045256E-17
3.170000E+03	9.211257E-16	1.059711E-17
3.180000E+03	9.340502E-16	1.074580E-17
3.190000E+03	9.473417E-16	1.089872E-17
3.200000E+03	9.608666E-16	1.105431E-17
3.210000E+03	9.750565E-16	1.121756E-17
3.220000E+03	9.894967E-16	1.138369E-17
3.230000E+03	1.004479E-15	1.155605E-17
3.240000E+03	1.019730E-15	1.173151E-17
3.250000E+03	1.035685E-15	1.191506E-17
3.260000E+03	1.052071E-15	1.210358E-17
3.270000E+03	1.068899E-15	1.229717E-17
3.280000E+03	1.086324E-15	1.249764E-17
3.290000E+03	1.104357E-15	1.270511E-17
3.300000E+03	1.122871E-15	1.291810E-17
3.310000E+03	1.142020E-15	1.313840E-17
3.320000E+03	1.161819E-15	1.336617E-17
3.330000E+03	1.182284E-15	1.360161E-17
3.340000E+03	1.203430E-15	1.384488E-17
3.350000E+03	1.225416E-15	1.409783E-17
3.360000E+03	1.247975E-15	1.435736E-17
3.370000E+03	1.271411E-15	1.462698E-17
3.380000E+03	1.295599E-15	1.490525E-17
3.390000E+03	1.320705E-15	1.519408E-17
3.400000E+03	1.346751E-15	1.549373E-17
3.410000E+03	1.373612E-15	1.580275E-17
3.420000E+03	1.401461E-15	1.612313E-17
3.430000E+03	1.430321E-15	1.645516E-17
3.440000E+03	1.460220E-15	1.679913E-17
3.450000E+03	1.491189E-15	1.715541E-17
3.460000E+03	1.523256E-15	1.752433E-17
3.470000E+03	1.556607E-15	1.790802E-17
3.480000E+03	1.591279E-15	1.830690E-17
3.490000E+03	1.627159E-15	1.871968E-17
3.500000E+03	1.664290E-15	1.914686E-17
3.510000E+03	1.703022E-15	1.959245E-17
3.520000E+03	1.743254E-15	2.005530E-17
3.530000E+03	1.785038E-15	2.053601E-17
3.540000E+03	1.828432E-15	2.103523E-17
3.550000E+03	1.873654E-15	2.155549E-17
3.560000E+03	1.920612E-15	2.209572E-17
3.570000E+03	1.969692E-15	2.266036E-17
3.580000E+03	2.020649E-15	2.324660E-17
3.590000E+03	2.073715E-15	2.385710E-17
3.600000E+03	2.128964E-15	2.449270E-17
3.610000E+03	2.186621E-15	2.515603E-17
3.620000E+03	2.246587E-15	2.584590E-17
3.630000E+03	2.309081E-15	2.656487E-17
3.640000E+03	2.374163E-15	2.731360E-17
3.650000E+03	2.441888E-15	2.809275E-17
3.660000E+03	2.512307E-15	2.890289E-17
3.670000E+03	2.585471E-15	2.974460E-17
3.680000E+03	2.661597E-15	3.062039E-17
3.690000E+03	2.740556E-15	3.152878E-17
3.700000E+03	2.822559E-15	3.247218E-17
3.710000E+03	2.907637E-15	3.345096E-17
3.720000E+03	2.995812E-15	3.446537E-17
3.730000E+03	3.087094E-15	3.551553E-17
3.740000E+03	3.181666E-15	3.660354E-17
3.750000E+03	3.279329E-15	3.772709E-17
3.760000E+03	3.380232E-15	3.888794E-17
3.770000E+03	3.484325E-15	4.008547E-17
3.780000E+03	3.591339E-15	4.131662E-17
3.790000E+03	3.701550E-15	4.258455E-17
3.800000E+03	3.814830E-15	4.388777E-17
3.810000E+03	3.930621E-15	4.521989E-17
3.820000E+03	4.049306E-15	4.658531E-17
3.830000E+03	4.170251E-15	4.797672E-17
3.840000E+03	4.293365E-15	4.939308E-17
3.850000E+03	4.418316E-15	5.083059E-17
3.860000E+03	4.544725E-15	5.228486E-17
3.870000E+03	4.672161E-15	5.375095E-17
3.880000E+03	4.800349E-15	5.522569E-17
3.890000E+03	4.928758E-15	5.670297E-17
3.900000E+03	5.056600E-15	5.817373E-17
3.910000E+03	5.183449E-15	5.963307E-17
3.920000E+03	5.308631E-15	6.107323E-17
3.930000E+03	5.431633E-15	6.248830E-17
3.940000E+03	5.551274E-15	6.386471E-17
3.950000E+03	5.666964E-15	6.519567E-17
3.960000E+03	5.778085E-15	6.647406E-17
3.970000E+03	5.883563E-15	6.768753E-17
3.980000E+03	5.982515E-15	6.882593E-17
3.990000E+03	6.074261E-15	6.988142E-17
4.000000E+03	6.157916E-15	7.084384E-17
4.010000E+03	6.232419E-15	7.170095E-17
4.020000E+03	6.296967E-15	7.244355E-17
4.030000E+03	6.351234E-15	7.306786E-17
4.040000E+03	6.393978E-15	7.355961E-17
4.050000E+03	6.425088E-15	7.391752E-17
4.060000E+03	6.444208E-15	7.413748E-17
4.070000E+03	6.450983E-15	7.421542E-17
4.080000E+03	6.445667E-15	7.415427E-17
4.090000E+03	6.428396E-15	7.395557E-17
4.100000E+03	6.399766E-15	7.362619E-17
4.110000E+03	6.360629E-15	7.317595E-17
4.120000E+03	6.312076E-15	7.261737E-17
4.130000E+03	6.255387E-15	7.196518E-17
4.140000E+03	6.191828E-15	7.123397E-17
4.150000E+03	6.122925E-15	7.044127E-17
4.160000E+03	6.050386E-15	6.960674E-17
4.170000E+03	5.975609E-15	6.874648E-17
4.180000E+03	5.899975E-15	6.787634E-17
4.190000E+03	5.824949E-15	6.701319E-17
4.200000E+03	5.752052E-15	6.617456E-17
4.210000E+03	5.682209E-15	6.537104E-17
4.220000E+03	5.617039E-15	6.462130E-17
4.230000E+03	5.557223E-15	6.393313E-17
4.240000E+03	4.652543E-15	5.352523E-17
4.241000E+03	4.615641E-15	5.310070E-17
4.242000E+03	4.578583E-15	5.267436E-17
4.243000E+03	4.541521E-15	5.224799E-17
4.244000E+03	4.504152E-15	5.181807E-17
4.245000E+03	4.466624E-15	5.138633E-17
4.246000E+03	4.428942E-15	5.095282E-17
4.247000E+03	4.391410E-15	5.052103E-17
4.248000E+03	4.354185E-15	5.009278E-17
4.249000E+03	4.317264E-15	4.966801E-17
4.250000E+03	4.280802E-15	4.924854E-17
4.251000E+03	4.244799E-15	4.883434E-17
4.252000E+03	4.209408E-15	4.842719E-17
4.253000E+03	4.174785E-15	4.802886E-17
4.254000E+03	4.141082E-15	4.764112E-17
4.255000E+03	4.108453E-15	4.726575E-17
4.256000E+03	4.077359E-15	4.690803E-17
4.257000E+03	4.047648E-15	4.656621E-17
4.258000E+03	4.019780E-15	4.624561E-17
4.259000E+03	3.993910E-15	4.594799E-17
4.260000E+03	3.970191E-15	4.567511E-17
4.261000E+03	3.948624E-15	4.542699E-17
4.262000E+03	3.929825E-15	4.521071E-17
4.263000E+03	3.913638E-15	4.502450E-17
4.264000E+03	3.900373E-15	4.487188E-17
4.265000E+03	3.890030E-15	4.475290E-17
4.266000E+03	3.882762E-15	4.466928E-17
4.267000E+03	3.878570E-15	4.462105E-17
4.268000E+03	3.877455E-15	4.460823E-17
4.269000E+03	3.879416E-15	4.463079E-17
4.270000E+03	3.884147E-15	4.468521E-17
4.271000E+03	3.891954E-15	4.477503E-17
4.272000E+03	3.902992E-15	4.490201E-17
4.273000E+03	3.917108E-15	4.506442E-17
4.274000E+03	3.934303E-15	4.526223E-17
4.275000E+03	3.954575E-15	4.549545E-17
4.276000E+03	3.977772E-15	4.576232E-17
4.277000E+03	4.003586E-15	4.605930E-17
4.278000E+03	4.032171E-15	4.638815E-17
4.279000E+03	4.063066E-15	4.674359E-17
4.280000E+03	4.096271E-15	4.712560E-17
4.281000E+03	4.131631E-15	4.753240E-17
4.282000E+03	4.169150E-15	4.796403E-17
4.283000E+03	4.208977E-15	4.842223E-17
4.284000E+03	4.250655E-15	4.890171E-17
4.285000E+03	4.294335E-15	4.940423E-17
4.286000E+03	4.339250E-15	4.992095E-17
4.287000E+03	4.385244E-15	5.045009E-17
4.288000E+03	4.432011E-15	5.098812E-17
4.289000E+03	4.479549E-15	5.153503E-17
4.290000E+03	4.527553E-15	5.208728E-17
4.291000E+03	4.576020E-15	5.264488E-17
4.292000E+03	4.624644E-15	5.320428E-17
4.293000E+03	4.673118E-15	5.376194E-17
4.294000E+03	4.720977E-15	5.431253E-17
4.295000E+03	4.768223E-15	5.485608E-17
4.296000E+03	4.815012E-15	5.539436E-17
4.297000E+03	4.860877E-15	5.592202E-17
4.298000E+03	4.906131E-15	5.644264E-17
4.299000E+03	4.950463E-15	5.695265E-17
4.300000E+03	4.993411E-15	5.744676E-17
4.301000E+03	5.034822E-15	5.792317E-17
4.302000E+03	5.074849E-15	5.838366E-17
4.303000E+03	5.113339E-15	5.882646E-17
4.304000E+03	5.150291E-15	5.925158E-17
4.305000E+03	5.185704E-15	5.965900E-17
4.306000E+03	5.218964E-15	6.004163E-17
4.307000E+03	5.250069E-15	6.039948E-17
4.308000E+03	5.278250E-15	6.072369E-17
4.309000E+03	5.303353E-15	6.101248E-17
4.310000E+03	5.325375E-15	6.126584E-17
4.311000E+03	5.344165E-15	6.148201E-17
4.312000E+03	5.359721E-15	6.166097E-17
4.313000E+03	5.371888E-15	6.180095E-17
4.314000E+03	5.380206E-15	6.189664E-17
4.315000E+03	5.384673E-15	6.194803E-17
4.316000E+03	5.384672E-15	6.194802E-17
4.317000E+03	5.382052E-15	6.191788E-17
4.318000E+03	5.376814E-15	6.185762E-17
4.319000E+03	5.368956E-15	6.176722E-17
4.320000E+03	5.358786E-15	6.165022E-17
4.321000E+03	5.346613E-15	6.151017E-17
4.322000E+03	5.332590E-15	6.134884E-17
4.323000E+03	5.316563E-15	6.116446E-17
4.324000E+03	5.299148E-15	6.096411E-17
4.325000E+03	5.280192E-15	6.074603E-17
4.326000E+03	5.260309E-15	6.051729E-17
4.327000E+03	5.239501E-15	6.027790E-17
4.328000E+03	5.217921E-15	6.002963E-17
4.329000E+03	5.195569E-15	5.977249E-17
4.330000E+03	5.172599E-15	5.950823E-17
4.331000E+03	5.149166E-15	5.923863E-17
4.332000E+03	5.125730E-15	5.896902E-17
4.333000E+03	5.102295E-15	5.869941E-17
4.334000E+03	5.079473E-15	5.843685E-17
4.335000E+03	5.057421E-15	5.818315E-17
4.336000E+03	5.036137E-15	5.793830E-17
4.337000E+03	5.015624E-15	5.770230E-17
4.338000E+03	4.995879E-15	5.747515E-17
4.339000E+03	4.977058E-15	5.725862E-17
4.340000E+03	4.959008E-15	5.705096E-17
4.341000E+03	4.941881E-15	5.685392E-17
4.342000E+03	4.925985E-15	5.667105E-17
4.343000E+03	4.911168E-15	5.650059E-17
4.344000E+03	4.897584E-15	5.634431E-17
4.345000E+03	4.885232E-15	5.620221E-17
4.346000E+03	4.873958E-15	5.607251E-17
4.347000E+03	4.864226E-15	5.596054E-17
4.348000E+03	4.856033E-15	5.586629E-17
4.349000E+03	4.849229E-15	5.578801E-17
4.350000E+03	4.844120E-15	5.572923E-17
4.351000E+03	4.840245E-15	5.568465E-17
4.352000E+03	4.837756E-15	5.565602E-17
4.353000E+03	4.836964E-15	5.564690E-17
4.354000E+03	4.838021E-15	5.565907E-17
4.355000E+03	4.840930E-15	5.569254E-17
4.356000E+03	4.845690E-15	5.574729E-17
4.357000E+03	4.852145E-15	5.582155E-17
4.358000E+03	4.860452E-15	5.591713E-17
4.359000E+03	4.870301E-15	5.603043E-17
4.360000E+03	4.881385E-15	5.615794E-17
4.361000E+03	4.893394E-15	5.629610E-17
4.362000E+03	4.906175E-15	5.644314E-17
4.363000E+03	4.920036E-15	5.660261E-17
4.364000E+03	4.934670E-15	5.677096E-17
4.365000E+03	4.950075E-15	5.694819E-17
4.366000E+03	4.965634E-15	5.712720E-17
4.367000E+03	4.981504E-15	5.730977E-17
4.368000E+03	4.997219E-15	5.749056E-17
4.369000E+03	5.013244E-15	5.767492E-17
4.370000E+03	5.029270E-15	5.785929E-17
4.371000E+03	5.046068E-15	5.805255E-17
4.372000E+03	5.063483E-15	5.825290E-17
4.373000E+03	5.081825E-15	5.846391E-17
4.374000E+03	5.100940E-15	5.868382E-17
4.375000E+03	5.120981E-15	5.891438E-17
4.376000E+03	5.141949E-15	5.915561E-17
4.377000E+03	5.164307E-15	5.941282E-17
4.378000E+03	5.188207E-15	5.968779E-17
4.379000E+03	5.213808E-15	5.998231E-17
4.380000E+03	5.240953E-15	6.029460E-17
4.381000E+03	5.269487E-15	6.062287E-17
4.382000E+03	5.299103E-15	6.096359E-17
4.383000E+03	5.329801E-15	6.131676E-17
4.384000E+03	5.361581E-15	6.168237E-17
4.385000E+03	5.394288E-15	6.205865E-17
4.386000E+03	5.427924E-15	6.244561E-17
4.387000E+03	5.462640E-15	6.284500E-17
4.388000E+03	5.497976E-15	6.325152E-17
4.389000E+03	5.533777E-15	6.366340E-17
4.390000E+03	5.569734E-15	6.407706E-17
4.391000E+03	5.606001E-15	6.449430E-17
4.392000E+03	5.641961E-15	6.490800E-17
4.393000E+03	5.677615E-15	6.531818E-17
4.394000E+03	5.712497E-15	6.571948E-17
4.395000E+03	5.746919E-15	6.611549E-17
4.396000E+03	5.780879E-15	6.650618E-17
4.397000E+03	5.814377E-15	6.689157E-17
4.398000E+03	5.847259E-15	6.726985E-17
4.399000E+03	5.879371E-15	6.763929E-17
4.400000E+03	5.910558E-15	6.799808E-17
4.401000E+03	5.941128E-15	6.834977E-17
4.402000E+03	5.970619E-15	6.868905E-17
4.403000E+03	5.999340E-15	6.901947E-17
4.404000E+03	6.027444E-15	6.934279E-17
4.405000E+03	6.054931E-15	6.965902E-17
4.406000E+03	6.081957E-15	6.996994E-17
4.407000E+03	6.108675E-15	7.027731E-17
4.408000E+03	6.135085E-15	7.058115E-17
4.409000E+03	6.161188E-15	7.088145E-17
4.410000E+03	6.186673E-15	7.117465E-17
4.411000E+03	6.211852E-15	7.146431E-17
4.412000E+03	6.236722E-15	7.175043E-17
4.413000E+03	6.260974E-15	7.202945E-17
4.414000E+03	6.284766E-15	7.230315E-17
4.415000E+03	6.308249E-15	7.257332E-17
4.416000E+03	6.331115E-15	7.283638E-17
4.417000E+03	6.353519E-15	7.309412E-17
4.418000E+03	6.374843E-15	7.333944E-17
4.419000E+03	6.395549E-15	7.357766E-17
4.420000E+03	6.415637E-15	7.380876E-17
4.421000E+03	6.434955E-15	7.403100E-17
4.422000E+03	6.453965E-15	7.424970E-17
4.423000E+03	6.472202E-15	7.445952E-17
4.424000E+03	6.489513E-15	7.465867E-17
4.425000E+03	6.505898E-15	7.484717E-17
4.426000E+03	6.521511E-15	7.502679E-17
4.427000E+03	6.535889E-15	7.519220E-17
4.428000E+03	6.549648E-15	7.535050E-17
4.429000E+03	6.562327E-15	7.549635E-17
4.430000E+03	6.574233E-15	7.563334E-17
4.431000E+03	6.585213E-15	7.575965E-17
4.432000E+03	6.595112E-15	7.587353E-17
4.433000E+03	6.603311E-15	7.596785E-17
4.434000E+03	6.610428E-15	7.604973E-17
4.435000E+03	6.615845E-15	7.611206E-17
4.436000E+03	6.619254E-15	7.615127E-17
4.437000E+03	6.620962E-15	7.617092E-17
4.438000E+03	6.620816E-15	7.616924E-17
4.439000E+03	6.618968E-15	7.614799E-17
4.440000E+03	6.615576E-15	7.610897E-17
4.441000E+03	6.610328E-15	7.604858E-17
4.442000E+03	6.603226E-15	7.596688E-17
4.443000E+03	6.594730E-15	7.586914E-17
4.444000E+03	6.584226E-15	7.574829E-17
4.445000E+03	6.572020E-15	7.560787E-17
4.446000E+03	6.558576E-15	7.545321E-17
4.447000E+03	6.543277E-15	7.527719E-17
4.448000E+03	6.526276E-15	7.508161E-17
4.449000E+03	6.507574E-15	7.486645E-17
4.450000E+03	6.486861E-15	7.462816E-17
4.451000E+03	6.464755E-15	7.437384E-17
4.452000E+03	6.441102E-15	7.410172E-17
4.453000E+03	6.415592E-15	7.380824E-17
4.454000E+03	6.388381E-15	7.349519E-17
4.455000E+03	6.359002E-15	7.315720E-17
4.456000E+03	6.327303E-15	7.279252E-17
4.457000E+03	6.293129E-15	7.239937E-17
4.458000E+03	6.256479E-15	7.197772E-17
4.459000E+03	6.217661E-15	7.153114E-17
4.460000E+03	6.176677E-15	7.105965E-17
4.461000E+03	6.133526E-15	7.056322E-17
4.462000E+03	6.088517E-15	7.004541E-17
4.463000E+03	6.041032E-15	6.949911E-17
4.464000E+03	5.991224E-15	6.892609E-17
4.465000E+03	5.939093E-15	6.832636E-17
4.466000E+03	5.884487E-15	6.769813E-17
4.467000E+03	5.828020E-15	6.704852E-17
4.468000E+03	5.769696E-15	6.637752E-17
4.469000E+03	5.709821E-15	6.568870E-17
4.470000E+03	5.649016E-15	6.498916E-17
4.471000E+03	5.587125E-15	6.427713E-17
4.472000E+03	5.524611E-15	6.355795E-17
4.473000E+03	5.461323E-15	6.282984E-17
4.474000E+03	5.397875E-15	6.209991E-17
4.475000E+03	5.334270E-15	6.136817E-17
4.476000E+03	5.270816E-15	6.063816E-17
4.477000E+03	5.207514E-15	5.990990E-17
4.478000E+03	5.144828E-15	5.918872E-17
4.479000E+03	5.082912E-15	5.847641E-17
4.480000E+03	5.022076E-15	5.777652E-17
4.481000E+03	4.962320E-15	5.708905E-17
4.482000E+03	4.904262E-15	5.642113E-17
4.483000E+03	4.847439E-15	5.576741E-17
4.484000E+03	4.791853E-15	5.512792E-17
4.485000E+03	4.737499E-15	5.450261E-17
4.486000E+03	4.683918E-15	5.388619E-17
4.487000E+03	4.630798E-15	5.327506E-17
4.488000E+03	4.577985E-15	5.266747E-17
4.489000E+03	4.525633E-15	5.206519E-17
4.490000E+03	4.473279E-15	5.146288E-17
4.491000E+03	4.421387E-15	5.086588E-17
4.492000E+03	4.369491E-15	5.026886E-17
4.493000E+03	4.317903E-15	4.967536E-17
4.494000E+03	4.266468E-15	4.908362E-17
4.495000E+03	4.215494E-15	4.849719E-17
4.496000E+03	4.164672E-15	4.791251E-17
4.497000E+03	4.114622E-15	4.733670E-17
4.498000E+03	4.065188E-15	4.676800E-17
4.499000E+03	4.017300E-15	4.621707E-17
4.500000E+03	3.971421E-15	4.568926E-17
4.501000E+03	3.928172E-15	4.519170E-17
4.502000E+03	3.887396E-15	4.472259E-17
4.503000E+03	3.849715E-15	4.428908E-17
4.504000E+03	3.815747E-15	4.389830E-17
4.505000E+03	3.785801E-15	4.355378E-17
4.506000E+03	3.760652E-15	4.326446E-17
4.507000E+03	3.740765E-15	4.303567E-17
4.508000E+03	3.726760E-15	4.287455E-17
4.509000E+03	3.718480E-15	4.277929E-17
4.510000E+03	3.716393E-15	4.275528E-17
4.511000E+03	3.720963E-15	4.280785E-17
4.512000E+03	3.732344E-15	4.293879E-17
4.513000E+03	3.750537E-15	4.314809E-17
4.514000E+03	3.776162E-15	4.344290E-17
4.515000E+03	3.809220E-15	4.382321E-17
4.516000E+03	3.850020E-15	4.429259E-17
4.517000E+03	3.899027E-15	4.485640E-17
4.518000E+03	3.956707E-15	4.551998E-17
4.519000E+03	4.023060E-15	4.628333E-17
4.520000E+03	4.098241E-15	4.714825E-17
4.521000E+03	4.181941E-15	4.811118E-17
4.522000E+03	4.274780E-15	4.917925E-17
4.523000E+03	4.376140E-15	5.034534E-17
4.524000E+03	4.486176E-15	5.161125E-17
4.525000E+03	4.604578E-15	5.297341E-17
4.526000E+03	4.731037E-15	5.442826E-17
4.527000E+03	4.865089E-15	5.597047E-17
4.528000E+03	5.005961E-15	5.759113E-17
4.529000E+03	5.152878E-15	5.928134E-17
4.530000E+03	5.304912E-15	6.103041E-17
4.531000E+03	5.461754E-15	6.283480E-17
4.532000E+03	5.622318E-15	6.468201E-17
4.533000E+03	5.786295E-15	6.656849E-17
4.534000E+03	5.952448E-15	6.847999E-17
4.535000E+03	6.120620E-15	7.041473E-17
4.536000E+03	6.290039E-15	7.236381E-17
4.537000E+03	6.460238E-15	7.432187E-17
4.538000E+03	6.630444E-15	7.628000E-17
4.539000E+03	6.800657E-15	7.823822E-17
4.540000E+03	6.970257E-15	8.018938E-17
4.541000E+03	7.139552E-15	8.213705E-17
4.542000E+03	7.308390E-15	8.407945E-17
4.543000E+03	7.477235E-15	8.602192E-17
4.544000E+03	7.646241E-15	8.796625E-17
4.545000E+03	7.815254E-15	8.991066E-17
4.546000E+03	7.984118E-15	9.185336E-17
4.547000E+03	8.152833E-15	9.379434E-17
4.548000E+03	8.321244E-15	9.573183E-17
4.549000E+03	8.489353E-15	9.766584E-17
4.550000E+03	8.657002E-15	9.959456E-17
4.551000E+03	8.824193E-15	1.015180E-16
4.552000E+03	8.990926E-15	1.034362E-16
4.553000E+03	9.157664E-15	1.053544E-16
4.554000E+03	9.324565E-15	1.072745E-16
4.555000E+03	9.491160E-15	1.091911E-16
4.556000E+03	9.658072E-15	1.111114E-16
4.557000E+03	9.824526E-15	1.130263E-16
4.558000E+03	9.990985E-15	1.149414E-16
4.559000E+03	1.015714E-14	1.168529E-16
4.560000E+03	1.032299E-14	1.187609E-16
4.561000E+03	1.048808E-14	1.206602E-16
4.562000E+03	1.065239E-14	1.225505E-16
4.563000E+03	1.081531E-14	1.244249E-16
4.564000E+03	1.097700E-14	1.262850E-16
4.565000E+03	1.113638E-14	1.281186E-16
4.566000E+03	1.129296E-14	1.299200E-16
4.567000E+03	1.144584E-14	1.316787E-16
4.568000E+03	1.159468E-14	1.333911E-16
4.569000E+03	1.173950E-14	1.350572E-16
4.570000E+03	1.187969E-14	1.366699E-16
4.571000E+03	1.201491E-14	1.382256E-16
4.572000E+03	1.214472E-14	1.397190E-16
4.573000E+03	1.226910E-14	1.411500E-16
4.574000E+03	1.238713E-14	1.425079E-16
4.575000E+03	1.249866E-14	1.437910E-16
4.576000E+03	1.260383E-14	1.450009E-16
4.577000E+03	1.270297E-14	1.461414E-16
4.578000E+03	1.279544E-14	1.472052E-16
4.579000E+03	1.288154E-14	1.481958E-16
4.580000E+03	1.296069E-14	1.491064E-16
4.581000E+03	1.303317E-14	1.499402E-16
4.582000E+03	1.309868E-14	1.506939E-16
4.583000E+03	1.315783E-14	1.513744E-16
4.584000E+03	1.321078E-14	1.519836E-16
4.585000E+03	1.325753E-14	1.525214E-16
4.586000E+03	1.329777E-14	1.529843E-16
4.587000E+03	1.333227E-14	1.533813E-16
4.588000E+03	1.336135E-14	1.537158E-16
4.589000E+03	1.338532E-14	1.539915E-16
4.590000E+03	1.340448E-14	1.542119E-16
4.591000E+03	1.341929E-14	1.543823E-16
4.592000E+03	1.343008E-14	1.545065E-16
