#wls	flux	fluxerr
1.600000E+03	2.360722E-16	2.580016E-19
1.640000E+03	2.385347E-16	2.606928E-19
1.680000E+03	2.413623E-16	2.637831E-19
1.720000E+03	2.443433E-16	2.670410E-19
1.760000E+03	2.476953E-16	2.707044E-19
1.800000E+03	2.512050E-16	2.745401E-19
1.840000E+03	2.549828E-16	2.786689E-19
1.880000E+03	2.591410E-16	2.832132E-19
1.920000E+03	2.635734E-16	2.880574E-19
1.960000E+03	2.682829E-16	2.932044E-19
2.000000E+03	2.734943E-16	2.988999E-19
2.040000E+03	2.789901E-16	3.049062E-19
2.080000E+03	2.848853E-16	3.113489E-19
2.120000E+03	2.912966E-16	3.183558E-19
2.160000E+03	2.981170E-16	3.258098E-19
2.200000E+03	3.054646E-16	3.338399E-19
2.240000E+03	3.133457E-16	3.424529E-19
2.280000E+03	3.217664E-16	3.516558E-19
2.320000E+03	3.308486E-16	3.615816E-19
2.360000E+03	3.404848E-16	3.721129E-19
2.400000E+03	3.507984E-16	3.833844E-19
2.440000E+03	3.616810E-16	3.952777E-19
2.480000E+03	3.733756E-16	4.080584E-19
2.520000E+03	3.856567E-16	4.214802E-19
2.560000E+03	3.986516E-16	4.356818E-19
2.600000E+03	4.123705E-16	4.506748E-19
2.640000E+03	4.269444E-16	4.666020E-19
2.680000E+03	4.423862E-16	4.834776E-19
2.720000E+03	4.587093E-16	5.013162E-19
2.760000E+03	4.760488E-16	5.202654E-19
2.800000E+03	4.944200E-16	5.403418E-19
2.840000E+03	5.138373E-16	5.615611E-19
2.880000E+03	5.345616E-16	5.842083E-19
2.920000E+03	5.563588E-16	6.080274E-19
2.960000E+03	5.796119E-16	6.334369E-19
3.000000E+03	6.042043E-16	6.603089E-19
3.010000E+03	6.106366E-16	6.673373E-19
3.020000E+03	6.170819E-16	6.743798E-19
3.030000E+03	6.236661E-16	6.815740E-19
3.040000E+03	6.302628E-16	6.887818E-19
3.050000E+03	6.371248E-16	6.962793E-19
3.060000E+03	6.438723E-16	7.036516E-19
3.070000E+03	6.508849E-16	7.113135E-19
3.080000E+03	6.579091E-16	7.189879E-19
3.090000E+03	6.650714E-16	7.268132E-19
3.100000E+03	6.723716E-16	7.347889E-19
3.110000E+03	6.798095E-16	7.429150E-19
3.120000E+03	6.872571E-16	7.510515E-19
3.130000E+03	6.948417E-16	7.593375E-19
3.140000E+03	7.025627E-16	7.677724E-19
3.150000E+03	7.104199E-16	7.763558E-19
3.160000E+03	7.182844E-16	7.849471E-19
3.170000E+03	7.264120E-16	7.938257E-19
3.180000E+03	7.346745E-16	8.028514E-19
3.190000E+03	7.429423E-16	8.118825E-19
3.200000E+03	7.514722E-16	8.211999E-19
3.210000E+03	7.601351E-16	8.306622E-19
3.220000E+03	7.689302E-16	8.402688E-19
3.230000E+03	7.778572E-16	8.500191E-19
3.240000E+03	7.869154E-16	8.599124E-19
3.250000E+03	7.962337E-16	8.700895E-19
3.260000E+03	8.056824E-16	8.804088E-19
3.270000E+03	8.153909E-16	8.910114E-19
3.280000E+03	8.252295E-16	9.017558E-19
3.290000E+03	8.351979E-16	9.126415E-19
3.300000E+03	8.454261E-16	9.238107E-19
3.310000E+03	8.559149E-16	9.352640E-19
3.320000E+03	8.666650E-16	9.470023E-19
3.330000E+03	8.776775E-16	9.590268E-19
3.340000E+03	8.888236E-16	9.711965E-19
3.350000E+03	9.003658E-16	9.837985E-19
3.350483E+03	4.275227E-16	4.671390E-19
3.354115E+03	4.643476E-16	5.073743E-19
3.357747E+03	4.946455E-16	5.404775E-19
3.361379E+03	4.866421E-16	5.317305E-19
3.365011E+03	4.898990E-16	5.352870E-19
3.368643E+03	4.832332E-16	5.280016E-19
3.372275E+03	4.899859E-16	5.353776E-19
3.375907E+03	4.916850E-16	5.372320E-19
3.379539E+03	4.914928E-16	5.370197E-19
3.383171E+03	4.872679E-16	5.324012E-19
3.386803E+03	4.896512E-16	5.350029E-19
3.390435E+03	4.871320E-16	5.322480E-19
3.394067E+03	4.689364E-16	5.123649E-19
3.397699E+03	4.579513E-16	5.003603E-19
3.401331E+03	4.514832E-16	4.932909E-19
3.404963E+03	4.305780E-16	4.704477E-19
3.408595E+03	4.225205E-16	4.616420E-19
3.412227E+03	4.301202E-16	4.699432E-19
3.415859E+03	4.440753E-16	4.851879E-19
3.419492E+03	4.664593E-16	5.096418E-19
3.423124E+03	4.808963E-16	5.254127E-19
3.426756E+03	4.983928E-16	5.445261E-19
3.430387E+03	5.192492E-16	5.673103E-19
3.434020E+03	5.390833E-16	5.889772E-19
3.437652E+03	5.635312E-16	6.156846E-19
3.441284E+03	6.051515E-16	6.611533E-19
3.444916E+03	6.506475E-16	7.108559E-19
3.448548E+03	7.089483E-16	7.745474E-19
3.452180E+03	7.718920E-16	8.433108E-19
3.455812E+03	8.280408E-16	9.046498E-19
3.459444E+03	8.975095E-16	9.805402E-19
3.463076E+03	9.368763E-16	1.023543E-18
3.466708E+03	9.814379E-16	1.072221E-18
3.470340E+03	1.032096E-15	1.127559E-18
3.473972E+03	1.051804E-15	1.149083E-18
3.477604E+03	1.070724E-15	1.169746E-18
3.481236E+03	1.090092E-15	1.190898E-18
3.484868E+03	1.086207E-15	1.186647E-18
3.488500E+03	1.083708E-15	1.183910E-18
3.492132E+03	1.082327E-15	1.182394E-18
3.495764E+03	1.053555E-15	1.150955E-18
3.499396E+03	1.025285E-15	1.120065E-18
3.503028E+03	9.842863E-16	1.075270E-18
3.506660E+03	9.248107E-16	1.010290E-18
3.510292E+03	8.661766E-16	9.462307E-19
3.513924E+03	8.139137E-16	8.891320E-19
3.517556E+03	7.836405E-16	8.560557E-19
3.521188E+03	7.504303E-16	8.197715E-19
3.524820E+03	7.230360E-16	7.898410E-19
3.528452E+03	7.069850E-16	7.723021E-19
3.532084E+03	6.886639E-16	7.522835E-19
3.535716E+03	6.660026E-16	7.275241E-19
3.539349E+03	6.492715E-16	7.092430E-19
3.542981E+03	6.380185E-16	6.969461E-19
3.546613E+03	6.382192E-16	6.971609E-19
3.550245E+03	6.524923E-16	7.127475E-19
3.553877E+03	6.889969E-16	7.526183E-19
3.557509E+03	7.206872E-16	7.872298E-19
3.561141E+03	7.615841E-16	8.318974E-19
3.564773E+03	7.951297E-16	8.685346E-19
3.568405E+03	8.271999E-16	9.035597E-19
3.572037E+03	8.502028E-16	9.286800E-19
3.575669E+03	8.696130E-16	9.498758E-19
3.579301E+03	8.946569E-16	9.772250E-19
3.582933E+03	9.236816E-16	1.008922E-18
3.586565E+03	9.610889E-16	1.049775E-18
3.590197E+03	9.972033E-16	1.089215E-18
3.593829E+03	1.022069E-15	1.116368E-18
3.597461E+03	1.055449E-15	1.152820E-18
3.601093E+03	1.081684E-15	1.181469E-18
3.604725E+03	1.104828E-15	1.206740E-18
3.608357E+03	1.117230E-15	1.220279E-18
3.611989E+03	1.134828E-15	1.239493E-18
3.615621E+03	1.155820E-15	1.262414E-18
3.619253E+03	1.161224E-15	1.268309E-18
3.622885E+03	1.166959E-15	1.274565E-18
3.626517E+03	1.171439E-15	1.279451E-18
3.630149E+03	1.155345E-15	1.261866E-18
3.633781E+03	1.135905E-15	1.240627E-18
3.637413E+03	1.114600E-15	1.217352E-18
3.641045E+03	1.079246E-15	1.178732E-18
3.644677E+03	1.038935E-15	1.134700E-18
3.648309E+03	9.889774E-16	1.080133E-18
3.651941E+03	9.340364E-16	1.020123E-18
3.655573E+03	8.817542E-16	9.630176E-19
3.659206E+03	8.346261E-16	9.115422E-19
3.662838E+03	7.943476E-16	8.675482E-19
3.666470E+03	7.545608E-16	8.240917E-19
3.670102E+03	7.196074E-16	7.859145E-19
3.673734E+03	7.009289E-16	7.655122E-19
3.677366E+03	6.825869E-16	7.454776E-19
3.680998E+03	6.751732E-16	7.373786E-19
3.684630E+03	6.897057E-16	7.532478E-19
3.688262E+03	7.188275E-16	7.850506E-19
3.691894E+03	7.701943E-16	8.411476E-19
3.695526E+03	8.448922E-16	9.227251E-19
3.699158E+03	9.427442E-16	1.029590E-18
3.702790E+03	1.051413E-15	1.148267E-18
3.706422E+03	1.163317E-15	1.270478E-18
3.710054E+03	1.292488E-15	1.411547E-18
3.713686E+03	1.427310E-15	1.558787E-18
3.717318E+03	1.551842E-15	1.694790E-18
3.720950E+03	1.674719E-15	1.828986E-18
3.724582E+03	1.795760E-15	1.961178E-18
3.728214E+03	1.899663E-15	2.074654E-18
3.731846E+03	1.995730E-15	2.179572E-18
3.735478E+03	2.066212E-15	2.256550E-18
3.739110E+03	2.119749E-15	2.315022E-18
3.742742E+03	2.155022E-15	2.353549E-18
3.746374E+03	2.172371E-15	2.372502E-18
3.750006E+03	2.169817E-15	2.369719E-18
3.753638E+03	2.152676E-15	2.351005E-18
3.757270E+03	2.129073E-15	2.325235E-18
3.760902E+03	2.099676E-15	2.293137E-18
3.764534E+03	2.060017E-15	2.249830E-18
3.768166E+03	2.023183E-15	2.209611E-18
3.771798E+03	1.992319E-15	2.175912E-18
3.775430E+03	1.949545E-15	2.129204E-18
3.779062E+03	1.915223E-15	2.091728E-18
3.782695E+03	1.886538E-15	2.060408E-18
3.786327E+03	1.857198E-15	2.028373E-18
3.789959E+03	1.820753E-15	1.988578E-18
3.793591E+03	1.787131E-15	1.951867E-18
3.797223E+03	1.755338E-15	1.917152E-18
3.800855E+03	1.721075E-15	1.879741E-18
3.804487E+03	1.678561E-15	1.833317E-18
3.808119E+03	1.634260E-15	1.784941E-18
3.811751E+03	1.581699E-15	1.727544E-18
3.815383E+03	1.518143E-15	1.658136E-18
3.819015E+03	1.454761E-15	1.588918E-18
3.822647E+03	1.375259E-15	1.502093E-18
3.826279E+03	1.292870E-15	1.412114E-18
3.829911E+03	1.209047E-15	1.320567E-18
3.833543E+03	1.122259E-15	1.225781E-18
3.837175E+03	1.029555E-15	1.124532E-18
3.840807E+03	9.426803E-16	1.029650E-18
3.844439E+03	8.691317E-16	9.493214E-19
3.848071E+03	7.988634E-16	8.725751E-19
3.851703E+03	7.259911E-16	7.929837E-19
3.855335E+03	6.841050E-16	7.472369E-19
3.858967E+03	6.449060E-16	7.044248E-19
3.862599E+03	6.120310E-16	6.685199E-19
3.866231E+03	6.125526E-16	6.690938E-19
3.869863E+03	6.264188E-16	6.842441E-19
3.873495E+03	6.483383E-16	7.081914E-19
3.877127E+03	6.883379E-16	7.518883E-19
3.880759E+03	7.336433E-16	8.013814E-19
3.884391E+03	7.893137E-16	8.621972E-19
3.888023E+03	8.583974E-16	9.376657E-19
3.891655E+03	9.471108E-16	1.034578E-18
3.895287E+03	1.052005E-15	1.149166E-18
3.898919E+03	1.195860E-15	1.306315E-18
3.902552E+03	1.374113E-15	1.501041E-18
3.906184E+03	1.585964E-15	1.732471E-18
3.909816E+03	1.826117E-15	1.994822E-18
3.913448E+03	2.087593E-15	2.280468E-18
3.917080E+03	2.367947E-15	2.586739E-18
3.920712E+03	2.663061E-15	2.909138E-18
3.924344E+03	2.973742E-15	3.248546E-18
3.927976E+03	3.283754E-15	3.587227E-18
3.931608E+03	3.583921E-15	3.915157E-18
3.935240E+03	3.873925E-15	4.231989E-18
3.938872E+03	4.161630E-15	4.546311E-18
3.942504E+03	4.439670E-15	4.850079E-18
3.946136E+03	4.703636E-15	5.138475E-18
3.949768E+03	4.944705E-15	5.401859E-18
3.953400E+03	5.165512E-15	5.643112E-18
3.957032E+03	5.357247E-15	5.852605E-18
3.960664E+03	5.521892E-15	6.032507E-18
3.964296E+03	5.662089E-15	6.185701E-18
3.967928E+03	5.766913E-15	6.300251E-18
3.971560E+03	5.832639E-15	6.372088E-18
3.975192E+03	5.851139E-15	6.392332E-18
3.978824E+03	5.809401E-15	6.346765E-18
3.982456E+03	5.683823E-15	6.209601E-18
3.986088E+03	5.477906E-15	5.984665E-18
3.989720E+03	5.206725E-15	5.688424E-18
3.993352E+03	4.890878E-15	5.343382E-18
3.996984E+03	4.581734E-15	5.005660E-18
4.000616E+03	4.334838E-15	4.735941E-18
4.004248E+03	4.143945E-15	4.527405E-18
4.007881E+03	4.015840E-15	4.387465E-18
4.011512E+03	3.974227E-15	4.342020E-18
4.015144E+03	4.031552E-15	4.404669E-18
4.018777E+03	4.189675E-15	4.577445E-18
4.022409E+03	4.449962E-15	4.861844E-18
4.026041E+03	4.799963E-15	5.244261E-18
4.029673E+03	5.227243E-15	5.711114E-18
4.033305E+03	5.708986E-15	6.237475E-18
4.036937E+03	6.224837E-15	6.801106E-18
4.040569E+03	6.769246E-15	7.395941E-18
4.044201E+03	7.344129E-15	8.024076E-18
4.047833E+03	7.933555E-15	8.668104E-18
4.051465E+03	8.518211E-15	9.306926E-18
4.055097E+03	9.078483E-15	9.919108E-18
4.058729E+03	9.590080E-15	1.047811E-17
4.062361E+03	1.004706E-14	1.097744E-17
4.065993E+03	1.042857E-14	1.139432E-17
4.069625E+03	1.070847E-14	1.170018E-17
4.073257E+03	1.086709E-14	1.187353E-17
4.076889E+03	1.089795E-14	1.190728E-17
4.080521E+03	1.080195E-14	1.180242E-17
4.084153E+03	1.058524E-14	1.156567E-17
4.087785E+03	1.026213E-14	1.121266E-17
4.091417E+03	9.849542E-15	1.076189E-17
4.095049E+03	9.360984E-15	1.022810E-17
4.098681E+03	8.831247E-15	9.649320E-18
4.102313E+03	8.287654E-15	9.055394E-18
4.105945E+03	7.762010E-15	8.481076E-18
4.109577E+03	7.274625E-15	7.948559E-18
4.113209E+03	6.834329E-15	7.467490E-18
4.116841E+03	6.456873E-15	7.055080E-18
4.120473E+03	6.129464E-15	6.697351E-18
4.124105E+03	5.828370E-15	6.368374E-18
4.127738E+03	5.531827E-15	6.044368E-18
4.131369E+03	5.238541E-15	5.723919E-18
4.135002E+03	4.944972E-15	5.403158E-18
4.138634E+03	4.669297E-15	5.101949E-18
4.142266E+03	4.433369E-15	4.844168E-18
4.145898E+03	4.217214E-15	4.607991E-18
4.149530E+03	3.994134E-15	4.364247E-18
4.153162E+03	3.769763E-15	4.119091E-18
4.156794E+03	3.576860E-15	3.908317E-18
4.160426E+03	3.436582E-15	3.755045E-18
4.164058E+03	3.365723E-15	3.677624E-18
4.167690E+03	3.367580E-15	3.679657E-18
4.171322E+03	3.436943E-15	3.755452E-18
4.174954E+03	3.554665E-15	3.884088E-18
4.178586E+03	3.716207E-15	4.060604E-18
4.182218E+03	3.903261E-15	4.264997E-18
4.185850E+03	4.106352E-15	4.486912E-18
4.189482E+03	4.327543E-15	4.728606E-18
4.193114E+03	4.553531E-15	4.975541E-18
4.196746E+03	4.768158E-15	5.210062E-18
4.200378E+03	4.967596E-15	5.427986E-18
4.204010E+03	5.140353E-15	5.616757E-18
4.207642E+03	5.288216E-15	5.778326E-18
4.211274E+03	5.400509E-15	5.901029E-18
4.214906E+03	5.466253E-15	5.972867E-18
4.218538E+03	5.474807E-15	5.982215E-18
4.222170E+03	5.427825E-15	5.930879E-18
4.225802E+03	5.327604E-15	5.821369E-18
4.229434E+03	5.175793E-15	5.655489E-18
4.233066E+03	4.993171E-15	5.455941E-18
4.236698E+03	4.779453E-15	5.222415E-18
4.240331E+03	4.538495E-15	4.959124E-18
4.243962E+03	4.291819E-15	4.689585E-18
4.247595E+03	4.040070E-15	4.414502E-18
4.251227E+03	3.803616E-15	4.156133E-18
4.254859E+03	3.590076E-15	3.922799E-18
4.258491E+03	3.416432E-15	3.733061E-18
4.262123E+03	3.304731E-15	3.611006E-18
4.265755E+03	3.249822E-15	3.551005E-18
4.269387E+03	3.262439E-15	3.564789E-18
4.273019E+03	3.348382E-15	3.658695E-18
4.276651E+03	3.492653E-15	3.816333E-18
4.280283E+03	3.678214E-15	4.019088E-18
4.283915E+03	3.895032E-15	4.255995E-18
4.287547E+03	4.117870E-15	4.499480E-18
4.291179E+03	4.313448E-15	4.713178E-18
4.294811E+03	4.466748E-15	4.880679E-18
4.298443E+03	4.582726E-15	5.007400E-18
4.302075E+03	4.650979E-15	5.081971E-18
4.305707E+03	4.678361E-15	5.111885E-18
4.309339E+03	4.674566E-15	5.107732E-18
4.312971E+03	4.640103E-15	5.070070E-18
4.316603E+03	4.575638E-15	4.999624E-18
4.320235E+03	4.485154E-15	4.900749E-18
4.323867E+03	4.396316E-15	4.803672E-18
4.327499E+03	4.301386E-15	4.699939E-18
4.331131E+03	4.209523E-15	4.599558E-18
4.334763E+03	4.134447E-15	4.517519E-18
4.338395E+03	4.078823E-15	4.456734E-18
4.342027E+03	4.035531E-15	4.409424E-18
4.345659E+03	4.022839E-15	4.395549E-18
4.349291E+03	4.042600E-15	4.417134E-18
4.352923E+03	4.088167E-15	4.466915E-18
4.356556E+03	4.158881E-15	4.544172E-18
4.360188E+03	4.237092E-15	4.629621E-18
4.363819E+03	4.316345E-15	4.716208E-18
4.367452E+03	4.398055E-15	4.805478E-18
4.371084E+03	4.472787E-15	4.887124E-18
4.374716E+03	4.549034E-15	4.970426E-18
4.378348E+03	4.642184E-15	5.072195E-18
4.381980E+03	4.735890E-15	5.174572E-18
4.385612E+03	4.832353E-15	5.279959E-18
4.389244E+03	4.927330E-15	5.383724E-18
4.392876E+03	5.013926E-15	5.478331E-18
4.396508E+03	5.099517E-15	5.571839E-18
4.400140E+03	5.172823E-15	5.651923E-18
4.403772E+03	5.249364E-15	5.735542E-18
4.407404E+03	5.326160E-15	5.819440E-18
4.411036E+03	5.399457E-15	5.899513E-18
4.414668E+03	5.473951E-15	5.980895E-18
4.418300E+03	5.554488E-15	6.068880E-18
4.421932E+03	5.623398E-15	6.144159E-18
4.425564E+03	5.688193E-15	6.214943E-18
4.429196E+03	5.741850E-15	6.273557E-18
4.432828E+03	5.775323E-15	6.310119E-18
4.436460E+03	5.793475E-15	6.329940E-18
4.440092E+03	5.789300E-15	6.325367E-18
4.443724E+03	5.759702E-15	6.293018E-18
4.447356E+03	5.698164E-15	6.225771E-18
4.450988E+03	5.613447E-15	6.133200E-18
4.454620E+03	5.501216E-15	6.010567E-18
4.458252E+03	5.358074E-15	5.854162E-18
4.461884E+03	5.184989E-15	5.665043E-18
4.465516E+03	4.982306E-15	5.443587E-18
4.469148E+03	4.763748E-15	5.204786E-18
4.472780E+03	4.540220E-15	4.960556E-18
4.476413E+03	4.321055E-15	4.721095E-18
4.480044E+03	4.118060E-15	4.499301E-18
4.483676E+03	3.939449E-15	4.304150E-18
4.487309E+03	3.774015E-15	4.123396E-18
4.490941E+03	3.635250E-15	3.971780E-18
4.494573E+03	3.491466E-15	3.814682E-18
4.498205E+03	3.347322E-15	3.657192E-18
4.501837E+03	3.227942E-15	3.526758E-18
4.505469E+03	3.154533E-15	3.446552E-18
4.509101E+03	3.161602E-15	3.454272E-18
4.512733E+03	3.275085E-15	3.578259E-18
4.516365E+03	3.502762E-15	3.827011E-18
4.519997E+03	3.867731E-15	4.225764E-18
4.523629E+03	4.354987E-15	4.758126E-18
4.527261E+03	4.929598E-15	5.385928E-18
4.530893E+03	5.571059E-15	6.086770E-18
4.534525E+03	6.229375E-15	6.806029E-18
4.538157E+03	6.882278E-15	7.519375E-18
4.541789E+03	7.521281E-15	8.217535E-18
4.545421E+03	8.135745E-15	8.888888E-18
4.549053E+03	8.740209E-15	9.549316E-18
4.552685E+03	9.332058E-15	1.019596E-17
4.556317E+03	9.915317E-15	1.083323E-17
4.559949E+03	1.049077E-14	1.146197E-17
4.563581E+03	1.104963E-14	1.207259E-17
4.567213E+03	1.155927E-14	1.262942E-17
4.570845E+03	1.199709E-14	1.310779E-17
4.574477E+03	1.234131E-14	1.348390E-17
4.578109E+03	1.257740E-14	1.374188E-17
4.581741E+03	1.270763E-14	1.388418E-17
4.585373E+03	1.274780E-14	1.392810E-17
4.589005E+03	1.271522E-14	1.389253E-17
4.592637E+03	1.263472E-14	1.380460E-17
4.596270E+03	1.253646E-14	1.369727E-17
4.599901E+03	1.245348E-14	1.360663E-17
4.603534E+03	1.240465E-14	1.355331E-17
4.607166E+03	1.241449E-14	1.356409E-17
4.610798E+03	1.248278E-14	1.363874E-17
4.614430E+03	1.261730E-14	1.378574E-17
4.618062E+03	1.284310E-14	1.403248E-17
4.621694E+03	1.315643E-14	1.437487E-17
4.625326E+03	1.355306E-14	1.480827E-17
4.628958E+03	1.399830E-14	1.529477E-17
4.632590E+03	1.443190E-14	1.576857E-17
4.636222E+03	1.479250E-14	1.616261E-17
4.639854E+03	1.504285E-14	1.643619E-17
4.643486E+03	1.519376E-14	1.660111E-17
4.647118E+03	1.526568E-14	1.667974E-17
4.650750E+03	1.529032E-14	1.670670E-17
4.654382E+03	1.528975E-14	1.670612E-17
4.658014E+03	1.530292E-14	1.672055E-17
4.661646E+03	1.532830E-14	1.674833E-17
4.665278E+03	1.536742E-14	1.679111E-17
4.668910E+03	1.540499E-14	1.683221E-17
4.672542E+03	1.542881E-14	1.685828E-17
4.676174E+03	1.540688E-14	1.683435E-17
4.679806E+03	1.531179E-14	1.673049E-17
4.683438E+03	1.515031E-14	1.655410E-17
4.687070E+03	1.493930E-14	1.632357E-17
4.690702E+03	1.470345E-14	1.606591E-17
4.694334E+03	1.446959E-14	1.581042E-17
4.697966E+03	1.425659E-14	1.557772E-17
4.701598E+03	1.408041E-14	1.538524E-17
4.705230E+03	1.393491E-14	1.522630E-17
4.708863E+03	1.380138E-14	1.508043E-17
4.712494E+03	1.367296E-14	1.494014E-17
4.716127E+03	1.354189E-14	1.479696E-17
4.719758E+03	1.338448E-14	1.462499E-17
4.723391E+03	1.317343E-14	1.439442E-17
4.727023E+03	1.290696E-14	1.410328E-17
4.730655E+03	1.260410E-14	1.377238E-17
4.734287E+03	1.226898E-14	1.340623E-17
4.737919E+03	1.193228E-14	1.303834E-17
4.741551E+03	1.164050E-14	1.271955E-17
4.745183E+03	1.140425E-14	1.246141E-17
4.748815E+03	1.123420E-14	1.227563E-17
4.752447E+03	1.112529E-14	1.215665E-17
4.756079E+03	1.104432E-14	1.206820E-17
4.759711E+03	1.099261E-14	1.201172E-17
4.763343E+03	1.097574E-14	1.199331E-17
4.766975E+03	1.099064E-14	1.200961E-17
4.770607E+03	1.103185E-14	1.205466E-17
4.774239E+03	1.106730E-14	1.209341E-17
4.777871E+03	1.105663E-14	1.208178E-17
4.781503E+03	1.099099E-14	1.201008E-17
4.785135E+03	1.087859E-14	1.188727E-17
4.788767E+03	1.073470E-14	1.173006E-17
4.792399E+03	1.058352E-14	1.156488E-17
4.796031E+03	1.045537E-14	1.142486E-17
4.799663E+03	1.035054E-14	1.131032E-17
4.803295E+03	1.028391E-14	1.123753E-17
4.806927E+03	1.025064E-14	1.120119E-17
4.810559E+03	1.023803E-14	1.118742E-17
4.814191E+03	1.023913E-14	1.118864E-17
4.817823E+03	1.023588E-14	1.118510E-17
4.821455E+03	1.020735E-14	1.115393E-17
4.825087E+03	1.014587E-14	1.108677E-17
4.828720E+03	1.004021E-14	1.097133E-17
4.832351E+03	9.889813E-15	1.080699E-17
4.835984E+03	9.690948E-15	1.058969E-17
4.839616E+03	9.473125E-15	1.035167E-17
4.843248E+03	9.263555E-15	1.012268E-17
4.846880E+03	9.062380E-15	9.902851E-18
4.850512E+03	8.900822E-15	9.726317E-18
4.854144E+03	8.795805E-15	9.611565E-18
4.857776E+03	8.770383E-15	9.583791E-18
4.861408E+03	8.828532E-15	9.647338E-18
4.865040E+03	8.956376E-15	9.787043E-18
4.868672E+03	9.155949E-15	1.000513E-17
4.872304E+03	9.439023E-15	1.031446E-17
4.875936E+03	9.815258E-15	1.072559E-17
4.879568E+03	1.031407E-14	1.127067E-17
4.883200E+03	1.095975E-14	1.197624E-17
4.886832E+03	1.176324E-14	1.285425E-17
4.890464E+03	1.269836E-14	1.387610E-17
4.894096E+03	1.374791E-14	1.502299E-17
4.897728E+03	1.485993E-14	1.623815E-17
4.901360E+03	1.596558E-14	1.744634E-17
4.904992E+03	1.702018E-14	1.859874E-17
4.908624E+03	1.796207E-14	1.962799E-17
4.912256E+03	1.873463E-14	2.047219E-17
4.915888E+03	1.929916E-14	2.108908E-17
4.919520E+03	1.960066E-14	2.141853E-17
4.923152E+03	1.960803E-14	2.142657E-17
4.926784E+03	1.932154E-14	2.111349E-17
4.930416E+03	1.872952E-14	2.046655E-17
4.934048E+03	1.787103E-14	1.952844E-17
4.937680E+03	1.680891E-14	1.836780E-17
4.941312E+03	1.560293E-14	1.704996E-17
4.944944E+03	1.430983E-14	1.563691E-17
4.948577E+03	1.301112E-14	1.421774E-17
