#wls	flux	fluxerr
1.600000E+03	1.260718E-16	3.920089E-20
1.640000E+03	1.276942E-16	3.970536E-20
1.680000E+03	1.294144E-16	4.024022E-20
1.720000E+03	1.311931E-16	4.079327E-20
1.760000E+03	1.331122E-16	4.138999E-20
1.800000E+03	1.350923E-16	4.200567E-20
1.840000E+03	1.372150E-16	4.266566E-20
1.880000E+03	1.394011E-16	4.334540E-20
1.920000E+03	1.417317E-16	4.407004E-20
1.960000E+03	1.441677E-16	4.482748E-20
2.000000E+03	1.467101E-16	4.561799E-20
2.040000E+03	1.493593E-16	4.644172E-20
2.080000E+03	1.521158E-16	4.729878E-20
2.120000E+03	1.549795E-16	4.818920E-20
2.160000E+03	1.579498E-16	4.911278E-20
2.200000E+03	1.610656E-16	5.008157E-20
2.240000E+03	1.642458E-16	5.107041E-20
2.280000E+03	1.675671E-16	5.210309E-20
2.320000E+03	1.709469E-16	5.315397E-20
2.360000E+03	1.744596E-16	5.424618E-20
2.400000E+03	1.780202E-16	5.535329E-20
2.440000E+03	1.816607E-16	5.648524E-20
2.480000E+03	1.853718E-16	5.763915E-20
2.520000E+03	1.891026E-16	5.879916E-20
2.560000E+03	1.928789E-16	5.997333E-20
2.600000E+03	1.966845E-16	6.115661E-20
2.640000E+03	2.004610E-16	6.233085E-20
2.680000E+03	2.041865E-16	6.348922E-20
2.720000E+03	2.078361E-16	6.462396E-20
2.760000E+03	2.114205E-16	6.573848E-20
2.800000E+03	2.148302E-16	6.679864E-20
2.840000E+03	2.180700E-16	6.780599E-20
2.880000E+03	2.210645E-16	6.873707E-20
2.920000E+03	2.238146E-16	6.959213E-20
2.960000E+03	2.262810E-16	7.035899E-20
3.000000E+03	2.283878E-16	7.101404E-20
3.010000E+03	2.288637E-16	7.116202E-20
3.020000E+03	2.293145E-16	7.130216E-20
3.030000E+03	2.297396E-16	7.143434E-20
3.040000E+03	2.301762E-16	7.157010E-20
3.050000E+03	2.305488E-16	7.168594E-20
3.060000E+03	2.309320E-16	7.180507E-20
3.070000E+03	2.313250E-16	7.192726E-20
3.080000E+03	2.316531E-16	7.202927E-20
3.090000E+03	2.319904E-16	7.213414E-20
3.100000E+03	2.323362E-16	7.224169E-20
3.110000E+03	2.326535E-16	7.234033E-20
3.120000E+03	2.329422E-16	7.243008E-20
3.130000E+03	2.332386E-16	7.252222E-20
3.140000E+03	2.335062E-16	7.260542E-20
3.150000E+03	2.337812E-16	7.269094E-20
3.160000E+03	2.340636E-16	7.277874E-20
3.170000E+03	2.343173E-16	7.285761E-20
3.180000E+03	2.345784E-16	7.293879E-20
3.190000E+03	2.348471E-16	7.302233E-20
3.200000E+03	2.351235E-16	7.310827E-20
3.210000E+03	2.354079E-16	7.319669E-20
3.220000E+03	2.356656E-16	7.327680E-20
3.230000E+03	2.359324E-16	7.335976E-20
3.240000E+03	2.362440E-16	7.345663E-20
3.250000E+03	2.365313E-16	7.354596E-20
3.260000E+03	2.368647E-16	7.364963E-20
3.270000E+03	2.372106E-16	7.375717E-20
3.280000E+03	2.375702E-16	7.386896E-20
3.290000E+03	2.379449E-16	7.398548E-20
3.300000E+03	2.383366E-16	7.410726E-20
3.310000E+03	2.387808E-16	7.424535E-20
3.320000E+03	2.392790E-16	7.440026E-20
3.330000E+03	2.397997E-16	7.456217E-20
3.340000E+03	2.403457E-16	7.473194E-20
3.350000E+03	2.409528E-16	7.492069E-20
3.360000E+03	2.416236E-16	7.512925E-20
3.370000E+03	2.423611E-16	7.535858E-20
3.380000E+03	2.431362E-16	7.559957E-20
3.390000E+03	2.439854E-16	7.586359E-20
3.400000E+03	2.449449E-16	7.616194E-20
3.410000E+03	2.459545E-16	7.647585E-20
3.420000E+03	2.470835E-16	7.682688E-20
3.430000E+03	2.482731E-16	7.719675E-20
3.440000E+03	2.495928E-16	7.760710E-20
3.450000E+03	2.510487E-16	7.805976E-20
3.460000E+03	2.526155E-16	7.854695E-20
3.470000E+03	2.543008E-16	7.907096E-20
3.480000E+03	2.561439E-16	7.964403E-20
3.490000E+03	2.581530E-16	8.026871E-20
3.500000E+03	2.603370E-16	8.094779E-20
3.510000E+03	2.627058E-16	8.168433E-20
3.520000E+03	2.652388E-16	8.247193E-20
3.530000E+03	2.680094E-16	8.333339E-20
3.540000E+03	2.709986E-16	8.426281E-20
3.550000E+03	2.742502E-16	8.527386E-20
3.560000E+03	2.777162E-16	8.635154E-20
3.570000E+03	2.815042E-16	8.752934E-20
3.580000E+03	2.855366E-16	8.878314E-20
3.590000E+03	2.899231E-16	9.014705E-20
3.600000E+03	2.946172E-16	9.160660E-20
3.610000E+03	2.996619E-16	9.317516E-20
3.620000E+03	3.050670E-16	9.485578E-20
3.630000E+03	3.108742E-16	9.666144E-20
3.640000E+03	3.170305E-16	9.857564E-20
3.650000E+03	3.235782E-16	1.006115E-19
3.660000E+03	3.305608E-16	1.027826E-19
3.670000E+03	3.379906E-16	1.050928E-19
3.680000E+03	3.458149E-16	1.075256E-19
3.690000E+03	3.541447E-16	1.101157E-19
3.700000E+03	3.629280E-16	1.128467E-19
3.710000E+03	3.722115E-16	1.157332E-19
3.720000E+03	3.820097E-16	1.187798E-19
3.730000E+03	3.923370E-16	1.219909E-19
3.740000E+03	4.032084E-16	1.253712E-19
3.750000E+03	4.146737E-16	1.289361E-19
3.760000E+03	4.267134E-16	1.326796E-19
3.770000E+03	4.393420E-16	1.366063E-19
3.780000E+03	4.526104E-16	1.407319E-19
3.790000E+03	4.665337E-16	1.450611E-19
3.800000E+03	4.811264E-16	1.495984E-19
3.810000E+03	4.963643E-16	1.543364E-19
3.820000E+03	5.123356E-16	1.593024E-19
3.830000E+03	5.290144E-16	1.644884E-19
3.840000E+03	5.464503E-16	1.699098E-19
3.850000E+03	5.646129E-16	1.755571E-19
3.860000E+03	5.835495E-16	1.814451E-19
3.870000E+03	6.032242E-16	1.875626E-19
3.880000E+03	6.237228E-16	1.939363E-19
3.890000E+03	6.449618E-16	2.005402E-19
3.900000E+03	6.670237E-16	2.074000E-19
3.910000E+03	6.899043E-16	2.145143E-19
3.920000E+03	7.135509E-16	2.218668E-19
3.930000E+03	7.379951E-16	2.294673E-19
3.940000E+03	7.631746E-16	2.372964E-19
3.950000E+03	7.891607E-16	2.453764E-19
3.960000E+03	8.158819E-16	2.536849E-19
3.970000E+03	8.433088E-16	2.622128E-19
3.980000E+03	8.714547E-16	2.709642E-19
3.990000E+03	9.002792E-16	2.799267E-19
3.999000E+03	1.276071E-15	3.967727E-19
4.000500E+03	1.294975E-15	4.026507E-19
4.002000E+03	1.307940E-15	4.066821E-19
4.003500E+03	1.312535E-15	4.081107E-19
4.005000E+03	1.310451E-15	4.074627E-19
4.006500E+03	1.309339E-15	4.071170E-19
4.008000E+03	1.309199E-15	4.070733E-19
4.009500E+03	1.307479E-15	4.065385E-19
4.011000E+03	1.304785E-15	4.057009E-19
4.012500E+03	1.299414E-15	4.040308E-19
4.014000E+03	1.292824E-15	4.019819E-19
4.015500E+03	1.285380E-15	3.996672E-19
4.017000E+03	1.278419E-15	3.975027E-19
4.018500E+03	1.277906E-15	3.973434E-19
4.020000E+03	1.283361E-15	3.990396E-19
4.021500E+03	1.301245E-15	4.046003E-19
4.023000E+03	1.329008E-15	4.132327E-19
4.024500E+03	1.343014E-15	4.175875E-19
4.026000E+03	1.347518E-15	4.189881E-19
4.027500E+03	1.358977E-15	4.225509E-19
4.029000E+03	1.376784E-15	4.280877E-19
4.030500E+03	1.403996E-15	4.365488E-19
4.032000E+03	1.438789E-15	4.473672E-19
4.033500E+03	1.479218E-15	4.599378E-19
4.035000E+03	1.523698E-15	4.737680E-19
4.036500E+03	1.560629E-15	4.852512E-19
4.038000E+03	1.591838E-15	4.949551E-19
4.039500E+03	1.614265E-15	5.019285E-19
4.041000E+03	1.630104E-15	5.068532E-19
4.042500E+03	1.656467E-15	5.150505E-19
4.044000E+03	1.698133E-15	5.280058E-19
4.045500E+03	1.757195E-15	5.463701E-19
4.047000E+03	1.824488E-15	5.672937E-19
4.048500E+03	1.896838E-15	5.897895E-19
4.050000E+03	1.974736E-15	6.140106E-19
4.051500E+03	2.051574E-15	6.379022E-19
4.053000E+03	2.130783E-15	6.625308E-19
4.054500E+03	2.205501E-15	6.857631E-19
4.056000E+03	2.270576E-15	7.059972E-19
4.057500E+03	2.331152E-15	7.248321E-19
4.059000E+03	2.390534E-15	7.432960E-19
4.060500E+03	2.454366E-15	7.631434E-19
4.062000E+03	2.513570E-15	7.815518E-19
4.063500E+03	2.563847E-15	7.971845E-19
4.065000E+03	2.616484E-15	8.135512E-19
4.066500E+03	2.666817E-15	8.292014E-19
4.068000E+03	2.725777E-15	8.475340E-19
4.069500E+03	2.801604E-15	8.711113E-19
4.071000E+03	2.874648E-15	8.938228E-19
4.072500E+03	2.941583E-15	9.146353E-19
4.074000E+03	3.001425E-15	9.332419E-19
4.075500E+03	3.055024E-15	9.499078E-19
4.077000E+03	3.102380E-15	9.646323E-19
4.078500E+03	3.140408E-15	9.764564E-19
4.080000E+03	3.182397E-15	9.895122E-19
4.081500E+03	3.224656E-15	1.002652E-18
4.083000E+03	3.251664E-15	1.011050E-18
4.084500E+03	3.273883E-15	1.017958E-18
4.086000E+03	3.293402E-15	1.024027E-18
4.087500E+03	3.298263E-15	1.025538E-18
4.089000E+03	3.302755E-15	1.026935E-18
4.090500E+03	3.311445E-15	1.029637E-18
4.092000E+03	3.301757E-15	1.026625E-18
4.093500E+03	3.273795E-15	1.017931E-18
4.095000E+03	3.247672E-15	1.009808E-18
4.096500E+03	3.221286E-15	1.001604E-18
4.098000E+03	3.197234E-15	9.941254E-19
4.099500E+03	3.183919E-15	9.899851E-19
4.101000E+03	3.167630E-15	9.849204E-19
4.102500E+03	3.143667E-15	9.774696E-19
4.104000E+03	3.114745E-15	9.684767E-19
4.105500E+03	3.076530E-15	9.565944E-19
4.107000E+03	3.034829E-15	9.436282E-19
4.108500E+03	2.993229E-15	9.306934E-19
4.110000E+03	2.954205E-15	9.185596E-19
4.111500E+03	2.923953E-15	9.091532E-19
4.113000E+03	2.902232E-15	9.023994E-19
4.114500E+03	2.892022E-15	8.992246E-19
4.116000E+03	2.883170E-15	8.964723E-19
4.117500E+03	2.866131E-15	8.911744E-19
4.119000E+03	2.836309E-15	8.819018E-19
4.120500E+03	2.790469E-15	8.676484E-19
4.122000E+03	2.736537E-15	8.508792E-19
4.123500E+03	2.676369E-15	8.321711E-19
4.125000E+03	2.609092E-15	8.112523E-19
4.126500E+03	2.535194E-15	7.882749E-19
4.128000E+03	2.480260E-15	7.711944E-19
4.129500E+03	2.447911E-15	7.611360E-19
4.131000E+03	2.418279E-15	7.519223E-19
4.132500E+03	2.395344E-15	7.447911E-19
4.134000E+03	2.364188E-15	7.351037E-19
4.135500E+03	2.322565E-15	7.221616E-19
4.137000E+03	2.281292E-15	7.093284E-19
4.138500E+03	2.239746E-15	6.964105E-19
4.140000E+03	2.209881E-15	6.871245E-19
4.141500E+03	2.191955E-15	6.815508E-19
4.143000E+03	2.174144E-15	6.760128E-19
4.144500E+03	2.157693E-15	6.708976E-19
4.146000E+03	2.140984E-15	6.657023E-19
4.147500E+03	2.122396E-15	6.599225E-19
4.149000E+03	2.094568E-15	6.512699E-19
4.150500E+03	2.053500E-15	6.385003E-19
4.152000E+03	2.001800E-15	6.224253E-19
4.153500E+03	1.941085E-15	6.035468E-19
4.155000E+03	1.885828E-15	5.863656E-19
4.156500E+03	1.836534E-15	5.710387E-19
4.158000E+03	1.785964E-15	5.553147E-19
4.159500E+03	1.732740E-15	5.387655E-19
4.161000E+03	1.672735E-15	5.201082E-19
4.162500E+03	1.607444E-15	4.998070E-19
4.164000E+03	1.543116E-15	4.798053E-19
4.165500E+03	1.481378E-15	4.606090E-19
4.167000E+03	1.425989E-15	4.433866E-19
4.168500E+03	1.378578E-15	4.286450E-19
4.170000E+03	1.333395E-15	4.145962E-19
4.171500E+03	1.290441E-15	4.012402E-19
4.173000E+03	1.235784E-15	3.842456E-19
4.174500E+03	1.167622E-15	3.630518E-19
4.176000E+03	1.117498E-15	3.474667E-19
4.177500E+03	1.088879E-15	3.385681E-19
4.179000E+03	1.064646E-15	3.310332E-19
4.180500E+03	1.045267E-15	3.250078E-19
4.182000E+03	1.027472E-15	3.194746E-19
4.183500E+03	1.009729E-15	3.139576E-19
4.185000E+03	9.896897E-16	3.077269E-19
4.186500E+03	9.658698E-16	3.003205E-19
4.188000E+03	9.563750E-16	2.973682E-19
4.189500E+03	9.613546E-16	2.989166E-19
4.191000E+03	9.858012E-16	3.065178E-19
4.192500E+03	1.032624E-15	3.210767E-19
4.194000E+03	1.076934E-15	3.348541E-19
4.195500E+03	1.119558E-15	3.481071E-19
4.198500E+03	1.158882E-15	3.603344E-19
4.200000E+03	1.193292E-15	3.710336E-19
4.201500E+03	1.225178E-15	3.809478E-19
4.203000E+03	1.252293E-15	3.893788E-19
4.204500E+03	1.281214E-15	3.983713E-19
4.206000E+03	1.310090E-15	4.073496E-19
4.207500E+03	1.354749E-15	4.212358E-19
4.209000E+03	1.414324E-15	4.397596E-19
4.210500E+03	1.473555E-15	4.581764E-19
4.212000E+03	1.533832E-15	4.769185E-19
4.213500E+03	1.590230E-15	4.944542E-19
4.215000E+03	1.641985E-15	5.105467E-19
4.216500E+03	1.697942E-15	5.279456E-19
4.218000E+03	1.755323E-15	5.457871E-19
4.219500E+03	1.809070E-15	5.624988E-19
4.221000E+03	1.861079E-15	5.786702E-19
4.222500E+03	1.907678E-15	5.931593E-19
4.224000E+03	1.949371E-15	6.061228E-19
4.225500E+03	1.990581E-15	6.189364E-19
4.227000E+03	2.031182E-15	6.315606E-19
4.228500E+03	2.063955E-15	6.417508E-19
4.230000E+03	2.088891E-15	6.495043E-19
4.231500E+03	2.112069E-15	6.567110E-19
4.233000E+03	2.132090E-15	6.629363E-19
4.234500E+03	2.158591E-15	6.711762E-19
4.236000E+03	2.191832E-15	6.815118E-19
4.237500E+03	2.204282E-15	6.853831E-19
4.239000E+03	2.196559E-15	6.829816E-19
4.240500E+03	2.187308E-15	6.801051E-19
4.242000E+03	2.177162E-15	6.769505E-19
4.243500E+03	2.173108E-15	6.756901E-19
4.245000E+03	2.173500E-15	6.758120E-19
4.246500E+03	2.170079E-15	6.747481E-19
4.248000E+03	2.161697E-15	6.721418E-19
4.249500E+03	2.148477E-15	6.680314E-19
4.251000E+03	2.132068E-15	6.629294E-19
4.252500E+03	2.110814E-15	6.563207E-19
4.254000E+03	2.083054E-15	6.476893E-19
4.255500E+03	2.048148E-15	6.368357E-19
4.257000E+03	2.006342E-15	6.238368E-19
4.258500E+03	1.961708E-15	6.099587E-19
4.260000E+03	1.916792E-15	5.959928E-19
4.261500E+03	1.870702E-15	5.816619E-19
4.263000E+03	1.825860E-15	5.677192E-19
4.264500E+03	1.777292E-15	5.526178E-19
4.266000E+03	1.726398E-15	5.367931E-19
4.267500E+03	1.673304E-15	5.202845E-19
4.269000E+03	1.617879E-15	5.030511E-19
4.270500E+03	1.569063E-15	4.878727E-19
4.272000E+03	1.528650E-15	4.753068E-19
4.273500E+03	1.498565E-15	4.659524E-19
4.275000E+03	1.471784E-15	4.576255E-19
4.276500E+03	1.445372E-15	4.494131E-19
4.278000E+03	1.428026E-15	4.440196E-19
4.279500E+03	1.424489E-15	4.429197E-19
4.281000E+03	1.424788E-15	4.430128E-19
4.282500E+03	1.424704E-15	4.429868E-19
4.284000E+03	1.434226E-15	4.459473E-19
4.285500E+03	1.443112E-15	4.487103E-19
4.287000E+03	1.450978E-15	4.511561E-19
4.288500E+03	1.465387E-15	4.556364E-19
4.290000E+03	1.484805E-15	4.616739E-19
4.291500E+03	1.515907E-15	4.713445E-19
4.293000E+03	1.550875E-15	4.822173E-19
4.294500E+03	1.585609E-15	4.930172E-19
4.296000E+03	1.625755E-15	5.055000E-19
4.297500E+03	1.664000E-15	5.173915E-19
4.299000E+03	1.697900E-15	5.279321E-19
4.300500E+03	1.729765E-15	5.378400E-19
4.302000E+03	1.758307E-15	5.467147E-19
4.303500E+03	1.785709E-15	5.552349E-19
4.305000E+03	1.820717E-15	5.661198E-19
4.306500E+03	1.860376E-15	5.784510E-19
4.308000E+03	1.895684E-15	5.894294E-19
4.309500E+03	1.930885E-15	6.003746E-19
4.311000E+03	1.963789E-15	6.106056E-19
4.312500E+03	1.992463E-15	6.195211E-19
4.314000E+03	2.023216E-15	6.290832E-19
4.315500E+03	2.054374E-15	6.387712E-19
4.317000E+03	2.084261E-15	6.480642E-19
4.318500E+03	2.107848E-15	6.553981E-19
4.320000E+03	2.124354E-15	6.605304E-19
4.321500E+03	2.136484E-15	6.643019E-19
4.323000E+03	2.144231E-15	6.667109E-19
4.324500E+03	2.150692E-15	6.687197E-19
4.326000E+03	2.160387E-15	6.717341E-19
4.327500E+03	2.168148E-15	6.741474E-19
4.329000E+03	2.169454E-15	6.745532E-19
4.330500E+03	2.169855E-15	6.746779E-19
4.332000E+03	2.172195E-15	6.754057E-19
4.333500E+03	2.177125E-15	6.769386E-19
4.335000E+03	2.182446E-15	6.785929E-19
4.336500E+03	2.181945E-15	6.784372E-19
4.338000E+03	2.178596E-15	6.773957E-19
4.339500E+03	2.173043E-15	6.756693E-19
4.341000E+03	2.159196E-15	6.713636E-19
4.342500E+03	2.140805E-15	6.656452E-19
4.344000E+03	2.118253E-15	6.586334E-19
4.345500E+03	2.096337E-15	6.518189E-19
4.347000E+03	2.083098E-15	6.477025E-19
4.348500E+03	2.073354E-15	6.446727E-19
4.350000E+03	2.067368E-15	6.428113E-19
4.351500E+03	2.063066E-15	6.414736E-19
4.353000E+03	2.059540E-15	6.403774E-19
4.354500E+03	2.058480E-15	6.400479E-19
4.356000E+03	2.058330E-15	6.400013E-19
4.357500E+03	2.064679E-15	6.419751E-19
4.359000E+03	2.068171E-15	6.430609E-19
4.360500E+03	2.064901E-15	6.420442E-19
4.362000E+03	2.065142E-15	6.421192E-19
4.363500E+03	2.072802E-15	6.445010E-19
4.365000E+03	2.086845E-15	6.488675E-19
4.366500E+03	2.104804E-15	6.544514E-19
4.368000E+03	2.116131E-15	6.579732E-19
4.369500E+03	2.116127E-15	6.579721E-19
4.371000E+03	2.115081E-15	6.576470E-19
4.372500E+03	2.115077E-15	6.576457E-19
4.374000E+03	2.116508E-15	6.580906E-19
4.375500E+03	2.122376E-15	6.599150E-19
4.377000E+03	2.129030E-15	6.619840E-19
4.378500E+03	2.134905E-15	6.638107E-19
4.380000E+03	2.144571E-15	6.668160E-19
4.381500E+03	2.159205E-15	6.713664E-19
4.383000E+03	2.173327E-15	6.757572E-19
4.384500E+03	2.188895E-15	6.805979E-19
4.386000E+03	2.201072E-15	6.843842E-19
4.387500E+03	2.198872E-15	6.836999E-19
4.389000E+03	2.199678E-15	6.839508E-19
4.390500E+03	2.213049E-15	6.881080E-19
4.392000E+03	2.232972E-15	6.943028E-19
4.393500E+03	2.262335E-15	7.034327E-19
4.395000E+03	2.291848E-15	7.126092E-19
4.396500E+03	2.314041E-15	7.195097E-19
4.398000E+03	2.332054E-15	7.251105E-19
4.399500E+03	2.346145E-15	7.294918E-19
4.401000E+03	2.360900E-15	7.340796E-19
4.402500E+03	2.381043E-15	7.403426E-19
4.404000E+03	2.400279E-15	7.463240E-19
4.405500E+03	2.416508E-15	7.513700E-19
4.407000E+03	2.431828E-15	7.561334E-19
4.408500E+03	2.445975E-15	7.605322E-19
4.410000E+03	2.459737E-15	7.648111E-19
4.411500E+03	2.466935E-15	7.670493E-19
4.413000E+03	2.469536E-15	7.678581E-19
4.414500E+03	2.470956E-15	7.682996E-19
4.416000E+03	2.473692E-15	7.691502E-19
4.417500E+03	2.480508E-15	7.712696E-19
4.419000E+03	2.488909E-15	7.738816E-19
4.420500E+03	2.496656E-15	7.762904E-19
4.422000E+03	2.504539E-15	7.787415E-19
4.423500E+03	2.514930E-15	7.819724E-19
4.425000E+03	2.531259E-15	7.870495E-19
4.426500E+03	2.553926E-15	7.940975E-19
4.428000E+03	2.579112E-15	8.019286E-19
4.429500E+03	2.606689E-15	8.105031E-19
4.431000E+03	2.630587E-15	8.179337E-19
4.432500E+03	2.649484E-15	8.238095E-19
4.434000E+03	2.662847E-15	8.279645E-19
4.435500E+03	2.675029E-15	8.317523E-19
4.437000E+03	2.697657E-15	8.387879E-19
4.438500E+03	2.730739E-15	8.490741E-19
4.440000E+03	2.769130E-15	8.610112E-19
4.441500E+03	2.809263E-15	8.734900E-19
4.443000E+03	2.843601E-15	8.841667E-19
4.444500E+03	2.869887E-15	8.923399E-19
4.446000E+03	2.888910E-15	8.982548E-19
4.447500E+03	2.901457E-15	9.021558E-19
4.449000E+03	2.915468E-15	9.065123E-19
4.450500E+03	2.937305E-15	9.133021E-19
4.452000E+03	2.963660E-15	9.214968E-19
4.453500E+03	2.987778E-15	9.289959E-19
4.455000E+03	3.006741E-15	9.348918E-19
4.456500E+03	3.020274E-15	9.390998E-19
4.458000E+03	3.033816E-15	9.433105E-19
4.459500E+03	3.053871E-15	9.495463E-19
4.461000E+03	3.073806E-15	9.557445E-19
4.462500E+03	3.093220E-15	9.617812E-19
4.464000E+03	3.109857E-15	9.669539E-19
4.465500E+03	3.117600E-15	9.693614E-19
4.467000E+03	3.117370E-15	9.692900E-19
4.468500E+03	3.106502E-15	9.659107E-19
4.470000E+03	3.091503E-15	9.612470E-19
4.471500E+03	3.078092E-15	9.570770E-19
4.473000E+03	3.064005E-15	9.526972E-19
4.474500E+03	3.048312E-15	9.478178E-19
4.476000E+03	3.026750E-15	9.411133E-19
4.477500E+03	3.000245E-15	9.328719E-19
4.479000E+03	2.974655E-15	9.249152E-19
4.480500E+03	2.948782E-15	9.168706E-19
4.482000E+03	2.917026E-15	9.069964E-19
4.483500E+03	2.878847E-15	8.951253E-19
4.485000E+03	2.833437E-15	8.810062E-19
4.486500E+03	2.781193E-15	8.647617E-19
4.488000E+03	2.729182E-15	8.485899E-19
4.489500E+03	2.676472E-15	8.322005E-19
4.491000E+03	2.626400E-15	8.166316E-19
4.492500E+03	2.585653E-15	8.039620E-19
4.494000E+03	2.549826E-15	7.928221E-19
4.495500E+03	2.518123E-15	7.829646E-19
4.497000E+03	2.481850E-15	7.716865E-19
4.498500E+03	2.436324E-15	7.575307E-19
4.500000E+03	2.386885E-15	7.421587E-19
4.501500E+03	2.335274E-15	7.261113E-19
4.503000E+03	2.285909E-15	7.107619E-19
4.504500E+03	2.237583E-15	6.957358E-19
4.506000E+03	2.192042E-15	6.815759E-19
4.507500E+03	2.155052E-15	6.700745E-19
4.509000E+03	2.121526E-15	6.596502E-19
4.510500E+03	2.091333E-15	6.502620E-19
4.512000E+03	2.065280E-15	6.421614E-19
4.513500E+03	2.037332E-15	6.334714E-19
4.515000E+03	2.005070E-15	6.234401E-19
4.516500E+03	1.967012E-15	6.116067E-19
4.518000E+03	1.927318E-15	5.992644E-19
4.519500E+03	1.885045E-15	5.861207E-19
4.521000E+03	1.844897E-15	5.736373E-19
4.522500E+03	1.808220E-15	5.622332E-19
4.524000E+03	1.776364E-15	5.523280E-19
4.525500E+03	1.751618E-15	5.446339E-19
4.527000E+03	1.733319E-15	5.389441E-19
4.528500E+03	1.725107E-15	5.363906E-19
4.530000E+03	1.728069E-15	5.373116E-19
4.531500E+03	1.738307E-15	5.404950E-19
4.533000E+03	1.757043E-15	5.463207E-19
4.534500E+03	1.787385E-15	5.557548E-19
4.536000E+03	1.825971E-15	5.677525E-19
4.537500E+03	1.877262E-15	5.837004E-19
4.539000E+03	1.950040E-15	6.063295E-19
4.540500E+03	2.050266E-15	6.374930E-19
4.542000E+03	2.169727E-15	6.746372E-19
4.543500E+03	2.305741E-15	7.169281E-19
4.545000E+03	2.452648E-15	7.626063E-19
4.546500E+03	2.605999E-15	8.102880E-19
4.548000E+03	2.769990E-15	8.612780E-19
4.549500E+03	2.939763E-15	9.140658E-19
4.551000E+03	3.115458E-15	9.686949E-19
4.552500E+03	3.298706E-15	1.025673E-18
4.554000E+03	3.483826E-15	1.083232E-18
4.555500E+03	3.668928E-15	1.140786E-18
4.557000E+03	3.852924E-15	1.197996E-18
4.558500E+03	4.030939E-15	1.253347E-18
4.560000E+03	4.201337E-15	1.306329E-18
4.561500E+03	4.364522E-15	1.357068E-18
4.563000E+03	4.526587E-15	1.407459E-18
4.564500E+03	4.685632E-15	1.456912E-18
