#wls	flux	fluxerr
1.600000E+03	1.105727E-16	6.818112E-18
1.640000E+03	1.118859E-16	6.865155E-18
1.680000E+03	1.132803E-16	6.915643E-18
1.720000E+03	1.147568E-16	6.969528E-18
1.760000E+03	1.162825E-16	7.024709E-18
1.800000E+03	1.179263E-16	7.085250E-18
1.840000E+03	1.196552E-16	7.149026E-18
1.880000E+03	1.214701E-16	7.215972E-18
1.920000E+03	1.233719E-16	7.286024E-18
1.960000E+03	1.253616E-16	7.359100E-18
2.000000E+03	1.274730E-16	7.437056E-18
2.040000E+03	1.296400E-16	7.515893E-18
2.080000E+03	1.319295E-16	7.599356E-18
2.120000E+03	1.343081E-16	7.685367E-18
2.160000E+03	1.367754E-16	7.773763E-18
2.200000E+03	1.393304E-16	7.864357E-18
2.240000E+03	1.420043E-16	7.958761E-18
2.280000E+03	1.447291E-16	8.053013E-18
2.320000E+03	1.475674E-16	8.150481E-18
2.360000E+03	1.504491E-16	8.247157E-18
2.400000E+03	1.534344E-16	8.346244E-18
2.440000E+03	1.564837E-16	8.445449E-18
2.480000E+03	1.595556E-16	8.542466E-18
2.520000E+03	1.627052E-16	8.640185E-18
2.560000E+03	1.658549E-16	8.734411E-18
2.600000E+03	1.690228E-16	8.826099E-18
2.640000E+03	1.721916E-16	8.914346E-18
2.680000E+03	1.753093E-16	8.996506E-18
2.720000E+03	1.783861E-16	9.073203E-18
2.760000E+03	1.813969E-16	9.143279E-18
2.800000E+03	1.842819E-16	9.203893E-18
2.840000E+03	1.870116E-16	9.253831E-18
2.880000E+03	1.896181E-16	9.294973E-18
2.920000E+03	1.920049E-16	9.322900E-18
2.960000E+03	1.942024E-16	9.339502E-18
3.000000E+03	1.962095E-16	9.345111E-18
3.010000E+03	1.966586E-16	9.343754E-18
3.020000E+03	1.971167E-16	9.342738E-18
3.030000E+03	1.975525E-16	9.340583E-18
3.040000E+03	1.979656E-16	9.337280E-18
3.050000E+03	1.983864E-16	9.334268E-18
3.060000E+03	1.988144E-16	9.331526E-18
3.070000E+03	1.991883E-16	9.326182E-18
3.080000E+03	1.995687E-16	9.321092E-18
3.090000E+03	1.999553E-16	9.316238E-18
3.100000E+03	2.003177E-16	9.310206E-18
3.110000E+03	2.006858E-16	9.304396E-18
3.120000E+03	2.010294E-16	9.297418E-18
3.130000E+03	2.013785E-16	9.290657E-18
3.140000E+03	2.017031E-16	9.282742E-18
3.150000E+03	2.020332E-16	9.275055E-18
3.160000E+03	2.023686E-16	9.267592E-18
3.170000E+03	2.027095E-16	9.260361E-18
3.180000E+03	2.030560E-16	9.253370E-18
3.190000E+03	2.033791E-16	9.245302E-18
3.200000E+03	2.037085E-16	9.237517E-18
3.210000E+03	2.040447E-16	9.230036E-18
3.220000E+03	2.043882E-16	9.222880E-18
3.230000E+03	2.047681E-16	9.217366E-18
3.240000E+03	2.051281E-16	9.210953E-18
3.250000E+03	2.054977E-16	9.204971E-18
3.260000E+03	2.059059E-16	9.200726E-18
3.270000E+03	2.062978E-16	9.195752E-18
3.280000E+03	2.067307E-16	9.192608E-18
3.290000E+03	2.072058E-16	9.191342E-18
3.300000E+03	2.076691E-16	9.189554E-18
3.310000E+03	2.082055E-16	9.190995E-18
3.320000E+03	2.087342E-16	9.192090E-18
3.330000E+03	2.093122E-16	9.195355E-18
3.340000E+03	2.099420E-16	9.200880E-18
3.350000E+03	2.105989E-16	9.207580E-18
3.360000E+03	2.113129E-16	9.216752E-18
3.370000E+03	2.120868E-16	9.228516E-18
3.380000E+03	2.129242E-16	9.243006E-18
3.390000E+03	2.138285E-16	9.260358E-18
3.400000E+03	2.147776E-16	9.279601E-18
3.410000E+03	2.158284E-16	9.303181E-18
3.420000E+03	2.169594E-16	9.330151E-18
3.430000E+03	2.181497E-16	9.359593E-18
3.440000E+03	2.194831E-16	9.395083E-18
3.450000E+03	2.208876E-16	9.433512E-18
3.460000E+03	2.224216E-16	9.477351E-18
3.470000E+03	2.240663E-16	9.525777E-18
3.480000E+03	2.258552E-16	9.580180E-18
3.490000E+03	2.277962E-16	9.640869E-18
3.500000E+03	2.298727E-16	9.707103E-18
3.510000E+03	2.321196E-16	9.780327E-18
3.520000E+03	2.345216E-16	9.859856E-18
3.530000E+03	2.371404E-16	9.948253E-18
3.540000E+03	2.399620E-16	1.004487E-17
3.550000E+03	2.429981E-16	1.015018E-17
3.560000E+03	2.462613E-16	1.026463E-17
3.570000E+03	2.497643E-16	1.038873E-17
3.580000E+03	2.535457E-16	1.052402E-17
3.590000E+03	2.575919E-16	1.066988E-17
3.600000E+03	2.619144E-16	1.082674E-17
3.610000E+03	2.665494E-16	1.099604E-17
3.620000E+03	2.715062E-16	1.117810E-17
3.630000E+03	2.767932E-16	1.137320E-17
3.640000E+03	2.823914E-16	1.158053E-17
3.650000E+03	2.883611E-16	1.180248E-17
3.660000E+03	2.946833E-16	1.203821E-17
3.670000E+03	3.013375E-16	1.228685E-17
3.680000E+03	3.083852E-16	1.255084E-17
3.690000E+03	3.158340E-16	1.283044E-17
3.700000E+03	3.236638E-16	1.312474E-17
3.710000E+03	3.318814E-16	1.343399E-17
3.720000E+03	3.405222E-16	1.375953E-17
3.730000E+03	3.495940E-16	1.410161E-17
3.740000E+03	3.591043E-16	1.446047E-17
3.750000E+03	3.690605E-16	1.483634E-17
3.760000E+03	3.794699E-16	1.522944E-17
3.770000E+03	3.903391E-16	1.563997E-17
3.780000E+03	4.016746E-16	1.606812E-17
3.790000E+03	4.135133E-16	1.651530E-17
3.800000E+03	4.258302E-16	1.698044E-17
3.810000E+03	4.386615E-16	1.746492E-17
3.820000E+03	4.520120E-16	1.796885E-17
3.830000E+03	4.658856E-16	1.849233E-17
3.840000E+03	4.802516E-16	1.903406E-17
3.850000E+03	4.951775E-16	1.959666E-17
3.860000E+03	5.106305E-16	2.017875E-17
3.870000E+03	5.266436E-16	2.078158E-17
3.880000E+03	5.431800E-16	2.140361E-17
3.890000E+03	5.602343E-16	2.204459E-17
3.900000E+03	5.778357E-16	2.270558E-17
3.910000E+03	5.960131E-16	2.338767E-17
3.920000E+03	6.146835E-16	2.408752E-17
3.930000E+03	6.338708E-16	2.480601E-17
3.940000E+03	6.535983E-16	2.554401E-17
3.950000E+03	6.738114E-16	2.629930E-17
3.960000E+03	6.944904E-16	2.707108E-17
3.970000E+03	7.156520E-16	2.785994E-17
3.980000E+03	7.372728E-16	2.866492E-17
3.990000E+03	7.593266E-16	2.948494E-17
4.000000E+03	7.817850E-16	3.031887E-17
4.010000E+03	8.046174E-16	3.116545E-17
4.020000E+03	8.277907E-16	3.202340E-17
4.030000E+03	8.513147E-16	3.289302E-17
4.040000E+03	8.751134E-16	3.377137E-17
4.050000E+03	8.991961E-16	3.465877E-17
4.060000E+03	9.235302E-16	3.555393E-17
4.070000E+03	9.480430E-16	3.645403E-17
4.080000E+03	9.727948E-16	3.736135E-17
4.090000E+03	9.977204E-16	3.827339E-17
4.100000E+03	1.022759E-15	3.918777E-17
4.110000E+03	1.047989E-15	4.010749E-17
4.120000E+03	1.073409E-15	4.103246E-17
4.130000E+03	1.098979E-15	4.196114E-17
4.140000E+03	1.124759E-15	4.289575E-17
4.150000E+03	1.150723E-15	4.383533E-17
4.160000E+03	1.176948E-15	4.478273E-17
4.170000E+03	1.203424E-15	4.573754E-17
4.180000E+03	1.230288E-15	4.670490E-17
4.190000E+03	1.257543E-15	4.768492E-17
4.200000E+03	1.285203E-15	4.867797E-17
4.210000E+03	1.313376E-15	4.968816E-17
4.220000E+03	1.342178E-15	5.071974E-17
4.230000E+03	1.371594E-15	5.177206E-17
4.240000E+03	1.401753E-15	5.284986E-17
4.250000E+03	1.432744E-15	5.395639E-17
4.260000E+03	1.464710E-15	5.509688E-17
4.270000E+03	1.497660E-15	5.627157E-17
4.280000E+03	1.531750E-15	5.748612E-17
4.290000E+03	1.567097E-15	5.874471E-17
4.300000E+03	1.603774E-15	6.004996E-17
4.310000E+03	1.641958E-15	6.140820E-17
4.320000E+03	1.681784E-15	6.282431E-17
4.330000E+03	1.723343E-15	6.430141E-17
4.340000E+03	1.766786E-15	6.584481E-17
4.350000E+03	1.812311E-15	6.746170E-17
4.360000E+03	1.859985E-15	6.915413E-17
4.370000E+03	1.910020E-15	7.092976E-17
4.380000E+03	1.962594E-15	7.279472E-17
4.390000E+03	2.017838E-15	7.475355E-17
4.400000E+03	2.075941E-15	7.681279E-17
4.410000E+03	2.137048E-15	7.897734E-17
4.420000E+03	2.201464E-15	8.125804E-17
4.430000E+03	2.269243E-15	8.365633E-17
4.440000E+03	2.340701E-15	8.618329E-17
4.450000E+03	2.415944E-15	8.884226E-17
4.460000E+03	2.495236E-15	9.164235E-17
4.470000E+03	2.578673E-15	9.458641E-17
4.480000E+03	2.666506E-15	9.768293E-17
4.490000E+03	2.758855E-15	1.009356E-16
4.500000E+03	2.855877E-15	1.043494E-16
4.510000E+03	2.957634E-15	1.079259E-16
4.520000E+03	3.064215E-15	1.116674E-16
4.530000E+03	3.175656E-15	1.155745E-16
4.540000E+03	3.291883E-15	1.196436E-16
4.550000E+03	3.412759E-15	1.238690E-16
4.560000E+03	3.538144E-15	1.282446E-16
4.570000E+03	3.667836E-15	1.327625E-16
4.580000E+03	3.801500E-15	1.374095E-16
4.590000E+03	3.938804E-15	1.421731E-16
4.600000E+03	4.079212E-15	1.470332E-16
4.610000E+03	4.222422E-15	1.519781E-16
4.620000E+03	4.367723E-15	1.569819E-16
4.630000E+03	4.514661E-15	1.620276E-16
4.640000E+03	4.662531E-15	1.670896E-16
4.650000E+03	4.810849E-15	1.721502E-16
4.660000E+03	4.958984E-15	1.771867E-16
4.670000E+03	5.106324E-15	1.821769E-16
4.680000E+03	5.252379E-15	1.871033E-16
4.690000E+03	5.396625E-15	1.919474E-16
4.700000E+03	5.538691E-15	1.966961E-16
4.710000E+03	5.678190E-15	2.013357E-16
4.720000E+03	5.814898E-15	2.058586E-16
4.730000E+03	5.948567E-15	2.102563E-16
4.740000E+03	6.079092E-15	2.145254E-16
4.750000E+03	6.206310E-15	2.186604E-16
4.760000E+03	6.330064E-15	2.226564E-16
4.770000E+03	6.450359E-15	2.265138E-16
4.780000E+03	6.566877E-15	2.302219E-16
4.790000E+03	6.679509E-15	2.337774E-16
4.800000E+03	6.787866E-15	2.371674E-16
4.810000E+03	6.891555E-15	2.403785E-16
4.820000E+03	6.989982E-15	2.433909E-16
4.830000E+03	7.082446E-15	2.461810E-16
4.840000E+03	7.168441E-15	2.487323E-16
4.850000E+03	7.246901E-15	2.510088E-16
4.860000E+03	7.317176E-15	2.529894E-16
4.870000E+03	7.378190E-15	2.546384E-16
4.880000E+03	7.429155E-15	2.559303E-16
4.890000E+03	7.469205E-15	2.568372E-16
4.900000E+03	7.497351E-15	2.573271E-16
4.910000E+03	7.513094E-15	2.573852E-16
4.920000E+03	7.515802E-15	2.569924E-16
4.930000E+03	7.505038E-15	2.561362E-16
4.940000E+03	7.480884E-15	2.548221E-16
4.950000E+03	7.443310E-15	2.530517E-16
4.960000E+03	7.392841E-15	2.508457E-16
4.970000E+03	7.330190E-15	2.482309E-16
4.980000E+03	7.256327E-15	2.452425E-16
4.990000E+03	7.172454E-15	2.419234E-16
5.000000E+03	7.079962E-15	2.383228E-16
5.010000E+03	6.980398E-15	2.344945E-16
5.020000E+03	6.875496E-15	2.304982E-16
5.030000E+03	6.766898E-15	2.263901E-16
5.040000E+03	6.656521E-15	2.222351E-16
5.050000E+03	6.545975E-15	2.180876E-16
5.060000E+03	6.437156E-15	2.140106E-16
5.070000E+03	6.331680E-15	2.100576E-16
5.080000E+03	6.231234E-15	2.062839E-16
5.090000E+03	6.137329E-15	2.027385E-16
5.100000E+03	6.051418E-15	1.994681E-16
5.110000E+03	5.974729E-15	1.965116E-16
5.120000E+03	5.908331E-15	1.939020E-16
5.130000E+03	5.853176E-15	1.916685E-16
5.140000E+03	5.809902E-15	1.898296E-16
5.150000E+03	5.779224E-15	1.884062E-16
5.160000E+03	5.761360E-15	1.874026E-16
5.170000E+03	5.756625E-15	1.868264E-16
5.180000E+03	5.765003E-15	1.866742E-16
5.190000E+03	5.786549E-15	1.869450E-16
5.200000E+03	5.821032E-15	1.876285E-16
5.210000E+03	5.868329E-15	1.887180E-16
5.220000E+03	5.928065E-15	1.901986E-16
5.230000E+03	5.999934E-15	1.920578E-16
5.240000E+03	6.083657E-15	1.942841E-16
5.250000E+03	6.178641E-15	1.968559E-16
5.260000E+03	6.284513E-15	1.997591E-16
5.270000E+03	6.400715E-15	2.029734E-16
5.280000E+03	6.526699E-15	2.064794E-16
5.290000E+03	6.661785E-15	2.102534E-16
5.300000E+03	6.805286E-15	2.142719E-16
5.310000E+03	6.956363E-15	2.185068E-16
5.320000E+03	7.114086E-15	2.229273E-16
5.330000E+03	7.277587E-15	2.275049E-16
5.340000E+03	7.445671E-15	2.322012E-16
5.350000E+03	7.617291E-15	2.369829E-16
5.360000E+03	7.791069E-15	2.418065E-16
5.370000E+03	7.965715E-15	2.466318E-16
5.380000E+03	8.139786E-15	2.514142E-16
5.390000E+03	8.311971E-15	2.561138E-16
5.400000E+03	8.480584E-15	2.606794E-16
5.410000E+03	8.644383E-15	2.650739E-16
5.420000E+03	8.801715E-15	2.692483E-16
5.430000E+03	8.951358E-15	2.731668E-16
5.440000E+03	9.091918E-15	2.767891E-16
5.450000E+03	9.222412E-15	2.800876E-16
5.460000E+03	9.341730E-15	2.830313E-16
5.470000E+03	9.449027E-15	2.855974E-16
5.480000E+03	9.543820E-15	2.877742E-16
5.490000E+03	9.625494E-15	2.895463E-16
5.500000E+03	9.693683E-15	2.909059E-16
5.510000E+03	9.748133E-15	2.918485E-16
5.520000E+03	9.788932E-15	2.923800E-16
5.530000E+03	9.815923E-15	2.924990E-16
5.540000E+03	9.829372E-15	2.922165E-16
5.550000E+03	9.829694E-15	2.915477E-16
5.560000E+03	9.817169E-15	2.905037E-16
5.570000E+03	9.792547E-15	2.891090E-16
5.580000E+03	9.756668E-15	2.873908E-16
5.590000E+03	9.710316E-15	2.853743E-16
5.600000E+03	9.654424E-15	2.830887E-16
5.610000E+03	9.589895E-15	2.805622E-16
5.620000E+03	9.517911E-15	2.778310E-16
5.630000E+03	9.439271E-15	2.749194E-16
5.640000E+03	9.354949E-15	2.718571E-16
5.650000E+03	9.266006E-15	2.686756E-16
5.660000E+03	9.173355E-15	2.654021E-16
5.670000E+03	9.078073E-15	2.620682E-16
5.680000E+03	8.981284E-15	2.587067E-16
5.690000E+03	8.884393E-15	2.553580E-16
5.700000E+03	8.789125E-15	2.520714E-16
5.710000E+03	8.697133E-15	2.488938E-16
5.720000E+03	8.610763E-15	2.458914E-16
5.730000E+03	8.532271E-15	2.431274E-16
5.740000E+03	8.464340E-15	2.406764E-16
5.750000E+03	8.409508E-15	2.386085E-16
5.760000E+03	8.370528E-15	2.369991E-16
5.770000E+03	8.349768E-15	2.359122E-16
5.780000E+03	8.349542E-15	2.354096E-16
5.790000E+03	8.371508E-15	2.355345E-16
5.800000E+03	8.416937E-15	2.363186E-16
5.810000E+03	8.486366E-15	2.377727E-16
5.820000E+03	8.579752E-15	2.398917E-16
5.830000E+03	8.696019E-15	2.426413E-16
5.840000E+03	8.833323E-15	2.459665E-16
5.850000E+03	8.989049E-15	2.497911E-16
5.860000E+03	9.159664E-15	2.540141E-16
5.870000E+03	9.340943E-15	2.585164E-16
5.880000E+03	9.527905E-15	2.631587E-16
5.890000E+03	9.715060E-15	2.677890E-16
5.900000E+03	9.896626E-15	2.722485E-16
5.910000E+03	1.006690E-14	2.763819E-16
5.920000E+03	1.022040E-14	2.800410E-16
5.930000E+03	1.035229E-14	2.830962E-16
5.940000E+03	1.045874E-14	2.854473E-16
5.950000E+03	1.053696E-14	2.870220E-16
5.960000E+03	1.058567E-14	2.877906E-16
5.970000E+03	1.060486E-14	2.877576E-16
5.980000E+03	1.059590E-14	2.869646E-16
5.990000E+03	1.056117E-14	2.854807E-16
6.000000E+03	1.050385E-14	2.833956E-16
6.010000E+03	1.042791E-14	2.808197E-16
6.020000E+03	1.033739E-14	2.778643E-16
6.030000E+03	1.023650E-14	2.746449E-16
6.040000E+03	1.012928E-14	2.712708E-16
6.050000E+03	1.001922E-14	2.678363E-16
6.060000E+03	9.909498E-15	2.644269E-16
6.070000E+03	9.802654E-15	2.611098E-16
6.080000E+03	9.700781E-15	2.579404E-16
6.090000E+03	9.605032E-15	2.549486E-16
6.100000E+03	9.516378E-15	2.521591E-16
6.110000E+03	9.434916E-15	2.495737E-16
6.120000E+03	9.360414E-15	2.471852E-16
6.130000E+03	9.292313E-15	2.449780E-16
6.140000E+03	9.229430E-15	2.429201E-16
6.150000E+03	9.170776E-15	2.409849E-16
6.160000E+03	9.115044E-15	2.391377E-16
6.170000E+03	9.061024E-15	2.373464E-16
6.180000E+03	9.007705E-15	2.355845E-16
6.190000E+03	8.954042E-15	2.338246E-16
6.200000E+03	8.899459E-15	2.320519E-16
6.210000E+03	8.843642E-15	2.302583E-16
6.220000E+03	8.786389E-15	2.284388E-16
6.230000E+03	8.727890E-15	2.265985E-16
6.240000E+03	8.668550E-15	2.247482E-16
6.250000E+03	8.608813E-15	2.228995E-16
6.260000E+03	8.549441E-15	2.210720E-16
6.270000E+03	8.491260E-15	2.192873E-16
6.280000E+03	8.435369E-15	2.175735E-16
6.290000E+03	8.382830E-15	2.159579E-16
6.300000E+03	8.334806E-15	2.144700E-16
6.310000E+03	8.292612E-15	2.131435E-16
6.320000E+03	8.257634E-15	2.120132E-16
6.330000E+03	8.231374E-15	2.111175E-16
6.340000E+03	8.215089E-15	2.104877E-16
6.350000E+03	8.210469E-15	2.101666E-16
6.360000E+03	8.218770E-15	2.101857E-16
6.370000E+03	8.241571E-15	2.105846E-16
6.380000E+03	8.280167E-15	2.113956E-16
6.390000E+03	8.335832E-15	2.126506E-16
6.400000E+03	8.409615E-15	2.143759E-16
6.410000E+03	8.502600E-15	2.165983E-16
6.420000E+03	8.615311E-15	2.193309E-16
6.430000E+03	8.748088E-15	2.225819E-16
6.440000E+03	8.900941E-15	2.263514E-16
6.450000E+03	9.073214E-15	2.306221E-16
6.460000E+03	9.263655E-15	2.353618E-16
6.470000E+03	9.470579E-15	2.405274E-16
6.480000E+03	9.691112E-15	2.460459E-16
6.490000E+03	9.921994E-15	2.518343E-16
6.500000E+03	1.015876E-14	2.577795E-16
6.510000E+03	1.039625E-14	2.637512E-16
6.520000E+03	1.062866E-14	2.696018E-16
6.530000E+03	1.084905E-14	2.751561E-16
6.540000E+03	1.105051E-14	2.802387E-16
6.550000E+03	1.122549E-14	2.846587E-16
6.560000E+03	1.136680E-14	2.882336E-16
6.570000E+03	1.146770E-14	2.907925E-16
6.580000E+03	1.152293E-14	2.922022E-16
6.590000E+03	1.152829E-14	2.923551E-16
6.600000E+03	1.148188E-14	2.912026E-16
6.610000E+03	1.138367E-14	2.887429E-16
6.620000E+03	1.123600E-14	2.850347E-16
6.630000E+03	1.104311E-14	2.801839E-16
6.640000E+03	1.081129E-14	2.743491E-16
6.650000E+03	1.054792E-14	2.677163E-16
6.660000E+03	1.026095E-14	2.604861E-16
6.670000E+03	9.959042E-15	2.528773E-16
6.680000E+03	9.650053E-15	2.450886E-16
6.690000E+03	9.341527E-15	2.373108E-16
6.700000E+03	9.039624E-15	2.296999E-16
6.710000E+03	8.749632E-15	2.223897E-16
6.720000E+03	8.475616E-15	2.154835E-16
6.730000E+03	8.220200E-15	2.090478E-16
6.740000E+03	7.985276E-15	2.031307E-16
6.750000E+03	7.771532E-15	1.977499E-16
6.760000E+03	7.579026E-15	1.929070E-16
6.770000E+03	7.407014E-15	1.885832E-16
6.780000E+03	7.254334E-15	1.847492E-16
6.790000E+03	7.119459E-15	1.813663E-16
6.800000E+03	7.000687E-15	1.783912E-16
6.810000E+03	6.895949E-15	1.757716E-16
6.820000E+03	6.803414E-15	1.734607E-16
6.830000E+03	6.721053E-15	1.714070E-16
6.840000E+03	6.647064E-15	1.695645E-16
6.850000E+03	6.579568E-15	1.678855E-16
6.860000E+03	6.517073E-15	1.663317E-16
6.870000E+03	6.458221E-15	1.648685E-16
6.880000E+03	6.401868E-15	1.634667E-16
6.890000E+03	6.347097E-15	1.621027E-16
6.900000E+03	6.293137E-15	1.607570E-16
6.910000E+03	6.239563E-15	1.594184E-16
6.920000E+03	6.186062E-15	1.580790E-16
6.930000E+03	6.132421E-15	1.567332E-16
6.940000E+03	6.078625E-15	1.553807E-16
6.950000E+03	6.024837E-15	1.540255E-16
6.960000E+03	5.971099E-15	1.526687E-16
6.970000E+03	5.917778E-15	1.513197E-16
6.980000E+03	5.865076E-15	1.499837E-16
6.990000E+03	5.813286E-15	1.486680E-16
7.000000E+03	5.762642E-15	1.473788E-16
7.010000E+03	5.713511E-15	1.461253E-16
7.020000E+03	5.666181E-15	1.449151E-16
7.030000E+03	5.620870E-15	1.437537E-16
7.040000E+03	5.577837E-15	1.426477E-16
7.050000E+03	5.537388E-15	1.416050E-16
7.060000E+03	5.499676E-15	1.406295E-16
7.070000E+03	5.464890E-15	1.397261E-16
7.080000E+03	5.433126E-15	1.388972E-16
7.090000E+03	5.404636E-15	1.381493E-16
7.100000E+03	5.379386E-15	1.374815E-16
7.110000E+03	5.357494E-15	1.368969E-16
7.120000E+03	5.338920E-15	1.363943E-16
7.130000E+03	5.323646E-15	1.359733E-16
7.140000E+03	5.311685E-15	1.356342E-16
7.150000E+03	5.302891E-15	1.353734E-16
7.160000E+03	5.297155E-15	1.351878E-16
7.170000E+03	5.294335E-15	1.350740E-16
7.180000E+03	5.294208E-15	1.350261E-16
7.190000E+03	5.296653E-15	1.350412E-16
7.200000E+03	5.301469E-15	1.351139E-16
7.210000E+03	5.308379E-15	1.352373E-16
7.220000E+03	5.317160E-15	1.354056E-16
7.230000E+03	5.327579E-15	1.356129E-16
7.240000E+03	5.339471E-15	1.358550E-16
7.250000E+03	5.352477E-15	1.361228E-16
7.260000E+03	5.366503E-15	1.364139E-16
7.270000E+03	5.381205E-15	1.367196E-16
7.280000E+03	5.396385E-15	1.370350E-16
7.290000E+03	5.411922E-15	1.373569E-16
7.300000E+03	5.427653E-15	1.376814E-16
7.310000E+03	5.443373E-15	1.380034E-16
7.320000E+03	5.458967E-15	1.383199E-16
7.330000E+03	5.474349E-15	1.386291E-16
7.340000E+03	5.489465E-15	1.389295E-16
7.350000E+03	5.504293E-15	1.392209E-16
7.360000E+03	5.518838E-15	1.395034E-16
7.370000E+03	5.533066E-15	1.397765E-16
7.380000E+03	5.547104E-15	1.400433E-16
7.390000E+03	5.561022E-15	1.403060E-16
7.400000E+03	5.574902E-15	1.405666E-16
7.410000E+03	5.588758E-15	1.408258E-16
7.420000E+03	5.602670E-15	1.410858E-16
7.430000E+03	5.616779E-15	1.413502E-16
7.440000E+03	5.631073E-15	1.416191E-16
7.450000E+03	5.645669E-15	1.418954E-16
7.460000E+03	5.660527E-15	1.421784E-16
7.470000E+03	5.675737E-15	1.424706E-16
7.480000E+03	5.691230E-15	1.427705E-16
7.490000E+03	5.707002E-15	1.430782E-16
7.500000E+03	5.723114E-15	1.433954E-16
7.510000E+03	5.739473E-15	1.437202E-16
7.520000E+03	5.756127E-15	1.440539E-16
7.530000E+03	5.773051E-15	1.443962E-16
7.540000E+03	5.790142E-15	1.447447E-16
7.550000E+03	5.807440E-15	1.451009E-16
7.560000E+03	5.824916E-15	1.454643E-16
7.570000E+03	5.842455E-15	1.458323E-16
7.580000E+03	5.860176E-15	1.462082E-16
7.590000E+03	5.877889E-15	1.465876E-16
7.600000E+03	5.895707E-15	1.469738E-16
7.610000E+03	5.913514E-15	1.473640E-16
7.620000E+03	5.931346E-15	1.477598E-16
7.630000E+03	5.949002E-15	1.481563E-16
7.640000E+03	5.966673E-15	1.485588E-16
7.650000E+03	5.984153E-15	1.489625E-16
7.660000E+03	6.001392E-15	1.493666E-16
7.670000E+03	6.018499E-15	1.497742E-16
7.680000E+03	6.035259E-15	1.501805E-16
7.690000E+03	6.051780E-15	1.505884E-16
7.700000E+03	6.067842E-15	1.509931E-16
7.710000E+03	6.083550E-15	1.513975E-16
7.720000E+03	6.098759E-15	1.517985E-16
7.730000E+03	6.113411E-15	1.521952E-16
7.740000E+03	6.127525E-15	1.525883E-16
7.750000E+03	6.140953E-15	1.529748E-16
7.760000E+03	6.153717E-15	1.533555E-16
