#wls	flux	fluxerr
1.600000E+03	1.810294E-17	4.185556E-20
1.640000E+03	1.825744E-17	4.221278E-20
1.680000E+03	1.842100E-17	4.259094E-20
1.720000E+03	1.860478E-17	4.301586E-20
1.760000E+03	1.879337E-17	4.345190E-20
1.800000E+03	1.900327E-17	4.393720E-20
1.840000E+03	1.922458E-17	4.444888E-20
1.880000E+03	1.946328E-17	4.500078E-20
1.920000E+03	1.972017E-17	4.559473E-20
1.960000E+03	1.999096E-17	4.622083E-20
2.000000E+03	2.028698E-17	4.690525E-20
2.040000E+03	2.059898E-17	4.762661E-20
2.080000E+03	2.093842E-17	4.841144E-20
2.120000E+03	2.130150E-17	4.925091E-20
2.160000E+03	2.168967E-17	5.014837E-20
2.200000E+03	2.210453E-17	5.110756E-20
2.240000E+03	2.255299E-17	5.214443E-20
2.280000E+03	2.303704E-17	5.326361E-20
2.320000E+03	2.355379E-17	5.445837E-20
2.360000E+03	2.410568E-17	5.573437E-20
2.400000E+03	2.470578E-17	5.712185E-20
2.440000E+03	2.535207E-17	5.861612E-20
2.480000E+03	2.604803E-17	6.022522E-20
2.520000E+03	2.679756E-17	6.195817E-20
2.560000E+03	2.761039E-17	6.383748E-20
2.600000E+03	2.849159E-17	6.587486E-20
2.640000E+03	2.944145E-17	6.807097E-20
2.680000E+03	3.047729E-17	7.046587E-20
2.720000E+03	3.160664E-17	7.307698E-20
2.760000E+03	3.283236E-17	7.591087E-20
2.800000E+03	3.417545E-17	7.901609E-20
2.840000E+03	3.564127E-17	8.240504E-20
2.880000E+03	3.725430E-17	8.613434E-20
2.920000E+03	3.901710E-17	9.020984E-20
2.960000E+03	4.096453E-17	9.471217E-20
3.000000E+03	4.310945E-17	9.967100E-20
3.010000E+03	4.367672E-17	1.009825E-19
3.020000E+03	4.426167E-17	1.023348E-19
3.030000E+03	4.485811E-17	1.037137E-19
3.040000E+03	4.547301E-17	1.051352E-19
3.050000E+03	4.610685E-17	1.066006E-19
3.060000E+03	4.675333E-17	1.080951E-19
3.070000E+03	4.741278E-17	1.096197E-19
3.080000E+03	4.809242E-17	1.111909E-19
3.090000E+03	4.879274E-17	1.128099E-19
3.100000E+03	4.950730E-17	1.144618E-19
3.110000E+03	5.024348E-17	1.161637E-19
3.120000E+03	5.099472E-17	1.179004E-19
3.130000E+03	5.176855E-17	1.196893E-19
3.140000E+03	5.256553E-17	1.215317E-19
3.150000E+03	5.337894E-17	1.234121E-19
3.160000E+03	5.421651E-17	1.253483E-19
3.170000E+03	5.507141E-17	1.273246E-19
3.180000E+03	5.595895E-17	1.293763E-19
3.190000E+03	5.685731E-17	1.314530E-19
3.200000E+03	5.778950E-17	1.336079E-19
3.210000E+03	5.874093E-17	1.358073E-19
3.220000E+03	5.971974E-17	1.380699E-19
3.230000E+03	6.071867E-17	1.403790E-19
3.240000E+03	6.175388E-17	1.427720E-19
3.250000E+03	6.281019E-17	1.452138E-19
3.260000E+03	6.389599E-17	1.477237E-19
3.270000E+03	6.500366E-17	1.502841E-19
3.280000E+03	6.614168E-17	1.529146E-19
3.290000E+03	6.731054E-17	1.556165E-19
3.300000E+03	6.851069E-17	1.583906E-19
3.310000E+03	6.974254E-17	1.612380E-19
3.320000E+03	7.099791E-17	1.641397E-19
3.330000E+03	7.229415E-17	1.671358E-19
3.340000E+03	7.361431E-17	1.701873E-19
3.350000E+03	7.496717E-17	1.733142E-19
3.360000E+03	7.635286E-17	1.765171E-19
3.370000E+03	7.776238E-17	1.797749E-19
3.380000E+03	7.921366E-17	1.831293E-19
3.390000E+03	8.069761E-17	1.865592E-19
3.400000E+03	8.220467E-17	1.900424E-19
3.410000E+03	8.374356E-17	1.935991E-19
3.420000E+03	8.532326E-17	1.972502E-19
3.430000E+03	8.692416E-17	2.009502E-19
3.440000E+03	8.855485E-17	2.047191E-19
3.450000E+03	9.021429E-17	2.085543E-19
3.460000E+03	9.191118E-17	2.124761E-19
3.470000E+03	9.362435E-17	2.164355E-19
3.480000E+03	9.536198E-17	2.204514E-19
3.490000E+03	9.712221E-17	2.245194E-19
3.500000E+03	9.891322E-17	2.286586E-19
3.510000E+03	1.007121E-16	2.328160E-19
3.520000E+03	1.025370E-16	2.370335E-19
3.530000E+03	1.043641E-16	2.412561E-19
3.540000E+03	1.062115E-16	2.455256E-19
3.550000E+03	1.080655E-16	2.498101E-19
3.560000E+03	1.099224E-16	2.541016E-19
3.570000E+03	1.117789E-16	2.583920E-19
3.580000E+03	1.136312E-16	2.626729E-19
3.590000E+03	1.154760E-16	2.669364E-19
3.600000E+03	1.173215E-16	2.712014E-19
3.610000E+03	1.191547E-16	2.754383E-19
3.620000E+03	1.209752E-16	2.796457E-19
3.630000E+03	1.227823E-16	2.838223E-19
3.640000E+03	1.245759E-16	2.879680E-19
3.650000E+03	1.263679E-16	2.921100E-19
3.660000E+03	1.281467E-16	2.962215E-19
3.670000E+03	1.299129E-16	3.003041E-19
3.680000E+03	1.316789E-16	3.043865E-19
3.690000E+03	1.334340E-16	3.084438E-19
3.700000E+03	1.351791E-16	3.124780E-19
3.710000E+03	1.369149E-16	3.164910E-19
3.720000E+03	1.386544E-16	3.205128E-19
3.730000E+03	1.403986E-16	3.245454E-19
3.740000E+03	1.421242E-16	3.285350E-19
3.750000E+03	1.438561E-16	3.325394E-19
3.760000E+03	1.455829E-16	3.365319E-19
3.770000E+03	1.473174E-16	3.405424E-19
3.780000E+03	1.490482E-16	3.445444E-19
3.790000E+03	1.507881E-16	3.485673E-19
3.800000E+03	1.525253E-16	3.525841E-19
3.810000E+03	1.542602E-16	3.565956E-19
3.820000E+03	1.560055E-16	3.606312E-19
3.830000E+03	1.577617E-16	3.646919E-19
3.840000E+03	1.595169E-16	3.687502E-19
3.850000E+03	1.612712E-16	3.728065E-19
3.860000E+03	1.630372E-16	3.768899E-19
3.870000E+03	1.648029E-16	3.809724E-19
3.880000E+03	1.665806E-16	3.850827E-19
3.890000E+03	1.683585E-16	3.891932E-19
3.900000E+03	1.701489E-16	3.933325E-19
3.910000E+03	1.719517E-16	3.975005E-19
3.920000E+03	1.737550E-16	4.016697E-19
3.923000E+03	5.256206E-17	1.215078E-19
3.924000E+03	5.539337E-17	1.280529E-19
3.925000E+03	5.861252E-17	1.354947E-19
3.926000E+03	6.185828E-17	1.429979E-19
3.927000E+03	6.526102E-17	1.508640E-19
3.928000E+03	6.891510E-17	1.593112E-19
3.929000E+03	7.260173E-17	1.678336E-19
3.930000E+03	7.631192E-17	1.764104E-19
3.931000E+03	7.989881E-17	1.847022E-19
3.932000E+03	8.316769E-17	1.922589E-19
3.933000E+03	8.649910E-17	1.999602E-19
3.934000E+03	8.990503E-17	2.078336E-19
3.935000E+03	9.349779E-17	2.161390E-19
3.936000E+03	9.736572E-17	2.250806E-19
3.937000E+03	1.009516E-16	2.333701E-19
3.938000E+03	1.041747E-16	2.408209E-19
3.939000E+03	1.070829E-16	2.475438E-19
3.940000E+03	1.095325E-16	2.532066E-19
3.941000E+03	1.120328E-16	2.589866E-19
3.942000E+03	1.146870E-16	2.651221E-19
3.943000E+03	1.176148E-16	2.718904E-19
3.944000E+03	1.209495E-16	2.795993E-19
3.945000E+03	1.243767E-16	2.875218E-19
3.946000E+03	1.279650E-16	2.958171E-19
3.947000E+03	1.314467E-16	3.038656E-19
3.948000E+03	1.345733E-16	3.110933E-19
3.949000E+03	1.373791E-16	3.175795E-19
3.950000E+03	1.396594E-16	3.228508E-19
3.951000E+03	1.418914E-16	3.280106E-19
3.952000E+03	1.442205E-16	3.333947E-19
3.953000E+03	1.465866E-16	3.388645E-19
3.954000E+03	1.492219E-16	3.449564E-19
3.955000E+03	1.519479E-16	3.512582E-19
3.956000E+03	1.545721E-16	3.573245E-19
3.957000E+03	1.571060E-16	3.631822E-19
3.958000E+03	1.595051E-16	3.687280E-19
3.959000E+03	1.617543E-16	3.739275E-19
3.960000E+03	1.640780E-16	3.792991E-19
3.961000E+03	1.664313E-16	3.847392E-19
3.962000E+03	1.688441E-16	3.903170E-19
3.963000E+03	1.713463E-16	3.961013E-19
3.964000E+03	1.737137E-16	4.015738E-19
3.965000E+03	1.758565E-16	4.065273E-19
3.966000E+03	1.778345E-16	4.110998E-19
3.967000E+03	1.797077E-16	4.154301E-19
3.968000E+03	1.817151E-16	4.200706E-19
3.969000E+03	1.840511E-16	4.254706E-19
3.970000E+03	1.865812E-16	4.313195E-19
3.971000E+03	1.888718E-16	4.366146E-19
3.972000E+03	1.907138E-16	4.408726E-19
3.973000E+03	1.921071E-16	4.440935E-19
3.974000E+03	1.932163E-16	4.466576E-19
3.975000E+03	1.943553E-16	4.492904E-19
3.976000E+03	1.955239E-16	4.519919E-19
3.977000E+03	1.967073E-16	4.547276E-19
3.978000E+03	1.978159E-16	4.572903E-19
3.979000E+03	1.988198E-16	4.596109E-19
3.980000E+03	1.998384E-16	4.619655E-19
3.981000E+03	2.007822E-16	4.641472E-19
3.982000E+03	2.015766E-16	4.659836E-19
3.983000E+03	2.022961E-16	4.676467E-19
3.984000E+03	2.029558E-16	4.691717E-19
3.985000E+03	2.036303E-16	4.707308E-19
3.986000E+03	2.041703E-16	4.719790E-19
3.987000E+03	2.043369E-16	4.723641E-19
3.988000E+03	2.042944E-16	4.722658E-19
3.989000E+03	2.042819E-16	4.722367E-19
3.990000E+03	2.044782E-16	4.726905E-19
3.991000E+03	2.047641E-16	4.733513E-19
3.992000E+03	2.050052E-16	4.739086E-19
3.993000E+03	2.049478E-16	4.737757E-19
3.994000E+03	2.042186E-16	4.720898E-19
3.995000E+03	2.030118E-16	4.693001E-19
3.996000E+03	2.013874E-16	4.655449E-19
3.997000E+03	1.995840E-16	4.613758E-19
3.998000E+03	1.977212E-16	4.570695E-19
3.999000E+03	1.957989E-16	4.526257E-19
4.000000E+03	1.938918E-16	4.482168E-19
4.001000E+03	1.920146E-16	4.438774E-19
4.002000E+03	1.901526E-16	4.395730E-19
4.003000E+03	1.881119E-16	4.348553E-19
4.004000E+03	1.859371E-16	4.298278E-19
4.005000E+03	1.836283E-16	4.244905E-19
4.006000E+03	1.811260E-16	4.187058E-19
4.007000E+03	1.785494E-16	4.127494E-19
4.008000E+03	1.756300E-16	4.060006E-19
4.009000E+03	1.724576E-16	3.986668E-19
4.010000E+03	1.692556E-16	3.912647E-19
4.011000E+03	1.660691E-16	3.838984E-19
4.012000E+03	1.630170E-16	3.768428E-19
4.013000E+03	1.602187E-16	3.703741E-19
4.014000E+03	1.574955E-16	3.640786E-19
4.015000E+03	1.549811E-16	3.582661E-19
4.016000E+03	1.526161E-16	3.527990E-19
4.017000E+03	1.502664E-16	3.473671E-19
4.018000E+03	1.483640E-16	3.429692E-19
4.019000E+03	1.467332E-16	3.391991E-19
4.020000E+03	1.452290E-16	3.357220E-19
4.021000E+03	1.438981E-16	3.326451E-19
4.022000E+03	1.425806E-16	3.295993E-19
4.023000E+03	1.414138E-16	3.269021E-19
4.024000E+03	1.404109E-16	3.245837E-19
4.025000E+03	1.397479E-16	3.230508E-19
4.026000E+03	1.396704E-16	3.228715E-19
4.027000E+03	1.400604E-16	3.237731E-19
4.028000E+03	1.407707E-16	3.254149E-19
4.029000E+03	1.418637E-16	3.279413E-19
4.030000E+03	1.432632E-16	3.311765E-19
4.031000E+03	1.444705E-16	3.339670E-19
4.032000E+03	1.455644E-16	3.364958E-19
4.033000E+03	1.465882E-16	3.388624E-19
4.034000E+03	1.473707E-16	3.406710E-19
4.035000E+03	1.484270E-16	3.431126E-19
4.036000E+03	1.498284E-16	3.463522E-19
4.037000E+03	1.513368E-16	3.498390E-19
4.038000E+03	1.529939E-16	3.536694E-19
4.039000E+03	1.546806E-16	3.575682E-19
4.040000E+03	1.563372E-16	3.613975E-19
4.041000E+03	1.583656E-16	3.660864E-19
4.042000E+03	1.609294E-16	3.720128E-19
4.043000E+03	1.639393E-16	3.789705E-19
4.044000E+03	1.674099E-16	3.869931E-19
4.045000E+03	1.711032E-16	3.955307E-19
4.046000E+03	1.748705E-16	4.042391E-19
4.047000E+03	1.785182E-16	4.126711E-19
4.048000E+03	1.819423E-16	4.205862E-19
4.049000E+03	1.853361E-16	4.284312E-19
4.050000E+03	1.888782E-16	4.366192E-19
4.051000E+03	1.925984E-16	4.452186E-19
4.052000E+03	1.963774E-16	4.539542E-19
4.053000E+03	2.001262E-16	4.626199E-19
4.054000E+03	2.038894E-16	4.713187E-19
4.055000E+03	2.077412E-16	4.802225E-19
4.056000E+03	2.117411E-16	4.894686E-19
4.057000E+03	2.157851E-16	4.988166E-19
4.058000E+03	2.198583E-16	5.082320E-19
4.059000E+03	2.239457E-16	5.176803E-19
4.060000E+03	2.278692E-16	5.267497E-19
4.061000E+03	2.316433E-16	5.354739E-19
4.062000E+03	2.352238E-16	5.437504E-19
4.063000E+03	2.386702E-16	5.517167E-19
4.064000E+03	2.421160E-16	5.596819E-19
4.065000E+03	2.455761E-16	5.676801E-19
4.066000E+03	2.489912E-16	5.755742E-19
4.067000E+03	2.520939E-16	5.827460E-19
4.068000E+03	2.546762E-16	5.887150E-19
4.069000E+03	2.570651E-16	5.942368E-19
4.070000E+03	2.595724E-16	6.000325E-19
4.071000E+03	2.623467E-16	6.064452E-19
4.072000E+03	2.653582E-16	6.134062E-19
4.073000E+03	2.683098E-16	6.202288E-19
4.074000E+03	2.711274E-16	6.267417E-19
4.075000E+03	2.737812E-16	6.328759E-19
4.076000E+03	2.762714E-16	6.386319E-19
4.077000E+03	2.786870E-16	6.442153E-19
4.078000E+03	2.809686E-16	6.494890E-19
4.079000E+03	2.829975E-16	6.541787E-19
4.080000E+03	2.847738E-16	6.582844E-19
4.081000E+03	2.862679E-16	6.617377E-19
4.082000E+03	2.875837E-16	6.647789E-19
4.083000E+03	2.888399E-16	6.676821E-19
4.084000E+03	2.900810E-16	6.705508E-19
4.085000E+03	2.912775E-16	6.733161E-19
4.086000E+03	2.923847E-16	6.758751E-19
4.087000E+03	2.933434E-16	6.780907E-19
4.088000E+03	2.940498E-16	6.797232E-19
4.089000E+03	2.945632E-16	6.809094E-19
4.090000E+03	2.948393E-16	6.815471E-19
4.091000E+03	2.950263E-16	6.819788E-19
4.092000E+03	2.952873E-16	6.825818E-19
4.093000E+03	2.955335E-16	6.831503E-19
4.094000E+03	2.958834E-16	6.839587E-19
4.095000E+03	2.962185E-16	6.847328E-19
4.096000E+03	2.962124E-16	6.847181E-19
4.097000E+03	2.958061E-16	6.837784E-19
4.098000E+03	2.952071E-16	6.823934E-19
4.099000E+03	2.945637E-16	6.809056E-19
4.100000E+03	2.937721E-16	6.790751E-19
4.101000E+03	2.930548E-16	6.774164E-19
4.102000E+03	2.922930E-16	6.756550E-19
4.103000E+03	2.914869E-16	6.737911E-19
4.104000E+03	2.907995E-16	6.722015E-19
4.105000E+03	2.899786E-16	6.703035E-19
4.106000E+03	2.891728E-16	6.684403E-19
4.107000E+03	2.885152E-16	6.669196E-19
4.108000E+03	2.879464E-16	6.656044E-19
4.109000E+03	2.874075E-16	6.643581E-19
4.110000E+03	2.868389E-16	6.630431E-19
4.111000E+03	2.860927E-16	6.613176E-19
4.112000E+03	2.851836E-16	6.592156E-19
4.113000E+03	2.842155E-16	6.569773E-19
4.114000E+03	2.832474E-16	6.547390E-19
4.115000E+03	2.824867E-16	6.529799E-19
4.116000E+03	2.819778E-16	6.518031E-19
4.117000E+03	2.816614E-16	6.510710E-19
4.118000E+03	2.814782E-16	6.506471E-19
4.119000E+03	2.811470E-16	6.498809E-19
4.120000E+03	2.805938E-16	6.486016E-19
4.121000E+03	2.799667E-16	6.471515E-19
4.122000E+03	2.793101E-16	6.456330E-19
4.123000E+03	2.788016E-16	6.444569E-19
4.124000E+03	2.784853E-16	6.437254E-19
4.125000E+03	2.781691E-16	6.429939E-19
4.126000E+03	2.778233E-16	6.421940E-19
4.127000E+03	2.774332E-16	6.412916E-19
4.128000E+03	2.770137E-16	6.403212E-19
4.129000E+03	2.766383E-16	6.394530E-19
4.130000E+03	2.762780E-16	6.386193E-19
4.131000E+03	2.757845E-16	6.374780E-19
4.132000E+03	2.750988E-16	6.358924E-19
4.133000E+03	2.743245E-16	6.341019E-19
4.134000E+03	2.734912E-16	6.321751E-19
4.135000E+03	2.726135E-16	6.301459E-19
4.136000E+03	2.716621E-16	6.279461E-19
4.137000E+03	2.708291E-16	6.260198E-19
4.138000E+03	2.700848E-16	6.242986E-19
4.139000E+03	2.692076E-16	6.222704E-19
4.140000E+03	2.681827E-16	6.199008E-19
4.141000E+03	2.667885E-16	6.166775E-19
4.142000E+03	2.652025E-16	6.130107E-19
4.143000E+03	2.634245E-16	6.089003E-19
4.144000E+03	2.612774E-16	6.039367E-19
4.145000E+03	2.590273E-16	5.987349E-19
4.146000E+03	2.565411E-16	5.929875E-19
4.147000E+03	2.538337E-16	5.867287E-19
4.148000E+03	2.511413E-16	5.805049E-19
4.149000E+03	2.483756E-16	5.741114E-19
4.150000E+03	2.455218E-16	5.675142E-19
4.151000E+03	2.425205E-16	5.605763E-19
4.152000E+03	2.393426E-16	5.532300E-19
4.153000E+03	2.360470E-16	5.456118E-19
4.154000E+03	2.325600E-16	5.375511E-19
4.155000E+03	2.288519E-16	5.289795E-19
4.156000E+03	2.248936E-16	5.198295E-19
4.157000E+03	2.206997E-16	5.101347E-19
4.158000E+03	2.162997E-16	4.999640E-19
4.159000E+03	2.119742E-16	4.899652E-19
4.160000E+03	2.076346E-16	4.799338E-19
4.161000E+03	2.031186E-16	4.694949E-19
4.162000E+03	1.987212E-16	4.593300E-19
4.163000E+03	1.942950E-16	4.490986E-19
4.164000E+03	1.898105E-16	4.387325E-19
4.165000E+03	1.854445E-16	4.286404E-19
4.166000E+03	1.810645E-16	4.185158E-19
4.167000E+03	1.768623E-16	4.088022E-19
4.168000E+03	1.731029E-16	4.001121E-19
4.169000E+03	1.693589E-16	3.914579E-19
4.170000E+03	1.655565E-16	3.826684E-19
4.171000E+03	1.617399E-16	3.738462E-19
4.172000E+03	1.576143E-16	3.643098E-19
4.173000E+03	1.533713E-16	3.545021E-19
4.174000E+03	1.491733E-16	3.447983E-19
4.175000E+03	1.451011E-16	3.353854E-19
4.176000E+03	1.412314E-16	3.264406E-19
4.177000E+03	1.373491E-16	3.174669E-19
4.178000E+03	1.335690E-16	3.087291E-19
4.179000E+03	1.300018E-16	3.004834E-19
4.180000E+03	1.264969E-16	2.923820E-19
4.181000E+03	1.231812E-16	2.847177E-19
4.182000E+03	1.198556E-16	2.770306E-19
4.183000E+03	1.164377E-16	2.691303E-19
4.184000E+03	1.130690E-16	2.613436E-19
4.185000E+03	1.098892E-16	2.539936E-19
4.186000E+03	1.070752E-16	2.474892E-19
4.187000E+03	1.046151E-16	2.418026E-19
4.188000E+03	1.024542E-16	2.368076E-19
4.189000E+03	1.005646E-16	2.324397E-19
4.190000E+03	9.892400E-17	2.286474E-19
4.191000E+03	9.757224E-17	2.255227E-19
4.192000E+03	9.666079E-17	2.234157E-19
4.193000E+03	9.601883E-17	2.219316E-19
4.194000E+03	9.554622E-17	2.208389E-19
4.195000E+03	9.520171E-17	2.200423E-19
4.196000E+03	9.492639E-17	2.194057E-19
4.197000E+03	9.486447E-17	2.192622E-19
4.198000E+03	9.509681E-17	2.197989E-19
4.199000E+03	9.573221E-17	2.212672E-19
4.200000E+03	9.669113E-17	2.234832E-19
4.201000E+03	9.779111E-17	2.260253E-19
4.202000E+03	9.905710E-17	2.289510E-19
4.203000E+03	1.005714E-16	2.324508E-19
4.204000E+03	1.023267E-16	2.365073E-19
4.205000E+03	1.042596E-16	2.409744E-19
4.206000E+03	1.064715E-16	2.460865E-19
4.207000E+03	1.088611E-16	2.516090E-19
4.208000E+03	1.114089E-16	2.574974E-19
4.209000E+03	1.140564E-16	2.636161E-19
4.210000E+03	1.166490E-16	2.696079E-19
4.211000E+03	1.193338E-16	2.758127E-19
4.212000E+03	1.220842E-16	2.821693E-19
4.213000E+03	1.249048E-16	2.886879E-19
4.214000E+03	1.278688E-16	2.955381E-19
4.215000E+03	1.308266E-16	3.023739E-19
4.216000E+03	1.336605E-16	3.089231E-19
4.217000E+03	1.364512E-16	3.153726E-19
4.218000E+03	1.392474E-16	3.218349E-19
4.219000E+03	1.422458E-16	3.287643E-19
4.220000E+03	1.456139E-16	3.365483E-19
4.221000E+03	1.490034E-16	3.443816E-19
4.222000E+03	1.523248E-16	3.520575E-19
4.223000E+03	1.555429E-16	3.594947E-19
4.224000E+03	1.584374E-16	3.661839E-19
4.225000E+03	1.610525E-16	3.722273E-19
4.226000E+03	1.634617E-16	3.777948E-19
4.227000E+03	1.656649E-16	3.828864E-19
4.228000E+03	1.676183E-16	3.874003E-19
4.229000E+03	1.694098E-16	3.915402E-19
4.230000E+03	1.710397E-16	3.953066E-19
4.231000E+03	1.725666E-16	3.988348E-19
4.232000E+03	1.741666E-16	4.025319E-19
4.233000E+03	1.757075E-16	4.060926E-19
4.234000E+03	1.771749E-16	4.094832E-19
4.235000E+03	1.785247E-16	4.126021E-19
4.236000E+03	1.796982E-16	4.153134E-19
4.237000E+03	1.807542E-16	4.177534E-19
4.238000E+03	1.816780E-16	4.198877E-19
4.239000E+03	1.825723E-16	4.219538E-19
4.240000E+03	1.834077E-16	4.238838E-19
4.241000E+03	1.841991E-16	4.257120E-19
4.242000E+03	1.850050E-16	4.275737E-19
4.243000E+03	1.856935E-16	4.291641E-19
4.244000E+03	1.862499E-16	4.304492E-19
4.245000E+03	1.865423E-16	4.311243E-19
4.246000E+03	1.866588E-16	4.313926E-19
4.247000E+03	1.868779E-16	4.318983E-19
4.248000E+03	1.871702E-16	4.325729E-19
4.249000E+03	1.873013E-16	4.328750E-19
4.250000E+03	1.871392E-16	4.324996E-19
4.251000E+03	1.867722E-16	4.316506E-19
4.252000E+03	1.863172E-16	4.305982E-19
4.253000E+03	1.859209E-16	4.296815E-19
4.254000E+03	1.857884E-16	4.293743E-19
4.255000E+03	1.858315E-16	4.294732E-19
4.256000E+03	1.861235E-16	4.301472E-19
4.257000E+03	1.864449E-16	4.308890E-19
4.258000E+03	1.866050E-16	4.312583E-19
4.259000E+03	1.866773E-16	4.314244E-19
4.260000E+03	1.865886E-16	4.312185E-19
4.261000E+03	1.864412E-16	4.308770E-19
4.262000E+03	1.862647E-16	4.304681E-19
4.263000E+03	1.860881E-16	4.300593E-19
4.264000E+03	1.859993E-16	4.298532E-19
4.265000E+03	1.859692E-16	4.297826E-19
4.266000E+03	1.859535E-16	4.297456E-19
4.267000E+03	1.858941E-16	4.296073E-19
4.268000E+03	1.857322E-16	4.292323E-19
4.269000E+03	1.855265E-16	4.287560E-19
4.270000E+03	1.853208E-16	4.282796E-19
4.271000E+03	1.851735E-16	4.279383E-19
4.272000E+03	1.851287E-16	4.278339E-19
4.273000E+03	1.851715E-16	4.279320E-19
4.274000E+03	1.853899E-16	4.284358E-19
4.275000E+03	1.857836E-16	4.293447E-19
4.276000E+03	1.862651E-16	4.304564E-19
4.277000E+03	1.868633E-16	4.318379E-19
4.278000E+03	1.877099E-16	4.337933E-19
4.279000E+03	1.887464E-16	4.361877E-19
4.280000E+03	1.898557E-16	4.387503E-19
4.281000E+03	1.910671E-16	4.415490E-19
4.282000E+03	1.923076E-16	4.444146E-19
4.283000E+03	1.935916E-16	4.473809E-19
4.284000E+03	1.950799E-16	4.508193E-19
4.285000E+03	1.966703E-16	4.544936E-19
4.286000E+03	1.982750E-16	4.582009E-19
4.287000E+03	1.999086E-16	4.619749E-19
4.288000E+03	2.015856E-16	4.658495E-19
4.289000E+03	2.033793E-16	4.699934E-19
4.290000E+03	2.051726E-16	4.741365E-19
4.291000E+03	2.070386E-16	4.784475E-19
4.292000E+03	2.090211E-16	4.830277E-19
4.293000E+03	2.108572E-16	4.872697E-19
4.294000E+03	2.126347E-16	4.913762E-19
4.295000E+03	2.144702E-16	4.956167E-19
4.296000E+03	2.162616E-16	4.997552E-19
4.297000E+03	2.181694E-16	5.041626E-19
4.298000E+03	2.201936E-16	5.088391E-19
4.299000E+03	2.221590E-16	5.133798E-19
4.300000E+03	2.241680E-16	5.180210E-19
4.301000E+03	2.262057E-16	5.227286E-19
4.302000E+03	2.282284E-16	5.274016E-19
4.303000E+03	2.302217E-16	5.320065E-19
4.304000E+03	2.320834E-16	5.363071E-19
4.305000E+03	2.338426E-16	5.403711E-19
4.306000E+03	2.355432E-16	5.442996E-19
