#wls	flux	fluxerr
1.600000E+03	7.465639E-18	6.108645E-19
1.640000E+03	7.454619E-18	6.073502E-19
1.680000E+03	7.445689E-18	6.039539E-19
1.720000E+03	7.444059E-18	6.010932E-19
1.760000E+03	7.445020E-18	5.983808E-19
1.800000E+03	7.453708E-18	5.962234E-19
1.840000E+03	7.465585E-18	5.942500E-19
1.880000E+03	7.483393E-18	5.926726E-19
1.920000E+03	7.509806E-18	5.916934E-19
1.960000E+03	7.540542E-18	5.909648E-19
2.000000E+03	7.580667E-18	5.908743E-19
2.040000E+03	7.626066E-18	5.910891E-19
2.080000E+03	7.681833E-18	5.919925E-19
2.120000E+03	7.746275E-18	5.934388E-19
2.160000E+03	7.822283E-18	5.956335E-19
2.200000E+03	7.906113E-18	5.982742E-19
2.240000E+03	8.003041E-18	6.017433E-19
2.280000E+03	8.111744E-18	6.059192E-19
2.320000E+03	8.235453E-18	6.110204E-19
2.360000E+03	8.373078E-18	6.169396E-19
2.400000E+03	8.528115E-18	6.239062E-19
2.440000E+03	8.699760E-18	6.318291E-19
2.480000E+03	8.889593E-18	6.407899E-19
2.520000E+03	9.103933E-18	6.512046E-19
2.560000E+03	9.340293E-18	6.628488E-19
2.600000E+03	9.603235E-18	6.759985E-19
2.640000E+03	9.893004E-18	6.906166E-19
2.680000E+03	1.021722E-17	7.071738E-19
2.720000E+03	1.057688E-17	7.256675E-19
2.760000E+03	1.097324E-17	7.461061E-19
2.800000E+03	1.141548E-17	7.690287E-19
2.840000E+03	1.190334E-17	7.943172E-19
2.880000E+03	1.244742E-17	8.225700E-19
2.920000E+03	1.305131E-17	8.538972E-19
2.960000E+03	1.372488E-17	8.888006E-19
3.000000E+03	1.447042E-17	9.272680E-19
3.010000E+03	1.467083E-17	9.376000E-19
3.020000E+03	1.487626E-17	9.481736E-19
3.030000E+03	1.508687E-17	9.589964E-19
3.040000E+03	1.530589E-17	9.702701E-19
3.050000E+03	1.552735E-17	9.816121E-19
3.060000E+03	1.575760E-17	9.934214E-19
3.070000E+03	1.599374E-17	1.005511E-18
3.080000E+03	1.623592E-17	1.017886E-18
3.090000E+03	1.648436E-17	1.030557E-18
3.100000E+03	1.673921E-17	1.043531E-18
3.110000E+03	1.700070E-17	1.056815E-18
3.120000E+03	1.727235E-17	1.070627E-18
3.130000E+03	1.755111E-17	1.084770E-18
3.140000E+03	1.783718E-17	1.099253E-18
3.150000E+03	1.813082E-17	1.114087E-18
3.160000E+03	1.843222E-17	1.129280E-18
3.170000E+03	1.874164E-17	1.144843E-18
3.180000E+03	1.906292E-17	1.161005E-18
3.190000E+03	1.939283E-17	1.177562E-18
3.200000E+03	1.973161E-17	1.194524E-18
3.210000E+03	2.007957E-17	1.211904E-18
3.220000E+03	2.043698E-17	1.229713E-18
3.230000E+03	2.080798E-17	1.248193E-18
3.240000E+03	2.118527E-17	1.266900E-18
3.250000E+03	2.157689E-17	1.286310E-18
3.260000E+03	2.197935E-17	1.306204E-18
3.270000E+03	2.239301E-17	1.326600E-18
3.280000E+03	2.282233E-17	1.347752E-18
3.290000E+03	2.325955E-17	1.369195E-18
3.300000E+03	2.371333E-17	1.391432E-18
3.310000E+03	2.418000E-17	1.414237E-18
3.320000E+03	2.465997E-17	1.437628E-18
3.330000E+03	2.515370E-17	1.461622E-18
3.340000E+03	2.566615E-17	1.486499E-18
3.350000E+03	2.618890E-17	1.511760E-18
3.360000E+03	2.673151E-17	1.537949E-18
3.370000E+03	2.729002E-17	1.564826E-18
3.380000E+03	2.786977E-17	1.592687E-18
3.390000E+03	2.846185E-17	1.621013E-18
3.400000E+03	2.907653E-17	1.650376E-18
3.410000E+03	2.970462E-17	1.680244E-18
3.420000E+03	3.035675E-17	1.711206E-18
3.430000E+03	3.102866E-17	1.743010E-18
3.440000E+03	3.172636E-17	1.775978E-18
3.450000E+03	3.244011E-17	1.809552E-18
3.460000E+03	3.318138E-17	1.844358E-18
3.470000E+03	3.394566E-17	1.880130E-18
3.480000E+03	3.473382E-17	1.916902E-18
3.490000E+03	3.555251E-17	1.955023E-18
3.500000E+03	3.639120E-17	1.993898E-18
3.510000E+03	3.726249E-17	2.034201E-18
3.520000E+03	3.816161E-17	2.075653E-18
3.530000E+03	3.908956E-17	2.118290E-18
3.540000E+03	4.004740E-17	2.162151E-18
3.550000E+03	4.104268E-17	2.207623E-18
3.560000E+03	4.207030E-17	2.254410E-18
3.570000E+03	4.313140E-17	2.302551E-18
3.580000E+03	4.422715E-17	2.352087E-18
3.590000E+03	4.535870E-17	2.403059E-18
3.600000E+03	4.653442E-17	2.455882E-18
3.610000E+03	4.774129E-17	2.509847E-18
3.620000E+03	4.899500E-17	2.565753E-18
3.630000E+03	5.028954E-17	2.623259E-18
3.640000E+03	5.163391E-17	2.682805E-18
3.650000E+03	5.301390E-17	2.743624E-18
3.660000E+03	5.444646E-17	2.806567E-18
3.670000E+03	5.592501E-17	2.871263E-18
3.680000E+03	5.745079E-17	2.937746E-18
3.690000E+03	5.903371E-17	3.006490E-18
3.700000E+03	6.065788E-17	3.076652E-18
3.710000E+03	6.234213E-17	3.149158E-18
3.720000E+03	6.407907E-17	3.223596E-18
3.730000E+03	6.587000E-17	3.299999E-18
3.740000E+03	6.772594E-17	3.378880E-18
3.750000E+03	6.962905E-17	3.459311E-18
3.760000E+03	7.160030E-17	3.542299E-18
3.770000E+03	7.363139E-17	3.627390E-18
3.780000E+03	7.572373E-17	3.714614E-18
3.790000E+03	7.788965E-17	3.804533E-18
3.800000E+03	8.010909E-17	3.896125E-18
3.810000E+03	8.240559E-17	3.990493E-18
3.820000E+03	8.476982E-17	4.087137E-18
3.830000E+03	8.720338E-17	4.186090E-18
3.840000E+03	8.972011E-17	4.287967E-18
3.850000E+03	9.229756E-17	4.391645E-18
3.860000E+03	9.496219E-17	4.498339E-18
3.870000E+03	9.770358E-17	4.607498E-18
3.880000E+03	1.005236E-16	4.719162E-18
3.890000E+03	1.034380E-16	4.834013E-18
3.900000E+03	1.064215E-16	4.950813E-18
3.910000E+03	1.095043E-16	5.070913E-18
3.920000E+03	1.126745E-16	5.193705E-18
3.930000E+03	1.159347E-16	5.319242E-18
3.940000E+03	1.193025E-16	5.448277E-18
3.950000E+03	1.227500E-16	5.579469E-18
3.960000E+03	1.263112E-16	5.714295E-18
3.970000E+03	1.299732E-16	5.852114E-18
3.980000E+03	1.337391E-16	5.992986E-18
3.990000E+03	1.376293E-16	6.137757E-18
4.000000E+03	1.416125E-16	6.284955E-18
4.010000E+03	1.457273E-16	6.436224E-18
4.020000E+03	1.499598E-16	6.590864E-18
4.030000E+03	1.543134E-16	6.748954E-18
4.040000E+03	1.587921E-16	6.910580E-18
4.050000E+03	1.634196E-16	7.076691E-18
4.060000E+03	1.681603E-16	7.245654E-18
4.070000E+03	1.730588E-16	7.419306E-18
4.080000E+03	1.780991E-16	7.596865E-18
4.090000E+03	1.833076E-16	7.779350E-18
4.100000E+03	1.886448E-16	7.964992E-18
4.110000E+03	1.941363E-16	8.154778E-18
4.120000E+03	1.998097E-16	8.349763E-18
4.130000E+03	2.056463E-16	8.549051E-18
4.140000E+03	2.116497E-16	8.752682E-18
4.150000E+03	2.178232E-16	8.960686E-18
4.160000E+03	2.241952E-16	9.174118E-18
4.170000E+03	2.307170E-16	9.390861E-18
4.180000E+03	2.374426E-16	9.613005E-18
4.190000E+03	2.443468E-16	9.839408E-18
4.200000E+03	2.514292E-16	1.006994E-17
4.210000E+03	2.586887E-16	1.030444E-17
4.220000E+03	2.661526E-16	1.054388E-17
4.230000E+03	2.737579E-16	1.078564E-17
4.240000E+03	2.815594E-16	1.103179E-17
4.250000E+03	2.895200E-16	1.128075E-17
4.260000E+03	2.976310E-16	1.153209E-17
4.270000E+03	3.058812E-16	1.178529E-17
4.280000E+03	3.142579E-16	1.203977E-17
4.290000E+03	3.227461E-16	1.229488E-17
4.300000E+03	3.313647E-16	1.255127E-17
4.310000E+03	3.400608E-16	1.280688E-17
4.320000E+03	3.487767E-16	1.305951E-17
4.330000E+03	3.575641E-16	1.331107E-17
4.340000E+03	3.663639E-16	1.355933E-17
4.350000E+03	3.751921E-16	1.380490E-17
4.360000E+03	3.839475E-16	1.404405E-17
4.370000E+03	3.926480E-16	1.427751E-17
4.380000E+03	4.013174E-16	1.450617E-17
4.390000E+03	4.099037E-16	1.472821E-17
4.400000E+03	4.183594E-16	1.494199E-17
4.410000E+03	4.267729E-16	1.515076E-17
4.420000E+03	4.351124E-16	1.535342E-17
4.430000E+03	4.433934E-16	1.555059E-17
4.440000E+03	4.516361E-16	1.574303E-17
4.450000E+03	4.599087E-16	1.593313E-17
4.460000E+03	4.681430E-16	1.611856E-17
4.470000E+03	4.764559E-16	1.630335E-17
4.480000E+03	4.847764E-16	1.648506E-17
4.490000E+03	4.932216E-16	1.666767E-17
4.500000E+03	5.017639E-16	1.685018E-17
4.510000E+03	5.103702E-16	1.703145E-17
4.520000E+03	5.191535E-16	1.721522E-17
4.530000E+03	5.280744E-16	1.740009E-17
4.540000E+03	5.371388E-16	1.758621E-17
4.550000E+03	5.463484E-16	1.777355E-17
4.560000E+03	5.557003E-16	1.796197E-17
4.570000E+03	5.652408E-16	1.815289E-17
4.580000E+03	5.748519E-16	1.834246E-17
4.590000E+03	5.845706E-16	1.853183E-17
4.600000E+03	5.944332E-16	1.872211E-17
4.610000E+03	6.043065E-16	1.890903E-17
4.620000E+03	6.142196E-16	1.909350E-17
4.630000E+03	6.242017E-16	1.927639E-17
4.640000E+03	6.341079E-16	1.945322E-17
4.650000E+03	6.440220E-16	1.962657E-17
4.660000E+03	6.538534E-16	1.979370E-17
4.670000E+03	6.635084E-16	1.995184E-17
4.680000E+03	6.730733E-16	2.010367E-17
4.690000E+03	6.823942E-16	2.024467E-17
4.700000E+03	6.915611E-16	2.037763E-17
4.710000E+03	7.004820E-16	2.049995E-17
4.720000E+03	7.090647E-16	2.060908E-17
4.730000E+03	7.174066E-16	2.070802E-17
4.740000E+03	7.254189E-16	2.079438E-17
4.750000E+03	7.330128E-16	2.086580E-17
4.760000E+03	7.402938E-16	2.092552E-17
4.770000E+03	7.471770E-16	2.097131E-17
4.780000E+03	7.535777E-16	2.100105E-17
4.790000E+03	7.596079E-16	2.101812E-17
4.800000E+03	7.651210E-16	2.101868E-17
4.810000E+03	7.702330E-16	2.100621E-17
4.820000E+03	7.747989E-16	2.097700E-17
4.830000E+03	7.789383E-16	2.093459E-17
4.840000E+03	7.825088E-16	2.087541E-17
4.850000E+03	7.856334E-16	2.080306E-17
4.860000E+03	7.881732E-16	2.071413E-17
4.870000E+03	7.901890E-16	2.061055E-17
4.880000E+03	7.917439E-16	2.049426E-17
4.890000E+03	7.927063E-16	2.036213E-17
4.900000E+03	7.931448E-16	2.021627E-17
4.910000E+03	7.930653E-16	2.005714E-17
4.920000E+03	7.924774E-16	1.988526E-17
4.930000E+03	7.913942E-16	1.970127E-17
4.940000E+03	7.897689E-16	1.950431E-17
4.950000E+03	7.877512E-16	1.929836E-17
4.960000E+03	7.853023E-16	1.908271E-17
4.970000E+03	7.823894E-16	1.885683E-17
4.980000E+03	7.791726E-16	1.862482E-17
4.990000E+03	7.755654E-16	1.838483E-17
5.000000E+03	7.716728E-16	1.813954E-17
5.010000E+03	7.675413E-16	1.789023E-17
5.020000E+03	7.632203E-16	1.763819E-17
5.030000E+03	7.587630E-16	1.738475E-17
5.040000E+03	7.542247E-16	1.713126E-17
5.050000E+03	7.496633E-16	1.687909E-17
5.060000E+03	7.450806E-16	1.662830E-17
5.070000E+03	7.406534E-16	1.638282E-17
5.080000E+03	7.363284E-16	1.614142E-17
5.090000E+03	7.322248E-16	1.590664E-17
5.100000E+03	7.284041E-16	1.567968E-17
5.110000E+03	7.249268E-16	1.546170E-17
5.120000E+03	7.217976E-16	1.525260E-17
5.130000E+03	7.191843E-16	1.505571E-17
5.140000E+03	7.170331E-16	1.486964E-17
5.150000E+03	7.154527E-16	1.469638E-17
5.160000E+03	7.144941E-16	1.453665E-17
5.170000E+03	7.142059E-16	1.439110E-17
5.180000E+03	7.146340E-16	1.426029E-17
5.190000E+03	7.158217E-16	1.414468E-17
5.200000E+03	7.177566E-16	1.404364E-17
5.210000E+03	7.205295E-16	1.395852E-17
5.220000E+03	7.241757E-16	1.388957E-17
5.230000E+03	7.287277E-16	1.383696E-17
5.240000E+03	7.341619E-16	1.379978E-17
5.250000E+03	7.406125E-16	1.378008E-17
5.260000E+03	7.479968E-16	1.377583E-17
5.270000E+03	7.563901E-16	1.378796E-17
5.280000E+03	7.657561E-16	1.381533E-17
5.290000E+03	7.762205E-16	1.385972E-17
5.300000E+03	7.876845E-16	1.391890E-17
5.310000E+03	8.002113E-16	1.399352E-17
5.320000E+03	8.138048E-16	1.408320E-17
5.330000E+03	8.284639E-16	1.418748E-17
5.340000E+03	8.441218E-16	1.430481E-17
5.350000E+03	8.608232E-16	1.443558E-17
5.360000E+03	8.785473E-16	1.457906E-17
5.370000E+03	8.972654E-16	1.473447E-17
5.380000E+03	9.169398E-16	1.490087E-17
5.390000E+03	9.374576E-16	1.507622E-17
5.400000E+03	9.588229E-16	1.526041E-17
5.410000E+03	9.808975E-16	1.545112E-17
5.420000E+03	1.003733E-15	1.564909E-17
5.430000E+03	1.027096E-15	1.585068E-17
5.440000E+03	1.050944E-15	1.605533E-17
5.450000E+03	1.075153E-15	1.626131E-17
5.460000E+03	1.099512E-15	1.646564E-17
5.470000E+03	1.123947E-15	1.666758E-17
5.480000E+03	1.148307E-15	1.686527E-17
5.490000E+03	1.172442E-15	1.705701E-17
5.500000E+03	1.196135E-15	1.724018E-17
5.510000E+03	1.219341E-15	1.741478E-17
5.520000E+03	1.241873E-15	1.757880E-17
5.530000E+03	1.263811E-15	1.773410E-17
5.540000E+03	1.284917E-15	1.787802E-17
5.550000E+03	1.305215E-15	1.801166E-17
5.560000E+03	1.324574E-15	1.813397E-17
5.570000E+03	1.343144E-15	1.824772E-17
5.580000E+03	1.360737E-15	1.835109E-17
5.590000E+03	1.377357E-15	1.844484E-17
5.600000E+03	1.393213E-15	1.853243E-17
5.610000E+03	1.408163E-15	1.861251E-17
5.620000E+03	1.422266E-15	1.868605E-17
5.630000E+03	1.435781E-15	1.875659E-17
5.640000E+03	1.448609E-15	1.882284E-17
5.650000E+03	1.460847E-15	1.888607E-17
5.660000E+03	1.472793E-15	1.895005E-17
5.670000E+03	1.484367E-15	1.901363E-17
5.680000E+03	1.495775E-15	1.907931E-17
5.690000E+03	1.507034E-15	1.914708E-17
5.700000E+03	1.518344E-15	1.921927E-17
5.710000E+03	1.529802E-15	1.929685E-17
5.720000E+03	1.541493E-15	1.938060E-17
5.730000E+03	1.553389E-15	1.946989E-17
5.740000E+03	1.565539E-15	1.956504E-17
5.750000E+03	1.578178E-15	1.966866E-17
5.760000E+03	1.591112E-15	1.977803E-17
5.770000E+03	1.604430E-15	1.989390E-17
5.780000E+03	1.617986E-15	2.001420E-17
5.790000E+03	1.631819E-15	2.013907E-17
5.800000E+03	1.645838E-15	2.026707E-17
5.810000E+03	1.659816E-15	2.039512E-17
5.820000E+03	1.673715E-15	2.052247E-17
5.830000E+03	1.687375E-15	2.064686E-17
5.840000E+03	1.700503E-15	2.076447E-17
5.850000E+03	1.713012E-15	2.087396E-17
5.860000E+03	1.724697E-15	2.097263E-17
5.870000E+03	1.735242E-15	2.105642E-17
5.880000E+03	1.744559E-15	2.112408E-17
5.890000E+03	1.752349E-15	2.117184E-17
5.900000E+03	1.758555E-15	2.119887E-17
5.910000E+03	1.763037E-15	2.120341E-17
5.920000E+03	1.765691E-15	2.118412E-17
5.930000E+03	1.766340E-15	2.113884E-17
5.940000E+03	1.764960E-15	2.106730E-17
5.950000E+03	1.761792E-15	2.097239E-17
5.960000E+03	1.756684E-15	2.085235E-17
5.970000E+03	1.749747E-15	2.070858E-17
5.980000E+03	1.741239E-15	2.054423E-17
5.990000E+03	1.731344E-15	2.036157E-17
6.000000E+03	1.720276E-15	2.016323E-17
6.010000E+03	1.708163E-15	1.995084E-17
6.020000E+03	1.695256E-15	1.972743E-17
6.030000E+03	1.682019E-15	1.949854E-17
6.040000E+03	1.668499E-15	1.926478E-17
6.050000E+03	1.654942E-15	1.902908E-17
6.060000E+03	1.641786E-15	1.879655E-17
6.070000E+03	1.628941E-15	1.856618E-17
6.080000E+03	1.616899E-15	1.834363E-17
6.090000E+03	1.605628E-15	1.812851E-17
6.100000E+03	1.595367E-15	1.792350E-17
6.110000E+03	1.586128E-15	1.772871E-17
6.120000E+03	1.578091E-15	1.754611E-17
6.130000E+03	1.571217E-15	1.737519E-17
6.140000E+03	1.565725E-15	1.721834E-17
6.150000E+03	1.561334E-15	1.707239E-17
6.160000E+03	1.558313E-15	1.694026E-17
6.170000E+03	1.556435E-15	1.681941E-17
6.180000E+03	1.555743E-15	1.671029E-17
6.190000E+03	1.556073E-15	1.661117E-17
6.200000E+03	1.557442E-15	1.652225E-17
6.210000E+03	1.559672E-15	1.644170E-17
6.220000E+03	1.562764E-15	1.636968E-17
6.230000E+03	1.566629E-15	1.630536E-17
6.240000E+03	1.571178E-15	1.624801E-17
6.250000E+03	1.576231E-15	1.619598E-17
6.260000E+03	1.581711E-15	1.614879E-17
6.270000E+03	1.587742E-15	1.610799E-17
6.280000E+03	1.593983E-15	1.607050E-17
6.290000E+03	1.600683E-15	1.603922E-17
6.300000E+03	1.607626E-15	1.601241E-17
6.310000E+03	1.614901E-15	1.599144E-17
6.320000E+03	1.622418E-15	1.597592E-17
6.330000E+03	1.630302E-15	1.596761E-17
6.340000E+03	1.638593E-15	1.596746E-17
6.350000E+03	1.647247E-15	1.597562E-17
6.360000E+03	1.656429E-15	1.599430E-17
6.370000E+03	1.666210E-15	1.602483E-17
6.380000E+03	1.676569E-15	1.606765E-17
6.390000E+03	1.687684E-15	1.612518E-17
6.400000E+03	1.699529E-15	1.619786E-17
6.410000E+03	1.712270E-15	1.628806E-17
6.420000E+03	1.725958E-15	1.639702E-17
6.430000E+03	1.740521E-15	1.652488E-17
6.440000E+03	1.756066E-15	1.667352E-17
6.450000E+03	1.772567E-15	1.684360E-17
6.460000E+03	1.789847E-15	1.703433E-17
6.470000E+03	1.807897E-15	1.724660E-17
6.480000E+03	1.826441E-15	1.747869E-17
6.490000E+03	1.845465E-15	1.773132E-17
6.500000E+03	1.864355E-15	1.799877E-17
6.510000E+03	1.883101E-15	1.828087E-17
6.520000E+03	1.901105E-15	1.857164E-17
6.530000E+03	1.918088E-15	1.886802E-17
6.540000E+03	1.933560E-15	1.916470E-17
6.550000E+03	1.947291E-15	1.945869E-17
6.560000E+03	1.958956E-15	1.974593E-17
6.570000E+03	1.968139E-15	2.002116E-17
6.580000E+03	1.974673E-15	2.028145E-17
6.590000E+03	1.978294E-15	2.052272E-17
6.600000E+03	1.978654E-15	2.073979E-17
6.610000E+03	1.975686E-15	2.093022E-17
6.620000E+03	1.969262E-15	2.109084E-17
6.630000E+03	1.959206E-15	2.121780E-17
6.640000E+03	1.945651E-15	2.131052E-17
6.650000E+03	1.928689E-15	2.136799E-17
6.660000E+03	1.908372E-15	2.138877E-17
6.670000E+03	1.885053E-15	2.137485E-17
6.680000E+03	1.858916E-15	2.132644E-17
6.690000E+03	1.830530E-15	2.124836E-17
6.700000E+03	1.800056E-15	2.114096E-17
6.710000E+03	1.767905E-15	2.100764E-17
6.720000E+03	1.734706E-15	2.085474E-17
6.730000E+03	1.700660E-15	2.068376E-17
6.740000E+03	1.666178E-15	2.049890E-17
6.750000E+03	1.631835E-15	2.030677E-17
6.760000E+03	1.597787E-15	2.010899E-17
6.770000E+03	1.564358E-15	1.990948E-17
6.780000E+03	1.532020E-15	1.971428E-17
6.790000E+03	1.500828E-15	1.952433E-17
6.800000E+03	1.471085E-15	1.934388E-17
6.810000E+03	1.442877E-15	1.917447E-17
6.820000E+03	1.416429E-15	1.901963E-17
6.830000E+03	1.391851E-15	1.888144E-17
6.840000E+03	1.369219E-15	1.876159E-17
6.850000E+03	1.348511E-15	1.866044E-17
6.860000E+03	1.329840E-15	1.858031E-17
6.870000E+03	1.313227E-15	1.852219E-17
6.880000E+03	1.298590E-15	1.848567E-17
6.890000E+03	1.285997E-15	1.847244E-17
6.900000E+03	1.275427E-15	1.848290E-17
6.910000E+03	1.266772E-15	1.851619E-17
6.920000E+03	1.260148E-15	1.857463E-17
6.930000E+03	1.255354E-15	1.865597E-17
6.940000E+03	1.252345E-15	1.876007E-17
6.950000E+03	1.251221E-15	1.888900E-17
6.960000E+03	1.251770E-15	1.904014E-17
6.970000E+03	1.253935E-15	1.921304E-17
6.980000E+03	1.257807E-15	1.940955E-17
6.990000E+03	1.263166E-15	1.962671E-17
7.000000E+03	1.270023E-15	1.986502E-17
7.010000E+03	1.278307E-15	2.012371E-17
7.020000E+03	1.287868E-15	2.040068E-17
7.030000E+03	1.298785E-15	2.069743E-17
7.040000E+03	1.310823E-15	2.101038E-17
7.050000E+03	1.323900E-15	2.133836E-17
7.060000E+03	1.338087E-15	2.168263E-17
7.070000E+03	1.353135E-15	2.203922E-17
7.080000E+03	1.369031E-15	2.240793E-17
7.090000E+03	1.385589E-15	2.278570E-17
7.100000E+03	1.402879E-15	2.317362E-17
7.110000E+03	1.420617E-15	2.356695E-17
7.120000E+03	1.438776E-15	2.396508E-17
7.130000E+03	1.457142E-15	2.436431E-17
7.140000E+03	1.475766E-15	2.476530E-17
7.150000E+03	1.494333E-15	2.516257E-17
7.160000E+03	1.512788E-15	2.555493E-17
7.170000E+03	1.530887E-15	2.593804E-17
7.180000E+03	1.548661E-15	2.631210E-17
7.190000E+03	1.565754E-15	2.667084E-17
7.200000E+03	1.582091E-15	2.701264E-17
7.210000E+03	1.597498E-15	2.733425E-17
7.220000E+03	1.611694E-15	2.763056E-17
7.230000E+03	1.624600E-15	2.789993E-17
7.240000E+03	1.636038E-15	2.813900E-17
7.250000E+03	1.645835E-15	2.834456E-17
7.260000E+03	1.653824E-15	2.851351E-17
7.270000E+03	1.659746E-15	2.864115E-17
7.280000E+03	1.663564E-15	2.872670E-17
7.290000E+03	1.665157E-15	2.876793E-17
7.300000E+03	1.664427E-15	2.876309E-17
7.310000E+03	1.661297E-15	2.871082E-17
7.320000E+03	1.655619E-15	2.860860E-17
7.330000E+03	1.647482E-15	2.845804E-17
7.340000E+03	1.636904E-15	2.825959E-17
7.350000E+03	1.623934E-15	2.801432E-17
7.360000E+03	1.608555E-15	2.772216E-17
7.370000E+03	1.591086E-15	2.738890E-17
7.380000E+03	1.571466E-15	2.701388E-17
7.390000E+03	1.549872E-15	2.660046E-17
7.400000E+03	1.526700E-15	2.615587E-17
7.410000E+03	1.502061E-15	2.568244E-17
7.420000E+03	1.476094E-15	2.518297E-17
7.430000E+03	1.449137E-15	2.466366E-17
7.440000E+03	1.421436E-15	2.412913E-17
7.450000E+03	1.393240E-15	2.358405E-17
7.460000E+03	1.364708E-15	2.303146E-17
7.470000E+03	1.336254E-15	2.247874E-17
7.480000E+03	1.307935E-15	2.192716E-17
7.490000E+03	1.280055E-15	2.138210E-17
7.500000E+03	1.252812E-15	2.084712E-17
7.510000E+03	1.226392E-15	2.032547E-17
7.520000E+03	1.200878E-15	1.981869E-17
7.530000E+03	1.176498E-15	1.933063E-17
7.540000E+03	1.153377E-15	1.886337E-17
7.550000E+03	1.131618E-15	1.841860E-17
7.560000E+03	1.111309E-15	1.799767E-17
7.570000E+03	1.092514E-15	1.760152E-17
7.580000E+03	1.075214E-15	1.722971E-17
7.590000E+03	1.059583E-15	1.688483E-17
7.600000E+03	1.045495E-15	1.656466E-17
7.610000E+03	1.033023E-15	1.627016E-17
7.620000E+03	1.022154E-15	1.600084E-17
7.630000E+03	1.012796E-15	1.575500E-17
7.640000E+03	1.005048E-15	1.553391E-17
7.650000E+03	9.987295E-16	1.533447E-17
7.660000E+03	9.938517E-16	1.515660E-17
7.670000E+03	9.903510E-16	1.499905E-17
7.680000E+03	9.881567E-16	1.486049E-17
7.690000E+03	9.871923E-16	1.473952E-17
7.700000E+03	9.873760E-16	1.463471E-17
7.710000E+03	9.885559E-16	1.454363E-17
7.720000E+03	9.907767E-16	1.446677E-17
7.730000E+03	9.938143E-16	1.440075E-17
7.740000E+03	9.976441E-16	1.434514E-17
7.750000E+03	1.002174E-15	1.429859E-17
7.760000E+03	1.007317E-15	1.425985E-17
