#wls	flux	fluxerr
1.600000E+03	7.669789E-18	4.822597E-19
1.640000E+03	7.663940E-18	4.800473E-19
1.680000E+03	7.662638E-18	4.780785E-19
1.720000E+03	7.666105E-18	4.763630E-19
1.760000E+03	7.674589E-18	4.749116E-19
1.800000E+03	7.688363E-18	4.737365E-19
1.840000E+03	7.707734E-18	4.728513E-19
1.880000E+03	7.735404E-18	4.724154E-19
1.920000E+03	7.766994E-18	4.721544E-19
1.960000E+03	7.805306E-18	4.722333E-19
2.000000E+03	7.853109E-18	4.728114E-19
2.040000E+03	7.908569E-18	4.737688E-19
2.080000E+03	7.972252E-18	4.751305E-19
2.120000E+03	8.047054E-18	4.770586E-19
2.160000E+03	8.131385E-18	4.794465E-19
2.200000E+03	8.226023E-18	4.823283E-19
2.240000E+03	8.334075E-18	4.858723E-19
2.280000E+03	8.454252E-18	4.899872E-19
2.320000E+03	8.589861E-18	4.948480E-19
2.360000E+03	8.742120E-18	5.005045E-19
2.400000E+03	8.910111E-18	5.068827E-19
2.440000E+03	9.097613E-18	5.141746E-19
2.480000E+03	9.306331E-18	5.224495E-19
2.520000E+03	9.538183E-18	5.317849E-19
2.560000E+03	9.793028E-18	5.421402E-19
2.600000E+03	1.007793E-17	5.538701E-19
2.640000E+03	1.039333E-17	5.669553E-19
2.680000E+03	1.073990E-17	5.813874E-19
2.720000E+03	1.112842E-17	5.976974E-19
2.760000E+03	1.155554E-17	6.156438E-19
2.800000E+03	1.203069E-17	6.356643E-19
2.840000E+03	1.255641E-17	6.578168E-19
2.880000E+03	1.314104E-17	6.824547E-19
2.920000E+03	1.378841E-17	7.096789E-19
2.960000E+03	1.450857E-17	7.399003E-19
3.000000E+03	1.530991E-17	7.734222E-19
3.010000E+03	1.552336E-17	7.823243E-19
3.020000E+03	1.574509E-17	7.915832E-19
3.030000E+03	1.596919E-17	8.008989E-19
3.040000E+03	1.620193E-17	8.105844E-19
3.050000E+03	1.644043E-17	8.204920E-19
3.060000E+03	1.668485E-17	8.306272E-19
3.070000E+03	1.693856E-17	8.411548E-19
3.080000E+03	1.719536E-17	8.517640E-19
3.090000E+03	1.746187E-17	8.627808E-19
3.100000E+03	1.773508E-17	8.740516E-19
3.110000E+03	1.801516E-17	8.855833E-19
3.120000E+03	1.830233E-17	8.973829E-19
3.130000E+03	1.860020E-17	9.096236E-19
3.140000E+03	1.890219E-17	9.219805E-19
3.150000E+03	1.921539E-17	9.347963E-19
3.160000E+03	1.953660E-17	9.479108E-19
3.170000E+03	1.986964E-17	9.615057E-19
3.180000E+03	2.020763E-17	9.752437E-19
3.190000E+03	2.055802E-17	9.894810E-19
3.200000E+03	2.091749E-17	1.004053E-18
3.210000E+03	2.128631E-17	1.018969E-18
3.220000E+03	2.166476E-17	1.034236E-18
3.230000E+03	2.205697E-17	1.050050E-18
3.240000E+03	2.245558E-17	1.066052E-18
3.250000E+03	2.286865E-17	1.082623E-18
3.260000E+03	2.329666E-17	1.099778E-18
3.270000E+03	2.373196E-17	1.117151E-18
3.280000E+03	2.418299E-17	1.135134E-18
3.290000E+03	2.464608E-17	1.153549E-18
3.300000E+03	2.512160E-17	1.172407E-18
3.310000E+03	2.560994E-17	1.191721E-18
3.320000E+03	2.611150E-17	1.211504E-18
3.330000E+03	2.663110E-17	1.231972E-18
3.340000E+03	2.716487E-17	1.252939E-18
3.350000E+03	2.771328E-17	1.274421E-18
3.360000E+03	2.828141E-17	1.296642E-18
3.370000E+03	2.886054E-17	1.319197E-18
3.380000E+03	2.946053E-17	1.342528E-18
3.390000E+03	3.007728E-17	1.366440E-18
3.400000E+03	3.071623E-17	1.391172E-18
3.410000E+03	3.136820E-17	1.416298E-18
3.420000E+03	3.204371E-17	1.442288E-18
3.430000E+03	3.273846E-17	1.468935E-18
3.440000E+03	3.345834E-17	1.496496E-18
3.450000E+03	3.419360E-17	1.524524E-18
3.460000E+03	3.495556E-17	1.553514E-18
3.470000E+03	3.573968E-17	1.583253E-18
3.480000E+03	3.654672E-17	1.613764E-18
3.490000E+03	3.738320E-17	1.645323E-18
3.500000E+03	3.824442E-17	1.677711E-18
3.510000E+03	3.913122E-17	1.710953E-18
3.520000E+03	4.004450E-17	1.745075E-18
3.530000E+03	4.098520E-17	1.780106E-18
3.540000E+03	4.196049E-17	1.816343E-18
3.550000E+03	4.296533E-17	1.853554E-18
3.560000E+03	4.400074E-17	1.891766E-18
3.570000E+03	4.507435E-17	1.931294E-18
3.580000E+03	4.618087E-17	1.971892E-18
3.590000E+03	4.732133E-17	2.013589E-18
3.600000E+03	4.849681E-17	2.056415E-18
3.610000E+03	4.970834E-17	2.100397E-18
3.620000E+03	5.096421E-17	2.145866E-18
3.630000E+03	5.225847E-17	2.192551E-18
3.640000E+03	5.359212E-17	2.240476E-18
3.650000E+03	5.497390E-17	2.289986E-18
3.660000E+03	5.639741E-17	2.340792E-18
3.670000E+03	5.786370E-17	2.392918E-18
3.680000E+03	5.937381E-17	2.446386E-18
3.690000E+03	6.093717E-17	2.501561E-18
3.700000E+03	6.253829E-17	2.557785E-18
3.710000E+03	6.419516E-17	2.615771E-18
3.720000E+03	6.590945E-17	2.675562E-18
3.730000E+03	6.766465E-17	2.736460E-18
3.740000E+03	6.947991E-17	2.799218E-18
3.750000E+03	7.134752E-17	2.863497E-18
3.760000E+03	7.327838E-17	2.929705E-18
3.770000E+03	7.525456E-17	2.997098E-18
3.780000E+03	7.729693E-17	3.066482E-18
3.790000E+03	7.939712E-17	3.137493E-18
3.800000E+03	8.156705E-17	3.210571E-18
3.810000E+03	8.378728E-17	3.284919E-18
3.820000E+03	8.608059E-17	3.361402E-18
3.830000E+03	8.843793E-17	3.439632E-18
3.840000E+03	9.087246E-17	3.520086E-18
3.850000E+03	9.337491E-17	3.602368E-18
3.860000E+03	9.594682E-17	3.686503E-18
3.870000E+03	9.859012E-17	3.772530E-18
3.880000E+03	1.013068E-16	3.860489E-18
3.890000E+03	1.041116E-16	3.950903E-18
3.900000E+03	1.069944E-16	4.043343E-18
3.910000E+03	1.099573E-16	4.137853E-18
3.920000E+03	1.130165E-16	4.234995E-18
3.930000E+03	1.161474E-16	4.333806E-18
3.940000E+03	1.193802E-16	4.435369E-18
3.950000E+03	1.227039E-16	4.539229E-18
3.960000E+03	1.261364E-16	4.645996E-18
3.970000E+03	1.296665E-16	4.755205E-18
3.980000E+03	1.332972E-16	4.866921E-18
3.990000E+03	1.370322E-16	4.981220E-18
4.000000E+03	1.408748E-16	5.098173E-18
4.010000E+03	1.448453E-16	5.218455E-18
4.020000E+03	1.489317E-16	5.341574E-18
4.030000E+03	1.531380E-16	5.467612E-18
4.040000E+03	1.574860E-16	5.597285E-18
4.050000E+03	1.619449E-16	5.729428E-18
4.060000E+03	1.665551E-16	5.865409E-18
4.070000E+03	1.713222E-16	6.005351E-18
4.080000E+03	1.762132E-16	6.148022E-18
4.090000E+03	1.812714E-16	6.294858E-18
4.100000E+03	1.864617E-16	6.444568E-18
4.110000E+03	1.918501E-16	6.599354E-18
4.120000E+03	1.973798E-16	6.757168E-18
4.130000E+03	2.030757E-16	6.918789E-18
4.140000E+03	2.089640E-16	7.085026E-18
4.150000E+03	2.150276E-16	7.255197E-18
4.160000E+03	2.212697E-16	7.429325E-18
4.170000E+03	2.277174E-16	7.608228E-18
4.180000E+03	2.343257E-16	7.790306E-18
4.190000E+03	2.411451E-16	7.977144E-18
4.200000E+03	2.481525E-16	8.167879E-18
4.210000E+03	2.553744E-16	8.363284E-18
4.220000E+03	2.627578E-16	8.561526E-18
4.230000E+03	2.703540E-16	8.764187E-18
4.240000E+03	2.781334E-16	8.970204E-18
4.250000E+03	2.860914E-16	9.179341E-18
4.260000E+03	2.942221E-16	9.391316E-18
4.270000E+03	3.025481E-16	9.606769E-18
4.280000E+03	3.110008E-16	9.823427E-18
4.290000E+03	3.196308E-16	1.004283E-17
4.300000E+03	3.283958E-16	1.026356E-17
4.310000E+03	3.372831E-16	1.048515E-17
4.320000E+03	3.463117E-16	1.070815E-17
4.330000E+03	3.553997E-16	1.092995E-17
4.340000E+03	3.645999E-16	1.115216E-17
4.350000E+03	3.738629E-16	1.137321E-17
4.360000E+03	3.831736E-16	1.159262E-17
4.370000E+03	3.925185E-16	1.180997E-17
4.380000E+03	4.019239E-16	1.202603E-17
4.390000E+03	4.113062E-16	1.223828E-17
4.400000E+03	4.207361E-16	1.244885E-17
4.410000E+03	4.301744E-16	1.265656E-17
4.420000E+03	4.396228E-16	1.286146E-17
4.430000E+03	4.490863E-16	1.306370E-17
4.440000E+03	4.586146E-16	1.326472E-17
4.450000E+03	4.681338E-16	1.346237E-17
4.460000E+03	4.777395E-16	1.365940E-17
4.470000E+03	4.873568E-16	1.385364E-17
4.480000E+03	4.970838E-16	1.404789E-17
4.490000E+03	5.068876E-16	1.424116E-17
4.500000E+03	5.167770E-16	1.443368E-17
4.510000E+03	5.267583E-16	1.462560E-17
4.520000E+03	5.368833E-16	1.481831E-17
4.530000E+03	5.470596E-16	1.500922E-17
4.540000E+03	5.573320E-16	1.519955E-17
4.550000E+03	5.677443E-16	1.539045E-17
4.560000E+03	5.782402E-16	1.558035E-17
4.570000E+03	5.887571E-16	1.576756E-17
4.580000E+03	5.993795E-16	1.595432E-17
4.590000E+03	6.100385E-16	1.613880E-17
4.600000E+03	6.207122E-16	1.632040E-17
4.610000E+03	6.313759E-16	1.649848E-17
4.620000E+03	6.420025E-16	1.667235E-17
4.630000E+03	6.525630E-16	1.684126E-17
4.640000E+03	6.630815E-16	1.700588E-17
4.650000E+03	6.734174E-16	1.716263E-17
4.660000E+03	6.835927E-16	1.731217E-17
4.670000E+03	6.936315E-16	1.745517E-17
4.680000E+03	7.033893E-16	1.758809E-17
4.690000E+03	7.128907E-16	1.771166E-17
4.700000E+03	7.221636E-16	1.782671E-17
4.710000E+03	7.310639E-16	1.792979E-17
4.720000E+03	7.396811E-16	1.802326E-17
4.730000E+03	7.478721E-16	1.810380E-17
4.740000E+03	7.557322E-16	1.817389E-17
4.750000E+03	7.631209E-16	1.823033E-17
4.760000E+03	7.701386E-16	1.827573E-17
4.770000E+03	7.766475E-16	1.830699E-17
4.780000E+03	7.827526E-16	1.832683E-17
4.790000E+03	7.883187E-16	1.833229E-17
4.800000E+03	7.934548E-16	1.832613E-17
4.810000E+03	7.980281E-16	1.830551E-17
4.820000E+03	8.021513E-16	1.827325E-17
4.830000E+03	8.056940E-16	1.822662E-17
4.840000E+03	8.087107E-16	1.816712E-17
4.850000E+03	8.112572E-16	1.809622E-17
4.860000E+03	8.132083E-16	1.801139E-17
4.870000E+03	8.146234E-16	1.791421E-17
4.880000E+03	8.155034E-16	1.780494E-17
4.890000E+03	8.158515E-16	1.768391E-17
4.900000E+03	8.156733E-16	1.755149E-17
4.910000E+03	8.149780E-16	1.740813E-17
4.920000E+03	8.137776E-16	1.725432E-17
4.930000E+03	8.120881E-16	1.709064E-17
4.940000E+03	8.098704E-16	1.691650E-17
4.950000E+03	8.072656E-16	1.673509E-17
4.960000E+03	8.041847E-16	1.654475E-17
4.970000E+03	8.007752E-16	1.634873E-17
4.980000E+03	7.969582E-16	1.614559E-17
4.990000E+03	7.928312E-16	1.593747E-17
5.000000E+03	7.884375E-16	1.572541E-17
5.010000E+03	7.838244E-16	1.551047E-17
5.020000E+03	7.790421E-16	1.529373E-17
5.030000E+03	7.740897E-16	1.507528E-17
5.040000E+03	7.691313E-16	1.485836E-17
5.050000E+03	7.641170E-16	1.464204E-17
5.060000E+03	7.591600E-16	1.442850E-17
5.070000E+03	7.543202E-16	1.421886E-17
5.080000E+03	7.496585E-16	1.401420E-17
5.090000E+03	7.452354E-16	1.381558E-17
5.100000E+03	7.410612E-16	1.362309E-17
5.110000E+03	7.372462E-16	1.343864E-17
5.120000E+03	7.338979E-16	1.326401E-17
5.130000E+03	7.309738E-16	1.309825E-17
5.140000E+03	7.285292E-16	1.294215E-17
5.150000E+03	7.267140E-16	1.279815E-17
5.160000E+03	7.254808E-16	1.266516E-17
5.170000E+03	7.249254E-16	1.254459E-17
5.180000E+03	7.250923E-16	1.243691E-17
5.190000E+03	7.260232E-16	1.234252E-17
5.200000E+03	7.277570E-16	1.226176E-17
5.210000E+03	7.302828E-16	1.219412E-17
5.220000E+03	7.336816E-16	1.214061E-17
5.230000E+03	7.379847E-16	1.210138E-17
5.240000E+03	7.431725E-16	1.207576E-17
5.250000E+03	7.493667E-16	1.206536E-17
5.260000E+03	7.564942E-16	1.206861E-17
5.270000E+03	7.646235E-16	1.208623E-17
5.280000E+03	7.737225E-16	1.211734E-17
5.290000E+03	7.839037E-16	1.216334E-17
5.300000E+03	7.950784E-16	1.222246E-17
5.310000E+03	8.072515E-16	1.229444E-17
5.320000E+03	8.205260E-16	1.238047E-17
5.330000E+03	8.347963E-16	1.247863E-17
5.340000E+03	8.501040E-16	1.258920E-17
5.350000E+03	8.664337E-16	1.271164E-17
5.360000E+03	8.837081E-16	1.284454E-17
5.370000E+03	9.019495E-16	1.298797E-17
5.380000E+03	9.211195E-16	1.314112E-17
5.390000E+03	9.411704E-16	1.330312E-17
5.400000E+03	9.619875E-16	1.347217E-17
5.410000E+03	9.835625E-16	1.364805E-17
5.420000E+03	1.005762E-15	1.382883E-17
5.430000E+03	1.028563E-15	1.401415E-17
5.440000E+03	1.051882E-15	1.420289E-17
5.450000E+03	1.075627E-15	1.439386E-17
5.460000E+03	1.099640E-15	1.458504E-17
5.470000E+03	1.123886E-15	1.477614E-17
5.480000E+03	1.148267E-15	1.496607E-17
5.490000E+03	1.172605E-15	1.515274E-17
5.500000E+03	1.196851E-15	1.533583E-17
5.510000E+03	1.220807E-15	1.551315E-17
5.520000E+03	1.244484E-15	1.568521E-17
5.530000E+03	1.267531E-15	1.584804E-17
5.540000E+03	1.290051E-15	1.600339E-17
5.550000E+03	1.311791E-15	1.614861E-17
5.560000E+03	1.332742E-15	1.628413E-17
5.570000E+03	1.352768E-15	1.640881E-17
5.580000E+03	1.371913E-15	1.652373E-17
5.590000E+03	1.390171E-15	1.662932E-17
5.600000E+03	1.407473E-15	1.672529E-17
5.610000E+03	1.423941E-15	1.681351E-17
5.620000E+03	1.439550E-15	1.689396E-17
5.630000E+03	1.454546E-15	1.696965E-17
5.640000E+03	1.468771E-15	1.703884E-17
5.650000E+03	1.482584E-15	1.710580E-17
5.660000E+03	1.495845E-15	1.716892E-17
5.670000E+03	1.508934E-15	1.723255E-17
5.680000E+03	1.521798E-15	1.729604E-17
5.690000E+03	1.534646E-15	1.736170E-17
5.700000E+03	1.547506E-15	1.742971E-17
5.710000E+03	1.560571E-15	1.750214E-17
5.720000E+03	1.573932E-15	1.757985E-17
5.730000E+03	1.587580E-15	1.766256E-17
5.740000E+03	1.601570E-15	1.775074E-17
5.750000E+03	1.616029E-15	1.784559E-17
5.760000E+03	1.630967E-15	1.794705E-17
5.770000E+03	1.646372E-15	1.805478E-17
5.780000E+03	1.662108E-15	1.816709E-17
5.790000E+03	1.678096E-15	1.828297E-17
5.800000E+03	1.694326E-15	1.840212E-17
5.810000E+03	1.710663E-15	1.852292E-17
5.820000E+03	1.726847E-15	1.864239E-17
5.830000E+03	1.742781E-15	1.875937E-17
5.840000E+03	1.758152E-15	1.887036E-17
5.850000E+03	1.772825E-15	1.897384E-17
5.860000E+03	1.786554E-15	1.906707E-17
5.870000E+03	1.798995E-15	1.914634E-17
5.880000E+03	1.809904E-15	1.920903E-17
5.890000E+03	1.819251E-15	1.925482E-17
5.900000E+03	1.826536E-15	1.927841E-17
5.910000E+03	1.831889E-15	1.928122E-17
5.920000E+03	1.834881E-15	1.925882E-17
5.930000E+03	1.835737E-15	1.921362E-17
5.940000E+03	1.834231E-15	1.914337E-17
5.950000E+03	1.830397E-15	1.904851E-17
5.960000E+03	1.824424E-15	1.893115E-17
5.970000E+03	1.816449E-15	1.879281E-17
5.980000E+03	1.806566E-15	1.863460E-17
5.990000E+03	1.795002E-15	1.845897E-17
6.000000E+03	1.782118E-15	1.826975E-17
6.010000E+03	1.768198E-15	1.806995E-17
6.020000E+03	1.753438E-15	1.786167E-17
6.030000E+03	1.738235E-15	1.764901E-17
6.040000E+03	1.722880E-15	1.743497E-17
6.050000E+03	1.707468E-15	1.722057E-17
6.060000E+03	1.692534E-15	1.701122E-17
6.070000E+03	1.678130E-15	1.680743E-17
6.080000E+03	1.664461E-15	1.661125E-17
6.090000E+03	1.651792E-15	1.642527E-17
6.100000E+03	1.640263E-15	1.625088E-17
6.110000E+03	1.629894E-15	1.608820E-17
6.120000E+03	1.620766E-15	1.593799E-17
6.130000E+03	1.613099E-15	1.580234E-17
6.140000E+03	1.606651E-15	1.567884E-17
6.150000E+03	1.601588E-15	1.556907E-17
6.160000E+03	1.597879E-15	1.547268E-17
6.170000E+03	1.595388E-15	1.538833E-17
6.180000E+03	1.594132E-15	1.531617E-17
6.190000E+03	1.594027E-15	1.525540E-17
6.200000E+03	1.594896E-15	1.520435E-17
6.210000E+03	1.596634E-15	1.516209E-17
6.220000E+03	1.599221E-15	1.512851E-17
6.230000E+03	1.602463E-15	1.510185E-17
6.240000E+03	1.606339E-15	1.508207E-17
6.250000E+03	1.610744E-15	1.506833E-17
6.260000E+03	1.615504E-15	1.505917E-17
6.270000E+03	1.620619E-15	1.505479E-17
6.280000E+03	1.625934E-15	1.505398E-17
6.290000E+03	1.631480E-15	1.505728E-17
6.300000E+03	1.637137E-15	1.506383E-17
6.310000E+03	1.642973E-15	1.507452E-17
6.320000E+03	1.648900E-15	1.508886E-17
6.330000E+03	1.655026E-15	1.510812E-17
6.340000E+03	1.661389E-15	1.513297E-17
6.350000E+03	1.667953E-15	1.516338E-17
6.360000E+03	1.674786E-15	1.520031E-17
6.370000E+03	1.682048E-15	1.524555E-17
6.380000E+03	1.689829E-15	1.530025E-17
6.390000E+03	1.698121E-15	1.536470E-17
6.400000E+03	1.707102E-15	1.544088E-17
6.410000E+03	1.716759E-15	1.552906E-17
6.420000E+03	1.727255E-15	1.563110E-17
6.430000E+03	1.738557E-15	1.574713E-17
6.440000E+03	1.750799E-15	1.587879E-17
6.450000E+03	1.764006E-15	1.602677E-17
6.460000E+03	1.778094E-15	1.619078E-17
6.470000E+03	1.793142E-15	1.637205E-17
6.480000E+03	1.809028E-15	1.656996E-17
6.490000E+03	1.825794E-15	1.678523E-17
6.500000E+03	1.843271E-15	1.701636E-17
6.510000E+03	1.861441E-15	1.726322E-17
6.520000E+03	1.880031E-15	1.752327E-17
6.530000E+03	1.898968E-15	1.779581E-17
6.540000E+03	1.917569E-15	1.807434E-17
6.550000E+03	1.935525E-15	1.835574E-17
6.560000E+03	1.952247E-15	1.863412E-17
6.570000E+03	1.967106E-15	1.890304E-17
6.580000E+03	1.979385E-15	1.915496E-17
6.590000E+03	1.988514E-15	1.938356E-17
6.600000E+03	1.994108E-15	1.958411E-17
6.610000E+03	1.995783E-15	1.975172E-17
6.620000E+03	1.993161E-15	1.988136E-17
6.630000E+03	1.986197E-15	1.997124E-17
6.640000E+03	1.974866E-15	2.001964E-17
6.650000E+03	1.959165E-15	2.002506E-17
6.660000E+03	1.939301E-15	1.998812E-17
6.670000E+03	1.915790E-15	1.991272E-17
6.680000E+03	1.888823E-15	1.979947E-17
6.690000E+03	1.858857E-15	1.965190E-17
6.700000E+03	1.826492E-15	1.947523E-17
6.710000E+03	1.792249E-15	1.927404E-17
6.720000E+03	1.756564E-15	1.905221E-17
6.730000E+03	1.720043E-15	1.881565E-17
6.740000E+03	1.683177E-15	1.856926E-17
6.750000E+03	1.646329E-15	1.831671E-17
6.760000E+03	1.609998E-15	1.806338E-17
6.770000E+03	1.574461E-15	1.781233E-17
6.780000E+03	1.540114E-15	1.756812E-17
6.790000E+03	1.507218E-15	1.733391E-17
6.800000E+03	1.475905E-15	1.711150E-17
6.810000E+03	1.446428E-15	1.690418E-17
6.820000E+03	1.418914E-15	1.671382E-17
6.830000E+03	1.393381E-15	1.654111E-17
6.840000E+03	1.369972E-15	1.638821E-17
6.850000E+03	1.348722E-15	1.625605E-17
6.860000E+03	1.329576E-15	1.614449E-17
6.870000E+03	1.312606E-15	1.605491E-17
6.880000E+03	1.297722E-15	1.598673E-17
6.890000E+03	1.284969E-15	1.594099E-17
6.900000E+03	1.274307E-15	1.591773E-17
6.910000E+03	1.265624E-15	1.591598E-17
6.920000E+03	1.258935E-15	1.593642E-17
6.930000E+03	1.254186E-15	1.597878E-17
6.940000E+03	1.251315E-15	1.604268E-17
6.950000E+03	1.250193E-15	1.612687E-17
6.960000E+03	1.250817E-15	1.623166E-17
6.970000E+03	1.253055E-15	1.635563E-17
6.980000E+03	1.256898E-15	1.649900E-17
6.990000E+03	1.262273E-15	1.666105E-17
7.000000E+03	1.269037E-15	1.684015E-17
7.010000E+03	1.277247E-15	1.703724E-17
7.020000E+03	1.286616E-15	1.724871E-17
7.030000E+03	1.297269E-15	1.747634E-17
7.040000E+03	1.308983E-15	1.771728E-17
7.050000E+03	1.321742E-15	1.797140E-17
7.060000E+03	1.335459E-15	1.823757E-17
7.070000E+03	1.349975E-15	1.851368E-17
7.080000E+03	1.365270E-15	1.879944E-17
7.090000E+03	1.381253E-15	1.909363E-17
7.100000E+03	1.397760E-15	1.939389E-17
7.110000E+03	1.414764E-15	1.969985E-17
7.120000E+03	1.432171E-15	2.001010E-17
7.130000E+03	1.449878E-15	2.032311E-17
7.140000E+03	1.467700E-15	2.063620E-17
7.150000E+03	1.485605E-15	2.094876E-17
7.160000E+03	1.503474E-15	2.125899E-17
7.170000E+03	1.521098E-15	2.156379E-17
7.180000E+03	1.538510E-15	2.186345E-17
7.190000E+03	1.555402E-15	2.215345E-17
7.200000E+03	1.571620E-15	2.243137E-17
7.210000E+03	1.587175E-15	2.269724E-17
7.220000E+03	1.601728E-15	2.294598E-17
7.230000E+03	1.615191E-15	2.317617E-17
7.240000E+03	1.627297E-15	2.338379E-17
7.250000E+03	1.638045E-15	2.356866E-17
7.260000E+03	1.647077E-15	2.372546E-17
7.270000E+03	1.654311E-15	2.385288E-17
7.280000E+03	1.659494E-15	2.394712E-17
7.290000E+03	1.662662E-15	2.400862E-17
7.300000E+03	1.663502E-15	2.403278E-17
7.310000E+03	1.661911E-15	2.401806E-17
7.320000E+03	1.657998E-15	2.396602E-17
7.330000E+03	1.651534E-15	2.387340E-17
7.340000E+03	1.642695E-15	2.374277E-17
7.350000E+03	1.631323E-15	2.357195E-17
7.360000E+03	1.617484E-15	2.336203E-17
7.370000E+03	1.601457E-15	2.311720E-17
7.380000E+03	1.583199E-15	2.283700E-17
7.390000E+03	1.562963E-15	2.252533E-17
7.400000E+03	1.540943E-15	2.218521E-17
7.410000E+03	1.517271E-15	2.181880E-17
7.420000E+03	1.492354E-15	2.143219E-17
7.430000E+03	1.466268E-15	2.102677E-17
7.440000E+03	1.439358E-15	2.060774E-17
7.450000E+03	1.411801E-15	2.017790E-17
7.460000E+03	1.384016E-15	1.974349E-17
7.470000E+03	1.356094E-15	1.930602E-17
7.480000E+03	1.328358E-15	1.887032E-17
7.490000E+03	1.301033E-15	1.843978E-17
7.500000E+03	1.274333E-15	1.801755E-17
7.510000E+03	1.248378E-15	1.760552E-17
7.520000E+03	1.223489E-15	1.720827E-17
7.530000E+03	1.199678E-15	1.682606E-17
7.540000E+03	1.177149E-15	1.646179E-17
7.550000E+03	1.155948E-15	1.611614E-17
7.560000E+03	1.136301E-15	1.579221E-17
7.570000E+03	1.118146E-15	1.548913E-17
7.580000E+03	1.101600E-15	1.520844E-17
7.590000E+03	1.086696E-15	1.495052E-17
7.600000E+03	1.073445E-15	1.471543E-17
7.610000E+03	1.061842E-15	1.450299E-17
7.620000E+03	1.051808E-15	1.431198E-17
7.630000E+03	1.043368E-15	1.414263E-17
7.640000E+03	1.036472E-15	1.399415E-17
7.650000E+03	1.031060E-15	1.386560E-17
7.660000E+03	1.027058E-15	1.375583E-17
7.670000E+03	1.024382E-15	1.366366E-17
7.680000E+03	1.022884E-15	1.358697E-17
7.690000E+03	1.022524E-15	1.352517E-17
7.700000E+03	1.023200E-15	1.347687E-17
7.710000E+03	1.024807E-15	1.344060E-17
7.720000E+03	1.027235E-15	1.341495E-17
7.730000E+03	1.030379E-15	1.339852E-17
7.740000E+03	1.034070E-15	1.338917E-17
7.750000E+03	1.038267E-15	1.338641E-17
7.760000E+03	1.042872E-15	1.338907E-17
