#wls	flux	fluxerr
1.600000E+03	9.434319E-16	3.475112E-16
1.640000E+03	1.128780E-15	3.910867E-16
1.680000E+03	1.353949E-15	4.369945E-16
1.720000E+03	1.627264E-15	4.835563E-16
1.760000E+03	1.957386E-15	5.278213E-16
1.800000E+03	2.353903E-15	5.655525E-16
1.840000E+03	2.826922E-15	5.909455E-16
1.880000E+03	3.385829E-15	5.963653E-16
1.920000E+03	4.039086E-15	5.726598E-16
1.960000E+03	4.793112E-15	5.097628E-16
2.000000E+03	5.649829E-15	3.981042E-16
2.040000E+03	6.601107E-15	2.327718E-16
2.080000E+03	7.568684E-15	7.469546E-17
2.120000E+03	8.331773E-15	2.437222E-16
2.160000E+03	8.954636E-15	3.990906E-16
2.200000E+03	9.437978E-15	4.810720E-16
2.240000E+03	9.724535E-15	5.212975E-16
2.280000E+03	9.763711E-15	5.945990E-16
2.320000E+03	9.545479E-15	6.978379E-16
2.360000E+03	9.103819E-15	7.689089E-16
2.400000E+03	8.492378E-15	7.749611E-16
2.440000E+03	7.778806E-15	7.117878E-16
2.480000E+03	7.042015E-15	5.926648E-16
2.520000E+03	6.370218E-15	4.379317E-16
2.560000E+03	5.861147E-15	2.651150E-16
2.600000E+03	5.556033E-15	8.151982E-17
2.640000E+03	5.217366E-15	1.259457E-16
2.680000E+03	4.928698E-15	2.931061E-16
2.720000E+03	4.810844E-15	4.445520E-16
2.760000E+03	4.777517E-15	5.828926E-16
2.800000E+03	4.761481E-15	7.037410E-16
2.840000E+03	4.728626E-15	8.013475E-16
2.880000E+03	4.664946E-15	8.714708E-16
2.920000E+03	4.568121E-15	9.123598E-16
2.960000E+03	4.441843E-15	9.246135E-16
3.000000E+03	4.292347E-15	9.105925E-16
3.010000E+03	4.252100E-15	9.033617E-16
3.020000E+03	4.210917E-15	8.947597E-16
3.030000E+03	4.168871E-15	8.848429E-16
3.040000E+03	4.126120E-15	8.736877E-16
3.050000E+03	4.082632E-15	8.613316E-16
3.060000E+03	4.038466E-15	8.478325E-16
3.070000E+03	3.993839E-15	8.332831E-16
3.080000E+03	3.948620E-15	8.177035E-16
3.090000E+03	3.903007E-15	8.011835E-16
3.100000E+03	3.856940E-15	7.837602E-16
3.110000E+03	3.810437E-15	7.654876E-16
3.120000E+03	3.763657E-15	7.464485E-16
3.130000E+03	3.716450E-15	7.266641E-16
3.140000E+03	3.668884E-15	7.062004E-16
3.150000E+03	3.620944E-15	6.851075E-16
3.160000E+03	3.572676E-15	6.634482E-16
3.170000E+03	3.523986E-15	6.412589E-16
3.180000E+03	3.474904E-15	6.186014E-16
3.190000E+03	3.425390E-15	5.955248E-16
3.200000E+03	3.375339E-15	5.720690E-16
3.210000E+03	3.324765E-15	5.482961E-16
3.220000E+03	3.273676E-15	5.242673E-16
3.230000E+03	3.221906E-15	5.000175E-16
3.240000E+03	3.169514E-15	4.756197E-16
3.250000E+03	3.116343E-15	4.511144E-16
3.260000E+03	3.062505E-15	4.265830E-16
3.270000E+03	3.007806E-15	4.020640E-16
3.280000E+03	2.952268E-15	3.776276E-16
3.290000E+03	2.895923E-15	3.533437E-16
3.300000E+03	2.838723E-15	3.292715E-16
3.310000E+03	2.780735E-15	3.054823E-16
3.320000E+03	2.721926E-15	2.820330E-16
3.330000E+03	2.662427E-15	2.589948E-16
3.340000E+03	2.602372E-15	2.364320E-16
3.350000E+03	2.541945E-15	2.144056E-16
3.360000E+03	2.481397E-15	1.929724E-16
3.370000E+03	2.421018E-15	1.721800E-16
3.380000E+03	2.361220E-15	1.520712E-16
3.390000E+03	2.302509E-15	1.326781E-16
3.400000E+03	2.245485E-15	1.140195E-16
3.410000E+03	2.190802E-15	9.609761E-17
3.420000E+03	2.139191E-15	7.890052E-17
3.430000E+03	2.091359E-15	6.240233E-17
3.440000E+03	2.047817E-15	4.657772E-17
3.450000E+03	2.008717E-15	3.146401E-17
3.460000E+03	1.973547E-15	1.747084E-17
3.470000E+03	1.941034E-15	8.450321E-18
3.480000E+03	1.910357E-15	1.525067E-17
3.490000E+03	1.882387E-15	2.658068E-17
3.500000E+03	1.858433E-15	3.750322E-17
3.510000E+03	1.839085E-15	4.755702E-17
3.520000E+03	1.824224E-15	5.674196E-17
3.530000E+03	1.813433E-15	6.513967E-17
3.540000E+03	1.806159E-15	7.284575E-17
3.550000E+03	1.801865E-15	7.995495E-17
3.560000E+03	1.800077E-15	8.655711E-17
3.570000E+03	1.800389E-15	9.273476E-17
3.580000E+03	1.802429E-15	9.855939E-17
3.590000E+03	1.805899E-15	1.040916E-16
3.600000E+03	1.810470E-15	1.093741E-16
3.610000E+03	1.815848E-15	1.144352E-16
3.620000E+03	1.821675E-15	1.192829E-16
3.630000E+03	1.827659E-15	1.239154E-16
3.640000E+03	1.833417E-15	1.283133E-16
3.650000E+03	1.838655E-15	1.324552E-16
3.660000E+03	1.843068E-15	1.363136E-16
3.670000E+03	1.846422E-15	1.398639E-16
3.680000E+03	1.848473E-15	1.430802E-16
3.690000E+03	1.849075E-15	1.459452E-16
3.700000E+03	1.848091E-15	1.484445E-16
3.710000E+03	1.845460E-15	1.505719E-16
3.720000E+03	1.841118E-15	1.523239E-16
3.730000E+03	1.835084E-15	1.537060E-16
3.740000E+03	1.827325E-15	1.547215E-16
3.750000E+03	1.817895E-15	1.553831E-16
3.760000E+03	1.806820E-15	1.557025E-16
3.770000E+03	1.794151E-15	1.556945E-16
3.780000E+03	1.779926E-15	1.553736E-16
3.790000E+03	1.764221E-15	1.547575E-16
3.800000E+03	1.747067E-15	1.538598E-16
3.810000E+03	1.728545E-15	1.526982E-16
3.820000E+03	1.708731E-15	1.512887E-16
3.830000E+03	1.687705E-15	1.496462E-16
3.840000E+03	1.665555E-15	1.477854E-16
3.850000E+03	1.642361E-15	1.457188E-16
3.860000E+03	1.618256E-15	1.434621E-16
3.870000E+03	1.593347E-15	1.410281E-16
3.880000E+03	1.567732E-15	1.384280E-16
3.890000E+03	1.541537E-15	1.356759E-16
3.900000E+03	1.514878E-15	1.327849E-16
3.910000E+03	1.487880E-15	1.297702E-16
3.920000E+03	1.460643E-15	1.266458E-16
3.930000E+03	1.433303E-15	1.234303E-16
3.940000E+03	1.405955E-15	1.201407E-16
3.950000E+03	1.378733E-15	1.167985E-16
3.960000E+03	1.351734E-15	1.134241E-16
3.970000E+03	1.325072E-15	1.100400E-16
3.980000E+03	1.298883E-15	1.066714E-16
3.990000E+03	1.273274E-15	1.033412E-16
4.000000E+03	1.248375E-15	1.000734E-16
4.010000E+03	1.224301E-15	9.688945E-17
4.020000E+03	1.201174E-15	9.380913E-17
4.030000E+03	1.179094E-15	9.084770E-17
4.040000E+03	1.158147E-15	8.801627E-17
4.050000E+03	1.138409E-15	8.532203E-17
4.060000E+03	1.119936E-15	8.276748E-17
4.070000E+03	1.102731E-15	8.034877E-17
4.080000E+03	1.086820E-15	7.806164E-17
4.090000E+03	1.072163E-15	7.589537E-17
4.100000E+03	1.058733E-15	7.383942E-17
4.110000E+03	1.046462E-15	7.187965E-17
4.120000E+03	1.035289E-15	7.000193E-17
4.130000E+03	1.025132E-15	6.819080E-17
4.140000E+03	1.015910E-15	6.643028E-17
4.150000E+03	1.007536E-15	6.470398E-17
4.160000E+03	9.999275E-16	6.299499E-17
4.170000E+03	9.930116E-16	6.128618E-17
4.180000E+03	9.867113E-16	5.955893E-17
4.190000E+03	9.809455E-16	5.779286E-17
4.200000E+03	9.756460E-16	5.596668E-17
4.210000E+03	9.707493E-16	5.405762E-17
4.220000E+03	9.662054E-16	5.204195E-17
4.230000E+03	9.619559E-16	4.989399E-17
4.240000E+03	9.579600E-16	4.758797E-17
4.250000E+03	9.541817E-16	4.509781E-17
4.260000E+03	9.506173E-16	4.239885E-17
4.270000E+03	9.472676E-16	3.946700E-17
4.280000E+03	9.441641E-16	3.628038E-17
4.290000E+03	9.413611E-16	3.281946E-17
4.300000E+03	9.389148E-16	2.906724E-17
4.310000E+03	9.369151E-16	2.501218E-17
4.320000E+03	9.353931E-16	2.064965E-17
4.330000E+03	9.343173E-16	1.599417E-17
4.340000E+03	9.334988E-16	1.111680E-17
4.350000E+03	9.325612E-16	6.342804E-18
4.360000E+03	9.309458E-16	3.859381E-18
4.370000E+03	9.283620E-16	7.072229E-18
4.380000E+03	9.250058E-16	1.174594E-17
4.390000E+03	9.212375E-16	1.631090E-17
4.400000E+03	9.172752E-16	2.052935E-17
4.410000E+03	9.131605E-16	2.435173E-17
4.420000E+03	9.088550E-16	2.777614E-17
4.430000E+03	9.042600E-16	3.081707E-17
4.440000E+03	8.993202E-16	3.349794E-17
4.450000E+03	8.939864E-16	3.584570E-17
4.460000E+03	8.882504E-16	3.788966E-17
4.470000E+03	8.821466E-16	3.966033E-17
4.480000E+03	8.756902E-16	4.118591E-17
4.490000E+03	8.689523E-16	4.249499E-17
4.500000E+03	8.619608E-16	4.361180E-17
4.510000E+03	8.547783E-16	4.455979E-17
4.520000E+03	8.474379E-16	4.535864E-17
4.530000E+03	8.399714E-16	4.602580E-17
4.540000E+03	8.324009E-16	4.657625E-17
4.550000E+03	8.247233E-16	4.702190E-17
4.560000E+03	8.169557E-16	4.737423E-17
4.570000E+03	8.090767E-16	4.764126E-17
4.580000E+03	8.010717E-16	4.783018E-17
4.590000E+03	7.929204E-16	4.794687E-17
4.600000E+03	7.845984E-16	4.799609E-17
4.610000E+03	7.760734E-16	4.798139E-17
4.620000E+03	7.673158E-16	4.790587E-17
4.630000E+03	7.583088E-16	4.777287E-17
4.640000E+03	7.490451E-16	4.758588E-17
4.650000E+03	7.395288E-16	4.734871E-17
4.660000E+03	7.297645E-16	4.706476E-17
4.670000E+03	7.197920E-16	4.673932E-17
4.680000E+03	7.096512E-16	4.637728E-17
4.690000E+03	6.993946E-16	4.598398E-17
4.700000E+03	6.890911E-16	4.556547E-17
4.710000E+03	6.788087E-16	4.512757E-17
4.720000E+03	6.686178E-16	4.467610E-17
4.730000E+03	6.585873E-16	4.421676E-17
4.740000E+03	6.487810E-16	4.375493E-17
4.750000E+03	6.392546E-16	4.329550E-17
4.760000E+03	6.300535E-16	4.284270E-17
4.770000E+03	6.212118E-16	4.239993E-17
4.780000E+03	6.127454E-16	4.196924E-17
4.790000E+03	6.046705E-16	4.155252E-17
4.800000E+03	5.969750E-16	4.114948E-17
4.810000E+03	5.896608E-16	4.076059E-17
4.820000E+03	5.826997E-16	4.038405E-17
4.830000E+03	5.760756E-16	4.001878E-17
4.840000E+03	5.697637E-16	3.966302E-17
4.850000E+03	5.637274E-16	3.931421E-17
4.860000E+03	5.579531E-16	3.897146E-17
4.870000E+03	5.524122E-16	3.863294E-17
4.880000E+03	5.470903E-16	3.829792E-17
4.890000E+03	5.419540E-16	3.796447E-17
4.900000E+03	5.370058E-16	3.763323E-17
4.910000E+03	5.322237E-16	3.730321E-17
4.920000E+03	5.276044E-16	3.697475E-17
4.930000E+03	5.231357E-16	3.664759E-17
4.940000E+03	5.188170E-16	3.632228E-17
4.950000E+03	5.146330E-16	3.599830E-17
4.960000E+03	5.105842E-16	3.567621E-17
4.970000E+03	5.066705E-16	3.535650E-17
4.980000E+03	5.028763E-16	3.503849E-17
4.990000E+03	4.991951E-16	3.472210E-17
5.000000E+03	4.956244E-16	3.440739E-17
5.010000E+03	4.921550E-16	3.409391E-17
5.020000E+03	4.887672E-16	3.378026E-17
5.030000E+03	4.854545E-16	3.346586E-17
5.040000E+03	4.822050E-16	3.314956E-17
5.050000E+03	4.790062E-16	3.282997E-17
5.060000E+03	4.758411E-16	3.250521E-17
5.070000E+03	4.726981E-16	3.217363E-17
5.080000E+03	4.695718E-16	3.183383E-17
5.090000E+03	4.664443E-16	3.148350E-17
5.100000E+03	4.633138E-16	3.112139E-17
5.110000E+03	4.601719E-16	3.074579E-17
5.120000E+03	4.570171E-16	3.035552E-17
5.130000E+03	4.538509E-16	2.994962E-17
5.140000E+03	4.506775E-16	2.952737E-17
5.150000E+03	4.474995E-16	2.908798E-17
5.160000E+03	4.443321E-16	2.863148E-17
5.170000E+03	4.411804E-16	2.815720E-17
5.180000E+03	4.380667E-16	2.766551E-17
5.190000E+03	4.350085E-16	2.715632E-17
5.200000E+03	4.320312E-16	2.662990E-17
5.210000E+03	4.291638E-16	2.608649E-17
5.220000E+03	4.264379E-16	2.552613E-17
5.230000E+03	4.238784E-16	2.494806E-17
5.240000E+03	4.215276E-16	2.435197E-17
5.250000E+03	4.194058E-16	2.373558E-17
5.260000E+03	4.175522E-16	2.309682E-17
5.270000E+03	4.159851E-16	2.243151E-17
5.280000E+03	4.147305E-16	2.173480E-17
5.290000E+03	4.137995E-16	2.099997E-17
5.300000E+03	4.131957E-16	2.021877E-17
5.310000E+03	4.129226E-16	1.938186E-17
5.320000E+03	4.129615E-16	1.847777E-17
5.330000E+03	4.132957E-16	1.749417E-17
5.340000E+03	4.138886E-16	1.641699E-17
5.350000E+03	4.146907E-16	1.523115E-17
5.360000E+03	4.156419E-16	1.392116E-17
5.370000E+03	4.166640E-16	1.247188E-17
5.380000E+03	4.176565E-16	1.087024E-17
5.390000E+03	4.184810E-16	9.108242E-18
5.400000E+03	4.189735E-16	7.190511E-18
5.410000E+03	4.189178E-16	5.153593E-18
5.420000E+03	4.180731E-16	3.152133E-18
5.430000E+03	4.162155E-16	1.993675E-18
5.440000E+03	4.132722E-16	3.074186E-18
5.450000E+03	4.093318E-16	4.996180E-18
5.460000E+03	4.046276E-16	6.919309E-18
5.470000E+03	3.993804E-16	8.687832E-18
5.480000E+03	3.937531E-16	1.026761E-17
5.490000E+03	3.878717E-16	1.165639E-17
5.500000E+03	3.818389E-16	1.286380E-17
5.510000E+03	3.757491E-16	1.390482E-17
5.520000E+03	3.696621E-16	1.479571E-17
5.530000E+03	3.636503E-16	1.555399E-17
5.540000E+03	3.577595E-16	1.619601E-17
5.550000E+03	3.520394E-16	1.673772E-17
5.560000E+03	3.465315E-16	1.719387E-17
5.570000E+03	3.412689E-16	1.757779E-17
5.580000E+03	3.362689E-16	1.790095E-17
5.590000E+03	3.315468E-16	1.817355E-17
5.600000E+03	3.271096E-16	1.840424E-17
5.610000E+03	3.229533E-16	1.859995E-17
5.620000E+03	3.190675E-16	1.876621E-17
5.630000E+03	3.154430E-16	1.890772E-17
5.640000E+03	3.120575E-16	1.902756E-17
5.650000E+03	3.088924E-16	1.912837E-17
5.660000E+03	3.059253E-16	1.921200E-17
5.670000E+03	3.031371E-16	1.928009E-17
5.680000E+03	3.005063E-16	1.933382E-17
5.690000E+03	2.980132E-16	1.937422E-17
5.700000E+03	2.956431E-16	1.940244E-17
5.710000E+03	2.933830E-16	1.941958E-17
5.720000E+03	2.912159E-16	1.942625E-17
5.730000E+03	2.891324E-16	1.942335E-17
5.740000E+03	2.871211E-16	1.941144E-17
5.750000E+03	2.851716E-16	1.939091E-17
5.760000E+03	2.832798E-16	1.936237E-17
5.770000E+03	2.814294E-16	1.932547E-17
5.780000E+03	2.796162E-16	1.928056E-17
5.790000E+03	2.778264E-16	1.922725E-17
5.800000E+03	2.760520E-16	1.916557E-17
5.810000E+03	2.742822E-16	1.909531E-17
5.820000E+03	2.725068E-16	1.901635E-17
5.830000E+03	2.707199E-16	1.892887E-17
5.840000E+03	2.689116E-16	1.883280E-17
5.850000E+03	2.670806E-16	1.872864E-17
5.860000E+03	2.652256E-16	1.861691E-17
5.870000E+03	2.633459E-16	1.849808E-17
5.880000E+03	2.614527E-16	1.837341E-17
5.890000E+03	2.595481E-16	1.824348E-17
5.900000E+03	2.576481E-16	1.810974E-17
5.910000E+03	2.557614E-16	1.797310E-17
5.920000E+03	2.538998E-16	1.783466E-17
5.930000E+03	2.520775E-16	1.769569E-17
5.940000E+03	2.502994E-16	1.755682E-17
5.950000E+03	2.485770E-16	1.741918E-17
5.960000E+03	2.469200E-16	1.728383E-17
5.970000E+03	2.453278E-16	1.715112E-17
5.980000E+03	2.438064E-16	1.702187E-17
5.990000E+03	2.423577E-16	1.689656E-17
6.000000E+03	2.409796E-16	1.677531E-17
6.010000E+03	2.396721E-16	1.665830E-17
6.020000E+03	2.384349E-16	1.654554E-17
6.030000E+03	2.372648E-16	1.643673E-17
6.040000E+03	2.361615E-16	1.633167E-17
6.050000E+03	2.351279E-16	1.623033E-17
6.060000E+03	2.341556E-16	1.613192E-17
6.070000E+03	2.332504E-16	1.603671E-17
6.080000E+03	2.324041E-16	1.594413E-17
6.090000E+03	2.316221E-16	1.585473E-17
6.100000E+03	2.308958E-16	1.576828E-17
6.110000E+03	2.302271E-16	1.568541E-17
6.120000E+03	2.296092E-16	1.560628E-17
6.130000E+03	2.290432E-16	1.553162E-17
6.140000E+03	2.285212E-16	1.546157E-17
6.150000E+03	2.280375E-16	1.539641E-17
6.160000E+03	2.275910E-16	1.533670E-17
6.170000E+03	2.271714E-16	1.528241E-17
6.180000E+03	2.267757E-16	1.523413E-17
6.190000E+03	2.263973E-16	1.519233E-17
6.200000E+03	2.260295E-16	1.515767E-17
6.210000E+03	2.256665E-16	1.513097E-17
6.220000E+03	2.253101E-16	1.511358E-17
6.230000E+03	2.249599E-16	1.510654E-17
6.240000E+03	2.246230E-16	1.511102E-17
6.250000E+03	2.243108E-16	1.512806E-17
6.260000E+03	2.240449E-16	1.515885E-17
6.270000E+03	2.238377E-16	1.520354E-17
6.280000E+03	2.237080E-16	1.526242E-17
6.290000E+03	2.236759E-16	1.533570E-17
6.300000E+03	2.237548E-16	1.542323E-17
6.310000E+03	2.239502E-16	1.552441E-17
6.320000E+03	2.242621E-16	1.563848E-17
6.330000E+03	2.246907E-16	1.576491E-17
6.340000E+03	2.252223E-16	1.590237E-17
6.350000E+03	2.258454E-16	1.604982E-17
6.360000E+03	2.265424E-16	1.620588E-17
6.370000E+03	2.272945E-16	1.636906E-17
6.380000E+03	2.280820E-16	1.653781E-17
6.390000E+03	2.288861E-16	1.671059E-17
6.400000E+03	2.296893E-16	1.688586E-17
6.410000E+03	2.304726E-16	1.706190E-17
6.420000E+03	2.312263E-16	1.723760E-17
6.430000E+03	2.319395E-16	1.741174E-17
6.440000E+03	2.326077E-16	1.758350E-17
6.450000E+03	2.332283E-16	1.775225E-17
6.460000E+03	2.337943E-16	1.791703E-17
6.470000E+03	2.343105E-16	1.807778E-17
6.480000E+03	2.347762E-16	1.823408E-17
6.490000E+03	2.351951E-16	1.838592E-17
6.500000E+03	2.355646E-16	1.853281E-17
6.510000E+03	2.358932E-16	1.867520E-17
6.520000E+03	2.361789E-16	1.881277E-17
6.530000E+03	2.364274E-16	1.894581E-17
6.540000E+03	2.366369E-16	1.907410E-17
6.550000E+03	2.368132E-16	1.919803E-17
6.560000E+03	2.369619E-16	1.931802E-17
6.570000E+03	2.370775E-16	1.943359E-17
6.580000E+03	2.371650E-16	1.954518E-17
6.590000E+03	2.372293E-16	1.965319E-17
6.600000E+03	2.372634E-16	1.975708E-17
6.610000E+03	2.372749E-16	1.985750E-17
6.620000E+03	2.372555E-16	1.995380E-17
6.630000E+03	2.372119E-16	2.004658E-17
6.640000E+03	2.371349E-16	2.013506E-17
6.650000E+03	2.370265E-16	2.021943E-17
6.660000E+03	2.368850E-16	2.029955E-17
6.670000E+03	2.367046E-16	2.037489E-17
6.680000E+03	2.364876E-16	2.044562E-17
6.690000E+03	2.362287E-16	2.051121E-17
6.700000E+03	2.359270E-16	2.057152E-17
6.710000E+03	2.355861E-16	2.062677E-17
6.720000E+03	2.352021E-16	2.067654E-17
6.730000E+03	2.347714E-16	2.072040E-17
6.740000E+03	2.343032E-16	2.075909E-17
6.750000E+03	2.337911E-16	2.079194E-17
6.760000E+03	2.332413E-16	2.081942E-17
6.770000E+03	2.326566E-16	2.084172E-17
6.780000E+03	2.320360E-16	2.085872E-17
6.790000E+03	2.313835E-16	2.087073E-17
6.800000E+03	2.307036E-16	2.087816E-17
6.810000E+03	2.300053E-16	2.088183E-17
6.820000E+03	2.292900E-16	2.088188E-17
6.830000E+03	2.285591E-16	2.087850E-17
6.840000E+03	2.278228E-16	2.087263E-17
6.850000E+03	2.270870E-16	2.086485E-17
6.860000E+03	2.263572E-16	2.085572E-17
6.870000E+03	2.256347E-16	2.084536E-17
6.880000E+03	2.249243E-16	2.083424E-17
6.890000E+03	2.242345E-16	2.082313E-17
6.900000E+03	2.235648E-16	2.081198E-17
6.910000E+03	2.229184E-16	2.080105E-17
6.920000E+03	2.222978E-16	2.079056E-17
6.930000E+03	2.217053E-16	2.078071E-17
6.940000E+03	2.211427E-16	2.077166E-17
6.950000E+03	2.206113E-16	2.076357E-17
6.960000E+03	2.201080E-16	2.075619E-17
6.970000E+03	2.196336E-16	2.074965E-17
6.980000E+03	2.191928E-16	2.074448E-17
6.990000E+03	2.187853E-16	2.074079E-17
7.000000E+03	2.184021E-16	2.073784E-17
7.010000E+03	2.180505E-16	2.073645E-17
7.020000E+03	2.177243E-16	2.073615E-17
7.030000E+03	2.174212E-16	2.073683E-17
7.040000E+03	2.171337E-16	2.073788E-17
7.050000E+03	2.168625E-16	2.073944E-17
7.060000E+03	2.166036E-16	2.074118E-17
7.070000E+03	2.163526E-16	2.074274E-17
7.080000E+03	2.161007E-16	2.074331E-17
7.090000E+03	2.158435E-16	2.074246E-17
7.100000E+03	2.155811E-16	2.074021E-17
7.110000E+03	2.153051E-16	2.073578E-17
7.120000E+03	2.150077E-16	2.072841E-17
7.130000E+03	2.146945E-16	2.071865E-17
7.140000E+03	2.143591E-16	2.070588E-17
7.150000E+03	2.139995E-16	2.068995E-17
7.160000E+03	2.136103E-16	2.067033E-17
7.170000E+03	2.131954E-16	2.064743E-17
7.180000E+03	2.127548E-16	2.062125E-17
7.190000E+03	2.122845E-16	2.059144E-17
7.200000E+03	2.117853E-16	2.055809E-17
7.210000E+03	2.112628E-16	2.052176E-17
7.220000E+03	2.107140E-16	2.048217E-17
7.230000E+03	2.101406E-16	2.043949E-17
7.240000E+03	2.095443E-16	2.039393E-17
7.250000E+03	2.089272E-16	2.034569E-17
7.260000E+03	2.082871E-16	2.029461E-17
7.270000E+03	2.076350E-16	2.024182E-17
7.280000E+03	2.069691E-16	2.018720E-17
7.290000E+03	2.062834E-16	2.013027E-17
7.300000E+03	2.055936E-16	2.007267E-17
7.310000E+03	2.048900E-16	2.001355E-17
7.320000E+03	2.041843E-16	1.995418E-17
7.330000E+03	2.034759E-16	1.989459E-17
7.340000E+03	2.027685E-16	1.983523E-17
7.350000E+03	2.020621E-16	1.977615E-17
7.360000E+03	2.013612E-16	1.971780E-17
7.370000E+03	2.006707E-16	1.966066E-17
7.380000E+03	1.999960E-16	1.960517E-17
7.390000E+03	1.993342E-16	1.955096E-17
7.400000E+03	1.986952E-16	1.949891E-17
7.410000E+03	1.980763E-16	1.944864E-17
7.420000E+03	1.974788E-16	1.940020E-17
7.430000E+03	1.969038E-16	1.935362E-17
7.440000E+03	1.963600E-16	1.930974E-17
7.450000E+03	1.958514E-16	1.926898E-17
7.460000E+03	1.953894E-16	1.923256E-17
7.470000E+03	1.949842E-16	1.920164E-17
7.480000E+03	1.946323E-16	1.917605E-17
7.490000E+03	1.943372E-16	1.915640E-17
7.500000E+03	1.941060E-16	1.914364E-17
7.510000E+03	1.939273E-16	1.913693E-17
7.520000E+03	1.938061E-16	1.913703E-17
7.530000E+03	1.937383E-16	1.914377E-17
7.540000E+03	1.937191E-16	1.915690E-17
7.550000E+03	1.937436E-16	1.917612E-17
7.560000E+03	1.938067E-16	1.920107E-17
7.570000E+03	1.939082E-16	1.923182E-17
7.580000E+03	1.940395E-16	1.926756E-17
7.590000E+03	1.942015E-16	1.930843E-17
7.600000E+03	1.943870E-16	1.935372E-17
7.610000E+03	1.945988E-16	1.940370E-17
7.620000E+03	1.948359E-16	1.945830E-17
7.630000E+03	1.950940E-16	1.951709E-17
7.640000E+03	1.953783E-16	1.958065E-17
7.650000E+03	1.956902E-16	1.964915E-17
7.660000E+03	1.960269E-16	1.972240E-17
7.670000E+03	1.963952E-16	1.980112E-17
7.680000E+03	1.967923E-16	1.988511E-17
7.690000E+03	1.972293E-16	1.997555E-17
7.700000E+03	1.976983E-16	2.007167E-17
7.710000E+03	1.982047E-16	2.017404E-17
7.720000E+03	1.987441E-16	2.028217E-17
7.730000E+03	1.993204E-16	2.039643E-17
7.740000E+03	1.999324E-16	2.051661E-17
7.750000E+03	2.005781E-16	2.064238E-17
7.760000E+03	2.012499E-16	2.077282E-17
