#wls	flux	fluxerr
1.600000E+03	1.119424E-17	5.619239E-18
1.640000E+03	1.098108E-17	5.448529E-18
1.680000E+03	1.083715E-17	5.311012E-18
1.720000E+03	1.077255E-17	5.210421E-18
1.760000E+03	1.080024E-17	5.151430E-18
1.800000E+03	1.093001E-17	5.136660E-18
1.840000E+03	1.117915E-17	5.171684E-18
1.880000E+03	1.156502E-17	5.261254E-18
1.920000E+03	1.211105E-17	5.411869E-18
1.960000E+03	1.284634E-17	5.631197E-18
2.000000E+03	1.380918E-17	5.929088E-18
2.040000E+03	1.504509E-17	6.316054E-18
2.080000E+03	1.661284E-17	6.804921E-18
2.120000E+03	1.858477E-17	7.409784E-18
2.160000E+03	2.104610E-17	8.144298E-18
2.200000E+03	2.409784E-17	9.021300E-18
2.240000E+03	2.785630E-17	1.005095E-17
2.280000E+03	3.245410E-17	1.123975E-17
2.320000E+03	3.802212E-17	1.258385E-17
2.360000E+03	4.468733E-17	1.407077E-17
2.400000E+03	5.254416E-17	1.567645E-17
2.440000E+03	6.163012E-17	1.737098E-17
2.480000E+03	7.189902E-17	1.913220E-17
2.520000E+03	8.318001E-17	2.096287E-17
2.560000E+03	9.511963E-17	2.290391E-17
2.600000E+03	1.072413E-16	2.505208E-17
2.640000E+03	1.189671E-16	2.750155E-17
2.680000E+03	1.297835E-16	3.025980E-17
2.720000E+03	1.393728E-16	3.321567E-17
2.760000E+03	1.475090E-16	3.616121E-17
2.800000E+03	1.541509E-16	3.888469E-17
2.840000E+03	1.593137E-16	4.119197E-17
2.880000E+03	1.630966E-16	4.294182E-17
2.920000E+03	1.656725E-16	4.405516E-17
2.960000E+03	1.672613E-16	4.450858E-17
3.000000E+03	1.681048E-16	4.432089E-17
3.010000E+03	1.682255E-16	4.417811E-17
3.020000E+03	1.683185E-16	4.399889E-17
3.030000E+03	1.683971E-16	4.378670E-17
3.040000E+03	1.684534E-16	4.353940E-17
3.050000E+03	1.684899E-16	4.325770E-17
3.060000E+03	1.685089E-16	4.294230E-17
3.070000E+03	1.685229E-16	4.259642E-17
3.080000E+03	1.685336E-16	4.222057E-17
3.090000E+03	1.685325E-16	4.181272E-17
3.100000E+03	1.685311E-16	4.137585E-17
3.110000E+03	1.685305E-16	4.091032E-17
3.120000E+03	1.685316E-16	4.041641E-17
3.130000E+03	1.685351E-16	3.989437E-17
3.140000E+03	1.685506E-16	3.934660E-17
3.150000E+03	1.685688E-16	3.877091E-17
3.160000E+03	1.685895E-16	3.816740E-17
3.170000E+03	1.686215E-16	3.753814E-17
3.180000E+03	1.686639E-16	3.688297E-17
3.190000E+03	1.687243E-16	3.620364E-17
3.200000E+03	1.687833E-16	3.549606E-17
3.210000E+03	1.688570E-16	3.476384E-17
3.220000E+03	1.689344E-16	3.400490E-17
3.230000E+03	1.690217E-16	3.322084E-17
3.240000E+03	1.691162E-16	3.241147E-17
3.250000E+03	1.692146E-16	3.157674E-17
3.260000E+03	1.693220E-16	3.071822E-17
3.270000E+03	1.694262E-16	2.983461E-17
3.280000E+03	1.695317E-16	2.892786E-17
3.290000E+03	1.696342E-16	2.799867E-17
3.300000E+03	1.697371E-16	2.704942E-17
3.310000E+03	1.698279E-16	2.608033E-17
3.320000E+03	1.699096E-16	2.509475E-17
3.330000E+03	1.699773E-16	2.409542E-17
3.340000E+03	1.700337E-16	2.308696E-17
3.350000E+03	1.700662E-16	2.207288E-17
3.360000E+03	1.700846E-16	2.106085E-17
3.370000E+03	1.700768E-16	2.005704E-17
3.380000E+03	1.700454E-16	1.907111E-17
3.390000E+03	1.699858E-16	1.811375E-17
3.400000E+03	1.699008E-16	1.719854E-17
3.410000E+03	1.697865E-16	1.634054E-17
3.420000E+03	1.696394E-16	1.555707E-17
3.430000E+03	1.694627E-16	1.486777E-17
3.440000E+03	1.692600E-16	1.429291E-17
3.450000E+03	1.690213E-16	1.385063E-17
3.460000E+03	1.687564E-16	1.355740E-17
3.470000E+03	1.684551E-16	1.342229E-17
3.480000E+03	1.681258E-16	1.344812E-17
3.490000E+03	1.677694E-16	1.362874E-17
3.500000E+03	1.673691E-16	1.394910E-17
3.510000E+03	1.669369E-16	1.439120E-17
3.520000E+03	1.664616E-16	1.493231E-17
3.530000E+03	1.659436E-16	1.555027E-17
3.540000E+03	1.653726E-16	1.622311E-17
3.550000E+03	1.647555E-16	1.693254E-17
3.560000E+03	1.640730E-16	1.766014E-17
3.570000E+03	1.633233E-16	1.839158E-17
3.580000E+03	1.625101E-16	1.911545E-17
3.590000E+03	1.616185E-16	1.982015E-17
3.600000E+03	1.606541E-16	2.049818E-17
3.610000E+03	1.596094E-16	2.114184E-17
3.620000E+03	1.584917E-16	2.174660E-17
3.630000E+03	1.572953E-16	2.230726E-17
3.640000E+03	1.560204E-16	2.282026E-17
3.650000E+03	1.546722E-16	2.328351E-17
3.660000E+03	1.532562E-16	2.369574E-17
3.670000E+03	1.517706E-16	2.405510E-17
3.680000E+03	1.502224E-16	2.436162E-17
3.690000E+03	1.486153E-16	2.461522E-17
3.700000E+03	1.469569E-16	2.481693E-17
3.710000E+03	1.452519E-16	2.496761E-17
3.720000E+03	1.435085E-16	2.506907E-17
3.730000E+03	1.417353E-16	2.512344E-17
3.740000E+03	1.399344E-16	2.513195E-17
3.750000E+03	1.381150E-16	2.509726E-17
3.760000E+03	1.362859E-16	2.502219E-17
3.770000E+03	1.344590E-16	2.491024E-17
3.780000E+03	1.326344E-16	2.476288E-17
3.790000E+03	1.308240E-16	2.458379E-17
3.800000E+03	1.290337E-16	2.437568E-17
3.810000E+03	1.272750E-16	2.414228E-17
3.820000E+03	1.255510E-16	2.388579E-17
3.830000E+03	1.238728E-16	2.360990E-17
3.840000E+03	1.222458E-16	2.331724E-17
3.850000E+03	1.206759E-16	2.301043E-17
3.860000E+03	1.191731E-16	2.269288E-17
3.870000E+03	1.177428E-16	2.236701E-17
3.880000E+03	1.163901E-16	2.203515E-17
3.890000E+03	1.151246E-16	2.170032E-17
3.900000E+03	1.139510E-16	2.136459E-17
3.910000E+03	1.128743E-16	2.102991E-17
3.920000E+03	1.119031E-16	2.069886E-17
3.930000E+03	1.110421E-16	2.037308E-17
3.940000E+03	1.102956E-16	2.005410E-17
3.950000E+03	1.096719E-16	1.974397E-17
3.960000E+03	1.091752E-16	1.944389E-17
3.970000E+03	1.088115E-16	1.915523E-17
3.980000E+03	1.085849E-16	1.887887E-17
3.990000E+03	1.085009E-16	1.861586E-17
4.000000E+03	1.085653E-16	1.836704E-17
4.010000E+03	1.087833E-16	1.813308E-17
4.020000E+03	1.091567E-16	1.791391E-17
4.030000E+03	1.096941E-16	1.771041E-17
4.040000E+03	1.103966E-16	1.752215E-17
4.050000E+03	1.112690E-16	1.734910E-17
4.060000E+03	1.123154E-16	1.719103E-17
4.070000E+03	1.135398E-16	1.704751E-17
4.080000E+03	1.149441E-16	1.691769E-17
4.090000E+03	1.165315E-16	1.680081E-17
4.100000E+03	1.183047E-16	1.669590E-17
4.110000E+03	1.202627E-16	1.660137E-17
4.120000E+03	1.224107E-16	1.651638E-17
4.130000E+03	1.247484E-16	1.643923E-17
4.140000E+03	1.272749E-16	1.636806E-17
4.150000E+03	1.299903E-16	1.630110E-17
4.160000E+03	1.328926E-16	1.623621E-17
4.170000E+03	1.359828E-16	1.617159E-17
4.180000E+03	1.392598E-16	1.610509E-17
4.190000E+03	1.427180E-16	1.603408E-17
4.200000E+03	1.463572E-16	1.595657E-17
4.210000E+03	1.501731E-16	1.587016E-17
4.220000E+03	1.541646E-16	1.577299E-17
4.230000E+03	1.583249E-16	1.566278E-17
4.240000E+03	1.626546E-16	1.553841E-17
4.250000E+03	1.671458E-16	1.539842E-17
4.260000E+03	1.717991E-16	1.524284E-17
4.270000E+03	1.766058E-16	1.507185E-17
4.280000E+03	1.815632E-16	1.488743E-17
4.290000E+03	1.866684E-16	1.469314E-17
4.300000E+03	1.919129E-16	1.449411E-17
4.310000E+03	1.972948E-16	1.429836E-17
4.320000E+03	2.028014E-16	1.411590E-17
4.330000E+03	2.084340E-16	1.396069E-17
4.340000E+03	2.141784E-16	1.384842E-17
4.350000E+03	2.200299E-16	1.379772E-17
4.360000E+03	2.259840E-16	1.382828E-17
4.370000E+03	2.320339E-16	1.395898E-17
4.380000E+03	2.381729E-16	1.420586E-17
4.390000E+03	2.443975E-16	1.458024E-17
4.400000E+03	2.507073E-16	1.508737E-17
4.410000E+03	2.570924E-16	1.572537E-17
4.420000E+03	2.635475E-16	1.648680E-17
4.430000E+03	2.700593E-16	1.735947E-17
4.440000E+03	2.766115E-16	1.832841E-17
4.450000E+03	2.831849E-16	1.937746E-17
4.460000E+03	2.897569E-16	2.049034E-17
4.470000E+03	2.963021E-16	2.165141E-17
4.480000E+03	3.027884E-16	2.284586E-17
4.490000E+03	3.091850E-16	2.406028E-17
4.500000E+03	3.154561E-16	2.528228E-17
4.510000E+03	3.215722E-16	2.650125E-17
4.520000E+03	3.274973E-16	2.770721E-17
4.530000E+03	3.331927E-16	2.889097E-17
4.540000E+03	3.386336E-16	3.004540E-17
4.550000E+03	3.437911E-16	3.116381E-17
4.560000E+03	3.486408E-16	3.224058E-17
4.570000E+03	3.531637E-16	3.327116E-17
4.580000E+03	3.573501E-16	3.425238E-17
4.590000E+03	3.611889E-16	3.518140E-17
4.600000E+03	3.646867E-16	3.605751E-17
4.610000E+03	3.678405E-16	3.687935E-17
4.620000E+03	3.706685E-16	3.764802E-17
4.630000E+03	3.731816E-16	3.836416E-17
4.640000E+03	3.753988E-16	3.902944E-17
4.650000E+03	3.773419E-16	3.964600E-17
4.660000E+03	3.790387E-16	4.021682E-17
4.670000E+03	3.805135E-16	4.074465E-17
4.680000E+03	3.817902E-16	4.123231E-17
4.690000E+03	3.828874E-16	4.168212E-17
4.700000E+03	3.838375E-16	4.209803E-17
4.710000E+03	3.846535E-16	4.248191E-17
4.720000E+03	3.853569E-16	4.283662E-17
4.730000E+03	3.859569E-16	4.316367E-17
4.740000E+03	3.864664E-16	4.346499E-17
4.750000E+03	3.868977E-16	4.374246E-17
4.760000E+03	3.872505E-16	4.399649E-17
4.770000E+03	3.875285E-16	4.422790E-17
4.780000E+03	3.877314E-16	4.443705E-17
4.790000E+03	3.878477E-16	4.462292E-17
4.800000E+03	3.878714E-16	4.478506E-17
4.810000E+03	3.877864E-16	4.492188E-17
4.820000E+03	3.875843E-16	4.503256E-17
4.830000E+03	3.872402E-16	4.511438E-17
4.840000E+03	3.867507E-16	4.516710E-17
4.850000E+03	3.860983E-16	4.518882E-17
4.860000E+03	3.852722E-16	4.517845E-17
4.870000E+03	3.842692E-16	4.513579E-17
4.880000E+03	3.830824E-16	4.506020E-17
4.890000E+03	3.817172E-16	4.495252E-17
4.900000E+03	3.801797E-16	4.481365E-17
4.910000E+03	3.784805E-16	4.464504E-17
4.920000E+03	3.766309E-16	4.444815E-17
4.930000E+03	3.746536E-16	4.422582E-17
4.940000E+03	3.725708E-16	4.398077E-17
4.950000E+03	3.704072E-16	4.371595E-17
4.960000E+03	3.681894E-16	4.343451E-17
4.970000E+03	3.659410E-16	4.313917E-17
4.980000E+03	3.636973E-16	4.283398E-17
4.990000E+03	3.614815E-16	4.252147E-17
5.000000E+03	3.593157E-16	4.220401E-17
5.010000E+03	3.572311E-16	4.188494E-17
5.020000E+03	3.552458E-16	4.156597E-17
5.030000E+03	3.533750E-16	4.124842E-17
5.040000E+03	3.516420E-16	4.093446E-17
5.050000E+03	3.500561E-16	4.062456E-17
5.060000E+03	3.486310E-16	4.031960E-17
5.070000E+03	3.473666E-16	4.001877E-17
5.080000E+03	3.462707E-16	3.972215E-17
5.090000E+03	3.453485E-16	3.942939E-17
5.100000E+03	3.445957E-16	3.913901E-17
5.110000E+03	3.440094E-16	3.884965E-17
5.120000E+03	3.435880E-16	3.856004E-17
5.130000E+03	3.433179E-16	3.826755E-17
5.140000E+03	3.431977E-16	3.797086E-17
5.150000E+03	3.432139E-16	3.766734E-17
5.160000E+03	3.433551E-16	3.735460E-17
5.170000E+03	3.436087E-16	3.703010E-17
5.180000E+03	3.439606E-16	3.669122E-17
5.190000E+03	3.443957E-16	3.633522E-17
5.200000E+03	3.449012E-16	3.595967E-17
5.210000E+03	3.454528E-16	3.556100E-17
5.220000E+03	3.460361E-16	3.513671E-17
5.230000E+03	3.466323E-16	3.468393E-17
5.240000E+03	3.472222E-16	3.419984E-17
5.250000E+03	3.477829E-16	3.368134E-17
5.260000E+03	3.482983E-16	3.312617E-17
5.270000E+03	3.487491E-16	3.253189E-17
5.280000E+03	3.491130E-16	3.189600E-17
5.290000E+03	3.493719E-16	3.121669E-17
5.300000E+03	3.495122E-16	3.049291E-17
5.310000E+03	3.495117E-16	2.972325E-17
5.320000E+03	3.493641E-16	2.890823E-17
5.330000E+03	3.490521E-16	2.804811E-17
5.340000E+03	3.485726E-16	2.714508E-17
5.350000E+03	3.479234E-16	2.620233E-17
5.360000E+03	3.471043E-16	2.522433E-17
5.370000E+03	3.461253E-16	2.421760E-17
5.380000E+03	3.450036E-16	2.319072E-17
5.390000E+03	3.437686E-16	2.215479E-17
5.400000E+03	3.424484E-16	2.112282E-17
5.410000E+03	3.410909E-16	2.011135E-17
5.420000E+03	3.397467E-16	1.913957E-17
5.430000E+03	3.384820E-16	1.823027E-17
5.440000E+03	3.373631E-16	1.740899E-17
5.450000E+03	3.364634E-16	1.670408E-17
5.460000E+03	3.358560E-16	1.614517E-17
5.470000E+03	3.356075E-16	1.576080E-17
5.480000E+03	3.357714E-16	1.557483E-17
5.490000E+03	3.363786E-16	1.560231E-17
5.500000E+03	3.374459E-16	1.584703E-17
5.510000E+03	3.389507E-16	1.629961E-17
5.520000E+03	3.408535E-16	1.694020E-17
5.530000E+03	3.431023E-16	1.774217E-17
5.540000E+03	3.456223E-16	1.867518E-17
5.550000E+03	3.483319E-16	1.970883E-17
5.560000E+03	3.511597E-16	2.081541E-17
5.570000E+03	3.540306E-16	2.196987E-17
5.580000E+03	3.568693E-16	2.315014E-17
5.590000E+03	3.596268E-16	2.433852E-17
5.600000E+03	3.622460E-16	2.551924E-17
5.610000E+03	3.646904E-16	2.667991E-17
5.620000E+03	3.669298E-16	2.781030E-17
5.630000E+03	3.689430E-16	2.890224E-17
5.640000E+03	3.707171E-16	2.994936E-17
5.650000E+03	3.722501E-16	3.094715E-17
5.660000E+03	3.735424E-16	3.189216E-17
5.670000E+03	3.745957E-16	3.278169E-17
5.680000E+03	3.754230E-16	3.361467E-17
5.690000E+03	3.760404E-16	3.439081E-17
5.700000E+03	3.764548E-16	3.510942E-17
5.710000E+03	3.766855E-16	3.577132E-17
5.720000E+03	3.767530E-16	3.637776E-17
5.730000E+03	3.766701E-16	3.692954E-17
5.740000E+03	3.764573E-16	3.742841E-17
5.750000E+03	3.761308E-16	3.787590E-17
5.760000E+03	3.757024E-16	3.827320E-17
5.770000E+03	3.751909E-16	3.862236E-17
5.780000E+03	3.746109E-16	3.892504E-17
5.790000E+03	3.739759E-16	3.918290E-17
5.800000E+03	3.732989E-16	3.939757E-17
5.810000E+03	3.725924E-16	3.957061E-17
5.820000E+03	3.718681E-16	3.970356E-17
5.830000E+03	3.711374E-16	3.979787E-17
5.840000E+03	3.704147E-16	3.985533E-17
5.850000E+03	3.697063E-16	3.987681E-17
5.860000E+03	3.690217E-16	3.986347E-17
5.870000E+03	3.683732E-16	3.981675E-17
5.880000E+03	3.677650E-16	3.973712E-17
5.890000E+03	3.672076E-16	3.962569E-17
5.900000E+03	3.667029E-16	3.948255E-17
5.910000E+03	3.662554E-16	3.930799E-17
5.920000E+03	3.658721E-16	3.910250E-17
5.930000E+03	3.655511E-16	3.886547E-17
5.940000E+03	3.652927E-16	3.859648E-17
5.950000E+03	3.651000E-16	3.829528E-17
5.960000E+03	3.649669E-16	3.796056E-17
5.970000E+03	3.648902E-16	3.759120E-17
5.980000E+03	3.648697E-16	3.718629E-17
5.990000E+03	3.648925E-16	3.674355E-17
6.000000E+03	3.649572E-16	3.626179E-17
6.010000E+03	3.650582E-16	3.573929E-17
6.020000E+03	3.651903E-16	3.517433E-17
6.030000E+03	3.653444E-16	3.456479E-17
6.040000E+03	3.655164E-16	3.390900E-17
6.050000E+03	3.657071E-16	3.320580E-17
6.060000E+03	3.659067E-16	3.245307E-17
6.070000E+03	3.661225E-16	3.165042E-17
6.080000E+03	3.663475E-16	3.079641E-17
6.090000E+03	3.665840E-16	2.989077E-17
6.100000E+03	3.668395E-16	2.893421E-17
6.110000E+03	3.671147E-16	2.792769E-17
6.120000E+03	3.674190E-16	2.687397E-17
6.130000E+03	3.677539E-16	2.577690E-17
6.140000E+03	3.681249E-16	2.464293E-17
6.150000E+03	3.685450E-16	2.348214E-17
6.160000E+03	3.690181E-16	2.230826E-17
6.170000E+03	3.695506E-16	2.114076E-17
6.180000E+03	3.701433E-16	2.000592E-17
6.190000E+03	3.707951E-16	1.893842E-17
6.200000E+03	3.715078E-16	1.798225E-17
6.210000E+03	3.722739E-16	1.718893E-17
6.220000E+03	3.730946E-16	1.661407E-17
6.230000E+03	3.739594E-16	1.630810E-17
6.240000E+03	3.748775E-16	1.630678E-17
6.250000E+03	3.758440E-16	1.662053E-17
6.260000E+03	3.768744E-16	1.723337E-17
6.270000E+03	3.779783E-16	1.810743E-17
6.280000E+03	3.791578E-16	1.919307E-17
6.290000E+03	3.804368E-16	2.044014E-17
6.300000E+03	3.818120E-16	2.180206E-17
6.310000E+03	3.833041E-16	2.324131E-17
6.320000E+03	3.849087E-16	2.472723E-17
6.330000E+03	3.866321E-16	2.623714E-17
6.340000E+03	3.884725E-16	2.775397E-17
6.350000E+03	3.904210E-16	2.926492E-17
6.360000E+03	3.924749E-16	3.076125E-17
6.370000E+03	3.946153E-16	3.223574E-17
6.380000E+03	3.968354E-16	3.368401E-17
6.390000E+03	3.991173E-16	3.510225E-17
6.400000E+03	4.014419E-16	3.648746E-17
6.410000E+03	4.037941E-16	3.783768E-17
6.420000E+03	4.061485E-16	3.915042E-17
6.430000E+03	4.084841E-16	4.042384E-17
6.440000E+03	4.107847E-16	4.165673E-17
6.450000E+03	4.130196E-16	4.284646E-17
6.460000E+03	4.151830E-16	4.399300E-17
6.470000E+03	4.172500E-16	4.509429E-17
6.480000E+03	4.192113E-16	4.614995E-17
6.490000E+03	4.210586E-16	4.715970E-17
6.500000E+03	4.227849E-16	4.812339E-17
6.510000E+03	4.243841E-16	4.904099E-17
6.520000E+03	4.258513E-16	4.991259E-17
6.530000E+03	4.271828E-16	5.073842E-17
6.540000E+03	4.283705E-16	5.151817E-17
6.550000E+03	4.294130E-16	5.225226E-17
6.560000E+03	4.303044E-16	5.294059E-17
6.570000E+03	4.310506E-16	5.358450E-17
6.580000E+03	4.316426E-16	5.418344E-17
6.590000E+03	4.320829E-16	5.473827E-17
6.600000E+03	4.323752E-16	5.525003E-17
6.610000E+03	4.325129E-16	5.571842E-17
6.620000E+03	4.325014E-16	5.614465E-17
6.630000E+03	4.323417E-16	5.652931E-17
6.640000E+03	4.320406E-16	5.687385E-17
6.650000E+03	4.315949E-16	5.717829E-17
6.660000E+03	4.310074E-16	5.744346E-17
6.670000E+03	4.302930E-16	5.767182E-17
6.680000E+03	4.294442E-16	5.786280E-17
6.690000E+03	4.284712E-16	5.801821E-17
6.700000E+03	4.273842E-16	5.813987E-17
6.710000E+03	4.261826E-16	5.822809E-17
6.720000E+03	4.248710E-16	5.828395E-17
6.730000E+03	4.234545E-16	5.830851E-17
6.740000E+03	4.219435E-16	5.830363E-17
6.750000E+03	4.203424E-16	5.827031E-17
6.760000E+03	4.186497E-16	5.820871E-17
6.770000E+03	4.168690E-16	5.811973E-17
6.780000E+03	4.150152E-16	5.800582E-17
6.790000E+03	4.130795E-16	5.786613E-17
6.800000E+03	4.110643E-16	5.770135E-17
6.810000E+03	4.089832E-16	5.751375E-17
6.820000E+03	4.068263E-16	5.730227E-17
6.830000E+03	4.046006E-16	5.706827E-17
6.840000E+03	4.023018E-16	5.681143E-17
6.850000E+03	3.999423E-16	5.653386E-17
6.860000E+03	3.975118E-16	5.623439E-17
6.870000E+03	3.950174E-16	5.591435E-17
6.880000E+03	3.924606E-16	5.557423E-17
6.890000E+03	3.898375E-16	5.521378E-17
6.900000E+03	3.871562E-16	5.483442E-17
6.910000E+03	3.844193E-16	5.443683E-17
6.920000E+03	3.816244E-16	5.402092E-17
6.930000E+03	3.787809E-16	5.358832E-17
6.940000E+03	3.758931E-16	5.313989E-17
6.950000E+03	3.729600E-16	5.267577E-17
6.960000E+03	3.699926E-16	5.219777E-17
6.970000E+03	3.669964E-16	5.170691E-17
6.980000E+03	3.639717E-16	5.120350E-17
6.990000E+03	3.609249E-16	5.068867E-17
7.000000E+03	3.578680E-16	5.016431E-17
7.010000E+03	3.548078E-16	4.963156E-17
7.020000E+03	3.517401E-16	4.909004E-17
7.030000E+03	3.486829E-16	4.854240E-17
7.040000E+03	3.456433E-16	4.798975E-17
7.050000E+03	3.426180E-16	4.743170E-17
7.060000E+03	3.396250E-16	4.687080E-17
7.070000E+03	3.366664E-16	4.630737E-17
7.080000E+03	3.337498E-16	4.574241E-17
7.090000E+03	3.308882E-16	4.517762E-17
7.100000E+03	3.280786E-16	4.461249E-17
7.110000E+03	3.253392E-16	4.404931E-17
7.120000E+03	3.226670E-16	4.348748E-17
7.130000E+03	3.200796E-16	4.292912E-17
7.140000E+03	3.175735E-16	4.237348E-17
7.150000E+03	3.151604E-16	4.182176E-17
7.160000E+03	3.128508E-16	4.127505E-17
7.170000E+03	3.106396E-16	4.073224E-17
7.180000E+03	3.085357E-16	4.019412E-17
7.190000E+03	3.065419E-16	3.966063E-17
7.200000E+03	3.046596E-16	3.913152E-17
7.210000E+03	3.028890E-16	3.860637E-17
7.220000E+03	3.012236E-16	3.808394E-17
7.230000E+03	2.996706E-16	3.756470E-17
7.240000E+03	2.982156E-16	3.704644E-17
7.250000E+03	2.968580E-16	3.652863E-17
7.260000E+03	2.955903E-16	3.600999E-17
7.270000E+03	2.944043E-16	3.548909E-17
7.280000E+03	2.932905E-16	3.496440E-17
7.290000E+03	2.922383E-16	3.443430E-17
7.300000E+03	2.912320E-16	3.389657E-17
7.310000E+03	2.902700E-16	3.335068E-17
7.320000E+03	2.893361E-16	3.279439E-17
7.330000E+03	2.884140E-16	3.222555E-17
7.340000E+03	2.875033E-16	3.164374E-17
7.350000E+03	2.865891E-16	3.104700E-17
7.360000E+03	2.856630E-16	3.043404E-17
7.370000E+03	2.847179E-16	2.980371E-17
7.380000E+03	2.837482E-16	2.915503E-17
7.390000E+03	2.827551E-16	2.848765E-17
7.400000E+03	2.817318E-16	2.780037E-17
7.410000E+03	2.806883E-16	2.709358E-17
7.420000E+03	2.796167E-16	2.636589E-17
7.430000E+03	2.785306E-16	2.561795E-17
7.440000E+03	2.774355E-16	2.484956E-17
7.450000E+03	2.763386E-16	2.406073E-17
7.460000E+03	2.752383E-16	2.325084E-17
7.470000E+03	2.741440E-16	2.242052E-17
7.480000E+03	2.730706E-16	2.157125E-17
7.490000E+03	2.720188E-16	2.070396E-17
7.500000E+03	2.710088E-16	1.982211E-17
7.510000E+03	2.700409E-16	1.892897E-17
7.520000E+03	2.691246E-16	1.803043E-17
7.530000E+03	2.682684E-16	1.713490E-17
7.540000E+03	2.674842E-16	1.625432E-17
7.550000E+03	2.667732E-16	1.540422E-17
7.560000E+03	2.661397E-16	1.460537E-17
7.570000E+03	2.655865E-16	1.388393E-17
7.580000E+03	2.651150E-16	1.327093E-17
7.590000E+03	2.647254E-16	1.280012E-17
7.600000E+03	2.644119E-16	1.250350E-17
7.610000E+03	2.641775E-16	1.240608E-17
7.620000E+03	2.640202E-16	1.251933E-17
7.630000E+03	2.639372E-16	1.283850E-17
7.640000E+03	2.639255E-16	1.334406E-17
7.650000E+03	2.639767E-16	1.400637E-17
7.660000E+03	2.640866E-16	1.479223E-17
7.670000E+03	2.642601E-16	1.566997E-17
7.680000E+03	2.644818E-16	1.661058E-17
7.690000E+03	2.647448E-16	1.759038E-17
7.700000E+03	2.650465E-16	1.859076E-17
7.710000E+03	2.653782E-16	1.959700E-17
7.720000E+03	2.657254E-16	2.059738E-17
7.730000E+03	2.660776E-16	2.158323E-17
7.740000E+03	2.664286E-16	2.254835E-17
7.750000E+03	2.667668E-16	2.348774E-17
7.760000E+03	2.670748E-16	2.439710E-17
