#wls	flux	fluxerr
1.600000E+03	8.227672E-18	4.281677E-18
1.640000E+03	8.191927E-18	4.227576E-18
1.680000E+03	8.204361E-18	4.196221E-18
1.720000E+03	8.269183E-18	4.188946E-18
1.760000E+03	8.394279E-18	4.208735E-18
1.800000E+03	8.587300E-18	4.258148E-18
1.840000E+03	8.858775E-18	4.340810E-18
1.880000E+03	9.221139E-18	4.460803E-18
1.920000E+03	9.687626E-18	4.622004E-18
1.960000E+03	1.027738E-17	4.830376E-18
2.000000E+03	1.100978E-17	5.091023E-18
2.040000E+03	1.190964E-17	5.410431E-18
2.080000E+03	1.300826E-17	5.796570E-18
2.120000E+03	1.433804E-17	6.256125E-18
2.160000E+03	1.594542E-17	6.799861E-18
2.200000E+03	1.787104E-17	7.433620E-18
2.240000E+03	2.016653E-17	8.165547E-18
2.280000E+03	2.287692E-17	8.998953E-18
2.320000E+03	2.604690E-17	9.935938E-18
2.360000E+03	2.970906E-17	1.097450E-17
2.400000E+03	3.388844E-17	1.211305E-17
2.440000E+03	3.857390E-17	1.334373E-17
2.480000E+03	4.373624E-17	1.466337E-17
2.520000E+03	4.929959E-17	1.606672E-17
2.560000E+03	5.515532E-17	1.755176E-17
2.600000E+03	6.117131E-17	1.911767E-17
2.640000E+03	6.717802E-17	2.075047E-17
2.680000E+03	7.303747E-17	2.243231E-17
2.720000E+03	7.861070E-17	2.412206E-17
2.760000E+03	8.382588E-17	2.577409E-17
2.800000E+03	8.862566E-17	2.732664E-17
2.840000E+03	9.300705E-17	2.872227E-17
2.880000E+03	9.694344E-17	2.989202E-17
2.920000E+03	1.004671E-16	3.078718E-17
2.960000E+03	1.035885E-16	3.135839E-17
3.000000E+03	1.063890E-16	3.158550E-17
3.010000E+03	1.070439E-16	3.158549E-17
3.020000E+03	1.076759E-16	3.156029E-17
3.030000E+03	1.083038E-16	3.151494E-17
3.040000E+03	1.089100E-16	3.144384E-17
3.050000E+03	1.095042E-16	3.134936E-17
3.060000E+03	1.100867E-16	3.123119E-17
3.070000E+03	1.106579E-16	3.108906E-17
3.080000E+03	1.112091E-16	3.092017E-17
3.090000E+03	1.117584E-16	3.072922E-17
3.100000E+03	1.122968E-16	3.051341E-17
3.110000E+03	1.128244E-16	3.027241E-17
3.120000E+03	1.133409E-16	3.000594E-17
3.130000E+03	1.138547E-16	2.971597E-17
3.140000E+03	1.143479E-16	2.939757E-17
3.150000E+03	1.148461E-16	2.905721E-17
3.160000E+03	1.153224E-16	2.868786E-17
3.170000E+03	1.158018E-16	2.829571E-17
3.180000E+03	1.162661E-16	2.787614E-17
3.190000E+03	1.167139E-16	2.742891E-17
3.200000E+03	1.171611E-16	2.695781E-17
3.210000E+03	1.175973E-16	2.646050E-17
3.220000E+03	1.180209E-16	2.593678E-17
3.230000E+03	1.184298E-16	2.538654E-17
3.240000E+03	1.188220E-16	2.480975E-17
3.250000E+03	1.192033E-16	2.420821E-17
3.260000E+03	1.195630E-16	2.358034E-17
3.270000E+03	1.199148E-16	2.292972E-17
3.280000E+03	1.202393E-16	2.225357E-17
3.290000E+03	1.205497E-16	2.155567E-17
3.300000E+03	1.208344E-16	2.083542E-17
3.310000E+03	1.210979E-16	2.009546E-17
3.320000E+03	1.213284E-16	1.933607E-17
3.330000E+03	1.215378E-16	1.856189E-17
3.340000E+03	1.217140E-16	1.777423E-17
3.350000E+03	1.218525E-16	1.697646E-17
3.360000E+03	1.219642E-16	1.617485E-17
3.370000E+03	1.220364E-16	1.537340E-17
3.380000E+03	1.220640E-16	1.457856E-17
3.390000E+03	1.220494E-16	1.379918E-17
3.400000E+03	1.219943E-16	1.304577E-17
3.410000E+03	1.218927E-16	1.233009E-17
3.420000E+03	1.217387E-16	1.166632E-17
3.430000E+03	1.215332E-16	1.107171E-17
3.440000E+03	1.212696E-16	1.056475E-17
3.450000E+03	1.209483E-16	1.016542E-17
3.460000E+03	1.205690E-16	9.892570E-18
3.470000E+03	1.201180E-16	9.760185E-18
3.480000E+03	1.196094E-16	9.776079E-18
3.490000E+03	1.190447E-16	9.929920E-18
3.500000E+03	1.184280E-16	1.020272E-17
3.510000E+03	1.177690E-16	1.057300E-17
3.520000E+03	1.170709E-16	1.101850E-17
3.530000E+03	1.163541E-16	1.152036E-17
3.540000E+03	1.156092E-16	1.205963E-17
3.550000E+03	1.148442E-16	1.262197E-17
3.560000E+03	1.140610E-16	1.319526E-17
3.570000E+03	1.132618E-16	1.376979E-17
3.580000E+03	1.124485E-16	1.433793E-17
3.590000E+03	1.116180E-16	1.489301E-17
3.600000E+03	1.107729E-16	1.543040E-17
3.610000E+03	1.099108E-16	1.594584E-17
3.620000E+03	1.090391E-16	1.643737E-17
3.630000E+03	1.081559E-16	1.690237E-17
3.640000E+03	1.072642E-16	1.733952E-17
3.650000E+03	1.063583E-16	1.774659E-17
3.660000E+03	1.054503E-16	1.812459E-17
3.670000E+03	1.045352E-16	1.847207E-17
3.680000E+03	1.036166E-16	1.878931E-17
3.690000E+03	1.026946E-16	1.907612E-17
3.700000E+03	1.017768E-16	1.933399E-17
3.710000E+03	1.008633E-16	1.956316E-17
3.720000E+03	9.995472E-17	1.976408E-17
3.730000E+03	9.905516E-17	1.993803E-17
3.740000E+03	9.816881E-17	2.008639E-17
3.750000E+03	9.729657E-17	2.020999E-17
3.760000E+03	9.644270E-17	2.031041E-17
3.770000E+03	9.561137E-17	2.038928E-17
3.780000E+03	9.480375E-17	2.044764E-17
3.790000E+03	9.402405E-17	2.048720E-17
3.800000E+03	9.327362E-17	2.050907E-17
3.810000E+03	9.255668E-17	2.051501E-17
3.820000E+03	9.187732E-17	2.050674E-17
3.830000E+03	9.123696E-17	2.048538E-17
3.840000E+03	9.063965E-17	2.045261E-17
3.850000E+03	9.008689E-17	2.040951E-17
3.860000E+03	8.958267E-17	2.035768E-17
3.870000E+03	8.913087E-17	2.029867E-17
3.880000E+03	8.873295E-17	2.023340E-17
3.890000E+03	8.839272E-17	2.016329E-17
3.900000E+03	8.811169E-17	2.008915E-17
3.910000E+03	8.789358E-17	2.001224E-17
3.920000E+03	8.774202E-17	1.993371E-17
3.930000E+03	8.765849E-17	1.985414E-17
3.940000E+03	8.764451E-17	1.977404E-17
3.950000E+03	8.770565E-17	1.969474E-17
3.960000E+03	8.784336E-17	1.961653E-17
3.970000E+03	8.805910E-17	1.953961E-17
3.980000E+03	8.835629E-17	1.946454E-17
3.990000E+03	8.873638E-17	1.939128E-17
4.000000E+03	8.920461E-17	1.932055E-17
4.010000E+03	8.976232E-17	1.925207E-17
4.020000E+03	9.041084E-17	1.918544E-17
4.030000E+03	9.115148E-17	1.912015E-17
4.040000E+03	9.199105E-17	1.905670E-17
4.050000E+03	9.292698E-17	1.899349E-17
4.060000E+03	9.396405E-17	1.893031E-17
4.070000E+03	9.510321E-17	1.886603E-17
4.080000E+03	9.634714E-17	1.879970E-17
4.090000E+03	9.769835E-17	1.873018E-17
4.100000E+03	9.915737E-17	1.865582E-17
4.110000E+03	1.007263E-16	1.857510E-17
4.120000E+03	1.024053E-16	1.848596E-17
4.130000E+03	1.041960E-16	1.838651E-17
4.140000E+03	1.060997E-16	1.827460E-17
4.150000E+03	1.081176E-16	1.814791E-17
4.160000E+03	1.102482E-16	1.800358E-17
4.170000E+03	1.124920E-16	1.783886E-17
4.180000E+03	1.148506E-16	1.765111E-17
4.190000E+03	1.173193E-16	1.743661E-17
4.200000E+03	1.198988E-16	1.719237E-17
4.210000E+03	1.225850E-16	1.691472E-17
4.220000E+03	1.253774E-16	1.660043E-17
4.230000E+03	1.282725E-16	1.624599E-17
4.240000E+03	1.312640E-16	1.584767E-17
4.250000E+03	1.343508E-16	1.540267E-17
4.260000E+03	1.375226E-16	1.490752E-17
4.270000E+03	1.407765E-16	1.436023E-17
4.280000E+03	1.441043E-16	1.375913E-17
4.290000E+03	1.474965E-16	1.310381E-17
4.300000E+03	1.509446E-16	1.239595E-17
4.310000E+03	1.544367E-16	1.163984E-17
4.320000E+03	1.579617E-16	1.084423E-17
4.330000E+03	1.615048E-16	1.002431E-17
4.340000E+03	1.650571E-16	9.205786E-18
4.350000E+03	1.685959E-16	8.428919E-18
4.360000E+03	1.721097E-16	7.756276E-18
4.370000E+03	1.755794E-16	7.274612E-18
4.380000E+03	1.789957E-16	7.085368E-18
4.390000E+03	1.823448E-16	7.274634E-18
4.400000E+03	1.856235E-16	7.850155E-18
4.410000E+03	1.888319E-16	8.742687E-18
4.420000E+03	1.919702E-16	9.867473E-18
4.430000E+03	1.950362E-16	1.115165E-17
4.440000E+03	1.980360E-16	1.254156E-17
4.450000E+03	2.009646E-16	1.399880E-17
4.460000E+03	2.038171E-16	1.549627E-17
4.470000E+03	2.065912E-16	1.701459E-17
4.480000E+03	2.092850E-16	1.853949E-17
4.490000E+03	2.118849E-16	2.005908E-17
4.500000E+03	2.143947E-16	2.156529E-17
4.510000E+03	2.168012E-16	2.305009E-17
4.520000E+03	2.191086E-16	2.450842E-17
4.530000E+03	2.213071E-16	2.593465E-17
4.540000E+03	2.233931E-16	2.732450E-17
4.550000E+03	2.253661E-16	2.867467E-17
4.560000E+03	2.272234E-16	2.998209E-17
4.570000E+03	2.289599E-16	3.124373E-17
4.580000E+03	2.305795E-16	3.245818E-17
4.590000E+03	2.320783E-16	3.362324E-17
4.600000E+03	2.334585E-16	3.473789E-17
4.610000E+03	2.347199E-16	3.580102E-17
4.620000E+03	2.358629E-16	3.681181E-17
4.630000E+03	2.368911E-16	3.777018E-17
4.640000E+03	2.378087E-16	3.867633E-17
4.650000E+03	2.386171E-16	3.953021E-17
4.660000E+03	2.393236E-16	4.033291E-17
4.670000E+03	2.399273E-16	4.108427E-17
4.680000E+03	2.404357E-16	4.178569E-17
4.690000E+03	2.408536E-16	4.243822E-17
4.700000E+03	2.411885E-16	4.304351E-17
4.710000E+03	2.414420E-16	4.360222E-17
4.720000E+03	2.416241E-16	4.411660E-17
4.730000E+03	2.417358E-16	4.458737E-17
4.740000E+03	2.417865E-16	4.501678E-17
4.750000E+03	2.417795E-16	4.540603E-17
4.760000E+03	2.417208E-16	4.575680E-17
4.770000E+03	2.416158E-16	4.607073E-17
4.780000E+03	2.414697E-16	4.634943E-17
4.790000E+03	2.412847E-16	4.659388E-17
4.800000E+03	2.410629E-16	4.680506E-17
4.810000E+03	2.408059E-16	4.698387E-17
4.820000E+03	2.405130E-16	4.713065E-17
4.830000E+03	2.401832E-16	4.724573E-17
4.840000E+03	2.398158E-16	4.732941E-17
4.850000E+03	2.394180E-16	4.738358E-17
4.860000E+03	2.389841E-16	4.740751E-17
4.870000E+03	2.385216E-16	4.740310E-17
4.880000E+03	2.380280E-16	4.737017E-17
4.890000E+03	2.375086E-16	4.731016E-17
4.900000E+03	2.369639E-16	4.722347E-17
4.910000E+03	2.364000E-16	4.711157E-17
4.920000E+03	2.358203E-16	4.697542E-17
4.930000E+03	2.352261E-16	4.681550E-17
4.940000E+03	2.346240E-16	4.663330E-17
4.950000E+03	2.340182E-16	4.642981E-17
4.960000E+03	2.334104E-16	4.620548E-17
4.970000E+03	2.328101E-16	4.596225E-17
4.980000E+03	2.322164E-16	4.570001E-17
4.990000E+03	2.316387E-16	4.542058E-17
5.000000E+03	2.310786E-16	4.512423E-17
5.010000E+03	2.305427E-16	4.481209E-17
5.020000E+03	2.300323E-16	4.448428E-17
5.030000E+03	2.295532E-16	4.414172E-17
5.040000E+03	2.291064E-16	4.378430E-17
5.050000E+03	2.286995E-16	4.341317E-17
5.060000E+03	2.283325E-16	4.302793E-17
5.070000E+03	2.280076E-16	4.262856E-17
5.080000E+03	2.277264E-16	4.221486E-17
5.090000E+03	2.274925E-16	4.178697E-17
5.100000E+03	2.273044E-16	4.134396E-17
5.110000E+03	2.271648E-16	4.088570E-17
5.120000E+03	2.270736E-16	4.041146E-17
5.130000E+03	2.270281E-16	3.991998E-17
5.140000E+03	2.270320E-16	3.941113E-17
5.150000E+03	2.270796E-16	3.888304E-17
5.160000E+03	2.271739E-16	3.833535E-17
5.170000E+03	2.273107E-16	3.776644E-17
5.180000E+03	2.274881E-16	3.717499E-17
5.190000E+03	2.277035E-16	3.655963E-17
5.200000E+03	2.279568E-16	3.591932E-17
5.210000E+03	2.282431E-16	3.525222E-17
5.220000E+03	2.285596E-16	3.455685E-17
5.230000E+03	2.289058E-16	3.383208E-17
5.240000E+03	2.292789E-16	3.307638E-17
5.250000E+03	2.296739E-16	3.228791E-17
5.260000E+03	2.300880E-16	3.146521E-17
5.270000E+03	2.305212E-16	3.060713E-17
5.280000E+03	2.309710E-16	2.971223E-17
5.290000E+03	2.314329E-16	2.877880E-17
5.300000E+03	2.319073E-16	2.780578E-17
5.310000E+03	2.323901E-16	2.679156E-17
5.320000E+03	2.328796E-16	2.573487E-17
5.330000E+03	2.333768E-16	2.463476E-17
5.340000E+03	2.338779E-16	2.348980E-17
5.350000E+03	2.343838E-16	2.229914E-17
5.360000E+03	2.348906E-16	2.106154E-17
5.370000E+03	2.353965E-16	1.977618E-17
5.380000E+03	2.359015E-16	1.844259E-17
5.390000E+03	2.363977E-16	1.706006E-17
5.400000E+03	2.368859E-16	1.562907E-17
5.410000E+03	2.373583E-16	1.415021E-17
5.420000E+03	2.378056E-16	1.262522E-17
5.430000E+03	2.382237E-16	1.105793E-17
5.440000E+03	2.386028E-16	9.452950E-18
5.450000E+03	2.389446E-16	7.813496E-18
5.460000E+03	2.392571E-16	6.154972E-18
5.470000E+03	2.395424E-16	4.533673E-18
5.480000E+03	2.397975E-16	3.150739E-18
5.490000E+03	2.400202E-16	2.648429E-18
5.500000E+03	2.402099E-16	3.542523E-18
5.510000E+03	2.403795E-16	5.116465E-18
5.520000E+03	2.405470E-16	6.877166E-18
5.530000E+03	2.407224E-16	8.675607E-18
5.540000E+03	2.409199E-16	1.046211E-17
5.550000E+03	2.411436E-16	1.221631E-17
5.560000E+03	2.413976E-16	1.392876E-17
5.570000E+03	2.416859E-16	1.559483E-17
5.580000E+03	2.420064E-16	1.721190E-17
5.590000E+03	2.423599E-16	1.877881E-17
5.600000E+03	2.427436E-16	2.029487E-17
5.610000E+03	2.431566E-16	2.175993E-17
5.620000E+03	2.435921E-16	2.317358E-17
5.630000E+03	2.440458E-16	2.453565E-17
5.640000E+03	2.445154E-16	2.584624E-17
5.650000E+03	2.449938E-16	2.710495E-17
5.660000E+03	2.454793E-16	2.831189E-17
5.670000E+03	2.459676E-16	2.946687E-17
5.680000E+03	2.464553E-16	3.056975E-17
5.690000E+03	2.469392E-16	3.162036E-17
5.700000E+03	2.474167E-16	3.261855E-17
5.710000E+03	2.478856E-16	3.356421E-17
5.720000E+03	2.483444E-16	3.445726E-17
5.730000E+03	2.487920E-16	3.529765E-17
5.740000E+03	2.492304E-16	3.608574E-17
5.750000E+03	2.496544E-16	3.682085E-17
5.760000E+03	2.500694E-16	3.750380E-17
5.770000E+03	2.504761E-16	3.813469E-17
5.780000E+03	2.508705E-16	3.871292E-17
5.790000E+03	2.512588E-16	3.923938E-17
5.800000E+03	2.516400E-16	3.971385E-17
5.810000E+03	2.520184E-16	4.013688E-17
5.820000E+03	2.523933E-16	4.050820E-17
5.830000E+03	2.527639E-16	4.082751E-17
5.840000E+03	2.531373E-16	4.109568E-17
5.850000E+03	2.535129E-16	4.131231E-17
5.860000E+03	2.538926E-16	4.147736E-17
5.870000E+03	2.542782E-16	4.159071E-17
5.880000E+03	2.546716E-16	4.165215E-17
5.890000E+03	2.550718E-16	4.166096E-17
5.900000E+03	2.554829E-16	4.161718E-17
5.910000E+03	2.559036E-16	4.151988E-17
5.920000E+03	2.563377E-16	4.136887E-17
5.930000E+03	2.567810E-16	4.116261E-17
5.940000E+03	2.572396E-16	4.090110E-17
5.950000E+03	2.577088E-16	4.058255E-17
5.960000E+03	2.581919E-16	4.020633E-17
5.970000E+03	2.586837E-16	3.977045E-17
5.980000E+03	2.591898E-16	3.927447E-17
5.990000E+03	2.597075E-16	3.871659E-17
6.000000E+03	2.602368E-16	3.809536E-17
6.010000E+03	2.607747E-16	3.740883E-17
6.020000E+03	2.613210E-16	3.665541E-17
6.030000E+03	2.618779E-16	3.583378E-17
6.040000E+03	2.624398E-16	3.494147E-17
6.050000E+03	2.630090E-16	3.397709E-17
6.060000E+03	2.635850E-16	3.293885E-17
6.070000E+03	2.641648E-16	3.182461E-17
6.080000E+03	2.647509E-16	3.063293E-17
6.090000E+03	2.653430E-16	2.936207E-17
6.100000E+03	2.659383E-16	2.801006E-17
6.110000E+03	2.665395E-16	2.657565E-17
6.120000E+03	2.671470E-16	2.505743E-17
6.130000E+03	2.677583E-16	2.345403E-17
6.140000E+03	2.683795E-16	2.176517E-17
6.150000E+03	2.690088E-16	1.999034E-17
6.160000E+03	2.696529E-16	1.813058E-17
6.170000E+03	2.703048E-16	1.618729E-17
6.180000E+03	2.709776E-16	1.416563E-17
6.190000E+03	2.716651E-16	1.207423E-17
6.200000E+03	2.723756E-16	9.932376E-18
6.210000E+03	2.731094E-16	7.783153E-18
6.220000E+03	2.738729E-16	5.739713E-18
6.230000E+03	2.746644E-16	4.144320E-18
6.240000E+03	2.754885E-16	3.834964E-18
6.250000E+03	2.763495E-16	5.117538E-18
6.260000E+03	2.772403E-16	7.138552E-18
6.270000E+03	2.781566E-16	9.390797E-18
6.280000E+03	2.790943E-16	1.170543E-17
6.290000E+03	2.800467E-16	1.402066E-17
6.300000E+03	2.810133E-16	1.630987E-17
6.310000E+03	2.819846E-16	1.855942E-17
6.320000E+03	2.829635E-16	2.076242E-17
6.330000E+03	2.839437E-16	2.291448E-17
6.340000E+03	2.849189E-16	2.501279E-17
6.350000E+03	2.858922E-16	2.705633E-17
6.360000E+03	2.868508E-16	2.904328E-17
6.370000E+03	2.878008E-16	3.097399E-17
6.380000E+03	2.887292E-16	3.284716E-17
6.390000E+03	2.896387E-16	3.466331E-17
6.400000E+03	2.905224E-16	3.642200E-17
6.410000E+03	2.913795E-16	3.812366E-17
6.420000E+03	2.922028E-16	3.976791E-17
6.430000E+03	2.929915E-16	4.135527E-17
6.440000E+03	2.937447E-16	4.288632E-17
6.450000E+03	2.944616E-16	4.436171E-17
6.460000E+03	2.951448E-16	4.578269E-17
6.470000E+03	2.957903E-16	4.714953E-17
6.480000E+03	2.964044E-16	4.846419E-17
6.490000E+03	2.969766E-16	4.972591E-17
6.500000E+03	2.975031E-16	5.093498E-17
6.510000E+03	2.979769E-16	5.209109E-17
6.520000E+03	2.983944E-16	5.319445E-17
6.530000E+03	2.987524E-16	5.424529E-17
6.540000E+03	2.990512E-16	5.524450E-17
6.550000E+03	2.992843E-16	5.619172E-17
6.560000E+03	2.994491E-16	5.708720E-17
6.570000E+03	2.995537E-16	5.793331E-17
6.580000E+03	2.995853E-16	5.872838E-17
6.590000E+03	2.995528E-16	5.947490E-17
6.600000E+03	2.994510E-16	6.017263E-17
6.610000E+03	2.992785E-16	6.082205E-17
6.620000E+03	2.990414E-16	6.142518E-17
6.630000E+03	2.987317E-16	6.198113E-17
6.640000E+03	2.983597E-16	6.249277E-17
6.650000E+03	2.979178E-16	6.295925E-17
6.660000E+03	2.974133E-16	6.338284E-17
6.670000E+03	2.968427E-16	6.376349E-17
6.680000E+03	2.962099E-16	6.410276E-17
6.690000E+03	2.955154E-16	6.440146E-17
6.700000E+03	2.947600E-16	6.466043E-17
6.710000E+03	2.939445E-16	6.488050E-17
6.720000E+03	2.930699E-16	6.506253E-17
6.730000E+03	2.921447E-16	6.520906E-17
6.740000E+03	2.911590E-16	6.531849E-17
6.750000E+03	2.901253E-16	6.539422E-17
6.760000E+03	2.890412E-16	6.543632E-17
6.770000E+03	2.879045E-16	6.544485E-17
6.780000E+03	2.867242E-16	6.542241E-17
6.790000E+03	2.854983E-16	6.536907E-17
6.800000E+03	2.842283E-16	6.528571E-17
6.810000E+03	2.829198E-16	6.517411E-17
6.820000E+03	2.815707E-16	6.503431E-17
6.830000E+03	2.801831E-16	6.486720E-17
6.840000E+03	2.787624E-16	6.467453E-17
6.850000E+03	2.773106E-16	6.445720E-17
6.860000E+03	2.758261E-16	6.421523E-17
6.870000E+03	2.743146E-16	6.395037E-17
6.880000E+03	2.727747E-16	6.366265E-17
6.890000E+03	2.712121E-16	6.335381E-17
6.900000E+03	2.696256E-16	6.302388E-17
6.910000E+03	2.680248E-16	6.267544E-17
6.920000E+03	2.664013E-16	6.230684E-17
6.930000E+03	2.647684E-16	6.192148E-17
6.940000E+03	2.631214E-16	6.151855E-17
6.950000E+03	2.614668E-16	6.109978E-17
6.960000E+03	2.598034E-16	6.066518E-17
6.970000E+03	2.581379E-16	6.021644E-17
6.980000E+03	2.564692E-16	5.975360E-17
6.990000E+03	2.548040E-16	5.927829E-17
7.000000E+03	2.531415E-16	5.879051E-17
7.010000E+03	2.514881E-16	5.829188E-17
7.020000E+03	2.498433E-16	5.778233E-17
7.030000E+03	2.482134E-16	5.726343E-17
7.040000E+03	2.465978E-16	5.673505E-17
7.050000E+03	2.449994E-16	5.619787E-17
7.060000E+03	2.434209E-16	5.565251E-17
7.070000E+03	2.418651E-16	5.509956E-17
7.080000E+03	2.403346E-16	5.453952E-17
7.090000E+03	2.388319E-16	5.397286E-17
7.100000E+03	2.373595E-16	5.339999E-17
7.110000E+03	2.359196E-16	5.282123E-17
7.120000E+03	2.345142E-16	5.223683E-17
7.130000E+03	2.331421E-16	5.164624E-17
7.140000E+03	2.318049E-16	5.104959E-17
7.150000E+03	2.305077E-16	5.044762E-17
7.160000E+03	2.292483E-16	4.983954E-17
7.170000E+03	2.280280E-16	4.922523E-17
7.180000E+03	2.268476E-16	4.860444E-17
7.190000E+03	2.257079E-16	4.797685E-17
7.200000E+03	2.246059E-16	4.734136E-17
7.210000E+03	2.235453E-16	4.669816E-17
7.220000E+03	2.225227E-16	4.604600E-17
7.230000E+03	2.215378E-16	4.538421E-17
7.240000E+03	2.205903E-16	4.471206E-17
7.250000E+03	2.196794E-16	4.402874E-17
7.260000E+03	2.188045E-16	4.333334E-17
7.270000E+03	2.179581E-16	4.262368E-17
7.280000E+03	2.171456E-16	4.190002E-17
7.290000E+03	2.163594E-16	4.116008E-17
7.300000E+03	2.156015E-16	4.040340E-17
7.310000E+03	2.148707E-16	3.962887E-17
7.320000E+03	2.141593E-16	3.883418E-17
7.330000E+03	2.134692E-16	3.801878E-17
7.340000E+03	2.127963E-16	3.718098E-17
7.350000E+03	2.121393E-16	3.631963E-17
7.360000E+03	2.114973E-16	3.543361E-17
7.370000E+03	2.108663E-16	3.452129E-17
7.380000E+03	2.102487E-16	3.358211E-17
7.390000E+03	2.096378E-16	3.261402E-17
7.400000E+03	2.090361E-16	3.161652E-17
7.410000E+03	2.084372E-16	3.058774E-17
7.420000E+03	2.078471E-16	2.952777E-17
7.430000E+03	2.072628E-16	2.843536E-17
7.440000E+03	2.066844E-16	2.730984E-17
7.450000E+03	2.061119E-16	2.615067E-17
7.460000E+03	2.055487E-16	2.495789E-17
7.470000E+03	2.049886E-16	2.373059E-17
7.480000E+03	2.044382E-16	2.246974E-17
7.490000E+03	2.038943E-16	2.117561E-17
7.500000E+03	2.033599E-16	1.984979E-17
7.510000E+03	2.028381E-16	1.849468E-17
7.520000E+03	2.023251E-16	1.711337E-17
7.530000E+03	2.018234E-16	1.571143E-17
7.540000E+03	2.013320E-16	1.429703E-17
7.550000E+03	2.008527E-16	1.288311E-17
7.560000E+03	2.003807E-16	1.148951E-17
7.570000E+03	1.999170E-16	1.014847E-17
7.580000E+03	1.994591E-16	8.911645E-18
7.590000E+03	1.990042E-16	7.860780E-18
7.600000E+03	1.985487E-16	7.114883E-18
7.610000E+03	1.980921E-16	6.812007E-18
7.620000E+03	1.976309E-16	7.032867E-18
7.630000E+03	1.971661E-16	7.706950E-18
7.640000E+03	1.966965E-16	8.694384E-18
7.650000E+03	1.962294E-16	9.871006E-18
7.660000E+03	1.957595E-16	1.115003E-17
7.670000E+03	1.952935E-16	1.247706E-17
7.680000E+03	1.948280E-16	1.381807E-17
7.690000E+03	1.943657E-16	1.515217E-17
7.700000E+03	1.938996E-16	1.646549E-17
7.710000E+03	1.934377E-16	1.775015E-17
7.720000E+03	1.929692E-16	1.899971E-17
7.730000E+03	1.924985E-16	2.021103E-17
7.740000E+03	1.920174E-16	2.138102E-17
7.750000E+03	1.915300E-16	2.250880E-17
7.760000E+03	1.910340E-16	2.359342E-17
