#wls	flux	fluxerr
1.574958E+03	4.006100E-05	1.220713E-08
1.614332E+03	4.128671E-05	1.258062E-08
1.653706E+03	4.221709E-05	1.286412E-08
1.693080E+03	4.281418E-05	1.304606E-08
1.732454E+03	4.305405E-05	1.311915E-08
1.771828E+03	4.284592E-05	1.305574E-08
1.811202E+03	4.207754E-05	1.282160E-08
1.850576E+03	4.065617E-05	1.238849E-08
1.889950E+03	3.851760E-05	1.173684E-08
1.929324E+03	3.569055E-05	1.087540E-08
1.968698E+03	3.237512E-05	9.865140E-09
2.008072E+03	2.897388E-05	8.828735E-09
2.047446E+03	2.607228E-05	7.944577E-09
2.086820E+03	2.426535E-05	7.393979E-09
2.126194E+03	2.396885E-05	7.303634E-09
2.165567E+03	2.535571E-05	7.726229E-09
2.204941E+03	2.836451E-05	8.643048E-09
2.244315E+03	3.276534E-05	9.984040E-09
2.283689E+03	3.822555E-05	1.164784E-08
2.323063E+03	4.440684E-05	1.353136E-08
2.362437E+03	5.101563E-05	1.554515E-08
2.401811E+03	5.787755E-05	1.763607E-08
2.441185E+03	6.486504E-05	1.976525E-08
2.480559E+03	7.195158E-05	2.192461E-08
2.519933E+03	7.915111E-05	2.411840E-08
2.559307E+03	8.649610E-05	2.635652E-08
2.598681E+03	9.406157E-05	2.866181E-08
2.638055E+03	1.018958E-04	3.104901E-08
2.677429E+03	1.101074E-04	3.355120E-08
2.716803E+03	1.187705E-04	3.619095E-08
2.756177E+03	1.279765E-04	3.899614E-08
2.795551E+03	1.378376E-04	4.200095E-08
2.834925E+03	1.484547E-04	4.523611E-08
2.874299E+03	1.599498E-04	4.873882E-08
2.913673E+03	1.724495E-04	5.254763E-08
2.953047E+03	1.860831E-04	5.670194E-08
2.962890E+03	1.896636E-04	5.779298E-08
2.972734E+03	1.933525E-04	5.891704E-08
2.982577E+03	1.971100E-04	6.006200E-08
2.992421E+03	2.009660E-04	6.123697E-08
3.002264E+03	2.049287E-04	6.244444E-08
3.012107E+03	2.090726E-04	6.370713E-08
3.021951E+03	2.133498E-04	6.501044E-08
3.031794E+03	2.177765E-04	6.635932E-08
3.041638E+03	2.223483E-04	6.775241E-08
3.051481E+03	2.270608E-04	6.918838E-08
3.061325E+03	2.319099E-04	7.066595E-08
3.071168E+03	2.368916E-04	7.218394E-08
3.081012E+03	2.420021E-04	7.374116E-08
3.090855E+03	2.472375E-04	7.533646E-08
3.100699E+03	2.526182E-04	7.697602E-08
3.110542E+03	2.581171E-04	7.865161E-08
3.120386E+03	2.637064E-04	8.035472E-08
3.130229E+03	2.694557E-04	8.210661E-08
3.140073E+03	2.752882E-04	8.388386E-08
3.149916E+03	2.812754E-04	8.570822E-08
3.159760E+03	2.873386E-04	8.755577E-08
3.169603E+03	2.935251E-04	8.944087E-08
3.179447E+03	2.998320E-04	9.136265E-08
3.189290E+03	3.062300E-04	9.331220E-08
3.199134E+03	3.127686E-04	9.530458E-08
3.208977E+03	3.193916E-04	9.732271E-08
3.218821E+03	3.260953E-04	9.936541E-08
3.228664E+03	3.329302E-04	1.014481E-07
3.238508E+03	3.398663E-04	1.035616E-07
3.248351E+03	3.468722E-04	1.056964E-07
3.258195E+03	3.540000E-04	1.078683E-07
3.268038E+03	3.612187E-04	1.100679E-07
3.277882E+03	3.685248E-04	1.122942E-07
3.287725E+03	3.759435E-04	1.145548E-07
3.297569E+03	3.834432E-04	1.168400E-07
3.307412E+03	3.910206E-04	1.191489E-07
3.317256E+03	3.987019E-04	1.214895E-07
3.327099E+03	4.064850E-04	1.238611E-07
3.336943E+03	4.143378E-04	1.262540E-07
3.346786E+03	4.222883E-04	1.286765E-07
3.356630E+03	4.303349E-04	1.311285E-07
3.366473E+03	4.384467E-04	1.336002E-07
3.376317E+03	4.466838E-04	1.361102E-07
3.386160E+03	4.550166E-04	1.386492E-07
3.396004E+03	4.634462E-04	1.412178E-07
3.405847E+03	4.720055E-04	1.438260E-07
3.415691E+03	4.806360E-04	1.464558E-07
3.425534E+03	4.894035E-04	1.491273E-07
3.435377E+03	4.983134E-04	1.518423E-07
3.445221E+03	5.073721E-04	1.546026E-07
3.455064E+03	5.165557E-04	1.574009E-07
3.464908E+03	5.259041E-04	1.602495E-07
3.474751E+03	5.354268E-04	1.631512E-07
3.484595E+03	5.451346E-04	1.661092E-07
3.494438E+03	5.550387E-04	1.691271E-07
3.504282E+03	5.651514E-04	1.722086E-07
3.514125E+03	5.755175E-04	1.753673E-07
3.523969E+03	5.861179E-04	1.785973E-07
3.533812E+03	5.969986E-04	1.819128E-07
3.543656E+03	6.081407E-04	1.853079E-07
3.553499E+03	6.196226E-04	1.888066E-07
3.563343E+03	6.313926E-04	1.923931E-07
3.573186E+03	6.434967E-04	1.960813E-07
3.583030E+03	6.559478E-04	1.998753E-07
3.592873E+03	6.687917E-04	2.037890E-07
3.602717E+03	6.820080E-04	2.078161E-07
3.612560E+03	6.956087E-04	2.119604E-07
3.622404E+03	7.096394E-04	2.162357E-07
3.632247E+03	7.240780E-04	2.206353E-07
3.642091E+03	7.390036E-04	2.251833E-07
3.651934E+03	7.543589E-04	2.298623E-07
3.661778E+03	7.702224E-04	2.346960E-07
3.671621E+03	7.865346E-04	2.396666E-07
3.681465E+03	8.033723E-04	2.447972E-07
3.691308E+03	8.207074E-04	2.500794E-07
3.701152E+03	8.385792E-04	2.555251E-07
3.710995E+03	8.569552E-04	2.611245E-07
3.720839E+03	8.758700E-04	2.668880E-07
3.730682E+03	8.953204E-04	2.728148E-07
3.740526E+03	9.152992E-04	2.789025E-07
3.750369E+03	9.357954E-04	2.851480E-07
3.760213E+03	9.568293E-04	2.915572E-07
3.770056E+03	9.783076E-04	2.981019E-07
3.779900E+03	1.000277E-03	3.047961E-07
3.789743E+03	1.022668E-03	3.116188E-07
3.799587E+03	1.045479E-03	3.185697E-07
3.809430E+03	1.068666E-03	3.256352E-07
3.819274E+03	1.092179E-03	3.327998E-07
3.829117E+03	1.115921E-03	3.400341E-07
3.838961E+03	1.139866E-03	3.473305E-07
3.848804E+03	1.163980E-03	3.546782E-07
3.858648E+03	1.188112E-03	3.620314E-07
3.868491E+03	1.212256E-03	3.693886E-07
3.878334E+03	1.236287E-03	3.767108E-07
3.888178E+03	1.260114E-03	3.839712E-07
3.898021E+03	1.283684E-03	3.911534E-07
3.907865E+03	1.306825E-03	3.982046E-07
3.917708E+03	1.329559E-03	4.051320E-07
3.927552E+03	1.351716E-03	4.118834E-07
3.935427E+03	1.354571E-03	4.127533E-07
3.937395E+03	1.335456E-03	4.069288E-07
3.939364E+03	1.328214E-03	4.047219E-07
3.941333E+03	1.302293E-03	3.968236E-07
3.943302E+03	1.276620E-03	3.890006E-07
3.945270E+03	1.260620E-03	3.841253E-07
3.947239E+03	1.253803E-03	3.820480E-07
3.949208E+03	1.239307E-03	3.776311E-07
3.951176E+03	1.231605E-03	3.752841E-07
3.953145E+03	1.230708E-03	3.750108E-07
3.955114E+03	1.223109E-03	3.726951E-07
3.957082E+03	1.225338E-03	3.733746E-07
3.959051E+03	1.236108E-03	3.766563E-07
3.961020E+03	1.248110E-03	3.803133E-07
3.962988E+03	1.249708E-03	3.808003E-07
3.964957E+03	1.272818E-03	3.878423E-07
3.966926E+03	1.291671E-03	3.935868E-07
3.968895E+03	1.294406E-03	3.944202E-07
3.970863E+03	1.329922E-03	4.052422E-07
3.972832E+03	1.370443E-03	4.175894E-07
3.974801E+03	1.408832E-03	4.292872E-07
3.976769E+03	1.439110E-03	4.385132E-07
3.978738E+03	1.434871E-03	4.372214E-07
3.980707E+03	1.421839E-03	4.332506E-07
3.982675E+03	1.419516E-03	4.325428E-07
3.984644E+03	1.435402E-03	4.373832E-07
3.986613E+03	1.440735E-03	4.390084E-07
3.988582E+03	1.444494E-03	4.401537E-07
3.990550E+03	1.452348E-03	4.425468E-07
3.992519E+03	1.463382E-03	4.459091E-07
3.994488E+03	1.466929E-03	4.469898E-07
3.996456E+03	1.462452E-03	4.456256E-07
3.998425E+03	1.457141E-03	4.440073E-07
4.000394E+03	1.464677E-03	4.463035E-07
4.002362E+03	1.472390E-03	4.486540E-07
4.004331E+03	1.467576E-03	4.471871E-07
4.006300E+03	1.446309E-03	4.407067E-07
4.008269E+03	1.428391E-03	4.352469E-07
4.010237E+03	1.430131E-03	4.357772E-07
4.012206E+03	1.441899E-03	4.393629E-07
4.014175E+03	1.440935E-03	4.390690E-07
4.016143E+03	1.431766E-03	4.362752E-07
4.018112E+03	1.417694E-03	4.319872E-07
4.020081E+03	1.399351E-03	4.263982E-07
4.022049E+03	1.366265E-03	4.163162E-07
4.024018E+03	1.342434E-03	4.090547E-07
4.025987E+03	1.336783E-03	4.073327E-07
4.027956E+03	1.350495E-03	4.115112E-07
4.029924E+03	1.377312E-03	4.196824E-07
4.031893E+03	1.389323E-03	4.233424E-07
4.033862E+03	1.395760E-03	4.253036E-07
4.035830E+03	1.407849E-03	4.289875E-07
4.037799E+03	1.416712E-03	4.316882E-07
4.039768E+03	1.409164E-03	4.293880E-07
4.041736E+03	1.385459E-03	4.221650E-07
4.043705E+03	1.358521E-03	4.139565E-07
4.045674E+03	1.328386E-03	4.047741E-07
4.047642E+03	1.303805E-03	3.972841E-07
4.049611E+03	1.280372E-03	3.901438E-07
4.051580E+03	1.253696E-03	3.820152E-07
4.053549E+03	1.241722E-03	3.783667E-07
4.055517E+03	1.226395E-03	3.736961E-07
4.057486E+03	1.193357E-03	3.636292E-07
4.059455E+03	1.175409E-03	3.581601E-07
4.061423E+03	1.172047E-03	3.571358E-07
4.063392E+03	1.175931E-03	3.583192E-07
4.065361E+03	1.170405E-03	3.566355E-07
4.067329E+03	1.156884E-03	3.525154E-07
4.069298E+03	1.129879E-03	3.442867E-07
4.071267E+03	1.115580E-03	3.399296E-07
4.073236E+03	1.117857E-03	3.406236E-07
4.075204E+03	1.117046E-03	3.403763E-07
4.077173E+03	1.087720E-03	3.314402E-07
4.079142E+03	1.059766E-03	3.229225E-07
4.081110E+03	1.075825E-03	3.278159E-07
4.083079E+03	1.072027E-03	3.266585E-07
4.085048E+03	1.061942E-03	3.235856E-07
4.087016E+03	1.066347E-03	3.249277E-07
4.088985E+03	1.100447E-03	3.353184E-07
4.090954E+03	1.123770E-03	3.424252E-07
4.092923E+03	1.125043E-03	3.428131E-07
4.094891E+03	1.125704E-03	3.430146E-07
4.096860E+03	1.143549E-03	3.484521E-07
4.098829E+03	1.158644E-03	3.530517E-07
4.100797E+03	1.157980E-03	3.528493E-07
4.102766E+03	1.150353E-03	3.505253E-07
4.106703E+03	1.168226E-03	3.559713E-07
4.108672E+03	1.199023E-03	3.653556E-07
4.110641E+03	1.220688E-03	3.719570E-07
4.112610E+03	1.229522E-03	3.746488E-07
4.114578E+03	1.210451E-03	3.688377E-07
4.116547E+03	1.197805E-03	3.649844E-07
4.118516E+03	1.192910E-03	3.634929E-07
4.120484E+03	1.201131E-03	3.659980E-07
4.122453E+03	1.208026E-03	3.680988E-07
4.124422E+03	1.227404E-03	3.740034E-07
4.126390E+03	1.243534E-03	3.789184E-07
4.128359E+03	1.245583E-03	3.795427E-07
4.130328E+03	1.241621E-03	3.783356E-07
4.132296E+03	1.236932E-03	3.769069E-07
4.134265E+03	1.212004E-03	3.693108E-07
4.136234E+03	1.163902E-03	3.546539E-07
4.138203E+03	1.145190E-03	3.489519E-07
4.140171E+03	1.154284E-03	3.517230E-07
4.142140E+03	1.167560E-03	3.557683E-07
4.144109E+03	1.172562E-03	3.572926E-07
4.146077E+03	1.184272E-03	3.608606E-07
4.148046E+03	1.172484E-03	3.572686E-07
4.150015E+03	1.177075E-03	3.586677E-07
4.151983E+03	1.220453E-03	3.718855E-07
4.153952E+03	1.237997E-03	3.772313E-07
4.155921E+03	1.244955E-03	3.793513E-07
4.157890E+03	1.267590E-03	3.862485E-07
4.159858E+03	1.321488E-03	4.026718E-07
4.161827E+03	1.336568E-03	4.072670E-07
4.163796E+03	1.369033E-03	4.171593E-07
4.165764E+03	1.418669E-03	4.322838E-07
4.167733E+03	1.441212E-03	4.391531E-07
4.169702E+03	1.458645E-03	4.444650E-07
4.171670E+03	1.460178E-03	4.449321E-07
4.173639E+03	1.434841E-03	4.372117E-07
4.175608E+03	1.439063E-03	4.384983E-07
4.177577E+03	1.459985E-03	4.448733E-07
4.179545E+03	1.477343E-03	4.501625E-07
4.181514E+03	1.474562E-03	4.493152E-07
4.183483E+03	1.488585E-03	4.535880E-07
4.185451E+03	1.525282E-03	4.647701E-07
4.187420E+03	1.567998E-03	4.777862E-07
4.189389E+03	1.582426E-03	4.821824E-07
4.191357E+03	1.591383E-03	4.849117E-07
4.193326E+03	1.586486E-03	4.834194E-07
4.195295E+03	1.599939E-03	4.875188E-07
4.197264E+03	1.599958E-03	4.875247E-07
4.199232E+03	1.592888E-03	4.853703E-07
4.201201E+03	1.598439E-03	4.870618E-07
4.203170E+03	1.627903E-03	4.960395E-07
4.205138E+03	1.637985E-03	4.991117E-07
4.207107E+03	1.614884E-03	4.920725E-07
4.209076E+03	1.580715E-03	4.816610E-07
4.211044E+03	1.556461E-03	4.742704E-07
4.213013E+03	1.534270E-03	4.675088E-07
4.214982E+03	1.508737E-03	4.597286E-07
4.216950E+03	1.480779E-03	4.512094E-07
4.222857E+03	1.484414E-03	4.523169E-07
4.224825E+03	1.483490E-03	4.520355E-07
4.226794E+03	1.464708E-03	4.463123E-07
4.228763E+03	1.437283E-03	4.379557E-07
4.230731E+03	1.400630E-03	4.267872E-07
4.232700E+03	1.378153E-03	4.199381E-07
4.234669E+03	1.377480E-03	4.197330E-07
4.236637E+03	1.373572E-03	4.185422E-07
4.238606E+03	1.364198E-03	4.156857E-07
4.240575E+03	1.348279E-03	4.108352E-07
4.242544E+03	1.326219E-03	4.041131E-07
4.244512E+03	1.293592E-03	3.941715E-07
4.246481E+03	1.283738E-03	3.911688E-07
4.248450E+03	1.286910E-03	3.921354E-07
4.250418E+03	1.279764E-03	3.899578E-07
4.252387E+03	1.260352E-03	3.840427E-07
4.254356E+03	1.236118E-03	3.766583E-07
4.256324E+03	1.220941E-03	3.720339E-07
4.258293E+03	1.224806E-03	3.732116E-07
4.260262E+03	1.213800E-03	3.698578E-07
4.264199E+03	1.181698E-03	3.600761E-07
4.266168E+03	1.142042E-03	3.479923E-07
4.268137E+03	1.128032E-03	3.437234E-07
4.270105E+03	1.117511E-03	3.405175E-07
4.272074E+03	1.109752E-03	3.381534E-07
4.274043E+03	1.103294E-03	3.361854E-07
4.276011E+03	1.092046E-03	3.327581E-07
4.277980E+03	1.094208E-03	3.334169E-07
4.279949E+03	1.105945E-03	3.369932E-07
4.281918E+03	1.113830E-03	3.393959E-07
4.283886E+03	1.095127E-03	3.336970E-07
4.285855E+03	1.088572E-03	3.316996E-07
4.287824E+03	1.095142E-03	3.337015E-07
4.289792E+03	1.098237E-03	3.346444E-07
4.291761E+03	1.071830E-03	3.265979E-07
4.293730E+03	1.046995E-03	3.190304E-07
4.295698E+03	1.035958E-03	3.156673E-07
4.299636E+03	1.038313E-03	3.163852E-07
4.301604E+03	1.047156E-03	3.190796E-07
4.303573E+03	1.053172E-03	3.209127E-07
4.305542E+03	1.056169E-03	3.218260E-07
4.307511E+03	1.063449E-03	3.240442E-07
4.309479E+03	1.064835E-03	3.244665E-07
4.311448E+03	1.076868E-03	3.281332E-07
4.313417E+03	1.097948E-03	3.345566E-07
4.315385E+03	1.101228E-03	3.355557E-07
4.317354E+03	1.080903E-03	3.293627E-07
4.319323E+03	1.075257E-03	3.276422E-07
4.321291E+03	1.103289E-03	3.361840E-07
4.323260E+03	1.123690E-03	3.424003E-07
4.325229E+03	1.146877E-03	3.494655E-07
4.327198E+03	1.149614E-03	3.502997E-07
4.329166E+03	1.136090E-03	3.461787E-07
4.331135E+03	1.124797E-03	3.427377E-07
4.333104E+03	1.105302E-03	3.367972E-07
4.335072E+03	1.084997E-03	3.306102E-07
4.337041E+03	1.093903E-03	3.333239E-07
4.339010E+03	1.121462E-03	3.417212E-07
4.340978E+03	1.140904E-03	3.476456E-07
4.342947E+03	1.130987E-03	3.446238E-07
4.344916E+03	1.103290E-03	3.361840E-07
4.346885E+03	1.077843E-03	3.284300E-07
4.348853E+03	1.069095E-03	3.257646E-07
4.350822E+03	1.095647E-03	3.338552E-07
4.352791E+03	1.088980E-03	3.318238E-07
4.354759E+03	1.057463E-03	3.222200E-07
4.356728E+03	1.049808E-03	3.198876E-07
4.358697E+03	1.049729E-03	3.198634E-07
4.360665E+03	1.028333E-03	3.133438E-07
4.362634E+03	1.011626E-03	3.082531E-07
4.364603E+03	1.025259E-03	3.124072E-07
4.366572E+03	1.018281E-03	3.102810E-07
4.368540E+03	1.019915E-03	3.107789E-07
4.370509E+03	1.021252E-03	3.111861E-07
4.372478E+03	1.004391E-03	3.060486E-07
4.374446E+03	9.742281E-04	2.968575E-07
4.376415E+03	9.753124E-04	2.971879E-07
4.378384E+03	9.742954E-04	2.968780E-07
4.380352E+03	9.677019E-04	2.948689E-07
4.382321E+03	9.690278E-04	2.952729E-07
4.384290E+03	9.953661E-04	3.032985E-07
4.386258E+03	1.025331E-03	3.124290E-07
4.388227E+03	1.033442E-03	3.149006E-07
4.390196E+03	1.025411E-03	3.124534E-07
4.392165E+03	1.033670E-03	3.149700E-07
4.394133E+03	1.045017E-03	3.184276E-07
4.396102E+03	1.074082E-03	3.272840E-07
4.398071E+03	1.074196E-03	3.273188E-07
4.400039E+03	1.086284E-03	3.310022E-07
4.402008E+03	1.098418E-03	3.346993E-07
4.403977E+03	1.089808E-03	3.320758E-07
4.405945E+03	1.073845E-03	3.272118E-07
4.407914E+03	1.074783E-03	3.274977E-07
4.409883E+03	1.100231E-03	3.352519E-07
4.411852E+03	1.136003E-03	3.461519E-07
4.413820E+03	1.160259E-03	3.535431E-07
4.415789E+03	1.182806E-03	3.604134E-07
4.417758E+03	1.208573E-03	3.682648E-07
4.419726E+03	1.235375E-03	3.764318E-07
4.421695E+03	1.238070E-03	3.772527E-07
4.423664E+03	1.237017E-03	3.769320E-07
4.425632E+03	1.244551E-03	3.792277E-07
4.427601E+03	1.251094E-03	3.812213E-07
4.429570E+03	1.283534E-03	3.911062E-07
4.431539E+03	1.322289E-03	4.029153E-07
4.433507E+03	1.353601E-03	4.124563E-07
4.435476E+03	1.396760E-03	4.256074E-07
4.437445E+03	1.421443E-03	4.331284E-07
4.439413E+03	1.431632E-03	4.362332E-07
4.441382E+03	1.444071E-03	4.400235E-07
4.443351E+03	1.477515E-03	4.502142E-07
4.445319E+03	1.486616E-03	4.529873E-07
4.447288E+03	1.477878E-03	4.503246E-07
4.449257E+03	1.481465E-03	4.514177E-07
4.451226E+03	1.501895E-03	4.576430E-07
4.453194E+03	1.518197E-03	4.626104E-07
4.455163E+03	1.532921E-03	4.670967E-07
4.457132E+03	1.562992E-03	4.762599E-07
4.459100E+03	1.599301E-03	4.873234E-07
4.461069E+03	1.625407E-03	4.952782E-07
4.463038E+03	1.634918E-03	4.981764E-07
4.465006E+03	1.629096E-03	4.964025E-07
4.466975E+03	1.644861E-03	5.012061E-07
4.468944E+03	1.669038E-03	5.085732E-07
4.470912E+03	1.694804E-03	5.164243E-07
4.472881E+03	1.745843E-03	5.319764E-07
4.474850E+03	1.774219E-03	5.406228E-07
4.476819E+03	1.787902E-03	5.447922E-07
4.478787E+03	1.804608E-03	5.498827E-07
4.480756E+03	1.822615E-03	5.553696E-07
4.482725E+03	1.820598E-03	5.547548E-07
4.484693E+03	1.818859E-03	5.542251E-07
4.486662E+03	1.839442E-03	5.604969E-07
4.488631E+03	1.863012E-03	5.676788E-07
4.490599E+03	1.889320E-03	5.756952E-07
4.492568E+03	1.922362E-03	5.857634E-07
4.494537E+03	1.961982E-03	5.978362E-07
4.496506E+03	1.998320E-03	6.089086E-07
4.498474E+03	2.028109E-03	6.179856E-07
4.500443E+03	2.056311E-03	6.265790E-07
4.502412E+03	2.088470E-03	6.363783E-07
4.504380E+03	2.114290E-03	6.442460E-07
4.506349E+03	2.142754E-03	6.529192E-07
4.508318E+03	2.169795E-03	6.611587E-07
4.510286E+03	2.180864E-03	6.645317E-07
4.512255E+03	2.235010E-03	6.810304E-07
4.514224E+03	2.302046E-03	7.014569E-07
4.516193E+03	2.346436E-03	7.149830E-07
4.518161E+03	2.387951E-03	7.276331E-07
4.520130E+03	2.419218E-03	7.371604E-07
4.522099E+03	2.445832E-03	7.452700E-07
4.524067E+03	2.473201E-03	7.536097E-07
4.526036E+03	2.488027E-03	7.581274E-07
4.528005E+03	2.510092E-03	7.648506E-07
4.529973E+03	2.533833E-03	7.720849E-07
4.531942E+03	2.538029E-03	7.733633E-07
4.533911E+03	2.527122E-03	7.700400E-07
4.535880E+03	2.526391E-03	7.698170E-07
4.537848E+03	2.547998E-03	7.764011E-07
4.539817E+03	2.587731E-03	7.885080E-07
4.541786E+03	2.622845E-03	7.992076E-07
4.543754E+03	2.632450E-03	8.021343E-07
4.545723E+03	2.621083E-03	7.986708E-07
4.547692E+03	2.629795E-03	8.013253E-07
4.549660E+03	2.649371E-03	8.072903E-07
4.551629E+03	2.669817E-03	8.135205E-07
4.553598E+03	2.689735E-03	8.195897E-07
4.555566E+03	2.723009E-03	8.297286E-07
4.557535E+03	2.733941E-03	8.330595E-07
4.559504E+03	2.720322E-03	8.289096E-07
4.561473E+03	2.698291E-03	8.221966E-07
4.563441E+03	2.676080E-03	8.154288E-07
4.565410E+03	2.645756E-03	8.061888E-07
4.567379E+03	2.619635E-03	7.982293E-07
4.569347E+03	2.609329E-03	7.950890E-07
4.571316E+03	2.564131E-03	7.813166E-07
4.573285E+03	2.511528E-03	7.652880E-07
4.575253E+03	2.474797E-03	7.540957E-07
4.577222E+03	2.460528E-03	7.497477E-07
4.579191E+03	2.445147E-03	7.450610E-07
4.581160E+03	2.431774E-03	7.409862E-07
4.583128E+03	2.424623E-03	7.388071E-07
4.585097E+03	2.418167E-03	7.368401E-07
4.587066E+03	2.385536E-03	7.268968E-07
4.589034E+03	2.339541E-03	7.128817E-07
4.591003E+03	2.302164E-03	7.014928E-07
4.592972E+03	2.299880E-03	7.007967E-07
4.594940E+03	2.278156E-03	6.941771E-07
4.596909E+03	2.253705E-03	6.867266E-07
4.598878E+03	2.252263E-03	6.862872E-07
4.600847E+03	2.248386E-03	6.851058E-07
4.602815E+03	2.269806E-03	6.916328E-07
4.604784E+03	2.299060E-03	7.005467E-07
4.606753E+03	2.304855E-03	7.023125E-07
4.608721E+03	2.296030E-03	6.996234E-07
4.610690E+03	2.270471E-03	6.918354E-07
4.612659E+03	2.238772E-03	6.821765E-07
4.614627E+03	2.218257E-03	6.759254E-07
4.616596E+03	2.213600E-03	6.745061E-07
4.618565E+03	2.211618E-03	6.739022E-07
4.620534E+03	2.212975E-03	6.743159E-07
4.622502E+03	2.231477E-03	6.799535E-07
4.624471E+03	2.251498E-03	6.860541E-07
4.626440E+03	2.284077E-03	6.959812E-07
4.628408E+03	2.326877E-03	7.090227E-07
4.630377E+03	2.349753E-03	7.159935E-07
4.632346E+03	2.362048E-03	7.197398E-07
4.634314E+03	2.367006E-03	7.212505E-07
4.636283E+03	2.364135E-03	7.203757E-07
4.638252E+03	2.347741E-03	7.153802E-07
4.640220E+03	2.337032E-03	7.121170E-07
4.642189E+03	2.334037E-03	7.112044E-07
4.644158E+03	2.330343E-03	7.100788E-07
4.646127E+03	2.316308E-03	7.058022E-07
4.648095E+03	2.303338E-03	7.018502E-07
4.650064E+03	2.291191E-03	6.981490E-07
4.652033E+03	2.270001E-03	6.916920E-07
4.654001E+03	2.242799E-03	6.834034E-07
4.655970E+03	2.213291E-03	6.744120E-07
4.657939E+03	2.199678E-03	6.702640E-07
4.659907E+03	2.196033E-03	6.691533E-07
4.661876E+03	2.190230E-03	6.673849E-07
4.663845E+03	2.184234E-03	6.655578E-07
4.665814E+03	2.174830E-03	6.626925E-07
4.667782E+03	2.143045E-03	6.530072E-07
4.669751E+03	2.116712E-03	6.449833E-07
4.671720E+03	2.097543E-03	6.391424E-07
4.673688E+03	2.077858E-03	6.331442E-07
4.675657E+03	2.046764E-03	6.236694E-07
4.677626E+03	2.033287E-03	6.195628E-07
4.679594E+03	2.023963E-03	6.167218E-07
4.681563E+03	1.999685E-03	6.093239E-07
4.683532E+03	1.995662E-03	6.080980E-07
4.685501E+03	2.007110E-03	6.115863E-07
