#wls	flux	fluxerr
1.574958E+03	3.763384E-05	1.676459E-06
1.614332E+03	3.878988E-05	1.725634E-06
1.653706E+03	3.966880E-05	1.762302E-06
1.693080E+03	4.024213E-05	1.785244E-06
1.732454E+03	4.047274E-05	1.792872E-06
1.771828E+03	4.028227E-05	1.781782E-06
1.811202E+03	3.956515E-05	1.747396E-06
1.850576E+03	3.824056E-05	1.686257E-06
1.889950E+03	3.623404E-05	1.595221E-06
1.929324E+03	3.357933E-05	1.475921E-06
1.968698E+03	3.046441E-05	1.336761E-06
2.008072E+03	2.727255E-05	1.194645E-06
2.047446E+03	2.454498E-05	1.073272E-06
2.086820E+03	2.284734E-05	9.972372E-07
2.126194E+03	2.257538E-05	9.835464E-07
2.165567E+03	2.388527E-05	1.038647E-06
2.204941E+03	2.672807E-05	1.160017E-06
2.244315E+03	3.087977E-05	1.337550E-06
2.283689E+03	3.603128E-05	1.557525E-06
2.323063E+03	4.186412E-05	1.805913E-06
2.362437E+03	4.810178E-05	2.070594E-06
2.401811E+03	5.457975E-05	2.344358E-06
2.441185E+03	6.117784E-05	2.621948E-06
2.480559E+03	6.787076E-05	2.902213E-06
2.519933E+03	7.467127E-05	3.185630E-06
2.559307E+03	8.159827E-05	3.472934E-06
2.598681E+03	8.873180E-05	3.767444E-06
2.638055E+03	9.613014E-05	4.071526E-06
2.677429E+03	1.038557E-04	4.387690E-06
2.716803E+03	1.120163E-04	4.720335E-06
2.756177E+03	1.206688E-04	5.071657E-06
2.795551E+03	1.299308E-04	5.446382E-06
2.834925E+03	1.398953E-04	5.848137E-06
2.874299E+03	1.506570E-04	6.280577E-06
2.913673E+03	1.623475E-04	6.748842E-06
2.953047E+03	1.750470E-04	7.255860E-06
2.962890E+03	1.783990E-04	7.389428E-06
2.972734E+03	1.818127E-04	7.525325E-06
2.982577E+03	1.853083E-04	7.664384E-06
2.992421E+03	1.888944E-04	7.806952E-06
3.002264E+03	1.925791E-04	7.953348E-06
3.012107E+03	1.964320E-04	8.106438E-06
3.021951E+03	2.003875E-04	8.263503E-06
3.031794E+03	2.045016E-04	8.426838E-06
3.041638E+03	2.087496E-04	8.595408E-06
3.051481E+03	2.131065E-04	8.768169E-06
3.061325E+03	2.176099E-04	8.946663E-06
3.071168E+03	2.222139E-04	9.128979E-06
3.081012E+03	2.269356E-04	9.315820E-06
3.090855E+03	2.317938E-04	9.507934E-06
3.100699E+03	2.367410E-04	9.703364E-06
3.110542E+03	2.418182E-04	9.903780E-06
3.120386E+03	2.470000E-04	1.010813E-05
3.130229E+03	2.522832E-04	1.031626E-05
3.140073E+03	2.576645E-04	1.052805E-05
3.149916E+03	2.631641E-04	1.074429E-05
3.159760E+03	2.687558E-04	1.096390E-05
3.169603E+03	2.744364E-04	1.118675E-05
3.179447E+03	2.802269E-04	1.141368E-05
3.189290E+03	2.861248E-04	1.164457E-05
3.199134E+03	2.921027E-04	1.187830E-05
3.208977E+03	2.981822E-04	1.211574E-05
3.218821E+03	3.043356E-04	1.235576E-05
3.228664E+03	3.105850E-04	1.259923E-05
3.238508E+03	3.169277E-04	1.284604E-05
3.248351E+03	3.233611E-04	1.309607E-05
3.258195E+03	3.298825E-04	1.334921E-05
3.268038E+03	3.364894E-04	1.360533E-05
3.277882E+03	3.431790E-04	1.386433E-05
3.287725E+03	3.499491E-04	1.412609E-05
3.297569E+03	3.568241E-04	1.439160E-05
3.307412E+03	3.637480E-04	1.465858E-05
3.317256E+03	3.707731E-04	1.492914E-05
3.327099E+03	3.778982E-04	1.520321E-05
3.336943E+03	3.850944E-04	1.547962E-05
3.346786E+03	3.923608E-04	1.575833E-05
3.356630E+03	3.997248E-04	1.604042E-05
3.366473E+03	4.071864E-04	1.632589E-05
3.376317E+03	4.147183E-04	1.661363E-05
3.386160E+03	4.223784E-04	1.690595E-05
3.396004E+03	4.301117E-04	1.720064E-05
3.405847E+03	4.379494E-04	1.749892E-05
3.415691E+03	4.459240E-04	1.780210E-05
3.425534E+03	4.540110E-04	1.810917E-05
3.435377E+03	4.622155E-04	1.842032E-05
3.445221E+03	4.705434E-04	1.873579E-05
3.455064E+03	4.790312E-04	1.905699E-05
3.464908E+03	4.876569E-04	1.938305E-05
3.474751E+03	4.964590E-04	1.971547E-05
3.484595E+03	5.054466E-04	2.005460E-05
3.494438E+03	5.145997E-04	2.039963E-05
3.504282E+03	5.239589E-04	2.075213E-05
3.514125E+03	5.335651E-04	2.111371E-05
3.523969E+03	5.433693E-04	2.148241E-05
3.533812E+03	5.534436E-04	2.186105E-05
3.543656E+03	5.637691E-04	2.224885E-05
3.553499E+03	5.743573E-04	2.264623E-05
3.563343E+03	5.852503E-04	2.305484E-05
3.573186E+03	5.964286E-04	2.347386E-05
3.583030E+03	6.079340E-04	2.390492E-05
3.592873E+03	6.197776E-04	2.434840E-05
3.602717E+03	6.319697E-04	2.480468E-05
3.612560E+03	6.445204E-04	2.527411E-05
3.622404E+03	6.574395E-04	2.575705E-05
3.632247E+03	6.707359E-04	2.625379E-05
3.642091E+03	6.844182E-04	2.676463E-05
3.651934E+03	6.985260E-04	2.729107E-05
3.661778E+03	7.130344E-04	2.783211E-05
3.671621E+03	7.279813E-04	2.838916E-05
3.681465E+03	7.433388E-04	2.896111E-05
3.691308E+03	7.591427E-04	2.954929E-05
3.701152E+03	7.754271E-04	3.015498E-05
3.710995E+03	7.921255E-04	3.077555E-05
3.720839E+03	8.092674E-04	3.141209E-05
3.730682E+03	8.268803E-04	3.206563E-05
3.740526E+03	8.449216E-04	3.273446E-05
3.750369E+03	8.633786E-04	3.341805E-05
3.760213E+03	8.822688E-04	3.411702E-05
3.770056E+03	9.015373E-04	3.482922E-05
3.779900E+03	9.211934E-04	3.555495E-05
3.789743E+03	9.412076E-04	3.629304E-05
3.799587E+03	9.615454E-04	3.704212E-05
3.809430E+03	9.821317E-04	3.779927E-05
3.819274E+03	1.002992E-03	3.856545E-05
3.829117E+03	1.024006E-03	3.933599E-05
3.838961E+03	1.045190E-03	4.011152E-05
3.848804E+03	1.066449E-03	4.088834E-05
3.858648E+03	1.087718E-03	4.166404E-05
3.868491E+03	1.108930E-03	4.243599E-05
3.878334E+03	1.130051E-03	4.320290E-05
3.888178E+03	1.150969E-03	4.396055E-05
3.898021E+03	1.171646E-03	4.470749E-05
3.907865E+03	1.191972E-03	4.543955E-05
3.917708E+03	1.211870E-03	4.615383E-05
3.927552E+03	1.231304E-03	4.684903E-05
3.937395E+03	1.250203E-03	4.752248E-05
3.947239E+03	1.268465E-03	4.817041E-05
3.957082E+03	1.286030E-03	4.879063E-05
3.966926E+03	1.302843E-03	4.938107E-05
3.976769E+03	1.318894E-03	4.994148E-05
3.986613E+03	1.334106E-03	5.046906E-05
3.996456E+03	1.348486E-03	5.096413E-05
4.006300E+03	1.361947E-03	5.142350E-05
4.016143E+03	1.374550E-03	5.184959E-05
4.025987E+03	1.386231E-03	5.224008E-05
4.035830E+03	1.397041E-03	5.259702E-05
4.045674E+03	1.407008E-03	5.292155E-05
4.055517E+03	1.416137E-03	5.321394E-05
4.065361E+03	1.424474E-03	5.347604E-05
4.075204E+03	1.432108E-03	5.371122E-05
4.085048E+03	1.439034E-03	5.391947E-05
4.094891E+03	1.445322E-03	5.410342E-05
4.104735E+03	1.451078E-03	5.426712E-05
4.114578E+03	1.456343E-03	5.441216E-05
4.124422E+03	1.461192E-03	5.454142E-05
4.134265E+03	1.465665E-03	5.465645E-05
4.144109E+03	1.469804E-03	5.475883E-05
4.153952E+03	1.473740E-03	5.485353E-05
4.163796E+03	1.477454E-03	5.493976E-05
4.173639E+03	1.481073E-03	5.502238E-05
4.183483E+03	1.484580E-03	5.510072E-05
4.193326E+03	1.488107E-03	5.517974E-05
4.203170E+03	1.491643E-03	5.525898E-05
4.213013E+03	1.495327E-03	5.534357E-05
4.222857E+03	1.499154E-03	5.543340E-05
4.232700E+03	1.503268E-03	5.553375E-05
4.242544E+03	1.507677E-03	5.564486E-05
4.252387E+03	1.512504E-03	5.577128E-05
4.262231E+03	1.517819E-03	5.591551E-05
4.272074E+03	1.523695E-03	5.608025E-05
4.281918E+03	1.530233E-03	5.626910E-05
4.291761E+03	1.537507E-03	5.648479E-05
4.301604E+03	1.545589E-03	5.672982E-05
4.311448E+03	1.554568E-03	5.700745E-05
4.321291E+03	1.564524E-03	5.732051E-05
4.331135E+03	1.575470E-03	5.766935E-05
4.340978E+03	1.587448E-03	5.805547E-05
4.350822E+03	1.600487E-03	5.847982E-05
4.360665E+03	1.614573E-03	5.894180E-05
4.370509E+03	1.629675E-03	5.944017E-05
4.380352E+03	1.645804E-03	5.997524E-05
4.390196E+03	1.662874E-03	6.054380E-05
4.400039E+03	1.680843E-03	6.114418E-05
4.409883E+03	1.699651E-03	6.177420E-05
4.419726E+03	1.719228E-03	6.243120E-05
4.429570E+03	1.739469E-03	6.311125E-05
4.439413E+03	1.760244E-03	6.380969E-05
4.449257E+03	1.781491E-03	6.452413E-05
4.459100E+03	1.803024E-03	6.524785E-05
4.468944E+03	1.824696E-03	6.597553E-05
4.478787E+03	1.846340E-03	6.670109E-05
4.488631E+03	1.867808E-03	6.741918E-05
4.498474E+03	1.888857E-03	6.812111E-05
4.508318E+03	1.909317E-03	6.880076E-05
4.518161E+03	1.928987E-03	6.945100E-05
4.528005E+03	1.947677E-03	7.006500E-05
4.537848E+03	1.965185E-03	7.063562E-05
4.547692E+03	1.981352E-03	7.115729E-05
4.557535E+03	1.996109E-03	7.162760E-05
4.567379E+03	2.009311E-03	7.204156E-05
4.577222E+03	2.020906E-03	7.239734E-05
4.587066E+03	2.030894E-03	7.269517E-05
4.596909E+03	2.039288E-03	7.293563E-05
4.606753E+03	2.046099E-03	7.311922E-05
4.616596E+03	2.051416E-03	7.324934E-05
4.626440E+03	2.055326E-03	7.332911E-05
4.636283E+03	2.057905E-03	7.336145E-05
4.646127E+03	2.059331E-03	7.335278E-05
4.655970E+03	2.059690E-03	7.330627E-05
4.665814E+03	2.059164E-03	7.322845E-05
4.675657E+03	2.057910E-03	7.312501E-05
4.685501E+03	2.056119E-03	7.300278E-05
4.695344E+03	2.053926E-03	7.286655E-05
4.705188E+03	2.051515E-03	7.272296E-05
4.715031E+03	2.049038E-03	7.257731E-05
4.724874E+03	2.046610E-03	7.243375E-05
4.734718E+03	2.044442E-03	7.229971E-05
4.744561E+03	2.042581E-03	7.217680E-05
4.754405E+03	2.041209E-03	7.207146E-05
4.764248E+03	2.040390E-03	7.198586E-05
4.774092E+03	2.040214E-03	7.192318E-05
4.783935E+03	2.040696E-03	7.188383E-05
4.793779E+03	2.041899E-03	7.187002E-05
4.803622E+03	2.043782E-03	7.188020E-05
4.813466E+03	2.046328E-03	7.191378E-05
4.823309E+03	2.049487E-03	7.196887E-05
4.833153E+03	2.053210E-03	7.204377E-05
4.842996E+03	2.057445E-03	7.213659E-05
4.852840E+03	2.062056E-03	7.224249E-05
4.862683E+03	2.067005E-03	7.236016E-05
4.872527E+03	2.072222E-03	7.248707E-05
4.882370E+03	2.077578E-03	7.261875E-05
4.892214E+03	2.083071E-03	7.275508E-05
4.902057E+03	2.088601E-03	7.289255E-05
4.911901E+03	2.094186E-03	7.303179E-05
4.921744E+03	2.099821E-03	7.317266E-05
4.931588E+03	2.105513E-03	7.331535E-05
4.941431E+03	2.111341E-03	7.346262E-05
4.951275E+03	2.117418E-03	7.361842E-05
4.961118E+03	2.123855E-03	7.378659E-05
4.970962E+03	2.130775E-03	7.397130E-05
4.980805E+03	2.138372E-03	7.417932E-05
4.990649E+03	2.146839E-03	7.441724E-05
5.000492E+03	2.156410E-03	7.469313E-05
5.010336E+03	2.167280E-03	7.501366E-05
5.020179E+03	2.179697E-03	7.538728E-05
5.030023E+03	2.193886E-03	7.582165E-05
5.039866E+03	2.210058E-03	7.632396E-05
5.049710E+03	2.228391E-03	7.690019E-05
5.059553E+03	2.249112E-03	7.755800E-05
5.069397E+03	2.272300E-03	7.829989E-05
5.079240E+03	2.298097E-03	7.913068E-05
5.089084E+03	2.326532E-03	8.005105E-05
5.098927E+03	2.357587E-03	8.106030E-05
5.108771E+03	2.391284E-03	8.215893E-05
5.118614E+03	2.427562E-03	8.334467E-05
5.128458E+03	2.466264E-03	8.461199E-05
5.138301E+03	2.507287E-03	8.595710E-05
5.148145E+03	2.550441E-03	8.737342E-05
5.157988E+03	2.595594E-03	8.885626E-05
5.167831E+03	2.642473E-03	9.039609E-05
5.177675E+03	2.690858E-03	9.198535E-05
5.187518E+03	2.740447E-03	9.361363E-05
5.197362E+03	2.790938E-03	9.527048E-05
5.207205E+03	2.842004E-03	9.694477E-05
5.217049E+03	2.893267E-03	9.862353E-05
5.226892E+03	2.944392E-03	1.002954E-04
5.236736E+03	2.994968E-03	1.019464E-04
5.246579E+03	3.044606E-03	1.035633E-04
5.256423E+03	3.092914E-03	1.051330E-04
5.266266E+03	3.139458E-03	1.066408E-04
5.276110E+03	3.183974E-03	1.080778E-04
5.285953E+03	3.226120E-03	1.094326E-04
5.295797E+03	3.265721E-03	1.106996E-04
5.305640E+03	3.302742E-03	1.118776E-04
5.315484E+03	3.337222E-03	1.129683E-04
5.325327E+03	3.369347E-03	1.139780E-04
5.335171E+03	3.399242E-03	1.149112E-04
5.345014E+03	3.427180E-03	1.157774E-04
5.354858E+03	3.453376E-03	1.165838E-04
5.364701E+03	3.478082E-03	1.173392E-04
5.374545E+03	3.501543E-03	1.180519E-04
5.384388E+03	3.523965E-03	1.187290E-04
5.394232E+03	3.545500E-03	1.193756E-04
5.404075E+03	3.566185E-03	1.199931E-04
5.413919E+03	3.586070E-03	1.205833E-04
5.423762E+03	3.604940E-03	1.211389E-04
5.433606E+03	3.622602E-03	1.216536E-04
5.443449E+03	3.638782E-03	1.221183E-04
5.453293E+03	3.653075E-03	1.225194E-04
5.463136E+03	3.665132E-03	1.228456E-04
5.472980E+03	3.674585E-03	1.230844E-04
5.482823E+03	3.681158E-03	1.232269E-04
5.492667E+03	3.684599E-03	1.232649E-04
5.502510E+03	3.684779E-03	1.231941E-04
5.512354E+03	3.681591E-03	1.230112E-04
5.522197E+03	3.675134E-03	1.227197E-04
5.532041E+03	3.665455E-03	1.223214E-04
5.541884E+03	3.652733E-03	1.218224E-04
5.551728E+03	3.637224E-03	1.212315E-04
5.561571E+03	3.619025E-03	1.205519E-04
5.571415E+03	3.598316E-03	1.197899E-04
5.581258E+03	3.575285E-03	1.189519E-04
5.591101E+03	3.550130E-03	1.180445E-04
5.600945E+03	3.523105E-03	1.170764E-04
5.610788E+03	3.494576E-03	1.160597E-04
5.620632E+03	3.464907E-03	1.150066E-04
5.630475E+03	3.434639E-03	1.139352E-04
5.640319E+03	3.404223E-03	1.128603E-04
5.650162E+03	3.374312E-03	1.118037E-04
5.660006E+03	3.345519E-03	1.107855E-04
5.669849E+03	3.318442E-03	1.098255E-04
5.679693E+03	3.293769E-03	1.089464E-04
5.689536E+03	3.272001E-03	1.081645E-04
5.699380E+03	3.253703E-03	1.074984E-04
5.709223E+03	3.239330E-03	1.069628E-04
5.719067E+03	3.229289E-03	1.065710E-04
5.728910E+03	3.223791E-03	1.063297E-04
5.738754E+03	3.223110E-03	1.062477E-04
5.748597E+03	3.227321E-03	1.063270E-04
5.758441E+03	3.236445E-03	1.065683E-04
5.768284E+03	3.250417E-03	1.069690E-04
5.778128E+03	3.269076E-03	1.075236E-04
5.787971E+03	3.292169E-03	1.082236E-04
5.797815E+03	3.319365E-03	1.090578E-04
5.807658E+03	3.350206E-03	1.100109E-04
5.817502E+03	3.384267E-03	1.110689E-04
5.827345E+03	3.420915E-03	1.122108E-04
5.837189E+03	3.459536E-03	1.134163E-04
5.847032E+03	3.499469E-03	1.146637E-04
5.856876E+03	3.540073E-03	1.159319E-04
5.866719E+03	3.580572E-03	1.171955E-04
5.876563E+03	3.620375E-03	1.184351E-04
5.886406E+03	3.658768E-03	1.196276E-04
5.896250E+03	3.695396E-03	1.207613E-04
5.906093E+03	3.729786E-03	1.218210E-04
5.915937E+03	3.761735E-03	1.228000E-04
5.925780E+03	3.791104E-03	1.236941E-04
5.935624E+03	3.817821E-03	1.245010E-04
5.945467E+03	3.842007E-03	1.252247E-04
5.955311E+03	3.863803E-03	1.258701E-04
5.965154E+03	3.883439E-03	1.264447E-04
5.974998E+03	3.901369E-03	1.269634E-04
5.984841E+03	3.917884E-03	1.274358E-04
5.994685E+03	3.933553E-03	1.278805E-04
6.004528E+03	3.948845E-03	1.283127E-04
6.014371E+03	3.964283E-03	1.287495E-04
6.024215E+03	3.980353E-03	1.292066E-04
6.034058E+03	3.997630E-03	1.297027E-04
6.043902E+03	4.016592E-03	1.302532E-04
6.053745E+03	4.037729E-03	1.308739E-04
6.063589E+03	4.061523E-03	1.315804E-04
6.073432E+03	4.088222E-03	1.323806E-04
6.083276E+03	4.118122E-03	1.332839E-04
6.093119E+03	4.151377E-03	1.342951E-04
6.102963E+03	4.188019E-03	1.354152E-04
6.112806E+03	4.227972E-03	1.366416E-04
6.122650E+03	4.271029E-03	1.379674E-04
6.132493E+03	4.316978E-03	1.393858E-04
6.142337E+03	4.365482E-03	1.408856E-04
6.152180E+03	4.416069E-03	1.424515E-04
6.162024E+03	4.468291E-03	1.440692E-04
6.171867E+03	4.521515E-03	1.457180E-04
6.181711E+03	4.575198E-03	1.473806E-04
6.191554E+03	4.628505E-03	1.490299E-04
6.201398E+03	4.680693E-03	1.506423E-04
6.211241E+03	4.730895E-03	1.521898E-04
6.221085E+03	4.778119E-03	1.536406E-04
6.230928E+03	4.821495E-03	1.549670E-04
6.240772E+03	4.859959E-03	1.561350E-04
6.250615E+03	4.892510E-03	1.571126E-04
6.260459E+03	4.918270E-03	1.578720E-04
6.270302E+03	4.936359E-03	1.583852E-04
6.280146E+03	4.946388E-03	1.586401E-04
6.289989E+03	4.948118E-03	1.586293E-04
6.299833E+03	4.941487E-03	1.583513E-04
6.309676E+03	4.927056E-03	1.578243E-04
6.319520E+03	4.905373E-03	1.570662E-04
6.329363E+03	4.877372E-03	1.561073E-04
6.339207E+03	4.844129E-03	1.549820E-04
6.349050E+03	4.806852E-03	1.537294E-04
6.358894E+03	4.766819E-03	1.523903E-04
6.368737E+03	4.725354E-03	1.510073E-04
6.378581E+03	4.683823E-03	1.496239E-04
6.388424E+03	4.643400E-03	1.482778E-04
6.398268E+03	4.605191E-03	1.470040E-04
6.408111E+03	4.570243E-03	1.458361E-04
6.417955E+03	4.539141E-03	1.447924E-04
6.427798E+03	4.512403E-03	1.438895E-04
6.437642E+03	4.490022E-03	1.431269E-04
6.447485E+03	4.472015E-03	1.425050E-04
6.457328E+03	4.457906E-03	1.420085E-04
6.467172E+03	4.447249E-03	1.416231E-04
6.477015E+03	4.439514E-03	1.413316E-04
6.486859E+03	4.434037E-03	1.411130E-04
6.496702E+03	4.430213E-03	1.409479E-04
6.506546E+03	4.427560E-03	1.408208E-04
6.516389E+03	4.425476E-03	1.407127E-04
6.526233E+03	4.423456E-03	1.406073E-04
6.536076E+03	4.421103E-03	1.404922E-04
6.545920E+03	4.418013E-03	1.403544E-04
6.555763E+03	4.413837E-03	1.401829E-04
6.565607E+03	4.408329E-03	1.399699E-04
6.575450E+03	4.401173E-03	1.397053E-04
6.585294E+03	4.392220E-03	1.393845E-04
6.595137E+03	4.381328E-03	1.390031E-04
6.604981E+03	4.368442E-03	1.385593E-04
6.614824E+03	4.353631E-03	1.380552E-04
6.624668E+03	4.336971E-03	1.374935E-04
6.634511E+03	4.318600E-03	1.368784E-04
6.644355E+03	4.298647E-03	1.362140E-04
6.654198E+03	4.277432E-03	1.355107E-04
6.664042E+03	4.255126E-03	1.347737E-04
6.673885E+03	4.232017E-03	1.340122E-04
6.683729E+03	4.208359E-03	1.332342E-04
6.693572E+03	4.184357E-03	1.324462E-04
6.703416E+03	4.160396E-03	1.316605E-04
6.713259E+03	4.136651E-03	1.308825E-04
6.723103E+03	4.113517E-03	1.301247E-04
6.732946E+03	4.091225E-03	1.293944E-04
6.742790E+03	4.070060E-03	1.287005E-04
6.752633E+03	4.050353E-03	1.280536E-04
6.762477E+03	4.032314E-03	1.274601E-04
6.772320E+03	4.016246E-03	1.269298E-04
6.782164E+03	4.002380E-03	1.264697E-04
6.792007E+03	3.990864E-03	1.260845E-04
6.801851E+03	3.981926E-03	1.257815E-04
6.811694E+03	3.975716E-03	1.255652E-04
6.821538E+03	3.972340E-03	1.254391E-04
6.831381E+03	3.971823E-03	1.254038E-04
6.841225E+03	3.974257E-03	1.254622E-04
6.851068E+03	3.979704E-03	1.256162E-04
6.860912E+03	3.987968E-03	1.258596E-04
6.870755E+03	3.999156E-03	1.261958E-04
6.880598E+03	4.013122E-03	1.266201E-04
6.890442E+03	4.029703E-03	1.271274E-04
6.900285E+03	4.048820E-03	1.277151E-04
6.910129E+03	4.070336E-03	1.283788E-04
6.919972E+03	4.094047E-03	1.291123E-04
6.929816E+03	4.119864E-03	1.299126E-04
6.939659E+03	4.147593E-03	1.307736E-04
6.949503E+03	4.177107E-03	1.316913E-04
6.959346E+03	4.208367E-03	1.326645E-04
6.969190E+03	4.241229E-03	1.336886E-04
6.979033E+03	4.275707E-03	1.347642E-04
6.988877E+03	4.311657E-03	1.358866E-04
6.998720E+03	4.349147E-03	1.370580E-04
7.008564E+03	4.388154E-03	1.382778E-04
7.018407E+03	4.428858E-03	1.395516E-04
7.028251E+03	4.471160E-03	1.408763E-04
7.038094E+03	4.515274E-03	1.422587E-04
7.047938E+03	4.561240E-03	1.437001E-04
7.057781E+03	4.609160E-03	1.452036E-04
7.067625E+03	4.659118E-03	1.467721E-04
7.077468E+03	4.711120E-03	1.484056E-04
7.087312E+03	4.765205E-03	1.501055E-04
7.097155E+03	4.821378E-03	1.518720E-04
7.106999E+03	4.879668E-03	1.537060E-04
7.116842E+03	4.939779E-03	1.555982E-04
7.126686E+03	5.001699E-03	1.575483E-04
7.136529E+03	5.065224E-03	1.595499E-04
7.146373E+03	5.129936E-03	1.615900E-04
7.156216E+03	5.195495E-03	1.636578E-04
7.166060E+03	5.261570E-03	1.657430E-04
7.175903E+03	5.327616E-03	1.678286E-04
7.185747E+03	5.393027E-03	1.698954E-04
7.195590E+03	5.457291E-03	1.719273E-04
7.205434E+03	5.519701E-03	1.739023E-04
7.215277E+03	5.579588E-03	1.757992E-04
7.225121E+03	5.636257E-03	1.775963E-04
7.234964E+03	5.689006E-03	1.792714E-04
7.244808E+03	5.736984E-03	1.807976E-04
7.254651E+03	5.779598E-03	1.821566E-04
7.264495E+03	5.816310E-03	1.833311E-04
7.274338E+03	5.846311E-03	1.842958E-04
7.284182E+03	5.869368E-03	1.850432E-04
7.294025E+03	5.884851E-03	1.855535E-04
7.303868E+03	5.892646E-03	1.858231E-04
7.313712E+03	5.892605E-03	1.858472E-04
7.323555E+03	5.884527E-03	1.856194E-04
7.333399E+03	5.868597E-03	1.851455E-04
7.343242E+03	5.845123E-03	1.844351E-04
7.353086E+03	5.814289E-03	1.834938E-04
7.362929E+03	5.776721E-03	1.823413E-04
7.372773E+03	5.732986E-03	1.809955E-04
7.382616E+03	5.683664E-03	1.794745E-04
7.392460E+03	5.629495E-03	1.778015E-04
7.402303E+03	5.571361E-03	1.760043E-04
7.412147E+03	5.510120E-03	1.741100E-04
7.421990E+03	5.446651E-03	1.721461E-04
7.431834E+03	5.381861E-03	1.701413E-04
7.441677E+03	5.316654E-03	1.681241E-04
7.451521E+03	5.251995E-03	1.661250E-04
7.461364E+03	5.188739E-03	1.641711E-04
7.471208E+03	5.127624E-03	1.622856E-04
7.481051E+03	5.069483E-03	1.604949E-04
7.490895E+03	5.015070E-03	1.588231E-04
7.500738E+03	4.964920E-03	1.572871E-04
7.510582E+03	4.919614E-03	1.559055E-04
7.520425E+03	4.879503E-03	1.546896E-04
7.530269E+03	4.844893E-03	1.536491E-04
7.540112E+03	4.816138E-03	1.527955E-04
7.549956E+03	4.793255E-03	1.521295E-04
7.559799E+03	4.776161E-03	1.516488E-04
7.569643E+03	4.764859E-03	1.513537E-04
7.579486E+03	4.759038E-03	1.512345E-04
7.589330E+03	4.758340E-03	1.512802E-04
7.599173E+03	4.762312E-03	1.514765E-04
7.609017E+03	4.770388E-03	1.518057E-04
7.618860E+03	4.781990E-03	1.522496E-04
7.628704E+03	4.796309E-03	1.527827E-04
7.638547E+03	4.812541E-03	1.533795E-04
