#wls	flux	fluxerr
1.574958E+03	9.560547E-06	5.171722E-07
1.614332E+03	9.883815E-06	5.344070E-07
1.653706E+03	1.013740E-05	5.478531E-07
1.693080E+03	1.031534E-05	5.571927E-07
1.732454E+03	1.040383E-05	5.616868E-07
1.771828E+03	1.038204E-05	5.602179E-07
1.811202E+03	1.022380E-05	5.513848E-07
1.850576E+03	9.905566E-06	5.339292E-07
1.889950E+03	9.407106E-06	5.067767E-07
1.929324E+03	8.737963E-06	4.704582E-07
1.968698E+03	7.943256E-06	4.274188E-07
2.008072E+03	7.121962E-06	3.829945E-07
2.047446E+03	6.420101E-06	3.450376E-07
2.086820E+03	5.983300E-06	3.213591E-07
2.126194E+03	5.916942E-06	3.175893E-07
2.165567E+03	6.264159E-06	3.360032E-07
2.204941E+03	7.010527E-06	3.757826E-07
2.244315E+03	8.097863E-06	4.337655E-07
2.283689E+03	9.442645E-06	5.054403E-07
2.323063E+03	1.095973E-05	5.862202E-07
2.362437E+03	1.257239E-05	6.719794E-07
2.401811E+03	1.423347E-05	7.601849E-07
2.441185E+03	1.590808E-05	8.489636E-07
2.480559E+03	1.758797E-05	9.378701E-07
2.519933E+03	1.926497E-05	1.026463E-06
2.559307E+03	2.095043E-05	1.115342E-06
2.598681E+03	2.265026E-05	1.204817E-06
2.638055E+03	2.437579E-05	1.295482E-06
2.677429E+03	2.613962E-05	1.387999E-06
2.716803E+03	2.795513E-05	1.483067E-06
2.756177E+03	2.983622E-05	1.581409E-06
2.795551E+03	3.179724E-05	1.683771E-06
2.834925E+03	3.385315E-05	1.790926E-06
2.874299E+03	3.601955E-05	1.903679E-06
2.913673E+03	3.831969E-05	2.023233E-06
2.953047E+03	4.075799E-05	2.149796E-06
2.962890E+03	4.139231E-05	2.182694E-06
2.972734E+03	4.203714E-05	2.216128E-06
2.982577E+03	4.270030E-05	2.250507E-06
2.992421E+03	4.336887E-05	2.285150E-06
3.002264E+03	4.405663E-05	2.320784E-06
3.012107E+03	4.477040E-05	2.357765E-06
3.021951E+03	4.550898E-05	2.396031E-06
3.031794E+03	4.627125E-05	2.435520E-06
3.041638E+03	4.705625E-05	2.476181E-06
3.051481E+03	4.786307E-05	2.517966E-06
3.061325E+03	4.869947E-05	2.561280E-06
3.071168E+03	4.954777E-05	2.605194E-06
3.081012E+03	5.041576E-05	2.650116E-06
3.090855E+03	5.130288E-05	2.696015E-06
3.100699E+03	5.220863E-05	2.742865E-06
3.110542E+03	5.313263E-05	2.790644E-06
3.120386E+03	5.407451E-05	2.839332E-06
3.130229E+03	5.504367E-05	2.889422E-06
3.140073E+03	5.602075E-05	2.939896E-06
3.149916E+03	5.701508E-05	2.991243E-06
3.159760E+03	5.802655E-05	3.043457E-06
3.169603E+03	5.905516E-05	3.096536E-06
3.179447E+03	6.010090E-05	3.150480E-06
3.189290E+03	6.117456E-05	3.205852E-06
3.199134E+03	6.225502E-05	3.261544E-06
3.208977E+03	6.335298E-05	3.318118E-06
3.218821E+03	6.446865E-05	3.375582E-06
3.228664E+03	6.560231E-05	3.433950E-06
3.238508E+03	6.675427E-05	3.493237E-06
3.248351E+03	6.793676E-05	3.554083E-06
3.258195E+03	6.912661E-05	3.615275E-06
3.268038E+03	7.033595E-05	3.677444E-06
3.277882E+03	7.156525E-05	3.740616E-06
3.287725E+03	7.281502E-05	3.804815E-06
3.297569E+03	7.409877E-05	3.870747E-06
3.307412E+03	7.539140E-05	3.937099E-06
3.317256E+03	7.670628E-05	4.004567E-06
3.327099E+03	7.804404E-05	4.073184E-06
3.336943E+03	7.940538E-05	4.142985E-06
3.346786E+03	8.080512E-05	4.214741E-06
3.356630E+03	8.221603E-05	4.287031E-06
3.366473E+03	8.365276E-05	4.360618E-06
3.376317E+03	8.511610E-05	4.435541E-06
3.386160E+03	8.660689E-05	4.511842E-06
3.396004E+03	8.814135E-05	4.590365E-06
3.405847E+03	8.968988E-05	4.669566E-06
3.415691E+03	9.126848E-05	4.750278E-06
3.425534E+03	9.287807E-05	4.832546E-06
3.435377E+03	9.453608E-05	4.917275E-06
3.445221E+03	9.621081E-05	5.002815E-06
3.455064E+03	9.791942E-05	5.090055E-06
3.464908E+03	9.966291E-05	5.179047E-06
3.474751E+03	1.014423E-04	5.269841E-06
3.484595E+03	1.032766E-04	5.363423E-06
3.494438E+03	1.051312E-04	5.457993E-06
3.504282E+03	1.070248E-04	5.554520E-06
3.514125E+03	1.089586E-04	5.653063E-06
3.523969E+03	1.109528E-04	5.754665E-06
3.533812E+03	1.129704E-04	5.857409E-06
3.543656E+03	1.150312E-04	5.962323E-06
3.553499E+03	1.171366E-04	6.069471E-06
3.563343E+03	1.192875E-04	6.178897E-06
3.573186E+03	1.215062E-04	6.291756E-06
3.583030E+03	1.237520E-04	6.405935E-06
3.592873E+03	1.260467E-04	6.522560E-06
3.602717E+03	1.283914E-04	6.641689E-06
3.612560E+03	1.308098E-04	6.764543E-06
3.622404E+03	1.332582E-04	6.888856E-06
3.632247E+03	1.357599E-04	7.015832E-06
3.642091E+03	1.383159E-04	7.145524E-06
3.651934E+03	1.409518E-04	7.279243E-06
3.661778E+03	1.436201E-04	7.414536E-06
3.671621E+03	1.463458E-04	7.552694E-06
3.681465E+03	1.491300E-04	7.693768E-06
3.691308E+03	1.519737E-04	7.837802E-06
3.701152E+03	1.549045E-04	7.986225E-06
3.710995E+03	1.578702E-04	8.136334E-06
3.720839E+03	1.608980E-04	8.289532E-06
3.730682E+03	1.639889E-04	8.445860E-06
3.740526E+03	1.671723E-04	8.606837E-06
3.750369E+03	1.703918E-04	8.769553E-06
3.760213E+03	1.736764E-04	8.935491E-06
3.770056E+03	1.770268E-04	9.104693E-06
3.779900E+03	1.804435E-04	9.277174E-06
3.789743E+03	1.839587E-04	9.454590E-06
3.799587E+03	1.875099E-04	9.633719E-06
3.809430E+03	1.911287E-04	9.816185E-06
3.819274E+03	1.948152E-04	1.000199E-05
3.829117E+03	1.986040E-04	1.019290E-05
3.838961E+03	2.024272E-04	1.038543E-05
3.848804E+03	2.063183E-04	1.058130E-05
3.858648E+03	2.102772E-04	1.078049E-05
3.868491E+03	2.143038E-04	1.098300E-05
3.878334E+03	2.184353E-04	1.119073E-05
3.888178E+03	2.225965E-04	1.139981E-05
3.898021E+03	2.268239E-04	1.161213E-05
3.907865E+03	2.311168E-04	1.182764E-05
3.917708E+03	2.354741E-04	1.204627E-05
3.927552E+03	2.399363E-04	1.227011E-05
3.937395E+03	2.444203E-04	1.249488E-05
3.947239E+03	2.489653E-04	1.272259E-05
3.957082E+03	2.535697E-04	1.295317E-05
3.966926E+03	2.582322E-04	1.318652E-05
3.976769E+03	2.629961E-04	1.342488E-05
3.986613E+03	2.677695E-04	1.366354E-05
3.996456E+03	2.725950E-04	1.390466E-05
4.006300E+03	2.774702E-04	1.414813E-05
4.016143E+03	2.823925E-04	1.439382E-05
4.025987E+03	2.874089E-04	1.464410E-05
4.035830E+03	2.924183E-04	1.489383E-05
4.045674E+03	2.974665E-04	1.514535E-05
4.055517E+03	3.025502E-04	1.539846E-05
4.065361E+03	3.076661E-04	1.565303E-05
4.075204E+03	3.128104E-04	1.590883E-05
4.085048E+03	3.180344E-04	1.616849E-05
4.094891E+03	3.232258E-04	1.642628E-05
4.104735E+03	3.284340E-04	1.668473E-05
4.114578E+03	3.336553E-04	1.694364E-05
4.124422E+03	3.388852E-04	1.720277E-05
4.134265E+03	3.441192E-04	1.746192E-05
4.144109E+03	3.493527E-04	1.772083E-05
4.153952E+03	3.546422E-04	1.798238E-05
4.163796E+03	3.598618E-04	1.824018E-05
4.173639E+03	3.650670E-04	1.849704E-05
4.183483E+03	3.702525E-04	1.875271E-05
4.193326E+03	3.754137E-04	1.900694E-05
4.203170E+03	3.805456E-04	1.925949E-05
4.213013E+03	3.856431E-04	1.951010E-05
4.222857E+03	3.907684E-04	1.976192E-05
4.232700E+03	3.957835E-04	2.000796E-05
4.242544E+03	4.007498E-04	2.025135E-05
4.252387E+03	4.056625E-04	2.049183E-05
4.262231E+03	4.105172E-04	2.072920E-05
4.272074E+03	4.153094E-04	2.096323E-05
4.281918E+03	4.200350E-04	2.119371E-05
4.291761E+03	4.246902E-04	2.142045E-05
4.301604E+03	4.292712E-04	2.164328E-05
4.311448E+03	4.337745E-04	2.186202E-05
4.321291E+03	4.382726E-04	2.208033E-05
4.331135E+03	4.426129E-04	2.229051E-05
4.340978E+03	4.468676E-04	2.249622E-05
4.350822E+03	4.510344E-04	2.269736E-05
4.360665E+03	4.551115E-04	2.289382E-05
4.370509E+03	4.590977E-04	2.308555E-05
4.380352E+03	4.629917E-04	2.327251E-05
4.390196E+03	4.667932E-04	2.345467E-05
4.400039E+03	4.705019E-04	2.363203E-05
4.409883E+03	4.741176E-04	2.380459E-05
4.419726E+03	4.776410E-04	2.397238E-05
4.429570E+03	4.810728E-04	2.413544E-05
4.439413E+03	4.844138E-04	2.429382E-05
4.449257E+03	4.876653E-04	2.444759E-05
4.459100E+03	4.908291E-04	2.459685E-05
4.468944E+03	4.939069E-04	2.474169E-05
4.478787E+03	4.969010E-04	2.488221E-05
4.488631E+03	4.998132E-04	2.501854E-05
4.498474E+03	5.026464E-04	2.515079E-05
4.508318E+03	5.054032E-04	2.527912E-05
4.518161E+03	5.080863E-04	2.540367E-05
4.528005E+03	5.106990E-04	2.552460E-05
4.537848E+03	5.132443E-04	2.564207E-05
4.547692E+03	5.157254E-04	2.575623E-05
4.557535E+03	5.181460E-04	2.586728E-05
4.567379E+03	5.205095E-04	2.597540E-05
4.577222E+03	5.228193E-04	2.608075E-05
4.587066E+03	5.250792E-04	2.618352E-05
4.596909E+03	5.272930E-04	2.628391E-05
4.606753E+03	5.294642E-04	2.638210E-05
4.616596E+03	5.315968E-04	2.647829E-05
4.626440E+03	5.336948E-04	2.657267E-05
4.636283E+03	5.357616E-04	2.666543E-05
4.646127E+03	5.378013E-04	2.675676E-05
4.655970E+03	5.397258E-04	2.684228E-05
4.665814E+03	5.417220E-04	2.693130E-05
4.675657E+03	5.437023E-04	2.701946E-05
4.685501E+03	5.456705E-04	2.710694E-05
4.695344E+03	5.476299E-04	2.719391E-05
4.705188E+03	5.495844E-04	2.728057E-05
4.715031E+03	5.515374E-04	2.736707E-05
4.724874E+03	5.534921E-04	2.745360E-05
4.734718E+03	5.554519E-04	2.754030E-05
4.744561E+03	5.573256E-04	2.762266E-05
4.754405E+03	5.593050E-04	2.771019E-05
4.764248E+03	5.612991E-04	2.779837E-05
4.774092E+03	5.633105E-04	2.788734E-05
4.783935E+03	5.653421E-04	2.797724E-05
4.793779E+03	5.673964E-04	2.806818E-05
4.803622E+03	5.693797E-04	2.815554E-05
4.813466E+03	5.714872E-04	2.824896E-05
4.823309E+03	5.736246E-04	2.834379E-05
4.833153E+03	5.757943E-04	2.844013E-05
4.842996E+03	5.779983E-04	2.853808E-05
4.852840E+03	5.801398E-04	2.863287E-05
4.862683E+03	5.824173E-04	2.873430E-05
4.872527E+03	5.847341E-04	2.883757E-05
4.882370E+03	5.870917E-04	2.894278E-05
4.892214E+03	5.894912E-04	2.904997E-05
4.902057E+03	5.918338E-04	2.915426E-05
4.911901E+03	5.943203E-04	2.926556E-05
4.921744E+03	5.968517E-04	2.937898E-05
4.931588E+03	5.994288E-04	2.949455E-05
4.941431E+03	6.019501E-04	2.960729E-05
4.951275E+03	6.046194E-04	2.972722E-05
4.961118E+03	6.073354E-04	2.984935E-05
4.970962E+03	6.100980E-04	2.997367E-05
4.980805E+03	6.128037E-04	3.009510E-05
4.990649E+03	6.156592E-04	3.022379E-05
5.000492E+03	6.185608E-04	3.035464E-05
5.010336E+03	6.214028E-04	3.048246E-05
5.020179E+03	6.243945E-04	3.061753E-05
5.030023E+03	6.274303E-04	3.075465E-05
5.039866E+03	6.304030E-04	3.088858E-05
5.049710E+03	6.335242E-04	3.102968E-05
5.059553E+03	6.366866E-04	3.117269E-05
5.069397E+03	6.397809E-04	3.131226E-05
5.079240E+03	6.430214E-04	3.145887E-05
5.089084E+03	6.462996E-04	3.160722E-05
5.098927E+03	6.495037E-04	3.175184E-05
5.108771E+03	6.528515E-04	3.190337E-05
5.118614E+03	6.562319E-04	3.205638E-05
5.128458E+03	6.595322E-04	3.220537E-05
5.138301E+03	6.629726E-04	3.236108E-05
5.148145E+03	6.663282E-04	3.251255E-05
5.157988E+03	6.698217E-04	3.267064E-05
5.167831E+03	6.733397E-04	3.282980E-05
5.177675E+03	6.767657E-04	3.298437E-05
5.187518E+03	6.803265E-04	3.314540E-05
5.197362E+03	6.837909E-04	3.330162E-05
5.207205E+03	6.873880E-04	3.346419E-05
5.217049E+03	6.908846E-04	3.362176E-05
5.226892E+03	6.945118E-04	3.378557E-05
5.236736E+03	6.980349E-04	3.394421E-05
5.246579E+03	7.016873E-04	3.410903E-05
5.256423E+03	7.053510E-04	3.427428E-05
5.266266E+03	7.089053E-04	3.443412E-05
5.276110E+03	7.125883E-04	3.460009E-05
5.285953E+03	7.161592E-04	3.476052E-05
5.295797E+03	7.198588E-04	3.492710E-05
5.305640E+03	7.234449E-04	3.508805E-05
5.315484E+03	7.271606E-04	3.525520E-05
5.325327E+03	7.307616E-04	3.541668E-05
5.335171E+03	7.344939E-04	3.558442E-05
5.345014E+03	7.381114E-04	3.574650E-05
5.354858E+03	7.417377E-04	3.590891E-05
5.364701E+03	7.454997E-04	3.607779E-05
5.374545E+03	7.491475E-04	3.624105E-05
5.384388E+03	7.529341E-04	3.641093E-05
5.394232E+03	7.566076E-04	3.657525E-05
5.404075E+03	7.604230E-04	3.674633E-05
5.413919E+03	7.641250E-04	3.691184E-05
5.423762E+03	7.679701E-04	3.708418E-05
5.433606E+03	7.716991E-04	3.725081E-05
5.443449E+03	7.754393E-04	3.741791E-05
5.453293E+03	7.793208E-04	3.759173E-05
5.463136E+03	7.830806E-04	3.775959E-05
5.472980E+03	7.869803E-04	3.793412E-05
5.482823E+03	7.907547E-04	3.810251E-05
5.492667E+03	7.945344E-04	3.827109E-05
5.502510E+03	7.984537E-04	3.844629E-05
5.512354E+03	8.022435E-04	3.861518E-05
5.522197E+03	8.060370E-04	3.878416E-05
5.532041E+03	8.099709E-04	3.895981E-05
5.541884E+03	8.137729E-04	3.912904E-05
5.551728E+03	8.175794E-04	3.929839E-05
5.561571E+03	8.215288E-04	3.947453E-05
5.571415E+03	8.253462E-04	3.964425E-05
5.581258E+03	8.291699E-04	3.981419E-05
5.591101E+03	8.331413E-04	3.999114E-05
5.600945E+03	8.369823E-04	4.016174E-05
5.610788E+03	8.408334E-04	4.033276E-05
5.620632E+03	8.448387E-04	4.051108E-05
5.630475E+03	8.487164E-04	4.068321E-05
5.640319E+03	8.526096E-04	4.085601E-05
5.650162E+03	8.565208E-04	4.102958E-05
5.660006E+03	8.605966E-04	4.121096E-05
5.669849E+03	8.645504E-04	4.138642E-05
5.679693E+03	8.685288E-04	4.156298E-05
5.689536E+03	8.725339E-04	4.174074E-05
5.699380E+03	8.767161E-04	4.192689E-05
5.709223E+03	8.807830E-04	4.210745E-05
5.719067E+03	8.848845E-04	4.228959E-05
5.728910E+03	8.890227E-04	4.247339E-05
5.738754E+03	8.933504E-04	4.266618E-05
5.748597E+03	8.975703E-04	4.285373E-05
5.758441E+03	9.018343E-04	4.304331E-05
5.768284E+03	9.061446E-04	4.323503E-05
5.778128E+03	9.105037E-04	4.342899E-05
5.787971E+03	9.150676E-04	4.363264E-05
5.797815E+03	9.195312E-04	4.383143E-05
5.807658E+03	9.240498E-04	4.403276E-05
5.817502E+03	9.286249E-04	4.423671E-05
5.827345E+03	9.332586E-04	4.444336E-05
5.837189E+03	9.379519E-04	4.465277E-05
5.847032E+03	9.428650E-04	4.487256E-05
5.856876E+03	9.476824E-04	4.508772E-05
5.866719E+03	9.525634E-04	4.530582E-05
5.876563E+03	9.575082E-04	4.552687E-05
5.886406E+03	9.625174E-04	4.575091E-05
5.896250E+03	9.675913E-04	4.597793E-05
5.906093E+03	9.727299E-04	4.620796E-05
5.915937E+03	9.780976E-04	4.644878E-05
5.925780E+03	9.833657E-04	4.668479E-05
5.935624E+03	9.886973E-04	4.692373E-05
5.945467E+03	9.940910E-04	4.716554E-05
5.955311E+03	9.995457E-04	4.741016E-05
5.965154E+03	1.005060E-03	4.765752E-05
5.974998E+03	1.010631E-03	4.790752E-05
5.984841E+03	1.016258E-03	4.816007E-05
5.994685E+03	1.021938E-03	4.841504E-05
6.004528E+03	1.027667E-03	4.867229E-05
6.014371E+03	1.033443E-03	4.893169E-05
6.024215E+03	1.039263E-03	4.919308E-05
6.034058E+03	1.045122E-03	4.945626E-05
6.043902E+03	1.051017E-03	4.972105E-05
6.053745E+03	1.057120E-03	4.999566E-05
6.063589E+03	1.063074E-03	5.026309E-05
6.073432E+03	1.069049E-03	5.053148E-05
6.083276E+03	1.075040E-03	5.080058E-05
6.093119E+03	1.081042E-03	5.107012E-05
6.102963E+03	1.087048E-03	5.133983E-05
6.112806E+03	1.093054E-03	5.160944E-05
6.122650E+03	1.099051E-03	5.187863E-05
6.132493E+03	1.105035E-03	5.214711E-05
6.142337E+03	1.110997E-03	5.241456E-05
6.152180E+03	1.116932E-03	5.268064E-05
6.162024E+03	1.122831E-03	5.294504E-05
6.171867E+03	1.128498E-03	5.319845E-05
6.181711E+03	1.134303E-03	5.345839E-05
6.191554E+03	1.140051E-03	5.371558E-05
6.201398E+03	1.145734E-03	5.396969E-05
6.211241E+03	1.151343E-03	5.422034E-05
6.221085E+03	1.156872E-03	5.446720E-05
6.230928E+03	1.162312E-03	5.470990E-05
6.240772E+03	1.167656E-03	5.494808E-05
6.250615E+03	1.172896E-03	5.518139E-05
6.260459E+03	1.178026E-03	5.540953E-05
6.270302E+03	1.183037E-03	5.563212E-05
6.280146E+03	1.187923E-03	5.584885E-05
6.289989E+03	1.192677E-03	5.605944E-05
6.299833E+03	1.197292E-03	5.626357E-05
6.309676E+03	1.201764E-03	5.646100E-05
6.319520E+03	1.205883E-03	5.664193E-05
6.329363E+03	1.210049E-03	5.682517E-05
6.339207E+03	1.214057E-03	5.700101E-05
6.349050E+03	1.217901E-03	5.716929E-05
6.358894E+03	1.221579E-03	5.732986E-05
6.368737E+03	1.225088E-03	5.748261E-05
6.378581E+03	1.228426E-03	5.762746E-05
6.388424E+03	1.231592E-03	5.776436E-05
6.398268E+03	1.234378E-03	5.788356E-05
6.408111E+03	1.237199E-03	5.800452E-05
6.417955E+03	1.239847E-03	5.811753E-05
6.427798E+03	1.242324E-03	5.822263E-05
6.437642E+03	1.244627E-03	5.831976E-05
6.447485E+03	1.246754E-03	5.840881E-05
6.457328E+03	1.248492E-03	5.847982E-05
6.467172E+03	1.250260E-03	5.855234E-05
6.477015E+03	1.251844E-03	5.861644E-05
6.486859E+03	1.253243E-03	5.867205E-05
6.496702E+03	1.254457E-03	5.871914E-05
6.506546E+03	1.255274E-03	5.874782E-05
6.516389E+03	1.256117E-03	5.877790E-05
6.526233E+03	1.256776E-03	5.879956E-05
6.536076E+03	1.257254E-03	5.881291E-05
6.545920E+03	1.257553E-03	5.881806E-05
6.555763E+03	1.257465E-03	5.880530E-05
6.565607E+03	1.257418E-03	5.879460E-05
6.575450E+03	1.257203E-03	5.877627E-05
6.585294E+03	1.256827E-03	5.875056E-05
6.595137E+03	1.256083E-03	5.870783E-05
6.604981E+03	1.255400E-03	5.866815E-05
6.614824E+03	1.254572E-03	5.862191E-05
6.624668E+03	1.253607E-03	5.856941E-05
6.634511E+03	1.252301E-03	5.850114E-05
6.644355E+03	1.251081E-03	5.843714E-05
6.654198E+03	1.249746E-03	5.836789E-05
6.664042E+03	1.248301E-03	5.829373E-05
6.673885E+03	1.246545E-03	5.820523E-05
6.683729E+03	1.244907E-03	5.812238E-05
6.693572E+03	1.243182E-03	5.803571E-05
6.703416E+03	1.241381E-03	5.794560E-05
6.713259E+03	1.239300E-03	5.784268E-05
6.723103E+03	1.237367E-03	5.774680E-05
6.732946E+03	1.235380E-03	5.764860E-05
6.742790E+03	1.233139E-03	5.753872E-05
6.752633E+03	1.231068E-03	5.743694E-05
6.762477E+03	1.228966E-03	5.733390E-05
6.772320E+03	1.226634E-03	5.722031E-05
6.782164E+03	1.224493E-03	5.711582E-05
6.792007E+03	1.222343E-03	5.701110E-05
6.801851E+03	1.219987E-03	5.689688E-05
6.811694E+03	1.217841E-03	5.679270E-05
6.821538E+03	1.215708E-03	5.668924E-05
6.831381E+03	1.213388E-03	5.657730E-05
6.841225E+03	1.211299E-03	5.647622E-05
6.851068E+03	1.209240E-03	5.637676E-05
6.860912E+03	1.207015E-03	5.626970E-05
6.870755E+03	1.205035E-03	5.617426E-05
6.880598E+03	1.203104E-03	5.608124E-05
6.890442E+03	1.201022E-03	5.598139E-05
6.900285E+03	1.199202E-03	5.589387E-05
6.910129E+03	1.197242E-03	5.580000E-05
6.919972E+03	1.195551E-03	5.571884E-05
6.929816E+03	1.193931E-03	5.564116E-05
6.939659E+03	1.192185E-03	5.555777E-05
6.949503E+03	1.190719E-03	5.548758E-05
6.959346E+03	1.189335E-03	5.542137E-05
6.969190E+03	1.187836E-03	5.534996E-05
6.979033E+03	1.186626E-03	5.529216E-05
6.988877E+03	1.185306E-03	5.522943E-05
6.998720E+03	1.184280E-03	5.518054E-05
7.008564E+03	1.183149E-03	5.512694E-05
7.018407E+03	1.182315E-03	5.508736E-05
7.028251E+03	1.181581E-03	5.505255E-05
7.038094E+03	1.180748E-03	5.501330E-05
7.047938E+03	1.180215E-03	5.498823E-05
7.057781E+03	1.179586E-03	5.495883E-05
7.067625E+03	1.179260E-03	5.494369E-05
7.077468E+03	1.178839E-03	5.492428E-05
7.087312E+03	1.178721E-03	5.491916E-05
7.097155E+03	1.178706E-03	5.491907E-05
7.106999E+03	1.178597E-03	5.491471E-05
7.116842E+03	1.178790E-03	5.492461E-05
7.126686E+03	1.178887E-03	5.493020E-05
7.136529E+03	1.179285E-03	5.494998E-05
7.146373E+03	1.179585E-03	5.496536E-05
7.156216E+03	1.180183E-03	5.499481E-05
7.166060E+03	1.180679E-03	5.501971E-05
7.175903E+03	1.181471E-03	5.505855E-05
7.185747E+03	1.182157E-03	5.509265E-05
7.195590E+03	1.183134E-03	5.514050E-05
7.205434E+03	1.184000E-03	5.518337E-05
7.215277E+03	1.185152E-03	5.523976E-05
7.225121E+03	1.186187E-03	5.529090E-05
7.234964E+03	1.187503E-03	5.535529E-05
7.244808E+03	1.188694E-03	5.541409E-05
7.254651E+03	1.190159E-03	5.548584E-05
7.264495E+03	1.191491E-03	5.555161E-05
7.274338E+03	1.193089E-03	5.562999E-05
7.284182E+03	1.194546E-03	5.570198E-05
7.294025E+03	1.196260E-03	5.578618E-05
7.303868E+03	1.197822E-03	5.586351E-05
7.313712E+03	1.199429E-03	5.594315E-05
7.323555E+03	1.201278E-03	5.603433E-05
7.333399E+03	1.202959E-03	5.611786E-05
7.343242E+03	1.204871E-03	5.621241E-05
7.353086E+03	1.206601E-03	5.629871E-05
7.362929E+03	1.208551E-03	5.639550E-05
7.372773E+03	1.210305E-03	5.648341E-05
7.382616E+03	1.212266E-03	5.658121E-05
7.392460E+03	1.214017E-03	5.666943E-05
7.402303E+03	1.215755E-03	5.675731E-05
7.412147E+03	1.217678E-03	5.685410E-05
7.421990E+03	1.219367E-03	5.694022E-05
7.431834E+03	1.221227E-03	5.703455E-05
7.441677E+03	1.222835E-03	5.711741E-05
7.451521E+03	1.224390E-03	5.719805E-05
7.461364E+03	1.226091E-03	5.728577E-05
7.471208E+03	1.227514E-03	5.736078E-05
7.481051E+03	1.229065E-03	5.744205E-05
7.490895E+03	1.230319E-03	5.750973E-05
7.500738E+03	1.231475E-03	5.757309E-05
7.510582E+03	1.232732E-03	5.764145E-05
7.520425E+03	1.233662E-03	5.769484E-05
7.530269E+03	1.234466E-03	5.774256E-05
7.540112E+03	1.235342E-03	5.779396E-05
7.549956E+03	1.235861E-03	5.782899E-05
7.559799E+03	1.236434E-03	5.786679E-05
7.569643E+03	1.236630E-03	5.788725E-05
7.579486E+03	1.236650E-03	5.789974E-05
7.589330E+03	1.236693E-03	5.791361E-05
7.599173E+03	1.236330E-03	5.790875E-05
7.609017E+03	1.235761E-03	5.789454E-05
7.618860E+03	1.235186E-03	5.788032E-05
7.628704E+03	1.234176E-03	5.784602E-05
7.638547E+03	1.232932E-03	5.780102E-05
