#wls	flux	fluxerr
1.590552E+03	3.198382E-04	2.547686E-05
1.630316E+03	3.341221E-04	2.653769E-05
1.670080E+03	3.487924E-04	2.762082E-05
1.709844E+03	3.641469E-04	2.874922E-05
1.749607E+03	3.799956E-04	2.990721E-05
1.789371E+03	3.966518E-04	3.111873E-05
1.829135E+03	4.141772E-04	3.238772E-05
1.868899E+03	4.323360E-04	3.369484E-05
1.908663E+03	4.517468E-04	3.508733E-05
1.948426E+03	4.718773E-04	3.652266E-05
1.988190E+03	4.931221E-04	3.803032E-05
2.027954E+03	5.157013E-04	3.962596E-05
2.067718E+03	5.403456E-04	4.136397E-05
2.107482E+03	5.671972E-04	4.325300E-05
2.147245E+03	5.964850E-04	4.530802E-05
2.187009E+03	6.284511E-04	4.754467E-05
2.226773E+03	6.622594E-04	4.989696E-05
2.266537E+03	6.975727E-04	5.233730E-05
2.306301E+03	7.337346E-04	5.481464E-05
2.346064E+03	7.686728E-04	5.717339E-05
2.385828E+03	8.021878E-04	5.939941E-05
2.425592E+03	8.331508E-04	6.141034E-05
2.465356E+03	8.612659E-04	6.318655E-05
2.505120E+03	8.871883E-04	6.477837E-05
2.544883E+03	9.112583E-04	6.621240E-05
2.584647E+03	9.353854E-04	6.762832E-05
2.624411E+03	9.612277E-04	6.914497E-05
2.664175E+03	9.886874E-04	7.075312E-05
2.703939E+03	1.017106E-03	7.240372E-05
2.743702E+03	1.044610E-03	7.396258E-05
2.783466E+03	1.070692E-03	7.539478E-05
2.823230E+03	1.095276E-03	7.669633E-05
2.862994E+03	1.118654E-03	7.788907E-05
2.902758E+03	1.140956E-03	7.898312E-05
2.942521E+03	1.163384E-03	8.006241E-05
2.982285E+03	1.187188E-03	8.121205E-05
2.992226E+03	1.193411E-03	8.151414E-05
3.002167E+03	1.199460E-03	8.180273E-05
3.012108E+03	1.206179E-03	8.213531E-05
3.022049E+03	1.212734E-03	8.245506E-05
3.031990E+03	1.219552E-03	8.279098E-05
3.041931E+03	1.226640E-03	8.314337E-05
3.051872E+03	1.233996E-03	8.351211E-05
3.061813E+03	1.241213E-03	8.386962E-05
3.071754E+03	1.249104E-03	8.427073E-05
3.081695E+03	1.257258E-03	8.468757E-05
3.091636E+03	1.265673E-03	8.511989E-05
3.101577E+03	1.274345E-03	8.556736E-05
3.111518E+03	1.283269E-03	8.602957E-05
3.121459E+03	1.292440E-03	8.650614E-05
3.131399E+03	1.302246E-03	8.702278E-05
3.141340E+03	1.311894E-03	8.752649E-05
3.151281E+03	1.322158E-03	8.806886E-05
3.161222E+03	1.333023E-03	8.864868E-05
3.171163E+03	1.344093E-03	8.923945E-05
3.181104E+03	1.355358E-03	8.984047E-05
3.191045E+03	1.367187E-03	9.047609E-05
3.200986E+03	1.379564E-03	9.114499E-05
3.210927E+03	1.392096E-03	9.182120E-05
3.220868E+03	1.405146E-03	9.252840E-05
3.230809E+03	1.418693E-03	9.326520E-05
3.240750E+03	1.432719E-03	9.403022E-05
3.250691E+03	1.447207E-03	9.482207E-05
3.260632E+03	1.462135E-03	9.563932E-05
3.270573E+03	1.477125E-03	9.645699E-05
3.280514E+03	1.493241E-03	9.734456E-05
3.290455E+03	1.509382E-03	9.822989E-05
3.300396E+03	1.526247E-03	9.915846E-05
3.310337E+03	1.543462E-03	1.001058E-04
3.320278E+03	1.561366E-03	1.010936E-04
3.330219E+03	1.579943E-03	1.021207E-04
3.340159E+03	1.598834E-03	1.031637E-04
3.350100E+03	1.618376E-03	1.042442E-04
3.360041E+03	1.638556E-03	1.053612E-04
3.369982E+03	1.659683E-03	1.065342E-04
3.379923E+03	1.681022E-03	1.077159E-04
3.389864E+03	1.703170E-03	1.089443E-04
3.399805E+03	1.725699E-03	1.101919E-04
3.409746E+03	1.748877E-03	1.114756E-04
3.419687E+03	1.772348E-03	1.127727E-04
3.429628E+03	1.796451E-03	1.141044E-04
3.439569E+03	1.821196E-03	1.154713E-04
3.449510E+03	1.846894E-03	1.168928E-04
3.459451E+03	1.872834E-03	1.183236E-04
3.469392E+03	1.899495E-03	1.197939E-04
3.479333E+03	1.926314E-03	1.212681E-04
3.489274E+03	1.953318E-03	1.227478E-04
3.499215E+03	1.980207E-03	1.242141E-04
3.509156E+03	2.006416E-03	1.256316E-04
3.519097E+03	2.032401E-03	1.270292E-04
3.529038E+03	2.057846E-03	1.283872E-04
3.538978E+03	2.082929E-03	1.297168E-04
3.548919E+03	2.108270E-03	1.310568E-04
3.558860E+03	2.133980E-03	1.324139E-04
3.568801E+03	2.160733E-03	1.338298E-04
3.578742E+03	2.188485E-03	1.353014E-04
3.588683E+03	2.217739E-03	1.368594E-04
3.598624E+03	2.247460E-03	1.384396E-04
3.608565E+03	2.277285E-03	1.400195E-04
3.618506E+03	2.305343E-03	1.414843E-04
3.628447E+03	2.330523E-03	1.427665E-04
3.638388E+03	2.350750E-03	1.437402E-04
3.648329E+03	2.364316E-03	1.443029E-04
3.658270E+03	2.369842E-03	1.443729E-04
3.668211E+03	2.366460E-03	1.439000E-04
3.678152E+03	2.353955E-03	1.428743E-04
3.688093E+03	2.333039E-03	1.413421E-04
3.698034E+03	2.304353E-03	1.393448E-04
3.707975E+03	2.269910E-03	1.370068E-04
3.717916E+03	2.231338E-03	1.344279E-04
3.727857E+03	2.190615E-03	1.317285E-04
3.737797E+03	2.149865E-03	1.290369E-04
3.747738E+03	2.110508E-03	1.264381E-04
3.757679E+03	2.074529E-03	1.240504E-04
3.767620E+03	2.043014E-03	1.219375E-04
3.777561E+03	2.017563E-03	1.201931E-04
3.787502E+03	1.999298E-03	1.188820E-04
3.797443E+03	1.988961E-03	1.180458E-04
3.807384E+03	1.987843E-03	1.177583E-04
3.817325E+03	1.996684E-03	1.180604E-04
3.827266E+03	2.016235E-03	1.189928E-04
3.837207E+03	2.047049E-03	1.205848E-04
3.847148E+03	2.089621E-03	1.228618E-04
3.857089E+03	2.143965E-03	1.258206E-04
3.867030E+03	2.210017E-03	1.294537E-04
3.876971E+03	2.287620E-03	1.337483E-04
3.886912E+03	2.376086E-03	1.386601E-04
3.896853E+03	2.474722E-03	1.441457E-04
3.906794E+03	2.582101E-03	1.501187E-04
3.916735E+03	2.697219E-03	1.565181E-04
3.926676E+03	2.818036E-03	1.632234E-04
3.936616E+03	2.942553E-03	1.701172E-04
3.946557E+03	3.068756E-03	1.770824E-04
3.956498E+03	3.194399E-03	1.839891E-04
3.966439E+03	3.317068E-03	1.906989E-04
3.976380E+03	3.434759E-03	1.970980E-04
3.986321E+03	3.545486E-03	2.030744E-04
3.996262E+03	3.647380E-03	2.085235E-04
4.006203E+03	3.739332E-03	2.133852E-04
4.016144E+03	3.820747E-03	2.176287E-04
4.026085E+03	3.891043E-03	2.212246E-04
4.036026E+03	3.950668E-03	2.242018E-04
4.045967E+03	4.000299E-03	2.266023E-04
4.055908E+03	4.040983E-03	2.284884E-04
4.065849E+03	4.073380E-03	2.299003E-04
4.075790E+03	4.098078E-03	2.308737E-04
4.085731E+03	4.115492E-03	2.314345E-04
4.095672E+03	4.125365E-03	2.315707E-04
4.105613E+03	4.127490E-03	2.312729E-04
4.115554E+03	4.121225E-03	2.305076E-04
4.125495E+03	4.106318E-03	2.292634E-04
4.135436E+03	4.082735E-03	2.275411E-04
4.145376E+03	4.050308E-03	2.253338E-04
4.155317E+03	4.009768E-03	2.226848E-04
4.165258E+03	3.961584E-03	2.196226E-04
4.175199E+03	3.907198E-03	2.162290E-04
4.185140E+03	3.847527E-03	2.125565E-04
4.195081E+03	3.784479E-03	2.087119E-04
4.205022E+03	3.719478E-03	2.047744E-04
4.214963E+03	3.654481E-03	2.008520E-04
4.224904E+03	3.590954E-03	1.970252E-04
4.234845E+03	3.530706E-03	1.933925E-04
4.244786E+03	3.475059E-03	1.900252E-04
4.254727E+03	3.425355E-03	1.869952E-04
4.264668E+03	3.382538E-03	1.843524E-04
4.274609E+03	3.347646E-03	1.821512E-04
4.284550E+03	3.321120E-03	1.804136E-04
4.294491E+03	3.303484E-03	1.791656E-04
4.304432E+03	3.294611E-03	1.783982E-04
4.314373E+03	3.294138E-03	1.780893E-04
4.324314E+03	3.301274E-03	1.781943E-04
4.334255E+03	3.314943E-03	1.786532E-04
4.344195E+03	3.334240E-03	1.794159E-04
4.354136E+03	3.358086E-03	1.804231E-04
4.364077E+03	3.385762E-03	1.816351E-04
4.374018E+03	3.416743E-03	1.830232E-04
4.383959E+03	3.450925E-03	1.845811E-04
4.393900E+03	3.488565E-03	1.863220E-04
4.403841E+03	3.529809E-03	1.882529E-04
4.413782E+03	3.574910E-03	1.903869E-04
4.423723E+03	3.624075E-03	1.927341E-04
4.433664E+03	3.677513E-03	1.953050E-04
4.443605E+03	3.735257E-03	1.981005E-04
4.453546E+03	3.797947E-03	2.011537E-04
4.463487E+03	3.866147E-03	2.044936E-04
4.473428E+03	3.941168E-03	2.081885E-04
4.483369E+03	4.024387E-03	2.123098E-04
4.493310E+03	4.117446E-03	2.169426E-04
4.503251E+03	4.221602E-03	2.221514E-04
4.513192E+03	4.337723E-03	2.279799E-04
4.523133E+03	4.465873E-03	2.344294E-04
4.533074E+03	4.604724E-03	2.414285E-04
4.543014E+03	4.751811E-03	2.488464E-04
4.552955E+03	4.903040E-03	2.564679E-04
4.562896E+03	5.052902E-03	2.640050E-04
4.572837E+03	5.195161E-03	2.711327E-04
4.582778E+03	5.322962E-03	2.774956E-04
4.592719E+03	5.429655E-03	2.827501E-04
4.602660E+03	5.509469E-03	2.866001E-04
4.612601E+03	5.558479E-03	2.888462E-04
4.622542E+03	5.574337E-03	2.893718E-04
4.632483E+03	5.557018E-03	2.881809E-04
4.642424E+03	5.508010E-03	2.853557E-04
4.652365E+03	5.430639E-03	2.810733E-04
4.662306E+03	5.328954E-03	2.755469E-04
4.672247E+03	5.208072E-03	2.690441E-04
4.682188E+03	5.073195E-03	2.618360E-04
4.692129E+03	4.929537E-03	2.541928E-04
4.702070E+03	4.782135E-03	2.463750E-04
4.712011E+03	4.635548E-03	2.386172E-04
4.721952E+03	4.493924E-03	2.311322E-04
4.731893E+03	4.360715E-03	2.240963E-04
4.741834E+03	4.238794E-03	2.176557E-04
4.751774E+03	4.130786E-03	2.119431E-04
4.761715E+03	4.038661E-03	2.070576E-04
4.771656E+03	3.964273E-03	2.030921E-04
4.781597E+03	3.909138E-03	2.001218E-04
4.791538E+03	3.874339E-03	1.981999E-04
4.801479E+03	3.860528E-03	1.973574E-04
4.811420E+03	3.867593E-03	1.975862E-04
4.821361E+03	3.894309E-03	1.988219E-04
4.831302E+03	3.938703E-03	2.009617E-04
4.841243E+03	3.997948E-03	2.038601E-04
4.851184E+03	4.068616E-03	2.073411E-04
4.861125E+03	4.147122E-03	2.112213E-04
4.871066E+03	4.229856E-03	2.153166E-04
4.881007E+03	4.313605E-03	2.194633E-04
4.890948E+03	4.395824E-03	2.235324E-04
4.900889E+03	4.474816E-03	2.274378E-04
4.910830E+03	4.549597E-03	2.311302E-04
4.920771E+03	4.620015E-03	2.346024E-04
4.930712E+03	4.686446E-03	2.378740E-04
4.940653E+03	4.749370E-03	2.409698E-04
4.950593E+03	4.809248E-03	2.439137E-04
4.960534E+03	4.866305E-03	2.467175E-04
4.970475E+03	4.919970E-03	2.493526E-04
4.980416E+03	4.969035E-03	2.517582E-04
4.990357E+03	5.011329E-03	2.538248E-04
5.000298E+03	5.043965E-03	2.554067E-04
5.010239E+03	5.063512E-03	2.563306E-04
5.020180E+03	5.067141E-03	2.564541E-04
5.030121E+03	5.053017E-03	2.556850E-04
5.040062E+03	5.020973E-03	2.540152E-04
5.050003E+03	4.972733E-03	2.515326E-04
5.059944E+03	4.911985E-03	2.484239E-04
5.069885E+03	4.843801E-03	2.449456E-04
5.079826E+03	4.774072E-03	2.413957E-04
5.089767E+03	4.708653E-03	2.380699E-04
5.099708E+03	4.652983E-03	2.352430E-04
5.109649E+03	4.611345E-03	2.331313E-04
5.119590E+03	4.587041E-03	2.319015E-04
5.129531E+03	4.581754E-03	2.316388E-04
5.139472E+03	4.595795E-03	2.323589E-04
5.149412E+03	4.628085E-03	2.340074E-04
5.159353E+03	4.676254E-03	2.364649E-04
5.169294E+03	4.737122E-03	2.395711E-04
5.179235E+03	4.807000E-03	2.431398E-04
5.189176E+03	4.882106E-03	2.469803E-04
5.199117E+03	4.958780E-03	2.509077E-04
5.209058E+03	5.034099E-03	2.547747E-04
5.218999E+03	5.105857E-03	2.584698E-04
5.228940E+03	5.172663E-03	2.619228E-04
5.238881E+03	5.233923E-03	2.651037E-04
5.248822E+03	5.289713E-03	2.680165E-04
5.258763E+03	5.340526E-03	2.706861E-04
5.268704E+03	5.387254E-03	2.731579E-04
5.278645E+03	5.430550E-03	2.754649E-04
5.288586E+03	5.471169E-03	2.776455E-04
5.298527E+03	5.509180E-03	2.797032E-04
5.308468E+03	5.544550E-03	2.816366E-04
5.318409E+03	5.576801E-03	2.834211E-04
5.328350E+03	5.605353E-03	2.850275E-04
5.338291E+03	5.629680E-03	2.864287E-04
5.348232E+03	5.649515E-03	2.876110E-04
5.358172E+03	5.664979E-03	2.885803E-04
5.368113E+03	5.676719E-03	2.893693E-04
5.378054E+03	5.685808E-03	2.900326E-04
5.387995E+03	5.693628E-03	2.906404E-04
5.397936E+03	5.701869E-03	2.912791E-04
5.407877E+03	5.712136E-03	2.920309E-04
5.417818E+03	5.725980E-03	2.929756E-04
5.427759E+03	5.744973E-03	2.941941E-04
5.437700E+03	5.770736E-03	2.957706E-04
5.447641E+03	5.804988E-03	2.977941E-04
5.457582E+03	5.849734E-03	3.003691E-04
5.467523E+03	5.905359E-03	3.035172E-04
5.477464E+03	5.967470E-03	3.070142E-04
5.487405E+03	6.030540E-03	3.105765E-04
5.497346E+03	6.088423E-03	3.138877E-04
5.507287E+03	6.134615E-03	3.166112E-04
5.517228E+03	6.162589E-03	3.184081E-04
5.527169E+03	6.166328E-03	3.189638E-04
5.537110E+03	6.141212E-03	3.180347E-04
5.547051E+03	6.084616E-03	3.154792E-04
5.556991E+03	5.996124E-03	3.112696E-04
5.566932E+03	5.878110E-03	3.055226E-04
5.576873E+03	5.735351E-03	2.984804E-04
5.586814E+03	5.574591E-03	2.904889E-04
5.596755E+03	5.403983E-03	2.819691E-04
5.606696E+03	5.231946E-03	2.733581E-04
5.616637E+03	5.066055E-03	2.650510E-04
5.626578E+03	4.912415E-03	2.573682E-04
5.636519E+03	4.775190E-03	2.505302E-04
5.646460E+03	4.656393E-03	2.446458E-04
5.656401E+03	4.555766E-03	2.397049E-04
5.666342E+03	4.471190E-03	2.355997E-04
5.676283E+03	4.398712E-03	2.321247E-04
5.686224E+03	4.333108E-03	2.290065E-04
5.696165E+03	4.268897E-03	2.259561E-04
5.706106E+03	4.201291E-03	2.227199E-04
5.716047E+03	4.127405E-03	2.191435E-04
5.725988E+03	4.046635E-03	2.151928E-04
5.735929E+03	3.961184E-03	2.109833E-04
5.745870E+03	3.875585E-03	2.067552E-04
5.755810E+03	3.796243E-03	2.028502E-04
5.765751E+03	3.730125E-03	1.996428E-04
5.775692E+03	3.684038E-03	1.975010E-04
5.785633E+03	3.664191E-03	1.967632E-04
5.795574E+03	3.675570E-03	1.977046E-04
5.805515E+03	3.721909E-03	2.005347E-04
5.815456E+03	3.805574E-03	2.053908E-04
5.825397E+03	3.927398E-03	2.123282E-04
5.835338E+03	4.086618E-03	2.213164E-04
5.845279E+03	4.280399E-03	2.322123E-04
5.855220E+03	4.503695E-03	2.447518E-04
5.865161E+03	4.749083E-03	2.585394E-04
5.875102E+03	5.006683E-03	2.730432E-04
5.885043E+03	5.264766E-03	2.876262E-04
5.894984E+03	5.510852E-03	3.016060E-04
5.904925E+03	5.732829E-03	3.143153E-04
5.914866E+03	5.920199E-03	3.251708E-04
5.924807E+03	6.065638E-03	3.337595E-04
5.934748E+03	6.165323E-03	3.398584E-04
5.944689E+03	6.219232E-03	3.434525E-04
5.954630E+03	6.230852E-03	3.447211E-04
5.964570E+03	6.206000E-03	3.439737E-04
5.974511E+03	6.152041E-03	3.416081E-04
5.984452E+03	6.076709E-03	3.380454E-04
5.994393E+03	5.987497E-03	3.336964E-04
6.004334E+03	5.891025E-03	3.289265E-04
6.014275E+03	5.793009E-03	3.240527E-04
6.024216E+03	5.697892E-03	3.193234E-04
6.034157E+03	5.608927E-03	3.149219E-04
6.044098E+03	5.528508E-03	3.109848E-04
6.054039E+03	5.457958E-03	3.075889E-04
6.063980E+03	5.398059E-03	3.047814E-04
6.073921E+03	5.349067E-03	3.025800E-04
6.083862E+03	5.310918E-03	3.009844E-04
6.093803E+03	5.283234E-03	2.999765E-04
6.103744E+03	5.265276E-03	2.995175E-04
6.113685E+03	5.255977E-03	2.995495E-04
6.123626E+03	5.253801E-03	2.999877E-04
6.133567E+03	5.256754E-03	3.007200E-04
6.143508E+03	5.262577E-03	3.016186E-04
6.153449E+03	5.268993E-03	3.025537E-04
6.163389E+03	5.274117E-03	3.034168E-04
6.173330E+03	5.276443E-03	3.041208E-04
6.183271E+03	5.275175E-03	3.046187E-04
6.193212E+03	5.269842E-03	3.048820E-04
6.203153E+03	5.260210E-03	3.048957E-04
6.213094E+03	5.245655E-03	3.046222E-04
6.223035E+03	5.225200E-03	3.040029E-04
6.232976E+03	5.197266E-03	3.029438E-04
6.242917E+03	5.160172E-03	3.013443E-04
6.252858E+03	5.112430E-03	2.991141E-04
6.262799E+03	5.053005E-03	2.961892E-04
6.272740E+03	4.981481E-03	2.925410E-04
6.282681E+03	4.898317E-03	2.881927E-04
6.292622E+03	4.804714E-03	2.832112E-04
6.302563E+03	4.702360E-03	2.776926E-04
6.312504E+03	4.593593E-03	2.717723E-04
6.322445E+03	4.481129E-03	2.656091E-04
6.332386E+03	4.368042E-03	2.593844E-04
6.342327E+03	4.257717E-03	2.532993E-04
6.352268E+03	4.153772E-03	2.475702E-04
6.362208E+03	4.060196E-03	2.424374E-04
6.372149E+03	3.980974E-03	2.381428E-04
6.382090E+03	3.920323E-03	2.349436E-04
6.392031E+03	3.882403E-03	2.330957E-04
6.401972E+03	3.871080E-03	2.328392E-04
6.411913E+03	3.890197E-03	2.344141E-04
6.421854E+03	3.943117E-03	2.380336E-04
6.431795E+03	4.032803E-03	2.438879E-04
6.441736E+03	4.161759E-03	2.521405E-04
6.451677E+03	4.331449E-03	2.628933E-04
6.461618E+03	4.542298E-03	2.761852E-04
6.471559E+03	4.793406E-03	2.919748E-04
6.481500E+03	5.082239E-03	3.101205E-04
6.491441E+03	5.404568E-03	3.303759E-04
6.501382E+03	5.754038E-03	3.523627E-04
6.511323E+03	6.122369E-03	3.755815E-04
6.521264E+03	6.499238E-03	3.994039E-04
6.531205E+03	6.872967E-03	4.231135E-04
6.541146E+03	7.230894E-03	4.459284E-04
6.551087E+03	7.559957E-03	4.670360E-04
6.561027E+03	7.848174E-03	4.856855E-04
6.570968E+03	8.084799E-03	5.011974E-04
6.580909E+03	8.261862E-03	5.130597E-04
6.590850E+03	8.374367E-03	5.209425E-04
6.600791E+03	8.420571E-03	5.247163E-04
6.610732E+03	8.402233E-03	5.244696E-04
6.620673E+03	8.323562E-03	5.204448E-04
6.630614E+03	8.191143E-03	5.130352E-04
6.640555E+03	8.012753E-03	5.027116E-04
6.650496E+03	7.797134E-03	4.900088E-04
6.660437E+03	7.553171E-03	4.754743E-04
6.670378E+03	7.289420E-03	4.596390E-04
6.680319E+03	7.014057E-03	4.430129E-04
6.690260E+03	6.734206E-03	4.260435E-04
6.700201E+03	6.456381E-03	4.091423E-04
6.710142E+03	6.185952E-03	3.926507E-04
6.720083E+03	5.927818E-03	3.768829E-04
6.730024E+03	5.685911E-03	3.620933E-04
6.739965E+03	5.463590E-03	3.485014E-04
6.749906E+03	5.263191E-03	3.362626E-04
6.759847E+03	5.086185E-03	3.254779E-04
6.769787E+03	4.933109E-03	3.161893E-04
6.779728E+03	4.803646E-03	3.083837E-04
6.789669E+03	4.696451E-03	3.019821E-04
6.799610E+03	4.609581E-03	2.968663E-04
6.809551E+03	4.540622E-03	2.928868E-04
6.819492E+03	4.486449E-03	2.898472E-04
6.829433E+03	4.443969E-03	2.875519E-04
6.839374E+03	4.409925E-03	2.857935E-04
6.849315E+03	4.381327E-03	2.843804E-04
6.859256E+03	4.355545E-03	2.831432E-04
6.869197E+03	4.330663E-03	2.819582E-04
6.879138E+03	4.305434E-03	2.807442E-04
6.889079E+03	4.279529E-03	2.794798E-04
6.899020E+03	4.253338E-03	2.781901E-04
6.908961E+03	4.228037E-03	2.769523E-04
6.918902E+03	4.205317E-03	2.758775E-04
6.928843E+03	4.187303E-03	2.751059E-04
6.938784E+03	4.176148E-03	2.747810E-04
6.948725E+03	4.173788E-03	2.750320E-04
6.958666E+03	4.181781E-03	2.759644E-04
6.968606E+03	4.201044E-03	2.776418E-04
6.978547E+03	4.231711E-03	2.800763E-04
6.988488E+03	4.273029E-03	2.832213E-04
6.998429E+03	4.323293E-03	2.869667E-04
7.008370E+03	4.379838E-03	2.911376E-04
7.018311E+03	4.439262E-03	2.955096E-04
7.028252E+03	4.497569E-03	2.998169E-04
7.038193E+03	4.550490E-03	3.037742E-04
7.048134E+03	4.593952E-03	3.071076E-04
7.058075E+03	4.624298E-03	3.095695E-04
7.068016E+03	4.639026E-03	3.109886E-04
7.077957E+03	4.637120E-03	3.112922E-04
7.087898E+03	4.619120E-03	3.105120E-04
7.097839E+03	4.586968E-03	3.087743E-04
7.107780E+03	4.544035E-03	3.063024E-04
7.117721E+03	4.494232E-03	3.033573E-04
7.127662E+03	4.441945E-03	3.002336E-04
7.137603E+03	4.391073E-03	2.971948E-04
7.147544E+03	4.345069E-03	2.944751E-04
7.157485E+03	4.306488E-03	2.922493E-04
7.167425E+03	4.277110E-03	2.906405E-04
7.177366E+03	4.257968E-03	2.897214E-04
7.187307E+03	4.249285E-03	2.895101E-04
7.197248E+03	4.250710E-03	2.899854E-04
7.207189E+03	4.261587E-03	2.911051E-04
7.217130E+03	4.280724E-03	2.927903E-04
7.227071E+03	4.306633E-03	2.949412E-04
7.237012E+03	4.337692E-03	2.974483E-04
7.246953E+03	4.371956E-03	3.001795E-04
7.256894E+03	4.407421E-03	3.029978E-04
7.266835E+03	4.441900E-03	3.057529E-04
7.276776E+03	4.473110E-03	3.082871E-04
7.286717E+03	4.498906E-03	3.104517E-04
7.296658E+03	4.517395E-03	3.121144E-04
7.306599E+03	4.527196E-03	3.131776E-04
7.316540E+03	4.527455E-03	3.135802E-04
7.326481E+03	4.518153E-03	3.133184E-04
7.336422E+03	4.500051E-03	3.124425E-04
7.346363E+03	4.474650E-03	3.110547E-04
7.356304E+03	4.443776E-03	3.092803E-04
7.366245E+03	4.409819E-03	3.072845E-04
7.376185E+03	4.374804E-03	3.052077E-04
7.386126E+03	4.340806E-03	3.031949E-04
7.396067E+03	4.309288E-03	3.013484E-04
7.406008E+03	4.281241E-03	2.997385E-04
7.415949E+03	4.256943E-03	2.983853E-04
7.425890E+03	4.236046E-03	2.972656E-04
7.435831E+03	4.217669E-03	2.963182E-04
7.445772E+03	4.200532E-03	2.954538E-04
7.455713E+03	4.183158E-03	2.945686E-04
7.465654E+03	4.164134E-03	2.935630E-04
7.475595E+03	4.142057E-03	2.923376E-04
7.485536E+03	4.115934E-03	2.908216E-04
7.495477E+03	4.085261E-03	2.889784E-04
7.505418E+03	4.049777E-03	2.867883E-04
7.515359E+03	4.009777E-03	2.842714E-04
7.525300E+03	3.966110E-03	2.814868E-04
7.535241E+03	3.920160E-03	2.785319E-04
7.545182E+03	3.873711E-03	2.755333E-04
7.555123E+03	3.828820E-03	2.726373E-04
7.565064E+03	3.787484E-03	2.699866E-04
7.575004E+03	3.751657E-03	2.677217E-04
7.584945E+03	3.723194E-03	2.659763E-04
7.594886E+03	3.703420E-03	2.648469E-04
7.604827E+03	3.693416E-03	2.644129E-04
7.614768E+03	3.693702E-03	2.647139E-04
7.624709E+03	3.704208E-03	2.657471E-04
7.634650E+03	3.724277E-03	2.674677E-04
7.644591E+03	3.752483E-03	2.697754E-04
7.654532E+03	3.786888E-03	2.725324E-04
7.664473E+03	3.825075E-03	2.755661E-04
7.674414E+03	3.864421E-03	2.786881E-04
7.684355E+03	3.902609E-03	2.817314E-04
7.694296E+03	3.937429E-03	2.845360E-04
7.704237E+03	3.967388E-03	2.869932E-04
7.714178E+03	3.991436E-03	2.890257E-04
