#wls	flux	fluxerr
1.600000E+03	3.500486E-17	8.786652E-19
1.640000E+03	3.492319E-17	8.734023E-19
1.680000E+03	3.488351E-17	8.691355E-19
1.720000E+03	3.487777E-17	8.656528E-19
1.760000E+03	3.492352E-17	8.633776E-19
1.800000E+03	3.501372E-17	8.621214E-19
1.840000E+03	3.516709E-17	8.623291E-19
1.880000E+03	3.537790E-17	8.638404E-19
1.920000E+03	3.566650E-17	8.671314E-19
1.960000E+03	3.603527E-17	8.722330E-19
2.000000E+03	3.648742E-17	8.791950E-19
2.040000E+03	3.704705E-17	8.885659E-19
2.080000E+03	3.772026E-17	9.004529E-19
2.120000E+03	3.852140E-17	9.151546E-19
2.160000E+03	3.945978E-17	9.328435E-19
2.200000E+03	4.056813E-17	9.542369E-19
2.240000E+03	4.186106E-17	9.796115E-19
2.280000E+03	4.336334E-17	1.009471E-18
2.320000E+03	4.510344E-17	1.044392E-18
2.360000E+03	4.711413E-17	1.085033E-18
2.400000E+03	4.943306E-17	1.132147E-18
2.440000E+03	5.211281E-17	1.186804E-18
2.480000E+03	5.518478E-17	1.249566E-18
2.520000E+03	5.871424E-17	1.321738E-18
2.560000E+03	6.276512E-17	1.404559E-18
2.600000E+03	6.742133E-17	1.499673E-18
2.640000E+03	7.273970E-17	1.608081E-18
2.680000E+03	7.881915E-17	1.731671E-18
2.720000E+03	8.576947E-17	1.872516E-18
2.760000E+03	9.366088E-17	2.031766E-18
2.800000E+03	1.026270E-16	2.211896E-18
2.840000E+03	1.127314E-16	2.413810E-18
2.880000E+03	1.241026E-16	2.639756E-18
2.920000E+03	1.367957E-16	2.890364E-18
2.960000E+03	1.508316E-16	3.165518E-18
3.000000E+03	1.662737E-16	3.465983E-18
3.010000E+03	1.703549E-16	3.545009E-18
3.020000E+03	1.744891E-16	3.624846E-18
3.030000E+03	1.787364E-16	3.706739E-18
3.040000E+03	1.830652E-16	3.790020E-18
3.050000E+03	1.874405E-16	3.873958E-18
3.060000E+03	1.919264E-16	3.959874E-18
3.070000E+03	1.964885E-16	4.047044E-18
3.080000E+03	2.010888E-16	4.134685E-18
3.090000E+03	2.057957E-16	4.224194E-18
3.100000E+03	2.105717E-16	4.314793E-18
3.110000E+03	2.153761E-16	4.405644E-18
3.120000E+03	2.202816E-16	4.498232E-18
3.130000E+03	2.252481E-16	4.591727E-18
3.140000E+03	2.302318E-16	4.685234E-18
3.150000E+03	2.353104E-16	4.780332E-18
3.160000E+03	2.404412E-16	4.876147E-18
3.170000E+03	2.456211E-16	4.972611E-18
3.180000E+03	2.508028E-16	5.068765E-18
3.190000E+03	2.560716E-16	5.166332E-18
3.200000E+03	2.613813E-16	5.264378E-18
3.210000E+03	2.666823E-16	5.361898E-18
3.220000E+03	2.720663E-16	5.460737E-18
3.230000E+03	2.774848E-16	5.559923E-18
3.240000E+03	2.828867E-16	5.658424E-18
3.250000E+03	2.883702E-16	5.758213E-18
3.260000E+03	2.938856E-16	5.858289E-18
3.270000E+03	2.994333E-16	5.958659E-18
3.280000E+03	3.049596E-16	6.058262E-18
3.290000E+03	3.105730E-16	6.159247E-18
3.300000E+03	3.162218E-16	6.260592E-18
3.310000E+03	3.218510E-16	6.361205E-18
3.320000E+03	3.275752E-16	6.463355E-18
3.330000E+03	3.333392E-16	6.565947E-18
3.340000E+03	3.391410E-16	6.668945E-18
3.350000E+03	3.449135E-16	6.771028E-18
3.360000E+03	3.507631E-16	6.874290E-18
3.370000E+03	3.566031E-16	6.977031E-18
3.380000E+03	3.623898E-16	7.078405E-18
3.390000E+03	3.679938E-16	7.175895E-18
3.400000E+03	3.734554E-16	7.270310E-18
3.410000E+03	3.785932E-16	7.358142E-18
3.420000E+03	3.831925E-16	7.435262E-18
3.430000E+03	3.872119E-16	7.500921E-18
3.440000E+03	3.903845E-16	7.550022E-18
3.450000E+03	3.925002E-16	7.578590E-18
3.460000E+03	3.932890E-16	7.581522E-18
3.470000E+03	3.927245E-16	7.558436E-18
3.480000E+03	3.906351E-16	7.506168E-18
3.490000E+03	3.870087E-16	7.424621E-18
3.500000E+03	3.818720E-16	7.314455E-18
3.510000E+03	3.755676E-16	7.182353E-18
3.520000E+03	3.683357E-16	7.033005E-18
3.530000E+03	3.605024E-16	6.872711E-18
3.540000E+03	3.526388E-16	6.712392E-18
3.550000E+03	3.451442E-16	6.559634E-18
3.560000E+03	3.384812E-16	6.423180E-18
3.570000E+03	3.330353E-16	6.310260E-18
3.580000E+03	3.293383E-16	6.230827E-18
3.590000E+03	3.276896E-16	6.190385E-18
3.600000E+03	3.282735E-16	6.192242E-18
3.610000E+03	3.306733E-16	6.228360E-18
3.620000E+03	3.343594E-16	6.288630E-18
3.630000E+03	3.385707E-16	6.358656E-18
3.640000E+03	3.425952E-16	6.425046E-18
3.650000E+03	3.456864E-16	6.473838E-18
3.660000E+03	3.473409E-16	6.495696E-18
3.670000E+03	3.469666E-16	6.479679E-18
3.680000E+03	3.441561E-16	6.418344E-18
3.690000E+03	3.385926E-16	6.305979E-18
3.700000E+03	3.303099E-16	6.143418E-18
3.710000E+03	3.193432E-16	5.931512E-18
3.720000E+03	3.059220E-16	5.674711E-18
3.730000E+03	2.906162E-16	5.383739E-18
3.740000E+03	2.739740E-16	5.068867E-18
3.750000E+03	2.566942E-16	4.743086E-18
3.760000E+03	2.394640E-16	4.419110E-18
3.770000E+03	2.230649E-16	4.111324E-18
3.780000E+03	2.080544E-16	3.829917E-18
3.790000E+03	1.949110E-16	3.583580E-18
3.800000E+03	1.839534E-16	3.378031E-18
3.810000E+03	1.754927E-16	3.218815E-18
3.820000E+03	1.696680E-16	3.108313E-18
3.830000E+03	1.666222E-16	3.048964E-18
3.840000E+03	1.664784E-16	3.042834E-18
3.850000E+03	1.694907E-16	3.094384E-18
3.860000E+03	1.758968E-16	3.207752E-18
3.870000E+03	1.860197E-16	3.388623E-18
3.880000E+03	2.003702E-16	3.646077E-18
3.890000E+03	2.194388E-16	3.988794E-18
3.900000E+03	2.437687E-16	4.426378E-18
3.910000E+03	2.737793E-16	4.966162E-18
3.920000E+03	3.098091E-16	5.613985E-18
3.930000E+03	3.516674E-16	6.366099E-18
3.940000E+03	3.986320E-16	7.209165E-18
3.950000E+03	4.492050E-16	8.115893E-18
3.960000E+03	5.014210E-16	9.050671E-18
3.970000E+03	5.525827E-16	9.964826E-18
3.980000E+03	5.997854E-16	1.080613E-17
3.990000E+03	6.406777E-16	1.153250E-17
4.000000E+03	6.732288E-16	1.210777E-17
4.010000E+03	6.963647E-16	1.251306E-17
4.020000E+03	7.097960E-16	1.274365E-17
4.030000E+03	7.143935E-16	1.281561E-17
4.040000E+03	7.112267E-16	1.274852E-17
4.050000E+03	7.016973E-16	1.256781E-17
4.060000E+03	6.877046E-16	1.230773E-17
4.070000E+03	6.707441E-16	1.199521E-17
4.080000E+03	6.521849E-16	1.165482E-17
4.090000E+03	6.335420E-16	1.131364E-17
4.100000E+03	6.157457E-16	1.098827E-17
4.110000E+03	5.995937E-16	1.069288E-17
4.120000E+03	5.855361E-16	1.043543E-17
4.130000E+03	5.741153E-16	1.022548E-17
4.140000E+03	5.653910E-16	1.006399E-17
4.150000E+03	5.593140E-16	9.950006E-18
4.160000E+03	5.560629E-16	9.886605E-18
4.170000E+03	5.554870E-16	9.871023E-18
4.180000E+03	5.574203E-16	9.900238E-18
4.190000E+03	5.619724E-16	9.976128E-18
4.200000E+03	5.689283E-16	1.009482E-17
4.210000E+03	5.781155E-16	1.025320E-17
4.220000E+03	5.891903E-16	1.044514E-17
4.230000E+03	6.020538E-16	1.066885E-17
4.240000E+03	6.162578E-16	1.091638E-17
4.250000E+03	6.313223E-16	1.117923E-17
4.260000E+03	6.470849E-16	1.145451E-17
4.270000E+03	6.630462E-16	1.173340E-17
4.280000E+03	6.786770E-16	1.200657E-17
4.290000E+03	6.937735E-16	1.227043E-17
4.300000E+03	7.077511E-16	1.251468E-17
4.310000E+03	7.200074E-16	1.272869E-17
4.320000E+03	7.303616E-16	1.290933E-17
4.330000E+03	7.383755E-16	1.304887E-17
4.340000E+03	7.437847E-16	1.314268E-17
4.350000E+03	7.469301E-16	1.319681E-17
4.360000E+03	7.479819E-16	1.321429E-17
4.370000E+03	7.473027E-16	1.320153E-17
4.380000E+03	7.457976E-16	1.317454E-17
4.390000E+03	7.439209E-16	1.314134E-17
4.400000E+03	7.424252E-16	1.311522E-17
4.410000E+03	7.414836E-16	1.309925E-17
4.420000E+03	7.413890E-16	1.309859E-17
4.430000E+03	7.430165E-16	1.312873E-17
4.440000E+03	7.470760E-16	1.320222E-17
4.450000E+03	7.544965E-16	1.333551E-17
4.460000E+03	7.667738E-16	1.355508E-17
4.470000E+03	7.850811E-16	1.388174E-17
4.480000E+03	8.104923E-16	1.433459E-17
4.490000E+03	8.442050E-16	1.493492E-17
4.500000E+03	8.862935E-16	1.568422E-17
4.510000E+03	9.365687E-16	1.657932E-17
4.520000E+03	9.932625E-16	1.758912E-17
4.530000E+03	1.053312E-15	1.865955E-17
4.540000E+03	1.113060E-15	1.972594E-17
4.550000E+03	1.167405E-15	2.069789E-17
4.560000E+03	1.212018E-15	2.149858E-17
4.570000E+03	1.242836E-15	2.205569E-17
4.580000E+03	1.257374E-15	2.232479E-17
4.590000E+03	1.255786E-15	2.230820E-17
4.600000E+03	1.239222E-15	2.202590E-17
4.610000E+03	1.211053E-15	2.153735E-17
4.620000E+03	1.174606E-15	2.090141E-17
4.630000E+03	1.133158E-15	2.017608E-17
4.640000E+03	1.090036E-15	1.942042E-17
4.650000E+03	1.047055E-15	1.866670E-17
4.660000E+03	1.006094E-15	1.794836E-17
4.670000E+03	9.677237E-16	1.727564E-17
4.680000E+03	9.327861E-16	1.666361E-17
4.690000E+03	9.012974E-16	1.611266E-17
4.700000E+03	8.730877E-16	1.561983E-17
4.710000E+03	8.483092E-16	1.518796E-17
4.720000E+03	8.264157E-16	1.480736E-17
4.730000E+03	8.073993E-16	1.447798E-17
4.740000E+03	7.906494E-16	1.418897E-17
4.750000E+03	7.761143E-16	1.393947E-17
4.760000E+03	7.632077E-16	1.371903E-17
4.770000E+03	7.519218E-16	1.352755E-17
4.780000E+03	7.417804E-16	1.335653E-17
4.790000E+03	7.329245E-16	1.320855E-17
4.800000E+03	7.252290E-16	1.308140E-17
4.810000E+03	7.187166E-16	1.297553E-17
4.820000E+03	7.139146E-16	1.290051E-17
4.830000E+03	7.109220E-16	1.285822E-17
4.840000E+03	7.103198E-16	1.285926E-17
4.850000E+03	7.120743E-16	1.290312E-17
4.860000E+03	7.164245E-16	1.299427E-17
4.870000E+03	7.228165E-16	1.312277E-17
4.880000E+03	7.308915E-16	1.328222E-17
4.890000E+03	7.395695E-16	1.345305E-17
4.900000E+03	7.482292E-16	1.362398E-17
4.910000E+03	7.558866E-16	1.377708E-17
4.920000E+03	7.624113E-16	1.390991E-17
4.930000E+03	7.675895E-16	1.401851E-17
4.940000E+03	7.720302E-16	1.411392E-17
4.950000E+03	7.766190E-16	1.421232E-17
4.960000E+03	7.818614E-16	1.432297E-17
4.970000E+03	7.885599E-16	1.446062E-17
4.980000E+03	7.965056E-16	1.462150E-17
4.990000E+03	8.054358E-16	1.480088E-17
5.000000E+03	8.139431E-16	1.497291E-17
5.010000E+03	8.207851E-16	1.511468E-17
5.020000E+03	8.241163E-16	1.519208E-17
5.030000E+03	8.230412E-16	1.518838E-17
5.040000E+03	8.168370E-16	1.508994E-17
5.050000E+03	8.061539E-16	1.490850E-17
5.060000E+03	7.925433E-16	1.467250E-17
5.070000E+03	7.777869E-16	1.441478E-17
5.080000E+03	7.644849E-16	1.418350E-17
5.090000E+03	7.546018E-16	1.401523E-17
5.100000E+03	7.502679E-16	1.394979E-17
5.110000E+03	7.525583E-16	1.400751E-17
5.120000E+03	7.623416E-16	1.420497E-17
5.130000E+03	7.798860E-16	1.454762E-17
5.140000E+03	8.044709E-16	1.502248E-17
5.150000E+03	8.353636E-16	1.561628E-17
5.160000E+03	8.707846E-16	1.629609E-17
5.170000E+03	9.090181E-16	1.703005E-17
5.180000E+03	9.481967E-16	1.778329E-17
5.190000E+03	9.860005E-16	1.851233E-17
5.200000E+03	1.021002E-15	1.919024E-17
5.210000E+03	1.051461E-15	1.978409E-17
5.220000E+03	1.076568E-15	2.027838E-17
5.230000E+03	1.095886E-15	2.066452E-17
5.240000E+03	1.108675E-15	2.092818E-17
5.250000E+03	1.114951E-15	2.106925E-17
5.260000E+03	1.114897E-15	2.109083E-17
5.270000E+03	1.108280E-15	2.098808E-17
5.280000E+03	1.095824E-15	2.077434E-17
5.290000E+03	1.077692E-15	2.045233E-17
5.300000E+03	1.054815E-15	2.003943E-17
5.310000E+03	1.028271E-15	1.955582E-17
5.320000E+03	9.986954E-16	1.901337E-17
5.330000E+03	9.673044E-16	1.843510E-17
5.340000E+03	9.352803E-16	1.784345E-17
5.350000E+03	9.032603E-16	1.725055E-17
5.360000E+03	8.722952E-16	1.667649E-17
5.370000E+03	8.431576E-16	1.613613E-17
5.380000E+03	8.166343E-16	1.564464E-17
5.390000E+03	7.929514E-16	1.520653E-17
5.400000E+03	7.726412E-16	1.483218E-17
5.410000E+03	7.561092E-16	1.452958E-17
5.420000E+03	7.432712E-16	1.429733E-17
5.430000E+03	7.343635E-16	1.414021E-17
5.440000E+03	7.295415E-16	1.406143E-17
5.450000E+03	7.284969E-16	1.405528E-17
5.460000E+03	7.311875E-16	1.412117E-17
5.470000E+03	7.372973E-16	1.425319E-17
5.480000E+03	7.464803E-16	1.444484E-17
5.490000E+03	7.578708E-16	1.467953E-17
5.500000E+03	7.709196E-16	1.494673E-17
5.510000E+03	7.850607E-16	1.523553E-17
5.520000E+03	7.992049E-16	1.552484E-17
5.530000E+03	8.124692E-16	1.579748E-17
5.540000E+03	8.236395E-16	1.602976E-17
5.550000E+03	8.315504E-16	1.619887E-17
5.560000E+03	8.346883E-16	1.627511E-17
5.570000E+03	8.322520E-16	1.624258E-17
5.580000E+03	8.237357E-16	1.609109E-17
5.590000E+03	8.091352E-16	1.582025E-17
5.600000E+03	7.890352E-16	1.544117E-17
5.610000E+03	7.639049E-16	1.496276E-17
5.620000E+03	7.347294E-16	1.440406E-17
5.630000E+03	7.022783E-16	1.378000E-17
5.640000E+03	6.672632E-16	1.310437E-17
5.650000E+03	6.298725E-16	1.238076E-17
5.660000E+03	5.905856E-16	1.161851E-17
5.670000E+03	5.498531E-16	1.082639E-17
5.680000E+03	5.083606E-16	1.001786E-17
5.690000E+03	4.671592E-16	9.213627E-18
5.700000E+03	4.272708E-16	8.433897E-18
5.710000E+03	3.900511E-16	7.705532E-18
5.720000E+03	3.566831E-16	7.052067E-18
5.730000E+03	3.281411E-16	6.492975E-18
5.740000E+03	3.051431E-16	6.042720E-18
5.750000E+03	2.882385E-16	5.712462E-18
5.760000E+03	2.777045E-16	5.507991E-18
5.770000E+03	2.739829E-16	5.438375E-18
5.780000E+03	2.776130E-16	5.514644E-18
5.790000E+03	2.894265E-16	5.753662E-18
5.800000E+03	3.106859E-16	6.180910E-18
5.810000E+03	3.432713E-16	6.834232E-18
5.820000E+03	3.894910E-16	7.760101E-18
5.830000E+03	4.520447E-16	9.012920E-18
5.840000E+03	5.328780E-16	1.063218E-17
5.850000E+03	6.323232E-16	1.262527E-17
5.860000E+03	7.477378E-16	1.494013E-17
5.870000E+03	8.716544E-16	1.742807E-17
5.880000E+03	9.912144E-16	1.983209E-17
5.890000E+03	1.089770E-15	2.181868E-17
5.900000E+03	1.152842E-15	2.309682E-17
5.910000E+03	1.171183E-15	2.347969E-17
5.920000E+03	1.143952E-15	2.294865E-17
5.930000E+03	1.079817E-15	2.167590E-17
5.940000E+03	9.926032E-16	1.993779E-17
5.950000E+03	8.959883E-16	1.800837E-17
5.960000E+03	8.005954E-16	1.610097E-17
5.970000E+03	7.135323E-16	1.435873E-17
5.980000E+03	6.376941E-16	1.284028E-17
5.990000E+03	5.730437E-16	1.154531E-17
6.000000E+03	5.181549E-16	1.044552E-17
6.010000E+03	4.716738E-16	9.513948E-18
6.020000E+03	4.326033E-16	8.730797E-18
6.030000E+03	4.002357E-16	8.082046E-18
6.040000E+03	3.741938E-16	7.560316E-18
6.050000E+03	3.544855E-16	7.165987E-18
6.060000E+03	3.412802E-16	6.902701E-18
6.070000E+03	3.346482E-16	6.772102E-18
6.080000E+03	3.344493E-16	6.771557E-18
6.090000E+03	3.404919E-16	6.897391E-18
6.100000E+03	3.524627E-16	7.143439E-18
6.110000E+03	3.696469E-16	7.495381E-18
6.120000E+03	3.910010E-16	7.932199E-18
6.130000E+03	4.154243E-16	8.431660E-18
6.140000E+03	4.416399E-16	8.967912E-18
6.150000E+03	4.688365E-16	9.524514E-18
6.160000E+03	4.974657E-16	1.011066E-17
6.170000E+03	5.307159E-16	1.079120E-17
6.180000E+03	5.739647E-16	1.167564E-17
6.190000E+03	6.334184E-16	1.289053E-17
6.200000E+03	7.152186E-16	1.456129E-17
6.210000E+03	8.260692E-16	1.682499E-17
6.220000E+03	9.735989E-16	1.983776E-17
6.230000E+03	1.165401E-15	2.375521E-17
6.240000E+03	1.407741E-15	2.870605E-17
6.250000E+03	1.703082E-15	3.474163E-17
6.260000E+03	2.045917E-15	4.175065E-17
6.270000E+03	2.418982E-15	4.938162E-17
6.280000E+03	2.792307E-15	5.702298E-17
6.290000E+03	3.126623E-15	6.387236E-17
6.300000E+03	3.379850E-15	6.906889E-17
6.310000E+03	3.518355E-15	7.192320E-17
6.320000E+03	3.528771E-15	7.215956E-17
6.330000E+03	3.419070E-15	6.993850E-17
6.340000E+03	3.212793E-15	6.573943E-17
6.350000E+03	2.941284E-15	6.020213E-17
6.360000E+03	2.638440E-15	5.401951E-17
6.370000E+03	2.331849E-15	4.775615E-17
6.380000E+03	2.042129E-15	4.183450E-17
6.390000E+03	1.782214E-15	3.651999E-17
6.400000E+03	1.558472E-15	3.194379E-17
6.410000E+03	1.372388E-15	2.813700E-17
6.420000E+03	1.222456E-15	2.506945E-17
6.430000E+03	1.105512E-15	2.267685E-17
6.440000E+03	1.017611E-15	2.087881E-17
6.450000E+03	9.548074E-16	1.959485E-17
6.460000E+03	9.131199E-16	1.874361E-17
6.470000E+03	8.881699E-16	1.823551E-17
6.480000E+03	8.756112E-16	1.798154E-17
6.490000E+03	8.713605E-16	1.789801E-17
6.500000E+03	8.714881E-16	1.790427E-17
6.510000E+03	8.721340E-16	1.792108E-17
6.520000E+03	8.707880E-16	1.789686E-17
6.530000E+03	8.661056E-16	1.780393E-17
6.540000E+03	8.579998E-16	1.764048E-17
6.550000E+03	8.467553E-16	1.741233E-17
6.560000E+03	8.326209E-16	1.712457E-17
6.570000E+03	8.158133E-16	1.678162E-17
6.580000E+03	7.964599E-16	1.638610E-17
6.590000E+03	7.745036E-16	1.593680E-17
6.600000E+03	7.499361E-16	1.543355E-17
6.610000E+03	7.231769E-16	1.488495E-17
6.620000E+03	6.958451E-16	1.432434E-17
6.630000E+03	6.693219E-16	1.378014E-17
6.640000E+03	6.443909E-16	1.326852E-17
6.650000E+03	6.207241E-16	1.278274E-17
6.660000E+03	5.974289E-16	1.230443E-17
6.670000E+03	5.734715E-16	1.181232E-17
6.680000E+03	5.477949E-16	1.128462E-17
6.690000E+03	5.195476E-16	1.070379E-17
6.700000E+03	4.890052E-16	1.007551E-17
6.710000E+03	4.572553E-16	9.422187E-18
6.720000E+03	4.258289E-16	8.775368E-18
6.730000E+03	3.959122E-16	8.159513E-18
6.740000E+03	3.681487E-16	7.587905E-18
6.750000E+03	3.428205E-16	7.066374E-18
6.760000E+03	3.198781E-16	6.593920E-18
6.770000E+03	2.991760E-16	6.167558E-18
6.780000E+03	2.803304E-16	5.779392E-18
6.790000E+03	2.631530E-16	5.425552E-18
6.800000E+03	2.476539E-16	5.106258E-18
6.810000E+03	2.339116E-16	4.823137E-18
6.820000E+03	2.219103E-16	4.575868E-18
6.830000E+03	2.116621E-16	4.364714E-18
6.840000E+03	2.030333E-16	4.186926E-18
6.850000E+03	1.959705E-16	4.041402E-18
6.860000E+03	1.904898E-16	3.928483E-18
6.870000E+03	1.866231E-16	3.848832E-18
6.880000E+03	1.845391E-16	3.805930E-18
6.890000E+03	1.843570E-16	3.802240E-18
6.900000E+03	1.862765E-16	3.841882E-18
6.910000E+03	1.905201E-16	3.929447E-18
6.920000E+03	1.972750E-16	4.068797E-18
6.930000E+03	2.068568E-16	4.266440E-18
6.940000E+03	2.195065E-16	4.527352E-18
6.950000E+03	2.354796E-16	4.856794E-18
6.960000E+03	2.550037E-16	5.259464E-18
6.970000E+03	2.781833E-16	5.737512E-18
6.980000E+03	3.050817E-16	6.292237E-18
6.990000E+03	3.353710E-16	6.916876E-18
7.000000E+03	3.683782E-16	7.597540E-18
7.010000E+03	4.027914E-16	8.307166E-18
7.020000E+03	4.369984E-16	9.012505E-18
7.030000E+03	4.691488E-16	9.675387E-18
7.040000E+03	4.980252E-16	1.027071E-17
7.050000E+03	5.230213E-16	1.078597E-17
7.060000E+03	5.439924E-16	1.121819E-17
7.070000E+03	5.617166E-16	1.158342E-17
7.080000E+03	5.771819E-16	1.190204E-17
7.090000E+03	5.917135E-16	1.220138E-17
7.100000E+03	6.066166E-16	1.250836E-17
7.110000E+03	6.235020E-16	1.285618E-17
7.120000E+03	6.433563E-16	1.326519E-17
7.130000E+03	6.666024E-16	1.374410E-17
7.140000E+03	6.931641E-16	1.429135E-17
7.150000E+03	7.233874E-16	1.491405E-17
7.160000E+03	7.576154E-16	1.561928E-17
7.170000E+03	7.968315E-16	1.642731E-17
7.180000E+03	8.431383E-16	1.738147E-17
7.190000E+03	9.013702E-16	1.858142E-17
7.200000E+03	9.780290E-16	2.016117E-17
7.210000E+03	1.080822E-15	2.227957E-17
7.220000E+03	1.218620E-15	2.511945E-17
7.230000E+03	1.400889E-15	2.887588E-17
7.240000E+03	1.637623E-15	3.375481E-17
7.250000E+03	1.935664E-15	3.989722E-17
7.260000E+03	2.297046E-15	4.734499E-17
7.270000E+03	2.712591E-15	5.590891E-17
7.280000E+03	3.155807E-15	6.504300E-17
7.290000E+03	3.581857E-15	7.382315E-17
7.300000E+03	3.930912E-15	8.101640E-17
7.310000E+03	4.144647E-15	8.542082E-17
7.320000E+03	4.183162E-15	8.621413E-17
7.330000E+03	4.035189E-15	8.316423E-17
7.340000E+03	3.728117E-15	7.683560E-17
7.350000E+03	3.314182E-15	6.830477E-17
7.360000E+03	2.856226E-15	5.886682E-17
7.370000E+03	2.410069E-15	4.967208E-17
7.380000E+03	2.013662E-15	4.150265E-17
7.390000E+03	1.684543E-15	3.472000E-17
7.400000E+03	1.423018E-15	2.933042E-17
7.410000E+03	1.221735E-15	2.518240E-17
7.420000E+03	1.069819E-15	2.205182E-17
7.430000E+03	9.532689E-16	1.965016E-17
7.440000E+03	8.597769E-16	1.772372E-17
7.450000E+03	7.809576E-16	1.609969E-17
7.460000E+03	7.110968E-16	1.466027E-17
7.470000E+03	6.466312E-16	1.333201E-17
7.480000E+03	5.860745E-16	1.208426E-17
7.490000E+03	5.291518E-16	1.091136E-17
7.500000E+03	4.762518E-16	9.821297E-18
7.510000E+03	4.280146E-16	8.827291E-18
7.520000E+03	3.846048E-16	7.932738E-18
7.530000E+03	3.463040E-16	7.143458E-18
7.540000E+03	3.129801E-16	6.456744E-18
7.550000E+03	2.843571E-16	5.866918E-18
7.560000E+03	2.602432E-16	5.370041E-18
7.570000E+03	2.403067E-16	4.959295E-18
7.580000E+03	2.242858E-16	4.629299E-18
7.590000E+03	2.120844E-16	4.378093E-18
7.600000E+03	2.035185E-16	4.201912E-18
7.610000E+03	1.984520E-16	4.097972E-18
7.620000E+03	1.969311E-16	4.067264E-18
7.630000E+03	1.989552E-16	4.109809E-18
7.640000E+03	2.047472E-16	4.230259E-18
7.650000E+03	2.145308E-16	4.433282E-18
7.660000E+03	2.285760E-16	4.724518E-18
7.670000E+03	2.472120E-16	5.110834E-18
7.680000E+03	2.705294E-16	5.594184E-18
7.690000E+03	2.986361E-16	6.176882E-18
7.700000E+03	3.311693E-16	6.851512E-18
7.710000E+03	3.673028E-16	7.601071E-18
7.720000E+03	4.059580E-16	8.403317E-18
7.730000E+03	4.454269E-16	9.222957E-18
7.740000E+03	4.838670E-16	1.002187E-17
7.750000E+03	5.187280E-16	1.074724E-17
7.760000E+03	5.470024E-16	1.133669E-17
