#wls	flux	fluxerr
1.600000E+03	1.459172E-17	1.337173E-18
1.640000E+03	1.473346E-17	1.345572E-18
1.680000E+03	1.488260E-17	1.354444E-18
1.720000E+03	1.503451E-17	1.363359E-18
1.760000E+03	1.519852E-17	1.373148E-18
1.800000E+03	1.536544E-17	1.382970E-18
1.840000E+03	1.554452E-17	1.393642E-18
1.880000E+03	1.572674E-17	1.404341E-18
1.920000E+03	1.592127E-17	1.415872E-18
1.960000E+03	1.612373E-17	1.427828E-18
2.000000E+03	1.633430E-17	1.440207E-18
2.040000E+03	1.655320E-17	1.453013E-18
2.080000E+03	1.678066E-17	1.466248E-18
2.120000E+03	1.701697E-17	1.479918E-18
2.160000E+03	1.726247E-17	1.494035E-18
2.200000E+03	1.752181E-17	1.508977E-18
2.240000E+03	1.778679E-17	1.524017E-18
2.280000E+03	1.806644E-17	1.539906E-18
2.320000E+03	1.835274E-17	1.555936E-18
2.360000E+03	1.865477E-17	1.572853E-18
2.400000E+03	1.896470E-17	1.589968E-18
2.440000E+03	1.928744E-17	1.607669E-18
2.480000E+03	1.962378E-17	1.625991E-18
2.520000E+03	1.997040E-17	1.644629E-18
2.560000E+03	2.033239E-17	1.663973E-18
2.600000E+03	2.071076E-17	1.684069E-18
2.640000E+03	2.110248E-17	1.704635E-18
2.680000E+03	2.150875E-17	1.725733E-18
2.720000E+03	2.193091E-17	1.747431E-18
2.760000E+03	2.237453E-17	1.770133E-18
2.800000E+03	2.283287E-17	1.793258E-18
2.840000E+03	2.331175E-17	1.817221E-18
2.880000E+03	2.380883E-17	1.841792E-18
2.920000E+03	2.433023E-17	1.867393E-18
2.960000E+03	2.487812E-17	1.894131E-18
3.000000E+03	2.545058E-17	1.921798E-18
3.010000E+03	2.559889E-17	1.928955E-18
3.020000E+03	2.574892E-17	1.936179E-18
3.030000E+03	2.590072E-17	1.943473E-18
3.040000E+03	2.605860E-17	1.951157E-18
3.050000E+03	2.621410E-17	1.958597E-18
3.060000E+03	2.637575E-17	1.966430E-18
3.070000E+03	2.654364E-17	1.974660E-18
3.080000E+03	2.670928E-17	1.982651E-18
3.090000E+03	2.688126E-17	1.991043E-18
3.100000E+03	2.705965E-17	1.999837E-18
3.110000E+03	2.724024E-17	2.008719E-18
3.120000E+03	2.742307E-17	2.017689E-18
3.130000E+03	2.761250E-17	2.027069E-18
3.140000E+03	2.780430E-17	2.036543E-18
3.150000E+03	2.800286E-17	2.046431E-18
3.160000E+03	2.820827E-17	2.056736E-18
3.170000E+03	2.841625E-17	2.067144E-18
3.180000E+03	2.863123E-17	2.077974E-18
3.190000E+03	2.885331E-17	2.089229E-18
3.200000E+03	2.908260E-17	2.100914E-18
3.210000E+03	2.931917E-17	2.113029E-18
3.220000E+03	2.955873E-17	2.125264E-18
3.230000E+03	2.980578E-17	2.137937E-18
3.240000E+03	3.006484E-17	2.151370E-18
3.250000E+03	3.032720E-17	2.164931E-18
3.260000E+03	3.060183E-17	2.179261E-18
3.270000E+03	3.088443E-17	2.194045E-18
3.280000E+03	3.117512E-17	2.209289E-18
3.290000E+03	3.147403E-17	2.224997E-18
3.300000E+03	3.178129E-17	2.241172E-18
3.310000E+03	3.210156E-17	2.258140E-18
3.320000E+03	3.243503E-17	2.275905E-18
3.330000E+03	3.277734E-17	2.294155E-18
3.340000E+03	3.312863E-17	2.312895E-18
3.350000E+03	3.349363E-17	2.332449E-18
3.360000E+03	3.387258E-17	2.352827E-18
3.370000E+03	3.426566E-17	2.374033E-18
3.380000E+03	3.466847E-17	2.395754E-18
3.390000E+03	3.508584E-17	2.418319E-18
3.400000E+03	3.552268E-17	2.442057E-18
3.410000E+03	3.596989E-17	2.466333E-18
3.420000E+03	3.643710E-17	2.491800E-18
3.430000E+03	3.691514E-17	2.517820E-18
3.440000E+03	3.741373E-17	2.545049E-18
3.450000E+03	3.793319E-17	2.573497E-18
3.460000E+03	3.846906E-17	2.602852E-18
3.470000E+03	3.902163E-17	2.633122E-18
3.480000E+03	3.959603E-17	2.664643E-18
3.490000E+03	4.019262E-17	2.697428E-18
3.500000E+03	4.081176E-17	2.731487E-18
3.510000E+03	4.145383E-17	2.766834E-18
3.520000E+03	4.211427E-17	2.803153E-18
3.530000E+03	4.280334E-17	2.841112E-18
3.540000E+03	4.351650E-17	2.880396E-18
3.550000E+03	4.425916E-17	2.921349E-18
3.560000E+03	4.502173E-17	2.963321E-18
3.570000E+03	4.581971E-17	3.007320E-18
3.580000E+03	4.663840E-17	3.052363E-18
3.590000E+03	4.749348E-17	3.099461E-18
3.600000E+03	4.837524E-17	3.147961E-18
3.610000E+03	4.928923E-17	3.198210E-18
3.620000E+03	5.023598E-17	3.250222E-18
3.630000E+03	5.122121E-17	3.304349E-18
3.640000E+03	5.223499E-17	3.359929E-18
3.650000E+03	5.328304E-17	3.417313E-18
3.660000E+03	5.437120E-17	3.476855E-18
3.670000E+03	5.550004E-17	3.538569E-18
3.680000E+03	5.665945E-17	3.601789E-18
3.690000E+03	5.786605E-17	3.667550E-18
3.700000E+03	5.910967E-17	3.735184E-18
3.710000E+03	6.039633E-17	3.805047E-18
3.720000E+03	6.172661E-17	3.877153E-18
3.730000E+03	6.310116E-17	3.951518E-18
3.740000E+03	6.452059E-17	4.028152E-18
3.750000E+03	6.599115E-17	4.107422E-18
3.760000E+03	6.750789E-17	4.188990E-18
3.770000E+03	6.907146E-17	4.272870E-18
3.780000E+03	7.068819E-17	4.359428E-18
3.790000E+03	7.235881E-17	4.448676E-18
3.800000E+03	7.408404E-17	4.540630E-18
3.810000E+03	7.585877E-17	4.634946E-18
3.820000E+03	7.769534E-17	4.732349E-18
3.830000E+03	7.958867E-17	4.832496E-18
3.840000E+03	8.154542E-17	4.935757E-18
3.850000E+03	8.356044E-17	5.041789E-18
3.860000E+03	8.564032E-17	5.150953E-18
3.870000E+03	8.777994E-17	5.262908E-18
3.880000E+03	8.999211E-17	5.378387E-18
3.890000E+03	9.226543E-17	5.496670E-18
3.900000E+03	9.461291E-17	5.618498E-18
3.910000E+03	9.703546E-17	5.743884E-18
3.920000E+03	9.952757E-17	5.872462E-18
3.930000E+03	1.020963E-16	6.004613E-18
3.940000E+03	1.047362E-16	6.139967E-18
3.950000E+03	1.074605E-16	6.279274E-18
3.960000E+03	1.102639E-16	6.422169E-18
3.970000E+03	1.131471E-16	6.568657E-18
3.980000E+03	1.161172E-16	6.719107E-18
3.990000E+03	1.191752E-16	6.873525E-18
4.000000E+03	1.223217E-16	7.031909E-18
4.010000E+03	1.255510E-16	7.193884E-18
4.020000E+03	1.288769E-16	7.360203E-18
4.030000E+03	1.322937E-16	7.530480E-18
4.040000E+03	1.358087E-16	7.705090E-18
4.050000E+03	1.394158E-16	7.883644E-18
4.060000E+03	1.431295E-16	8.066904E-18
4.070000E+03	1.469366E-16	8.254093E-18
4.080000E+03	1.508516E-16	8.445962E-18
4.090000E+03	1.548682E-16	8.642119E-18
4.100000E+03	1.589938E-16	8.842930E-18
4.110000E+03	1.632223E-16	9.047997E-18
4.120000E+03	1.675681E-16	9.258078E-18
4.130000E+03	1.720179E-16	9.472377E-18
4.140000E+03	1.765860E-16	9.691648E-18
4.150000E+03	1.812659E-16	9.915476E-18
4.160000E+03	1.860583E-16	1.014385E-17
4.170000E+03	1.909705E-16	1.037712E-17
4.180000E+03	1.960029E-16	1.061527E-17
4.190000E+03	2.011561E-16	1.085827E-17
4.200000E+03	2.064302E-16	1.110609E-17
4.210000E+03	2.118257E-16	1.135870E-17
4.220000E+03	2.173426E-16	1.161606E-17
4.230000E+03	2.229888E-16	1.187854E-17
4.240000E+03	2.287569E-16	1.214572E-17
4.250000E+03	2.346547E-16	1.241795E-17
4.260000E+03	2.406670E-16	1.269440E-17
4.270000E+03	2.468166E-16	1.297623E-17
4.280000E+03	2.530887E-16	1.326261E-17
4.290000E+03	2.594907E-16	1.355392E-17
4.300000E+03	2.660149E-16	1.384969E-17
4.310000E+03	2.726692E-16	1.415033E-17
4.320000E+03	2.794457E-16	1.445538E-17
4.330000E+03	2.863444E-16	1.476481E-17
4.340000E+03	2.933730E-16	1.507901E-17
4.350000E+03	3.005237E-16	1.539754E-17
4.360000E+03	3.077884E-16	1.571997E-17
4.370000E+03	3.151830E-16	1.604710E-17
4.380000E+03	3.226914E-16	1.637810E-17
4.390000E+03	3.303135E-16	1.671294E-17
4.400000E+03	3.380494E-16	1.705162E-17
4.410000E+03	3.458990E-16	1.739415E-17
4.420000E+03	3.538540E-16	1.774010E-17
4.430000E+03	3.619145E-16	1.808948E-17
4.440000E+03	3.700725E-16	1.844189E-17
4.450000E+03	3.783360E-16	1.879776E-17
4.460000E+03	3.866888E-16	1.915629E-17
4.470000E+03	3.951393E-16	1.951793E-17
4.480000E+03	4.036712E-16	1.988189E-17
4.490000E+03	4.122848E-16	2.024821E-17
4.500000E+03	4.209805E-16	2.061695E-17
4.510000E+03	4.297502E-16	2.098776E-17
4.520000E+03	4.385946E-16	2.136071E-17
4.530000E+03	4.475060E-16	2.173547E-17
4.540000E+03	4.564768E-16	2.211172E-17
4.550000E+03	4.655076E-16	2.248956E-17
4.560000E+03	4.745911E-16	2.286869E-17
4.570000E+03	4.837283E-16	2.324922E-17
4.580000E+03	4.929034E-16	2.363046E-17
4.590000E+03	5.021261E-16	2.401296E-17
4.600000E+03	5.113805E-16	2.439601E-17
4.610000E+03	5.206680E-16	2.477976E-17
4.620000E+03	5.299817E-16	2.516394E-17
4.630000E+03	5.393144E-16	2.554830E-17
4.640000E+03	5.486593E-16	2.593259E-17
4.650000E+03	5.580181E-16	2.631699E-17
4.660000E+03	5.673841E-16	2.670126E-17
4.670000E+03	5.767506E-16	2.708517E-17
4.680000E+03	5.861111E-16	2.746850E-17
4.690000E+03	5.954676E-16	2.785146E-17
4.700000E+03	6.048136E-16	2.823383E-17
4.710000E+03	6.141426E-16	2.861541E-17
4.720000E+03	6.234482E-16	2.899599E-17
4.730000E+03	6.327324E-16	2.937579E-17
4.740000E+03	6.419798E-16	2.975418E-17
4.750000E+03	6.512012E-16	3.013178E-17
4.760000E+03	6.603720E-16	3.050755E-17
4.770000E+03	6.695115E-16	3.088250E-17
4.780000E+03	6.785946E-16	3.125558E-17
4.790000E+03	6.876311E-16	3.162736E-17
4.800000E+03	6.966041E-16	3.199717E-17
4.810000E+03	7.055142E-16	3.236515E-17
4.820000E+03	7.143524E-16	3.273101E-17
4.830000E+03	7.231185E-16	3.309486E-17
4.840000E+03	7.318122E-16	3.345679E-17
4.850000E+03	7.404146E-16	3.381607E-17
4.860000E+03	7.489246E-16	3.417275E-17
4.870000E+03	7.573502E-16	3.452732E-17
4.880000E+03	7.656717E-16	3.487900E-17
4.890000E+03	7.738874E-16	3.522782E-17
4.900000E+03	7.820048E-16	3.557425E-17
4.910000E+03	7.900128E-16	3.591788E-17
4.920000E+03	7.979000E-16	3.625832E-17
4.930000E+03	8.056827E-16	3.659641E-17
4.940000E+03	8.133309E-16	3.693090E-17
4.950000E+03	8.208699E-16	3.726305E-17
4.960000E+03	8.282786E-16	3.759201E-17
4.970000E+03	8.355732E-16	3.791860E-17
4.980000E+03	8.427325E-16	3.824198E-17
4.990000E+03	8.497634E-16	3.856253E-17
5.000000E+03	8.566635E-16	3.888019E-17
5.010000E+03	8.634400E-16	3.919531E-17
5.020000E+03	8.700812E-16	3.950738E-17
5.030000E+03	8.766038E-16	3.981718E-17
5.040000E+03	8.829956E-16	4.012419E-17
5.050000E+03	8.892640E-16	4.042874E-17
5.060000E+03	8.954064E-16	4.073074E-17
5.070000E+03	9.014303E-16	4.103052E-17
5.080000E+03	9.073332E-16	4.132797E-17
5.090000E+03	9.131125E-16	4.162298E-17
5.100000E+03	9.187857E-16	4.191633E-17
5.110000E+03	9.243503E-16	4.220791E-17
5.120000E+03	9.298039E-16	4.249760E-17
5.130000E+03	9.351441E-16	4.278527E-17
5.140000E+03	9.403986E-16	4.307217E-17
5.150000E+03	9.455451E-16	4.335726E-17
5.160000E+03	9.506113E-16	4.364181E-17
5.170000E+03	9.555852E-16	4.392522E-17
5.180000E+03	9.604744E-16	4.420784E-17
5.190000E+03	9.652873E-16	4.449002E-17
5.200000E+03	9.700317E-16	4.477210E-17
5.210000E+03	9.747057E-16	4.505396E-17
5.220000E+03	9.793178E-16	4.533597E-17
5.230000E+03	9.838759E-16	4.561847E-17
5.240000E+03	9.883786E-16	4.590137E-17
5.250000E+03	9.928445E-16	4.618550E-17
5.260000E+03	9.972618E-16	4.647029E-17
5.270000E+03	1.001649E-15	4.675659E-17
5.280000E+03	1.006016E-15	4.704480E-17
5.290000E+03	1.010361E-15	4.733482E-17
5.300000E+03	1.014692E-15	4.762705E-17
5.310000E+03	1.019010E-15	4.792143E-17
5.320000E+03	1.023332E-15	4.821879E-17
5.330000E+03	1.027659E-15	4.851918E-17
5.340000E+03	1.031999E-15	4.882292E-17
5.350000E+03	1.036362E-15	4.913047E-17
5.360000E+03	1.040747E-15	4.944178E-17
5.370000E+03	1.045165E-15	4.975735E-17
5.380000E+03	1.049624E-15	5.007757E-17
5.390000E+03	1.054135E-15	5.040296E-17
5.400000E+03	1.058698E-15	5.073347E-17
5.410000E+03	1.063311E-15	5.106904E-17
5.420000E+03	1.068006E-15	5.141120E-17
5.430000E+03	1.072761E-15	5.175892E-17
5.440000E+03	1.077610E-15	5.211379E-17
5.450000E+03	1.082540E-15	5.247521E-17
5.460000E+03	1.087573E-15	5.284430E-17
5.470000E+03	1.092709E-15	5.322101E-17
5.480000E+03	1.097938E-15	5.360486E-17
5.490000E+03	1.103291E-15	5.399743E-17
5.500000E+03	1.108758E-15	5.439822E-17
5.510000E+03	1.114340E-15	5.480727E-17
5.520000E+03	1.120046E-15	5.522509E-17
5.530000E+03	1.125867E-15	5.565127E-17
5.540000E+03	1.131824E-15	5.608683E-17
5.550000E+03	1.137908E-15	5.653131E-17
5.560000E+03	1.144129E-15	5.698535E-17
5.570000E+03	1.150475E-15	5.744830E-17
5.580000E+03	1.156949E-15	5.792036E-17
5.590000E+03	1.163561E-15	5.840201E-17
5.600000E+03	1.170299E-15	5.889278E-17
5.610000E+03	1.177165E-15	5.939275E-17
5.620000E+03	1.184146E-15	5.990125E-17
5.630000E+03	1.191254E-15	6.041901E-17
5.640000E+03	1.198468E-15	6.094490E-17
5.650000E+03	1.205798E-15	6.147951E-17
5.660000E+03	1.213232E-15	6.202223E-17
5.670000E+03	1.220770E-15	6.257309E-17
5.680000E+03	1.228403E-15	6.313162E-17
5.690000E+03	1.236117E-15	6.369716E-17
5.700000E+03	1.243923E-15	6.427029E-17
5.710000E+03	1.251799E-15	6.484990E-17
5.720000E+03	1.259744E-15	6.543590E-17
5.730000E+03	1.267759E-15	6.602838E-17
5.740000E+03	1.275819E-15	6.662607E-17
5.750000E+03	1.283936E-15	6.722954E-17
5.760000E+03	1.292086E-15	6.783760E-17
5.770000E+03	1.300269E-15	6.845024E-17
5.780000E+03	1.308484E-15	6.906733E-17
5.790000E+03	1.316695E-15	6.968705E-17
5.800000E+03	1.324927E-15	7.031064E-17
5.810000E+03	1.333141E-15	7.093610E-17
5.820000E+03	1.341350E-15	7.156398E-17
5.830000E+03	1.349530E-15	7.219306E-17
5.840000E+03	1.357668E-15	7.282261E-17
5.850000E+03	1.365763E-15	7.345254E-17
5.860000E+03	1.373802E-15	7.408207E-17
5.870000E+03	1.381774E-15	7.471059E-17
5.880000E+03	1.389653E-15	7.533665E-17
5.890000E+03	1.397450E-15	7.596078E-17
5.900000E+03	1.405142E-15	7.658169E-17
5.910000E+03	1.412713E-15	7.719846E-17
5.920000E+03	1.420142E-15	7.780981E-17
5.930000E+03	1.427437E-15	7.841616E-17
5.940000E+03	1.434574E-15	7.901613E-17
5.950000E+03	1.441542E-15	7.960893E-17
5.960000E+03	1.448324E-15	8.019366E-17
5.970000E+03	1.454911E-15	8.076964E-17
5.980000E+03	1.461288E-15	8.133589E-17
5.990000E+03	1.467430E-15	8.189104E-17
6.000000E+03	1.473325E-15	8.243421E-17
6.010000E+03	1.478984E-15	8.296591E-17
6.020000E+03	1.484357E-15	8.348327E-17
6.030000E+03	1.489455E-15	8.398669E-17
6.040000E+03	1.494255E-15	8.447475E-17
6.050000E+03	1.498741E-15	8.494647E-17
6.060000E+03	1.502891E-15	8.540035E-17
6.070000E+03	1.506714E-15	8.583683E-17
6.080000E+03	1.510186E-15	8.625440E-17
6.090000E+03	1.513282E-15	8.665135E-17
6.100000E+03	1.516003E-15	8.702764E-17
6.110000E+03	1.518333E-15	8.738220E-17
6.120000E+03	1.520262E-15	8.771422E-17
6.130000E+03	1.521764E-15	8.802207E-17
6.140000E+03	1.522864E-15	8.830690E-17
6.150000E+03	1.523511E-15	8.856572E-17
6.160000E+03	1.523731E-15	8.879971E-17
6.170000E+03	1.523499E-15	8.900726E-17
6.180000E+03	1.522814E-15	8.918812E-17
6.190000E+03	1.521678E-15	8.934217E-17
6.200000E+03	1.520088E-15	8.946911E-17
6.210000E+03	1.518046E-15	8.956877E-17
6.220000E+03	1.515539E-15	8.964023E-17
6.230000E+03	1.512593E-15	8.968478E-17
6.240000E+03	1.509207E-15	8.970219E-17
6.250000E+03	1.505380E-15	8.969223E-17
6.260000E+03	1.501150E-15	8.965689E-17
6.270000E+03	1.496506E-15	8.959534E-17
6.280000E+03	1.491472E-15	8.950885E-17
6.290000E+03	1.486073E-15	8.939871E-17
6.300000E+03	1.480307E-15	8.926473E-17
6.310000E+03	1.474215E-15	8.910907E-17
6.320000E+03	1.467818E-15	8.893294E-17
6.330000E+03	1.461119E-15	8.873635E-17
6.340000E+03	1.454153E-15	8.852135E-17
6.350000E+03	1.446933E-15	8.828859E-17
6.360000E+03	1.439486E-15	8.803950E-17
6.370000E+03	1.431835E-15	8.777554E-17
6.380000E+03	1.424006E-15	8.749808E-17
6.390000E+03	1.416011E-15	8.720785E-17
6.400000E+03	1.407862E-15	8.690555E-17
6.410000E+03	1.399609E-15	8.659413E-17
6.420000E+03	1.391253E-15	8.627364E-17
6.430000E+03	1.382807E-15	8.594483E-17
6.440000E+03	1.374308E-15	8.560997E-17
6.450000E+03	1.365756E-15	8.526900E-17
6.460000E+03	1.357175E-15	8.492352E-17
6.470000E+03	1.348594E-15	8.457514E-17
6.480000E+03	1.340008E-15	8.422377E-17
6.490000E+03	1.331433E-15	8.387024E-17
6.500000E+03	1.322871E-15	8.351471E-17
6.510000E+03	1.314356E-15	8.315940E-17
6.520000E+03	1.305865E-15	8.280285E-17
6.530000E+03	1.297424E-15	8.244672E-17
6.540000E+03	1.289021E-15	8.209027E-17
6.550000E+03	1.280681E-15	8.173507E-17
6.560000E+03	1.272392E-15	8.138046E-17
6.570000E+03	1.264155E-15	8.102648E-17
6.580000E+03	1.255983E-15	8.067400E-17
6.590000E+03	1.247876E-15	8.032300E-17
6.600000E+03	1.239836E-15	7.997372E-17
6.610000E+03	1.231874E-15	7.962693E-17
6.620000E+03	1.223967E-15	7.928108E-17
6.630000E+03	1.216129E-15	7.893713E-17
6.640000E+03	1.208372E-15	7.859586E-17
6.650000E+03	1.200684E-15	7.825664E-17
6.660000E+03	1.193078E-15	7.792030E-17
6.670000E+03	1.185543E-15	7.758611E-17
6.680000E+03	1.178068E-15	7.725342E-17
6.690000E+03	1.170678E-15	7.692388E-17
6.700000E+03	1.163372E-15	7.659753E-17
6.710000E+03	1.156128E-15	7.627288E-17
6.720000E+03	1.148959E-15	7.595089E-17
6.730000E+03	1.141864E-15	7.563149E-17
6.740000E+03	1.134835E-15	7.531416E-17
6.750000E+03	1.127894E-15	7.500042E-17
6.760000E+03	1.121008E-15	7.468810E-17
6.770000E+03	1.114198E-15	7.437871E-17
6.780000E+03	1.107469E-15	7.407250E-17
6.790000E+03	1.100796E-15	7.376795E-17
6.800000E+03	1.094192E-15	7.346583E-17
6.810000E+03	1.087658E-15	7.316640E-17
6.820000E+03	1.081195E-15	7.286961E-17
6.830000E+03	1.074791E-15	7.257475E-17
6.840000E+03	1.068460E-15	7.228282E-17
6.850000E+03	1.062190E-15	7.199303E-17
6.860000E+03	1.055983E-15	7.170555E-17
6.870000E+03	1.049838E-15	7.142034E-17
6.880000E+03	1.043747E-15	7.113683E-17
6.890000E+03	1.037732E-15	7.085662E-17
6.900000E+03	1.031760E-15	7.057748E-17
6.910000E+03	1.025866E-15	7.030177E-17
6.920000E+03	1.020016E-15	7.002734E-17
6.930000E+03	1.014224E-15	6.975503E-17
6.940000E+03	1.008502E-15	6.948570E-17
6.950000E+03	1.002827E-15	6.921787E-17
6.960000E+03	9.972106E-16	6.895240E-17
6.970000E+03	9.916441E-16	6.868861E-17
6.980000E+03	9.861393E-16	6.842741E-17
6.990000E+03	9.806854E-16	6.816805E-17
7.000000E+03	9.752835E-16	6.791066E-17
7.010000E+03	9.699345E-16	6.765531E-17
7.020000E+03	9.646392E-16	6.740210E-17
7.030000E+03	9.593876E-16	6.715034E-17
7.040000E+03	9.541915E-16	6.690089E-17
7.050000E+03	9.490516E-16	6.665383E-17
7.060000E+03	9.439580E-16	6.640849E-17
7.070000E+03	9.389115E-16	6.616495E-17
7.080000E+03	9.339130E-16	6.592329E-17
7.090000E+03	9.289632E-16	6.568361E-17
7.100000E+03	9.240631E-16	6.544598E-17
7.110000E+03	9.192135E-16	6.521049E-17
7.120000E+03	9.144044E-16	6.497646E-17
7.130000E+03	9.096473E-16	6.474473E-17
7.140000E+03	9.049325E-16	6.451463E-17
7.150000E+03	9.002607E-16	6.428624E-17
7.160000E+03	8.956328E-16	6.405964E-17
7.170000E+03	8.910599E-16	6.383565E-17
7.180000E+03	8.865220E-16	6.361287E-17
7.190000E+03	8.820302E-16	6.339211E-17
7.200000E+03	8.775748E-16	6.317269E-17
7.210000E+03	8.731671E-16	6.295545E-17
7.220000E+03	8.687974E-16	6.273972E-17
7.230000E+03	8.644766E-16	6.252631E-17
7.240000E+03	8.601850E-16	6.231380E-17
7.250000E+03	8.559438E-16	6.210377E-17
7.260000E+03	8.517333E-16	6.189479E-17
7.270000E+03	8.475643E-16	6.168767E-17
7.280000E+03	8.434374E-16	6.148249E-17
7.290000E+03	8.393433E-16	6.127858E-17
7.300000E+03	8.352826E-16	6.107601E-17
7.310000E+03	8.312659E-16	6.087556E-17
7.320000E+03	8.272739E-16	6.067585E-17
7.330000E+03	8.233173E-16	6.047767E-17
7.340000E+03	8.193965E-16	6.028109E-17
7.350000E+03	8.155023E-16	6.008542E-17
7.360000E+03	8.116453E-16	5.989149E-17
7.370000E+03	8.078160E-16	5.969860E-17
7.380000E+03	8.040150E-16	5.950681E-17
7.390000E+03	8.002332E-16	5.931545E-17
7.400000E+03	7.964906E-16	5.912605E-17
7.410000E+03	7.927683E-16	5.893720E-17
7.420000E+03	7.890766E-16	5.874969E-17
7.430000E+03	7.854061E-16	5.856283E-17
7.440000E+03	7.817574E-16	5.837668E-17
7.450000E+03	7.781310E-16	5.819129E-17
7.460000E+03	7.745273E-16	5.800671E-17
7.470000E+03	7.709566E-16	5.782372E-17
7.480000E+03	7.674096E-16	5.764164E-17
7.490000E+03	7.638768E-16	5.745977E-17
7.500000E+03	7.603782E-16	5.727963E-17
7.510000E+03	7.569141E-16	5.710126E-17
7.520000E+03	7.534751E-16	5.692395E-17
7.530000E+03	7.500614E-16	5.674775E-17
7.540000E+03	7.466926E-16	5.657415E-17
7.550000E+03	7.433497E-16	5.640173E-17
7.560000E+03	7.400520E-16	5.623198E-17
7.570000E+03	7.367899E-16	5.606418E-17
7.580000E+03	7.335733E-16	5.589909E-17
7.590000E+03	7.304019E-16	5.573673E-17
7.600000E+03	7.272663E-16	5.557637E-17
7.610000E+03	7.241854E-16	5.541948E-17
7.620000E+03	7.211588E-16	5.526604E-17
7.630000E+03	7.181767E-16	5.511532E-17
7.640000E+03	7.152483E-16	5.496803E-17
7.650000E+03	7.123636E-16	5.482342E-17
7.660000E+03	7.095413E-16	5.468293E-17
7.670000E+03	7.067807E-16	5.454655E-17
7.680000E+03	7.040624E-16	5.441278E-17
7.690000E+03	7.014141E-16	5.428378E-17
7.700000E+03	6.988164E-16	5.415806E-17
7.710000E+03	6.962783E-16	5.403634E-17
7.720000E+03	6.937895E-16	5.391784E-17
7.730000E+03	6.913779E-16	5.380475E-17
7.740000E+03	6.890145E-16	5.369481E-17
7.750000E+03	6.867176E-16	5.358948E-17
7.760000E+03	6.844771E-16	5.348799E-17
