#wls	flux	fluxerr
1.600000E+03	2.266621E-10	1.222490E-12
1.640000E+03	2.347288E-10	1.261875E-12
1.680000E+03	2.424383E-10	1.298973E-12
1.720000E+03	2.496715E-10	1.333156E-12
1.760000E+03	2.562948E-10	1.363732E-12
1.800000E+03	2.621617E-10	1.389948E-12
1.840000E+03	2.671110E-10	1.410989E-12
1.880000E+03	2.709682E-10	1.425985E-12
1.920000E+03	2.735473E-10	1.434018E-12
1.960000E+03	2.746523E-10	1.434141E-12
2.000000E+03	2.740849E-10	1.425411E-12
2.040000E+03	2.716533E-10	1.406941E-12
2.080000E+03	2.671961E-10	1.378020E-12
2.120000E+03	2.606040E-10	1.338226E-12
2.160000E+03	2.518419E-10	1.287529E-12
2.200000E+03	2.409713E-10	1.226401E-12
2.240000E+03	2.281909E-10	1.156007E-12
2.280000E+03	2.138711E-10	1.078364E-12
2.320000E+03	1.984650E-10	9.958738E-13
2.360000E+03	1.823681E-10	9.106089E-13
2.400000E+03	1.663845E-10	8.266357E-13
2.440000E+03	1.517504E-10	7.500743E-13
2.480000E+03	1.399979E-10	6.883731E-13
2.520000E+03	1.327271E-10	6.491500E-13
2.560000E+03	1.313246E-10	6.388061E-13
2.600000E+03	1.371595E-10	6.635004E-13
2.640000E+03	1.513984E-10	7.282554E-13
2.680000E+03	1.734484E-10	8.295356E-13
2.720000E+03	1.995060E-10	9.485895E-13
2.760000E+03	2.233105E-10	1.055468E-12
2.800000E+03	2.391013E-10	1.123280E-12
2.840000E+03	2.443159E-10	1.140737E-12
2.880000E+03	2.398885E-10	1.113086E-12
2.920000E+03	2.286969E-10	1.054445E-12
2.960000E+03	2.141403E-10	9.809957E-13
3.000000E+03	1.993905E-10	9.074859E-13
3.010000E+03	1.959451E-10	8.903399E-13
3.020000E+03	1.926450E-10	8.739021E-13
3.030000E+03	1.895084E-10	8.582521E-13
3.040000E+03	1.865495E-10	8.434510E-13
3.050000E+03	1.837784E-10	8.295398E-13
3.060000E+03	1.812030E-10	8.165507E-13
3.070000E+03	1.788299E-10	8.045086E-13
3.080000E+03	1.766609E-10	7.934172E-13
3.090000E+03	1.746979E-10	7.832808E-13
3.100000E+03	1.729406E-10	7.740938E-13
3.110000E+03	1.713807E-10	7.658139E-13
3.120000E+03	1.700096E-10	7.583986E-13
3.130000E+03	1.688158E-10	7.517927E-13
3.140000E+03	1.677790E-10	7.459020E-13
3.150000E+03	1.668774E-10	7.406261E-13
3.160000E+03	1.660889E-10	7.358638E-13
3.170000E+03	1.653883E-10	7.315018E-13
3.180000E+03	1.647513E-10	7.274308E-13
3.190000E+03	1.641536E-10	7.235419E-13
3.200000E+03	1.635730E-10	7.197365E-13
3.210000E+03	1.629871E-10	7.159167E-13
3.220000E+03	1.623772E-10	7.120006E-13
3.230000E+03	1.617342E-10	7.079480E-13
3.240000E+03	1.610507E-10	7.037285E-13
3.250000E+03	1.603226E-10	6.993250E-13
3.260000E+03	1.595515E-10	6.947454E-13
3.270000E+03	1.587419E-10	6.900101E-13
3.280000E+03	1.578969E-10	6.851340E-13
3.290000E+03	1.570163E-10	6.801165E-13
3.300000E+03	1.560988E-10	6.749539E-13
3.310000E+03	1.551427E-10	6.696391E-13
3.320000E+03	1.541409E-10	6.641423E-13
3.330000E+03	1.530865E-10	6.584355E-13
3.340000E+03	1.519764E-10	6.525063E-13
3.350000E+03	1.508198E-10	6.463959E-13
3.360000E+03	1.496306E-10	6.401641E-13
3.370000E+03	1.484199E-10	6.338601E-13
3.380000E+03	1.471897E-10	6.274922E-13
3.390000E+03	1.459408E-10	6.210649E-13
3.400000E+03	1.446736E-10	6.145801E-13
3.410000E+03	1.433839E-10	6.080205E-13
3.420000E+03	1.420683E-10	6.013727E-13
3.430000E+03	1.407281E-10	5.946417E-13
3.440000E+03	1.393860E-10	5.879251E-13
3.450000E+03	1.380689E-10	5.813357E-13
3.460000E+03	1.368134E-10	5.750268E-13
3.470000E+03	1.356952E-10	5.693147E-13
3.480000E+03	1.347965E-10	5.645408E-13
3.490000E+03	1.342096E-10	5.610865E-13
3.500000E+03	1.340829E-10	5.595632E-13
3.510000E+03	1.345733E-10	5.606154E-13
3.520000E+03	1.358320E-10	5.648576E-13
3.530000E+03	1.380161E-10	5.729254E-13
3.540000E+03	1.412726E-10	5.854082E-13
3.550000E+03	1.456455E-10	6.024646E-13
3.560000E+03	1.508217E-10	6.227771E-13
3.570000E+03	1.562843E-10	6.441986E-13
3.580000E+03	1.611133E-10	6.629376E-13
3.590000E+03	1.633692E-10	6.710421E-13
3.600000E+03	1.619908E-10	6.642165E-13
3.610000E+03	1.577919E-10	6.458699E-13
3.620000E+03	1.518504E-10	6.204675E-13
3.630000E+03	1.453840E-10	5.930126E-13
3.640000E+03	1.393877E-10	5.675678E-13
3.650000E+03	1.341834E-10	5.454312E-13
3.660000E+03	1.298610E-10	5.269502E-13
3.670000E+03	1.264284E-10	5.121383E-13
3.680000E+03	1.238014E-10	5.006358E-13
3.690000E+03	1.218661E-10	4.919658E-13
3.700000E+03	1.205092E-10	4.856573E-13
3.710000E+03	1.196350E-10	4.813136E-13
3.720000E+03	1.191483E-10	4.785425E-13
3.730000E+03	1.189646E-10	4.769964E-13
3.740000E+03	1.190461E-10	4.765191E-13
3.750000E+03	1.193635E-10	4.769871E-13
3.760000E+03	1.198939E-10	4.783052E-13
3.770000E+03	1.206714E-10	4.806046E-13
3.780000E+03	1.217303E-10	4.840171E-13
3.790000E+03	1.230906E-10	4.886169E-13
3.800000E+03	1.247843E-10	4.945249E-13
3.810000E+03	1.268129E-10	5.017407E-13
3.820000E+03	1.291337E-10	5.100896E-13
3.830000E+03	1.316755E-10	5.192859E-13
3.840000E+03	1.343223E-10	5.288684E-13
3.850000E+03	1.369214E-10	5.382360E-13
3.860000E+03	1.393068E-10	5.467375E-13
3.870000E+03	1.413272E-10	5.537857E-13
3.880000E+03	1.428781E-10	5.589781E-13
3.890000E+03	1.438941E-10	5.620688E-13
3.900000E+03	1.444083E-10	5.631966E-13
3.910000E+03	1.445424E-10	5.628451E-13
3.920000E+03	1.444276E-10	5.615314E-13
3.930000E+03	1.442512E-10	5.599872E-13
3.940000E+03	1.442200E-10	5.590151E-13
3.950000E+03	1.444644E-10	5.591176E-13
3.960000E+03	1.450782E-10	5.606523E-13
3.970000E+03	1.461050E-10	5.637817E-13
3.980000E+03	1.474789E-10	5.682445E-13
3.990000E+03	1.490729E-10	5.735465E-13
4.000000E+03	1.507143E-10	5.790216E-13
4.010000E+03	1.521667E-10	5.837620E-13
4.020000E+03	1.531992E-10	5.868867E-13
4.030000E+03	1.536196E-10	5.876676E-13
4.040000E+03	1.532343E-10	5.853756E-13
4.050000E+03	1.519570E-10	5.796943E-13
4.060000E+03	1.498108E-10	5.707257E-13
4.070000E+03	1.468178E-10	5.585669E-13
4.080000E+03	1.431240E-10	5.437860E-13
4.090000E+03	1.389830E-10	5.273549E-13
4.100000E+03	1.346130E-10	5.101066E-13
4.110000E+03	1.303009E-10	4.931294E-13
4.120000E+03	1.263702E-10	4.776447E-13
4.130000E+03	1.230613E-10	4.645539E-13
4.140000E+03	1.205992E-10	4.546952E-13
4.150000E+03	1.191766E-10	4.487831E-13
4.160000E+03	1.188882E-10	4.471580E-13
4.170000E+03	1.197392E-10	4.498249E-13
4.180000E+03	1.216519E-10	4.564773E-13
4.190000E+03	1.244986E-10	4.666232E-13
4.200000E+03	1.280200E-10	4.792801E-13
4.210000E+03	1.318490E-10	4.930679E-13
4.220000E+03	1.356570E-10	5.067560E-13
4.230000E+03	1.391013E-10	5.190677E-13
4.240000E+03	1.418737E-10	5.288588E-13
4.250000E+03	1.437829E-10	5.354258E-13
4.260000E+03	1.448355E-10	5.388035E-13
4.270000E+03	1.451957E-10	5.396125E-13
4.280000E+03	1.449290E-10	5.381043E-13
4.290000E+03	1.442915E-10	5.352346E-13
4.300000E+03	1.436357E-10	5.323144E-13
4.310000E+03	1.428898E-10	5.290780E-13
4.320000E+03	1.420737E-10	5.255994E-13
4.330000E+03	1.413356E-10	5.224276E-13
4.340000E+03	1.405956E-10	5.192664E-13
4.350000E+03	1.398718E-10	5.161823E-13
4.360000E+03	1.393010E-10	5.136798E-13
4.370000E+03	1.389025E-10	5.118289E-13
4.380000E+03	1.386645E-10	5.105846E-13
4.390000E+03	1.385948E-10	5.099734E-13
4.400000E+03	1.385928E-10	5.096243E-13
4.410000E+03	1.386118E-10	5.093647E-13
4.420000E+03	1.386657E-10	5.092456E-13
4.430000E+03	1.386584E-10	5.089139E-13
4.440000E+03	1.385408E-10	5.081892E-13
4.450000E+03	1.383161E-10	5.070838E-13
4.460000E+03	1.378855E-10	5.052366E-13
4.470000E+03	1.371988E-10	5.024639E-13
4.480000E+03	1.362463E-10	4.987315E-13
4.490000E+03	1.349134E-10	4.936212E-13
4.500000E+03	1.331357E-10	4.868989E-13
4.510000E+03	1.309059E-10	4.785392E-13
4.520000E+03	1.281511E-10	4.682778E-13
4.530000E+03	1.248656E-10	4.560946E-13
4.540000E+03	1.211114E-10	4.422177E-13
4.550000E+03	1.169283E-10	4.267935E-13
4.560000E+03	1.124235E-10	4.102135E-13
4.570000E+03	1.077786E-10	3.931402E-13
4.580000E+03	1.031774E-10	3.762437E-13
4.590000E+03	9.883718E-11	3.603147E-13
4.600000E+03	9.499558E-11	3.462173E-13
4.610000E+03	9.186929E-11	3.347390E-13
4.620000E+03	8.964299E-11	3.265499E-13
4.630000E+03	8.846683E-11	3.221939E-13
4.640000E+03	8.847895E-11	3.221712E-13
4.650000E+03	8.975723E-11	3.267624E-13
4.660000E+03	9.232236E-11	3.360403E-13
4.670000E+03	9.620670E-11	3.501202E-13
4.680000E+03	1.013515E-10	3.687864E-13
4.690000E+03	1.075910E-10	3.914344E-13
4.700000E+03	1.147385E-10	4.173837E-13
4.710000E+03	1.224943E-10	4.455441E-13
4.720000E+03	1.304467E-10	4.744176E-13
4.730000E+03	1.381648E-10	5.024385E-13
4.740000E+03	1.452246E-10	5.280655E-13
4.750000E+03	1.512567E-10	5.499567E-13
4.760000E+03	1.559551E-10	5.670008E-13
4.770000E+03	1.591826E-10	5.787005E-13
4.780000E+03	1.609662E-10	5.851550E-13
4.790000E+03	1.613764E-10	5.866211E-13
4.800000E+03	1.606109E-10	5.838178E-13
4.810000E+03	1.589528E-10	5.777749E-13
4.820000E+03	1.566243E-10	5.692990E-13
4.830000E+03	1.538650E-10	5.592613E-13
4.840000E+03	1.509136E-10	5.485294E-13
4.850000E+03	1.479090E-10	5.376073E-13
4.860000E+03	1.449635E-10	5.269027E-13
4.870000E+03	1.421656E-10	5.167372E-13
4.880000E+03	1.395333E-10	5.071759E-13
4.890000E+03	1.370617E-10	4.982007E-13
4.900000E+03	1.347413E-10	4.897766E-13
4.910000E+03	1.325281E-10	4.817434E-13
4.920000E+03	1.303825E-10	4.739574E-13
4.930000E+03	1.282780E-10	4.663217E-13
4.940000E+03	1.261915E-10	4.587518E-13
4.950000E+03	1.241191E-10	4.512339E-13
4.960000E+03	1.220791E-10	4.438340E-13
4.970000E+03	1.201054E-10	4.366750E-13
4.980000E+03	1.182453E-10	4.299293E-13
4.990000E+03	1.165393E-10	4.237439E-13
5.000000E+03	1.150204E-10	4.182383E-13
5.010000E+03	1.137077E-10	4.134823E-13
5.020000E+03	1.126033E-10	4.094832E-13
5.030000E+03	1.116892E-10	4.061758E-13
5.040000E+03	1.109390E-10	4.034640E-13
5.050000E+03	1.103164E-10	4.012152E-13
5.060000E+03	1.097774E-10	3.992701E-13
5.070000E+03	1.092825E-10	3.974849E-13
5.080000E+03	1.087991E-10	3.957403E-13
5.090000E+03	1.082929E-10	3.939117E-13
5.100000E+03	1.077439E-10	3.919267E-13
5.110000E+03	1.071537E-10	3.897904E-13
5.120000E+03	1.065183E-10	3.874884E-13
5.130000E+03	1.058607E-10	3.851043E-13
5.140000E+03	1.052122E-10	3.827519E-13
5.150000E+03	1.045900E-10	3.804938E-13
5.160000E+03	1.040152E-10	3.784062E-13
5.170000E+03	1.035030E-10	3.765451E-13
5.180000E+03	1.030125E-10	3.747610E-13
5.190000E+03	1.025013E-10	3.728997E-13
5.200000E+03	1.019413E-10	3.708593E-13
5.210000E+03	1.012887E-10	3.684797E-13
5.220000E+03	1.005302E-10	3.657133E-13
5.230000E+03	9.969081E-11	3.626505E-13
5.240000E+03	9.879045E-11	3.593640E-13
5.250000E+03	9.787459E-11	3.560191E-13
5.260000E+03	9.699756E-11	3.528135E-13
5.270000E+03	9.616791E-11	3.497782E-13
5.280000E+03	9.538862E-11	3.469239E-13
5.290000E+03	9.466260E-11	3.442613E-13
5.300000E+03	9.396984E-11	3.417176E-13
5.310000E+03	9.329279E-11	3.392288E-13
5.320000E+03	9.262491E-11	3.367711E-13
5.330000E+03	9.195760E-11	3.343134E-13
5.340000E+03	9.129121E-11	3.318568E-13
5.350000E+03	9.062935E-11	3.294144E-13
5.360000E+03	8.997710E-11	3.270048E-13
5.370000E+03	8.933470E-11	3.246288E-13
5.380000E+03	8.869489E-11	3.222600E-13
5.390000E+03	8.807323E-11	3.199549E-13
5.400000E+03	8.747629E-11	3.177373E-13
5.410000E+03	8.690658E-11	3.156164E-13
5.420000E+03	8.640326E-11	3.137343E-13
5.430000E+03	8.599909E-11	3.122098E-13
5.440000E+03	8.570493E-11	3.110821E-13
5.450000E+03	8.553313E-11	3.103957E-13
5.460000E+03	8.545261E-11	3.100375E-13
5.470000E+03	8.536197E-11	3.096395E-13
5.480000E+03	8.508991E-11	3.085803E-13
5.490000E+03	8.445608E-11	3.062065E-13
5.500000E+03	8.339227E-11	3.022719E-13
5.510000E+03	8.198233E-11	2.970815E-13
5.520000E+03	8.039384E-11	2.912435E-13
5.530000E+03	7.878863E-11	2.853448E-13
5.540000E+03	7.727982E-11	2.797951E-13
5.550000E+03	7.594182E-11	2.748634E-13
5.560000E+03	7.482210E-11	2.707212E-13
5.570000E+03	7.393722E-11	2.674275E-13
5.580000E+03	7.329472E-11	2.650090E-13
5.590000E+03	7.289673E-11	2.634723E-13
5.600000E+03	7.272402E-11	2.627470E-13
5.610000E+03	7.275828E-11	2.627660E-13
5.620000E+03	7.297923E-11	2.634551E-13
5.630000E+03	7.335187E-11	2.646871E-13
5.640000E+03	7.383493E-11	2.663124E-13
5.650000E+03	7.438412E-11	2.681706E-13
5.660000E+03	7.496441E-11	2.701350E-13
5.670000E+03	7.553364E-11	2.720534E-13
5.680000E+03	7.605079E-11	2.737782E-13
5.690000E+03	7.649874E-11	2.752478E-13
5.700000E+03	7.685842E-11	2.763939E-13
5.710000E+03	7.711711E-11	2.771712E-13
5.720000E+03	7.728704E-11	2.776242E-13
5.730000E+03	7.737930E-11	2.777930E-13
5.740000E+03	7.739691E-11	2.776891E-13
5.750000E+03	7.735336E-11	2.773611E-13
5.760000E+03	7.725038E-11	2.768157E-13
5.770000E+03	7.708075E-11	2.760274E-13
5.780000E+03	7.684813E-11	2.750097E-13
5.790000E+03	7.654940E-11	2.737519E-13
5.800000E+03	7.617824E-11	2.722320E-13
5.810000E+03	7.573592E-11	2.704550E-13
5.820000E+03	7.521818E-11	2.684064E-13
5.830000E+03	7.462042E-11	2.660703E-13
5.840000E+03	7.394928E-11	2.634713E-13
5.850000E+03	7.321391E-11	2.606425E-13
5.860000E+03	7.241905E-11	2.576016E-13
5.870000E+03	7.159855E-11	2.544693E-13
5.880000E+03	7.078115E-11	2.513483E-13
5.890000E+03	6.998889E-11	2.483167E-13
5.900000E+03	6.924549E-11	2.454585E-13
5.910000E+03	6.856306E-11	2.428164E-13
5.920000E+03	6.794102E-11	2.403877E-13
5.930000E+03	6.737733E-11	2.381647E-13
5.940000E+03	6.685664E-11	2.360927E-13
5.950000E+03	6.635831E-11	2.340986E-13
5.960000E+03	6.586772E-11	2.321306E-13
5.970000E+03	6.536746E-11	2.301275E-13
5.980000E+03	6.483083E-11	2.279956E-13
5.990000E+03	6.424132E-11	2.256773E-13
6.000000E+03	6.357458E-11	2.230880E-13
6.010000E+03	6.280801E-11	2.201494E-13
6.020000E+03	6.192821E-11	2.168159E-13
6.030000E+03	6.092642E-11	2.130585E-13
6.040000E+03	5.979372E-11	2.088477E-13
6.050000E+03	5.853519E-11	2.042031E-13
6.060000E+03	5.715890E-11	1.991547E-13
6.070000E+03	5.568151E-11	1.937623E-13
6.080000E+03	5.412859E-11	1.881164E-13
6.090000E+03	5.252959E-11	1.823205E-13
6.100000E+03	5.091539E-11	1.764827E-13
6.110000E+03	4.932378E-11	1.707343E-13
6.120000E+03	4.779001E-11	1.651972E-13
6.130000E+03	4.634786E-11	1.599876E-13
6.140000E+03	4.503743E-11	1.552426E-13
6.150000E+03	4.389518E-11	1.510860E-13
6.160000E+03	4.295390E-11	1.476284E-13
6.170000E+03	4.225646E-11	1.450139E-13
6.180000E+03	4.183823E-11	1.433602E-13
6.190000E+03	4.172472E-11	1.427502E-13
6.200000E+03	4.195599E-11	1.433160E-13
6.210000E+03	4.255488E-11	1.451299E-13
6.220000E+03	4.352736E-11	1.482060E-13
6.230000E+03	4.490202E-11	1.526351E-13
6.240000E+03	4.667758E-11	1.584057E-13
6.250000E+03	4.882818E-11	1.654231E-13
6.260000E+03	5.137967E-11	1.737677E-13
6.270000E+03	5.432682E-11	1.834143E-13
6.280000E+03	5.762108E-11	1.941916E-13
6.290000E+03	6.123201E-11	2.059901E-13
6.300000E+03	6.508602E-11	2.185562E-13
6.310000E+03	6.906520E-11	2.314893E-13
6.320000E+03	7.306739E-11	2.444446E-13
6.330000E+03	7.698657E-11	2.570664E-13
6.340000E+03	8.072381E-11	2.690261E-13
6.350000E+03	8.420499E-11	2.800795E-13
6.360000E+03	8.741902E-11	2.901943E-13
6.370000E+03	9.038877E-11	2.994506E-13
6.380000E+03	9.302002E-11	3.075412E-13
6.390000E+03	9.526466E-11	3.143137E-13
6.400000E+03	9.712913E-11	3.197967E-13
6.410000E+03	9.843001E-11	3.233950E-13
6.420000E+03	9.904671E-11	3.247248E-13
6.430000E+03	9.892988E-11	3.236388E-13
6.440000E+03	9.788611E-11	3.195216E-13
6.450000E+03	9.582936E-11	3.121131E-13
6.460000E+03	9.281607E-11	3.016191E-13
6.470000E+03	8.892721E-11	2.883241E-13
6.480000E+03	8.439160E-11	2.729883E-13
6.490000E+03	7.959137E-11	2.568606E-13
6.500000E+03	7.497939E-11	2.414060E-13
6.510000E+03	7.102125E-11	2.281168E-13
6.520000E+03	6.813272E-11	2.183109E-13
6.530000E+03	6.661609E-11	2.129304E-13
6.540000E+03	6.648000E-11	2.119710E-13
6.550000E+03	6.744945E-11	2.145253E-13
6.560000E+03	6.916558E-11	2.194285E-13
6.570000E+03	7.124927E-11	2.254624E-13
6.580000E+03	7.335603E-11	2.315305E-13
6.590000E+03	7.522651E-11	2.368155E-13
6.600000E+03	7.668976E-11	2.407860E-13
6.610000E+03	7.765784E-11	2.431766E-13
6.620000E+03	7.809585E-11	2.438907E-13
6.630000E+03	7.803069E-11	2.430252E-13
6.640000E+03	7.754144E-11	2.408388E-13
6.650000E+03	7.669848E-11	2.375605E-13
6.660000E+03	7.558831E-11	2.334667E-13
6.670000E+03	7.430570E-11	2.288566E-13
6.680000E+03	7.291389E-11	2.239292E-13
6.690000E+03	7.146881E-11	2.188590E-13
6.700000E+03	7.002496E-11	2.138140E-13
6.710000E+03	6.860733E-11	2.088708E-13
6.720000E+03	6.723517E-11	2.040873E-13
6.730000E+03	6.592854E-11	1.995232E-13
6.740000E+03	6.468799E-11	1.951788E-13
6.750000E+03	6.351645E-11	1.910612E-13
6.760000E+03	6.241560E-11	1.871741E-13
6.770000E+03	6.138170E-11	1.835043E-13
6.780000E+03	6.040996E-11	1.800360E-13
6.790000E+03	5.950053E-11	1.767682E-13
6.800000E+03	5.864784E-11	1.736827E-13
6.810000E+03	5.785010E-11	1.707729E-13
6.820000E+03	5.710473E-11	1.680299E-13
6.830000E+03	5.640915E-11	1.654447E-13
6.840000E+03	5.576336E-11	1.630161E-13
6.850000E+03	5.516711E-11	1.607421E-13
6.860000E+03	5.462245E-11	1.586273E-13
6.870000E+03	5.413217E-11	1.566786E-13
6.880000E+03	5.370013E-11	1.549055E-13
6.890000E+03	5.332672E-11	1.533077E-13
6.900000E+03	5.301025E-11	1.518787E-13
6.910000E+03	5.274957E-11	1.506137E-13
6.920000E+03	5.253722E-11	1.494899E-13
6.930000E+03	5.236437E-11	1.484810E-13
6.940000E+03	5.221956E-11	1.475535E-13
6.950000E+03	5.209423E-11	1.466827E-13
6.960000E+03	5.197550E-11	1.458318E-13
6.970000E+03	5.185510E-11	1.449779E-13
6.980000E+03	5.172523E-11	1.440991E-13
6.990000E+03	5.157867E-11	1.431760E-13
7.000000E+03	5.141212E-11	1.421999E-13
7.010000E+03	5.122173E-11	1.411612E-13
7.020000E+03	5.100351E-11	1.400495E-13
7.030000E+03	5.075646E-11	1.388631E-13
7.040000E+03	5.047693E-11	1.375932E-13
7.050000E+03	5.016423E-11	1.362389E-13
7.060000E+03	4.981660E-11	1.347965E-13
7.070000E+03	4.943426E-11	1.332680E-13
7.080000E+03	4.901896E-11	1.316590E-13
7.090000E+03	4.857519E-11	1.299828E-13
7.100000E+03	4.810635E-11	1.282494E-13
7.110000E+03	4.761799E-11	1.264745E-13
7.120000E+03	4.711597E-11	1.246741E-13
7.130000E+03	4.660699E-11	1.228665E-13
7.140000E+03	4.609415E-11	1.210602E-13
7.150000E+03	4.558404E-11	1.192726E-13
7.160000E+03	4.508294E-11	1.175200E-13
7.170000E+03	4.459794E-11	1.158209E-13
7.180000E+03	4.413217E-11	1.141828E-13
7.190000E+03	4.369155E-11	1.126206E-13
7.200000E+03	4.327880E-11	1.111407E-13
7.210000E+03	4.289874E-11	1.097547E-13
7.220000E+03	4.255091E-11	1.084604E-13
7.230000E+03	4.223703E-11	1.072617E-13
7.240000E+03	4.195718E-11	1.061576E-13
7.250000E+03	4.171170E-11	1.051484E-13
7.260000E+03	4.149928E-11	1.042299E-13
7.270000E+03	4.131976E-11	1.034008E-13
7.280000E+03	4.117178E-11	1.026570E-13
7.290000E+03	4.105194E-11	1.019894E-13
7.300000E+03	4.095807E-11	1.013920E-13
7.310000E+03	4.088686E-11	1.008560E-13
7.320000E+03	4.083442E-11	1.003716E-13
7.330000E+03	4.079562E-11	9.992577E-14
7.340000E+03	4.076794E-11	9.951227E-14
7.350000E+03	4.074790E-11	9.912252E-14
7.360000E+03	4.073320E-11	9.875094E-14
7.370000E+03	4.071876E-11	9.838534E-14
7.380000E+03	4.070289E-11	9.802186E-14
7.390000E+03	4.068399E-11	9.765688E-14
7.400000E+03	4.065753E-11	9.727984E-14
7.410000E+03	4.062455E-11	9.689360E-14
7.420000E+03	4.058071E-11	9.648822E-14
7.430000E+03	4.052425E-11	9.605996E-14
7.440000E+03	4.045576E-11	9.561067E-14
7.450000E+03	4.037259E-11	9.513458E-14
7.460000E+03	4.027363E-11	9.462956E-14
7.470000E+03	4.015895E-11	9.409629E-14
7.480000E+03	4.002650E-11	9.353043E-14
7.490000E+03	3.987667E-11	9.293343E-14
7.500000E+03	3.970778E-11	9.230181E-14
7.510000E+03	3.951816E-11	9.163219E-14
7.520000E+03	3.930857E-11	9.092682E-14
7.530000E+03	3.907765E-11	9.018297E-14
7.540000E+03	3.882634E-11	8.940325E-14
7.550000E+03	3.855380E-11	8.858610E-14
7.560000E+03	3.825929E-11	8.773020E-14
7.570000E+03	3.794568E-11	8.684240E-14
7.580000E+03	3.761245E-11	8.592180E-14
7.590000E+03	3.726263E-11	8.497554E-14
7.600000E+03	3.689718E-11	8.400595E-14
7.610000E+03	3.651966E-11	8.302121E-14
7.620000E+03	3.613158E-11	8.202480E-14
7.630000E+03	3.573642E-11	8.102461E-14
7.640000E+03	3.533551E-11	8.002358E-14
7.650000E+03	3.493110E-11	7.902673E-14
7.660000E+03	3.452537E-11	7.803884E-14
7.670000E+03	3.412037E-11	7.706437E-14
7.680000E+03	3.371805E-11	7.610757E-14
7.690000E+03	3.332127E-11	7.517465E-14
7.700000E+03	3.292981E-11	7.426497E-14
7.710000E+03	3.254633E-11	7.338424E-14
7.720000E+03	3.217241E-11	7.253586E-14
7.730000E+03	3.180955E-11	7.172298E-14
7.740000E+03	3.145825E-11	7.094651E-14
7.750000E+03	3.112081E-11	7.021147E-14
7.760000E+03	3.079853E-11	6.952062E-14
