#wls	flux	fluxerr
1.600000E+03	6.223423E-12	1.995179E-14
1.640000E+03	6.001286E-12	1.923963E-14
1.680000E+03	5.782726E-12	1.853894E-14
1.720000E+03	5.568487E-12	1.785210E-14
1.760000E+03	5.359757E-12	1.718292E-14
1.800000E+03	5.157116E-12	1.653326E-14
1.840000E+03	4.961566E-12	1.590634E-14
1.880000E+03	4.774010E-12	1.530505E-14
1.920000E+03	4.595700E-12	1.473340E-14
1.960000E+03	4.426924E-12	1.419231E-14
2.000000E+03	4.268404E-12	1.368410E-14
2.040000E+03	4.120868E-12	1.321111E-14
2.080000E+03	3.985866E-12	1.277831E-14
2.120000E+03	3.863518E-12	1.238606E-14
2.160000E+03	3.756060E-12	1.204156E-14
2.200000E+03	3.664272E-12	1.174729E-14
2.240000E+03	3.590949E-12	1.151222E-14
2.280000E+03	3.539321E-12	1.134671E-14
2.320000E+03	3.513412E-12	1.126364E-14
2.360000E+03	3.518379E-12	1.127956E-14
2.400000E+03	3.561687E-12	1.141840E-14
2.440000E+03	3.651964E-12	1.170781E-14
2.480000E+03	3.799486E-12	1.218075E-14
2.520000E+03	4.015935E-12	1.287466E-14
2.560000E+03	4.312995E-12	1.382699E-14
2.600000E+03	4.700817E-12	1.507030E-14
2.640000E+03	5.184276E-12	1.662022E-14
2.680000E+03	5.761812E-12	1.847173E-14
2.720000E+03	6.420073E-12	2.058203E-14
2.760000E+03	7.135942E-12	2.287702E-14
2.800000E+03	7.874791E-12	2.524568E-14
2.840000E+03	8.598840E-12	2.756689E-14
2.880000E+03	9.271560E-12	2.972355E-14
2.920000E+03	9.864273E-12	3.162371E-14
2.960000E+03	1.035827E-11	3.320740E-14
3.000000E+03	1.074379E-11	3.444332E-14
3.010000E+03	1.082272E-11	3.469637E-14
3.020000E+03	1.089466E-11	3.492699E-14
3.030000E+03	1.095900E-11	3.513324E-14
3.040000E+03	1.101659E-11	3.531788E-14
3.050000E+03	1.106635E-11	3.547738E-14
3.060000E+03	1.110861E-11	3.561288E-14
3.070000E+03	1.114324E-11	3.572389E-14
3.080000E+03	1.117051E-11	3.581132E-14
3.090000E+03	1.118977E-11	3.587307E-14
3.100000E+03	1.120041E-11	3.590715E-14
3.110000E+03	1.120351E-11	3.591711E-14
3.120000E+03	1.119756E-11	3.589802E-14
3.130000E+03	1.118318E-11	3.585191E-14
3.140000E+03	1.115929E-11	3.577534E-14
3.150000E+03	1.112652E-11	3.567025E-14
3.160000E+03	1.108461E-11	3.553589E-14
3.170000E+03	1.103255E-11	3.536901E-14
3.180000E+03	1.097096E-11	3.517154E-14
3.190000E+03	1.089888E-11	3.494049E-14
3.200000E+03	1.081697E-11	3.467789E-14
3.210000E+03	1.072476E-11	3.438225E-14
3.220000E+03	1.062219E-11	3.405343E-14
3.230000E+03	1.050928E-11	3.369146E-14
3.240000E+03	1.038612E-11	3.329663E-14
3.250000E+03	1.025286E-11	3.286939E-14
3.260000E+03	1.010968E-11	3.241037E-14
3.270000E+03	9.956884E-12	3.192053E-14
3.280000E+03	9.794534E-12	3.140006E-14
3.290000E+03	9.623378E-12	3.085135E-14
3.300000E+03	9.443926E-12	3.027605E-14
3.310000E+03	9.256506E-12	2.967520E-14
3.320000E+03	9.062046E-12	2.905178E-14
3.330000E+03	8.861033E-12	2.840736E-14
3.340000E+03	8.654497E-12	2.774523E-14
3.350000E+03	8.443047E-12	2.706735E-14
3.360000E+03	8.227562E-12	2.637653E-14
3.370000E+03	8.008981E-12	2.567578E-14
3.380000E+03	7.788418E-12	2.496868E-14
3.390000E+03	7.566610E-12	2.425759E-14
3.400000E+03	7.344465E-12	2.354542E-14
3.410000E+03	7.122705E-12	2.283449E-14
3.420000E+03	6.902539E-12	2.212866E-14
3.430000E+03	6.684577E-12	2.142990E-14
3.440000E+03	6.469383E-12	2.074002E-14
3.450000E+03	6.257907E-12	2.006205E-14
3.460000E+03	6.050524E-12	1.939721E-14
3.470000E+03	5.847529E-12	1.874643E-14
3.480000E+03	5.649381E-12	1.811119E-14
3.490000E+03	5.456266E-12	1.749209E-14
3.500000E+03	5.268250E-12	1.688933E-14
3.510000E+03	5.085383E-12	1.630308E-14
3.520000E+03	4.907273E-12	1.573209E-14
3.530000E+03	4.733761E-12	1.517583E-14
3.540000E+03	4.564492E-12	1.463317E-14
3.550000E+03	4.399055E-12	1.410280E-14
3.560000E+03	4.237013E-12	1.358331E-14
3.570000E+03	4.077931E-12	1.307332E-14
3.580000E+03	3.921412E-12	1.257154E-14
3.590000E+03	3.767117E-12	1.207689E-14
3.600000E+03	3.615057E-12	1.158940E-14
3.610000E+03	3.467540E-12	1.111648E-14
3.620000E+03	3.327273E-12	1.066680E-14
3.630000E+03	3.196347E-12	1.024707E-14
3.640000E+03	3.076384E-12	9.862484E-15
3.650000E+03	2.968549E-12	9.516778E-15
3.660000E+03	2.873723E-12	9.212777E-15
3.670000E+03	2.792725E-12	8.953109E-15
3.680000E+03	2.726125E-12	8.739597E-15
3.690000E+03	2.674607E-12	8.574436E-15
3.700000E+03	2.638797E-12	8.459633E-15
3.710000E+03	2.619467E-12	8.397666E-15
3.720000E+03	2.617567E-12	8.391573E-15
3.730000E+03	2.634286E-12	8.445173E-15
3.740000E+03	2.671096E-12	8.563179E-15
3.750000E+03	2.729917E-12	8.751750E-15
3.760000E+03	2.813170E-12	9.018648E-15
3.770000E+03	2.923886E-12	9.373590E-15
3.780000E+03	3.065782E-12	9.828488E-15
3.790000E+03	3.243481E-12	1.039817E-14
3.800000E+03	3.462617E-12	1.110069E-14
3.810000E+03	3.729935E-12	1.195767E-14
3.820000E+03	4.053527E-12	1.299506E-14
3.830000E+03	4.442966E-12	1.424355E-14
3.840000E+03	4.909105E-12	1.573793E-14
3.850000E+03	5.464393E-12	1.751811E-14
3.860000E+03	6.122422E-12	1.962766E-14
3.870000E+03	6.897340E-12	2.211194E-14
3.880000E+03	7.803535E-12	2.501708E-14
3.890000E+03	8.854095E-12	2.838503E-14
3.897500E+03	8.009196E-12	2.567640E-14
3.900000E+03	8.908774E-12	2.856032E-14
3.902500E+03	9.884400E-12	3.168805E-14
3.905000E+03	1.107752E-11	3.551303E-14
3.907500E+03	1.200283E-11	3.847946E-14
3.910000E+03	1.278246E-11	4.097884E-14
3.912500E+03	1.372633E-11	4.400475E-14
3.915000E+03	1.468960E-11	4.709286E-14
3.917500E+03	1.548115E-11	4.963045E-14
3.920000E+03	1.648042E-11	5.283400E-14
3.922500E+03	1.737749E-11	5.570987E-14
3.925000E+03	1.843140E-11	5.908856E-14
3.927500E+03	1.936921E-11	6.209505E-14
3.930000E+03	2.044895E-11	6.555655E-14
3.932500E+03	2.174820E-11	6.972177E-14
3.935000E+03	2.277931E-11	7.302737E-14
3.937500E+03	2.391106E-11	7.665561E-14
3.940000E+03	2.496361E-11	8.002992E-14
3.942500E+03	2.599368E-11	8.333220E-14
3.945000E+03	2.714604E-11	8.702650E-14
3.947500E+03	2.833345E-11	9.083317E-14
3.950000E+03	2.940232E-11	9.425982E-14
3.952500E+03	3.030382E-11	9.714993E-14
3.955000E+03	3.079556E-11	9.872635E-14
3.957500E+03	3.104857E-11	9.953749E-14
3.960000E+03	3.131618E-11	1.003954E-13
3.962500E+03	3.157789E-11	1.012344E-13
3.965000E+03	3.182059E-11	1.020125E-13
3.967500E+03	3.184092E-11	1.020776E-13
3.970000E+03	3.166034E-11	1.014987E-13
3.972500E+03	3.141786E-11	1.007214E-13
3.975000E+03	3.071700E-11	9.847449E-14
3.977500E+03	2.991186E-11	9.589335E-14
3.980000E+03	2.890663E-11	9.267071E-14
3.982500E+03	2.791975E-11	8.950691E-14
3.985000E+03	2.694660E-11	8.638711E-14
3.987500E+03	2.606789E-11	8.357007E-14
3.990000E+03	2.480809E-11	7.953134E-14
3.992500E+03	2.381441E-11	7.634573E-14
3.995000E+03	2.289084E-11	7.338490E-14
3.997500E+03	2.203677E-11	7.064688E-14
4.000000E+03	2.132617E-11	6.836878E-14
4.002500E+03	2.070896E-11	6.639009E-14
4.005000E+03	2.019711E-11	6.474916E-14
4.007500E+03	1.968641E-11	6.311193E-14
4.010000E+03	1.950876E-11	6.254239E-14
4.012500E+03	1.956934E-11	6.273663E-14
4.015000E+03	1.971199E-11	6.319393E-14
4.017500E+03	2.010423E-11	6.445139E-14
4.020000E+03	2.118561E-11	6.791815E-14
4.022500E+03	2.252210E-11	7.220275E-14
4.025000E+03	2.405950E-11	7.713146E-14
4.027500E+03	2.540498E-11	8.144488E-14
4.030000E+03	2.687989E-11	8.617323E-14
4.032500E+03	2.873439E-11	9.211849E-14
4.035000E+03	3.029539E-11	9.712286E-14
4.037500E+03	3.190090E-11	1.022699E-13
4.040000E+03	3.396829E-11	1.088977E-13
4.042500E+03	3.577179E-11	1.146794E-13
4.045000E+03	3.786323E-11	1.213843E-13
4.047500E+03	3.960049E-11	1.269537E-13
4.050000E+03	4.125682E-11	1.322637E-13
4.052500E+03	4.292360E-11	1.376071E-13
4.055000E+03	4.411674E-11	1.414322E-13
4.057500E+03	4.538227E-11	1.454893E-13
4.060000E+03	4.675516E-11	1.498906E-13
4.062500E+03	4.787469E-11	1.534796E-13
4.065000E+03	4.880929E-11	1.564758E-13
4.067500E+03	4.950642E-11	1.587107E-13
4.070000E+03	5.012249E-11	1.606858E-13
4.072500E+03	5.037475E-11	1.614945E-13
4.075000E+03	5.038657E-11	1.615324E-13
4.077500E+03	5.033605E-11	1.613704E-13
4.080000E+03	5.043937E-11	1.617016E-13
4.082500E+03	5.024462E-11	1.610773E-13
4.085000E+03	4.978675E-11	1.596094E-13
4.087500E+03	4.893385E-11	1.568751E-13
4.090000E+03	4.839164E-11	1.551369E-13
4.092500E+03	4.739862E-11	1.519534E-13
4.095000E+03	4.599945E-11	1.474679E-13
4.097500E+03	4.453950E-11	1.427875E-13
4.100000E+03	4.305604E-11	1.380317E-13
4.102500E+03	4.139784E-11	1.327157E-13
4.105000E+03	3.971559E-11	1.273227E-13
4.107500E+03	3.801024E-11	1.218556E-13
4.110000E+03	3.600775E-11	1.154358E-13
4.112500E+03	3.423934E-11	1.097666E-13
4.115000E+03	3.245885E-11	1.040586E-13
4.117500E+03	3.055991E-11	9.797084E-14
4.120000E+03	2.845197E-11	9.121307E-14
4.122500E+03	2.650645E-11	8.497599E-14
4.125000E+03	2.478972E-11	7.947239E-14
4.127500E+03	2.275477E-11	7.294864E-14
4.130000E+03	2.077716E-11	6.660870E-14
4.132500E+03	1.885818E-11	6.045672E-14
4.135000E+03	1.704556E-11	5.464568E-14
4.137500E+03	1.552886E-11	4.978335E-14
4.140000E+03	1.455551E-11	4.666295E-14
4.142500E+03	1.348427E-11	4.322869E-14
4.145000E+03	1.272244E-11	4.078637E-14
4.147500E+03	1.202820E-11	3.856072E-14
4.150000E+03	1.130610E-11	3.624578E-14
4.152500E+03	1.101114E-11	3.530019E-14
4.155000E+03	1.078107E-11	3.456259E-14
4.157500E+03	1.100969E-11	3.529552E-14
4.160000E+03	1.142906E-11	3.663998E-14
4.162500E+03	1.218433E-11	3.906127E-14
4.165000E+03	1.309021E-11	4.196540E-14
4.167500E+03	1.364996E-11	4.375986E-14
4.170000E+03	1.453771E-11	4.660586E-14
4.172500E+03	1.522037E-11	4.879437E-14
4.175000E+03	1.604258E-11	5.143028E-14
4.177500E+03	1.707971E-11	5.475516E-14
4.180000E+03	1.825651E-11	5.852783E-14
4.182500E+03	1.927333E-11	6.178759E-14
4.185000E+03	2.043114E-11	6.549938E-14
4.187500E+03	2.145708E-11	6.878841E-14
4.190000E+03	2.245569E-11	7.198980E-14
4.192500E+03	2.344809E-11	7.517131E-14
4.195000E+03	2.441829E-11	7.828163E-14
4.197500E+03	2.546202E-11	8.162766E-14
4.200000E+03	2.660082E-11	8.527851E-14
4.202500E+03	2.736762E-11	8.773678E-14
4.205000E+03	2.798867E-11	8.972777E-14
4.207500E+03	2.861426E-11	9.173330E-14
4.210000E+03	2.923687E-11	9.372931E-14
4.212500E+03	2.935044E-11	9.409341E-14
4.215000E+03	2.941369E-11	9.429615E-14
4.217500E+03	2.930928E-11	9.396144E-14
4.220000E+03	2.906030E-11	9.316326E-14
4.222500E+03	2.877829E-11	9.225915E-14
4.225000E+03	2.859362E-11	9.166713E-14
4.227500E+03	2.815574E-11	9.026334E-14
4.230000E+03	2.774373E-11	8.894251E-14
4.232500E+03	2.730576E-11	8.753842E-14
4.235000E+03	2.684497E-11	8.606122E-14
4.237500E+03	2.632228E-11	8.438555E-14
4.240000E+03	2.580913E-11	8.274044E-14
4.242500E+03	2.534796E-11	8.126201E-14
4.245000E+03	2.498900E-11	8.011124E-14
4.247500E+03	2.448423E-11	7.849301E-14
4.250000E+03	2.401202E-11	7.697915E-14
4.252500E+03	2.400049E-11	7.694221E-14
4.255000E+03	2.421291E-11	7.762319E-14
4.257500E+03	2.414554E-11	7.740721E-14
4.260000E+03	2.438246E-11	7.816675E-14
4.262500E+03	2.457920E-11	7.879746E-14
4.265000E+03	2.505622E-11	8.032671E-14
4.267500E+03	2.533192E-11	8.121058E-14
4.270000E+03	2.553329E-11	8.185614E-14
4.272500E+03	2.614362E-11	8.381277E-14
4.275000E+03	2.685879E-11	8.610550E-14
4.277500E+03	2.749480E-11	8.814444E-14
4.280000E+03	2.830443E-11	9.074002E-14
4.282500E+03	2.928380E-11	9.387975E-14
4.285000E+03	2.989858E-11	9.585063E-14
4.287500E+03	3.050122E-11	9.778260E-14
4.290000E+03	3.116271E-11	9.990324E-14
4.292500E+03	3.129775E-11	1.003362E-13
4.295000E+03	3.174876E-11	1.017821E-13
4.297500E+03	3.185880E-11	1.021348E-13
4.300000E+03	3.212383E-11	1.029845E-13
4.302500E+03	3.227993E-11	1.034849E-13
4.305000E+03	3.236921E-11	1.037711E-13
4.307500E+03	3.220922E-11	1.032582E-13
4.310000E+03	3.194357E-11	1.024066E-13
4.312500E+03	3.169738E-11	1.016173E-13
4.315000E+03	3.166920E-11	1.015270E-13
4.317500E+03	3.141632E-11	1.007163E-13
4.320000E+03	3.118637E-11	9.997910E-14
4.322500E+03	3.095581E-11	9.923994E-14
4.325000E+03	3.072688E-11	9.850603E-14
4.327500E+03	3.057512E-11	9.801950E-14
4.330000E+03	3.047818E-11	9.770874E-14
4.332500E+03	3.043172E-11	9.755979E-14
4.335000E+03	3.056136E-11	9.797540E-14
4.337500E+03	3.056891E-11	9.799961E-14
4.340000E+03	3.061030E-11	9.813229E-14
4.342500E+03	3.096794E-11	9.927882E-14
4.345000E+03	3.137264E-11	1.005762E-13
4.347500E+03	3.179957E-11	1.019449E-13
4.350000E+03	3.213848E-11	1.030314E-13
4.352500E+03	3.241075E-11	1.039043E-13
4.355000E+03	3.291463E-11	1.055196E-13
4.357500E+03	3.349230E-11	1.073716E-13
4.360000E+03	3.397503E-11	1.089191E-13
4.362500E+03	3.435684E-11	1.101432E-13
4.365000E+03	3.480780E-11	1.115889E-13
4.367500E+03	3.535560E-11	1.133450E-13
4.370000E+03	3.573698E-11	1.145677E-13
4.372500E+03	3.611200E-11	1.157699E-13
4.375000E+03	3.665282E-11	1.175037E-13
4.377500E+03	3.687968E-11	1.182310E-13
4.380000E+03	3.718725E-11	1.192170E-13
4.382500E+03	3.764022E-11	1.206692E-13
4.385000E+03	3.811340E-11	1.221861E-13
4.387500E+03	3.833012E-11	1.228809E-13
4.390000E+03	3.858972E-11	1.237131E-13
4.392500E+03	3.908639E-11	1.253054E-13
4.395000E+03	3.956987E-11	1.268554E-13
4.397500E+03	3.996143E-11	1.281106E-13
4.400000E+03	4.053413E-11	1.299467E-13
4.402500E+03	4.116328E-11	1.319636E-13
4.405000E+03	4.185828E-11	1.341917E-13
4.407500E+03	4.243233E-11	1.360320E-13
4.410000E+03	4.309313E-11	1.381504E-13
4.412500E+03	4.382929E-11	1.405104E-13
4.415000E+03	4.463398E-11	1.430902E-13
4.417500E+03	4.534658E-11	1.453747E-13
4.420000E+03	4.630270E-11	1.484398E-13
4.422500E+03	4.715394E-11	1.511688E-13
4.425000E+03	4.782877E-11	1.533322E-13
4.427500E+03	4.838868E-11	1.551272E-13
4.430000E+03	4.878776E-11	1.564066E-13
4.432500E+03	4.909469E-11	1.573906E-13
4.435000E+03	4.952019E-11	1.587547E-13
4.437500E+03	4.938071E-11	1.583075E-13
4.440000E+03	4.905403E-11	1.572602E-13
4.442500E+03	4.882170E-11	1.565154E-13
4.445000E+03	4.829474E-11	1.548260E-13
4.447500E+03	4.763250E-11	1.527030E-13
4.450000E+03	4.664388E-11	1.495336E-13
4.452500E+03	4.552026E-11	1.459315E-13
4.455000E+03	4.441466E-11	1.423870E-13
4.457500E+03	4.307690E-11	1.380984E-13
4.460000E+03	4.158563E-11	1.333176E-13
4.462500E+03	4.004100E-11	1.283657E-13
4.465000E+03	3.849261E-11	1.234018E-13
4.467500E+03	3.687181E-11	1.182057E-13
4.470000E+03	3.525786E-11	1.130316E-13
4.472500E+03	3.389265E-11	1.086550E-13
4.475000E+03	3.270911E-11	1.048607E-13
4.477500E+03	3.148091E-11	1.009233E-13
4.480000E+03	3.030302E-11	9.714712E-14
4.482500E+03	2.937293E-11	9.416539E-14
4.485000E+03	2.883511E-11	9.244121E-14
4.487500E+03	2.852968E-11	9.146207E-14
4.490000E+03	2.819501E-11	9.038917E-14
4.492500E+03	2.809691E-11	9.007468E-14
4.495000E+03	2.831099E-11	9.076097E-14
4.497500E+03	2.819328E-11	9.038360E-14
4.500000E+03	2.860550E-11	9.170513E-14
4.502500E+03	2.972316E-11	9.528819E-14
4.505000E+03	3.063270E-11	9.820402E-14
4.507500E+03	3.152035E-11	1.010497E-13
4.510000E+03	3.261955E-11	1.045736E-13
4.512500E+03	3.418705E-11	1.095988E-13
4.515000E+03	3.571175E-11	1.144867E-13
4.517500E+03	3.740344E-11	1.199101E-13
4.520000E+03	3.985525E-11	1.277702E-13
4.522500E+03	4.304322E-11	1.379904E-13
4.525000E+03	4.621511E-11	1.481590E-13
4.527500E+03	4.954871E-11	1.588460E-13
4.530000E+03	5.388257E-11	1.727398E-13
4.532500E+03	5.869947E-11	1.881820E-13
4.535000E+03	6.403734E-11	2.052945E-13
4.537500E+03	6.985583E-11	2.239477E-13
4.540000E+03	7.594335E-11	2.434634E-13
4.542500E+03	8.230131E-11	2.638461E-13
4.545000E+03	8.847987E-11	2.836537E-13
4.547500E+03	9.478031E-11	3.038520E-13
4.550000E+03	1.011422E-10	3.242473E-13
4.552500E+03	1.070652E-10	3.432357E-13
4.555000E+03	1.129776E-10	3.621899E-13
4.557500E+03	1.187656E-10	3.807455E-13
4.560000E+03	1.244189E-10	3.988692E-13
4.562500E+03	1.297075E-10	4.158234E-13
4.565000E+03	1.341269E-10	4.299915E-13
4.567500E+03	1.379909E-10	4.423789E-13
4.570000E+03	1.414683E-10	4.535270E-13
4.572500E+03	1.447282E-10	4.639777E-13
4.575000E+03	1.473700E-10	4.724471E-13
4.577500E+03	1.493448E-10	4.787778E-13
4.580000E+03	1.505302E-10	4.825781E-13
4.582500E+03	1.513624E-10	4.852460E-13
4.585000E+03	1.517196E-10	4.863911E-13
4.587500E+03	1.513343E-10	4.851559E-13
4.590000E+03	1.505459E-10	4.826283E-13
4.592500E+03	1.492448E-10	4.784571E-13
4.595000E+03	1.476736E-10	4.734202E-13
4.597500E+03	1.462209E-10	4.687630E-13
4.600000E+03	1.448627E-10	4.644087E-13
4.602500E+03	1.433193E-10	4.594609E-13
4.605000E+03	1.420284E-10	4.553226E-13
4.607500E+03	1.412212E-10	4.527347E-13
4.610000E+03	1.407033E-10	4.510745E-13
4.612500E+03	1.405355E-10	4.505365E-13
4.615000E+03	1.406816E-10	4.510047E-13
4.617500E+03	1.412510E-10	4.528302E-13
4.620000E+03	1.428520E-10	4.579628E-13
4.622500E+03	1.447792E-10	4.641413E-13
4.625000E+03	1.465096E-10	4.696886E-13
4.627500E+03	1.484566E-10	4.759303E-13
4.630000E+03	1.507295E-10	4.832170E-13
4.632500E+03	1.533407E-10	4.915880E-13
4.635000E+03	1.555722E-10	4.987419E-13
4.637500E+03	1.575457E-10	5.050688E-13
4.640000E+03	1.600274E-10	5.130248E-13
4.642500E+03	1.623241E-10	5.203873E-13
4.645000E+03	1.638153E-10	5.251681E-13
4.647500E+03	1.656687E-10	5.311098E-13
4.650000E+03	1.676532E-10	5.374718E-13
4.652500E+03	1.691972E-10	5.424216E-13
4.655000E+03	1.707143E-10	5.472852E-13
4.657500E+03	1.721071E-10	5.517503E-13
4.660000E+03	1.730964E-10	5.549219E-13
4.662500E+03	1.734879E-10	5.561769E-13
4.665000E+03	1.737558E-10	5.570358E-13
4.667500E+03	1.738028E-10	5.571866E-13
4.670000E+03	1.730832E-10	5.548796E-13
4.672500E+03	1.723255E-10	5.524504E-13
4.675000E+03	1.719301E-10	5.511830E-13
4.677500E+03	1.711570E-10	5.487045E-13
4.680000E+03	1.701279E-10	5.454054E-13
4.682500E+03	1.686368E-10	5.406252E-13
4.685000E+03	1.667330E-10	5.345217E-13
4.687500E+03	1.648405E-10	5.284546E-13
4.690000E+03	1.631535E-10	5.230464E-13
4.692500E+03	1.613934E-10	5.174038E-13
4.695000E+03	1.596933E-10	5.119535E-13
4.697500E+03	1.581260E-10	5.069289E-13
4.700000E+03	1.563044E-10	5.010891E-13
4.702500E+03	1.545310E-10	4.954038E-13
4.705000E+03	1.527091E-10	4.895631E-13
4.707500E+03	1.505853E-10	4.827544E-13
4.710000E+03	1.483531E-10	4.755985E-13
4.712500E+03	1.458197E-10	4.674766E-13
4.715000E+03	1.430939E-10	4.587383E-13
4.717500E+03	1.405260E-10	4.505059E-13
4.720000E+03	1.377543E-10	4.416200E-13
4.722500E+03	1.347307E-10	4.319270E-13
4.725000E+03	1.321785E-10	4.237451E-13
4.727500E+03	1.297721E-10	4.160304E-13
4.730000E+03	1.273428E-10	4.082423E-13
4.732500E+03	1.247102E-10	3.998028E-13
4.735000E+03	1.225001E-10	3.927174E-13
4.737500E+03	1.203995E-10	3.859832E-13
4.740000E+03	1.186975E-10	3.805270E-13
4.742500E+03	1.171936E-10	3.757054E-13
4.745000E+03	1.163347E-10	3.729519E-13
4.747500E+03	1.162173E-10	3.725757E-13
4.750000E+03	1.167996E-10	3.744425E-13
4.752500E+03	1.180122E-10	3.783298E-13
4.755000E+03	1.196073E-10	3.834435E-13
4.757500E+03	1.216108E-10	3.898665E-13
4.760000E+03	1.244191E-10	3.988695E-13
4.762500E+03	1.274273E-10	4.085133E-13
4.765000E+03	1.303358E-10	4.178376E-13
4.767500E+03	1.338500E-10	4.291033E-13
4.770000E+03	1.370968E-10	4.395124E-13
4.772500E+03	1.400771E-10	4.490667E-13
4.775000E+03	1.433396E-10	4.595257E-13
4.777500E+03	1.463951E-10	4.693211E-13
4.780000E+03	1.488389E-10	4.771558E-13
4.782500E+03	1.507078E-10	4.831472E-13
4.785000E+03	1.521574E-10	4.877944E-13
4.787500E+03	1.525818E-10	4.891549E-13
4.790000E+03	1.522325E-10	4.880350E-13
4.792500E+03	1.515740E-10	4.859241E-13
4.795000E+03	1.504290E-10	4.822533E-13
4.797500E+03	1.481098E-10	4.748184E-13
4.800000E+03	1.450222E-10	4.649197E-13
4.802500E+03	1.413568E-10	4.531693E-13
4.805000E+03	1.369491E-10	4.390386E-13
4.807500E+03	1.319897E-10	4.231395E-13
4.810000E+03	1.267402E-10	4.063105E-13
4.812500E+03	1.214373E-10	3.893102E-13
4.815000E+03	1.161276E-10	3.722881E-13
4.817500E+03	1.107839E-10	3.551568E-13
4.820000E+03	1.056492E-10	3.386959E-13
4.822500E+03	1.006657E-10	3.227195E-13
4.825000E+03	9.602282E-11	3.078350E-13
4.827500E+03	9.151734E-11	2.933911E-13
4.830000E+03	8.709492E-11	2.792135E-13
4.832500E+03	8.318721E-11	2.666860E-13
4.835000E+03	7.933358E-11	2.543318E-13
4.837500E+03	7.620606E-11	2.443054E-13
4.840000E+03	7.352617E-11	2.357141E-13
4.842500E+03	7.096099E-11	2.274905E-13
4.845000E+03	6.883400E-11	2.206717E-13
4.847500E+03	6.698264E-11	2.147365E-13
4.850000E+03	6.567113E-11	2.105320E-13
4.852500E+03	6.426165E-11	2.060134E-13
4.855000E+03	6.338842E-11	2.032139E-13
4.857500E+03	6.254775E-11	2.005189E-13
4.860000E+03	6.208421E-11	1.990328E-13
4.862500E+03	6.230997E-11	1.997566E-13
