#wls	flux	fluxerr
1.592975E+03	6.421946E-15	2.658227E-17
1.632799E+03	6.409582E-15	2.653110E-17
1.672624E+03	6.359502E-15	2.632380E-17
1.712448E+03	6.271511E-15	2.595958E-17
1.752272E+03	6.146571E-15	2.544241E-17
1.792097E+03	5.986638E-15	2.478041E-17
1.831921E+03	5.795430E-15	2.398894E-17
1.871746E+03	5.580102E-15	2.309764E-17
1.911570E+03	5.352315E-15	2.215476E-17
1.951394E+03	5.131647E-15	2.124136E-17
1.991219E+03	4.949343E-15	2.048674E-17
2.031043E+03	4.849969E-15	2.007541E-17
2.070867E+03	4.879172E-15	2.019629E-17
2.110692E+03	5.064975E-15	2.096538E-17
2.150516E+03	5.425853E-15	2.245916E-17
2.190341E+03	5.936189E-15	2.457158E-17
2.230165E+03	6.512423E-15	2.695678E-17
2.269989E+03	7.036311E-15	2.912530E-17
2.309814E+03	7.457733E-15	3.086969E-17
2.349638E+03	7.809716E-15	3.232664E-17
2.389462E+03	8.129287E-15	3.364944E-17
2.429287E+03	8.438170E-15	3.492799E-17
2.469111E+03	8.751828E-15	3.622631E-17
2.508936E+03	9.079620E-15	3.758314E-17
2.548760E+03	9.411547E-15	3.895707E-17
2.588584E+03	9.694796E-15	4.012952E-17
2.628409E+03	9.896617E-15	4.096492E-17
2.668233E+03	1.001540E-14	4.145659E-17
2.708057E+03	1.010216E-14	4.181571E-17
2.747882E+03	1.021013E-14	4.226264E-17
2.787706E+03	1.035586E-14	4.286585E-17
2.827531E+03	1.054039E-14	4.362967E-17
2.867355E+03	1.076034E-14	4.454012E-17
2.907179E+03	1.101169E-14	4.558051E-17
2.947004E+03	1.129011E-14	4.673296E-17
2.986828E+03	1.159111E-14	4.797891E-17
2.996784E+03	1.166938E-14	4.830288E-17
3.006740E+03	1.174864E-14	4.863095E-17
3.016696E+03	1.182889E-14	4.896315E-17
3.026652E+03	1.191004E-14	4.929905E-17
3.036609E+03	1.199214E-14	4.963886E-17
3.046565E+03	1.207530E-14	4.998308E-17
3.056521E+03	1.215958E-14	5.033195E-17
3.066477E+03	1.224480E-14	5.068471E-17
3.076433E+03	1.233093E-14	5.104124E-17
3.086389E+03	1.241782E-14	5.140090E-17
3.096345E+03	1.250532E-14	5.176306E-17
3.106301E+03	1.259343E-14	5.212780E-17
3.116257E+03	1.268206E-14	5.249465E-17
3.126213E+03	1.277117E-14	5.286349E-17
3.136169E+03	1.286069E-14	5.323403E-17
3.146126E+03	1.295056E-14	5.360606E-17
3.156082E+03	1.304093E-14	5.398011E-17
3.166038E+03	1.313170E-14	5.435585E-17
3.175994E+03	1.322293E-14	5.473347E-17
3.185950E+03	1.331486E-14	5.511399E-17
3.195906E+03	1.340760E-14	5.549788E-17
3.205862E+03	1.350127E-14	5.588561E-17
3.215818E+03	1.359612E-14	5.627819E-17
3.225774E+03	1.369258E-14	5.667750E-17
3.235730E+03	1.379097E-14	5.708472E-17
3.245687E+03	1.389161E-14	5.750132E-17
3.255643E+03	1.399509E-14	5.792967E-17
3.265599E+03	1.410163E-14	5.837065E-17
3.275555E+03	1.421105E-14	5.882356E-17
3.285511E+03	1.432290E-14	5.928657E-17
3.295467E+03	1.443637E-14	5.975623E-17
3.305423E+03	1.454955E-14	6.022471E-17
3.315379E+03	1.466014E-14	6.068249E-17
3.325335E+03	1.476503E-14	6.111665E-17
3.335291E+03	1.486084E-14	6.151326E-17
3.345247E+03	1.494428E-14	6.185861E-17
3.355204E+03	1.501362E-14	6.214562E-17
3.365160E+03	1.507106E-14	6.238339E-17
3.375116E+03	1.512052E-14	6.258811E-17
3.385072E+03	1.516649E-14	6.277840E-17
3.395028E+03	1.521366E-14	6.297364E-17
3.404984E+03	1.526630E-14	6.319154E-17
3.414940E+03	1.532788E-14	6.344645E-17
3.424896E+03	1.540070E-14	6.374787E-17
3.434852E+03	1.548606E-14	6.410119E-17
3.444808E+03	1.558445E-14	6.450846E-17
3.454764E+03	1.569512E-14	6.496655E-17
3.464721E+03	1.581603E-14	6.546705E-17
3.474677E+03	1.594375E-14	6.599570E-17
3.482652E+03	1.909404E-14	7.903564E-17
3.485503E+03	1.910949E-14	7.909961E-17
3.488353E+03	1.912355E-14	7.915779E-17
3.491204E+03	1.913136E-14	7.919012E-17
3.494054E+03	1.913013E-14	7.918504E-17
3.496906E+03	1.911431E-14	7.911954E-17
3.499756E+03	1.909639E-14	7.904537E-17
3.502607E+03	1.908611E-14	7.900284E-17
3.505458E+03	1.906679E-14	7.892286E-17
3.508308E+03	1.904747E-14	7.884290E-17
3.511159E+03	1.899407E-14	7.862186E-17
3.514010E+03	1.894206E-14	7.840655E-17
3.516861E+03	1.887056E-14	7.811062E-17
3.519711E+03	1.881226E-14	7.786929E-17
3.522562E+03	1.877690E-14	7.772292E-17
3.525413E+03	1.875197E-14	7.761971E-17
3.528263E+03	1.871241E-14	7.745598E-17
3.531115E+03	1.865963E-14	7.723749E-17
3.533965E+03	1.861171E-14	7.703914E-17
3.536816E+03	1.856378E-14	7.684075E-17
3.539666E+03	1.851444E-14	7.663654E-17
3.542517E+03	1.847692E-14	7.648122E-17
3.545368E+03	1.845122E-14	7.637484E-17
3.548218E+03	1.841856E-14	7.623964E-17
3.551070E+03	1.837753E-14	7.606982E-17
3.553920E+03	1.834206E-14	7.592301E-17
3.556771E+03	1.829196E-14	7.571563E-17
3.559622E+03	1.823281E-14	7.547076E-17
3.562472E+03	1.817084E-14	7.521428E-17
3.565323E+03	1.811096E-14	7.496641E-17
3.568174E+03	1.804967E-14	7.471269E-17
3.571025E+03	1.799393E-14	7.448198E-17
3.573875E+03	1.796046E-14	7.434345E-17
3.576727E+03	1.792141E-14	7.418181E-17
3.579577E+03	1.787886E-14	7.400568E-17
3.582427E+03	1.783700E-14	7.383241E-17
3.585279E+03	1.780767E-14	7.371101E-17
3.588129E+03	1.775185E-14	7.347996E-17
3.590980E+03	1.772251E-14	7.335850E-17
3.593830E+03	1.767782E-14	7.317353E-17
3.596682E+03	1.763523E-14	7.299724E-17
3.599532E+03	1.762608E-14	7.295935E-17
3.602382E+03	1.758487E-14	7.278876E-17
3.605234E+03	1.756457E-14	7.270472E-17
3.608084E+03	1.754566E-14	7.262649E-17
3.610935E+03	1.751003E-14	7.247897E-17
3.613786E+03	1.749322E-14	7.240941E-17
3.616637E+03	1.748687E-14	7.238312E-17
3.619487E+03	1.746380E-14	7.228763E-17
3.622337E+03	1.743864E-14	7.218348E-17
3.625189E+03	1.740024E-14	7.202455E-17
3.628039E+03	1.738416E-14	7.195798E-17
3.630891E+03	1.735136E-14	7.182219E-17
3.633741E+03	1.732693E-14	7.172107E-17
3.636592E+03	1.728368E-14	7.154205E-17
3.639442E+03	1.725788E-14	7.143525E-17
3.642293E+03	1.721674E-14	7.126498E-17
3.645144E+03	1.720142E-14	7.120157E-17
3.647994E+03	1.717007E-14	7.107181E-17
3.650846E+03	1.712129E-14	7.086989E-17
3.653696E+03	1.711161E-14	7.082980E-17
3.656547E+03	1.709147E-14	7.074644E-17
3.659398E+03	1.707623E-14	7.068336E-17
3.662248E+03	1.705613E-14	7.060016E-17
3.665099E+03	1.701929E-14	7.044767E-17
3.667950E+03	1.701319E-14	7.042241E-17
3.670801E+03	1.695474E-14	7.018048E-17
3.673651E+03	1.692563E-14	7.005998E-17
3.676502E+03	1.690423E-14	6.997139E-17
3.679353E+03	1.688703E-14	6.990023E-17
3.682203E+03	1.686148E-14	6.979447E-17
3.685054E+03	1.681640E-14	6.960784E-17
3.687905E+03	1.677063E-14	6.941838E-17
3.690756E+03	1.672278E-14	6.922032E-17
3.693606E+03	1.667354E-14	6.901653E-17
3.696458E+03	1.662294E-14	6.880707E-17
3.699308E+03	1.657026E-14	6.858900E-17
3.702158E+03	1.651620E-14	6.836522E-17
3.705010E+03	1.644607E-14	6.807495E-17
3.707860E+03	1.635918E-14	6.771530E-17
3.710711E+03	1.624013E-14	6.722252E-17
3.713562E+03	1.614697E-14	6.683688E-17
3.716413E+03	1.603492E-14	6.637309E-17
3.719263E+03	1.595786E-14	6.605412E-17
3.722113E+03	1.588082E-14	6.573521E-17
3.724965E+03	1.578279E-14	6.532946E-17
3.727815E+03	1.565609E-14	6.480501E-17
3.730666E+03	1.554967E-14	6.436451E-17
3.733517E+03	1.545237E-14	6.396175E-17
3.736368E+03	1.536138E-14	6.358510E-17
3.739218E+03	1.528510E-14	6.326938E-17
3.742069E+03	1.522144E-14	6.300587E-17
3.744920E+03	1.516479E-14	6.277139E-17
3.747770E+03	1.509417E-14	6.247904E-17
3.750622E+03	1.502706E-14	6.220125E-17
3.753472E+03	1.497537E-14	6.198730E-17
3.756323E+03	1.490269E-14	6.168645E-17
3.759173E+03	1.484193E-14	6.143496E-17
3.762024E+03	1.477699E-14	6.116614E-17
3.764875E+03	1.472819E-14	6.096415E-17
3.767725E+03	1.468642E-14	6.079127E-17
3.770577E+03	1.465169E-14	6.064749E-17
3.773427E+03	1.462190E-14	6.052418E-17
3.776278E+03	1.457389E-14	6.032548E-17
3.779129E+03	1.452451E-14	6.012105E-17
3.781979E+03	1.447654E-14	5.992251E-17
3.784830E+03	1.442860E-14	5.972408E-17
3.787681E+03	1.436594E-14	5.946469E-17
3.790532E+03	1.429556E-14	5.917340E-17
3.793382E+03	1.424487E-14	5.896355E-17
3.796234E+03	1.420262E-14	5.878868E-17
3.799084E+03	1.415549E-14	5.859359E-17
3.801934E+03	1.410134E-14	5.836945E-17
3.804785E+03	1.407393E-14	5.825598E-17
3.807636E+03	1.405217E-14	5.816592E-17
3.810487E+03	1.400794E-14	5.798284E-17
3.813337E+03	1.397428E-14	5.784351E-17
3.816189E+03	1.395120E-14	5.774798E-17
3.819039E+03	1.391972E-14	5.761765E-17
3.821889E+03	1.390163E-14	5.754277E-17
3.824741E+03	1.387230E-14	5.742140E-17
3.827591E+03	1.385287E-14	5.734097E-17
3.830442E+03	1.382995E-14	5.724608E-17
3.833293E+03	1.382819E-14	5.723879E-17
3.836144E+03	1.382366E-14	5.722003E-17
3.838994E+03	1.384313E-14	5.730063E-17
3.841845E+03	1.384291E-14	5.729974E-17
3.844696E+03	1.386530E-14	5.739242E-17
3.847546E+03	1.385883E-14	5.736564E-17
3.850398E+03	1.386933E-14	5.740910E-17
3.853248E+03	1.389541E-14	5.751702E-17
3.856099E+03	1.390530E-14	5.755798E-17
3.858949E+03	1.392937E-14	5.765762E-17
3.861800E+03	1.394290E-14	5.771361E-17
3.864651E+03	1.395295E-14	5.775522E-17
3.867501E+03	1.398920E-14	5.790527E-17
3.870353E+03	1.402127E-14	5.803802E-17
3.873203E+03	1.407956E-14	5.827931E-17
3.876054E+03	1.410399E-14	5.838041E-17
3.878905E+03	1.414758E-14	5.856084E-17
3.881755E+03	1.418911E-14	5.873275E-17
3.884606E+03	1.422647E-14	5.888740E-17
3.887457E+03	1.427523E-14	5.908923E-17
3.890308E+03	1.434107E-14	5.936174E-17
3.893158E+03	1.441194E-14	5.965512E-17
3.896010E+03	1.447299E-14	5.990782E-17
3.898860E+03	1.453697E-14	6.017263E-17
3.901710E+03	1.460883E-14	6.047011E-17
3.904561E+03	1.467369E-14	6.073857E-17
3.907412E+03	1.472162E-14	6.093696E-17
3.910263E+03	1.475828E-14	6.108871E-17
3.913113E+03	1.479429E-14	6.123778E-17
3.915965E+03	1.481264E-14	6.131371E-17
3.918815E+03	1.483033E-14	6.138696E-17
3.921665E+03	1.483530E-14	6.140750E-17
3.924517E+03	1.482397E-14	6.136062E-17
3.927367E+03	1.480699E-14	6.129035E-17
3.930218E+03	1.478865E-14	6.121440E-17
3.933069E+03	1.476107E-14	6.110027E-17
3.935920E+03	1.472429E-14	6.094802E-17
3.938770E+03	1.469964E-14	6.084598E-17
3.941620E+03	1.466362E-14	6.069689E-17
3.944472E+03	1.463547E-14	6.058038E-17
3.947322E+03	1.457885E-14	6.034597E-17
3.950173E+03	1.454576E-14	6.020904E-17
3.953024E+03	1.450415E-14	6.003678E-17
3.955875E+03	1.446541E-14	5.987642E-17
3.958725E+03	1.441526E-14	5.966885E-17
3.961576E+03	1.436657E-14	5.946731E-17
3.964427E+03	1.432503E-14	5.929538E-17
3.967277E+03	1.429352E-14	5.916495E-17
3.970129E+03	1.425704E-14	5.901394E-17
3.972979E+03	1.422988E-14	5.890153E-17
3.975830E+03	1.420276E-14	5.878925E-17
3.978681E+03	1.418354E-14	5.870970E-17
3.981531E+03	1.416293E-14	5.862440E-17
3.984382E+03	1.415024E-14	5.857185E-17
3.987232E+03	1.414476E-14	5.854919E-17
3.990084E+03	1.414507E-14	5.855048E-17
3.992934E+03	1.415548E-14	5.859355E-17
3.995785E+03	1.416452E-14	5.863097E-17
3.998636E+03	1.417721E-14	5.868350E-17
4.001486E+03	1.420074E-14	5.878091E-17
4.004337E+03	1.422149E-14	5.886677E-17
4.007188E+03	1.424229E-14	5.895288E-17
4.010039E+03	1.425023E-14	5.898574E-17
4.012889E+03	1.426903E-14	5.906355E-17
4.015741E+03	1.430518E-14	5.921321E-17
4.018591E+03	1.434071E-14	5.936025E-17
4.021441E+03	1.438497E-14	5.954347E-17
4.024292E+03	1.441924E-14	5.968534E-17
4.027143E+03	1.444927E-14	5.980962E-17
4.029994E+03	1.449166E-14	5.998509E-17
4.032845E+03	1.453560E-14	6.016696E-17
4.035696E+03	1.455940E-14	6.026549E-17
4.038546E+03	1.458328E-14	6.036434E-17
4.041396E+03	1.459930E-14	6.043063E-17
4.044248E+03	1.460598E-14	6.045830E-17
4.047098E+03	1.459174E-14	6.039934E-17
4.049949E+03	1.458768E-14	6.038255E-17
4.052800E+03	1.456555E-14	6.029096E-17
4.055651E+03	1.453767E-14	6.017554E-17
4.058501E+03	1.449894E-14	6.001520E-17
4.061352E+03	1.445005E-14	5.981287E-17
4.064203E+03	1.439609E-14	5.958951E-17
4.067053E+03	1.433342E-14	5.933008E-17
4.069904E+03	1.425910E-14	5.902247E-17
4.072755E+03	1.417749E-14	5.868465E-17
4.075606E+03	1.407328E-14	5.825328E-17
4.078457E+03	1.398212E-14	5.787597E-17
4.081307E+03	1.386834E-14	5.740497E-17
4.084158E+03	1.376250E-14	5.696687E-17
4.087008E+03	1.365222E-14	5.651040E-17
4.089860E+03	1.354625E-14	5.607176E-17
4.092710E+03	1.344095E-14	5.563591E-17
4.095561E+03	1.332974E-14	5.517557E-17
4.098412E+03	1.322065E-14	5.472400E-17
4.101262E+03	1.311953E-14	5.430544E-17
4.104113E+03	1.301176E-14	5.385936E-17
4.106964E+03	1.290538E-14	5.341903E-17
4.109815E+03	1.279013E-14	5.294199E-17
4.112665E+03	1.268067E-14	5.248887E-17
4.115517E+03	1.256672E-14	5.201721E-17
4.118367E+03	1.245121E-14	5.153910E-17
4.121217E+03	1.234665E-14	5.110627E-17
4.124069E+03	1.222508E-14	5.060309E-17
4.126919E+03	1.211961E-14	5.016650E-17
4.129770E+03	1.200596E-14	4.969606E-17
4.132620E+03	1.190473E-14	4.927707E-17
4.135472E+03	1.179975E-14	4.884252E-17
4.138322E+03	1.170427E-14	4.844728E-17
4.141172E+03	1.160503E-14	4.803649E-17
4.144024E+03	1.150792E-14	4.763453E-17
4.146874E+03	1.141074E-14	4.723227E-17
4.149725E+03	1.133344E-14	4.691231E-17
4.152576E+03	1.124425E-14	4.654314E-17
4.155427E+03	1.116240E-14	4.620433E-17
4.158277E+03	1.106788E-14	4.581310E-17
4.161128E+03	1.098664E-14	4.547682E-17
4.163979E+03	1.090162E-14	4.512490E-17
4.166829E+03	1.083882E-14	4.486495E-17
4.169680E+03	1.077301E-14	4.459253E-17
4.172531E+03	1.071235E-14	4.434146E-17
4.175382E+03	1.065315E-14	4.409643E-17
4.178232E+03	1.061403E-14	4.393449E-17
4.181083E+03	1.056000E-14	4.371084E-17
4.183934E+03	1.051564E-14	4.352720E-17
4.186784E+03	1.047797E-14	4.337128E-17
4.189636E+03	1.044180E-14	4.322156E-17
4.192486E+03	1.041161E-14	4.309659E-17
4.195337E+03	1.039489E-14	4.302739E-17
4.198188E+03	1.038568E-14	4.298929E-17
4.201038E+03	1.038326E-14	4.297926E-17
4.203889E+03	1.037714E-14	4.295392E-17
4.206740E+03	1.037706E-14	4.295360E-17
4.209591E+03	1.039356E-14	4.302190E-17
4.212441E+03	1.041090E-14	4.309367E-17
4.215292E+03	1.045165E-14	4.326233E-17
4.218143E+03	1.049176E-14	4.342835E-17
4.220993E+03	1.053575E-14	4.361046E-17
4.223844E+03	1.058138E-14	4.379933E-17
4.226695E+03	1.065130E-14	4.408876E-17
4.229546E+03	1.071762E-14	4.436327E-17
4.232396E+03	1.079241E-14	4.467286E-17
4.235248E+03	1.087421E-14	4.501142E-17
4.238098E+03	1.095847E-14	4.536021E-17
4.240948E+03	1.104293E-14	4.570982E-17
4.243800E+03	1.112912E-14	4.606656E-17
4.246650E+03	1.122159E-14	4.644934E-17
4.249501E+03	1.132264E-14	4.686762E-17
4.252352E+03	1.142697E-14	4.729947E-17
4.255203E+03	1.152927E-14	4.772291E-17
4.258053E+03	1.162496E-14	4.811898E-17
4.260903E+03	1.172087E-14	4.851598E-17
4.263755E+03	1.181320E-14	4.889818E-17
4.266605E+03	1.190730E-14	4.928769E-17
4.269456E+03	1.199628E-14	4.965601E-17
4.272307E+03	1.207401E-14	4.997773E-17
4.275158E+03	1.214428E-14	5.026860E-17
4.278008E+03	1.221168E-14	5.054762E-17
4.280859E+03	1.228313E-14	5.084334E-17
4.283710E+03	1.235477E-14	5.113989E-17
4.286560E+03	1.241046E-14	5.137041E-17
4.289412E+03	1.245863E-14	5.156981E-17
4.292262E+03	1.250543E-14	5.176353E-17
4.295113E+03	1.254622E-14	5.193237E-17
4.297963E+03	1.257404E-14	5.204750E-17
4.300814E+03	1.261125E-14	5.220155E-17
4.303665E+03	1.262694E-14	5.226649E-17
4.306515E+03	1.263190E-14	5.228701E-17
4.309367E+03	1.262607E-14	5.226287E-17
4.312217E+03	1.262884E-14	5.227436E-17
4.315068E+03	1.261692E-14	5.222503E-17
4.317919E+03	1.260427E-14	5.217265E-17
4.320769E+03	1.259010E-14	5.211400E-17
4.323620E+03	1.256429E-14	5.200714E-17
4.326471E+03	1.254784E-14	5.193905E-17
4.329322E+03	1.251814E-14	5.181613E-17
4.332172E+03	1.248922E-14	5.169643E-17
4.335024E+03	1.245638E-14	5.156050E-17
4.337874E+03	1.241883E-14	5.140507E-17
4.340724E+03	1.238518E-14	5.126575E-17
4.343575E+03	1.234208E-14	5.108736E-17
4.346426E+03	1.230129E-14	5.091853E-17
4.349277E+03	1.225102E-14	5.071044E-17
4.352127E+03	1.219674E-14	5.048577E-17
4.354979E+03	1.214554E-14	5.027385E-17
4.357829E+03	1.209744E-14	5.007472E-17
4.360679E+03	1.204135E-14	4.984256E-17
4.363531E+03	1.198518E-14	4.961006E-17
4.366381E+03	1.193921E-14	4.941979E-17
4.369232E+03	1.189001E-14	4.921613E-17
4.372083E+03	1.184391E-14	4.902529E-17
4.374934E+03	1.180806E-14	4.887690E-17
4.377784E+03	1.176737E-14	4.870850E-17
4.380634E+03	1.171867E-14	4.850690E-17
4.383486E+03	1.168264E-14	4.835774E-17
4.386336E+03	1.164574E-14	4.820501E-17
4.389187E+03	1.161279E-14	4.806861E-17
4.392038E+03	1.158857E-14	4.796838E-17
4.394889E+03	1.156432E-14	4.786800E-17
4.397739E+03	1.154966E-14	4.780731E-17
4.400590E+03	1.153578E-14	4.774987E-17
4.403441E+03	1.152349E-14	4.769901E-17
4.406291E+03	1.151119E-14	4.764808E-17
4.409143E+03	1.150290E-14	4.761375E-17
4.411993E+03	1.148895E-14	4.755600E-17
4.414844E+03	1.148870E-14	4.755498E-17
4.417695E+03	1.148280E-14	4.753057E-17
4.420545E+03	1.148094E-14	4.752285E-17
4.423396E+03	1.148799E-14	4.755206E-17
4.426246E+03	1.149588E-14	4.758469E-17
4.429098E+03	1.149810E-14	4.759389E-17
4.431948E+03	1.150683E-14	4.763002E-17
4.434799E+03	1.151965E-14	4.768309E-17
4.437650E+03	1.152515E-14	4.770586E-17
4.440500E+03	1.153148E-14	4.773207E-17
4.443351E+03	1.154680E-14	4.779549E-17
4.446202E+03	1.156053E-14	4.785231E-17
4.449053E+03	1.157837E-14	4.792614E-17
4.451903E+03	1.159378E-14	4.798994E-17
4.454755E+03	1.160675E-14	4.804361E-17
4.457605E+03	1.160822E-14	4.804972E-17
4.460455E+03	1.161627E-14	4.808303E-17
4.463307E+03	1.162926E-14	4.813681E-17
4.466157E+03	1.164475E-14	4.820093E-17
4.469008E+03	1.164538E-14	4.820352E-17
4.471858E+03	1.165261E-14	4.823344E-17
4.474710E+03	1.166065E-14	4.826675E-17
4.477560E+03	1.166373E-14	4.827947E-17
4.480410E+03	1.167176E-14	4.831273E-17
4.483262E+03	1.167397E-14	4.832187E-17
4.486112E+03	1.167282E-14	4.831711E-17
4.488963E+03	1.166998E-14	4.830537E-17
4.491814E+03	1.166043E-14	4.826584E-17
4.494665E+03	1.165333E-14	4.823644E-17
4.497515E+03	1.163699E-14	4.816878E-17
4.500366E+03	1.162391E-14	4.811465E-17
4.503217E+03	1.160323E-14	4.802905E-17
4.506067E+03	1.157827E-14	4.792574E-17
4.508919E+03	1.156329E-14	4.786374E-17
4.511769E+03	1.154236E-14	4.777708E-17
4.514620E+03	1.151038E-14	4.764471E-17
4.517470E+03	1.148756E-14	4.755028E-17
4.520321E+03	1.146971E-14	4.747638E-17
4.523172E+03	1.144755E-14	4.738467E-17
4.526022E+03	1.143123E-14	4.731709E-17
4.528874E+03	1.140635E-14	4.721409E-17
4.531724E+03	1.137287E-14	4.707555E-17
4.534575E+03	1.134522E-14	4.696109E-17
4.537426E+03	1.131321E-14	4.682859E-17
4.540276E+03	1.128193E-14	4.669908E-17
4.543127E+03	1.124966E-14	4.656552E-17
4.545978E+03	1.121558E-14	4.642444E-17
4.548829E+03	1.117708E-14	4.626510E-17
4.551679E+03	1.113759E-14	4.610163E-17
4.554531E+03	1.110737E-14	4.597655E-17
4.557381E+03	1.106675E-14	4.580842E-17
4.560231E+03	1.102255E-14	4.562545E-17
4.563083E+03	1.097218E-14	4.541695E-17
4.565933E+03	1.092508E-14	4.522198E-17
4.568784E+03	1.087953E-14	4.503347E-17
4.571634E+03	1.083469E-14	4.484785E-17
4.574486E+03	1.078365E-14	4.463656E-17
4.577336E+03	1.072379E-14	4.438882E-17
4.580186E+03	1.067066E-14	4.416890E-17
4.583038E+03	1.061563E-14	4.394109E-17
4.585888E+03	1.054395E-14	4.364441E-17
4.588739E+03	1.048679E-14	4.340779E-17
4.591590E+03	1.043291E-14	4.318478E-17
4.594441E+03	1.037017E-14	4.292506E-17
4.597291E+03	1.031852E-14	4.271129E-17
4.600142E+03	1.026149E-14	4.247521E-17
4.602993E+03	1.020425E-14	4.223830E-17
4.605843E+03	1.014160E-14	4.197894E-17
4.608695E+03	1.008486E-14	4.174410E-17
4.611545E+03	1.003055E-14	4.151928E-17
4.614396E+03	9.978688E-15	4.130462E-17
4.617246E+03	9.921393E-15	4.106746E-17
4.620097E+03	9.867417E-15	4.084403E-17
4.622948E+03	9.813266E-15	4.061989E-17
4.625798E+03	9.757170E-15	4.038769E-17
4.628650E+03	9.704421E-15	4.016935E-17
4.631500E+03	9.651497E-15	3.995028E-17
4.634351E+03	9.604558E-15	3.975599E-17
4.637202E+03	9.557473E-15	3.956109E-17
4.640052E+03	9.509329E-15	3.936181E-17
4.642903E+03	9.467219E-15	3.918750E-17
4.645754E+03	9.420535E-15	3.899426E-17
4.648605E+03	9.371037E-15	3.878937E-17
4.651455E+03	9.324032E-15	3.859481E-17
4.654307E+03	9.287527E-15	3.844370E-17
4.657157E+03	9.231344E-15	3.821115E-17
4.660007E+03	9.187443E-15	3.802943E-17
4.662858E+03	9.156737E-15	3.790233E-17
4.665709E+03	9.116121E-15	3.773421E-17
4.668560E+03	9.066460E-15	3.752864E-17
4.671410E+03	9.031810E-15	3.738522E-17
4.674262E+03	8.989002E-15	3.720803E-17
4.677112E+03	8.957682E-15	3.707838E-17
4.679962E+03	8.921694E-15	3.692942E-17
4.682814E+03	8.893280E-15	3.681180E-17
4.685664E+03	8.867898E-15	3.670674E-17
4.688515E+03	8.843309E-15	3.660496E-17
4.691366E+03	8.817824E-15	3.649947E-17
4.694217E+03	8.810386E-15	3.646868E-17
4.697067E+03	8.806484E-15	3.645253E-17
