#wls	flux	fluxerr
1.592975E+03	7.304443E-18	1.074734E-18
1.632799E+03	7.431741E-18	1.089951E-18
1.672624E+03	7.568896E-18	1.106396E-18
1.712448E+03	7.712003E-18	1.123479E-18
1.752272E+03	7.863284E-18	1.141506E-18
1.792097E+03	8.021343E-18	1.160255E-18
1.831921E+03	8.183802E-18	1.179365E-18
1.871746E+03	8.345201E-18	1.198035E-18
1.911570E+03	8.505905E-18	1.216310E-18
1.951394E+03	8.657842E-18	1.233034E-18
1.991219E+03	8.804378E-18	1.248689E-18
2.031043E+03	8.949281E-18	1.263809E-18
2.070867E+03	9.110246E-18	1.280874E-18
2.110692E+03	9.317119E-18	1.304024E-18
2.150516E+03	9.604641E-18	1.337996E-18
2.190341E+03	9.989818E-18	1.384975E-18
2.230165E+03	1.046939E-17	1.444293E-18
2.269989E+03	1.102569E-17	1.513306E-18
2.309814E+03	1.163254E-17	1.588245E-18
2.349638E+03	1.227354E-17	1.666740E-18
2.389462E+03	1.293739E-17	1.747156E-18
2.429287E+03	1.361880E-17	1.828689E-18
2.469111E+03	1.431630E-17	1.911062E-18
2.508936E+03	1.503339E-17	1.994658E-18
2.548760E+03	1.576896E-17	2.079243E-18
2.588584E+03	1.652515E-17	2.164999E-18
2.628409E+03	1.731050E-17	2.252943E-18
2.668233E+03	1.812157E-17	2.342499E-18
2.708057E+03	1.897075E-17	2.435137E-18
2.747882E+03	1.985479E-17	2.530285E-18
2.787706E+03	2.078036E-17	2.628626E-18
2.827531E+03	2.175822E-17	2.731334E-18
2.867355E+03	2.278955E-17	2.838332E-18
2.907179E+03	2.387947E-17	2.950023E-18
2.947004E+03	2.504519E-17	3.068263E-18
2.986828E+03	2.628696E-17	3.192763E-18
2.996784E+03	2.661379E-17	3.225374E-18
3.006740E+03	2.694442E-17	3.258232E-18
3.016696E+03	2.728289E-17	3.291821E-18
3.026652E+03	2.762556E-17	3.325693E-18
3.036609E+03	2.797682E-17	3.360374E-18
3.046565E+03	2.833715E-17	3.395910E-18
3.056521E+03	2.870324E-17	3.431897E-18
3.066477E+03	2.907917E-17	3.468815E-18
3.076433E+03	2.946511E-17	3.506675E-18
3.086389E+03	2.985716E-17	3.545003E-18
3.096345E+03	3.025955E-17	3.584293E-18
3.106301E+03	3.067250E-17	3.624562E-18
3.116257E+03	3.109212E-17	3.665337E-18
3.126213E+03	3.152694E-17	3.707618E-18
3.136169E+03	3.196894E-17	3.750448E-18
3.146126E+03	3.242260E-17	3.794341E-18
3.156082E+03	3.288401E-17	3.838829E-18
3.166038E+03	3.336204E-17	3.884936E-18
3.175994E+03	3.384854E-17	3.931700E-18
3.185950E+03	3.435256E-17	3.980159E-18
3.195906E+03	3.486589E-17	4.029346E-18
3.205862E+03	3.539335E-17	4.079806E-18
3.215818E+03	3.593546E-17	4.131584E-18
3.225774E+03	3.649277E-17	4.184729E-18
3.235730E+03	3.706588E-17	4.239290E-18
3.245687E+03	3.765541E-17	4.295323E-18
3.255643E+03	3.826202E-17	4.352884E-18
3.265599E+03	3.888639E-17	4.412034E-18
3.275555E+03	3.952926E-17	4.472834E-18
3.285511E+03	4.019610E-17	4.535885E-18
3.295467E+03	4.087832E-17	4.600192E-18
3.305423E+03	4.158624E-17	4.666897E-18
3.315379E+03	4.231116E-17	4.734999E-18
3.325335E+03	4.306366E-17	4.805659E-18
3.335291E+03	4.383989E-17	4.878417E-18
3.345247E+03	4.464083E-17	4.953358E-18
3.355204E+03	4.547255E-17	5.031127E-18
3.365160E+03	4.633119E-17	5.111262E-18
3.375116E+03	4.721788E-17	5.193858E-18
3.385072E+03	4.813376E-17	5.279009E-18
3.395028E+03	4.908529E-17	5.367389E-18
3.404984E+03	5.006857E-17	5.458533E-18
3.414940E+03	5.109026E-17	5.553130E-18
3.424896E+03	5.214646E-17	5.650713E-18
3.434852E+03	5.323857E-17	5.751394E-18
3.444808E+03	5.437359E-17	5.855887E-18
3.454764E+03	5.555322E-17	5.964325E-18
3.464721E+03	5.677356E-17	6.076240E-18
3.474677E+03	5.803622E-17	6.191759E-18
3.484633E+03	5.935462E-17	6.312258E-18
3.494589E+03	6.071916E-17	6.436655E-18
3.504545E+03	6.213167E-17	6.565093E-18
3.514501E+03	6.360019E-17	6.698360E-18
3.524457E+03	6.512699E-17	6.836629E-18
3.534413E+03	6.671432E-17	6.980069E-18
3.544369E+03	6.836464E-17	7.128864E-18
3.554325E+03	7.007379E-17	7.282511E-18
3.564282E+03	7.185039E-17	7.441828E-18
3.574238E+03	7.369640E-17	7.606940E-18
3.584194E+03	7.561360E-17	7.777947E-18
3.594150E+03	7.760281E-17	7.954848E-18
3.604106E+03	7.966428E-17	8.137581E-18
3.614062E+03	8.179773E-17	8.326030E-18
3.624018E+03	8.399520E-17	8.519300E-18
3.633974E+03	8.627004E-17	8.718658E-18
3.643930E+03	8.861351E-17	8.923129E-18
3.653886E+03	9.102389E-17	9.132455E-18
3.663842E+03	9.350668E-17	9.347100E-18
3.673799E+03	9.604405E-17	9.565195E-18
3.683755E+03	9.864875E-17	9.787934E-18
3.693711E+03	1.013097E-16	1.001413E-17
3.703667E+03	1.040232E-16	1.024335E-17
3.713623E+03	1.067852E-16	1.047511E-17
3.723579E+03	1.095996E-16	1.070974E-17
3.733535E+03	1.124534E-16	1.094589E-17
3.743491E+03	1.153497E-16	1.118380E-17
3.753447E+03	1.182743E-16	1.142204E-17
3.763403E+03	1.212208E-16	1.165995E-17
3.773359E+03	1.241916E-16	1.189771E-17
3.783316E+03	1.271796E-16	1.213462E-17
3.793272E+03	1.301684E-16	1.236906E-17
3.803228E+03	1.331497E-16	1.260025E-17
3.813184E+03	1.361246E-16	1.282827E-17
3.823140E+03	1.390845E-16	1.305232E-17
3.833096E+03	1.420108E-16	1.327065E-17
3.843052E+03	1.449037E-16	1.348333E-17
3.853008E+03	1.477540E-16	1.368950E-17
3.862964E+03	1.505520E-16	1.388832E-17
3.872920E+03	1.532782E-16	1.407805E-17
3.882877E+03	1.559331E-16	1.425881E-17
3.892833E+03	1.585073E-16	1.442980E-17
3.902789E+03	1.609818E-16	1.458940E-17
3.912745E+03	1.633684E-16	1.473877E-17
3.922701E+03	1.656389E-16	1.487550E-17
3.932657E+03	1.677966E-16	1.499999E-17
3.942613E+03	1.698456E-16	1.511274E-17
3.952569E+03	1.717608E-16	1.521165E-17
3.962525E+03	1.735486E-16	1.529746E-17
3.972481E+03	1.752072E-16	1.537015E-17
3.982437E+03	1.767259E-16	1.542893E-17
3.992394E+03	1.781262E-16	1.547585E-17
4.002350E+03	1.794010E-16	1.551044E-17
4.012306E+03	1.805554E-16	1.553328E-17
4.022262E+03	1.815962E-16	1.554512E-17
4.032218E+03	1.825325E-16	1.554686E-17
4.042174E+03	1.833749E-16	1.553953E-17
4.052130E+03	1.841364E-16	1.552435E-17
4.062086E+03	1.848310E-16	1.550260E-17
4.072042E+03	1.854752E-16	1.547572E-17
4.081998E+03	1.860863E-16	1.544523E-17
4.091954E+03	1.866926E-16	1.541350E-17
4.101911E+03	1.872953E-16	1.538063E-17
4.111867E+03	1.879244E-16	1.534908E-17
4.121823E+03	1.886103E-16	1.532126E-17
4.131779E+03	1.893561E-16	1.529738E-17
4.141735E+03	1.901927E-16	1.527980E-17
4.151691E+03	1.911498E-16	1.527080E-17
4.161647E+03	1.922303E-16	1.527041E-17
4.171603E+03	1.934713E-16	1.528142E-17
4.181559E+03	1.948737E-16	1.530367E-17
4.191515E+03	1.964718E-16	1.533959E-17
4.201472E+03	1.982631E-16	1.538874E-17
4.211428E+03	2.002778E-16	1.545317E-17
4.221384E+03	2.025092E-16	1.553203E-17
4.231340E+03	2.049735E-16	1.562626E-17
4.241296E+03	2.076753E-16	1.573589E-17
4.251252E+03	2.106161E-16	1.586067E-17
4.261208E+03	2.137853E-16	1.599946E-17
4.271164E+03	2.171943E-16	1.615279E-17
4.281120E+03	2.208166E-16	1.631833E-17
4.291076E+03	2.246477E-16	1.649544E-17
4.301032E+03	2.286623E-16	1.668197E-17
4.310989E+03	2.328499E-16	1.687688E-17
4.320945E+03	2.371885E-16	1.707831E-17
4.330901E+03	2.416459E-16	1.728373E-17
4.340857E+03	2.462073E-16	1.749191E-17
4.350813E+03	2.508412E-16	1.770043E-17
4.360769E+03	2.555364E-16	1.790841E-17
4.370725E+03	2.602689E-16	1.811407E-17
4.380681E+03	2.650311E-16	1.831680E-17
4.390637E+03	2.698231E-16	1.851654E-17
4.400593E+03	2.746608E-16	1.871433E-17
4.410549E+03	2.795454E-16	1.891015E-17
4.420506E+03	2.844904E-16	1.910483E-17
4.430462E+03	2.895002E-16	1.929854E-17
4.440418E+03	2.946073E-16	1.949334E-17
4.450374E+03	2.998130E-16	1.968913E-17
4.460330E+03	3.051141E-16	1.988556E-17
4.470286E+03	3.105222E-16	2.008319E-17
4.480242E+03	3.160339E-16	2.028165E-17
4.490198E+03	3.216430E-16	2.048036E-17
4.500154E+03	3.273323E-16	2.067808E-17
4.510110E+03	3.330912E-16	2.087399E-17
4.520067E+03	3.389138E-16	2.106760E-17
4.530023E+03	3.447675E-16	2.125680E-17
4.539979E+03	3.506232E-16	2.143974E-17
4.549935E+03	3.564566E-16	2.161492E-17
4.559891E+03	3.622079E-16	2.177877E-17
4.569847E+03	3.678560E-16	2.193014E-17
4.579803E+03	3.733380E-16	2.206545E-17
4.589759E+03	3.786245E-16	2.218323E-17
4.599715E+03	3.836792E-16	2.228166E-17
4.609671E+03	3.884710E-16	2.235929E-17
4.619627E+03	3.929645E-16	2.241451E-17
4.629584E+03	3.971529E-16	2.244738E-17
4.639540E+03	4.010155E-16	2.245722E-17
4.649496E+03	4.045608E-16	2.244501E-17
4.659452E+03	4.077844E-16	2.241098E-17
4.669408E+03	4.107003E-16	2.235643E-17
4.679364E+03	4.133304E-16	2.228300E-17
4.689320E+03	4.157049E-16	2.219275E-17
4.699276E+03	4.178610E-16	2.208808E-17
4.709232E+03	4.198431E-16	2.197164E-17
4.719188E+03	4.217003E-16	2.184627E-17
4.729144E+03	4.234847E-16	2.171484E-17
4.739101E+03	4.252386E-16	2.157962E-17
4.749057E+03	4.270225E-16	2.144372E-17
4.759013E+03	4.288716E-16	2.130883E-17
4.768969E+03	4.308340E-16	2.117724E-17
4.778925E+03	4.329287E-16	2.104969E-17
4.788881E+03	4.351754E-16	2.092695E-17
4.798837E+03	4.375931E-16	2.080967E-17
4.808793E+03	4.401605E-16	2.069660E-17
4.818749E+03	4.428860E-16	2.058790E-17
4.828705E+03	4.457390E-16	2.048193E-17
4.838662E+03	4.486799E-16	2.037671E-17
4.848618E+03	4.516928E-16	2.027139E-17
4.858574E+03	4.547262E-16	2.016360E-17
4.868530E+03	4.577254E-16	2.005093E-17
4.878486E+03	4.606546E-16	1.993190E-17
4.888442E+03	4.634592E-16	1.980432E-17
4.898398E+03	4.661170E-16	1.966748E-17
4.908354E+03	4.685581E-16	1.951874E-17
4.918310E+03	4.707757E-16	1.935819E-17
4.928266E+03	4.727183E-16	1.918413E-17
4.938222E+03	4.743595E-16	1.899599E-17
4.948179E+03	4.756794E-16	1.879349E-17
4.958135E+03	4.766857E-16	1.857750E-17
4.968091E+03	4.773460E-16	1.834731E-17
4.978047E+03	4.776770E-16	1.810414E-17
4.988003E+03	4.777046E-16	1.784956E-17
4.997959E+03	4.774459E-16	1.758469E-17
5.007915E+03	4.769453E-16	1.731168E-17
5.017871E+03	4.762277E-16	1.703184E-17
5.027827E+03	4.753624E-16	1.674800E-17
5.037783E+03	4.743870E-16	1.646175E-17
5.047739E+03	4.733800E-16	1.617602E-17
5.057696E+03	4.723950E-16	1.589269E-17
5.067652E+03	4.714958E-16	1.561390E-17
5.077608E+03	4.707455E-16	1.534164E-17
5.087564E+03	4.702051E-16	1.507769E-17
5.097520E+03	4.699327E-16	1.482361E-17
5.107476E+03	4.699799E-16	1.458066E-17
5.117432E+03	4.703880E-16	1.434968E-17
5.127388E+03	4.711945E-16	1.413131E-17
5.137344E+03	4.723974E-16	1.392496E-17
5.147300E+03	4.740079E-16	1.373046E-17
5.157256E+03	4.760150E-16	1.354696E-17
5.167213E+03	4.783960E-16	1.337336E-17
5.177169E+03	4.811201E-16	1.320836E-17
5.187125E+03	4.841500E-16	1.305059E-17
5.197081E+03	4.874448E-16	1.289865E-17
5.207037E+03	4.909628E-16	1.275126E-17
5.216993E+03	4.946660E-16	1.260727E-17
5.226949E+03	4.985185E-16	1.246572E-17
5.236905E+03	5.024858E-16	1.232576E-17
5.246861E+03	5.065345E-16	1.218664E-17
5.256817E+03	5.106330E-16	1.204774E-17
5.266774E+03	5.147517E-16	1.190857E-17
5.276730E+03	5.188633E-16	1.176874E-17
5.286686E+03	5.229436E-16	1.162802E-17
5.296642E+03	5.269725E-16	1.148633E-17
5.306598E+03	5.309342E-16	1.134371E-17
5.316554E+03	5.348168E-16	1.120035E-17
5.326510E+03	5.386116E-16	1.105652E-17
5.336466E+03	5.423213E-16	1.091279E-17
5.346422E+03	5.459229E-16	1.076918E-17
5.356378E+03	5.494202E-16	1.062631E-17
5.366334E+03	5.528164E-16	1.048482E-17
5.376291E+03	5.560847E-16	1.034474E-17
5.386247E+03	5.592307E-16	1.020681E-17
5.396203E+03	5.622202E-16	1.007100E-17
5.406159E+03	5.650536E-16	9.937971E-18
5.416115E+03	5.677105E-16	9.808023E-18
5.426071E+03	5.701846E-16	9.681711E-18
5.436027E+03	5.725117E-16	9.560292E-18
5.445983E+03	5.747166E-16	9.444793E-18
5.455939E+03	5.768509E-16	9.336631E-18
5.465895E+03	5.789625E-16	9.237103E-18
5.475851E+03	5.810502E-16	9.146664E-18
5.485808E+03	5.830375E-16	9.064586E-18
5.495764E+03	5.848095E-16	8.989574E-18
5.505720E+03	5.862552E-16	8.920421E-18
5.515676E+03	5.872846E-16	8.856230E-18
5.525632E+03	5.878323E-16	8.796250E-18
5.535588E+03	5.878528E-16	8.739635E-18
5.545544E+03	5.873596E-16	8.686300E-18
5.555500E+03	5.863646E-16	8.636034E-18
5.565456E+03	5.848987E-16	8.588814E-18
5.575412E+03	5.830362E-16	8.545179E-18
5.585369E+03	5.808274E-16	8.505245E-18
5.595325E+03	5.783543E-16	8.469552E-18
5.605281E+03	5.756930E-16	8.438527E-18
5.615237E+03	5.729123E-16	8.412480E-18
5.625193E+03	5.700990E-16	8.391997E-18
5.635149E+03	5.673322E-16	8.377573E-18
5.645105E+03	5.646943E-16	8.369786E-18
5.655061E+03	5.622670E-16	8.369254E-18
5.665017E+03	5.601603E-16	8.377069E-18
5.674973E+03	5.584789E-16	8.394314E-18
5.684929E+03	5.573493E-16	8.422473E-18
5.694886E+03	5.569222E-16	8.463480E-18
5.704842E+03	5.573498E-16	8.519384E-18
5.714798E+03	5.587791E-16	8.592250E-18
5.724754E+03	5.613637E-16	8.684329E-18
5.734710E+03	5.652510E-16	8.797869E-18
5.744666E+03	5.705842E-16	8.935125E-18
5.754622E+03	5.774638E-16	9.097757E-18
5.764578E+03	5.860007E-16	9.287630E-18
5.774534E+03	5.962530E-16	9.505814E-18
5.784490E+03	6.082511E-16	9.752947E-18
5.794446E+03	6.219842E-16	1.002900E-17
5.804403E+03	6.373908E-16	1.033308E-17
5.814359E+03	6.543406E-16	1.066315E-17
5.824315E+03	6.726619E-16	1.101639E-17
5.834271E+03	6.920641E-16	1.138798E-17
5.844227E+03	7.121896E-16	1.177181E-17
5.854183E+03	7.325704E-16	1.215988E-17
5.864139E+03	7.526755E-16	1.254293E-17
5.874095E+03	7.718924E-16	1.291025E-17
5.884051E+03	7.895691E-16	1.325032E-17
5.894007E+03	8.051230E-16	1.355267E-17
5.903964E+03	8.180695E-16	1.380845E-17
5.913920E+03	8.280709E-16	1.401128E-17
5.923876E+03	8.349512E-16	1.415756E-17
5.933832E+03	8.386834E-16	1.424630E-17
5.943788E+03	8.394165E-16	1.427964E-17
5.953744E+03	8.373914E-16	1.426140E-17
5.963700E+03	8.330017E-16	1.419812E-17
5.973656E+03	8.266662E-16	1.409690E-17
5.983612E+03	8.188821E-16	1.396628E-17
5.993568E+03	8.101125E-16	1.381428E-17
6.003524E+03	8.008141E-16	1.364885E-17
6.013481E+03	7.914082E-16	1.347739E-17
6.023437E+03	7.822540E-16	1.330620E-17
6.033393E+03	7.736861E-16	1.314114E-17
6.043349E+03	7.659418E-16	1.298642E-17
6.053305E+03	7.591864E-16	1.284495E-17
6.063261E+03	7.535468E-16	1.271896E-17
6.073217E+03	7.490360E-16	1.260872E-17
6.083173E+03	7.456214E-16	1.251370E-17
6.093129E+03	7.431920E-16	1.243205E-17
6.103085E+03	7.415643E-16	1.236072E-17
6.113041E+03	7.405232E-16	1.229616E-17
6.122998E+03	7.397698E-16	1.223348E-17
6.132954E+03	7.390116E-16	1.216798E-17
6.142910E+03	7.379383E-16	1.209478E-17
6.152866E+03	7.362523E-16	1.200928E-17
6.162822E+03	7.336782E-16	1.190739E-17
6.172778E+03	7.300229E-16	1.178644E-17
6.182734E+03	7.251160E-16	1.164424E-17
6.192690E+03	7.188762E-16	1.148008E-17
6.202646E+03	7.112635E-16	1.129398E-17
6.212602E+03	7.022821E-16	1.108666E-17
6.222559E+03	6.919748E-16	1.085949E-17
6.232515E+03	6.804162E-16	1.061428E-17
6.242471E+03	6.677035E-16	1.035319E-17
6.252427E+03	6.539964E-16	1.007930E-17
6.262383E+03	6.394633E-16	9.795738E-18
6.272339E+03	6.243109E-16	9.506151E-18
6.282295E+03	6.087717E-16	9.214468E-18
6.292251E+03	5.931010E-16	8.924863E-18
6.302207E+03	5.775764E-16	8.641720E-18
6.312163E+03	5.624590E-16	8.369066E-18
6.322119E+03	5.480466E-16	8.111365E-18
6.332076E+03	5.346185E-16	7.872701E-18
6.342032E+03	5.224381E-16	7.656838E-18
6.351988E+03	5.117687E-16	7.467474E-18
6.361944E+03	5.028728E-16	7.308251E-18
6.371900E+03	4.959994E-16	7.182590E-18
6.381856E+03	4.914201E-16	7.094244E-18
6.391812E+03	4.894121E-16	7.047077E-18
6.401768E+03	4.902753E-16	7.045336E-18
6.411724E+03	4.943385E-16	7.093781E-18
6.421680E+03	5.019839E-16	7.198064E-18
6.431636E+03	5.136352E-16	7.364614E-18
6.441593E+03	5.297450E-16	7.600491E-18
6.451549E+03	5.508470E-16	7.914026E-18
6.461505E+03	5.775436E-16	8.314601E-18
6.471461E+03	6.104874E-16	8.812641E-18
6.481417E+03	6.503804E-16	9.419649E-18
6.491373E+03	6.978888E-16	1.014702E-17
6.501329E+03	7.534522E-16	1.100326E-17
6.511285E+03	8.169001E-16	1.198828E-17
6.521241E+03	8.871403E-16	1.308856E-17
6.531197E+03	9.621196E-16	1.427612E-17
6.541154E+03	1.038799E-15	1.550761E-17
6.551110E+03	1.113392E-15	1.672727E-17
6.561066E+03	1.181683E-15	1.787123E-17
6.571022E+03	1.239444E-15	1.887349E-17
6.580978E+03	1.283141E-15	1.967656E-17
6.590934E+03	1.310721E-15	2.024397E-17
6.600890E+03	1.321564E-15	2.056034E-17
6.610846E+03	1.316324E-15	2.062967E-17
6.620802E+03	1.296657E-15	2.047192E-17
6.630758E+03	1.264845E-15	2.011770E-17
6.640714E+03	1.223476E-15	1.960360E-17
6.650671E+03	1.175063E-15	1.896622E-17
6.660627E+03	1.122048E-15	1.824231E-17
6.670583E+03	1.066543E-15	1.746445E-17
6.680539E+03	1.010399E-15	1.666205E-17
6.690495E+03	9.551069E-16	1.585946E-17
6.700451E+03	9.018553E-16	1.507678E-17
6.710407E+03	8.515023E-16	1.432915E-17
6.720363E+03	8.046317E-16	1.362748E-17
6.730319E+03	7.615858E-16	1.297885E-17
6.740275E+03	7.225001E-16	1.238694E-17
6.750231E+03	6.873529E-16	1.185277E-17
6.760188E+03	6.560505E-16	1.137605E-17
6.770144E+03	6.283918E-16	1.095458E-17
6.780100E+03	6.041399E-16	1.058538E-17
6.790056E+03	5.830372E-16	1.026499E-17
6.800012E+03	5.647782E-16	9.988963E-18
6.809968E+03	5.490900E-16	9.753270E-18
6.819924E+03	5.357007E-16	9.553773E-18
6.829880E+03	5.243485E-16	9.386384E-18
6.839836E+03	5.148268E-16	9.247894E-18
6.849792E+03	5.069354E-16	9.135110E-18
6.859749E+03	5.004879E-16	9.045006E-18
6.869705E+03	4.953322E-16	8.975101E-18
6.879661E+03	4.913223E-16	8.922960E-18
6.889617E+03	4.883489E-16	8.886763E-18
6.899573E+03	4.863056E-16	8.864701E-18
6.909529E+03	4.851157E-16	8.855464E-18
6.919485E+03	4.847101E-16	8.857850E-18
6.929441E+03	4.850212E-16	8.870663E-18
6.939397E+03	4.860076E-16	8.893157E-18
6.949353E+03	4.875914E-16	8.923900E-18
6.959309E+03	4.897373E-16	8.962222E-18
6.969266E+03	4.923751E-16	9.006800E-18
6.979222E+03	4.954266E-16	9.056156E-18
6.989178E+03	4.988228E-16	9.108974E-18
6.999134E+03	5.024850E-16	9.163756E-18
7.009090E+03	5.063336E-16	9.218996E-18
7.019046E+03	5.102921E-16	9.273249E-18
7.029002E+03	5.142932E-16	9.325249E-18
7.038958E+03	5.182840E-16	9.374007E-18
7.048914E+03	5.222185E-16	9.418671E-18
7.058870E+03	5.260937E-16	9.459181E-18
7.068826E+03	5.298958E-16	9.495295E-18
7.078783E+03	5.336626E-16	9.527703E-18
7.088739E+03	5.374139E-16	9.556773E-18
7.098695E+03	5.412081E-16	9.583558E-18
7.108651E+03	5.451114E-16	9.609242E-18
7.118607E+03	5.491638E-16	9.634533E-18
7.128563E+03	5.534342E-16	9.660634E-18
7.138519E+03	5.579471E-16	9.687959E-18
7.148475E+03	5.627491E-16	9.717297E-18
7.158431E+03	5.678348E-16	9.748535E-18
7.168387E+03	5.732155E-16	9.781847E-18
7.178344E+03	5.788430E-16	9.816402E-18
7.188300E+03	5.846801E-16	9.851584E-18
7.198256E+03	5.906261E-16	9.885738E-18
7.208212E+03	5.965905E-16	9.917437E-18
7.218168E+03	6.024280E-16	9.944404E-18
7.228124E+03	6.079691E-16	9.964050E-18
7.238080E+03	6.130573E-16	9.974095E-18
7.248036E+03	6.174951E-16	9.971693E-18
7.257992E+03	6.210911E-16	9.954209E-18
7.267948E+03	6.236588E-16	9.919199E-18
7.277904E+03	6.250266E-16	9.864559E-18
7.287861E+03	6.250466E-16	9.788654E-18
7.297817E+03	6.236064E-16	9.690480E-18
7.307773E+03	6.206399E-16	9.569804E-18
7.317729E+03	6.161288E-16	9.427150E-18
7.327685E+03	6.101152E-16	9.263953E-18
7.337641E+03	6.026628E-16	9.081934E-18
7.347597E+03	5.939076E-16	8.883838E-18
7.357553E+03	5.840045E-16	8.672600E-18
7.367509E+03	5.731389E-16	8.451495E-18
7.377465E+03	5.614793E-16	8.223435E-18
7.387421E+03	5.492365E-16	7.991840E-18
7.397378E+03	5.365813E-16	7.759424E-18
7.407334E+03	5.237141E-16	7.529226E-18
7.417290E+03	5.107943E-16	7.303598E-18
7.427246E+03	4.979659E-16	7.084583E-18
7.437202E+03	4.853856E-16	6.874327E-18
7.447158E+03	4.731764E-16	6.674245E-18
7.457114E+03	4.614611E-16	6.485584E-18
7.467070E+03	4.503506E-16	6.309419E-18
7.477026E+03	4.399645E-16	6.146966E-18
7.486982E+03	4.303645E-16	5.998644E-18
7.496939E+03	4.215841E-16	5.864520E-18
7.506895E+03	4.136468E-16	5.744549E-18
7.516851E+03	4.065776E-16	5.638747E-18
7.526807E+03	4.004034E-16	5.547191E-18
7.536763E+03	3.951478E-16	5.469942E-18
7.546719E+03	3.908241E-16	5.406952E-18
7.556675E+03	3.874412E-16	5.358142E-18
7.566631E+03	3.849753E-16	5.323009E-18
7.576587E+03	3.834103E-16	5.301178E-18
7.586543E+03	3.827098E-16	5.292022E-18
7.596499E+03	3.828343E-16	5.294882E-18
7.606456E+03	3.837146E-16	5.308713E-18
7.616412E+03	3.853000E-16	5.332736E-18
7.626368E+03	3.875051E-16	5.365706E-18
7.636324E+03	3.902668E-16	5.406699E-18
7.646280E+03	3.934893E-16	5.454343E-18
7.656236E+03	3.970991E-16	5.507589E-18
7.666192E+03	4.009911E-16	5.564960E-18
7.676148E+03	4.050876E-16	5.625363E-18
7.686104E+03	4.092903E-16	5.687434E-18
7.696060E+03	4.135132E-16	5.749987E-18
7.706016E+03	4.176686E-16	5.811825E-18
7.715973E+03	4.216983E-16	5.872173E-18
7.725929E+03	4.255290E-16	5.930061E-18
