#wls	flux	fluxerr
1.592975E+03	6.242084E-18	1.480626E-18
1.632799E+03	6.329269E-18	1.496817E-18
1.672624E+03	6.419122E-18	1.513381E-18
1.712448E+03	6.511763E-18	1.530332E-18
1.752272E+03	6.608894E-18	1.548054E-18
1.792097E+03	6.707260E-18	1.565767E-18
1.831921E+03	6.808490E-18	1.583836E-18
1.871746E+03	6.904134E-18	1.600286E-18
1.911570E+03	6.996539E-18	1.615663E-18
1.951394E+03	7.079051E-18	1.628435E-18
1.991219E+03	7.154785E-18	1.639331E-18
2.031043E+03	7.225146E-18	1.648681E-18
2.070867E+03	7.306438E-18	1.660197E-18
2.110692E+03	7.422436E-18	1.679214E-18
2.150516E+03	7.598430E-18	1.711313E-18
2.190341E+03	7.850401E-18	1.759875E-18
2.230165E+03	8.172806E-18	1.823401E-18
2.269989E+03	8.549069E-18	1.897952E-18
2.309814E+03	8.962074E-18	1.979533E-18
2.349638E+03	9.395204E-18	2.064329E-18
2.389462E+03	9.844009E-18	2.151252E-18
2.429287E+03	1.030059E-17	2.238484E-18
2.469111E+03	1.076626E-17	2.326233E-18
2.508936E+03	1.124415E-17	2.415088E-18
2.548760E+03	1.173139E-17	2.504335E-18
2.588584E+03	1.223693E-17	2.595783E-18
2.628409E+03	1.275836E-17	2.688792E-18
2.668233E+03	1.330288E-17	2.784745E-18
2.708057E+03	1.386813E-17	2.882991E-18
2.747882E+03	1.446189E-17	2.984977E-18
2.787706E+03	1.508734E-17	3.091157E-18
2.827531E+03	1.574807E-17	3.202043E-18
2.867355E+03	1.645094E-17	3.318773E-18
2.907179E+03	1.719810E-17	3.441490E-18
2.947004E+03	1.799806E-17	3.571572E-18
2.986828E+03	1.886067E-17	3.710592E-18
2.996784E+03	1.908458E-17	3.746394E-18
3.006740E+03	1.931767E-17	3.783754E-18
3.016696E+03	1.955125E-17	3.820957E-18
3.026652E+03	1.979143E-17	3.859196E-18
3.036609E+03	2.003864E-17	3.898542E-18
3.046565E+03	2.029020E-17	3.938465E-18
3.056521E+03	2.054662E-17	3.979053E-18
3.066477E+03	2.081103E-17	4.020905E-18
3.076433E+03	2.108051E-17	4.063443E-18
3.086389E+03	2.135827E-17	4.107278E-18
3.096345E+03	2.164451E-17	4.152433E-18
3.106301E+03	2.193628E-17	4.198329E-18
3.116257E+03	2.223373E-17	4.244988E-18
3.126213E+03	2.254025E-17	4.293041E-18
3.136169E+03	2.285288E-17	4.341911E-18
3.146126E+03	2.317506E-17	4.392244E-18
3.156082E+03	2.350711E-17	4.444077E-18
3.166038E+03	2.384603E-17	4.496833E-18
3.175994E+03	2.419542E-17	4.551176E-18
3.185950E+03	2.455229E-17	4.606523E-18
3.195906E+03	2.492030E-17	4.663552E-18
3.205862E+03	2.529646E-17	4.721680E-18
3.215818E+03	2.568454E-17	4.781596E-18
3.225774E+03	2.608498E-17	4.843363E-18
3.235730E+03	2.649477E-17	4.906399E-18
3.245687E+03	2.691783E-17	4.971412E-18
3.255643E+03	2.735112E-17	5.037819E-18
3.265599E+03	2.779868E-17	5.106344E-18
3.275555E+03	2.826108E-17	5.177067E-18
3.285511E+03	2.873528E-17	5.249403E-18
3.295467E+03	2.922549E-17	5.324100E-18
3.305423E+03	2.973236E-17	5.401248E-18
3.315379E+03	3.025284E-17	5.480263E-18
3.325335E+03	3.079134E-17	5.561916E-18
3.335291E+03	3.134477E-17	5.645619E-18
3.345247E+03	3.192161E-17	5.732868E-18
3.355204E+03	3.251493E-17	5.822381E-18
3.365160E+03	3.312948E-17	5.914974E-18
3.375116E+03	3.376215E-17	6.010055E-18
3.385072E+03	3.442193E-17	6.109185E-18
3.395028E+03	3.510173E-17	6.211061E-18
3.404984E+03	3.580245E-17	6.315805E-18
3.414940E+03	3.653355E-17	6.425040E-18
3.424896E+03	3.728776E-17	6.537437E-18
3.434852E+03	3.807052E-17	6.653902E-18
3.444808E+03	3.888311E-17	6.774606E-18
3.454764E+03	3.972688E-17	6.899727E-18
3.464721E+03	4.059874E-17	7.028671E-18
3.474677E+03	4.150918E-17	7.163195E-18
3.484633E+03	4.245062E-17	7.301923E-18
3.494589E+03	4.342922E-17	7.445852E-18
3.504545E+03	4.444667E-17	7.595198E-18
3.514501E+03	4.549985E-17	7.749356E-18
3.524457E+03	4.660023E-17	7.910207E-18
3.534413E+03	4.773984E-17	8.076309E-18
3.544369E+03	4.892543E-17	8.248723E-18
3.554325E+03	5.015887E-17	8.427676E-18
3.564282E+03	5.144733E-17	8.614274E-18
3.574238E+03	5.277662E-17	8.806043E-18
3.584194E+03	5.416423E-17	9.005809E-18
3.594150E+03	5.560603E-17	9.212774E-18
3.604106E+03	5.710292E-17	9.426977E-18
3.614062E+03	5.865546E-17	9.648402E-18
3.624018E+03	6.025819E-17	9.876040E-18
3.633974E+03	6.192298E-17	1.011173E-17
3.643930E+03	6.363773E-17	1.035337E-17
3.653886E+03	6.541441E-17	1.060280E-17
3.663842E+03	6.724005E-17	1.085780E-17
3.673799E+03	6.912654E-17	1.112018E-17
3.683755E+03	7.106004E-17	1.138759E-17
3.693711E+03	7.305234E-17	1.166181E-17
3.703667E+03	7.508856E-17	1.194035E-17
3.713623E+03	7.718046E-17	1.222497E-17
3.723579E+03	7.931195E-17	1.251302E-17
3.733535E+03	8.149480E-17	1.280624E-17
3.743491E+03	8.371167E-17	1.310182E-17
3.753447E+03	8.597423E-17	1.340148E-17
3.763403E+03	8.827165E-17	1.370345E-17
3.773359E+03	9.059222E-17	1.400581E-17
3.783316E+03	9.294728E-17	1.431026E-17
3.793272E+03	9.532445E-17	1.461481E-17
3.803228E+03	9.771879E-17	1.491864E-17
3.813184E+03	1.001250E-16	1.522089E-17
3.823140E+03	1.025371E-16	1.552062E-17
3.833096E+03	1.049579E-16	1.581822E-17
3.843052E+03	1.073636E-16	1.611006E-17
3.853008E+03	1.097560E-16	1.639644E-17
3.862964E+03	1.121370E-16	1.667765E-17
3.872920E+03	1.144904E-16	1.695128E-17
3.882877E+03	1.167996E-16	1.721492E-17
3.892833E+03	1.190750E-16	1.747018E-17
3.902789E+03	1.212998E-16	1.771463E-17
3.912745E+03	1.234663E-16	1.794725E-17
3.922701E+03	1.255762E-16	1.816838E-17
3.932657E+03	1.276031E-16	1.837433E-17
3.942613E+03	1.295590E-16	1.856696E-17
3.952569E+03	1.314183E-16	1.874275E-17
3.962525E+03	1.331946E-16	1.890381E-17
3.972481E+03	1.348732E-16	1.904822E-17
3.982437E+03	1.364503E-16	1.917564E-17
3.992394E+03	1.379229E-16	1.928586E-17
4.002350E+03	1.392995E-16	1.938024E-17
4.012306E+03	1.405598E-16	1.945620E-17
4.022262E+03	1.417245E-16	1.951680E-17
4.032218E+03	1.427859E-16	1.956119E-17
4.042174E+03	1.437376E-16	1.958869E-17
4.052130E+03	1.446038E-16	1.960284E-17
4.062086E+03	1.453909E-16	1.960465E-17
4.072042E+03	1.460868E-16	1.959268E-17
4.081998E+03	1.467108E-16	1.956970E-17
4.091954E+03	1.472836E-16	1.953858E-17
4.101911E+03	1.477985E-16	1.949858E-17
4.111867E+03	1.482892E-16	1.945422E-17
4.121823E+03	1.487618E-16	1.940635E-17
4.131779E+03	1.492333E-16	1.935722E-17
4.141735E+03	1.497214E-16	1.930910E-17
4.151691E+03	1.502445E-16	1.926431E-17
4.161647E+03	1.508301E-16	1.922628E-17
4.171603E+03	1.514774E-16	1.919476E-17
4.181559E+03	1.522130E-16	1.917296E-17
4.191515E+03	1.530624E-16	1.916386E-17
4.201472E+03	1.540220E-16	1.916675E-17
4.211428E+03	1.551237E-16	1.918533E-17
4.221384E+03	1.563702E-16	1.921957E-17
4.231340E+03	1.577621E-16	1.926923E-17
4.241296E+03	1.593260E-16	1.933716E-17
4.251252E+03	1.610584E-16	1.942255E-17
4.261208E+03	1.629631E-16	1.952545E-17
4.271164E+03	1.650319E-16	1.964444E-17
4.281120E+03	1.672820E-16	1.978120E-17
4.291076E+03	1.697003E-16	1.993371E-17
4.301032E+03	1.722708E-16	2.009970E-17
4.310989E+03	1.750032E-16	2.027991E-17
4.320945E+03	1.778670E-16	2.047043E-17
4.330901E+03	1.808675E-16	2.067154E-17
4.340857E+03	1.839703E-16	2.087896E-17
4.350813E+03	1.871693E-16	2.109176E-17
4.360769E+03	1.904505E-16	2.130810E-17
4.370725E+03	1.938045E-16	2.152673E-17
4.380681E+03	1.972292E-16	2.174720E-17
4.390637E+03	2.007304E-16	2.196996E-17
4.400593E+03	2.043095E-16	2.219495E-17
4.410549E+03	2.079919E-16	2.242469E-17
4.420506E+03	2.117940E-16	2.266065E-17
4.430462E+03	2.157324E-16	2.290428E-17
4.440418E+03	2.198224E-16	2.315681E-17
4.450374E+03	2.240662E-16	2.341809E-17
4.460330E+03	2.284846E-16	2.368984E-17
4.470286E+03	2.330834E-16	2.397222E-17
4.480242E+03	2.378528E-16	2.426372E-17
4.490198E+03	2.427987E-16	2.456450E-17
4.500154E+03	2.478983E-16	2.487178E-17
4.510110E+03	2.531555E-16	2.518554E-17
4.520067E+03	2.585094E-16	2.549933E-17
4.530023E+03	2.639615E-16	2.581303E-17
4.539979E+03	2.694484E-16	2.612019E-17
4.549935E+03	2.749247E-16	2.641635E-17
4.559891E+03	2.803544E-16	2.669805E-17
4.569847E+03	2.856888E-16	2.696080E-17
4.579803E+03	2.908679E-16	2.719919E-17
4.589759E+03	2.958482E-16	2.740957E-17
4.599715E+03	3.006058E-16	2.759024E-17
4.609671E+03	3.050994E-16	2.773798E-17
4.619627E+03	3.093228E-16	2.785292E-17
4.629584E+03	3.132546E-16	2.793382E-17
4.639540E+03	3.168962E-16	2.798156E-17
4.649496E+03	3.202587E-16	2.799785E-17
4.659452E+03	3.233753E-16	2.798630E-17
4.669408E+03	3.262597E-16	2.794870E-17
4.679364E+03	3.289580E-16	2.788958E-17
4.689320E+03	3.314804E-16	2.781028E-17
4.699276E+03	3.338926E-16	2.771672E-17
4.709232E+03	3.362210E-16	2.761135E-17
4.719188E+03	3.385047E-16	2.749758E-17
4.729144E+03	3.407932E-16	2.737951E-17
4.739101E+03	3.430927E-16	2.725761E-17
4.749057E+03	3.454442E-16	2.713507E-17
4.759013E+03	3.478827E-16	2.701448E-17
4.768969E+03	3.503965E-16	2.689473E-17
4.778925E+03	3.530203E-16	2.677822E-17
4.788881E+03	3.557280E-16	2.666272E-17
4.798837E+03	3.585398E-16	2.654950E-17
4.808793E+03	3.614160E-16	2.643539E-17
4.818749E+03	3.643641E-16	2.632076E-17
4.828705E+03	3.673337E-16	2.620183E-17
4.838662E+03	3.703105E-16	2.607754E-17
4.848618E+03	3.732644E-16	2.594579E-17
4.858574E+03	3.761643E-16	2.580453E-17
4.868530E+03	3.789654E-16	2.565089E-17
4.878486E+03	3.816648E-16	2.548495E-17
4.888442E+03	3.842076E-16	2.530342E-17
4.898398E+03	3.865821E-16	2.510597E-17
4.908354E+03	3.887659E-16	2.489167E-17
4.918310E+03	3.907267E-16	2.465902E-17
4.928266E+03	3.924617E-16	2.440850E-17
4.938222E+03	3.939445E-16	2.413914E-17
4.948179E+03	3.951913E-16	2.385265E-17
4.958135E+03	3.961676E-16	2.354767E-17
4.968091E+03	3.968684E-16	2.322470E-17
4.978047E+03	3.973056E-16	2.288521E-17
4.988003E+03	3.974819E-16	2.253014E-17
4.997959E+03	3.973925E-16	2.215999E-17
5.007915E+03	3.970664E-16	2.177713E-17
5.017871E+03	3.965146E-16	2.138286E-17
5.027827E+03	3.957718E-16	2.097969E-17
5.037783E+03	3.948962E-16	2.057124E-17
5.047739E+03	3.939436E-16	2.016079E-17
5.057696E+03	3.929666E-16	1.975126E-17
5.067652E+03	3.920382E-16	1.934638E-17
5.077608E+03	3.912474E-16	1.895040E-17
5.087564E+03	3.906588E-16	1.856608E-17
5.097520E+03	3.903457E-16	1.819637E-17
5.107476E+03	3.903853E-16	1.784412E-17
5.117432E+03	3.908193E-16	1.751035E-17
5.127388E+03	3.916877E-16	1.719582E-17
5.137344E+03	3.930260E-16	1.690100E-17
5.147300E+03	3.948286E-16	1.662451E-17
5.157256E+03	3.970845E-16	1.636477E-17
5.167213E+03	3.997668E-16	1.611964E-17
5.177169E+03	4.028457E-16	1.588697E-17
5.187125E+03	4.062442E-16	1.566292E-17
5.197081E+03	4.099245E-16	1.544541E-17
5.207037E+03	4.138074E-16	1.523103E-17
5.216993E+03	4.178243E-16	1.501701E-17
5.226949E+03	4.219191E-16	1.480131E-17
5.236905E+03	4.260030E-16	1.458099E-17
5.246861E+03	4.300421E-16	1.435526E-17
5.256817E+03	4.339602E-16	1.412210E-17
5.266774E+03	4.377400E-16	1.388163E-17
5.276730E+03	4.413364E-16	1.363322E-17
5.286686E+03	4.447279E-16	1.337711E-17
5.296642E+03	4.478916E-16	1.311359E-17
5.306598E+03	4.508537E-16	1.284446E-17
5.316554E+03	4.536139E-16	1.257072E-17
5.326510E+03	4.561940E-16	1.229402E-17
5.336466E+03	4.586238E-16	1.201617E-17
5.346422E+03	4.609256E-16	1.173875E-17
5.356378E+03	4.631614E-16	1.146430E-17
5.366334E+03	4.653536E-16	1.119428E-17
5.376291E+03	4.675197E-16	1.093003E-17
5.386247E+03	4.697085E-16	1.067363E-17
5.396203E+03	4.719089E-16	1.042576E-17
5.406159E+03	4.741399E-16	1.018786E-17
5.416115E+03	4.763999E-16	9.960947E-18
5.426071E+03	4.786800E-16	9.745979E-18
5.436027E+03	4.809643E-16	9.543842E-18
5.445983E+03	4.832245E-16	9.355272E-18
5.455939E+03	4.853995E-16	9.180465E-18
5.465895E+03	4.874289E-16	9.019730E-18
5.475851E+03	4.892445E-16	8.873300E-18
5.485808E+03	4.907376E-16	8.740690E-18
5.495764E+03	4.918731E-16	8.622698E-18
5.505720E+03	4.925445E-16	8.518725E-18
5.515676E+03	4.927050E-16	8.429023E-18
5.525632E+03	4.922660E-16	8.352729E-18
5.535588E+03	4.912467E-16	8.289762E-18
5.545544E+03	4.896362E-16	8.238912E-18
5.555500E+03	4.874923E-16	8.199822E-18
5.565456E+03	4.848860E-16	8.172091E-18
5.575412E+03	4.818939E-16	8.155233E-18
5.585369E+03	4.786271E-16	8.149246E-18
5.595325E+03	4.751859E-16	8.153925E-18
5.605281E+03	4.716535E-16	8.168819E-18
5.615237E+03	4.681278E-16	8.193834E-18
5.625193E+03	4.646831E-16	8.228607E-18
5.635149E+03	4.613722E-16	8.272556E-18
5.645105E+03	4.582647E-16	8.325569E-18
5.655061E+03	4.554180E-16	8.387500E-18
5.665017E+03	4.528839E-16	8.458287E-18
5.674973E+03	4.507398E-16	8.538522E-18
5.684929E+03	4.490938E-16	8.629591E-18
5.694886E+03	4.480668E-16	8.733357E-18
5.704842E+03	4.477954E-16	8.852218E-18
5.714798E+03	4.484637E-16	8.989758E-18
5.724754E+03	4.502661E-16	9.150035E-18
5.734710E+03	4.533888E-16	9.337206E-18
5.744666E+03	4.580785E-16	9.556909E-18
5.754622E+03	4.645207E-16	9.813751E-18
5.764578E+03	4.729044E-16	1.011259E-17
5.774534E+03	4.833992E-16	1.045799E-17
5.784490E+03	4.961073E-16	1.085316E-17
5.794446E+03	5.110951E-16	1.130050E-17
5.804403E+03	5.283310E-16	1.180016E-17
5.814359E+03	5.477183E-16	1.235068E-17
5.824315E+03	5.690292E-16	1.294738E-17
5.834271E+03	5.919290E-16	1.358283E-17
5.844227E+03	6.159701E-16	1.424658E-17
5.854183E+03	6.405491E-16	1.492416E-17
5.864139E+03	6.649771E-16	1.559862E-17
5.874095E+03	6.884483E-16	1.624979E-17
5.884051E+03	7.101476E-16	1.685687E-17
5.894007E+03	7.292455E-16	1.739841E-17
5.903964E+03	7.450151E-16	1.785519E-17
5.913920E+03	7.569007E-16	1.821205E-17
5.923876E+03	7.645190E-16	1.845808E-17
5.933832E+03	7.677447E-16	1.858884E-17
5.943788E+03	7.667163E-16	1.860661E-17
5.953744E+03	7.617601E-16	1.851864E-17
5.963700E+03	7.534186E-16	1.833783E-17
5.973656E+03	7.423222E-16	1.807959E-17
5.983612E+03	7.291818E-16	1.776157E-17
5.993568E+03	7.147333E-16	1.740225E-17
6.003524E+03	6.996403E-16	1.701843E-17
6.013481E+03	6.845149E-16	1.662571E-17
6.023437E+03	6.698958E-16	1.623782E-17
6.033393E+03	6.561771E-16	1.586487E-17
6.043349E+03	6.437323E-16	1.551634E-17
6.053305E+03	6.327499E-16	1.519708E-17
6.063261E+03	6.234065E-16	1.491146E-17
6.073217E+03	6.157700E-16	1.466113E-17
6.083173E+03	6.098084E-16	1.444519E-17
6.093129E+03	6.054827E-16	1.426251E-17
6.103085E+03	6.026675E-16	1.410985E-17
6.113041E+03	6.011595E-16	1.398215E-17
6.122998E+03	6.007673E-16	1.387466E-17
6.132954E+03	6.012245E-16	1.378099E-17
6.142910E+03	6.022692E-16	1.369501E-17
6.152866E+03	6.036044E-16	1.360998E-17
6.162822E+03	6.049709E-16	1.352022E-17
6.172778E+03	6.060965E-16	1.342000E-17
6.182734E+03	6.068034E-16	1.330591E-17
6.192690E+03	6.069230E-16	1.317495E-17
6.202646E+03	6.063047E-16	1.302469E-17
6.212602E+03	6.048393E-16	1.285379E-17
6.222559E+03	6.024439E-16	1.266158E-17
6.232515E+03	5.990745E-16	1.244834E-17
6.242471E+03	5.946992E-16	1.221471E-17
6.252427E+03	5.892873E-16	1.196137E-17
6.262383E+03	5.829055E-16	1.169104E-17
6.272339E+03	5.755720E-16	1.140542E-17
6.282295E+03	5.674057E-16	1.110818E-17
6.292251E+03	5.585338E-16	1.080301E-17
6.302207E+03	5.491055E-16	1.049390E-17
6.312163E+03	5.393172E-16	1.018553E-17
6.322119E+03	5.294083E-16	9.883222E-18
6.332076E+03	5.196212E-16	9.592080E-18
6.342032E+03	5.102462E-16	9.317861E-18
6.351988E+03	5.015685E-16	9.065984E-18
6.361944E+03	4.939113E-16	8.842340E-18
6.371900E+03	4.875854E-16	8.652412E-18
6.381856E+03	4.829328E-16	8.502108E-18
6.391812E+03	4.802810E-16	8.397008E-18
6.401768E+03	4.799889E-16	8.343252E-18
6.411724E+03	4.824174E-16	8.347109E-18
6.421680E+03	4.879350E-16	8.415171E-18
6.431636E+03	4.969573E-16	8.555151E-18
6.441593E+03	5.099111E-16	8.775376E-18
6.451549E+03	5.272842E-16	9.085457E-18
6.461505E+03	5.495793E-16	9.495228E-18
6.471461E+03	5.773478E-16	1.001593E-17
6.481417E+03	6.111117E-16	1.065901E-17
6.491373E+03	6.512840E-16	1.143480E-17
6.501329E+03	6.980022E-16	1.234944E-17
6.511285E+03	7.509904E-16	1.340229E-17
6.521241E+03	8.093275E-16	1.458124E-17
6.531197E+03	8.714058E-16	1.586130E-17
6.541154E+03	9.348822E-16	1.720273E-17
6.551110E+03	9.968103E-16	1.855252E-17
6.561066E+03	1.053867E-15	1.984771E-17
6.571022E+03	1.102654E-15	2.102041E-17
6.580978E+03	1.140164E-15	2.200653E-17
6.590934E+03	1.164091E-15	2.275215E-17
6.600890E+03	1.173140E-15	2.322063E-17
6.610846E+03	1.167175E-15	2.339682E-17
6.620802E+03	1.147141E-15	2.328711E-17
6.630758E+03	1.114977E-15	2.291926E-17
6.640714E+03	1.073121E-15	2.233341E-17
6.650671E+03	1.024351E-15	2.157966E-17
6.660627E+03	9.713817E-16	2.070980E-17
6.670583E+03	9.166750E-16	1.977323E-17
6.680539E+03	8.622151E-16	1.881165E-17
6.690495E+03	8.095854E-16	1.786014E-17
6.700451E+03	7.598917E-16	1.694481E-17
6.710407E+03	7.138379E-16	1.608387E-17
6.720363E+03	6.718002E-16	1.528878E-17
6.730319E+03	6.339040E-16	1.456556E-17
6.740275E+03	6.000944E-16	1.391612E-17
6.750231E+03	5.701955E-16	1.333941E-17
6.760188E+03	5.439563E-16	1.283234E-17
6.770144E+03	5.210973E-16	1.239085E-17
6.780100E+03	5.012860E-16	1.200928E-17
6.790056E+03	4.842392E-16	1.168279E-17
6.800012E+03	4.696499E-16	1.140565E-17
6.809968E+03	4.572422E-16	1.117258E-17
6.819924E+03	4.467638E-16	1.097860E-17
6.829880E+03	4.379879E-16	1.081913E-17
6.839836E+03	4.307145E-16	1.069004E-17
6.849792E+03	4.247799E-16	1.058791E-17
6.859749E+03	4.200262E-16	1.050935E-17
6.869705E+03	4.163289E-16	1.045166E-17
6.879661E+03	4.135954E-16	1.041282E-17
6.889617E+03	4.117211E-16	1.039045E-17
6.899573E+03	4.106557E-16	1.038345E-17
6.909529E+03	4.103294E-16	1.039016E-17
6.919485E+03	4.106974E-16	1.040951E-17
6.929441E+03	4.116969E-16	1.043992E-17
6.939397E+03	4.132710E-16	1.047991E-17
6.949353E+03	4.153558E-16	1.052779E-17
6.959309E+03	4.178876E-16	1.058185E-17
6.969266E+03	4.207804E-16	1.063979E-17
6.979222E+03	4.239157E-16	1.069847E-17
6.989178E+03	4.272037E-16	1.075551E-17
6.999134E+03	4.305264E-16	1.080782E-17
7.009090E+03	4.337413E-16	1.085173E-17
7.019046E+03	4.367615E-16	1.088503E-17
7.029002E+03	4.394480E-16	1.090426E-17
7.038958E+03	4.417354E-16	1.090786E-17
7.048914E+03	4.435650E-16	1.089453E-17
7.058870E+03	4.449031E-16	1.086363E-17
7.068826E+03	4.457664E-16	1.081580E-17
7.078783E+03	4.462235E-16	1.075299E-17
7.088739E+03	4.463712E-16	1.067778E-17
7.098695E+03	4.463274E-16	1.059325E-17
7.108651E+03	4.462456E-16	1.050323E-17
7.118607E+03	4.463037E-16	1.041203E-17
7.128563E+03	4.466712E-16	1.032361E-17
7.138519E+03	4.474979E-16	1.024134E-17
7.148475E+03	4.489368E-16	1.016852E-17
7.158431E+03	4.510906E-16	1.010715E-17
7.168387E+03	4.540375E-16	1.005858E-17
7.178344E+03	4.578360E-16	1.002364E-17
7.188300E+03	4.624524E-16	1.000106E-17
7.198256E+03	4.678241E-16	9.989012E-18
7.208212E+03	4.738475E-16	9.984853E-18
7.218168E+03	4.803540E-16	9.984716E-18
7.228124E+03	4.871120E-16	9.983656E-18
7.238080E+03	4.938690E-16	9.976611E-18
7.248036E+03	5.003255E-16	9.957919E-18
7.257992E+03	5.061481E-16	9.921662E-18
7.267948E+03	5.110132E-16	9.862570E-18
7.277904E+03	5.146424E-16	9.776681E-18
7.287861E+03	5.167464E-16	9.660220E-18
7.297817E+03	5.171375E-16	9.511674E-18
7.307773E+03	5.156801E-16	9.330724E-18
7.317729E+03	5.123534E-16	9.119263E-18
7.327685E+03	5.072111E-16	8.880498E-18
7.337641E+03	5.003750E-16	8.618698E-18
7.347597E+03	4.920575E-16	8.339475E-18
7.357553E+03	4.825030E-16	8.048650E-18
7.367509E+03	4.719793E-16	7.752070E-18
7.377465E+03	4.607449E-16	7.455049E-18
7.387421E+03	4.490685E-16	7.162707E-18
7.397378E+03	4.371687E-16	6.879012E-18
7.407334E+03	4.252540E-16	6.607492E-18
7.417290E+03	4.134849E-16	6.350671E-18
7.427246E+03	4.019864E-16	6.110341E-18
7.437202E+03	3.908411E-16	5.887499E-18
7.447158E+03	3.801357E-16	5.683098E-18
7.457114E+03	3.698937E-16	5.497021E-18
7.467070E+03	3.601461E-16	5.328765E-18
7.477026E+03	3.509508E-16	5.177891E-18
7.486982E+03	3.423638E-16	5.043995E-18
7.496939E+03	3.345060E-16	4.927723E-18
7.506895E+03	3.274850E-16	4.829628E-18
7.516851E+03	3.214184E-16	4.750543E-18
7.526807E+03	3.163666E-16	4.690593E-18
7.536763E+03	3.123947E-16	4.650117E-18
7.546719E+03	3.095305E-16	4.629025E-18
7.556675E+03	3.078091E-16	4.627458E-18
7.566631E+03	3.072152E-16	4.644899E-18
7.576587E+03	3.077427E-16	4.681052E-18
7.586543E+03	3.093613E-16	4.735309E-18
7.596499E+03	3.120156E-16	4.806719E-18
7.606456E+03	3.156578E-16	4.894465E-18
7.616412E+03	3.201863E-16	4.996894E-18
7.626368E+03	3.255048E-16	5.112419E-18
7.636324E+03	3.314780E-16	5.238808E-18
7.646280E+03	3.379784E-16	5.373904E-18
7.656236E+03	3.448250E-16	5.514655E-18
7.666192E+03	3.518532E-16	5.658218E-18
7.676148E+03	3.588857E-16	5.801496E-18
7.686104E+03	3.657500E-16	5.941435E-18
7.696060E+03	3.722769E-16	6.075010E-18
7.706016E+03	3.783407E-16	6.199894E-18
7.715973E+03	3.838443E-16	6.314247E-18
7.725929E+03	3.886803E-16	6.416085E-18
