#wls	flux	fluxerr
1.592975E+03	4.850116E-18	1.007945E-18
1.632799E+03	4.881107E-18	1.011103E-18
1.672624E+03	4.913789E-18	1.014467E-18
1.712448E+03	4.951112E-18	1.018635E-18
1.752272E+03	4.988697E-18	1.022695E-18
1.792097E+03	5.029734E-18	1.027293E-18
1.831921E+03	5.069866E-18	1.031530E-18
1.871746E+03	5.108446E-18	1.035272E-18
1.911570E+03	5.143132E-18	1.038046E-18
1.951394E+03	5.170574E-18	1.039182E-18
1.991219E+03	5.193153E-18	1.039171E-18
2.031043E+03	5.212038E-18	1.038256E-18
2.070867E+03	5.240262E-18	1.039026E-18
2.110692E+03	5.293340E-18	1.044513E-18
2.150516E+03	5.388807E-18	1.058082E-18
2.190341E+03	5.535947E-18	1.081414E-18
2.230165E+03	5.732627E-18	1.113923E-18
2.269989E+03	5.966629E-18	1.153077E-18
2.309814E+03	6.222929E-18	1.195849E-18
2.349638E+03	6.491110E-18	1.240153E-18
2.389462E+03	6.767972E-18	1.285315E-18
2.429287E+03	7.049630E-18	1.330547E-18
2.469111E+03	7.335648E-18	1.375724E-18
2.508936E+03	7.626711E-18	1.420930E-18
2.548760E+03	7.925565E-18	1.466627E-18
2.588584E+03	8.233747E-18	1.513038E-18
2.628409E+03	8.551319E-18	1.560111E-18
2.668233E+03	8.883161E-18	1.608659E-18
2.708057E+03	9.231181E-18	1.658937E-18
2.747882E+03	9.595765E-18	1.710913E-18
2.787706E+03	9.982468E-18	1.765465E-18
2.827531E+03	1.039217E-17	1.822615E-18
2.867355E+03	1.083127E-17	1.883332E-18
2.907179E+03	1.129969E-17	1.947435E-18
2.947004E+03	1.180684E-17	2.016347E-18
2.986828E+03	1.235584E-17	2.090372E-18
2.996784E+03	1.249964E-17	2.109650E-18
3.006740E+03	1.264757E-17	2.129483E-18
3.016696E+03	1.279787E-17	2.149569E-18
3.026652E+03	1.295256E-17	2.170242E-18
3.036609E+03	1.311191E-17	2.191543E-18
3.046565E+03	1.327426E-17	2.213188E-18
3.056521E+03	1.343993E-17	2.235224E-18
3.066477E+03	1.361092E-17	2.257982E-18
3.076433E+03	1.378736E-17	2.281470E-18
3.086389E+03	1.396738E-17	2.305375E-18
3.096345E+03	1.415307E-17	2.330035E-18
3.106301E+03	1.434257E-17	2.355138E-18
3.116257E+03	1.453802E-17	2.381026E-18
3.126213E+03	1.473958E-17	2.407717E-18
3.136169E+03	1.494540E-17	2.434902E-18
3.146126E+03	1.515769E-17	2.462932E-18
3.156082E+03	1.537458E-17	2.491497E-18
3.166038E+03	1.560043E-17	2.521291E-18
3.175994E+03	1.582922E-17	2.551333E-18
3.185950E+03	1.606746E-17	2.582664E-18
3.195906E+03	1.631120E-17	2.614636E-18
3.205862E+03	1.656282E-17	2.647623E-18
3.215818E+03	1.682045E-17	2.681316E-18
3.225774E+03	1.708874E-17	2.716440E-18
3.235730E+03	1.736366E-17	2.752345E-18
3.245687E+03	1.764773E-17	2.789417E-18
3.255643E+03	1.793907E-17	2.827349E-18
3.265599E+03	1.824029E-17	2.866535E-18
3.275555E+03	1.855180E-17	2.907027E-18
3.285511E+03	1.887402E-17	2.948875E-18
3.295467E+03	1.920741E-17	2.992134E-18
3.305423E+03	1.955008E-17	3.036495E-18
3.315379E+03	1.990724E-17	3.082748E-18
3.325335E+03	2.027467E-17	3.130219E-18
3.335291E+03	2.065526E-17	3.179342E-18
3.345247E+03	2.104962E-17	3.230184E-18
3.355204E+03	2.145584E-17	3.282435E-18
3.365160E+03	2.187951E-17	3.336930E-18
3.375116E+03	2.231886E-17	3.393370E-18
3.385072E+03	2.277199E-17	3.451446E-18
3.395028E+03	2.324216E-17	3.511628E-18
3.404984E+03	2.373281E-17	3.574405E-18
3.414940E+03	2.423947E-17	3.639077E-18
3.424896E+03	2.476562E-17	3.706141E-18
3.434852E+03	2.531216E-17	3.775697E-18
3.444808E+03	2.588284E-17	3.848273E-18
3.454764E+03	2.647310E-17	3.923155E-18
3.464721E+03	2.708675E-17	4.000876E-18
3.474677E+03	2.772489E-17	4.081560E-18
3.484633E+03	2.839166E-17	4.165775E-18
3.494589E+03	2.908239E-17	4.252796E-18
3.504545E+03	2.980436E-17	4.343642E-18
3.514501E+03	3.055282E-17	4.437577E-18
3.524457E+03	3.133538E-17	4.535659E-18
3.534413E+03	3.215043E-17	4.637601E-18
3.544369E+03	3.299949E-17	4.743571E-18
3.554325E+03	3.388410E-17	4.853736E-18
3.564282E+03	3.480582E-17	4.968259E-18
3.574238E+03	3.576613E-17	5.087294E-18
3.584194E+03	3.676983E-17	5.211460E-18
3.594150E+03	3.781458E-17	5.340353E-18
3.604106E+03	3.890112E-17	5.474014E-18
3.614062E+03	4.003001E-17	5.612453E-18
3.624018E+03	4.120160E-17	5.755650E-18
3.633974E+03	4.241996E-17	5.904102E-18
3.643930E+03	4.368141E-17	6.057225E-18
3.653886E+03	4.498590E-17	6.214937E-18
3.663842E+03	4.633736E-17	6.377710E-18
3.673799E+03	4.773130E-17	6.544852E-18
3.683755E+03	4.916726E-17	6.716229E-18
3.693711E+03	5.064443E-17	6.891661E-18
3.703667E+03	5.216626E-17	7.071544E-18
3.713623E+03	5.373181E-17	7.255677E-18
3.723579E+03	5.533053E-17	7.442564E-18
3.733535E+03	5.696998E-17	7.633158E-18
3.743491E+03	5.864363E-17	7.826515E-18
3.753447E+03	6.035425E-17	8.022941E-18
3.763403E+03	6.209459E-17	8.221409E-18
3.773359E+03	6.386701E-17	8.422174E-18
3.783316E+03	6.566357E-17	8.624133E-18
3.793272E+03	6.748087E-17	8.826795E-18
3.803228E+03	6.932080E-17	9.030359E-18
3.813184E+03	7.117970E-17	9.234308E-18
3.823140E+03	7.304807E-17	9.437371E-18
3.833096E+03	7.492143E-17	9.638947E-18
3.843052E+03	7.680088E-17	9.839159E-18
3.853008E+03	7.867582E-17	1.003663E-17
3.862964E+03	8.054717E-17	1.023148E-17
3.872920E+03	8.240371E-17	1.042228E-17
3.882877E+03	8.424625E-17	1.060914E-17
3.892833E+03	8.606944E-17	1.079140E-17
3.902789E+03	8.786174E-17	1.096766E-17
3.912745E+03	8.961777E-17	1.113727E-17
3.922701E+03	9.133861E-17	1.130041E-17
3.932657E+03	9.301942E-17	1.145655E-17
3.942613E+03	9.464920E-17	1.160439E-17
3.952569E+03	9.623025E-17	1.174427E-17
3.962525E+03	9.775239E-17	1.187504E-17
3.972481E+03	9.921925E-17	1.199722E-17
3.982437E+03	1.006286E-16	1.211062E-17
3.992394E+03	1.019722E-16	1.221437E-17
4.002350E+03	1.032497E-16	1.230848E-17
4.012306E+03	1.044747E-16	1.239471E-17
4.022262E+03	1.056285E-16	1.247091E-17
4.032218E+03	1.067337E-16	1.253986E-17
4.042174E+03	1.077803E-16	1.260045E-17
4.052130E+03	1.087729E-16	1.265333E-17
4.062086E+03	1.097306E-16	1.270078E-17
4.072042E+03	1.106402E-16	1.274133E-17
4.081998E+03	1.115295E-16	1.277826E-17
4.091954E+03	1.123875E-16	1.281033E-17
4.101911E+03	1.132442E-16	1.284099E-17
4.111867E+03	1.140971E-16	1.286996E-17
4.121823E+03	1.149646E-16	1.289929E-17
4.131779E+03	1.158523E-16	1.292957E-17
4.141735E+03	1.167729E-16	1.296219E-17
4.151691E+03	1.177525E-16	1.299994E-17
4.161647E+03	1.187911E-16	1.304272E-17
4.171603E+03	1.199014E-16	1.309178E-17
4.181559E+03	1.211026E-16	1.314908E-17
4.191515E+03	1.223998E-16	1.321498E-17
4.201472E+03	1.238106E-16	1.329121E-17
4.211428E+03	1.253385E-16	1.337790E-17
4.221384E+03	1.269992E-16	1.347649E-17
4.231340E+03	1.287934E-16	1.358679E-17
4.241296E+03	1.307339E-16	1.370988E-17
4.251252E+03	1.328184E-16	1.384524E-17
4.261208E+03	1.350562E-16	1.399354E-17
4.271164E+03	1.374413E-16	1.415385E-17
4.281120E+03	1.399724E-16	1.432574E-17
4.291076E+03	1.426532E-16	1.450929E-17
4.301032E+03	1.454715E-16	1.470296E-17
4.310989E+03	1.484274E-16	1.490648E-17
4.320945E+03	1.514982E-16	1.511728E-17
4.330901E+03	1.546958E-16	1.533630E-17
4.340857E+03	1.579884E-16	1.556015E-17
4.350813E+03	1.613736E-16	1.578836E-17
4.360769E+03	1.648502E-16	1.602063E-17
4.370725E+03	1.684051E-16	1.625546E-17
4.380681E+03	1.720430E-16	1.649314E-17
4.390637E+03	1.757495E-16	1.673211E-17
4.400593E+03	1.795441E-16	1.697403E-17
4.410549E+03	1.834175E-16	1.721782E-17
4.420506E+03	1.873933E-16	1.746552E-17
4.430462E+03	1.914722E-16	1.771693E-17
4.440418E+03	1.956619E-16	1.797252E-17
4.450374E+03	1.999690E-16	1.823264E-17
4.460330E+03	2.043979E-16	1.849742E-17
4.470286E+03	2.089505E-16	1.876675E-17
4.480242E+03	2.136256E-16	1.904022E-17
4.490198E+03	2.184098E-16	1.931637E-17
4.500154E+03	2.233125E-16	1.959576E-17
4.510110E+03	2.283040E-16	1.987552E-17
4.520067E+03	2.333861E-16	2.015559E-17
4.530023E+03	2.385200E-16	2.043241E-17
4.539979E+03	2.436811E-16	2.070375E-17
4.549935E+03	2.488604E-16	2.096875E-17
4.559891E+03	2.540086E-16	2.122322E-17
4.569847E+03	2.591037E-16	2.146537E-17
4.579803E+03	2.641047E-16	2.169190E-17
4.589759E+03	2.690019E-16	2.190219E-17
4.599715E+03	2.737391E-16	2.209188E-17
4.609671E+03	2.783144E-16	2.226115E-17
4.619627E+03	2.827116E-16	2.240900E-17
4.629584E+03	2.869102E-16	2.253420E-17
4.639540E+03	2.909167E-16	2.263766E-17
4.649496E+03	2.947234E-16	2.271917E-17
4.659452E+03	2.983391E-16	2.277982E-17
4.669408E+03	3.017888E-16	2.282189E-17
4.679364E+03	3.050815E-16	2.284640E-17
4.689320E+03	3.082404E-16	2.285541E-17
4.699276E+03	3.112917E-16	2.285112E-17
4.709232E+03	3.142742E-16	2.283656E-17
4.719188E+03	3.171954E-16	2.281241E-17
4.729144E+03	3.201046E-16	2.278232E-17
4.739101E+03	3.230176E-16	2.274741E-17
4.749057E+03	3.259580E-16	2.270930E-17
4.759013E+03	3.289458E-16	2.266930E-17
4.768969E+03	3.319961E-16	2.262833E-17
4.778925E+03	3.351190E-16	2.258690E-17
4.788881E+03	3.383190E-16	2.254515E-17
4.798837E+03	3.415947E-16	2.250281E-17
4.808793E+03	3.449394E-16	2.245925E-17
4.818749E+03	3.483300E-16	2.241282E-17
4.828705E+03	3.517605E-16	2.236305E-17
4.838662E+03	3.552101E-16	2.230850E-17
4.848618E+03	3.586551E-16	2.224768E-17
4.858574E+03	3.620585E-16	2.217833E-17
4.868530E+03	3.654046E-16	2.209959E-17
4.878486E+03	3.686665E-16	2.201000E-17
4.888442E+03	3.718186E-16	2.190825E-17
4.898398E+03	3.748143E-16	2.179189E-17
4.908354E+03	3.776645E-16	2.166193E-17
4.918310E+03	3.803275E-16	2.151635E-17
4.928266E+03	3.827859E-16	2.135466E-17
4.938222E+03	3.850371E-16	2.117719E-17
4.948179E+03	3.870704E-16	2.098391E-17
4.958135E+03	3.888573E-16	2.077380E-17
4.968091E+03	3.904176E-16	2.054853E-17
4.978047E+03	3.917541E-16	2.030881E-17
4.988003E+03	3.928640E-16	2.005507E-17
4.997959E+03	3.937615E-16	1.978859E-17
5.007915E+03	3.944673E-16	1.951096E-17
5.017871E+03	3.950195E-16	1.922450E-17
5.027827E+03	3.954412E-16	1.893076E-17
5.037783E+03	3.957726E-16	1.863199E-17
5.047739E+03	3.960599E-16	1.833058E-17
5.057696E+03	3.963645E-16	1.802949E-17
5.067652E+03	3.967193E-16	1.773022E-17
5.077608E+03	3.972011E-16	1.743607E-17
5.087564E+03	3.978543E-16	1.714873E-17
5.097520E+03	3.987206E-16	1.686961E-17
5.107476E+03	3.998673E-16	1.660110E-17
5.117432E+03	4.013231E-16	1.634377E-17
5.127388E+03	4.031173E-16	1.609814E-17
5.137344E+03	4.052679E-16	1.586423E-17
5.147300E+03	4.077814E-16	1.564153E-17
5.157256E+03	4.106524E-16	1.542912E-17
5.167213E+03	4.138539E-16	1.522528E-17
5.177169E+03	4.173805E-16	1.502919E-17
5.187125E+03	4.211875E-16	1.483867E-17
5.197081E+03	4.252242E-16	1.465151E-17
5.207037E+03	4.294677E-16	1.446657E-17
5.216993E+03	4.338512E-16	1.428140E-17
5.226949E+03	4.383395E-16	1.409479E-17
5.236905E+03	4.428884E-16	1.390535E-17
5.246861E+03	4.474455E-16	1.371163E-17
5.256817E+03	4.519943E-16	1.351343E-17
5.266774E+03	4.564800E-16	1.330950E-17
5.276730E+03	4.608858E-16	1.309986E-17
5.286686E+03	4.651902E-16	1.288451E-17
5.296642E+03	4.693673E-16	1.266338E-17
5.306598E+03	4.734201E-16	1.243732E-17
5.316554E+03	4.773472E-16	1.220705E-17
5.326510E+03	4.811530E-16	1.197349E-17
5.336466E+03	4.848356E-16	1.173746E-17
5.346422E+03	4.884187E-16	1.150041E-17
5.356378E+03	4.919056E-16	1.126332E-17
5.366334E+03	4.953226E-16	1.102772E-17
5.376291E+03	4.986832E-16	1.079487E-17
5.386247E+03	5.019870E-16	1.056575E-17
5.396203E+03	5.052526E-16	1.034180E-17
5.406159E+03	5.084826E-16	1.012418E-17
5.416115E+03	5.116617E-16	9.913752E-18
5.426071E+03	5.147760E-16	9.711507E-18
5.436027E+03	5.178092E-16	9.518475E-18
5.445983E+03	5.207128E-16	9.335191E-18
5.455939E+03	5.234009E-16	9.161649E-18
5.465895E+03	5.257942E-16	8.998098E-18
5.475851E+03	5.278107E-16	8.844821E-18
5.485808E+03	5.294265E-16	8.703077E-18
5.495764E+03	5.306471E-16	8.574497E-18
5.505720E+03	5.314578E-16	8.460201E-18
5.515676E+03	5.318232E-16	8.360787E-18
5.525632E+03	5.317201E-16	8.276805E-18
5.535588E+03	5.311467E-16	8.208564E-18
5.545544E+03	5.300940E-16	8.155216E-18
5.555500E+03	5.285838E-16	8.115972E-18
5.565456E+03	5.266672E-16	8.090237E-18
5.575412E+03	5.243889E-16	8.077117E-18
5.585369E+03	5.218173E-16	8.075942E-18
5.595325E+03	5.190387E-16	8.086258E-18
5.605281E+03	5.161222E-16	8.107333E-18
5.615237E+03	5.131491E-16	8.138680E-18
5.625193E+03	5.102120E-16	8.180085E-18
5.635149E+03	5.073826E-16	8.231142E-18
5.645105E+03	5.047454E-16	8.291810E-18
5.655061E+03	5.023903E-16	8.362317E-18
5.665017E+03	5.004148E-16	8.443217E-18
5.674973E+03	4.989372E-16	8.535629E-18
5.684929E+03	4.980673E-16	8.640753E-18
5.694886E+03	4.979385E-16	8.760416E-18
5.704842E+03	4.986962E-16	8.896885E-18
5.714798E+03	5.004946E-16	9.052817E-18
5.724754E+03	5.034940E-16	9.231190E-18
5.734710E+03	5.078652E-16	9.435385E-18
5.744666E+03	5.137421E-16	9.668280E-18
5.754622E+03	5.212876E-16	9.933436E-18
5.764578E+03	5.306126E-16	1.023355E-17
5.774534E+03	5.417979E-16	1.057078E-17
5.784490E+03	5.549170E-16	1.094719E-17
5.794446E+03	5.699609E-16	1.136313E-17
5.804403E+03	5.868567E-16	1.181762E-17
5.814359E+03	6.054910E-16	1.230866E-17
5.824315E+03	6.256295E-16	1.283161E-17
5.834271E+03	6.469394E-16	1.337951E-17
5.844227E+03	6.690248E-16	1.394378E-17
5.854183E+03	6.913404E-16	1.451239E-17
5.864139E+03	7.133102E-16	1.507231E-17
5.874095E+03	7.342462E-16	1.560779E-17
5.884051E+03	7.534844E-16	1.610336E-17
5.894007E+03	7.703789E-16	1.654370E-17
5.903964E+03	7.843668E-16	1.691519E-17
5.913920E+03	7.950153E-16	1.720705E-17
5.923876E+03	8.020564E-16	1.741218E-17
5.933832E+03	8.054053E-16	1.752767E-17
5.943788E+03	8.051460E-16	1.755460E-17
5.953744E+03	8.015610E-16	1.749866E-17
5.963700E+03	7.950549E-16	1.736855E-17
5.973656E+03	7.861305E-16	1.717535E-17
5.983612E+03	7.753473E-16	1.693164E-17
5.993568E+03	7.632669E-16	1.665018E-17
6.003524E+03	7.504640E-16	1.634408E-17
6.013481E+03	7.374547E-16	1.602518E-17
6.023437E+03	7.246927E-16	1.570393E-17
6.033393E+03	7.125585E-16	1.538906E-17
6.043349E+03	7.013401E-16	1.508719E-17
6.053305E+03	6.912730E-16	1.480366E-17
6.063261E+03	6.825003E-16	1.454169E-17
6.073217E+03	6.750912E-16	1.430278E-17
6.083173E+03	6.690331E-16	1.408661E-17
6.093129E+03	6.642889E-16	1.389226E-17
6.103085E+03	6.607143E-16	1.371653E-17
6.113041E+03	6.581424E-16	1.355579E-17
6.122998E+03	6.563921E-16	1.340617E-17
6.132954E+03	6.552032E-16	1.326229E-17
6.142910E+03	6.543352E-16	1.311936E-17
6.152866E+03	6.535308E-16	1.297240E-17
6.162822E+03	6.525422E-16	1.281687E-17
6.172778E+03	6.511327E-16	1.264868E-17
6.182734E+03	6.491359E-16	1.246533E-17
6.192690E+03	6.463691E-16	1.226421E-17
6.202646E+03	6.427205E-16	1.204425E-17
6.212602E+03	6.380861E-16	1.180471E-17
6.222559E+03	6.324323E-16	1.154625E-17
6.232515E+03	6.257102E-16	1.126936E-17
6.242471E+03	6.179545E-16	1.097611E-17
6.252427E+03	6.091882E-16	1.066832E-17
6.262383E+03	5.995065E-16	1.034910E-17
6.272339E+03	5.890284E-16	1.002185E-17
6.282295E+03	5.778960E-16	9.690231E-18
6.292251E+03	5.663162E-16	9.358837E-18
6.302207E+03	5.544889E-16	9.031910E-18
6.312163E+03	5.426378E-16	8.713858E-18
6.322119E+03	5.310349E-16	8.409618E-18
6.332076E+03	5.199234E-16	8.123410E-18
6.342032E+03	5.095948E-16	7.859978E-18
6.351988E+03	5.003166E-16	7.623472E-18
6.361944E+03	4.923610E-16	7.417947E-18
6.371900E+03	4.860337E-16	7.247831E-18
6.381856E+03	4.816199E-16	7.117169E-18
6.391812E+03	4.794163E-16	7.030187E-18
6.401768E+03	4.797643E-16	6.991840E-18
6.411724E+03	4.830009E-16	7.007186E-18
6.421680E+03	4.895117E-16	7.082265E-18
6.431636E+03	4.996915E-16	7.223633E-18
6.441593E+03	5.140135E-16	7.439370E-18
6.451549E+03	5.329655E-16	7.737654E-18
6.461505E+03	5.570791E-16	8.127722E-18
6.471461E+03	5.868949E-16	8.619683E-18
6.481417E+03	6.229210E-16	9.223967E-18
6.491373E+03	6.655047E-16	9.949420E-18
6.501329E+03	7.147264E-16	1.080158E-17
6.511285E+03	7.702471E-16	1.178006E-17
6.521241E+03	8.311108E-16	1.287501E-17
6.531197E+03	8.956643E-16	1.406501E-17
6.541154E+03	9.615429E-16	1.531587E-17
6.551110E+03	1.025728E-15	1.658047E-17
6.561066E+03	1.084859E-15	1.780281E-17
6.571022E+03	1.135522E-15	1.892217E-17
6.580978E+03	1.174744E-15	1.988123E-17
6.590934E+03	1.200294E-15	2.063178E-17
6.600890E+03	1.211034E-15	2.114188E-17
6.610846E+03	1.206934E-15	2.139762E-17
6.620802E+03	1.188972E-15	2.140313E-17
6.630758E+03	1.158981E-15	2.117927E-17
6.640714E+03	1.119283E-15	2.075810E-17
6.650671E+03	1.072399E-15	2.017822E-17
6.660627E+03	1.020857E-15	1.948142E-17
6.670583E+03	9.669422E-16	1.870780E-17
6.680539E+03	9.125873E-16	1.789325E-17
6.690495E+03	8.593771E-16	1.706899E-17
6.700451E+03	8.085037E-16	1.626014E-17
6.710407E+03	7.607528E-16	1.548482E-17
6.720363E+03	7.166376E-16	1.475637E-17
6.730319E+03	6.764460E-16	1.408391E-17
6.740275E+03	6.402291E-16	1.347178E-17
6.750231E+03	6.078998E-16	1.292133E-17
6.760188E+03	5.793097E-16	1.243243E-17
6.770144E+03	5.542124E-16	1.200257E-17
6.780100E+03	5.323283E-16	1.162819E-17
6.790056E+03	5.133950E-16	1.130575E-17
6.800012E+03	4.971074E-16	1.103046E-17
6.809968E+03	4.832111E-16	1.079832E-17
6.819924E+03	4.714391E-16	1.060476E-17
6.829880E+03	4.615554E-16	1.044564E-17
6.839836E+03	4.533478E-16	1.031714E-17
6.849792E+03	4.466277E-16	1.021576E-17
6.859749E+03	4.412384E-16	1.013857E-17
6.869705E+03	4.370185E-16	1.008239E-17
6.879661E+03	4.338619E-16	1.004517E-17
6.889617E+03	4.316537E-16	1.002458E-17
6.899573E+03	4.303032E-16	1.001874E-17
6.909529E+03	4.297402E-16	1.002619E-17
6.919485E+03	4.298854E-16	1.004518E-17
6.929441E+03	4.306736E-16	1.007425E-17
6.939397E+03	4.320491E-16	1.011210E-17
6.949353E+03	4.339286E-16	1.015677E-17
6.959309E+03	4.362680E-16	1.020716E-17
6.969266E+03	4.389643E-16	1.026078E-17
6.979222E+03	4.419527E-16	1.031602E-17
6.989178E+03	4.451358E-16	1.037050E-17
6.999134E+03	4.484315E-16	1.042222E-17
7.009090E+03	4.517403E-16	1.046877E-17
7.019046E+03	4.549865E-16	1.050834E-17
7.029002E+03	4.580862E-16	1.053896E-17
7.038958E+03	4.609903E-16	1.055950E-17
7.048914E+03	4.636517E-16	1.056893E-17
7.058870E+03	4.660570E-16	1.056701E-17
7.068826E+03	4.682279E-16	1.055433E-17
7.078783E+03	4.702035E-16	1.053191E-17
7.088739E+03	4.720361E-16	1.050102E-17
7.098695E+03	4.738073E-16	1.046360E-17
7.108651E+03	4.756327E-16	1.042228E-17
7.118607E+03	4.775851E-16	1.037870E-17
7.128563E+03	4.797967E-16	1.033575E-17
7.138519E+03	4.823425E-16	1.029497E-17
7.148475E+03	4.853028E-16	1.025797E-17
7.158431E+03	4.887477E-16	1.022609E-17
7.168387E+03	4.927107E-16	1.019982E-17
7.178344E+03	4.971839E-16	1.017880E-17
7.188300E+03	5.021449E-16	1.016238E-17
7.198256E+03	5.075239E-16	1.014896E-17
7.208212E+03	5.132014E-16	1.013609E-17
7.218168E+03	5.190420E-16	1.012111E-17
7.228124E+03	5.248652E-16	1.010067E-17
7.238080E+03	5.304501E-16	1.007087E-17
7.248036E+03	5.355780E-16	1.002812E-17
7.257992E+03	5.400093E-16	9.968733E-18
7.267948E+03	5.434956E-16	9.889145E-18
7.277904E+03	5.458292E-16	9.786841E-18
7.287861E+03	5.468228E-16	9.659922E-18
7.297817E+03	5.463336E-16	9.507498E-18
7.307773E+03	5.442621E-16	9.329586E-18
7.317729E+03	5.405942E-16	9.127746E-18
7.327685E+03	5.353541E-16	8.904174E-18
7.337641E+03	5.286597E-16	8.662542E-18
7.347597E+03	5.206318E-16	8.406396E-18
7.357553E+03	5.114642E-16	8.140250E-18
7.367509E+03	5.013525E-16	7.868390E-18
7.377465E+03	4.905365E-16	7.595516E-18
7.387421E+03	4.792112E-16	7.325338E-18
7.397378E+03	4.675930E-16	7.061644E-18
7.407334E+03	4.558585E-16	6.807365E-18
7.417290E+03	4.441912E-16	6.565324E-18
7.427246E+03	4.327072E-16	6.337162E-18
7.437202E+03	4.215258E-16	6.124434E-18
7.447158E+03	4.107301E-16	5.928049E-18
7.457114E+03	4.003702E-16	5.748154E-18
7.467070E+03	3.905057E-16	5.584468E-18
7.477026E+03	3.811608E-16	5.436169E-18
7.486982E+03	3.724172E-16	5.303316E-18
7.496939E+03	3.643787E-16	5.186363E-18
7.506895E+03	3.571416E-16	5.085747E-18
7.516851E+03	3.508084E-16	5.002097E-18
7.526807E+03	3.454265E-16	4.935370E-18
7.536763E+03	3.410468E-16	4.885675E-18
7.546719E+03	3.376929E-16	4.852827E-18
7.556675E+03	3.353628E-16	4.836366E-18
7.566631E+03	3.340621E-16	4.836006E-18
7.576587E+03	3.337504E-16	4.850857E-18
7.586543E+03	3.343962E-16	4.880197E-18
7.596499E+03	3.359474E-16	4.923022E-18
7.606456E+03	3.383382E-16	4.978150E-18
7.616412E+03	3.414905E-16	5.044210E-18
7.626368E+03	3.453057E-16	5.119521E-18
7.636324E+03	3.496899E-16	5.202460E-18
7.646280E+03	3.545317E-16	5.291121E-18
7.656236E+03	3.597118E-16	5.383470E-18
7.666192E+03	3.651069E-16	5.477392E-18
7.676148E+03	3.705925E-16	5.570754E-18
7.686104E+03	3.760388E-16	5.661341E-18
7.696060E+03	3.813514E-16	5.747483E-18
7.706016E+03	3.864113E-16	5.827164E-18
7.715973E+03	3.911425E-16	5.899054E-18
7.725929E+03	3.954781E-16	5.962000E-18
