#wls	flux	fluxerr
1.592975E+03	6.646287E-18	1.209372E-18
1.632799E+03	6.744833E-18	1.223522E-18
1.672624E+03	6.845281E-18	1.237794E-18
1.712448E+03	6.953786E-18	1.253290E-18
1.752272E+03	7.066364E-18	1.269270E-18
1.792097E+03	7.183602E-18	1.285824E-18
1.831921E+03	7.301347E-18	1.302194E-18
1.871746E+03	7.420534E-18	1.318535E-18
1.911570E+03	7.533732E-18	1.333521E-18
1.951394E+03	7.641630E-18	1.347277E-18
1.991219E+03	7.739570E-18	1.358985E-18
2.031043E+03	7.836814E-18	1.370279E-18
2.070867E+03	7.946967E-18	1.383520E-18
2.110692E+03	8.094011E-18	1.402825E-18
2.150516E+03	8.311506E-18	1.433885E-18
2.190341E+03	8.609578E-18	1.478255E-18
2.230165E+03	8.988493E-18	1.535758E-18
2.269989E+03	9.430538E-18	1.603152E-18
2.309814E+03	9.912858E-18	1.676375E-18
2.349638E+03	1.042135E-17	1.752912E-18
2.389462E+03	1.094642E-17	1.831048E-18
2.429287E+03	1.148370E-17	1.909969E-18
2.469111E+03	1.203210E-17	1.989418E-18
2.508936E+03	1.259473E-17	2.069830E-18
2.548760E+03	1.317083E-17	2.150990E-18
2.588584E+03	1.376488E-17	2.233536E-18
2.628409E+03	1.437918E-17	2.317733E-18
2.668233E+03	1.501880E-17	2.404274E-18
2.708057E+03	1.568371E-17	2.493016E-18
2.747882E+03	1.638220E-17	2.585123E-18
2.787706E+03	1.711472E-17	2.680485E-18
2.827531E+03	1.788475E-17	2.779460E-18
2.867355E+03	1.870218E-17	2.883364E-18
2.907179E+03	1.957194E-17	2.992702E-18
2.947004E+03	2.049983E-17	3.108075E-18
2.986828E+03	2.149904E-17	3.231155E-18
2.996784E+03	2.175968E-17	3.263040E-18
3.006740E+03	2.202365E-17	3.295208E-18
3.016696E+03	2.229752E-17	3.328636E-18
3.026652E+03	2.257511E-17	3.362391E-18
3.036609E+03	2.285682E-17	3.396526E-18
3.046565E+03	2.314625E-17	3.431573E-18
3.056521E+03	2.344400E-17	3.467608E-18
3.066477E+03	2.374689E-17	3.504151E-18
3.076433E+03	2.405833E-17	3.541698E-18
3.086389E+03	2.437513E-17	3.579770E-18
3.096345E+03	2.470081E-17	3.618874E-18
3.106301E+03	2.503555E-17	3.659026E-18
3.116257E+03	2.537960E-17	3.700249E-18
3.126213E+03	2.572975E-17	3.742066E-18
3.136169E+03	2.608966E-17	3.785000E-18
3.146126E+03	2.645963E-17	3.829080E-18
3.156082E+03	2.683644E-17	3.873830E-18
3.166038E+03	2.722390E-17	3.919786E-18
3.175994E+03	2.762236E-17	3.966987E-18
3.185950E+03	2.803219E-17	4.015471E-18
3.195906E+03	2.845019E-17	4.064763E-18
3.205862E+03	2.888398E-17	4.115941E-18
3.215818E+03	2.932676E-17	4.168016E-18
3.225774E+03	2.978261E-17	4.221554E-18
3.235730E+03	3.025203E-17	4.276609E-18
3.245687E+03	3.073181E-17	4.332709E-18
3.255643E+03	3.122998E-17	4.390970E-18
3.265599E+03	3.173957E-17	4.450389E-18
3.275555E+03	3.226884E-17	4.512106E-18
3.285511E+03	3.281073E-17	4.575108E-18
3.295467E+03	3.337368E-17	4.640554E-18
3.305423E+03	3.395056E-17	4.707426E-18
3.315379E+03	3.454603E-17	4.776348E-18
3.325335E+03	3.516086E-17	4.847400E-18
3.335291E+03	3.579994E-17	4.921230E-18
3.345247E+03	3.645599E-17	4.996804E-18
3.355204E+03	3.713811E-17	5.075345E-18
3.365160E+03	3.783894E-17	5.155811E-18
3.375116E+03	3.856782E-17	5.239447E-18
3.385072E+03	3.932159E-17	5.325785E-18
3.395028E+03	4.009696E-17	5.414345E-18
3.404984E+03	4.090810E-17	5.507006E-18
3.414940E+03	4.174309E-17	5.602117E-18
3.424896E+03	4.260749E-17	5.700388E-18
3.434852E+03	4.350714E-17	5.802554E-18
3.444808E+03	4.443889E-17	5.908151E-18
3.454764E+03	4.540414E-17	6.017314E-18
3.464721E+03	4.640433E-17	6.130188E-18
3.474677E+03	4.744581E-17	6.247559E-18
3.484633E+03	4.852547E-17	6.368958E-18
3.494589E+03	4.964502E-17	6.494554E-18
3.504545E+03	5.081120E-17	6.625169E-18
3.514501E+03	5.202099E-17	6.760341E-18
3.524457E+03	5.327630E-17	6.900255E-18
3.534413E+03	5.458436E-17	7.045776E-18
3.544369E+03	5.594743E-17	7.197120E-18
3.554325E+03	5.735702E-17	7.353117E-18
3.564282E+03	5.883148E-17	7.516040E-18
3.574238E+03	6.035650E-17	7.683973E-18
3.584194E+03	6.195075E-17	7.859210E-18
3.594150E+03	6.359814E-17	8.039612E-18
3.604106E+03	6.531631E-17	8.227321E-18
3.614062E+03	6.709366E-17	8.420775E-18
3.624018E+03	6.892979E-17	8.619831E-18
3.633974E+03	7.083022E-17	8.825089E-18
3.643930E+03	7.279436E-17	9.036375E-18
3.653886E+03	7.482121E-17	9.253465E-18
3.663842E+03	7.690303E-17	9.475309E-18
3.673799E+03	7.904473E-17	9.702420E-18
3.683755E+03	8.123772E-17	9.933650E-18
3.693711E+03	8.348648E-17	1.016946E-17
3.703667E+03	8.579544E-17	1.041030E-17
3.713623E+03	8.814098E-17	1.065321E-17
3.723579E+03	9.054079E-17	1.090026E-17
3.733535E+03	9.297711E-17	1.114922E-17
3.743491E+03	9.546064E-17	1.140131E-17
3.753447E+03	9.797219E-17	1.165416E-17
3.763403E+03	1.005145E-16	1.190803E-17
3.773359E+03	1.030825E-16	1.216228E-17
3.783316E+03	1.056706E-16	1.241619E-17
3.793272E+03	1.082650E-16	1.266809E-17
3.803228E+03	1.108753E-16	1.291909E-17
3.813184E+03	1.134871E-16	1.316747E-17
3.823140E+03	1.160932E-16	1.341238E-17
3.833096E+03	1.186781E-16	1.365203E-17
3.843052E+03	1.212508E-16	1.388747E-17
3.853008E+03	1.237954E-16	1.411689E-17
3.862964E+03	1.262951E-16	1.433840E-17
3.872920E+03	1.287595E-16	1.455313E-17
3.882877E+03	1.311718E-16	1.475925E-17
3.892833E+03	1.335241E-16	1.495593E-17
3.902789E+03	1.358089E-16	1.514241E-17
3.912745E+03	1.380189E-16	1.531795E-17
3.922701E+03	1.401471E-16	1.548191E-17
3.932657E+03	1.421966E-16	1.563473E-17
3.942613E+03	1.441436E-16	1.577391E-17
3.952569E+03	1.460018E-16	1.590109E-17
3.962525E+03	1.477585E-16	1.601502E-17
3.972481E+03	1.494112E-16	1.611558E-17
3.982437E+03	1.509587E-16	1.620281E-17
3.992394E+03	1.524013E-16	1.627687E-17
4.002350E+03	1.537496E-16	1.633906E-17
4.012306E+03	1.549977E-16	1.638890E-17
4.022262E+03	1.561502E-16	1.642703E-17
4.032218E+03	1.572135E-16	1.645424E-17
4.042174E+03	1.581953E-16	1.647150E-17
4.052130E+03	1.591141E-16	1.648084E-17
4.062086E+03	1.599628E-16	1.648161E-17
4.072042E+03	1.607715E-16	1.647703E-17
4.081998E+03	1.615537E-16	1.646852E-17
4.091954E+03	1.623064E-16	1.645582E-17
4.101911E+03	1.630544E-16	1.644147E-17
4.111867E+03	1.638227E-16	1.642799E-17
4.121823E+03	1.646197E-16	1.641617E-17
4.131779E+03	1.654633E-16	1.640773E-17
4.141735E+03	1.663793E-16	1.640515E-17
4.151691E+03	1.673685E-16	1.640834E-17
4.161647E+03	1.684648E-16	1.642053E-17
4.171603E+03	1.696765E-16	1.644228E-17
4.181559E+03	1.710190E-16	1.647490E-17
4.191515E+03	1.725069E-16	1.651957E-17
4.201472E+03	1.741532E-16	1.657723E-17
4.211428E+03	1.759694E-16	1.664871E-17
4.221384E+03	1.779649E-16	1.673459E-17
4.231340E+03	1.801554E-16	1.683601E-17
4.241296E+03	1.825294E-16	1.695155E-17
4.251252E+03	1.851062E-16	1.708265E-17
4.261208E+03	1.878688E-16	1.722739E-17
4.271164E+03	1.908315E-16	1.738671E-17
4.281120E+03	1.939717E-16	1.755823E-17
4.291076E+03	1.972900E-16	1.774163E-17
4.301032E+03	2.007841E-16	1.793639E-17
4.310989E+03	2.044242E-16	1.813953E-17
4.320945E+03	2.082045E-16	1.835026E-17
4.330901E+03	2.121094E-16	1.856692E-17
4.340857E+03	2.161140E-16	1.878713E-17
4.350813E+03	2.202117E-16	1.901009E-17
4.360769E+03	2.243973E-16	1.923517E-17
4.370725E+03	2.286326E-16	1.945894E-17
4.380681E+03	2.329389E-16	1.968308E-17
4.390637E+03	2.372975E-16	1.990588E-17
4.400593E+03	2.417212E-16	2.012826E-17
4.410549E+03	2.462065E-16	2.034981E-17
4.420506E+03	2.507701E-16	2.057175E-17
4.430462E+03	2.554103E-16	2.079378E-17
4.440418E+03	2.601336E-16	2.101625E-17
4.450374E+03	2.649545E-16	2.124014E-17
4.460330E+03	2.698750E-16	2.146541E-17
4.470286E+03	2.748832E-16	2.169091E-17
4.480242E+03	2.799732E-16	2.191598E-17
4.490198E+03	2.851375E-16	2.213987E-17
4.500154E+03	2.903684E-16	2.236180E-17
4.510110E+03	2.956667E-16	2.258170E-17
4.520067E+03	3.009984E-16	2.279683E-17
4.530023E+03	3.063652E-16	2.300723E-17
4.539979E+03	3.117228E-16	2.320951E-17
4.549935E+03	3.170638E-16	2.340312E-17
4.559891E+03	3.223356E-16	2.358422E-17
4.569847E+03	3.275256E-16	2.375200E-17
4.579803E+03	3.325788E-16	2.390266E-17
4.589759E+03	3.374637E-16	2.403419E-17
4.599715E+03	3.421739E-16	2.414644E-17
4.609671E+03	3.466640E-16	2.423659E-17
4.619627E+03	3.509270E-16	2.430454E-17
4.629584E+03	3.549405E-16	2.434920E-17
4.639540E+03	3.587101E-16	2.437144E-17
4.649496E+03	3.622266E-16	2.437111E-17
4.659452E+03	3.654982E-16	2.434924E-17
4.669408E+03	3.685504E-16	2.430799E-17
4.679364E+03	3.713922E-16	2.424839E-17
4.689320E+03	3.740487E-16	2.417249E-17
4.699276E+03	3.765605E-16	2.408323E-17
4.709232E+03	3.789495E-16	2.398230E-17
4.719188E+03	3.812394E-16	2.387144E-17
4.729144E+03	3.834877E-16	2.375440E-17
4.739101E+03	3.857181E-16	2.363273E-17
4.749057E+03	3.879628E-16	2.350841E-17
4.759013E+03	3.902393E-16	2.338248E-17
4.768969E+03	3.925816E-16	2.325689E-17
4.778925E+03	3.950065E-16	2.313249E-17
4.788881E+03	3.975242E-16	2.300972E-17
4.798837E+03	4.001373E-16	2.288854E-17
4.808793E+03	4.028308E-16	2.276793E-17
4.818749E+03	4.056039E-16	2.264768E-17
4.828705E+03	4.084283E-16	2.252607E-17
4.838662E+03	4.112914E-16	2.240234E-17
4.848618E+03	4.141545E-16	2.227432E-17
4.858574E+03	4.169978E-16	2.214100E-17
4.868530E+03	4.197783E-16	2.200016E-17
4.878486E+03	4.224637E-16	2.185030E-17
4.888442E+03	4.250349E-16	2.169064E-17
4.898398E+03	4.274536E-16	2.151953E-17
4.908354E+03	4.296943E-16	2.133602E-17
4.918310E+03	4.317344E-16	2.113942E-17
4.928266E+03	4.335651E-16	2.092974E-17
4.938222E+03	4.351498E-16	2.070570E-17
4.948179E+03	4.364982E-16	2.046830E-17
4.958135E+03	4.375835E-16	2.021683E-17
4.968091E+03	4.384267E-16	1.995283E-17
4.978047E+03	4.390242E-16	1.967668E-17
4.988003E+03	4.393795E-16	1.938908E-17
4.997959E+03	4.395240E-16	1.909195E-17
5.007915E+03	4.394952E-16	1.878736E-17
5.017871E+03	4.393060E-16	1.847627E-17
5.027827E+03	4.390059E-16	1.816111E-17
5.037783E+03	4.386384E-16	1.784393E-17
5.047739E+03	4.382408E-16	1.752641E-17
5.057696E+03	4.378827E-16	1.721142E-17
5.067652E+03	4.375962E-16	1.690017E-17
5.077608E+03	4.374331E-16	1.659454E-17
5.087564E+03	4.374641E-16	1.629699E-17
5.097520E+03	4.377194E-16	1.600828E-17
5.107476E+03	4.382437E-16	1.572966E-17
5.117432E+03	4.390933E-16	1.546262E-17
5.127388E+03	4.402745E-16	1.520683E-17
5.137344E+03	4.418024E-16	1.496223E-17
5.147300E+03	4.436893E-16	1.472863E-17
5.157256E+03	4.459267E-16	1.450515E-17
5.167213E+03	4.484858E-16	1.429031E-17
5.177169E+03	4.513491E-16	1.408306E-17
5.187125E+03	4.544745E-16	1.388167E-17
5.197081E+03	4.578353E-16	1.368501E-17
5.207037E+03	4.613848E-16	1.349143E-17
5.216993E+03	4.650889E-16	1.329981E-17
5.226949E+03	4.689348E-16	1.310970E-17
5.236905E+03	4.728621E-16	1.291944E-17
5.246861E+03	4.768597E-16	1.272883E-17
5.256817E+03	4.808886E-16	1.253704E-17
5.266774E+03	4.849313E-16	1.234386E-17
5.276730E+03	4.889527E-16	1.214873E-17
5.286686E+03	4.929403E-16	1.195178E-17
5.296642E+03	4.968661E-16	1.175278E-17
5.306598E+03	5.007164E-16	1.155197E-17
5.316554E+03	5.044916E-16	1.134995E-17
5.326510E+03	5.081757E-16	1.114700E-17
5.336466E+03	5.117656E-16	1.094373E-17
5.346422E+03	5.152701E-16	1.074105E-17
5.356378E+03	5.186780E-16	1.053949E-17
5.366334E+03	5.219882E-16	1.033983E-17
5.376291E+03	5.252071E-16	1.014304E-17
5.386247E+03	5.283172E-16	9.949660E-18
5.396203E+03	5.313064E-16	9.760407E-18
5.406159E+03	5.341594E-16	9.575987E-18
5.416115E+03	5.368730E-16	9.397379E-18
5.426071E+03	5.394310E-16	9.225360E-18
5.436027E+03	5.418312E-16	9.060985E-18
5.445983E+03	5.440753E-16	8.905375E-18
5.455939E+03	5.461715E-16	8.759738E-18
5.465895E+03	5.481416E-16	8.625468E-18
5.475851E+03	5.499686E-16	8.503288E-18
5.485808E+03	5.515846E-16	8.393110E-18
5.495764E+03	5.529149E-16	8.294726E-18
5.505720E+03	5.539014E-16	8.208117E-18
5.515676E+03	5.544670E-16	8.132870E-18
5.525632E+03	5.545779E-16	8.068950E-18
5.535588E+03	5.542203E-16	8.015852E-18
5.545544E+03	5.533865E-16	7.972799E-18
5.555500E+03	5.520909E-16	7.939140E-18
5.565456E+03	5.503948E-16	7.914743E-18
5.575412E+03	5.483459E-16	7.899148E-18
5.585369E+03	5.460032E-16	7.891973E-18
5.595325E+03	5.434605E-16	7.893295E-18
5.605281E+03	5.407850E-16	7.902804E-18
5.615237E+03	5.380460E-16	7.920251E-18
5.625193E+03	5.353415E-16	7.945872E-18
5.635149E+03	5.327325E-16	7.979443E-18
5.645105E+03	5.303106E-16	8.021300E-18
5.655061E+03	5.281645E-16	8.071861E-18
5.665017E+03	5.263934E-16	8.131841E-18
5.674973E+03	5.251061E-16	8.202246E-18
5.684929E+03	5.244144E-16	8.284292E-18
5.694886E+03	5.244631E-16	8.379869E-18
5.704842E+03	5.253967E-16	8.491036E-18
5.714798E+03	5.273620E-16	8.620060E-18
5.724754E+03	5.304956E-16	8.769195E-18
5.734710E+03	5.349465E-16	8.941037E-18
5.744666E+03	5.408337E-16	9.137810E-18
5.754622E+03	5.482866E-16	9.362011E-18
5.764578E+03	5.573677E-16	9.615069E-18
5.774534E+03	5.681576E-16	9.898752E-18
5.784490E+03	5.806846E-16	1.021393E-17
5.794446E+03	5.949259E-16	1.056055E-17
5.804403E+03	6.108284E-16	1.093792E-17
5.814359E+03	6.282588E-16	1.134386E-17
5.824315E+03	6.470356E-16	1.177511E-17
5.834271E+03	6.668730E-16	1.222638E-17
5.844227E+03	6.873991E-16	1.269058E-17
5.854183E+03	7.081610E-16	1.315886E-17
5.864139E+03	7.285973E-16	1.362013E-17
5.874095E+03	7.480835E-16	1.406187E-17
5.884051E+03	7.659638E-16	1.447075E-17
5.894007E+03	7.816412E-16	1.483437E-17
5.903964E+03	7.946112E-16	1.514203E-17
5.913920E+03	8.045184E-16	1.538585E-17
5.923876E+03	8.111737E-16	1.556122E-17
5.933832E+03	8.145241E-16	1.566630E-17
5.943788E+03	8.147282E-16	1.570350E-17
5.953744E+03	8.120367E-16	1.567725E-17
5.963700E+03	8.068254E-16	1.559460E-17
5.973656E+03	7.995462E-16	1.546428E-17
5.983612E+03	7.906860E-16	1.529582E-17
5.993568E+03	7.807343E-16	1.509898E-17
6.003524E+03	7.701758E-16	1.488345E-17
6.013481E+03	7.594216E-16	1.465755E-17
6.023437E+03	7.488692E-16	1.442931E-17
6.033393E+03	7.388459E-16	1.420538E-17
6.043349E+03	7.296255E-16	1.399132E-17
6.053305E+03	7.213758E-16	1.379055E-17
6.063261E+03	7.142325E-16	1.360583E-17
6.073217E+03	7.082623E-16	1.343851E-17
6.083173E+03	7.034264E-16	1.328790E-17
6.093129E+03	6.996585E-16	1.315274E-17
6.103085E+03	6.968255E-16	1.303052E-17
6.113041E+03	6.947501E-16	1.291792E-17
6.122998E+03	6.931825E-16	1.281033E-17
6.132954E+03	6.918842E-16	1.270347E-17
6.142910E+03	6.905934E-16	1.259272E-17
6.152866E+03	6.890488E-16	1.247364E-17
6.162822E+03	6.870010E-16	1.234215E-17
6.172778E+03	6.842388E-16	1.219503E-17
6.182734E+03	6.806182E-16	1.203040E-17
6.192690E+03	6.759979E-16	1.184654E-17
6.202646E+03	6.703024E-16	1.164300E-17
6.212602E+03	6.634798E-16	1.141982E-17
6.222559E+03	6.555126E-16	1.117768E-17
6.232515E+03	6.464254E-16	1.091802E-17
6.242471E+03	6.362461E-16	1.064232E-17
6.252427E+03	6.250830E-16	1.035337E-17
6.262383E+03	6.130552E-16	1.005409E-17
6.272339E+03	6.003275E-16	9.748031E-18
6.282295E+03	5.870959E-16	9.439133E-18
6.292251E+03	5.735862E-16	9.131653E-18
6.302207E+03	5.600442E-16	8.829990E-18
6.312163E+03	5.467371E-16	8.538701E-18
6.322119E+03	5.339252E-16	8.262049E-18
6.332076E+03	5.218880E-16	8.004420E-18
6.342032E+03	5.108754E-16	7.769589E-18
6.351988E+03	5.011656E-16	7.561638E-18
6.361944E+03	4.930158E-16	7.384227E-18
6.371900E+03	4.866773E-16	7.240869E-18
6.381856E+03	4.824199E-16	7.135329E-18
6.391812E+03	4.805346E-16	7.071707E-18
6.401768E+03	4.813276E-16	7.054394E-18
6.411724E+03	4.851331E-16	7.088311E-18
6.421680E+03	4.923312E-16	7.179241E-18
6.431636E+03	5.033499E-16	7.333926E-18
6.441593E+03	5.186550E-16	7.559989E-18
6.451549E+03	5.387663E-16	7.865922E-18
6.461505E+03	5.642517E-16	8.261043E-18
6.471461E+03	5.957568E-16	8.756307E-18
6.481417E+03	6.339233E-16	9.363184E-18
6.491373E+03	6.794154E-16	1.009410E-17
6.501329E+03	7.328127E-16	1.096085E-17
6.511285E+03	7.940316E-16	1.196589E-17
6.521241E+03	8.618488E-16	1.309465E-17
6.531197E+03	9.341814E-16	1.431897E-17
6.541154E+03	1.008087E-15	1.559634E-17
6.551110E+03	1.079877E-15	1.687073E-17
6.561066E+03	1.145447E-15	1.807701E-17
6.571022E+03	1.200679E-15	1.914680E-17
6.580978E+03	1.242066E-15	2.001828E-17
6.590934E+03	1.267605E-15	2.065127E-17
6.600890E+03	1.276702E-15	2.102688E-17
6.610846E+03	1.270009E-15	2.114619E-17
6.620802E+03	1.249136E-15	2.102671E-17
6.630758E+03	1.216404E-15	2.069913E-17
6.640714E+03	1.174368E-15	2.019989E-17
6.650671E+03	1.125581E-15	1.956744E-17
6.660627E+03	1.072460E-15	1.883987E-17
6.670583E+03	1.017145E-15	1.805234E-17
6.680539E+03	9.614387E-16	1.723568E-17
6.690495E+03	9.068364E-16	1.641663E-17
6.700451E+03	8.544762E-16	1.561657E-17
6.710407E+03	8.051614E-16	1.485163E-17
6.720363E+03	7.594462E-16	1.413386E-17
6.730319E+03	7.176297E-16	1.347093E-17
6.740275E+03	6.798085E-16	1.286686E-17
6.750231E+03	6.459377E-16	1.232298E-17
6.760188E+03	6.158756E-16	1.183869E-17
6.770144E+03	5.894106E-16	1.141187E-17
6.780100E+03	5.662812E-16	1.103922E-17
6.790056E+03	5.462311E-16	1.071733E-17
6.800012E+03	5.289573E-16	1.044164E-17
6.809968E+03	5.141693E-16	1.020762E-17
6.819924E+03	5.015970E-16	1.001092E-17
6.829880E+03	4.909968E-16	9.847537E-18
6.839836E+03	4.821501E-16	9.713788E-18
6.849792E+03	4.748688E-16	9.606472E-18
6.859749E+03	4.689622E-16	9.522214E-18
6.869705E+03	4.642915E-16	9.458573E-18
6.879661E+03	4.607218E-16	9.413102E-18
6.889617E+03	4.581241E-16	9.383402E-18
6.899573E+03	4.564182E-16	9.367998E-18
6.909529E+03	4.555219E-16	9.365330E-18
6.919485E+03	4.553514E-16	9.373753E-18
6.929441E+03	4.558629E-16	9.392407E-18
6.939397E+03	4.569994E-16	9.420131E-18
6.949353E+03	4.586961E-16	9.455570E-18
6.959309E+03	4.608936E-16	9.497460E-18
6.969266E+03	4.635345E-16	9.544558E-18
6.979222E+03	4.665454E-16	9.595277E-18
6.989178E+03	4.698385E-16	9.647733E-18
6.999134E+03	4.733314E-16	9.700150E-18
7.009090E+03	4.769497E-16	9.750926E-18
7.019046E+03	4.806144E-16	9.798377E-18
7.029002E+03	4.842475E-16	9.840869E-18
7.038958E+03	4.878037E-16	9.877452E-18
7.048914E+03	4.912372E-16	9.907193E-18
7.058870E+03	4.945487E-16	9.930121E-18
7.068826E+03	4.977193E-16	9.945885E-18
7.078783E+03	5.008033E-16	9.955616E-18
7.088739E+03	5.038283E-16	9.959909E-18
7.098695E+03	5.068641E-16	9.960188E-18
7.108651E+03	5.099718E-16	9.957683E-18
7.118607E+03	5.132316E-16	9.953979E-18
7.128563E+03	5.167100E-16	9.950357E-18
7.138519E+03	5.204644E-16	9.947897E-18
7.148475E+03	5.245297E-16	9.947220E-18
7.158431E+03	5.289422E-16	9.948961E-18
7.168387E+03	5.337081E-16	9.953174E-18
7.178344E+03	5.388088E-16	9.959461E-18
7.188300E+03	5.441881E-16	9.966751E-18
7.198256E+03	5.497899E-16	9.974030E-18
7.208212E+03	5.554885E-16	9.979089E-18
7.218168E+03	5.611579E-16	9.979821E-18
7.228124E+03	5.666253E-16	9.973413E-18
7.238080E+03	5.717289E-16	9.957397E-18
7.248036E+03	5.762512E-16	9.928496E-18
7.257992E+03	5.800000E-16	9.884059E-18
7.267948E+03	5.827767E-16	9.821503E-18
7.277904E+03	5.843972E-16	9.738660E-18
7.287861E+03	5.846911E-16	9.633754E-18
7.297817E+03	5.835587E-16	9.506303E-18
7.307773E+03	5.809051E-16	9.355978E-18
7.317729E+03	5.767198E-16	9.183857E-18
7.327685E+03	5.710349E-16	8.991678E-18
7.337641E+03	5.639375E-16	8.781978E-18
7.347597E+03	5.555488E-16	8.557714E-18
7.357553E+03	5.460532E-16	8.322668E-18
7.367509E+03	5.356144E-16	8.080130E-18
7.377465E+03	5.244502E-16	7.834024E-18
7.387421E+03	5.127400E-16	7.587508E-18
7.397378E+03	5.006893E-16	7.343948E-18
7.407334E+03	4.884828E-16	7.106236E-18
7.417290E+03	4.762875E-16	6.876852E-18
7.427246E+03	4.642487E-16	6.657838E-18
7.437202E+03	4.524840E-16	6.450738E-18
7.447158E+03	4.411217E-16	6.257087E-18
7.457114E+03	4.302385E-16	6.077261E-18
7.467070E+03	4.199282E-16	5.911768E-18
7.477026E+03	4.102719E-16	5.760966E-18
7.486982E+03	4.013443E-16	5.625178E-18
7.496939E+03	3.931720E-16	5.504109E-18
7.506895E+03	3.858277E-16	5.398168E-18
7.516851E+03	3.793486E-16	5.307336E-18
7.526807E+03	3.737734E-16	5.231677E-18
7.536763E+03	3.691222E-16	5.171059E-18
7.546719E+03	3.654231E-16	5.125515E-18
7.556675E+03	3.626607E-16	5.094527E-18
7.566631E+03	3.608358E-16	5.077846E-18
7.576587E+03	3.599061E-16	5.074654E-18
7.586543E+03	3.598384E-16	5.084292E-18
7.596499E+03	3.605819E-16	5.105874E-18
7.606456E+03	3.620764E-16	5.138397E-18
7.616412E+03	3.642526E-16	5.180743E-18
7.626368E+03	3.670339E-16	5.231689E-18
7.636324E+03	3.703378E-16	5.289937E-18
7.646280E+03	3.740686E-16	5.354003E-18
7.656236E+03	3.781485E-16	5.422652E-18
7.666192E+03	3.824654E-16	5.494172E-18
7.676148E+03	3.869380E-16	5.567287E-18
7.686104E+03	3.914556E-16	5.640309E-18
7.696060E+03	3.959375E-16	5.711997E-18
7.706016E+03	4.003118E-16	5.781248E-18
7.715973E+03	4.044902E-16	5.846744E-18
7.725929E+03	4.084192E-16	5.907696E-18
