#wls	flux	fluxerr
1.600000E+03	1.384873E-17	9.548809E-18
1.640000E+03	1.310599E-17	8.927144E-18
1.680000E+03	1.236833E-17	8.314524E-18
1.720000E+03	1.164250E-17	7.716265E-18
1.760000E+03	1.093471E-17	7.137146E-18
1.800000E+03	1.024494E-17	6.577699E-18
1.840000E+03	9.582945E-18	6.044640E-18
1.880000E+03	8.948517E-18	5.538071E-18
1.920000E+03	8.345240E-18	5.060360E-18
1.960000E+03	7.779161E-18	4.615103E-18
2.000000E+03	7.252457E-18	4.203262E-18
2.040000E+03	6.764505E-18	3.823994E-18
2.080000E+03	6.320636E-18	3.479671E-18
2.120000E+03	5.920562E-18	3.169225E-18
2.160000E+03	5.564945E-18	2.891987E-18
2.200000E+03	5.255054E-18	2.647446E-18
2.240000E+03	4.990820E-18	2.434273E-18
2.280000E+03	4.772041E-18	2.251015E-18
2.320000E+03	4.599233E-18	2.096533E-18
2.360000E+03	4.472815E-18	1.969627E-18
2.400000E+03	4.391852E-18	1.868552E-18
2.440000E+03	4.357920E-18	1.792746E-18
2.480000E+03	4.370881E-18	1.740995E-18
2.520000E+03	4.433409E-18	1.713307E-18
2.560000E+03	4.547756E-18	1.709501E-18
2.600000E+03	4.718924E-18	1.730351E-18
2.640000E+03	4.951547E-18	1.776261E-18
2.680000E+03	5.254536E-18	1.848817E-18
2.720000E+03	5.638666E-18	1.949677E-18
2.760000E+03	6.117614E-18	2.080726E-18
2.800000E+03	6.709134E-18	2.244190E-18
2.840000E+03	7.432676E-18	2.441477E-18
2.880000E+03	8.314039E-18	2.674272E-18
2.920000E+03	9.380847E-18	2.942448E-18
2.960000E+03	1.066642E-17	3.244623E-18
3.000000E+03	1.220470E-17	3.575785E-18
3.010000E+03	1.263270E-17	3.662091E-18
3.020000E+03	1.307985E-17	3.749649E-18
3.030000E+03	1.354671E-17	3.838246E-18
3.040000E+03	1.403384E-17	3.927647E-18
3.050000E+03	1.454018E-17	4.017148E-18
3.060000E+03	1.506777E-17	4.106894E-18
3.070000E+03	1.561879E-17	4.197025E-18
3.080000E+03	1.619039E-17	4.286298E-18
3.090000E+03	1.678642E-17	4.375257E-18
3.100000E+03	1.740378E-17	4.462583E-18
3.110000E+03	1.804644E-17	4.548782E-18
3.120000E+03	1.871101E-17	4.632461E-18
3.130000E+03	1.940156E-17	4.714090E-18
3.140000E+03	2.011843E-17	4.793171E-18
3.150000E+03	2.085987E-17	4.868699E-18
3.160000E+03	2.162594E-17	4.940121E-18
3.170000E+03	2.241664E-17	5.006866E-18
3.180000E+03	2.323413E-17	5.068837E-18
3.190000E+03	2.407842E-17	5.125438E-18
3.200000E+03	2.494942E-17	5.176065E-18
3.210000E+03	2.584458E-17	5.219625E-18
3.220000E+03	2.676591E-17	5.256006E-18
3.230000E+03	2.771308E-17	5.284625E-18
3.240000E+03	2.868307E-17	5.304440E-18
3.250000E+03	2.968047E-17	5.315887E-18
3.260000E+03	3.070214E-17	5.318007E-18
3.270000E+03	3.174739E-17	5.310387E-18
3.280000E+03	3.281549E-17	5.292698E-18
3.290000E+03	3.390848E-17	5.265160E-18
3.300000E+03	3.502276E-17	5.227209E-18
3.310000E+03	3.615744E-17	5.178897E-18
3.320000E+03	3.731468E-17	5.120877E-18
3.330000E+03	3.849373E-17	5.053578E-18
3.340000E+03	3.969078E-17	4.977288E-18
3.350000E+03	4.090821E-17	4.893423E-18
3.360000E+03	4.214546E-17	4.803340E-18
3.370000E+03	4.340540E-17	4.709182E-18
3.380000E+03	4.468112E-17	4.612484E-18
3.390000E+03	4.597569E-17	4.516432E-18
3.400000E+03	4.729258E-17	4.424755E-18
3.410000E+03	4.862860E-17	4.341128E-18
3.420000E+03	4.998770E-17	4.270459E-18
3.430000E+03	5.136699E-17	4.217509E-18
3.440000E+03	5.277091E-17	4.187919E-18
3.450000E+03	5.420054E-17	4.186965E-18
3.460000E+03	5.565712E-17	4.219442E-18
3.470000E+03	5.713813E-17	4.288891E-18
3.480000E+03	5.865227E-17	4.398254E-18
3.490000E+03	6.019679E-17	4.547897E-18
3.500000E+03	6.177644E-17	4.737131E-18
3.510000E+03	6.338816E-17	4.963386E-18
3.520000E+03	6.503681E-17	5.223815E-18
3.530000E+03	6.672351E-17	5.514784E-18
3.540000E+03	6.844547E-17	5.832133E-18
3.550000E+03	7.021238E-17	6.172781E-18
3.560000E+03	7.201791E-17	6.532448E-18
3.570000E+03	7.387254E-17	6.908573E-18
3.580000E+03	7.577478E-17	7.297803E-18
3.590000E+03	7.773191E-17	7.697878E-18
3.600000E+03	7.974755E-17	8.106457E-18
3.610000E+03	8.182139E-17	8.521016E-18
3.620000E+03	8.396222E-17	8.940152E-18
3.630000E+03	8.617949E-17	9.362734E-18
3.640000E+03	8.846980E-17	9.786382E-18
3.650000E+03	9.084797E-17	1.021080E-17
3.660000E+03	9.332041E-17	1.063487E-17
3.670000E+03	9.588929E-17	1.105703E-17
3.680000E+03	9.856156E-17	1.147631E-17
3.690000E+03	1.013538E-16	1.189285E-17
3.700000E+03	1.042690E-16	1.230522E-17
3.710000E+03	1.073146E-16	1.271249E-17
3.720000E+03	1.104982E-16	1.311368E-17
3.730000E+03	1.138321E-16	1.350837E-17
3.740000E+03	1.173185E-16	1.389484E-17
3.750000E+03	1.209691E-16	1.427250E-17
3.760000E+03	1.247900E-16	1.464002E-17
3.770000E+03	1.287867E-16	1.499598E-17
3.780000E+03	1.329584E-16	1.533824E-17
3.790000E+03	1.373241E-16	1.566698E-17
3.800000E+03	1.418699E-16	1.597868E-17
3.810000E+03	1.466070E-16	1.627281E-17
3.820000E+03	1.515285E-16	1.654706E-17
3.830000E+03	1.566368E-16	1.680042E-17
3.840000E+03	1.619267E-16	1.703146E-17
3.850000E+03	1.673849E-16	1.723840E-17
3.860000E+03	1.730132E-16	1.742170E-17
3.870000E+03	1.787874E-16	1.757984E-17
3.880000E+03	1.847046E-16	1.771432E-17
3.890000E+03	1.907346E-16	1.782483E-17
3.900000E+03	1.968688E-16	1.791400E-17
3.910000E+03	2.030767E-16	1.798311E-17
3.920000E+03	2.093300E-16	1.803437E-17
3.930000E+03	2.156036E-16	1.807067E-17
3.940000E+03	2.218565E-16	1.809389E-17
3.950000E+03	2.280517E-16	1.810638E-17
3.960000E+03	2.341503E-16	1.811032E-17
3.970000E+03	2.401194E-16	1.810813E-17
3.980000E+03	2.459125E-16	1.810081E-17
3.990000E+03	2.514901E-16	1.808942E-17
4.000000E+03	2.568146E-16	1.807455E-17
4.010000E+03	2.618507E-16	1.805626E-17
4.020000E+03	2.665673E-16	1.803417E-17
4.030000E+03	2.709386E-16	1.800750E-17
4.040000E+03	2.749450E-16	1.797520E-17
4.050000E+03	2.785674E-16	1.793561E-17
4.060000E+03	2.818014E-16	1.788744E-17
4.070000E+03	2.846568E-16	1.782983E-17
4.080000E+03	2.871304E-16	1.776071E-17
4.090000E+03	2.892458E-16	1.767942E-17
4.100000E+03	2.910252E-16	1.758505E-17
4.110000E+03	2.924888E-16	1.747646E-17
4.120000E+03	2.936678E-16	1.735317E-17
4.130000E+03	2.945899E-16	1.721449E-17
4.140000E+03	2.952985E-16	1.706069E-17
4.150000E+03	2.958263E-16	1.689146E-17
4.160000E+03	2.962081E-16	1.670662E-17
4.170000E+03	2.964923E-16	1.650676E-17
4.180000E+03	2.967097E-16	1.629143E-17
4.190000E+03	2.969092E-16	1.606111E-17
4.200000E+03	2.971218E-16	1.581516E-17
4.210000E+03	2.973943E-16	1.555370E-17
4.220000E+03	2.977604E-16	1.527601E-17
4.230000E+03	2.982517E-16	1.498115E-17
4.240000E+03	2.989027E-16	1.466827E-17
4.250000E+03	2.997396E-16	1.433610E-17
4.260000E+03	3.007911E-16	1.398362E-17
4.270000E+03	3.020774E-16	1.360974E-17
4.280000E+03	3.036214E-16	1.321402E-17
4.290000E+03	3.054326E-16	1.279643E-17
4.300000E+03	3.075328E-16	1.235893E-17
4.310000E+03	3.099256E-16	1.190492E-17
4.320000E+03	3.126209E-16	1.144116E-17
4.330000E+03	3.156242E-16	1.097854E-17
4.340000E+03	3.189206E-16	1.053284E-17
4.350000E+03	3.225128E-16	1.012740E-17
4.360000E+03	3.263691E-16	9.792040E-18
4.370000E+03	3.304678E-16	9.563306E-18
4.380000E+03	3.347713E-16	9.478413E-18
4.390000E+03	3.392549E-16	9.564534E-18
4.400000E+03	3.439382E-16	9.825734E-18
4.410000E+03	3.488956E-16	1.024239E-17
4.420000E+03	3.541970E-16	1.078218E-17
4.430000E+03	3.599327E-16	1.141228E-17
4.440000E+03	3.661610E-16	1.210369E-17
4.450000E+03	3.729373E-16	1.283399E-17
4.460000E+03	3.802984E-16	1.358664E-17
4.470000E+03	3.882767E-16	1.435053E-17
4.480000E+03	3.968733E-16	1.511774E-17
4.490000E+03	4.060819E-16	1.588332E-17
4.500000E+03	4.158710E-16	1.664365E-17
4.510000E+03	4.261973E-16	1.739633E-17
4.520000E+03	4.369821E-16	1.813862E-17
4.530000E+03	4.481212E-16	1.886744E-17
4.540000E+03	4.594962E-16	1.957965E-17
4.550000E+03	4.709543E-16	2.027095E-17
4.560000E+03	4.823343E-16	2.093685E-17
4.570000E+03	4.934425E-16	2.157153E-17
4.580000E+03	5.040948E-16	2.216957E-17
4.590000E+03	5.140939E-16	2.272489E-17
4.600000E+03	5.232607E-16	2.323213E-17
4.610000E+03	5.314242E-16	2.368618E-17
4.620000E+03	5.384266E-16	2.408236E-17
4.630000E+03	5.441483E-16	2.441755E-17
4.640000E+03	5.484932E-16	2.468944E-17
4.650000E+03	5.513910E-16	2.489657E-17
4.660000E+03	5.528190E-16	2.503920E-17
4.670000E+03	5.527891E-16	2.511862E-17
4.680000E+03	5.513345E-16	2.513656E-17
4.690000E+03	5.485331E-16	2.509627E-17
4.700000E+03	5.444987E-16	2.500212E-17
4.710000E+03	5.393515E-16	2.485845E-17
4.720000E+03	5.332515E-16	2.467118E-17
4.730000E+03	5.263748E-16	2.444688E-17
4.740000E+03	5.188962E-16	2.419215E-17
4.750000E+03	5.110139E-16	2.391495E-17
4.760000E+03	5.029153E-16	2.362304E-17
4.770000E+03	4.947848E-16	2.332444E-17
4.780000E+03	4.867903E-16	2.302680E-17
4.790000E+03	4.791078E-16	2.273841E-17
4.800000E+03	4.718823E-16	2.246626E-17
4.810000E+03	4.652585E-16	2.221742E-17
4.820000E+03	4.593586E-16	2.199784E-17
4.830000E+03	4.542918E-16	2.181285E-17
4.840000E+03	4.501672E-16	2.166778E-17
4.850000E+03	4.470577E-16	2.156628E-17
4.860000E+03	4.450319E-16	2.151189E-17
4.870000E+03	4.441368E-16	2.150723E-17
4.880000E+03	4.443904E-16	2.155359E-17
4.890000E+03	4.457874E-16	2.165126E-17
4.900000E+03	4.482966E-16	2.179927E-17
4.910000E+03	4.518434E-16	2.199454E-17
4.920000E+03	4.563225E-16	2.223247E-17
4.930000E+03	4.616030E-16	2.250716E-17
4.940000E+03	4.675018E-16	2.281006E-17
4.950000E+03	4.738273E-16	2.313211E-17
4.960000E+03	4.803596E-16	2.346279E-17
4.970000E+03	4.868707E-16	2.379106E-17
4.980000E+03	4.931422E-16	2.410625E-17
4.990000E+03	4.989691E-16	2.439823E-17
5.000000E+03	5.041778E-16	2.465827E-17
5.010000E+03	5.086419E-16	2.487984E-17
5.020000E+03	5.122794E-16	2.505844E-17
5.030000E+03	5.150676E-16	2.519234E-17
5.040000E+03	5.170247E-16	2.528173E-17
5.050000E+03	5.182260E-16	2.532957E-17
5.060000E+03	5.187791E-16	2.534033E-17
5.070000E+03	5.188222E-16	2.532007E-17
5.080000E+03	5.184957E-16	2.527499E-17
5.090000E+03	5.179513E-16	2.521193E-17
5.100000E+03	5.173311E-16	2.513731E-17
5.110000E+03	5.167488E-16	2.505629E-17
5.120000E+03	5.163007E-16	2.497322E-17
5.130000E+03	5.160636E-16	2.489155E-17
5.140000E+03	5.160851E-16	2.481333E-17
5.150000E+03	5.163906E-16	2.473950E-17
5.160000E+03	5.169820E-16	2.466978E-17
5.170000E+03	5.178628E-16	2.460381E-17
5.180000E+03	5.190154E-16	2.453996E-17
5.190000E+03	5.204042E-16	2.447557E-17
5.200000E+03	5.220151E-16	2.440875E-17
5.210000E+03	5.237989E-16	2.433577E-17
5.220000E+03	5.257357E-16	2.425408E-17
5.230000E+03	5.277763E-16	2.415972E-17
5.240000E+03	5.298796E-16	2.404900E-17
5.250000E+03	5.320124E-16	2.391859E-17
5.260000E+03	5.341170E-16	2.376402E-17
5.270000E+03	5.361541E-16	2.358162E-17
5.280000E+03	5.380607E-16	2.336662E-17
5.290000E+03	5.397939E-16	2.311502E-17
5.300000E+03	5.412947E-16	2.282189E-17
5.310000E+03	5.425116E-16	2.248244E-17
5.320000E+03	5.434030E-16	2.209197E-17
5.330000E+03	5.439237E-16	2.164531E-17
5.340000E+03	5.440489E-16	2.113777E-17
5.350000E+03	5.437663E-16	2.056487E-17
5.360000E+03	5.430619E-16	1.992179E-17
5.370000E+03	5.419604E-16	1.920499E-17
5.380000E+03	5.404936E-16	1.841120E-17
5.390000E+03	5.387179E-16	1.753818E-17
5.400000E+03	5.366969E-16	1.658460E-17
5.410000E+03	5.345216E-16	1.555144E-17
5.420000E+03	5.322920E-16	1.444252E-17
5.430000E+03	5.301234E-16	1.326689E-17
5.440000E+03	5.281365E-16	1.204225E-17
5.450000E+03	5.264428E-16	1.080118E-17
5.460000E+03	5.251615E-16	9.602616E-18
5.470000E+03	5.244034E-16	8.547444E-18
5.480000E+03	5.242506E-16	7.788708E-18
5.490000E+03	5.247442E-16	7.495703E-18
5.500000E+03	5.258002E-16	7.734563E-18
5.510000E+03	5.271735E-16	8.394847E-18
5.520000E+03	5.285478E-16	9.287755E-18
5.530000E+03	5.295782E-16	1.025554E-17
5.540000E+03	5.299641E-16	1.119761E-17
5.550000E+03	5.294583E-16	1.205779E-17
5.560000E+03	5.278791E-16	1.280903E-17
5.570000E+03	5.251164E-16	1.344283E-17
5.580000E+03	5.211199E-16	1.396229E-17
5.590000E+03	5.159191E-16	1.437811E-17
5.600000E+03	5.095936E-16	1.470464E-17
5.610000E+03	5.022576E-16	1.495731E-17
5.620000E+03	4.940740E-16	1.515150E-17
5.630000E+03	4.852259E-16	1.530092E-17
5.640000E+03	4.759117E-16	1.541740E-17
5.650000E+03	4.663522E-16	1.551143E-17
5.660000E+03	4.567791E-16	1.559225E-17
5.670000E+03	4.474460E-16	1.566873E-17
5.680000E+03	4.386111E-16	1.574926E-17
5.690000E+03	4.305279E-16	1.584165E-17
5.700000E+03	4.234615E-16	1.595406E-17
5.710000E+03	4.176483E-16	1.609376E-17
5.720000E+03	4.133048E-16	1.626761E-17
5.730000E+03	4.106154E-16	1.648187E-17
5.740000E+03	4.097225E-16	1.674213E-17
5.750000E+03	4.107351E-16	1.705365E-17
5.760000E+03	4.137145E-16	1.742081E-17
5.770000E+03	4.186774E-16	1.784707E-17
5.780000E+03	4.255895E-16	1.833442E-17
5.790000E+03	4.343720E-16	1.888323E-17
5.800000E+03	4.449000E-16	1.949183E-17
5.810000E+03	4.569881E-16	2.015544E-17
5.820000E+03	4.704106E-16	2.086689E-17
5.830000E+03	4.848886E-16	2.161595E-17
5.840000E+03	5.001111E-16	2.239019E-17
5.850000E+03	5.157446E-16	2.317542E-17
5.860000E+03	5.314248E-16	2.395516E-17
5.870000E+03	5.468038E-16	2.471283E-17
5.880000E+03	5.615275E-16	2.543076E-17
5.890000E+03	5.752684E-16	2.609185E-17
5.900000E+03	5.877266E-16	2.667979E-17
5.910000E+03	5.986626E-16	2.718086E-17
5.920000E+03	6.078711E-16	2.758295E-17
5.930000E+03	6.152029E-16	2.787678E-17
5.940000E+03	6.205803E-16	2.805687E-17
5.950000E+03	6.239796E-16	2.812082E-17
5.960000E+03	6.254287E-16	2.806927E-17
5.970000E+03	6.250210E-16	2.790648E-17
5.980000E+03	6.228908E-16	2.763903E-17
5.990000E+03	6.192056E-16	2.727524E-17
6.000000E+03	6.141752E-16	2.682544E-17
6.010000E+03	6.080180E-16	2.630030E-17
6.020000E+03	6.009756E-16	2.571124E-17
6.030000E+03	5.932859E-16	2.506922E-17
6.040000E+03	5.851755E-16	2.438432E-17
6.050000E+03	5.768649E-16	2.366585E-17
6.060000E+03	5.685690E-16	2.292234E-17
6.070000E+03	5.604535E-16	2.215977E-17
6.080000E+03	5.526956E-16	2.138396E-17
6.090000E+03	5.454212E-16	2.059813E-17
6.100000E+03	5.387449E-16	1.980458E-17
6.110000E+03	5.327646E-16	1.900460E-17
6.120000E+03	5.275477E-16	1.819821E-17
6.130000E+03	5.231436E-16	1.738497E-17
6.140000E+03	5.195952E-16	1.656490E-17
6.150000E+03	5.169144E-16	1.573834E-17
6.160000E+03	5.151081E-16	1.490780E-17
6.170000E+03	5.141625E-16	1.407874E-17
6.180000E+03	5.140529E-16	1.326158E-17
6.190000E+03	5.147324E-16	1.247342E-17
6.200000E+03	5.161460E-16	1.174057E-17
6.210000E+03	5.182250E-16	1.109989E-17
6.220000E+03	5.208715E-16	1.059767E-17
6.230000E+03	5.239695E-16	1.028421E-17
6.240000E+03	5.273931E-16	1.020141E-17
6.250000E+03	5.309992E-16	1.036604E-17
6.260000E+03	5.346408E-16	1.076260E-17
6.270000E+03	5.381835E-16	1.135229E-17
6.280000E+03	5.415004E-16	1.208696E-17
6.290000E+03	5.445014E-16	1.292032E-17
6.300000E+03	5.471140E-16	1.381300E-17
6.310000E+03	5.492994E-16	1.473421E-17
6.320000E+03	5.510495E-16	1.566104E-17
6.330000E+03	5.523588E-16	1.657675E-17
6.340000E+03	5.532565E-16	1.747079E-17
6.350000E+03	5.537613E-16	1.833649E-17
6.360000E+03	5.539048E-16	1.917070E-17
6.370000E+03	5.537006E-16	1.997178E-17
6.380000E+03	5.531828E-16	2.074001E-17
6.390000E+03	5.523615E-16	2.147538E-17
6.400000E+03	5.512704E-16	2.217904E-17
6.410000E+03	5.499347E-16	2.285182E-17
6.420000E+03	5.483741E-16	2.349429E-17
6.430000E+03	5.466392E-16	2.410832E-17
6.440000E+03	5.447679E-16	2.469529E-17
6.450000E+03	5.428317E-16	2.525826E-17
6.460000E+03	5.408958E-16	2.580026E-17
6.470000E+03	5.390398E-16	2.632531E-17
6.480000E+03	5.373495E-16	2.683805E-17
6.490000E+03	5.359058E-16	2.734324E-17
6.500000E+03	5.347972E-16	2.784629E-17
6.510000E+03	5.340908E-16	2.835176E-17
6.520000E+03	5.338491E-16	2.886409E-17
6.530000E+03	5.341022E-16	2.938600E-17
6.540000E+03	5.348716E-16	2.991962E-17
6.550000E+03	5.361388E-16	3.046471E-17
6.560000E+03	5.378557E-16	3.101898E-17
6.570000E+03	5.399510E-16	3.157849E-17
6.580000E+03	5.423167E-16	3.213676E-17
6.590000E+03	5.448420E-16	3.268682E-17
6.600000E+03	5.473844E-16	3.321963E-17
6.610000E+03	5.498011E-16	3.372606E-17
6.620000E+03	5.519625E-16	3.419790E-17
6.630000E+03	5.537291E-16	3.462651E-17
6.640000E+03	5.549819E-16	3.500475E-17
6.650000E+03	5.556272E-16	3.532727E-17
6.660000E+03	5.555879E-16	3.558991E-17
6.670000E+03	5.548112E-16	3.579013E-17
6.680000E+03	5.532691E-16	3.592697E-17
6.690000E+03	5.509575E-16	3.600094E-17
6.700000E+03	5.479063E-16	3.601466E-17
6.710000E+03	5.441407E-16	3.597035E-17
6.720000E+03	5.397213E-16	3.587239E-17
6.730000E+03	5.347172E-16	3.572565E-17
6.740000E+03	5.292157E-16	3.553610E-17
6.750000E+03	5.233022E-16	3.530951E-17
6.760000E+03	5.170883E-16	3.505338E-17
6.770000E+03	5.106685E-16	3.477404E-17
6.780000E+03	5.041547E-16	3.447901E-17
6.790000E+03	4.976797E-16	3.417729E-17
6.800000E+03	4.913441E-16	3.387575E-17
6.810000E+03	4.852781E-16	3.358338E-17
6.820000E+03	4.795937E-16	3.330805E-17
6.830000E+03	4.744114E-16	3.305831E-17
6.840000E+03	4.698412E-16	3.284210E-17
6.850000E+03	4.659801E-16	3.266659E-17
6.860000E+03	4.629324E-16	3.253951E-17
6.870000E+03	4.607679E-16	3.246631E-17
6.880000E+03	4.595640E-16	3.245298E-17
6.890000E+03	4.593647E-16	3.250323E-17
6.900000E+03	4.602004E-16	3.261978E-17
6.910000E+03	4.620800E-16	3.280385E-17
6.920000E+03	4.649956E-16	3.305540E-17
6.930000E+03	4.689043E-16	3.337187E-17
6.940000E+03	4.737452E-16	3.374931E-17
6.950000E+03	4.794396E-16	3.418246E-17
6.960000E+03	4.858765E-16	3.466362E-17
6.970000E+03	4.929384E-16	3.518454E-17
6.980000E+03	5.004819E-16	3.573499E-17
6.990000E+03	5.083666E-16	3.630488E-17
7.000000E+03	5.164372E-16	3.688291E-17
7.010000E+03	5.245538E-16	3.745883E-17
7.020000E+03	5.325731E-16	3.802201E-17
7.030000E+03	5.403792E-16	3.856376E-17
7.040000E+03	5.478623E-16	3.907571E-17
7.050000E+03	5.549409E-16	3.955152E-17
7.060000E+03	5.615646E-16	3.998698E-17
7.070000E+03	5.676924E-16	4.037856E-17
7.080000E+03	5.733130E-16	4.072479E-17
7.090000E+03	5.784341E-16	4.102558E-17
7.100000E+03	5.830874E-16	4.128249E-17
7.110000E+03	5.872942E-16	4.149638E-17
7.120000E+03	5.911054E-16	4.167023E-17
7.130000E+03	5.945680E-16	4.180668E-17
7.140000E+03	5.977278E-16	4.190839E-17
7.150000E+03	6.006262E-16	4.197766E-17
7.160000E+03	6.032896E-16	4.201576E-17
7.170000E+03	6.057416E-16	4.202378E-17
7.180000E+03	6.080022E-16	4.200254E-17
7.190000E+03	6.100717E-16	4.195146E-17
7.200000E+03	6.119221E-16	4.186800E-17
7.210000E+03	6.135445E-16	4.175093E-17
7.220000E+03	6.148881E-16	4.159615E-17
7.230000E+03	6.159163E-16	4.140054E-17
7.240000E+03	6.165778E-16	4.116005E-17
7.250000E+03	6.168164E-16	4.087039E-17
7.260000E+03	6.165661E-16	4.052672E-17
7.270000E+03	6.157773E-16	4.012549E-17
7.280000E+03	6.143884E-16	3.966251E-17
7.290000E+03	6.123518E-16	3.913477E-17
7.300000E+03	6.096369E-16	3.854057E-17
7.310000E+03	6.062083E-16	3.787814E-17
7.320000E+03	6.020593E-16	3.714774E-17
7.330000E+03	5.971813E-16	3.634976E-17
7.340000E+03	5.915954E-16	3.548658E-17
7.350000E+03	5.853210E-16	3.456064E-17
7.360000E+03	5.784130E-16	3.357662E-17
7.370000E+03	5.709213E-16	3.253896E-17
7.380000E+03	5.629047E-16	3.145267E-17
7.390000E+03	5.544349E-16	3.032352E-17
7.400000E+03	5.455802E-16	2.915711E-17
7.410000E+03	5.364243E-16	2.795988E-17
7.420000E+03	5.270359E-16	2.673746E-17
7.430000E+03	5.174821E-16	2.549552E-17
7.440000E+03	5.078208E-16	2.423939E-17
7.450000E+03	4.981207E-16	2.297515E-17
7.460000E+03	4.884212E-16	2.170783E-17
7.470000E+03	4.787795E-16	2.044376E-17
7.480000E+03	4.692383E-16	1.918925E-17
7.490000E+03	4.598578E-16	1.795209E-17
7.500000E+03	4.506789E-16	1.674031E-17
7.510000E+03	4.417605E-16	1.556393E-17
7.520000E+03	4.331444E-16	1.443394E-17
7.530000E+03	4.248968E-16	1.336421E-17
7.540000E+03	4.170572E-16	1.237018E-17
7.550000E+03	4.097011E-16	1.147113E-17
7.560000E+03	4.028731E-16	1.068827E-17
7.570000E+03	3.966468E-16	1.004582E-17
7.580000E+03	3.910852E-16	9.568388E-18
7.590000E+03	3.862444E-16	9.278371E-18
7.600000E+03	3.821819E-16	9.191776E-18
7.610000E+03	3.789505E-16	9.312940E-18
7.620000E+03	3.766115E-16	9.631133E-18
7.630000E+03	3.752057E-16	1.012123E-17
7.640000E+03	3.747769E-16	1.075255E-17
7.650000E+03	3.753580E-16	1.149682E-17
7.660000E+03	3.769629E-16	1.233155E-17
7.670000E+03	3.795706E-16	1.323967E-17
7.680000E+03	3.831554E-16	1.420933E-17
7.690000E+03	3.876681E-16	1.523186E-17
7.700000E+03	3.930411E-16	1.630056E-17
7.710000E+03	3.991962E-16	1.740993E-17
7.720000E+03	4.060296E-16	1.855423E-17
7.730000E+03	4.134306E-16	1.972767E-17
7.740000E+03	4.212837E-16	2.092414E-17
7.750000E+03	4.294549E-16	2.213633E-17
7.760000E+03	4.378171E-16	2.335679E-17
