#wls	flux	fluxerr
1.600000E+03	9.305245E-18	6.532753E-18
1.640000E+03	8.817336E-18	6.127533E-18
1.680000E+03	8.338642E-18	5.731982E-18
1.720000E+03	7.874505E-18	5.350064E-18
1.760000E+03	7.425564E-18	4.982422E-18
1.800000E+03	6.993918E-18	4.630636E-18
1.840000E+03	6.582660E-18	4.296854E-18
1.880000E+03	6.193325E-18	3.982078E-18
1.920000E+03	5.827261E-18	3.687103E-18
1.960000E+03	5.485606E-18	3.412496E-18
2.000000E+03	5.170163E-18	3.159137E-18
2.040000E+03	4.880650E-18	2.926525E-18
2.080000E+03	4.618352E-18	2.715038E-18
2.120000E+03	4.383453E-18	2.524305E-18
2.160000E+03	4.176680E-18	2.354204E-18
2.200000E+03	3.997214E-18	2.203671E-18
2.240000E+03	3.846165E-18	2.072684E-18
2.280000E+03	3.722628E-18	1.960070E-18
2.320000E+03	3.626986E-18	1.865339E-18
2.360000E+03	3.559636E-18	1.787974E-18
2.400000E+03	3.520010E-18	1.726954E-18
2.440000E+03	3.509398E-18	1.682172E-18
2.480000E+03	3.527761E-18	1.652827E-18
2.520000E+03	3.577017E-18	1.639000E-18
2.560000E+03	3.659024E-18	1.640625E-18
2.600000E+03	3.775170E-18	1.657295E-18
2.640000E+03	3.928539E-18	1.689167E-18
2.680000E+03	4.124064E-18	1.736912E-18
2.720000E+03	4.364805E-18	1.800031E-18
2.760000E+03	4.657445E-18	1.879079E-18
2.800000E+03	5.007878E-18	1.973675E-18
2.840000E+03	5.424703E-18	2.083760E-18
2.880000E+03	5.914057E-18	2.207397E-18
2.920000E+03	6.487318E-18	2.343543E-18
2.960000E+03	7.152089E-18	2.488422E-18
3.000000E+03	7.917997E-18	2.637544E-18
3.010000E+03	8.127016E-18	2.675008E-18
3.020000E+03	8.342687E-18	2.712108E-18
3.030000E+03	8.565096E-18	2.748709E-18
3.040000E+03	8.795240E-18	2.784958E-18
3.050000E+03	9.033241E-18	2.820709E-18
3.060000E+03	9.278266E-18	2.855514E-18
3.070000E+03	9.531343E-18	2.889500E-18
3.080000E+03	9.792576E-18	2.922497E-18
3.090000E+03	1.006106E-17	2.954030E-18
3.100000E+03	1.033786E-17	2.984208E-18
3.110000E+03	1.062307E-17	3.012840E-18
3.120000E+03	1.091570E-17	3.039431E-18
3.130000E+03	1.121795E-17	3.064369E-18
3.140000E+03	1.152774E-17	3.086856E-18
3.150000E+03	1.184623E-17	3.106976E-18
3.160000E+03	1.217461E-17	3.124807E-18
3.170000E+03	1.251072E-17	3.139549E-18
3.180000E+03	1.285576E-17	3.151280E-18
3.190000E+03	1.321103E-17	3.160074E-18
3.200000E+03	1.357426E-17	3.165146E-18
3.210000E+03	1.394798E-17	3.166863E-18
3.220000E+03	1.433114E-17	3.164742E-18
3.230000E+03	1.472392E-17	3.158596E-18
3.240000E+03	1.512783E-17	3.148523E-18
3.250000E+03	1.554183E-17	3.134088E-18
3.260000E+03	1.596624E-17	3.115153E-18
3.270000E+03	1.640275E-17	3.091864E-18
3.280000E+03	1.685186E-17	3.064123E-18
3.290000E+03	1.731269E-17	3.031618E-18
3.300000E+03	1.778584E-17	2.994346E-18
3.310000E+03	1.827344E-17	2.952590E-18
3.320000E+03	1.877635E-17	2.906444E-18
3.330000E+03	1.929557E-17	2.856082E-18
3.340000E+03	1.983225E-17	2.801772E-18
3.350000E+03	2.038615E-17	2.743696E-18
3.360000E+03	2.096187E-17	2.682823E-18
3.370000E+03	2.155799E-17	2.619475E-18
3.380000E+03	2.217967E-17	2.555025E-18
3.390000E+03	2.282590E-17	2.490366E-18
3.400000E+03	2.350250E-17	2.427516E-18
3.410000E+03	2.421071E-17	2.368388E-18
3.420000E+03	2.495550E-17	2.315779E-18
3.430000E+03	2.573882E-17	2.272745E-18
3.440000E+03	2.656474E-17	2.243129E-18
3.450000E+03	2.743969E-17	2.231479E-18
3.460000E+03	2.836696E-17	2.242403E-18
3.470000E+03	2.935412E-17	2.280890E-18
3.480000E+03	3.040691E-17	2.351052E-18
3.490000E+03	3.152839E-17	2.454292E-18
3.500000E+03	3.271870E-17	2.590272E-18
3.510000E+03	3.398211E-17	2.758160E-18
3.520000E+03	3.532311E-17	2.956632E-18
3.530000E+03	3.673979E-17	3.183580E-18
3.540000E+03	3.823904E-17	3.437600E-18
3.550000E+03	3.982121E-17	3.716819E-18
3.560000E+03	4.148894E-17	4.019704E-18
3.570000E+03	4.324742E-17	4.345144E-18
3.580000E+03	4.509707E-17	4.691712E-18
3.590000E+03	4.704075E-17	5.058337E-18
3.600000E+03	4.908411E-17	5.444346E-18
3.610000E+03	5.123037E-17	5.848893E-18
3.620000E+03	5.348281E-17	6.271172E-18
3.630000E+03	5.584174E-17	6.710040E-18
3.640000E+03	5.831640E-17	7.165412E-18
3.650000E+03	6.090403E-17	7.635744E-18
3.660000E+03	6.361420E-17	8.120974E-18
3.670000E+03	6.644369E-17	8.619403E-18
3.680000E+03	6.940226E-17	9.130945E-18
3.690000E+03	7.249320E-17	9.654654E-18
3.700000E+03	7.571594E-17	1.018902E-17
3.710000E+03	7.907303E-17	1.073291E-17
3.720000E+03	8.257057E-17	1.128562E-17
3.730000E+03	8.620676E-17	1.184538E-17
3.740000E+03	8.998712E-17	1.241139E-17
3.750000E+03	9.391286E-17	1.298229E-17
3.760000E+03	9.798463E-17	1.355664E-17
3.770000E+03	1.022023E-16	1.413296E-17
3.780000E+03	1.065652E-16	1.470973E-17
3.790000E+03	1.110715E-16	1.528542E-17
3.800000E+03	1.157185E-16	1.585848E-17
3.810000E+03	1.205027E-16	1.642737E-17
3.820000E+03	1.254242E-16	1.699127E-17
3.830000E+03	1.304722E-16	1.754806E-17
3.840000E+03	1.356449E-16	1.809704E-17
3.850000E+03	1.409230E-16	1.863549E-17
3.860000E+03	1.463130E-16	1.916436E-17
3.870000E+03	1.517928E-16	1.968108E-17
3.880000E+03	1.573557E-16	2.018541E-17
3.890000E+03	1.629819E-16	2.067569E-17
3.900000E+03	1.686621E-16	2.115188E-17
3.910000E+03	1.743801E-16	2.161329E-17
3.920000E+03	1.801186E-16	2.205929E-17
3.930000E+03	1.858529E-16	2.248850E-17
3.940000E+03	1.915701E-16	2.290115E-17
3.950000E+03	1.972507E-16	2.329666E-17
3.960000E+03	2.028750E-16	2.367442E-17
3.970000E+03	2.084231E-16	2.403376E-17
3.980000E+03	2.138688E-16	2.437315E-17
3.990000E+03	2.192000E-16	2.469250E-17
4.000000E+03	2.243990E-16	2.499084E-17
4.010000E+03	2.294494E-16	2.526704E-17
4.020000E+03	2.343365E-16	2.551987E-17
4.030000E+03	2.390403E-16	2.574721E-17
4.040000E+03	2.435574E-16	2.594837E-17
4.050000E+03	2.478725E-16	2.612104E-17
4.060000E+03	2.519801E-16	2.626362E-17
4.070000E+03	2.558844E-16	2.637521E-17
4.080000E+03	2.595855E-16	2.645412E-17
4.090000E+03	2.630720E-16	2.649724E-17
4.100000E+03	2.663564E-16	2.650366E-17
4.110000E+03	2.694471E-16	2.647177E-17
4.120000E+03	2.723548E-16	2.640001E-17
4.130000E+03	2.750854E-16	2.628619E-17
4.140000E+03	2.776611E-16	2.612951E-17
4.150000E+03	2.800919E-16	2.592790E-17
4.160000E+03	2.823897E-16	2.567932E-17
4.170000E+03	2.845881E-16	2.538369E-17
4.180000E+03	2.866945E-16	2.503839E-17
4.190000E+03	2.887310E-16	2.464209E-17
4.200000E+03	2.907134E-16	2.419288E-17
4.210000E+03	2.926782E-16	2.369055E-17
4.220000E+03	2.946354E-16	2.313267E-17
4.230000E+03	2.966083E-16	2.251799E-17
4.240000E+03	2.986206E-16	2.184540E-17
4.250000E+03	3.006891E-16	2.111353E-17
4.260000E+03	3.028377E-16	2.032190E-17
4.270000E+03	3.050836E-16	1.947022E-17
4.280000E+03	3.074577E-16	1.856000E-17
4.290000E+03	3.099786E-16	1.759332E-17
4.300000E+03	3.126723E-16	1.657487E-17
4.310000E+03	3.155542E-16	1.551196E-17
4.320000E+03	3.186672E-16	1.441819E-17
4.330000E+03	3.220263E-16	1.331316E-17
4.340000E+03	3.256817E-16	1.222933E-17
4.350000E+03	3.296638E-16	1.121480E-17
4.360000E+03	3.340216E-16	1.034101E-17
4.370000E+03	3.388105E-16	9.705085E-18
4.380000E+03	3.440870E-16	9.419872E-18
4.390000E+03	3.499184E-16	9.581896E-18
4.400000E+03	3.563180E-16	1.020833E-17
4.410000E+03	3.632566E-16	1.123402E-17
4.420000E+03	3.707031E-16	1.256779E-17
4.430000E+03	3.786202E-16	1.412440E-17
4.440000E+03	3.869835E-16	1.583731E-17
4.450000E+03	3.957407E-16	1.765674E-17
4.460000E+03	4.048717E-16	1.954791E-17
4.470000E+03	4.143331E-16	2.148466E-17
4.480000E+03	4.240849E-16	2.344740E-17
4.490000E+03	4.340679E-16	2.541983E-17
4.500000E+03	4.442460E-16	2.738984E-17
4.510000E+03	4.545555E-16	2.934579E-17
4.520000E+03	4.649264E-16	3.127694E-17
4.530000E+03	4.752894E-16	3.317359E-17
4.540000E+03	4.855775E-16	3.502696E-17
4.550000E+03	4.956957E-16	3.682685E-17
4.560000E+03	5.055683E-16	3.856490E-17
4.570000E+03	5.151095E-16	4.023243E-17
4.580000E+03	5.242252E-16	4.182045E-17
4.590000E+03	5.328308E-16	4.332099E-17
4.600000E+03	5.408452E-16	4.472672E-17
4.610000E+03	5.482014E-16	4.603177E-17
4.620000E+03	5.548242E-16	4.722989E-17
4.630000E+03	5.606483E-16	4.831588E-17
4.640000E+03	5.656450E-16	4.928795E-17
4.650000E+03	5.697654E-16	5.014279E-17
4.660000E+03	5.730002E-16	5.088073E-17
4.670000E+03	5.753462E-16	5.150282E-17
4.680000E+03	5.768153E-16	5.201159E-17
4.690000E+03	5.774255E-16	5.241025E-17
4.700000E+03	5.772336E-16	5.270553E-17
4.710000E+03	5.762756E-16	5.290242E-17
4.720000E+03	5.746317E-16	5.300988E-17
4.730000E+03	5.723584E-16	5.303478E-17
4.740000E+03	5.695519E-16	5.298761E-17
4.750000E+03	5.662893E-16	5.287710E-17
4.760000E+03	5.626590E-16	5.271297E-17
4.770000E+03	5.587503E-16	5.250500E-17
4.780000E+03	5.546668E-16	5.226428E-17
4.790000E+03	5.504786E-16	5.199868E-17
4.800000E+03	5.462745E-16	5.171779E-17
4.810000E+03	5.421299E-16	5.142984E-17
4.820000E+03	5.381133E-16	5.114237E-17
4.830000E+03	5.342923E-16	5.086277E-17
4.840000E+03	5.307117E-16	5.059617E-17
4.850000E+03	5.274213E-16	5.034811E-17
4.860000E+03	5.244613E-16	5.012314E-17
4.870000E+03	5.218412E-16	4.992280E-17
4.880000E+03	5.195889E-16	4.975033E-17
4.890000E+03	5.177089E-16	4.960662E-17
4.900000E+03	5.161969E-16	4.949167E-17
4.910000E+03	5.150402E-16	4.940458E-17
4.920000E+03	5.142251E-16	4.934430E-17
4.930000E+03	5.137181E-16	4.930776E-17
4.940000E+03	5.134931E-16	4.929259E-17
4.950000E+03	5.135197E-16	4.929587E-17
4.960000E+03	5.137444E-16	4.931242E-17
4.970000E+03	5.141450E-16	4.933998E-17
4.980000E+03	5.146656E-16	4.937298E-17
4.990000E+03	5.152708E-16	4.940776E-17
5.000000E+03	5.159205E-16	4.944014E-17
5.010000E+03	5.165843E-16	4.946678E-17
5.020000E+03	5.172222E-16	4.948334E-17
5.030000E+03	5.178182E-16	4.948774E-17
5.040000E+03	5.183347E-16	4.947573E-17
5.050000E+03	5.187584E-16	4.944535E-17
5.060000E+03	5.190740E-16	4.939433E-17
5.070000E+03	5.192769E-16	4.932135E-17
5.080000E+03	5.193593E-16	4.922472E-17
5.090000E+03	5.193096E-16	4.910229E-17
5.100000E+03	5.191250E-16	4.895266E-17
5.110000E+03	5.188167E-16	4.877564E-17
5.120000E+03	5.183704E-16	4.856854E-17
5.130000E+03	5.177976E-16	4.833098E-17
5.140000E+03	5.170830E-16	4.805994E-17
5.150000E+03	5.162295E-16	4.775400E-17
5.160000E+03	5.152384E-16	4.741147E-17
5.170000E+03	5.140901E-16	4.702856E-17
5.180000E+03	5.127887E-16	4.660360E-17
5.190000E+03	5.113179E-16	4.613290E-17
5.200000E+03	5.096598E-16	4.561255E-17
5.210000E+03	5.078149E-16	4.504019E-17
5.220000E+03	5.057575E-16	4.441109E-17
5.230000E+03	5.034872E-16	4.372268E-17
5.240000E+03	5.009793E-16	4.297027E-17
5.250000E+03	4.982225E-16	4.215038E-17
5.260000E+03	4.952196E-16	4.126076E-17
5.270000E+03	4.919454E-16	4.029690E-17
5.280000E+03	4.884078E-16	3.925723E-17
5.290000E+03	4.846003E-16	3.813912E-17
5.300000E+03	4.805324E-16	3.694146E-17
5.310000E+03	4.762004E-16	3.566236E-17
5.320000E+03	4.716174E-16	3.430155E-17
5.330000E+03	4.668131E-16	3.286026E-17
5.340000E+03	4.617936E-16	3.133836E-17
5.350000E+03	4.565989E-16	2.973845E-17
5.360000E+03	4.512568E-16	2.806263E-17
5.370000E+03	4.458054E-16	2.631408E-17
5.380000E+03	4.402819E-16	2.449634E-17
5.390000E+03	4.347428E-16	2.261453E-17
5.400000E+03	4.292211E-16	2.067308E-17
5.410000E+03	4.237782E-16	1.867888E-17
5.420000E+03	4.184611E-16	1.663950E-17
5.430000E+03	4.133226E-16	1.456550E-17
5.440000E+03	4.084160E-16	1.247249E-17
5.450000E+03	4.037946E-16	1.038667E-17
5.460000E+03	3.995131E-16	8.358167E-18
5.470000E+03	3.956244E-16	6.496224E-18
5.480000E+03	3.922017E-16	5.058146E-18
5.490000E+03	3.893086E-16	4.542175E-18
5.500000E+03	3.869825E-16	5.234943E-18
5.510000E+03	3.851192E-16	6.674249E-18
5.520000E+03	3.836056E-16	8.395204E-18
5.530000E+03	3.823447E-16	1.018305E-17
5.540000E+03	3.812570E-16	1.194805E-17
5.550000E+03	3.802658E-16	1.364932E-17
5.560000E+03	3.793094E-16	1.526654E-17
5.570000E+03	3.783416E-16	1.678929E-17
5.580000E+03	3.773226E-16	1.821218E-17
5.590000E+03	3.762290E-16	1.953331E-17
5.600000E+03	3.750353E-16	2.075236E-17
5.610000E+03	3.737506E-16	2.187207E-17
5.620000E+03	3.723730E-16	2.289546E-17
5.630000E+03	3.709245E-16	2.382768E-17
5.640000E+03	3.694321E-16	2.467473E-17
5.650000E+03	3.679355E-16	2.544389E-17
5.660000E+03	3.664717E-16	2.614258E-17
5.670000E+03	3.650916E-16	2.677937E-17
5.680000E+03	3.638486E-16	2.736315E-17
5.690000E+03	3.627882E-16	2.790227E-17
5.700000E+03	3.619597E-16	2.840526E-17
5.710000E+03	3.614139E-16	2.888064E-17
5.720000E+03	3.611931E-16	2.933610E-17
5.730000E+03	3.613342E-16	2.977861E-17
5.740000E+03	3.618670E-16	3.021430E-17
5.750000E+03	3.628179E-16	3.064871E-17
5.760000E+03	3.641957E-16	3.108555E-17
5.770000E+03	3.660045E-16	3.152775E-17
5.780000E+03	3.682425E-16	3.197739E-17
5.790000E+03	3.708983E-16	3.243535E-17
5.800000E+03	3.739320E-16	3.289965E-17
5.810000E+03	3.773213E-16	3.336944E-17
5.820000E+03	3.810158E-16	3.384108E-17
5.830000E+03	3.849614E-16	3.431020E-17
5.840000E+03	3.890958E-16	3.477140E-17
5.850000E+03	3.933503E-16	3.521835E-17
5.860000E+03	3.976514E-16	3.564401E-17
5.870000E+03	4.019220E-16	3.604075E-17
5.880000E+03	4.060838E-16	3.640060E-17
5.890000E+03	4.100643E-16	3.671590E-17
5.900000E+03	4.137789E-16	3.697774E-17
5.910000E+03	4.171629E-16	3.717888E-17
5.920000E+03	4.201538E-16	3.731217E-17
5.930000E+03	4.226979E-16	3.737124E-17
5.940000E+03	4.247468E-16	3.735013E-17
5.950000E+03	4.262741E-16	3.724487E-17
5.960000E+03	4.272607E-16	3.705218E-17
5.970000E+03	4.276951E-16	3.676947E-17
5.980000E+03	4.275836E-16	3.639577E-17
5.990000E+03	4.269503E-16	3.593170E-17
6.000000E+03	4.258200E-16	3.537793E-17
6.010000E+03	4.242328E-16	3.473645E-17
6.020000E+03	4.222377E-16	3.400995E-17
6.030000E+03	4.198852E-16	3.320117E-17
6.040000E+03	4.172472E-16	3.231440E-17
6.050000E+03	4.143728E-16	3.135196E-17
6.060000E+03	4.113443E-16	3.031846E-17
6.070000E+03	4.082133E-16	2.921586E-17
6.080000E+03	4.050563E-16	2.804759E-17
6.090000E+03	4.019321E-16	2.681536E-17
6.100000E+03	3.989019E-16	2.552058E-17
6.110000E+03	3.960229E-16	2.416387E-17
6.120000E+03	3.933484E-16	2.274510E-17
6.130000E+03	3.909223E-16	2.126310E-17
6.140000E+03	3.887942E-16	1.971655E-17
6.150000E+03	3.870001E-16	1.810306E-17
6.160000E+03	3.855819E-16	1.642039E-17
6.170000E+03	3.845693E-16	1.466594E-17
6.180000E+03	3.840003E-16	1.283831E-17
6.190000E+03	3.839028E-16	1.093809E-17
6.200000E+03	3.843118E-16	8.972094E-18
6.210000E+03	3.852675E-16	6.963734E-18
6.220000E+03	3.868191E-16	4.990572E-18
6.230000E+03	3.890349E-16	3.349049E-18
6.240000E+03	3.919867E-16	3.015559E-18
6.250000E+03	3.956896E-16	4.411622E-18
6.260000E+03	4.000011E-16	6.467036E-18
6.270000E+03	4.047796E-16	8.690140E-18
6.280000E+03	4.099126E-16	1.094889E-17
6.290000E+03	4.152825E-16	1.319760E-17
6.300000E+03	4.207848E-16	1.541469E-17
6.310000E+03	4.263223E-16	1.758677E-17
6.320000E+03	4.318102E-16	1.970392E-17
6.330000E+03	4.371534E-16	2.175701E-17
6.340000E+03	4.422867E-16	2.373888E-17
6.350000E+03	4.471360E-16	2.564236E-17
6.360000E+03	4.516468E-16	2.746163E-17
6.370000E+03	4.557618E-16	2.919105E-17
6.380000E+03	4.594388E-16	3.082618E-17
6.390000E+03	4.626507E-16	3.236396E-17
6.400000E+03	4.653677E-16	3.380154E-17
6.410000E+03	4.675873E-16	3.513840E-17
6.420000E+03	4.692906E-16	3.637323E-17
6.430000E+03	4.704853E-16	3.750705E-17
6.440000E+03	4.711799E-16	3.854130E-17
6.450000E+03	4.713826E-16	3.947771E-17
6.460000E+03	4.711321E-16	4.032078E-17
6.470000E+03	4.704334E-16	4.107247E-17
6.480000E+03	4.693260E-16	4.173780E-17
6.490000E+03	4.678325E-16	4.232054E-17
6.500000E+03	4.659891E-16	4.282572E-17
6.510000E+03	4.638259E-16	4.325795E-17
6.520000E+03	4.613661E-16	4.362118E-17
6.530000E+03	4.586502E-16	4.392107E-17
6.540000E+03	4.556921E-16	4.416071E-17
6.550000E+03	4.525347E-16	4.434595E-17
6.560000E+03	4.491813E-16	4.447880E-17
6.570000E+03	4.456639E-16	4.456402E-17
6.580000E+03	4.420000E-16	4.460489E-17
6.590000E+03	4.382054E-16	4.460447E-17
6.600000E+03	4.342940E-16	4.456560E-17
6.610000E+03	4.302849E-16	4.449161E-17
6.620000E+03	4.261783E-16	4.438383E-17
6.630000E+03	4.220043E-16	4.424664E-17
6.640000E+03	4.177631E-16	4.408132E-17
6.650000E+03	4.134736E-16	4.389101E-17
6.660000E+03	4.091495E-16	4.367832E-17
6.670000E+03	4.048057E-16	4.344593E-17
6.680000E+03	4.004641E-16	4.319727E-17
6.690000E+03	3.961369E-16	4.293466E-17
6.700000E+03	3.918487E-16	4.266177E-17
6.710000E+03	3.876200E-16	4.238176E-17
6.720000E+03	3.834728E-16	4.209792E-17
6.730000E+03	3.794299E-16	4.181361E-17
6.740000E+03	3.755152E-16	4.153228E-17
6.750000E+03	3.717585E-16	4.125799E-17
6.760000E+03	3.681794E-16	4.099362E-17
6.770000E+03	3.648081E-16	4.074324E-17
6.780000E+03	3.616642E-16	4.050965E-17
6.790000E+03	3.587773E-16	4.029677E-17
6.800000E+03	3.561762E-16	4.010840E-17
6.810000E+03	3.538732E-16	3.994642E-17
6.820000E+03	3.518947E-16	3.981433E-17
6.830000E+03	3.502659E-16	3.971540E-17
6.840000E+03	3.489998E-16	3.965151E-17
6.850000E+03	3.481126E-16	3.962488E-17
6.860000E+03	3.476236E-16	3.963803E-17
6.870000E+03	3.475396E-16	3.969202E-17
6.880000E+03	3.478750E-16	3.978877E-17
6.890000E+03	3.486316E-16	3.992866E-17
6.900000E+03	3.498185E-16	4.011292E-17
6.910000E+03	3.514370E-16	4.034182E-17
6.920000E+03	3.534800E-16	4.061462E-17
6.930000E+03	3.559428E-16	4.093081E-17
6.940000E+03	3.588284E-16	4.129069E-17
6.950000E+03	3.621152E-16	4.169173E-17
6.960000E+03	3.657949E-16	4.213285E-17
6.970000E+03	3.698454E-16	4.261132E-17
6.980000E+03	3.742528E-16	4.312531E-17
6.990000E+03	3.789951E-16	4.367200E-17
7.000000E+03	3.840421E-16	4.424758E-17
7.010000E+03	3.893728E-16	4.484924E-17
7.020000E+03	3.949525E-16	4.547253E-17
7.030000E+03	4.007565E-16	4.611412E-17
7.040000E+03	4.067404E-16	4.676834E-17
7.050000E+03	4.128889E-16	4.743285E-17
7.060000E+03	4.191485E-16	4.810085E-17
7.070000E+03	4.254961E-16	4.876899E-17
7.080000E+03	4.318884E-16	4.943158E-17
7.090000E+03	4.382813E-16	5.008277E-17
7.100000E+03	4.446497E-16	5.071889E-17
7.110000E+03	4.509412E-16	5.133312E-17
7.120000E+03	4.571231E-16	5.192085E-17
7.130000E+03	4.631482E-16	5.247580E-17
7.140000E+03	4.689830E-16	5.299324E-17
7.150000E+03	4.745792E-16	5.346679E-17
7.160000E+03	4.799026E-16	5.389165E-17
7.170000E+03	4.848970E-16	5.426054E-17
7.180000E+03	4.895280E-16	5.456871E-17
7.190000E+03	4.937544E-16	5.481064E-17
7.200000E+03	4.975281E-16	5.498014E-17
7.210000E+03	5.008173E-16	5.507288E-17
7.220000E+03	5.035692E-16	5.508228E-17
7.230000E+03	5.057638E-16	5.500551E-17
7.240000E+03	5.073614E-16	5.483764E-17
7.250000E+03	5.083255E-16	5.457429E-17
7.260000E+03	5.086399E-16	5.421338E-17
7.270000E+03	5.082856E-16	5.375269E-17
7.280000E+03	5.072338E-16	5.318912E-17
7.290000E+03	5.054932E-16	5.252376E-17
7.300000E+03	5.030480E-16	5.175526E-17
7.310000E+03	4.999130E-16	5.088567E-17
7.320000E+03	4.961024E-16	4.991711E-17
7.330000E+03	4.916301E-16	4.885185E-17
7.340000E+03	4.865247E-16	4.769381E-17
7.350000E+03	4.808218E-16	4.644772E-17
7.360000E+03	4.745631E-16	4.511901E-17
7.370000E+03	4.677962E-16	4.371369E-17
7.380000E+03	4.605735E-16	4.223828E-17
7.390000E+03	4.529443E-16	4.069902E-17
7.400000E+03	4.449758E-16	3.910365E-17
7.410000E+03	4.367229E-16	3.745876E-17
7.420000E+03	4.282562E-16	3.577207E-17
7.430000E+03	4.196329E-16	3.404997E-17
7.440000E+03	4.109172E-16	3.229915E-17
7.450000E+03	4.021782E-16	3.052637E-17
7.460000E+03	3.934649E-16	2.873645E-17
7.470000E+03	3.848491E-16	2.693556E-17
7.480000E+03	3.763814E-16	2.512789E-17
7.490000E+03	3.681223E-16	2.331790E-17
7.500000E+03	3.601117E-16	2.150836E-17
7.510000E+03	3.524102E-16	1.970311E-17
7.520000E+03	3.450588E-16	1.790471E-17
7.530000E+03	3.381021E-16	1.611623E-17
7.540000E+03	3.315883E-16	1.434184E-17
7.550000E+03	3.255541E-16	1.258726E-17
7.560000E+03	3.200466E-16	1.086311E-17
7.570000E+03	3.151040E-16	9.188907E-18
7.580000E+03	3.107774E-16	7.604146E-18
7.590000E+03	3.071178E-16	6.190604E-18
7.600000E+03	3.041794E-16	5.115588E-18
7.610000E+03	3.020368E-16	4.656720E-18
7.620000E+03	3.007453E-16	5.011426E-18
7.630000E+03	3.002425E-16	5.995857E-18
7.640000E+03	3.004430E-16	7.318453E-18
7.650000E+03	3.012757E-16	8.799403E-18
7.660000E+03	3.026792E-16	1.035119E-17
7.670000E+03	3.045995E-16	1.193238E-17
7.680000E+03	3.069867E-16	1.352276E-17
7.690000E+03	3.097983E-16	1.511224E-17
7.700000E+03	3.129782E-16	1.669476E-17
7.710000E+03	3.164904E-16	1.826737E-17
7.720000E+03	3.202834E-16	1.982727E-17
7.730000E+03	3.243154E-16	2.137246E-17
7.740000E+03	3.285279E-16	2.289977E-17
7.750000E+03	3.328825E-16	2.440706E-17
7.760000E+03	3.373244E-16	2.589074E-17
