#wls	flux	fluxerr
1.600000E+03	2.686637E-18	2.031983E-18
1.640000E+03	2.607806E-18	1.965833E-18
1.680000E+03	2.531483E-18	1.901659E-18
1.720000E+03	2.457892E-18	1.839631E-18
1.760000E+03	2.387243E-18	1.779907E-18
1.800000E+03	2.320140E-18	1.722931E-18
1.840000E+03	2.256332E-18	1.668511E-18
1.880000E+03	2.195988E-18	1.616760E-18
1.920000E+03	2.139639E-18	1.568053E-18
1.960000E+03	2.087034E-18	1.522185E-18
2.000000E+03	2.038306E-18	1.479233E-18
2.040000E+03	1.993930E-18	1.439509E-18
2.080000E+03	1.953660E-18	1.402802E-18
2.120000E+03	1.917614E-18	1.369156E-18
2.160000E+03	1.886234E-18	1.338843E-18
2.200000E+03	1.859302E-18	1.311651E-18
2.240000E+03	1.836947E-18	1.287615E-18
2.280000E+03	1.819623E-18	1.266983E-18
2.320000E+03	1.807166E-18	1.249565E-18
2.360000E+03	1.800070E-18	1.235615E-18
2.400000E+03	1.798237E-18	1.224966E-18
2.440000E+03	1.801919E-18	1.217684E-18
2.480000E+03	1.811727E-18	1.214057E-18
2.520000E+03	1.827716E-18	1.213982E-18
2.560000E+03	1.850632E-18	1.217797E-18
2.600000E+03	1.880691E-18	1.225465E-18
2.640000E+03	1.918522E-18	1.237195E-18
2.680000E+03	1.965212E-18	1.253458E-18
2.720000E+03	2.021361E-18	1.274373E-18
2.760000E+03	2.088427E-18	1.300557E-18
2.800000E+03	2.167426E-18	1.332294E-18
2.840000E+03	2.259988E-18	1.370191E-18
2.880000E+03	2.368487E-18	1.415222E-18
2.920000E+03	2.494982E-18	1.468075E-18
2.960000E+03	2.642858E-18	1.530112E-18
3.000000E+03	2.815339E-18	1.602451E-18
3.010000E+03	2.862919E-18	1.622398E-18
3.020000E+03	2.911913E-18	1.642851E-18
3.030000E+03	2.963351E-18	1.664377E-18
3.040000E+03	3.016850E-18	1.686740E-18
3.050000E+03	3.072500E-18	1.709974E-18
3.060000E+03	3.130397E-18	1.734115E-18
3.070000E+03	3.190644E-18	1.759198E-18
3.080000E+03	3.253346E-18	1.785264E-18
3.090000E+03	3.318615E-18	1.812352E-18
3.100000E+03	3.386569E-18	1.840504E-18
3.110000E+03	3.457333E-18	1.869765E-18
3.120000E+03	3.531036E-18	1.900181E-18
3.130000E+03	3.607817E-18	1.931801E-18
3.140000E+03	3.687819E-18	1.964676E-18
3.150000E+03	3.771196E-18	1.998858E-18
3.160000E+03	3.858106E-18	2.034404E-18
3.170000E+03	3.949359E-18	2.071708E-18
3.180000E+03	4.043866E-18	2.110164E-18
3.190000E+03	4.142440E-18	2.150165E-18
3.200000E+03	4.245277E-18	2.191779E-18
3.210000E+03	4.352582E-18	2.235073E-18
3.220000E+03	4.465293E-18	2.280488E-18
3.230000E+03	4.582215E-18	2.327369E-18
3.240000E+03	4.704289E-18	2.376157E-18
3.250000E+03	4.832545E-18	2.427321E-18
3.260000E+03	4.965711E-18	2.480173E-18
3.270000E+03	5.104822E-18	2.535184E-18
3.280000E+03	5.251012E-18	2.592859E-18
3.290000E+03	5.402922E-18	2.652469E-18
3.300000E+03	5.561691E-18	2.714519E-18
3.310000E+03	5.728573E-18	2.779554E-18
3.320000E+03	5.902107E-18	2.846797E-18
3.330000E+03	6.084526E-18	2.917256E-18
3.340000E+03	6.274295E-18	2.990119E-18
3.350000E+03	6.473792E-18	3.066444E-18
3.360000E+03	6.681401E-18	3.145380E-18
3.370000E+03	6.899659E-18	3.228035E-18
3.380000E+03	7.126857E-18	3.313515E-18
3.390000E+03	7.365703E-18	3.402986E-18
3.400000E+03	7.615596E-18	3.496058E-18
3.410000E+03	7.875801E-18	3.592290E-18
3.420000E+03	8.149311E-18	3.692935E-18
3.430000E+03	8.434135E-18	3.796965E-18
3.440000E+03	8.733474E-18	3.905698E-18
3.450000E+03	9.046627E-18	4.018676E-18
3.460000E+03	9.372727E-18	4.135376E-18
3.470000E+03	9.715313E-18	4.257212E-18
3.480000E+03	1.007360E-17	4.383673E-18
3.490000E+03	1.044826E-17	4.514881E-18
3.500000E+03	1.083825E-17	4.650221E-18
3.510000E+03	1.124764E-17	4.791248E-18
3.520000E+03	1.167547E-17	4.937356E-18
3.530000E+03	1.212056E-17	5.087846E-18
3.540000E+03	1.258738E-17	5.244381E-18
3.550000E+03	1.307483E-17	5.406266E-18
3.560000E+03	1.358365E-17	5.573570E-18
3.570000E+03	1.411457E-17	5.746350E-18
3.580000E+03	1.466606E-17	5.923724E-18
3.590000E+03	1.524333E-17	6.107543E-18
3.600000E+03	1.584491E-17	6.296917E-18
3.610000E+03	1.647151E-17	6.491840E-18
3.620000E+03	1.712382E-17	6.692282E-18
3.630000E+03	1.780253E-17	6.898192E-18
3.640000E+03	1.850827E-17	7.109497E-18
3.650000E+03	1.923867E-17	7.324959E-18
3.660000E+03	2.000016E-17	7.546694E-18
3.670000E+03	2.079039E-17	7.773442E-18
3.680000E+03	2.160983E-17	8.005017E-18
3.690000E+03	2.245891E-17	8.241204E-18
3.700000E+03	2.333796E-17	8.481754E-18
3.710000E+03	2.424727E-17	8.726382E-18
3.720000E+03	2.518704E-17	8.974771E-18
3.730000E+03	2.615738E-17	9.226568E-18
3.740000E+03	2.715830E-17	9.481380E-18
3.750000E+03	2.818972E-17	9.738781E-18
3.760000E+03	2.925146E-17	9.998306E-18
3.770000E+03	3.034321E-17	1.025945E-17
3.780000E+03	3.146456E-17	1.052168E-17
3.790000E+03	3.260996E-17	1.078275E-17
3.800000E+03	3.378857E-17	1.104534E-17
3.810000E+03	3.499477E-17	1.130717E-17
3.820000E+03	3.622764E-17	1.156757E-17
3.830000E+03	3.748610E-17	1.182582E-17
3.840000E+03	3.876898E-17	1.208118E-17
3.850000E+03	4.007495E-17	1.233288E-17
3.860000E+03	4.140257E-17	1.258012E-17
3.870000E+03	4.275027E-17	1.282210E-17
3.880000E+03	4.411635E-17	1.305796E-17
3.890000E+03	4.549903E-17	1.328686E-17
3.900000E+03	4.689642E-17	1.350792E-17
3.910000E+03	4.830652E-17	1.372027E-17
3.920000E+03	4.972728E-17	1.392301E-17
3.930000E+03	5.115658E-17	1.411527E-17
3.940000E+03	5.259224E-17	1.429614E-17
3.950000E+03	5.403204E-17	1.446474E-17
3.960000E+03	5.547376E-17	1.462019E-17
3.970000E+03	5.691517E-17	1.476162E-17
3.980000E+03	5.835405E-17	1.488817E-17
3.990000E+03	5.977920E-17	1.499673E-17
4.000000E+03	6.120628E-17	1.509099E-17
4.010000E+03	6.262442E-17	1.516791E-17
4.020000E+03	6.403163E-17	1.522670E-17
4.030000E+03	6.542597E-17	1.526661E-17
4.040000E+03	6.680567E-17	1.528691E-17
4.050000E+03	6.816903E-17	1.528691E-17
4.060000E+03	6.951449E-17	1.526594E-17
4.070000E+03	7.084064E-17	1.522337E-17
4.080000E+03	7.213541E-17	1.515634E-17
4.090000E+03	7.341904E-17	1.506882E-17
4.100000E+03	7.467997E-17	1.495800E-17
4.110000E+03	7.591737E-17	1.482339E-17
4.120000E+03	7.713055E-17	1.466453E-17
4.130000E+03	7.831900E-17	1.448099E-17
4.140000E+03	7.947050E-17	1.427027E-17
4.150000E+03	8.060829E-17	1.403630E-17
4.160000E+03	8.172060E-17	1.377662E-17
4.170000E+03	8.280745E-17	1.349099E-17
4.180000E+03	8.385654E-17	1.317722E-17
4.190000E+03	8.489284E-17	1.283914E-17
4.200000E+03	8.590439E-17	1.247465E-17
4.210000E+03	8.687879E-17	1.208194E-17
4.220000E+03	8.784212E-17	1.166473E-17
4.230000E+03	8.878225E-17	1.122135E-17
4.240000E+03	8.968662E-17	1.075052E-17
4.250000E+03	9.058228E-17	1.025599E-17
4.260000E+03	9.145688E-17	9.736807E-18
4.270000E+03	9.229767E-17	9.192657E-18
4.280000E+03	9.313254E-17	8.627769E-18
4.290000E+03	9.393511E-17	8.041574E-18
4.300000E+03	9.473377E-17	7.439426E-18
4.310000E+03	9.550176E-17	6.823247E-18
4.320000E+03	9.626792E-17	6.201276E-18
4.330000E+03	9.700510E-17	5.580821E-18
4.340000E+03	9.774251E-17	4.977713E-18
4.350000E+03	9.845256E-17	4.412266E-18
4.360000E+03	9.916476E-17	3.919386E-18
4.370000E+03	9.985101E-17	3.546030E-18
4.380000E+03	1.005263E-16	3.350558E-18
4.390000E+03	1.012056E-16	3.378023E-18
4.400000E+03	1.018596E-16	3.629680E-18
4.410000E+03	1.025024E-16	4.065906E-18
4.420000E+03	1.031482E-16	4.633588E-18
4.430000E+03	1.037661E-16	5.285965E-18
4.440000E+03	1.043699E-16	5.991460E-18
4.450000E+03	1.049737E-16	6.729631E-18
4.460000E+03	1.055459E-16	7.484410E-18
4.470000E+03	1.061003E-16	8.247005E-18
4.480000E+03	1.066355E-16	9.010636E-18
4.490000E+03	1.071502E-16	9.770371E-18
4.500000E+03	1.076431E-16	1.052250E-17
4.510000E+03	1.081130E-16	1.126413E-17
4.520000E+03	1.085585E-16	1.199296E-17
4.530000E+03	1.089784E-16	1.270709E-17
4.540000E+03	1.093717E-16	1.340496E-17
4.550000E+03	1.097373E-16	1.408523E-17
4.560000E+03	1.100744E-16	1.474675E-17
4.570000E+03	1.103821E-16	1.538856E-17
4.580000E+03	1.106598E-16	1.600981E-17
4.590000E+03	1.109072E-16	1.660981E-17
4.600000E+03	1.111239E-16	1.718795E-17
4.610000E+03	1.112939E-16	1.774122E-17
4.620000E+03	1.114492E-16	1.827425E-17
4.630000E+03	1.115743E-16	1.878430E-17
4.640000E+03	1.116696E-16	1.927120E-17
4.650000E+03	1.117200E-16	1.973205E-17
4.660000E+03	1.117584E-16	2.017246E-17
4.670000E+03	1.117701E-16	2.058976E-17
4.680000E+03	1.117403E-16	2.098117E-17
4.690000E+03	1.117027E-16	2.135291E-17
4.700000E+03	1.116271E-16	2.169930E-17
4.710000E+03	1.115471E-16	2.202691E-17
4.720000E+03	1.114331E-16	2.233001E-17
4.730000E+03	1.113189E-16	2.261548E-17
4.740000E+03	1.111750E-16	2.287754E-17
4.750000E+03	1.110194E-16	2.312001E-17
4.760000E+03	1.108703E-16	2.334688E-17
4.770000E+03	1.106985E-16	2.355228E-17
4.780000E+03	1.105219E-16	2.374020E-17
4.790000E+03	1.103584E-16	2.391475E-17
4.800000E+03	1.101790E-16	2.406990E-17
4.810000E+03	1.100013E-16	2.420972E-17
4.820000E+03	1.098273E-16	2.433490E-17
4.830000E+03	1.096590E-16	2.444610E-17
4.840000E+03	1.094980E-16	2.454393E-17
4.850000E+03	1.093460E-16	2.462899E-17
4.860000E+03	1.092043E-16	2.470180E-17
4.870000E+03	1.090742E-16	2.476286E-17
4.880000E+03	1.089570E-16	2.481259E-17
4.890000E+03	1.088535E-16	2.485139E-17
4.900000E+03	1.087644E-16	2.487956E-17
4.910000E+03	1.086906E-16	2.489737E-17
4.920000E+03	1.086170E-16	2.490153E-17
4.930000E+03	1.085747E-16	2.489917E-17
4.940000E+03	1.085485E-16	2.488690E-17
4.950000E+03	1.085384E-16	2.486474E-17
4.960000E+03	1.085291E-16	2.482919E-17
4.970000E+03	1.085509E-16	2.478716E-17
4.980000E+03	1.085730E-16	2.473156E-17
4.990000E+03	1.086254E-16	2.466918E-17
5.000000E+03	1.086925E-16	2.459633E-17
5.010000E+03	1.087583E-16	2.450934E-17
5.020000E+03	1.088374E-16	2.441138E-17
5.030000E+03	1.089444E-16	2.430554E-17
5.040000E+03	1.090479E-16	2.418465E-17
5.050000E+03	1.091778E-16	2.405513E-17
5.060000E+03	1.093025E-16	2.390983E-17
5.070000E+03	1.094364E-16	2.375172E-17
5.080000E+03	1.095785E-16	2.358035E-17
5.090000E+03	1.097280E-16	2.339527E-17
5.100000E+03	1.098991E-16	2.319925E-17
5.110000E+03	1.100601E-16	2.298531E-17
5.120000E+03	1.102254E-16	2.275622E-17
5.130000E+03	1.103940E-16	2.251150E-17
5.140000E+03	1.105647E-16	2.225064E-17
5.150000E+03	1.107365E-16	2.197315E-17
5.160000E+03	1.109085E-16	2.167854E-17
5.170000E+03	1.110795E-16	2.136634E-17
5.180000E+03	1.112330E-16	2.103314E-17
5.190000E+03	1.113991E-16	2.068440E-17
5.200000E+03	1.115613E-16	2.031670E-17
5.210000E+03	1.117186E-16	1.992964E-17
5.220000E+03	1.118547E-16	1.952014E-17
5.230000E+03	1.119997E-16	1.909331E-17
5.240000E+03	1.121374E-16	1.864608E-17
5.250000E+03	1.122514E-16	1.817567E-17
5.260000E+03	1.123722E-16	1.768697E-17
5.270000E+03	1.124681E-16	1.717484E-17
5.280000E+03	1.125697E-16	1.664402E-17
5.290000E+03	1.126454E-16	1.608979E-17
5.300000E+03	1.127259E-16	1.551672E-17
5.310000E+03	1.127797E-16	1.492058E-17
5.320000E+03	1.128377E-16	1.430581E-17
5.330000E+03	1.128685E-16	1.366872E-17
5.340000E+03	1.128875E-16	1.301190E-17
5.350000E+03	1.128944E-16	1.233602E-17
5.360000E+03	1.129047E-16	1.164363E-17
5.370000E+03	1.128870E-16	1.093264E-17
5.380000E+03	1.128566E-16	1.020639E-17
5.390000E+03	1.128134E-16	9.467078E-18
5.400000E+03	1.127571E-16	8.717697E-18
5.410000E+03	1.126872E-16	7.962397E-18
5.420000E+03	1.126034E-16	7.207064E-18
5.430000E+03	1.125053E-16	6.460256E-18
5.440000E+03	1.123923E-16	5.734737E-18
5.450000E+03	1.122639E-16	5.049948E-18
5.460000E+03	1.121195E-16	4.435631E-18
5.470000E+03	1.119586E-16	3.935666E-18
5.480000E+03	1.117655E-16	3.606600E-18
5.490000E+03	1.115706E-16	3.503135E-18
5.500000E+03	1.113586E-16	3.642464E-18
5.510000E+03	1.111147E-16	3.990666E-18
5.520000E+03	1.108703E-16	4.488688E-18
5.530000E+03	1.106111E-16	5.079845E-18
5.540000E+03	1.103230E-16	5.722404E-18
5.550000E+03	1.100376E-16	6.390738E-18
5.560000E+03	1.097260E-16	7.065659E-18
5.570000E+03	1.094197E-16	7.737615E-18
5.580000E+03	1.090900E-16	8.397031E-18
5.590000E+03	1.087684E-16	9.041041E-18
5.600000E+03	1.084267E-16	9.663794E-18
5.610000E+03	1.080814E-16	1.026408E-17
5.620000E+03	1.077488E-16	1.084180E-17
5.630000E+03	1.074012E-16	1.139300E-17
5.640000E+03	1.070550E-16	1.191845E-17
5.650000E+03	1.067120E-16	1.241782E-17
5.660000E+03	1.063886E-16	1.289275E-17
5.670000E+03	1.060573E-16	1.333985E-17
5.680000E+03	1.057345E-16	1.376101E-17
5.690000E+03	1.054217E-16	1.415655E-17
5.700000E+03	1.051208E-16	1.452683E-17
5.710000E+03	1.048331E-16	1.487230E-17
5.720000E+03	1.045602E-16	1.519341E-17
5.730000E+03	1.043033E-16	1.549064E-17
5.740000E+03	1.040636E-16	1.576445E-17
5.750000E+03	1.038421E-16	1.601532E-17
5.760000E+03	1.036396E-16	1.624367E-17
5.770000E+03	1.034568E-16	1.644990E-17
5.780000E+03	1.032943E-16	1.663436E-17
5.790000E+03	1.031381E-16	1.679506E-17
5.800000E+03	1.030167E-16	1.693684E-17
5.810000E+03	1.029159E-16	1.705761E-17
5.820000E+03	1.028215E-16	1.715517E-17
5.830000E+03	1.027613E-16	1.723429E-17
5.840000E+03	1.027208E-16	1.729266E-17
5.850000E+03	1.026854E-16	1.732791E-17
5.860000E+03	1.026827E-16	1.734470E-17
5.870000E+03	1.026979E-16	1.734058E-17
5.880000E+03	1.027164E-16	1.731304E-17
5.890000E+03	1.027657E-16	1.726666E-17
5.900000E+03	1.028171E-16	1.719654E-17
5.910000E+03	1.028983E-16	1.710719E-17
5.920000E+03	1.029807E-16	1.699373E-17
5.930000E+03	1.030783E-16	1.685830E-17
5.940000E+03	1.032050E-16	1.670298E-17
5.950000E+03	1.033327E-16	1.652298E-17
5.960000E+03	1.034758E-16	1.632039E-17
5.970000E+03	1.036490E-16	1.609721E-17
5.980000E+03	1.038246E-16	1.584881E-17
5.990000E+03	1.040176E-16	1.557722E-17
6.000000E+03	1.042291E-16	1.528220E-17
6.010000E+03	1.044745E-16	1.496559E-17
6.020000E+03	1.047266E-16	1.462298E-17
6.030000E+03	1.050012E-16	1.425619E-17
6.040000E+03	1.052999E-16	1.386491E-17
6.050000E+03	1.056241E-16	1.344879E-17
6.060000E+03	1.059756E-16	1.300741E-17
6.070000E+03	1.063559E-16	1.254033E-17
6.080000E+03	1.067666E-16	1.204705E-17
6.090000E+03	1.072089E-16	1.152702E-17
6.100000E+03	1.076841E-16	1.097963E-17
6.110000E+03	1.081932E-16	1.040427E-17
6.120000E+03	1.087367E-16	9.800323E-18
6.130000E+03	1.093151E-16	9.167207E-18
6.140000E+03	1.099284E-16	8.504452E-18
6.150000E+03	1.105760E-16	7.811806E-18
6.160000E+03	1.112419E-16	7.088447E-18
6.170000E+03	1.119551E-16	6.337284E-18
6.180000E+03	1.126984E-16	5.559434E-18
6.190000E+03	1.134694E-16	4.759632E-18
6.200000E+03	1.142496E-16	3.947369E-18
6.210000E+03	1.150663E-16	3.146097E-18
6.220000E+03	1.159002E-16	2.408890E-18
6.230000E+03	1.167305E-16	1.870719E-18
6.240000E+03	1.175840E-16	1.780552E-18
6.250000E+03	1.184394E-16	2.221468E-18
6.260000E+03	1.192744E-16	2.973127E-18
6.270000E+03	1.201153E-16	3.857803E-18
6.280000E+03	1.209230E-16	4.797926E-18
6.290000E+03	1.217237E-16	5.762225E-18
6.300000E+03	1.224943E-16	6.734390E-18
6.310000E+03	1.232111E-16	7.704426E-18
6.320000E+03	1.239010E-16	8.668478E-18
6.330000E+03	1.245236E-16	9.620018E-18
6.340000E+03	1.250896E-16	1.055664E-17
6.350000E+03	1.256103E-16	1.147693E-17
6.360000E+03	1.260459E-16	1.237518E-17
6.370000E+03	1.264260E-16	1.325220E-17
6.380000E+03	1.267117E-16	1.410220E-17
6.390000E+03	1.269166E-16	1.492476E-17
6.400000E+03	1.270554E-16	1.572009E-17
6.410000E+03	1.270912E-16	1.648224E-17
6.420000E+03	1.270399E-16	1.721170E-17
6.430000E+03	1.269012E-16	1.790714E-17
6.440000E+03	1.266926E-16	1.856998E-17
6.450000E+03	1.263805E-16	1.919432E-17
6.460000E+03	1.259840E-16	1.978200E-17
6.470000E+03	1.255056E-16	2.033260E-17
6.480000E+03	1.249485E-16	2.084598E-17
6.490000E+03	1.243334E-16	2.132514E-17
6.500000E+03	1.236304E-16	2.176462E-17
6.510000E+03	1.228614E-16	2.216780E-17
6.520000E+03	1.220313E-16	2.253544E-17
6.530000E+03	1.211455E-16	2.286847E-17
6.540000E+03	1.202097E-16	2.316798E-17
6.550000E+03	1.192297E-16	2.343525E-17
6.560000E+03	1.182113E-16	2.367165E-17
6.570000E+03	1.171605E-16	2.387869E-17
6.580000E+03	1.160832E-16	2.405797E-17
6.590000E+03	1.149852E-16	2.421116E-17
6.600000E+03	1.138724E-16	2.433998E-17
6.610000E+03	1.127503E-16	2.444619E-17
6.620000E+03	1.116243E-16	2.453158E-17
6.630000E+03	1.104997E-16	2.459793E-17
6.640000E+03	1.093816E-16	2.464701E-17
6.650000E+03	1.082746E-16	2.468058E-17
6.660000E+03	1.071686E-16	2.469697E-17
6.670000E+03	1.060974E-16	2.470464E-17
6.680000E+03	1.050501E-16	2.470183E-17
6.690000E+03	1.040304E-16	2.469011E-17
6.700000E+03	1.030419E-16	2.467098E-17
6.710000E+03	1.020735E-16	2.464249E-17
6.720000E+03	1.011566E-16	2.461278E-17
6.730000E+03	1.002794E-16	2.457976E-17
6.740000E+03	9.944457E-17	2.454464E-17
6.750000E+03	9.864062E-17	2.450516E-17
6.760000E+03	9.789677E-17	2.446914E-17
6.770000E+03	9.720107E-17	2.443417E-17
6.780000E+03	9.654177E-17	2.439777E-17
6.790000E+03	9.594685E-17	2.436749E-17
6.800000E+03	9.540407E-17	2.434068E-17
6.810000E+03	9.490129E-17	2.431465E-17
6.820000E+03	9.446547E-17	2.429666E-17
6.830000E+03	9.408408E-17	2.428387E-17
6.840000E+03	9.374461E-17	2.427333E-17
6.850000E+03	9.347318E-17	2.427208E-17
6.860000E+03	9.324408E-17	2.427367E-17
6.870000E+03	9.308297E-17	2.428500E-17
6.880000E+03	9.296391E-17	2.429946E-17
6.890000E+03	9.291219E-17	2.432379E-17
6.900000E+03	9.290160E-17	2.435123E-17
6.910000E+03	9.295707E-17	2.438838E-17
6.920000E+03	9.305210E-17	2.442831E-17
6.930000E+03	9.321132E-17	2.447749E-17
6.940000E+03	9.340783E-17	2.452882E-17
6.950000E+03	9.365309E-17	2.458523E-17
6.960000E+03	9.395854E-17	2.464964E-17
6.970000E+03	9.429653E-17	2.471465E-17
6.980000E+03	9.467811E-17	2.478302E-17
6.990000E+03	9.511433E-17	2.485744E-17
7.000000E+03	9.557669E-17	2.493024E-17
7.010000E+03	9.607579E-17	2.500398E-17
7.020000E+03	9.662235E-17	2.508116E-17
7.030000E+03	9.718686E-17	2.515385E-17
7.040000E+03	9.777954E-17	2.522440E-17
7.050000E+03	9.839716E-17	2.529167E-17
7.060000E+03	9.905000E-17	2.535795E-17
7.070000E+03	9.970709E-17	2.541495E-17
7.080000E+03	1.003783E-16	2.546488E-17
7.090000E+03	1.010596E-16	2.550635E-17
7.100000E+03	1.017468E-16	2.553797E-17
7.110000E+03	1.024501E-16	2.556187E-17
7.120000E+03	1.031365E-16	2.556951E-17
7.130000E+03	1.038159E-16	2.556298E-17
7.140000E+03	1.044835E-16	2.554084E-17
7.150000E+03	1.051349E-16	2.550165E-17
7.160000E+03	1.057655E-16	2.544401E-17
7.170000E+03	1.063705E-16	2.536655E-17
7.180000E+03	1.069456E-16	2.526797E-17
7.190000E+03	1.074863E-16	2.514704E-17
7.200000E+03	1.079882E-16	2.500258E-17
7.210000E+03	1.084474E-16	2.483355E-17
7.220000E+03	1.088599E-16	2.463900E-17
7.230000E+03	1.092222E-16	2.441809E-17
7.240000E+03	1.095309E-16	2.417013E-17
7.250000E+03	1.097831E-16	2.389458E-17
7.260000E+03	1.099763E-16	2.359102E-17
7.270000E+03	1.101083E-16	2.325922E-17
7.280000E+03	1.101775E-16	2.289910E-17
7.290000E+03	1.101828E-16	2.251074E-17
7.300000E+03	1.101234E-16	2.209439E-17
7.310000E+03	1.099838E-16	2.164744E-17
7.320000E+03	1.097950E-16	2.117655E-17
7.330000E+03	1.095427E-16	2.067937E-17
7.340000E+03	1.092280E-16	2.015674E-17
7.350000E+03	1.088530E-16	1.960964E-17
7.360000E+03	1.084048E-16	1.903652E-17
7.370000E+03	1.079165E-16	1.844397E-17
7.380000E+03	1.073760E-16	1.783053E-17
7.390000E+03	1.067720E-16	1.719515E-17
7.400000E+03	1.061382E-16	1.654413E-17
7.410000E+03	1.054638E-16	1.587643E-17
7.420000E+03	1.047531E-16	1.519351E-17
7.430000E+03	1.039960E-16	1.449483E-17
7.440000E+03	1.032264E-16	1.378606E-17
7.450000E+03	1.024200E-16	1.306472E-17
7.460000E+03	1.016102E-16	1.233609E-17
7.470000E+03	1.007873E-16	1.159978E-17
7.480000E+03	9.994191E-17	1.085583E-17
7.490000E+03	9.910662E-17	1.010906E-17
7.500000E+03	9.825787E-17	9.358337E-18
7.510000E+03	9.742749E-17	8.608449E-18
7.520000E+03	9.659196E-17	7.859349E-18
7.530000E+03	9.578220E-17	7.116493E-18
7.540000E+03	9.497461E-17	6.382011E-18
7.550000E+03	9.419911E-17	5.663829E-18
7.560000E+03	9.343190E-17	4.969276E-18
7.570000E+03	9.268880E-17	4.313320E-18
7.580000E+03	9.198486E-17	3.718985E-18
7.590000E+03	9.129581E-17	3.220727E-18
7.600000E+03	9.064880E-17	2.870732E-18
7.610000E+03	9.001905E-17	2.723821E-18
7.620000E+03	8.941967E-17	2.806646E-18
7.630000E+03	8.885018E-17	3.091038E-18
7.640000E+03	8.832200E-17	3.517639E-18
7.650000E+03	8.780876E-17	4.029908E-18
7.660000E+03	8.732133E-17	4.589739E-18
7.670000E+03	8.687014E-17	5.173875E-18
7.680000E+03	8.642866E-17	5.766353E-18
7.690000E+03	8.600716E-17	6.358860E-18
7.700000E+03	8.560357E-17	6.945769E-18
7.710000E+03	8.521581E-17	7.523466E-18
7.720000E+03	8.484182E-17	8.089582E-18
7.730000E+03	8.449156E-17	8.643758E-18
7.740000E+03	8.413917E-17	9.182563E-18
7.750000E+03	8.379483E-17	9.706420E-18
7.760000E+03	8.345686E-17	1.021485E-17
