#wls	flux	fluxerr
1.600000E+03	2.357443E-18	1.795809E-18
1.640000E+03	2.296526E-18	1.744541E-18
1.680000E+03	2.238029E-18	1.695136E-18
1.720000E+03	2.181708E-18	1.647407E-18
1.760000E+03	2.127726E-18	1.601475E-18
1.800000E+03	2.076242E-18	1.557455E-18
1.840000E+03	2.027763E-18	1.515719E-18
1.880000E+03	1.981705E-18	1.475820E-18
1.920000E+03	1.938914E-18	1.438377E-18
1.960000E+03	1.899160E-18	1.403202E-18
2.000000E+03	1.862571E-18	1.370368E-18
2.040000E+03	1.829592E-18	1.340181E-18
2.080000E+03	1.799694E-18	1.312225E-18
2.120000E+03	1.773642E-18	1.287027E-18
2.160000E+03	1.751245E-18	1.264409E-18
2.200000E+03	1.732942E-18	1.244647E-18
2.240000E+03	1.718273E-18	1.227360E-18
2.280000E+03	1.708008E-18	1.213045E-18
2.320000E+03	1.702031E-18	1.201557E-18
2.360000E+03	1.700553E-18	1.192975E-18
2.400000E+03	1.703822E-18	1.187393E-18
2.440000E+03	1.712419E-18	1.185128E-18
2.480000E+03	1.726386E-18	1.186103E-18
2.520000E+03	1.746120E-18	1.190476E-18
2.560000E+03	1.772089E-18	1.198438E-18
2.600000E+03	1.805160E-18	1.210424E-18
2.640000E+03	1.845376E-18	1.226292E-18
2.680000E+03	1.894153E-18	1.246792E-18
2.720000E+03	1.952457E-18	1.272330E-18
2.760000E+03	2.020750E-18	1.302950E-18
2.800000E+03	2.101063E-18	1.339666E-18
2.840000E+03	2.194303E-18	1.382710E-18
2.880000E+03	2.303538E-18	1.433613E-18
2.920000E+03	2.429979E-18	1.492649E-18
2.960000E+03	2.576815E-18	1.561229E-18
3.000000E+03	2.747903E-18	1.641032E-18
3.010000E+03	2.794863E-18	1.662886E-18
3.020000E+03	2.843638E-18	1.685558E-18
3.030000E+03	2.894302E-18	1.709078E-18
3.040000E+03	2.946935E-18	1.733477E-18
3.050000E+03	3.001620E-18	1.758789E-18
3.060000E+03	3.058442E-18	1.785048E-18
3.070000E+03	3.117494E-18	1.812290E-18
3.080000E+03	3.178870E-18	1.840552E-18
3.090000E+03	3.242670E-18	1.869873E-18
3.100000E+03	3.308999E-18	1.900294E-18
3.110000E+03	3.377967E-18	1.931857E-18
3.120000E+03	3.449688E-18	1.964606E-18
3.130000E+03	3.524284E-18	1.998588E-18
3.140000E+03	3.601880E-18	2.033848E-18
3.150000E+03	3.682608E-18	2.070438E-18
3.160000E+03	3.767240E-18	2.108763E-18
3.170000E+03	3.854669E-18	2.148174E-18
3.180000E+03	3.945665E-18	2.189075E-18
3.190000E+03	4.040388E-18	2.231523E-18
3.200000E+03	4.139002E-18	2.275578E-18
3.210000E+03	4.241683E-18	2.321302E-18
3.220000E+03	4.349340E-18	2.369156E-18
3.230000E+03	4.460724E-18	2.418421E-18
3.240000E+03	4.576743E-18	2.469553E-18
3.250000E+03	4.697606E-18	2.522623E-18
3.260000E+03	4.823528E-18	2.577705E-18
3.270000E+03	4.955564E-18	2.635315E-18
3.280000E+03	5.092314E-18	2.694657E-18
3.290000E+03	5.234829E-18	2.756243E-18
3.300000E+03	5.383367E-18	2.820154E-18
3.310000E+03	5.539117E-18	2.886955E-18
3.320000E+03	5.700533E-18	2.955781E-18
3.330000E+03	5.868803E-18	3.027189E-18
3.340000E+03	6.044225E-18	3.101268E-18
3.350000E+03	6.228146E-18	3.178639E-18
3.360000E+03	6.418847E-18	3.258348E-18
3.370000E+03	6.617666E-18	3.341005E-18
3.380000E+03	6.826085E-18	3.427275E-18
3.390000E+03	7.042227E-18	3.516128E-18
3.400000E+03	7.267560E-18	3.608216E-18
3.410000E+03	7.503710E-18	3.704249E-18
3.420000E+03	7.748620E-18	3.803109E-18
3.430000E+03	8.003899E-18	3.905490E-18
3.440000E+03	8.271332E-18	4.012152E-18
3.450000E+03	8.548649E-18	4.121876E-18
3.460000E+03	8.837611E-18	4.235399E-18
3.470000E+03	9.140175E-18	4.353529E-18
3.480000E+03	9.453823E-18	4.474931E-18
3.490000E+03	9.782096E-18	4.601146E-18
3.500000E+03	1.012229E-17	4.730751E-18
3.510000E+03	1.047643E-17	4.864558E-18
3.520000E+03	1.084680E-17	5.003455E-18
3.530000E+03	1.123037E-17	5.145874E-18
3.540000E+03	1.163126E-17	5.293538E-18
3.550000E+03	1.204620E-17	5.444769E-18
3.560000E+03	1.247958E-17	5.601367E-18
3.570000E+03	1.292784E-17	5.761536E-18
3.580000E+03	1.339346E-17	5.926179E-18
3.590000E+03	1.387918E-17	6.096292E-18
3.600000E+03	1.438098E-17	6.269881E-18
3.610000E+03	1.490396E-17	6.448945E-18
3.620000E+03	1.544375E-17	6.631343E-18
3.630000E+03	1.600574E-17	6.819154E-18
3.640000E+03	1.658517E-17	7.010086E-18
3.650000E+03	1.718777E-17	7.206296E-18
3.660000E+03	1.780834E-17	7.405328E-18
3.670000E+03	1.845292E-17	7.609423E-18
3.680000E+03	1.911586E-17	7.815948E-18
3.690000E+03	1.980355E-17	8.027226E-18
3.700000E+03	2.050981E-17	8.240445E-18
3.710000E+03	2.123793E-17	8.456627E-18
3.720000E+03	2.199158E-17	8.676909E-18
3.730000E+03	2.276376E-17	8.898189E-18
3.740000E+03	2.356175E-17	9.122997E-18
3.750000E+03	2.437795E-17	9.348030E-18
3.760000E+03	2.522002E-17	9.575903E-18
3.770000E+03	2.607970E-17	9.803112E-18
3.780000E+03	2.696507E-17	1.003235E-17
3.790000E+03	2.786717E-17	1.025993E-17
3.800000E+03	2.879449E-17	1.048861E-17
3.810000E+03	2.973736E-17	1.071449E-17
3.820000E+03	3.070472E-17	1.094045E-17
3.830000E+03	3.168614E-17	1.116237E-17
3.840000E+03	3.269101E-17	1.138322E-17
3.850000E+03	3.370813E-17	1.159870E-17
3.860000E+03	3.474740E-17	1.181186E-17
3.870000E+03	3.579681E-17	1.201822E-17
3.880000E+03	3.686679E-17	1.222092E-17
3.890000E+03	3.794452E-17	1.241532E-17
3.900000E+03	3.904097E-17	1.260466E-17
3.910000E+03	4.014253E-17	1.278414E-17
3.920000E+03	4.125412E-17	1.295500E-17
3.930000E+03	4.238126E-17	1.311858E-17
3.940000E+03	4.350919E-17	1.326989E-17
3.950000E+03	4.465037E-17	1.341242E-17
3.960000E+03	4.578925E-17	1.354107E-17
3.970000E+03	4.693899E-17	1.365941E-17
3.980000E+03	4.808327E-17	1.376228E-17
3.990000E+03	4.923595E-17	1.385333E-17
4.000000E+03	5.038001E-17	1.392736E-17
4.010000E+03	5.153004E-17	1.398809E-17
4.020000E+03	5.266831E-17	1.403032E-17
4.030000E+03	5.380158E-17	1.405558E-17
4.040000E+03	5.493734E-17	1.406544E-17
4.050000E+03	5.605688E-17	1.405474E-17
4.060000E+03	5.717678E-17	1.402734E-17
4.070000E+03	5.827773E-17	1.397813E-17
4.080000E+03	5.936761E-17	1.390880E-17
4.090000E+03	6.045503E-17	1.382101E-17
4.100000E+03	6.151989E-17	1.370980E-17
4.110000E+03	6.257077E-17	1.357695E-17
4.120000E+03	6.361699E-17	1.342414E-17
4.130000E+03	6.463769E-17	1.324667E-17
4.140000E+03	6.565264E-17	1.304842E-17
4.150000E+03	6.664052E-17	1.282489E-17
4.160000E+03	6.761112E-17	1.257793E-17
4.170000E+03	6.857495E-17	1.230926E-17
4.180000E+03	6.951001E-17	1.201477E-17
4.190000E+03	7.042682E-17	1.169634E-17
4.200000E+03	7.132522E-17	1.135393E-17
4.210000E+03	7.221658E-17	1.098930E-17
4.220000E+03	7.307811E-17	1.059903E-17
4.230000E+03	7.392121E-17	1.018512E-17
4.240000E+03	7.475787E-17	9.749452E-18
4.250000E+03	7.556471E-17	9.289346E-18
4.260000E+03	7.635373E-17	8.807098E-18
4.270000E+03	7.712525E-17	8.303652E-18
4.280000E+03	7.789197E-17	7.781539E-18
4.290000E+03	7.862976E-17	7.240015E-18
4.300000E+03	7.935129E-17	6.682932E-18
4.310000E+03	8.005702E-17	6.113917E-18
4.320000E+03	8.074744E-17	5.538289E-18
4.330000E+03	8.142303E-17	4.964042E-18
4.340000E+03	8.209720E-17	4.404212E-18
4.350000E+03	8.274460E-17	3.876757E-18
4.360000E+03	8.337847E-17	3.413007E-18
4.370000E+03	8.399914E-17	3.058415E-18
4.380000E+03	8.460685E-17	2.870000E-18
4.390000E+03	8.520174E-17	2.894472E-18
4.400000E+03	8.578381E-17	3.133976E-18
4.410000E+03	8.635290E-17	3.546313E-18
4.420000E+03	8.690875E-17	4.078400E-18
4.430000E+03	8.745099E-17	4.687366E-18
4.440000E+03	8.797918E-17	5.343968E-18
4.450000E+03	8.849280E-17	6.029218E-18
4.460000E+03	8.900524E-17	6.731769E-18
4.470000E+03	8.947405E-17	7.440120E-18
4.480000E+03	8.994046E-17	8.151620E-18
4.490000E+03	9.038990E-17	8.860993E-18
4.500000E+03	9.082175E-17	9.565062E-18
4.510000E+03	9.123542E-17	1.026135E-17
4.520000E+03	9.163035E-17	1.094786E-17
4.530000E+03	9.200601E-17	1.162297E-17
4.540000E+03	9.236195E-17	1.228528E-17
4.550000E+03	9.269776E-17	1.293364E-17
4.560000E+03	9.301311E-17	1.356701E-17
4.570000E+03	9.330775E-17	1.418452E-17
4.580000E+03	9.356692E-17	1.478310E-17
4.590000E+03	9.381967E-17	1.536659E-17
4.600000E+03	9.405147E-17	1.593220E-17
4.610000E+03	9.426242E-17	1.647944E-17
4.620000E+03	9.445272E-17	1.700788E-17
4.630000E+03	9.460795E-17	1.751447E-17
4.640000E+03	9.475793E-17	1.800430E-17
4.650000E+03	9.488843E-17	1.847452E-17
4.660000E+03	9.498529E-17	1.892205E-17
4.670000E+03	9.507868E-17	1.935261E-17
4.680000E+03	9.515460E-17	1.976333E-17
4.690000E+03	9.519910E-17	2.015109E-17
4.700000E+03	9.524263E-17	2.052220E-17
4.710000E+03	9.527138E-17	2.087371E-17
4.720000E+03	9.527158E-17	2.120252E-17
4.730000E+03	9.527384E-17	2.151537E-17
4.740000E+03	9.524973E-17	2.180591E-17
4.750000E+03	9.522989E-17	2.208113E-17
4.760000E+03	9.518596E-17	2.233456E-17
4.770000E+03	9.514857E-17	2.257340E-17
4.780000E+03	9.508942E-17	2.279108E-17
4.790000E+03	9.503906E-17	2.299497E-17
4.800000E+03	9.496923E-17	2.317837E-17
4.810000E+03	9.491039E-17	2.334880E-17
4.820000E+03	9.483425E-17	2.349944E-17
4.830000E+03	9.477113E-17	2.363791E-17
4.840000E+03	9.469274E-17	2.375728E-17
4.850000E+03	9.461464E-17	2.386154E-17
4.860000E+03	9.455225E-17	2.395473E-17
4.870000E+03	9.447721E-17	2.402977E-17
4.880000E+03	9.440483E-17	2.409065E-17
4.890000E+03	9.435030E-17	2.414135E-17
4.900000E+03	9.428513E-17	2.417469E-17
4.910000E+03	9.422440E-17	2.419459E-17
4.920000E+03	9.416855E-17	2.420124E-17
4.930000E+03	9.413242E-17	2.419852E-17
4.940000E+03	9.408737E-17	2.417912E-17
4.950000E+03	9.404811E-17	2.414685E-17
4.960000E+03	9.401482E-17	2.410179E-17
4.970000E+03	9.398760E-17	2.404397E-17
4.980000E+03	9.396649E-17	2.397340E-17
4.990000E+03	9.395147E-17	2.389006E-17
5.000000E+03	9.394248E-17	2.379392E-17
5.010000E+03	9.395380E-17	2.368853E-17
5.020000E+03	9.395642E-17	2.356652E-17
5.030000E+03	9.396455E-17	2.343143E-17
5.040000E+03	9.397792E-17	2.328311E-17
5.050000E+03	9.399623E-17	2.312142E-17
5.060000E+03	9.400474E-17	2.294266E-17
5.070000E+03	9.403188E-17	2.275372E-17
5.080000E+03	9.406285E-17	2.255085E-17
5.090000E+03	9.409725E-17	2.233384E-17
5.100000E+03	9.413462E-17	2.210248E-17
5.110000E+03	9.417450E-17	2.185655E-17
5.120000E+03	9.421644E-17	2.159583E-17
5.130000E+03	9.425994E-17	2.132007E-17
5.140000E+03	9.429011E-17	2.102585E-17
5.150000E+03	9.433527E-17	2.071943E-17
5.160000E+03	9.438052E-17	2.039731E-17
5.170000E+03	9.442537E-17	2.005931E-17
5.180000E+03	9.445492E-17	1.970221E-17
5.190000E+03	9.449752E-17	1.933190E-17
5.200000E+03	9.453831E-17	1.894517E-17
5.210000E+03	9.456240E-17	1.853903E-17
5.220000E+03	9.459821E-17	1.811908E-17
5.230000E+03	9.463089E-17	1.768233E-17
5.240000E+03	9.464564E-17	1.722610E-17
5.250000E+03	9.467092E-17	1.675566E-17
5.260000E+03	9.467755E-17	1.626584E-17
5.270000E+03	9.469404E-17	1.576172E-17
5.280000E+03	9.469126E-17	1.523851E-17
5.290000E+03	9.469778E-17	1.470108E-17
5.300000E+03	9.468451E-17	1.414508E-17
5.310000E+03	9.468006E-17	1.357518E-17
5.320000E+03	9.465544E-17	1.298752E-17
5.330000E+03	9.463927E-17	1.238663E-17
5.340000E+03	9.460262E-17	1.176925E-17
5.350000E+03	9.455978E-17	1.113810E-17
5.360000E+03	9.452504E-17	1.049578E-17
5.370000E+03	9.446958E-17	9.840229E-18
5.380000E+03	9.440773E-17	9.174761E-18
5.390000E+03	9.435383E-17	8.502792E-18
5.400000E+03	9.427922E-17	7.824477E-18
5.410000E+03	9.419827E-17	7.145093E-18
5.420000E+03	9.411108E-17	6.470077E-18
5.430000E+03	9.403201E-17	5.808113E-18
5.440000E+03	9.393266E-17	5.168808E-18
5.450000E+03	9.382750E-17	4.570286E-18
5.460000E+03	9.371674E-17	4.038144E-18
5.470000E+03	9.360066E-17	3.609012E-18
5.480000E+03	9.347953E-17	3.329033E-18
5.490000E+03	9.336786E-17	3.241563E-18
5.500000E+03	9.323761E-17	3.360238E-18
5.510000E+03	9.310316E-17	3.658008E-18
5.520000E+03	9.296472E-17	4.086666E-18
5.530000E+03	9.282253E-17	4.600311E-18
5.540000E+03	9.267689E-17	5.164435E-18
5.550000E+03	9.252814E-17	5.755515E-18
5.560000E+03	9.237666E-17	6.357971E-18
5.570000E+03	9.222291E-17	6.961449E-18
5.580000E+03	9.206735E-17	7.558957E-18
5.590000E+03	9.189661E-17	8.144443E-18
5.600000E+03	9.173910E-17	8.716902E-18
5.610000E+03	9.158149E-17	9.272778E-18
5.620000E+03	9.142439E-17	9.810331E-18
5.630000E+03	9.126845E-17	1.032830E-17
5.640000E+03	9.111434E-17	1.082577E-17
5.650000E+03	9.096272E-17	1.130209E-17
5.660000E+03	9.080054E-17	1.175502E-17
5.670000E+03	9.065597E-17	1.218774E-17
5.680000E+03	9.051592E-17	1.259835E-17
5.690000E+03	9.038104E-17	1.298674E-17
5.700000E+03	9.023832E-17	1.335085E-17
5.710000E+03	9.011569E-17	1.369468E-17
5.720000E+03	9.000004E-17	1.401633E-17
5.730000E+03	8.987835E-17	1.431370E-17
5.740000E+03	8.977832E-17	1.459119E-17
5.750000E+03	8.968680E-17	1.484679E-17
5.760000E+03	8.959069E-17	1.507835E-17
5.770000E+03	8.951747E-17	1.529050E-17
5.780000E+03	8.944039E-17	1.547878E-17
5.790000E+03	8.938679E-17	1.564794E-17
5.800000E+03	8.932990E-17	1.579338E-17
5.810000E+03	8.929693E-17	1.591994E-17
5.820000E+03	8.926107E-17	1.602290E-17
5.830000E+03	8.924943E-17	1.610714E-17
5.840000E+03	8.923515E-17	1.616784E-17
5.850000E+03	8.924527E-17	1.620989E-17
5.860000E+03	8.925292E-17	1.622841E-17
5.870000E+03	8.928509E-17	1.622828E-17
5.880000E+03	8.931489E-17	1.620457E-17
5.890000E+03	8.935584E-17	1.615970E-17
5.900000E+03	8.942149E-17	1.609603E-17
5.910000E+03	8.948492E-17	1.600862E-17
5.920000E+03	8.955971E-17	1.589983E-17
5.930000E+03	8.965949E-17	1.577195E-17
5.940000E+03	8.975734E-17	1.562007E-17
5.950000E+03	8.986694E-17	1.544649E-17
5.960000E+03	9.000205E-17	1.525337E-17
5.970000E+03	9.013574E-17	1.503593E-17
5.980000E+03	9.028179E-17	1.479634E-17
5.990000E+03	9.044047E-17	1.453443E-17
6.000000E+03	9.061205E-17	1.425003E-17
6.010000E+03	9.081051E-17	1.394503E-17
6.020000E+03	9.100876E-17	1.361496E-17
6.030000E+03	9.122076E-17	1.326174E-17
6.040000E+03	9.144678E-17	1.288513E-17
6.050000E+03	9.168705E-17	1.248488E-17
6.060000E+03	9.194178E-17	1.206070E-17
6.070000E+03	9.221111E-17	1.161232E-17
6.080000E+03	9.250909E-17	1.114114E-17
6.090000E+03	9.280785E-17	1.064345E-17
6.100000E+03	9.312121E-17	1.012074E-17
6.110000E+03	9.344898E-17	9.572789E-18
6.120000E+03	9.379084E-17	8.999435E-18
6.130000E+03	9.414635E-17	8.400628E-18
6.140000E+03	9.451489E-17	7.776483E-18
6.150000E+03	9.489571E-17	7.127382E-18
6.160000E+03	9.528790E-17	6.454146E-18
6.170000E+03	9.569034E-17	5.758319E-18
6.180000E+03	9.610175E-17	5.042719E-18
6.190000E+03	9.652068E-17	4.312543E-18
6.200000E+03	9.693083E-17	3.577294E-18
6.210000E+03	9.735957E-17	2.859172E-18
6.220000E+03	9.779032E-17	2.206079E-18
6.230000E+03	9.822093E-17	1.735135E-18
6.240000E+03	9.864908E-17	1.653855E-18
6.250000E+03	9.907234E-17	2.029453E-18
6.260000E+03	9.948822E-17	2.676246E-18
6.270000E+03	9.987906E-17	3.440854E-18
6.280000E+03	1.002723E-16	4.256425E-18
6.290000E+03	1.006502E-16	5.093378E-18
6.300000E+03	1.010101E-16	5.937559E-18
6.310000E+03	1.013492E-16	6.781139E-18
6.320000E+03	1.016496E-16	7.618090E-18
6.330000E+03	1.019393E-16	8.447219E-18
6.340000E+03	1.022005E-16	9.264964E-18
6.350000E+03	1.024309E-16	1.006928E-17
6.360000E+03	1.026127E-16	1.085678E-17
6.370000E+03	1.027749E-16	1.162911E-17
6.380000E+03	1.029004E-16	1.238335E-17
6.390000E+03	1.029719E-16	1.311627E-17
6.400000E+03	1.030193E-16	1.383058E-17
6.410000E+03	1.030261E-16	1.452336E-17
6.420000E+03	1.029759E-16	1.519137E-17
6.430000E+03	1.028996E-16	1.583825E-17
6.440000E+03	1.027659E-16	1.645860E-17
6.450000E+03	1.026061E-16	1.705668E-17
6.460000E+03	1.024050E-16	1.762957E-17
6.470000E+03	1.021481E-16	1.817416E-17
6.480000E+03	1.018673E-16	1.869557E-17
6.490000E+03	1.015332E-16	1.918811E-17
6.500000E+03	1.011779E-16	1.965747E-17
6.510000E+03	1.007727E-16	2.009788E-17
6.520000E+03	1.003501E-16	2.051555E-17
6.530000E+03	9.988185E-17	2.090467E-17
6.540000E+03	9.940061E-17	2.127193E-17
6.550000E+03	9.887872E-17	2.161149E-17
6.560000E+03	9.834874E-17	2.193044E-17
6.570000E+03	9.778352E-17	2.222290E-17
6.580000E+03	9.721547E-17	2.249634E-17
6.590000E+03	9.661787E-17	2.274482E-17
6.600000E+03	9.600832E-17	2.297262E-17
6.610000E+03	9.540405E-17	2.318420E-17
6.620000E+03	9.477888E-17	2.337357E-17
6.630000E+03	9.416432E-17	2.354879E-17
6.640000E+03	9.353448E-17	2.370380E-17
6.650000E+03	9.290632E-17	2.384321E-17
6.660000E+03	9.229633E-17	2.397168E-17
6.670000E+03	9.167895E-17	2.408306E-17
6.680000E+03	9.107058E-17	2.418200E-17
6.690000E+03	9.048715E-17	2.427320E-17
6.700000E+03	8.990332E-17	2.435034E-17
6.710000E+03	8.933488E-17	2.441807E-17
6.720000E+03	8.878370E-17	2.447733E-17
6.730000E+03	8.826490E-17	2.453276E-17
6.740000E+03	8.775331E-17	2.457780E-17
6.750000E+03	8.726386E-17	2.461700E-17
6.760000E+03	8.681108E-17	2.465486E-17
6.770000E+03	8.636983E-17	2.468467E-17
6.780000E+03	8.595444E-17	2.471083E-17
6.790000E+03	8.556588E-17	2.473396E-17
6.800000E+03	8.520502E-17	2.475464E-17
6.810000E+03	8.488542E-17	2.477714E-17
6.820000E+03	8.458193E-17	2.479442E-17
6.830000E+03	8.430793E-17	2.481061E-17
6.840000E+03	8.406377E-17	2.482607E-17
6.850000E+03	8.384969E-17	2.484108E-17
6.860000E+03	8.366580E-17	2.485585E-17
6.870000E+03	8.351210E-17	2.487056E-17
6.880000E+03	8.340113E-17	2.488908E-17
6.890000E+03	8.330732E-17	2.490390E-17
6.900000E+03	8.324301E-17	2.491879E-17
6.910000E+03	8.320773E-17	2.493367E-17
6.920000E+03	8.320091E-17	2.494840E-17
6.930000E+03	8.322185E-17	2.496280E-17
6.940000E+03	8.326976E-17	2.497663E-17
6.950000E+03	8.334373E-17	2.498957E-17
6.960000E+03	8.344274E-17	2.500127E-17
6.970000E+03	8.356567E-17	2.501133E-17
6.980000E+03	8.371127E-17	2.501927E-17
6.990000E+03	8.387822E-17	2.502459E-17
7.000000E+03	8.406506E-17	2.502673E-17
7.010000E+03	8.427025E-17	2.502508E-17
7.020000E+03	8.449216E-17	2.501900E-17
7.030000E+03	8.472903E-17	2.500779E-17
7.040000E+03	8.497905E-17	2.499074E-17
7.050000E+03	8.524029E-17	2.496708E-17
7.060000E+03	8.551078E-17	2.493604E-17
7.070000E+03	8.578843E-17	2.489681E-17
7.080000E+03	8.607113E-17	2.484855E-17
7.090000E+03	8.635668E-17	2.479043E-17
7.100000E+03	8.664286E-17	2.472160E-17
7.110000E+03	8.691417E-17	2.463745E-17
7.120000E+03	8.719472E-17	2.454466E-17
7.130000E+03	8.746903E-17	2.443861E-17
7.140000E+03	8.773481E-17	2.431851E-17
7.150000E+03	8.798976E-17	2.418353E-17
7.160000E+03	8.823163E-17	2.403293E-17
7.170000E+03	8.845821E-17	2.386598E-17
7.180000E+03	8.865386E-17	2.367838E-17
7.190000E+03	8.884351E-17	2.347675E-17
7.200000E+03	8.901170E-17	2.325689E-17
7.210000E+03	8.915660E-17	2.301828E-17
7.220000E+03	8.926285E-17	2.275700E-17
7.230000E+03	8.935610E-17	2.247969E-17
7.240000E+03	8.942133E-17	2.218254E-17
7.250000E+03	8.945729E-17	2.186535E-17
7.260000E+03	8.944926E-17	2.152471E-17
7.270000E+03	8.942369E-17	2.116721E-17
7.280000E+03	8.936626E-17	2.078957E-17
7.290000E+03	8.927652E-17	2.039192E-17
7.300000E+03	8.914061E-17	1.997146E-17
7.310000E+03	8.898577E-17	1.953465E-17
7.320000E+03	8.879857E-17	1.907878E-17
7.330000E+03	8.856590E-17	1.860147E-17
7.340000E+03	8.831549E-17	1.810903E-17
7.350000E+03	8.803461E-17	1.759916E-17
7.360000E+03	8.771090E-17	1.706992E-17
7.370000E+03	8.737245E-17	1.652736E-17
7.380000E+03	8.699391E-17	1.596712E-17
7.390000E+03	8.660350E-17	1.539500E-17
7.400000E+03	8.618959E-17	1.480935E-17
7.410000E+03	8.574088E-17	1.420889E-17
7.420000E+03	8.528565E-17	1.359900E-17
7.430000E+03	8.479976E-17	1.297640E-17
7.440000E+03	8.431138E-17	1.234615E-17
7.450000E+03	8.379678E-17	1.170542E-17
7.460000E+03	8.328392E-17	1.105895E-17
7.470000E+03	8.274942E-17	1.040442E-17
7.480000E+03	8.222095E-17	9.746331E-18
7.490000E+03	8.167541E-17	9.082965E-18
7.500000E+03	8.114007E-17	8.418763E-18
7.510000E+03	8.059205E-17	7.752888E-18
7.520000E+03	8.005816E-17	7.090116E-18
7.530000E+03	7.951567E-17	6.431148E-18
7.540000E+03	7.899087E-17	5.782111E-18
7.550000E+03	7.846109E-17	5.146890E-18
7.560000E+03	7.795203E-17	4.535690E-18
7.570000E+03	7.744104E-17	3.960066E-18
7.580000E+03	7.695320E-17	3.441617E-18
7.590000E+03	7.646578E-17	3.010157E-18
7.600000E+03	7.599149E-17	2.709045E-18
7.610000E+03	7.554257E-17	2.583843E-18
7.620000E+03	7.509611E-17	2.655485E-18
7.630000E+03	7.466398E-17	2.901529E-18
7.640000E+03	7.425760E-17	3.274190E-18
7.650000E+03	7.385386E-17	3.726355E-18
7.660000E+03	7.346393E-17	4.225117E-18
7.670000E+03	7.309861E-17	4.749648E-18
7.680000E+03	7.273477E-17	5.285051E-18
7.690000E+03	7.238307E-17	5.823469E-18
7.700000E+03	7.205395E-17	6.360438E-18
7.710000E+03	7.172439E-17	6.890532E-18
7.720000E+03	7.140481E-17	7.412302E-18
7.730000E+03	7.109445E-17	7.924175E-18
7.740000E+03	7.080348E-17	8.426394E-18
7.750000E+03	7.050930E-17	8.915729E-18
7.760000E+03	7.022217E-17	9.392939E-18
