#wls	flux	fluxerr
1.600000E+03	4.763707E-17	3.537635E-17
1.640000E+03	4.583328E-17	3.367692E-17
1.680000E+03	4.398893E-17	3.197015E-17
1.720000E+03	4.212466E-17	3.027529E-17
1.760000E+03	4.027840E-17	2.862295E-17
1.800000E+03	3.846400E-17	2.702515E-17
1.840000E+03	3.670421E-17	2.549905E-17
1.880000E+03	3.502823E-17	2.406491E-17
1.920000E+03	3.345663E-17	2.273549E-17
1.960000E+03	3.201482E-17	2.152555E-17
2.000000E+03	3.071956E-17	2.044278E-17
2.040000E+03	2.958035E-17	1.948917E-17
2.080000E+03	2.862228E-17	1.867636E-17
2.120000E+03	2.785701E-17	1.800657E-17
2.160000E+03	2.729555E-17	1.748140E-17
2.200000E+03	2.694383E-17	1.709923E-17
2.240000E+03	2.682354E-17	1.686858E-17
2.280000E+03	2.694740E-17	1.679245E-17
2.320000E+03	2.732066E-17	1.686958E-17
2.360000E+03	2.797627E-17	1.711640E-17
2.400000E+03	2.892110E-17	1.753366E-17
2.440000E+03	3.019660E-17	1.814384E-17
2.480000E+03	3.182367E-17	1.895731E-17
2.520000E+03	3.384395E-17	1.999721E-17
2.560000E+03	3.629317E-17	2.128298E-17
2.600000E+03	3.922339E-17	2.284284E-17
2.640000E+03	4.269249E-17	2.470632E-17
2.680000E+03	4.674152E-17	2.688976E-17
2.720000E+03	5.143362E-17	2.941704E-17
2.760000E+03	5.683528E-17	3.230637E-17
2.800000E+03	6.299689E-17	3.555686E-17
2.840000E+03	6.999571E-17	3.917033E-17
2.880000E+03	7.789148E-17	4.312353E-17
2.920000E+03	8.675371E-17	4.738087E-17
2.960000E+03	9.666557E-17	5.189367E-17
3.000000E+03	1.076988E-16	5.658372E-17
3.010000E+03	1.106480E-16	5.777610E-17
3.020000E+03	1.136753E-16	5.897259E-17
3.030000E+03	1.167663E-16	6.016301E-17
3.040000E+03	1.199522E-16	6.136091E-17
3.050000E+03	1.232187E-16	6.255594E-17
3.060000E+03	1.265662E-16	6.374543E-17
3.070000E+03	1.299953E-16	6.492657E-17
3.080000E+03	1.335062E-16	6.609636E-17
3.090000E+03	1.371166E-16	6.726017E-17
3.100000E+03	1.407919E-16	6.839756E-17
3.110000E+03	1.445853E-16	6.953090E-17
3.120000E+03	1.484429E-16	7.063039E-17
3.130000E+03	1.524196E-16	7.171842E-17
3.140000E+03	1.564589E-16	7.276428E-17
3.150000E+03	1.606171E-16	7.379027E-17
3.160000E+03	1.648550E-16	7.477384E-17
3.170000E+03	1.691907E-16	7.571903E-17
3.180000E+03	1.736229E-16	7.662067E-17
3.190000E+03	1.781288E-16	7.746414E-17
3.200000E+03	1.827477E-16	7.826193E-17
3.210000E+03	1.874559E-16	7.899884E-17
3.220000E+03	1.922279E-16	7.965932E-17
3.230000E+03	1.971256E-16	8.026420E-17
3.240000E+03	2.020779E-16	8.077902E-17
3.250000E+03	2.071242E-16	8.121482E-17
3.260000E+03	2.122354E-16	8.155494E-17
3.270000E+03	2.174278E-16	8.180064E-17
3.280000E+03	2.226941E-16	8.194379E-17
3.290000E+03	2.280257E-16	8.197603E-17
3.300000E+03	2.333881E-16	8.188014E-17
3.310000E+03	2.388200E-16	8.166499E-17
3.320000E+03	2.442595E-16	8.130462E-17
3.330000E+03	2.497442E-16	8.080743E-17
3.340000E+03	2.552606E-16	8.016446E-17
3.350000E+03	2.607415E-16	7.935089E-17
3.360000E+03	2.662490E-16	7.838267E-17
3.370000E+03	2.717133E-16	7.723591E-17
3.380000E+03	2.771425E-16	7.591104E-17
3.390000E+03	2.825172E-16	7.440123E-17
3.400000E+03	2.878173E-16	7.270054E-17
3.410000E+03	2.930492E-16	7.081075E-17
3.420000E+03	2.981643E-16	6.872123E-17
3.430000E+03	3.031405E-16	6.643006E-17
3.440000E+03	3.079834E-16	6.394302E-17
3.450000E+03	3.126713E-16	6.126147E-17
3.460000E+03	3.171825E-16	5.838945E-17
3.470000E+03	3.214963E-16	5.533423E-17
3.480000E+03	3.256206E-16	5.211152E-17
3.490000E+03	3.295091E-16	4.873254E-17
3.500000E+03	3.331453E-16	4.522016E-17
3.510000E+03	3.365419E-16	4.160946E-17
3.520000E+03	3.396864E-16	3.794336E-17
3.530000E+03	3.425961E-16	3.428516E-17
3.540000E+03	3.452103E-16	3.071576E-17
3.550000E+03	3.475792E-16	2.736509E-17
3.560000E+03	3.496760E-16	2.440841E-17
3.570000E+03	3.515303E-16	2.208675E-17
3.580000E+03	3.531486E-16	2.067569E-17
3.590000E+03	3.545664E-16	2.039834E-17
3.600000E+03	3.557467E-16	2.129548E-17
3.610000E+03	3.567321E-16	2.320354E-17
3.620000E+03	3.575914E-16	2.585465E-17
3.630000E+03	3.582745E-16	2.898311E-17
3.640000E+03	3.588788E-16	3.239397E-17
3.650000E+03	3.594076E-16	3.594613E-17
3.660000E+03	3.598679E-16	3.954392E-17
3.670000E+03	3.603361E-16	4.313087E-17
3.680000E+03	3.608437E-16	4.666796E-17
3.690000E+03	3.614013E-16	5.012800E-17
3.700000E+03	3.620638E-16	5.349977E-17
3.710000E+03	3.628640E-16	5.677673E-17
3.720000E+03	3.638143E-16	5.995431E-17
3.730000E+03	3.649880E-16	6.304178E-17
3.740000E+03	3.664154E-16	6.604497E-17
3.750000E+03	3.680872E-16	6.896440E-17
3.760000E+03	3.700716E-16	7.181620E-17
3.770000E+03	3.723951E-16	7.461038E-17
3.780000E+03	3.750827E-16	7.735739E-17
3.790000E+03	3.781389E-16	8.006385E-17
3.800000E+03	3.816213E-16	8.274772E-17
3.810000E+03	3.855117E-16	8.541086E-17
3.820000E+03	3.898617E-16	8.807010E-17
3.830000E+03	3.946658E-16	9.072938E-17
3.840000E+03	3.999333E-16	9.339534E-17
3.850000E+03	4.056874E-16	9.607736E-17
3.860000E+03	4.119125E-16	9.877500E-17
3.870000E+03	4.186238E-16	1.014943E-16
3.880000E+03	4.257974E-16	1.042313E-16
3.890000E+03	4.334394E-16	1.069881E-16
3.900000E+03	4.415338E-16	1.097606E-16
3.910000E+03	4.500425E-16	1.125386E-16
3.920000E+03	4.589568E-16	1.153179E-16
3.930000E+03	4.682284E-16	1.180835E-16
3.940000E+03	4.778385E-16	1.208273E-16
3.950000E+03	4.877463E-16	1.235344E-16
3.960000E+03	4.979065E-16	1.261883E-16
3.970000E+03	5.082530E-16	1.287665E-16
3.980000E+03	5.187330E-16	1.312491E-16
3.990000E+03	5.293083E-16	1.336198E-16
4.000000E+03	5.399217E-16	1.358566E-16
4.010000E+03	5.504808E-16	1.379289E-16
4.020000E+03	5.609612E-16	1.398228E-16
4.030000E+03	5.712885E-16	1.415120E-16
4.040000E+03	5.813900E-16	1.429708E-16
4.050000E+03	5.912301E-16	1.441830E-16
4.060000E+03	6.007594E-16	1.451293E-16
4.070000E+03	6.099333E-16	1.457922E-16
4.080000E+03	6.186786E-16	1.461477E-16
4.090000E+03	6.269782E-16	1.461863E-16
4.100000E+03	6.348042E-16	1.458963E-16
4.110000E+03	6.421184E-16	1.452649E-16
4.120000E+03	6.489217E-16	1.442885E-16
4.130000E+03	6.551725E-16	1.429553E-16
4.140000E+03	6.608841E-16	1.412664E-16
4.150000E+03	6.660435E-16	1.392181E-16
4.160000E+03	6.706594E-16	1.368123E-16
4.170000E+03	6.747302E-16	1.340497E-16
4.180000E+03	6.782905E-16	1.309391E-16
4.190000E+03	6.813335E-16	1.274823E-16
4.200000E+03	6.838880E-16	1.236888E-16
4.210000E+03	6.859868E-16	1.195698E-16
4.220000E+03	6.876524E-16	1.151359E-16
4.230000E+03	6.889406E-16	1.104041E-16
4.240000E+03	6.898544E-16	1.053844E-16
4.250000E+03	6.904587E-16	1.000982E-16
4.260000E+03	6.908082E-16	9.456690E-17
4.270000E+03	6.909230E-16	8.880987E-17
4.280000E+03	6.908959E-16	8.285973E-17
4.290000E+03	6.907855E-16	7.674904E-17
4.300000E+03	6.906443E-16	7.051720E-17
4.310000E+03	6.905580E-16	6.421833E-17
4.320000E+03	6.906190E-16	5.792384E-17
4.330000E+03	6.909137E-16	5.173140E-17
4.340000E+03	6.915225E-16	4.578150E-17
4.350000E+03	6.925652E-16	4.028508E-17
4.360000E+03	6.941366E-16	3.554963E-17
4.370000E+03	6.963238E-16	3.199725E-17
4.380000E+03	6.991990E-16	3.010302E-17
4.390000E+03	7.028097E-16	3.019123E-17
4.400000E+03	7.071854E-16	3.221120E-17
4.410000E+03	7.123243E-16	3.576548E-17
4.420000E+03	7.181757E-16	4.035211E-17
4.430000E+03	7.246812E-16	4.554608E-17
4.440000E+03	7.317932E-16	5.104119E-17
4.450000E+03	7.394247E-16	5.662369E-17
4.460000E+03	7.475205E-16	6.214565E-17
4.470000E+03	7.559922E-16	6.749687E-17
4.480000E+03	7.647864E-16	7.259534E-17
4.490000E+03	7.738292E-16	7.737355E-17
4.500000E+03	7.830816E-16	8.177824E-17
4.510000E+03	7.924499E-16	8.575818E-17
4.520000E+03	8.018973E-16	8.927373E-17
4.530000E+03	8.113647E-16	9.228782E-17
4.540000E+03	8.207814E-16	9.476645E-17
4.550000E+03	8.300986E-16	9.668258E-17
4.560000E+03	8.392553E-16	9.801268E-17
4.570000E+03	8.481891E-16	9.873864E-17
4.580000E+03	8.568247E-16	9.884746E-17
4.590000E+03	8.651197E-16	9.833789E-17
4.600000E+03	8.729955E-16	9.721422E-17
4.610000E+03	8.803840E-16	9.549385E-17
4.620000E+03	8.872159E-16	9.320893E-17
4.630000E+03	8.934329E-16	9.041115E-17
4.640000E+03	8.989656E-16	8.717395E-17
4.650000E+03	9.037345E-16	8.359845E-17
4.660000E+03	9.076860E-16	7.982326E-17
4.670000E+03	9.107481E-16	7.602654E-17
4.680000E+03	9.128794E-16	7.243402E-17
4.690000E+03	9.140373E-16	6.931237E-17
4.700000E+03	9.141828E-16	6.695123E-17
4.710000E+03	9.133070E-16	6.562591E-17
4.720000E+03	9.114250E-16	6.554046E-17
4.730000E+03	9.085668E-16	6.677524E-17
4.740000E+03	9.048119E-16	6.927146E-17
4.750000E+03	9.002424E-16	7.285504E-17
4.760000E+03	8.949508E-16	7.729116E-17
4.770000E+03	8.890881E-16	8.234066E-17
4.780000E+03	8.827732E-16	8.778610E-17
4.790000E+03	8.761634E-16	9.345252E-17
4.800000E+03	8.694175E-16	9.920664E-17
4.810000E+03	8.626828E-16	1.049514E-16
4.820000E+03	8.561123E-16	1.106218E-16
4.830000E+03	8.498518E-16	1.161780E-16
4.840000E+03	8.440468E-16	1.216006E-16
4.850000E+03	8.388018E-16	1.268804E-16
4.860000E+03	8.342274E-16	1.320213E-16
4.870000E+03	8.304288E-16	1.370361E-16
4.880000E+03	8.274660E-16	1.419370E-16
4.890000E+03	8.254012E-16	1.467415E-16
4.900000E+03	8.242791E-16	1.514671E-16
4.910000E+03	8.241170E-16	1.561286E-16
4.920000E+03	8.249145E-16	1.607378E-16
4.930000E+03	8.266725E-16	1.653068E-16
4.940000E+03	8.293474E-16	1.698383E-16
4.950000E+03	8.328890E-16	1.743320E-16
4.960000E+03	8.372424E-16	1.787847E-16
4.970000E+03	8.423306E-16	1.831868E-16
4.980000E+03	8.480659E-16	1.875242E-16
4.990000E+03	8.543713E-16	1.917829E-16
5.000000E+03	8.611163E-16	1.959351E-16
5.010000E+03	8.682245E-16	1.999630E-16
5.020000E+03	8.755808E-16	2.038385E-16
5.030000E+03	8.830821E-16	2.075346E-16
5.040000E+03	8.906302E-16	2.110241E-16
5.050000E+03	8.981439E-16	2.142830E-16
5.060000E+03	9.055324E-16	2.172844E-16
5.070000E+03	9.127353E-16	2.200079E-16
5.080000E+03	9.196848E-16	2.224315E-16
5.090000E+03	9.263562E-16	2.245431E-16
5.100000E+03	9.326977E-16	2.263245E-16
5.110000E+03	9.387007E-16	2.277678E-16
5.120000E+03	9.443584E-16	2.288660E-16
5.130000E+03	9.496752E-16	2.296147E-16
5.140000E+03	9.546751E-16	2.300148E-16
5.150000E+03	9.593597E-16	2.300616E-16
5.160000E+03	9.637677E-16	2.297593E-16
5.170000E+03	9.679425E-16	2.291135E-16
5.180000E+03	9.719002E-16	2.281225E-16
5.190000E+03	9.756997E-16	2.267951E-16
5.200000E+03	9.793589E-16	2.251295E-16
5.210000E+03	9.829369E-16	2.231334E-16
5.220000E+03	9.864594E-16	2.208060E-16
5.230000E+03	9.899604E-16	2.181478E-16
5.240000E+03	9.934705E-16	2.151582E-16
5.250000E+03	9.970269E-16	2.118370E-16
5.260000E+03	1.000631E-15	2.081763E-16
5.270000E+03	1.004313E-15	2.041730E-16
5.280000E+03	1.008084E-15	1.998209E-16
5.290000E+03	1.011955E-15	1.951123E-16
5.300000E+03	1.015928E-15	1.900388E-16
5.310000E+03	1.019991E-15	1.845892E-16
5.320000E+03	1.024159E-15	1.787581E-16
5.330000E+03	1.028399E-15	1.725327E-16
5.340000E+03	1.032705E-15	1.659068E-16
5.350000E+03	1.037043E-15	1.588724E-16
5.360000E+03	1.041394E-15	1.514281E-16
5.370000E+03	1.045715E-15	1.435732E-16
5.380000E+03	1.049975E-15	1.353168E-16
5.390000E+03	1.054125E-15	1.266758E-16
5.400000E+03	1.058090E-15	1.176778E-16
5.410000E+03	1.061829E-15	1.083754E-16
5.420000E+03	1.065259E-15	9.884636E-17
5.430000E+03	1.068306E-15	8.921303E-17
5.440000E+03	1.070884E-15	7.966450E-17
5.450000E+03	1.072917E-15	7.049303E-17
5.460000E+03	1.074294E-15	6.214246E-17
5.470000E+03	1.074942E-15	5.526491E-17
5.480000E+03	1.074797E-15	5.070020E-17
5.490000E+03	1.073780E-15	4.923980E-17
5.500000E+03	1.071869E-15	5.117492E-17
5.510000E+03	1.069047E-15	5.606679E-17
5.520000E+03	1.065334E-15	6.306329E-17
5.530000E+03	1.060761E-15	7.133395E-17
5.540000E+03	1.055408E-15	8.025659E-17
5.550000E+03	1.049349E-15	8.940897E-17
5.560000E+03	1.042677E-15	9.851566E-17
5.570000E+03	1.035475E-15	1.073969E-16
5.580000E+03	1.027846E-15	1.159383E-16
5.590000E+03	1.019908E-15	1.240709E-16
5.600000E+03	1.011760E-15	1.317534E-16
5.610000E+03	1.003557E-15	1.389735E-16
5.620000E+03	9.954002E-16	1.457284E-16
5.630000E+03	9.874353E-16	1.520342E-16
5.640000E+03	9.798124E-16	1.579173E-16
5.650000E+03	9.726534E-16	1.634078E-16
5.660000E+03	9.661185E-16	1.685480E-16
5.670000E+03	9.603265E-16	1.733776E-16
5.680000E+03	9.554195E-16	1.779439E-16
5.690000E+03	9.515222E-16	1.822931E-16
5.700000E+03	9.487489E-16	1.864710E-16
5.710000E+03	9.471918E-16	1.905189E-16
5.720000E+03	9.469375E-16	1.944768E-16
5.730000E+03	9.480645E-16	1.983816E-16
5.740000E+03	9.506139E-16	2.022608E-16
5.750000E+03	9.546244E-16	2.061386E-16
5.760000E+03	9.600845E-16	2.100260E-16
5.770000E+03	9.669965E-16	2.139334E-16
5.780000E+03	9.753008E-16	2.178543E-16
5.790000E+03	9.849411E-16	2.217792E-16
5.800000E+03	9.958266E-16	2.256876E-16
5.810000E+03	1.007823E-15	2.295453E-16
5.820000E+03	1.020820E-15	2.333205E-16
5.830000E+03	1.034630E-15	2.369606E-16
5.840000E+03	1.049082E-15	2.404145E-16
5.850000E+03	1.063981E-15	2.436237E-16
5.860000E+03	1.079111E-15	2.465229E-16
5.870000E+03	1.094268E-15	2.490493E-16
5.880000E+03	1.109236E-15	2.511371E-16
5.890000E+03	1.123781E-15	2.527168E-16
5.900000E+03	1.137707E-15	2.537294E-16
5.910000E+03	1.150824E-15	2.541186E-16
5.920000E+03	1.162958E-15	2.538344E-16
5.930000E+03	1.173948E-15	2.528324E-16
5.940000E+03	1.183679E-15	2.510819E-16
5.950000E+03	1.192044E-15	2.485570E-16
5.960000E+03	1.198961E-15	2.452417E-16
5.970000E+03	1.204417E-15	2.411369E-16
5.980000E+03	1.208378E-15	2.362436E-16
5.990000E+03	1.210872E-15	2.305787E-16
6.000000E+03	1.211944E-15	2.241645E-16
6.010000E+03	1.211643E-15	2.170283E-16
6.020000E+03	1.210066E-15	2.092078E-16
6.030000E+03	1.207297E-15	2.007412E-16
6.040000E+03	1.203444E-15	1.916732E-16
6.050000E+03	1.198634E-15	1.820539E-16
6.060000E+03	1.192975E-15	1.719328E-16
6.070000E+03	1.186587E-15	1.613651E-16
6.080000E+03	1.179598E-15	1.504118E-16
6.090000E+03	1.172123E-15	1.391386E-16
6.100000E+03	1.164255E-15	1.276196E-16
6.110000E+03	1.156105E-15	1.159474E-16
6.120000E+03	1.147751E-15	1.042365E-16
6.130000E+03	1.139295E-15	9.264503E-17
6.140000E+03	1.130782E-15	8.139320E-17
6.150000E+03	1.122294E-15	7.081269E-17
6.160000E+03	1.113867E-15	6.140291E-17
6.170000E+03	1.105551E-15	5.389822E-17
6.180000E+03	1.097366E-15	4.922867E-17
6.190000E+03	1.089345E-15	4.818796E-17
6.200000E+03	1.081494E-15	5.087329E-17
6.210000E+03	1.073826E-15	5.657052E-17
6.220000E+03	1.066357E-15	6.426784E-17
6.230000E+03	1.059078E-15	7.311318E-17
6.240000E+03	1.051986E-15	8.252497E-17
6.250000E+03	1.045087E-15	9.213547E-17
6.260000E+03	1.038359E-15	1.017140E-16
6.270000E+03	1.031791E-15	1.111165E-16
6.280000E+03	1.025380E-15	1.202532E-16
6.290000E+03	1.019101E-15	1.290657E-16
6.300000E+03	1.012948E-15	1.375200E-16
6.310000E+03	1.006899E-15	1.455938E-16
6.320000E+03	1.000959E-15	1.532792E-16
6.330000E+03	9.951082E-16	1.605714E-16
6.340000E+03	9.893378E-16	1.674719E-16
6.350000E+03	9.836527E-16	1.739881E-16
6.360000E+03	9.780512E-16	1.801289E-16
6.370000E+03	9.725360E-16	1.859060E-16
6.380000E+03	9.671239E-16	1.913352E-16
6.390000E+03	9.618077E-16	1.964284E-16
6.400000E+03	9.566335E-16	2.012095E-16
6.410000E+03	9.516043E-16	2.056941E-16
6.420000E+03	9.467668E-16	2.099077E-16
6.430000E+03	9.421335E-16	2.138687E-16
6.440000E+03	9.377505E-16	2.176033E-16
6.450000E+03	9.336481E-16	2.211345E-16
6.460000E+03	9.298690E-16	2.244881E-16
6.470000E+03	9.264479E-16	2.276881E-16
6.480000E+03	9.234198E-16	2.307584E-16
6.490000E+03	9.208188E-16	2.337225E-16
6.500000E+03	9.186856E-16	2.366053E-16
6.510000E+03	9.170663E-16	2.394328E-16
6.520000E+03	9.160014E-16	2.422295E-16
6.530000E+03	9.155431E-16	2.450223E-16
6.540000E+03	9.157158E-16	2.478307E-16
6.550000E+03	9.165148E-16	2.506654E-16
6.560000E+03	9.179631E-16	2.535441E-16
6.570000E+03	9.200334E-16	2.564695E-16
6.580000E+03	9.227056E-16	2.594457E-16
6.590000E+03	9.259474E-16	2.624722E-16
6.600000E+03	9.297046E-16	2.655413E-16
6.610000E+03	9.339117E-16	2.686410E-16
6.620000E+03	9.384924E-16	2.717551E-16
6.630000E+03	9.433716E-16	2.748669E-16
6.640000E+03	9.484462E-16	2.779504E-16
6.650000E+03	9.536391E-16	2.809862E-16
6.660000E+03	9.588284E-16	2.839411E-16
6.670000E+03	9.639336E-16	2.867932E-16
6.680000E+03	9.688450E-16	2.895112E-16
6.690000E+03	9.734681E-16	2.920679E-16
6.700000E+03	9.777158E-16	2.944378E-16
6.710000E+03	9.815329E-16	2.966045E-16
6.720000E+03	9.848326E-16	2.985421E-16
6.730000E+03	9.875637E-16	3.002350E-16
6.740000E+03	9.897124E-16	3.016790E-16
6.750000E+03	9.912367E-16	3.028614E-16
6.760000E+03	9.921447E-16	3.037846E-16
6.770000E+03	9.924495E-16	3.044528E-16
6.780000E+03	9.921805E-16	3.048754E-16
6.790000E+03	9.913816E-16	3.050661E-16
6.800000E+03	9.901104E-16	3.050433E-16
6.810000E+03	9.884359E-16	3.048286E-16
6.820000E+03	9.864366E-16	3.044471E-16
6.830000E+03	9.842097E-16	3.039293E-16
6.840000E+03	9.818231E-16	3.032968E-16
6.850000E+03	9.793921E-16	3.025858E-16
6.860000E+03	9.769865E-16	3.018185E-16
6.870000E+03	9.747190E-16	3.010297E-16
6.880000E+03	9.726630E-16	3.002423E-16
6.890000E+03	9.708962E-16	2.994801E-16
6.900000E+03	9.694989E-16	2.987671E-16
6.910000E+03	9.685064E-16	2.981136E-16
6.920000E+03	9.679876E-16	2.975393E-16
6.930000E+03	9.679530E-16	2.970458E-16
6.940000E+03	9.684448E-16	2.966440E-16
6.950000E+03	9.694458E-16	2.963262E-16
6.960000E+03	9.709705E-16	2.960937E-16
6.970000E+03	9.729737E-16	2.959295E-16
6.980000E+03	9.754439E-16	2.958264E-16
6.990000E+03	9.783113E-16	2.957594E-16
7.000000E+03	9.815192E-16	2.957068E-16
7.010000E+03	9.850256E-16	2.956516E-16
7.020000E+03	9.887353E-16	2.955605E-16
7.030000E+03	9.925719E-16	2.954058E-16
7.040000E+03	9.964690E-16	2.951630E-16
7.050000E+03	1.000336E-15	2.948004E-16
7.060000E+03	1.004110E-15	2.942942E-16
7.070000E+03	1.007694E-15	2.936118E-16
7.080000E+03	1.011047E-15	2.927365E-16
7.090000E+03	1.014087E-15	2.916400E-16
7.100000E+03	1.016777E-15	2.903075E-16
7.110000E+03	1.019077E-15	2.887234E-16
7.120000E+03	1.020958E-15	2.868754E-16
7.130000E+03	1.022374E-15	2.847470E-16
7.140000E+03	1.023339E-15	2.823385E-16
7.150000E+03	1.023838E-15	2.796422E-16
7.160000E+03	1.023875E-15	2.766557E-16
7.170000E+03	1.023461E-15	2.733788E-16
7.180000E+03	1.022600E-15	2.698088E-16
7.190000E+03	1.021323E-15	2.659508E-16
7.200000E+03	1.019638E-15	2.618040E-16
7.210000E+03	1.017571E-15	2.573708E-16
7.220000E+03	1.015143E-15	2.526540E-16
7.230000E+03	1.012391E-15	2.476590E-16
7.240000E+03	1.009301E-15	2.423789E-16
7.250000E+03	1.005930E-15	2.368247E-16
7.260000E+03	1.002276E-15	2.309921E-16
7.270000E+03	9.983562E-16	2.248830E-16
7.280000E+03	9.941911E-16	2.184988E-16
7.290000E+03	9.898108E-16	2.118441E-16
7.300000E+03	9.852090E-16	2.049156E-16
7.310000E+03	9.804163E-16	1.977185E-16
7.320000E+03	9.754521E-16	1.902563E-16
7.330000E+03	9.703361E-16	1.825330E-16
7.340000E+03	9.650777E-16	1.745516E-16
7.350000E+03	9.597114E-16	1.663213E-16
7.360000E+03	9.542490E-16	1.578483E-16
7.370000E+03	9.487274E-16	1.491450E-16
7.380000E+03	9.431605E-16	1.402227E-16
7.390000E+03	9.375868E-16	1.310998E-16
7.400000E+03	9.320211E-16	1.217957E-16
7.410000E+03	9.265015E-16	1.123401E-16
7.420000E+03	9.210421E-16	1.027689E-16
7.430000E+03	9.156673E-16	9.313444E-17
7.440000E+03	9.104113E-16	8.351201E-17
7.450000E+03	9.052716E-16	7.400909E-17
7.460000E+03	9.003005E-16	6.479554E-17
7.470000E+03	8.954791E-16	5.613018E-17
7.480000E+03	8.908429E-16	4.842831E-17
7.490000E+03	8.863796E-16	4.231806E-17
7.500000E+03	8.821203E-16	3.862153E-17
7.510000E+03	8.780609E-16	3.804016E-17
7.520000E+03	8.742077E-16	4.063277E-17
7.530000E+03	8.705664E-16	4.574005E-17
7.540000E+03	8.671310E-16	5.248461E-17
7.550000E+03	8.639279E-16	6.016484E-17
7.560000E+03	8.609383E-16	6.831580E-17
7.570000E+03	8.581865E-16	7.665242E-17
7.580000E+03	8.556516E-16	8.499717E-17
7.590000E+03	8.533450E-16	9.324267E-17
7.600000E+03	8.512554E-16	1.013207E-16
7.610000E+03	8.494037E-16	1.091927E-16
7.620000E+03	8.477775E-16	1.168334E-16
7.630000E+03	8.463641E-16	1.242280E-16
7.640000E+03	8.451829E-16	1.313739E-16
7.650000E+03	8.442202E-16	1.382694E-16
7.660000E+03	8.434614E-16	1.449153E-16
7.670000E+03	8.429242E-16	1.513210E-16
7.680000E+03	8.425922E-16	1.574913E-16
7.690000E+03	8.424701E-16	1.634365E-16
7.700000E+03	8.425282E-16	1.691604E-16
7.710000E+03	8.427795E-16	1.746759E-16
7.720000E+03	8.432137E-16	1.799914E-16
7.730000E+03	8.438076E-16	1.851124E-16
7.740000E+03	8.445479E-16	1.900463E-16
7.750000E+03	8.454310E-16	1.948022E-16
7.760000E+03	8.464410E-16	1.993863E-16
