#wls	flux	fluxerr
1.583218E+03	5.709162E-16	6.799512E-18
1.622798E+03	6.316325E-16	7.516526E-18
1.662379E+03	6.889426E-16	8.191693E-18
1.701959E+03	7.404389E-16	8.796463E-18
1.741540E+03	7.832588E-16	9.296994E-18
1.781120E+03	8.129289E-16	9.640468E-18
1.820701E+03	8.242915E-16	9.766171E-18
1.860281E+03	8.123642E-16	9.615717E-18
1.899861E+03	7.738268E-16	9.150636E-18
1.939442E+03	7.092914E-16	8.379109E-18
1.979022E+03	6.256495E-16	7.383437E-18
2.018603E+03	5.365874E-16	6.325733E-18
2.058183E+03	4.593003E-16	5.408767E-18
2.097764E+03	4.084671E-16	4.804828E-18
2.137344E+03	3.922035E-16	4.608284E-18
2.176925E+03	4.124820E-16	4.840912E-18
2.216505E+03	4.670192E-16	5.474428E-18
2.256085E+03	5.497682E-16	6.436540E-18
2.295666E+03	6.511555E-16	7.614007E-18
2.335246E+03	7.598339E-16	8.873387E-18
2.374827E+03	8.653731E-16	1.009259E-17
2.414407E+03	9.602429E-16	1.118394E-17
2.453988E+03	1.040374E-15	1.210051E-17
2.493568E+03	1.104617E-15	1.282955E-17
2.533149E+03	1.153706E-15	1.338032E-17
2.572729E+03	1.189277E-15	1.377242E-17
2.612310E+03	1.213240E-15	1.402862E-17
2.651890E+03	1.227490E-15	1.417136E-17
2.691470E+03	1.233766E-15	1.422121E-17
2.731051E+03	1.233602E-15	1.419621E-17
2.770631E+03	1.228308E-15	1.411180E-17
2.810212E+03	1.218996E-15	1.398101E-17
2.849792E+03	1.206603E-15	1.381482E-17
2.889373E+03	1.191914E-15	1.362240E-17
2.928953E+03	1.175588E-15	1.341142E-17
2.968534E+03	1.158184E-15	1.318836E-17
2.978429E+03	1.153720E-15	1.313135E-17
2.988324E+03	1.149224E-15	1.307399E-17
2.998219E+03	1.144705E-15	1.301639E-17
3.008114E+03	1.140223E-15	1.295922E-17
3.018009E+03	1.135988E-15	1.290488E-17
3.027904E+03	1.132206E-15	1.285570E-17
3.037799E+03	1.128811E-15	1.281094E-17
3.047694E+03	1.125751E-15	1.276998E-17
3.057590E+03	1.123016E-15	1.273270E-17
3.067485E+03	1.120545E-15	1.269841E-17
3.077380E+03	1.118281E-15	1.266647E-17
3.087275E+03	1.116183E-15	1.263640E-17
3.097170E+03	1.114204E-15	1.260768E-17
3.107065E+03	1.112310E-15	1.257991E-17
3.116960E+03	1.110473E-15	1.255278E-17
3.126855E+03	1.108661E-15	1.252592E-17
3.136750E+03	1.106852E-15	1.249908E-17
3.146646E+03	1.105029E-15	1.247208E-17
3.156541E+03	1.103173E-15	1.244469E-17
3.166436E+03	1.101272E-15	1.241681E-17
3.176331E+03	1.099316E-15	1.238828E-17
3.186226E+03	1.097294E-15	1.235901E-17
3.196121E+03	1.095203E-15	1.232895E-17
3.206016E+03	1.093036E-15	1.229804E-17
3.215911E+03	1.090793E-15	1.226627E-17
3.225806E+03	1.088472E-15	1.223361E-17
3.235702E+03	1.086073E-15	1.220009E-17
3.245597E+03	1.083597E-15	1.216570E-17
3.255492E+03	1.081050E-15	1.213050E-17
3.265387E+03	1.078433E-15	1.209454E-17
3.275282E+03	1.075752E-15	1.205785E-17
3.285177E+03	1.073009E-15	1.202047E-17
3.295072E+03	1.070212E-15	1.198251E-17
3.304967E+03	1.067367E-15	1.194400E-17
3.314862E+03	1.064478E-15	1.190501E-17
3.324758E+03	1.061554E-15	1.186564E-17
3.334653E+03	1.058601E-15	1.182595E-17
3.344548E+03	1.055626E-15	1.178603E-17
3.354443E+03	1.052635E-15	1.174594E-17
3.364338E+03	1.049637E-15	1.170578E-17
3.374233E+03	1.046637E-15	1.166561E-17
3.384128E+03	1.043646E-15	1.162555E-17
3.394023E+03	1.040667E-15	1.158563E-17
3.403918E+03	1.037707E-15	1.154594E-17
3.413814E+03	1.034774E-15	1.150656E-17
3.423709E+03	1.031881E-15	1.146763E-17
3.433604E+03	1.029027E-15	1.142915E-17
3.443499E+03	1.026221E-15	1.139121E-17
3.453394E+03	1.023475E-15	1.135395E-17
3.463289E+03	1.020789E-15	1.131737E-17
3.473184E+03	1.018175E-15	1.128159E-17
3.483079E+03	1.015637E-15	1.124666E-17
3.492974E+03	1.013181E-15	1.121265E-17
3.502870E+03	1.010815E-15	1.117963E-17
3.512765E+03	1.008540E-15	1.114764E-17
3.522660E+03	1.006367E-15	1.111676E-17
3.532555E+03	1.004298E-15	1.108705E-17
3.542450E+03	1.002339E-15	1.105856E-17
3.552345E+03	1.000496E-15	1.103134E-17
3.562240E+03	9.987710E-16	1.100542E-17
3.572135E+03	9.971721E-16	1.098089E-17
3.582030E+03	9.957011E-16	1.095777E-17
3.591926E+03	9.943626E-16	1.093610E-17
3.601821E+03	9.931623E-16	1.091594E-17
3.611716E+03	9.920996E-16	1.089729E-17
3.621611E+03	9.911834E-16	1.088023E-17
3.631506E+03	9.904120E-16	1.086475E-17
3.641401E+03	9.897937E-16	1.085094E-17
3.651296E+03	9.893274E-16	1.083878E-17
3.661191E+03	9.890173E-16	1.082831E-17
3.671086E+03	9.888676E-16	1.081957E-17
3.680982E+03	9.888746E-16	1.081253E-17
3.690877E+03	9.890467E-16	1.080727E-17
3.700772E+03	9.893830E-16	1.080378E-17
3.710667E+03	9.898887E-16	1.080210E-17
3.720562E+03	9.905577E-16	1.080218E-17
3.730457E+03	9.913989E-16	1.080410E-17
3.740352E+03	9.924097E-16	1.080783E-17
3.750247E+03	9.935881E-16	1.081335E-17
3.760142E+03	9.949369E-16	1.082069E-17
3.770038E+03	9.964590E-16	1.082986E-17
3.779933E+03	9.981520E-16	1.084085E-17
3.789828E+03	1.000015E-15	1.085364E-17
3.799723E+03	1.002049E-15	1.086823E-17
3.809618E+03	1.004249E-15	1.088456E-17
3.819513E+03	1.006618E-15	1.090268E-17
3.829408E+03	1.009151E-15	1.092250E-17
3.839303E+03	1.011849E-15	1.094406E-17
3.849198E+03	1.014707E-15	1.096728E-17
3.859094E+03	1.017725E-15	1.099217E-17
3.868989E+03	1.020897E-15	1.101865E-17
3.878884E+03	1.024219E-15	1.104668E-17
3.888779E+03	1.027691E-15	1.107626E-17
3.898674E+03	1.031304E-15	1.110728E-17
3.908569E+03	1.035054E-15	1.113971E-17
3.918464E+03	1.038935E-15	1.117346E-17
3.928359E+03	1.042946E-15	1.120852E-17
3.938255E+03	1.047075E-15	1.124478E-17
3.948150E+03	1.051321E-15	1.128221E-17
3.958045E+03	1.055667E-15	1.132063E-17
3.967940E+03	1.060115E-15	1.136005E-17
3.977835E+03	1.064652E-15	1.140033E-17
3.987730E+03	1.069269E-15	1.144139E-17
3.997625E+03	1.073958E-15	1.148313E-17
4.007520E+03	1.078710E-15	1.152544E-17
4.017415E+03	1.083511E-15	1.156818E-17
4.027311E+03	1.088354E-15	1.161129E-17
4.037206E+03	1.093232E-15	1.165466E-17
4.047101E+03	1.098127E-15	1.169813E-17
4.056996E+03	1.103027E-15	1.174155E-17
4.066891E+03	1.107929E-15	1.178491E-17
4.076786E+03	1.112815E-15	1.182799E-17
4.086681E+03	1.117673E-15	1.187069E-17
4.096576E+03	1.122489E-15	1.191284E-17
4.106471E+03	1.127257E-15	1.195440E-17
4.116367E+03	1.131968E-15	1.199527E-17
4.126262E+03	1.136597E-15	1.203517E-17
4.136157E+03	1.141145E-15	1.207413E-17
4.146052E+03	1.145599E-15	1.211200E-17
4.155947E+03	1.149943E-15	1.214863E-17
4.165842E+03	1.154171E-15	1.218395E-17
4.175737E+03	1.158269E-15	1.221782E-17
4.185632E+03	1.162236E-15	1.225023E-17
4.195527E+03	1.166059E-15	1.228106E-17
4.205423E+03	1.169739E-15	1.231029E-17
4.215318E+03	1.173264E-15	1.233784E-17
4.225213E+03	1.176629E-15	1.236363E-17
4.235108E+03	1.179836E-15	1.238770E-17
4.245003E+03	1.182882E-15	1.241002E-17
4.254898E+03	1.185774E-15	1.243067E-17
4.264793E+03	1.188512E-15	1.244965E-17
4.274688E+03	1.191094E-15	1.246694E-17
4.284583E+03	1.193524E-15	1.248260E-17
4.294479E+03	1.195802E-15	1.249662E-17
4.304374E+03	1.197923E-15	1.250896E-17
4.314269E+03	1.199894E-15	1.251969E-17
4.324164E+03	1.201708E-15	1.252875E-17
4.334059E+03	1.203375E-15	1.253625E-17
4.343954E+03	1.204903E-15	1.254227E-17
4.353849E+03	1.206302E-15	1.254692E-17
4.363744E+03	1.207576E-15	1.255025E-17
4.373639E+03	1.208742E-15	1.255243E-17
4.383535E+03	1.209805E-15	1.255353E-17
4.393430E+03	1.210776E-15	1.255365E-17
4.403325E+03	1.211681E-15	1.255308E-17
4.413220E+03	1.212519E-15	1.255179E-17
4.423115E+03	1.213307E-15	1.254999E-17
4.433010E+03	1.214059E-15	1.254780E-17
4.442905E+03	1.214786E-15	1.254534E-17
4.452800E+03	1.215499E-15	1.254273E-17
4.462695E+03	1.216202E-15	1.254001E-17
4.472591E+03	1.216912E-15	1.253736E-17
4.482486E+03	1.217638E-15	1.253488E-17
4.492381E+03	1.218374E-15	1.253249E-17
4.502276E+03	1.219151E-15	1.253051E-17
4.512171E+03	1.219960E-15	1.252887E-17
4.522066E+03	1.220807E-15	1.252762E-17
4.531961E+03	1.221715E-15	1.252698E-17
4.541856E+03	1.222681E-15	1.252693E-17
4.551751E+03	1.223726E-15	1.252770E-17
4.561647E+03	1.224864E-15	1.252941E-17
4.571542E+03	1.226110E-15	1.253222E-17
4.581437E+03	1.227487E-15	1.253637E-17
4.591332E+03	1.228976E-15	1.254166E-17
4.601227E+03	1.230552E-15	1.254782E-17
4.611122E+03	1.232187E-15	1.255458E-17
4.621017E+03	1.233854E-15	1.256167E-17
4.630912E+03	1.235527E-15	1.256881E-17
4.640807E+03	1.237190E-15	1.257583E-17
4.650703E+03	1.238844E-15	1.258278E-17
4.660598E+03	1.240476E-15	1.258948E-17
4.670493E+03	1.242071E-15	1.259583E-17
4.680388E+03	1.243647E-15	1.260196E-17
4.690283E+03	1.245181E-15	1.260769E-17
4.700178E+03	1.246702E-15	1.261329E-17
4.710073E+03	1.248200E-15	1.261865E-17
4.719968E+03	1.249674E-15	1.262379E-17
4.729863E+03	1.251136E-15	1.262881E-17
4.739759E+03	1.252594E-15	1.263380E-17
4.749654E+03	1.254057E-15	1.263886E-17
4.759549E+03	1.255525E-15	1.264398E-17
4.769444E+03	1.256995E-15	1.264913E-17
4.779339E+03	1.258473E-15	1.265438E-17
4.789234E+03	1.259974E-15	1.265988E-17
4.799129E+03	1.261483E-15	1.266548E-17
4.809024E+03	1.263001E-15	1.267118E-17
4.818919E+03	1.264530E-15	1.267702E-17
4.828815E+03	1.266069E-15	1.268299E-17
4.838710E+03	1.267598E-15	1.268887E-17
4.848605E+03	1.269135E-15	1.269485E-17
4.858500E+03	1.270656E-15	1.270071E-17
4.868395E+03	1.272158E-15	1.270640E-17
4.878290E+03	1.273639E-15	1.271190E-17
4.888185E+03	1.275082E-15	1.271707E-17
4.898080E+03	1.276485E-15	1.272188E-17
4.907975E+03	1.277856E-15	1.272639E-17
4.917871E+03	1.279158E-15	1.273026E-17
4.927766E+03	1.280411E-15	1.273367E-17
4.937661E+03	1.281591E-15	1.273641E-17
4.947556E+03	1.282696E-15	1.273845E-17
4.957451E+03	1.283738E-15	1.273991E-17
4.967346E+03	1.284705E-15	1.274068E-17
4.977241E+03	1.285577E-15	1.274056E-17
4.987136E+03	1.286378E-15	1.273980E-17
4.997031E+03	1.287101E-15	1.273831E-17
5.006927E+03	1.287738E-15	1.273604E-17
5.016822E+03	1.288295E-15	1.273304E-17
5.026717E+03	1.288777E-15	1.272937E-17
5.036612E+03	1.289192E-15	1.272511E-17
5.046507E+03	1.289525E-15	1.272011E-17
5.056402E+03	1.289808E-15	1.271469E-17
5.066297E+03	1.290015E-15	1.270860E-17
5.076192E+03	1.290191E-15	1.270228E-17
5.086087E+03	1.290300E-15	1.269539E-17
5.095983E+03	1.290388E-15	1.268837E-17
5.105878E+03	1.290442E-15	1.268111E-17
5.115773E+03	1.290462E-15	1.267359E-17
5.125668E+03	1.290469E-15	1.266604E-17
5.135563E+03	1.290473E-15	1.265856E-17
5.145458E+03	1.290461E-15	1.265100E-17
5.155353E+03	1.290451E-15	1.264357E-17
5.165248E+03	1.290439E-15	1.263621E-17
5.175143E+03	1.290430E-15	1.262898E-17
5.185039E+03	1.290429E-15	1.262192E-17
5.194934E+03	1.290425E-15	1.261494E-17
5.204829E+03	1.290418E-15	1.260804E-17
5.214724E+03	1.290395E-15	1.260108E-17
5.224619E+03	1.290352E-15	1.259403E-17
5.234514E+03	1.290284E-15	1.258685E-17
5.244409E+03	1.290171E-15	1.257934E-17
5.254304E+03	1.289992E-15	1.257129E-17
5.264199E+03	1.289748E-15	1.256273E-17
5.274095E+03	1.289403E-15	1.255331E-17
5.283990E+03	1.288945E-15	1.254290E-17
5.293885E+03	1.288348E-15	1.253127E-17
5.303780E+03	1.287586E-15	1.251814E-17
5.313675E+03	1.286658E-15	1.250353E-17
5.323570E+03	1.285513E-15	1.248693E-17
5.333465E+03	1.284138E-15	1.246822E-17
5.343360E+03	1.282508E-15	1.244716E-17
5.353255E+03	1.280588E-15	1.242341E-17
5.363151E+03	1.278329E-15	1.239649E-17
5.373046E+03	1.275748E-15	1.236659E-17
5.382941E+03	1.272867E-15	1.233389E-17
5.392836E+03	1.269693E-15	1.229849E-17
5.402731E+03	1.266225E-15	1.226038E-17
5.412626E+03	1.262452E-15	1.221943E-17
5.422521E+03	1.258388E-15	1.217581E-17
5.432416E+03	1.254028E-15	1.212944E-17
5.442311E+03	1.249378E-15	1.208041E-17
5.452207E+03	1.244448E-15	1.202879E-17
5.462102E+03	1.239276E-15	1.197497E-17
5.471997E+03	1.233848E-15	1.191880E-17
5.481892E+03	1.228205E-15	1.186068E-17
5.491787E+03	1.222360E-15	1.180075E-17
5.501682E+03	1.216343E-15	1.173928E-17
5.511577E+03	1.210155E-15	1.167629E-17
5.521472E+03	1.203824E-15	1.161203E-17
5.531368E+03	1.197375E-15	1.154676E-17
5.541263E+03	1.190821E-15	1.148061E-17
5.551158E+03	1.184187E-15	1.141381E-17
5.561053E+03	1.177471E-15	1.134632E-17
5.570948E+03	1.170693E-15	1.127836E-17
5.580843E+03	1.163876E-15	1.121014E-17
5.590738E+03	1.157012E-15	1.114158E-17
5.600633E+03	1.150134E-15	1.107300E-17
5.610528E+03	1.143232E-15	1.100429E-17
5.620424E+03	1.136324E-15	1.093563E-17
5.630319E+03	1.129425E-15	1.086716E-17
5.640214E+03	1.122510E-15	1.079865E-17
5.650109E+03	1.115621E-15	1.073048E-17
5.660004E+03	1.108744E-15	1.066253E-17
5.669899E+03	1.101880E-15	1.059480E-17
5.679794E+03	1.095042E-15	1.052742E-17
5.689689E+03	1.088230E-15	1.046037E-17
5.699584E+03	1.081443E-15	1.039366E-17
5.709480E+03	1.074692E-15	1.032739E-17
5.719375E+03	1.067977E-15	1.026155E-17
5.729270E+03	1.061284E-15	1.019600E-17
5.739165E+03	1.054637E-15	1.013099E-17
5.749060E+03	1.048036E-15	1.006649E-17
5.758955E+03	1.041465E-15	1.000237E-17
5.768850E+03	1.034950E-15	9.938865E-18
5.778745E+03	1.028464E-15	9.875708E-18
5.788640E+03	1.022044E-15	9.813264E-18
5.798536E+03	1.015650E-15	9.751143E-18
5.808431E+03	1.009320E-15	9.689710E-18
5.818326E+03	1.003040E-15	9.628833E-18
5.828221E+03	9.968101E-16	9.568499E-18
5.838116E+03	9.906422E-16	9.508831E-18
5.848011E+03	9.845358E-16	9.449819E-18
5.857906E+03	9.784783E-16	9.391341E-18
5.867801E+03	9.724951E-16	9.333641E-18
5.877696E+03	9.665743E-16	9.276600E-18
5.887592E+03	9.607288E-16	9.220344E-18
5.897487E+03	9.549471E-16	9.164760E-18
5.907382E+03	9.492561E-16	9.110103E-18
5.917277E+03	9.436308E-16	9.056136E-18
5.927172E+03	9.381131E-16	9.003256E-18
5.937067E+03	9.326781E-16	8.951226E-18
5.946962E+03	9.273417E-16	8.900194E-18
5.956857E+03	9.221062E-16	8.850185E-18
5.966752E+03	9.170009E-16	8.801477E-18
5.976648E+03	9.120027E-16	8.753847E-18
5.986543E+03	9.071412E-16	8.707580E-18
5.996438E+03	9.024067E-16	8.662581E-18
6.006333E+03	8.978296E-16	8.619140E-18
6.016228E+03	8.934135E-16	8.577293E-18
6.026123E+03	8.891625E-16	8.537078E-18
6.036018E+03	8.850806E-16	8.498533E-18
6.045913E+03	8.811983E-16	8.461951E-18
6.055808E+03	8.775202E-16	8.427375E-18
6.065704E+03	8.740366E-16	8.394712E-18
6.075599E+03	8.707522E-16	8.364007E-18
6.085494E+03	8.676711E-16	8.335299E-18
6.095389E+03	8.647706E-16	8.308368E-18
6.105284E+03	8.620410E-16	8.283122E-18
6.115179E+03	8.594869E-16	8.259603E-18
6.125074E+03	8.570715E-16	8.237458E-18
6.134969E+03	8.547984E-16	8.216719E-18
6.144864E+03	8.526572E-16	8.197289E-18
6.154760E+03	8.506374E-16	8.179062E-18
6.164655E+03	8.487401E-16	8.162051E-18
6.174550E+03	8.469382E-16	8.145996E-18
6.184445E+03	8.452299E-16	8.130875E-18
6.194340E+03	8.436103E-16	8.116644E-18
6.204235E+03	8.420465E-16	8.102984E-18
6.214130E+03	8.405448E-16	8.089957E-18
6.224025E+03	8.390839E-16	8.077355E-18
6.233920E+03	8.376419E-16	8.064969E-18
6.243816E+03	8.362253E-16	8.052859E-18
6.253711E+03	8.347986E-16	8.040681E-18
6.263606E+03	8.333540E-16	8.028364E-18
6.273501E+03	8.318985E-16	8.015970E-18
6.283396E+03	8.303975E-16	8.003166E-18
6.293291E+03	8.288445E-16	7.989888E-18
6.303186E+03	8.272470E-16	7.976209E-18
6.313081E+03	8.255991E-16	7.962070E-18
6.322976E+03	8.238674E-16	7.947147E-18
6.332872E+03	8.220889E-16	7.931797E-18
6.342767E+03	8.202447E-16	7.915835E-18
6.352662E+03	8.183445E-16	7.899354E-18
6.362557E+03	8.163846E-16	7.882319E-18
6.372452E+03	8.143607E-16	7.864685E-18
6.382347E+03	8.122983E-16	7.846699E-18
6.392242E+03	8.101656E-16	7.828052E-18
6.402137E+03	8.079882E-16	7.808989E-18
6.412032E+03	8.057631E-16	7.789482E-18
6.421928E+03	8.034877E-16	7.769504E-18
6.431823E+03	8.011598E-16	7.749033E-18
6.441718E+03	7.987908E-16	7.728178E-18
6.451613E+03	7.963791E-16	7.706922E-18
6.461508E+03	7.939218E-16	7.685237E-18
6.471403E+03	7.914169E-16	7.663103E-18
6.481298E+03	7.888628E-16	7.640502E-18
6.491193E+03	7.862860E-16	7.617691E-18
6.501088E+03	7.836557E-16	7.594370E-18
6.510984E+03	7.809703E-16	7.570524E-18
6.520879E+03	7.782578E-16	7.546421E-18
6.530774E+03	7.755018E-16	7.521904E-18
6.540669E+03	7.727014E-16	7.496961E-18
6.550564E+03	7.698702E-16	7.471724E-18
6.560459E+03	7.669788E-16	7.445908E-18
6.570354E+03	7.640559E-16	7.419789E-18
6.580249E+03	7.611016E-16	7.393368E-18
6.590144E+03	7.581015E-16	7.366504E-18
6.600040E+03	7.550562E-16	7.339202E-18
6.609935E+03	7.519818E-16	7.311618E-18
6.619830E+03	7.488644E-16	7.283616E-18
6.629725E+03	7.457207E-16	7.255358E-18
6.639620E+03	7.425526E-16	7.226861E-18
6.649515E+03	7.393474E-16	7.198001E-18
6.659410E+03	7.361222E-16	7.168944E-18
6.669305E+03	7.328648E-16	7.139572E-18
6.679200E+03	7.295929E-16	7.110054E-18
6.689096E+03	7.262948E-16	7.080277E-18
6.698991E+03	7.229883E-16	7.050414E-18
6.708886E+03	7.196618E-16	7.020351E-18
6.718781E+03	7.163333E-16	6.990265E-18
6.728676E+03	7.129918E-16	6.960045E-18
6.738571E+03	7.096547E-16	6.929863E-18
6.748466E+03	7.063113E-16	6.899612E-18
6.758361E+03	7.029645E-16	6.869323E-18
6.768256E+03	6.996325E-16	6.839171E-18
6.778152E+03	6.963040E-16	6.809047E-18
6.788047E+03	6.929819E-16	6.778979E-18
6.797942E+03	6.896695E-16	6.748998E-18
6.807837E+03	6.863845E-16	6.719278E-18
6.817732E+03	6.831150E-16	6.689703E-18
6.827627E+03	6.798490E-16	6.660154E-18
6.837522E+03	6.766191E-16	6.630952E-18
6.847417E+03	6.734125E-16	6.601970E-18
6.857312E+03	6.702319E-16	6.573235E-18
6.867208E+03	6.670647E-16	6.544624E-18
6.877103E+03	6.639426E-16	6.516449E-18
6.886998E+03	6.608380E-16	6.488437E-18
6.896893E+03	6.577675E-16	6.460753E-18
6.906788E+03	6.547328E-16	6.433413E-18
6.916683E+03	6.517206E-16	6.406288E-18
6.926578E+03	6.487469E-16	6.379534E-18
6.936473E+03	6.458137E-16	6.353171E-18
6.946368E+03	6.429065E-16	6.327057E-18
6.956264E+03	6.400417E-16	6.301354E-18
6.966159E+03	6.372052E-16	6.275923E-18
6.976054E+03	6.344128E-16	6.250921E-18
6.985949E+03	6.316498E-16	6.226201E-18
6.995844E+03	6.289175E-16	6.201780E-18
7.005739E+03	6.262162E-16	6.177657E-18
7.015634E+03	6.235609E-16	6.153984E-18
7.025529E+03	6.209373E-16	6.130619E-18
7.035425E+03	6.183456E-16	6.107563E-18
7.045320E+03	6.157862E-16	6.084823E-18
7.055215E+03	6.132739E-16	6.062542E-18
7.065110E+03	6.107793E-16	6.040433E-18
7.075005E+03	6.083172E-16	6.018642E-18
7.084900E+03	6.058881E-16	5.997173E-18
7.094795E+03	6.035059E-16	5.976166E-18
7.104690E+03	6.011415E-16	5.955332E-18
7.114585E+03	5.988097E-16	5.934818E-18
7.124481E+03	5.964955E-16	5.914476E-18
7.134376E+03	5.942286E-16	5.894602E-18
7.144271E+03	5.919789E-16	5.874895E-18
7.154166E+03	5.897615E-16	5.855508E-18
7.164061E+03	5.875760E-16	5.836436E-18
7.173956E+03	5.854227E-16	5.817683E-18
7.183851E+03	5.832862E-16	5.799096E-18
7.193746E+03	5.811815E-16	5.780825E-18
7.203641E+03	5.791082E-16	5.762866E-18
7.213537E+03	5.770515E-16	5.745073E-18
7.223432E+03	5.750265E-16	5.727596E-18
7.233327E+03	5.730326E-16	5.710428E-18
7.243222E+03	5.710701E-16	5.693576E-18
7.253117E+03	5.691242E-16	5.676890E-18
7.263012E+03	5.672098E-16	5.660520E-18
7.272907E+03	5.653267E-16	5.644466E-18
7.282802E+03	5.634900E-16	5.628877E-18
7.292697E+03	5.616700E-16	5.613457E-18
7.302593E+03	5.598821E-16	5.598362E-18
7.312488E+03	5.581416E-16	5.583745E-18
7.322383E+03	5.564185E-16	5.569306E-18
7.332278E+03	5.547586E-16	5.555504E-18
7.342173E+03	5.531327E-16	5.542048E-18
7.352068E+03	5.515410E-16	5.528941E-18
7.361963E+03	5.500146E-16	5.516495E-18
7.371858E+03	5.485400E-16	5.504575E-18
7.381753E+03	5.471182E-16	5.493193E-18
7.391649E+03	5.457655E-16	5.482514E-18
7.401544E+03	5.444692E-16	5.472410E-18
7.411439E+03	5.432460E-16	5.463051E-18
7.421334E+03	5.420839E-16	5.454319E-18
7.431229E+03	5.409697E-16	5.446080E-18
7.441124E+03	5.399221E-16	5.438524E-18
7.451019E+03	5.389297E-16	5.431538E-18
7.460914E+03	5.380107E-16	5.425307E-18
7.470809E+03	5.371551E-16	5.419729E-18
7.480705E+03	5.363516E-16	5.414694E-18
7.490600E+03	5.356356E-16	5.410560E-18
7.500495E+03	5.349816E-16	5.407070E-18
7.510390E+03	5.344103E-16	5.404434E-18
7.520285E+03	5.339094E-16	5.402530E-18
7.530180E+03	5.334982E-16	5.401552E-18
7.540075E+03	5.331616E-16	5.401350E-18
7.549970E+03	5.329137E-16	5.402067E-18
7.559865E+03	5.327363E-16	5.403519E-18
7.569761E+03	5.326240E-16	5.405652E-18
7.579656E+03	5.325717E-16	5.408416E-18
7.589551E+03	5.325739E-16	5.411756E-18
7.599446E+03	5.326249E-16	5.415613E-18
7.609341E+03	5.327356E-16	5.420099E-18
7.619236E+03	5.328688E-16	5.424836E-18
7.629131E+03	5.330366E-16	5.429947E-18
7.639026E+03	5.332344E-16	5.435387E-18
7.648921E+03	5.334584E-16	5.441115E-18
7.658817E+03	5.336887E-16	5.446929E-18
7.668712E+03	5.339389E-16	5.452969E-18
7.678607E+03	5.342051E-16	5.459193E-18
