#wls	flux	fluxerr
1.583218E+03	6.207011E-19	3.590445E-20
1.622798E+03	6.502649E-19	3.748215E-20
1.662379E+03	6.734175E-19	3.867628E-20
1.701959E+03	6.891699E-19	3.943386E-20
1.741540E+03	6.960997E-19	3.967826E-20
1.781120E+03	6.922434E-19	3.930362E-20
1.820701E+03	6.751355E-19	3.817775E-20
1.860281E+03	6.424337E-19	3.617806E-20
1.899861E+03	5.938997E-19	3.330262E-20
1.939442E+03	5.310940E-19	2.965068E-20
1.979022E+03	4.597468E-19	2.555219E-20
2.018603E+03	3.896857E-19	2.155841E-20
2.058183E+03	3.321003E-19	1.828564E-20
2.097764E+03	2.965846E-19	1.625071E-20
2.137344E+03	2.886524E-19	1.573709E-20
2.176925E+03	3.109213E-19	1.686424E-20
2.216505E+03	3.642101E-19	1.965058E-20
2.256085E+03	4.485345E-19	2.406936E-20
2.295666E+03	5.612073E-19	2.994846E-20
2.335246E+03	6.979628E-19	3.703408E-20
2.374827E+03	8.537754E-19	4.503652E-20
2.414407E+03	1.023490E-18	5.366478E-20
2.453988E+03	1.202845E-18	6.268020E-20
2.493568E+03	1.390324E-18	7.199152E-20
2.533149E+03	1.583332E-18	8.145344E-20
2.572729E+03	1.782127E-18	9.106974E-20
2.612310E+03	1.986287E-18	1.008091E-19
2.651890E+03	2.196806E-18	1.107120E-19
2.691470E+03	2.414481E-18	1.208072E-19
2.731051E+03	2.640271E-18	1.311303E-19
2.770631E+03	2.875954E-18	1.417555E-19
2.810212E+03	3.121292E-18	1.526552E-19
2.849792E+03	3.379728E-18	1.639808E-19
2.889373E+03	3.652742E-18	1.757831E-19
2.928953E+03	3.940999E-18	1.880713E-19
2.968534E+03	4.247763E-18	2.009761E-19
2.978429E+03	4.327095E-18	2.042836E-19
2.988324E+03	4.408171E-18	2.076550E-19
2.998219E+03	4.491033E-18	2.110918E-19
3.008114E+03	4.575017E-18	2.145623E-19
3.018009E+03	4.661931E-18	2.181504E-19
3.027904E+03	4.751775E-18	2.218554E-19
3.037799E+03	4.845366E-18	2.257140E-19
3.047694E+03	4.942616E-18	2.297211E-19
3.057590E+03	5.042612E-18	2.338329E-19
3.067485E+03	5.146176E-18	2.380867E-19
3.077380E+03	5.252162E-18	2.424280E-19
3.087275E+03	5.362462E-18	2.469433E-19
3.097170E+03	5.474925E-18	2.515322E-19
3.107065E+03	5.590463E-18	2.562356E-19
3.116960E+03	5.707918E-18	2.609996E-19
3.126855E+03	5.829321E-18	2.659160E-19
3.136750E+03	5.952455E-18	2.708825E-19
3.146646E+03	6.079418E-18	2.759937E-19
3.156541E+03	6.207956E-18	2.811460E-19
3.166436E+03	6.339109E-18	2.863859E-19
3.176331E+03	6.472827E-18	2.917101E-19
3.186226E+03	6.610229E-18	2.971678E-19
3.196121E+03	6.748984E-18	3.026533E-19
3.206016E+03	6.891390E-18	3.082688E-19
3.215911E+03	7.036273E-18	3.139604E-19
3.225806E+03	7.183620E-18	3.197267E-19
3.235702E+03	7.333425E-18	3.255663E-19
3.245597E+03	7.486922E-18	3.315331E-19
3.255492E+03	7.642901E-18	3.375721E-19
3.265387E+03	7.801374E-18	3.436830E-19
3.275282E+03	7.963635E-18	3.499216E-19
3.285177E+03	8.129731E-18	3.562884E-19
3.295072E+03	8.298439E-18	3.627287E-19
3.304967E+03	8.471093E-18	3.692994E-19
3.314862E+03	8.647768E-18	3.760025E-19
3.324758E+03	8.828532E-18	3.828393E-19
3.334653E+03	9.012131E-18	3.897540E-19
3.344548E+03	9.199971E-18	3.968061E-19
3.354443E+03	9.393498E-18	4.040563E-19
3.364338E+03	9.590088E-18	4.113898E-19
3.374233E+03	9.792581E-18	4.189269E-19
3.384128E+03	9.999703E-18	4.266111E-19
3.394023E+03	1.021299E-17	4.345058E-19
3.403918E+03	1.043114E-17	4.425537E-19
3.413814E+03	1.065427E-17	4.507579E-19
3.423709E+03	1.088392E-17	4.591816E-19
3.433604E+03	1.112028E-17	4.678296E-19
3.443499E+03	1.136200E-17	4.766437E-19
3.453394E+03	1.161070E-17	4.856888E-19
3.463289E+03	1.186803E-17	4.950317E-19
3.473184E+03	1.213117E-17	5.045514E-19
3.483079E+03	1.240329E-17	5.143776E-19
3.492974E+03	1.268306E-17	5.244520E-19
3.502870E+03	1.297065E-17	5.347781E-19
3.512765E+03	1.326779E-17	5.454247E-19
3.522660E+03	1.357312E-17	5.563323E-19
3.532555E+03	1.388839E-17	5.675693E-19
3.542450E+03	1.421383E-17	5.791415E-19
3.552345E+03	1.454966E-17	5.910537E-19
3.562240E+03	1.489609E-17	6.033106E-19
3.572135E+03	1.525335E-17	6.159177E-19
3.582030E+03	1.562329E-17	6.289459E-19
3.591926E+03	1.600289E-17	6.422683E-19
3.601821E+03	1.639732E-17	6.560890E-19
3.611716E+03	1.680356E-17	6.702812E-19
3.621611E+03	1.722181E-17	6.848492E-19
3.631506E+03	1.765572E-17	6.999333E-19
3.641401E+03	1.810391E-17	7.154723E-19
3.651296E+03	1.856489E-17	7.314032E-19
3.661191E+03	1.904240E-17	7.478674E-19
3.671086E+03	1.953677E-17	7.648721E-19
3.680982E+03	2.004652E-17	7.823531E-19
3.690877E+03	2.057373E-17	8.003857E-19
3.700772E+03	2.111692E-17	8.189058E-19
3.710667E+03	2.167816E-17	8.379880E-19
3.720562E+03	2.225962E-17	8.577089E-19
3.730457E+03	2.285980E-17	8.780036E-19
3.740352E+03	2.347903E-17	8.988776E-19
3.750247E+03	2.411760E-17	9.203356E-19
3.760142E+03	2.477962E-17	9.425265E-19
3.770038E+03	2.546166E-17	9.653119E-19
3.779933E+03	2.616596E-17	9.887690E-19
3.789828E+03	2.689478E-17	1.012975E-18
3.799723E+03	2.764462E-17	1.037790E-18
3.809618E+03	2.841971E-17	1.063364E-18
3.819513E+03	2.922039E-17	1.089701E-18
3.829408E+03	3.004508E-17	1.116733E-18
3.839303E+03	3.089808E-17	1.144611E-18
3.849198E+03	3.177577E-17	1.173192E-18
3.859094E+03	3.268251E-17	1.202627E-18
3.868989E+03	3.361664E-17	1.232844E-18
3.878884E+03	3.458056E-17	1.263924E-18
3.888779E+03	3.557256E-17	1.295791E-18
3.898674E+03	3.659714E-17	1.328602E-18
3.908569E+03	3.765046E-17	1.362204E-18
3.918464E+03	3.873708E-17	1.396754E-18
3.928359E+03	3.985521E-17	1.432175E-18
3.938255E+03	4.100733E-17	1.468546E-18
3.948150E+03	4.219159E-17	1.505790E-18
3.958045E+03	4.341048E-17	1.543984E-18
3.967940E+03	4.466429E-17	1.583128E-18
3.977835E+03	4.595333E-17	1.623222E-18
3.987730E+03	4.728013E-17	1.664342E-18
3.997625E+03	4.864273E-17	1.706409E-18
4.007520E+03	5.004368E-17	1.749500E-18
4.017415E+03	5.148094E-17	1.793533E-18
4.027311E+03	5.295706E-17	1.838585E-18
4.037206E+03	5.447227E-17	1.884652E-18
4.047101E+03	5.602683E-17	1.931732E-18
4.056996E+03	5.762096E-17	1.979821E-18
4.066891E+03	5.925723E-17	2.028995E-18
4.076786E+03	6.093351E-17	2.079170E-18
4.086681E+03	6.265238E-17	2.130423E-18
4.096576E+03	6.441165E-17	2.182668E-18
4.106471E+03	6.621148E-17	2.235900E-18
4.116367E+03	6.805691E-17	2.290277E-18
4.126262E+03	6.994327E-17	2.345632E-18
4.136157E+03	7.187314E-17	2.402041E-18
4.146052E+03	7.384423E-17	2.459417E-18
4.155947E+03	7.586164E-17	2.517920E-18
4.165842E+03	7.792302E-17	2.577463E-18
4.175737E+03	8.002600E-17	2.637955E-18
4.185632E+03	8.217316E-17	2.699476E-18
4.195527E+03	8.436719E-17	2.762103E-18
4.205423E+03	8.660305E-17	2.825663E-18
4.215318E+03	8.888081E-17	2.890152E-18
4.225213E+03	9.120563E-17	2.955728E-18
4.235108E+03	9.357241E-17	3.022221E-18
4.245003E+03	9.598375E-17	3.089707E-18
4.254898E+03	9.843704E-17	3.158097E-18
4.264793E+03	1.009349E-16	3.227470E-18
4.274688E+03	1.034747E-16	3.297736E-18
4.284583E+03	1.060564E-16	3.368890E-18
4.294479E+03	1.086826E-16	3.441013E-18
4.304374E+03	1.113480E-16	3.513932E-18
4.314269E+03	1.140552E-16	3.587730E-18
4.324164E+03	1.168043E-16	3.662406E-18
4.334059E+03	1.195927E-16	3.737876E-18
4.343954E+03	1.224230E-16	3.814229E-18
4.353849E+03	1.252927E-16	3.891382E-18
4.363744E+03	1.281993E-16	3.969259E-18
4.373639E+03	1.311484E-16	4.048038E-18
4.383535E+03	1.341348E-16	4.127560E-18
4.393430E+03	1.371586E-16	4.207835E-18
4.403325E+03	1.402203E-16	4.288880E-18
4.413220E+03	1.433200E-16	4.370705E-18
4.423115E+03	1.464551E-16	4.453238E-18
4.433010E+03	1.496261E-16	4.536500E-18
4.442905E+03	1.528302E-16	4.620417E-18
4.452800E+03	1.560647E-16	4.704917E-18
4.462695E+03	1.593267E-16	4.789925E-18
4.472591E+03	1.626137E-16	4.875374E-18
4.482486E+03	1.659196E-16	4.961102E-18
4.492381E+03	1.692503E-16	5.047298E-18
4.502276E+03	1.725997E-16	5.133792E-18
4.512171E+03	1.759706E-16	5.220690E-18
4.522066E+03	1.793572E-16	5.307827E-18
4.531961E+03	1.827651E-16	5.395389E-18
4.541856E+03	1.861881E-16	5.483212E-18
4.551751E+03	1.896236E-16	5.571231E-18
4.561647E+03	1.930744E-16	5.659548E-18
4.571542E+03	1.965349E-16	5.748023E-18
4.581437E+03	2.000025E-16	5.836595E-18
4.591332E+03	2.034779E-16	5.925306E-18
4.601227E+03	2.069590E-16	6.014115E-18
4.611122E+03	2.104440E-16	6.102995E-18
4.621017E+03	2.139316E-16	6.191930E-18
4.630912E+03	2.174206E-16	6.280907E-18
4.640807E+03	2.209106E-16	6.369939E-18
4.650703E+03	2.244042E-16	6.459124E-18
4.660598E+03	2.278987E-16	6.548409E-18
4.670493E+03	2.313976E-16	6.637918E-18
4.680388E+03	2.348987E-16	6.727613E-18
4.690283E+03	2.384063E-16	6.817645E-18
4.700178E+03	2.419247E-16	6.908156E-18
4.710073E+03	2.454488E-16	6.999031E-18
4.719968E+03	2.489860E-16	7.090499E-18
4.729863E+03	2.525306E-16	7.182431E-18
4.739759E+03	2.560920E-16	7.275114E-18
4.749654E+03	2.596637E-16	7.368396E-18
4.759549E+03	2.632443E-16	7.462256E-18
4.769444E+03	2.668318E-16	7.556670E-18
4.779339E+03	2.704236E-16	7.651588E-18
4.789234E+03	2.740188E-16	7.747019E-18
4.799129E+03	2.776136E-16	7.842876E-18
4.809024E+03	2.812090E-16	7.939222E-18
4.818919E+03	2.848031E-16	8.036029E-18
4.828815E+03	2.883896E-16	8.133150E-18
4.838710E+03	2.919650E-16	8.230519E-18
4.848605E+03	2.955291E-16	8.328155E-18
4.858500E+03	2.990712E-16	8.425787E-18
4.868395E+03	3.025936E-16	8.523513E-18
4.878290E+03	3.060855E-16	8.621054E-18
4.888185E+03	3.095491E-16	8.718507E-18
4.898080E+03	3.129735E-16	8.815581E-18
4.907975E+03	3.163582E-16	8.912276E-18
4.917871E+03	3.196996E-16	9.008504E-18
4.927766E+03	3.229906E-16	9.104078E-18
4.937661E+03	3.262359E-16	9.199135E-18
4.947556E+03	3.294295E-16	9.293522E-18
4.957451E+03	3.325699E-16	9.387199E-18
4.967346E+03	3.356600E-16	9.480256E-18
4.977241E+03	3.386962E-16	9.572597E-18
4.987136E+03	3.416897E-16	9.664545E-18
4.997031E+03	3.446317E-16	9.755849E-18
5.006927E+03	3.475353E-16	9.846886E-18
5.016822E+03	3.504033E-16	9.937739E-18
5.026717E+03	3.532365E-16	1.002843E-17
5.036612E+03	3.560462E-16	1.011928E-17
5.046507E+03	3.588338E-16	1.021033E-17
5.056402E+03	3.616159E-16	1.030205E-17
5.066297E+03	3.643904E-16	1.039440E-17
5.076192E+03	3.671707E-16	1.048774E-17
5.086087E+03	3.699657E-16	1.058234E-17
5.095983E+03	3.727775E-16	1.067826E-17
5.105878E+03	3.756182E-16	1.077586E-17
5.115773E+03	3.784923E-16	1.087525E-17
5.125668E+03	3.814074E-16	1.097669E-17
5.135563E+03	3.843706E-16	1.108036E-17
5.145458E+03	3.873835E-16	1.118632E-17
5.155353E+03	3.904517E-16	1.129475E-17
5.165248E+03	3.935790E-16	1.140577E-17
5.175143E+03	3.967611E-16	1.151925E-17
5.185039E+03	4.000075E-16	1.163549E-17
5.194934E+03	4.033159E-16	1.175442E-17
5.204829E+03	4.066825E-16	1.187596E-17
5.214724E+03	4.101060E-16	1.200006E-17
5.224619E+03	4.135852E-16	1.212672E-17
5.234514E+03	4.171130E-16	1.225572E-17
5.244409E+03	4.206898E-16	1.238709E-17
5.254304E+03	4.243029E-16	1.252046E-17
5.264199E+03	4.279512E-16	1.265581E-17
5.274095E+03	4.316245E-16	1.279285E-17
5.283990E+03	4.353115E-16	1.293123E-17
5.293885E+03	4.390092E-16	1.307089E-17
5.303780E+03	4.427054E-16	1.321144E-17
5.313675E+03	4.463873E-16	1.335250E-17
5.323570E+03	4.500460E-16	1.349382E-17
5.333465E+03	4.536729E-16	1.363512E-17
5.343360E+03	4.572538E-16	1.377596E-17
5.353255E+03	4.607847E-16	1.391622E-17
5.363151E+03	4.642425E-16	1.405518E-17
5.373046E+03	4.676230E-16	1.419268E-17
5.382941E+03	4.709176E-16	1.432846E-17
5.392836E+03	4.741136E-16	1.446209E-17
5.402731E+03	4.772031E-16	1.459331E-17
5.412626E+03	4.801747E-16	1.472174E-17
5.422521E+03	4.830268E-16	1.484729E-17
5.432416E+03	4.857488E-16	1.496961E-17
5.442311E+03	4.883315E-16	1.508837E-17
5.452207E+03	4.907658E-16	1.520325E-17
5.462102E+03	4.930496E-16	1.531415E-17
5.471997E+03	4.951761E-16	1.542080E-17
5.481892E+03	4.971455E-16	1.552317E-17
5.491787E+03	4.989543E-16	1.562110E-17
5.501682E+03	5.005907E-16	1.571417E-17
5.511577E+03	5.020645E-16	1.580264E-17
5.521472E+03	5.033722E-16	1.588636E-17
5.531368E+03	5.045179E-16	1.596539E-17
5.541263E+03	5.055022E-16	1.603971E-17
5.551158E+03	5.063372E-16	1.610967E-17
5.561053E+03	5.070279E-16	1.617535E-17
5.570948E+03	5.075849E-16	1.623707E-17
5.580843E+03	5.080163E-16	1.629504E-17
5.590738E+03	5.083413E-16	1.634983E-17
5.600633E+03	5.085657E-16	1.640160E-17
5.610528E+03	5.087164E-16	1.645117E-17
5.620424E+03	5.088015E-16	1.649880E-17
5.630319E+03	5.088343E-16	1.654487E-17
5.640214E+03	5.088396E-16	1.659019E-17
5.650109E+03	5.088317E-16	1.663520E-17
5.660004E+03	5.088315E-16	1.668058E-17
5.669899E+03	5.088536E-16	1.672681E-17
5.679794E+03	5.089140E-16	1.677440E-17
5.689689E+03	5.090366E-16	1.682416E-17
5.699584E+03	5.092317E-16	1.687643E-17
5.709480E+03	5.095174E-16	1.693183E-17
5.719375E+03	5.099068E-16	1.699081E-17
5.729270E+03	5.104205E-16	1.705410E-17
5.739165E+03	5.110636E-16	1.712187E-17
5.749060E+03	5.118445E-16	1.719446E-17
5.758955E+03	5.127782E-16	1.727239E-17
5.768850E+03	5.138642E-16	1.735568E-17
5.778745E+03	5.151081E-16	1.744457E-17
5.788640E+03	5.165091E-16	1.753906E-17
5.798536E+03	5.180684E-16	1.763923E-17
5.808431E+03	5.197793E-16	1.774489E-17
5.818326E+03	5.216330E-16	1.785578E-17
5.828221E+03	5.236189E-16	1.797158E-17
5.838116E+03	5.257283E-16	1.809200E-17
5.848011E+03	5.279508E-16	1.821674E-17
5.857906E+03	5.302649E-16	1.834506E-17
5.867801E+03	5.326573E-16	1.847653E-17
5.877696E+03	5.351092E-16	1.861052E-17
5.887592E+03	5.376011E-16	1.874635E-17
5.897487E+03	5.401179E-16	1.888351E-17
5.907382E+03	5.426400E-16	1.902131E-17
5.917277E+03	5.451483E-16	1.915909E-17
5.927172E+03	5.476291E-16	1.929634E-17
5.937067E+03	5.500653E-16	1.943247E-17
5.946962E+03	5.524404E-16	1.956686E-17
5.956857E+03	5.547449E-16	1.969916E-17
5.966752E+03	5.569658E-16	1.982890E-17
5.976648E+03	5.590920E-16	1.995563E-17
5.986543E+03	5.611186E-16	2.007918E-17
5.996438E+03	5.630376E-16	2.019920E-17
6.006333E+03	5.648480E-16	2.031565E-17
6.016228E+03	5.665456E-16	2.042833E-17
6.026123E+03	5.681319E-16	2.053727E-17
6.036018E+03	5.696051E-16	2.064237E-17
6.045913E+03	5.709647E-16	2.074359E-17
6.055808E+03	5.722213E-16	2.084127E-17
6.065704E+03	5.733762E-16	2.093542E-17
6.075599E+03	5.744359E-16	2.102627E-17
6.085494E+03	5.754027E-16	2.111388E-17
6.095389E+03	5.762901E-16	2.119870E-17
6.105284E+03	5.771003E-16	2.128080E-17
6.115179E+03	5.778466E-16	2.136065E-17
6.125074E+03	5.785271E-16	2.143816E-17
6.134969E+03	5.791656E-16	2.151420E-17
6.144864E+03	5.797602E-16	2.158868E-17
6.154760E+03	5.803244E-16	2.166211E-17
6.164655E+03	5.808725E-16	2.173499E-17
6.174550E+03	5.814194E-16	2.180790E-17
6.184445E+03	5.819747E-16	2.188118E-17
6.194340E+03	5.825537E-16	2.195541E-17
6.204235E+03	5.831724E-16	2.203121E-17
6.214130E+03	5.838530E-16	2.210941E-17
6.224025E+03	5.846125E-16	2.219068E-17
6.233920E+03	5.854620E-16	2.227546E-17
6.243816E+03	5.864247E-16	2.236465E-17
6.253711E+03	5.875235E-16	2.245915E-17
6.263606E+03	5.887638E-16	2.255920E-17
6.273501E+03	5.901793E-16	2.266614E-17
6.283396E+03	5.917753E-16	2.278021E-17
6.293291E+03	5.935730E-16	2.290226E-17
6.303186E+03	5.955801E-16	2.303266E-17
6.313081E+03	5.978221E-16	2.317244E-17
6.322976E+03	6.003043E-16	2.332186E-17
6.332872E+03	6.030358E-16	2.348134E-17
6.342767E+03	6.060176E-16	2.365098E-17
6.352662E+03	6.092597E-16	2.383124E-17
6.362557E+03	6.127573E-16	2.402198E-17
6.372452E+03	6.165016E-16	2.422294E-17
6.382347E+03	6.204867E-16	2.443393E-17
6.392242E+03	6.246962E-16	2.465437E-17
6.402137E+03	6.291100E-16	2.488352E-17
6.412032E+03	6.337039E-16	2.512046E-17
6.421928E+03	6.384617E-16	2.536460E-17
6.431823E+03	6.433454E-16	2.561446E-17
6.441718E+03	6.483391E-16	2.586944E-17
6.451613E+03	6.533974E-16	2.612774E-17
6.461508E+03	6.584857E-16	2.638798E-17
6.471403E+03	6.635668E-16	2.664869E-17
6.481298E+03	6.685960E-16	2.690804E-17
6.491193E+03	6.735264E-16	2.716415E-17
6.501088E+03	6.783194E-16	2.741540E-17
6.510984E+03	6.829292E-16	2.765991E-17
6.520879E+03	6.873037E-16	2.789550E-17
6.530774E+03	6.914073E-16	2.812068E-17
6.540669E+03	6.952011E-16	2.833379E-17
6.550564E+03	6.986401E-16	2.853289E-17
6.560459E+03	7.017001E-16	2.871691E-17
6.570354E+03	7.043449E-16	2.888426E-17
6.580249E+03	7.065515E-16	2.903390E-17
6.590144E+03	7.083091E-16	2.916526E-17
6.600040E+03	7.095891E-16	2.927705E-17
6.609935E+03	7.103997E-16	2.936949E-17
6.619830E+03	7.107140E-16	2.944134E-17
6.629725E+03	7.105587E-16	2.949359E-17
6.639620E+03	7.099167E-16	2.952542E-17
6.649515E+03	7.088075E-16	2.953750E-17
6.659410E+03	7.072553E-16	2.953075E-17
6.669305E+03	7.052624E-16	2.950515E-17
6.679200E+03	7.028520E-16	2.946156E-17
6.689096E+03	7.000568E-16	2.940125E-17
6.698991E+03	6.969042E-16	2.932529E-17
6.708886E+03	6.934070E-16	2.923414E-17
6.718781E+03	6.896033E-16	2.912931E-17
6.728676E+03	6.855242E-16	2.901205E-17
6.738571E+03	6.811928E-16	2.888330E-17
6.748466E+03	6.766489E-16	2.874466E-17
6.758361E+03	6.719231E-16	2.859740E-17
6.768256E+03	6.670298E-16	2.844210E-17
6.778152E+03	6.620148E-16	2.828066E-17
6.788047E+03	6.568905E-16	2.811361E-17
6.797942E+03	6.516925E-16	2.794244E-17
6.807837E+03	6.464462E-16	2.776823E-17
6.817732E+03	6.411686E-16	2.759172E-17
6.827627E+03	6.358905E-16	2.741421E-17
6.837522E+03	6.306256E-16	2.723630E-17
6.847417E+03	6.253937E-16	2.705887E-17
6.857312E+03	6.202132E-16	2.688272E-17
6.867208E+03	6.150935E-16	2.670826E-17
6.877103E+03	6.100645E-16	2.653684E-17
6.886998E+03	6.051255E-16	2.636843E-17
6.896893E+03	6.002885E-16	2.620359E-17
6.906788E+03	5.955721E-16	2.604315E-17
6.916683E+03	5.909786E-16	2.588726E-17
6.926578E+03	5.865159E-16	2.573628E-17
6.936473E+03	5.821920E-16	2.559061E-17
6.946368E+03	5.780126E-16	2.545053E-17
6.956264E+03	5.739829E-16	2.531630E-17
6.966159E+03	5.700999E-16	2.518784E-17
6.976054E+03	5.663668E-16	2.506531E-17
6.985949E+03	5.627935E-16	2.494920E-17
6.995844E+03	5.593741E-16	2.483928E-17
7.005739E+03	5.561101E-16	2.473566E-17
7.015634E+03	5.530017E-16	2.463838E-17
7.025529E+03	5.500488E-16	2.454749E-17
7.035425E+03	5.472507E-16	2.446297E-17
7.045320E+03	5.445990E-16	2.438450E-17
7.055215E+03	5.420921E-16	2.431204E-17
7.065110E+03	5.397353E-16	2.424585E-17
7.075005E+03	5.375184E-16	2.418553E-17
7.084900E+03	5.354393E-16	2.413100E-17
7.094795E+03	5.335016E-16	2.408247E-17
7.104690E+03	5.316806E-16	2.403884E-17
7.114585E+03	5.299935E-16	2.400093E-17
7.124481E+03	5.284225E-16	2.396796E-17
7.134376E+03	5.269695E-16	2.394004E-17
7.144271E+03	5.256235E-16	2.391671E-17
7.154166E+03	5.243860E-16	2.389805E-17
7.164061E+03	5.232452E-16	2.388355E-17
7.173956E+03	5.221882E-16	2.387265E-17
7.183851E+03	5.212232E-16	2.386574E-17
7.193746E+03	5.203379E-16	2.386228E-17
7.203641E+03	5.195186E-16	2.386166E-17
7.213537E+03	5.187733E-16	2.386426E-17
7.223432E+03	5.180812E-16	2.386915E-17
7.233327E+03	5.174364E-16	2.387606E-17
7.243222E+03	5.168452E-16	2.388530E-17
7.253117E+03	5.162877E-16	2.389596E-17
7.263012E+03	5.157570E-16	2.390773E-17
7.272907E+03	5.152530E-16	2.392061E-17
7.282802E+03	5.147622E-16	2.393399E-17
7.292697E+03	5.142846E-16	2.394787E-17
7.302593E+03	5.138072E-16	2.396165E-17
7.312488E+03	5.133233E-16	2.397501E-17
7.322383E+03	5.128333E-16	2.398798E-17
7.332278E+03	5.123315E-16	2.400029E-17
7.342173E+03	5.118053E-16	2.401135E-17
7.352068E+03	5.112563E-16	2.402123E-17
7.361963E+03	5.106792E-16	2.402968E-17
7.371858E+03	5.100624E-16	2.403615E-17
7.381753E+03	5.094087E-16	2.404078E-17
7.391649E+03	5.087143E-16	2.404335E-17
7.401544E+03	5.079830E-16	2.404407E-17
7.411439E+03	5.071983E-16	2.404213E-17
7.421334E+03	5.063646E-16	2.403774E-17
7.431229E+03	5.054816E-16	2.403088E-17
7.441124E+03	5.045477E-16	2.402146E-17
7.451019E+03	5.035706E-16	2.400983E-17
7.460914E+03	5.025370E-16	2.399537E-17
7.470809E+03	5.014631E-16	2.397883E-17
7.480705E+03	5.003442E-16	2.395999E-17
7.490600E+03	4.991840E-16	2.393900E-17
7.500495E+03	4.979936E-16	2.391641E-17
7.510390E+03	4.967718E-16	2.389215E-17
7.520285E+03	4.955310E-16	2.386680E-17
7.530180E+03	4.942782E-16	2.384070E-17
7.540075E+03	4.930200E-16	2.381417E-17
7.549970E+03	4.917709E-16	2.378789E-17
7.559865E+03	4.905244E-16	2.376157E-17
7.569761E+03	4.893025E-16	2.373625E-17
7.579656E+03	4.881052E-16	2.371196E-17
7.589551E+03	4.869468E-16	2.368938E-17
7.599446E+03	4.858344E-16	2.366887E-17
7.609341E+03	4.847739E-16	2.365073E-17
7.619236E+03	4.837705E-16	2.363521E-17
7.629131E+03	4.828290E-16	2.362257E-17
7.639026E+03	4.819596E-16	2.361332E-17
7.648921E+03	4.811649E-16	2.360759E-17
7.658817E+03	4.804398E-16	2.360515E-17
7.668712E+03	4.797985E-16	2.360671E-17
7.678607E+03	4.792338E-16	2.361194E-17
