#wls	flux	fluxerr
1.583218E+03	4.405902E-19	3.383025E-20
1.622798E+03	4.624927E-19	3.539363E-20
1.662379E+03	4.795894E-19	3.657630E-20
1.701959E+03	4.913021E-19	3.733772E-20
1.741540E+03	4.968000E-19	3.761908E-20
1.781120E+03	4.944495E-19	3.730206E-20
1.820701E+03	4.823140E-19	3.624776E-20
1.860281E+03	4.590861E-19	3.436693E-20
1.899861E+03	4.242330E-19	3.163007E-20
1.939442E+03	3.792334E-19	2.815815E-20
1.979022E+03	3.279772E-19	2.424904E-20
2.018603E+03	2.775570E-19	2.043179E-20
2.058183E+03	2.361127E-19	1.730320E-20
2.097764E+03	2.103560E-19	1.534484E-20
2.137344E+03	2.040654E-19	1.481577E-20
2.176925E+03	2.189658E-19	1.582062E-20
2.216505E+03	2.554783E-19	1.836698E-20
2.256085E+03	3.129371E-19	2.238308E-20
2.295666E+03	3.892925E-19	2.769871E-20
2.335246E+03	4.809125E-19	3.403378E-20
2.374827E+03	5.837820E-19	4.108603E-20
2.414407E+03	6.941069E-19	4.857429E-20
2.453988E+03	8.087217E-19	5.626674E-20
2.493568E+03	9.255355E-19	6.401073E-20
2.533149E+03	1.043538E-18	7.173121E-20
2.572729E+03	1.161901E-18	7.936712E-20
2.612310E+03	1.280728E-18	8.692214E-20
2.651890E+03	1.399553E-18	9.436116E-20
2.691470E+03	1.519260E-18	1.017406E-19
2.731051E+03	1.640298E-18	1.090860E-19
2.770631E+03	1.762429E-18	1.163768E-19
2.810212E+03	1.886872E-18	1.236884E-19
2.849792E+03	2.014201E-18	1.310518E-19
2.889373E+03	2.145004E-18	1.384976E-19
2.928953E+03	2.280338E-18	1.460853E-19
2.968534E+03	2.421348E-18	1.538778E-19
2.978429E+03	2.457280E-18	1.558433E-19
2.988324E+03	2.493979E-18	1.578468E-19
2.998219E+03	2.530984E-18	1.598590E-19
3.008114E+03	2.568921E-18	1.619189E-19
3.018009E+03	2.607794E-18	1.640264E-19
3.027904E+03	2.648113E-18	1.662133E-19
3.037799E+03	2.690285E-18	1.685042E-19
3.047694E+03	2.733743E-18	1.708630E-19
3.057590E+03	2.779015E-18	1.733221E-19
3.067485E+03	2.825492E-18	1.758427E-19
3.077380E+03	2.873599E-18	1.784508E-19
3.087275E+03	2.922733E-18	1.811082E-19
3.097170E+03	2.973344E-18	1.838422E-19
3.107065E+03	3.024830E-18	1.866151E-19
3.116960E+03	3.077667E-18	1.894558E-19
3.126855E+03	3.131809E-18	1.923607E-19
3.136750E+03	3.187212E-18	1.953267E-19
3.146646E+03	3.243271E-18	1.983161E-19
3.156541E+03	3.300511E-18	2.013606E-19
3.166436E+03	3.358905E-18	2.044580E-19
3.176331E+03	3.418433E-18	2.076065E-19
3.186226E+03	3.479075E-18	2.108046E-19
3.196121E+03	3.540220E-18	2.140144E-19
3.206016E+03	3.603053E-18	2.173075E-19
3.215911E+03	3.666978E-18	2.206470E-19
3.225806E+03	3.731371E-18	2.239949E-19
3.235702E+03	3.797473E-18	2.274254E-19
3.245597E+03	3.864675E-18	2.309013E-19
3.255492E+03	3.933629E-18	2.344608E-19
3.265387E+03	4.003721E-18	2.380667E-19
3.275282E+03	4.074968E-18	2.417194E-19
3.285177E+03	4.147392E-18	2.454196E-19
3.295072E+03	4.221680E-18	2.492074E-19
3.304967E+03	4.297208E-18	2.530450E-19
3.314862E+03	4.374682E-18	2.569735E-19
3.324758E+03	4.454155E-18	2.609948E-19
3.334653E+03	4.534987E-18	2.650708E-19
3.344548E+03	4.617914E-18	2.692436E-19
3.354443E+03	4.702996E-18	2.735157E-19
3.364338E+03	4.789582E-18	2.778484E-19
3.374233E+03	4.879151E-18	2.823266E-19
3.384128E+03	4.970343E-18	2.868702E-19
3.394023E+03	5.064664E-18	2.915654E-19
3.403918E+03	5.161470E-18	2.963735E-19
3.413814E+03	5.260831E-18	3.012975E-19
3.423709E+03	5.363573E-18	3.063833E-19
3.433604E+03	5.468281E-18	3.115488E-19
3.443499E+03	5.577302E-18	3.169263E-19
3.453394E+03	5.689218E-18	3.224335E-19
3.463289E+03	5.804113E-18	3.280738E-19
3.473184E+03	5.922855E-18	3.338947E-19
3.483079E+03	6.045553E-18	3.399005E-19
3.492974E+03	6.172317E-18	3.460956E-19
3.502870E+03	6.303260E-18	3.524843E-19
3.512765E+03	6.438498E-18	3.590712E-19
3.522660E+03	6.578148E-18	3.658608E-19
3.532555E+03	6.722326E-18	3.728575E-19
3.542450E+03	6.871983E-18	3.801117E-19
3.552345E+03	7.026424E-18	3.875826E-19
3.562240E+03	7.185771E-18	3.952745E-19
3.572135E+03	7.351003E-18	4.032391E-19
3.582030E+03	7.522269E-18	4.114816E-19
3.591926E+03	7.699725E-18	4.200077E-19
3.601821E+03	7.882649E-18	4.287753E-19
3.611716E+03	8.072059E-18	4.378372E-19
3.621611E+03	8.269009E-18	4.472471E-19
3.631506E+03	8.472784E-18	4.569632E-19
3.641401E+03	8.682645E-18	4.669425E-19
3.651296E+03	8.901481E-18	4.773370E-19
3.661191E+03	9.126739E-18	4.880062E-19
3.671086E+03	9.361361E-18	4.991037E-19
3.680982E+03	9.603705E-18	5.105381E-19
3.690877E+03	9.853936E-18	5.223144E-19
3.700772E+03	1.011415E-17	5.345398E-19
3.710667E+03	1.038265E-17	5.471204E-19
3.720562E+03	1.066159E-17	5.601653E-19
3.730457E+03	1.095021E-17	5.736297E-19
3.740352E+03	1.124872E-17	5.875207E-19
3.750247E+03	1.155836E-17	6.018980E-19
3.760142E+03	1.187836E-17	6.167161E-19
3.770038E+03	1.220997E-17	6.320355E-19
3.779933E+03	1.255343E-17	6.478637E-19
3.789828E+03	1.290902E-17	6.642088E-19
3.799723E+03	1.327699E-17	6.810783E-19
3.809618E+03	1.365652E-17	6.984252E-19
3.819513E+03	1.405108E-17	7.164206E-19
3.829408E+03	1.445774E-17	7.349093E-19
3.839303E+03	1.487892E-17	7.540084E-19
3.849198E+03	1.531492E-17	7.737259E-19
3.859094E+03	1.576602E-17	7.940705E-19
3.868989E+03	1.623141E-17	8.149939E-19
3.878884E+03	1.671360E-17	8.366162E-19
3.888779E+03	1.721181E-17	8.588904E-19
3.898674E+03	1.772631E-17	8.818230E-19
3.908569E+03	1.825739E-17	9.054218E-19
3.918464E+03	1.880653E-17	9.297524E-19
3.928359E+03	1.937404E-17	9.548230E-19
3.938255E+03	1.995906E-17	9.805824E-19
3.948150E+03	2.056429E-17	1.007156E-18
3.958045E+03	2.118762E-17	1.034433E-18
3.967940E+03	2.183180E-17	1.062538E-18
3.977835E+03	2.249592E-17	1.091420E-18
3.987730E+03	2.318153E-17	1.121145E-18
3.997625E+03	2.388768E-17	1.151658E-18
4.007520E+03	2.461466E-17	1.182965E-18
4.017415E+03	2.536535E-17	1.215196E-18
4.027311E+03	2.613744E-17	1.248230E-18
4.037206E+03	2.693385E-17	1.282199E-18
4.047101E+03	2.775220E-17	1.316981E-18
4.056996E+03	2.859544E-17	1.352705E-18
4.066891E+03	2.946249E-17	1.389313E-18
4.076786E+03	3.035496E-17	1.426871E-18
4.086681E+03	3.127174E-17	1.465317E-18
4.096576E+03	3.221303E-17	1.504652E-18
4.106471E+03	3.318186E-17	1.545009E-18
4.116367E+03	3.417562E-17	1.586256E-18
4.126262E+03	3.519735E-17	1.628526E-18
4.136157E+03	3.624437E-17	1.671686E-18
4.146052E+03	3.731824E-17	1.715798E-18
4.155947E+03	3.842059E-17	1.760930E-18
4.165842E+03	3.954861E-17	1.806944E-18
4.175737E+03	4.070684E-17	1.854038E-18
4.185632E+03	4.189089E-17	1.902005E-18
4.195527E+03	4.310382E-17	1.950974E-18
4.205423E+03	4.434414E-17	2.000872E-18
4.215318E+03	4.561343E-17	2.051762E-18
4.225213E+03	4.691168E-17	2.103635E-18
4.235108E+03	4.823729E-17	2.156414E-18
4.245003E+03	4.959339E-17	2.210230E-18
4.254898E+03	5.097671E-17	2.264932E-18
4.264793E+03	5.238879E-17	2.320581E-18
4.274688E+03	5.382947E-17	2.377167E-18
4.284583E+03	5.529864E-17	2.434676E-18
4.294479E+03	5.679611E-17	2.493098E-18
4.304374E+03	5.832338E-17	2.552493E-18
4.314269E+03	5.987858E-17	2.612774E-18
4.324164E+03	6.146317E-17	2.674002E-18
4.334059E+03	6.307525E-17	2.736089E-18
4.343954E+03	6.471794E-17	2.799170E-18
4.353849E+03	6.638779E-17	2.863092E-18
4.363744E+03	6.808832E-17	2.928006E-18
4.373639E+03	6.981799E-17	2.993842E-18
4.383535E+03	7.158045E-17	3.060755E-18
4.393430E+03	7.337243E-17	3.128605E-18
4.403325E+03	7.519770E-17	3.197552E-18
4.413220E+03	7.705654E-17	3.267606E-18
4.423115E+03	7.895108E-17	3.338858E-18
4.433010E+03	8.088171E-17	3.411322E-18
4.442905E+03	8.284886E-17	3.485017E-18
4.452800E+03	8.485661E-17	3.560116E-18
4.462695E+03	8.690550E-17	3.636640E-18
4.472591E+03	8.899614E-17	3.714615E-18
4.482486E+03	9.113282E-17	3.794221E-18
4.492381E+03	9.331624E-17	3.875488E-18
4.502276E+03	9.554721E-17	3.958450E-18
4.512171E+03	9.782835E-17	4.043217E-18
4.522066E+03	1.001587E-16	4.129753E-18
4.531961E+03	1.025392E-16	4.218097E-18
4.541856E+03	1.049669E-16	4.308134E-18
4.551751E+03	1.074448E-16	4.399985E-18
4.561647E+03	1.099700E-16	4.493541E-18
4.571542E+03	1.125397E-16	4.588692E-18
4.581437E+03	1.151550E-16	4.685487E-18
4.591332E+03	1.178131E-16	4.783822E-18
4.601227E+03	1.205131E-16	4.883671E-18
4.611122E+03	1.232522E-16	4.984931E-18
4.621017E+03	1.260296E-16	5.087579E-18
4.630912E+03	1.288425E-16	5.191516E-18
4.640807E+03	1.316881E-16	5.296642E-18
4.650703E+03	1.345654E-16	5.402936E-18
4.660598E+03	1.374697E-16	5.510222E-18
4.670493E+03	1.404019E-16	5.618559E-18
4.680388E+03	1.433552E-16	5.727690E-18
4.690283E+03	1.463285E-16	5.837594E-18
4.700178E+03	1.493187E-16	5.948170E-18
4.710073E+03	1.523229E-16	6.059317E-18
4.719968E+03	1.553356E-16	6.170850E-18
4.729863E+03	1.583535E-16	6.282662E-18
4.739759E+03	1.613734E-16	6.394645E-18
4.749654E+03	1.643915E-16	6.506682E-18
4.759549E+03	1.674043E-16	6.618656E-18
4.769444E+03	1.704036E-16	6.730278E-18
4.779339E+03	1.733876E-16	6.841502E-18
4.789234E+03	1.763501E-16	6.952114E-18
4.799129E+03	1.792910E-16	7.062138E-18
4.809024E+03	1.822059E-16	7.171436E-18
4.818919E+03	1.850946E-16	7.280026E-18
4.828815E+03	1.879546E-16	7.387844E-18
4.838710E+03	1.907834E-16	7.494818E-18
4.848605E+03	1.935826E-16	7.601039E-18
4.858500E+03	1.963493E-16	7.706428E-18
4.868395E+03	1.990829E-16	7.810991E-18
4.878290E+03	2.017826E-16	7.914724E-18
4.888185E+03	2.044477E-16	8.017626E-18
4.898080E+03	2.070771E-16	8.119686E-18
4.907975E+03	2.096724E-16	8.220990E-18
4.917871E+03	2.122322E-16	8.321514E-18
4.927766E+03	2.147536E-16	8.421160E-18
4.937661E+03	2.172396E-16	8.520063E-18
4.947556E+03	2.196872E-16	8.618113E-18
4.957451E+03	2.220996E-16	8.715454E-18
4.967346E+03	2.244732E-16	8.811949E-18
4.977241E+03	2.268091E-16	8.907651E-18
4.987136E+03	2.291107E-16	9.002706E-18
4.997031E+03	2.313721E-16	9.096883E-18
5.006927E+03	2.336013E-16	9.190505E-18
5.016822E+03	2.357922E-16	9.283341E-18
5.026717E+03	2.379480E-16	9.375514E-18
5.036612E+03	2.400674E-16	9.466983E-18
5.046507E+03	2.421566E-16	9.557988E-18
5.056402E+03	2.442087E-16	9.648265E-18
5.066297E+03	2.462300E-16	9.738063E-18
5.076192E+03	2.482215E-16	9.827416E-18
5.086087E+03	2.501793E-16	9.916179E-18
5.095983E+03	2.521095E-16	1.000458E-17
5.105878E+03	2.540132E-16	1.009268E-17
5.115773E+03	2.558864E-16	1.018030E-17
5.125668E+03	2.577356E-16	1.026770E-17
5.135563E+03	2.595621E-16	1.035493E-17
5.145458E+03	2.613643E-16	1.044194E-17
5.155353E+03	2.631465E-16	1.052887E-17
5.165248E+03	2.649073E-16	1.061568E-17
5.175143E+03	2.666505E-16	1.070251E-17
5.185039E+03	2.683780E-16	1.078944E-17
5.194934E+03	2.700886E-16	1.087641E-17
5.204829E+03	2.717863E-16	1.096358E-17
5.214724E+03	2.734730E-16	1.105103E-17
5.224619E+03	2.751532E-16	1.113892E-17
5.234514E+03	2.768231E-16	1.122711E-17
5.244409E+03	2.784876E-16	1.131579E-17
5.254304E+03	2.801481E-16	1.140501E-17
5.264199E+03	2.818042E-16	1.149476E-17
5.274095E+03	2.834636E-16	1.158534E-17
5.283990E+03	2.851255E-16	1.167672E-17
5.293885E+03	2.867889E-16	1.176887E-17
5.303780E+03	2.884596E-16	1.186200E-17
5.313675E+03	2.901399E-16	1.195622E-17
5.323570E+03	2.918288E-16	1.205149E-17
5.333465E+03	2.935292E-16	1.214793E-17
5.343360E+03	2.952436E-16	1.224563E-17
5.353255E+03	2.969776E-16	1.234484E-17
5.363151E+03	2.987249E-16	1.244529E-17
5.373046E+03	3.004974E-16	1.254749E-17
5.382941E+03	3.022887E-16	1.265116E-17
5.392836E+03	3.041052E-16	1.275657E-17
5.402731E+03	3.059463E-16	1.286371E-17
5.412626E+03	3.078155E-16	1.297273E-17
5.422521E+03	3.097126E-16	1.308362E-17
5.432416E+03	3.116438E-16	1.319664E-17
5.442311E+03	3.136066E-16	1.331170E-17
5.452207E+03	3.156073E-16	1.342908E-17
5.462102E+03	3.176430E-16	1.354865E-17
5.471997E+03	3.197174E-16	1.367058E-17
5.481892E+03	3.218247E-16	1.379463E-17
5.491787E+03	3.239715E-16	1.392109E-17
5.501682E+03	3.261519E-16	1.404971E-17
5.511577E+03	3.283730E-16	1.418081E-17
5.521472E+03	3.306284E-16	1.431412E-17
5.531368E+03	3.329192E-16	1.444970E-17
5.541263E+03	3.352486E-16	1.458769E-17
5.551158E+03	3.376142E-16	1.472799E-17
5.561053E+03	3.400163E-16	1.487063E-17
5.570948E+03	3.424525E-16	1.501551E-17
5.580843E+03	3.449232E-16	1.516266E-17
5.590738E+03	3.474252E-16	1.531194E-17
5.600633E+03	3.499632E-16	1.546357E-17
5.610528E+03	3.525303E-16	1.561724E-17
5.620424E+03	3.551274E-16	1.577301E-17
5.630319E+03	3.577551E-16	1.593091E-17
5.640214E+03	3.604070E-16	1.609065E-17
5.650109E+03	3.630871E-16	1.625244E-17
5.660004E+03	3.657891E-16	1.641597E-17
5.669899E+03	3.685170E-16	1.658145E-17
5.679794E+03	3.712606E-16	1.674841E-17
5.689689E+03	3.740277E-16	1.691721E-17
5.699584E+03	3.768082E-16	1.708740E-17
5.709480E+03	3.796025E-16	1.725898E-17
5.719375E+03	3.824110E-16	1.743200E-17
5.729270E+03	3.852272E-16	1.760614E-17
5.739165E+03	3.880515E-16	1.778143E-17
5.749060E+03	3.908804E-16	1.795769E-17
5.758955E+03	3.937146E-16	1.813497E-17
5.768850E+03	3.965434E-16	1.831277E-17
5.778745E+03	3.993709E-16	1.849127E-17
5.788640E+03	4.021937E-16	1.867030E-17
5.798536E+03	4.050045E-16	1.884953E-17
5.808431E+03	4.078038E-16	1.902897E-17
5.818326E+03	4.105878E-16	1.920842E-17
5.828221E+03	4.133531E-16	1.938773E-17
5.838116E+03	4.160995E-16	1.956687E-17
5.848011E+03	4.188196E-16	1.974549E-17
5.857906E+03	4.215102E-16	1.992341E-17
5.867801E+03	4.241669E-16	2.010042E-17
5.877696E+03	4.267937E-16	2.027668E-17
5.887592E+03	4.293789E-16	2.045164E-17
5.897487E+03	4.319258E-16	2.062542E-17
5.907382E+03	4.344233E-16	2.079747E-17
5.917277E+03	4.368746E-16	2.096794E-17
5.927172E+03	4.392754E-16	2.113658E-17
5.937067E+03	4.416215E-16	2.130318E-17
5.946962E+03	4.439088E-16	2.146752E-17
5.956857E+03	4.461324E-16	2.162933E-17
5.966752E+03	4.482958E-16	2.178876E-17
5.976648E+03	4.503907E-16	2.194536E-17
5.986543E+03	4.524162E-16	2.209909E-17
5.996438E+03	4.543639E-16	2.224949E-17
6.006333E+03	4.562406E-16	2.239687E-17
6.016228E+03	4.580414E-16	2.254095E-17
6.026123E+03	4.597579E-16	2.268129E-17
6.036018E+03	4.613926E-16	2.281799E-17
6.045913E+03	4.629450E-16	2.295098E-17
6.055808E+03	4.644135E-16	2.308015E-17
6.065704E+03	4.657893E-16	2.320504E-17
6.075599E+03	4.670794E-16	2.332595E-17
6.085494E+03	4.682823E-16	2.344278E-17
6.095389E+03	4.693929E-16	2.355523E-17
6.105284E+03	4.704141E-16	2.366342E-17
6.115179E+03	4.713403E-16	2.376704E-17
6.125074E+03	4.721789E-16	2.386640E-17
6.134969E+03	4.729282E-16	2.396141E-17
6.144864E+03	4.735827E-16	2.405175E-17
6.154760E+03	4.741538E-16	2.413796E-17
6.164655E+03	4.746314E-16	2.421948E-17
6.174550E+03	4.750272E-16	2.429690E-17
6.184445E+03	4.753315E-16	2.436966E-17
6.194340E+03	4.755553E-16	2.443831E-17
6.204235E+03	4.756982E-16	2.450279E-17
6.214130E+03	4.757590E-16	2.456300E-17
6.224025E+03	4.757446E-16	2.461926E-17
6.233920E+03	4.756505E-16	2.467132E-17
6.243816E+03	4.754878E-16	2.471971E-17
6.253711E+03	4.752515E-16	2.476415E-17
6.263606E+03	4.749535E-16	2.480524E-17
6.273501E+03	4.745884E-16	2.484265E-17
6.283396E+03	4.741637E-16	2.487676E-17
6.293291E+03	4.736834E-16	2.490776E-17
6.303186E+03	4.731502E-16	2.493576E-17
6.313081E+03	4.725683E-16	2.496097E-17
6.322976E+03	4.719364E-16	2.498330E-17
6.332872E+03	4.712667E-16	2.500336E-17
6.342767E+03	4.705592E-16	2.502116E-17
6.352662E+03	4.698210E-16	2.503705E-17
6.362557E+03	4.690476E-16	2.505077E-17
6.372452E+03	4.682514E-16	2.506298E-17
6.382347E+03	4.674317E-16	2.507364E-17
6.392242E+03	4.665927E-16	2.508294E-17
6.402137E+03	4.657378E-16	2.509108E-17
6.412032E+03	4.648668E-16	2.509803E-17
6.421928E+03	4.639882E-16	2.510424E-17
6.431823E+03	4.630924E-16	2.510920E-17
6.441718E+03	4.621833E-16	2.511310E-17
6.451613E+03	4.612697E-16	2.511642E-17
6.461508E+03	4.603375E-16	2.511839E-17
6.471403E+03	4.593952E-16	2.511946E-17
6.481298E+03	4.584424E-16	2.511962E-17
6.491193E+03	4.574741E-16	2.511857E-17
6.501088E+03	4.564902E-16	2.511631E-17
6.510984E+03	4.554951E-16	2.511308E-17
6.520879E+03	4.544882E-16	2.510884E-17
6.530774E+03	4.534600E-16	2.510305E-17
6.540669E+03	4.524243E-16	2.509648E-17
6.550564E+03	4.513672E-16	2.508835E-17
6.560459E+03	4.503024E-16	2.507942E-17
6.570354E+03	4.492156E-16	2.506888E-17
6.580249E+03	4.481214E-16	2.505755E-17
6.590144E+03	4.470053E-16	2.504461E-17
6.600040E+03	4.458771E-16	2.503060E-17
6.609935E+03	4.447365E-16	2.501551E-17
6.619830E+03	4.435792E-16	2.499908E-17
6.629725E+03	4.424058E-16	2.498135E-17
6.639620E+03	4.412206E-16	2.496255E-17
6.649515E+03	4.400196E-16	2.494246E-17
6.659410E+03	4.388082E-16	2.492138E-17
6.669305E+03	4.375819E-16	2.489904E-17
6.679200E+03	4.363410E-16	2.487547E-17
6.689096E+03	4.350912E-16	2.485098E-17
6.698991E+03	4.338278E-16	2.482530E-17
6.708886E+03	4.325516E-16	2.479848E-17
6.718781E+03	4.312638E-16	2.477057E-17
6.728676E+03	4.299693E-16	2.474187E-17
6.738571E+03	4.286595E-16	2.471188E-17
6.748466E+03	4.273399E-16	2.468090E-17
6.758361E+03	4.260118E-16	2.464901E-17
6.768256E+03	4.246754E-16	2.461623E-17
6.778152E+03	4.233270E-16	2.458233E-17
6.788047E+03	4.219778E-16	2.454796E-17
6.797942E+03	4.206133E-16	2.451229E-17
6.807837E+03	4.192451E-16	2.447599E-17
6.817732E+03	4.178732E-16	2.443905E-17
6.827627E+03	4.164900E-16	2.440103E-17
6.837522E+03	4.151053E-16	2.436251E-17
6.847417E+03	4.137162E-16	2.432331E-17
6.857312E+03	4.123231E-16	2.428347E-17
6.867208E+03	4.109271E-16	2.424304E-17
6.877103E+03	4.095249E-16	2.420184E-17
6.886998E+03	4.081222E-16	2.416019E-17
6.896893E+03	4.067199E-16	2.411816E-17
6.906788E+03	4.053142E-16	2.407552E-17
6.916683E+03	4.039067E-16	2.403237E-17
6.926578E+03	4.025030E-16	2.398904E-17
6.936473E+03	4.010993E-16	2.394530E-17
6.946368E+03	3.996915E-16	2.390093E-17
6.956264E+03	3.982910E-16	2.385659E-17
6.966159E+03	3.968935E-16	2.381205E-17
6.976054E+03	3.954951E-16	2.376706E-17
6.985949E+03	3.941022E-16	2.372200E-17
6.995844E+03	3.927104E-16	2.367663E-17
7.005739E+03	3.913255E-16	2.363129E-17
7.015634E+03	3.899438E-16	2.358577E-17
7.025529E+03	3.885711E-16	2.354042E-17
7.035425E+03	3.872031E-16	2.349498E-17
7.045320E+03	3.858412E-16	2.344954E-17
7.055215E+03	3.844808E-16	2.340383E-17
7.065110E+03	3.831329E-16	2.335852E-17
7.075005E+03	3.817930E-16	2.331333E-17
7.084900E+03	3.804618E-16	2.326833E-17
7.094795E+03	3.791359E-16	2.322330E-17
7.104690E+03	3.778203E-16	2.317855E-17
7.114585E+03	3.765156E-16	2.313413E-17
7.124481E+03	3.752225E-16	2.309009E-17
7.134376E+03	3.739368E-16	2.304616E-17
7.144271E+03	3.726640E-16	2.300271E-17
7.154166E+03	3.714048E-16	2.295976E-17
7.164061E+03	3.701548E-16	2.291708E-17
7.173956E+03	3.689190E-16	2.287495E-17
7.183851E+03	3.676936E-16	2.283315E-17
7.193746E+03	3.664835E-16	2.279201E-17
7.203641E+03	3.652889E-16	2.275152E-17
7.213537E+03	3.641063E-16	2.271149E-17
7.223432E+03	3.629400E-16	2.267218E-17
7.233327E+03	3.617859E-16	2.263335E-17
7.243222E+03	3.606542E-16	2.259564E-17
7.253117E+03	3.595353E-16	2.255846E-17
7.263012E+03	3.584390E-16	2.252242E-17
7.272907E+03	3.573563E-16	2.248698E-17
7.282802E+03	3.562919E-16	2.245243E-17
7.292697E+03	3.552466E-16	2.241883E-17
7.302593E+03	3.542205E-16	2.238619E-17
7.312488E+03	3.532183E-16	2.235482E-17
7.322383E+03	3.522309E-16	2.232415E-17
7.332278E+03	3.512678E-16	2.229479E-17
7.342173E+03	3.503247E-16	2.226648E-17
7.352068E+03	3.494018E-16	2.223923E-17
7.361963E+03	3.484991E-16	2.221306E-17
7.371858E+03	3.476216E-16	2.218829E-17
7.381753E+03	3.467600E-16	2.216433E-17
7.391649E+03	3.459238E-16	2.214180E-17
7.401544E+03	3.451038E-16	2.212012E-17
7.411439E+03	3.443096E-16	2.209991E-17
7.421334E+03	3.435364E-16	2.208087E-17
7.431229E+03	3.427845E-16	2.206303E-17
7.441124E+03	3.420539E-16	2.204639E-17
7.451019E+03	3.413495E-16	2.203128E-17
7.460914E+03	3.406665E-16	2.201740E-17
7.470809E+03	3.400098E-16	2.200508E-17
7.480705E+03	3.393748E-16	2.199401E-17
7.490600E+03	3.387662E-16	2.198453E-17
7.500495E+03	3.381794E-16	2.197632E-17
7.510390E+03	3.376143E-16	2.196941E-17
7.520285E+03	3.370757E-16	2.196410E-17
7.530180E+03	3.365637E-16	2.196041E-17
7.540075E+03	3.360735E-16	2.195803E-17
7.549970E+03	3.356050E-16	2.195696E-17
7.559865E+03	3.351630E-16	2.195752E-17
7.569761E+03	3.347427E-16	2.195939E-17
7.579656E+03	3.343487E-16	2.196290E-17
7.589551E+03	3.339763E-16	2.196772E-17
7.599446E+03	3.336302E-16	2.197418E-17
7.609341E+03	3.333054E-16	2.198196E-17
7.619236E+03	3.330068E-16	2.199137E-17
7.629131E+03	3.327293E-16	2.200210E-17
7.639026E+03	3.324779E-16	2.201447E-17
7.648921E+03	3.322523E-16	2.202847E-17
7.658817E+03	3.320476E-16	2.204379E-17
7.668712E+03	3.318686E-16	2.206074E-17
7.678607E+03	3.317152E-16	2.207933E-17
