#wls	flux	fluxerr
1.600000E+03	2.285224E-18	0.000000E+00
1.640000E+03	2.293896E-18	0.000000E+00
1.680000E+03	2.306886E-18	0.000000E+00
1.720000E+03	2.324861E-18	0.000000E+00
1.760000E+03	2.348854E-18	0.000000E+00
1.800000E+03	2.380257E-18	0.000000E+00
1.840000E+03	2.419879E-18	0.000000E+00
1.880000E+03	2.469790E-18	0.000000E+00
1.920000E+03	2.531760E-18	0.000000E+00
1.960000E+03	2.607892E-18	0.000000E+00
2.000000E+03	2.700386E-18	0.000000E+00
2.040000E+03	2.811792E-18	0.000000E+00
2.080000E+03	2.944216E-18	0.000000E+00
2.120000E+03	3.099082E-18	0.000000E+00
2.160000E+03	3.277836E-18	0.000000E+00
2.200000E+03	3.480474E-18	0.000000E+00
2.240000E+03	3.706402E-18	0.000000E+00
2.280000E+03	3.954723E-18	0.000000E+00
2.320000E+03	4.224432E-18	0.000000E+00
2.360000E+03	4.514863E-18	0.000000E+00
2.400000E+03	4.825582E-18	0.000000E+00
2.440000E+03	5.156504E-18	0.000000E+00
2.480000E+03	5.508868E-18	0.000000E+00
2.520000E+03	5.883911E-18	0.000000E+00
2.560000E+03	6.283343E-18	0.000000E+00
2.600000E+03	6.707233E-18	0.000000E+00
2.640000E+03	7.155368E-18	0.000000E+00
2.680000E+03	7.628522E-18	0.000000E+00
2.720000E+03	8.128943E-18	0.000000E+00
2.760000E+03	8.658313E-18	0.000000E+00
2.800000E+03	9.216942E-18	0.000000E+00
2.840000E+03	9.805121E-18	0.000000E+00
2.880000E+03	1.042485E-17	0.000000E+00
2.920000E+03	1.107938E-17	0.000000E+00
2.960000E+03	1.177551E-17	0.000000E+00
3.000000E+03	1.252152E-17	0.000000E+00
3.010000E+03	1.271747E-17	0.000000E+00
3.020000E+03	1.291726E-17	0.000000E+00
3.030000E+03	1.312111E-17	0.000000E+00
3.040000E+03	1.332981E-17	0.000000E+00
3.050000E+03	1.354328E-17	0.000000E+00
3.060000E+03	1.376177E-17	0.000000E+00
3.070000E+03	1.398585E-17	0.000000E+00
3.080000E+03	1.421547E-17	0.000000E+00
3.090000E+03	1.445096E-17	0.000000E+00
3.100000E+03	1.469322E-17	0.000000E+00
3.110000E+03	1.494200E-17	0.000000E+00
3.120000E+03	1.519800E-17	0.000000E+00
3.130000E+03	1.546129E-17	0.000000E+00
3.140000E+03	1.573325E-17	0.000000E+00
3.150000E+03	1.601342E-17	0.000000E+00
3.160000E+03	1.630262E-17	0.000000E+00
3.170000E+03	1.660173E-17	0.000000E+00
3.180000E+03	1.691138E-17	0.000000E+00
3.190000E+03	1.723156E-17	0.000000E+00
3.200000E+03	1.756395E-17	0.000000E+00
3.210000E+03	1.790869E-17	0.000000E+00
3.220000E+03	1.826697E-17	0.000000E+00
3.230000E+03	1.863934E-17	0.000000E+00
3.240000E+03	1.902712E-17	0.000000E+00
3.250000E+03	1.943140E-17	0.000000E+00
3.260000E+03	1.985333E-17	0.000000E+00
3.270000E+03	2.029378E-17	0.000000E+00
3.280000E+03	2.075440E-17	0.000000E+00
3.290000E+03	2.123659E-17	0.000000E+00
3.300000E+03	2.174145E-17	0.000000E+00
3.310000E+03	2.227081E-17	0.000000E+00
3.320000E+03	2.282586E-17	0.000000E+00
3.330000E+03	2.340847E-17	0.000000E+00
3.340000E+03	2.401974E-17	0.000000E+00
3.350000E+03	2.466103E-17	0.000000E+00
3.360000E+03	2.533348E-17	0.000000E+00
3.370000E+03	2.603793E-17	0.000000E+00
3.380000E+03	2.677481E-17	0.000000E+00
3.390000E+03	2.754362E-17	0.000000E+00
3.400000E+03	2.834384E-17	0.000000E+00
3.410000E+03	2.917287E-17	0.000000E+00
3.420000E+03	3.002867E-17	0.000000E+00
3.430000E+03	3.090621E-17	0.000000E+00
3.440000E+03	3.180004E-17	0.000000E+00
3.450000E+03	3.270324E-17	0.000000E+00
3.460000E+03	3.360718E-17	0.000000E+00
3.470000E+03	3.450306E-17	0.000000E+00
3.480000E+03	3.538044E-17	0.000000E+00
3.490000E+03	3.622865E-17	0.000000E+00
3.500000E+03	3.703786E-17	0.000000E+00
3.510000E+03	3.779877E-17	0.000000E+00
3.520000E+03	3.850461E-17	0.000000E+00
3.530000E+03	3.914873E-17	0.000000E+00
3.540000E+03	3.972865E-17	0.000000E+00
3.550000E+03	4.024328E-17	0.000000E+00
3.560000E+03	4.069407E-17	0.000000E+00
3.570000E+03	4.108320E-17	0.000000E+00
3.580000E+03	4.141444E-17	0.000000E+00
3.590000E+03	4.169305E-17	0.000000E+00
3.600000E+03	4.192228E-17	0.000000E+00
3.610000E+03	4.210680E-17	0.000000E+00
3.620000E+03	4.224945E-17	0.000000E+00
3.630000E+03	4.235170E-17	0.000000E+00
3.640000E+03	4.241466E-17	0.000000E+00
3.650000E+03	4.243942E-17	0.000000E+00
3.660000E+03	4.242606E-17	0.000000E+00
3.670000E+03	4.237653E-17	0.000000E+00
3.680000E+03	4.229202E-17	0.000000E+00
3.690000E+03	4.217664E-17	0.000000E+00
3.700000E+03	4.203604E-17	0.000000E+00
3.710000E+03	4.187849E-17	0.000000E+00
3.720000E+03	4.171361E-17	0.000000E+00
3.730000E+03	4.155392E-17	0.000000E+00
3.740000E+03	4.141310E-17	0.000000E+00
3.750000E+03	4.130639E-17	0.000000E+00
3.760000E+03	4.124900E-17	0.000000E+00
3.770000E+03	4.125636E-17	0.000000E+00
3.780000E+03	4.134254E-17	0.000000E+00
3.790000E+03	4.152003E-17	0.000000E+00
3.800000E+03	4.180042E-17	0.000000E+00
3.810000E+03	4.219057E-17	0.000000E+00
3.820000E+03	4.269584E-17	0.000000E+00
3.830000E+03	4.331806E-17	0.000000E+00
3.840000E+03	4.405398E-17	0.000000E+00
3.850000E+03	4.489711E-17	0.000000E+00
3.860000E+03	4.583723E-17	0.000000E+00
3.870000E+03	4.685959E-17	0.000000E+00
3.880000E+03	4.794565E-17	0.000000E+00
3.890000E+03	4.907305E-17	0.000000E+00
3.900000E+03	5.021775E-17	0.000000E+00
3.910000E+03	5.135356E-17	0.000000E+00
3.920000E+03	5.245380E-17	0.000000E+00
3.930000E+03	5.349235E-17	0.000000E+00
3.940000E+03	5.444494E-17	0.000000E+00
3.950000E+03	5.529059E-17	0.000000E+00
3.960000E+03	5.601156E-17	0.000000E+00
3.970000E+03	5.659379E-17	0.000000E+00
3.980000E+03	5.702928E-17	0.000000E+00
3.990000E+03	5.731287E-17	0.000000E+00
4.000000E+03	5.744455E-17	0.000000E+00
4.010000E+03	5.742731E-17	0.000000E+00
4.020000E+03	5.726658E-17	0.000000E+00
4.030000E+03	5.697161E-17	0.000000E+00
4.040000E+03	5.655173E-17	0.000000E+00
4.050000E+03	5.601854E-17	0.000000E+00
4.060000E+03	5.538389E-17	0.000000E+00
4.070000E+03	5.466019E-17	0.000000E+00
4.080000E+03	5.386033E-17	0.000000E+00
4.090000E+03	5.299794E-17	0.000000E+00
4.100000E+03	5.208601E-17	0.000000E+00
4.110000E+03	5.113825E-17	0.000000E+00
4.120000E+03	5.016940E-17	0.000000E+00
4.130000E+03	4.919243E-17	0.000000E+00
4.140000E+03	4.822145E-17	0.000000E+00
4.150000E+03	4.726976E-17	0.000000E+00
4.160000E+03	4.634985E-17	0.000000E+00
4.170000E+03	4.547318E-17	0.000000E+00
4.180000E+03	4.464968E-17	0.000000E+00
4.190000E+03	4.388747E-17	0.000000E+00
4.200000E+03	4.319247E-17	0.000000E+00
4.210000E+03	4.256824E-17	0.000000E+00
4.220000E+03	4.201572E-17	0.000000E+00
4.230000E+03	4.153300E-17	0.000000E+00
4.240000E+03	4.111608E-17	0.000000E+00
4.250000E+03	4.075923E-17	0.000000E+00
4.260000E+03	4.045466E-17	0.000000E+00
4.270000E+03	4.019271E-17	0.000000E+00
4.280000E+03	3.996421E-17	0.000000E+00
4.290000E+03	3.975976E-17	0.000000E+00
4.300000E+03	3.957064E-17	0.000000E+00
4.310000E+03	3.938941E-17	0.000000E+00
4.320000E+03	3.921004E-17	0.000000E+00
4.330000E+03	3.902962E-17	0.000000E+00
4.340000E+03	3.884612E-17	0.000000E+00
4.350000E+03	3.866114E-17	0.000000E+00
4.360000E+03	3.847767E-17	0.000000E+00
4.370000E+03	3.830088E-17	0.000000E+00
4.380000E+03	3.813688E-17	0.000000E+00
4.390000E+03	3.799293E-17	0.000000E+00
4.400000E+03	3.787616E-17	0.000000E+00
4.410000E+03	3.779393E-17	0.000000E+00
4.420000E+03	3.775199E-17	0.000000E+00
4.430000E+03	3.775460E-17	0.000000E+00
4.440000E+03	3.780490E-17	0.000000E+00
4.450000E+03	3.790317E-17	0.000000E+00
4.460000E+03	3.804777E-17	0.000000E+00
4.470000E+03	3.823510E-17	0.000000E+00
4.480000E+03	3.845819E-17	0.000000E+00
4.490000E+03	3.870909E-17	0.000000E+00
4.500000E+03	3.897763E-17	0.000000E+00
4.510000E+03	3.925182E-17	0.000000E+00
4.520000E+03	3.951897E-17	0.000000E+00
4.530000E+03	3.976585E-17	0.000000E+00
4.540000E+03	3.997931E-17	0.000000E+00
4.550000E+03	4.014680E-17	0.000000E+00
4.560000E+03	4.025676E-17	0.000000E+00
4.570000E+03	4.029946E-17	0.000000E+00
4.580000E+03	4.026882E-17	0.000000E+00
4.590000E+03	4.016002E-17	0.000000E+00
4.600000E+03	3.997186E-17	0.000000E+00
4.610000E+03	3.970710E-17	0.000000E+00
4.620000E+03	3.937127E-17	0.000000E+00
4.630000E+03	3.897172E-17	0.000000E+00
4.640000E+03	3.852056E-17	0.000000E+00
4.650000E+03	3.802932E-17	0.000000E+00
4.660000E+03	3.751318E-17	0.000000E+00
4.670000E+03	3.698702E-17	0.000000E+00
4.680000E+03	3.646595E-17	0.000000E+00
4.690000E+03	3.596465E-17	0.000000E+00
4.700000E+03	3.549685E-17	0.000000E+00
4.710000E+03	3.507549E-17	0.000000E+00
4.720000E+03	3.471060E-17	0.000000E+00
4.730000E+03	3.441034E-17	0.000000E+00
4.740000E+03	3.418078E-17	0.000000E+00
4.750000E+03	3.402442E-17	0.000000E+00
4.760000E+03	3.394293E-17	0.000000E+00
4.770000E+03	3.393343E-17	0.000000E+00
4.780000E+03	3.399252E-17	0.000000E+00
4.790000E+03	3.411410E-17	0.000000E+00
4.800000E+03	3.428976E-17	0.000000E+00
4.810000E+03	3.451092E-17	0.000000E+00
4.820000E+03	3.476837E-17	0.000000E+00
4.830000E+03	3.505164E-17	0.000000E+00
4.840000E+03	3.535173E-17	0.000000E+00
4.850000E+03	3.566010E-17	0.000000E+00
4.860000E+03	3.596907E-17	0.000000E+00
4.870000E+03	3.627275E-17	0.000000E+00
4.880000E+03	3.656706E-17	0.000000E+00
4.890000E+03	3.684852E-17	0.000000E+00
4.900000E+03	3.711539E-17	0.000000E+00
4.910000E+03	3.736547E-17	0.000000E+00
4.920000E+03	3.759796E-17	0.000000E+00
4.930000E+03	3.781161E-17	0.000000E+00
4.940000E+03	3.800451E-17	0.000000E+00
4.950000E+03	3.817522E-17	0.000000E+00
4.960000E+03	3.832135E-17	0.000000E+00
4.970000E+03	3.844134E-17	0.000000E+00
4.980000E+03	3.853331E-17	0.000000E+00
4.990000E+03	3.859660E-17	0.000000E+00
5.000000E+03	3.863128E-17	0.000000E+00
5.010000E+03	3.864000E-17	0.000000E+00
5.020000E+03	3.862520E-17	0.000000E+00
5.030000E+03	3.859139E-17	0.000000E+00
5.040000E+03	3.854443E-17	0.000000E+00
5.050000E+03	3.848999E-17	0.000000E+00
5.060000E+03	3.843431E-17	0.000000E+00
5.070000E+03	3.838340E-17	0.000000E+00
5.080000E+03	3.834276E-17	0.000000E+00
5.090000E+03	3.831679E-17	0.000000E+00
5.100000E+03	3.830943E-17	0.000000E+00
5.110000E+03	3.832429E-17	0.000000E+00
5.120000E+03	3.836306E-17	0.000000E+00
5.130000E+03	3.842838E-17	0.000000E+00
5.140000E+03	3.852049E-17	0.000000E+00
5.150000E+03	3.864122E-17	0.000000E+00
5.160000E+03	3.879086E-17	0.000000E+00
5.170000E+03	3.896980E-17	0.000000E+00
5.180000E+03	3.917804E-17	0.000000E+00
5.190000E+03	3.941472E-17	0.000000E+00
5.200000E+03	3.967886E-17	0.000000E+00
5.210000E+03	3.996852E-17	0.000000E+00
5.220000E+03	4.028241E-17	0.000000E+00
5.230000E+03	4.061678E-17	0.000000E+00
5.240000E+03	4.096918E-17	0.000000E+00
5.250000E+03	4.133660E-17	0.000000E+00
5.260000E+03	4.171607E-17	0.000000E+00
5.270000E+03	4.210393E-17	0.000000E+00
5.280000E+03	4.249795E-17	0.000000E+00
5.290000E+03	4.289528E-17	0.000000E+00
5.300000E+03	4.329357E-17	0.000000E+00
5.310000E+03	4.369002E-17	0.000000E+00
5.320000E+03	4.408259E-17	0.000000E+00
5.330000E+03	4.446772E-17	0.000000E+00
5.340000E+03	4.484253E-17	0.000000E+00
5.350000E+03	4.520358E-17	0.000000E+00
5.360000E+03	4.554827E-17	0.000000E+00
5.370000E+03	4.587226E-17	0.000000E+00
5.380000E+03	4.617290E-17	0.000000E+00
5.390000E+03	4.644603E-17	0.000000E+00
5.400000E+03	4.668573E-17	0.000000E+00
5.410000E+03	4.688145E-17	0.000000E+00
5.420000E+03	4.701852E-17	0.000000E+00
5.430000E+03	4.707953E-17	0.000000E+00
5.440000E+03	4.705183E-17	0.000000E+00
5.450000E+03	4.693869E-17	0.000000E+00
5.460000E+03	4.675018E-17	0.000000E+00
5.470000E+03	4.649734E-17	0.000000E+00
5.480000E+03	4.619148E-17	0.000000E+00
5.490000E+03	4.584001E-17	0.000000E+00
5.500000E+03	4.544841E-17	0.000000E+00
5.510000E+03	4.501674E-17	0.000000E+00
5.520000E+03	4.454567E-17	0.000000E+00
5.530000E+03	4.403633E-17	0.000000E+00
5.540000E+03	4.349452E-17	0.000000E+00
5.550000E+03	4.292734E-17	0.000000E+00
5.560000E+03	4.234402E-17	0.000000E+00
5.570000E+03	4.175186E-17	0.000000E+00
5.580000E+03	4.115819E-17	0.000000E+00
5.590000E+03	4.056874E-17	0.000000E+00
5.600000E+03	3.998877E-17	0.000000E+00
5.610000E+03	3.942110E-17	0.000000E+00
5.620000E+03	3.886826E-17	0.000000E+00
5.630000E+03	3.833197E-17	0.000000E+00
5.640000E+03	3.781293E-17	0.000000E+00
5.650000E+03	3.731196E-17	0.000000E+00
5.660000E+03	3.682905E-17	0.000000E+00
5.670000E+03	3.636520E-17	0.000000E+00
5.680000E+03	3.592171E-17	0.000000E+00
5.690000E+03	3.549995E-17	0.000000E+00
5.700000E+03	3.510167E-17	0.000000E+00
5.710000E+03	3.472887E-17	0.000000E+00
5.720000E+03	3.438431E-17	0.000000E+00
5.730000E+03	3.406901E-17	0.000000E+00
5.740000E+03	3.378489E-17	0.000000E+00
5.750000E+03	3.353231E-17	0.000000E+00
5.760000E+03	3.331018E-17	0.000000E+00
5.770000E+03	3.311692E-17	0.000000E+00
5.780000E+03	3.294976E-17	0.000000E+00
5.790000E+03	3.280408E-17	0.000000E+00
5.800000E+03	3.267473E-17	0.000000E+00
5.810000E+03	3.255671E-17	0.000000E+00
5.820000E+03	3.244340E-17	0.000000E+00
5.830000E+03	3.232939E-17	0.000000E+00
5.840000E+03	3.220947E-17	0.000000E+00
5.850000E+03	3.207925E-17	0.000000E+00
5.860000E+03	3.193573E-17	0.000000E+00
5.870000E+03	3.177597E-17	0.000000E+00
5.880000E+03	3.159961E-17	0.000000E+00
5.890000E+03	3.140623E-17	0.000000E+00
5.900000E+03	3.119668E-17	0.000000E+00
5.910000E+03	3.097242E-17	0.000000E+00
5.920000E+03	3.073531E-17	0.000000E+00
5.930000E+03	3.048770E-17	0.000000E+00
5.940000E+03	3.023081E-17	0.000000E+00
5.950000E+03	2.996631E-17	0.000000E+00
5.960000E+03	2.969582E-17	0.000000E+00
5.970000E+03	2.942012E-17	0.000000E+00
5.980000E+03	2.913887E-17	0.000000E+00
5.990000E+03	2.885258E-17	0.000000E+00
6.000000E+03	2.855968E-17	0.000000E+00
6.010000E+03	2.826021E-17	0.000000E+00
6.020000E+03	2.795192E-17	0.000000E+00
6.030000E+03	2.763332E-17	0.000000E+00
6.040000E+03	2.730302E-17	0.000000E+00
6.050000E+03	2.695883E-17	0.000000E+00
6.060000E+03	2.659882E-17	0.000000E+00
6.070000E+03	2.622038E-17	0.000000E+00
6.080000E+03	2.582225E-17	0.000000E+00
6.090000E+03	2.540178E-17	0.000000E+00
6.100000E+03	2.495820E-17	0.000000E+00
6.110000E+03	2.449031E-17	0.000000E+00
6.120000E+03	2.399751E-17	0.000000E+00
6.130000E+03	2.348036E-17	0.000000E+00
6.140000E+03	2.294070E-17	0.000000E+00
6.150000E+03	2.238088E-17	0.000000E+00
6.160000E+03	2.180480E-17	0.000000E+00
6.170000E+03	2.121815E-17	0.000000E+00
6.180000E+03	2.062669E-17	0.000000E+00
6.190000E+03	2.003806E-17	0.000000E+00
6.200000E+03	1.946075E-17	0.000000E+00
6.210000E+03	1.890374E-17	0.000000E+00
6.220000E+03	1.837581E-17	0.000000E+00
6.230000E+03	1.788591E-17	0.000000E+00
6.240000E+03	1.744295E-17	0.000000E+00
6.250000E+03	1.705487E-17	0.000000E+00
6.260000E+03	1.672934E-17	0.000000E+00
6.270000E+03	1.647315E-17	0.000000E+00
6.280000E+03	1.629255E-17	0.000000E+00
6.290000E+03	1.619295E-17	0.000000E+00
6.300000E+03	1.617912E-17	0.000000E+00
6.310000E+03	1.625561E-17	0.000000E+00
6.320000E+03	1.642653E-17	0.000000E+00
6.330000E+03	1.669512E-17	0.000000E+00
6.340000E+03	1.706463E-17	0.000000E+00
6.350000E+03	1.753769E-17	0.000000E+00
6.360000E+03	1.811559E-17	0.000000E+00
6.370000E+03	1.879920E-17	0.000000E+00
6.380000E+03	1.958727E-17	0.000000E+00
6.390000E+03	2.047655E-17	0.000000E+00
6.400000E+03	2.146127E-17	0.000000E+00
6.410000E+03	2.253352E-17	0.000000E+00
6.420000E+03	2.368151E-17	0.000000E+00
6.430000E+03	2.489155E-17	0.000000E+00
6.440000E+03	2.614678E-17	0.000000E+00
6.450000E+03	2.742834E-17	0.000000E+00
6.460000E+03	2.871669E-17	0.000000E+00
6.470000E+03	2.999181E-17	0.000000E+00
6.480000E+03	3.123504E-17	0.000000E+00
6.490000E+03	3.242812E-17	0.000000E+00
6.500000E+03	3.355726E-17	0.000000E+00
6.510000E+03	3.461074E-17	0.000000E+00
6.520000E+03	3.557940E-17	0.000000E+00
6.530000E+03	3.645804E-17	0.000000E+00
6.540000E+03	3.724352E-17	0.000000E+00
6.550000E+03	3.793467E-17	0.000000E+00
6.560000E+03	3.853182E-17	0.000000E+00
6.570000E+03	3.903684E-17	0.000000E+00
6.580000E+03	3.945100E-17	0.000000E+00
6.590000E+03	3.977649E-17	0.000000E+00
6.600000E+03	4.001641E-17	0.000000E+00
6.610000E+03	4.017353E-17	0.000000E+00
6.620000E+03	4.025033E-17	0.000000E+00
6.630000E+03	4.025115E-17	0.000000E+00
6.640000E+03	4.017960E-17	0.000000E+00
6.650000E+03	4.004197E-17	0.000000E+00
6.660000E+03	3.984246E-17	0.000000E+00
6.670000E+03	3.958703E-17	0.000000E+00
6.680000E+03	3.928253E-17	0.000000E+00
6.690000E+03	3.893512E-17	0.000000E+00
6.700000E+03	3.854994E-17	0.000000E+00
6.710000E+03	3.813232E-17	0.000000E+00
6.720000E+03	3.768768E-17	0.000000E+00
6.730000E+03	3.721949E-17	0.000000E+00
6.740000E+03	3.673207E-17	0.000000E+00
6.750000E+03	3.622755E-17	0.000000E+00
6.760000E+03	3.571057E-17	0.000000E+00
6.770000E+03	3.518332E-17	0.000000E+00
6.780000E+03	3.465081E-17	0.000000E+00
6.790000E+03	3.411577E-17	0.000000E+00
6.800000E+03	3.358305E-17	0.000000E+00
6.810000E+03	3.305683E-17	0.000000E+00
6.820000E+03	3.254050E-17	0.000000E+00
6.830000E+03	3.203826E-17	0.000000E+00
6.840000E+03	3.155248E-17	0.000000E+00
6.850000E+03	3.108605E-17	0.000000E+00
6.860000E+03	3.063933E-17	0.000000E+00
6.870000E+03	3.021431E-17	0.000000E+00
6.880000E+03	2.981066E-17	0.000000E+00
6.890000E+03	2.942816E-17	0.000000E+00
6.900000E+03	2.906569E-17	0.000000E+00
6.910000E+03	2.872361E-17	0.000000E+00
6.920000E+03	2.839946E-17	0.000000E+00
6.930000E+03	2.809404E-17	0.000000E+00
6.940000E+03	2.780551E-17	0.000000E+00
6.950000E+03	2.753316E-17	0.000000E+00
6.960000E+03	2.727693E-17	0.000000E+00
6.970000E+03	2.703584E-17	0.000000E+00
6.980000E+03	2.680946E-17	0.000000E+00
6.990000E+03	2.659754E-17	0.000000E+00
7.000000E+03	2.639986E-17	0.000000E+00
7.010000E+03	2.621628E-17	0.000000E+00
7.020000E+03	2.604617E-17	0.000000E+00
7.030000E+03	2.589047E-17	0.000000E+00
7.040000E+03	2.574749E-17	0.000000E+00
7.050000E+03	2.561861E-17	0.000000E+00
7.060000E+03	2.550200E-17	0.000000E+00
7.070000E+03	2.539832E-17	0.000000E+00
7.080000E+03	2.530664E-17	0.000000E+00
7.090000E+03	2.522644E-17	0.000000E+00
7.100000E+03	2.515774E-17	0.000000E+00
7.110000E+03	2.509911E-17	0.000000E+00
7.120000E+03	2.505074E-17	0.000000E+00
7.130000E+03	2.501192E-17	0.000000E+00
7.140000E+03	2.498312E-17	0.000000E+00
7.150000E+03	2.496444E-17	0.000000E+00
7.160000E+03	2.495556E-17	0.000000E+00
7.170000E+03	2.495717E-17	0.000000E+00
7.180000E+03	2.496846E-17	0.000000E+00
7.190000E+03	2.499055E-17	0.000000E+00
7.200000E+03	2.502300E-17	0.000000E+00
7.210000E+03	2.506525E-17	0.000000E+00
7.220000E+03	2.511782E-17	0.000000E+00
7.230000E+03	2.518072E-17	0.000000E+00
7.240000E+03	2.525360E-17	0.000000E+00
7.250000E+03	2.533680E-17	0.000000E+00
7.260000E+03	2.543089E-17	0.000000E+00
7.270000E+03	2.553672E-17	0.000000E+00
7.280000E+03	2.565531E-17	0.000000E+00
7.290000E+03	2.578683E-17	0.000000E+00
7.300000E+03	2.593359E-17	0.000000E+00
7.310000E+03	2.609627E-17	0.000000E+00
7.320000E+03	2.627535E-17	0.000000E+00
7.330000E+03	2.647216E-17	0.000000E+00
7.340000E+03	2.668601E-17	0.000000E+00
7.350000E+03	2.691689E-17	0.000000E+00
7.360000E+03	2.716437E-17	0.000000E+00
7.370000E+03	2.742697E-17	0.000000E+00
7.380000E+03	2.770394E-17	0.000000E+00
7.390000E+03	2.799164E-17	0.000000E+00
7.400000E+03	2.828892E-17	0.000000E+00
7.410000E+03	2.859170E-17	0.000000E+00
7.420000E+03	2.889719E-17	0.000000E+00
7.430000E+03	2.920090E-17	0.000000E+00
7.440000E+03	2.949853E-17	0.000000E+00
7.450000E+03	2.978605E-17	0.000000E+00
7.460000E+03	3.005802E-17	0.000000E+00
7.470000E+03	3.031162E-17	0.000000E+00
7.480000E+03	3.054098E-17	0.000000E+00
7.490000E+03	3.074333E-17	0.000000E+00
7.500000E+03	3.091457E-17	0.000000E+00
7.510000E+03	3.105412E-17	0.000000E+00
7.520000E+03	3.115966E-17	0.000000E+00
7.530000E+03	3.123053E-17	0.000000E+00
7.540000E+03	3.126775E-17	0.000000E+00
7.550000E+03	3.127254E-17	0.000000E+00
7.560000E+03	3.124830E-17	0.000000E+00
7.570000E+03	3.119622E-17	0.000000E+00
7.580000E+03	3.111998E-17	0.000000E+00
7.590000E+03	3.102349E-17	0.000000E+00
7.600000E+03	3.090932E-17	0.000000E+00
7.610000E+03	3.078132E-17	0.000000E+00
7.620000E+03	3.064174E-17	0.000000E+00
7.630000E+03	3.049460E-17	0.000000E+00
7.640000E+03	3.034083E-17	0.000000E+00
7.650000E+03	3.018376E-17	0.000000E+00
7.660000E+03	3.002365E-17	0.000000E+00
7.670000E+03	2.986323E-17	0.000000E+00
7.680000E+03	2.970226E-17	0.000000E+00
7.690000E+03	2.954301E-17	0.000000E+00
7.700000E+03	2.938558E-17	0.000000E+00
7.710000E+03	2.923061E-17	0.000000E+00
7.720000E+03	2.907862E-17	0.000000E+00
7.730000E+03	2.892999E-17	0.000000E+00
7.740000E+03	2.878497E-17	0.000000E+00
7.750000E+03	2.864296E-17	0.000000E+00
7.760000E+03	2.850521E-17	0.000000E+00
