#wls	flux	fluxerr
1.600000E+03	5.465491E-18	5.132899E-20
1.640000E+03	5.265904E-18	4.930531E-20
1.680000E+03	5.059397E-18	4.722463E-20
1.720000E+03	4.848128E-18	4.510805E-20
1.760000E+03	4.630032E-18	4.293722E-20
1.800000E+03	4.408202E-18	4.074179E-20
1.840000E+03	4.181749E-18	3.851437E-20
1.880000E+03	3.952259E-18	3.627044E-20
1.920000E+03	3.719989E-18	3.401315E-20
1.960000E+03	3.486665E-18	3.175902E-20
2.000000E+03	3.253386E-18	2.951866E-20
2.040000E+03	3.021334E-18	2.730331E-20
2.080000E+03	2.791768E-18	2.512472E-20
2.120000E+03	2.565989E-18	2.299484E-20
2.160000E+03	2.344924E-18	2.092209E-20
2.200000E+03	2.130361E-18	1.892238E-20
2.240000E+03	1.923893E-18	1.700958E-20
2.280000E+03	1.726039E-18	1.518784E-20
2.320000E+03	1.538246E-18	1.346928E-20
2.360000E+03	1.361461E-18	1.186141E-20
2.400000E+03	1.196460E-18	1.037000E-20
2.440000E+03	1.043996E-18	9.000460E-21
2.480000E+03	9.040760E-19	7.751570E-21
2.520000E+03	7.770479E-19	6.624961E-21
2.560000E+03	6.629514E-19	5.619503E-21
2.600000E+03	5.613696E-19	4.730136E-21
2.640000E+03	4.718408E-19	3.951434E-21
2.680000E+03	3.937367E-19	3.276599E-21
2.720000E+03	3.262937E-19	2.697776E-21
2.760000E+03	2.686472E-19	2.206372E-21
2.800000E+03	2.199026E-19	1.793672E-21
2.840000E+03	1.790540E-19	1.450200E-21
2.880000E+03	1.451497E-19	1.167087E-21
2.920000E+03	1.172857E-19	9.360208E-22
2.960000E+03	9.455407E-20	7.488264E-22
3.000000E+03	7.618950E-20	5.986339E-22
3.010000E+03	7.219853E-20	5.661359E-22
3.020000E+03	6.841219E-20	5.353598E-22
3.030000E+03	6.484171E-20	5.063846E-22
3.040000E+03	6.146668E-20	4.790416E-22
3.050000E+03	5.827789E-20	4.532507E-22
3.060000E+03	5.525821E-20	4.288707E-22
3.070000E+03	5.241597E-20	4.059585E-22
3.080000E+03	4.973424E-20	3.843754E-22
3.090000E+03	4.720510E-20	3.640530E-22
3.100000E+03	4.482756E-20	3.449768E-22
3.110000E+03	4.258074E-20	3.269795E-22
3.120000E+03	4.046467E-20	3.100553E-22
3.130000E+03	3.847264E-20	2.941470E-22
3.140000E+03	3.660368E-20	2.792414E-22
3.150000E+03	3.484580E-20	2.652414E-22
3.160000E+03	3.318837E-20	2.520612E-22
3.170000E+03	3.163591E-20	2.397301E-22
3.180000E+03	3.017810E-20	2.281652E-22
3.190000E+03	2.881002E-20	2.173250E-22
3.200000E+03	2.752300E-20	2.071397E-22
3.210000E+03	2.632081E-20	1.976338E-22
3.220000E+03	2.519875E-20	1.887679E-22
3.230000E+03	2.414541E-20	1.804530E-22
3.240000E+03	2.316096E-20	1.726868E-22
3.250000E+03	2.224188E-20	1.654398E-22
3.260000E+03	2.138805E-20	1.587079E-22
3.270000E+03	2.059017E-20	1.524188E-22
3.280000E+03	1.985145E-20	1.465936E-22
3.290000E+03	1.916356E-20	1.411678E-22
3.300000E+03	1.852967E-20	1.361621E-22
3.310000E+03	1.794480E-20	1.315373E-22
3.320000E+03	1.740700E-20	1.272765E-22
3.330000E+03	1.691210E-20	1.233470E-22
3.340000E+03	1.646343E-20	1.197706E-22
3.350000E+03	1.605720E-20	1.165174E-22
3.360000E+03	1.569450E-20	1.135931E-22
3.370000E+03	1.536996E-20	1.109565E-22
3.380000E+03	1.508519E-20	1.086172E-22
3.390000E+03	1.483978E-20	1.065701E-22
3.400000E+03	1.463563E-20	1.048265E-22
3.410000E+03	1.446876E-20	1.033559E-22
3.420000E+03	1.434369E-20	1.021882E-22
3.430000E+03	1.425722E-20	1.012984E-22
3.440000E+03	1.421452E-20	1.007209E-22
3.450000E+03	1.421522E-20	1.004506E-22
3.460000E+03	1.426146E-20	1.005001E-22
3.470000E+03	1.435397E-20	1.008718E-22
3.480000E+03	1.450003E-20	1.016139E-22
3.490000E+03	1.470177E-20	1.027382E-22
3.500000E+03	1.496417E-20	1.042761E-22
3.510000E+03	1.529319E-20	1.062653E-22
3.520000E+03	1.569811E-20	1.087661E-22
3.530000E+03	1.618317E-20	1.118032E-22
3.540000E+03	1.676046E-20	1.154548E-22
3.550000E+03	1.744168E-20	1.197958E-22
3.560000E+03	1.824296E-20	1.249299E-22
3.570000E+03	1.917531E-20	1.309251E-22
3.580000E+03	2.026212E-20	1.379322E-22
3.590000E+03	2.151908E-20	1.460482E-22
3.600000E+03	2.297593E-20	1.554635E-22
3.610000E+03	2.465429E-20	1.663112E-22
3.620000E+03	2.659214E-20	1.788326E-22
3.630000E+03	2.882276E-20	1.932344E-22
3.640000E+03	3.138792E-20	2.097770E-22
3.650000E+03	3.433580E-20	2.287598E-22
3.660000E+03	3.771707E-20	2.504946E-22
3.670000E+03	4.160566E-20	2.754429E-22
3.680000E+03	4.607169E-20	3.040344E-22
3.690000E+03	5.120177E-20	3.368011E-22
3.700000E+03	5.709634E-20	3.743582E-22
3.710000E+03	6.387207E-20	4.174181E-22
3.720000E+03	7.167367E-20	4.668652E-22
3.730000E+03	8.064069E-20	5.235379E-22
3.740000E+03	9.096378E-20	5.885927E-22
3.750000E+03	1.028544E-19	6.633033E-22
3.760000E+03	1.165729E-19	7.492385E-22
3.770000E+03	1.323754E-19	8.479161E-22
3.780000E+03	1.506042E-19	9.613833E-22
3.790000E+03	1.716628E-19	1.092042E-21
3.800000E+03	1.959511E-19	1.242238E-21
3.810000E+03	2.239983E-19	1.415097E-21
3.820000E+03	2.564261E-19	1.614276E-21
3.830000E+03	2.938531E-19	1.843360E-21
3.840000E+03	3.371342E-19	2.107352E-21
3.850000E+03	3.870919E-19	2.410975E-21
3.860000E+03	4.448574E-19	2.760792E-21
3.870000E+03	5.115825E-19	3.163390E-21
3.880000E+03	5.885629E-19	3.626135E-21
3.890000E+03	6.775049E-19	4.158795E-21
3.900000E+03	7.800391E-19	4.770515E-21
3.910000E+03	8.983938E-19	5.473930E-21
3.920000E+03	1.034815E-18	6.281573E-21
3.930000E+03	1.191801E-18	7.207306E-21
3.940000E+03	1.372635E-18	8.269461E-21
3.950000E+03	1.580587E-18	9.486001E-21
3.960000E+03	1.819267E-18	1.087661E-20
3.970000E+03	2.093416E-18	1.246737E-20
3.980000E+03	2.407688E-18	1.428339E-20
3.990000E+03	2.767510E-18	1.635392E-20
4.000000E+03	3.178551E-18	1.870911E-20
4.010000E+03	3.648276E-18	2.138910E-20
4.020000E+03	4.183806E-18	2.443132E-20
4.030000E+03	4.792795E-18	2.787562E-20
4.040000E+03	5.485395E-18	3.177559E-20
4.050000E+03	6.271004E-18	3.617949E-20
4.060000E+03	7.159550E-18	4.113775E-20
4.070000E+03	8.164363E-18	4.671930E-20
4.080000E+03	9.297291E-18	5.298334E-20
4.090000E+03	1.057057E-17	5.999016E-20
4.100000E+03	1.200097E-17	6.782447E-20
4.110000E+03	1.360255E-17	7.655418E-20
4.120000E+03	1.538941E-17	8.624592E-20
4.130000E+03	1.738151E-17	9.699792E-20
4.140000E+03	1.959192E-17	1.088679E-19
4.150000E+03	2.204230E-17	1.219601E-19
4.160000E+03	2.474490E-17	1.363248E-19
4.170000E+03	2.772241E-17	1.520682E-19
4.180000E+03	3.098494E-17	1.692258E-19
4.190000E+03	3.455505E-17	1.878997E-19
4.200000E+03	3.843901E-17	2.081017E-19
4.210000E+03	4.265269E-17	2.298949E-19
4.220000E+03	4.721147E-17	2.533381E-19
4.230000E+03	5.211166E-17	2.783866E-19
4.240000E+03	5.736159E-17	3.050603E-19
4.250000E+03	6.296043E-17	3.333299E-19
4.260000E+03	6.891071E-17	3.631835E-19
4.270000E+03	7.518602E-17	3.944576E-19
4.280000E+03	8.177686E-17	4.270795E-19
4.290000E+03	8.865987E-17	4.609053E-19
4.300000E+03	9.580471E-17	4.957575E-19
4.310000E+03	1.031738E-16	5.314239E-19
4.320000E+03	1.107219E-16	5.676575E-19
4.330000E+03	1.183826E-16	6.041071E-19
4.340000E+03	1.261225E-16	6.405950E-19
4.350000E+03	1.338619E-16	6.767143E-19
4.360000E+03	1.415287E-16	7.121031E-19
4.370000E+03	1.490304E-16	7.463044E-19
4.380000E+03	1.563249E-16	7.791207E-19
4.390000E+03	1.633050E-16	8.100371E-19
4.400000E+03	1.699419E-16	8.389342E-19
4.410000E+03	1.761414E-16	8.653755E-19
4.420000E+03	1.818763E-16	8.892608E-19
4.430000E+03	1.871323E-16	9.105538E-19
4.440000E+03	1.918408E-16	9.289585E-19
4.450000E+03	1.960045E-16	9.445270E-19
4.460000E+03	1.996127E-16	9.572491E-19
4.470000E+03	2.026622E-16	9.671491E-19
4.480000E+03	2.051561E-16	9.742819E-19
4.490000E+03	2.070800E-16	9.786201E-19
4.500000E+03	2.084950E-16	9.804918E-19
4.510000E+03	2.093976E-16	9.799170E-19
4.520000E+03	2.097878E-16	9.769323E-19
4.530000E+03	2.097402E-16	9.719194E-19
4.540000E+03	2.092381E-16	9.648329E-19
4.550000E+03	2.083611E-16	9.560692E-19
4.560000E+03	2.070971E-16	9.455992E-19
4.570000E+03	2.055047E-16	9.337165E-19
4.580000E+03	2.036201E-16	9.206072E-19
4.590000E+03	2.014796E-16	9.064537E-19
4.600000E+03	1.991184E-16	8.914311E-19
4.610000E+03	1.965715E-16	8.757106E-19
4.620000E+03	1.938723E-16	8.594516E-19
4.630000E+03	1.910322E-16	8.427145E-19
4.640000E+03	1.881236E-16	8.258257E-19
4.650000E+03	1.851334E-16	8.087329E-19
4.660000E+03	1.821089E-16	7.916458E-19
4.670000E+03	1.790938E-16	7.747557E-19
4.680000E+03	1.760707E-16	7.579859E-19
4.690000E+03	1.730785E-16	7.415039E-19
4.700000E+03	1.701333E-16	7.253752E-19
4.710000E+03	1.672482E-16	7.096525E-19
4.720000E+03	1.644160E-16	6.943003E-19
4.730000E+03	1.616813E-16	6.795029E-19
4.740000E+03	1.590334E-16	6.652082E-19
4.750000E+03	1.564612E-16	6.513651E-19
4.760000E+03	1.539853E-16	6.380538E-19
4.770000E+03	1.516238E-16	6.253420E-19
4.780000E+03	1.493438E-16	6.130879E-19
4.790000E+03	1.471608E-16	6.013497E-19
4.800000E+03	1.450736E-16	5.901162E-19
4.810000E+03	1.430801E-16	5.793733E-19
4.820000E+03	1.411633E-16	5.690464E-19
4.830000E+03	1.393508E-16	5.592420E-19
4.840000E+03	1.376103E-16	5.498239E-19
4.850000E+03	1.359685E-16	5.408945E-19
4.860000E+03	1.343936E-16	5.323212E-19
4.870000E+03	1.328975E-16	5.241465E-19
4.880000E+03	1.314777E-16	5.163560E-19
4.890000E+03	1.301317E-16	5.089352E-19
4.900000E+03	1.288567E-16	5.018693E-19
4.910000E+03	1.276505E-16	4.951454E-19
4.920000E+03	1.264972E-16	4.886983E-19
4.930000E+03	1.254215E-16	4.826199E-19
4.940000E+03	1.243946E-16	4.767957E-19
4.950000E+03	1.234276E-16	4.712656E-19
4.960000E+03	1.225183E-16	4.660186E-19
4.970000E+03	1.216650E-16	4.610443E-19
4.980000E+03	1.208655E-16	4.563327E-19
4.990000E+03	1.201181E-16	4.518744E-19
5.000000E+03	1.194209E-16	4.476602E-19
5.010000E+03	1.187599E-16	4.436352E-19
5.020000E+03	1.181582E-16	4.398844E-19
5.030000E+03	1.175895E-16	4.363076E-19
5.040000E+03	1.170647E-16	4.329435E-19
5.050000E+03	1.165821E-16	4.297849E-19
5.060000E+03	1.161404E-16	4.268250E-19
5.070000E+03	1.157381E-16	4.240570E-19
5.080000E+03	1.153737E-16	4.214744E-19
5.090000E+03	1.150338E-16	4.190275E-19
5.100000E+03	1.147411E-16	4.167978E-19
5.110000E+03	1.144703E-16	4.146925E-19
5.120000E+03	1.142321E-16	4.127494E-19
5.130000E+03	1.140367E-16	4.110056E-19
5.140000E+03	1.138593E-16	4.093703E-19
5.150000E+03	1.137103E-16	4.078810E-19
5.160000E+03	1.135766E-16	4.064903E-19
5.170000E+03	1.134803E-16	4.052773E-19
5.180000E+03	1.134084E-16	4.041949E-19
5.190000E+03	1.133476E-16	4.031963E-19
5.200000E+03	1.133085E-16	4.023186E-19
5.210000E+03	1.133010E-16	4.015977E-19
5.220000E+03	1.133004E-16	4.009455E-19
5.230000E+03	1.133170E-16	4.003993E-19
5.240000E+03	1.133376E-16	3.999123E-19
5.250000E+03	1.133839E-16	3.995620E-19
5.260000E+03	1.134428E-16	3.993020E-19
5.270000E+03	1.135010E-16	3.990863E-19
5.280000E+03	1.135802E-16	3.989917E-19
5.290000E+03	1.136555E-16	3.989311E-19
5.300000E+03	1.137368E-16	3.989398E-19
5.310000E+03	1.138227E-16	3.990131E-19
5.320000E+03	1.139113E-16	3.991456E-19
5.330000E+03	1.140009E-16	3.993314E-19
5.340000E+03	1.140898E-16	3.995655E-19
5.350000E+03	1.141647E-16	3.998017E-19
5.360000E+03	1.142473E-16	4.001162E-19
5.370000E+03	1.143126E-16	4.004223E-19
5.380000E+03	1.143706E-16	4.007547E-19
5.390000E+03	1.144312E-16	4.011481E-19
5.400000E+03	1.144694E-16	4.015137E-19
5.410000E+03	1.144951E-16	4.018850E-19
5.420000E+03	1.144948E-16	4.022141E-19
5.430000E+03	1.144902E-16	4.025757E-19
5.440000E+03	1.144679E-16	4.029221E-19
5.450000E+03	1.144148E-16	4.032060E-19
5.460000E+03	1.143530E-16	4.035039E-19
5.470000E+03	1.142579E-16	4.037279E-19
5.480000E+03	1.141405E-16	4.039150E-19
5.490000E+03	1.140001E-16	4.040617E-19
5.500000E+03	1.138363E-16	4.041650E-19
5.510000E+03	1.136494E-16	4.042246E-19
5.520000E+03	1.134400E-16	4.042408E-19
5.530000E+03	1.131974E-16	4.041739E-19
5.540000E+03	1.129454E-16	4.041077E-19
5.550000E+03	1.126624E-16	4.039626E-19
5.560000E+03	1.123725E-16	4.038235E-19
5.570000E+03	1.120543E-16	4.036125E-19
5.580000E+03	1.117205E-16	4.033733E-19
5.590000E+03	1.113730E-16	4.031108E-19
5.600000E+03	1.110128E-16	4.028280E-19
5.610000E+03	1.106419E-16	4.025298E-19
5.620000E+03	1.102617E-16	4.022203E-19
5.630000E+03	1.098736E-16	4.019032E-19
5.640000E+03	1.094683E-16	4.015431E-19
5.650000E+03	1.090693E-16	4.012250E-19
5.660000E+03	1.086561E-16	4.008717E-19
5.670000E+03	1.082411E-16	4.005281E-19
5.680000E+03	1.078364E-16	4.002382E-19
5.690000E+03	1.074216E-16	3.999252E-19
5.700000E+03	1.070089E-16	3.996329E-19
5.710000E+03	1.065992E-16	3.993647E-19
5.720000E+03	1.061938E-16	3.991238E-19
5.730000E+03	1.057828E-16	3.988728E-19
5.740000E+03	1.053886E-16	3.986948E-19
5.750000E+03	1.050012E-16	3.985521E-19
5.760000E+03	1.046108E-16	3.984063E-19
5.770000E+03	1.042285E-16	3.982998E-19
5.780000E+03	1.038655E-16	3.982740E-19
5.790000E+03	1.035012E-16	3.982504E-19
5.800000E+03	1.031464E-16	3.982699E-19
5.810000E+03	1.028015E-16	3.983334E-19
5.820000E+03	1.024665E-16	3.984409E-19
5.830000E+03	1.021416E-16	3.985930E-19
5.840000E+03	1.018268E-16	3.987892E-19
5.850000E+03	1.015219E-16	3.990290E-19
5.860000E+03	1.012270E-16	3.993121E-19
5.870000E+03	1.009315E-16	3.995973E-19
5.880000E+03	1.006555E-16	3.999628E-19
5.890000E+03	1.003783E-16	4.003273E-19
5.900000E+03	1.001097E-16	4.007291E-19
5.910000E+03	9.985901E-17	4.012057E-19
5.920000E+03	9.960572E-17	4.016746E-19
5.930000E+03	9.935907E-17	4.021728E-19
5.940000E+03	9.911838E-17	4.026973E-19
5.950000E+03	9.888285E-17	4.032449E-19
5.960000E+03	9.865160E-17	4.038118E-19
5.970000E+03	9.842373E-17	4.043942E-19
5.980000E+03	9.819828E-17	4.049878E-19
5.990000E+03	9.797424E-17	4.055884E-19
6.000000E+03	9.774074E-17	4.061505E-19
6.010000E+03	9.751638E-17	4.067510E-19
6.020000E+03	9.728049E-17	4.073035E-19
6.030000E+03	9.705155E-17	4.078849E-19
6.040000E+03	9.680900E-17	4.084084E-19
6.050000E+03	9.657135E-17	4.089517E-19
6.060000E+03	9.631827E-17	4.094282E-19
6.070000E+03	9.605875E-17	4.098754E-19
6.080000E+03	9.579220E-17	4.102903E-19
6.090000E+03	9.551826E-17	4.106707E-19
6.100000E+03	9.523691E-17	4.110160E-19
6.110000E+03	9.494838E-17	4.113266E-19
6.120000E+03	9.465330E-17	4.116048E-19
6.130000E+03	9.435255E-17	4.118540E-19
6.140000E+03	9.404718E-17	4.120783E-19
6.150000E+03	9.373803E-17	4.122810E-19
6.160000E+03	9.341582E-17	4.124207E-19
6.170000E+03	9.309801E-17	4.125743E-19
6.180000E+03	9.276273E-17	4.126443E-19
6.190000E+03	9.242526E-17	4.126980E-19
6.200000E+03	9.206642E-17	4.126491E-19
6.210000E+03	9.170786E-17	4.125935E-19
6.220000E+03	9.133484E-17	4.124643E-19
6.230000E+03	9.095880E-17	4.123123E-19
6.240000E+03	9.058936E-17	4.121807E-19
6.250000E+03	9.020774E-17	4.119840E-19
6.260000E+03	8.982235E-17	4.117596E-19
6.270000E+03	8.943242E-17	4.115035E-19
6.280000E+03	8.903749E-17	4.112132E-19
6.290000E+03	8.863740E-17	4.108872E-19
6.300000E+03	8.823231E-17	4.105259E-19
6.310000E+03	8.782267E-17	4.101308E-19
6.320000E+03	8.740909E-17	4.097044E-19
6.330000E+03	8.699240E-17	4.092500E-19
6.340000E+03	8.657352E-17	4.087716E-19
6.350000E+03	8.614472E-17	4.082323E-19
6.360000E+03	8.572447E-17	4.077192E-19
6.370000E+03	8.530506E-17	4.071957E-19
6.380000E+03	8.487893E-17	4.066256E-19
6.390000E+03	8.446428E-17	4.060956E-19
6.400000E+03	8.404494E-17	4.055284E-19
6.410000E+03	8.363886E-17	4.050103E-19
6.420000E+03	8.322995E-17	4.044637E-19
6.430000E+03	8.283591E-17	4.039747E-19
6.440000E+03	8.244070E-17	4.034654E-19
6.450000E+03	8.206177E-17	4.030213E-19
6.460000E+03	8.168312E-17	4.025643E-19
6.470000E+03	8.131374E-17	4.021386E-19
6.480000E+03	8.095417E-17	4.017475E-19
6.490000E+03	8.060498E-17	4.013940E-19
6.500000E+03	8.027477E-17	4.011217E-19
6.510000E+03	7.994772E-17	4.008521E-19
6.520000E+03	7.963239E-17	4.006283E-19
6.530000E+03	7.932919E-17	4.004529E-19
6.540000E+03	7.903849E-17	4.003283E-19
6.550000E+03	7.876062E-17	4.002569E-19
6.560000E+03	7.849589E-17	4.002406E-19
6.570000E+03	7.824460E-17	4.002818E-19
6.580000E+03	7.799909E-17	4.003418E-19
6.590000E+03	7.777550E-17	4.005037E-19
6.600000E+03	7.756612E-17	4.007289E-19
6.610000E+03	7.737118E-17	4.010193E-19
6.620000E+03	7.719090E-17	4.013767E-19
6.630000E+03	7.701765E-17	4.017619E-19
6.640000E+03	7.686733E-17	4.022585E-19
6.650000E+03	7.673227E-17	4.028273E-19
6.660000E+03	7.660486E-17	4.034290E-19
6.670000E+03	7.650089E-17	4.041474E-19
6.680000E+03	7.640492E-17	4.049018E-19
6.690000E+03	7.633273E-17	4.057764E-19
6.700000E+03	7.626891E-17	4.066901E-19
6.710000E+03	7.622916E-17	4.077275E-19
6.720000E+03	7.619809E-17	4.088069E-19
6.730000E+03	7.619141E-17	4.100135E-19
6.740000E+03	7.619371E-17	4.112652E-19
6.750000E+03	7.621288E-17	4.126051E-19
6.760000E+03	7.624909E-17	4.140350E-19
6.770000E+03	7.631024E-17	4.155986E-19
6.780000E+03	7.638085E-17	4.172127E-19
6.790000E+03	7.646884E-17	4.189211E-19
6.800000E+03	7.657429E-17	4.207250E-19
6.810000E+03	7.670516E-17	4.226691E-19
6.820000E+03	7.684581E-17	4.246681E-19
6.830000E+03	7.700415E-17	4.267664E-19
6.840000E+03	7.718022E-17	4.289651E-19
6.850000E+03	7.737404E-17	4.312651E-19
6.860000E+03	7.758563E-17	4.336673E-19
6.870000E+03	7.781498E-17	4.361724E-19
6.880000E+03	7.806204E-17	4.387812E-19
6.890000E+03	7.832677E-17	4.414940E-19
6.900000E+03	7.860907E-17	4.443112E-19
6.910000E+03	7.890071E-17	4.471871E-19
6.920000E+03	7.921774E-17	4.502131E-19
6.930000E+03	7.955192E-17	4.533436E-19
6.940000E+03	7.990301E-17	4.565779E-19
6.950000E+03	8.027078E-17	4.599156E-19
6.960000E+03	8.064663E-17	4.633079E-19
6.970000E+03	8.104681E-17	4.668489E-19
6.980000E+03	8.146268E-17	4.704898E-19
6.990000E+03	8.188537E-17	4.741799E-19
7.000000E+03	8.233128E-17	4.780148E-19
7.010000E+03	8.278292E-17	4.818937E-19
7.020000E+03	8.325679E-17	4.859133E-19
7.030000E+03	8.373512E-17	4.899704E-19
7.040000E+03	8.423447E-17	4.941626E-19
7.050000E+03	8.473675E-17	4.983843E-19
7.060000E+03	8.525864E-17	5.027341E-19
7.070000E+03	8.578166E-17	5.071038E-19
7.080000E+03	8.632263E-17	5.115928E-19
7.090000E+03	8.686270E-17	5.160902E-19
7.100000E+03	8.740969E-17	5.206425E-19
7.110000E+03	8.796245E-17	5.252433E-19
7.120000E+03	8.852900E-17	5.299406E-19
7.130000E+03	8.908969E-17	5.346175E-19
7.140000E+03	8.965229E-17	5.393203E-19
7.150000E+03	9.021536E-17	5.440404E-19
7.160000E+03	9.077736E-17	5.487688E-19
7.170000E+03	9.133668E-17	5.534956E-19
7.180000E+03	9.189161E-17	5.582103E-19
7.190000E+03	9.244038E-17	5.629022E-19
7.200000E+03	9.298108E-17	5.675593E-19
7.210000E+03	9.351176E-17	5.721693E-19
7.220000E+03	9.403034E-17	5.767193E-19
7.230000E+03	9.453466E-17	5.811954E-19
7.240000E+03	9.502249E-17	5.855834E-19
7.250000E+03	9.549145E-17	5.898680E-19
7.260000E+03	9.592907E-17	5.939712E-19
7.270000E+03	9.635284E-17	5.980003E-19
7.280000E+03	9.675015E-17	6.018763E-19
7.290000E+03	9.710811E-17	6.055179E-19
7.300000E+03	9.744424E-17	6.090329E-19
7.310000E+03	9.774554E-17	6.123391E-19
7.320000E+03	9.799884E-17	6.153523E-19
7.330000E+03	9.822175E-17	6.181814E-19
7.340000E+03	9.839071E-17	6.206766E-19
7.350000E+03	9.852351E-17	6.229483E-19
7.360000E+03	9.859665E-17	6.248459E-19
7.370000E+03	9.861785E-17	6.264160E-19
7.380000E+03	9.859511E-17	6.277075E-19
7.390000E+03	9.850562E-17	6.285730E-19
7.400000E+03	9.835822E-17	6.290662E-19
7.410000E+03	9.815200E-17	6.291791E-19
7.420000E+03	9.788689E-17	6.289085E-19
7.430000E+03	9.756381E-17	6.282580E-19
7.440000E+03	9.719510E-17	6.273049E-19
7.450000E+03	9.676355E-17	6.259359E-19
7.460000E+03	9.628417E-17	6.242457E-19
7.470000E+03	9.575260E-17	6.222040E-19
7.480000E+03	9.519546E-17	6.199820E-19
7.490000E+03	9.460843E-17	6.175504E-19
7.500000E+03	9.399574E-17	6.149357E-19
7.510000E+03	9.335965E-17	6.121516E-19
7.520000E+03	9.270099E-17	6.092026E-19
7.530000E+03	9.200962E-17	6.060208E-19
7.540000E+03	9.130298E-17	6.027197E-19
7.550000E+03	9.055786E-17	5.991449E-19
7.560000E+03	8.978943E-17	5.953952E-19
7.570000E+03	8.897482E-17	5.913173E-19
7.580000E+03	8.813057E-17	5.870192E-19
7.590000E+03	8.723659E-17	5.823654E-19
7.600000E+03	8.631160E-17	5.774789E-19
7.610000E+03	8.533821E-17	5.722413E-19
7.620000E+03	8.432769E-17	5.667262E-19
7.630000E+03	8.329161E-17	5.610098E-19
7.640000E+03	8.221509E-17	5.549903E-19
7.650000E+03	8.111050E-17	5.487495E-19
7.660000E+03	7.998136E-17	5.423098E-19
7.670000E+03	7.883120E-17	5.356940E-19
7.680000E+03	7.766352E-17	5.289250E-19
7.690000E+03	7.648173E-17	5.220250E-19
7.700000E+03	7.528908E-17	5.150157E-19
7.710000E+03	7.408866E-17	5.079176E-19
7.720000E+03	7.287554E-17	5.006964E-19
7.730000E+03	7.166829E-17	4.934793E-19
7.740000E+03	7.046143E-17	4.862287E-19
7.750000E+03	6.924981E-17	4.789089E-19
7.760000E+03	6.805069E-17	4.716393E-19
