#wls	flux	fluxerr
1.600000E+03	2.520889E-18	1.601500E-19
1.640000E+03	2.453337E-18	1.553015E-19
1.680000E+03	2.383344E-18	1.503164E-19
1.720000E+03	2.311445E-18	1.452309E-19
1.760000E+03	2.236948E-18	1.400040E-19
1.800000E+03	2.160843E-18	1.347005E-19
1.840000E+03	2.082541E-18	1.292860E-19
1.880000E+03	2.003036E-18	1.238248E-19
1.920000E+03	1.921847E-18	1.182895E-19
1.960000E+03	1.839959E-18	1.127431E-19
2.000000E+03	1.756996E-18	1.071648E-19
2.040000E+03	1.673927E-18	1.016154E-19
2.080000E+03	1.590758E-18	9.609706E-20
2.120000E+03	1.507568E-18	9.061606E-20
2.160000E+03	1.425271E-18	8.522859E-20
2.200000E+03	1.343942E-18	7.993985E-20
2.240000E+03	1.263938E-18	7.477166E-20
2.280000E+03	1.185608E-18	6.974491E-20
2.320000E+03	1.109289E-18	6.487918E-20
2.360000E+03	1.035296E-18	6.019241E-20
2.400000E+03	9.639220E-19	5.570064E-20
2.440000E+03	8.954290E-19	5.141775E-20
2.480000E+03	8.300464E-19	4.735521E-20
2.520000E+03	7.679671E-19	4.352201E-20
2.560000E+03	7.093462E-19	3.992456E-20
2.600000E+03	6.542982E-19	3.656664E-20
2.640000E+03	6.030065E-19	3.345553E-20
2.680000E+03	5.552847E-19	3.057766E-20
2.720000E+03	5.112508E-19	2.793624E-20
2.760000E+03	4.709575E-19	2.553058E-20
2.800000E+03	4.341709E-19	2.334431E-20
2.840000E+03	4.008991E-19	2.137417E-20
2.880000E+03	3.711080E-19	1.961451E-20
2.920000E+03	3.445489E-19	1.804830E-20
2.960000E+03	3.212338E-19	1.667231E-20
3.000000E+03	3.009310E-19	1.547062E-20
3.010000E+03	2.963495E-19	1.519819E-20
3.020000E+03	2.919512E-19	1.493608E-20
3.030000E+03	2.876834E-19	1.468155E-20
3.040000E+03	2.836483E-19	1.443975E-20
3.050000E+03	2.797924E-19	1.420789E-20
3.060000E+03	2.760659E-19	1.398339E-20
3.070000E+03	2.725663E-19	1.377112E-20
3.080000E+03	2.692433E-19	1.356847E-20
3.090000E+03	2.660487E-19	1.337296E-20
3.100000E+03	2.630770E-19	1.318928E-20
3.110000E+03	2.602800E-19	1.301494E-20
3.120000E+03	2.576118E-19	1.284759E-20
3.130000E+03	2.551640E-19	1.269172E-20
3.140000E+03	2.528458E-19	1.254277E-20
3.150000E+03	2.507474E-19	1.240514E-20
3.160000E+03	2.488241E-19	1.227654E-20
3.170000E+03	2.470329E-19	1.215479E-20
3.180000E+03	2.454625E-19	1.204420E-20
3.190000E+03	2.440700E-19	1.194256E-20
3.200000E+03	2.428137E-19	1.184779E-20
3.210000E+03	2.417820E-19	1.176412E-20
3.220000E+03	2.409330E-19	1.168944E-20
3.230000E+03	2.402271E-19	1.162175E-20
3.240000E+03	2.397518E-19	1.156522E-20
3.250000E+03	2.394676E-19	1.151784E-20
3.260000E+03	2.393778E-19	1.147971E-20
3.270000E+03	2.394440E-19	1.144889E-20
3.280000E+03	2.397551E-19	1.142955E-20
3.290000E+03	2.402732E-19	1.141980E-20
3.300000E+03	2.409612E-19	1.141778E-20
3.310000E+03	2.419097E-19	1.142770E-20
3.320000E+03	2.430825E-19	1.144774E-20
3.330000E+03	2.444430E-19	1.147608E-20
3.340000E+03	2.460850E-19	1.151701E-20
3.350000E+03	2.479737E-19	1.156880E-20
3.360000E+03	2.500735E-19	1.162967E-20
3.370000E+03	2.524824E-19	1.170406E-20
3.380000E+03	2.551664E-19	1.179027E-20
3.390000E+03	2.580912E-19	1.188658E-20
3.400000E+03	2.613600E-19	1.199761E-20
3.410000E+03	2.649405E-19	1.212172E-20
3.420000E+03	2.687995E-19	1.225725E-20
3.430000E+03	2.730469E-19	1.240906E-20
3.440000E+03	2.776520E-19	1.257556E-20
3.450000E+03	2.826329E-19	1.275741E-20
3.460000E+03	2.879576E-19	1.295297E-20
3.470000E+03	2.937482E-19	1.316753E-20
3.480000E+03	2.999763E-19	1.339962E-20
3.490000E+03	3.066122E-19	1.364767E-20
3.500000E+03	3.137886E-19	1.391738E-20
3.510000E+03	3.214804E-19	1.420735E-20
3.520000E+03	3.296592E-19	1.451608E-20
3.530000E+03	3.384720E-19	1.484976E-20
3.540000E+03	3.478967E-19	1.520709E-20
3.550000E+03	3.579702E-19	1.558938E-20
3.560000E+03	3.686673E-19	1.599518E-20
3.570000E+03	3.801594E-19	1.643157E-20
3.580000E+03	3.924288E-19	1.689739E-20
3.590000E+03	4.054537E-19	1.739128E-20
3.600000E+03	4.194281E-19	1.792112E-20
3.610000E+03	4.343392E-19	1.848587E-20
3.620000E+03	4.501691E-19	1.908428E-20
3.630000E+03	4.671397E-19	1.972520E-20
3.640000E+03	4.852443E-19	2.040775E-20
3.650000E+03	5.045588E-19	2.113449E-20
3.660000E+03	5.250718E-19	2.190428E-20
3.670000E+03	5.470517E-19	2.272762E-20
3.680000E+03	5.705026E-19	2.360388E-20
3.690000E+03	5.954197E-19	2.453204E-20
3.700000E+03	6.221152E-19	2.552410E-20
3.710000E+03	6.506034E-19	2.657966E-20
3.720000E+03	6.808870E-19	2.769782E-20
3.730000E+03	7.133317E-19	2.889240E-20
3.740000E+03	7.479635E-19	3.016322E-20
3.750000E+03	7.847944E-19	3.150953E-20
3.760000E+03	8.242547E-19	3.294730E-20
3.770000E+03	8.663840E-19	3.447659E-20
3.780000E+03	9.113658E-19	3.610315E-20
3.790000E+03	9.592260E-19	3.782637E-20
3.800000E+03	1.010502E-18	3.966570E-20
3.810000E+03	1.065256E-18	4.162155E-20
3.820000E+03	1.123525E-18	4.369340E-20
3.830000E+03	1.185946E-18	4.590381E-20
3.840000E+03	1.252598E-18	4.825344E-20
3.850000E+03	1.323531E-18	5.074173E-20
3.860000E+03	1.399500E-18	5.339491E-20
3.870000E+03	1.480603E-18	5.621375E-20
3.880000E+03	1.567176E-18	5.920794E-20
3.890000E+03	1.659285E-18	6.237667E-20
3.900000E+03	1.757874E-18	6.575195E-20
3.910000E+03	1.863063E-18	6.933434E-20
3.920000E+03	1.974928E-18	7.312269E-20
3.930000E+03	2.094577E-18	7.715382E-20
3.940000E+03	2.222152E-18	8.142817E-20
3.950000E+03	2.357720E-18	8.594334E-20
3.960000E+03	2.502596E-18	9.074219E-20
3.970000E+03	2.656918E-18	9.582398E-20
3.980000E+03	2.820748E-18	1.011851E-19
3.990000E+03	2.995623E-18	1.068745E-19
4.000000E+03	3.181677E-18	1.128901E-19
4.010000E+03	3.378941E-18	1.192261E-19
4.020000E+03	3.589210E-18	1.259384E-19
4.030000E+03	3.812590E-18	1.330226E-19
4.040000E+03	4.049057E-18	1.404697E-19
4.050000E+03	4.300694E-18	1.483431E-19
4.060000E+03	4.567553E-18	1.566352E-19
4.070000E+03	4.849521E-18	1.653323E-19
4.080000E+03	5.148996E-18	1.745062E-19
4.090000E+03	5.465940E-18	1.841443E-19
4.100000E+03	5.800105E-18	1.942272E-19
4.110000E+03	6.154239E-18	2.048351E-19
4.120000E+03	6.528161E-18	2.159492E-19
4.130000E+03	6.921431E-18	2.275423E-19
4.140000E+03	7.337173E-18	2.397037E-19
4.150000E+03	7.775005E-18	2.524065E-19
4.160000E+03	8.234225E-18	2.656134E-19
4.170000E+03	8.718362E-18	2.794235E-19
4.180000E+03	9.226754E-18	2.937994E-19
4.190000E+03	9.758361E-18	3.086921E-19
4.200000E+03	1.031714E-17	3.242106E-19
4.210000E+03	1.090207E-17	3.403048E-19
4.220000E+03	1.151168E-17	3.569114E-19
4.230000E+03	1.215038E-17	3.741500E-19
4.240000E+03	1.281668E-17	3.919557E-19
4.250000E+03	1.350859E-17	4.102491E-19
4.260000E+03	1.423100E-17	4.291602E-19
4.270000E+03	1.498188E-17	4.486076E-19
4.280000E+03	1.575858E-17	4.684935E-19
4.290000E+03	1.656652E-17	4.889597E-19
4.300000E+03	1.739995E-17	5.098166E-19
4.310000E+03	1.826462E-17	5.312142E-19
4.320000E+03	1.915738E-17	5.530395E-19
4.330000E+03	2.007428E-17	5.751601E-19
4.340000E+03	2.102169E-17	5.977403E-19
4.350000E+03	2.199556E-17	6.206451E-19
4.360000E+03	2.299113E-17	6.437223E-19
4.370000E+03	2.401533E-17	6.671493E-19
4.380000E+03	2.505888E-17	6.906505E-19
4.390000E+03	2.612917E-17	7.144141E-19
4.400000E+03	2.722065E-17	7.382709E-19
4.410000E+03	2.832693E-17	7.620338E-19
4.420000E+03	2.945607E-17	7.859075E-19
4.430000E+03	3.059620E-17	8.095618E-19
4.440000E+03	3.175590E-17	8.332139E-19
4.450000E+03	3.292801E-17	8.566634E-19
4.460000E+03	3.410435E-17	8.796907E-19
4.470000E+03	3.529432E-17	9.025327E-19
4.480000E+03	3.648333E-17	9.248100E-19
4.490000E+03	3.768133E-17	9.467732E-19
4.500000E+03	3.887948E-17	9.681956E-19
4.510000E+03	4.006791E-17	9.888337E-19
4.520000E+03	4.125750E-17	1.008960E-18
4.530000E+03	4.243101E-17	1.028157E-18
4.540000E+03	4.359996E-17	1.046711E-18
4.550000E+03	4.474610E-17	1.064192E-18
4.560000E+03	4.588160E-17	1.080904E-18
4.570000E+03	4.699554E-17	1.096599E-18
4.580000E+03	4.807616E-17	1.111020E-18
4.590000E+03	4.913673E-17	1.124497E-18
4.600000E+03	5.015692E-17	1.136582E-18
4.610000E+03	5.115076E-17	1.147619E-18
4.620000E+03	5.209733E-17	1.157163E-18
4.630000E+03	5.301155E-17	1.165576E-18
4.640000E+03	5.388150E-17	1.172623E-18
4.650000E+03	5.469493E-17	1.178071E-18
4.660000E+03	5.546836E-17	1.182314E-18
4.670000E+03	5.618057E-17	1.184933E-18
4.680000E+03	5.684966E-17	1.186350E-18
4.690000E+03	5.745521E-17	1.186175E-18
4.700000E+03	5.801750E-17	1.184869E-18
4.710000E+03	5.851788E-17	1.182086E-18
4.720000E+03	5.897959E-17	1.178336E-18
4.730000E+03	5.938344E-17	1.173269E-18
4.740000E+03	5.974663E-17	1.167264E-18
4.750000E+03	6.004552E-17	1.159893E-18
4.760000E+03	6.029931E-17	1.151571E-18
4.770000E+03	6.048635E-17	1.141922E-18
4.780000E+03	6.062787E-17	1.131391E-18
4.790000E+03	6.070361E-17	1.119637E-18
4.800000E+03	6.073601E-17	1.107118E-18
4.810000E+03	6.070566E-17	1.093514E-18
4.820000E+03	6.063572E-17	1.079284E-18
4.830000E+03	6.050726E-17	1.064125E-18
4.840000E+03	6.034375E-17	1.048485E-18
4.850000E+03	6.012662E-17	1.032073E-18
4.860000E+03	5.987938E-17	1.015325E-18
4.870000E+03	5.958368E-17	9.979561E-19
4.880000E+03	5.926291E-17	9.803885E-19
4.890000E+03	5.889891E-17	9.623447E-19
4.900000E+03	5.851477E-17	9.442264E-19
4.910000E+03	5.809256E-17	9.257614E-19
4.920000E+03	5.765504E-17	9.073317E-19
4.930000E+03	5.718451E-17	8.886724E-19
4.940000E+03	5.670337E-17	8.701476E-19
4.950000E+03	5.619412E-17	8.514993E-19
4.960000E+03	5.566900E-17	8.329284E-19
4.970000E+03	5.513986E-17	8.146195E-19
4.980000E+03	5.458951E-17	7.963257E-19
4.990000E+03	5.403904E-17	7.783638E-19
5.000000E+03	5.347142E-17	7.604927E-19
5.010000E+03	5.290711E-17	7.430105E-19
5.020000E+03	5.232924E-17	7.256828E-19
5.030000E+03	5.174866E-17	7.086667E-19
5.040000E+03	5.117569E-17	6.921047E-19
5.050000E+03	5.059373E-17	6.757726E-19
5.060000E+03	5.002171E-17	6.599262E-19
5.070000E+03	4.944324E-17	6.443486E-19
5.080000E+03	4.887666E-17	6.292807E-19
5.090000E+03	4.830578E-17	6.145127E-19
5.100000E+03	4.774007E-17	6.001670E-19
5.110000E+03	4.718849E-17	5.863545E-19
5.120000E+03	4.663524E-17	5.728764E-19
5.130000E+03	4.608923E-17	5.598434E-19
5.140000E+03	4.555894E-17	5.473560E-19
5.150000E+03	4.502894E-17	5.352258E-19
5.160000E+03	4.451540E-17	5.236446E-19
5.170000E+03	4.400314E-17	5.124308E-19
5.180000E+03	4.350030E-17	5.016790E-19
5.190000E+03	4.301464E-17	4.914757E-19
5.200000E+03	4.253136E-17	4.816486E-19
5.210000E+03	4.205820E-17	4.722846E-19
5.220000E+03	4.160257E-17	4.634635E-19
5.230000E+03	4.115003E-17	4.550210E-19
5.240000E+03	4.071505E-17	4.471151E-19
5.250000E+03	4.028348E-17	4.395866E-19
5.260000E+03	3.986249E-17	4.325115E-19
5.270000E+03	3.945895E-17	4.259603E-19
5.280000E+03	3.905908E-17	4.197802E-19
5.290000E+03	3.866976E-17	4.140417E-19
5.300000E+03	3.829761E-17	4.088110E-19
5.310000E+03	3.792920E-17	4.039400E-19
5.320000E+03	3.757118E-17	3.994948E-19
5.330000E+03	3.722348E-17	3.954679E-19
5.340000E+03	3.689238E-17	3.919131E-19
5.350000E+03	3.656478E-17	3.886761E-19
5.360000E+03	3.624685E-17	3.858075E-19
5.370000E+03	3.594445E-17	3.833549E-19
5.380000E+03	3.564472E-17	3.811669E-19
5.390000E+03	3.535365E-17	3.792926E-19
5.400000E+03	3.507704E-17	3.777806E-19
5.410000E+03	3.480242E-17	3.764833E-19
5.420000E+03	3.453576E-17	3.754510E-19
5.430000E+03	3.427695E-17	3.746701E-19
5.440000E+03	3.403190E-17	3.741929E-19
5.450000E+03	3.378894E-17	3.738796E-19
5.460000E+03	3.355438E-17	3.737882E-19
5.470000E+03	3.333468E-17	3.739804E-19
5.480000E+03	3.311925E-17	3.743281E-19
5.490000E+03	3.291538E-17	3.749042E-19
5.500000E+03	3.272393E-17	3.757104E-19
5.510000E+03	3.254870E-17	3.767840E-19
5.520000E+03	3.237654E-17	3.779663E-19
5.530000E+03	3.221176E-17	3.792995E-19
5.540000E+03	3.205340E-17	3.807656E-19
5.550000E+03	3.190073E-17	3.823499E-19
5.560000E+03	3.175880E-17	3.841070E-19
5.570000E+03	3.161623E-17	3.858943E-19
5.580000E+03	3.147829E-17	3.877696E-19
5.590000E+03	3.134483E-17	3.897257E-19
5.600000E+03	3.122113E-17	3.918246E-19
5.610000E+03	3.109624E-17	3.939250E-19
5.620000E+03	3.097555E-17	3.960901E-19
5.630000E+03	3.085899E-17	3.983154E-19
5.640000E+03	3.074654E-17	4.005973E-19
5.650000E+03	3.064348E-17	4.030025E-19
5.660000E+03	3.053911E-17	4.053883E-19
5.670000E+03	3.043877E-17	4.078219E-19
5.680000E+03	3.034243E-17	4.103010E-19
5.690000E+03	3.025005E-17	4.128233E-19
5.700000E+03	3.016684E-17	4.154590E-19
5.710000E+03	3.008231E-17	4.180629E-19
5.720000E+03	3.000163E-17	4.207047E-19
5.730000E+03	2.992479E-17	4.233834E-19
5.740000E+03	2.985173E-17	4.260973E-19
5.750000E+03	2.978240E-17	4.288453E-19
5.760000E+03	2.972187E-17	4.317009E-19
5.770000E+03	2.965977E-17	4.345137E-19
5.780000E+03	2.960120E-17	4.373570E-19
5.790000E+03	2.954604E-17	4.402295E-19
5.800000E+03	2.949422E-17	4.431299E-19
5.810000E+03	2.944563E-17	4.460570E-19
5.820000E+03	2.940524E-17	4.490873E-19
5.830000E+03	2.936275E-17	4.520640E-19
5.840000E+03	2.932312E-17	4.550634E-19
5.850000E+03	2.928621E-17	4.580834E-19
5.860000E+03	2.925188E-17	4.611226E-19
5.870000E+03	2.921997E-17	4.641790E-19
5.880000E+03	2.919030E-17	4.672506E-19
5.890000E+03	2.916271E-17	4.703354E-19
5.900000E+03	2.913700E-17	4.734310E-19
5.910000E+03	2.911802E-17	4.766175E-19
5.920000E+03	2.909547E-17	4.797277E-19
5.930000E+03	2.907418E-17	4.828407E-19
5.940000E+03	2.905392E-17	4.859534E-19
5.950000E+03	2.903446E-17	4.890628E-19
5.960000E+03	2.901556E-17	4.921653E-19
5.970000E+03	2.899695E-17	4.952572E-19
5.980000E+03	2.897837E-17	4.983346E-19
5.990000E+03	2.895957E-17	5.013938E-19
6.000000E+03	2.894024E-17	5.044300E-19
6.010000E+03	2.892514E-17	5.075273E-19
6.020000E+03	2.890393E-17	5.105052E-19
6.030000E+03	2.888135E-17	5.134467E-19
6.040000E+03	2.885711E-17	5.163469E-19
6.050000E+03	2.883090E-17	5.192008E-19
6.060000E+03	2.880246E-17	5.220037E-19
6.070000E+03	2.877150E-17	5.247505E-19
6.080000E+03	2.873775E-17	5.274364E-19
6.090000E+03	2.870096E-17	5.300572E-19
6.100000E+03	2.866093E-17	5.326085E-19
6.110000E+03	2.861743E-17	5.350866E-19
6.120000E+03	2.857035E-17	5.374889E-19
6.130000E+03	2.851958E-17	5.398135E-19
6.140000E+03	2.846514E-17	5.420605E-19
6.150000E+03	2.840716E-17	5.442320E-19
6.160000E+03	2.834589E-17	5.463332E-19
6.170000E+03	2.828184E-17	5.483735E-19
6.180000E+03	2.821576E-17	5.503680E-19
6.190000E+03	2.814866E-17	5.523370E-19
6.200000E+03	2.808091E-17	5.542884E-19
6.210000E+03	2.801153E-17	5.562031E-19
6.220000E+03	2.793974E-17	5.580640E-19
6.230000E+03	2.786504E-17	5.598595E-19
6.240000E+03	2.778716E-17	5.615822E-19
6.250000E+03	2.770602E-17	5.632283E-19
6.260000E+03	2.762162E-17	5.647961E-19
6.270000E+03	2.753408E-17	5.662861E-19
6.280000E+03	2.744363E-17	5.677007E-19
6.290000E+03	2.735047E-17	5.690426E-19
6.300000E+03	2.725488E-17	5.703157E-19
6.310000E+03	2.715714E-17	5.715245E-19
6.320000E+03	2.705756E-17	5.726739E-19
6.330000E+03	2.695645E-17	5.737690E-19
6.340000E+03	2.685411E-17	5.748152E-19
6.350000E+03	2.675087E-17	5.758183E-19
6.360000E+03	2.664702E-17	5.767840E-19
6.370000E+03	2.654289E-17	5.777181E-19
6.380000E+03	2.643875E-17	5.786262E-19
6.390000E+03	2.633492E-17	5.795146E-19
6.400000E+03	2.623166E-17	5.803887E-19
6.410000E+03	2.612924E-17	5.812543E-19
6.420000E+03	2.602793E-17	5.821168E-19
6.430000E+03	2.592797E-17	5.829822E-19
6.440000E+03	2.582961E-17	5.838556E-19
6.450000E+03	2.573306E-17	5.847423E-19
6.460000E+03	2.563854E-17	5.856475E-19
6.470000E+03	2.554183E-17	5.864744E-19
6.480000E+03	2.545200E-17	5.874314E-19
6.490000E+03	2.536477E-17	5.884213E-19
6.500000E+03	2.528033E-17	5.894493E-19
6.510000E+03	2.519883E-17	5.905192E-19
6.520000E+03	2.512042E-17	5.916359E-19
6.530000E+03	2.504526E-17	5.928034E-19
6.540000E+03	2.497347E-17	5.940257E-19
6.550000E+03	2.490517E-17	5.953068E-19
6.560000E+03	2.484050E-17	5.966507E-19
6.570000E+03	2.477955E-17	5.980611E-19
6.580000E+03	2.472244E-17	5.995416E-19
6.590000E+03	2.466497E-17	6.009914E-19
6.600000E+03	2.461581E-17	6.026222E-19
6.610000E+03	2.457075E-17	6.043331E-19
6.620000E+03	2.452985E-17	6.061274E-19
6.630000E+03	2.449322E-17	6.080084E-19
6.640000E+03	2.446089E-17	6.099788E-19
6.650000E+03	2.443293E-17	6.120417E-19
6.660000E+03	2.440940E-17	6.141996E-19
6.670000E+03	2.439036E-17	6.164557E-19
6.680000E+03	2.437162E-17	6.187051E-19
6.690000E+03	2.436168E-17	6.211645E-19
6.700000E+03	2.435635E-17	6.237297E-19
6.710000E+03	2.435566E-17	6.264024E-19
6.720000E+03	2.435964E-17	6.291857E-19
6.730000E+03	2.436831E-17	6.320813E-19
6.740000E+03	2.438171E-17	6.350916E-19
6.750000E+03	2.439561E-17	6.381076E-19
6.760000E+03	2.441850E-17	6.413525E-19
6.770000E+03	2.444614E-17	6.447176E-19
6.780000E+03	2.447855E-17	6.482048E-19
6.790000E+03	2.451574E-17	6.518160E-19
6.800000E+03	2.455769E-17	6.555523E-19
6.810000E+03	2.460013E-17	6.593008E-19
6.820000E+03	2.465161E-17	6.632916E-19
6.830000E+03	2.470781E-17	6.674114E-19
6.840000E+03	2.476874E-17	6.716616E-19
6.850000E+03	2.483437E-17	6.760432E-19
6.860000E+03	2.490467E-17	6.805568E-19
6.870000E+03	2.497528E-17	6.850846E-19
6.880000E+03	2.505481E-17	6.898639E-19
6.890000E+03	2.513890E-17	6.947771E-19
6.900000E+03	2.522750E-17	6.998241E-19
6.910000E+03	2.532057E-17	7.050055E-19
6.920000E+03	2.541362E-17	7.101974E-19
6.930000E+03	2.551538E-17	7.156450E-19
6.940000E+03	2.562140E-17	7.212257E-19
6.950000E+03	2.573158E-17	7.269383E-19
6.960000E+03	2.584586E-17	7.327823E-19
6.970000E+03	2.595960E-17	7.386277E-19
6.980000E+03	2.608171E-17	7.447285E-19
6.990000E+03	2.620758E-17	7.509558E-19
7.000000E+03	2.633708E-17	7.573071E-19
7.010000E+03	2.647008E-17	7.637801E-19
7.020000E+03	2.660183E-17	7.702386E-19
7.030000E+03	2.674136E-17	7.769449E-19
7.040000E+03	2.688392E-17	7.837634E-19
7.050000E+03	2.702933E-17	7.906898E-19
7.060000E+03	2.717268E-17	7.975816E-19
7.070000E+03	2.732317E-17	8.047092E-19
7.080000E+03	2.747590E-17	8.119306E-19
7.090000E+03	2.763062E-17	8.192397E-19
7.100000E+03	2.778708E-17	8.266299E-19
7.110000E+03	2.794017E-17	8.339498E-19
7.120000E+03	2.809929E-17	8.414804E-19
7.130000E+03	2.825932E-17	8.490700E-19
7.140000E+03	2.841994E-17	8.567101E-19
7.150000E+03	2.857584E-17	8.642410E-19
7.160000E+03	2.873660E-17	8.719523E-19
7.170000E+03	2.889690E-17	8.796841E-19
7.180000E+03	2.905633E-17	8.874249E-19
7.190000E+03	2.920945E-17	8.950080E-19
7.200000E+03	2.936594E-17	9.027298E-19
7.210000E+03	2.952030E-17	9.104228E-19
7.220000E+03	2.966691E-17	9.179128E-19
7.230000E+03	2.981558E-17	9.255031E-19
7.240000E+03	2.996066E-17	9.330190E-19
7.250000E+03	3.010164E-17	9.404444E-19
7.260000E+03	3.023272E-17	9.475968E-19
7.270000E+03	3.036381E-17	9.547864E-19
7.280000E+03	3.048911E-17	9.618304E-19
7.290000E+03	3.060803E-17	9.687094E-19
7.300000E+03	3.071461E-17	9.752334E-19
7.310000E+03	3.081888E-17	9.817186E-19
7.320000E+03	3.091490E-17	9.879756E-19
7.330000E+03	3.099663E-17	9.938090E-19
7.340000E+03	3.107418E-17	9.995403E-19
7.350000E+03	3.114151E-17	1.004975E-18
7.360000E+03	3.119256E-17	1.009913E-18
7.370000E+03	3.123751E-17	1.014682E-18
7.380000E+03	3.127030E-17	1.019083E-18
7.390000E+03	3.129032E-17	1.023094E-18
7.400000E+03	3.129153E-17	1.026512E-18
7.410000E+03	3.128422E-17	1.029671E-18
7.420000E+03	3.126246E-17	1.032374E-18
7.430000E+03	3.122031E-17	1.034419E-18
7.440000E+03	3.116826E-17	1.036149E-18
7.450000E+03	3.110055E-17	1.037369E-18
7.460000E+03	3.101157E-17	1.037888E-18
7.470000E+03	3.091208E-17	1.038059E-18
7.480000E+03	3.079679E-17	1.037703E-18
7.490000E+03	3.066072E-17	1.036644E-18
7.500000E+03	3.051517E-17	1.035260E-18
7.510000E+03	3.035568E-17	1.033397E-18
7.520000E+03	3.017739E-17	1.030882E-18
7.530000E+03	2.999031E-17	1.028053E-18
7.540000E+03	2.978893E-17	1.024717E-18
7.550000E+03	2.956817E-17	1.020690E-18
7.560000E+03	2.933860E-17	1.016331E-18
7.570000E+03	2.909552E-17	1.011472E-18
7.580000E+03	2.883444E-17	1.005951E-18
7.590000E+03	2.856618E-17	1.000138E-18
7.600000E+03	2.828638E-17	9.938767E-19
7.610000E+03	2.799098E-17	9.870180E-19
7.620000E+03	2.769056E-17	9.799290E-19
7.630000E+03	2.737630E-17	9.722934E-19
7.640000E+03	2.705859E-17	9.644753E-19
7.650000E+03	2.673344E-17	9.563290E-19
7.660000E+03	2.639708E-17	9.477151E-19
7.670000E+03	2.605956E-17	9.389902E-19
7.680000E+03	2.571698E-17	9.300118E-19
7.690000E+03	2.536570E-17	9.206444E-19
7.700000E+03	2.501531E-17	9.112330E-19
7.710000E+03	2.465778E-17	9.014827E-19
7.720000E+03	2.430237E-17	8.917301E-19
7.730000E+03	2.394538E-17	8.818379E-19
7.740000E+03	2.358330E-17	8.716751E-19
7.750000E+03	2.322498E-17	8.615669E-19
7.760000E+03	2.286278E-17	8.512294E-19
