#wls	flux	fluxerr
1.589715E+03	8.777309E-18	0.000000E+00
1.629457E+03	9.180787E-18	0.000000E+00
1.669200E+03	9.583910E-18	0.000000E+00
1.708943E+03	9.987697E-18	0.000000E+00
1.748686E+03	1.038727E-17	0.000000E+00
1.788429E+03	1.077324E-17	0.000000E+00
1.828172E+03	1.113267E-17	0.000000E+00
1.867915E+03	1.144666E-17	0.000000E+00
1.907657E+03	1.169469E-17	0.000000E+00
1.947400E+03	1.185873E-17	0.000000E+00
1.987143E+03	1.193309E-17	0.000000E+00
2.026886E+03	1.194719E-17	0.000000E+00
2.066629E+03	1.197685E-17	0.000000E+00
2.106372E+03	1.214750E-17	0.000000E+00
2.146115E+03	1.259846E-17	0.000000E+00
2.185858E+03	1.342327E-17	0.000000E+00
2.225600E+03	1.463401E-17	0.000000E+00
2.265343E+03	1.617889E-17	0.000000E+00
2.305086E+03	1.797288E-17	0.000000E+00
2.344829E+03	1.994281E-17	0.000000E+00
2.384572E+03	2.204039E-17	0.000000E+00
2.424315E+03	2.424325E-17	0.000000E+00
2.464058E+03	2.655061E-17	0.000000E+00
2.503800E+03	2.897103E-17	0.000000E+00
2.543543E+03	3.152621E-17	0.000000E+00
2.583286E+03	3.423733E-17	0.000000E+00
2.623029E+03	3.713009E-17	0.000000E+00
2.662772E+03	4.023025E-17	0.000000E+00
2.702515E+03	4.356707E-17	0.000000E+00
2.742258E+03	4.716975E-17	0.000000E+00
2.782000E+03	5.106879E-17	0.000000E+00
2.821743E+03	5.530106E-17	0.000000E+00
2.861486E+03	5.990659E-17	0.000000E+00
2.901229E+03	6.493558E-17	0.000000E+00
2.940972E+03	7.044893E-17	0.000000E+00
2.980715E+03	7.652013E-17	0.000000E+00
2.990650E+03	7.813451E-17	0.000000E+00
3.000586E+03	7.979075E-17	0.000000E+00
3.010522E+03	8.149004E-17	0.000000E+00
3.020458E+03	8.323620E-17	0.000000E+00
3.030393E+03	8.503406E-17	0.000000E+00
3.040329E+03	8.687883E-17	0.000000E+00
3.050265E+03	8.878726E-17	0.000000E+00
3.060201E+03	9.075619E-17	0.000000E+00
3.070136E+03	9.278994E-17	0.000000E+00
3.080072E+03	9.488741E-17	0.000000E+00
3.090008E+03	9.704941E-17	0.000000E+00
3.099943E+03	9.928082E-17	0.000000E+00
3.109879E+03	1.015789E-16	0.000000E+00
3.119815E+03	1.039467E-16	0.000000E+00
3.129751E+03	1.063857E-16	0.000000E+00
3.139686E+03	1.088994E-16	0.000000E+00
3.149622E+03	1.114872E-16	0.000000E+00
3.159558E+03	1.141532E-16	0.000000E+00
3.169493E+03	1.168993E-16	0.000000E+00
3.179429E+03	1.197252E-16	0.000000E+00
3.189365E+03	1.226354E-16	0.000000E+00
3.199301E+03	1.256337E-16	0.000000E+00
3.209236E+03	1.287177E-16	0.000000E+00
3.219172E+03	1.318923E-16	0.000000E+00
3.229108E+03	1.351530E-16	0.000000E+00
3.239043E+03	1.385041E-16	0.000000E+00
3.248979E+03	1.419341E-16	0.000000E+00
3.258915E+03	1.454374E-16	0.000000E+00
3.268851E+03	1.490047E-16	0.000000E+00
3.278786E+03	1.526177E-16	0.000000E+00
3.288722E+03	1.562585E-16	0.000000E+00
3.298658E+03	1.598974E-16	0.000000E+00
3.308593E+03	1.635076E-16	0.000000E+00
3.318529E+03	1.670564E-16	0.000000E+00
3.328465E+03	1.705084E-16	0.000000E+00
3.338401E+03	1.738265E-16	0.000000E+00
3.348336E+03	1.769712E-16	0.000000E+00
3.358272E+03	1.799062E-16	0.000000E+00
3.368208E+03	1.825984E-16	0.000000E+00
3.378143E+03	1.850179E-16	0.000000E+00
3.388079E+03	1.871373E-16	0.000000E+00
3.398015E+03	1.889373E-16	0.000000E+00
3.407951E+03	1.904038E-16	0.000000E+00
3.417886E+03	1.915263E-16	0.000000E+00
3.427822E+03	1.923015E-16	0.000000E+00
3.437758E+03	1.927305E-16	0.000000E+00
3.447693E+03	1.928128E-16	0.000000E+00
3.457629E+03	1.925574E-16	0.000000E+00
3.467565E+03	1.919691E-16	0.000000E+00
3.477501E+03	1.910534E-16	0.000000E+00
3.487436E+03	1.898174E-16	0.000000E+00
3.497372E+03	1.882633E-16	0.000000E+00
3.507308E+03	1.863982E-16	0.000000E+00
3.517243E+03	1.842279E-16	0.000000E+00
3.527179E+03	1.817614E-16	0.000000E+00
3.537115E+03	1.790121E-16	0.000000E+00
3.547051E+03	1.760004E-16	0.000000E+00
3.556986E+03	1.727538E-16	0.000000E+00
3.566922E+03	1.693142E-16	0.000000E+00
3.576858E+03	1.657317E-16	0.000000E+00
3.586793E+03	1.620733E-16	0.000000E+00
3.596729E+03	1.584132E-16	0.000000E+00
3.606665E+03	1.548439E-16	0.000000E+00
3.616601E+03	1.514586E-16	0.000000E+00
3.626536E+03	1.483618E-16	0.000000E+00
3.636472E+03	1.456558E-16	0.000000E+00
3.646408E+03	1.434414E-16	0.000000E+00
3.656343E+03	1.418064E-16	0.000000E+00
3.666279E+03	1.408303E-16	0.000000E+00
3.676215E+03	1.405746E-16	0.000000E+00
3.686151E+03	1.410855E-16	0.000000E+00
3.696086E+03	1.423874E-16	0.000000E+00
3.706022E+03	1.444877E-16	0.000000E+00
3.715958E+03	1.473674E-16	0.000000E+00
3.725893E+03	1.509909E-16	0.000000E+00
3.735829E+03	1.552983E-16	0.000000E+00
3.745765E+03	1.602105E-16	0.000000E+00
3.755701E+03	1.656283E-16	0.000000E+00
3.765636E+03	1.714397E-16	0.000000E+00
3.775572E+03	1.775166E-16	0.000000E+00
3.785508E+03	1.837288E-16	0.000000E+00
3.795443E+03	1.899437E-16	0.000000E+00
3.805379E+03	1.960326E-16	0.000000E+00
3.815315E+03	2.018762E-16	0.000000E+00
3.825251E+03	2.073670E-16	0.000000E+00
3.835186E+03	2.124200E-16	0.000000E+00
3.845122E+03	2.169659E-16	0.000000E+00
3.855058E+03	2.209542E-16	0.000000E+00
3.864993E+03	2.243592E-16	0.000000E+00
3.874929E+03	2.271737E-16	0.000000E+00
3.884865E+03	2.294115E-16	0.000000E+00
3.894801E+03	2.310991E-16	0.000000E+00
3.904736E+03	2.322833E-16	0.000000E+00
3.914672E+03	2.330154E-16	0.000000E+00
3.924608E+03	2.333599E-16	0.000000E+00
3.934544E+03	2.333787E-16	0.000000E+00
3.944479E+03	2.331358E-16	0.000000E+00
3.954415E+03	2.326952E-16	0.000000E+00
3.964351E+03	2.321092E-16	0.000000E+00
3.974286E+03	2.314253E-16	0.000000E+00
3.984222E+03	2.306798E-16	0.000000E+00
3.994158E+03	2.299012E-16	0.000000E+00
4.004094E+03	2.291070E-16	0.000000E+00
4.014029E+03	2.283068E-16	0.000000E+00
4.023965E+03	2.275064E-16	0.000000E+00
4.033901E+03	2.267070E-16	0.000000E+00
4.043836E+03	2.259018E-16	0.000000E+00
4.053772E+03	2.250918E-16	0.000000E+00
4.063708E+03	2.242679E-16	0.000000E+00
4.073644E+03	2.234273E-16	0.000000E+00
4.083579E+03	2.225604E-16	0.000000E+00
4.093515E+03	2.216592E-16	0.000000E+00
4.103451E+03	2.207116E-16	0.000000E+00
4.113386E+03	2.197034E-16	0.000000E+00
4.123322E+03	2.186186E-16	0.000000E+00
4.133258E+03	2.174412E-16	0.000000E+00
4.143194E+03	2.161590E-16	0.000000E+00
4.153129E+03	2.147627E-16	0.000000E+00
4.163065E+03	2.132490E-16	0.000000E+00
4.173001E+03	2.116262E-16	0.000000E+00
4.182936E+03	2.099152E-16	0.000000E+00
4.192872E+03	2.081515E-16	0.000000E+00
4.202808E+03	2.063798E-16	0.000000E+00
4.212744E+03	2.046578E-16	0.000000E+00
4.222679E+03	2.030489E-16	0.000000E+00
4.232615E+03	2.016241E-16	0.000000E+00
4.242551E+03	2.004492E-16	0.000000E+00
4.252486E+03	1.995855E-16	0.000000E+00
4.262422E+03	1.990832E-16	0.000000E+00
4.272358E+03	1.989739E-16	0.000000E+00
4.282294E+03	1.992777E-16	0.000000E+00
4.292229E+03	1.999884E-16	0.000000E+00
4.302165E+03	2.010828E-16	0.000000E+00
4.312101E+03	2.025174E-16	0.000000E+00
4.322036E+03	2.042370E-16	0.000000E+00
4.331972E+03	2.061648E-16	0.000000E+00
4.341908E+03	2.082245E-16	0.000000E+00
4.351844E+03	2.103324E-16	0.000000E+00
4.361779E+03	2.124088E-16	0.000000E+00
4.371715E+03	2.143821E-16	0.000000E+00
4.381651E+03	2.161892E-16	0.000000E+00
4.391586E+03	2.177835E-16	0.000000E+00
4.401522E+03	2.191246E-16	0.000000E+00
4.411458E+03	2.201918E-16	0.000000E+00
4.421394E+03	2.209697E-16	0.000000E+00
4.431329E+03	2.214520E-16	0.000000E+00
4.441265E+03	2.216400E-16	0.000000E+00
4.451201E+03	2.215264E-16	0.000000E+00
4.461136E+03	2.211136E-16	0.000000E+00
4.471072E+03	2.203891E-16	0.000000E+00
4.481008E+03	2.193467E-16	0.000000E+00
4.490944E+03	2.179720E-16	0.000000E+00
4.500879E+03	2.162517E-16	0.000000E+00
4.510815E+03	2.141744E-16	0.000000E+00
4.520751E+03	2.117297E-16	0.000000E+00
4.530686E+03	2.089216E-16	0.000000E+00
4.540622E+03	2.057563E-16	0.000000E+00
4.550558E+03	2.022545E-16	0.000000E+00
4.560494E+03	1.984486E-16	0.000000E+00
4.570429E+03	1.943824E-16	0.000000E+00
4.580365E+03	1.901076E-16	0.000000E+00
4.590301E+03	1.856848E-16	0.000000E+00
4.600236E+03	1.811814E-16	0.000000E+00
4.610172E+03	1.766674E-16	0.000000E+00
4.620108E+03	1.722116E-16	0.000000E+00
4.630044E+03	1.678762E-16	0.000000E+00
4.639979E+03	1.637214E-16	0.000000E+00
4.649915E+03	1.597959E-16	0.000000E+00
4.659851E+03	1.561383E-16	0.000000E+00
4.669786E+03	1.527779E-16	0.000000E+00
4.679722E+03	1.497314E-16	0.000000E+00
4.689658E+03	1.470046E-16	0.000000E+00
4.699594E+03	1.445927E-16	0.000000E+00
4.709529E+03	1.424813E-16	0.000000E+00
4.719465E+03	1.406474E-16	0.000000E+00
4.729401E+03	1.390611E-16	0.000000E+00
4.739336E+03	1.376879E-16	0.000000E+00
4.749272E+03	1.364897E-16	0.000000E+00
4.759208E+03	1.354320E-16	0.000000E+00
4.769144E+03	1.344801E-16	0.000000E+00
4.779079E+03	1.336118E-16	0.000000E+00
4.789015E+03	1.328086E-16	0.000000E+00
4.798951E+03	1.320670E-16	0.000000E+00
4.808887E+03	1.313929E-16	0.000000E+00
4.818822E+03	1.308000E-16	0.000000E+00
4.828758E+03	1.303147E-16	0.000000E+00
4.838694E+03	1.299640E-16	0.000000E+00
4.848629E+03	1.297783E-16	0.000000E+00
4.858565E+03	1.297800E-16	0.000000E+00
4.868501E+03	1.299921E-16	0.000000E+00
4.878437E+03	1.304221E-16	0.000000E+00
4.888372E+03	1.310704E-16	0.000000E+00
4.898308E+03	1.319233E-16	0.000000E+00
4.908244E+03	1.329589E-16	0.000000E+00
4.918179E+03	1.341427E-16	0.000000E+00
4.928115E+03	1.354379E-16	0.000000E+00
4.938051E+03	1.368047E-16	0.000000E+00
4.947987E+03	1.381991E-16	0.000000E+00
4.957922E+03	1.395827E-16	0.000000E+00
4.967858E+03	1.409237E-16	0.000000E+00
4.977794E+03	1.421949E-16	0.000000E+00
4.987729E+03	1.433736E-16	0.000000E+00
4.997665E+03	1.444476E-16	0.000000E+00
5.007601E+03	1.454090E-16	0.000000E+00
5.017537E+03	1.462542E-16	0.000000E+00
5.027472E+03	1.469811E-16	0.000000E+00
5.037408E+03	1.475907E-16	0.000000E+00
5.047344E+03	1.480858E-16	0.000000E+00
5.057279E+03	1.484649E-16	0.000000E+00
5.067215E+03	1.487305E-16	0.000000E+00
5.077151E+03	1.488821E-16	0.000000E+00
5.087087E+03	1.489205E-16	0.000000E+00
5.097022E+03	1.488472E-16	0.000000E+00
5.106958E+03	1.486646E-16	0.000000E+00
5.116894E+03	1.483746E-16	0.000000E+00
5.126829E+03	1.479838E-16	0.000000E+00
5.136765E+03	1.474958E-16	0.000000E+00
5.146701E+03	1.469202E-16	0.000000E+00
5.156637E+03	1.462650E-16	0.000000E+00
5.166572E+03	1.455410E-16	0.000000E+00
5.176508E+03	1.447606E-16	0.000000E+00
5.186444E+03	1.439370E-16	0.000000E+00
5.196379E+03	1.430821E-16	0.000000E+00
5.206315E+03	1.422146E-16	0.000000E+00
5.216251E+03	1.413467E-16	0.000000E+00
5.226187E+03	1.404983E-16	0.000000E+00
5.236122E+03	1.396836E-16	0.000000E+00
5.246058E+03	1.389203E-16	0.000000E+00
5.255994E+03	1.382224E-16	0.000000E+00
5.265929E+03	1.376022E-16	0.000000E+00
5.275865E+03	1.370735E-16	0.000000E+00
5.285801E+03	1.366442E-16	0.000000E+00
5.295737E+03	1.363247E-16	0.000000E+00
5.305672E+03	1.361218E-16	0.000000E+00
5.315608E+03	1.360416E-16	0.000000E+00
5.325544E+03	1.360907E-16	0.000000E+00
5.335479E+03	1.362750E-16	0.000000E+00
5.345415E+03	1.365989E-16	0.000000E+00
5.355351E+03	1.370614E-16	0.000000E+00
5.365287E+03	1.376609E-16	0.000000E+00
5.375222E+03	1.383856E-16	0.000000E+00
5.385158E+03	1.392160E-16	0.000000E+00
5.395094E+03	1.401145E-16	0.000000E+00
5.405029E+03	1.410331E-16	0.000000E+00
5.414965E+03	1.419022E-16	0.000000E+00
5.424901E+03	1.426418E-16	0.000000E+00
5.434837E+03	1.431484E-16	0.000000E+00
5.444772E+03	1.433117E-16	0.000000E+00
5.454708E+03	1.430440E-16	0.000000E+00
5.464644E+03	1.423095E-16	0.000000E+00
5.474579E+03	1.411477E-16	0.000000E+00
5.484515E+03	1.396351E-16	0.000000E+00
5.494451E+03	1.378795E-16	0.000000E+00
5.504387E+03	1.359883E-16	0.000000E+00
5.514322E+03	1.340698E-16	0.000000E+00
5.524258E+03	1.322230E-16	0.000000E+00
5.534194E+03	1.305350E-16	0.000000E+00
5.544129E+03	1.290772E-16	0.000000E+00
5.554065E+03	1.279101E-16	0.000000E+00
5.564001E+03	1.270803E-16	0.000000E+00
5.573937E+03	1.266188E-16	0.000000E+00
5.583872E+03	1.265426E-16	0.000000E+00
5.593808E+03	1.268572E-16	0.000000E+00
5.603744E+03	1.275510E-16	0.000000E+00
5.613679E+03	1.286020E-16	0.000000E+00
5.623615E+03	1.299759E-16	0.000000E+00
5.633551E+03	1.316306E-16	0.000000E+00
5.643487E+03	1.335154E-16	0.000000E+00
5.653422E+03	1.355760E-16	0.000000E+00
5.663358E+03	1.377578E-16	0.000000E+00
5.673294E+03	1.400082E-16	0.000000E+00
5.683230E+03	1.422755E-16	0.000000E+00
5.693165E+03	1.445166E-16	0.000000E+00
5.703101E+03	1.466936E-16	0.000000E+00
5.713037E+03	1.487760E-16	0.000000E+00
5.722972E+03	1.507430E-16	0.000000E+00
5.732908E+03	1.525740E-16	0.000000E+00
5.742844E+03	1.542600E-16	0.000000E+00
5.752780E+03	1.557920E-16	0.000000E+00
5.762715E+03	1.571677E-16	0.000000E+00
5.772651E+03	1.583865E-16	0.000000E+00
5.782587E+03	1.594505E-16	0.000000E+00
5.792522E+03	1.603660E-16	0.000000E+00
5.802458E+03	1.611379E-16	0.000000E+00
5.812394E+03	1.617766E-16	0.000000E+00
5.822330E+03	1.622921E-16	0.000000E+00
5.832265E+03	1.626940E-16	0.000000E+00
5.842201E+03	1.629973E-16	0.000000E+00
5.852137E+03	1.632096E-16	0.000000E+00
5.862072E+03	1.633440E-16	0.000000E+00
5.872008E+03	1.634057E-16	0.000000E+00
5.881944E+03	1.633990E-16	0.000000E+00
5.891880E+03	1.633264E-16	0.000000E+00
5.901815E+03	1.631814E-16	0.000000E+00
5.911751E+03	1.629606E-16	0.000000E+00
5.921687E+03	1.626591E-16	0.000000E+00
5.931622E+03	1.622667E-16	0.000000E+00
5.941558E+03	1.617808E-16	0.000000E+00
5.951494E+03	1.612008E-16	0.000000E+00
5.961430E+03	1.605304E-16	0.000000E+00
5.971365E+03	1.597813E-16	0.000000E+00
5.981301E+03	1.589730E-16	0.000000E+00
5.991237E+03	1.581301E-16	0.000000E+00
6.001172E+03	1.572849E-16	0.000000E+00
6.011108E+03	1.564756E-16	0.000000E+00
6.021044E+03	1.557350E-16	0.000000E+00
6.030980E+03	1.551042E-16	0.000000E+00
6.040915E+03	1.546126E-16	0.000000E+00
6.050851E+03	1.542942E-16	0.000000E+00
6.060787E+03	1.541675E-16	0.000000E+00
6.070722E+03	1.542518E-16	0.000000E+00
6.080658E+03	1.545535E-16	0.000000E+00
6.090594E+03	1.550776E-16	0.000000E+00
6.100530E+03	1.558170E-16	0.000000E+00
6.110465E+03	1.567600E-16	0.000000E+00
6.120401E+03	1.578928E-16	0.000000E+00
6.130337E+03	1.591904E-16	0.000000E+00
6.140272E+03	1.606284E-16	0.000000E+00
6.150208E+03	1.621758E-16	0.000000E+00
6.160144E+03	1.637969E-16	0.000000E+00
6.170080E+03	1.654521E-16	0.000000E+00
6.180015E+03	1.671028E-16	0.000000E+00
6.189951E+03	1.687043E-16	0.000000E+00
6.199887E+03	1.702139E-16	0.000000E+00
6.209822E+03	1.715909E-16	0.000000E+00
6.219758E+03	1.728039E-16	0.000000E+00
6.229694E+03	1.738203E-16	0.000000E+00
6.239630E+03	1.746217E-16	0.000000E+00
6.249565E+03	1.752051E-16	0.000000E+00
6.259501E+03	1.755789E-16	0.000000E+00
6.269437E+03	1.757635E-16	0.000000E+00
6.279372E+03	1.757923E-16	0.000000E+00
6.289308E+03	1.757138E-16	0.000000E+00
6.299244E+03	1.755761E-16	0.000000E+00
6.309180E+03	1.754341E-16	0.000000E+00
6.319115E+03	1.753375E-16	0.000000E+00
6.329051E+03	1.753293E-16	0.000000E+00
6.338987E+03	1.754416E-16	0.000000E+00
6.348922E+03	1.756939E-16	0.000000E+00
6.358858E+03	1.760914E-16	0.000000E+00
6.368794E+03	1.766236E-16	0.000000E+00
6.378730E+03	1.772722E-16	0.000000E+00
6.388665E+03	1.780066E-16	0.000000E+00
6.398601E+03	1.787920E-16	0.000000E+00
6.408537E+03	1.795901E-16	0.000000E+00
6.418472E+03	1.803568E-16	0.000000E+00
6.428408E+03	1.810592E-16	0.000000E+00
6.438344E+03	1.816640E-16	0.000000E+00
6.448280E+03	1.821477E-16	0.000000E+00
6.458215E+03	1.824881E-16	0.000000E+00
6.468151E+03	1.826782E-16	0.000000E+00
6.478087E+03	1.827080E-16	0.000000E+00
6.488022E+03	1.825770E-16	0.000000E+00
6.497958E+03	1.822821E-16	0.000000E+00
6.507894E+03	1.818275E-16	0.000000E+00
6.517830E+03	1.812187E-16	0.000000E+00
6.527765E+03	1.804539E-16	0.000000E+00
6.537701E+03	1.795414E-16	0.000000E+00
6.547637E+03	1.784915E-16	0.000000E+00
6.557573E+03	1.773080E-16	0.000000E+00
6.567508E+03	1.760089E-16	0.000000E+00
6.577444E+03	1.746034E-16	0.000000E+00
6.587380E+03	1.731142E-16	0.000000E+00
6.597315E+03	1.715548E-16	0.000000E+00
6.607251E+03	1.699483E-16	0.000000E+00
6.617187E+03	1.683155E-16	0.000000E+00
6.627123E+03	1.666738E-16	0.000000E+00
6.637058E+03	1.650450E-16	0.000000E+00
6.646994E+03	1.634434E-16	0.000000E+00
6.656930E+03	1.618844E-16	0.000000E+00
6.666865E+03	1.603837E-16	0.000000E+00
6.676801E+03	1.589498E-16	0.000000E+00
6.686737E+03	1.575891E-16	0.000000E+00
6.696673E+03	1.563149E-16	0.000000E+00
6.706608E+03	1.551278E-16	0.000000E+00
6.716544E+03	1.540349E-16	0.000000E+00
6.726480E+03	1.530382E-16	0.000000E+00
6.736415E+03	1.521349E-16	0.000000E+00
6.746351E+03	1.513222E-16	0.000000E+00
6.756287E+03	1.505944E-16	0.000000E+00
6.766223E+03	1.499460E-16	0.000000E+00
6.776158E+03	1.493637E-16	0.000000E+00
6.786094E+03	1.488321E-16	0.000000E+00
6.796030E+03	1.483399E-16	0.000000E+00
6.805965E+03	1.478725E-16	0.000000E+00
6.815901E+03	1.474160E-16	0.000000E+00
6.825837E+03	1.469545E-16	0.000000E+00
6.835773E+03	1.464775E-16	0.000000E+00
6.845708E+03	1.459797E-16	0.000000E+00
6.855644E+03	1.454541E-16	0.000000E+00
6.865580E+03	1.449001E-16	0.000000E+00
6.875515E+03	1.443206E-16	0.000000E+00
6.885451E+03	1.437219E-16	0.000000E+00
6.895387E+03	1.431131E-16	0.000000E+00
6.905323E+03	1.425054E-16	0.000000E+00
6.915258E+03	1.419083E-16	0.000000E+00
6.925194E+03	1.413343E-16	0.000000E+00
6.935130E+03	1.407981E-16	0.000000E+00
6.945065E+03	1.403099E-16	0.000000E+00
6.955001E+03	1.398726E-16	0.000000E+00
6.964937E+03	1.394969E-16	0.000000E+00
6.974873E+03	1.391823E-16	0.000000E+00
6.984808E+03	1.389278E-16	0.000000E+00
6.994744E+03	1.387262E-16	0.000000E+00
7.004680E+03	1.385729E-16	0.000000E+00
7.014615E+03	1.384581E-16	0.000000E+00
7.024551E+03	1.383704E-16	0.000000E+00
7.034487E+03	1.382944E-16	0.000000E+00
7.044423E+03	1.382172E-16	0.000000E+00
7.054358E+03	1.381292E-16	0.000000E+00
7.064294E+03	1.380169E-16	0.000000E+00
7.074230E+03	1.378683E-16	0.000000E+00
7.084165E+03	1.376822E-16	0.000000E+00
7.094101E+03	1.374521E-16	0.000000E+00
7.104037E+03	1.371766E-16	0.000000E+00
7.113973E+03	1.368547E-16	0.000000E+00
7.123908E+03	1.364933E-16	0.000000E+00
7.133844E+03	1.360990E-16	0.000000E+00
7.143780E+03	1.356771E-16	0.000000E+00
7.153715E+03	1.352365E-16	0.000000E+00
7.163651E+03	1.347894E-16	0.000000E+00
7.173587E+03	1.343416E-16	0.000000E+00
7.183523E+03	1.339006E-16	0.000000E+00
7.193458E+03	1.334720E-16	0.000000E+00
7.203394E+03	1.330600E-16	0.000000E+00
7.213330E+03	1.326633E-16	0.000000E+00
7.223265E+03	1.322877E-16	0.000000E+00
7.233201E+03	1.319291E-16	0.000000E+00
7.243137E+03	1.315797E-16	0.000000E+00
7.253073E+03	1.312450E-16	0.000000E+00
7.263008E+03	1.309138E-16	0.000000E+00
7.272944E+03	1.305888E-16	0.000000E+00
7.282880E+03	1.302650E-16	0.000000E+00
7.292815E+03	1.299406E-16	0.000000E+00
7.302751E+03	1.296121E-16	0.000000E+00
7.312687E+03	1.292793E-16	0.000000E+00
7.322623E+03	1.289432E-16	0.000000E+00
7.332558E+03	1.286055E-16	0.000000E+00
7.342494E+03	1.282630E-16	0.000000E+00
7.352430E+03	1.279215E-16	0.000000E+00
7.362365E+03	1.275783E-16	0.000000E+00
7.372301E+03	1.272336E-16	0.000000E+00
7.382237E+03	1.268870E-16	0.000000E+00
7.392173E+03	1.265428E-16	0.000000E+00
7.402108E+03	1.262021E-16	0.000000E+00
7.412044E+03	1.258706E-16	0.000000E+00
7.421980E+03	1.255538E-16	0.000000E+00
7.431916E+03	1.252490E-16	0.000000E+00
7.441851E+03	1.249594E-16	0.000000E+00
7.451787E+03	1.246917E-16	0.000000E+00
7.461723E+03	1.244429E-16	0.000000E+00
7.471658E+03	1.242224E-16	0.000000E+00
7.481594E+03	1.240349E-16	0.000000E+00
7.491530E+03	1.238859E-16	0.000000E+00
7.501466E+03	1.237800E-16	0.000000E+00
7.511401E+03	1.237209E-16	0.000000E+00
7.521337E+03	1.237130E-16	0.000000E+00
7.531273E+03	1.237524E-16	0.000000E+00
7.541208E+03	1.238384E-16	0.000000E+00
7.551144E+03	1.239616E-16	0.000000E+00
7.561080E+03	1.241167E-16	0.000000E+00
7.571016E+03	1.242937E-16	0.000000E+00
7.580951E+03	1.244790E-16	0.000000E+00
7.590887E+03	1.246650E-16	0.000000E+00
7.600823E+03	1.248415E-16	0.000000E+00
7.610758E+03	1.249968E-16	0.000000E+00
7.620694E+03	1.251265E-16	0.000000E+00
7.630630E+03	1.252219E-16	0.000000E+00
7.640566E+03	1.252851E-16	0.000000E+00
7.650501E+03	1.253077E-16	0.000000E+00
7.660437E+03	1.252915E-16	0.000000E+00
7.670373E+03	1.252333E-16	0.000000E+00
7.680308E+03	1.251366E-16	0.000000E+00
7.690244E+03	1.250019E-16	0.000000E+00
7.700180E+03	1.248292E-16	0.000000E+00
7.710116E+03	1.246155E-16	0.000000E+00
