#wls	flux	fluxerr
1.589715E+03	1.241029E-17	4.989778E-19
1.629457E+03	1.266719E-17	5.070058E-19
1.669200E+03	1.289439E-17	5.137023E-19
1.708943E+03	1.309176E-17	5.190750E-19
1.748686E+03	1.325810E-17	5.230903E-19
1.788429E+03	1.337774E-17	5.251475E-19
1.828172E+03	1.344338E-17	5.249875E-19
1.867915E+03	1.343031E-17	5.216808E-19
1.907657E+03	1.332817E-17	5.148761E-19
1.947400E+03	1.312229E-17	5.040674E-19
1.987143E+03	1.282004E-17	4.896057E-19
2.026886E+03	1.245580E-17	4.728639E-19
2.066629E+03	1.212242E-17	4.573921E-19
2.106372E+03	1.194211E-17	4.477554E-19
2.146115E+03	1.203746E-17	4.484133E-19
2.185858E+03	1.248122E-17	4.618548E-19
2.225600E+03	1.325945E-17	4.873017E-19
2.265343E+03	1.430510E-17	5.220407E-19
2.305086E+03	1.553476E-17	5.628246E-19
2.344829E+03	1.687061E-17	6.066899E-19
2.384572E+03	1.826527E-17	6.518371E-19
2.424315E+03	1.969255E-17	6.972666E-19
2.464058E+03	2.114625E-17	7.427094E-19
2.503800E+03	2.263074E-17	7.882693E-19
2.543543E+03	2.415224E-17	8.341086E-19
2.583286E+03	2.572257E-17	8.805727E-19
2.623029E+03	2.735819E-17	9.281481E-19
2.662772E+03	2.906327E-17	9.768857E-19
2.702515E+03	3.085260E-17	1.027183E-18
2.742258E+03	3.274003E-17	1.079384E-18
2.782000E+03	3.472874E-17	1.133464E-18
2.821743E+03	3.682831E-17	1.189598E-18
2.861486E+03	3.904578E-17	1.247862E-18
2.901229E+03	4.137980E-17	1.308054E-18
2.940972E+03	4.382952E-17	1.369986E-18
2.980715E+03	4.639427E-17	1.433474E-18
2.990650E+03	4.705679E-17	1.449673E-18
3.000586E+03	4.771639E-17	1.465645E-18
3.010522E+03	4.838863E-17	1.481866E-18
3.020458E+03	4.906808E-17	1.498168E-18
3.030393E+03	4.975201E-17	1.514463E-18
3.040329E+03	5.044147E-17	1.530783E-18
3.050265E+03	5.114266E-17	1.547312E-18
3.060201E+03	5.185425E-17	1.564005E-18
3.070136E+03	5.258037E-17	1.580985E-18
3.080072E+03	5.330870E-17	1.597876E-18
3.090008E+03	5.404345E-17	1.614804E-18
3.099943E+03	5.478883E-17	1.631890E-18
3.109879E+03	5.553803E-17	1.648930E-18
3.119815E+03	5.628973E-17	1.665882E-18
3.129751E+03	5.704823E-17	1.682871E-18
3.139686E+03	5.780659E-17	1.699691E-18
3.149622E+03	5.856357E-17	1.716305E-18
3.159558E+03	5.932339E-17	1.732836E-18
3.169493E+03	6.008489E-17	1.749249E-18
3.179429E+03	6.084100E-17	1.765337E-18
3.189365E+03	6.159614E-17	1.781229E-18
3.199301E+03	6.234891E-17	1.796884E-18
3.209236E+03	6.309243E-17	1.812104E-18
3.219172E+03	6.383672E-17	1.827180E-18
3.229108E+03	6.456904E-17	1.841745E-18
3.239043E+03	6.529949E-17	1.856091E-18
3.248979E+03	6.602107E-17	1.870019E-18
3.258915E+03	6.673246E-17	1.883493E-18
3.268851E+03	6.743240E-17	1.896482E-18
3.278786E+03	6.812517E-17	1.909107E-18
3.288722E+03	6.880390E-17	1.921178E-18
3.298658E+03	6.947287E-17	1.932819E-18
3.308593E+03	7.012519E-17	1.943841E-18
3.318529E+03	7.076524E-17	1.954369E-18
3.328465E+03	7.139168E-17	1.964370E-18
3.338401E+03	7.199770E-17	1.973661E-18
3.348336E+03	7.259311E-17	1.982516E-18
3.358272E+03	7.317112E-17	1.990752E-18
3.368208E+03	7.373040E-17	1.998339E-18
3.378143E+03	7.426979E-17	2.005252E-18
3.388079E+03	7.479333E-17	2.011604E-18
3.398015E+03	7.529441E-17	2.017223E-18
3.407951E+03	7.577703E-17	2.022223E-18
3.417886E+03	7.623463E-17	2.026434E-18
3.427822E+03	7.667121E-17	2.029971E-18
3.437758E+03	7.708536E-17	2.032804E-18
3.447693E+03	7.747585E-17	2.034906E-18
3.457629E+03	7.784628E-17	2.036378E-18
3.467565E+03	7.818524E-17	2.036932E-18
3.477501E+03	7.850155E-17	2.036804E-18
3.487436E+03	7.878900E-17	2.035842E-18
3.497372E+03	7.905135E-17	2.034151E-18
3.507308E+03	7.928760E-17	2.031716E-18
3.517243E+03	7.949215E-17	2.028400E-18
3.527179E+03	7.967425E-17	2.024450E-18
3.537115E+03	7.982464E-17	2.019638E-18
3.547051E+03	7.995376E-17	2.014239E-18
3.556986E+03	8.005932E-17	2.008201E-18
3.566922E+03	8.015008E-17	2.001751E-18
3.576858E+03	8.022832E-17	1.994952E-18
3.586793E+03	8.030773E-17	1.988146E-18
3.596729E+03	8.039960E-17	1.981612E-18
3.606665E+03	8.051720E-17	1.975672E-18
3.616601E+03	8.067464E-17	1.970662E-18
3.626536E+03	8.088705E-17	1.966936E-18
3.636472E+03	8.117410E-17	1.964953E-18
3.646408E+03	8.154813E-17	1.964985E-18
3.656343E+03	8.203017E-17	1.967508E-18
3.666279E+03	8.263786E-17	1.972907E-18
3.676215E+03	8.338984E-17	1.981582E-18
3.686151E+03	8.430592E-17	1.993954E-18
3.696086E+03	8.540700E-17	2.010460E-18
3.706022E+03	8.671927E-17	2.031650E-18
3.715958E+03	8.826294E-17	2.057925E-18
3.725893E+03	9.006733E-17	2.089885E-18
3.735829E+03	9.215553E-17	2.127977E-18
3.745765E+03	9.456321E-17	2.172922E-18
3.755701E+03	9.731115E-17	2.225087E-18
3.765636E+03	1.004350E-16	2.285166E-18
3.775572E+03	1.039573E-16	2.353541E-18
3.785508E+03	1.079017E-16	2.430608E-18
3.795443E+03	1.122921E-16	2.516758E-18
3.805379E+03	1.171386E-16	2.612061E-18
3.815315E+03	1.224567E-16	2.716703E-18
3.825251E+03	1.282350E-16	2.830270E-18
3.835186E+03	1.344587E-16	2.952279E-18
3.845122E+03	1.411084E-16	3.082147E-18
3.855058E+03	1.481351E-16	3.218663E-18
3.864993E+03	1.554771E-16	3.360364E-18
3.874929E+03	1.630614E-16	3.505564E-18
3.884865E+03	1.707833E-16	3.651943E-18
3.894801E+03	1.785469E-16	3.797409E-18
3.904736E+03	1.862310E-16	3.939383E-18
3.914672E+03	1.937217E-16	4.075493E-18
3.924608E+03	2.008950E-16	4.203212E-18
3.934544E+03	2.076393E-16	4.320323E-18
3.944479E+03	2.138603E-16	4.425027E-18
3.954415E+03	2.194681E-16	4.515650E-18
3.964351E+03	2.244027E-16	4.591181E-18
3.974286E+03	2.286124E-16	4.650801E-18
3.984222E+03	2.320715E-16	4.694244E-18
3.994158E+03	2.347748E-16	4.721665E-18
4.004094E+03	2.367358E-16	4.733599E-18
4.014029E+03	2.379911E-16	4.731035E-18
4.023965E+03	2.385743E-16	4.714884E-18
4.033901E+03	2.385488E-16	4.686626E-18
4.043836E+03	2.379753E-16	4.647664E-18
4.053772E+03	2.369317E-16	4.599702E-18
4.063708E+03	2.354879E-16	4.544255E-18
4.073644E+03	2.337202E-16	4.482927E-18
4.083579E+03	2.317035E-16	4.417265E-18
4.093515E+03	2.295099E-16	4.348720E-18
4.103451E+03	2.271973E-16	4.278449E-18
4.113386E+03	2.248387E-16	4.207862E-18
4.123322E+03	2.224815E-16	4.137856E-18
4.133258E+03	2.201765E-16	4.069374E-18
4.143194E+03	2.179671E-16	4.003197E-18
4.153129E+03	2.158893E-16	3.939949E-18
4.163065E+03	2.139669E-16	3.880018E-18
4.173001E+03	2.122200E-16	3.823716E-18
4.182936E+03	2.106575E-16	3.771140E-18
4.192872E+03	2.092850E-16	3.722329E-18
4.202808E+03	2.080983E-16	3.677147E-18
4.212744E+03	2.070888E-16	3.635377E-18
4.222679E+03	2.062517E-16	3.596879E-18
4.232615E+03	2.055695E-16	3.561290E-18
4.242551E+03	2.050317E-16	3.528382E-18
4.252486E+03	2.046290E-16	3.497944E-18
4.262422E+03	2.043473E-16	3.469696E-18
4.272358E+03	2.041827E-16	3.443533E-18
4.282294E+03	2.041318E-16	3.419360E-18
4.292229E+03	2.041952E-16	3.397152E-18
4.302165E+03	2.043809E-16	3.377006E-18
4.312101E+03	2.046940E-16	3.358965E-18
4.322036E+03	2.051485E-16	3.343220E-18
4.331972E+03	2.057578E-16	3.329942E-18
4.341908E+03	2.065386E-16	3.319351E-18
4.351844E+03	2.075171E-16	3.311814E-18
4.361779E+03	2.087416E-16	3.308033E-18
4.371715E+03	2.102964E-16	3.309258E-18
4.381651E+03	2.122864E-16	3.317023E-18
4.391586E+03	2.148409E-16	3.333196E-18
4.401522E+03	2.180768E-16	3.359397E-18
4.411458E+03	2.220936E-16	3.396935E-18
4.421394E+03	2.269672E-16	3.446711E-18
4.431329E+03	2.327488E-16	3.509229E-18
4.441265E+03	2.394591E-16	3.584512E-18
4.451201E+03	2.470818E-16	3.672032E-18
4.461136E+03	2.555644E-16	3.770732E-18
4.471072E+03	2.648189E-16	3.879066E-18
4.481008E+03	2.747229E-16	3.995023E-18
4.490944E+03	2.851103E-16	4.116020E-18
4.500879E+03	2.957867E-16	4.239139E-18
4.510815E+03	3.065302E-16	4.361155E-18
4.520751E+03	3.171168E-16	4.478908E-18
4.530686E+03	3.273069E-16	4.589110E-18
4.540622E+03	3.368849E-16	4.688905E-18
4.550558E+03	3.456555E-16	4.775811E-18
4.560494E+03	3.534574E-16	4.847881E-18
4.570429E+03	3.601634E-16	4.903698E-18
4.580365E+03	3.656927E-16	4.942523E-18
4.590301E+03	3.699932E-16	4.964027E-18
4.600236E+03	3.730321E-16	4.968151E-18
4.610172E+03	3.747982E-16	4.955134E-18
4.620108E+03	3.752834E-16	4.925254E-18
4.630044E+03	3.744636E-16	4.878574E-18
4.639979E+03	3.723264E-16	4.815319E-18
4.649915E+03	3.688446E-16	4.735516E-18
4.659851E+03	3.640102E-16	4.639441E-18
4.669786E+03	3.578304E-16	4.527561E-18
4.679722E+03	3.503415E-16	4.400697E-18
4.689658E+03	3.416556E-16	4.260594E-18
4.699594E+03	3.319526E-16	4.109788E-18
4.709529E+03	3.214962E-16	3.951777E-18
4.719465E+03	3.105981E-16	3.790539E-18
4.729401E+03	2.996162E-16	3.630504E-18
4.739336E+03	2.888992E-16	3.475862E-18
4.749272E+03	2.788030E-16	3.330773E-18
4.759208E+03	2.696433E-16	3.198795E-18
4.769144E+03	2.617189E-16	3.083192E-18
4.779079E+03	2.553018E-16	2.986820E-18
4.789015E+03	2.506329E-16	2.912094E-18
4.798951E+03	2.479432E-16	2.861251E-18
4.808887E+03	2.474222E-16	2.835988E-18
4.818822E+03	2.492353E-16	2.837687E-18
4.828758E+03	2.535092E-16	2.867252E-18
4.838694E+03	2.603124E-16	2.924907E-18
4.848629E+03	2.696250E-16	3.009886E-18
4.858565E+03	2.813245E-16	3.120312E-18
4.868501E+03	2.951300E-16	3.252611E-18
4.878437E+03	3.105949E-16	3.401488E-18
4.888372E+03	3.270858E-16	3.559752E-18
4.898308E+03	3.438078E-16	3.718646E-18
4.908244E+03	3.598486E-16	3.868365E-18
4.918179E+03	3.742843E-16	3.999218E-18
4.928115E+03	3.862672E-16	4.102559E-18
4.938051E+03	3.951589E-16	4.172146E-18
4.947987E+03	4.005879E-16	4.204686E-18
4.957922E+03	4.025272E-16	4.200553E-18
4.967858E+03	4.012418E-16	4.163132E-18
4.977794E+03	3.972678E-16	4.098526E-18
4.987729E+03	3.912997E-16	4.014315E-18
4.997665E+03	3.841016E-16	3.918621E-18
5.007601E+03	3.764253E-16	3.819255E-18
5.017537E+03	3.689302E-16	3.722927E-18
5.027472E+03	3.621602E-16	3.635041E-18
5.037408E+03	3.564988E-16	3.559287E-18
5.047344E+03	3.521816E-16	3.497810E-18
5.057279E+03	3.493121E-16	3.451407E-18
5.067215E+03	3.478634E-16	3.419582E-18
5.077151E+03	3.477361E-16	3.401143E-18
5.087087E+03	3.487670E-16	3.394305E-18
5.097022E+03	3.507612E-16	3.397013E-18
5.106958E+03	3.535269E-16	3.407284E-18
5.116894E+03	3.568848E-16	3.423301E-18
5.126829E+03	3.606872E-16	3.443578E-18
5.136765E+03	3.648258E-16	3.467040E-18
5.146701E+03	3.692386E-16	3.493068E-18
5.156637E+03	3.738939E-16	3.521339E-18
5.166572E+03	3.787924E-16	3.551845E-18
5.176508E+03	3.839548E-16	3.584764E-18
5.186444E+03	3.894020E-16	3.620277E-18
5.196379E+03	3.951434E-16	3.658455E-18
5.206315E+03	4.011805E-16	3.699296E-18
5.216251E+03	4.074852E-16	3.742530E-18
5.226187E+03	4.140127E-16	3.787740E-18
5.236122E+03	4.206860E-16	3.834225E-18
5.246058E+03	4.273988E-16	3.881028E-18
5.255994E+03	4.340142E-16	3.926932E-18
5.265929E+03	4.403635E-16	3.970450E-18
5.275865E+03	4.462723E-16	4.010068E-18
5.285801E+03	4.515436E-16	4.044084E-18
5.295737E+03	4.560100E-16	4.071085E-18
5.305672E+03	4.595206E-16	4.089817E-18
5.315608E+03	4.619737E-16	4.099475E-18
5.325544E+03	4.633271E-16	4.099784E-18
5.335479E+03	4.635896E-16	4.090918E-18
5.345415E+03	4.628199E-16	4.073479E-18
5.355351E+03	4.611156E-16	4.048403E-18
5.365287E+03	4.586054E-16	4.016877E-18
5.375222E+03	4.554365E-16	3.980231E-18
5.385158E+03	4.517682E-16	3.939864E-18
5.395094E+03	4.478103E-16	3.897593E-18
5.405029E+03	4.438296E-16	3.855715E-18
5.414965E+03	4.401993E-16	3.817433E-18
5.424901E+03	4.374175E-16	3.787008E-18
5.434837E+03	4.361321E-16	3.769976E-18
5.444772E+03	4.370147E-16	3.772045E-18
5.454708E+03	4.405588E-16	3.797366E-18
5.464644E+03	4.467018E-16	3.845292E-18
5.474579E+03	4.546432E-16	3.908843E-18
5.484515E+03	4.630614E-16	3.976604E-18
5.494451E+03	4.704396E-16	4.035545E-18
5.504387E+03	4.753677E-16	4.073601E-18
5.514322E+03	4.767064E-16	4.081069E-18
5.524258E+03	4.736915E-16	4.051485E-18
5.534194E+03	4.659928E-16	3.982108E-18
5.544129E+03	4.536961E-16	3.873750E-18
5.554065E+03	4.372968E-16	3.730704E-18
5.564001E+03	4.176044E-16	3.559927E-18
5.573937E+03	3.956531E-16	3.370263E-18
5.583872E+03	3.725936E-16	3.171522E-18
5.593808E+03	3.495630E-16	2.973371E-18
5.603744E+03	3.275990E-16	2.784609E-18
5.613679E+03	3.075677E-16	2.612555E-18
5.623615E+03	2.901435E-16	2.462887E-18
5.633551E+03	2.758016E-16	2.339577E-18
5.643487E+03	2.648586E-16	2.245251E-18
5.653422E+03	2.575043E-16	2.181451E-18
5.663358E+03	2.538528E-16	2.149077E-18
5.673294E+03	2.539759E-16	2.148668E-18
5.683230E+03	2.579260E-16	2.180600E-18
5.693165E+03	2.657342E-16	2.245063E-18
5.703101E+03	2.774048E-16	2.342022E-18
5.713037E+03	2.928863E-16	2.470966E-18
5.722972E+03	3.120350E-16	2.630610E-18
5.732908E+03	3.345779E-16	2.818577E-18
5.742844E+03	3.600829E-16	3.031158E-18
5.752780E+03	3.879484E-16	3.263226E-18
5.762715E+03	4.174232E-16	3.508413E-18
5.772651E+03	4.476331E-16	3.759333E-18
5.782587E+03	4.776664E-16	4.008314E-18
5.792522E+03	5.066347E-16	4.247902E-18
5.802458E+03	5.337218E-16	4.471276E-18
5.812394E+03	5.582682E-16	4.672952E-18
5.822330E+03	5.797548E-16	4.848642E-18
5.832265E+03	5.978413E-16	4.995571E-18
5.842201E+03	6.123268E-16	5.112142E-18
5.852137E+03	6.231273E-16	5.197741E-18
5.862072E+03	6.302477E-16	5.252501E-18
5.872008E+03	6.337637E-16	5.277147E-18
5.881944E+03	6.338065E-16	5.272862E-18
5.891880E+03	6.305790E-16	5.241427E-18
5.901815E+03	6.243344E-16	5.185031E-18
5.911751E+03	6.154002E-16	5.106474E-18
5.921687E+03	6.041513E-16	5.008936E-18
5.931622E+03	5.910258E-16	4.896107E-18
5.941558E+03	5.764850E-16	4.771860E-18
5.951494E+03	5.610113E-16	4.640220E-18
5.961430E+03	5.450776E-16	4.505126E-18
5.971365E+03	5.291259E-16	4.370242E-18
5.981301E+03	5.135520E-16	4.238842E-18
5.991237E+03	4.986944E-16	4.113716E-18
6.001172E+03	4.848502E-16	3.997305E-18
6.011108E+03	4.722592E-16	3.891576E-18
6.021044E+03	4.611310E-16	3.798241E-18
6.030980E+03	4.516271E-16	3.718619E-18
6.040915E+03	4.438894E-16	3.653867E-18
6.050851E+03	4.380390E-16	3.604978E-18
6.060787E+03	4.341641E-16	3.572677E-18
6.070722E+03	4.323331E-16	3.557534E-18
6.080658E+03	4.325856E-16	3.559892E-18
6.090594E+03	4.349213E-16	3.579777E-18
6.100530E+03	4.393031E-16	3.616921E-18
6.110465E+03	4.456330E-16	3.670568E-18
6.120401E+03	4.537402E-16	3.739372E-18
6.130337E+03	4.633806E-16	3.821394E-18
6.140272E+03	4.742125E-16	3.913894E-18
6.150208E+03	4.858018E-16	4.013374E-18
6.160144E+03	4.975968E-16	4.115354E-18
6.170080E+03	5.089556E-16	4.214596E-18
6.180015E+03	5.192197E-16	4.305694E-18
6.189951E+03	5.278324E-16	4.384053E-18
6.199887E+03	5.344011E-16	4.446402E-18
6.209822E+03	5.387503E-16	4.491235E-18
6.219758E+03	5.409052E-16	4.518652E-18
6.229694E+03	5.410987E-16	4.530467E-18
6.239630E+03	5.397075E-16	4.529702E-18
6.249565E+03	5.371829E-16	4.520019E-18
6.259501E+03	5.340208E-16	4.505491E-18
6.269437E+03	5.306743E-16	4.489863E-18
6.279372E+03	5.275517E-16	4.476544E-18
6.289308E+03	5.249661E-16	4.468175E-18
6.299244E+03	5.231221E-16	4.466504E-18
6.309180E+03	5.221037E-16	4.472273E-18
6.319115E+03	5.218760E-16	4.485216E-18
6.329051E+03	5.222660E-16	4.503879E-18
6.338987E+03	5.230125E-16	4.526024E-18
6.348922E+03	5.237513E-16	4.548491E-18
6.358858E+03	5.240788E-16	4.567734E-18
6.368794E+03	5.235751E-16	4.580009E-18
6.378730E+03	5.218957E-16	4.582184E-18
6.388665E+03	5.188149E-16	4.572125E-18
6.398601E+03	5.142500E-16	4.548928E-18
6.408537E+03	5.083369E-16	4.513621E-18
6.418472E+03	5.013632E-16	4.468602E-18
6.428408E+03	4.937715E-16	4.417689E-18
6.438344E+03	4.860944E-16	4.365576E-18
6.448280E+03	4.788936E-16	4.317288E-18
6.458215E+03	4.727012E-16	4.277668E-18
6.468151E+03	4.679738E-16	4.250941E-18
6.478087E+03	4.650535E-16	4.240356E-18
6.488022E+03	4.641689E-16	4.248172E-18
6.497958E+03	4.654037E-16	4.275348E-18
6.507894E+03	4.687027E-16	4.321571E-18
6.517830E+03	4.739063E-16	4.385554E-18
6.527765E+03	4.807205E-16	4.464740E-18
6.537701E+03	4.887832E-16	4.555892E-18
6.547637E+03	4.976595E-16	4.655042E-18
6.557573E+03	5.068807E-16	4.757848E-18
6.567508E+03	5.159834E-16	4.859951E-18
6.577444E+03	5.245258E-16	4.957140E-18
6.587380E+03	5.321530E-16	5.045969E-18
6.597315E+03	5.385617E-16	5.123443E-18
6.607251E+03	5.435776E-16	5.187760E-18
6.617187E+03	5.470872E-16	5.237686E-18
6.627123E+03	5.490509E-16	5.272687E-18
6.637058E+03	5.494521E-16	5.292449E-18
6.646994E+03	5.483026E-16	5.296940E-18
6.656930E+03	5.455868E-16	5.285867E-18
6.666865E+03	5.413151E-16	5.259196E-18
6.676801E+03	5.354679E-16	5.216608E-18
6.686737E+03	5.280866E-16	5.158384E-18
6.696673E+03	5.192306E-16	5.084994E-18
6.706608E+03	5.090155E-16	4.997472E-18
6.716544E+03	4.976421E-16	4.897709E-18
6.726480E+03	4.853387E-16	4.787892E-18
6.736415E+03	4.724252E-16	4.671141E-18
6.746351E+03	4.592424E-16	4.550815E-18
6.756287E+03	4.461846E-16	4.430840E-18
6.766223E+03	4.336640E-16	4.315348E-18
6.776158E+03	4.221024E-16	4.208605E-18
6.786094E+03	4.118919E-16	4.114607E-18
6.796030E+03	4.034085E-16	4.037219E-18
6.805965E+03	3.969644E-16	3.979680E-18
6.815901E+03	3.927997E-16	3.944527E-18
6.825837E+03	3.910850E-16	3.933598E-18
6.835773E+03	3.919221E-16	3.948044E-18
6.845708E+03	3.953155E-16	3.988030E-18
6.855644E+03	4.011999E-16	4.053002E-18
6.865580E+03	4.094391E-16	4.141681E-18
6.875515E+03	4.198031E-16	4.251818E-18
6.885451E+03	4.319833E-16	4.380348E-18
6.895387E+03	4.456159E-16	4.523626E-18
6.905323E+03	4.602600E-16	4.677201E-18
6.915258E+03	4.754560E-16	4.836409E-18
6.925194E+03	4.907385E-16	4.996511E-18
6.935130E+03	5.056490E-16	5.152818E-18
6.945065E+03	5.198054E-16	5.301409E-18
6.955001E+03	5.328750E-16	5.438857E-18
6.964937E+03	5.446310E-16	5.562811E-18
6.974873E+03	5.549367E-16	5.671843E-18
6.984808E+03	5.637192E-16	5.765177E-18
6.994744E+03	5.709979E-16	5.842988E-18
7.004680E+03	5.768437E-16	5.905980E-18
7.014615E+03	5.813645E-16	5.955248E-18
7.024551E+03	5.847168E-16	5.992390E-18
7.034487E+03	5.870779E-16	6.019224E-18
7.044423E+03	5.886501E-16	6.037829E-18
7.054358E+03	5.896500E-16	6.050440E-18
7.064294E+03	5.903270E-16	6.059631E-18
7.074230E+03	5.909182E-16	6.067859E-18
7.084165E+03	5.916958E-16	6.077943E-18
7.094101E+03	5.928708E-16	6.092077E-18
7.104037E+03	5.946483E-16	6.112403E-18
7.113973E+03	5.971815E-16	6.140529E-18
7.123908E+03	6.005326E-16	6.177132E-18
7.133844E+03	6.047048E-16	6.222286E-18
7.143780E+03	6.096043E-16	6.275067E-18
7.153715E+03	6.150372E-16	6.333522E-18
7.163651E+03	6.207301E-16	6.394878E-18
7.173587E+03	6.263454E-16	6.455701E-18
7.183523E+03	6.314834E-16	6.511907E-18
7.193458E+03	6.357404E-16	6.559370E-18
7.203394E+03	6.387434E-16	6.594267E-18
7.213330E+03	6.401916E-16	6.613513E-18
7.223265E+03	6.398919E-16	6.615123E-18
7.233201E+03	6.377720E-16	6.598350E-18
7.243137E+03	6.339075E-16	6.563968E-18
7.253073E+03	6.284801E-16	6.513851E-18
7.263008E+03	6.217404E-16	6.450578E-18
7.272944E+03	6.140248E-16	6.377627E-18
7.282880E+03	6.056294E-16	6.298061E-18
7.292815E+03	5.968718E-16	6.215177E-18
7.302751E+03	5.879816E-16	6.131368E-18
7.312687E+03	5.791430E-16	6.048559E-18
7.322623E+03	5.704908E-16	5.968172E-18
7.332558E+03	5.620716E-16	5.890710E-18
7.342494E+03	5.539071E-16	5.816420E-18
7.352430E+03	5.459928E-16	5.745272E-18
7.362365E+03	5.382694E-16	5.676660E-18
7.372301E+03	5.307121E-16	5.610334E-18
7.382237E+03	5.232636E-16	5.545703E-18
7.392173E+03	5.158594E-16	5.482083E-18
7.402108E+03	5.084295E-16	5.418729E-18
7.412044E+03	5.008480E-16	5.354287E-18
7.421980E+03	4.929527E-16	5.286989E-18
7.431916E+03	4.845244E-16	5.214430E-18
7.441851E+03	4.753062E-16	5.133753E-18
7.451787E+03	4.650964E-16	5.042650E-18
7.461723E+03	4.538949E-16	4.940959E-18
7.471658E+03	4.420408E-16	4.832206E-18
7.481594E+03	4.301692E-16	4.723216E-18
7.491530E+03	4.190180E-16	4.622066E-18
7.501466E+03	4.092201E-16	4.535815E-18
7.511401E+03	4.012236E-16	4.469593E-18
7.521337E+03	3.953090E-16	4.426764E-18
7.531273E+03	3.915993E-16	4.409022E-18
7.541208E+03	3.901193E-16	4.417003E-18
7.551144E+03	3.908102E-16	4.450434E-18
7.561080E+03	3.935574E-16	4.508416E-18
7.571016E+03	3.981991E-16	4.589505E-18
7.580951E+03	4.045551E-16	4.692020E-18
7.590887E+03	4.123960E-16	4.813679E-18
7.600823E+03	4.214899E-16	4.952120E-18
7.610758E+03	4.315702E-16	5.104516E-18
7.620694E+03	4.423627E-16	5.267873E-18
7.630630E+03	4.535903E-16	5.439085E-18
7.640566E+03	4.649612E-16	5.614781E-18
7.650501E+03	4.761978E-16	5.791662E-18
7.660437E+03	4.870183E-16	5.966278E-18
7.670373E+03	4.971684E-16	6.135417E-18
7.680308E+03	5.064100E-16	6.295967E-18
7.690244E+03	5.145276E-16	6.444999E-18
7.700180E+03	5.213551E-16	6.580118E-18
7.710116E+03	5.267606E-16	6.699285E-18
