#wls	flux	fluxerr
1.589715E+03	4.596636E-18	2.186064E-19
1.629457E+03	4.680944E-18	2.219222E-19
1.669200E+03	4.753328E-18	2.246310E-19
1.708943E+03	4.813810E-18	2.267382E-19
1.748686E+03	4.860307E-18	2.281503E-19
1.788429E+03	4.888140E-18	2.286544E-19
1.828172E+03	4.894760E-18	2.281399E-19
1.867915E+03	4.871590E-18	2.262188E-19
1.907657E+03	4.814366E-18	2.227092E-19
1.947400E+03	4.718422E-18	2.174144E-19
1.987143E+03	4.586290E-18	2.104727E-19
2.026886E+03	4.433422E-18	2.026118E-19
2.066629E+03	4.289322E-18	1.951878E-19
2.106372E+03	4.200201E-18	1.902911E-19
2.146115E+03	4.205905E-18	1.896863E-19
2.185858E+03	4.329935E-18	1.943697E-19
2.225600E+03	4.565730E-18	2.039712E-19
2.265343E+03	4.887018E-18	2.172466E-19
2.305086E+03	5.262445E-18	2.327470E-19
2.344829E+03	5.664149E-18	2.492035E-19
2.384572E+03	6.075433E-18	2.658600E-19
2.424315E+03	6.485077E-18	2.822140E-19
2.464058E+03	6.891998E-18	2.982124E-19
2.503800E+03	7.296681E-18	3.138703E-19
2.543543E+03	7.700091E-18	3.292230E-19
2.583286E+03	8.105074E-18	3.443845E-19
2.623029E+03	8.514683E-18	3.594743E-19
2.662772E+03	8.933413E-18	3.746689E-19
2.702515E+03	9.362686E-18	3.900112E-19
2.742258E+03	9.805082E-18	4.055899E-19
2.782000E+03	1.026468E-17	4.215520E-19
2.821743E+03	1.074206E-17	4.378953E-19
2.861486E+03	1.124106E-17	4.547491E-19
2.901229E+03	1.176179E-17	4.720861E-19
2.940972E+03	1.230590E-17	4.899405E-19
2.980715E+03	1.287496E-17	5.083385E-19
2.990650E+03	1.302129E-17	5.130254E-19
3.000586E+03	1.316929E-17	5.177477E-19
3.010522E+03	1.332120E-17	5.225923E-19
3.020458E+03	1.347273E-17	5.273907E-19
3.030393E+03	1.362696E-17	5.322625E-19
3.040329E+03	1.378289E-17	5.371681E-19
3.050265E+03	1.394236E-17	5.421783E-19
3.060201E+03	1.410750E-17	5.473750E-19
3.070136E+03	1.427352E-17	5.525702E-19
3.080072E+03	1.444254E-17	5.578460E-19
3.090008E+03	1.461682E-17	5.632884E-19
3.099943E+03	1.479144E-17	5.687064E-19
3.109879E+03	1.496865E-17	5.741863E-19
3.119815E+03	1.515084E-17	5.798180E-19
3.129751E+03	1.533294E-17	5.854070E-19
3.139686E+03	1.551988E-17	5.911404E-19
3.149622E+03	1.570651E-17	5.968208E-19
3.159558E+03	1.589788E-17	6.026398E-19
3.169493E+03	1.608874E-17	6.083972E-19
3.179429E+03	1.628428E-17	6.142888E-19
3.189365E+03	1.647915E-17	6.201113E-19
3.199301E+03	1.667868E-17	6.260650E-19
3.209236E+03	1.687741E-17	6.319436E-19
3.219172E+03	1.708080E-17	6.379511E-19
3.229108E+03	1.728329E-17	6.438789E-19
3.239043E+03	1.749047E-17	6.499347E-19
3.248979E+03	1.769667E-17	6.559064E-19
3.258915E+03	1.790764E-17	6.620066E-19
3.268851E+03	1.812053E-17	6.681284E-19
3.278786E+03	1.833236E-17	6.741621E-19
3.288722E+03	1.854911E-17	6.803258E-19
3.298658E+03	1.876783E-17	6.865112E-19
3.308593E+03	1.898550E-17	6.926062E-19
3.318529E+03	1.920828E-17	6.988350E-19
3.328465E+03	1.943315E-17	7.050869E-19
3.338401E+03	1.965702E-17	7.112481E-19
3.348336E+03	1.988624E-17	7.175486E-19
3.358272E+03	2.011775E-17	7.238761E-19
3.368208E+03	2.035162E-17	7.302319E-19
3.378143E+03	2.058794E-17	7.366181E-19
3.388079E+03	2.082343E-17	7.429168E-19
3.398015E+03	2.106487E-17	7.493689E-19
3.407951E+03	2.130905E-17	7.558583E-19
3.417886E+03	2.155607E-17	7.623878E-19
3.427822E+03	2.180607E-17	7.689606E-19
3.437758E+03	2.205564E-17	7.754556E-19
3.447693E+03	2.231198E-17	7.821250E-19
3.457629E+03	2.257173E-17	7.888490E-19
3.467565E+03	2.283509E-17	7.956326E-19
3.477501E+03	2.310221E-17	8.024803E-19
3.487436E+03	2.337332E-17	8.093979E-19
3.497372E+03	2.364862E-17	8.163908E-19
3.507308E+03	2.392836E-17	8.234655E-19
3.517243E+03	2.421276E-17	8.306284E-19
3.527179E+03	2.450211E-17	8.378867E-19
3.537115E+03	2.479666E-17	8.452475E-19
3.547051E+03	2.509671E-17	8.527184E-19
3.556986E+03	2.539849E-17	8.601697E-19
3.566922E+03	2.571032E-17	8.678812E-19
3.576858E+03	2.602845E-17	8.757232E-19
3.586793E+03	2.635313E-17	8.837009E-19
3.596729E+03	2.668456E-17	8.918188E-19
3.606665E+03	2.702295E-17	9.000809E-19
3.616601E+03	2.736850E-17	9.084909E-19
3.626536E+03	2.772140E-17	9.170527E-19
3.636472E+03	2.808188E-17	9.257702E-19
3.646408E+03	2.845014E-17	9.346471E-19
3.656343E+03	2.882640E-17	9.436876E-19
3.666279E+03	2.921552E-17	9.530463E-19
3.676215E+03	2.960856E-17	9.624282E-19
3.686151E+03	3.001033E-17	9.719866E-19
3.696086E+03	3.042108E-17	9.817261E-19
3.706022E+03	3.084105E-17	9.916510E-19
3.715958E+03	3.127052E-17	1.001766E-18
3.725893E+03	3.170976E-17	1.012075E-18
3.735829E+03	3.215901E-17	1.022583E-18
3.745765E+03	3.261855E-17	1.033294E-18
3.755701E+03	3.308865E-17	1.044212E-18
3.765636E+03	3.356956E-17	1.055340E-18
3.775572E+03	3.406155E-17	1.066682E-18
3.785508E+03	3.456486E-17	1.078241E-18
3.795443E+03	3.507975E-17	1.090020E-18
3.805379E+03	3.560645E-17	1.102022E-18
3.815315E+03	3.614519E-17	1.114247E-18
3.825251E+03	3.669619E-17	1.126698E-18
3.835186E+03	3.725964E-17	1.139376E-18
3.845122E+03	3.784162E-17	1.152459E-18
3.855058E+03	3.843064E-17	1.165592E-18
3.864993E+03	3.903263E-17	1.178950E-18
3.874929E+03	3.964773E-17	1.192532E-18
3.884865E+03	4.027608E-17	1.206335E-18
3.894801E+03	4.091774E-17	1.220356E-18
3.904736E+03	4.157280E-17	1.234592E-18
3.914672E+03	4.224130E-17	1.249037E-18
3.924608E+03	4.292324E-17	1.263687E-18
3.934544E+03	4.361862E-17	1.278533E-18
3.944479E+03	4.432740E-17	1.293569E-18
3.954415E+03	4.504948E-17	1.308786E-18
3.964351E+03	4.578477E-17	1.324175E-18
3.974286E+03	4.653310E-17	1.339725E-18
3.984222E+03	4.729429E-17	1.355425E-18
3.994158E+03	4.806811E-17	1.371261E-18
4.004094E+03	4.885427E-17	1.387221E-18
4.014029E+03	4.965249E-17	1.403289E-18
4.023965E+03	5.046239E-17	1.419449E-18
4.033901E+03	5.128356E-17	1.435684E-18
4.043836E+03	5.211554E-17	1.451976E-18
4.053772E+03	5.295784E-17	1.468305E-18
4.063708E+03	5.380990E-17	1.484650E-18
4.073644E+03	5.467109E-17	1.500990E-18
4.083579E+03	5.554079E-17	1.517303E-18
4.093515E+03	5.641828E-17	1.533564E-18
4.103451E+03	5.730283E-17	1.549750E-18
4.113386E+03	5.818468E-17	1.565593E-18
4.123322E+03	5.908067E-17	1.581545E-18
4.133258E+03	5.998108E-17	1.597339E-18
4.143194E+03	6.088495E-17	1.612949E-18
4.153129E+03	6.179143E-17	1.628347E-18
4.163065E+03	6.269931E-17	1.643501E-18
4.173001E+03	6.360768E-17	1.658385E-18
4.182936E+03	6.450558E-17	1.672715E-18
4.192872E+03	6.541142E-17	1.686967E-18
4.202808E+03	6.631443E-17	1.700861E-18
4.212744E+03	6.721341E-17	1.714368E-18
4.222679E+03	6.810742E-17	1.727464E-18
4.232615E+03	6.898484E-17	1.739857E-18
4.242551E+03	6.986540E-17	1.752048E-18
4.252486E+03	7.073778E-17	1.763753E-18
4.262422E+03	7.160109E-17	1.774953E-18
4.272358E+03	7.244346E-17	1.785357E-18
4.282294E+03	7.328585E-17	1.795488E-18
4.292229E+03	7.411677E-17	1.805066E-18
4.302165E+03	7.492436E-17	1.813807E-18
4.312101E+03	7.573042E-17	1.822246E-18
4.322036E+03	7.651197E-17	1.829834E-18
4.331972E+03	7.729143E-17	1.837112E-18
4.341908E+03	7.805713E-17	1.843807E-18
4.351844E+03	7.879692E-17	1.849639E-18
4.361779E+03	7.953388E-17	1.855156E-18
4.371715E+03	8.024388E-17	1.859802E-18
4.381651E+03	8.095003E-17	1.864119E-18
4.391586E+03	8.162770E-17	1.867545E-18
4.401522E+03	8.230029E-17	1.870625E-18
4.411458E+03	8.294275E-17	1.872796E-18
4.421394E+03	8.356656E-17	1.874329E-18
4.431329E+03	8.418380E-17	1.875500E-18
4.441265E+03	8.476906E-17	1.875751E-18
4.451201E+03	8.534718E-17	1.875641E-18
4.461136E+03	8.589268E-17	1.874618E-18
4.471072E+03	8.641816E-17	1.872970E-18
4.481008E+03	8.692376E-17	1.870708E-18
4.490944E+03	8.742253E-17	1.868121E-18
4.500879E+03	8.788906E-17	1.864672E-18
4.510815E+03	8.833657E-17	1.860655E-18
4.520751E+03	8.876571E-17	1.856093E-18
4.530686E+03	8.919023E-17	1.851279E-18
4.540622E+03	8.958448E-17	1.845688E-18
4.550558E+03	8.996238E-17	1.839618E-18
4.560494E+03	9.032484E-17	1.833096E-18
4.570429E+03	9.067264E-17	1.826145E-18
4.580365E+03	9.100679E-17	1.818793E-18
4.590301E+03	9.132827E-17	1.811065E-18
4.600236E+03	9.163802E-17	1.802988E-18
4.610172E+03	9.193710E-17	1.794587E-18
4.620108E+03	9.222659E-17	1.785889E-18
4.630044E+03	9.250744E-17	1.776918E-18
4.639979E+03	9.278086E-17	1.767701E-18
4.649915E+03	9.304776E-17	1.758260E-18
4.659851E+03	9.330919E-17	1.748619E-18
4.669786E+03	9.356631E-17	1.738803E-18
4.679722E+03	9.380637E-17	1.728579E-18
4.689658E+03	9.405779E-17	1.718476E-18
4.699594E+03	9.430786E-17	1.708260E-18
4.709529E+03	9.455753E-17	1.697950E-18
4.719465E+03	9.479398E-17	1.687318E-18
4.729401E+03	9.504573E-17	1.676876E-18
4.739336E+03	9.529989E-17	1.666391E-18
4.749272E+03	9.554332E-17	1.655637E-18
4.759208E+03	9.580479E-17	1.645115E-18
4.769144E+03	9.605712E-17	1.634354E-18
4.779079E+03	9.632910E-17	1.623847E-18
4.789015E+03	9.659337E-17	1.613128E-18
4.798951E+03	9.687882E-17	1.602681E-18
4.808887E+03	9.715781E-17	1.592045E-18
4.818822E+03	9.745935E-17	1.581695E-18
4.828758E+03	9.775570E-17	1.571178E-18
4.838694E+03	9.807569E-17	1.560957E-18
4.848629E+03	9.839155E-17	1.550584E-18
4.858565E+03	9.871788E-17	1.540293E-18
4.868501E+03	9.906947E-17	1.530309E-18
4.878437E+03	9.941815E-17	1.520193E-18
4.888372E+03	9.977858E-17	1.510169E-18
4.898308E+03	1.001511E-16	1.500242E-18
4.908244E+03	1.005361E-16	1.490411E-18
4.918179E+03	1.009484E-16	1.480895E-18
4.928115E+03	1.013590E-16	1.471263E-18
4.938051E+03	1.017829E-16	1.461731E-18
4.947987E+03	1.022201E-16	1.452301E-18
4.957922E+03	1.026708E-16	1.442971E-18
4.967858E+03	1.031353E-16	1.433741E-18
4.977794E+03	1.036133E-16	1.424609E-18
4.987729E+03	1.041053E-16	1.415575E-18
4.997665E+03	1.046110E-16	1.406638E-18
5.007601E+03	1.051153E-16	1.397593E-18
5.017537E+03	1.056485E-16	1.388843E-18
5.027472E+03	1.061954E-16	1.380184E-18
5.037408E+03	1.067558E-16	1.371614E-18
5.047344E+03	1.073297E-16	1.363129E-18
5.057279E+03	1.079013E-16	1.354534E-18
5.067215E+03	1.085015E-16	1.346216E-18
5.077151E+03	1.091145E-16	1.337979E-18
5.087087E+03	1.097243E-16	1.329628E-18
5.097022E+03	1.103621E-16	1.321545E-18
5.106958E+03	1.109960E-16	1.313348E-18
5.116894E+03	1.116573E-16	1.305413E-18
5.126829E+03	1.123138E-16	1.297363E-18
5.136765E+03	1.129972E-16	1.289571E-18
5.146701E+03	1.136748E-16	1.281665E-18
5.156637E+03	1.143786E-16	1.274013E-18
5.166572E+03	1.150755E-16	1.266251E-18
5.176508E+03	1.157978E-16	1.258740E-18
5.186444E+03	1.165121E-16	1.251122E-18
5.196379E+03	1.172343E-16	1.243580E-18
5.206315E+03	1.179641E-16	1.236116E-18
5.216251E+03	1.187177E-16	1.228908E-18
5.226187E+03	1.194610E-16	1.221609E-18
5.236122E+03	1.202103E-16	1.214400E-18
5.246058E+03	1.209652E-16	1.207285E-18
5.255994E+03	1.217253E-16	1.200272E-18
5.265929E+03	1.224903E-16	1.193367E-18
5.275865E+03	1.232598E-16	1.186578E-18
5.285801E+03	1.240334E-16	1.179915E-18
5.295737E+03	1.248112E-16	1.173387E-18
5.305672E+03	1.255928E-16	1.167006E-18
5.315608E+03	1.263781E-16	1.160783E-18
5.325544E+03	1.271672E-16	1.154730E-18
5.335479E+03	1.279601E-16	1.148861E-18
5.345415E+03	1.287568E-16	1.143189E-18
5.355351E+03	1.295574E-16	1.137730E-18
5.365287E+03	1.303437E-16	1.132335E-18
5.375222E+03	1.311528E-16	1.127344E-18
5.385158E+03	1.319664E-16	1.122608E-18
5.395094E+03	1.327847E-16	1.118143E-18
5.405029E+03	1.335887E-16	1.113796E-18
5.414965E+03	1.344163E-16	1.109881E-18
5.424901E+03	1.352488E-16	1.106227E-18
5.434837E+03	1.360668E-16	1.102668E-18
5.444772E+03	1.369088E-16	1.099507E-18
5.454708E+03	1.377362E-16	1.096419E-18
5.464644E+03	1.385881E-16	1.093705E-18
5.474579E+03	1.394250E-16	1.091038E-18
5.484515E+03	1.402862E-16	1.088713E-18
5.494451E+03	1.411319E-16	1.086407E-18
5.504387E+03	1.419817E-16	1.084257E-18
5.514322E+03	1.428558E-16	1.082403E-18
5.524258E+03	1.437134E-16	1.080519E-18
5.534194E+03	1.445745E-16	1.078744E-18
5.544129E+03	1.454595E-16	1.077210E-18
5.554065E+03	1.463267E-16	1.075595E-18
5.564001E+03	1.471964E-16	1.074033E-18
5.573937E+03	1.480682E-16	1.072505E-18
5.583872E+03	1.489416E-16	1.070994E-18
5.593808E+03	1.498375E-16	1.069633E-18
5.603744E+03	1.507131E-16	1.068100E-18
5.613679E+03	1.515891E-16	1.066529E-18
5.623615E+03	1.524653E-16	1.064904E-18
5.633551E+03	1.533415E-16	1.063208E-18
5.643487E+03	1.542172E-16	1.061426E-18
5.653422E+03	1.550922E-16	1.059543E-18
5.663358E+03	1.559664E-16	1.057544E-18
5.673294E+03	1.568394E-16	1.055414E-18
5.683230E+03	1.577111E-16	1.053142E-18
5.693165E+03	1.585588E-16	1.050565E-18
5.703101E+03	1.594271E-16	1.047971E-18
5.713037E+03	1.602933E-16	1.045198E-18
5.722972E+03	1.611571E-16	1.042236E-18
5.732908E+03	1.620183E-16	1.039075E-18
5.742844E+03	1.628533E-16	1.035560E-18
5.752780E+03	1.637078E-16	1.031977E-18
5.762715E+03	1.645584E-16	1.028172E-18
5.772651E+03	1.653810E-16	1.023992E-18
5.782587E+03	1.662218E-16	1.019724E-18
5.792522E+03	1.670567E-16	1.015218E-18
5.802458E+03	1.678613E-16	1.010328E-18
5.812394E+03	1.686821E-16	1.005340E-18
5.822330E+03	1.694707E-16	9.999699E-19
5.832265E+03	1.702737E-16	9.945017E-19
5.842201E+03	1.710423E-16	9.886583E-19
5.852137E+03	1.718232E-16	9.827251E-19
5.862072E+03	1.725671E-16	9.764322E-19
5.872008E+03	1.733212E-16	9.700674E-19
5.881944E+03	1.740353E-16	9.633681E-19
5.891880E+03	1.747324E-16	9.564887E-19
5.901815E+03	1.754358E-16	9.495826E-19
5.911751E+03	1.760945E-16	9.424026E-19
5.921687E+03	1.767318E-16	9.351108E-19
5.931622E+03	1.773710E-16	9.278671E-19
5.941558E+03	1.779605E-16	9.204424E-19
5.951494E+03	1.785239E-16	9.130068E-19
5.961430E+03	1.790594E-16	9.056020E-19
5.971365E+03	1.795910E-16	8.984023E-19
5.981301E+03	1.800664E-16	8.912030E-19
5.991237E+03	1.805096E-16	8.841881E-19
6.001172E+03	1.809189E-16	8.774165E-19
6.011108E+03	1.812932E-16	8.709528E-19
6.021044E+03	1.816312E-16	8.648643E-19
6.030980E+03	1.819315E-16	8.592223E-19
6.040915E+03	1.821930E-16	8.541000E-19
6.050851E+03	1.824146E-16	8.495735E-19
6.060787E+03	1.825952E-16	8.457200E-19
6.070722E+03	1.827336E-16	8.426158E-19
6.080658E+03	1.828288E-16	8.403377E-19
6.090594E+03	1.828796E-16	8.389586E-19
6.100530E+03	1.828849E-16	8.385495E-19
6.110465E+03	1.828437E-16	8.391758E-19
6.120401E+03	1.827548E-16	8.408969E-19
6.130337E+03	1.826174E-16	8.437663E-19
6.140272E+03	1.824308E-16	8.478296E-19
6.150208E+03	1.821688E-16	8.530038E-19
6.160144E+03	1.818829E-16	8.595523E-19
6.170080E+03	1.815467E-16	8.673277E-19
6.180015E+03	1.811602E-16	8.762775E-19
6.189951E+03	1.807236E-16	8.863403E-19
6.199887E+03	1.802118E-16	8.973230E-19
6.209822E+03	1.796761E-16	9.094048E-19
6.219758E+03	1.790917E-16	9.223855E-19
6.229694E+03	1.784340E-16	9.360533E-19
6.239630E+03	1.777542E-16	9.505912E-19
6.249565E+03	1.770278E-16	9.657877E-19
6.259501E+03	1.762306E-16	9.814228E-19
6.269437E+03	1.754136E-16	9.976938E-19
6.279372E+03	1.745281E-16	1.014242E-18
6.289308E+03	1.736249E-16	1.031280E-18
6.299244E+03	1.726804E-16	1.048594E-18
6.309180E+03	1.716720E-16	1.065967E-18
6.319115E+03	1.706501E-16	1.083634E-18
6.329051E+03	1.695679E-16	1.101233E-18
6.338987E+03	1.684757E-16	1.119019E-18
6.348922E+03	1.673276E-16	1.136629E-18
6.358858E+03	1.661498E-16	1.154171E-18
6.368794E+03	1.649681E-16	1.171773E-18
6.378730E+03	1.637377E-16	1.189068E-18
6.388665E+03	1.625079E-16	1.206359E-18
6.398601E+03	1.612348E-16	1.223279E-18
6.408537E+03	1.599440E-16	1.239972E-18
6.418472E+03	1.586605E-16	1.256597E-18
6.428408E+03	1.573417E-16	1.272785E-18
6.438344E+03	1.560128E-16	1.288697E-18
6.448280E+03	1.546980E-16	1.304508E-18
6.458215E+03	1.533557E-16	1.319846E-18
6.468151E+03	1.520105E-16	1.334889E-18
6.478087E+03	1.506859E-16	1.349826E-18
6.488022E+03	1.493413E-16	1.364279E-18
6.497958E+03	1.480004E-16	1.378441E-18
6.507894E+03	1.466652E-16	1.392317E-18
6.517830E+03	1.453379E-16	1.405916E-18
6.527765E+03	1.440404E-16	1.419445E-18
6.537701E+03	1.427339E-16	1.432517E-18
6.547637E+03	1.414405E-16	1.445341E-18
6.557573E+03	1.401618E-16	1.457932E-18
6.567508E+03	1.388993E-16	1.470301E-18
6.577444E+03	1.376547E-16	1.482466E-18
6.587380E+03	1.364289E-16	1.494440E-18
6.597315E+03	1.352234E-16	1.506240E-18
6.607251E+03	1.340392E-16	1.517883E-18
6.617187E+03	1.328774E-16	1.529384E-18
6.627123E+03	1.317389E-16	1.540761E-18
6.637058E+03	1.306244E-16	1.552030E-18
6.646994E+03	1.295348E-16	1.563209E-18
6.656930E+03	1.284707E-16	1.574313E-18
6.666865E+03	1.274326E-16	1.585360E-18
6.676801E+03	1.264210E-16	1.596366E-18
6.686737E+03	1.254364E-16	1.607345E-18
6.696673E+03	1.244789E-16	1.618315E-18
6.706608E+03	1.235488E-16	1.629287E-18
6.716544E+03	1.226463E-16	1.640278E-18
6.726480E+03	1.217714E-16	1.651300E-18
6.736415E+03	1.209240E-16	1.662366E-18
6.746351E+03	1.201042E-16	1.673486E-18
6.756287E+03	1.192948E-16	1.684434E-18
6.766223E+03	1.185295E-16	1.695695E-18
6.776158E+03	1.177911E-16	1.707042E-18
6.786094E+03	1.170793E-16	1.718482E-18
6.796030E+03	1.163935E-16	1.730023E-18
6.805965E+03	1.157168E-16	1.741421E-18
6.815901E+03	1.150819E-16	1.753177E-18
6.825837E+03	1.144715E-16	1.765046E-18
6.835773E+03	1.138850E-16	1.777034E-18
6.845708E+03	1.133055E-16	1.788883E-18
6.855644E+03	1.127648E-16	1.801105E-18
6.865580E+03	1.122458E-16	1.813443E-18
6.875515E+03	1.117318E-16	1.825638E-18
6.885451E+03	1.112538E-16	1.838200E-18
6.895387E+03	1.107950E-16	1.850871E-18
6.905323E+03	1.103387E-16	1.863376E-18
6.915258E+03	1.099155E-16	1.876238E-18
6.925194E+03	1.094929E-16	1.888917E-18
6.935130E+03	1.091013E-16	1.901937E-18
6.945065E+03	1.087239E-16	1.915024E-18
6.955001E+03	1.083441E-16	1.927886E-18
6.964937E+03	1.079920E-16	1.941063E-18
6.974873E+03	1.076355E-16	1.953987E-18
6.984808E+03	1.073042E-16	1.967198E-18
6.994744E+03	1.069663E-16	1.980121E-18
7.004680E+03	1.066514E-16	1.993303E-18
7.014615E+03	1.063277E-16	2.006159E-18
7.024551E+03	1.060246E-16	2.019242E-18
7.034487E+03	1.057106E-16	2.031957E-18
7.044423E+03	1.054148E-16	2.044863E-18
7.054358E+03	1.051060E-16	2.057358E-18
7.064294E+03	1.047982E-16	2.069713E-18
7.074230E+03	1.045053E-16	2.082203E-18
7.084165E+03	1.041962E-16	2.094212E-18
7.094101E+03	1.038998E-16	2.106318E-18
7.104037E+03	1.035855E-16	2.117900E-18
7.113973E+03	1.032670E-16	2.129234E-18
7.123908E+03	1.029585E-16	2.140607E-18
7.133844E+03	1.026293E-16	2.151387E-18
7.143780E+03	1.022935E-16	2.161860E-18
7.153715E+03	1.019649E-16	2.172313E-18
7.163651E+03	1.016136E-16	2.182114E-18
7.173587E+03	1.012535E-16	2.191547E-18
7.183523E+03	1.008842E-16	2.200599E-18
7.193458E+03	1.005194E-16	2.209571E-18
7.203394E+03	1.001299E-16	2.217813E-18
7.213330E+03	9.972959E-17	2.225629E-18
7.223265E+03	9.931818E-17	2.233004E-18
7.233201E+03	9.889535E-17	2.239925E-18
7.243137E+03	9.847517E-17	2.246710E-18
7.253073E+03	9.802907E-17	2.252702E-18
7.263008E+03	9.757111E-17	2.258216E-18
7.272944E+03	9.710127E-17	2.263244E-18
7.282880E+03	9.661953E-17	2.267783E-18
7.292815E+03	9.612614E-17	2.271831E-18
7.302751E+03	9.562111E-17	2.275385E-18
7.312687E+03	9.510470E-17	2.278446E-18
7.322623E+03	9.457712E-17	2.281014E-18
7.332558E+03	9.403870E-17	2.283092E-18
7.342494E+03	9.348976E-17	2.284684E-18
7.352430E+03	9.293070E-17	2.285795E-18
7.362365E+03	9.236195E-17	2.286432E-18
7.372301E+03	9.178396E-17	2.286603E-18
7.382237E+03	9.119723E-17	2.286316E-18
7.392173E+03	9.060228E-17	2.285582E-18
7.402108E+03	8.999963E-17	2.284411E-18
7.412044E+03	8.938986E-17	2.282815E-18
7.421980E+03	8.877355E-17	2.280807E-18
7.431916E+03	8.815129E-17	2.278399E-18
7.441851E+03	8.752368E-17	2.275607E-18
7.451787E+03	8.689131E-17	2.272443E-18
7.461723E+03	8.625482E-17	2.268924E-18
7.471658E+03	8.560241E-17	2.264737E-18
7.481594E+03	8.495955E-17	2.260553E-18
7.491530E+03	8.431438E-17	2.256060E-18
7.501466E+03	8.366747E-17	2.251274E-18
7.511401E+03	8.301941E-17	2.246212E-18
7.521337E+03	8.235883E-17	2.240564E-18
7.531273E+03	8.171025E-17	2.234997E-18
7.541208E+03	8.106219E-17	2.229201E-18
7.551144E+03	8.041516E-17	2.223193E-18
7.561080E+03	7.975809E-17	2.216667E-18
7.571016E+03	7.911472E-17	2.210281E-18
7.580951E+03	7.847384E-17	2.203729E-18
7.590887E+03	7.782460E-17	2.196707E-18
7.600823E+03	7.719013E-17	2.189868E-18
7.610758E+03	7.655945E-17	2.182907E-18
7.620694E+03	7.592190E-17	2.175521E-18
7.630630E+03	7.530002E-17	2.168359E-18
7.640566E+03	7.467218E-17	2.160801E-18
7.650501E+03	7.406054E-17	2.153490E-18
7.660437E+03	7.345446E-17	2.146124E-18
7.670373E+03	7.284364E-17	2.138404E-18
7.680308E+03	7.224966E-17	2.130966E-18
7.690244E+03	7.165167E-17	2.123200E-18
7.700180E+03	7.107091E-17	2.115737E-18
7.710116E+03	7.048679E-17	2.107970E-18
