#wls	flux	fluxerr
1.589715E+03	4.269208E-18	1.875843E-19
1.629457E+03	4.337949E-18	1.899678E-19
1.669200E+03	4.394980E-18	1.918031E-19
1.708943E+03	4.438782E-18	1.930285E-19
1.748686E+03	4.469849E-18	1.936705E-19
1.788429E+03	4.484775E-18	1.935876E-19
1.828172E+03	4.477371E-18	1.925207E-19
1.867915E+03	4.443141E-18	1.902884E-19
1.907657E+03	4.376885E-18	1.866826E-19
1.947400E+03	4.276229E-18	1.816198E-19
1.987143E+03	4.143022E-18	1.751977E-19
2.026886E+03	3.990118E-18	1.679770E-19
2.066629E+03	3.847084E-18	1.612096E-19
2.106372E+03	3.752413E-18	1.564967E-19
2.146115E+03	3.743060E-18	1.553444E-19
2.185858E+03	3.837547E-18	1.584650E-19
2.225600E+03	4.029436E-18	1.655273E-19
2.265343E+03	4.295118E-18	1.755007E-19
2.305086E+03	4.603896E-18	1.870847E-19
2.344829E+03	4.933135E-18	1.993303E-19
2.384572E+03	5.265462E-18	2.115198E-19
2.424315E+03	5.594682E-18	2.233973E-19
2.464058E+03	5.917229E-18	2.348175E-19
2.503800E+03	6.233524E-18	2.457959E-19
2.543543E+03	6.545566E-18	2.564092E-19
2.583286E+03	6.856025E-18	2.667584E-19
2.623029E+03	7.169024E-18	2.769977E-19
2.662772E+03	7.484938E-18	2.871330E-19
2.702515E+03	7.809062E-18	2.973568E-19
2.742258E+03	8.141312E-18	3.076519E-19
2.782000E+03	8.486978E-18	3.182023E-19
2.821743E+03	8.847121E-18	3.290281E-19
2.861486E+03	9.224140E-18	3.401964E-19
2.901229E+03	9.620423E-18	3.517704E-19
2.940972E+03	1.003842E-17	3.638114E-19
2.980715E+03	1.048062E-17	3.763785E-19
2.990650E+03	1.059434E-17	3.795763E-19
3.000586E+03	1.071162E-17	3.828777E-19
3.010522E+03	1.083067E-17	3.862179E-19
3.020458E+03	1.094973E-17	3.895330E-19
3.030393E+03	1.107332E-17	3.929838E-19
3.040329E+03	1.119682E-17	3.964055E-19
3.050265E+03	1.132563E-17	3.999884E-19
3.060201E+03	1.145770E-17	4.036586E-19
3.070136E+03	1.159090E-17	4.073403E-19
3.080072E+03	1.172914E-17	4.111699E-19
3.090008E+03	1.186827E-17	4.150010E-19
3.099943E+03	1.201230E-17	4.189731E-19
3.109879E+03	1.215913E-17	4.230117E-19
3.119815E+03	1.230657E-17	4.270395E-19
3.129751E+03	1.245882E-17	4.312014E-19
3.139686E+03	1.261153E-17	4.353460E-19
3.149622E+03	1.276902E-17	4.396217E-19
3.159558E+03	1.292911E-17	4.439519E-19
3.169493E+03	1.308951E-17	4.482574E-19
3.179429E+03	1.325472E-17	4.526914E-19
3.189365E+03	1.342248E-17	4.571757E-19
3.199301E+03	1.359046E-17	4.616296E-19
3.209236E+03	1.376332E-17	4.662113E-19
3.219172E+03	1.393877E-17	4.708413E-19
3.229108E+03	1.411438E-17	4.754367E-19
3.239043E+03	1.429502E-17	4.801613E-19
3.248979E+03	1.447829E-17	4.849326E-19
3.258915E+03	1.466170E-17	4.896666E-19
3.268851E+03	1.485032E-17	4.945316E-19
3.278786E+03	1.504167E-17	4.994436E-19
3.288722E+03	1.523316E-17	5.043158E-19
3.298658E+03	1.543006E-17	5.093216E-19
3.308593E+03	1.562980E-17	5.143750E-19
3.318529E+03	1.583243E-17	5.194760E-19
3.328465E+03	1.603522E-17	5.245342E-19
3.338401E+03	1.624372E-17	5.297304E-19
3.348336E+03	1.645522E-17	5.349745E-19
3.358272E+03	1.666690E-17	5.401737E-19
3.368208E+03	1.688450E-17	5.455133E-19
3.378143E+03	1.710522E-17	5.509007E-19
3.388079E+03	1.732910E-17	5.563360E-19
3.398015E+03	1.755314E-17	5.617220E-19
3.407951E+03	1.778336E-17	5.672504E-19
3.417886E+03	1.801682E-17	5.728250E-19
3.427822E+03	1.825038E-17	5.783453E-19
3.437758E+03	1.849029E-17	5.840083E-19
3.447693E+03	1.873344E-17	5.897138E-19
3.457629E+03	1.897984E-17	5.954602E-19
3.467565E+03	1.922615E-17	6.011423E-19
3.477501E+03	1.947891E-17	6.069634E-19
3.487436E+03	1.973483E-17	6.128185E-19
3.497372E+03	1.999386E-17	6.187050E-19
3.507308E+03	2.025245E-17	6.245119E-19
3.517243E+03	2.051746E-17	6.304497E-19
3.527179E+03	2.078538E-17	6.364083E-19
3.537115E+03	2.105613E-17	6.423843E-19
3.547051E+03	2.132599E-17	6.482630E-19
3.556986E+03	2.160220E-17	6.542636E-19
3.566922E+03	2.188114E-17	6.602742E-19
3.576858E+03	2.216286E-17	6.662950E-19
3.586793E+03	2.244361E-17	6.722125E-19
3.596729E+03	2.273117E-17	6.782587E-19
3.606665E+03	2.302196E-17	6.843241E-19
3.616601E+03	2.331617E-17	6.904134E-19
3.626536E+03	2.361003E-17	6.964134E-19
3.636472E+03	2.391181E-17	7.025666E-19
3.646408E+03	2.421779E-17	7.087611E-19
3.656343E+03	2.452822E-17	7.150024E-19
3.666279E+03	2.484338E-17	7.212965E-19
3.676215E+03	2.515923E-17	7.275245E-19
3.686151E+03	2.548458E-17	7.339393E-19
3.696086E+03	2.581545E-17	7.404228E-19
3.706022E+03	2.615208E-17	7.469797E-19
3.715958E+03	2.649022E-17	7.534864E-19
3.725893E+03	2.683910E-17	7.602034E-19
3.735829E+03	2.719451E-17	7.670074E-19
3.745765E+03	2.755668E-17	7.739021E-19
3.755701E+03	2.792110E-17	7.807586E-19
3.765636E+03	2.829746E-17	7.878451E-19
3.775572E+03	2.868130E-17	7.950329E-19
3.785508E+03	2.907284E-17	8.023248E-19
3.795443E+03	2.946728E-17	8.095860E-19
3.805379E+03	2.987481E-17	8.170930E-19
3.815315E+03	3.029067E-17	8.247113E-19
3.825251E+03	3.071509E-17	8.324428E-19
3.835186E+03	3.114296E-17	8.401462E-19
3.845122E+03	3.158497E-17	8.481069E-19
3.855058E+03	3.203610E-17	8.561842E-19
3.864993E+03	3.249651E-17	8.643786E-19
3.874929E+03	3.296077E-17	8.725421E-19
3.884865E+03	3.344014E-17	8.809694E-19
3.894801E+03	3.392924E-17	8.895128E-19
3.904736E+03	3.442821E-17	8.981716E-19
3.914672E+03	3.493123E-17	9.067903E-19
3.924608E+03	3.545017E-17	9.156730E-19
3.934544E+03	3.597928E-17	9.246651E-19
3.944479E+03	3.651863E-17	9.337638E-19
3.954415E+03	3.706198E-17	9.428058E-19
3.964351E+03	3.762183E-17	9.521049E-19
3.974286E+03	3.819201E-17	9.614985E-19
3.984222E+03	3.877251E-17	9.709816E-19
3.994158E+03	3.935664E-17	9.803826E-19
4.004094E+03	3.995754E-17	9.900252E-19
4.014029E+03	4.056858E-17	9.997380E-19
4.023965E+03	4.118268E-17	1.009343E-18
4.033901E+03	4.181349E-17	1.019171E-18
4.043836E+03	4.245399E-17	1.029043E-18
4.053772E+03	4.310394E-17	1.038951E-18
4.063708E+03	4.375571E-17	1.048705E-18
4.073644E+03	4.442365E-17	1.058647E-18
4.083579E+03	4.510015E-17	1.068588E-18
4.093515E+03	4.577708E-17	1.078334E-18
4.103451E+03	4.646934E-17	1.088231E-18
4.113386E+03	4.716882E-17	1.098084E-18
4.123322E+03	4.786689E-17	1.107690E-18
4.133258E+03	4.857897E-17	1.117402E-18
4.143194E+03	4.929641E-17	1.127017E-18
4.153129E+03	5.001006E-17	1.136323E-18
4.163065E+03	5.073579E-17	1.145681E-18
4.173001E+03	5.146443E-17	1.154877E-18
4.182936E+03	5.218621E-17	1.163692E-18
4.192872E+03	5.291749E-17	1.172491E-18
4.202808E+03	5.364846E-17	1.181054E-18
4.212744E+03	5.436871E-17	1.189151E-18
4.222679E+03	5.509504E-17	1.197152E-18
4.232615E+03	5.581697E-17	1.204827E-18
4.242551E+03	5.652340E-17	1.211940E-18
4.252486E+03	5.723150E-17	1.218863E-18
4.262422E+03	5.792034E-17	1.225150E-18
4.272358E+03	5.860730E-17	1.231176E-18
4.282294E+03	5.928070E-17	1.236697E-18
4.292229E+03	5.992827E-17	1.241464E-18
4.302165E+03	6.056773E-17	1.245852E-18
4.312101E+03	6.117652E-17	1.249404E-18
4.322036E+03	6.177266E-17	1.252499E-18
4.331972E+03	6.234369E-17	1.254890E-18
4.341908E+03	6.287694E-17	1.256336E-18
4.351844E+03	6.339165E-17	1.257235E-18
4.361779E+03	6.386530E-17	1.257151E-18
4.371715E+03	6.431852E-17	1.256505E-18
4.381651E+03	6.472986E-17	1.254892E-18
4.391586E+03	6.512123E-17	1.252750E-18
4.401522E+03	6.547183E-17	1.249692E-18
4.411458E+03	6.580477E-17	1.246175E-18
4.421394E+03	6.609934E-17	1.241816E-18
4.431329E+03	6.637909E-17	1.237072E-18
4.441265E+03	6.662344E-17	1.231569E-18
4.451201E+03	6.685611E-17	1.225758E-18
4.461136E+03	6.705638E-17	1.219267E-18
4.471072E+03	6.724801E-17	1.212539E-18
4.481008E+03	6.741012E-17	1.205205E-18
4.490944E+03	6.756647E-17	1.197699E-18
4.500879E+03	6.769607E-17	1.189656E-18
4.510815E+03	6.782269E-17	1.181501E-18
4.520751E+03	6.792504E-17	1.172869E-18
4.530686E+03	6.802707E-17	1.164179E-18
4.540622E+03	6.810720E-17	1.155068E-18
4.550558E+03	6.817796E-17	1.145756E-18
4.560494E+03	6.825184E-17	1.136454E-18
4.570429E+03	6.830723E-17	1.126807E-18
4.580365E+03	6.836787E-17	1.117209E-18
4.590301E+03	6.841199E-17	1.107307E-18
4.600236E+03	6.845204E-17	1.097308E-18
4.610172E+03	6.850021E-17	1.087408E-18
4.620108E+03	6.853474E-17	1.077262E-18
4.630044E+03	6.857917E-17	1.067242E-18
4.639979E+03	6.861170E-17	1.057009E-18
4.649915E+03	6.864436E-17	1.046752E-18
4.659851E+03	6.868952E-17	1.036659E-18
4.669786E+03	6.872501E-17	1.026392E-18
4.679722E+03	6.876295E-17	1.016136E-18
4.689658E+03	6.881552E-17	1.006068E-18
4.699594E+03	6.886047E-17	9.958604E-19
4.709529E+03	6.890998E-17	9.856919E-19
4.719465E+03	6.897606E-17	9.757306E-19
4.729401E+03	6.903643E-17	9.656577E-19
4.739336E+03	6.910315E-17	9.556437E-19
4.749272E+03	6.917674E-17	9.456931E-19
4.759208E+03	6.926926E-17	9.359668E-19
4.769144E+03	6.935821E-17	9.261562E-19
4.779079E+03	6.945567E-17	9.164232E-19
4.789015E+03	6.956201E-17	9.067697E-19
4.798951E+03	6.968938E-17	8.973488E-19
4.808887E+03	6.981504E-17	8.878628E-19
4.818822E+03	6.995101E-17	8.784643E-19
4.828758E+03	7.009774E-17	8.691554E-19
4.838694E+03	7.025563E-17	8.599371E-19
4.848629E+03	7.042506E-17	8.508103E-19
4.858565E+03	7.061809E-17	8.419145E-19
4.868501E+03	7.081170E-17	8.329696E-19
4.878437E+03	7.101802E-17	8.241175E-19
4.888372E+03	7.123737E-17	8.153577E-19
4.898308E+03	7.147003E-17	8.066893E-19
4.908244E+03	7.171643E-17	7.981125E-19
4.918179E+03	7.197678E-17	7.896254E-19
4.928115E+03	7.226337E-17	7.813566E-19
4.938051E+03	7.255264E-17	7.730451E-19
4.947987E+03	7.285680E-17	7.648204E-19
4.957922E+03	7.317615E-17	7.566816E-19
4.967858E+03	7.351093E-17	7.486267E-19
4.977794E+03	7.386138E-17	7.406542E-19
4.987729E+03	7.422786E-17	7.327638E-19
4.997665E+03	7.461043E-17	7.249521E-19
5.007601E+03	7.500948E-17	7.172193E-19
5.017537E+03	7.542517E-17	7.095636E-19
5.027472E+03	7.585777E-17	7.019841E-19
5.037408E+03	7.630741E-17	6.944789E-19
5.047344E+03	7.677428E-17	6.870472E-19
5.057279E+03	7.725857E-17	6.796883E-19
5.067215E+03	7.776050E-17	6.724019E-19
5.077151E+03	7.828019E-17	6.651875E-19
5.087087E+03	7.881780E-17	6.580451E-19
5.097022E+03	7.937347E-17	6.509752E-19
5.106958E+03	7.994727E-17	6.439780E-19
5.116894E+03	8.053930E-17	6.370546E-19
5.126829E+03	8.114964E-17	6.302066E-19
5.136765E+03	8.177846E-17	6.234367E-19
5.146701E+03	8.242564E-17	6.167465E-19
5.156637E+03	8.307761E-17	6.100394E-19
5.166572E+03	8.376158E-17	6.035210E-19
5.176508E+03	8.446394E-17	5.970942E-19
5.186444E+03	8.518467E-17	5.907646E-19
5.196379E+03	8.592360E-17	5.845379E-19
5.206315E+03	8.668070E-17	5.784218E-19
5.216251E+03	8.745567E-17	5.724233E-19
5.226187E+03	8.823387E-17	5.664586E-19
5.236122E+03	8.904394E-17	5.607250E-19
5.246058E+03	8.987113E-17	5.551389E-19
5.255994E+03	9.071508E-17	5.497122E-19
5.265929E+03	9.157527E-17	5.444576E-19
5.275865E+03	9.243607E-17	5.393009E-19
5.285801E+03	9.332713E-17	5.344354E-19
5.295737E+03	9.423254E-17	5.297867E-19
5.305672E+03	9.515160E-17	5.253724E-19
5.315608E+03	9.606759E-17	5.211246E-19
5.325544E+03	9.701068E-17	5.172329E-19
5.335479E+03	9.796406E-17	5.136299E-19
5.345415E+03	9.890994E-17	5.102507E-19
5.355351E+03	9.987906E-17	5.072824E-19
5.365287E+03	1.008533E-16	5.046588E-19
5.375222E+03	1.018137E-16	5.023150E-19
5.385158E+03	1.027911E-16	5.004331E-19
5.395094E+03	1.037659E-16	4.989446E-19
5.405029E+03	1.047181E-16	4.977815E-19
5.414965E+03	1.056781E-16	4.971168E-19
5.424901E+03	1.066256E-16	4.968597E-19
5.434837E+03	1.075391E-16	4.969043E-19
5.444772E+03	1.084508E-16	4.973893E-19
5.454708E+03	1.093407E-16	4.982079E-19
5.464644E+03	1.101894E-16	4.992561E-19
5.474579E+03	1.110326E-16	5.006777E-19
5.484515E+03	1.118348E-16	5.022912E-19
5.494451E+03	1.126344E-16	5.042455E-19
5.504387E+03	1.133967E-16	5.063597E-19
5.514322E+03	1.141611E-16	5.087843E-19
5.524258E+03	1.148927E-16	5.113358E-19
5.534194E+03	1.156316E-16	5.141643E-19
5.544129E+03	1.163612E-16	5.171675E-19
5.554065E+03	1.170644E-16	5.202404E-19
5.564001E+03	1.177813E-16	5.235331E-19
5.573937E+03	1.184750E-16	5.268530E-19
5.583872E+03	1.191661E-16	5.302643E-19
5.593808E+03	1.198757E-16	5.338338E-19
5.603744E+03	1.205657E-16	5.373657E-19
5.613679E+03	1.212765E-16	5.410148E-19
5.623615E+03	1.219695E-16	5.445843E-19
5.633551E+03	1.226851E-16	5.482319E-19
5.643487E+03	1.233841E-16	5.517594E-19
5.653422E+03	1.241074E-16	5.553287E-19
5.663358E+03	1.248149E-16	5.587405E-19
5.673294E+03	1.255272E-16	5.620680E-19
5.683230E+03	1.262654E-16	5.653877E-19
5.693165E+03	1.269886E-16	5.684997E-19
5.703101E+03	1.277382E-16	5.715745E-19
5.713037E+03	1.284727E-16	5.744117E-19
5.722972E+03	1.292130E-16	5.770918E-19
5.732908E+03	1.299804E-16	5.796976E-19
5.742844E+03	1.307323E-16	5.820288E-19
5.752780E+03	1.314894E-16	5.841690E-19
5.762715E+03	1.322735E-16	5.862059E-19
5.772651E+03	1.330408E-16	5.879392E-19
5.782587E+03	1.338125E-16	5.894576E-19
5.792522E+03	1.345879E-16	5.907550E-19
5.802458E+03	1.353888E-16	5.919243E-19
5.812394E+03	1.361701E-16	5.927681E-19
5.822330E+03	1.369532E-16	5.933810E-19
5.832265E+03	1.377598E-16	5.938605E-19
5.842201E+03	1.385438E-16	5.940128E-19
5.852137E+03	1.393266E-16	5.939385E-19
5.862072E+03	1.401070E-16	5.936427E-19
5.872008E+03	1.408837E-16	5.931320E-19
5.881944E+03	1.416784E-16	5.925129E-19
5.891880E+03	1.424435E-16	5.916035E-19
5.901815E+03	1.432003E-16	5.905149E-19
5.911751E+03	1.439470E-16	5.892642E-19
5.921687E+03	1.446818E-16	5.878717E-19
5.931622E+03	1.454262E-16	5.864566E-19
5.941558E+03	1.461308E-16	5.848535E-19
5.951494E+03	1.468168E-16	5.831884E-19
5.961430E+03	1.474817E-16	5.814947E-19
5.971365E+03	1.481228E-16	5.798096E-19
5.981301E+03	1.487373E-16	5.781735E-19
5.991237E+03	1.493465E-16	5.767246E-19
6.001172E+03	1.498983E-16	5.753213E-19
6.011108E+03	1.504137E-16	5.741077E-19
6.021044E+03	1.508887E-16	5.731362E-19
6.030980E+03	1.513194E-16	5.724603E-19
6.040915E+03	1.517015E-16	5.721354E-19
6.050851E+03	1.520302E-16	5.722158E-19
6.060787E+03	1.523004E-16	5.727547E-19
6.070722E+03	1.525070E-16	5.738036E-19
6.080658E+03	1.526440E-16	5.754088E-19
6.090594E+03	1.527055E-16	5.776129E-19
6.100530E+03	1.526851E-16	5.804502E-19
6.110465E+03	1.525766E-16	5.839489E-19
6.120401E+03	1.523741E-16	5.881291E-19
6.130337E+03	1.520725E-16	5.930039E-19
6.140272E+03	1.516680E-16	5.985650E-19
6.150208E+03	1.511589E-16	6.047642E-19
6.160144E+03	1.505459E-16	6.115488E-19
6.170080E+03	1.498319E-16	6.188664E-19
6.180015E+03	1.490223E-16	6.266675E-19
6.189951E+03	1.481235E-16	6.349040E-19
6.199887E+03	1.471429E-16	6.435287E-19
6.209822E+03	1.460883E-16	6.524946E-19
6.219758E+03	1.449670E-16	6.617554E-19
6.229694E+03	1.437862E-16	6.712645E-19
6.239630E+03	1.425527E-16	6.809767E-19
6.249565E+03	1.412727E-16	6.908476E-19
6.259501E+03	1.399521E-16	7.008344E-19
6.269437E+03	1.385962E-16	7.108968E-19
6.279372E+03	1.372098E-16	7.209965E-19
6.289308E+03	1.357976E-16	7.310979E-19
6.299244E+03	1.343637E-16	7.411675E-19
6.309180E+03	1.328900E-16	7.510526E-19
6.319115E+03	1.314241E-16	7.609701E-19
6.329051E+03	1.299470E-16	7.707738E-19
6.338987E+03	1.284618E-16	7.804415E-19
6.348922E+03	1.269715E-16	7.899554E-19
6.358858E+03	1.254784E-16	7.992980E-19
6.368794E+03	1.239852E-16	8.084554E-19
6.378730E+03	1.224738E-16	8.172816E-19
6.388665E+03	1.209868E-16	8.260334E-19
6.398601E+03	1.195057E-16	8.345706E-19
6.408537E+03	1.180322E-16	8.428865E-19
6.418472E+03	1.165680E-16	8.509781E-19
6.428408E+03	1.150958E-16	8.587012E-19
6.438344E+03	1.136547E-16	8.663342E-19
6.448280E+03	1.122270E-16	8.737389E-19
6.458215E+03	1.108138E-16	8.809145E-19
6.468151E+03	1.094160E-16	8.878646E-19
6.478087E+03	1.080170E-16	8.944452E-19
6.488022E+03	1.066533E-16	9.009526E-19
6.497958E+03	1.053074E-16	9.072440E-19
6.507894E+03	1.039803E-16	9.133267E-19
6.517830E+03	1.026557E-16	9.190546E-19
6.527765E+03	1.013677E-16	9.247336E-19
6.537701E+03	1.001000E-16	9.302213E-19
6.547637E+03	9.885280E-17	9.355239E-19
6.557573E+03	9.761053E-17	9.404947E-19
6.567508E+03	9.640558E-17	9.454477E-19
6.577444E+03	9.522196E-17	9.502372E-19
6.587380E+03	9.404442E-17	9.547140E-19
6.597315E+03	9.290406E-17	9.591976E-19
6.607251E+03	9.178533E-17	9.635396E-19
6.617187E+03	9.067342E-17	9.675890E-19
6.627123E+03	8.959816E-17	9.716691E-19
6.637058E+03	8.854448E-17	9.756295E-19
6.646994E+03	8.749795E-17	9.793167E-19
6.656930E+03	8.648729E-17	9.830577E-19
6.666865E+03	8.549782E-17	9.866994E-19
6.676801E+03	8.451554E-17	9.900861E-19
6.686737E+03	8.356809E-17	9.935481E-19
6.696673E+03	8.264124E-17	9.969295E-19
6.706608E+03	8.172135E-17	1.000073E-18
6.716544E+03	8.083509E-17	1.003310E-18
6.726480E+03	7.996864E-17	1.006484E-18
6.736415E+03	7.910873E-17	1.009433E-18
6.746351E+03	7.828111E-17	1.012494E-18
6.756287E+03	7.745967E-17	1.015339E-18
6.766223E+03	7.666958E-17	1.018305E-18
6.776158E+03	7.588524E-17	1.021063E-18
6.786094E+03	7.513127E-17	1.023950E-18
6.796030E+03	7.439477E-17	1.026803E-18
6.805965E+03	7.366329E-17	1.029456E-18
6.815901E+03	7.296070E-17	1.032250E-18
6.825837E+03	7.226258E-17	1.034849E-18
6.835773E+03	7.159236E-17	1.037594E-18
6.845708E+03	7.092606E-17	1.040147E-18
6.855644E+03	7.028663E-17	1.042851E-18
6.865580E+03	6.965054E-17	1.045366E-18
6.875515E+03	6.904034E-17	1.048036E-18
6.885451E+03	6.843286E-17	1.050518E-18
6.895387E+03	6.785026E-17	1.053157E-18
6.905323E+03	6.728083E-17	1.055782E-18
6.915258E+03	6.671323E-17	1.058220E-18
6.925194E+03	6.615817E-17	1.060643E-18
6.935130E+03	6.562606E-17	1.063226E-18
6.945065E+03	6.509485E-17	1.065620E-18
6.955001E+03	6.458563E-17	1.068175E-18
6.964937E+03	6.407671E-17	1.070538E-18
6.974873E+03	6.358886E-17	1.073060E-18
6.984808E+03	6.310073E-17	1.075390E-18
6.994744E+03	6.263276E-17	1.077877E-18
7.004680E+03	6.216394E-17	1.080167E-18
7.014615E+03	6.171441E-17	1.082614E-18
7.024551E+03	6.126347E-17	1.084860E-18
7.034487E+03	6.083099E-17	1.087260E-18
7.044423E+03	6.039656E-17	1.089455E-18
7.054358E+03	5.996993E-17	1.091622E-18
7.064294E+03	5.956055E-17	1.093939E-18
7.074230E+03	5.914848E-17	1.096044E-18
7.084165E+03	5.875292E-17	1.098296E-18
7.094101E+03	5.835420E-17	1.100332E-18
7.104037E+03	5.796174E-17	1.102329E-18
7.113973E+03	5.758475E-17	1.104468E-18
7.123908E+03	5.720394E-17	1.106384E-18
7.133844E+03	5.683794E-17	1.108438E-18
7.143780E+03	5.646774E-17	1.110263E-18
7.153715E+03	5.610251E-17	1.112040E-18
7.163651E+03	5.575118E-17	1.113951E-18
7.173587E+03	5.539513E-17	1.115626E-18
7.183523E+03	5.504339E-17	1.117247E-18
7.193458E+03	5.470474E-17	1.118997E-18
7.203394E+03	5.436094E-17	1.120505E-18
7.213330E+03	5.402087E-17	1.121954E-18
7.223265E+03	5.369316E-17	1.123528E-18
7.233201E+03	5.335996E-17	1.124854E-18
7.243137E+03	5.302999E-17	1.126118E-18
7.253073E+03	5.271177E-17	1.127502E-18
7.263008E+03	5.238778E-17	1.128635E-18
7.272944E+03	5.206660E-17	1.129701E-18
7.282880E+03	5.174814E-17	1.130700E-18
7.292815E+03	5.144074E-17	1.131816E-18
7.302751E+03	5.112732E-17	1.132677E-18
7.312687E+03	5.081632E-17	1.133469E-18
7.322623E+03	5.051596E-17	1.134378E-18
7.332558E+03	5.020949E-17	1.135030E-18
7.342494E+03	4.990520E-17	1.135612E-18
7.352430E+03	4.960305E-17	1.136124E-18
7.362365E+03	4.931110E-17	1.136753E-18
7.372301E+03	4.901301E-17	1.137126E-18
7.382237E+03	4.871693E-17	1.137429E-18
7.392173E+03	4.842281E-17	1.137664E-18
7.402108E+03	4.813065E-17	1.137832E-18
7.412044E+03	4.784829E-17	1.138120E-18
7.421980E+03	4.755992E-17	1.138154E-18
7.431916E+03	4.727346E-17	1.138124E-18
7.441851E+03	4.698890E-17	1.138030E-18
7.451787E+03	4.671397E-17	1.138061E-18
7.461723E+03	4.643320E-17	1.137844E-18
7.471658E+03	4.615435E-17	1.137568E-18
7.481594E+03	4.587745E-17	1.137233E-18
7.491530E+03	4.560252E-17	1.136844E-18
7.501466E+03	4.532956E-17	1.136399E-18
7.511401E+03	4.506607E-17	1.136091E-18
7.521337E+03	4.479713E-17	1.135544E-18
7.531273E+03	4.453025E-17	1.134950E-18
7.541208E+03	4.426547E-17	1.134309E-18
7.551144E+03	4.400282E-17	1.133624E-18
7.561080E+03	4.374236E-17	1.132898E-18
7.571016E+03	4.348409E-17	1.132133E-18
7.580951E+03	4.323522E-17	1.131518E-18
7.590887E+03	4.298144E-17	1.130681E-18
7.600823E+03	4.272999E-17	1.129812E-18
7.610758E+03	4.248090E-17	1.128913E-18
7.620694E+03	4.223422E-17	1.127987E-18
7.630630E+03	4.198999E-17	1.127036E-18
7.640566E+03	4.174826E-17	1.126064E-18
7.650501E+03	4.150906E-17	1.125072E-18
7.660437E+03	4.127243E-17	1.124062E-18
7.670373E+03	4.103841E-17	1.123038E-18
7.680308E+03	4.081381E-17	1.122189E-18
7.690244E+03	4.058511E-17	1.121143E-18
7.700180E+03	4.035915E-17	1.120092E-18
7.710116E+03	4.013595E-17	1.119035E-18
