#wls	flux	fluxerr
1.600000E+03	1.751087E-13	3.853298E-15
1.640000E+03	1.845256E-13	3.987276E-15
1.680000E+03	1.938340E-13	4.111971E-15
1.720000E+03	2.029304E-13	4.225591E-15
1.760000E+03	2.117173E-13	4.326674E-15
1.800000E+03	2.201111E-13	4.414217E-15
1.840000E+03	2.280570E-13	4.487953E-15
1.880000E+03	2.355430E-13	4.548555E-15
1.920000E+03	2.426150E-13	4.597829E-15
1.960000E+03	2.493796E-13	4.638679E-15
2.000000E+03	2.559701E-13	4.674366E-15
2.040000E+03	2.623285E-13	4.704570E-15
2.080000E+03	2.671092E-13	4.706366E-15
2.120000E+03	2.673933E-13	4.630960E-15
2.160000E+03	2.653164E-13	4.518702E-15
2.200000E+03	2.615316E-13	4.382413E-15
2.240000E+03	2.555046E-13	4.214465E-15
2.280000E+03	2.465798E-13	4.005678E-15
2.320000E+03	2.351857E-13	3.764700E-15
2.360000E+03	2.222973E-13	3.508225E-15
2.400000E+03	2.087527E-13	3.249821E-15
2.440000E+03	1.952984E-13	3.000876E-15
2.480000E+03	1.825760E-13	2.770587E-15
2.520000E+03	1.711628E-13	2.566736E-15
2.560000E+03	1.616645E-13	2.397155E-15
2.600000E+03	1.548337E-13	2.271377E-15
2.640000E+03	1.507404E-13	2.188701E-15
2.680000E+03	1.492414E-13	2.145486E-15
2.720000E+03	1.496079E-13	2.129971E-15
2.760000E+03	1.510450E-13	2.129946E-15
2.800000E+03	1.530855E-13	2.138245E-15
2.840000E+03	1.554116E-13	2.150042E-15
2.880000E+03	1.577644E-13	2.161495E-15
2.920000E+03	1.599052E-13	2.169187E-15
2.960000E+03	1.616039E-13	2.169959E-15
3.000000E+03	1.626366E-13	2.160889E-15
3.010000E+03	1.627655E-13	2.156769E-15
3.020000E+03	1.628364E-13	2.151833E-15
3.030000E+03	1.628461E-13	2.146044E-15
3.040000E+03	1.627917E-13	2.139371E-15
3.050000E+03	1.626705E-13	2.131781E-15
3.060000E+03	1.624794E-13	2.123245E-15
3.070000E+03	1.622157E-13	2.113732E-15
3.080000E+03	1.618776E-13	2.103227E-15
3.090000E+03	1.614622E-13	2.091699E-15
3.100000E+03	1.609681E-13	2.079141E-15
3.110000E+03	1.603926E-13	2.065525E-15
3.120000E+03	1.597344E-13	2.050847E-15
3.130000E+03	1.589923E-13	2.035099E-15
3.140000E+03	1.581643E-13	2.018268E-15
3.150000E+03	1.572501E-13	2.000359E-15
3.160000E+03	1.562487E-13	1.981372E-15
3.170000E+03	1.551597E-13	1.961312E-15
3.180000E+03	1.539830E-13	1.940190E-15
3.190000E+03	1.527184E-13	1.918017E-15
3.200000E+03	1.513665E-13	1.894812E-15
3.210000E+03	1.499278E-13	1.870592E-15
3.220000E+03	1.484034E-13	1.845386E-15
3.230000E+03	1.467951E-13	1.819227E-15
3.240000E+03	1.451039E-13	1.792140E-15
3.250000E+03	1.433316E-13	1.764161E-15
3.260000E+03	1.414806E-13	1.735331E-15
3.270000E+03	1.395538E-13	1.705697E-15
3.280000E+03	1.375534E-13	1.675301E-15
3.290000E+03	1.354827E-13	1.644192E-15
3.300000E+03	1.333454E-13	1.612428E-15
3.310000E+03	1.311445E-13	1.580055E-15
3.320000E+03	1.288847E-13	1.547141E-15
3.330000E+03	1.265698E-13	1.513744E-15
3.340000E+03	1.242048E-13	1.479930E-15
3.350000E+03	1.217948E-13	1.445770E-15
3.360000E+03	1.193460E-13	1.411346E-15
3.370000E+03	1.168643E-13	1.376736E-15
3.380000E+03	1.143572E-13	1.342034E-15
3.390000E+03	1.118325E-13	1.307337E-15
3.400000E+03	1.093001E-13	1.272764E-15
3.410000E+03	1.067703E-13	1.238436E-15
3.420000E+03	1.042560E-13	1.204501E-15
3.430000E+03	1.017717E-13	1.171124E-15
3.440000E+03	9.933317E-14	1.138483E-15
3.450000E+03	9.695638E-14	1.106754E-15
3.460000E+03	9.465315E-14	1.076062E-15
3.470000E+03	9.242539E-14	1.046420E-15
3.480000E+03	9.027596E-14	1.017850E-15
3.490000E+03	8.821461E-14	9.904522E-16
3.500000E+03	8.625179E-14	9.643305E-16
3.510000E+03	8.438914E-14	9.394905E-16
3.520000E+03	8.262363E-14	9.158848E-16
3.530000E+03	8.095181E-14	8.934625E-16
3.540000E+03	7.936985E-14	8.721682E-16
3.550000E+03	7.787256E-14	8.519320E-16
3.560000E+03	7.645141E-14	8.326486E-16
3.570000E+03	7.509112E-14	8.141410E-16
3.580000E+03	7.376400E-14	7.961016E-16
3.590000E+03	7.241293E-14	7.779116E-16
3.600000E+03	7.101009E-14	7.592776E-16
3.610000E+03	6.962887E-14	7.409887E-16
3.620000E+03	6.831287E-14	7.235039E-16
3.630000E+03	6.708218E-14	7.070258E-16
3.640000E+03	6.594603E-14	6.916384E-16
3.650000E+03	6.490712E-14	6.773559E-16
3.660000E+03	6.396383E-14	6.641467E-16
3.670000E+03	6.311266E-14	6.519601E-16
3.680000E+03	6.234883E-14	6.407329E-16
3.690000E+03	6.166655E-14	6.303922E-16
3.700000E+03	6.106033E-14	6.208696E-16
3.710000E+03	6.052447E-14	6.120952E-16
3.720000E+03	6.005299E-14	6.039976E-16
3.730000E+03	5.964041E-14	5.965116E-16
3.740000E+03	5.928139E-14	5.895748E-16
3.750000E+03	5.897080E-14	5.831271E-16
3.760000E+03	5.870359E-14	5.771113E-16
3.770000E+03	5.847466E-14	5.714702E-16
3.780000E+03	5.827915E-14	5.661502E-16
3.790000E+03	5.811225E-14	5.610992E-16
3.800000E+03	5.796912E-14	5.562660E-16
3.810000E+03	5.784492E-14	5.516005E-16
3.820000E+03	5.773466E-14	5.470525E-16
3.830000E+03	5.763332E-14	5.425723E-16
3.840000E+03	5.753549E-14	5.381083E-16
3.850000E+03	5.743620E-14	5.336142E-16
3.860000E+03	5.732952E-14	5.290360E-16
3.870000E+03	5.720989E-14	5.243249E-16
3.880000E+03	5.707164E-14	5.194325E-16
3.890000E+03	5.690845E-14	5.143058E-16
3.900000E+03	5.671407E-14	5.088948E-16
3.910000E+03	5.648240E-14	5.031521E-16
3.920000E+03	5.620698E-14	4.970289E-16
3.930000E+03	5.588289E-14	4.904922E-16
3.940000E+03	5.551226E-14	4.835712E-16
3.950000E+03	5.511149E-14	4.764186E-16
3.960000E+03	5.470349E-14	4.692386E-16
3.970000E+03	5.430951E-14	4.622151E-16
3.980000E+03	5.394746E-14	4.554982E-16
3.990000E+03	5.363249E-14	4.492103E-16
4.000000E+03	5.337757E-14	4.434511E-16
4.010000E+03	5.319141E-14	4.382821E-16
4.020000E+03	5.307944E-14	4.337354E-16
4.030000E+03	5.304321E-14	4.298102E-16
4.040000E+03	5.307452E-14	4.264272E-16
4.050000E+03	5.316156E-14	4.234802E-16
4.060000E+03	5.329392E-14	4.208779E-16
4.070000E+03	5.346605E-14	4.185695E-16
4.080000E+03	5.367360E-14	4.165157E-16
4.090000E+03	5.390285E-14	4.146062E-16
4.100000E+03	5.412015E-14	4.125826E-16
4.110000E+03	5.428377E-14	4.101351E-16
4.120000E+03	5.435681E-14	4.070013E-16
4.130000E+03	5.431776E-14	4.030432E-16
4.140000E+03	5.415502E-14	3.982012E-16
4.150000E+03	5.387286E-14	3.925344E-16
4.160000E+03	5.350361E-14	3.863032E-16
4.170000E+03	5.309123E-14	3.798421E-16
4.180000E+03	5.267240E-14	3.734228E-16
4.190000E+03	5.226704E-14	3.671891E-16
4.200000E+03	5.188537E-14	3.612125E-16
4.210000E+03	5.153238E-14	3.555259E-16
4.220000E+03	5.120533E-14	3.501082E-16
4.230000E+03	5.089890E-14	3.449215E-16
4.240000E+03	5.060909E-14	3.399384E-16
4.250000E+03	5.033675E-14	3.351647E-16
4.260000E+03	5.008510E-14	3.306220E-16
4.270000E+03	4.986334E-14	3.263701E-16
4.280000E+03	4.969106E-14	3.225346E-16
4.290000E+03	4.959172E-14	3.192620E-16
4.300000E+03	4.958149E-14	3.166479E-16
4.310000E+03	4.966200E-14	3.146931E-16
4.320000E+03	4.981901E-14	3.132995E-16
4.330000E+03	4.998828E-14	3.120602E-16
4.340000E+03	5.000585E-14	3.099626E-16
4.350000E+03	4.967215E-14	3.058004E-16
4.360000E+03	4.887697E-14	2.989415E-16
4.370000E+03	4.771594E-14	2.900173E-16
4.380000E+03	4.649877E-14	2.809332E-16
4.390000E+03	4.604731E-14	2.766246E-16
4.400000E+03	4.667227E-14	2.788655E-16
4.410000E+03	4.761821E-14	2.830632E-16
4.420000E+03	4.829449E-14	2.856985E-16
4.430000E+03	4.859933E-14	2.861981E-16
4.440000E+03	4.867417E-14	2.854218E-16
4.450000E+03	4.866369E-14	2.842315E-16
4.460000E+03	4.864142E-14	2.830598E-16
4.470000E+03	4.863985E-14	2.820949E-16
4.480000E+03	4.867498E-14	2.814269E-16
4.490000E+03	4.873848E-14	2.810052E-16
4.500000E+03	4.881265E-14	2.807259E-16
4.510000E+03	4.887845E-14	2.804789E-16
4.520000E+03	4.892177E-14	2.801831E-16
4.530000E+03	4.893048E-14	2.797692E-16
4.540000E+03	4.889657E-14	2.791918E-16
4.550000E+03	4.882025E-14	2.784520E-16
4.560000E+03	4.870572E-14	2.775736E-16
4.570000E+03	4.856281E-14	2.766117E-16
4.580000E+03	4.840841E-14	2.756616E-16
4.590000E+03	4.826231E-14	2.748344E-16
4.600000E+03	4.813360E-14	2.741808E-16
4.610000E+03	4.801146E-14	2.736380E-16
4.620000E+03	4.787515E-14	2.730867E-16
4.630000E+03	4.771625E-14	2.724773E-16
4.640000E+03	4.755063E-14	2.718988E-16
4.650000E+03	4.739891E-14	2.714670E-16
4.660000E+03	4.723550E-14	2.710302E-16
4.670000E+03	4.694219E-14	2.699027E-16
4.680000E+03	4.636614E-14	2.671933E-16
4.690000E+03	4.541708E-14	2.623626E-16
4.700000E+03	4.414194E-14	2.556594E-16
4.710000E+03	4.272160E-14	2.481113E-16
4.720000E+03	4.165617E-14	2.426167E-16
4.730000E+03	4.133399E-14	2.414553E-16
4.740000E+03	4.127548E-14	2.418513E-16
4.750000E+03	4.108715E-14	2.415019E-16
4.760000E+03	4.073594E-14	2.402012E-16
4.770000E+03	4.034269E-14	2.386511E-16
4.780000E+03	4.001155E-14	2.374636E-16
4.790000E+03	3.976883E-14	2.367958E-16
4.800000E+03	3.960426E-14	2.365881E-16
4.810000E+03	3.950310E-14	2.367540E-16
4.820000E+03	3.945342E-14	2.372227E-16
4.830000E+03	3.944366E-14	2.379249E-16
4.840000E+03	3.945652E-14	2.387559E-16
4.850000E+03	3.946022E-14	2.395215E-16
4.860000E+03	3.941837E-14	2.399976E-16
4.870000E+03	3.930043E-14	2.399930E-16
4.880000E+03	3.909283E-14	2.394188E-16
4.890000E+03	3.879054E-14	2.382378E-16
4.900000E+03	3.840344E-14	2.365046E-16
4.910000E+03	3.796455E-14	2.344179E-16
4.920000E+03	3.751502E-14	2.322295E-16
4.930000E+03	3.708711E-14	2.301383E-16
4.940000E+03	3.668992E-14	2.282019E-16
4.950000E+03	3.632353E-14	2.264217E-16
4.960000E+03	3.598331E-14	2.247700E-16
4.970000E+03	3.566104E-14	2.231963E-16
4.980000E+03	3.534718E-14	2.216415E-16
4.990000E+03	3.503439E-14	2.200600E-16
5.000000E+03	3.472067E-14	2.184396E-16
5.010000E+03	3.440680E-14	2.167855E-16
5.020000E+03	3.409562E-14	2.151162E-16
5.030000E+03	3.379266E-14	2.134672E-16
5.040000E+03	3.350543E-14	2.118870E-16
5.050000E+03	3.323868E-14	2.104065E-16
5.060000E+03	3.299137E-14	2.090207E-16
5.070000E+03	3.276116E-14	2.077155E-16
5.080000E+03	3.254600E-14	2.064793E-16
5.090000E+03	3.234680E-14	2.053188E-16
5.100000E+03	3.216387E-14	2.042371E-16
5.110000E+03	3.199500E-14	2.032214E-16
5.120000E+03	3.182767E-14	2.021931E-16
5.130000E+03	3.164735E-14	2.010611E-16
5.140000E+03	3.144499E-14	1.997690E-16
5.150000E+03	3.122458E-14	1.983434E-16
5.160000E+03	3.099601E-14	1.968487E-16
5.170000E+03	3.076811E-14	1.953424E-16
5.180000E+03	3.054695E-14	1.938643E-16
5.190000E+03	3.033552E-14	1.924351E-16
5.200000E+03	3.013344E-14	1.910536E-16
5.210000E+03	2.993159E-14	1.896637E-16
5.220000E+03	2.971888E-14	1.881965E-16
5.230000E+03	2.948603E-14	1.865953E-16
5.240000E+03	2.923110E-14	1.848496E-16
5.250000E+03	2.895486E-14	1.829664E-16
5.260000E+03	2.866122E-14	1.809722E-16
5.270000E+03	2.835544E-14	1.789022E-16
5.280000E+03	2.804524E-14	1.768071E-16
5.290000E+03	2.773801E-14	1.747350E-16
5.300000E+03	2.743903E-14	1.727207E-16
5.310000E+03	2.715421E-14	1.708031E-16
5.320000E+03	2.688609E-14	1.689993E-16
5.330000E+03	2.663317E-14	1.673013E-16
5.340000E+03	2.639126E-14	1.656841E-16
5.350000E+03	2.615635E-14	1.641240E-16
5.360000E+03	2.592247E-14	1.625847E-16
5.370000E+03	2.568347E-14	1.610293E-16
5.380000E+03	2.543557E-14	1.594352E-16
5.390000E+03	2.517677E-14	1.577913E-16
5.400000E+03	2.490745E-14	1.561010E-16
5.410000E+03	2.463546E-14	1.544145E-16
5.420000E+03	2.437982E-14	1.528516E-16
5.430000E+03	2.416448E-14	1.515622E-16
5.440000E+03	2.399146E-14	1.505576E-16
5.450000E+03	2.380932E-14	1.495137E-16
5.460000E+03	2.355470E-14	1.480303E-16
5.470000E+03	2.321327E-14	1.460148E-16
5.480000E+03	2.287676E-14	1.440411E-16
5.490000E+03	2.274012E-14	1.433367E-16
5.500000E+03	2.293027E-14	1.447051E-16
5.510000E+03	2.324098E-14	1.468495E-16
5.520000E+03	2.350201E-14	1.486952E-16
5.530000E+03	2.363181E-14	1.497233E-16
5.540000E+03	2.363009E-14	1.499277E-16
5.550000E+03	2.353432E-14	1.495417E-16
5.560000E+03	2.337932E-14	1.487832E-16
5.570000E+03	2.318774E-14	1.477938E-16
5.580000E+03	2.297291E-14	1.466563E-16
5.590000E+03	2.274623E-14	1.454419E-16
5.600000E+03	2.251356E-14	1.441868E-16
5.610000E+03	2.227930E-14	1.429182E-16
5.620000E+03	2.204020E-14	1.416143E-16
5.630000E+03	2.178151E-14	1.401795E-16
5.640000E+03	2.148483E-14	1.384938E-16
5.650000E+03	2.114511E-14	1.365229E-16
5.660000E+03	2.078187E-14	1.343912E-16
5.670000E+03	2.042485E-14	1.322902E-16
5.680000E+03	2.010100E-14	1.303947E-16
5.690000E+03	1.982705E-14	1.288141E-16
5.700000E+03	1.961503E-14	1.276280E-16
5.710000E+03	1.946323E-14	1.268269E-16
5.720000E+03	1.934628E-14	1.262470E-16
5.730000E+03	1.922933E-14	1.256612E-16
5.740000E+03	1.909153E-14	1.249333E-16
5.750000E+03	1.894044E-14	1.241121E-16
5.760000E+03	1.879784E-14	1.233403E-16
5.770000E+03	1.868639E-14	1.227672E-16
5.780000E+03	1.862750E-14	1.225345E-16
5.790000E+03	1.864069E-14	1.227723E-16
5.800000E+03	1.873359E-14	1.235329E-16
5.810000E+03	1.889091E-14	1.247173E-16
5.820000E+03	1.908564E-14	1.261489E-16
5.830000E+03	1.929441E-14	1.276741E-16
5.840000E+03	1.950522E-14	1.292141E-16
5.850000E+03	1.971236E-14	1.307314E-16
5.860000E+03	1.991596E-14	1.322272E-16
5.870000E+03	2.012471E-14	1.337599E-16
5.880000E+03	2.035247E-14	1.354223E-16
5.890000E+03	2.060685E-14	1.372662E-16
5.900000E+03	2.088060E-14	1.392447E-16
5.910000E+03	2.115811E-14	1.412547E-16
5.920000E+03	2.141836E-14	1.431570E-16
5.930000E+03	2.163260E-14	1.447595E-16
5.940000E+03	2.176915E-14	1.458501E-16
5.950000E+03	2.180740E-14	1.462897E-16
5.960000E+03	2.175266E-14	1.461127E-16
5.970000E+03	2.162206E-14	1.454326E-16
5.980000E+03	2.143305E-14	1.443660E-16
5.990000E+03	2.119887E-14	1.430013E-16
6.000000E+03	2.093097E-14	1.414153E-16
6.010000E+03	2.063967E-14	1.396774E-16
6.020000E+03	2.033563E-14	1.378597E-16
6.030000E+03	2.003029E-14	1.360401E-16
6.040000E+03	1.973273E-14	1.342807E-16
6.050000E+03	1.945143E-14	1.326400E-16
6.060000E+03	1.919337E-14	1.311670E-16
6.070000E+03	1.896356E-14	1.298972E-16
6.080000E+03	1.876314E-14	1.288405E-16
6.090000E+03	1.859084E-14	1.279899E-16
6.100000E+03	1.844541E-14	1.273389E-16
6.110000E+03	1.832489E-14	1.268759E-16
6.120000E+03	1.822520E-14	1.265748E-16
6.130000E+03	1.813389E-14	1.263506E-16
6.140000E+03	1.802033E-14	1.259906E-16
6.150000E+03	1.784762E-14	1.252339E-16
6.160000E+03	1.759579E-14	1.239341E-16
6.170000E+03	1.728647E-14	1.222355E-16
6.180000E+03	1.698458E-14	1.205921E-16
6.190000E+03	1.685890E-14	1.202057E-16
6.200000E+03	1.699501E-14	1.217035E-16
6.210000E+03	1.720359E-14	1.237472E-16
6.220000E+03	1.735069E-14	1.253753E-16
6.230000E+03	1.739548E-14	1.262843E-16
6.240000E+03	1.733580E-14	1.264472E-16
6.250000E+03	1.718305E-14	1.259353E-16
6.260000E+03	1.696750E-14	1.249604E-16
6.270000E+03	1.672530E-14	1.237816E-16
6.280000E+03	1.648579E-14	1.226130E-16
6.290000E+03	1.626586E-14	1.215794E-16
6.300000E+03	1.607547E-14	1.207567E-16
6.310000E+03	1.591809E-14	1.201731E-16
6.320000E+03	1.578589E-14	1.197718E-16
6.330000E+03	1.566672E-14	1.194619E-16
6.340000E+03	1.555234E-14	1.191807E-16
6.350000E+03	1.544320E-14	1.189315E-16
6.360000E+03	1.534282E-14	1.187409E-16
6.370000E+03	1.525430E-14	1.186334E-16
6.380000E+03	1.517737E-14	1.186072E-16
6.390000E+03	1.511000E-14	1.186471E-16
6.400000E+03	1.504912E-14	1.187290E-16
6.410000E+03	1.499040E-14	1.188188E-16
6.420000E+03	1.492921E-14	1.188789E-16
6.430000E+03	1.486328E-14	1.188905E-16
6.440000E+03	1.479710E-14	1.188885E-16
6.450000E+03	1.473740E-14	1.189265E-16
6.460000E+03	1.469013E-14	1.190528E-16
6.470000E+03	1.465895E-14	1.192981E-16
6.480000E+03	1.464673E-14	1.196870E-16
6.490000E+03	1.465600E-14	1.202414E-16
6.500000E+03	1.468919E-14	1.209830E-16
6.510000E+03	1.474898E-14	1.219356E-16
6.520000E+03	1.483945E-14	1.231349E-16
6.530000E+03	1.496503E-14	1.246199E-16
6.540000E+03	1.513062E-14	1.264339E-16
6.550000E+03	1.533212E-14	1.285450E-16
6.560000E+03	1.554655E-14	1.307621E-16
6.570000E+03	1.574040E-14	1.328024E-16
6.580000E+03	1.588315E-14	1.344050E-16
6.590000E+03	1.595389E-14	1.353881E-16
6.600000E+03	1.593990E-14	1.356374E-16
6.610000E+03	1.584076E-14	1.351433E-16
6.620000E+03	1.567812E-14	1.340853E-16
6.630000E+03	1.548281E-14	1.327238E-16
6.640000E+03	1.528126E-14	1.312844E-16
6.650000E+03	1.508602E-14	1.298753E-16
6.660000E+03	1.490374E-14	1.285544E-16
6.670000E+03	1.473680E-14	1.273434E-16
6.680000E+03	1.458042E-14	1.262021E-16
6.690000E+03	1.442824E-14	1.250762E-16
6.700000E+03	1.427634E-14	1.239322E-16
6.710000E+03	1.412684E-14	1.227890E-16
6.720000E+03	1.398438E-14	1.216875E-16
6.730000E+03	1.385240E-14	1.206583E-16
6.740000E+03	1.373275E-14	1.197181E-16
6.750000E+03	1.362498E-14	1.188639E-16
6.760000E+03	1.352711E-14	1.180788E-16
6.770000E+03	1.343489E-14	1.173263E-16
6.780000E+03	1.334257E-14	1.165566E-16
6.790000E+03	1.324420E-14	1.157180E-16
6.800000E+03	1.313486E-14	1.147680E-16
6.810000E+03	1.301007E-14	1.136679E-16
6.820000E+03	1.286746E-14	1.123976E-16
6.830000E+03	1.270971E-14	1.109812E-16
6.840000E+03	1.254156E-14	1.094610E-16
6.850000E+03	1.236923E-14	1.078919E-16
6.860000E+03	1.220341E-14	1.063681E-16
6.870000E+03	1.205415E-14	1.049778E-16
6.880000E+03	1.193028E-14	1.037980E-16
6.890000E+03	1.183508E-14	1.028572E-16
6.900000E+03	1.176965E-14	1.021649E-16
6.910000E+03	1.173166E-14	1.017002E-16
6.920000E+03	1.171467E-14	1.014071E-16
6.930000E+03	1.170896E-14	1.012010E-16
6.940000E+03	1.170651E-14	1.010126E-16
6.950000E+03	1.170064E-14	1.007848E-16
6.960000E+03	1.168600E-14	1.004720E-16
6.970000E+03	1.166000E-14	1.000530E-16
6.980000E+03	1.162409E-14	9.954131E-17
6.990000E+03	1.158172E-14	9.896746E-17
7.000000E+03	1.153625E-14	9.836100E-17
7.010000E+03	1.149011E-14	9.774353E-17
7.020000E+03	1.144593E-14	9.713799E-17
7.030000E+03	1.140619E-14	9.656596E-17
7.040000E+03	1.137473E-14	9.606028E-17
7.050000E+03	1.135508E-14	9.565081E-17
7.060000E+03	1.134926E-14	9.535454E-17
7.070000E+03	1.135593E-14	9.516002E-17
7.080000E+03	1.137123E-14	9.503495E-17
7.090000E+03	1.138997E-14	9.493623E-17
7.100000E+03	1.140289E-14	9.478756E-17
7.110000E+03	1.140093E-14	9.451496E-17
7.120000E+03	1.137866E-14	9.407557E-17
7.130000E+03	1.134166E-14	9.351752E-17
7.140000E+03	1.129903E-14	9.291775E-17
7.150000E+03	1.125741E-14	9.233183E-17
7.160000E+03	1.121782E-14	9.176920E-17
7.170000E+03	1.117721E-14	9.120573E-17
7.180000E+03	1.113378E-14	9.062792E-17
7.190000E+03	1.108728E-14	9.003491E-17
7.200000E+03	1.103833E-14	8.943293E-17
7.210000E+03	1.098729E-14	8.882605E-17
7.220000E+03	1.093483E-14	8.822082E-17
7.230000E+03	1.088086E-14	8.761771E-17
7.240000E+03	1.082536E-14	8.701760E-17
7.250000E+03	1.076712E-14	8.641194E-17
7.260000E+03	1.070438E-14	8.578768E-17
7.270000E+03	1.063616E-14	8.513819E-17
7.280000E+03	1.056338E-14	8.447189E-17
7.290000E+03	1.048635E-14	8.379223E-17
7.300000E+03	1.040754E-14	8.311996E-17
7.310000E+03	1.033027E-14	8.248244E-17
7.320000E+03	1.025898E-14	8.191584E-17
7.330000E+03	1.019721E-14	8.144926E-17
7.340000E+03	1.014817E-14	8.110923E-17
7.350000E+03	1.011371E-14	8.091165E-17
7.360000E+03	1.009340E-14	8.085436E-17
7.370000E+03	1.008088E-14	8.088786E-17
7.380000E+03	1.006807E-14	8.094857E-17
7.390000E+03	1.004902E-14	8.098959E-17
7.400000E+03	1.002450E-14	8.101765E-17
7.410000E+03	9.997819E-15	8.106014E-17
7.420000E+03	9.971934E-15	8.114172E-17
7.430000E+03	9.947002E-15	8.126447E-17
7.440000E+03	9.922508E-15	8.142496E-17
7.450000E+03	9.893613E-15	8.158396E-17
7.460000E+03	9.850941E-15	8.166336E-17
7.470000E+03	9.780792E-15	8.154624E-17
7.480000E+03	9.675100E-15	8.115967E-17
7.490000E+03	9.538059E-15	8.053187E-17
7.500000E+03	9.394642E-15	7.986785E-17
7.510000E+03	9.329445E-15	7.988877E-17
7.520000E+03	9.382832E-15	8.095597E-17
7.530000E+03	9.471115E-15	8.236459E-17
7.540000E+03	9.543071E-15	8.367275E-17
7.550000E+03	9.581785E-15	8.472727E-17
7.560000E+03	9.583999E-15	8.549122E-17
7.570000E+03	9.549130E-15	8.595003E-17
7.580000E+03	9.483405E-15	8.615017E-17
7.590000E+03	9.394914E-15	8.615673E-17
7.600000E+03	9.291475E-15	8.603464E-17
7.610000E+03	9.180210E-15	8.584487E-17
7.620000E+03	9.067136E-15	8.564047E-17
7.630000E+03	8.956859E-15	8.546322E-17
7.640000E+03	8.853916E-15	8.535611E-17
7.650000E+03	8.761337E-15	8.534938E-17
7.660000E+03	8.681422E-15	8.546744E-17
7.670000E+03	8.614921E-15	8.572045E-17
7.680000E+03	8.562006E-15	8.611328E-17
7.690000E+03	8.521602E-15	8.663836E-17
7.700000E+03	8.491553E-15	8.727675E-17
7.710000E+03	8.468940E-15	8.800076E-17
7.720000E+03	8.452064E-15	8.879429E-17
7.730000E+03	8.439570E-15	8.964425E-17
7.740000E+03	8.430865E-15	9.054512E-17
7.750000E+03	8.425184E-15	9.148933E-17
7.760000E+03	8.421208E-15	9.246287E-17
