#wls	flux	fluxerr
1.600000E+03	1.202436E-15	5.482840E-18
1.640000E+03	1.198012E-15	5.462666E-18
1.680000E+03	1.194533E-15	5.446799E-18
1.720000E+03	1.192336E-15	5.436782E-18
1.760000E+03	1.192261E-15	5.436436E-18
1.800000E+03	1.194655E-15	5.447350E-18
1.840000E+03	1.200362E-15	5.473373E-18
1.880000E+03	1.210489E-15	5.519546E-18
1.920000E+03	1.225674E-15	5.588784E-18
1.960000E+03	1.246497E-15	5.683731E-18
2.000000E+03	1.272905E-15	5.804143E-18
2.040000E+03	1.303443E-15	5.943389E-18
2.080000E+03	1.335200E-15	6.088191E-18
2.120000E+03	1.364822E-15	6.223257E-18
2.160000E+03	1.396540E-15	6.367881E-18
2.200000E+03	1.434737E-15	6.542049E-18
2.240000E+03	1.482681E-15	6.760662E-18
2.280000E+03	1.542188E-15	7.031999E-18
2.320000E+03	1.613889E-15	7.358932E-18
2.360000E+03	1.698145E-15	7.743120E-18
2.400000E+03	1.794384E-15	8.181943E-18
2.440000E+03	1.901550E-15	8.670590E-18
2.480000E+03	2.016906E-15	9.196580E-18
2.520000E+03	2.138041E-15	9.748926E-18
2.560000E+03	2.262157E-15	1.031486E-17
2.600000E+03	2.387890E-15	1.088817E-17
2.640000E+03	2.520450E-15	1.149260E-17
2.680000E+03	2.657687E-15	1.211837E-17
2.720000E+03	2.793695E-15	1.273852E-17
2.760000E+03	2.928133E-15	1.335152E-17
2.800000E+03	3.063026E-15	1.396660E-17
2.840000E+03	3.201052E-15	1.459596E-17
2.880000E+03	3.345349E-15	1.525391E-17
2.920000E+03	3.497527E-15	1.594780E-17
2.960000E+03	3.658840E-15	1.668334E-17
3.000000E+03	3.828791E-15	1.745827E-17
3.010000E+03	3.872535E-15	1.765773E-17
3.020000E+03	3.916754E-15	1.785935E-17
3.030000E+03	3.961401E-15	1.806293E-17
3.040000E+03	4.006426E-15	1.826823E-17
3.050000E+03	4.051774E-15	1.847500E-17
3.060000E+03	4.097393E-15	1.868301E-17
3.070000E+03	4.143226E-15	1.889200E-17
3.080000E+03	4.189517E-15	1.910307E-17
3.090000E+03	4.236206E-15	1.931596E-17
3.100000E+03	4.282624E-15	1.952761E-17
3.110000E+03	4.329613E-15	1.974187E-17
3.120000E+03	4.376203E-15	1.995431E-17
3.130000E+03	4.423225E-15	2.016871E-17
3.140000E+03	4.470012E-15	2.038205E-17
3.150000E+03	4.516788E-15	2.059533E-17
3.160000E+03	4.563479E-15	2.080823E-17
3.170000E+03	4.610005E-15	2.102037E-17
3.180000E+03	4.656286E-15	2.123140E-17
3.190000E+03	4.702241E-15	2.144094E-17
3.200000E+03	4.747494E-15	2.164728E-17
3.210000E+03	4.792814E-15	2.185393E-17
3.220000E+03	4.837249E-15	2.205654E-17
3.230000E+03	4.881263E-15	2.225723E-17
3.240000E+03	4.924467E-15	2.245423E-17
3.250000E+03	4.966746E-15	2.264701E-17
3.260000E+03	5.008524E-15	2.283751E-17
3.270000E+03	5.048843E-15	2.302135E-17
3.280000E+03	5.088102E-15	2.320035E-17
3.290000E+03	5.126132E-15	2.337376E-17
3.300000E+03	5.162750E-15	2.354073E-17
3.310000E+03	5.197754E-15	2.370033E-17
3.320000E+03	5.230653E-15	2.385035E-17
3.330000E+03	5.261713E-15	2.399197E-17
3.340000E+03	5.290126E-15	2.412152E-17
3.350000E+03	5.316069E-15	2.423982E-17
3.360000E+03	5.338909E-15	2.434396E-17
3.370000E+03	5.358208E-15	2.443196E-17
3.380000E+03	5.373465E-15	2.450152E-17
3.390000E+03	5.384339E-15	2.455110E-17
3.400000E+03	5.389913E-15	2.457652E-17
3.410000E+03	5.389650E-15	2.457531E-17
3.420000E+03	5.382428E-15	2.454238E-17
3.430000E+03	5.367468E-15	2.447417E-17
3.440000E+03	5.343657E-15	2.436560E-17
3.450000E+03	5.309825E-15	2.421133E-17
3.460000E+03	5.264705E-15	2.400560E-17
3.470000E+03	5.208218E-15	2.374803E-17
3.480000E+03	5.141473E-15	2.344369E-17
3.490000E+03	5.070197E-15	2.311869E-17
3.500000E+03	4.005727E-15	1.826500E-17
3.500788E+03	4.000996E-15	1.824343E-17
3.501575E+03	3.998546E-15	1.823226E-17
3.502363E+03	3.992984E-15	1.820690E-17
3.503151E+03	3.985966E-15	1.817490E-17
3.503939E+03	3.979156E-15	1.814384E-17
3.504726E+03	3.974627E-15	1.812320E-17
3.505514E+03	3.977159E-15	1.813474E-17
3.506302E+03	3.987375E-15	1.818132E-17
3.507090E+03	3.996345E-15	1.822222E-17
3.507877E+03	3.999915E-15	1.823850E-17
3.508665E+03	4.001410E-15	1.824532E-17
3.509453E+03	4.003527E-15	1.825497E-17
3.510240E+03	4.008761E-15	1.827883E-17
3.511028E+03	4.016487E-15	1.831407E-17
3.511816E+03	4.018813E-15	1.832467E-17
3.512604E+03	4.012829E-15	1.829738E-17
3.513391E+03	4.009336E-15	1.828146E-17
3.514179E+03	4.009791E-15	1.828353E-17
3.514967E+03	4.014402E-15	1.830456E-17
3.515755E+03	4.017974E-15	1.832084E-17
3.516542E+03	4.021131E-15	1.833524E-17
3.517330E+03	4.027821E-15	1.836574E-17
3.518118E+03	4.032433E-15	1.838677E-17
3.518905E+03	4.031017E-15	1.838031E-17
3.519693E+03	4.032096E-15	1.838523E-17
3.520481E+03	4.040242E-15	1.842238E-17
3.521269E+03	4.047974E-15	1.845763E-17
3.522056E+03	4.056745E-15	1.849763E-17
3.522844E+03	4.057201E-15	1.849971E-17
3.523632E+03	4.055993E-15	1.849420E-17
3.524419E+03	4.057071E-15	1.849911E-17
3.525207E+03	4.052950E-15	1.848033E-17
3.525995E+03	4.054653E-15	1.848809E-17
3.526783E+03	4.061346E-15	1.851861E-17
3.527570E+03	4.069081E-15	1.855387E-17
3.528358E+03	4.078271E-15	1.859578E-17
3.529146E+03	4.083720E-15	1.862062E-17
3.529934E+03	4.087087E-15	1.863598E-17
3.530721E+03	4.096695E-15	1.867979E-17
3.531509E+03	4.108595E-15	1.873405E-17
3.532297E+03	4.121535E-15	1.879305E-17
3.533084E+03	4.137598E-15	1.886630E-17
3.533872E+03	4.149708E-15	1.892151E-17
3.534660E+03	4.165151E-15	1.899193E-17
3.535448E+03	4.186838E-15	1.909081E-17
3.536235E+03	4.200201E-15	1.915175E-17
3.537023E+03	4.207738E-15	1.918611E-17
3.537811E+03	4.215275E-15	1.922048E-17
3.538599E+03	4.222812E-15	1.925485E-17
3.539386E+03	4.232641E-15	1.929966E-17
3.540174E+03	4.244135E-15	1.935207E-17
3.540962E+03	4.249593E-15	1.937696E-17
3.541749E+03	4.256092E-15	1.940659E-17
3.542537E+03	4.268630E-15	1.946376E-17
3.543325E+03	4.285335E-15	1.953993E-17
3.544113E+03	4.303291E-15	1.962181E-17
3.544900E+03	4.320415E-15	1.969989E-17
3.545688E+03	4.334417E-15	1.976374E-17
3.546476E+03	4.349878E-15	1.983423E-17
3.547263E+03	4.364091E-15	1.989904E-17
3.548051E+03	4.377472E-15	1.996005E-17
3.548839E+03	4.393146E-15	2.003152E-17
3.549627E+03	4.408820E-15	2.010299E-17
3.550414E+03	4.420537E-15	2.015642E-17
3.551202E+03	4.432672E-15	2.021175E-17
3.551990E+03	4.449810E-15	2.028989E-17
3.552778E+03	4.463824E-15	2.035379E-17
3.553565E+03	4.478255E-15	2.041959E-17
3.554353E+03	4.497272E-15	2.050631E-17
3.555141E+03	4.511707E-15	2.057212E-17
3.555928E+03	4.521972E-15	2.061893E-17
3.556716E+03	4.533073E-15	2.066955E-17
3.557504E+03	4.545217E-15	2.072492E-17
3.558291E+03	4.557779E-15	2.078220E-17
3.559079E+03	4.571592E-15	2.084518E-17
3.559867E+03	4.583322E-15	2.089867E-17
3.560655E+03	4.588797E-15	2.092364E-17
3.561442E+03	4.595523E-15	2.095430E-17
3.562230E+03	4.605795E-15	2.100114E-17
3.563018E+03	4.614190E-15	2.103942E-17
3.563806E+03	4.625089E-15	2.108912E-17
3.564593E+03	4.633069E-15	2.112550E-17
3.565381E+03	4.633539E-15	2.112764E-17
3.566169E+03	4.639850E-15	2.115642E-17
3.566956E+03	4.650960E-15	2.120708E-17
3.567744E+03	4.659358E-15	2.124537E-17
3.568532E+03	4.667338E-15	2.128176E-17
3.569320E+03	4.675529E-15	2.131911E-17
3.570107E+03	4.679546E-15	2.133742E-17
3.570895E+03	4.678555E-15	2.133290E-17
3.571683E+03	4.680902E-15	2.134361E-17
3.572471E+03	4.685127E-15	2.136287E-17
3.573258E+03	4.697700E-15	2.142020E-17
3.574046E+03	4.705057E-15	2.145374E-17
3.574834E+03	4.705734E-15	2.145683E-17
3.575622E+03	4.710169E-15	2.147705E-17
3.576409E+03	4.715437E-15	2.150108E-17
3.577197E+03	4.729266E-15	2.156413E-17
3.577985E+03	4.740590E-15	2.161577E-17
3.578772E+03	4.752750E-15	2.167121E-17
3.579560E+03	4.753009E-15	2.167239E-17
3.580348E+03	4.744706E-15	2.163453E-17
3.581135E+03	4.741622E-15	2.162047E-17
3.581923E+03	4.730184E-15	2.156832E-17
3.582711E+03	4.730648E-15	2.157043E-17
3.583499E+03	4.737169E-15	2.160017E-17
3.584286E+03	4.733873E-15	2.158514E-17
3.585074E+03	4.727652E-15	2.155677E-17
3.585862E+03	4.720802E-15	2.152554E-17
3.586650E+03	4.718129E-15	2.151335E-17
3.587437E+03	4.720678E-15	2.152497E-17
3.588225E+03	4.720512E-15	2.152421E-17
3.589013E+03	4.715329E-15	2.150058E-17
3.589800E+03	4.709519E-15	2.147409E-17
3.590588E+03	4.694514E-15	2.140567E-17
3.591376E+03	4.676579E-15	2.132389E-17
3.592164E+03	4.660942E-15	2.125259E-17
3.592951E+03	4.641750E-15	2.116508E-17
3.593739E+03	4.635303E-15	2.113569E-17
3.594527E+03	4.633663E-15	2.112821E-17
3.595314E+03	4.629306E-15	2.110834E-17
3.596102E+03	4.625783E-15	2.109228E-17
3.596890E+03	4.619959E-15	2.106572E-17
3.597678E+03	4.617689E-15	2.105537E-17
3.598465E+03	4.623989E-15	2.108410E-17
3.599253E+03	4.626735E-15	2.109662E-17
3.600041E+03	4.626552E-15	2.109578E-17
3.600829E+03	4.627624E-15	2.110067E-17
3.601616E+03	4.629323E-15	2.110842E-17
3.602404E+03	4.624747E-15	2.108755E-17
3.603192E+03	4.622471E-15	2.107718E-17
3.603979E+03	4.620195E-15	2.106679E-17
3.604767E+03	4.626492E-15	2.109551E-17
3.605555E+03	4.635927E-15	2.113853E-17
3.606343E+03	4.649336E-15	2.119967E-17
3.607130E+03	4.662746E-15	2.126082E-17
3.607918E+03	4.663396E-15	2.126378E-17
3.608706E+03	4.652538E-15	2.121427E-17
3.609494E+03	4.633310E-15	2.112660E-17
3.610281E+03	4.617427E-15	2.105418E-17
3.611069E+03	4.606982E-15	2.100655E-17
3.611857E+03	4.601767E-15	2.098277E-17
3.612644E+03	4.600735E-15	2.097806E-17
3.613432E+03	4.597400E-15	2.096286E-17
3.614220E+03	4.604947E-15	2.099727E-17
3.615008E+03	4.611447E-15	2.102691E-17
3.615795E+03	4.610413E-15	2.102219E-17
3.616583E+03	4.611261E-15	2.102606E-17
3.617371E+03	4.616295E-15	2.104901E-17
3.618159E+03	4.623422E-15	2.108151E-17
3.618946E+03	4.618826E-15	2.106055E-17
3.619734E+03	4.611508E-15	2.102718E-17
3.620522E+03	4.606281E-15	2.100335E-17
3.621309E+03	4.604822E-15	2.099670E-17
3.622097E+03	4.609433E-15	2.101772E-17
3.622885E+03	4.606088E-15	2.100247E-17
3.623673E+03	4.604835E-15	2.099676E-17
3.624460E+03	4.610702E-15	2.102351E-17
3.625248E+03	4.619500E-15	2.106362E-17
3.626036E+03	4.623272E-15	2.108082E-17
3.626823E+03	4.622645E-15	2.107797E-17
3.627611E+03	4.623066E-15	2.107988E-17
3.628399E+03	4.625788E-15	2.109230E-17
3.629187E+03	4.628930E-15	2.110662E-17
3.629974E+03	4.624740E-15	2.108752E-17
3.630762E+03	4.629976E-15	2.111139E-17
3.631550E+03	4.643800E-15	2.117442E-17
3.632338E+03	4.650292E-15	2.120403E-17
3.633125E+03	4.651546E-15	2.120975E-17
3.633913E+03	4.651124E-15	2.120782E-17
3.634701E+03	4.654263E-15	2.122213E-17
3.635488E+03	4.663058E-15	2.126224E-17
3.636276E+03	4.666197E-15	2.127655E-17
3.637064E+03	4.655505E-15	2.122779E-17
3.637852E+03	4.647115E-15	2.118954E-17
3.638639E+03	4.650880E-15	2.120671E-17
3.639427E+03	4.661561E-15	2.125541E-17
3.640215E+03	4.663858E-15	2.126588E-17
3.641003E+03	4.658400E-15	2.124100E-17
3.641790E+03	4.649167E-15	2.119890E-17
3.642578E+03	4.646431E-15	2.118642E-17
3.643366E+03	4.650821E-15	2.120644E-17
3.644153E+03	4.647246E-15	2.119014E-17
3.644941E+03	4.638009E-15	2.114802E-17
3.645729E+03	4.636947E-15	2.114318E-17
3.646517E+03	4.635885E-15	2.113833E-17
3.647304E+03	4.625177E-15	2.108951E-17
3.648092E+03	4.613208E-15	2.103493E-17
3.648880E+03	4.603336E-15	2.098992E-17
3.649668E+03	4.600382E-15	2.097645E-17
3.650455E+03	4.599524E-15	2.097254E-17
3.651243E+03	4.596779E-15	2.096002E-17
3.652031E+03	4.592354E-15	2.093985E-17
3.652818E+03	4.590027E-15	2.092923E-17
3.653606E+03	4.595668E-15	2.095495E-17
3.654394E+03	4.600261E-15	2.097590E-17
3.655182E+03	4.606112E-15	2.100258E-17
3.655969E+03	4.609866E-15	2.101969E-17
3.656757E+03	4.604179E-15	2.099376E-17
3.657545E+03	4.594085E-15	2.094774E-17
3.658332E+03	4.585040E-15	2.090649E-17
3.659120E+03	4.575783E-15	2.086429E-17
3.659908E+03	4.571351E-15	2.084407E-17
3.660696E+03	4.562512E-15	2.080377E-17
3.661483E+03	4.549474E-15	2.074432E-17
3.662271E+03	4.540422E-15	2.070305E-17
3.663059E+03	4.540603E-15	2.070387E-17
3.663847E+03	4.539733E-15	2.069991E-17
3.664634E+03	4.535925E-15	2.068254E-17
3.665422E+03	4.528338E-15	2.064795E-17
3.666210E+03	4.521380E-15	2.061622E-17
3.666997E+03	4.514841E-15	2.058641E-17
3.667785E+03	4.504312E-15	2.053840E-17
3.668573E+03	4.495462E-15	2.049804E-17
3.669361E+03	4.493328E-15	2.048831E-17
3.670148E+03	4.489933E-15	2.047283E-17
3.670936E+03	4.479611E-15	2.042577E-17
3.671724E+03	4.469076E-15	2.037773E-17
3.672511E+03	4.453293E-15	2.030576E-17
3.673299E+03	4.441707E-15	2.025293E-17
3.674087E+03	4.435368E-15	2.022403E-17
3.674875E+03	4.429448E-15	2.019704E-17
3.675662E+03	4.434236E-15	2.021887E-17
3.676450E+03	4.436925E-15	2.023113E-17
3.677238E+03	4.437723E-15	2.023477E-17
3.678026E+03	4.435581E-15	2.022500E-17
3.678813E+03	4.435119E-15	2.022289E-17
3.679601E+03	4.445996E-15	2.027249E-17
3.680389E+03	4.463594E-15	2.035273E-17
3.681176E+03	4.476994E-15	2.041384E-17
3.681964E+03	4.490394E-15	2.047493E-17
3.682752E+03	4.504005E-15	2.053699E-17
3.683540E+03	4.511104E-15	2.056936E-17
3.684327E+03	4.521354E-15	2.061610E-17
3.685115E+03	4.532446E-15	2.066668E-17
3.685903E+03	4.535764E-15	2.068181E-17
3.686691E+03	4.543285E-15	2.071610E-17
3.687478E+03	4.557318E-15	2.078009E-17
3.688266E+03	4.574504E-15	2.085845E-17
3.689054E+03	4.595893E-15	2.095598E-17
3.689841E+03	4.622115E-15	2.107554E-17
3.690629E+03	4.646238E-15	2.118554E-17
3.691417E+03	4.675616E-15	2.131949E-17
3.692204E+03	4.706046E-15	2.145825E-17
3.692992E+03	4.734797E-15	2.158934E-17
3.693780E+03	4.761448E-15	2.171086E-17
3.694568E+03	4.785788E-15	2.182185E-17
3.695355E+03	4.807609E-15	2.192134E-17
3.696143E+03	4.834894E-15	2.204576E-17
3.696931E+03	4.863023E-15	2.217402E-17
3.697719E+03	4.893045E-15	2.231091E-17
3.698506E+03	4.922017E-15	2.244301E-17
3.699294E+03	4.948890E-15	2.256554E-17
3.700082E+03	4.977446E-15	2.269575E-17
3.700869E+03	5.017566E-15	2.287869E-17
3.701657E+03	5.063364E-15	2.308751E-17
3.702445E+03	5.096130E-15	2.323692E-17
3.703233E+03	5.127847E-15	2.338154E-17
3.704020E+03	5.162511E-15	2.353959E-17
3.704808E+03	5.194022E-15	2.368328E-17
3.705596E+03	5.230581E-15	2.384998E-17
3.706384E+03	5.271559E-15	2.403682E-17
3.707171E+03	5.311697E-15	2.421984E-17
3.707959E+03	5.352890E-15	2.440767E-17
3.708747E+03	5.401236E-15	2.462811E-17
3.709535E+03	5.444957E-15	2.482747E-17
3.710322E+03	5.485528E-15	2.501246E-17
3.711110E+03	5.531568E-15	2.522239E-17
3.711898E+03	5.579926E-15	2.544289E-17
3.712685E+03	5.624080E-15	2.564422E-17
3.713473E+03	5.666133E-15	2.583597E-17
3.714261E+03	5.706086E-15	2.601814E-17
3.715048E+03	5.749406E-15	2.621567E-17
3.715836E+03	5.798619E-15	2.644007E-17
3.716624E+03	5.840052E-15	2.662899E-17
3.717412E+03	5.880015E-15	2.681121E-17
3.718199E+03	5.925661E-15	2.701934E-17
3.718987E+03	5.969416E-15	2.721885E-17
3.719775E+03	6.004337E-15	2.737808E-17
3.720563E+03	6.044731E-15	2.756227E-17
3.721350E+03	6.096069E-15	2.779635E-17
3.722138E+03	6.148251E-15	2.803429E-17
3.722926E+03	6.196860E-15	2.825593E-17
3.723713E+03	6.231584E-15	2.841427E-17
3.724501E+03	6.269255E-15	2.858603E-17
3.725289E+03	6.310717E-15	2.877509E-17
3.726077E+03	6.347763E-15	2.894401E-17
3.726864E+03	6.387967E-15	2.912732E-17
3.727652E+03	6.427121E-15	2.930586E-17
3.728440E+03	6.461858E-15	2.946425E-17
3.729227E+03	6.493229E-15	2.960729E-17
3.730015E+03	6.534074E-15	2.979353E-17
3.730803E+03	6.580184E-15	3.000378E-17
3.731591E+03	6.626507E-15	3.021500E-17
3.732378E+03	6.674519E-15	3.043392E-17
3.733166E+03	6.712428E-15	3.060678E-17
3.733954E+03	6.750128E-15	3.077868E-17
3.734742E+03	6.798357E-15	3.099859E-17
3.735529E+03	6.853538E-15	3.125020E-17
3.736317E+03	6.905985E-15	3.148934E-17
3.737105E+03	6.954014E-15	3.170834E-17
3.737892E+03	6.994044E-15	3.189087E-17
3.738680E+03	7.030076E-15	3.205516E-17
3.739468E+03	7.060214E-15	3.219258E-17
3.740256E+03	7.087406E-15	3.231657E-17
3.741043E+03	7.121549E-15	3.247225E-17
3.741831E+03	7.155905E-15	3.262890E-17
3.742619E+03	7.192368E-15	3.279517E-17
3.743407E+03	7.228835E-15	3.296145E-17
3.744194E+03	7.262566E-15	3.311525E-17
3.744982E+03	7.295877E-15	3.326714E-17
3.745770E+03	7.329822E-15	3.342192E-17
3.746557E+03	7.365245E-15	3.358344E-17
3.747345E+03	7.402354E-15	3.375264E-17
3.748133E+03	7.435463E-15	3.390361E-17
3.748921E+03	7.461834E-15	3.402385E-17
3.749708E+03	7.491576E-15	3.415947E-17
3.750496E+03	7.523849E-15	3.430662E-17
3.751284E+03	7.553173E-15	3.444033E-17
3.752072E+03	7.578708E-15	3.455677E-17
3.752859E+03	7.605509E-15	3.467897E-17
3.753647E+03	7.633574E-15	3.480694E-17
3.754435E+03	7.668175E-15	3.496471E-17
3.755222E+03	7.701934E-15	3.511864E-17
3.756010E+03	7.729585E-15	3.524472E-17
3.756798E+03	7.754920E-15	3.536024E-17
3.757586E+03	7.779412E-15	3.547192E-17
3.758373E+03	7.806225E-15	3.559418E-17
3.759161E+03	7.837254E-15	3.573566E-17
3.759949E+03	7.874819E-15	3.590695E-17
3.760736E+03	7.910069E-15	3.606768E-17
3.761524E+03	7.943634E-15	3.622072E-17
3.762312E+03	7.972564E-15	3.635264E-17
3.763100E+03	7.993276E-15	3.644708E-17
3.763887E+03	8.014621E-15	3.654440E-17
3.764675E+03	8.037865E-15	3.665039E-17
3.765463E+03	8.064905E-15	3.677369E-17
3.766251E+03	8.094055E-15	3.690660E-17
3.767038E+03	8.122996E-15	3.703857E-17
3.767826E+03	8.151095E-15	3.716669E-17
3.768614E+03	8.177932E-15	3.728905E-17
3.769401E+03	8.212361E-15	3.744604E-17
3.770189E+03	8.247214E-15	3.760496E-17
3.770977E+03	8.270893E-15	3.771293E-17
3.771765E+03	8.293942E-15	3.781803E-17
3.772552E+03	8.325638E-15	3.796255E-17
3.773340E+03	8.363662E-15	3.813593E-17
3.774128E+03	8.404009E-15	3.831990E-17
3.774916E+03	8.437399E-15	3.847215E-17
3.775703E+03	8.466573E-15	3.860518E-17
3.776491E+03	8.489634E-15	3.871033E-17
3.777279E+03	8.515437E-15	3.882798E-17
3.778066E+03	8.544618E-15	3.896104E-17
3.778854E+03	8.571269E-15	3.908256E-17
3.779642E+03	8.592648E-15	3.918004E-17
3.780430E+03	8.611920E-15	3.926792E-17
3.781217E+03	8.623388E-15	3.932021E-17
3.782005E+03	8.635279E-15	3.937443E-17
3.782793E+03	8.655609E-15	3.946712E-17
3.783581E+03	8.678683E-15	3.957234E-17
3.784368E+03	8.695218E-15	3.964773E-17
3.785156E+03	8.713021E-15	3.972891E-17
3.785944E+03	8.730826E-15	3.981009E-17
3.786731E+03	8.748421E-15	3.989032E-17
3.787519E+03	8.769604E-15	3.998691E-17
3.788307E+03	8.789733E-15	4.007869E-17
3.789095E+03	8.807754E-15	4.016086E-17
3.789882E+03	8.820289E-15	4.021802E-17
3.790670E+03	8.832825E-15	4.027518E-17
3.791458E+03	8.848740E-15	4.034775E-17
3.792245E+03	8.865289E-15	4.042321E-17
3.793033E+03	8.876562E-15	4.047461E-17
3.793821E+03	8.881504E-15	4.049714E-17
3.794609E+03	8.887503E-15	4.052450E-17
3.795396E+03	8.890336E-15	4.053741E-17
3.796184E+03	8.889793E-15	4.053493E-17
3.796972E+03	8.888193E-15	4.052764E-17
3.797760E+03	8.885961E-15	4.051746E-17
3.798547E+03	8.885417E-15	4.051498E-17
3.799335E+03	8.884452E-15	4.051058E-17
3.800123E+03	8.880109E-15	4.049078E-17
3.800910E+03	8.871544E-15	4.045172E-17
3.801698E+03	8.862555E-15	4.041074E-17
3.802486E+03	8.854200E-15	4.037264E-17
3.803274E+03	8.846477E-15	4.033743E-17
3.804061E+03	8.833054E-15	4.027622E-17
3.804849E+03	8.820686E-15	4.021983E-17
3.805637E+03	8.805993E-15	4.015283E-17
3.806424E+03	8.783277E-15	4.004925E-17
3.807212E+03	8.758446E-15	3.993603E-17
3.808000E+03	8.737627E-15	3.984110E-17
3.808788E+03	8.717018E-15	3.974713E-17
3.809575E+03	8.695352E-15	3.964834E-17
3.810363E+03	8.665659E-15	3.951295E-17
3.811151E+03	8.633640E-15	3.936695E-17
3.811939E+03	8.601408E-15	3.921998E-17
3.812726E+03	8.569175E-15	3.907301E-17
3.813514E+03	8.534405E-15	3.891446E-17
3.814302E+03	8.497520E-15	3.874628E-17
3.815089E+03	8.461266E-15	3.858097E-17
3.815877E+03	8.425856E-15	3.841951E-17
3.816665E+03	8.387063E-15	3.824263E-17
3.817453E+03	8.346999E-15	3.805995E-17
3.818240E+03	8.302709E-15	3.785800E-17
3.819028E+03	8.257569E-15	3.765217E-17
3.819816E+03	8.214541E-15	3.745598E-17
3.820604E+03	8.167494E-15	3.724146E-17
3.821391E+03	8.119600E-15	3.702307E-17
3.822179E+03	8.071492E-15	3.680371E-17
3.822967E+03	8.024859E-15	3.659108E-17
3.823754E+03	7.983084E-15	3.640060E-17
3.824542E+03	7.942153E-15	3.621396E-17
3.825330E+03	7.903966E-15	3.603984E-17
3.826117E+03	7.862184E-15	3.584933E-17
3.826905E+03	7.820822E-15	3.566073E-17
3.827693E+03	7.784741E-15	3.549621E-17
3.828481E+03	7.757537E-15	3.537217E-17
3.829268E+03	7.723568E-15	3.521728E-17
3.830056E+03	7.675854E-15	3.499971E-17
3.830844E+03	7.624544E-15	3.476575E-17
3.831632E+03	7.573654E-15	3.453371E-17
3.832419E+03	7.525086E-15	3.431226E-17
3.833207E+03	7.475669E-15	3.408693E-17
3.833995E+03	7.429420E-15	3.387605E-17
3.834782E+03	7.383381E-15	3.366612E-17
3.835570E+03	7.332686E-15	3.343497E-17
