#wls	flux	fluxerr
1.600000E+03	1.811931E-16	1.609098E-17
1.640000E+03	1.892734E-16	1.671545E-17
1.680000E+03	1.981232E-16	1.739723E-17
1.720000E+03	2.076847E-16	1.812976E-17
1.760000E+03	2.180613E-16	1.892053E-17
1.800000E+03	2.291604E-16	1.975986E-17
1.840000E+03	2.411575E-16	2.066112E-17
1.880000E+03	2.538166E-16	2.160227E-17
1.920000E+03	2.672804E-16	2.259369E-17
1.960000E+03	2.813583E-16	2.361742E-17
2.000000E+03	2.959361E-16	2.466223E-17
2.040000E+03	3.109983E-16	2.572530E-17
2.080000E+03	3.262774E-16	2.678308E-17
2.120000E+03	3.418636E-16	2.784184E-17
2.160000E+03	3.574673E-16	2.887684E-17
2.200000E+03	3.729100E-16	2.987303E-17
2.240000E+03	3.881407E-16	3.082596E-17
2.280000E+03	4.028257E-16	3.170905E-17
2.320000E+03	4.170433E-16	3.252884E-17
2.360000E+03	4.304575E-16	3.325968E-17
2.400000E+03	4.430491E-16	3.390117E-17
2.440000E+03	4.545915E-16	3.443736E-17
2.480000E+03	4.653004E-16	3.488621E-17
2.520000E+03	4.753445E-16	3.526161E-17
2.560000E+03	4.853625E-16	3.561148E-17
2.600000E+03	4.966007E-16	3.602575E-17
2.640000E+03	5.097110E-16	3.654754E-17
2.680000E+03	5.247166E-16	3.717307E-17
2.720000E+03	5.407111E-16	3.783326E-17
2.760000E+03	5.564462E-16	3.843845E-17
2.800000E+03	5.713185E-16	3.894739E-17
2.840000E+03	5.844258E-16	3.930098E-17
2.880000E+03	5.956727E-16	3.949711E-17
2.920000E+03	6.048684E-16	3.952799E-17
2.960000E+03	6.119588E-16	3.939556E-17
3.000000E+03	6.171169E-16	3.911655E-17
3.010000E+03	6.182121E-16	3.903133E-17
3.020000E+03	6.191294E-16	3.893373E-17
3.030000E+03	6.198723E-16	3.882409E-17
3.040000E+03	6.205713E-16	3.871070E-17
3.050000E+03	6.212278E-16	3.859366E-17
3.060000E+03	6.217187E-16	3.846541E-17
3.070000E+03	6.221724E-16	3.833395E-17
3.080000E+03	6.225905E-16	3.819943E-17
3.090000E+03	6.228539E-16	3.805460E-17
3.100000E+03	6.230885E-16	3.790723E-17
3.110000E+03	6.232969E-16	3.775750E-17
3.120000E+03	6.233637E-16	3.759848E-17
3.130000E+03	6.234126E-16	3.743770E-17
3.140000E+03	6.234473E-16	3.727539E-17
3.150000E+03	6.233566E-16	3.710495E-17
3.160000E+03	6.233760E-16	3.694044E-17
3.170000E+03	6.232813E-16	3.676855E-17
3.180000E+03	6.233048E-16	3.660300E-17
3.190000E+03	6.232272E-16	3.643088E-17
3.200000E+03	6.231679E-16	3.625923E-17
3.210000E+03	6.231337E-16	3.608842E-17
3.220000E+03	6.232398E-16	3.592507E-17
3.230000E+03	6.232777E-16	3.575712E-17
3.240000E+03	6.234707E-16	3.559736E-17
3.250000E+03	6.237205E-16	3.544009E-17
3.260000E+03	6.240374E-16	3.528583E-17
3.270000E+03	6.244325E-16	3.513517E-17
3.280000E+03	6.250193E-16	3.499438E-17
3.290000E+03	6.258076E-16	3.486386E-17
3.300000E+03	6.266088E-16	3.473298E-17
3.310000E+03	6.277369E-16	3.461905E-17
3.320000E+03	6.290061E-16	3.451160E-17
3.330000E+03	6.304332E-16	3.441142E-17
3.340000E+03	6.322282E-16	3.432977E-17
3.350000E+03	6.342139E-16	3.425678E-17
3.360000E+03	6.365050E-16	3.419844E-17
3.370000E+03	6.391200E-16	3.415546E-17
3.380000E+03	6.420786E-16	3.412862E-17
3.390000E+03	6.454017E-16	3.411870E-17
3.400000E+03	6.492032E-16	3.413139E-17
3.410000E+03	6.533213E-16	3.415780E-17
3.420000E+03	6.579632E-16	3.420840E-17
3.430000E+03	6.631519E-16	3.428394E-17
3.440000E+03	6.688210E-16	3.438049E-17
3.450000E+03	6.749951E-16	3.449888E-17
3.460000E+03	6.818784E-16	3.464903E-17
3.470000E+03	6.893148E-16	3.482240E-17
3.480000E+03	6.974164E-16	3.502412E-17
3.490000E+03	7.061154E-16	3.525020E-17
3.500000E+03	7.156097E-16	3.550989E-17
3.510000E+03	7.259179E-16	3.580337E-17
3.520000E+03	7.368798E-16	3.612205E-17
3.530000E+03	7.486908E-16	3.647481E-17
3.540000E+03	7.612786E-16	3.685738E-17
3.550000E+03	7.747488E-16	3.727410E-17
3.560000E+03	7.891180E-16	3.772491E-17
3.570000E+03	8.044021E-16	3.820974E-17
3.580000E+03	8.205267E-16	3.872418E-17
3.590000E+03	8.376874E-16	3.927662E-17
3.600000E+03	8.558092E-16	3.986257E-17
3.610000E+03	8.749057E-16	4.048173E-17
3.620000E+03	8.949900E-16	4.113375E-17
3.630000E+03	9.161667E-16	4.182247E-17
3.640000E+03	9.384483E-16	4.254737E-17
3.650000E+03	9.618453E-16	4.330788E-17
3.660000E+03	9.862711E-16	4.409901E-17
3.670000E+03	1.011826E-15	4.492421E-17
3.680000E+03	1.038610E-15	4.578681E-17
3.690000E+03	1.066529E-15	4.668146E-17
3.700000E+03	1.095582E-15	4.760697E-17
3.710000E+03	1.125861E-15	4.856623E-17
3.720000E+03	1.157360E-15	4.955776E-17
3.730000E+03	1.190069E-15	5.057990E-17
3.740000E+03	1.223868E-15	5.162641E-17
3.750000E+03	1.258941E-15	5.270390E-17
3.760000E+03	1.295163E-15	5.380587E-17
3.770000E+03	1.332499E-15	5.492981E-17
3.780000E+03	1.371023E-15	5.607752E-17
3.790000E+03	1.410691E-15	5.724615E-17
3.800000E+03	1.451352E-15	5.842835E-17
3.810000E+03	1.493168E-15	5.962965E-17
3.820000E+03	1.535862E-15	6.083791E-17
3.830000E+03	1.579590E-15	6.205837E-17
3.840000E+03	1.624280E-15	6.328722E-17
3.850000E+03	1.669746E-15	6.451620E-17
3.860000E+03	1.715903E-15	6.574137E-17
3.870000E+03	1.762889E-15	6.696722E-17
3.880000E+03	1.810496E-15	6.818511E-17
3.890000E+03	1.858625E-15	6.939074E-17
3.900000E+03	1.907175E-15	7.057976E-17
3.910000E+03	1.956151E-15	7.175205E-17
3.920000E+03	2.005446E-15	7.290321E-17
3.930000E+03	2.054946E-15	7.402887E-17
3.940000E+03	2.104420E-15	7.512063E-17
3.950000E+03	2.153990E-15	7.618277E-17
3.960000E+03	2.203427E-15	7.720721E-17
3.970000E+03	2.252617E-15	7.819022E-17
3.980000E+03	2.301572E-15	7.913248E-17
3.990000E+03	2.350191E-15	8.003080E-17
4.000000E+03	2.398260E-15	8.087834E-17
4.010000E+03	2.445924E-15	8.168062E-17
4.020000E+03	2.492872E-15	8.242776E-17
4.030000E+03	2.539267E-15	8.312594E-17
4.040000E+03	2.584934E-15	8.377011E-17
4.050000E+03	2.629946E-15	8.436346E-17
4.060000E+03	2.674155E-15	8.490199E-17
4.070000E+03	2.717661E-15	8.538979E-17
4.080000E+03	2.760462E-15	8.582764E-17
4.090000E+03	2.802459E-15	8.621333E-17
4.100000E+03	2.843912E-15	8.655571E-17
4.110000E+03	2.884758E-15	8.685358E-17
4.120000E+03	2.924954E-15	8.710642E-17
4.130000E+03	2.964808E-15	8.732416E-17
4.140000E+03	3.004314E-15	8.750712E-17
4.150000E+03	3.043705E-15	8.766259E-17
4.160000E+03	3.082905E-15	8.778873E-17
4.170000E+03	3.122292E-15	8.789657E-17
4.180000E+03	3.161935E-15	8.798817E-17
4.190000E+03	3.202138E-15	8.807189E-17
4.200000E+03	3.243013E-15	8.815047E-17
4.210000E+03	3.284792E-15	8.822981E-17
4.220000E+03	3.327727E-15	8.831605E-17
4.230000E+03	3.372188E-15	8.841814E-17
4.240000E+03	3.418252E-15	8.853697E-17
4.250000E+03	3.466419E-15	8.868417E-17
4.260000E+03	3.516893E-15	8.886331E-17
4.270000E+03	3.569882E-15	8.907788E-17
4.280000E+03	3.625895E-15	8.933847E-17
4.290000E+03	3.685023E-15	8.964502E-17
4.300000E+03	3.747529E-15	9.000149E-17
4.310000E+03	3.813721E-15	9.041261E-17
4.320000E+03	3.883722E-15	9.087856E-17
4.330000E+03	3.957334E-15	9.139193E-17
4.340000E+03	4.034470E-15	9.194820E-17
4.350000E+03	4.114706E-15	9.253550E-17
4.360000E+03	4.197313E-15	9.313572E-17
4.370000E+03	4.281152E-15	9.372278E-17
4.380000E+03	4.364988E-15	9.426992E-17
4.390000E+03	4.447841E-15	9.475732E-17
4.400000E+03	4.529565E-15	9.518390E-17
4.410000E+03	4.610819E-15	9.556549E-17
4.420000E+03	4.692957E-15	9.593138E-17
4.430000E+03	4.776809E-15	9.629882E-17
4.440000E+03	4.863487E-15	9.668981E-17
4.450000E+03	4.953571E-15	9.711484E-17
4.460000E+03	5.047524E-15	9.758158E-17
4.470000E+03	5.145723E-15	9.809570E-17
4.480000E+03	5.248206E-15	9.865626E-17
4.490000E+03	5.355093E-15	9.926397E-17
4.500000E+03	5.466321E-15	9.991624E-17
4.510000E+03	5.581767E-15	1.006097E-16
4.520000E+03	5.701362E-15	1.013421E-16
4.530000E+03	5.824810E-15	1.021078E-16
4.540000E+03	5.951773E-15	1.029005E-16
4.550000E+03	6.081887E-15	1.037142E-16
4.560000E+03	6.214686E-15	1.045411E-16
4.570000E+03	6.350022E-15	1.053795E-16
4.580000E+03	6.487357E-15	1.062214E-16
4.590000E+03	6.626384E-15	1.070634E-16
4.600000E+03	6.766928E-15	1.079041E-16
4.610000E+03	6.908722E-15	1.087415E-16
4.620000E+03	7.051402E-15	1.095719E-16
4.630000E+03	7.194775E-15	1.103950E-16
4.640000E+03	7.338254E-15	1.112046E-16
4.650000E+03	7.481623E-15	1.120006E-16
4.660000E+03	7.623894E-15	1.127717E-16
4.670000E+03	7.763913E-15	1.135050E-16
4.680000E+03	7.900147E-15	1.141827E-16
4.690000E+03	8.030242E-15	1.147764E-16
4.700000E+03	8.151348E-15	1.152521E-16
4.710000E+03	8.260365E-15	1.155737E-16
4.720000E+03	8.354390E-15	1.157092E-16
4.730000E+03	8.432221E-15	1.156512E-16
4.740000E+03	8.494834E-15	1.154218E-16
4.750000E+03	8.544224E-15	1.150558E-16
4.760000E+03	8.582686E-15	1.145904E-16
4.770000E+03	8.612183E-15	1.140568E-16
4.780000E+03	8.634269E-15	1.134797E-16
4.790000E+03	8.649792E-15	1.128734E-16
4.800000E+03	8.659293E-15	1.122475E-16
4.810000E+03	8.663106E-15	1.116088E-16
4.820000E+03	8.661309E-15	1.109591E-16
4.830000E+03	8.654016E-15	1.102989E-16
4.840000E+03	8.641083E-15	1.096249E-16
4.850000E+03	8.622554E-15	1.089357E-16
4.860000E+03	8.598483E-15	1.082300E-16
4.870000E+03	8.568957E-15	1.075066E-16
4.880000E+03	8.534017E-15	1.067637E-16
4.890000E+03	8.493944E-15	1.060020E-16
4.900000E+03	8.448790E-15	1.052195E-16
4.910000E+03	8.399121E-15	1.044205E-16
4.920000E+03	8.344992E-15	1.036026E-16
4.930000E+03	8.286951E-15	1.027698E-16
4.940000E+03	8.225395E-15	1.019240E-16
4.950000E+03	8.160651E-15	1.010663E-16
4.960000E+03	8.093331E-15	1.002015E-16
4.970000E+03	8.023701E-15	9.933010E-17
4.980000E+03	7.952379E-15	9.845697E-17
4.990000E+03	7.879802E-15	9.758501E-17
5.000000E+03	7.806403E-15	9.671711E-17
5.010000E+03	7.732681E-15	9.585717E-17
5.020000E+03	7.658960E-15	9.500704E-17
5.030000E+03	7.585781E-15	9.417144E-17
5.040000E+03	7.513427E-15	9.335204E-17
5.050000E+03	7.442390E-15	9.255327E-17
5.060000E+03	7.372902E-15	9.177648E-17
5.070000E+03	7.305398E-15	9.102572E-17
5.080000E+03	7.240056E-15	9.030194E-17
5.090000E+03	7.177176E-15	8.960780E-17
5.100000E+03	7.117029E-15	8.894570E-17
5.110000E+03	7.059781E-15	8.831685E-17
5.120000E+03	7.005641E-15	8.772312E-17
5.130000E+03	6.954786E-15	8.716608E-17
5.140000E+03	6.907298E-15	8.664620E-17
5.150000E+03	6.863294E-15	8.616449E-17
5.160000E+03	6.822798E-15	8.572084E-17
5.170000E+03	6.785874E-15	8.531572E-17
5.180000E+03	6.752559E-15	8.494933E-17
5.190000E+03	6.722859E-15	8.462156E-17
5.200000E+03	6.696621E-15	8.433027E-17
5.210000E+03	6.673934E-15	8.407652E-17
5.220000E+03	6.654526E-15	8.385678E-17
5.230000E+03	6.638432E-15	8.367147E-17
5.240000E+03	6.625397E-15	8.351735E-17
5.250000E+03	6.615335E-15	8.339341E-17
5.260000E+03	6.608005E-15	8.329670E-17
5.270000E+03	6.603209E-15	8.322480E-17
5.280000E+03	6.600655E-15	8.317422E-17
5.290000E+03	6.600161E-15	8.314286E-17
5.300000E+03	6.601326E-15	8.312590E-17
5.310000E+03	6.603860E-15	8.311998E-17
5.320000E+03	6.607523E-15	8.312241E-17
5.330000E+03	6.611868E-15	8.312796E-17
5.340000E+03	6.616570E-15	8.313299E-17
5.350000E+03	6.621376E-15	8.313480E-17
5.360000E+03	6.625851E-15	8.312847E-17
5.370000E+03	6.629718E-15	8.311116E-17
5.380000E+03	6.632756E-15	8.308073E-17
5.390000E+03	6.634750E-15	8.303522E-17
5.400000E+03	6.635724E-15	8.297567E-17
5.410000E+03	6.635577E-15	8.290161E-17
5.420000E+03	6.634718E-15	8.281899E-17
5.430000E+03	6.633485E-15	8.273287E-17
5.440000E+03	6.632611E-15	8.265324E-17
5.450000E+03	6.632783E-15	8.258954E-17
5.460000E+03	6.634860E-15	8.255331E-17
5.470000E+03	6.639857E-15	8.255805E-17
5.480000E+03	6.648599E-15	8.261485E-17
5.490000E+03	6.661761E-15	8.273296E-17
5.500000E+03	6.680074E-15	8.292237E-17
5.510000E+03	6.704297E-15	8.319341E-17
5.520000E+03	6.735239E-15	8.355707E-17
5.530000E+03	6.773432E-15	8.402097E-17
5.540000E+03	6.819053E-15	8.458763E-17
5.550000E+03	6.872199E-15	8.525778E-17
5.560000E+03	6.932680E-15	8.602854E-17
5.570000E+03	7.000405E-15	8.689828E-17
5.580000E+03	7.074936E-15	8.786109E-17
5.590000E+03	7.155997E-15	8.891308E-17
5.600000E+03	7.243141E-15	9.004824E-17
5.610000E+03	7.335967E-15	9.126111E-17
5.620000E+03	7.434058E-15	9.254606E-17
5.630000E+03	7.536911E-15	9.389634E-17
5.640000E+03	7.644078E-15	9.530589E-17
5.650000E+03	7.755183E-15	9.676951E-17
5.660000E+03	7.869608E-15	9.827897E-17
5.670000E+03	7.986796E-15	9.982676E-17
5.680000E+03	8.106413E-15	1.014081E-16
5.690000E+03	8.227802E-15	1.030143E-16
5.700000E+03	8.350449E-15	1.046383E-16
5.710000E+03	8.473750E-15	1.062720E-16
5.720000E+03	8.597171E-15	1.079079E-16
5.730000E+03	8.720088E-15	1.095378E-16
5.740000E+03	8.842041E-15	1.111552E-16
5.750000E+03	8.962309E-15	1.127506E-16
5.760000E+03	9.080335E-15	1.143163E-16
5.770000E+03	9.195488E-15	1.158440E-16
5.780000E+03	9.307231E-15	1.173264E-16
5.790000E+03	9.414922E-15	1.187549E-16
5.800000E+03	9.518157E-15	1.201243E-16
5.810000E+03	9.616146E-15	1.214241E-16
5.820000E+03	9.708506E-15	1.226493E-16
5.830000E+03	9.794695E-15	1.237929E-16
5.840000E+03	9.874205E-15	1.248485E-16
5.850000E+03	9.946743E-15	1.258124E-16
5.860000E+03	1.001169E-14	1.266769E-16
5.870000E+03	1.006886E-14	1.274398E-16
5.880000E+03	1.011791E-14	1.280971E-16
5.890000E+03	1.015856E-14	1.286457E-16
5.900000E+03	1.019068E-14	1.290846E-16
5.910000E+03	1.021412E-14	1.294122E-16
5.920000E+03	1.022878E-14	1.296281E-16
5.930000E+03	1.023483E-14	1.297352E-16
5.940000E+03	1.023212E-14	1.297326E-16
5.950000E+03	1.022096E-14	1.296249E-16
5.960000E+03	1.020154E-14	1.294154E-16
5.970000E+03	1.017422E-14	1.291099E-16
5.980000E+03	1.013923E-14	1.287122E-16
5.990000E+03	1.009708E-14	1.282300E-16
6.000000E+03	1.004843E-14	1.276726E-16
6.010000E+03	9.993657E-15	1.270459E-16
6.020000E+03	9.933550E-15	1.263611E-16
6.030000E+03	9.868704E-15	1.256268E-16
6.040000E+03	9.800131E-15	1.248570E-16
6.050000E+03	9.728446E-15	1.240606E-16
6.060000E+03	9.654673E-15	1.232516E-16
6.070000E+03	9.579680E-15	1.224423E-16
6.080000E+03	9.504387E-15	1.216454E-16
6.090000E+03	9.429853E-15	1.208756E-16
6.100000E+03	9.356884E-15	1.201443E-16
6.110000E+03	9.286473E-15	1.194653E-16
6.120000E+03	9.219251E-15	1.188480E-16
6.130000E+03	9.155940E-15	1.183028E-16
6.140000E+03	9.096842E-15	1.178350E-16
6.150000E+03	9.041989E-15	1.174463E-16
6.160000E+03	8.990861E-15	1.171312E-16
6.170000E+03	8.942477E-15	1.168782E-16
6.180000E+03	8.895419E-15	1.166697E-16
6.190000E+03	8.848298E-15	1.164885E-16
6.200000E+03	8.801265E-15	1.163354E-16
6.210000E+03	8.755560E-15	1.162250E-16
6.220000E+03	8.713062E-15	1.161804E-16
6.230000E+03	8.675378E-15	1.162217E-16
6.240000E+03	8.643455E-15	1.163605E-16
6.250000E+03	8.617974E-15	1.166053E-16
6.260000E+03	8.598989E-15	1.169563E-16
6.270000E+03	8.586368E-15	1.174112E-16
6.280000E+03	8.579890E-15	1.179665E-16
6.290000E+03	8.579229E-15	1.186176E-16
6.300000E+03	8.583834E-15	1.193564E-16
6.310000E+03	8.593213E-15	1.201756E-16
6.320000E+03	8.607034E-15	1.210702E-16
6.330000E+03	8.624724E-15	1.220317E-16
6.340000E+03	8.645806E-15	1.230525E-16
6.350000E+03	8.669820E-15	1.241256E-16
6.360000E+03	8.696493E-15	1.252463E-16
6.370000E+03	8.725232E-15	1.264051E-16
6.380000E+03	8.755703E-15	1.275964E-16
6.390000E+03	8.787596E-15	1.288147E-16
6.400000E+03	8.820514E-15	1.300529E-16
6.410000E+03	8.854071E-15	1.313044E-16
6.420000E+03	8.887880E-15	1.325621E-16
6.430000E+03	8.921561E-15	1.338191E-16
6.440000E+03	8.954918E-15	1.350710E-16
6.450000E+03	8.987485E-15	1.363095E-16
6.460000E+03	9.018891E-15	1.375274E-16
6.470000E+03	9.048772E-15	1.387175E-16
6.480000E+03	9.076770E-15	1.398728E-16
6.490000E+03	9.102538E-15	1.409863E-16
6.500000E+03	9.125362E-15	1.420451E-16
6.510000E+03	9.145113E-15	1.430456E-16
6.520000E+03	9.161109E-15	1.439752E-16
6.530000E+03	9.172980E-15	1.448261E-16
6.540000E+03	9.180389E-15	1.455914E-16
6.550000E+03	9.183033E-15	1.462641E-16
6.560000E+03	9.180651E-15	1.468385E-16
6.570000E+03	9.172826E-15	1.473059E-16
6.580000E+03	9.159590E-15	1.476652E-16
6.590000E+03	9.140625E-15	1.479096E-16
6.600000E+03	9.115968E-15	1.480382E-16
6.610000E+03	9.085609E-15	1.480492E-16
6.620000E+03	9.049495E-15	1.479405E-16
6.630000E+03	9.007725E-15	1.477125E-16
6.640000E+03	8.960456E-15	1.473668E-16
6.650000E+03	8.907993E-15	1.469074E-16
6.660000E+03	8.850486E-15	1.463361E-16
6.670000E+03	8.788132E-15	1.456556E-16
6.680000E+03	8.721464E-15	1.448741E-16
6.690000E+03	8.650751E-15	1.439961E-16
6.700000E+03	8.576292E-15	1.430262E-16
6.710000E+03	8.498700E-15	1.419747E-16
6.720000E+03	8.418217E-15	1.408459E-16
6.730000E+03	8.335386E-15	1.396490E-16
6.740000E+03	8.250564E-15	1.383904E-16
6.750000E+03	8.164299E-15	1.370799E-16
6.760000E+03	8.076946E-15	1.357239E-16
6.770000E+03	7.989038E-15	1.343320E-16
6.780000E+03	7.900907E-15	1.329106E-16
6.790000E+03	7.812965E-15	1.314673E-16
6.800000E+03	7.725600E-15	1.300094E-16
6.810000E+03	7.639185E-15	1.285441E-16
6.820000E+03	7.554152E-15	1.270793E-16
6.830000E+03	7.470642E-15	1.256183E-16
6.840000E+03	7.388951E-15	1.241669E-16
6.850000E+03	7.309523E-15	1.227333E-16
6.860000E+03	7.232421E-15	1.213194E-16
6.870000E+03	7.157860E-15	1.199295E-16
6.880000E+03	7.086118E-15	1.185690E-16
6.890000E+03	7.017268E-15	1.172398E-16
6.900000E+03	6.951450E-15	1.159448E-16
6.910000E+03	6.888780E-15	1.146866E-16
6.920000E+03	6.829433E-15	1.134687E-16
6.930000E+03	6.773232E-15	1.122887E-16
6.940000E+03	6.720480E-15	1.111519E-16
6.950000E+03	6.671041E-15	1.100567E-16
6.960000E+03	6.625017E-15	1.090052E-16
6.970000E+03	6.582326E-15	1.079963E-16
6.980000E+03	6.542953E-15	1.070302E-16
6.990000E+03	6.506870E-15	1.061069E-16
7.000000E+03	6.474036E-15	1.052259E-16
7.010000E+03	6.444480E-15	1.043880E-16
7.020000E+03	6.417892E-15	1.035887E-16
7.030000E+03	6.394444E-15	1.028310E-16
7.040000E+03	6.373888E-15	1.021113E-16
7.050000E+03	6.356132E-15	1.014285E-16
7.060000E+03	6.341156E-15	1.007828E-16
7.070000E+03	6.328770E-15	1.001715E-16
7.080000E+03	6.318776E-15	9.959202E-17
7.090000E+03	6.311212E-15	9.904559E-17
7.100000E+03	6.305786E-15	9.852821E-17
7.110000E+03	6.302442E-15	9.803974E-17
7.120000E+03	6.301037E-15	9.757872E-17
7.130000E+03	6.301341E-15	9.714248E-17
7.140000E+03	6.303202E-15	9.672962E-17
7.150000E+03	6.306540E-15	9.634000E-17
7.160000E+03	6.311111E-15	9.597105E-17
7.170000E+03	6.316667E-15	9.562029E-17
7.180000E+03	6.323201E-15	9.528902E-17
7.190000E+03	6.330374E-15	9.497366E-17
7.200000E+03	6.338096E-15	9.467445E-17
7.210000E+03	6.346107E-15	9.438930E-17
7.220000E+03	6.354315E-15	9.411871E-17
7.230000E+03	6.362462E-15	9.386082E-17
7.240000E+03	6.370462E-15	9.361646E-17
7.250000E+03	6.378063E-15	9.338413E-17
7.260000E+03	6.385020E-15	9.316253E-17
7.270000E+03	6.391351E-15	9.295429E-17
7.280000E+03	6.396914E-15	9.275979E-17
7.290000E+03	6.401325E-15	9.257591E-17
7.300000E+03	6.404725E-15	9.240727E-17
7.310000E+03	6.406932E-15	9.225377E-17
7.320000E+03	6.407871E-15	9.211687E-17
7.330000E+03	6.407404E-15	9.199711E-17
7.340000E+03	6.405586E-15	9.189780E-17
7.350000E+03	6.402420E-15	9.182140E-17
7.360000E+03	6.397934E-15	9.177066E-17
7.370000E+03	6.392101E-15	9.174747E-17
7.380000E+03	6.385181E-15	9.175771E-17
7.390000E+03	6.377111E-15	9.180254E-17
7.400000E+03	6.368115E-15	9.188710E-17
7.410000E+03	6.358337E-15	9.201525E-17
7.420000E+03	6.347918E-15	9.219071E-17
7.430000E+03	6.336974E-15	9.241669E-17
7.440000E+03	6.325569E-15	9.269551E-17
7.450000E+03	6.313675E-15	9.302799E-17
7.460000E+03	6.301126E-15	9.341191E-17
7.470000E+03	6.287651E-15	9.384190E-17
7.480000E+03	6.272553E-15	9.430574E-17
7.490000E+03	6.254963E-15	9.478817E-17
7.500000E+03	6.233859E-15	9.527092E-17
7.510000E+03	6.208534E-15	9.573980E-17
7.520000E+03	6.178885E-15	9.618935E-17
7.530000E+03	6.145830E-15	9.662988E-17
7.540000E+03	6.110444E-15	9.707451E-17
7.550000E+03	6.073763E-15	9.753628E-17
7.560000E+03	6.036630E-15	9.802579E-17
7.570000E+03	5.999530E-15	9.854830E-17
7.580000E+03	5.962636E-15	9.910429E-17
7.590000E+03	5.926230E-15	9.969624E-17
7.600000E+03	5.890131E-15	1.003190E-16
7.610000E+03	5.854354E-15	1.009708E-16
7.620000E+03	5.818789E-15	1.016478E-16
7.630000E+03	5.783309E-15	1.023455E-16
7.640000E+03	5.747870E-15	1.030613E-16
7.650000E+03	5.712265E-15	1.037893E-16
7.660000E+03	5.676381E-15	1.045255E-16
7.670000E+03	5.640209E-15	1.052675E-16
7.680000E+03	5.603666E-15	1.060117E-16
7.690000E+03	5.566689E-15	1.067549E-16
7.700000E+03	5.529222E-15	1.074938E-16
7.710000E+03	5.491228E-15	1.082259E-16
7.720000E+03	5.452762E-15	1.089501E-16
7.730000E+03	5.413722E-15	1.096625E-16
7.740000E+03	5.374181E-15	1.103626E-16
7.750000E+03	5.334052E-15	1.110468E-16
7.760000E+03	5.293505E-15	1.117169E-16
