#wls	flux	fluxerr
1.596313E+03	2.156450E-14	4.132364E-16
1.636220E+03	2.309017E-14	4.410209E-16
1.676128E+03	2.466583E-14	4.695276E-16
1.716036E+03	2.628140E-14	4.985477E-16
1.755944E+03	2.792312E-14	5.278047E-16
1.795852E+03	2.956850E-14	5.568614E-16
1.835759E+03	3.118744E-14	5.851431E-16
1.875667E+03	3.274158E-14	6.119300E-16
1.915575E+03	3.418485E-14	6.363694E-16
1.955483E+03	3.546780E-14	6.575613E-16
1.995391E+03	3.654905E-14	6.747702E-16
2.035298E+03	3.741485E-14	6.877840E-16
2.075206E+03	3.810191E-14	6.973200E-16
2.115114E+03	3.870197E-14	7.050882E-16
2.155022E+03	3.930813E-14	7.127945E-16
2.194930E+03	3.993059E-14	7.206169E-16
2.234838E+03	4.046489E-14	7.266706E-16
2.274745E+03	4.076447E-14	7.283564E-16
2.314653E+03	4.075019E-14	7.243288E-16
2.354561E+03	4.041676E-14	7.145805E-16
2.394469E+03	3.980384E-14	6.999004E-16
2.434377E+03	3.897547E-14	6.814923E-16
2.474284E+03	3.800385E-14	6.606791E-16
2.514192E+03	3.695814E-14	6.387046E-16
2.554100E+03	3.589519E-14	6.165739E-16
2.594008E+03	3.484329E-14	5.947815E-16
2.633916E+03	3.381531E-14	5.735482E-16
2.673823E+03	3.281678E-14	5.529653E-16
2.713731E+03	3.184872E-14	5.330463E-16
2.753639E+03	3.090988E-14	5.137659E-16
2.793547E+03	2.999802E-14	4.950827E-16
2.833455E+03	2.911078E-14	4.769545E-16
2.873363E+03	2.824614E-14	4.593451E-16
2.913270E+03	2.740256E-14	4.422270E-16
2.953178E+03	2.657942E-14	4.255879E-16
2.993086E+03	2.577713E-14	4.094322E-16
3.003063E+03	2.557999E-14	4.054712E-16
3.013040E+03	2.538423E-14	4.015414E-16
3.023017E+03	2.519001E-14	3.976453E-16
3.032994E+03	2.499765E-14	3.937880E-16
3.042971E+03	2.480667E-14	3.899616E-16
3.052948E+03	2.461842E-14	3.861873E-16
3.062925E+03	2.443295E-14	3.824658E-16
3.072902E+03	2.425008E-14	3.787939E-16
3.082879E+03	2.406993E-14	3.751736E-16
3.092856E+03	2.389267E-14	3.716071E-16
3.102832E+03	2.371832E-14	3.680944E-16
3.112809E+03	2.354715E-14	3.646397E-16
3.122786E+03	2.337929E-14	3.612447E-16
3.132763E+03	2.321497E-14	3.579127E-16
3.142740E+03	2.305431E-14	3.546450E-16
3.152717E+03	2.289740E-14	3.514432E-16
3.162694E+03	2.274421E-14	3.483060E-16
3.172671E+03	2.259463E-14	3.452316E-16
3.182648E+03	2.244850E-14	3.422174E-16
3.192625E+03	2.230563E-14	3.392601E-16
3.202602E+03	2.216587E-14	3.363571E-16
3.212579E+03	2.202930E-14	3.335092E-16
3.222556E+03	2.189600E-14	3.307178E-16
3.232533E+03	2.176644E-14	3.279892E-16
3.242510E+03	2.164125E-14	3.253328E-16
3.252487E+03	2.152143E-14	3.227632E-16
3.262464E+03	2.140801E-14	3.202952E-16
3.272441E+03	2.130204E-14	3.179440E-16
3.282418E+03	2.120472E-14	3.157264E-16
3.292395E+03	2.111676E-14	3.136524E-16
3.302372E+03	2.103883E-14	3.117307E-16
3.312348E+03	2.097094E-14	3.099605E-16
3.322325E+03	2.091266E-14	3.083345E-16
3.332302E+03	2.086317E-14	3.068395E-16
3.342279E+03	2.082110E-14	3.054544E-16
3.352256E+03	2.078466E-14	3.041524E-16
3.362233E+03	2.075183E-14	3.029035E-16
3.372210E+03	2.072054E-14	3.016768E-16
3.382187E+03	2.068896E-14	3.004459E-16
3.392164E+03	2.065546E-14	2.991872E-16
3.402141E+03	2.061905E-14	2.978866E-16
3.412118E+03	2.057919E-14	2.965366E-16
3.422095E+03	2.053559E-14	2.951336E-16
3.432072E+03	2.048825E-14	2.936780E-16
3.442049E+03	2.043686E-14	2.921660E-16
3.452026E+03	2.038092E-14	2.905906E-16
3.462003E+03	2.031906E-14	2.889330E-16
3.471980E+03	2.024935E-14	2.871669E-16
3.481957E+03	2.016923E-14	2.852565E-16
3.491934E+03	2.007561E-14	2.831599E-16
3.501911E+03	1.996517E-14	2.808319E-16
3.511888E+03	1.983484E-14	2.782312E-16
3.521864E+03	1.968239E-14	2.753294E-16
3.531841E+03	1.950652E-14	2.721106E-16
3.541818E+03	1.930774E-14	2.685849E-16
3.551795E+03	1.908812E-14	2.647840E-16
3.561772E+03	1.885142E-14	2.607619E-16
3.571749E+03	1.860241E-14	2.565870E-16
3.581726E+03	1.834659E-14	2.523362E-16
3.591703E+03	1.808906E-14	2.480804E-16
3.601680E+03	1.783446E-14	2.438835E-16
3.611657E+03	1.758644E-14	2.397949E-16
3.621634E+03	1.734778E-14	2.358517E-16
3.631611E+03	1.712060E-14	2.320816E-16
3.641588E+03	1.690633E-14	2.285028E-16
3.651565E+03	1.670547E-14	2.251203E-16
3.661542E+03	1.651766E-14	2.219279E-16
3.671519E+03	1.634132E-14	2.189030E-16
3.681496E+03	1.617378E-14	2.160085E-16
3.691473E+03	1.601142E-14	2.131953E-16
3.701450E+03	1.585030E-14	2.104105E-16
3.711427E+03	1.568626E-14	2.075990E-16
3.721404E+03	1.551606E-14	2.047183E-16
3.731381E+03	1.533743E-14	2.017396E-16
3.741357E+03	1.514973E-14	1.986554E-16
3.751334E+03	1.495366E-14	1.954762E-16
3.761311E+03	1.475128E-14	1.922298E-16
3.771288E+03	1.454514E-14	1.889502E-16
3.781265E+03	1.433813E-14	1.856754E-16
3.791242E+03	1.413234E-14	1.824325E-16
3.801219E+03	1.392934E-14	1.792416E-16
3.811196E+03	1.372978E-14	1.761108E-16
3.821173E+03	1.353366E-14	1.730397E-16
3.831150E+03	1.334085E-14	1.700264E-16
3.841127E+03	1.315143E-14	1.670714E-16
3.851104E+03	1.296615E-14	1.641839E-16
3.861081E+03	1.278639E-14	1.613810E-16
3.871058E+03	1.261444E-14	1.586906E-16
3.881035E+03	1.245273E-14	1.561424E-16
3.891012E+03	1.230365E-14	1.537651E-16
3.900989E+03	1.216863E-14	1.515750E-16
3.910966E+03	1.204780E-14	1.495719E-16
3.920943E+03	1.193947E-14	1.477333E-16
3.930920E+03	1.184004E-14	1.460133E-16
3.940897E+03	1.174405E-14	1.443435E-16
3.950873E+03	1.164495E-14	1.426435E-16
3.960850E+03	1.153569E-14	1.408276E-16
3.970827E+03	1.140990E-14	1.388195E-16
3.980804E+03	1.126272E-14	1.365625E-16
3.990781E+03	1.109184E-14	1.340315E-16
4.000758E+03	1.089798E-14	1.312378E-16
4.010735E+03	1.068520E-14	1.282333E-16
4.020712E+03	1.046055E-14	1.251045E-16
4.030689E+03	1.023329E-14	1.219633E-16
4.040666E+03	1.001366E-14	1.189318E-16
4.050643E+03	9.811633E-15	1.161271E-16
4.060620E+03	9.635545E-15	1.136452E-16
4.070597E+03	9.491480E-15	1.115545E-16
4.080574E+03	9.382589E-15	1.098880E-16
4.090551E+03	9.309157E-15	1.086446E-16
4.100528E+03	9.268512E-15	1.077890E-16
4.110505E+03	9.255809E-15	1.072610E-16
4.120482E+03	9.264348E-15	1.069797E-16
4.130459E+03	9.286109E-15	1.068504E-16
4.140436E+03	9.312725E-15	1.067755E-16
4.150413E+03	9.336003E-15	1.066608E-16
4.160390E+03	9.348572E-15	1.064230E-16
4.170366E+03	9.344497E-15	1.059960E-16
4.180343E+03	9.319592E-15	1.053346E-16
4.190320E+03	9.271323E-15	1.044128E-16
4.200297E+03	9.198855E-15	1.032242E-16
4.210274E+03	9.102891E-15	1.017795E-16
4.220251E+03	8.985518E-15	1.001049E-16
4.230228E+03	8.850365E-15	9.824320E-17
4.240205E+03	8.702229E-15	9.624968E-17
4.250182E+03	8.546778E-15	9.418832E-17
4.260159E+03	8.389751E-15	9.212301E-17
4.270136E+03	8.236311E-15	9.011041E-17
4.280113E+03	8.091044E-15	8.820007E-17
4.290090E+03	7.957299E-15	8.642735E-17
4.300067E+03	7.837431E-15	8.481629E-17
4.310044E+03	7.732656E-15	8.337830E-17
4.320021E+03	7.643028E-15	8.211212E-17
4.329998E+03	7.567591E-15	8.100571E-17
4.339975E+03	7.504454E-15	8.003718E-17
4.349952E+03	7.450817E-15	7.917530E-17
4.359929E+03	7.403123E-15	7.838126E-17
4.369906E+03	7.356700E-15	7.760507E-17
4.379882E+03	7.306663E-15	7.679521E-17
4.389859E+03	7.250901E-15	7.592996E-17
4.399836E+03	7.190731E-15	7.502367E-17
4.409813E+03	7.128509E-15	7.410135E-17
4.419790E+03	7.067895E-15	7.320109E-17
4.429767E+03	7.014070E-15	7.237613E-17
4.439744E+03	6.972922E-15	7.168621E-17
4.449721E+03	6.950054E-15	7.118725E-17
4.459698E+03	6.949620E-15	7.091954E-17
4.469675E+03	6.973532E-15	7.089997E-17
4.479652E+03	7.020877E-15	7.111652E-17
4.489629E+03	7.087932E-15	7.152897E-17
4.499606E+03	7.168484E-15	7.207264E-17
4.509583E+03	7.254645E-15	7.266701E-17
4.519560E+03	7.337657E-15	7.322406E-17
4.529537E+03	7.409006E-15	7.365951E-17
4.539514E+03	7.461591E-15	7.390437E-17
4.549491E+03	7.490197E-15	7.390925E-17
4.559468E+03	7.492107E-15	7.365013E-17
4.569445E+03	7.466935E-15	7.312621E-17
4.579422E+03	7.416348E-15	7.235676E-17
4.589398E+03	7.343568E-15	7.137588E-17
4.599375E+03	7.252522E-15	7.022405E-17
4.609352E+03	7.147417E-15	6.894383E-17
4.619329E+03	7.032458E-15	6.757718E-17
4.629306E+03	6.911603E-15	6.616304E-17
4.639283E+03	6.788190E-15	6.473386E-17
4.649260E+03	6.664888E-15	6.331525E-17
4.659237E+03	6.543566E-15	6.192488E-17
4.669214E+03	6.425225E-15	6.057193E-17
4.679191E+03	6.310293E-15	5.926008E-17
4.689168E+03	6.198806E-15	5.798928E-17
4.699145E+03	6.090286E-15	5.675470E-17
4.709122E+03	5.984318E-15	5.555212E-17
4.719099E+03	5.880407E-15	5.437670E-17
4.729076E+03	5.778159E-15	5.322456E-17
4.739053E+03	5.677345E-15	5.209341E-17
4.749030E+03	5.577946E-15	5.098290E-17
4.759007E+03	5.480141E-15	4.989451E-17
4.768984E+03	5.384263E-15	4.883106E-17
4.778961E+03	5.290868E-15	4.779737E-17
4.788938E+03	5.200670E-15	4.679959E-17
4.798915E+03	5.114496E-15	4.584478E-17
4.808891E+03	5.033169E-15	4.493984E-17
4.818868E+03	4.957675E-15	4.409305E-17
4.828845E+03	4.888911E-15	4.331173E-17
4.838822E+03	4.827736E-15	4.260275E-17
4.848799E+03	4.774838E-15	4.197136E-17
4.858776E+03	4.730728E-15	4.142121E-17
4.868753E+03	4.695637E-15	4.095338E-17
4.878730E+03	4.669420E-15	4.056571E-17
4.888707E+03	4.651578E-15	4.025300E-17
4.898684E+03	4.641334E-15	4.000769E-17
4.908661E+03	4.637511E-15	3.981895E-17
4.918638E+03	4.638855E-15	3.967543E-17
4.928615E+03	4.643906E-15	3.956419E-17
4.938592E+03	4.651336E-15	3.947364E-17
4.948569E+03	4.659907E-15	3.939309E-17
4.958546E+03	4.668498E-15	3.931305E-17
4.968523E+03	4.676297E-15	3.922673E-17
4.978500E+03	4.682728E-15	3.912944E-17
4.988477E+03	4.687427E-15	3.901831E-17
4.998454E+03	4.690157E-15	3.889160E-17
5.008431E+03	4.690823E-15	3.874874E-17
5.018407E+03	4.689336E-15	3.858923E-17
5.028384E+03	4.685651E-15	3.841295E-17
5.038361E+03	4.679746E-15	3.821997E-17
5.048338E+03	4.671433E-15	3.800899E-17
5.058315E+03	4.660761E-15	3.778067E-17
5.068292E+03	4.647717E-15	3.753517E-17
5.078269E+03	4.632584E-15	3.727499E-17
5.088246E+03	4.615799E-15	3.700388E-17
5.098223E+03	4.598096E-15	3.672786E-17
5.108200E+03	4.580619E-15	3.645615E-17
5.118177E+03	4.564752E-15	3.619973E-17
5.128154E+03	4.552182E-15	3.597185E-17
5.138131E+03	4.544718E-15	3.578650E-17
5.148108E+03	4.544192E-15	3.565768E-17
5.158085E+03	4.552237E-15	3.559764E-17
5.168062E+03	4.569851E-15	3.561350E-17
5.178039E+03	4.597569E-15	3.570876E-17
5.188016E+03	4.634957E-15	3.587933E-17
5.197993E+03	4.680687E-15	3.611433E-17
5.207970E+03	4.732486E-15	3.639576E-17
5.217947E+03	4.787384E-15	3.670053E-17
5.227923E+03	4.841925E-15	3.700212E-17
5.237900E+03	4.892518E-15	3.727337E-17
5.247877E+03	4.935833E-15	3.748937E-17
5.257854E+03	4.969306E-15	3.763135E-17
5.267831E+03	4.991153E-15	3.768664E-17
5.277808E+03	5.000757E-15	3.765145E-17
5.287785E+03	4.998487E-15	3.752942E-17
5.297762E+03	4.985350E-15	3.732892E-17
5.307739E+03	4.962985E-15	3.706288E-17
5.317716E+03	4.933113E-15	3.674472E-17
5.327693E+03	4.897530E-15	3.638823E-17
5.337670E+03	4.857686E-15	3.600447E-17
5.347647E+03	4.814697E-15	3.560192E-17
5.357624E+03	4.769634E-15	3.518863E-17
5.367601E+03	4.723476E-15	3.477189E-17
5.377578E+03	4.677113E-15	3.435827E-17
5.387555E+03	4.631368E-15	3.395378E-17
5.397532E+03	4.586714E-15	3.356182E-17
5.407509E+03	4.543037E-15	3.318149E-17
5.417486E+03	4.499672E-15	3.280784E-17
5.427463E+03	4.456194E-15	3.243777E-17
5.437440E+03	4.412856E-15	3.207306E-17
5.447416E+03	4.370411E-15	3.171913E-17
5.457393E+03	4.330501E-15	3.138780E-17
5.467370E+03	4.295477E-15	3.109593E-17
5.477347E+03	4.268988E-15	3.086964E-17
5.487324E+03	4.255620E-15	3.074174E-17
5.497301E+03	4.248160E-15	3.065982E-17
5.507278E+03	4.242694E-15	3.059547E-17
5.517255E+03	4.236660E-15	3.053012E-17
5.527232E+03	4.228604E-15	3.045325E-17
5.537209E+03	4.218464E-15	3.036437E-17
5.547186E+03	4.207423E-15	3.027195E-17
5.557163E+03	4.197390E-15	3.018965E-17
5.567140E+03	4.190822E-15	3.013507E-17
5.577117E+03	4.190704E-15	3.012957E-17
5.587094E+03	4.200255E-15	3.019623E-17
5.597071E+03	4.222511E-15	3.035683E-17
5.607048E+03	4.260078E-15	3.063009E-17
5.617025E+03	4.314619E-15	3.102803E-17
5.627002E+03	4.386689E-15	3.155477E-17
5.636979E+03	4.475461E-15	3.220450E-17
5.646956E+03	4.578690E-15	3.296128E-17
5.656932E+03	4.692832E-15	3.379986E-17
5.666909E+03	4.813438E-15	3.468841E-17
5.676886E+03	4.935279E-15	3.558943E-17
5.686863E+03	5.053000E-15	3.646444E-17
5.696840E+03	5.161639E-15	3.727764E-17
5.706817E+03	5.256874E-15	3.799776E-17
5.716794E+03	5.335273E-15	3.859978E-17
5.726771E+03	5.394051E-15	3.906326E-17
5.736748E+03	5.431189E-15	3.937317E-17
5.746725E+03	5.445203E-15	3.951823E-17
5.756702E+03	5.434975E-15	3.948974E-17
5.766679E+03	5.400047E-15	3.928367E-17
5.776656E+03	5.340889E-15	3.890269E-17
5.786633E+03	5.258830E-15	3.835571E-17
5.796610E+03	5.156531E-15	3.766134E-17
5.806587E+03	5.037685E-15	3.684582E-17
5.816564E+03	4.907076E-15	3.594349E-17
5.826541E+03	4.769770E-15	3.499094E-17
5.836518E+03	4.631070E-15	3.402673E-17
5.846495E+03	4.495611E-15	3.308473E-17
5.856472E+03	4.367044E-15	3.219179E-17
5.866449E+03	4.247749E-15	3.136556E-17
5.876425E+03	4.138756E-15	3.061388E-17
5.886402E+03	4.039957E-15	2.993620E-17
5.896379E+03	3.950747E-15	2.932831E-17
5.906356E+03	3.870326E-15	2.878453E-17
5.916333E+03	3.798416E-15	2.830306E-17
5.926310E+03	3.735092E-15	2.788474E-17
5.936287E+03	3.680425E-15	2.753038E-17
5.946264E+03	3.634656E-15	2.724210E-17
5.956241E+03	3.597647E-15	2.701920E-17
5.966218E+03	3.569271E-15	2.686109E-17
5.976195E+03	3.549194E-15	2.676558E-17
5.986172E+03	3.537090E-15	2.673059E-17
5.996149E+03	3.532295E-15	2.675143E-17
6.006126E+03	3.533932E-15	2.682179E-17
6.016103E+03	3.540555E-15	2.693097E-17
6.026080E+03	3.550484E-15	2.706639E-17
6.036057E+03	3.561455E-15	2.721093E-17
6.046034E+03	3.571440E-15	2.734909E-17
6.056011E+03	3.578956E-15	2.746945E-17
6.065988E+03	3.583384E-15	2.756711E-17
6.075965E+03	3.584799E-15	2.764247E-17
6.085941E+03	3.583589E-15	2.769836E-17
6.095918E+03	3.580014E-15	2.773664E-17
6.105895E+03	3.574148E-15	2.775774E-17
6.115872E+03	3.566119E-15	2.776253E-17
6.125849E+03	3.556149E-15	2.775261E-17
6.135826E+03	3.544709E-15	2.773153E-17
6.145803E+03	3.532314E-15	2.770324E-17
6.155780E+03	3.519643E-15	2.767301E-17
6.165757E+03	3.507306E-15	2.764563E-17
6.175734E+03	3.495878E-15	2.762564E-17
6.185711E+03	3.485784E-15	2.761646E-17
6.195688E+03	3.477447E-15	2.762152E-17
6.205665E+03	3.471262E-15	2.764407E-17
6.215642E+03	3.467715E-15	2.768813E-17
6.225619E+03	3.467312E-15	2.775791E-17
6.235596E+03	3.470424E-15	2.785658E-17
6.245573E+03	3.477332E-15	2.798663E-17
6.255550E+03	3.487887E-15	2.814712E-17
6.265527E+03	3.501634E-15	2.833461E-17
6.275504E+03	3.517505E-15	2.854065E-17
6.285481E+03	3.534285E-15	2.875551E-17
6.295457E+03	3.550367E-15	2.896615E-17
6.305434E+03	3.564388E-15	2.916140E-17
6.315411E+03	3.575316E-15	2.933266E-17
6.325388E+03	3.582730E-15	2.947627E-17
6.335365E+03	3.587113E-15	2.959598E-17
6.345342E+03	3.589531E-15	2.970038E-17
6.355319E+03	3.591588E-15	2.980264E-17
6.365296E+03	3.594939E-15	2.991646E-17
6.375273E+03	3.601025E-15	3.005394E-17
6.385250E+03	3.610751E-15	3.022282E-17
6.395227E+03	3.624600E-15	3.042739E-17
6.405204E+03	3.642048E-15	3.066352E-17
6.415181E+03	3.662069E-15	3.092278E-17
6.425158E+03	3.683098E-15	3.119210E-17
6.435135E+03	3.703214E-15	3.145521E-17
6.445112E+03	3.720472E-15	3.169545E-17
6.455089E+03	3.733109E-15	3.189752E-17
6.465066E+03	3.739689E-15	3.204873E-17
6.475043E+03	3.738904E-15	3.213735E-17
6.485020E+03	3.729022E-15	3.214787E-17
6.494997E+03	3.707802E-15	3.206016E-17
6.504974E+03	3.671673E-15	3.184236E-17
6.514950E+03	3.617952E-15	3.146995E-17
6.524927E+03	3.548279E-15	3.095582E-17
6.534904E+03	3.467936E-15	3.034493E-17
6.544881E+03	3.383720E-15	2.969605E-17
6.554858E+03	3.300476E-15	2.905149E-17
6.564835E+03	3.221284E-15	2.843849E-17
6.574812E+03	3.147991E-15	2.787369E-17
6.584789E+03	3.081451E-15	2.736511E-17
6.594766E+03	3.021998E-15	2.691623E-17
6.604743E+03	2.969644E-15	2.652770E-17
6.614720E+03	2.924086E-15	2.619733E-17
6.624697E+03	2.885050E-15	2.592318E-17
6.634674E+03	2.852142E-15	2.570221E-17
6.644651E+03	2.825027E-15	2.553183E-17
6.654628E+03	2.803359E-15	2.540937E-17
6.664605E+03	2.786816E-15	2.533230E-17
6.674582E+03	2.774927E-15	2.529674E-17
6.684559E+03	2.767230E-15	2.529879E-17
6.694536E+03	2.763261E-15	2.533452E-17
6.704513E+03	2.762403E-15	2.539855E-17
6.714490E+03	2.764042E-15	2.548544E-17
6.724466E+03	2.767511E-15	2.558920E-17
6.734443E+03	2.772068E-15	2.570309E-17
6.744420E+03	2.776902E-15	2.581964E-17
6.754397E+03	2.781156E-15	2.593085E-17
6.764374E+03	2.784032E-15	2.602923E-17
6.774351E+03	2.784672E-15	2.610661E-17
6.784328E+03	2.782569E-15	2.615804E-17
6.794305E+03	2.777372E-15	2.617999E-17
6.804282E+03	2.769210E-15	2.617343E-17
6.814259E+03	2.758312E-15	2.614032E-17
6.824236E+03	2.745332E-15	2.608664E-17
6.834213E+03	2.730973E-15	2.601893E-17
6.844190E+03	2.716097E-15	2.594532E-17
6.854167E+03	2.701387E-15	2.587231E-17
6.864144E+03	2.687474E-15	2.580596E-17
6.874121E+03	2.674642E-15	2.574907E-17
6.884098E+03	2.663025E-15	2.570300E-17
6.894075E+03	2.652336E-15	2.566508E-17
6.904052E+03	2.642300E-15	2.563270E-17
6.914029E+03	2.632334E-15	2.560023E-17
6.924006E+03	2.621863E-15	2.556208E-17
6.933983E+03	2.610394E-15	2.551338E-17
6.943959E+03	2.597351E-15	2.544842E-17
6.953936E+03	2.582441E-15	2.536421E-17
6.963913E+03	2.565429E-15	2.525830E-17
6.973890E+03	2.546132E-15	2.512875E-17
6.983867E+03	2.524617E-15	2.497605E-17
6.993844E+03	2.500800E-15	2.479922E-17
7.003821E+03	2.474790E-15	2.459918E-17
7.013798E+03	2.446840E-15	2.437832E-17
7.023775E+03	2.417259E-15	2.413959E-17
7.033752E+03	2.386405E-15	2.388647E-17
7.043729E+03	2.354832E-15	2.362443E-17
7.053706E+03	2.323041E-15	2.335848E-17
7.063683E+03	2.291599E-15	2.309433E-17
7.073660E+03	2.261030E-15	2.283731E-17
7.083637E+03	2.231782E-15	2.259201E-17
7.093614E+03	2.204241E-15	2.236246E-17
7.103591E+03	2.178573E-15	2.215048E-17
7.113568E+03	2.154836E-15	2.195678E-17
7.123545E+03	2.133152E-15	2.178274E-17
7.133522E+03	2.113399E-15	2.162726E-17
7.143499E+03	2.095586E-15	2.149059E-17
7.153475E+03	2.079680E-15	2.137250E-17
7.163452E+03	2.065657E-15	2.127288E-17
7.173429E+03	2.053457E-15	2.119125E-17
7.183406E+03	2.043116E-15	2.112808E-17
7.193383E+03	2.034601E-15	2.108318E-17
7.203360E+03	2.027799E-15	2.105549E-17
7.213337E+03	2.022635E-15	2.104434E-17
7.223314E+03	2.018820E-15	2.104683E-17
7.233291E+03	2.016227E-15	2.106171E-17
7.243268E+03	2.014414E-15	2.108446E-17
7.253245E+03	2.012970E-15	2.111079E-17
7.263222E+03	2.011435E-15	2.113591E-17
7.273199E+03	2.009311E-15	2.115459E-17
7.283176E+03	2.006132E-15	2.116187E-17
7.293153E+03	2.001348E-15	2.115186E-17
7.303130E+03	1.994455E-15	2.111916E-17
7.313107E+03	1.985192E-15	2.106087E-17
7.323084E+03	1.973280E-15	2.097388E-17
7.333061E+03	1.958624E-15	2.085705E-17
7.343038E+03	1.941270E-15	2.071071E-17
7.353015E+03	1.921390E-15	2.053652E-17
7.362991E+03	1.899214E-15	2.033683E-17
7.372968E+03	1.875211E-15	2.011655E-17
7.382945E+03	1.849774E-15	1.987978E-17
7.392922E+03	1.823323E-15	1.963101E-17
7.402899E+03	1.796417E-15	1.937618E-17
7.412876E+03	1.769436E-15	1.911939E-17
7.422853E+03	1.742701E-15	1.886415E-17
7.432830E+03	1.716588E-15	1.861453E-17
7.442807E+03	1.691285E-15	1.837263E-17
7.452784E+03	1.666782E-15	1.813839E-17
7.462761E+03	1.643165E-15	1.791280E-17
7.472738E+03	1.620147E-15	1.769281E-17
7.482715E+03	1.597574E-15	1.747675E-17
7.492692E+03	1.575082E-15	1.726069E-17
7.502669E+03	1.552529E-15	1.704306E-17
7.512646E+03	1.529585E-15	1.682025E-17
7.522623E+03	1.506233E-15	1.659205E-17
7.532600E+03	1.482469E-15	1.635841E-17
7.542577E+03	1.458484E-15	1.612142E-17
7.552554E+03	1.434625E-15	1.588491E-17
7.562531E+03	1.411402E-15	1.565456E-17
7.572508E+03	1.389348E-15	1.543632E-17
7.582484E+03	1.369071E-15	1.523705E-17
7.592461E+03	1.351204E-15	1.506390E-17
7.602438E+03	1.336233E-15	1.492244E-17
7.612415E+03	1.324562E-15	1.481736E-17
7.622392E+03	1.316431E-15	1.475156E-17
7.632369E+03	1.311929E-15	1.472622E-17
7.642346E+03	1.310879E-15	1.473958E-17
7.652323E+03	1.312998E-15	1.478866E-17
7.662300E+03	1.317751E-15	1.486762E-17
7.672277E+03	1.324661E-15	1.497121E-17
7.682254E+03	1.333157E-15	1.509311E-17
7.692231E+03	1.342634E-15	1.522656E-17
7.702208E+03	1.352734E-15	1.536755E-17
7.712185E+03	1.363157E-15	1.551272E-17
7.722162E+03	1.373674E-15	1.565950E-17
7.732139E+03	1.384349E-15	1.580862E-17
7.742116E+03	1.395243E-15	1.596080E-17
