#wls	flux	fluxerr
1.596313E+03	2.097741E-14	2.467843E-16
1.636220E+03	2.223989E-14	2.607837E-16
1.676128E+03	2.352279E-14	2.749036E-16
1.716036E+03	2.481665E-14	2.890275E-16
1.755944E+03	2.610938E-14	3.030100E-16
1.795852E+03	2.738200E-14	3.166273E-16
1.835759E+03	2.861027E-14	3.295989E-16
1.875667E+03	2.976418E-14	3.415822E-16
1.915575E+03	3.080991E-14	3.521963E-16
1.955483E+03	3.171330E-14	3.610635E-16
1.995391E+03	3.245131E-14	3.679389E-16
2.035298E+03	3.302927E-14	3.729034E-16
2.075206E+03	3.350005E-14	3.765721E-16
2.115114E+03	3.395840E-14	3.800193E-16
2.155022E+03	3.449198E-14	3.842212E-16
2.194930E+03	3.511573E-14	3.893300E-16
2.234838E+03	3.575269E-14	3.944797E-16
2.274745E+03	3.628469E-14	3.983684E-16
2.314653E+03	3.662054E-14	4.000152E-16
2.354561E+03	3.672506E-14	3.990688E-16
2.394469E+03	3.660982E-14	3.956933E-16
2.434377E+03	3.631361E-14	3.903438E-16
2.474284E+03	3.588644E-14	3.835879E-16
2.514192E+03	3.537854E-14	3.759843E-16
2.554100E+03	3.483404E-14	3.680158E-16
2.594008E+03	3.428645E-14	3.600428E-16
2.633916E+03	3.374560E-14	3.521703E-16
2.673823E+03	3.320999E-14	3.443835E-16
2.713731E+03	3.267670E-14	3.366530E-16
2.753639E+03	3.214244E-14	3.289468E-16
2.793547E+03	3.160413E-14	3.212355E-16
2.833455E+03	3.105884E-14	3.134928E-16
2.873363E+03	3.050376E-14	3.056939E-16
2.913270E+03	2.993615E-14	2.978159E-16
2.953178E+03	2.935368E-14	2.898410E-16
2.993086E+03	2.875450E-14	2.817566E-16
3.003063E+03	2.860199E-14	2.797182E-16
3.013040E+03	2.844830E-14	2.776720E-16
3.023017E+03	2.829353E-14	2.756193E-16
3.032994E+03	2.813776E-14	2.735609E-16
3.042971E+03	2.798067E-14	2.714938E-16
3.052948E+03	2.782349E-14	2.694299E-16
3.062925E+03	2.766594E-14	2.673668E-16
3.072902E+03	2.750793E-14	2.653035E-16
3.082879E+03	2.734944E-14	2.632399E-16
3.092856E+03	2.719045E-14	2.611760E-16
3.102832E+03	2.703137E-14	2.591156E-16
3.112809E+03	2.687259E-14	2.570627E-16
3.122786E+03	2.671461E-14	2.550219E-16
3.132763E+03	2.655822E-14	2.530009E-16
3.142740E+03	2.640395E-14	2.510045E-16
3.152717E+03	2.625214E-14	2.490360E-16
3.162694E+03	2.610282E-14	2.470954E-16
3.172671E+03	2.595548E-14	2.451780E-16
3.182648E+03	2.580935E-14	2.432763E-16
3.192625E+03	2.566299E-14	2.413768E-16
3.202602E+03	2.551524E-14	2.394686E-16
3.212579E+03	2.536480E-14	2.375398E-16
3.222556E+03	2.521110E-14	2.355852E-16
3.232533E+03	2.505423E-14	2.336057E-16
3.242510E+03	2.489520E-14	2.316112E-16
3.252487E+03	2.473615E-14	2.296215E-16
3.262464E+03	2.458007E-14	2.276646E-16
3.272441E+03	2.443045E-14	2.257724E-16
3.282418E+03	2.429067E-14	2.239758E-16
3.292395E+03	2.416399E-14	2.223042E-16
3.302372E+03	2.405270E-14	2.207779E-16
3.312348E+03	2.395806E-14	2.194074E-16
3.322325E+03	2.387979E-14	2.181892E-16
3.332302E+03	2.381646E-14	2.171092E-16
3.342279E+03	2.376559E-14	2.161440E-16
3.352256E+03	2.372393E-14	2.152633E-16
3.362233E+03	2.368772E-14	2.144326E-16
3.372210E+03	2.365331E-14	2.136186E-16
3.382187E+03	2.361722E-14	2.127896E-16
3.392164E+03	2.357702E-14	2.119243E-16
3.402141E+03	2.353375E-14	2.110320E-16
3.412118E+03	2.348857E-14	2.101234E-16
3.422095E+03	2.344193E-14	2.092027E-16
3.432072E+03	2.339531E-14	2.082832E-16
3.442049E+03	2.334941E-14	2.073711E-16
3.452026E+03	2.330336E-14	2.064587E-16
3.462003E+03	2.325474E-14	2.055245E-16
3.471980E+03	2.320089E-14	2.045455E-16
3.481957E+03	2.313858E-14	2.034937E-16
3.491934E+03	2.306328E-14	2.023296E-16
3.501911E+03	2.296963E-14	2.010075E-16
3.511888E+03	2.285255E-14	1.994841E-16
3.521864E+03	2.270988E-14	1.977423E-16
3.531841E+03	2.253845E-14	1.957561E-16
3.541818E+03	2.233644E-14	1.935119E-16
3.551795E+03	2.211134E-14	1.910764E-16
3.561772E+03	2.187072E-14	1.885163E-16
3.571749E+03	2.162172E-14	1.858941E-16
3.581726E+03	2.138035E-14	1.833479E-16
3.591703E+03	2.115600E-14	1.809573E-16
3.601680E+03	2.094837E-14	1.787188E-16
3.611657E+03	2.075802E-14	1.766360E-16
3.621634E+03	2.058381E-14	1.746982E-16
3.631611E+03	2.042475E-14	1.728960E-16
3.641588E+03	2.028447E-14	1.712591E-16
3.651565E+03	2.016656E-14	1.698164E-16
3.661542E+03	2.007175E-14	1.685727E-16
3.671519E+03	1.999810E-14	1.675102E-16
3.681496E+03	1.993990E-14	1.665798E-16
3.691473E+03	1.988801E-14	1.657043E-16
3.701450E+03	1.983094E-14	1.647881E-16
3.711427E+03	1.975653E-14	1.637305E-16
3.721404E+03	1.965435E-14	1.624466E-16
3.731381E+03	1.952044E-14	1.609056E-16
3.741357E+03	1.935415E-14	1.591045E-16
3.751334E+03	1.915824E-14	1.570678E-16
3.761311E+03	1.894396E-14	1.548898E-16
3.771288E+03	1.872321E-14	1.526686E-16
3.781265E+03	1.850614E-14	1.504873E-16
3.791242E+03	1.830140E-14	1.484158E-16
3.801219E+03	1.811288E-14	1.464848E-16
3.811196E+03	1.793901E-14	1.446805E-16
3.821173E+03	1.777574E-14	1.429695E-16
3.831150E+03	1.761615E-14	1.412955E-16
3.841127E+03	1.745328E-14	1.396026E-16
3.851104E+03	1.728614E-14	1.378833E-16
3.861081E+03	1.711599E-14	1.361478E-16
3.871058E+03	1.694647E-14	1.344253E-16
3.881035E+03	1.678602E-14	1.327824E-16
3.891012E+03	1.664315E-14	1.312859E-16
3.900989E+03	1.652408E-14	1.299833E-16
3.910966E+03	1.643074E-14	1.288884E-16
3.920943E+03	1.636257E-14	1.279951E-16
3.930920E+03	1.631608E-14	1.272745E-16
3.940897E+03	1.628051E-14	1.266416E-16
3.950873E+03	1.624279E-14	1.259942E-16
3.960850E+03	1.619049E-14	1.252365E-16
3.970827E+03	1.611566E-14	1.243081E-16
3.980804E+03	1.600885E-14	1.231377E-16
3.990781E+03	1.586088E-14	1.216571E-16
4.000758E+03	1.567749E-14	1.199129E-16
4.010735E+03	1.546248E-14	1.179363E-16
4.020712E+03	1.521862E-14	1.157504E-16
4.030689E+03	1.496549E-14	1.135057E-16
4.040666E+03	1.472267E-14	1.113508E-16
4.050643E+03	1.450550E-14	1.094006E-16
4.060620E+03	1.432496E-14	1.077362E-16
4.070597E+03	1.419241E-14	1.064404E-16
4.080574E+03	1.411661E-14	1.055758E-16
4.090551E+03	1.409051E-14	1.050861E-16
4.100528E+03	1.410672E-14	1.049133E-16
4.110505E+03	1.415930E-14	1.050108E-16
4.120482E+03	1.423251E-14	1.052601E-16
4.130459E+03	1.431040E-14	1.055422E-16
4.140436E+03	1.437995E-14	1.057610E-16
4.150413E+03	1.442923E-14	1.058299E-16
4.160390E+03	1.444790E-14	1.056742E-16
4.170366E+03	1.442914E-14	1.052464E-16
4.180343E+03	1.437569E-14	1.045686E-16
4.190320E+03	1.429173E-14	1.036731E-16
4.200297E+03	1.418107E-14	1.025896E-16
4.210274E+03	1.404998E-14	1.013646E-16
4.220251E+03	1.390157E-14	1.000218E-16
4.230228E+03	1.373750E-14	9.857427E-17
4.240205E+03	1.356843E-14	9.709905E-17
4.250182E+03	1.340326E-14	9.565987E-17
4.260159E+03	1.324613E-14	9.428615E-17
4.270136E+03	1.309939E-14	9.299390E-17
4.280113E+03	1.296464E-14	9.179393E-17
4.290090E+03	1.284283E-14	9.069221E-17
4.300067E+03	1.272955E-14	8.965702E-17
4.310044E+03	1.262388E-14	8.868138E-17
4.320021E+03	1.252829E-14	8.778210E-17
4.329998E+03	1.243864E-14	8.692965E-17
4.339975E+03	1.235474E-14	8.612230E-17
4.349952E+03	1.228007E-14	8.538389E-17
4.359929E+03	1.221084E-14	8.468754E-17
4.369906E+03	1.214471E-14	8.401680E-17
4.379882E+03	1.208175E-14	8.337197E-17
4.389859E+03	1.202031E-14	8.274132E-17
4.399836E+03	1.194781E-14	8.203853E-17
4.409813E+03	1.185374E-14	8.119199E-17
4.419790E+03	1.174466E-14	8.024757E-17
4.429767E+03	1.163407E-14	7.929805E-17
4.439744E+03	1.153721E-14	7.844705E-17
4.449721E+03	1.146563E-14	7.777216E-17
4.459698E+03	1.143411E-14	7.737208E-17
4.469675E+03	1.145612E-14	7.733578E-17
4.479652E+03	1.152419E-14	7.761034E-17
4.489629E+03	1.162879E-14	7.812948E-17
4.499606E+03	1.176115E-14	7.883278E-17
4.509583E+03	1.190389E-14	7.960262E-17
4.519560E+03	1.203636E-14	8.030083E-17
4.529537E+03	1.214030E-14	8.080641E-17
4.539514E+03	1.220784E-14	8.106835E-17
4.549491E+03	1.223180E-14	8.104083E-17
4.559468E+03	1.220663E-14	8.068915E-17
4.569445E+03	1.213906E-14	8.005992E-17
4.579422E+03	1.203663E-14	7.920455E-17
4.589398E+03	1.190548E-14	7.816494E-17
4.599375E+03	1.175467E-14	7.700161E-17
4.609352E+03	1.159163E-14	7.576396E-17
4.619329E+03	1.142177E-14	7.448780E-17
4.629306E+03	1.125015E-14	7.320624E-17
4.639283E+03	1.108116E-14	7.194775E-17
4.649260E+03	1.091748E-14	7.072957E-17
4.659237E+03	1.075903E-14	6.955097E-17
4.669214E+03	1.060685E-14	6.841824E-17
4.679191E+03	1.046286E-14	6.734351E-17
4.689168E+03	1.032753E-14	6.632936E-17
4.699145E+03	1.020211E-14	6.538346E-17
4.709122E+03	1.008886E-14	6.451976E-17
4.719099E+03	9.990832E-15	6.375724E-17
4.729076E+03	9.909276E-15	6.310317E-17
4.739053E+03	9.843113E-15	6.255002E-17
4.749030E+03	9.792405E-15	6.209755E-17
4.759007E+03	9.754738E-15	6.172985E-17
4.768984E+03	9.724759E-15	6.141257E-17
4.778961E+03	9.698479E-15	6.112027E-17
4.788938E+03	9.671746E-15	6.082669E-17
4.798915E+03	9.640590E-15	6.050692E-17
4.808891E+03	9.600695E-15	6.013408E-17
4.818868E+03	9.550902E-15	5.970127E-17
4.828845E+03	9.492599E-15	5.921750E-17
4.838822E+03	9.425933E-15	5.868400E-17
4.848799E+03	9.354359E-15	5.812253E-17
4.858776E+03	9.283196E-15	5.756624E-17
4.868753E+03	9.214392E-15	5.702717E-17
4.878730E+03	9.150275E-15	5.651958E-17
4.888707E+03	9.093960E-15	5.606251E-17
4.898684E+03	9.043539E-15	5.564392E-17
4.908661E+03	8.997777E-15	5.525601E-17
4.918638E+03	8.956369E-15	5.489674E-17
4.928615E+03	8.917306E-15	5.455366E-17
4.938592E+03	8.879219E-15	5.421834E-17
4.948569E+03	8.841331E-15	5.388600E-17
4.958546E+03	8.803423E-15	5.355529E-17
4.968523E+03	8.765043E-15	5.322350E-17
4.978500E+03	8.725591E-15	5.288698E-17
4.988477E+03	8.685345E-15	5.254745E-17
4.998454E+03	8.644550E-15	5.220643E-17
5.008431E+03	8.603452E-15	5.186541E-17
5.018407E+03	8.561974E-15	5.152395E-17
5.028384E+03	8.519972E-15	5.118119E-17
5.038361E+03	8.477137E-15	5.083530E-17
5.048338E+03	8.432646E-15	5.048137E-17
5.058315E+03	8.385665E-15	5.011449E-17
5.068292E+03	8.335608E-15	4.973122E-17
5.078269E+03	8.282631E-15	4.933260E-17
5.088246E+03	8.226648E-15	4.891819E-17
5.098223E+03	8.167940E-15	4.848975E-17
5.108200E+03	8.107875E-15	4.805548E-17
5.118177E+03	8.048026E-15	4.762470E-17
5.128154E+03	7.990747E-15	4.721132E-17
5.138131E+03	7.939266E-15	4.683431E-17
5.148108E+03	7.898239E-15	4.652092E-17
5.158085E+03	7.872372E-15	4.629858E-17
5.168062E+03	7.863274E-15	4.617631E-17
5.178039E+03	7.873079E-15	4.616623E-17
5.188016E+03	7.903675E-15	4.627891E-17
5.197993E+03	7.950655E-15	4.648812E-17
5.207970E+03	8.009275E-15	4.676578E-17
5.217947E+03	8.074786E-15	4.708398E-17
5.227923E+03	8.139759E-15	4.739934E-17
5.237900E+03	8.196106E-15	4.766491E-17
5.247877E+03	8.236701E-15	4.783955E-17
5.257854E+03	8.258691E-15	4.790711E-17
5.267831E+03	8.259951E-15	4.785573E-17
5.277808E+03	8.238808E-15	4.767620E-17
5.287785E+03	8.198839E-15	4.738967E-17
5.297762E+03	8.144135E-15	4.702015E-17
5.307739E+03	8.078465E-15	4.658967E-17
5.317716E+03	8.006117E-15	4.612313E-17
5.327693E+03	7.930933E-15	4.564275E-17
5.337670E+03	7.856005E-15	4.516633E-17
5.347647E+03	7.781513E-15	4.469491E-17
5.357624E+03	7.706771E-15	4.422450E-17
5.367601E+03	7.631919E-15	4.375591E-17
5.377578E+03	7.559983E-15	4.330644E-17
5.387555E+03	7.494668E-15	4.289725E-17
5.397532E+03	7.438564E-15	4.254303E-17
5.407509E+03	7.390872E-15	4.223910E-17
5.417486E+03	7.349711E-15	4.197459E-17
5.427463E+03	7.313032E-15	4.173773E-17
5.437440E+03	7.278166E-15	4.151324E-17
5.447416E+03	7.241834E-15	4.128243E-17
5.457393E+03	7.202338E-15	4.103556E-17
5.467370E+03	7.165174E-15	4.080392E-17
5.477347E+03	7.137218E-15	4.062657E-17
5.487324E+03	7.118396E-15	4.050299E-17
5.497301E+03	7.102264E-15	4.039640E-17
5.507278E+03	7.080371E-15	4.025871E-17
5.517255E+03	7.047054E-15	4.005771E-17
5.527232E+03	7.003619E-15	3.980085E-17
5.537209E+03	6.953184E-15	3.950582E-17
5.547186E+03	6.898854E-15	3.919023E-17
5.557163E+03	6.843650E-15	3.887119E-17
5.567140E+03	6.790539E-15	3.856551E-17
5.577117E+03	6.743407E-15	3.829518E-17
5.587094E+03	6.708225E-15	3.809406E-17
5.597071E+03	6.692768E-15	3.800624E-17
5.607048E+03	6.703995E-15	3.807122E-17
5.617025E+03	6.742522E-15	3.829249E-17
5.627002E+03	6.809356E-15	3.867580E-17
5.636979E+03	6.905764E-15	3.922841E-17
5.646956E+03	7.024892E-15	3.991148E-17
5.656932E+03	7.158861E-15	4.068032E-17
5.666909E+03	7.300509E-15	4.149432E-17
5.676886E+03	7.442045E-15	4.230929E-17
5.686863E+03	7.574891E-15	4.307647E-17
5.696840E+03	7.691323E-15	4.375193E-17
5.706817E+03	7.791129E-15	4.433443E-17
5.716794E+03	7.874481E-15	4.482485E-17
5.726771E+03	7.940613E-15	4.521876E-17
5.736748E+03	7.991393E-15	4.552670E-17
5.746725E+03	8.026564E-15	4.574709E-17
5.756702E+03	8.043463E-15	4.586463E-17
5.766679E+03	8.040577E-15	4.587053E-17
5.776656E+03	8.013682E-15	4.574049E-17
5.786633E+03	7.957590E-15	4.544465E-17
5.796610E+03	7.873508E-15	4.498960E-17
5.806587E+03	7.763111E-15	4.438458E-17
5.816564E+03	7.628601E-15	4.364189E-17
5.826541E+03	7.477718E-15	4.280549E-17
5.836518E+03	7.319518E-15	4.192704E-17
5.846495E+03	7.163244E-15	4.105934E-17
5.856472E+03	7.014861E-15	4.023656E-17
5.866449E+03	6.881023E-15	3.949693E-17
5.876425E+03	6.766294E-15	3.886677E-17
5.886402E+03	6.664979E-15	3.831355E-17
5.896379E+03	6.570166E-15	3.779762E-17
5.906356E+03	6.478050E-15	3.729713E-17
5.916333E+03	6.390154E-15	3.682083E-17
5.926310E+03	6.310271E-15	3.639064E-17
5.936287E+03	6.241941E-15	3.602706E-17
5.946264E+03	6.184703E-15	3.572756E-17
5.956241E+03	6.138194E-15	3.549019E-17
5.966218E+03	6.102856E-15	3.531767E-17
5.976195E+03	6.077954E-15	3.520586E-17
5.986172E+03	6.063470E-15	3.515484E-17
5.996149E+03	6.060398E-15	3.517053E-17
6.006126E+03	6.067408E-15	3.524539E-17
6.016103E+03	6.083978E-15	3.537656E-17
6.026080E+03	6.108758E-15	3.555633E-17
6.036057E+03	6.133729E-15	3.573814E-17
6.046034E+03	6.149472E-15	3.586707E-17
6.056011E+03	6.150150E-15	3.590885E-17
6.065988E+03	6.138997E-15	3.588214E-17
6.075965E+03	6.122171E-15	3.582272E-17
6.085941E+03	6.104922E-15	3.576123E-17
6.095918E+03	6.086075E-15	3.569077E-17
6.105895E+03	6.063446E-15	3.559849E-17
6.115872E+03	6.035506E-15	3.547531E-17
6.125849E+03	6.002388E-15	3.532191E-17
6.135826E+03	5.965203E-15	3.514470E-17
6.145803E+03	5.925431E-15	3.495234E-17
6.155780E+03	5.883846E-15	3.474932E-17
6.165757E+03	5.841919E-15	3.454429E-17
6.175734E+03	5.801192E-15	3.434637E-17
6.185711E+03	5.761050E-15	3.415192E-17
6.195688E+03	5.721296E-15	3.395978E-17
6.205665E+03	5.682833E-15	3.377532E-17
6.215642E+03	5.646684E-15	3.360466E-17
6.225619E+03	5.614799E-15	3.345944E-17
6.235596E+03	5.589739E-15	3.335506E-17
6.245573E+03	5.572247E-15	3.329611E-17
6.255550E+03	5.563132E-15	3.328763E-17
6.265527E+03	5.563019E-15	3.333355E-17
6.275504E+03	5.568333E-15	3.341268E-17
6.285481E+03	5.575047E-15	3.350094E-17
6.295457E+03	5.579528E-15	3.357653E-17
6.305434E+03	5.576826E-15	3.360956E-17
6.315411E+03	5.563011E-15	3.357613E-17
6.325388E+03	5.536671E-15	3.346740E-17
6.335365E+03	5.501502E-15	3.330541E-17
6.345342E+03	5.463226E-15	3.312460E-17
6.355319E+03	5.428125E-15	3.296300E-17
6.365296E+03	5.401932E-15	3.285552E-17
6.375273E+03	5.389337E-15	3.283098E-17
6.385250E+03	5.393285E-15	3.290770E-17
6.395227E+03	5.412342E-15	3.307739E-17
6.405204E+03	5.443441E-15	3.332171E-17
6.415181E+03	5.481801E-15	3.361168E-17
6.425158E+03	5.518475E-15	3.389257E-17
6.435135E+03	5.544743E-15	3.411068E-17
6.445112E+03	5.553585E-15	3.422240E-17
6.455089E+03	5.539067E-15	3.419056E-17
6.465066E+03	5.499791E-15	3.400575E-17
6.475043E+03	5.438682E-15	3.368530E-17
6.485020E+03	5.362606E-15	3.327107E-17
6.494997E+03	5.282021E-15	3.282755E-17
6.504974E+03	5.207523E-15	3.242052E-17
6.514950E+03	5.141900E-15	3.206754E-17
6.524927E+03	5.085705E-15	3.177234E-17
6.534904E+03	5.040970E-15	3.154789E-17
6.544881E+03	5.002840E-15	3.136412E-17
6.554858E+03	4.967184E-15	3.119527E-17
6.564835E+03	4.932203E-15	3.103011E-17
6.574812E+03	4.895680E-15	3.085464E-17
6.584789E+03	4.857816E-15	3.067009E-17
6.594766E+03	4.820206E-15	3.048645E-17
6.604743E+03	4.782300E-15	3.030025E-17
6.614720E+03	4.744434E-15	3.011359E-17
6.624697E+03	4.707868E-15	2.993447E-17
6.634674E+03	4.673190E-15	2.976666E-17
6.644651E+03	4.641399E-15	2.961658E-17
6.654628E+03	4.613570E-15	2.949119E-17
6.664605E+03	4.589135E-15	2.938698E-17
6.674582E+03	4.567695E-15	2.930148E-17
6.684559E+03	4.549568E-15	2.923684E-17
6.694536E+03	4.533624E-15	2.918587E-17
6.704513E+03	4.519601E-15	2.914695E-17
6.714490E+03	4.507666E-15	2.912123E-17
6.724466E+03	4.497269E-15	2.910519E-17
6.734443E+03	4.487760E-15	2.909467E-17
6.744420E+03	4.478605E-15	2.908622E-17
6.754397E+03	4.467946E-15	2.906775E-17
6.764374E+03	4.453809E-15	2.902634E-17
6.774351E+03	4.434541E-15	2.895109E-17
6.784328E+03	4.408744E-15	2.883265E-17
6.794305E+03	4.375802E-15	2.866676E-17
6.804282E+03	4.335685E-15	2.845299E-17
6.814259E+03	4.290108E-15	2.820234E-17
6.824236E+03	4.241637E-15	2.793154E-17
6.834213E+03	4.192680E-15	2.765637E-17
6.844190E+03	4.146202E-15	2.739639E-17
6.854167E+03	4.104741E-15	2.716849E-17
6.864144E+03	4.070108E-15	2.698484E-17
6.874121E+03	4.043562E-15	2.685402E-17
6.884098E+03	4.025191E-15	2.677690E-17
6.894075E+03	4.014215E-15	2.674854E-17
6.904052E+03	4.009081E-15	2.675882E-17
6.914029E+03	4.007469E-15	2.679243E-17
6.924006E+03	4.006677E-15	2.683137E-17
6.933983E+03	4.004905E-15	2.686360E-17
6.943959E+03	4.000489E-15	2.687792E-17
6.953936E+03	3.992118E-15	2.686539E-17
6.963913E+03	3.979555E-15	2.682430E-17
6.973890E+03	3.962617E-15	2.675327E-17
6.983867E+03	3.941453E-15	2.665316E-17
6.993844E+03	3.916078E-15	2.652394E-17
7.003821E+03	3.886350E-15	2.636452E-17
7.013798E+03	3.852363E-15	2.617537E-17
7.023775E+03	3.814579E-15	2.595953E-17
7.033752E+03	3.773746E-15	2.572196E-17
7.043729E+03	3.730576E-15	2.546744E-17
7.053706E+03	3.686301E-15	2.520431E-17
7.063683E+03	3.642211E-15	2.494138E-17
7.073660E+03	3.599490E-15	2.468678E-17
7.083637E+03	3.558723E-15	2.444457E-17
7.093614E+03	3.520568E-15	2.421936E-17
7.103591E+03	3.485462E-15	2.401423E-17
7.113568E+03	3.452916E-15	2.382591E-17
7.123545E+03	3.422766E-15	2.365335E-17
7.133522E+03	3.394566E-15	2.349354E-17
7.143499E+03	3.368178E-15	2.334560E-17
7.153475E+03	3.343428E-15	2.320838E-17
7.163452E+03	3.320326E-15	2.308199E-17
7.173429E+03	3.299085E-15	2.296797E-17
7.183406E+03	3.279803E-15	2.286708E-17
7.193383E+03	3.262907E-15	2.278235E-17
7.203360E+03	3.248607E-15	2.271533E-17
7.213337E+03	3.237087E-15	2.266739E-17
7.223314E+03	3.228321E-15	2.263844E-17
7.233291E+03	3.222323E-15	2.262865E-17
7.243268E+03	3.218661E-15	2.263509E-17
7.253245E+03	3.216568E-15	2.265241E-17
7.263222E+03	3.215812E-15	2.267904E-17
7.273199E+03	3.215588E-15	2.270933E-17
7.283176E+03	3.214732E-15	2.273507E-17
7.293153E+03	3.212548E-15	2.275132E-17
7.303130E+03	3.208020E-15	2.275084E-17
7.313107E+03	3.199755E-15	2.272365E-17
7.323084E+03	3.187805E-15	2.267005E-17
7.333061E+03	3.172030E-15	2.258891E-17
7.343038E+03	3.152302E-15	2.247923E-17
7.353015E+03	3.129229E-15	2.234523E-17
7.362991E+03	3.103399E-15	2.219101E-17
7.372968E+03	3.075003E-15	2.201789E-17
7.382945E+03	3.045211E-15	2.183418E-17
7.392922E+03	3.014823E-15	2.164558E-17
7.402899E+03	2.984338E-15	2.145567E-17
7.412876E+03	2.954409E-15	2.126916E-17
7.422853E+03	2.925498E-15	2.108940E-17
7.432830E+03	2.897731E-15	2.091733E-17
7.442807E+03	2.871423E-15	2.075527E-17
7.452784E+03	2.846752E-15	2.060454E-17
7.462761E+03	2.823721E-15	2.046525E-17
7.472738E+03	2.801549E-15	2.033175E-17
7.482715E+03	2.779343E-15	2.019760E-17
7.492692E+03	2.755902E-15	2.005405E-17
7.502669E+03	2.729855E-15	1.989110E-17
7.512646E+03	2.700108E-15	1.970068E-17
7.522623E+03	2.665688E-15	1.947558E-17
7.532600E+03	2.626300E-15	1.921352E-17
7.542577E+03	2.582284E-15	1.891682E-17
7.552554E+03	2.534707E-15	1.859322E-17
7.562531E+03	2.485290E-15	1.825521E-17
7.572508E+03	2.436280E-15	1.791930E-17
7.582484E+03	2.390046E-15	1.760293E-17
7.592461E+03	2.349077E-15	1.732455E-17
7.602438E+03	2.315525E-15	1.710022E-17
7.612415E+03	2.291284E-15	1.694415E-17
7.622392E+03	2.277390E-15	1.686431E-17
7.632369E+03	2.274241E-15	1.686396E-17
7.642346E+03	2.281299E-15	1.693944E-17
7.652323E+03	2.296915E-15	1.707881E-17
7.662300E+03	2.318986E-15	1.726667E-17
7.672277E+03	2.344638E-15	1.748181E-17
7.682254E+03	2.371290E-15	1.770508E-17
7.692231E+03	2.396649E-15	1.791937E-17
7.702208E+03	2.419063E-15	1.811228E-17
7.712185E+03	2.437861E-15	1.827872E-17
7.722162E+03	2.453053E-15	1.841863E-17
7.732139E+03	2.465389E-15	1.853757E-17
7.742116E+03	2.475971E-15	1.864373E-17
