#wls	flux	fluxerr
1.596313E+03	2.041358E-14	5.468899E-16
1.636220E+03	2.190930E-14	5.850545E-16
1.676128E+03	2.345799E-14	6.243184E-16
1.716036E+03	2.504950E-14	6.643870E-16
1.755944E+03	2.666990E-14	7.048687E-16
1.795852E+03	2.829635E-14	7.451420E-16
1.835759E+03	2.989824E-14	7.843895E-16
1.875667E+03	3.143629E-14	8.215799E-16
1.915575E+03	3.286321E-14	8.554890E-16
1.955483E+03	3.412777E-14	8.848108E-16
1.995391E+03	3.518622E-14	9.084569E-16
2.035298E+03	3.602233E-14	9.260669E-16
2.075206E+03	3.667032E-14	9.385828E-16
2.115114E+03	3.721610E-14	9.482507E-16
2.155022E+03	3.774799E-14	9.573398E-16
2.194930E+03	3.828063E-14	9.662192E-16
2.234838E+03	3.872959E-14	9.727621E-16
2.274745E+03	3.896957E-14	9.738631E-16
2.314653E+03	3.891507E-14	9.674721E-16
2.354561E+03	3.854858E-14	9.532693E-16
2.394469E+03	3.790452E-14	9.322266E-16
2.434377E+03	3.704486E-14	9.059763E-16
2.474284E+03	3.604017E-14	8.763297E-16
2.514192E+03	3.495711E-14	8.449668E-16
2.554100E+03	3.384850E-14	8.131993E-16
2.594008E+03	3.274560E-14	7.817938E-16
2.633916E+03	3.166450E-14	7.511387E-16
2.673823E+03	3.061352E-14	7.214289E-16
2.713731E+03	2.959604E-14	6.927384E-16
2.753639E+03	2.861279E-14	6.650775E-16
2.793547E+03	2.766285E-14	6.384167E-16
2.833455E+03	2.674482E-14	6.127159E-16
2.873363E+03	2.585732E-14	5.879362E-16
2.913270E+03	2.499936E-14	5.640475E-16
2.953178E+03	2.417071E-14	5.410375E-16
2.993086E+03	2.337208E-14	5.189138E-16
3.003063E+03	2.317731E-14	5.135247E-16
3.013040E+03	2.298460E-14	5.081943E-16
3.023017E+03	2.279395E-14	5.029228E-16
3.032994E+03	2.260574E-14	4.977179E-16
3.042971E+03	2.241961E-14	4.925716E-16
3.052948E+03	2.223674E-14	4.875098E-16
3.062925E+03	2.205704E-14	4.825300E-16
3.072902E+03	2.188060E-14	4.776340E-16
3.082879E+03	2.170736E-14	4.728199E-16
3.092856E+03	2.153748E-14	4.680909E-16
3.102832E+03	2.137098E-14	4.634470E-16
3.112809E+03	2.120800E-14	4.588912E-16
3.122786E+03	2.104873E-14	4.544267E-16
3.132763E+03	2.089319E-14	4.500539E-16
3.142740E+03	2.074155E-14	4.457757E-16
3.152717E+03	2.059380E-14	4.415918E-16
3.162694E+03	2.044999E-14	4.375025E-16
3.172671E+03	2.031008E-14	4.335062E-16
3.182648E+03	2.017396E-14	4.296008E-16
3.192625E+03	2.004160E-14	4.257845E-16
3.202602E+03	1.991295E-14	4.220561E-16
3.212579E+03	1.978813E-14	4.184174E-16
3.222556E+03	1.966735E-14	4.148727E-16
3.232533E+03	1.955091E-14	4.114277E-16
3.242510E+03	1.943929E-14	4.080917E-16
3.252487E+03	1.933313E-14	4.048777E-16
3.262464E+03	1.923316E-14	4.018001E-16
3.272441E+03	1.914005E-14	3.988717E-16
3.282418E+03	1.905445E-14	3.961052E-16
3.292395E+03	1.897685E-14	3.935098E-16
3.302372E+03	1.890738E-14	3.910871E-16
3.312348E+03	1.884608E-14	3.888364E-16
3.322325E+03	1.879241E-14	3.867455E-16
3.332302E+03	1.874563E-14	3.847978E-16
3.342279E+03	1.870458E-14	3.829690E-16
3.352256E+03	1.866794E-14	3.812309E-16
3.362233E+03	1.863410E-14	3.795501E-16
3.372210E+03	1.860150E-14	3.778947E-16
3.382187E+03	1.856860E-14	3.762332E-16
3.392164E+03	1.853419E-14	3.745411E-16
3.402141E+03	1.849724E-14	3.727982E-16
3.412118E+03	1.845711E-14	3.709918E-16
3.422095E+03	1.841332E-14	3.691129E-16
3.432072E+03	1.836544E-14	3.671535E-16
3.442049E+03	1.831291E-14	3.651035E-16
3.452026E+03	1.825500E-14	3.629489E-16
3.462003E+03	1.819043E-14	3.606652E-16
3.471980E+03	1.811759E-14	3.582218E-16
3.481957E+03	1.803436E-14	3.555785E-16
3.491934E+03	1.793835E-14	3.526897E-16
3.501911E+03	1.782713E-14	3.495103E-16
3.511888E+03	1.769853E-14	3.460005E-16
3.521864E+03	1.755099E-14	3.421328E-16
3.531841E+03	1.738381E-14	3.378968E-16
3.541818E+03	1.719741E-14	3.333042E-16
3.551795E+03	1.699348E-14	3.283909E-16
3.561772E+03	1.677479E-14	3.232134E-16
3.571749E+03	1.654489E-14	3.178428E-16
3.581726E+03	1.630788E-14	3.123592E-16
3.591703E+03	1.606773E-14	3.068402E-16
3.601680E+03	1.582827E-14	3.013593E-16
3.611657E+03	1.559264E-14	2.959760E-16
3.621634E+03	1.536341E-14	2.907384E-16
3.631611E+03	1.514253E-14	2.856826E-16
3.641588E+03	1.493129E-14	2.808313E-16
3.651565E+03	1.473015E-14	2.761915E-16
3.661542E+03	1.453885E-14	2.717570E-16
3.671519E+03	1.435637E-14	2.675068E-16
3.681496E+03	1.418079E-14	2.634043E-16
3.691473E+03	1.400981E-14	2.594053E-16
3.701450E+03	1.384077E-14	2.554601E-16
3.711427E+03	1.367094E-14	2.515186E-16
3.721404E+03	1.349815E-14	2.475409E-16
3.731381E+03	1.332092E-14	2.435006E-16
3.741357E+03	1.313866E-14	2.393880E-16
3.751334E+03	1.295169E-14	2.352099E-16
3.761311E+03	1.276104E-14	2.309857E-16
3.771288E+03	1.256820E-14	2.267432E-16
3.781265E+03	1.237481E-14	2.225123E-16
3.791242E+03	1.218232E-14	2.183192E-16
3.801219E+03	1.199182E-14	2.141833E-16
3.811196E+03	1.180400E-14	2.101168E-16
3.821173E+03	1.161929E-14	2.061267E-16
3.831150E+03	1.143797E-14	2.022177E-16
3.841127E+03	1.126058E-14	1.983987E-16
3.851104E+03	1.108782E-14	1.946811E-16
3.861081E+03	1.092084E-14	1.910848E-16
3.871058E+03	1.076109E-14	1.876336E-16
3.881035E+03	1.060998E-14	1.843510E-16
3.891012E+03	1.046866E-14	1.812556E-16
3.900989E+03	1.033771E-14	1.783553E-16
3.910966E+03	1.021663E-14	1.756398E-16
3.920943E+03	1.010382E-14	1.730799E-16
3.930920E+03	9.996415E-15	1.706255E-16
3.940897E+03	9.890511E-15	1.682090E-16
3.950873E+03	9.781550E-15	1.657530E-16
3.960850E+03	9.664803E-15	1.631784E-16
3.970827E+03	9.536187E-15	1.604178E-16
3.980804E+03	9.392761E-15	1.574243E-16
3.990781E+03	9.233440E-15	1.541827E-16
4.000758E+03	9.059284E-15	1.507134E-16
4.010735E+03	8.873441E-15	1.470716E-16
4.020712E+03	8.681132E-15	1.433456E-16
4.030689E+03	8.488847E-15	1.396435E-16
4.040666E+03	8.303715E-15	1.360823E-16
4.050643E+03	8.132500E-15	1.327709E-16
4.060620E+03	7.980966E-15	1.298007E-16
4.070597E+03	7.853294E-15	1.272357E-16
4.080574E+03	7.751722E-15	1.251077E-16
4.090551E+03	7.676369E-15	1.234138E-16
4.100528E+03	7.625568E-15	1.221223E-16
4.110505E+03	7.595895E-15	1.211741E-16
4.120482E+03	7.582644E-15	1.204906E-16
4.130459E+03	7.580179E-15	1.199794E-16
4.140436E+03	7.582486E-15	1.195439E-16
4.150413E+03	7.583606E-15	1.190895E-16
4.160390E+03	7.578055E-15	1.185308E-16
4.170366E+03	7.561248E-15	1.177975E-16
4.180343E+03	7.529794E-15	1.168393E-16
4.190320E+03	7.481512E-15	1.156252E-16
4.200297E+03	7.415495E-15	1.141443E-16
4.210274E+03	7.332071E-15	1.124051E-16
4.220251E+03	7.232889E-15	1.104360E-16
4.230228E+03	7.120617E-15	1.082805E-16
4.240205E+03	6.998854E-15	1.059956E-16
4.250182E+03	6.871669E-15	1.036445E-16
4.260159E+03	6.743345E-15	1.012925E-16
4.270136E+03	6.617932E-15	9.900030E-17
4.280113E+03	6.498984E-15	9.682044E-17
4.290090E+03	6.389266E-15	9.479264E-17
4.300067E+03	6.290804E-15	9.294509E-17
4.310044E+03	6.204683E-15	9.129165E-17
4.320021E+03	6.131172E-15	8.983395E-17
4.329998E+03	6.069520E-15	8.855867E-17
4.339975E+03	6.018269E-15	8.744242E-17
4.349952E+03	5.975103E-15	8.644978E-17
4.359929E+03	5.936675E-15	8.553101E-17
4.369906E+03	5.898181E-15	8.461629E-17
4.379882E+03	5.853171E-15	8.361351E-17
4.389859E+03	5.800745E-15	8.251099E-17
4.399836E+03	5.745438E-15	8.137435E-17
4.409813E+03	5.690657E-15	8.025210E-17
4.419790E+03	5.639616E-15	7.918929E-17
4.429767E+03	5.595771E-15	7.823353E-17
4.439744E+03	5.562633E-15	7.743238E-17
4.449721E+03	5.543355E-15	7.682754E-17
4.459698E+03	5.540049E-15	7.644568E-17
4.469675E+03	5.553582E-15	7.629573E-17
4.479652E+03	5.582923E-15	7.636057E-17
4.489629E+03	5.625485E-15	7.660209E-17
4.499606E+03	5.677032E-15	7.696047E-17
4.509583E+03	5.732329E-15	7.736341E-17
4.519560E+03	5.785537E-15	7.773180E-17
4.529537E+03	5.830938E-15	7.798954E-17
4.539514E+03	5.863606E-15	7.807248E-17
4.549491E+03	5.879780E-15	7.793306E-17
4.559468E+03	5.877336E-15	7.754625E-17
4.569445E+03	5.855613E-15	7.690676E-17
4.579422E+03	5.815438E-15	7.602888E-17
4.589398E+03	5.758655E-15	7.493994E-17
4.599375E+03	5.687980E-15	7.367811E-17
4.609352E+03	5.606292E-15	7.228304E-17
4.619329E+03	5.516626E-15	7.079567E-17
4.629306E+03	5.421780E-15	6.925314E-17
4.639283E+03	5.324130E-15	6.768662E-17
4.649260E+03	5.225491E-15	6.611958E-17
4.659237E+03	5.127296E-15	6.457022E-17
4.669214E+03	5.030391E-15	6.304909E-17
4.679191E+03	4.935214E-15	6.156141E-17
4.689168E+03	4.841793E-15	6.010721E-17
4.699145E+03	4.749999E-15	5.868459E-17
4.709122E+03	4.659633E-15	5.729083E-17
4.719099E+03	4.570399E-15	5.592204E-17
4.729076E+03	4.482147E-15	5.457619E-17
4.739053E+03	4.394899E-15	5.325338E-17
4.749030E+03	4.308780E-15	5.195493E-17
4.759007E+03	4.224085E-15	5.068419E-17
4.768984E+03	4.141331E-15	4.944708E-17
4.778961E+03	4.061075E-15	4.824986E-17
4.788938E+03	3.984062E-15	4.710092E-17
4.798915E+03	3.911031E-15	4.600836E-17
4.808891E+03	3.842761E-15	4.498063E-17
4.818868E+03	3.779977E-15	4.402532E-17
4.828845E+03	3.723396E-15	4.314978E-17
4.838822E+03	3.673536E-15	4.235892E-17
4.848799E+03	3.630863E-15	4.165691E-17
4.858776E+03	3.595571E-15	4.104476E-17
4.868753E+03	3.567762E-15	4.052234E-17
4.878730E+03	3.547163E-15	4.008532E-17
4.888707E+03	3.533383E-15	3.972807E-17
4.898684E+03	3.525783E-15	3.944232E-17
4.908661E+03	3.523483E-15	3.921725E-17
4.918638E+03	3.525594E-15	3.904218E-17
4.928615E+03	3.531017E-15	3.890426E-17
4.938592E+03	3.538801E-15	3.879260E-17
4.948569E+03	3.547946E-15	3.869594E-17
4.958546E+03	3.557626E-15	3.860513E-17
4.968523E+03	3.567157E-15	3.851279E-17
4.978500E+03	3.575985E-15	3.841304E-17
4.988477E+03	3.583729E-15	3.830198E-17
4.998454E+03	3.590132E-15	3.817712E-17
5.008431E+03	3.595029E-15	3.803701E-17
5.018407E+03	3.598254E-15	3.788020E-17
5.028384E+03	3.599771E-15	3.770666E-17
5.038361E+03	3.599541E-15	3.751631E-17
5.048338E+03	3.597493E-15	3.730876E-17
5.058315E+03	3.593710E-15	3.708520E-17
5.068292E+03	3.588300E-15	3.684708E-17
5.078269E+03	3.581566E-15	3.659781E-17
5.088246E+03	3.573855E-15	3.634118E-17
5.098223E+03	3.565899E-15	3.608481E-17
5.108200E+03	3.558446E-15	3.583632E-17
5.118177E+03	3.552562E-15	3.560640E-17
5.128154E+03	3.549386E-15	3.540625E-17
5.138131E+03	3.550152E-15	3.524781E-17
5.148108E+03	3.556039E-15	3.514226E-17
5.158085E+03	3.568000E-15	3.509839E-17
5.168062E+03	3.586728E-15	3.512223E-17
5.178039E+03	3.612356E-15	3.521432E-17
5.188016E+03	3.644565E-15	3.537080E-17
5.197993E+03	3.682335E-15	3.558112E-17
5.207970E+03	3.724206E-15	3.583073E-17
5.217947E+03	3.768104E-15	3.609944E-17
5.227923E+03	3.811746E-15	3.636542E-17
5.237900E+03	3.852652E-15	3.660538E-17
5.247877E+03	3.888654E-15	3.679932E-17
5.257854E+03	3.917792E-15	3.692955E-17
5.267831E+03	3.938821E-15	3.698532E-17
5.277808E+03	3.951143E-15	3.696209E-17
5.287785E+03	3.954644E-15	3.685987E-17
5.297762E+03	3.949932E-15	3.668533E-17
5.307739E+03	3.937839E-15	3.644708E-17
5.317716E+03	3.919506E-15	3.615642E-17
5.327693E+03	3.895998E-15	3.582379E-17
5.337670E+03	3.868428E-15	3.545985E-17
5.347647E+03	3.837712E-15	3.507337E-17
5.357624E+03	3.804638E-15	3.467174E-17
5.367601E+03	3.770034E-15	3.426268E-17
5.377578E+03	3.734594E-15	3.385256E-17
5.387555E+03	3.698909E-15	3.344674E-17
5.397532E+03	3.663559E-15	3.305045E-17
5.407509E+03	3.628877E-15	3.266660E-17
5.417486E+03	3.595154E-15	3.229771E-17
5.427463E+03	3.562414E-15	3.194392E-17
5.437440E+03	3.530854E-15	3.160687E-17
5.447416E+03	3.501203E-15	3.129297E-17
5.457393E+03	3.474595E-15	3.101222E-17
5.467370E+03	3.452175E-15	3.077462E-17
5.477347E+03	3.433711E-15	3.057779E-17
5.487324E+03	3.417166E-15	3.040336E-17
5.497301E+03	3.404355E-15	3.026726E-17
5.507278E+03	3.394533E-15	3.016267E-17
5.517255E+03	3.386336E-15	3.007731E-17
5.527232E+03	3.378776E-15	3.000226E-17
5.537209E+03	3.371787E-15	2.993683E-17
5.547186E+03	3.365851E-15	2.988518E-17
5.557163E+03	3.362231E-15	2.985842E-17
5.567140E+03	3.362430E-15	2.986981E-17
5.577117E+03	3.368504E-15	2.993758E-17
5.587094E+03	3.382371E-15	3.007878E-17
5.597071E+03	3.406066E-15	3.031161E-17
5.607048E+03	3.441122E-15	3.064991E-17
5.617025E+03	3.488560E-15	3.110305E-17
5.627002E+03	3.548545E-15	3.167294E-17
5.636979E+03	3.620465E-15	3.235455E-17
5.646956E+03	3.702684E-15	3.313377E-17
5.656932E+03	3.792632E-15	3.398810E-17
5.666909E+03	3.887171E-15	3.488985E-17
5.676886E+03	3.982401E-15	3.580434E-17
5.686863E+03	4.074479E-15	3.669713E-17
5.696840E+03	4.159475E-15	3.753278E-17
5.706817E+03	4.233896E-15	3.827948E-17
5.716794E+03	4.294656E-15	3.890879E-17
5.726771E+03	4.339383E-15	3.939846E-17
5.736748E+03	4.366127E-15	3.972981E-17
5.746725E+03	4.373611E-15	3.989006E-17
5.756702E+03	4.361098E-15	3.987117E-17
5.766679E+03	4.328504E-15	3.967093E-17
5.776656E+03	4.276543E-15	3.929436E-17
5.786633E+03	4.206657E-15	3.875319E-17
5.796610E+03	4.121279E-15	3.806836E-17
5.806587E+03	4.023435E-15	3.726649E-17
5.816564E+03	3.916739E-15	3.637993E-17
5.826541E+03	3.805096E-15	3.544408E-17
5.836518E+03	3.692261E-15	3.449335E-17
5.846495E+03	3.581608E-15	3.355896E-17
5.856472E+03	3.475688E-15	3.266485E-17
5.866449E+03	3.376412E-15	3.182917E-17
5.876425E+03	3.284764E-15	3.106159E-17
5.886402E+03	3.201050E-15	3.036548E-17
5.896379E+03	3.125161E-15	2.974034E-17
5.906356E+03	3.056848E-15	2.918435E-17
5.916333E+03	2.995960E-15	2.869660E-17
5.926310E+03	2.942399E-15	2.827674E-17
5.936287E+03	2.896091E-15	2.792462E-17
5.946264E+03	2.857054E-15	2.764103E-17
5.956241E+03	2.825127E-15	2.742502E-17
5.966218E+03	2.800100E-15	2.727518E-17
5.976195E+03	2.781667E-15	2.718913E-17
5.986172E+03	2.769479E-15	2.716407E-17
5.996149E+03	2.762915E-15	2.719447E-17
6.006126E+03	2.761154E-15	2.727276E-17
6.016103E+03	2.763293E-15	2.739048E-17
6.026080E+03	2.768021E-15	2.753494E-17
6.036057E+03	2.774030E-15	2.769336E-17
6.046034E+03	2.780058E-15	2.785320E-17
6.056011E+03	2.785169E-15	2.800503E-17
6.065988E+03	2.788827E-15	2.814333E-17
6.075965E+03	2.790772E-15	2.826529E-17
6.085941E+03	2.791044E-15	2.837111E-17
6.095918E+03	2.789767E-15	2.846184E-17
6.105895E+03	2.787048E-15	2.853840E-17
6.115872E+03	2.783122E-15	2.860301E-17
6.125849E+03	2.778186E-15	2.865757E-17
6.135826E+03	2.772537E-15	2.870500E-17
6.145803E+03	2.766474E-15	2.874832E-17
6.155780E+03	2.760423E-15	2.879191E-17
6.165757E+03	2.754810E-15	2.884021E-17
6.175734E+03	2.750035E-15	2.889747E-17
6.185711E+03	2.746452E-15	2.896750E-17
6.195688E+03	2.744387E-15	2.905391E-17
6.205665E+03	2.744194E-15	2.916059E-17
6.215642E+03	2.746172E-15	2.929098E-17
6.225619E+03	2.750632E-15	2.944866E-17
6.235596E+03	2.757719E-15	2.963547E-17
6.245573E+03	2.767559E-15	2.985310E-17
6.255550E+03	2.780029E-15	3.010056E-17
6.265527E+03	2.794719E-15	3.037370E-17
6.275504E+03	2.810962E-15	3.066556E-17
6.285481E+03	2.827944E-15	3.096739E-17
6.295457E+03	2.844810E-15	3.126991E-17
6.305434E+03	2.860681E-15	3.156342E-17
6.315411E+03	2.874909E-15	3.184063E-17
6.325388E+03	2.887266E-15	3.209881E-17
6.335365E+03	2.898005E-15	3.234056E-17
6.345342E+03	2.907637E-15	3.257142E-17
6.355319E+03	2.917083E-15	3.280155E-17
6.365296E+03	2.927313E-15	3.304188E-17
6.375273E+03	2.939207E-15	3.330242E-17
6.385250E+03	2.953389E-15	3.359049E-17
6.395227E+03	2.970166E-15	3.390984E-17
6.405204E+03	2.989420E-15	3.425942E-17
6.415181E+03	3.010512E-15	3.463219E-17
6.425158E+03	3.032594E-15	3.501858E-17
6.435135E+03	3.054461E-15	3.540470E-17
6.445112E+03	3.074762E-15	3.577480E-17
6.455089E+03	3.092073E-15	3.611201E-17
6.465066E+03	3.104951E-15	3.639900E-17
6.475043E+03	3.111726E-15	3.661548E-17
6.485020E+03	3.110352E-15	3.673647E-17
6.494997E+03	3.098211E-15	3.672983E-17
6.504974E+03	3.072117E-15	3.655617E-17
6.514950E+03	3.027973E-15	3.616470E-17
6.524927E+03	2.966376E-15	3.556013E-17
6.534904E+03	2.894255E-15	3.482352E-17
6.544881E+03	2.817560E-15	3.402527E-17
6.554858E+03	2.740655E-15	3.321767E-17
6.564835E+03	2.666652E-15	3.243852E-17
6.574812E+03	2.597447E-15	3.171132E-17
6.584789E+03	2.534190E-15	3.105080E-17
6.594766E+03	2.477394E-15	3.046405E-17
6.604743E+03	2.427177E-15	2.995335E-17
6.614720E+03	2.383367E-15	2.951744E-17
6.624697E+03	2.345795E-15	2.915506E-17
6.634674E+03	2.314049E-15	2.886187E-17
6.644651E+03	2.287819E-15	2.863477E-17
6.654628E+03	2.266775E-15	2.847031E-17
6.664605E+03	2.250441E-15	2.836315E-17
6.674582E+03	2.238443E-15	2.830920E-17
6.684559E+03	2.230336E-15	2.830336E-17
6.694536E+03	2.225645E-15	2.834006E-17
6.704513E+03	2.223862E-15	2.841325E-17
6.714490E+03	2.224399E-15	2.851576E-17
6.724466E+03	2.226760E-15	2.864150E-17
6.734443E+03	2.230284E-15	2.878217E-17
6.744420E+03	2.234279E-15	2.892892E-17
6.754397E+03	2.238130E-15	2.907383E-17
6.764374E+03	2.241209E-15	2.920869E-17
6.774351E+03	2.242921E-15	2.932560E-17
6.784328E+03	2.242891E-15	2.941946E-17
6.794305E+03	2.240872E-15	2.948680E-17
6.804282E+03	2.236772E-15	2.952615E-17
6.814259E+03	2.230785E-15	2.953979E-17
6.824236E+03	2.223222E-15	2.953163E-17
6.834213E+03	2.214411E-15	2.950583E-17
6.844190E+03	2.204949E-15	2.947023E-17
6.854167E+03	2.195128E-15	2.942866E-17
6.864144E+03	2.185383E-15	2.938690E-17
6.874121E+03	2.175874E-15	2.934716E-17
6.884098E+03	2.166709E-15	2.931089E-17
6.894075E+03	2.157705E-15	2.927566E-17
6.904052E+03	2.148739E-15	2.923984E-17
6.914029E+03	2.139424E-15	2.919811E-17
6.924006E+03	2.129516E-15	2.914714E-17
6.933983E+03	2.118645E-15	2.908174E-17
6.943959E+03	2.106482E-15	2.899730E-17
6.953936E+03	2.092854E-15	2.889126E-17
6.963913E+03	2.077614E-15	2.876145E-17
6.973890E+03	2.060686E-15	2.860659E-17
6.983867E+03	2.042054E-15	2.842632E-17
6.993844E+03	2.021723E-15	2.822050E-17
7.003821E+03	1.999848E-15	2.799111E-17
7.013798E+03	1.976564E-15	2.773989E-17
7.023775E+03	1.952167E-15	2.747084E-17
7.033752E+03	1.926927E-15	2.718769E-17
7.043729E+03	1.901213E-15	2.689557E-17
7.053706E+03	1.875468E-15	2.660071E-17
7.063683E+03	1.850048E-15	2.630820E-17
7.073660E+03	1.825372E-15	2.602406E-17
7.083637E+03	1.801678E-15	2.575180E-17
7.093614E+03	1.779304E-15	2.549637E-17
7.103591E+03	1.758348E-15	2.525936E-17
7.113568E+03	1.738999E-15	2.504362E-17
7.123545E+03	1.721267E-15	2.484952E-17
7.133522E+03	1.705122E-15	2.467679E-17
7.143499E+03	1.690632E-15	2.452658E-17
7.153475E+03	1.677696E-15	2.439765E-17
7.163452E+03	1.666327E-15	2.429033E-17
7.173429E+03	1.656491E-15	2.420431E-17
7.183406E+03	1.648148E-15	2.413916E-17
7.193383E+03	1.641193E-15	2.409352E-17
7.203360E+03	1.635574E-15	2.406676E-17
7.213337E+03	1.631116E-15	2.405645E-17
7.223314E+03	1.627676E-15	2.406058E-17
7.233291E+03	1.625018E-15	2.407579E-17
7.243268E+03	1.622816E-15	2.409732E-17
7.253245E+03	1.620746E-15	2.412037E-17
7.263222E+03	1.618525E-15	2.414078E-17
7.273199E+03	1.615656E-15	2.415108E-17
7.283176E+03	1.611837E-15	2.414670E-17
7.293153E+03	1.606664E-15	2.412150E-17
7.303130E+03	1.599861E-15	2.407118E-17
7.313107E+03	1.591136E-15	2.399120E-17
7.323084E+03	1.580369E-15	2.387956E-17
7.333061E+03	1.567454E-15	2.373448E-17
7.343038E+03	1.552467E-15	2.355692E-17
7.353015E+03	1.535496E-15	2.334803E-17
7.362991E+03	1.516792E-15	2.311146E-17
7.372968E+03	1.496592E-15	2.285067E-17
7.382945E+03	1.475259E-15	2.257109E-17
7.392922E+03	1.453139E-15	2.227793E-17
7.402899E+03	1.430613E-15	2.197700E-17
7.412876E+03	1.407929E-15	2.167207E-17
7.422853E+03	1.385439E-15	2.136860E-17
7.432830E+03	1.363291E-15	2.106888E-17
7.442807E+03	1.341748E-15	2.077703E-17
7.452784E+03	1.320777E-15	2.049262E-17
7.462761E+03	1.300450E-15	2.021682E-17
7.472738E+03	1.280696E-15	1.994861E-17
7.482715E+03	1.261364E-15	1.968569E-17
7.492692E+03	1.242316E-15	1.942594E-17
7.502669E+03	1.223419E-15	1.916733E-17
7.512646E+03	1.204578E-15	1.890839E-17
7.522623E+03	1.185794E-15	1.864914E-17
7.532600E+03	1.167018E-15	1.838883E-17
7.542577E+03	1.148484E-15	1.813117E-17
7.552554E+03	1.130353E-15	1.787872E-17
7.562531E+03	1.112950E-15	1.763670E-17
7.572508E+03	1.096594E-15	1.741022E-17
7.582484E+03	1.081652E-15	1.720525E-17
7.592461E+03	1.068511E-15	1.702806E-17
7.602438E+03	1.057481E-15	1.688379E-17
7.612415E+03	1.048743E-15	1.677552E-17
7.622392E+03	1.042496E-15	1.670666E-17
7.632369E+03	1.038745E-15	1.667752E-17
7.642346E+03	1.037411E-15	1.668704E-17
7.652323E+03	1.038313E-15	1.673252E-17
7.662300E+03	1.041216E-15	1.681042E-17
7.672277E+03	1.045775E-15	1.691531E-17
7.682254E+03	1.051659E-15	1.704200E-17
7.692231E+03	1.058520E-15	1.718496E-17
7.702208E+03	1.066158E-15	1.734100E-17
7.712185E+03	1.074344E-15	1.750653E-17
7.722162E+03	1.082965E-15	1.767974E-17
7.732139E+03	1.091988E-15	1.786011E-17
7.742116E+03	1.101446E-15	1.804825E-17
