#wls	flux	fluxerr
1.596313E+03	3.181648E-15	1.228317E-19
1.636220E+03	3.222600E-15	1.244126E-19
1.676128E+03	3.257528E-15	1.257611E-19
1.716036E+03	3.286379E-15	1.268749E-19
1.755944E+03	3.309331E-15	1.277610E-19
1.795852E+03	3.325754E-15	1.283950E-19
1.835759E+03	3.335079E-15	1.287550E-19
1.875667E+03	3.336689E-15	1.288172E-19
1.915575E+03	3.329735E-15	1.285487E-19
1.955483E+03	3.314151E-15	1.279470E-19
1.995391E+03	3.291170E-15	1.270598E-19
2.035298E+03	3.264814E-15	1.260423E-19
2.075206E+03	3.243452E-15	1.252176E-19
2.115114E+03	3.239156E-15	1.250517E-19
2.155022E+03	3.263685E-15	1.259987E-19
2.194930E+03	3.323113E-15	1.282930E-19
2.234838E+03	3.415286E-15	1.318514E-19
2.274745E+03	3.532847E-15	1.363900E-19
2.314653E+03	3.667723E-15	1.415970E-19
2.354561E+03	3.813945E-15	1.472421E-19
2.394469E+03	3.967930E-15	1.531869E-19
2.434377E+03	4.127974E-15	1.593655E-19
2.474284E+03	4.293564E-15	1.657583E-19
2.514192E+03	4.464662E-15	1.723638E-19
2.554100E+03	4.641335E-15	1.791844E-19
2.594008E+03	4.823743E-15	1.862265E-19
2.633916E+03	5.012139E-15	1.934997E-19
2.673823E+03	5.206820E-15	2.010156E-19
2.713731E+03	5.408001E-15	2.087824E-19
2.753639E+03	5.616066E-15	2.168150E-19
2.793547E+03	5.831621E-15	2.251367E-19
2.833455E+03	6.054578E-15	2.337442E-19
2.873363E+03	6.284453E-15	2.426188E-19
2.913270E+03	6.520001E-15	2.517123E-19
2.953178E+03	6.759316E-15	2.609513E-19
2.993086E+03	6.999234E-15	2.702136E-19
3.003063E+03	7.058942E-15	2.725187E-19
3.013040E+03	7.118196E-15	2.748062E-19
3.023017E+03	7.177182E-15	2.770834E-19
3.032994E+03	7.235685E-15	2.793420E-19
3.042971E+03	7.293565E-15	2.815765E-19
3.052948E+03	7.351069E-15	2.837965E-19
3.062925E+03	7.407952E-15	2.859925E-19
3.072902E+03	7.464162E-15	2.881626E-19
3.082879E+03	7.519573E-15	2.903018E-19
3.092856E+03	7.573987E-15	2.924025E-19
3.102832E+03	7.627421E-15	2.944654E-19
3.112809E+03	7.679735E-15	2.964850E-19
3.122786E+03	7.730898E-15	2.984602E-19
3.132763E+03	7.780881E-15	3.003898E-19
3.142740E+03	7.829538E-15	3.022683E-19
3.152717E+03	7.876847E-15	3.040947E-19
3.162694E+03	7.922523E-15	3.058580E-19
3.172671E+03	7.966185E-15	3.075436E-19
3.182648E+03	8.007535E-15	3.091400E-19
3.192625E+03	8.045943E-15	3.106227E-19
3.202602E+03	8.081022E-15	3.119770E-19
3.212579E+03	8.112178E-15	3.131798E-19
3.222556E+03	8.139203E-15	3.142231E-19
3.232533E+03	8.161827E-15	3.150965E-19
3.242510E+03	8.180197E-15	3.158057E-19
3.252487E+03	8.194644E-15	3.163634E-19
3.262464E+03	8.205737E-15	3.167917E-19
3.272441E+03	8.214321E-15	3.171231E-19
3.282418E+03	8.221265E-15	3.173911E-19
3.292395E+03	8.227379E-15	3.176272E-19
3.302372E+03	8.233481E-15	3.178627E-19
3.312348E+03	8.240304E-15	3.181261E-19
3.322325E+03	8.248179E-15	3.184301E-19
3.332302E+03	8.257217E-15	3.187790E-19
3.342279E+03	8.267215E-15	3.191650E-19
3.352256E+03	8.277616E-15	3.195665E-19
3.362233E+03	8.287740E-15	3.199574E-19
3.372210E+03	8.296850E-15	3.203091E-19
3.382187E+03	8.304186E-15	3.205923E-19
3.392164E+03	8.309528E-15	3.207985E-19
3.402141E+03	8.313001E-15	3.209325E-19
3.412118E+03	8.315357E-15	3.210235E-19
3.422095E+03	8.318059E-15	3.211278E-19
3.432072E+03	8.323404E-15	3.213341E-19
3.442049E+03	8.333867E-15	3.217380E-19
3.452026E+03	8.352179E-15	3.224450E-19
3.462003E+03	8.380307E-15	3.235309E-19
3.471980E+03	8.420314E-15	3.250754E-19
3.481957E+03	8.473839E-15	3.271418E-19
3.491934E+03	8.542381E-15	3.297879E-19
3.497581E+03	6.809301E-15	2.628804E-19
3.502340E+03	6.937384E-15	2.678252E-19
3.507099E+03	7.052057E-15	2.722523E-19
3.511858E+03	6.991443E-15	2.699122E-19
3.516617E+03	7.001929E-15	2.703170E-19
3.521376E+03	7.136530E-15	2.755134E-19
3.526135E+03	7.129730E-15	2.752509E-19
3.530894E+03	7.139290E-15	2.756200E-19
3.535653E+03	7.309521E-15	2.821919E-19
3.540412E+03	7.625560E-15	2.943929E-19
3.545171E+03	7.776318E-15	3.002131E-19
3.549930E+03	7.861048E-15	3.034842E-19
3.554689E+03	8.107771E-15	3.130092E-19
3.559448E+03	8.476462E-15	3.272429E-19
3.564207E+03	8.621384E-15	3.328377E-19
3.568966E+03	8.850134E-15	3.416689E-19
3.573725E+03	9.094640E-15	3.511083E-19
3.578484E+03	9.654946E-15	3.727395E-19
3.583243E+03	9.992028E-15	3.857529E-19
3.587992E+03	9.974371E-15	3.850712E-19
3.592751E+03	1.020496E-14	3.939734E-19
3.597510E+03	1.045943E-14	4.037976E-19
3.602269E+03	1.047493E-14	4.043957E-19
3.607028E+03	1.040083E-14	4.015349E-19
3.611787E+03	1.041233E-14	4.019792E-19
3.616546E+03	1.024986E-14	3.957068E-19
3.621305E+03	1.010740E-14	3.902067E-19
3.626064E+03	9.900662E-15	3.822255E-19
3.630823E+03	9.747630E-15	3.763176E-19
3.635582E+03	9.548744E-15	3.686394E-19
3.640341E+03	9.279597E-15	3.582486E-19
3.645100E+03	9.083866E-15	3.506923E-19
3.649859E+03	8.639760E-15	3.335470E-19
3.654618E+03	8.214744E-15	3.171389E-19
3.659377E+03	8.004064E-15	3.090053E-19
3.664136E+03	8.039869E-15	3.103876E-19
3.668895E+03	8.119090E-15	3.134460E-19
3.673654E+03	8.155050E-15	3.148343E-19
3.678413E+03	8.190908E-15	3.162186E-19
3.683172E+03	8.399573E-15	3.242743E-19
3.687931E+03	8.513518E-15	3.286733E-19
3.692690E+03	8.782135E-15	3.390435E-19
3.697449E+03	9.104061E-15	3.514718E-19
3.702208E+03	9.554921E-15	3.688777E-19
3.706967E+03	9.877738E-15	3.813404E-19
3.711726E+03	1.022547E-14	3.947651E-19
3.716485E+03	1.057053E-14	4.080862E-19
3.721244E+03	1.086183E-14	4.193322E-19
3.726003E+03	1.102263E-14	4.255402E-19
3.730762E+03	1.138149E-14	4.393944E-19
3.735521E+03	1.175837E-14	4.539442E-19
3.740280E+03	1.202393E-14	4.641965E-19
3.745029E+03	1.211231E-14	4.676082E-19
3.749788E+03	1.217315E-14	4.699572E-19
3.754547E+03	1.232727E-14	4.759071E-19
3.759306E+03	1.240561E-14	4.789313E-19
3.764065E+03	1.241895E-14	4.794464E-19
3.768824E+03	1.237724E-14	4.778362E-19
3.773583E+03	1.243113E-14	4.799168E-19
3.778342E+03	1.245674E-14	4.809053E-19
3.783101E+03	1.225562E-14	4.731409E-19
3.787860E+03	1.198694E-14	4.627682E-19
3.792619E+03	1.177684E-14	4.546569E-19
3.797378E+03	1.160638E-14	4.480764E-19
3.802137E+03	1.139905E-14	4.400722E-19
3.806896E+03	1.114375E-14	4.302158E-19
3.811655E+03	1.096143E-14	4.231773E-19
3.816414E+03	1.074570E-14	4.148487E-19
3.821173E+03	1.051398E-14	4.059030E-19
3.825932E+03	1.029773E-14	3.975545E-19
3.830691E+03	1.007823E-14	3.890805E-19
3.835450E+03	9.858349E-15	3.805917E-19
3.840209E+03	9.676534E-15	3.735725E-19
3.844968E+03	9.458542E-15	3.651567E-19
3.849727E+03	9.239320E-15	3.566934E-19
3.854486E+03	9.022194E-15	3.483110E-19
3.859245E+03	8.862152E-15	3.421324E-19
3.864004E+03	8.817435E-15	3.404061E-19
3.868763E+03	8.799346E-15	3.397077E-19
3.873522E+03	8.842356E-15	3.413682E-19
3.878281E+03	8.963591E-15	3.460485E-19
3.883040E+03	9.217081E-15	3.558348E-19
3.887799E+03	9.493008E-15	3.664872E-19
3.892558E+03	9.817485E-15	3.790140E-19
3.897317E+03	1.022231E-14	3.946426E-19
3.902066E+03	1.070359E-14	4.132231E-19
3.906825E+03	1.121138E-14	4.328267E-19
3.911584E+03	1.172963E-14	4.528344E-19
3.916343E+03	1.230876E-14	4.751921E-19
3.921102E+03	1.289463E-14	4.978104E-19
3.925861E+03	1.346517E-14	5.198364E-19
3.930620E+03	1.396940E-14	5.393029E-19
3.935379E+03	1.447779E-14	5.589299E-19
3.940138E+03	1.482745E-14	5.724286E-19
3.944897E+03	1.510763E-14	5.832453E-19
3.949656E+03	1.533050E-14	5.918493E-19
3.954415E+03	1.541703E-14	5.951900E-19
3.959174E+03	1.540149E-14	5.945899E-19
3.963933E+03	1.528180E-14	5.899692E-19
3.968692E+03	1.504937E-14	5.809959E-19
3.973451E+03	1.478151E-14	5.706552E-19
3.978210E+03	1.445606E-14	5.580907E-19
3.982969E+03	1.406806E-14	5.431116E-19
3.987728E+03	1.367192E-14	5.278180E-19
3.992487E+03	1.329952E-14	5.134412E-19
3.997246E+03	1.294889E-14	4.999050E-19
4.002005E+03	1.266909E-14	4.891030E-19
4.006764E+03	1.237953E-14	4.779243E-19
4.011523E+03	1.215272E-14	4.691678E-19
4.016282E+03	1.197356E-14	4.622514E-19
4.021041E+03	1.183915E-14	4.570623E-19
4.025800E+03	1.177471E-14	4.545743E-19
4.030559E+03	1.177976E-14	4.547693E-19
4.035318E+03	1.183566E-14	4.569276E-19
4.040077E+03	1.194291E-14	4.610679E-19
4.044836E+03	1.208141E-14	4.664149E-19
4.049595E+03	1.226977E-14	4.736866E-19
4.054354E+03	1.249350E-14	4.823239E-19
4.059103E+03	1.275514E-14	4.924248E-19
4.063862E+03	1.304247E-14	5.035173E-19
4.068621E+03	1.333708E-14	5.148914E-19
4.073380E+03	1.359603E-14	5.248881E-19
4.078139E+03	1.382478E-14	5.337192E-19
4.082899E+03	1.405344E-14	5.425472E-19
4.087658E+03	1.422102E-14	5.490167E-19
4.092417E+03	1.433637E-14	5.534696E-19
4.097176E+03	1.442376E-14	5.568435E-19
4.101935E+03	1.447941E-14	5.589919E-19
4.106694E+03	1.450301E-14	5.599031E-19
4.111453E+03	1.447882E-14	5.589691E-19
4.116212E+03	1.446490E-14	5.584316E-19
4.120971E+03	1.445655E-14	5.581092E-19
4.125730E+03	1.441178E-14	5.563811E-19
4.130489E+03	1.437725E-14	5.550480E-19
4.135248E+03	1.434702E-14	5.538808E-19
4.140007E+03	1.430053E-14	5.520859E-19
4.144766E+03	1.424978E-14	5.501266E-19
4.149525E+03	1.416917E-14	5.470146E-19
4.154284E+03	1.404745E-14	5.423156E-19
4.159043E+03	1.391736E-14	5.372932E-19
4.163802E+03	1.376163E-14	5.312814E-19
4.168561E+03	1.355792E-14	5.234168E-19
4.173320E+03	1.332805E-14	5.145426E-19
4.178079E+03	1.305451E-14	5.039820E-19
4.182838E+03	1.275308E-14	4.923451E-19
4.187597E+03	1.241224E-14	4.791868E-19
4.192356E+03	1.205454E-14	4.653775E-19
4.197115E+03	1.167837E-14	4.508550E-19
4.201874E+03	1.131197E-14	4.367097E-19
4.206633E+03	1.097014E-14	4.235131E-19
4.211392E+03	1.066522E-14	4.117413E-19
4.216141E+03	1.041832E-14	4.022094E-19
4.220900E+03	1.022797E-14	3.948607E-19
4.225659E+03	1.005493E-14	3.881806E-19
4.230418E+03	9.939202E-15	3.837126E-19
4.235177E+03	9.897444E-15	3.821005E-19
4.239936E+03	9.933900E-15	3.835079E-19
4.244695E+03	1.003619E-14	3.874570E-19
4.249454E+03	1.018537E-14	3.932160E-19
4.254213E+03	1.041371E-14	4.020313E-19
4.258972E+03	1.071000E-14	4.134699E-19
4.263731E+03	1.107626E-14	4.276097E-19
4.268490E+03	1.146775E-14	4.427237E-19
4.273249E+03	1.187760E-14	4.585465E-19
4.278008E+03	1.229157E-14	4.745280E-19
4.282767E+03	1.271668E-14	4.909397E-19
4.287526E+03	1.313438E-14	5.070654E-19
4.292285E+03	1.352896E-14	5.222986E-19
4.297044E+03	1.389458E-14	5.364138E-19
4.301803E+03	1.423498E-14	5.495553E-19
4.306562E+03	1.453015E-14	5.609505E-19
4.311321E+03	1.477846E-14	5.705366E-19
4.316080E+03	1.495306E-14	5.772774E-19
4.320839E+03	1.505615E-14	5.812573E-19
4.325598E+03	1.511658E-14	5.835901E-19
4.330357E+03	1.512074E-14	5.837507E-19
4.335116E+03	1.507097E-14	5.818294E-19
4.339875E+03	1.497771E-14	5.782289E-19
4.344634E+03	1.483802E-14	5.728360E-19
4.349393E+03	1.467855E-14	5.666795E-19
4.354152E+03	1.449381E-14	5.595476E-19
4.358911E+03	1.429046E-14	5.516970E-19
4.363670E+03	1.408596E-14	5.438022E-19
4.368429E+03	1.389117E-14	5.362821E-19
4.373178E+03	1.369121E-14	5.285625E-19
4.377937E+03	1.345600E-14	5.194820E-19
4.382696E+03	1.322345E-14	5.105040E-19
4.387455E+03	1.298458E-14	5.012824E-19
4.392214E+03	1.274897E-14	4.921863E-19
4.396973E+03	1.248901E-14	4.821505E-19
4.401732E+03	1.225900E-14	4.732707E-19
4.406491E+03	1.203975E-14	4.648063E-19
4.411250E+03	1.182529E-14	4.565267E-19
4.416009E+03	1.162749E-14	4.488907E-19
4.420768E+03	1.143764E-14	4.415612E-19
4.425527E+03	1.124212E-14	4.340128E-19
4.430286E+03	1.107547E-14	4.275793E-19
4.435045E+03	1.094640E-14	4.225965E-19
4.439804E+03	1.081631E-14	4.175741E-19
4.444563E+03	1.071751E-14	4.137600E-19
4.449322E+03	1.061266E-14	4.097118E-19
4.454081E+03	1.057419E-14	4.082268E-19
4.458840E+03	1.055724E-14	4.075726E-19
4.463599E+03	1.057030E-14	4.080767E-19
4.468358E+03	1.059028E-14	4.088482E-19
4.473117E+03	1.063791E-14	4.106868E-19
4.477876E+03	1.071694E-14	4.137379E-19
4.482635E+03	1.081500E-14	4.175237E-19
4.487394E+03	1.092108E-14	4.216187E-19
4.492153E+03	1.104994E-14	4.265937E-19
4.496912E+03	1.119113E-14	4.320443E-19
4.501671E+03	1.134678E-14	4.380533E-19
4.506430E+03	1.150426E-14	4.441331E-19
4.511189E+03	1.165706E-14	4.500322E-19
4.515948E+03	1.181055E-14	4.559577E-19
4.520707E+03	1.197179E-14	4.621827E-19
4.525466E+03	1.212791E-14	4.682097E-19
4.530225E+03	1.228343E-14	4.742137E-19
4.534974E+03	1.241760E-14	4.793934E-19
4.539733E+03	1.252486E-14	4.835344E-19
4.544492E+03	1.261137E-14	4.868740E-19
4.549251E+03	1.267832E-14	4.894590E-19
4.554010E+03	1.273382E-14	4.916013E-19
4.558769E+03	1.278064E-14	4.934089E-19
4.563528E+03	1.282462E-14	4.951071E-19
4.568287E+03	1.285292E-14	4.961993E-19
4.573046E+03	1.285503E-14	4.962811E-19
4.577805E+03	1.284737E-14	4.959852E-19
4.582564E+03	1.285424E-14	4.962505E-19
4.587323E+03	1.287024E-14	4.968681E-19
4.592082E+03	1.288133E-14	4.972964E-19
4.596841E+03	1.287719E-14	4.971364E-19
4.601600E+03	1.289496E-14	4.978225E-19
4.606359E+03	1.288914E-14	4.975978E-19
4.611118E+03	1.288773E-14	4.975434E-19
4.615877E+03	1.289708E-14	4.979043E-19
4.620636E+03	1.290179E-14	4.980863E-19
4.625395E+03	1.290446E-14	4.981893E-19
4.630154E+03	1.289469E-14	4.978120E-19
4.634913E+03	1.288603E-14	4.974778E-19
4.639672E+03	1.286751E-14	4.967626E-19
4.644431E+03	1.284951E-14	4.960678E-19
4.649190E+03	1.281800E-14	4.948515E-19
4.653949E+03	1.278225E-14	4.934712E-19
4.658708E+03	1.272745E-14	4.913556E-19
4.663467E+03	1.265458E-14	4.885425E-19
4.668226E+03	1.255202E-14	4.845830E-19
4.672985E+03	1.242959E-14	4.798563E-19
4.677744E+03	1.227926E-14	4.740528E-19
4.682503E+03	1.208312E-14	4.664805E-19
4.687262E+03	1.185418E-14	4.576422E-19
4.692011E+03	1.158949E-14	4.474234E-19
4.696770E+03	1.128957E-14	4.358450E-19
4.701529E+03	1.094275E-14	4.224555E-19
4.706288E+03	1.057736E-14	4.083492E-19
4.711047E+03	1.020097E-14	3.938185E-19
4.715806E+03	9.844228E-15	3.800461E-19
4.720565E+03	9.522776E-15	3.676361E-19
4.725325E+03	9.232304E-15	3.564222E-19
4.730084E+03	9.002239E-15	3.475402E-19
4.734843E+03	8.825076E-15	3.407007E-19
4.739602E+03	8.718735E-15	3.365953E-19
4.744361E+03	8.685657E-15	3.353183E-19
4.749120E+03	8.733997E-15	3.371845E-19
4.753879E+03	8.858739E-15	3.420003E-19
4.758638E+03	9.058364E-15	3.497070E-19
4.763397E+03	9.334288E-15	3.603593E-19
4.768156E+03	9.667825E-15	3.732359E-19
4.772915E+03	1.004863E-14	3.879374E-19
4.777674E+03	1.047705E-14	4.044769E-19
4.782433E+03	1.095004E-14	4.227371E-19
4.787192E+03	1.146999E-14	4.428103E-19
4.791951E+03	1.199627E-14	4.631277E-19
4.796710E+03	1.253193E-14	4.838075E-19
4.801469E+03	1.305714E-14	5.040837E-19
4.806228E+03	1.354747E-14	5.230134E-19
4.810987E+03	1.401405E-14	5.410264E-19
4.815746E+03	1.443273E-14	5.571899E-19
4.820505E+03	1.479622E-14	5.712227E-19
4.825264E+03	1.510271E-14	5.830552E-19
4.830023E+03	1.534006E-14	5.922183E-19
4.834782E+03	1.551410E-14	5.989370E-19
4.839541E+03	1.562476E-14	6.032092E-19
4.844300E+03	1.568968E-14	6.057157E-19
4.849049E+03	1.570883E-14	6.064548E-19
4.853808E+03	1.567331E-14	6.050838E-19
4.858567E+03	1.558752E-14	6.017718E-19
4.863326E+03	1.547502E-14	5.974286E-19
4.868085E+03	1.533138E-14	5.918832E-19
4.872844E+03	1.516986E-14	5.856475E-19
4.877603E+03	1.498602E-14	5.785500E-19
4.882362E+03	1.477542E-14	5.704197E-19
4.887121E+03	1.455592E-14	5.619458E-19
4.891880E+03	1.432088E-14	5.528717E-19
4.896639E+03	1.408314E-14	5.436936E-19
4.901398E+03	1.381477E-14	5.333330E-19
4.906157E+03	1.352019E-14	5.219603E-19
4.910916E+03	1.322394E-14	5.105234E-19
4.915675E+03	1.293653E-14	4.994277E-19
4.920434E+03	1.265443E-14	4.885367E-19
4.925193E+03	1.240176E-14	4.787823E-19
4.929952E+03	1.219172E-14	4.706736E-19
4.934711E+03	1.203235E-14	4.645207E-19
4.939470E+03	1.192796E-14	4.604908E-19
4.944229E+03	1.186452E-14	4.580416E-19
4.948988E+03	1.184931E-14	4.574542E-19
4.953747E+03	1.185895E-14	4.578264E-19
4.958506E+03	1.189522E-14	4.592270E-19
4.963265E+03	1.195298E-14	4.614566E-19
4.968024E+03	1.202375E-14	4.641890E-19
4.972783E+03	1.209155E-14	4.668064E-19
4.977542E+03	1.215074E-14	4.690914E-19
4.982301E+03	1.222089E-14	4.717997E-19
4.987060E+03	1.228169E-14	4.741469E-19
4.991819E+03	1.230213E-14	4.749359E-19
4.996578E+03	1.230325E-14	4.749791E-19
5.001337E+03	1.225789E-14	4.732281E-19
5.006086E+03	1.216515E-14	4.696476E-19
5.010845E+03	1.205038E-14	4.652172E-19
5.015604E+03	1.188968E-14	4.590131E-19
5.020363E+03	1.170933E-14	4.520503E-19
5.025122E+03	1.150305E-14	4.440869E-19
5.029881E+03	1.127695E-14	4.353581E-19
5.034640E+03	1.104573E-14	4.264313E-19
5.039399E+03	1.081354E-14	4.174675E-19
5.044158E+03	1.058321E-14	4.085753E-19
5.048917E+03	1.035979E-14	3.999499E-19
5.053676E+03	1.014656E-14	3.917183E-19
5.058435E+03	9.948589E-15	3.840753E-19
5.063194E+03	9.788466E-15	3.778936E-19
5.067953E+03	9.662808E-15	3.730424E-19
5.072712E+03	9.575333E-15	3.696654E-19
5.077471E+03	9.525320E-15	3.677346E-19
5.082230E+03	9.516058E-15	3.673770E-19
5.086989E+03	9.562449E-15	3.691680E-19
5.091748E+03	9.642482E-15	3.722577E-19
5.096507E+03	9.755444E-15	3.766188E-19
5.101266E+03	9.878264E-15	3.813604E-19
5.106025E+03	9.995915E-15	3.859024E-19
5.110784E+03	1.013729E-14	3.913605E-19
5.115543E+03	1.028051E-14	3.968896E-19
5.120302E+03	1.039057E-14	4.011386E-19
5.125061E+03	1.050605E-14	4.055966E-19
5.129820E+03	1.061889E-14	4.099531E-19
5.134579E+03	1.071793E-14	4.137765E-19
5.139338E+03	1.080659E-14	4.171995E-19
5.144097E+03	1.086804E-14	4.195716E-19
5.148856E+03	1.090358E-14	4.209439E-19
5.153615E+03	1.092262E-14	4.216788E-19
5.158374E+03	1.091366E-14	4.213328E-19
5.163123E+03	1.089040E-14	4.204351E-19
5.167882E+03	1.086181E-14	4.193312E-19
5.172641E+03	1.082130E-14	4.177674E-19
5.177400E+03	1.078022E-14	4.161813E-19
5.182159E+03	1.074289E-14	4.147402E-19
5.186918E+03	1.070052E-14	4.131043E-19
5.191677E+03	1.065204E-14	4.112329E-19
5.196436E+03	1.060912E-14	4.095758E-19
5.201195E+03	1.056384E-14	4.078277E-19
5.205954E+03	1.051932E-14	4.061091E-19
5.210713E+03	1.048619E-14	4.048301E-19
5.215472E+03	1.046297E-14	4.039335E-19
5.220231E+03	1.045218E-14	4.035171E-19
5.224990E+03	1.044413E-14	4.032064E-19
5.229749E+03	1.044855E-14	4.033771E-19
5.234508E+03	1.046349E-14	4.039539E-19
5.239267E+03	1.048239E-14	4.046836E-19
5.244026E+03	1.050360E-14	4.055022E-19
5.248785E+03	1.051290E-14	4.058613E-19
5.253544E+03	1.052227E-14	4.062231E-19
5.258303E+03	1.052407E-14	4.062926E-19
5.263062E+03	1.053493E-14	4.067118E-19
5.267821E+03	1.054931E-14	4.072669E-19
5.272580E+03	1.055192E-14	4.073675E-19
5.277339E+03	1.055160E-14	4.073555E-19
5.282098E+03	1.054971E-14	4.072826E-19
5.286857E+03	1.054414E-14	4.070675E-19
5.291616E+03	1.051899E-14	4.060964E-19
5.296375E+03	1.049660E-14	4.052320E-19
5.301134E+03	1.045897E-14	4.037792E-19
5.305893E+03	1.042529E-14	4.024789E-19
5.310652E+03	1.039633E-14	4.013609E-19
5.315411E+03	1.035917E-14	3.999265E-19
5.320160E+03	1.030988E-14	3.980237E-19
5.324919E+03	1.026637E-14	3.963439E-19
5.329678E+03	1.022232E-14	3.946430E-19
5.334437E+03	1.017531E-14	3.928285E-19
5.339196E+03	1.013499E-14	3.912716E-19
5.343955E+03	1.008628E-14	3.893914E-19
5.348714E+03	1.004261E-14	3.877053E-19
5.353473E+03	9.994172E-15	3.858353E-19
5.358232E+03	9.934938E-15	3.835486E-19
5.362991E+03	9.873023E-15	3.811583E-19
5.367750E+03	9.804065E-15	3.784961E-19
5.372510E+03	9.742249E-15	3.761096E-19
5.377269E+03	9.686970E-15	3.739755E-19
5.382028E+03	9.637790E-15	3.720769E-19
5.386787E+03	9.592746E-15	3.703379E-19
5.391546E+03	9.542776E-15	3.684088E-19
5.396305E+03	9.505881E-15	3.669844E-19
5.401064E+03	9.476938E-15	3.658670E-19
5.405823E+03	9.440497E-15	3.644602E-19
5.410582E+03	9.408066E-15	3.632082E-19
5.415341E+03	9.380567E-15	3.621466E-19
5.420100E+03	9.361053E-15	3.613932E-19
5.424859E+03	9.354842E-15	3.611534E-19
5.429618E+03	9.357256E-15	3.612466E-19
5.434377E+03	9.353401E-15	3.610978E-19
5.439136E+03	9.353761E-15	3.611117E-19
5.443895E+03	9.359122E-15	3.613187E-19
5.448654E+03	9.352856E-15	3.610768E-19
5.453413E+03	9.352195E-15	3.610512E-19
5.458172E+03	9.345222E-15	3.607821E-19
5.462931E+03	9.347054E-15	3.608528E-19
5.467690E+03	9.341359E-15	3.606329E-19
5.472449E+03	9.334378E-15	3.603634E-19
5.477198E+03	9.320131E-15	3.598134E-19
5.481957E+03	9.296781E-15	3.589120E-19
5.486716E+03	9.268906E-15	3.578358E-19
5.491475E+03	9.230955E-15	3.563707E-19
5.496234E+03	9.204868E-15	3.553636E-19
5.500993E+03	9.163310E-15	3.537592E-19
5.505752E+03	9.126692E-15	3.523455E-19
5.510511E+03	9.093799E-15	3.510757E-19
5.515270E+03	9.052630E-15	3.494863E-19
5.520029E+03	9.019786E-15	3.482183E-19
