#wls	flux	fluxerr
1.596313E+03	4.469676E-15	1.861196E-19
1.636220E+03	4.552189E-15	1.895555E-19
1.676128E+03	4.625900E-15	1.926248E-19
1.716036E+03	4.690335E-15	1.953079E-19
1.755944E+03	4.745291E-15	1.975963E-19
1.795852E+03	4.789587E-15	1.994407E-19
1.835759E+03	4.822140E-15	2.007963E-19
1.875667E+03	4.841462E-15	2.016008E-19
1.915575E+03	4.846466E-15	2.018092E-19
1.955483E+03	4.836436E-15	2.013915E-19
1.995391E+03	4.813244E-15	2.004257E-19
2.035298E+03	4.782799E-15	1.991580E-19
2.075206E+03	4.757291E-15	1.980958E-19
2.115114E+03	4.754717E-15	1.979886E-19
2.155022E+03	4.792421E-15	1.995586E-19
2.194930E+03	4.879389E-15	2.031799E-19
2.234838E+03	5.012298E-15	2.087143E-19
2.274745E+03	5.179926E-15	2.156944E-19
2.314653E+03	5.369944E-15	2.236068E-19
2.354561E+03	5.572880E-15	2.320571E-19
2.394469E+03	5.783097E-15	2.408106E-19
2.434377E+03	5.997787E-15	2.497504E-19
2.474284E+03	6.215776E-15	2.588275E-19
2.514192E+03	6.436592E-15	2.680223E-19
2.554100E+03	6.660297E-15	2.773375E-19
2.594008E+03	6.886744E-15	2.867668E-19
2.633916E+03	7.115702E-15	2.963006E-19
2.673823E+03	7.347173E-15	3.059391E-19
2.713731E+03	7.580875E-15	3.156706E-19
2.753639E+03	7.816975E-15	3.255018E-19
2.793547E+03	8.055854E-15	3.354488E-19
2.833455E+03	8.297278E-15	3.455017E-19
2.873363E+03	8.540419E-15	3.556262E-19
2.913270E+03	8.783681E-15	3.657556E-19
2.953178E+03	9.024342E-15	3.757768E-19
2.993086E+03	9.258424E-15	3.855240E-19
3.003063E+03	9.315341E-15	3.878941E-19
3.013040E+03	9.371409E-15	3.902287E-19
3.023017E+03	9.426603E-15	3.925270E-19
3.032994E+03	9.480801E-15	3.947838E-19
3.042971E+03	9.533716E-15	3.969872E-19
3.052948E+03	9.585730E-15	3.991531E-19
3.062925E+03	9.636539E-15	4.012688E-19
3.072902E+03	9.685994E-15	4.033281E-19
3.082879E+03	9.733709E-15	4.053149E-19
3.092856E+03	9.779703E-15	4.072301E-19
3.102832E+03	9.823742E-15	4.090639E-19
3.112809E+03	9.865967E-15	4.108222E-19
3.122786E+03	9.906432E-15	4.125071E-19
3.132763E+03	9.945398E-15	4.141297E-19
3.142740E+03	9.983104E-15	4.156997E-19
3.152717E+03	1.001968E-14	4.172228E-19
3.162694E+03	1.005489E-14	4.186891E-19
3.172671E+03	1.008848E-14	4.200875E-19
3.182648E+03	1.011966E-14	4.213860E-19
3.192625E+03	1.014750E-14	4.225450E-19
3.202602E+03	1.017066E-14	4.235095E-19
3.212579E+03	1.018813E-14	4.242371E-19
3.222556E+03	1.019887E-14	4.246844E-19
3.232533E+03	1.020248E-14	4.248347E-19
3.242510E+03	1.019904E-14	4.246911E-19
3.252487E+03	1.018955E-14	4.242959E-19
3.262464E+03	1.017548E-14	4.237100E-19
3.272441E+03	1.015883E-14	4.230169E-19
3.282418E+03	1.014179E-14	4.223072E-19
3.292395E+03	1.012659E-14	4.216743E-19
3.302372E+03	1.011492E-14	4.211883E-19
3.312348E+03	1.010795E-14	4.208981E-19
3.322325E+03	1.010601E-14	4.208172E-19
3.332302E+03	1.010876E-14	4.209319E-19
3.342279E+03	1.011522E-14	4.212008E-19
3.352256E+03	1.012397E-14	4.215650E-19
3.362233E+03	1.013351E-14	4.219624E-19
3.372210E+03	1.014254E-14	4.223384E-19
3.382187E+03	1.015028E-14	4.226609E-19
3.392164E+03	1.015646E-14	4.229179E-19
3.402141E+03	1.016150E-14	4.231280E-19
3.412118E+03	1.016665E-14	4.233424E-19
3.422095E+03	1.017356E-14	4.236299E-19
3.432072E+03	1.018427E-14	4.240761E-19
3.442049E+03	1.020100E-14	4.247725E-19
3.452026E+03	1.022594E-14	4.258109E-19
3.462003E+03	1.026142E-14	4.272884E-19
3.471980E+03	1.030924E-14	4.292798E-19
3.481957E+03	1.037127E-14	4.318627E-19
3.491934E+03	1.044885E-14	4.350931E-19
3.501911E+03	1.054290E-14	4.390095E-19
3.511888E+03	1.065366E-14	4.436215E-19
3.521864E+03	1.078033E-14	4.488961E-19
3.531841E+03	1.092066E-14	4.547393E-19
3.541818E+03	1.107075E-14	4.609890E-19
3.551795E+03	1.122442E-14	4.673878E-19
3.561772E+03	1.137300E-14	4.735748E-19
3.571749E+03	1.150553E-14	4.790936E-19
3.581726E+03	1.160950E-14	4.834229E-19
3.591703E+03	1.167457E-14	4.861321E-19
3.601680E+03	1.170241E-14	4.872917E-19
3.611657E+03	1.170273E-14	4.873050E-19
3.621634E+03	1.168847E-14	4.867112E-19
3.631611E+03	1.167574E-14	4.861809E-19
3.641588E+03	1.168384E-14	4.865184E-19
3.651565E+03	1.173346E-14	4.885843E-19
3.660544E+03	1.012175E-14	4.214725E-19
3.661542E+03	1.015966E-14	4.230509E-19
3.662540E+03	1.020303E-14	4.248569E-19
3.663537E+03	1.025110E-14	4.268585E-19
3.664535E+03	1.030152E-14	4.289581E-19
3.665533E+03	1.035430E-14	4.311557E-19
3.666530E+03	1.040473E-14	4.332556E-19
3.667528E+03	1.045986E-14	4.355513E-19
3.668526E+03	1.051968E-14	4.380424E-19
3.669523E+03	1.058499E-14	4.407618E-19
3.670521E+03	1.065421E-14	4.436441E-19
3.671519E+03	1.072969E-14	4.467873E-19
3.672516E+03	1.080832E-14	4.500612E-19
3.673514E+03	1.089164E-14	4.535306E-19
3.674512E+03	1.097184E-14	4.568703E-19
3.675510E+03	1.104735E-14	4.600147E-19
3.676507E+03	1.112522E-14	4.632571E-19
3.677505E+03	1.120387E-14	4.665321E-19
3.678503E+03	1.129505E-14	4.703290E-19
3.679500E+03	1.138703E-14	4.741588E-19
3.680498E+03	1.147588E-14	4.778586E-19
3.681496E+03	1.156708E-14	4.816561E-19
3.682493E+03	1.166221E-14	4.856173E-19
3.683491E+03	1.176047E-14	4.897090E-19
3.684489E+03	1.186109E-14	4.938988E-19
3.685487E+03	1.196562E-14	4.982517E-19
3.686484E+03	1.207018E-14	5.026054E-19
3.687482E+03	1.217161E-14	5.068289E-19
3.688480E+03	1.227696E-14	5.112159E-19
3.689477E+03	1.238780E-14	5.158313E-19
3.690475E+03	1.249630E-14	5.203492E-19
3.691473E+03	1.260325E-14	5.248026E-19
3.692470E+03	1.271255E-14	5.293539E-19
3.693468E+03	1.282108E-14	5.338730E-19
3.694466E+03	1.292805E-14	5.383276E-19
3.695463E+03	1.303425E-14	5.427496E-19
3.696461E+03	1.314046E-14	5.471723E-19
3.697459E+03	1.325060E-14	5.517583E-19
3.698457E+03	1.336152E-14	5.563773E-19
3.699454E+03	1.347246E-14	5.609966E-19
3.700452E+03	1.358575E-14	5.657143E-19
3.701450E+03	1.370533E-14	5.706935E-19
3.702447E+03	1.382021E-14	5.754770E-19
3.703445E+03	1.392962E-14	5.800331E-19
3.704443E+03	1.403356E-14	5.843609E-19
3.705440E+03	1.413594E-14	5.886242E-19
3.706438E+03	1.424695E-14	5.932465E-19
3.707436E+03	1.435875E-14	5.979022E-19
3.708434E+03	1.447683E-14	6.028188E-19
3.709431E+03	1.458786E-14	6.074424E-19
3.710429E+03	1.469343E-14	6.118383E-19
3.711427E+03	1.479509E-14	6.160714E-19
3.712424E+03	1.489597E-14	6.202722E-19
3.713422E+03	1.498825E-14	6.241147E-19
3.714420E+03	1.508210E-14	6.280225E-19
3.715417E+03	1.518144E-14	6.321592E-19
3.716415E+03	1.527924E-14	6.362314E-19
3.717413E+03	1.537546E-14	6.402383E-19
3.718410E+03	1.546857E-14	6.441153E-19
3.719408E+03	1.555620E-14	6.477641E-19
3.720406E+03	1.564540E-14	6.514786E-19
3.721404E+03	1.572913E-14	6.549648E-19
3.722401E+03	1.580502E-14	6.581252E-19
3.723399E+03	1.587545E-14	6.610576E-19
3.724397E+03	1.594039E-14	6.637617E-19
3.725394E+03	1.601081E-14	6.666944E-19
3.726392E+03	1.607890E-14	6.695297E-19
3.727390E+03	1.614151E-14	6.721367E-19
3.728387E+03	1.619786E-14	6.744830E-19
3.729385E+03	1.624872E-14	6.766008E-19
3.730383E+03	1.629566E-14	6.785556E-19
3.731381E+03	1.633870E-14	6.803475E-19
3.732378E+03	1.637860E-14	6.820090E-19
3.733376E+03	1.641536E-14	6.835400E-19
3.734374E+03	1.644587E-14	6.848101E-19
3.735371E+03	1.647166E-14	6.858843E-19
3.736369E+03	1.649355E-14	6.867957E-19
3.737367E+03	1.651229E-14	6.875761E-19
3.738364E+03	1.652791E-14	6.882263E-19
3.739362E+03	1.653882E-14	6.886808E-19
3.740360E+03	1.654424E-14	6.889063E-19
3.741357E+03	1.654418E-14	6.889038E-19
3.742355E+03	1.654097E-14	6.887703E-19
3.743353E+03	1.653855E-14	6.886695E-19
3.744351E+03	1.653378E-14	6.884710E-19
3.745348E+03	1.652509E-14	6.881091E-19
3.746346E+03	1.651326E-14	6.876165E-19
3.747344E+03	1.649752E-14	6.869607E-19
3.748341E+03	1.647313E-14	6.859454E-19
3.749339E+03	1.644639E-14	6.848319E-19
3.750337E+03	1.641966E-14	6.837187E-19
3.751334E+03	1.638977E-14	6.824743E-19
3.752332E+03	1.635675E-14	6.810994E-19
3.753330E+03	1.632138E-14	6.796264E-19
3.754328E+03	1.628208E-14	6.779901E-19
3.755325E+03	1.623572E-14	6.760593E-19
3.756323E+03	1.618699E-14	6.740304E-19
3.757321E+03	1.613826E-14	6.720013E-19
3.758318E+03	1.608560E-14	6.698085E-19
3.759316E+03	1.602980E-14	6.674851E-19
3.760314E+03	1.596929E-14	6.649653E-19
3.761311E+03	1.590720E-14	6.623798E-19
3.762309E+03	1.584119E-14	6.596310E-19
3.763307E+03	1.577281E-14	6.567838E-19
3.764304E+03	1.571306E-14	6.542960E-19
3.765302E+03	1.565410E-14	6.518407E-19
3.766300E+03	1.559356E-14	6.493198E-19
3.767298E+03	1.552987E-14	6.466678E-19
3.768295E+03	1.546461E-14	6.439502E-19
3.769293E+03	1.540249E-14	6.413636E-19
3.770291E+03	1.533800E-14	6.386783E-19
3.771288E+03	1.527351E-14	6.359928E-19
3.772286E+03	1.520117E-14	6.329805E-19
3.773284E+03	1.512095E-14	6.296404E-19
3.774281E+03	1.504859E-14	6.266273E-19
3.775279E+03	1.497937E-14	6.237449E-19
3.776277E+03	1.490229E-14	6.205349E-19
3.777274E+03	1.482284E-14	6.172268E-19
3.778272E+03	1.474339E-14	6.139185E-19
3.779270E+03	1.466471E-14	6.106423E-19
3.780268E+03	1.458681E-14	6.073986E-19
3.781265E+03	1.450970E-14	6.041877E-19
3.782263E+03	1.443336E-14	6.010089E-19
3.783261E+03	1.435231E-14	5.976338E-19
3.784258E+03	1.427046E-14	5.942256E-19
3.785256E+03	1.419411E-14	5.910461E-19
3.786254E+03	1.411538E-14	5.877681E-19
3.787251E+03	1.403430E-14	5.843919E-19
3.788249E+03	1.396265E-14	5.814081E-19
3.789247E+03	1.389334E-14	5.785223E-19
3.790245E+03	1.381538E-14	5.752760E-19
3.791242E+03	1.373821E-14	5.720625E-19
3.792240E+03	1.367360E-14	5.693722E-19
3.793238E+03	1.360978E-14	5.667145E-19
3.794235E+03	1.354438E-14	5.639913E-19
3.795233E+03	1.347661E-14	5.611694E-19
3.796231E+03	1.340884E-14	5.583475E-19
3.797228E+03	1.334342E-14	5.556233E-19
3.798226E+03	1.328272E-14	5.530956E-19
3.799224E+03	1.323774E-14	5.512227E-19
3.800221E+03	1.319354E-14	5.493824E-19
3.801219E+03	1.314935E-14	5.475420E-19
3.802217E+03	1.310750E-14	5.457995E-19
3.803215E+03	1.306801E-14	5.441551E-19
3.804212E+03	1.302144E-14	5.422160E-19
3.805210E+03	1.297487E-14	5.402767E-19
3.806208E+03	1.293144E-14	5.384684E-19
3.807205E+03	1.288171E-14	5.363977E-19
3.808203E+03	1.282254E-14	5.339337E-19
3.809201E+03	1.277359E-14	5.318954E-19
3.810198E+03	1.272936E-14	5.300537E-19
3.811196E+03	1.268748E-14	5.283099E-19
3.812194E+03	1.265190E-14	5.268283E-19
3.813192E+03	1.263048E-14	5.259364E-19
3.814189E+03	1.260513E-14	5.248806E-19
3.815187E+03	1.257584E-14	5.236610E-19
3.816185E+03	1.254890E-14	5.225394E-19
3.817182E+03	1.252275E-14	5.214505E-19
3.818180E+03	1.249504E-14	5.202963E-19
3.819178E+03	1.247203E-14	5.193385E-19
3.820175E+03	1.246320E-14	5.189708E-19
3.821173E+03	1.244649E-14	5.182750E-19
3.822171E+03	1.241955E-14	5.171530E-19
3.823168E+03	1.240284E-14	5.164574E-19
3.824166E+03	1.239007E-14	5.159256E-19
3.825164E+03	1.235525E-14	5.144756E-19
3.826162E+03	1.231570E-14	5.128287E-19
3.827159E+03	1.226197E-14	5.105916E-19
3.828157E+03	1.220037E-14	5.080262E-19
3.829155E+03	1.213245E-14	5.051981E-19
3.830152E+03	1.208501E-14	5.032226E-19
3.831150E+03	1.204229E-14	5.014440E-19
3.832148E+03	1.199563E-14	4.995010E-19
3.833145E+03	1.195211E-14	4.976889E-19
3.834143E+03	1.192120E-14	4.964018E-19
3.835141E+03	1.189895E-14	4.954754E-19
3.836139E+03	1.188458E-14	4.948768E-19
3.837136E+03	1.186627E-14	4.941145E-19
3.838134E+03	1.184796E-14	4.933521E-19
3.839132E+03	1.183595E-14	4.928519E-19
3.840129E+03	1.182158E-14	4.922533E-19
3.841127E+03	1.180011E-14	4.913594E-19
3.842125E+03	1.178494E-14	4.907278E-19
3.843122E+03	1.177451E-14	4.902933E-19
3.844120E+03	1.175304E-14	4.893992E-19
3.845118E+03	1.172920E-14	4.884066E-19
3.846115E+03	1.171167E-14	4.876767E-19
3.847113E+03	1.169413E-14	4.869464E-19
3.848111E+03	1.167974E-14	4.863474E-19
3.849109E+03	1.166852E-14	4.858798E-19
3.850106E+03	1.166202E-14	4.856093E-19
3.851104E+03	1.165474E-14	4.853060E-19
3.852102E+03	1.164902E-14	4.850680E-19
3.853099E+03	1.164805E-14	4.850275E-19
3.854097E+03	1.164628E-14	4.849539E-19
3.855095E+03	1.164609E-14	4.849460E-19
3.856092E+03	1.164275E-14	4.848070E-19
3.857090E+03	1.163940E-14	4.846676E-19
3.858088E+03	1.164079E-14	4.847255E-19
3.859086E+03	1.164455E-14	4.848820E-19
3.860083E+03	1.164595E-14	4.849400E-19
3.861081E+03	1.165365E-14	4.852606E-19
3.862079E+03	1.167319E-14	4.860744E-19
3.863076E+03	1.169037E-14	4.867897E-19
3.864074E+03	1.170755E-14	4.875050E-19
3.865072E+03	1.172630E-14	4.882859E-19
3.866069E+03	1.174743E-14	4.891659E-19
3.867067E+03	1.177725E-14	4.904073E-19
3.868065E+03	1.180863E-14	4.917144E-19
3.869062E+03	1.184398E-14	4.931863E-19
3.870060E+03	1.187854E-14	4.946252E-19
3.871058E+03	1.191389E-14	4.960972E-19
3.872056E+03	1.194609E-14	4.974382E-19
3.873053E+03	1.197830E-14	4.987793E-19
3.874051E+03	1.200261E-14	4.997916E-19
3.875049E+03	1.203403E-14	5.010998E-19
3.876046E+03	1.207809E-14	5.029345E-19
3.877044E+03	1.212532E-14	5.049010E-19
3.878042E+03	1.217728E-14	5.070649E-19
3.879039E+03	1.222609E-14	5.090973E-19
3.880037E+03	1.227728E-14	5.112288E-19
3.881035E+03	1.233084E-14	5.134592E-19
3.882033E+03	1.238757E-14	5.158214E-19
3.883030E+03	1.244509E-14	5.182166E-19
3.884028E+03	1.250263E-14	5.206123E-19
3.885026E+03	1.256253E-14	5.231068E-19
3.886023E+03	1.261771E-14	5.254043E-19
3.887021E+03	1.267526E-14	5.278009E-19
3.888019E+03	1.274308E-14	5.306251E-19
3.889016E+03	1.281013E-14	5.334170E-19
3.890014E+03	1.287561E-14	5.361433E-19
3.891012E+03	1.294346E-14	5.389688E-19
3.892009E+03	1.301211E-14	5.418275E-19
3.893007E+03	1.307919E-14	5.446207E-19
3.894005E+03	1.314943E-14	5.475456E-19
3.895003E+03	1.322601E-14	5.507343E-19
3.896000E+03	1.330813E-14	5.541538E-19
3.896998E+03	1.339185E-14	5.576397E-19
3.897996E+03	1.347556E-14	5.611256E-19
3.898993E+03	1.356246E-14	5.647440E-19
3.899991E+03	1.364856E-14	5.683295E-19
3.900989E+03	1.373389E-14	5.718825E-19
3.901986E+03	1.381449E-14	5.752386E-19
3.902984E+03	1.389984E-14	5.787927E-19
3.903982E+03	1.399232E-14	5.826435E-19
3.904979E+03	1.409034E-14	5.867250E-19
3.905977E+03	1.419074E-14	5.909058E-19
3.906975E+03	1.428562E-14	5.948567E-19
3.907973E+03	1.438052E-14	5.988082E-19
3.908970E+03	1.446593E-14	6.023646E-19
3.909968E+03	1.455530E-14	6.060862E-19
3.910966E+03	1.465023E-14	6.100390E-19
3.911963E+03	1.474754E-14	6.140911E-19
3.912961E+03	1.484486E-14	6.181433E-19
3.913959E+03	1.495168E-14	6.225916E-19
3.914956E+03	1.505615E-14	6.269415E-19
3.915954E+03	1.515508E-14	6.310611E-19
3.916952E+03	1.525087E-14	6.350497E-19
3.917950E+03	1.534191E-14	6.388409E-19
3.918947E+03	1.543297E-14	6.426325E-19
3.919945E+03	1.552562E-14	6.464906E-19
3.920943E+03	1.561195E-14	6.500853E-19
3.921940E+03	1.569829E-14	6.536807E-19
3.922938E+03	1.578464E-14	6.572762E-19
3.923936E+03	1.587180E-14	6.609055E-19
3.924933E+03	1.596292E-14	6.646998E-19
3.925931E+03	1.604139E-14	6.679671E-19
3.926929E+03	1.611511E-14	6.710368E-19
3.927926E+03	1.618647E-14	6.740084E-19
3.928924E+03	1.625783E-14	6.769799E-19
3.929922E+03	1.632921E-14	6.799521E-19
3.930920E+03	1.639663E-14	6.827597E-19
3.931917E+03	1.646327E-14	6.855346E-19
3.932915E+03	1.652596E-14	6.881449E-19
3.933913E+03	1.658549E-14	6.906238E-19
3.934910E+03	1.664423E-14	6.930697E-19
3.935908E+03	1.669982E-14	6.953843E-19
3.936906E+03	1.674986E-14	6.974680E-19
3.937903E+03	1.679437E-14	6.993213E-19
3.938901E+03	1.683492E-14	7.010098E-19
3.939899E+03	1.687389E-14	7.026325E-19
3.940897E+03	1.691286E-14	7.042554E-19
3.941894E+03	1.695105E-14	7.058455E-19
3.942892E+03	1.698449E-14	7.072381E-19
3.943890E+03	1.701238E-14	7.083997E-19
3.944887E+03	1.703395E-14	7.092976E-19
3.945885E+03	1.705075E-14	7.099971E-19
3.946883E+03	1.706202E-14	7.104663E-19
3.947880E+03	1.706694E-14	7.106714E-19
3.948878E+03	1.707424E-14	7.109752E-19
3.949876E+03	1.707758E-14	7.111143E-19
3.950873E+03	1.707458E-14	7.109896E-19
3.951871E+03	1.706761E-14	7.106993E-19
3.952869E+03	1.705431E-14	7.101454E-19
3.953867E+03	1.703703E-14	7.094259E-19
3.954864E+03	1.701897E-14	7.086737E-19
3.955862E+03	1.700089E-14	7.079211E-19
3.956860E+03	1.697965E-14	7.070366E-19
3.957857E+03	1.694969E-14	7.057889E-19
3.958855E+03	1.691812E-14	7.044746E-19
3.959853E+03	1.688577E-14	7.031275E-19
3.960850E+03	1.685421E-14	7.018133E-19
3.961848E+03	1.682423E-14	7.005648E-19
3.962846E+03	1.678949E-14	6.991181E-19
3.963844E+03	1.675077E-14	6.975061E-19
3.964841E+03	1.670333E-14	6.955305E-19
3.965839E+03	1.665033E-14	6.933237E-19
3.966837E+03	1.659732E-14	6.911163E-19
3.967834E+03	1.654431E-14	6.889087E-19
3.968832E+03	1.648970E-14	6.866351E-19
3.969830E+03	1.643112E-14	6.841955E-19
3.970827E+03	1.637095E-14	6.816899E-19
3.971825E+03	1.630918E-14	6.791179E-19
3.972823E+03	1.625058E-14	6.766780E-19
3.973820E+03	1.619436E-14	6.743369E-19
3.974818E+03	1.613178E-14	6.717311E-19
3.975816E+03	1.606760E-14	6.690587E-19
3.976814E+03	1.600580E-14	6.664854E-19
3.977811E+03	1.594320E-14	6.638787E-19
3.978809E+03	1.587980E-14	6.612386E-19
3.979807E+03	1.581639E-14	6.585982E-19
3.980804E+03	1.575377E-14	6.559907E-19
3.981802E+03	1.568955E-14	6.533167E-19
3.982800E+03	1.562454E-14	6.506096E-19
3.983797E+03	1.556190E-14	6.480012E-19
3.984795E+03	1.550243E-14	6.455246E-19
3.985793E+03	1.544136E-14	6.429818E-19
3.986791E+03	1.538347E-14	6.405712E-19
3.987788E+03	1.532796E-14	6.382596E-19
3.988786E+03	1.527004E-14	6.358481E-19
3.989784E+03	1.521372E-14	6.335029E-19
3.990781E+03	1.516136E-14	6.313226E-19
3.991779E+03	1.511218E-14	6.292746E-19
3.992777E+03	1.506299E-14	6.272263E-19
3.993774E+03	1.501538E-14	6.252440E-19
3.994772E+03	1.497015E-14	6.233605E-19
3.995770E+03	1.493049E-14	6.217090E-19
3.996767E+03	1.489241E-14	6.201232E-19
3.997765E+03	1.485352E-14	6.185041E-19
3.998763E+03	1.481702E-14	6.169843E-19
3.999761E+03	1.478052E-14	6.154642E-19
4.000758E+03	1.474799E-14	6.141096E-19
4.001756E+03	1.471943E-14	6.129202E-19
4.002754E+03	1.469404E-14	6.118632E-19
4.003751E+03	1.467104E-14	6.109055E-19
4.004749E+03	1.464248E-14	6.097161E-19
4.005747E+03	1.461629E-14	6.086256E-19
4.006744E+03	1.459328E-14	6.076676E-19
4.007742E+03	1.457186E-14	6.067754E-19
4.008740E+03	1.455521E-14	6.060823E-19
4.009738E+03	1.453776E-14	6.053556E-19
4.010735E+03	1.452588E-14	6.048610E-19
4.011733E+03	1.451639E-14	6.044657E-19
4.012731E+03	1.450610E-14	6.040372E-19
4.013728E+03	1.449024E-14	6.033770E-19
4.014726E+03	1.447677E-14	6.028158E-19
4.015724E+03	1.446727E-14	6.024204E-19
4.016721E+03	1.446095E-14	6.021572E-19
4.017719E+03	1.445702E-14	6.019938E-19
4.018717E+03	1.445309E-14	6.018300E-19
4.019714E+03	1.445156E-14	6.017661E-19
4.020712E+03	1.445081E-14	6.017350E-19
4.021710E+03	1.445564E-14	6.019361E-19
4.022708E+03	1.446604E-14	6.023691E-19
4.023705E+03	1.447803E-14	6.028685E-19
4.024703E+03	1.449481E-14	6.035670E-19
4.025701E+03	1.451238E-14	6.042988E-19
4.026698E+03	1.452996E-14	6.050306E-19
4.027696E+03	1.454355E-14	6.055967E-19
4.028694E+03	1.456033E-14	6.062955E-19
4.029691E+03	1.457950E-14	6.070937E-19
4.030689E+03	1.459948E-14	6.079255E-19
4.031687E+03	1.462184E-14	6.088566E-19
4.032684E+03	1.464580E-14	6.098546E-19
4.033682E+03	1.467375E-14	6.110183E-19
4.034680E+03	1.470090E-14	6.121489E-19
4.035678E+03	1.473204E-14	6.134454E-19
4.036675E+03	1.476797E-14	6.149415E-19
4.037673E+03	1.480310E-14	6.164043E-19
4.038671E+03	1.483903E-14	6.179004E-19
4.039668E+03	1.487178E-14	6.192643E-19
4.040666E+03	1.490772E-14	6.207608E-19
4.041664E+03	1.494287E-14	6.222246E-19
4.042661E+03	1.497723E-14	6.236551E-19
4.043659E+03	1.501159E-14	6.250861E-19
4.044657E+03	1.504994E-14	6.266830E-19
4.045655E+03	1.508989E-14	6.283465E-19
4.046652E+03	1.512985E-14	6.300102E-19
4.047650E+03	1.517220E-14	6.317738E-19
4.048648E+03	1.521456E-14	6.335376E-19
4.049645E+03	1.525532E-14	6.352351E-19
4.050643E+03	1.529370E-14	6.368332E-19
4.051641E+03	1.533368E-14	6.384980E-19
4.052638E+03	1.537766E-14	6.403291E-19
4.053636E+03	1.542244E-14	6.421936E-19
4.054634E+03	1.546801E-14	6.440913E-19
4.055631E+03	1.551120E-14	6.458899E-19
4.056629E+03	1.555759E-14	6.478216E-19
4.057627E+03	1.560797E-14	6.499194E-19
4.058625E+03	1.565358E-14	6.518183E-19
4.059622E+03	1.569997E-14	6.537504E-19
4.060620E+03	1.574719E-14	6.557163E-19
4.061618E+03	1.579041E-14	6.575163E-19
4.062615E+03	1.582965E-14	6.591502E-19
4.063613E+03	1.587129E-14	6.608840E-19
4.064611E+03	1.591293E-14	6.626181E-19
4.065608E+03	1.595379E-14	6.643191E-19
4.066606E+03	1.599544E-14	6.660536E-19
4.067604E+03	1.603470E-14	6.676886E-19
4.068602E+03	1.607477E-14	6.693570E-19
