#wls	flux	fluxerr
1.596313E+03	1.249620E-16	8.103211E-20
1.636220E+03	1.260607E-16	8.174460E-20
1.676128E+03	1.271034E-16	8.242073E-20
1.716036E+03	1.281879E-16	8.312396E-20
1.755944E+03	1.293052E-16	8.384850E-20
1.795852E+03	1.303709E-16	8.453953E-20
1.835759E+03	1.313908E-16	8.520086E-20
1.875667E+03	1.323077E-16	8.579549E-20
1.915575E+03	1.330073E-16	8.624913E-20
1.955483E+03	1.335920E-16	8.662830E-20
1.995391E+03	1.339058E-16	8.683177E-20
2.035298E+03	1.342136E-16	8.703137E-20
2.075206E+03	1.347064E-16	8.735094E-20
2.115114E+03	1.358962E-16	8.812247E-20
2.155022E+03	1.382549E-16	8.965194E-20
2.194930E+03	1.420740E-16	9.212851E-20
2.234838E+03	1.472060E-16	9.545637E-20
2.274745E+03	1.533730E-16	9.945533E-20
2.314653E+03	1.602156E-16	1.038925E-19
2.354561E+03	1.674663E-16	1.085942E-19
2.394469E+03	1.750278E-16	1.134975E-19
2.434377E+03	1.827266E-16	1.184899E-19
2.474284E+03	1.907171E-16	1.236713E-19
2.514192E+03	1.989020E-16	1.289788E-19
2.554100E+03	2.074196E-16	1.345021E-19
2.594008E+03	2.163567E-16	1.402974E-19
2.633916E+03	2.256795E-16	1.463428E-19
2.673823E+03	2.355281E-16	1.527291E-19
2.713731E+03	2.459192E-16	1.594672E-19
2.753639E+03	2.569242E-16	1.666034E-19
2.793547E+03	2.686710E-16	1.742206E-19
2.833455E+03	2.810938E-16	1.822760E-19
2.873363E+03	2.944265E-16	1.909215E-19
2.913270E+03	3.085127E-16	2.000554E-19
2.953178E+03	3.236131E-16	2.098469E-19
2.993086E+03	3.395764E-16	2.201978E-19
3.003063E+03	3.436930E-16	2.228671E-19
3.013040E+03	3.479126E-16	2.256031E-19
3.023017E+03	3.521679E-16	2.283623E-19
3.032994E+03	3.564595E-16	2.311450E-19
3.042971E+03	3.608415E-16	2.339862E-19
3.052948E+03	3.652636E-16	2.368535E-19
3.062925E+03	3.697194E-16	2.397426E-19
3.072902E+03	3.742665E-16	2.426909E-19
3.082879E+03	3.788978E-16	2.456938E-19
3.092856E+03	3.835416E-16	2.487048E-19
3.102832E+03	3.882545E-16	2.517605E-19
3.112809E+03	3.930277E-16	2.548553E-19
3.122786E+03	3.977883E-16	2.579419E-19
3.132763E+03	4.025908E-16	2.610557E-19
3.142740E+03	4.074249E-16	2.641898E-19
3.152717E+03	4.122796E-16	2.673374E-19
3.162694E+03	4.171431E-16	2.704906E-19
3.172671E+03	4.220028E-16	2.736413E-19
3.182648E+03	4.268455E-16	2.767809E-19
3.192625E+03	4.315932E-16	2.798589E-19
3.202602E+03	4.364210E-16	2.829888E-19
3.212579E+03	4.411227E-16	2.860369E-19
3.222556E+03	4.458075E-16	2.890739E-19
3.232533E+03	4.503315E-16	2.920067E-19
3.242510E+03	4.548636E-16	2.949446E-19
3.252487E+03	4.592583E-16	2.977935E-19
3.262464E+03	4.634952E-16	3.005399E-19
3.272441E+03	4.676143E-16	3.032099E-19
3.282418E+03	4.715927E-16	3.057885E-19
3.292395E+03	4.753463E-16	3.082214E-19
3.302372E+03	4.789127E-16	3.105328E-19
3.312348E+03	4.822679E-16	3.127072E-19
3.322325E+03	4.853883E-16	3.147293E-19
3.332302E+03	4.882507E-16	3.165840E-19
3.342279E+03	4.908906E-16	3.182944E-19
3.352256E+03	4.931710E-16	3.197716E-19
3.362233E+03	4.951880E-16	3.210780E-19
3.372210E+03	4.968678E-16	3.221657E-19
3.382187E+03	4.982526E-16	3.230620E-19
3.392164E+03	4.993317E-16	3.237600E-19
3.402141E+03	5.000454E-16	3.242211E-19
3.412118E+03	5.004489E-16	3.244810E-19
3.422095E+03	5.005486E-16	3.245438E-19
3.432072E+03	5.003588E-16	3.244189E-19
3.442049E+03	4.999023E-16	3.241210E-19
3.452026E+03	4.992109E-16	3.236708E-19
3.462003E+03	4.983748E-16	3.231267E-19
3.471980E+03	4.974439E-16	3.225211E-19
3.481957E+03	4.964325E-16	3.218632E-19
3.491934E+03	4.954158E-16	3.212020E-19
3.501911E+03	4.945698E-16	3.206513E-19
3.511888E+03	4.939444E-16	3.202437E-19
3.521864E+03	4.936486E-16	3.200497E-19
3.531841E+03	4.938029E-16	3.201476E-19
3.541818E+03	4.945796E-16	3.206489E-19
3.551795E+03	4.960715E-16	3.216139E-19
3.561772E+03	4.984892E-16	3.231791E-19
3.571749E+03	5.018572E-16	3.253605E-19
3.581726E+03	5.062785E-16	3.282246E-19
3.591703E+03	5.117889E-16	3.317949E-19
3.601680E+03	5.186237E-16	3.362238E-19
3.611657E+03	5.269596E-16	3.416259E-19
3.618880E+03	9.969906E-16	6.463424E-19
3.623639E+03	1.011057E-15	6.554594E-19
3.628398E+03	9.963804E-16	6.459433E-19
3.633157E+03	1.006316E-15	6.523826E-19
3.637916E+03	1.004831E-15	6.514182E-19
3.642675E+03	9.820112E-16	6.366231E-19
3.647434E+03	9.590970E-16	6.217668E-19
3.652193E+03	9.467383E-16	6.137535E-19
3.656952E+03	9.357479E-16	6.066274E-19
3.661711E+03	8.741212E-16	5.666749E-19
3.666470E+03	8.243645E-16	5.344177E-19
3.671229E+03	8.068296E-16	5.230493E-19
3.675988E+03	7.815994E-16	5.066923E-19
3.680747E+03	7.709821E-16	4.998088E-19
3.685506E+03	7.761310E-16	5.031460E-19
3.690265E+03	8.094451E-16	5.247422E-19
3.695024E+03	8.394424E-16	5.441881E-19
3.699784E+03	8.383486E-16	5.434787E-19
3.704543E+03	8.780642E-16	5.692250E-19
3.709302E+03	9.103136E-16	5.901311E-19
3.714061E+03	9.345549E-16	6.058460E-19
3.718820E+03	9.808756E-16	6.358744E-19
3.723579E+03	1.006214E-15	6.523005E-19
3.728338E+03	1.055550E-15	6.842842E-19
3.733097E+03	1.094568E-15	7.095784E-19
3.737846E+03	1.147242E-15	7.437258E-19
3.742605E+03	1.179879E-15	7.648844E-19
3.747364E+03	1.233489E-15	7.996390E-19
3.752123E+03	1.269538E-15	8.230090E-19
3.756882E+03	1.309611E-15	8.489880E-19
3.761641E+03	1.329343E-15	8.617812E-19
3.766400E+03	1.361794E-15	8.828191E-19
3.771159E+03	1.364670E-15	8.846845E-19
3.775918E+03	1.369316E-15	8.876972E-19
3.780677E+03	1.367333E-15	8.864133E-19
3.785436E+03	1.348930E-15	8.744840E-19
3.790195E+03	1.331798E-15	8.633790E-19
3.794954E+03	1.314541E-15	8.521928E-19
3.799713E+03	1.285074E-15	8.330913E-19
3.804472E+03	1.243469E-15	8.061202E-19
3.809231E+03	1.217796E-15	7.894783E-19
3.813990E+03	1.204432E-15	7.808157E-19
3.818749E+03	1.187773E-15	7.700169E-19
3.823508E+03	1.161695E-15	7.531124E-19
3.828267E+03	1.134297E-15	7.353516E-19
3.833026E+03	1.122600E-15	7.277693E-19
3.837785E+03	1.103759E-15	7.155562E-19
3.842544E+03	1.067528E-15	6.920691E-19
3.847303E+03	1.015422E-15	6.582901E-19
3.852062E+03	9.702209E-16	6.289874E-19
3.856821E+03	9.140440E-16	5.925691E-19
3.861580E+03	8.454860E-16	5.481241E-19
3.866339E+03	7.881707E-16	5.109676E-19
3.871098E+03	7.358383E-16	4.770414E-19
3.875857E+03	6.887967E-16	4.465450E-19
3.880616E+03	6.533504E-16	4.235657E-19
3.885375E+03	6.601828E-16	4.279957E-19
3.890134E+03	7.089861E-16	4.596353E-19
3.894883E+03	7.902283E-16	5.123050E-19
3.899642E+03	9.088339E-16	5.891976E-19
3.904401E+03	1.056162E-15	6.847113E-19
3.909160E+03	1.224716E-15	7.939855E-19
3.913919E+03	1.409354E-15	9.136872E-19
3.918678E+03	1.603948E-15	1.039844E-18
3.923437E+03	1.806105E-15	1.170903E-18
3.928196E+03	2.015477E-15	1.306640E-18
3.932955E+03	2.221880E-15	1.440453E-18
3.937714E+03	2.426537E-15	1.573133E-18
3.942473E+03	2.632882E-15	1.706908E-18
3.947232E+03	2.834317E-15	1.837499E-18
3.951991E+03	3.024178E-15	1.960587E-18
3.956750E+03	3.206265E-15	2.078635E-18
3.961509E+03	3.371704E-15	2.185889E-18
3.966268E+03	3.499369E-15	2.268655E-18
3.971027E+03	3.586567E-15	2.325185E-18
3.975786E+03	3.638294E-15	2.358719E-18
3.980545E+03	3.643709E-15	2.362228E-18
3.985304E+03	3.596208E-15	2.331431E-18
3.990063E+03	3.505170E-15	2.272410E-18
3.994822E+03	3.375612E-15	2.188415E-18
3.999581E+03	3.215389E-15	2.084540E-18
4.004340E+03	3.039924E-15	1.970784E-18
4.009099E+03	2.864185E-15	1.856850E-18
4.013858E+03	2.707374E-15	1.755187E-18
4.018617E+03	2.566925E-15	1.664132E-18
4.023376E+03	2.458263E-15	1.593685E-18
4.028135E+03	2.396885E-15	1.553891E-18
4.032894E+03	2.388338E-15	1.548347E-18
4.037653E+03	2.419682E-15	1.568665E-18
4.042412E+03	2.493611E-15	1.616589E-18
4.047171E+03	2.602051E-15	1.686886E-18
4.051920E+03	2.731927E-15	1.771079E-18
4.056679E+03	2.875915E-15	1.864421E-18
4.061438E+03	3.019730E-15	1.957650E-18
4.066197E+03	3.157737E-15	2.047112E-18
4.070956E+03	3.294308E-15	2.135644E-18
4.075715E+03	3.434481E-15	2.226509E-18
4.080474E+03	3.581467E-15	2.321790E-18
4.085233E+03	3.732889E-15	2.419947E-18
4.089992E+03	3.887150E-15	2.519942E-18
4.094751E+03	4.028473E-15	2.611550E-18
4.099510E+03	4.150878E-15	2.690892E-18
4.104269E+03	4.246699E-15	2.753000E-18
4.109028E+03	4.301995E-15	2.788836E-18
4.113787E+03	4.311886E-15	2.795237E-18
4.118546E+03	4.276697E-15	2.772414E-18
4.123305E+03	4.201764E-15	2.723827E-18
4.128064E+03	4.092372E-15	2.652901E-18
4.132823E+03	3.954911E-15	2.563780E-18
4.137582E+03	3.801881E-15	2.464567E-18
4.142341E+03	3.648657E-15	2.365228E-18
4.147100E+03	3.494941E-15	2.265571E-18
4.151859E+03	3.368092E-15	2.183332E-18
4.156618E+03	3.272737E-15	2.121508E-18
4.161377E+03	3.209517E-15	2.080516E-18
4.166136E+03	3.168867E-15	2.054154E-18
4.170895E+03	3.154915E-15	2.045098E-18
4.175654E+03	3.163407E-15	2.050592E-18
4.180413E+03	3.176607E-15	2.059136E-18
4.185172E+03	3.185248E-15	2.064725E-18
4.189931E+03	3.185530E-15	2.064896E-18
4.194690E+03	3.171226E-15	2.055611E-18
4.199449E+03	3.133713E-15	2.031282E-18
4.204208E+03	3.075934E-15	1.993817E-18
4.208957E+03	2.996560E-15	1.942354E-18
4.213716E+03	2.894071E-15	1.875908E-18
4.218475E+03	2.765518E-15	1.792570E-18
4.223234E+03	2.625755E-15	1.701965E-18
4.227993E+03	2.481552E-15	1.608485E-18
4.232752E+03	2.344507E-15	1.519645E-18
4.237511E+03	2.225289E-15	1.442360E-18
4.242270E+03	2.119527E-15	1.373799E-18
4.247029E+03	2.026022E-15	1.313183E-18
4.251788E+03	1.942354E-15	1.258943E-18
4.256547E+03	1.877741E-15	1.217054E-18
4.261306E+03	1.828521E-15	1.185143E-18
4.266065E+03	1.800573E-15	1.167020E-18
4.270824E+03	1.798121E-15	1.165421E-18
4.275583E+03	1.821002E-15	1.180242E-18
4.280342E+03	1.876470E-15	1.216182E-18
4.285101E+03	1.959253E-15	1.269826E-18
4.289860E+03	2.060652E-15	1.335534E-18
4.294619E+03	2.176877E-15	1.410849E-18
4.299378E+03	2.313645E-15	1.499477E-18
4.304137E+03	2.461374E-15	1.595207E-18
4.308896E+03	2.618552E-15	1.697058E-18
4.313655E+03	2.781227E-15	1.802471E-18
4.318414E+03	2.938933E-15	1.904662E-18
4.323173E+03	3.087640E-15	2.001020E-18
4.327932E+03	3.217125E-15	2.084917E-18
4.332691E+03	3.321475E-15	2.152525E-18
4.337450E+03	3.396438E-15	2.201087E-18
4.342209E+03	3.440357E-15	2.229531E-18
4.346969E+03	3.448089E-15	2.234522E-18
4.351728E+03	3.436176E-15	2.226783E-18
4.356487E+03	3.409130E-15	2.209238E-18
4.361246E+03	3.375032E-15	2.187123E-18
4.365995E+03	3.338429E-15	2.163385E-18
4.370754E+03	3.303520E-15	2.140746E-18
4.375513E+03	3.280355E-15	2.125718E-18
4.380272E+03	3.271184E-15	2.119758E-18
4.385031E+03	3.283707E-15	2.127857E-18
4.389790E+03	3.317067E-15	2.149458E-18
4.394549E+03	3.370300E-15	2.183936E-18
4.399308E+03	3.435440E-15	2.226130E-18
4.404067E+03	3.509351E-15	2.274007E-18
4.408826E+03	3.579568E-15	2.319491E-18
4.413585E+03	3.645098E-15	2.361937E-18
4.418344E+03	3.695883E-15	2.394829E-18
4.423103E+03	3.729413E-15	2.416540E-18
4.427862E+03	3.740382E-15	2.423633E-18
4.432621E+03	3.732754E-15	2.418676E-18
4.437380E+03	3.713612E-15	2.406260E-18
4.442139E+03	3.667451E-15	2.376337E-18
4.446898E+03	3.607914E-15	2.337749E-18
4.451657E+03	3.537730E-15	2.292263E-18
4.456416E+03	3.461885E-15	2.243110E-18
4.461175E+03	3.372291E-15	2.185051E-18
4.465934E+03	3.266457E-15	2.116470E-18
4.470693E+03	3.146069E-15	2.038460E-18
4.475452E+03	3.015474E-15	1.953838E-18
4.480211E+03	2.890896E-15	1.873116E-18
4.484970E+03	2.780433E-15	1.801541E-18
4.489729E+03	2.689875E-15	1.742864E-18
4.494488E+03	2.632719E-15	1.705830E-18
4.499247E+03	2.617508E-15	1.695975E-18
4.504006E+03	2.648286E-15	1.715919E-18
4.508765E+03	2.732267E-15	1.770336E-18
4.513524E+03	2.863728E-15	1.855518E-18
4.518283E+03	3.038984E-15	1.969078E-18
4.523042E+03	3.253721E-15	2.108221E-18
4.527791E+03	3.501603E-15	2.268841E-18
4.532550E+03	3.773097E-15	2.444764E-18
4.537309E+03	4.052525E-15	2.625829E-18
4.542068E+03	4.325043E-15	2.802419E-18
4.546827E+03	4.585118E-15	2.970950E-18
4.551586E+03	4.827199E-15	3.127825E-18
4.556345E+03	5.052813E-15	3.274031E-18
4.561104E+03	5.263898E-15	3.410826E-18
4.565863E+03	5.454692E-15	3.534476E-18
4.570622E+03	5.624928E-15	3.644807E-18
4.575381E+03	5.772840E-15	3.740674E-18
4.580140E+03	5.894750E-15	3.819695E-18
4.584899E+03	5.986774E-15	3.879353E-18
4.589658E+03	6.047330E-15	3.918620E-18
4.594417E+03	6.082182E-15	3.941233E-18
4.599176E+03	6.093490E-15	3.948590E-18
4.603935E+03	6.091991E-15	3.947649E-18
4.608694E+03	6.084723E-15	3.942970E-18
4.613453E+03	6.073900E-15	3.935988E-18
4.618212E+03	6.067801E-15	3.932067E-18
4.622971E+03	6.072306E-15	3.935018E-18
4.627730E+03	6.092090E-15	3.947871E-18
4.632489E+03	6.128706E-15	3.971631E-18
4.637248E+03	6.185125E-15	4.008226E-18
4.642007E+03	6.255410E-15	4.053807E-18
4.646766E+03	6.341413E-15	4.109576E-18
4.651525E+03	6.429980E-15	4.167006E-18
4.656284E+03	6.506501E-15	4.216632E-18
4.661043E+03	6.559589E-15	4.251071E-18
4.665802E+03	6.584430E-15	4.267206E-18
4.670561E+03	6.577020E-15	4.262439E-18
4.675320E+03	6.540258E-15	4.238649E-18
4.680079E+03	6.471661E-15	4.194227E-18
4.684828E+03	6.377795E-15	4.133427E-18
4.689587E+03	6.263019E-15	4.059074E-18
4.694346E+03	6.129236E-15	3.972401E-18
4.699105E+03	5.981216E-15	3.876500E-18
4.703864E+03	5.820472E-15	3.772349E-18
4.708623E+03	5.644030E-15	3.658023E-18
4.713382E+03	5.450442E-15	3.532582E-18
4.718141E+03	5.239382E-15	3.395814E-18
4.722900E+03	5.007965E-15	3.245850E-18
4.727659E+03	4.755449E-15	3.082208E-18
4.732418E+03	4.475976E-15	2.901091E-18
4.737177E+03	4.165109E-15	2.699623E-18
4.741936E+03	3.822495E-15	2.477576E-18
4.746695E+03	3.464385E-15	2.245480E-18
4.751454E+03	3.114129E-15	2.018472E-18
4.756213E+03	2.785177E-15	1.805269E-18
4.760972E+03	2.511524E-15	1.627906E-18
4.765731E+03	2.300129E-15	1.490895E-18
4.770490E+03	2.172960E-15	1.408476E-18
4.775249E+03	2.142883E-15	1.388989E-18
4.780008E+03	2.212816E-15	1.434328E-18
4.784767E+03	2.378483E-15	1.541722E-18
4.789526E+03	2.629326E-15	1.704327E-18
4.794285E+03	2.955074E-15	1.915488E-18
4.799044E+03	3.339049E-15	2.164394E-18
4.803803E+03	3.758567E-15	2.436341E-18
4.808562E+03	4.199144E-15	2.721943E-18
4.813321E+03	4.646995E-15	3.012262E-18
4.818080E+03	5.099037E-15	3.305300E-18
4.822839E+03	5.537004E-15	3.589217E-18
4.827598E+03	5.957780E-15	3.861993E-18
4.832357E+03	6.354417E-15	4.119123E-18
4.837116E+03	6.725642E-15	4.359782E-18
4.841865E+03	7.064271E-15	4.579312E-18
4.846624E+03	7.374207E-15	4.780244E-18
4.851383E+03	7.643901E-15	4.955091E-18
4.856142E+03	7.868938E-15	5.100989E-18
4.860901E+03	8.053708E-15	5.220785E-18
4.865660E+03	8.203233E-15	5.317733E-18
4.870419E+03	8.311226E-15	5.387758E-18
4.875178E+03	8.376163E-15	5.429872E-18
4.879937E+03	8.400053E-15	5.445376E-18
4.884696E+03	8.387506E-15	5.437259E-18
4.889455E+03	8.340643E-15	5.406895E-18
4.894214E+03	8.262527E-15	5.356270E-18
4.898973E+03	8.143621E-15	5.279201E-18
4.903732E+03	7.987599E-15	5.178071E-18
4.908491E+03	7.807539E-15	5.061356E-18
4.913250E+03	7.612686E-15	4.935050E-18
4.918009E+03	7.415859E-15	4.807463E-18
4.922768E+03	7.224055E-15	4.683131E-18
4.927527E+03	7.046903E-15	4.568296E-18
4.932286E+03	6.888512E-15	4.465622E-18
4.937045E+03	6.742001E-15	4.370649E-18
4.941804E+03	6.597016E-15	4.276664E-18
4.946563E+03	6.458905E-15	4.187136E-18
4.951322E+03	6.333979E-15	4.106152E-18
4.956081E+03	6.215642E-15	4.029441E-18
4.960840E+03	6.121250E-15	3.968251E-18
4.965599E+03	6.053478E-15	3.924317E-18
4.970358E+03	6.035746E-15	3.912823E-18
4.975117E+03	6.075320E-15	3.938478E-18
4.979876E+03	6.171690E-15	4.000952E-18
4.984635E+03	6.315489E-15	4.094172E-18
4.989394E+03	6.500806E-15	4.214306E-18
4.994154E+03	6.717383E-15	4.354705E-18
4.998903E+03	6.942241E-15	4.500471E-18
5.003662E+03	7.168228E-15	4.646969E-18
5.008421E+03	7.383907E-15	4.786782E-18
5.013180E+03	7.578983E-15	4.913238E-18
5.017939E+03	7.739096E-15	5.017028E-18
5.022698E+03	7.851648E-15	5.089985E-18
5.027457E+03	7.911539E-15	5.128802E-18
5.032216E+03	7.906848E-15	5.125751E-18
5.036975E+03	7.826146E-15	5.073424E-18
5.041734E+03	7.668186E-15	4.971013E-18
5.046493E+03	7.438531E-15	4.822125E-18
5.051252E+03	7.142013E-15	4.629892E-18
5.056011E+03	6.794683E-15	4.404719E-18
5.060770E+03	6.420971E-15	4.162445E-18
5.065529E+03	6.041220E-15	3.916256E-18
5.070288E+03	5.663112E-15	3.671134E-18
5.075047E+03	5.311054E-15	3.442900E-18
5.079806E+03	5.006216E-15	3.245277E-18
5.084565E+03	4.749144E-15	3.078619E-18
5.089324E+03	4.543283E-15	2.945158E-18
5.094083E+03	4.388225E-15	2.844632E-18
5.098842E+03	4.262379E-15	2.763042E-18
5.103601E+03	4.169802E-15	2.703018E-18
5.108360E+03	4.114566E-15	2.667201E-18
5.113119E+03	4.093426E-15	2.653484E-18
5.117878E+03	4.113269E-15	2.666335E-18
5.122637E+03	4.174424E-15	2.705963E-18
5.127396E+03	4.281108E-15	2.775104E-18
5.132155E+03	4.428035E-15	2.870331E-18
5.136914E+03	4.594739E-15	2.978375E-18
5.141673E+03	4.779542E-15	3.098150E-18
5.146432E+03	4.975007E-15	3.224834E-18
5.151191E+03	5.170305E-15	3.351408E-18
5.155940E+03	5.362817E-15	3.476174E-18
5.160699E+03	5.555713E-15	3.601187E-18
5.165458E+03	5.748438E-15	3.726087E-18
5.170217E+03	5.942848E-15	3.852076E-18
5.174976E+03	6.128797E-15	3.972580E-18
5.179735E+03	6.296983E-15	4.081567E-18
5.184494E+03	6.435436E-15	4.171281E-18
5.189253E+03	6.539697E-15	4.238830E-18
5.194012E+03	6.597290E-15	4.276129E-18
5.198771E+03	6.610713E-15	4.284798E-18
5.203530E+03	6.593993E-15	4.273929E-18
5.208289E+03	6.551544E-15	4.246383E-18
5.213048E+03	6.493296E-15	4.208597E-18
5.217807E+03	6.428887E-15	4.166818E-18
5.222566E+03	6.370524E-15	4.128958E-18
5.227325E+03	6.325610E-15	4.099814E-18
5.232084E+03	6.291203E-15	4.077481E-18
5.236843E+03	6.266891E-15	4.061690E-18
5.241602E+03	6.252810E-15	4.052530E-18
5.246361E+03	6.248547E-15	4.049732E-18
5.251120E+03	6.253021E-15	4.052597E-18
5.255879E+03	6.264923E-15	4.060275E-18
5.260638E+03	6.282943E-15	4.071918E-18
5.265397E+03	6.310317E-15	4.089623E-18
5.270156E+03	6.344959E-15	4.112037E-18
5.274915E+03	6.384436E-15	4.137584E-18
5.279674E+03	6.429876E-15	4.166995E-18
5.284433E+03	6.478950E-15	4.198760E-18
5.289192E+03	6.530551E-15	4.232162E-18
5.293951E+03	6.580995E-15	4.264813E-18
5.298710E+03	6.624458E-15	4.292940E-18
5.303469E+03	6.664951E-15	4.319141E-18
5.308228E+03	6.702123E-15	4.343190E-18
5.312977E+03	6.737297E-15	4.365943E-18
5.317736E+03	6.775093E-15	4.390396E-18
5.322495E+03	6.815614E-15	4.416614E-18
5.327254E+03	6.854815E-15	4.441976E-18
5.332013E+03	6.889650E-15	4.464509E-18
5.336772E+03	6.918975E-15	4.483471E-18
5.341531E+03	6.944465E-15	4.499948E-18
5.346290E+03	6.955155E-15	4.506835E-18
5.351049E+03	6.949308E-15	4.503007E-18
5.355808E+03	6.937732E-15	4.495467E-18
5.360567E+03	6.927202E-15	4.488606E-18
5.365326E+03	6.925420E-15	4.487413E-18
5.370085E+03	6.941700E-15	4.497926E-18
5.374844E+03	6.969052E-15	4.515612E-18
5.379603E+03	7.005793E-15	4.539383E-18
5.384362E+03	7.046032E-15	4.565421E-18
5.389121E+03	7.077829E-15	4.585990E-18
5.393880E+03	7.090800E-15	4.594362E-18
5.398639E+03	7.086490E-15	4.591538E-18
5.403398E+03	7.064285E-15	4.577121E-18
5.408157E+03	7.021859E-15	4.549604E-18
5.412916E+03	6.962019E-15	4.510806E-18
5.417675E+03	6.885411E-15	4.461146E-18
5.422434E+03	6.806518E-15	4.410007E-18
5.427193E+03	6.730715E-15	4.360873E-18
5.431952E+03	6.654684E-15	4.311594E-18
5.436711E+03	6.582551E-15	4.264842E-18
5.441470E+03	6.518449E-15	4.223296E-18
5.446229E+03	6.466750E-15	4.189789E-18
5.450988E+03	6.427706E-15	4.164483E-18
5.455747E+03	6.402598E-15	4.148208E-18
5.460506E+03	6.388574E-15	4.139117E-18
5.465265E+03	6.398293E-15	4.145412E-18
5.470014E+03	6.439142E-15	4.171878E-18
5.474773E+03	6.494945E-15	4.208035E-18
5.479532E+03	6.568131E-15	4.255457E-18
5.484291E+03	6.661719E-15	4.316100E-18
5.489050E+03	6.767438E-15	4.384606E-18
5.493809E+03	6.878615E-15	4.456651E-18
5.498568E+03	6.991568E-15	4.529848E-18
5.503327E+03	7.097183E-15	4.598294E-18
5.508086E+03	7.187840E-15	4.657052E-18
5.512845E+03	7.262139E-15	4.705213E-18
5.517604E+03	7.309911E-15	4.736190E-18
5.522363E+03	7.328597E-15	4.748324E-18
5.527122E+03	7.311597E-15	4.737337E-18
5.531881E+03	7.260969E-15	4.704564E-18
5.536640E+03	7.185020E-15	4.655386E-18
5.541399E+03	7.072995E-15	4.582833E-18
5.546158E+03	6.924883E-15	4.486899E-18
5.550917E+03	6.751659E-15	4.374693E-18
5.555676E+03	6.564765E-15	4.253629E-18
5.560435E+03	6.376697E-15	4.131803E-18
5.565194E+03	6.193477E-15	4.013118E-18
5.569953E+03	6.028880E-15	3.906498E-18
5.574712E+03	5.889397E-15	3.816151E-18
5.579471E+03	5.778399E-15	3.744260E-18
5.584230E+03	5.698328E-15	3.692408E-18
