#wls	flux	fluxerr
1.596313E+03	5.702900E-18	2.198995E-19
1.636220E+03	5.798153E-18	2.229424E-19
1.676128E+03	5.892142E-18	2.258997E-19
1.716036E+03	5.982579E-18	2.286829E-19
1.755944E+03	6.071133E-18	2.313557E-19
1.795852E+03	6.156303E-18	2.338609E-19
1.835759E+03	6.233875E-18	2.360386E-19
1.875667E+03	6.303338E-18	2.378716E-19
1.915575E+03	6.361808E-18	2.392532E-19
1.955483E+03	6.406969E-18	2.401000E-19
1.995391E+03	6.438968E-18	2.404219E-19
2.035298E+03	6.461491E-18	2.403608E-19
2.075206E+03	6.493247E-18	2.406132E-19
2.115114E+03	6.552934E-18	2.418646E-19
2.155022E+03	6.665964E-18	2.450357E-19
2.194930E+03	6.844531E-18	2.505471E-19
2.234838E+03	7.084315E-18	2.582089E-19
2.274745E+03	7.369940E-18	2.674310E-19
2.314653E+03	7.684629E-18	2.775815E-19
2.354561E+03	8.016210E-18	2.882042E-19
2.394469E+03	8.358325E-18	2.990586E-19
2.434377E+03	8.709028E-18	3.100654E-19
2.474284E+03	9.071626E-18	3.213324E-19
2.514192E+03	9.443314E-18	3.327491E-19
2.554100E+03	9.832089E-18	3.445855E-19
2.594008E+03	1.023857E-17	3.568482E-19
2.633916E+03	1.066603E-17	3.696340E-19
2.673823E+03	1.111778E-17	3.830384E-19
2.713731E+03	1.160016E-17	3.972574E-19
2.753639E+03	1.211378E-17	4.122850E-19
2.793547E+03	1.266209E-17	4.282113E-19
2.833455E+03	1.325192E-17	4.452340E-19
2.873363E+03	1.388377E-17	4.633340E-19
2.913270E+03	1.456477E-17	4.827095E-19
2.953178E+03	1.529527E-17	5.033276E-19
2.993086E+03	1.607883E-17	5.252586E-19
3.003063E+03	1.628659E-17	5.310572E-19
3.013040E+03	1.649396E-17	5.368129E-19
3.023017E+03	1.670853E-17	5.427723E-19
3.032994E+03	1.692291E-17	5.486940E-19
3.042971E+03	1.714455E-17	5.548188E-19
3.052948E+03	1.737049E-17	5.610500E-19
3.062925E+03	1.760070E-17	5.673851E-19
3.072902E+03	1.783515E-17	5.738223E-19
3.082879E+03	1.807379E-17	5.803590E-19
3.092856E+03	1.831659E-17	5.869932E-19
3.102832E+03	1.856766E-17	5.938553E-19
3.112809E+03	1.881874E-17	6.006801E-19
3.122786E+03	1.907812E-17	6.077310E-19
3.132763E+03	1.933741E-17	6.147396E-19
3.142740E+03	1.960503E-17	6.219728E-19
3.152717E+03	1.987677E-17	6.292955E-19
3.162694E+03	2.015263E-17	6.367065E-19
3.172671E+03	2.043258E-17	6.442039E-19
3.182648E+03	2.071663E-17	6.517868E-19
3.192625E+03	2.100926E-17	6.595951E-19
3.202602E+03	2.130152E-17	6.673460E-19
3.212579E+03	2.159787E-17	6.751786E-19
3.222556E+03	2.190294E-17	6.832368E-19
3.232533E+03	2.221219E-17	6.913768E-19
3.242510E+03	2.252563E-17	6.995978E-19
3.252487E+03	2.284326E-17	7.078989E-19
3.262464E+03	2.316510E-17	7.162792E-19
3.272441E+03	2.349115E-17	7.247379E-19
3.282418E+03	2.382145E-17	7.332747E-19
3.292395E+03	2.415600E-17	7.418885E-19
3.302372E+03	2.449987E-17	7.507333E-19
3.312348E+03	2.484305E-17	7.595014E-19
3.322325E+03	2.519571E-17	7.685021E-19
3.332302E+03	2.555285E-17	7.775810E-19
3.342279E+03	2.591448E-17	7.867377E-19
3.352256E+03	2.628067E-17	7.959723E-19
3.362233E+03	2.665144E-17	8.052846E-19
3.372210E+03	2.702685E-17	8.146748E-19
3.382187E+03	2.740694E-17	8.241426E-19
3.392164E+03	2.779726E-17	8.338535E-19
3.402141E+03	2.818689E-17	8.434780E-19
3.412118E+03	2.858696E-17	8.533480E-19
3.422095E+03	2.898632E-17	8.631287E-19
3.432072E+03	2.939629E-17	8.731563E-19
3.442049E+03	2.981127E-17	8.832625E-19
3.452026E+03	3.023132E-17	8.934466E-19
3.462003E+03	3.065640E-17	9.037068E-19
3.471980E+03	3.109248E-17	9.142169E-19
3.481957E+03	3.152767E-17	9.246251E-19
3.491934E+03	3.197389E-17	9.352800E-19
3.501911E+03	3.241898E-17	9.458240E-19
3.511888E+03	3.287506E-17	9.566092E-19
3.521864E+03	3.333591E-17	9.674528E-19
3.531841E+03	3.380138E-17	9.783485E-19
3.541818E+03	3.427128E-17	9.892895E-19
3.551795E+03	3.474540E-17	1.000268E-18
3.561772E+03	3.522349E-17	1.011276E-18
3.571749E+03	3.571190E-17	1.022493E-18
3.581726E+03	3.619728E-17	1.033537E-18
3.591703E+03	3.669267E-17	1.044777E-18
3.601680E+03	3.719145E-17	1.056024E-18
3.611657E+03	3.768688E-17	1.067085E-18
3.621634E+03	3.819267E-17	1.078348E-18
3.631611E+03	3.870218E-17	1.089622E-18
3.641588E+03	3.922255E-17	1.101108E-18
3.651565E+03	3.973999E-17	1.112416E-18
3.661542E+03	4.026155E-17	1.123743E-18
3.671519E+03	4.079460E-17	1.135292E-18
3.681496E+03	4.132489E-17	1.146666E-18
3.691473E+03	4.186704E-17	1.158269E-18
3.701450E+03	4.241395E-17	1.169901E-18
3.711427E+03	4.296575E-17	1.181564E-18
3.721404E+03	4.352253E-17	1.193260E-18
3.731381E+03	4.408444E-17	1.204991E-18
3.741357E+03	4.465160E-17	1.216758E-18
3.751334E+03	4.523187E-17	1.228773E-18
3.761311E+03	4.581003E-17	1.240620E-18
3.771288E+03	4.640175E-17	1.252723E-18
3.781265E+03	4.699158E-17	1.264661E-18
3.791242E+03	4.759549E-17	1.276863E-18
3.801219E+03	4.820584E-17	1.289121E-18
3.811196E+03	4.882290E-17	1.301440E-18
3.821173E+03	4.944691E-17	1.313824E-18
3.831150E+03	5.007813E-17	1.326278E-18
3.841127E+03	5.071687E-17	1.338808E-18
3.851104E+03	5.137181E-17	1.351639E-18
3.861081E+03	5.202652E-17	1.364336E-18
3.871058E+03	5.269817E-17	1.377347E-18
3.881035E+03	5.337864E-17	1.390457E-18
3.891012E+03	5.405948E-17	1.403443E-18
3.900989E+03	5.475826E-17	1.416759E-18
3.910966E+03	5.546653E-17	1.430182E-18
3.920943E+03	5.618441E-17	1.443713E-18
3.930920E+03	5.692099E-17	1.457580E-18
3.940897E+03	5.765822E-17	1.471318E-18
3.950873E+03	5.840490E-17	1.485150E-18
3.960850E+03	5.916993E-17	1.499300E-18
3.970827E+03	5.993437E-17	1.513282E-18
3.980804E+03	6.071605E-17	1.527546E-18
3.990781E+03	6.150460E-17	1.541827E-18
4.000758E+03	6.229845E-17	1.556082E-18
4.010735E+03	6.309542E-17	1.570257E-18
4.020712E+03	6.389245E-17	1.584274E-18
4.030689E+03	6.468530E-17	1.598027E-18
4.040666E+03	6.546817E-17	1.611375E-18
4.050643E+03	6.623332E-17	1.624132E-18
4.060620E+03	6.698094E-17	1.636304E-18
4.070597E+03	6.767891E-17	1.647117E-18
4.080574E+03	6.833349E-17	1.656735E-18
4.090551E+03	6.890934E-17	1.664316E-18
4.100528E+03	6.941188E-17	1.670012E-18
4.110505E+03	6.981773E-17	1.673285E-18
4.120482E+03	7.011750E-17	1.673935E-18
4.130459E+03	7.030795E-17	1.671917E-18
4.140436E+03	7.039389E-17	1.667375E-18
4.150413E+03	7.038929E-17	1.660668E-18
4.160390E+03	7.031701E-17	1.652359E-18
4.170366E+03	7.021773E-17	1.643420E-18
4.180343E+03	7.010793E-17	1.634243E-18
4.190320E+03	7.003895E-17	1.626023E-18
4.200297E+03	7.006493E-17	1.620000E-18
4.210274E+03	7.021203E-17	1.616751E-18
4.220251E+03	7.054675E-17	1.617766E-18
4.230228E+03	7.110510E-17	1.623815E-18
4.240205E+03	7.193011E-17	1.635813E-18
4.250182E+03	7.304890E-17	1.654297E-18
4.260159E+03	7.450926E-17	1.680262E-18
4.270136E+03	7.631536E-17	1.713702E-18
4.280113E+03	7.846422E-17	1.754454E-18
4.290090E+03	8.093250E-17	1.801897E-18
4.300067E+03	8.368475E-17	1.855155E-18
4.310044E+03	8.662675E-17	1.912065E-18
4.320021E+03	8.967211E-17	1.970675E-18
4.329998E+03	9.269903E-17	2.028290E-18
4.339975E+03	9.557666E-17	2.082063E-18
4.349952E+03	9.811970E-17	2.128021E-18
4.359929E+03	1.001850E-16	2.163166E-18
4.369906E+03	1.015778E-16	2.183455E-18
4.379882E+03	1.021755E-16	2.186456E-18
4.389859E+03	1.019720E-16	2.172269E-18
4.399836E+03	1.011781E-16	2.145599E-18
4.409813E+03	9.998239E-17	2.110599E-18
4.419790E+03	9.857421E-17	2.071362E-18
4.429767E+03	9.717163E-17	2.032514E-18
4.439744E+03	9.593900E-17	1.997475E-18
4.449721E+03	9.503658E-17	1.969519E-18
4.459698E+03	9.460772E-17	1.951506E-18
4.469675E+03	9.478029E-17	1.945927E-18
4.479652E+03	9.566643E-17	1.954900E-18
4.489629E+03	9.736121E-17	1.980152E-18
4.499606E+03	9.993786E-17	2.022934E-18
4.509583E+03	1.034412E-16	2.083895E-18
4.519560E+03	1.078787E-16	2.162919E-18
4.529537E+03	1.132096E-16	2.258925E-18
4.539514E+03	1.193347E-16	2.369690E-18
4.549491E+03	1.260901E-16	2.491747E-18
4.559468E+03	1.332472E-16	2.620421E-18
4.569445E+03	1.405234E-16	2.750069E-18
4.579422E+03	1.476032E-16	2.874513E-18
4.589398E+03	1.541890E-16	2.988045E-18
4.599375E+03	1.599645E-16	3.084711E-18
4.609352E+03	1.647430E-16	3.161160E-18
4.619329E+03	1.684205E-16	3.215692E-18
4.629306E+03	1.710027E-16	3.248731E-18
4.639283E+03	1.725918E-16	3.262523E-18
4.649260E+03	1.733796E-16	3.260961E-18
4.659237E+03	1.735337E-16	3.247405E-18
4.669214E+03	1.732962E-16	3.226547E-18
4.679191E+03	1.728830E-16	3.202497E-18
4.689168E+03	1.724927E-16	3.178964E-18
4.699145E+03	1.722977E-16	3.159103E-18
4.709122E+03	1.724587E-16	3.145792E-18
4.719099E+03	1.730424E-16	3.140139E-18
4.729076E+03	1.741444E-16	3.143754E-18
4.739053E+03	1.758127E-16	3.157349E-18
4.749030E+03	1.780706E-16	3.181187E-18
4.759007E+03	1.809202E-16	3.215137E-18
4.768984E+03	1.843414E-16	3.258681E-18
4.778961E+03	1.882918E-16	3.310914E-18
4.788938E+03	1.927056E-16	3.370538E-18
4.798915E+03	1.974926E-16	3.435861E-18
4.808891E+03	2.025373E-16	3.504779E-18
4.818868E+03	2.076981E-16	3.574789E-18
4.828845E+03	2.127836E-16	3.642585E-18
4.838822E+03	2.176516E-16	3.705769E-18
4.848799E+03	2.220749E-16	3.760561E-18
4.858776E+03	2.258509E-16	3.803675E-18
4.868753E+03	2.287737E-16	3.831845E-18
4.878730E+03	2.307617E-16	3.843951E-18
4.888707E+03	2.317046E-16	3.838428E-18
4.898684E+03	2.316762E-16	3.816778E-18
4.908661E+03	2.307222E-16	3.780022E-18
4.918638E+03	2.290403E-16	3.731635E-18
4.928615E+03	2.267509E-16	3.673768E-18
4.938592E+03	2.240486E-16	3.609721E-18
4.948569E+03	2.210833E-16	3.542009E-18
4.958546E+03	2.179968E-16	3.472963E-18
4.968523E+03	2.148223E-16	3.403142E-18
4.978500E+03	2.116244E-16	3.333587E-18
4.988477E+03	2.084073E-16	3.264369E-18
4.998454E+03	2.051239E-16	3.194761E-18
5.008431E+03	2.017745E-16	3.124783E-18
5.018407E+03	1.982874E-16	3.053351E-18
5.028384E+03	1.946012E-16	2.979557E-18
5.038361E+03	1.907403E-16	2.903828E-18
5.048338E+03	1.866884E-16	2.825957E-18
5.058315E+03	1.825645E-16	2.747786E-18
5.068292E+03	1.784734E-16	2.670901E-18
5.078269E+03	1.746380E-16	2.598605E-18
5.088246E+03	1.713026E-16	2.534445E-18
5.098223E+03	1.687287E-16	2.482142E-18
5.108200E+03	1.671712E-16	2.445229E-18
5.118177E+03	1.668581E-16	2.426770E-18
5.128154E+03	1.679734E-16	2.429116E-18
5.138131E+03	1.706181E-16	2.453374E-18
5.148108E+03	1.748551E-16	2.500075E-18
5.158085E+03	1.805577E-16	2.567041E-18
5.168062E+03	1.875295E-16	2.651157E-18
5.178039E+03	1.953603E-16	2.746373E-18
5.188016E+03	2.035854E-16	2.846009E-18
5.197993E+03	2.116692E-16	2.942553E-18
5.207970E+03	2.191011E-16	3.028999E-18
5.217947E+03	2.254550E-16	3.099670E-18
5.227923E+03	2.305433E-16	3.152263E-18
5.237900E+03	2.343061E-16	3.186275E-18
5.247877E+03	2.368549E-16	3.203526E-18
5.257854E+03	2.384658E-16	3.208011E-18
5.267831E+03	2.394381E-16	3.203952E-18
5.277808E+03	2.400501E-16	3.195202E-18
5.287785E+03	2.405136E-16	3.184650E-18
5.297762E+03	2.409596E-16	3.174063E-18
5.307739E+03	2.414235E-16	3.163920E-18
5.317716E+03	2.419595E-16	3.154931E-18
5.327693E+03	2.424995E-16	3.146212E-18
5.337670E+03	2.430370E-16	3.137685E-18
5.347647E+03	2.435465E-16	3.129035E-18
5.357624E+03	2.440123E-16	3.120080E-18
5.367601E+03	2.444261E-16	3.110729E-18
5.377578E+03	2.447804E-16	3.100908E-18
5.387555E+03	2.450370E-16	3.090158E-18
5.397532E+03	2.451944E-16	3.078487E-18
5.407509E+03	2.452243E-16	3.065565E-18
5.417486E+03	2.451146E-16	3.051274E-18
5.427463E+03	2.448956E-16	3.036018E-18
5.437440E+03	2.446610E-16	3.020981E-18
5.447416E+03	2.445531E-16	3.007922E-18
5.457393E+03	2.448493E-16	3.000230E-18
5.467370E+03	2.457829E-16	3.000709E-18
5.477347E+03	2.476803E-16	3.013256E-18
5.487324E+03	2.506701E-16	3.039327E-18
5.497301E+03	2.543452E-16	3.073891E-18
5.507278E+03	2.581369E-16	3.110045E-18
5.517255E+03	2.614978E-16	3.141227E-18
5.527232E+03	2.639120E-16	3.161334E-18
5.537209E+03	2.649062E-16	3.164826E-18
5.547186E+03	2.642559E-16	3.149167E-18
5.557163E+03	2.620365E-16	3.115386E-18
5.567140E+03	2.584875E-16	3.066437E-18
5.577117E+03	2.540224E-16	3.007291E-18
5.587094E+03	2.491803E-16	2.944350E-18
5.597071E+03	2.444566E-16	2.883450E-18
5.607048E+03	2.402503E-16	2.829248E-18
5.617025E+03	2.367981E-16	2.784468E-18
5.627002E+03	2.342531E-16	2.750842E-18
5.636979E+03	2.325460E-16	2.727493E-18
5.646956E+03	2.315601E-16	2.713000E-18
5.656932E+03	2.310738E-16	2.704729E-18
5.666909E+03	2.307909E-16	2.699189E-18
5.676886E+03	2.304499E-16	2.693306E-18
5.686863E+03	2.297006E-16	2.682982E-18
5.696840E+03	2.282727E-16	2.665057E-18
5.706817E+03	2.259175E-16	2.636624E-18
5.716794E+03	2.224590E-16	2.595624E-18
5.726771E+03	2.178092E-16	2.541017E-18
5.736748E+03	2.120593E-16	2.473850E-18
5.746725E+03	2.054609E-16	2.397028E-18
5.756702E+03	1.983529E-16	2.314476E-18
5.766679E+03	1.913122E-16	2.232890E-18
5.776656E+03	1.849126E-16	2.158942E-18
5.786633E+03	1.797414E-16	2.099473E-18
5.796610E+03	1.763902E-16	2.061395E-18
5.806587E+03	1.753928E-16	2.050963E-18
5.816564E+03	1.772234E-16	2.073769E-18
5.826541E+03	1.823479E-16	2.135334E-18
5.836518E+03	1.910674E-16	2.239282E-18
5.846495E+03	2.035369E-16	2.387549E-18
5.856472E+03	2.195762E-16	2.578163E-18
5.866449E+03	2.385658E-16	2.803990E-18
5.876425E+03	2.593577E-16	3.051668E-18
5.886402E+03	2.803850E-16	3.302842E-18
5.896379E+03	2.998044E-16	3.535821E-18
5.906356E+03	3.158630E-16	3.729867E-18
5.916333E+03	3.272744E-16	3.869643E-18
5.926310E+03	3.334379E-16	3.947838E-18
5.936287E+03	3.345612E-16	3.966664E-18
5.946264E+03	3.314244E-16	3.935129E-18
5.956241E+03	3.251562E-16	3.866426E-18
5.966218E+03	3.169511E-16	3.774595E-18
5.976195E+03	3.079562E-16	3.673198E-18
5.986172E+03	2.990758E-16	3.572973E-18
5.996149E+03	2.909639E-16	3.481736E-18
6.006126E+03	2.840464E-16	3.404622E-18
6.016103E+03	2.785507E-16	3.344419E-18
6.026080E+03	2.746389E-16	3.303149E-18
6.036057E+03	2.723789E-16	3.281726E-18
6.046034E+03	2.717921E-16	3.280502E-18
6.056011E+03	2.728552E-16	3.299303E-18
6.065988E+03	2.754692E-16	3.337033E-18
6.075965E+03	2.795172E-16	3.392379E-18
6.085941E+03	2.847862E-16	3.462849E-18
6.095918E+03	2.909911E-16	3.545056E-18
6.105895E+03	2.977676E-16	3.634622E-18
6.115872E+03	3.047814E-16	3.727505E-18
6.125849E+03	3.117003E-16	3.819654E-18
6.135826E+03	3.182660E-16	3.907898E-18
6.145803E+03	3.243113E-16	3.990156E-18
6.155780E+03	3.298971E-16	4.067147E-18
6.165757E+03	3.351273E-16	4.140122E-18
6.175734E+03	3.403178E-16	4.212973E-18
6.185711E+03	3.458085E-16	4.289914E-18
6.195688E+03	3.520326E-16	4.376359E-18
6.205665E+03	3.592327E-16	4.475397E-18
6.215642E+03	3.676032E-16	4.589538E-18
6.225619E+03	3.771417E-16	4.718855E-18
6.235596E+03	3.876434E-16	4.860885E-18
6.245573E+03	3.988138E-16	5.012017E-18
6.255550E+03	4.102066E-16	5.166700E-18
6.265527E+03	4.212984E-16	5.318356E-18
6.275504E+03	4.315378E-16	5.459997E-18
6.285481E+03	4.403590E-16	5.584389E-18
6.295457E+03	4.473766E-16	5.686523E-18
6.305434E+03	4.521688E-16	5.760873E-18
6.315411E+03	4.545282E-16	5.804605E-18
6.325388E+03	4.544841E-16	5.817879E-18
6.335365E+03	4.520800E-16	5.801040E-18
6.345342E+03	4.476348E-16	5.757974E-18
6.355319E+03	4.415721E-16	5.693951E-18
6.365296E+03	4.344248E-16	5.615704E-18
6.375273E+03	4.267542E-16	5.530398E-18
6.385250E+03	4.192103E-16	5.446425E-18
6.395227E+03	4.123817E-16	5.371459E-18
6.405204E+03	4.068066E-16	5.312594E-18
6.415181E+03	4.029602E-16	5.276180E-18
6.425158E+03	4.012249E-16	5.267414E-18
6.435135E+03	4.020045E-16	5.291834E-18
6.445112E+03	4.056418E-16	5.354239E-18
6.455089E+03	4.124713E-16	5.459375E-18
6.465066E+03	4.227981E-16	5.611659E-18
6.475043E+03	4.370091E-16	5.816649E-18
6.485020E+03	4.554725E-16	6.079730E-18
6.494997E+03	4.785695E-16	6.406527E-18
6.504974E+03	5.066924E-16	6.802896E-18
6.514950E+03	5.401902E-16	7.274190E-18
6.524927E+03	5.785493E-16	7.814187E-18
6.534904E+03	6.195224E-16	8.393112E-18
6.544881E+03	6.602403E-16	8.972372E-18
6.554858E+03	6.974315E-16	9.507399E-18
6.564835E+03	7.280056E-16	9.955538E-18
6.574812E+03	7.490966E-16	1.027665E-17
6.584789E+03	7.588815E-16	1.044444E-17
6.594766E+03	7.565431E-16	1.044610E-17
6.604743E+03	7.426344E-16	1.028767E-17
6.614720E+03	7.184825E-16	9.985968E-18
6.624697E+03	6.863216E-16	9.570704E-18
6.634674E+03	6.486746E-16	9.076004E-18
6.644651E+03	6.080722E-16	8.536564E-18
6.654628E+03	5.667401E-16	7.983256E-18
6.664605E+03	5.265862E-16	7.442878E-18
6.674582E+03	4.889779E-16	6.934937E-18
6.684559E+03	4.548080E-16	6.472455E-18
6.694536E+03	4.245534E-16	6.062701E-18
6.704513E+03	3.983234E-16	5.707779E-18
6.714490E+03	3.760805E-16	5.407711E-18
6.724466E+03	3.574833E-16	5.158142E-18
6.734443E+03	3.421562E-16	4.954154E-18
6.744420E+03	3.297254E-16	4.790791E-18
6.754397E+03	3.196863E-16	4.661119E-18
6.764374E+03	3.116526E-16	4.559838E-18
6.774351E+03	3.051543E-16	4.480342E-18
6.784328E+03	2.998390E-16	4.417668E-18
6.794305E+03	2.953533E-16	4.366762E-18
6.804282E+03	2.914817E-16	4.324552E-18
6.814259E+03	2.879810E-16	4.287502E-18
6.824236E+03	2.847547E-16	4.254224E-18
6.834213E+03	2.817499E-16	4.223964E-18
6.844190E+03	2.789719E-16	4.196830E-18
6.854167E+03	2.764465E-16	4.173242E-18
6.864144E+03	2.742959E-16	4.155086E-18
6.874121E+03	2.725574E-16	4.142984E-18
6.884098E+03	2.713301E-16	4.138511E-18
6.894075E+03	2.706458E-16	4.142227E-18
6.904052E+03	2.705778E-16	4.155342E-18
6.914029E+03	2.710815E-16	4.177260E-18
6.924006E+03	2.721841E-16	4.208493E-18
6.933983E+03	2.738084E-16	4.247929E-18
6.943959E+03	2.759151E-16	4.295038E-18
6.953936E+03	2.785081E-16	4.349954E-18
6.963913E+03	2.815193E-16	4.411683E-18
6.973890E+03	2.848783E-16	4.479179E-18
6.983867E+03	2.885598E-16	4.552096E-18
6.993844E+03	2.925111E-16	4.629647E-18
7.003821E+03	2.966729E-16	4.710930E-18
7.013798E+03	3.009491E-16	4.794443E-18
7.023775E+03	3.053037E-16	4.879623E-18
7.033752E+03	3.095779E-16	4.963936E-18
7.043729E+03	3.136676E-16	5.045691E-18
7.053706E+03	3.174237E-16	5.122450E-18
7.063683E+03	3.206901E-16	5.191630E-18
7.073660E+03	3.233232E-16	5.250822E-18
7.083637E+03	3.251942E-16	5.297828E-18
7.093614E+03	3.263036E-16	5.332536E-18
7.103591E+03	3.267301E-16	5.356119E-18
7.113568E+03	3.266768E-16	5.371811E-18
7.123545E+03	3.264729E-16	5.384967E-18
7.133522E+03	3.265557E-16	5.402799E-18
7.143499E+03	3.274136E-16	5.433455E-18
7.153475E+03	3.296552E-16	5.487181E-18
7.163452E+03	3.337662E-16	5.572290E-18
7.173429E+03	3.402569E-16	5.697608E-18
7.183406E+03	3.494995E-16	5.869736E-18
7.193383E+03	3.616708E-16	6.092059E-18
7.203360E+03	3.768277E-16	6.365967E-18
7.213337E+03	3.946549E-16	6.686550E-18
7.223314E+03	4.146633E-16	7.045888E-18
7.233291E+03	4.360559E-16	7.430710E-18
7.243268E+03	4.577680E-16	7.823011E-18
7.253245E+03	4.785113E-16	8.200751E-18
7.263222E+03	4.968671E-16	8.539400E-18
7.273199E+03	5.113868E-16	8.813635E-18
7.283176E+03	5.209475E-16	9.003486E-18
7.293153E+03	5.246120E-16	9.091993E-18
7.303130E+03	5.220551E-16	9.072656E-18
7.313107E+03	5.134212E-16	8.947101E-18
7.323084E+03	4.993281E-16	8.725257E-18
7.333061E+03	4.807215E-16	8.422924E-18
7.343038E+03	4.589050E-16	8.062373E-18
7.353015E+03	4.350913E-16	7.664518E-18
7.362991E+03	4.105554E-16	7.251611E-18
7.372968E+03	3.863609E-16	6.842397E-18
7.382945E+03	3.633374E-16	6.451663E-18
7.392922E+03	3.420556E-16	6.089744E-18
7.402899E+03	3.228351E-16	5.762601E-18
7.412876E+03	3.057476E-16	5.471808E-18
7.422853E+03	2.907708E-16	5.217272E-18
7.432830E+03	2.776443E-16	4.994608E-18
7.442807E+03	2.661049E-16	4.799331E-18
7.452784E+03	2.558241E-16	4.625727E-18
7.462761E+03	2.464748E-16	4.468042E-18
7.472738E+03	2.377628E-16	4.321066E-18
7.482715E+03	2.294292E-16	4.180169E-18
7.492692E+03	2.213484E-16	4.043114E-18
7.502669E+03	2.133942E-16	3.907627E-18
7.512646E+03	2.056035E-16	3.774406E-18
7.522623E+03	1.980160E-16	3.644206E-18
7.532600E+03	1.907910E-16	3.519996E-18
7.542577E+03	1.841086E-16	3.405160E-18
7.552554E+03	1.781634E-16	3.303379E-18
7.562531E+03	1.731269E-16	3.217948E-18
7.572508E+03	1.691990E-16	3.152717E-18
7.582484E+03	1.664910E-16	3.109918E-18
7.592461E+03	1.651493E-16	3.092462E-18
7.602438E+03	1.652341E-16	3.101670E-18
7.612415E+03	1.668212E-16	3.139168E-18
7.622392E+03	1.699298E-16	3.205528E-18
7.632369E+03	1.745131E-16	3.300080E-18
7.642346E+03	1.804282E-16	3.420321E-18
7.652323E+03	1.873936E-16	3.561096E-18
7.662300E+03	1.950529E-16	3.715761E-18
7.672277E+03	2.028778E-16	3.874336E-18
7.682254E+03	2.103558E-16	4.027034E-18
7.692231E+03	2.169072E-16	4.162691E-18
7.702208E+03	2.220886E-16	4.272648E-18
7.712185E+03	2.255797E-16	4.350540E-18
7.722162E+03	2.272392E-16	4.393400E-18
7.732139E+03	2.271094E-16	4.401790E-18
7.742116E+03	2.253903E-16	4.379337E-18
