#wls	flux	fluxerr
1.596313E+03	3.670875E-18	1.874638E-19
1.636220E+03	3.708801E-18	1.889180E-19
1.676128E+03	3.744091E-18	1.902162E-19
1.716036E+03	3.776634E-18	1.913530E-19
1.755944E+03	3.807972E-18	1.924070E-19
1.795852E+03	3.833615E-18	1.931518E-19
1.835759E+03	3.854091E-18	1.936161E-19
1.875667E+03	3.869658E-18	1.938143E-19
1.915575E+03	3.876870E-18	1.935763E-19
1.955483E+03	3.874481E-18	1.928435E-19
1.995391E+03	3.862774E-18	1.916344E-19
2.035298E+03	3.845384E-18	1.901330E-19
2.075206E+03	3.831019E-18	1.887712E-19
2.115114E+03	3.834659E-18	1.882829E-19
2.155022E+03	3.867664E-18	1.892141E-19
2.194930E+03	3.934475E-18	1.917649E-19
2.234838E+03	4.035028E-18	1.959126E-19
2.274745E+03	4.157875E-18	2.010829E-19
2.314653E+03	4.294674E-18	2.068596E-19
2.354561E+03	4.434409E-18	2.127038E-19
2.394469E+03	4.577004E-18	2.186080E-19
2.434377E+03	4.717210E-18	2.243185E-19
2.474284E+03	4.859195E-18	2.300320E-19
2.514192E+03	5.001881E-18	2.356941E-19
2.554100E+03	5.146476E-18	2.413588E-19
2.594008E+03	5.294283E-18	2.470831E-19
2.633916E+03	5.448885E-18	2.530286E-19
2.673823E+03	5.607052E-18	2.590389E-19
2.713731E+03	5.774662E-18	2.653788E-19
2.753639E+03	5.950698E-18	2.719920E-19
2.793547E+03	6.136453E-18	2.789280E-19
2.833455E+03	6.333271E-18	2.862371E-19
2.873363E+03	6.542580E-18	2.939714E-19
2.913270E+03	6.765925E-18	3.021864E-19
2.953178E+03	7.007795E-18	3.110662E-19
2.993086E+03	7.264557E-18	3.204311E-19
3.003063E+03	7.333197E-18	3.229396E-19
3.013040E+03	7.403126E-18	3.254926E-19
3.023017E+03	7.471425E-18	3.279616E-19
3.032994E+03	7.544105E-18	3.306103E-19
3.042971E+03	7.618139E-18	3.333051E-19
3.052948E+03	7.690917E-18	3.359318E-19
3.062925E+03	7.768474E-18	3.387537E-19
3.072902E+03	7.847814E-18	3.416393E-19
3.082879E+03	7.928947E-18	3.445884E-19
3.092856E+03	8.008754E-18	3.474654E-19
3.102832E+03	8.093500E-18	3.505417E-19
3.112809E+03	8.180100E-18	3.536828E-19
3.122786E+03	8.268583E-18	3.568894E-19
3.132763E+03	8.355727E-18	3.600223E-19
3.142740E+03	8.448048E-18	3.633618E-19
3.152717E+03	8.542361E-18	3.667699E-19
3.162694E+03	8.638712E-18	3.702481E-19
3.172671E+03	8.733769E-18	3.736533E-19
3.182648E+03	8.834314E-18	3.772752E-19
3.192625E+03	8.937050E-18	3.809720E-19
3.202602E+03	9.042047E-18	3.847459E-19
3.212579E+03	9.149368E-18	3.885992E-19
3.222556E+03	9.259078E-18	3.925338E-19
3.232533E+03	9.367657E-18	3.964001E-19
3.242510E+03	9.482335E-18	4.005038E-19
3.252487E+03	9.599632E-18	4.046964E-19
3.262464E+03	9.719641E-18	4.089811E-19
3.272441E+03	9.842455E-18	4.133612E-19
3.282418E+03	9.968160E-18	4.178393E-19
3.292395E+03	1.009302E-17	4.222586E-19
3.302372E+03	1.022478E-17	4.269420E-19
3.312348E+03	1.035976E-17	4.317348E-19
3.322325E+03	1.049805E-17	4.366401E-19
3.332302E+03	1.063980E-17	4.416624E-19
3.342279E+03	1.078513E-17	4.468060E-19
3.352256E+03	1.093417E-17	4.520752E-19
3.362233E+03	1.108705E-17	4.574747E-19
3.372210E+03	1.124393E-17	4.630094E-19
3.382187E+03	1.140495E-17	4.686843E-19
3.392164E+03	1.157028E-17	4.745049E-19
3.402141E+03	1.173567E-17	4.802965E-19
3.412118E+03	1.191003E-17	4.864224E-19
3.422095E+03	1.208922E-17	4.927112E-19
3.432072E+03	1.227340E-17	4.991685E-19
3.442049E+03	1.246278E-17	5.058012E-19
3.452026E+03	1.265756E-17	5.126155E-19
3.462003E+03	1.285793E-17	5.196181E-19
3.471980E+03	1.306412E-17	5.268164E-19
3.481957E+03	1.327636E-17	5.342176E-19
3.491934E+03	1.349487E-17	5.418295E-19
3.501911E+03	1.371989E-17	5.496591E-19
3.511888E+03	1.395167E-17	5.577147E-19
3.521864E+03	1.419047E-17	5.660049E-19
3.531841E+03	1.443654E-17	5.745373E-19
3.541818E+03	1.469014E-17	5.833204E-19
3.551795E+03	1.495157E-17	5.923634E-19
3.561772E+03	1.522109E-17	6.016746E-19
3.571749E+03	1.549900E-17	6.112635E-19
3.581726E+03	1.578559E-17	6.211384E-19
3.591703E+03	1.608117E-17	6.313092E-19
3.601680E+03	1.638603E-17	6.417844E-19
3.611657E+03	1.670049E-17	6.525744E-19
3.621634E+03	1.702488E-17	6.636881E-19
3.631611E+03	1.735950E-17	6.751348E-19
3.641588E+03	1.770470E-17	6.869249E-19
3.651565E+03	1.806080E-17	6.990676E-19
3.661542E+03	1.843479E-17	7.118290E-19
3.671519E+03	1.881386E-17	7.247108E-19
3.681496E+03	1.920488E-17	7.379753E-19
3.691473E+03	1.960822E-17	7.516328E-19
3.701450E+03	2.002422E-17	7.656929E-19
3.711427E+03	2.045328E-17	7.801659E-19
3.721404E+03	2.089576E-17	7.950627E-19
3.731381E+03	2.135205E-17	8.103932E-19
3.741357E+03	2.182254E-17	8.261683E-19
3.751334E+03	2.230765E-17	8.423987E-19
3.761311E+03	2.280776E-17	8.590948E-19
3.771288E+03	2.332328E-17	8.762671E-19
3.781265E+03	2.385464E-17	8.939272E-19
3.791242E+03	2.441089E-17	9.124078E-19
3.801219E+03	2.497539E-17	9.310812E-19
3.811196E+03	2.555702E-17	9.502749E-19
3.821173E+03	2.615624E-17	9.700000E-19
3.831150E+03	2.677346E-17	9.902668E-19
3.841127E+03	2.740916E-17	1.011087E-18
3.851104E+03	2.806378E-17	1.032471E-18
3.861081E+03	2.873779E-17	1.054429E-18
3.871058E+03	2.943163E-17	1.076973E-18
3.881035E+03	3.014577E-17	1.100112E-18
3.891012E+03	3.089144E-17	1.124248E-18
3.900989E+03	3.164782E-17	1.148618E-18
3.910966E+03	3.242590E-17	1.173613E-18
3.920943E+03	3.322612E-17	1.199244E-18
3.930920E+03	3.404896E-17	1.225520E-18
3.940897E+03	3.489484E-17	1.252449E-18
3.950873E+03	3.576422E-17	1.280041E-18
3.960850E+03	3.665752E-17	1.308302E-18
3.970827E+03	3.758812E-17	1.337701E-18
3.980804E+03	3.853084E-17	1.367333E-18
3.990781E+03	3.949872E-17	1.397655E-18
4.000758E+03	4.049214E-17	1.428671E-18
4.010735E+03	4.151145E-17	1.460388E-18
4.020712E+03	4.255698E-17	1.492806E-18
4.030689E+03	4.362903E-17	1.525928E-18
4.040666E+03	4.472788E-17	1.559757E-18
4.050643E+03	4.585376E-17	1.594289E-18
4.060620E+03	4.702285E-17	1.630079E-18
4.070597E+03	4.820368E-17	1.666024E-18
4.080574E+03	4.941199E-17	1.702662E-18
4.090551E+03	5.064780E-17	1.739985E-18
4.100528E+03	5.191108E-17	1.777984E-18
4.110505E+03	5.320171E-17	1.816645E-18
4.120482E+03	5.451952E-17	1.855954E-18
4.130459E+03	5.586421E-17	1.895892E-18
4.140436E+03	5.723540E-17	1.936436E-18
4.150413E+03	5.865230E-17	1.978226E-18
4.160390E+03	6.007533E-17	2.019918E-18
4.170366E+03	6.152298E-17	2.062127E-18
4.180343E+03	6.299434E-17	2.104817E-18
4.190320E+03	6.448831E-17	2.147942E-18
4.200297E+03	6.600361E-17	2.191453E-18
4.210274E+03	6.753875E-17	2.235294E-18
4.220251E+03	6.909200E-17	2.279401E-18
4.230228E+03	7.066138E-17	2.323704E-18
4.240205E+03	7.224463E-17	2.368122E-18
4.250182E+03	7.386360E-17	2.413367E-18
4.260159E+03	7.546693E-17	2.457752E-18
4.270136E+03	7.707522E-17	2.501954E-18
4.280113E+03	7.868470E-17	2.545848E-18
4.290090E+03	8.029109E-17	2.589296E-18
4.300067E+03	8.188957E-17	2.632144E-18
4.310044E+03	8.347476E-17	2.674223E-18
4.320021E+03	8.504069E-17	2.715348E-18
4.329998E+03	8.658079E-17	2.755314E-18
4.339975E+03	8.808799E-17	2.793908E-18
4.349952E+03	8.955497E-17	2.830908E-18
4.359929E+03	9.097449E-17	2.866100E-18
4.369906E+03	9.234009E-17	2.899297E-18
4.379882E+03	9.364667E-17	2.930357E-18
4.389859E+03	9.489124E-17	2.959208E-18
4.399836E+03	9.607311E-17	2.985847E-18
4.409813E+03	9.719330E-17	3.010327E-18
4.419790E+03	9.825400E-17	3.032737E-18
4.429767E+03	9.925839E-17	3.053194E-18
4.439744E+03	1.002097E-16	3.071815E-18
4.449721E+03	1.011112E-16	3.088723E-18
4.459698E+03	1.019665E-16	3.104036E-18
4.469675E+03	1.027783E-16	3.117860E-18
4.479652E+03	1.035499E-16	3.130304E-18
4.489629E+03	1.042840E-16	3.141466E-18
4.499606E+03	1.049830E-16	3.151432E-18
4.509583E+03	1.056495E-16	3.160288E-18
4.519560E+03	1.062857E-16	3.168116E-18
4.529537E+03	1.068937E-16	3.174985E-18
4.539514E+03	1.074755E-16	3.180963E-18
4.549491E+03	1.080331E-16	3.186119E-18
4.559468E+03	1.085682E-16	3.190511E-18
4.569445E+03	1.090826E-16	3.194195E-18
4.579422E+03	1.095779E-16	3.197224E-18
4.589398E+03	1.100556E-16	3.199649E-18
4.599375E+03	1.105172E-16	3.201522E-18
4.609352E+03	1.109643E-16	3.202886E-18
4.619329E+03	1.113628E-16	3.202772E-18
4.629306E+03	1.117847E-16	3.203252E-18
4.639283E+03	1.121958E-16	3.203346E-18
4.649260E+03	1.125975E-16	3.203098E-18
4.659237E+03	1.129912E-16	3.202545E-18
4.669214E+03	1.133779E-16	3.201723E-18
4.679191E+03	1.137588E-16	3.200664E-18
4.689168E+03	1.140994E-16	3.198403E-18
4.699145E+03	1.144722E-16	3.196980E-18
4.709122E+03	1.148426E-16	3.195420E-18
4.719099E+03	1.152119E-16	3.193757E-18
4.729076E+03	1.155810E-16	3.192020E-18
4.739053E+03	1.159150E-16	3.189248E-18
4.749030E+03	1.162872E-16	3.187458E-18
4.759007E+03	1.166625E-16	3.185682E-18
4.768984E+03	1.170421E-16	3.183951E-18
4.778961E+03	1.173908E-16	3.181310E-18
4.788938E+03	1.177821E-16	3.179756E-18
4.798915E+03	1.181812E-16	3.178332E-18
4.808891E+03	1.185890E-16	3.177067E-18
4.818868E+03	1.189700E-16	3.175007E-18
4.828845E+03	1.193986E-16	3.174141E-18
4.838822E+03	1.198396E-16	3.173518E-18
4.848799E+03	1.202570E-16	3.172189E-18
4.858776E+03	1.207258E-16	3.172132E-18
4.868753E+03	1.212107E-16	3.172403E-18
4.878730E+03	1.216754E-16	3.172056E-18
4.888707E+03	1.221958E-16	3.173065E-18
4.898684E+03	1.226985E-16	3.173515E-18
4.908661E+03	1.232596E-16	3.175375E-18
4.918638E+03	1.238431E-16	3.177703E-18
4.928615E+03	1.244126E-16	3.179560E-18
4.938592E+03	1.250450E-16	3.182910E-18
4.948569E+03	1.256658E-16	3.185843E-18
4.958546E+03	1.263525E-16	3.190325E-18
4.968523E+03	1.270300E-16	3.194443E-18
4.978500E+03	1.277765E-16	3.200162E-18
4.988477E+03	1.285160E-16	3.205564E-18
4.998454E+03	1.293276E-16	3.212619E-18
5.008431E+03	1.301343E-16	3.219401E-18
5.018407E+03	1.310161E-16	3.227879E-18
5.028384E+03	1.318949E-16	3.236121E-18
5.038361E+03	1.328513E-16	3.246095E-18
5.048338E+03	1.338065E-16	3.255860E-18
5.058315E+03	1.348011E-16	3.266406E-18
5.068292E+03	1.358767E-16	3.278722E-18
5.078269E+03	1.369527E-16	3.290850E-18
5.088246E+03	1.381114E-16	3.304762E-18
5.098223E+03	1.392710E-16	3.318483E-18
5.108200E+03	1.404727E-16	3.332993E-18
5.118177E+03	1.417588E-16	3.349282E-18
5.128154E+03	1.430450E-16	3.365343E-18
5.138131E+03	1.443731E-16	3.382154E-18
5.148108E+03	1.457426E-16	3.399697E-18
5.158085E+03	1.471964E-16	3.418960E-18
5.168062E+03	1.486467E-16	3.437884E-18
5.178039E+03	1.501357E-16	3.457449E-18
5.188016E+03	1.516620E-16	3.477612E-18
5.197993E+03	1.532693E-16	3.499366E-18
5.207970E+03	1.548657E-16	3.520599E-18
5.217947E+03	1.564937E-16	3.542278E-18
5.227923E+03	1.581513E-16	3.564353E-18
5.237900E+03	1.598355E-16	3.586755E-18
5.247877E+03	1.615435E-16	3.609416E-18
5.257854E+03	1.632721E-16	3.632260E-18
5.267831E+03	1.650178E-16	3.655209E-18
5.277808E+03	1.668258E-16	3.679262E-18
5.287785E+03	1.685942E-16	3.702163E-18
5.297762E+03	1.703673E-16	3.724902E-18
5.307739E+03	1.721401E-16	3.747370E-18
5.317716E+03	1.739076E-16	3.769466E-18
5.327693E+03	1.756641E-16	3.791074E-18
5.337670E+03	1.774036E-16	3.812074E-18
5.347647E+03	1.791200E-16	3.832345E-18
5.357624E+03	1.807534E-16	3.850624E-18
5.367601E+03	1.824019E-16	3.869022E-18
5.377578E+03	1.840051E-16	3.886261E-18
5.387555E+03	1.855546E-16	3.902188E-18
5.397532E+03	1.870413E-16	3.916632E-18
5.407509E+03	1.884552E-16	3.929408E-18
5.417486E+03	1.897860E-16	3.940326E-18
5.427463E+03	1.909666E-16	3.948031E-18
5.437440E+03	1.920962E-16	3.954606E-18
5.447416E+03	1.931073E-16	3.958694E-18
5.457393E+03	1.939887E-16	3.960097E-18
5.467370E+03	1.947304E-16	3.958657E-18
5.477347E+03	1.952697E-16	3.953142E-18
5.487324E+03	1.957175E-16	3.945846E-18
5.497301E+03	1.960209E-16	3.935737E-18
5.507278E+03	1.961309E-16	3.921874E-18
5.517255E+03	1.961717E-16	3.906782E-18
5.527232E+03	1.960990E-16	3.889606E-18
5.537209E+03	1.958693E-16	3.869516E-18
5.547186E+03	1.956082E-16	3.849029E-18
5.557163E+03	1.952154E-16	3.826184E-18
5.567140E+03	1.948149E-16	3.803429E-18
5.577117E+03	1.943056E-16	3.778798E-18
5.587094E+03	1.938096E-16	3.754674E-18
5.597071E+03	1.932252E-16	3.729089E-18
5.607048E+03	1.926727E-16	3.704370E-18
5.617025E+03	1.920501E-16	3.678553E-18
5.627002E+03	1.914761E-16	3.653911E-18
5.636979E+03	1.908484E-16	3.628489E-18
5.646956E+03	1.902297E-16	3.603477E-18
5.656932E+03	1.896811E-16	3.580026E-18
5.666909E+03	1.891008E-16	3.556201E-18
5.676886E+03	1.885494E-16	3.533139E-18
5.686863E+03	1.880866E-16	3.511947E-18
5.696840E+03	1.876106E-16	3.490710E-18
5.706817E+03	1.871806E-16	3.470523E-18
5.716794E+03	1.868547E-16	3.452449E-18
5.726771E+03	1.865312E-16	3.434591E-18
5.736748E+03	1.862680E-16	3.418009E-18
5.746725E+03	1.860691E-16	3.402762E-18
5.756702E+03	1.859386E-16	3.388909E-18
5.766679E+03	1.858800E-16	3.376501E-18
5.776656E+03	1.859494E-16	3.366537E-18
5.786633E+03	1.860447E-16	3.357152E-18
5.796610E+03	1.862216E-16	3.349339E-18
5.806587E+03	1.864829E-16	3.343134E-18
5.816564E+03	1.868310E-16	3.338566E-18
5.826541E+03	1.872686E-16	3.335664E-18
5.836518E+03	1.877977E-16	3.334449E-18
5.846495E+03	1.884205E-16	3.334947E-18
5.856472E+03	1.891390E-16	3.337175E-18
5.866449E+03	1.899550E-16	3.341151E-18
5.876425E+03	1.908166E-16	3.345946E-18
5.886402E+03	1.918327E-16	3.353463E-18
5.896379E+03	1.929512E-16	3.362769E-18
5.906356E+03	1.941739E-16	3.373878E-18
5.916333E+03	1.955021E-16	3.386802E-18
5.926310E+03	1.969372E-16	3.401549E-18
5.936287E+03	1.984250E-16	3.417172E-18
5.946264E+03	2.000776E-16	3.435593E-18
5.956241E+03	2.018412E-16	3.455868E-18
5.966218E+03	2.036600E-16	3.477033E-18
5.976195E+03	2.056489E-16	3.501038E-18
5.986172E+03	2.077524E-16	3.526925E-18
5.996149E+03	2.099130E-16	3.553708E-18
6.006126E+03	2.122488E-16	3.583377E-18
6.016103E+03	2.147027E-16	3.614954E-18
6.026080E+03	2.172148E-16	3.647424E-18
6.036057E+03	2.199071E-16	3.682829E-18
6.046034E+03	2.226579E-16	3.719119E-18
6.056011E+03	2.255918E-16	3.758374E-18
6.065988E+03	2.285841E-16	3.798504E-18
6.075965E+03	2.317620E-16	3.841622E-18
6.085941E+03	2.349972E-16	3.885593E-18
6.095918E+03	2.383535E-16	3.931471E-18
6.105895E+03	2.418982E-16	3.980365E-18
6.115872E+03	2.454968E-16	4.030054E-18
6.125849E+03	2.492148E-16	4.081622E-18
6.135826E+03	2.531221E-16	4.136206E-18
6.145803E+03	2.570768E-16	4.191489E-18
6.155780E+03	2.611468E-16	4.248588E-18
6.165757E+03	2.654034E-16	4.308664E-18
6.175734E+03	2.696975E-16	4.369300E-18
6.185711E+03	2.740985E-16	4.431631E-18
6.195688E+03	2.786026E-16	4.495607E-18
6.205665E+03	2.832052E-16	4.561166E-18
6.215642E+03	2.879015E-16	4.628241E-18
6.225619E+03	2.926857E-16	4.696754E-18
6.235596E+03	2.976339E-16	4.767938E-18
6.245573E+03	3.025751E-16	4.839074E-18
6.255550E+03	3.075823E-16	4.911352E-18
6.265527E+03	3.126468E-16	4.984655E-18
6.275504E+03	3.177588E-16	5.058849E-18
6.285481E+03	3.229074E-16	5.133788E-18
6.295457E+03	3.279897E-16	5.207867E-18
6.305434E+03	3.331733E-16	5.283776E-18
6.315411E+03	3.383546E-16	5.359901E-18
6.325388E+03	3.435183E-16	5.436033E-18
6.335365E+03	3.486481E-16	5.511946E-18
6.345342E+03	3.537259E-16	5.587393E-18
6.355319E+03	3.587325E-16	5.662106E-18
6.365296E+03	3.635471E-16	5.734216E-18
6.375273E+03	3.683471E-16	5.806563E-18
6.385250E+03	3.730097E-16	5.877246E-18
6.395227E+03	3.774050E-16	5.944262E-18
6.405204E+03	3.817139E-16	6.010493E-18
6.415181E+03	3.858041E-16	6.073898E-18
6.425158E+03	3.895372E-16	6.132331E-18
6.435135E+03	3.930946E-16	6.188683E-18
6.445112E+03	3.963349E-16	6.240760E-18
6.455089E+03	3.991109E-16	6.286272E-18
6.465066E+03	4.016036E-16	6.328097E-18
6.475043E+03	4.035528E-16	6.362150E-18
6.485020E+03	4.051421E-16	6.391341E-18
6.494997E+03	4.061131E-16	6.411604E-18
6.504974E+03	4.065488E-16	6.424243E-18
6.514950E+03	4.065448E-16	6.430754E-18
6.524927E+03	4.058744E-16	6.427511E-18
6.534904E+03	4.047749E-16	6.418220E-18
6.544881E+03	4.030482E-16	6.399680E-18
6.554858E+03	4.008401E-16	6.374144E-18
6.564835E+03	3.982984E-16	6.343900E-18
6.574812E+03	3.952420E-16	6.306000E-18
6.584789E+03	3.918202E-16	6.262753E-18
6.594766E+03	3.880707E-16	6.214698E-18
6.604743E+03	3.840296E-16	6.162345E-18
6.614720E+03	3.798356E-16	6.107860E-18
6.624697E+03	3.753104E-16	6.048317E-18
6.634674E+03	3.705905E-16	5.985848E-18
6.644651E+03	3.657052E-16	5.920867E-18
6.654628E+03	3.606818E-16	5.853762E-18
6.664605E+03	3.555463E-16	5.784900E-18
6.674582E+03	3.503231E-16	5.714632E-18
6.684559E+03	3.450352E-16	5.643285E-18
6.694536E+03	3.397039E-16	5.571167E-18
6.704513E+03	3.343493E-16	5.498570E-18
6.714490E+03	3.289902E-16	5.425764E-18
6.724466E+03	3.236437E-16	5.353004E-18
6.734443E+03	3.183257E-16	5.280521E-18
6.744420E+03	3.130506E-16	5.208533E-18
6.754397E+03	3.078314E-16	5.137235E-18
6.764374E+03	3.025969E-16	5.065413E-18
6.774351E+03	2.975257E-16	4.996042E-18
6.784328E+03	2.925421E-16	4.927848E-18
6.794305E+03	2.876548E-16	4.860967E-18
6.804282E+03	2.827926E-16	4.794186E-18
6.814259E+03	2.781189E-16	4.730269E-18
6.824236E+03	2.735595E-16	4.667960E-18
6.834213E+03	2.690443E-16	4.606060E-18
6.844190E+03	2.647262E-16	4.547185E-18
6.854167E+03	2.605323E-16	4.490097E-18
6.864144E+03	2.563935E-16	4.433608E-18
6.874121E+03	2.524536E-16	4.380206E-18
6.884098E+03	2.485725E-16	4.327474E-18
6.894075E+03	2.448883E-16	4.277826E-18
6.904052E+03	2.412641E-16	4.228880E-18
6.914029E+03	2.378331E-16	4.182981E-18
6.924006E+03	2.344614E-16	4.137791E-18
6.933983E+03	2.312777E-16	4.095592E-18
6.943959E+03	2.281510E-16	4.054078E-18
6.953936E+03	2.252058E-16	4.015473E-18
6.963913E+03	2.223142E-16	3.977514E-18
6.973890E+03	2.195362E-16	3.941282E-18
6.983867E+03	2.169290E-16	3.907819E-18
6.993844E+03	2.143680E-16	3.874904E-18
7.003821E+03	2.119112E-16	3.843585E-18
7.013798E+03	2.095548E-16	3.813813E-18
7.023775E+03	2.073528E-16	3.786584E-18
7.033752E+03	2.051862E-16	3.759745E-18
7.043729E+03	2.031095E-16	3.734297E-18
7.053706E+03	2.011191E-16	3.710191E-18
7.063683E+03	1.992112E-16	3.687366E-18
7.073660E+03	1.973826E-16	3.665776E-18
7.083637E+03	1.956295E-16	3.645363E-18
7.093614E+03	1.940021E-16	3.627076E-18
7.103591E+03	1.923894E-16	3.608855E-18
7.113568E+03	1.908420E-16	3.591652E-18
7.123545E+03	1.893568E-16	3.575419E-18
7.133522E+03	1.879307E-16	3.560108E-18
7.143499E+03	1.865604E-16	3.545665E-18
7.153475E+03	1.852435E-16	3.532054E-18
7.163452E+03	1.839259E-16	3.518248E-18
7.173429E+03	1.827078E-16	3.506171E-18
7.183406E+03	1.815350E-16	3.494795E-18
7.193383E+03	1.804058E-16	3.484094E-18
7.203360E+03	1.793179E-16	3.474033E-18
7.213337E+03	1.782697E-16	3.464588E-18
7.223314E+03	1.772595E-16	3.455733E-18
7.233291E+03	1.762370E-16	3.446489E-18
7.243268E+03	1.752996E-16	3.438768E-18
7.253245E+03	1.743972E-16	3.431597E-18
7.263222E+03	1.734806E-16	3.424012E-18
7.273199E+03	1.726466E-16	3.417929E-18
7.283176E+03	1.718468E-16	3.412401E-18
7.293153E+03	1.710334E-16	3.406480E-18
7.303130E+03	1.703026E-16	3.402092E-18
7.313107E+03	1.696073E-16	3.398303E-18
7.323084E+03	1.689010E-16	3.394191E-18
7.333061E+03	1.682799E-16	3.391690E-18
7.343038E+03	1.676510E-16	3.388935E-18
7.353015E+03	1.671097E-16	3.387865E-18
7.362991E+03	1.665644E-16	3.386630E-18
7.372968E+03	1.661106E-16	3.387179E-18
7.382945E+03	1.656570E-16	3.387665E-18
7.392922E+03	1.652991E-16	3.390044E-18
7.402899E+03	1.649466E-16	3.392478E-18
7.412876E+03	1.646946E-16	3.396932E-18
7.422853E+03	1.644532E-16	3.401567E-18
7.432830E+03	1.642716E-16	3.407404E-18
7.442807E+03	1.641983E-16	3.415467E-18
7.452784E+03	1.641443E-16	3.423917E-18
7.462761E+03	1.641581E-16	3.433777E-18
7.472738E+03	1.642889E-16	3.446089E-18
7.482715E+03	1.644468E-16	3.458990E-18
7.492692E+03	1.646810E-16	3.473520E-18
7.502669E+03	1.649938E-16	3.489746E-18
7.512646E+03	1.654344E-16	3.508726E-18
7.522623E+03	1.659122E-16	3.528559E-18
7.532600E+03	1.664760E-16	3.550294E-18
7.542577E+03	1.671280E-16	3.573996E-18
7.552554E+03	1.678700E-16	3.599722E-18
7.562531E+03	1.687041E-16	3.627536E-18
7.572508E+03	1.696798E-16	3.658525E-18
7.582484E+03	1.707030E-16	3.690683E-18
7.592461E+03	1.718226E-16	3.725082E-18
7.602438E+03	1.730398E-16	3.761767E-18
7.612415E+03	1.743553E-16	3.800778E-18
7.622392E+03	1.757696E-16	3.842146E-18
7.632369E+03	1.772830E-16	3.885901E-18
7.642346E+03	1.788956E-16	3.932064E-18
7.652323E+03	1.806068E-16	3.980649E-18
7.662300E+03	1.824161E-16	4.031666E-18
7.672277E+03	1.843224E-16	4.085114E-18
7.682254E+03	1.863243E-16	4.140987E-18
7.692231E+03	1.883664E-16	4.198071E-18
7.702208E+03	1.905530E-16	4.258712E-18
7.712185E+03	1.928281E-16	4.321693E-18
7.722162E+03	1.951889E-16	4.386969E-18
7.732139E+03	1.976313E-16	4.454475E-18
7.742116E+03	2.001513E-16	4.524142E-18
