#wls	flux	fluxerr
1.600000E+03	4.705029E-16	2.146664E-17
1.640000E+03	4.686938E-16	2.122932E-17
1.680000E+03	4.654274E-16	2.092466E-17
1.720000E+03	4.606434E-16	2.055151E-17
1.760000E+03	4.543585E-16	2.011221E-17
1.800000E+03	4.463866E-16	1.960030E-17
1.840000E+03	4.367701E-16	1.901956E-17
1.880000E+03	4.254345E-16	1.836873E-17
1.920000E+03	4.124016E-16	1.765089E-17
1.960000E+03	3.977259E-16	1.687049E-17
2.000000E+03	3.815543E-16	1.603591E-17
2.040000E+03	3.640126E-16	1.515444E-17
2.080000E+03	3.453229E-16	1.423723E-17
2.120000E+03	3.257455E-16	1.329666E-17
2.160000E+03	3.055414E-16	1.234478E-17
2.200000E+03	2.850299E-16	1.139555E-17
2.240000E+03	2.645909E-16	1.046478E-17
2.280000E+03	2.446966E-16	9.571293E-18
2.320000E+03	2.258158E-16	8.732896E-18
2.360000E+03	2.085248E-16	7.970655E-18
2.400000E+03	1.934601E-16	7.306818E-18
2.440000E+03	1.813695E-16	6.766550E-18
2.480000E+03	1.731519E-16	6.379104E-18
2.520000E+03	1.698178E-16	6.175971E-18
2.560000E+03	1.722829E-16	6.183176E-18
2.600000E+03	1.809775E-16	6.407619E-18
2.640000E+03	1.951100E-16	6.812512E-18
2.680000E+03	2.162359E-16	7.443244E-18
2.720000E+03	2.477472E-16	8.404252E-18
2.760000E+03	2.920276E-16	9.759265E-18
2.800000E+03	3.508563E-16	1.154706E-17
2.840000E+03	4.252724E-16	1.377853E-17
2.880000E+03	5.154505E-16	1.643464E-17
2.920000E+03	6.204097E-16	1.945955E-17
2.960000E+03	7.377139E-16	2.275449E-17
3.000000E+03	8.633039E-16	2.617651E-17
3.010000E+03	8.953567E-16	2.703099E-17
3.020000E+03	9.274810E-16	2.787912E-17
3.030000E+03	9.596285E-16	2.871941E-17
3.040000E+03	9.916277E-16	2.954676E-17
3.050000E+03	1.023362E-15	3.035775E-17
3.060000E+03	1.054713E-15	3.114898E-17
3.070000E+03	1.085624E-15	3.191897E-17
3.080000E+03	1.115978E-15	3.266445E-17
3.090000E+03	1.145590E-15	3.338022E-17
3.100000E+03	1.174408E-15	3.406515E-17
3.110000E+03	1.202320E-15	3.471625E-17
3.120000E+03	1.229216E-15	3.533076E-17
3.130000E+03	1.254991E-15	3.590608E-17
3.140000E+03	1.279619E-15	3.644194E-17
3.150000E+03	1.302940E-15	3.693425E-17
3.160000E+03	1.324873E-15	3.738126E-17
3.170000E+03	1.345420E-15	3.778359E-17
3.180000E+03	1.364525E-15	3.814020E-17
3.190000E+03	1.382213E-15	3.845245E-17
3.200000E+03	1.398309E-15	3.871600E-17
3.210000E+03	1.412939E-15	3.893502E-17
3.220000E+03	1.426030E-15	3.910805E-17
3.230000E+03	1.437667E-15	3.923807E-17
3.240000E+03	1.447878E-15	3.932644E-17
3.250000E+03	1.456707E-15	3.937493E-17
3.260000E+03	1.464285E-15	3.938759E-17
3.270000E+03	1.470611E-15	3.936495E-17
3.280000E+03	1.475842E-15	3.931165E-17
3.290000E+03	1.480069E-15	3.923061E-17
3.300000E+03	1.483462E-15	3.912668E-17
3.310000E+03	1.486052E-15	3.900104E-17
3.320000E+03	1.488004E-15	3.885837E-17
3.330000E+03	1.489406E-15	3.870115E-17
3.340000E+03	1.490390E-15	3.853307E-17
3.350000E+03	1.490925E-15	3.835351E-17
3.360000E+03	1.491132E-15	3.816577E-17
3.370000E+03	1.490880E-15	3.796665E-17
3.380000E+03	1.490088E-15	3.775428E-17
3.390000E+03	1.488518E-15	3.752291E-17
3.400000E+03	1.485880E-15	3.726557E-17
3.410000E+03	1.481694E-15	3.697073E-17
3.420000E+03	1.475344E-15	3.662367E-17
3.430000E+03	1.466130E-15	3.620800E-17
3.440000E+03	1.453228E-15	3.570449E-17
3.450000E+03	1.435606E-15	3.508933E-17
3.460000E+03	1.412361E-15	3.434235E-17
3.470000E+03	1.382493E-15	3.344143E-17
3.480000E+03	1.345711E-15	3.238206E-17
3.490000E+03	1.303535E-15	3.120322E-17
3.500000E+03	1.257800E-15	2.995057E-17
3.510000E+03	1.210341E-15	2.866887E-17
3.520000E+03	1.162517E-15	2.739077E-17
3.530000E+03	1.115466E-15	2.614300E-17
3.540000E+03	1.069963E-15	2.494334E-17
3.550000E+03	1.026645E-15	2.380589E-17
3.560000E+03	9.857755E-16	2.273592E-17
3.570000E+03	9.475724E-16	2.173747E-17
3.573463E+03	7.758505E-16	1.776491E-17
3.575462E+03	7.855333E-16	1.796721E-17
3.577451E+03	7.885443E-16	1.801670E-17
3.579450E+03	7.933273E-16	1.810639E-17
3.581439E+03	7.930575E-16	1.808076E-17
3.583438E+03	7.960522E-16	1.812939E-17
3.585438E+03	7.973227E-16	1.813864E-17
3.587427E+03	7.927511E-16	1.801519E-17
3.589426E+03	7.912718E-16	1.796207E-17
3.591425E+03	7.870467E-16	1.784676E-17
3.593414E+03	7.801972E-16	1.767232E-17
3.595413E+03	7.722090E-16	1.747236E-17
3.597402E+03	7.686275E-16	1.737250E-17
3.599401E+03	7.623069E-16	1.721088E-17
3.601401E+03	7.610112E-16	1.716290E-17
3.603390E+03	7.762496E-16	1.748757E-17
3.605389E+03	7.891308E-16	1.775837E-17
3.607378E+03	7.922609E-16	1.780943E-17
3.609377E+03	8.010173E-16	1.798659E-17
3.611376E+03	8.012876E-16	1.797298E-17
3.613365E+03	8.029225E-16	1.799004E-17
3.615365E+03	7.973368E-16	1.784530E-17
3.617354E+03	8.003314E-16	1.789279E-17
3.619353E+03	8.007085E-16	1.788158E-17
3.621352E+03	7.955830E-16	1.774761E-17
3.623341E+03	7.949980E-16	1.771517E-17
3.625340E+03	7.942966E-16	1.768008E-17
3.627339E+03	7.995945E-16	1.777842E-17
3.629329E+03	8.090726E-16	1.796943E-17
3.631328E+03	8.071720E-16	1.790746E-17
3.633317E+03	8.005845E-16	1.774182E-17
3.635316E+03	7.983492E-16	1.767275E-17
3.637315E+03	7.918823E-16	1.751023E-17
3.639304E+03	7.765128E-16	1.715149E-17
3.641303E+03	7.805478E-16	1.722154E-17
3.643292E+03	7.817622E-16	1.722933E-17
3.645292E+03	7.741885E-16	1.704349E-17
3.647291E+03	7.727555E-16	1.699307E-17
3.649280E+03	7.706503E-16	1.692806E-17
3.651279E+03	7.764669E-16	1.703688E-17
3.653268E+03	7.852534E-16	1.721061E-17
3.655267E+03	7.936884E-16	1.737613E-17
3.657266E+03	7.973999E-16	1.743795E-17
3.659256E+03	7.934840E-16	1.733306E-17
3.661255E+03	7.978040E-16	1.740799E-17
3.663244E+03	8.027912E-16	1.749736E-17
3.665243E+03	8.002711E-16	1.742294E-17
3.667242E+03	7.956838E-16	1.730371E-17
3.669231E+03	8.017757E-16	1.741677E-17
3.671230E+03	8.043935E-16	1.745407E-17
3.673229E+03	8.058345E-16	1.746574E-17
3.675219E+03	7.989645E-16	1.729750E-17
3.677218E+03	8.013513E-16	1.732970E-17
3.679207E+03	8.076350E-16	1.744607E-17
3.681206E+03	8.127374E-16	1.753655E-17
3.683205E+03	8.183324E-16	1.763740E-17
3.685194E+03	8.186955E-16	1.762546E-17
3.687193E+03	8.128317E-16	1.747949E-17
3.689182E+03	8.085865E-16	1.736868E-17
3.691182E+03	8.117770E-16	1.741752E-17
3.693181E+03	8.081421E-16	1.731994E-17
3.695170E+03	8.103312E-16	1.734731E-17
3.697169E+03	8.093012E-16	1.730566E-17
3.699158E+03	7.975382E-16	1.703490E-17
3.701157E+03	7.912058E-16	1.688049E-17
3.703157E+03	7.867036E-16	1.676538E-17
3.705146E+03	7.791712E-16	1.658610E-17
3.707145E+03	7.622067E-16	1.620654E-17
3.709144E+03	7.497308E-16	1.592314E-17
3.711133E+03	7.453199E-16	1.581153E-17
3.713132E+03	7.321529E-16	1.551450E-17
3.715121E+03	7.145456E-16	1.512422E-17
3.717120E+03	7.044944E-16	1.489446E-17
3.719120E+03	6.951145E-16	1.467936E-17
3.721109E+03	6.787718E-16	1.431793E-17
3.723108E+03	6.619534E-16	1.394719E-17
3.725097E+03	6.532231E-16	1.374757E-17
3.727096E+03	6.344685E-16	1.333756E-17
3.729095E+03	6.209428E-16	1.303826E-17
3.731084E+03	6.089694E-16	1.277224E-17
3.733084E+03	5.960785E-16	1.248750E-17
3.735073E+03	5.862135E-16	1.226679E-17
3.737072E+03	5.785443E-16	1.209238E-17
3.739071E+03	5.673900E-16	1.184558E-17
3.741060E+03	5.504140E-16	1.147799E-17
3.743059E+03	5.388124E-16	1.122309E-17
3.745048E+03	5.333902E-16	1.109739E-17
3.747048E+03	5.227669E-16	1.086379E-17
3.749047E+03	5.123101E-16	1.063417E-17
3.751036E+03	5.028038E-16	1.042483E-17
3.753035E+03	4.882820E-16	1.011201E-17
3.755034E+03	4.845193E-16	1.002246E-17
3.757023E+03	4.755701E-16	9.825982E-18
3.759022E+03	4.704154E-16	9.708191E-18
3.761011E+03	4.637733E-16	9.560045E-18
3.763011E+03	4.569374E-16	9.408170E-18
3.765010E+03	4.590379E-16	9.440414E-18
3.766999E+03	4.626501E-16	9.503670E-18
3.768998E+03	4.572534E-16	9.381858E-18
3.770987E+03	4.592078E-16	9.411014E-18
3.772986E+03	4.585509E-16	9.386574E-18
3.774985E+03	4.572795E-16	9.349604E-18
3.776974E+03	4.547608E-16	9.287280E-18
3.778974E+03	4.566197E-16	9.314317E-18
3.780963E+03	4.532157E-16	9.234099E-18
3.782962E+03	4.540555E-16	9.240356E-18
3.784961E+03	4.518311E-16	9.184292E-18
3.786950E+03	4.483332E-16	9.102536E-18
3.788949E+03	4.523638E-16	9.173568E-18
3.790939E+03	4.599270E-16	9.316015E-18
3.792938E+03	4.678678E-16	9.465695E-18
3.794937E+03	4.822674E-16	9.745519E-18
3.796926E+03	5.000700E-16	1.009340E-17
3.798925E+03	5.213555E-16	1.051060E-17
3.800924E+03	5.341914E-16	1.075665E-17
3.802913E+03	5.538142E-16	1.113865E-17
3.804912E+03	5.608190E-16	1.126618E-17
3.806902E+03	5.652563E-16	1.134193E-17
3.808901E+03	5.813995E-16	1.165201E-17
3.810900E+03	5.858110E-16	1.172649E-17
3.812889E+03	5.922376E-16	1.184112E-17
3.814888E+03	6.032207E-16	1.204638E-17
3.816877E+03	6.175866E-16	1.231866E-17
3.818876E+03	6.326174E-16	1.260345E-17
3.820876E+03	6.424287E-16	1.278365E-17
3.822865E+03	6.571535E-16	1.306114E-17
3.824864E+03	6.743404E-16	1.338674E-17
3.826853E+03	6.942006E-16	1.376461E-17
3.828852E+03	7.146612E-16	1.415336E-17
3.830851E+03	7.314452E-16	1.446842E-17
3.832840E+03	7.474137E-16	1.476667E-17
3.834840E+03	7.663066E-16	1.512178E-17
3.836839E+03	7.861182E-16	1.549412E-17
3.838828E+03	8.049009E-16	1.584537E-17
3.840827E+03	8.223351E-16	1.616913E-17
3.842816E+03	8.411638E-16	1.651956E-17
3.844815E+03	8.601691E-16	1.687247E-17
3.846814E+03	8.827660E-16	1.729486E-17
3.848803E+03	9.032841E-16	1.767561E-17
3.850803E+03	9.189954E-16	1.796135E-17
3.852792E+03	9.391890E-16	1.833397E-17
3.854791E+03	9.643704E-16	1.880279E-17
3.856790E+03	9.875761E-16	1.923195E-17
3.858779E+03	1.012211E-15	1.968795E-17
3.860778E+03	1.038212E-15	2.016922E-17
3.862767E+03	1.065531E-15	2.067497E-17
3.864767E+03	1.096711E-15	2.125414E-17
3.866766E+03	1.130966E-15	2.189139E-17
3.868755E+03	1.162151E-15	2.246783E-17
3.870754E+03	1.193385E-15	2.304361E-17
3.872743E+03	1.224157E-15	2.360918E-17
3.874742E+03	1.257937E-15	2.423112E-17
3.876741E+03	1.298927E-15	2.499018E-17
3.878731E+03	1.338869E-15	2.572735E-17
3.880730E+03	1.376719E-15	2.642238E-17
3.882729E+03	1.412801E-15	2.708173E-17
3.884718E+03	1.440034E-15	2.757019E-17
3.886717E+03	1.474193E-15	2.818963E-17
3.888706E+03	1.510988E-15	2.885802E-17
3.890705E+03	1.544773E-15	2.946712E-17
3.892704E+03	1.581750E-15	3.013546E-17
3.894694E+03	1.619804E-15	3.082276E-17
3.896693E+03	1.654185E-15	3.143831E-17
3.898682E+03	1.682291E-15	3.193338E-17
3.900681E+03	1.717641E-15	3.256429E-17
3.902680E+03	1.754060E-15	3.321380E-17
3.904669E+03	1.783599E-15	3.373173E-17
3.906668E+03	1.816158E-15	3.430515E-17
3.908657E+03	1.849282E-15	3.488793E-17
3.910657E+03	1.877172E-15	3.537035E-17
3.912656E+03	1.902097E-15	3.579570E-17
3.914645E+03	1.930820E-15	3.629154E-17
3.916644E+03	1.955297E-15	3.670614E-17
3.918643E+03	1.979527E-15	3.711498E-17
3.920632E+03	2.001938E-15	3.748888E-17
3.922631E+03	2.018033E-15	3.774341E-17
3.924621E+03	2.038789E-15	3.808451E-17
3.926620E+03	2.058687E-15	3.840844E-17
3.928619E+03	2.082206E-15	3.879896E-17
3.930608E+03	2.110313E-15	3.927403E-17
3.932607E+03	2.134352E-15	3.967198E-17
3.934596E+03	2.157801E-15	4.005813E-17
3.936595E+03	2.176993E-15	4.036405E-17
3.938595E+03	2.200247E-15	4.074431E-17
3.940584E+03	2.228628E-15	4.121861E-17
3.942583E+03	2.256391E-15	4.167999E-17
3.944572E+03	2.279874E-15	4.206139E-17
3.946571E+03	2.300329E-15	4.238570E-17
3.948570E+03	2.318879E-15	4.267404E-17
3.950559E+03	2.337506E-15	4.296323E-17
3.952559E+03	2.355633E-15	4.324212E-17
3.954558E+03	2.377396E-15	4.358692E-17
3.956547E+03	2.393101E-15	4.382008E-17
3.958546E+03	2.416093E-15	4.418555E-17
3.960535E+03	2.437747E-15	4.452584E-17
3.962534E+03	2.455093E-15	4.478629E-17
3.964533E+03	2.470852E-15	4.501707E-17
3.966523E+03	2.481637E-15	4.515693E-17
3.968522E+03	2.494240E-15	4.532908E-17
3.970511E+03	2.511472E-15	4.558502E-17
3.972510E+03	2.531353E-15	4.588794E-17
3.974509E+03	2.548754E-15	4.614509E-17
3.976498E+03	2.562395E-15	4.633379E-17
3.978497E+03	2.572114E-15	4.645078E-17
3.980486E+03	2.583366E-15	4.659531E-17
3.982485E+03	2.594434E-15	4.673576E-17
3.984485E+03	2.605030E-15	4.686722E-17
3.986474E+03	2.613581E-15	4.696181E-17
3.988473E+03	2.623192E-15	4.707481E-17
3.990462E+03	2.634625E-15	4.722035E-17
3.992461E+03	2.640829E-15	4.727150E-17
3.994460E+03	2.647363E-15	4.732831E-17
3.996450E+03	2.652112E-15	4.735328E-17
3.998449E+03	2.655752E-15	4.735805E-17
4.000448E+03	2.655288E-15	4.728959E-17
4.002437E+03	2.652271E-15	4.717608E-17
4.004436E+03	2.645453E-15	4.699494E-17
4.006425E+03	2.639439E-15	4.682871E-17
4.008424E+03	2.630325E-15	4.660756E-17
4.010423E+03	2.619552E-15	4.635751E-17
4.012413E+03	2.614345E-15	4.620665E-17
4.014412E+03	2.613888E-15	4.613963E-17
4.016401E+03	2.610400E-15	4.601955E-17
4.018400E+03	2.603918E-15	4.584665E-17
4.020399E+03	2.592507E-15	4.558743E-17
4.022388E+03	2.583954E-15	4.537925E-17
4.024387E+03	2.577401E-15	4.520628E-17
4.026376E+03	2.570719E-15	4.503169E-17
4.028376E+03	2.560962E-15	4.480334E-17
4.030375E+03	2.547084E-15	4.450349E-17
4.032364E+03	2.534403E-15	4.422548E-17
4.034363E+03	2.523040E-15	4.397077E-17
4.036362E+03	2.513002E-15	4.373969E-17
4.038351E+03	2.500952E-15	4.347440E-17
4.040351E+03	2.481687E-15	4.308414E-17
4.042340E+03	2.461156E-15	4.267313E-17
4.044339E+03	2.442678E-15	4.229836E-17
4.046338E+03	2.424954E-15	4.193749E-17
4.048327E+03	2.403742E-15	4.151749E-17
4.050326E+03	2.380864E-15	4.106949E-17
4.052315E+03	2.363720E-15	4.072157E-17
4.054314E+03	2.348518E-15	4.040763E-17
4.056314E+03	2.329200E-15	4.002365E-17
4.058303E+03	2.311029E-15	3.966055E-17
4.060302E+03	2.292587E-15	3.929339E-17
4.062291E+03	2.275145E-15	3.894446E-17
4.064290E+03	2.259014E-15	3.861851E-17
4.066289E+03	2.243434E-15	3.830273E-17
4.068278E+03	2.226692E-15	3.796811E-17
4.070278E+03	2.208769E-15	3.761391E-17
4.072267E+03	2.188259E-15	3.721680E-17
4.074266E+03	2.170730E-15	3.687103E-17
4.076265E+03	2.159618E-15	3.663494E-17
4.078254E+03	2.144959E-15	3.633953E-17
4.080253E+03	2.124222E-15	3.594172E-17
4.082252E+03	2.108414E-15	3.562818E-17
4.084242E+03	2.096109E-15	3.537469E-17
4.086241E+03	2.089652E-15	3.522015E-17
4.088230E+03	2.085062E-15	3.509759E-17
4.090229E+03	2.079994E-15	3.496701E-17
4.092228E+03	2.076586E-15	3.486459E-17
4.094217E+03	2.067943E-15	3.467480E-17
4.096216E+03	2.060483E-15	3.450501E-17
4.098205E+03	2.057857E-15	3.441668E-17
4.100205E+03	2.057060E-15	3.435882E-17
4.102204E+03	2.053436E-15	3.425390E-17
4.104193E+03	2.049730E-15	3.414805E-17
4.106192E+03	2.049968E-15	3.410782E-17
4.108181E+03	2.045889E-15	3.399610E-17
4.110180E+03	2.040161E-15	3.385703E-17
4.112179E+03	2.036550E-15	3.375335E-17
4.114168E+03	2.033655E-15	3.366195E-17
4.116168E+03	2.031921E-15	3.358968E-17
4.118167E+03	2.033088E-15	3.356545E-17
4.120156E+03	2.031316E-15	3.349297E-17
4.122155E+03	2.026637E-15	3.337255E-17
4.124144E+03	2.027804E-15	3.334875E-17
4.126143E+03	2.026254E-15	3.328009E-17
4.128142E+03	2.026937E-15	3.324820E-17
4.130132E+03	2.026741E-15	3.320212E-17
4.132131E+03	2.023372E-15	3.310401E-17
4.134120E+03	2.020665E-15	3.301712E-17
4.136119E+03	2.021244E-15	3.298382E-17
4.138118E+03	2.025063E-15	3.300335E-17
4.140107E+03	2.024435E-15	3.295062E-17
4.142106E+03	2.014312E-15	3.274340E-17
4.144096E+03	2.004536E-15	3.254250E-17
4.146095E+03	1.998553E-15	3.240338E-17
4.148094E+03	1.992531E-15	3.226393E-17
4.150083E+03	1.992012E-15	3.221399E-17
4.152082E+03	1.990052E-15	3.214066E-17
4.154071E+03	1.986446E-15	3.204114E-17
4.156070E+03	1.982328E-15	3.193336E-17
4.158069E+03	1.980695E-15	3.186579E-17
4.160059E+03	1.973977E-15	3.171683E-17
4.162058E+03	1.967352E-15	3.156954E-17
4.164057E+03	1.966505E-15	3.151516E-17
4.166046E+03	1.968181E-15	3.150147E-17
4.168045E+03	1.967967E-15	3.145738E-17
4.170034E+03	1.969586E-15	3.144280E-17
4.172033E+03	1.969456E-15	3.140015E-17
4.174033E+03	1.969231E-15	3.135602E-17
4.176022E+03	1.970516E-15	3.133620E-17
4.178021E+03	1.970511E-15	3.129572E-17
4.180010E+03	1.969785E-15	3.124406E-17
4.182009E+03	1.968185E-15	3.117845E-17
4.184008E+03	1.969534E-15	3.115961E-17
4.185997E+03	1.970749E-15	3.113890E-17
4.187997E+03	1.974802E-15	3.116274E-17
4.189986E+03	1.978445E-15	3.118027E-17
4.191985E+03	1.978273E-15	3.113747E-17
4.193984E+03	1.977557E-15	3.108618E-17
4.195973E+03	1.978787E-15	3.106575E-17
4.197972E+03	1.980047E-15	3.104561E-17
4.199961E+03	1.983967E-15	3.106734E-17
4.201961E+03	1.983639E-15	3.102232E-17
4.203960E+03	1.985868E-15	3.101736E-17
4.205949E+03	1.987652E-15	3.100563E-17
4.207948E+03	1.988207E-15	3.097457E-17
4.209947E+03	1.990641E-15	3.097278E-17
4.211936E+03	1.992896E-15	3.096840E-17
4.213935E+03	1.991066E-15	3.090039E-17
4.215925E+03	1.988083E-15	3.081486E-17
4.217924E+03	1.986700E-15	3.075410E-17
4.219923E+03	1.989016E-15	3.075066E-17
4.221912E+03	1.994140E-15	3.079076E-17
4.223911E+03	1.997862E-15	3.080892E-17
4.225900E+03	2.003983E-15	3.086415E-17
4.227899E+03	2.009636E-15	3.091183E-17
4.229898E+03	2.012878E-15	3.092232E-17
4.231888E+03	2.016962E-15	3.094587E-17
4.233887E+03	2.024168E-15	3.101701E-17
4.235876E+03	2.030882E-15	3.108060E-17
4.237875E+03	2.033325E-15	3.107855E-17
4.239874E+03	2.033642E-15	3.104404E-17
4.241863E+03	2.038330E-15	3.107643E-17
4.243862E+03	2.044539E-15	3.113168E-17
4.245861E+03	2.049765E-15	3.117183E-17
4.247851E+03	2.051114E-15	3.115317E-17
4.249850E+03	2.049857E-15	3.109482E-17
4.251839E+03	2.051286E-15	3.107751E-17
4.253838E+03	2.053926E-15	3.107836E-17
4.255837E+03	2.051127E-15	3.099699E-17
4.257826E+03	2.050439E-15	3.094788E-17
4.259825E+03	2.049828E-15	3.089984E-17
4.261815E+03	2.047431E-15	3.082522E-17
4.263814E+03	2.045900E-15	3.076362E-17
4.265813E+03	2.043933E-15	3.069561E-17
4.267802E+03	2.039711E-15	3.059414E-17
4.269801E+03	2.034440E-15	3.047701E-17
4.271790E+03	2.028056E-15	3.034371E-17
4.273789E+03	2.025057E-15	3.026114E-17
4.275789E+03	2.023363E-15	3.019823E-17
4.277778E+03	2.016132E-15	3.005313E-17
4.279777E+03	2.009290E-15	2.991402E-17
4.281776E+03	2.005617E-15	2.982236E-17
4.283765E+03	1.999236E-15	2.969090E-17
4.285764E+03	1.993457E-15	2.956852E-17
4.287753E+03	1.990026E-15	2.948140E-17
4.289752E+03	1.983357E-15	2.934642E-17
4.291752E+03	1.975535E-15	2.919471E-17
4.293741E+03	1.968553E-15	2.905599E-17
4.295740E+03	1.964278E-15	2.895733E-17
4.297729E+03	1.960704E-15	2.886942E-17
4.299728E+03	1.954896E-15	2.874871E-17
4.301727E+03	1.949181E-15	2.862967E-17
4.303716E+03	1.943012E-15	2.850446E-17
4.305716E+03	1.938810E-15	2.840817E-17
4.307705E+03	1.933384E-15	2.829442E-17
4.309704E+03	1.929491E-15	2.820320E-17
4.311703E+03	1.927181E-15	2.813531E-17
4.313692E+03	1.925477E-15	2.807661E-17
4.315691E+03	1.924869E-15	2.803388E-17
4.317680E+03	1.924779E-15	2.799896E-17
4.319680E+03	1.924208E-15	2.795696E-17
4.321679E+03	1.924273E-15	2.792434E-17
4.323668E+03	1.925359E-15	2.790678E-17
4.325667E+03	1.924485E-15	2.786074E-17
4.327666E+03	1.927625E-15	2.787288E-17
4.329655E+03	1.928442E-15	2.785163E-17
4.331654E+03	1.927557E-15	2.780573E-17
4.333644E+03	1.929462E-15	2.780031E-17
4.335643E+03	1.930846E-15	2.778729E-17
4.337642E+03	1.929321E-15	2.773251E-17
4.339631E+03	1.925327E-15	2.764260E-17
4.341630E+03	1.921286E-15	2.755210E-17
4.343619E+03	1.921286E-15	2.751988E-17
4.345618E+03	1.920183E-15	2.747182E-17
4.347618E+03	1.920459E-15	2.744361E-17
4.349607E+03	1.921662E-15	2.742890E-17
4.351606E+03	1.918631E-15	2.735372E-17
4.353595E+03	1.915530E-15	2.727793E-17
4.355594E+03	1.913590E-15	2.721869E-17
4.357593E+03	1.911941E-15	2.716377E-17
4.359582E+03	1.911092E-15	2.712052E-17
4.361581E+03	1.912851E-15	2.711421E-17
4.363570E+03	1.912869E-15	2.708347E-17
4.365570E+03	1.910136E-15	2.701375E-17
4.367569E+03	1.908276E-15	2.695660E-17
4.369558E+03	1.908165E-15	2.692444E-17
4.371557E+03	1.905685E-15	2.685886E-17
4.373556E+03	1.900605E-15	2.675686E-17
4.375545E+03	1.895583E-15	2.665611E-17
4.377544E+03	1.891259E-15	2.656528E-17
4.379534E+03	1.888225E-15	2.649294E-17
4.381533E+03	1.886174E-15	2.643445E-17
4.383532E+03	1.884369E-15	2.637959E-17
4.385521E+03	1.881796E-15	2.631430E-17
4.387520E+03	1.878722E-15	2.624206E-17
4.389509E+03	1.869313E-15	2.608178E-17
4.391508E+03	1.860973E-15	2.593666E-17
4.393508E+03	1.856531E-15	2.584618E-17
4.395497E+03	1.853370E-15	2.577391E-17
4.397496E+03	1.850489E-15	2.570560E-17
4.399485E+03	1.845380E-15	2.560672E-17
4.401484E+03	1.840674E-15	2.551357E-17
4.403483E+03	1.837277E-15	2.543879E-17
4.405472E+03	1.830522E-15	2.531792E-17
4.407471E+03	1.822266E-15	2.517649E-17
