#wls	flux	fluxerr
1.600000E+03	1.483368E-16	6.097096E-18
1.640000E+03	1.448668E-16	5.927274E-18
1.680000E+03	1.410123E-16	5.742493E-18
1.720000E+03	1.367180E-16	5.540763E-18
1.760000E+03	1.320360E-16	5.324498E-18
1.800000E+03	1.269533E-16	5.093463E-18
1.840000E+03	1.215344E-16	4.850534E-18
1.880000E+03	1.158055E-16	4.597038E-18
1.920000E+03	1.098231E-16	4.335469E-18
1.960000E+03	1.036321E-16	4.067843E-18
2.000000E+03	9.730556E-17	3.797226E-18
2.040000E+03	9.090671E-17	3.526254E-18
2.080000E+03	8.455145E-17	3.259534E-18
2.120000E+03	7.831083E-17	2.999848E-18
2.160000E+03	7.228718E-17	2.751095E-18
2.200000E+03	6.654768E-17	2.515743E-18
2.240000E+03	6.118840E-17	2.297266E-18
2.280000E+03	5.630535E-17	2.099028E-18
2.320000E+03	5.197071E-17	1.923399E-18
2.360000E+03	4.828155E-17	1.773565E-18
2.400000E+03	4.533902E-17	1.652738E-18
2.440000E+03	4.324852E-17	1.564147E-18
2.480000E+03	4.210958E-17	1.510664E-18
2.520000E+03	4.200595E-17	1.494452E-18
2.560000E+03	4.297855E-17	1.516030E-18
2.600000E+03	4.496286E-17	1.572148E-18
2.640000E+03	4.789644E-17	1.659670E-18
2.680000E+03	5.196450E-17	1.784009E-18
2.720000E+03	5.761336E-17	1.959186E-18
2.760000E+03	6.535093E-17	2.200662E-18
2.800000E+03	7.560606E-17	2.520530E-18
2.840000E+03	8.875301E-17	2.928419E-18
2.880000E+03	1.050550E-16	3.429733E-18
2.920000E+03	1.246519E-16	4.025423E-18
2.960000E+03	1.475642E-16	4.712319E-18
3.000000E+03	1.736004E-16	5.480432E-18
3.010000E+03	1.805632E-16	5.683620E-18
3.020000E+03	1.877028E-16	5.891013E-18
3.030000E+03	1.949926E-16	6.101720E-18
3.040000E+03	2.024225E-16	6.315380E-18
3.050000E+03	2.100235E-16	6.532906E-18
3.060000E+03	2.177247E-16	6.752049E-18
3.070000E+03	2.255786E-16	6.974391E-18
3.080000E+03	2.335322E-16	7.198250E-18
3.090000E+03	2.415965E-16	7.423934E-18
3.100000E+03	2.497616E-16	7.651091E-18
3.110000E+03	2.579927E-16	7.878630E-18
3.120000E+03	2.663278E-16	8.107675E-18
3.130000E+03	2.747074E-16	8.336387E-18
3.140000E+03	2.831724E-16	8.565980E-18
3.150000E+03	2.916616E-16	8.794576E-18
3.160000E+03	3.002187E-16	9.023478E-18
3.170000E+03	3.088090E-16	9.251614E-18
3.180000E+03	3.174527E-16	9.479574E-18
3.190000E+03	3.261149E-16	9.706293E-18
3.200000E+03	3.348179E-16	9.932419E-18
3.210000E+03	3.435258E-16	1.015688E-17
3.220000E+03	3.522626E-16	1.038036E-17
3.230000E+03	3.610227E-16	1.060268E-17
3.240000E+03	3.697996E-16	1.082365E-17
3.250000E+03	3.786184E-16	1.104398E-17
3.260000E+03	3.874060E-16	1.126153E-17
3.270000E+03	3.962157E-16	1.147784E-17
3.280000E+03	4.050335E-16	1.169250E-17
3.290000E+03	4.138412E-16	1.190496E-17
3.300000E+03	4.225797E-16	1.211355E-17
3.310000E+03	4.312851E-16	1.231929E-17
3.320000E+03	4.398815E-16	1.252004E-17
3.330000E+03	4.483514E-16	1.271533E-17
3.340000E+03	4.566291E-16	1.290333E-17
3.350000E+03	4.646336E-16	1.308181E-17
3.360000E+03	4.722666E-16	1.324810E-17
3.370000E+03	4.794468E-16	1.340003E-17
3.380000E+03	4.860376E-16	1.353394E-17
3.390000E+03	4.918811E-16	1.364563E-17
3.400000E+03	4.968358E-16	1.373141E-17
3.410000E+03	5.007063E-16	1.378618E-17
3.420000E+03	5.032882E-16	1.380467E-17
3.430000E+03	5.044162E-16	1.378277E-17
3.440000E+03	5.039075E-16	1.371596E-17
3.450000E+03	5.016202E-16	1.360092E-17
3.460000E+03	4.975092E-16	1.343698E-17
3.470000E+03	4.916049E-16	1.322555E-17
3.480000E+03	4.839522E-16	1.296840E-17
3.490000E+03	4.747648E-16	1.267181E-17
3.500000E+03	4.642246E-16	1.234110E-17
3.510000E+03	4.526550E-16	1.198527E-17
3.520000E+03	4.403067E-16	1.161128E-17
3.530000E+03	4.274536E-16	1.122658E-17
3.540000E+03	4.143970E-16	1.083922E-17
3.550000E+03	4.013231E-16	1.045412E-17
3.560000E+03	3.884304E-16	1.007646E-17
3.570000E+03	3.758333E-16	9.709126E-18
3.580000E+03	3.636614E-16	9.355380E-18
3.590000E+03	3.519952E-16	9.017150E-18
3.600000E+03	3.408777E-16	8.695377E-18
3.610000E+03	3.303785E-16	8.391659E-18
3.620000E+03	3.205401E-16	8.106875E-18
3.630000E+03	3.113692E-16	7.840986E-18
3.640000E+03	3.029386E-16	7.595605E-18
3.650000E+03	2.952876E-16	7.371478E-18
3.660000E+03	2.884306E-16	7.168708E-18
3.670000E+03	2.824453E-16	6.988964E-18
3.680000E+03	2.773598E-16	6.832655E-18
3.690000E+03	2.732510E-16	6.701376E-18
3.700000E+03	2.701794E-16	6.596283E-18
3.710000E+03	2.682412E-16	6.519374E-18
3.720000E+03	2.675208E-16	6.472320E-18
3.730000E+03	2.681286E-16	6.457378E-18
3.740000E+03	2.701898E-16	6.477105E-18
3.750000E+03	2.738476E-16	6.534444E-18
3.760000E+03	2.792533E-16	6.632452E-18
3.770000E+03	2.865894E-16	6.774866E-18
3.780000E+03	2.960632E-16	6.965915E-18
3.790000E+03	3.078963E-16	7.210077E-18
3.791390E+03	1.545105E-16	3.615817E-18
3.793340E+03	1.573475E-16	3.678792E-18
3.795278E+03	1.605549E-16	3.750318E-18
3.797227E+03	1.641258E-16	3.830167E-18
3.799176E+03	1.683457E-16	3.924992E-18
3.801115E+03	1.730145E-16	4.030108E-18
3.803064E+03	1.780136E-16	4.142690E-18
3.805013E+03	1.817157E-16	4.224899E-18
3.806952E+03	1.846331E-16	4.288738E-18
3.808901E+03	1.884551E-16	4.373425E-18
3.810850E+03	1.908986E-16	4.425984E-18
3.812789E+03	1.926101E-16	4.461502E-18
3.814737E+03	1.927568E-16	4.460714E-18
3.816686E+03	1.937231E-16	4.478867E-18
3.818625E+03	1.965974E-16	4.541068E-18
3.820574E+03	1.986611E-16	4.584418E-18
3.822513E+03	2.021143E-16	4.659734E-18
3.824462E+03	2.064057E-16	4.754185E-18
3.826411E+03	2.119318E-16	4.876860E-18
3.828350E+03	2.179875E-16	5.011496E-18
3.830299E+03	2.251593E-16	5.171477E-18
3.832248E+03	2.328144E-16	5.342235E-18
3.834186E+03	2.392425E-16	5.484563E-18
3.836135E+03	2.477231E-16	5.673587E-18
3.838084E+03	2.572957E-16	5.887231E-18
3.840023E+03	2.663290E-16	6.088158E-18
3.841972E+03	2.739486E-16	6.256378E-18
3.843921E+03	2.826241E-16	6.448355E-18
3.845860E+03	2.934620E-16	6.689279E-18
3.847809E+03	3.056198E-16	6.959755E-18
3.849758E+03	3.162066E-16	7.193960E-18
3.851697E+03	3.254162E-16	7.396439E-18
3.853646E+03	3.352778E-16	7.613285E-18
3.855584E+03	3.480367E-16	7.895471E-18
3.857533E+03	3.618721E-16	8.201456E-18
3.859482E+03	3.751149E-16	8.493423E-18
3.861421E+03	3.883547E-16	8.784785E-18
3.863370E+03	4.027029E-16	9.100579E-18
3.865319E+03	4.180287E-16	9.437817E-18
3.867258E+03	4.339720E-16	9.788365E-18
3.869207E+03	4.473931E-16	1.008133E-17
3.871156E+03	4.616606E-16	1.039278E-17
3.873095E+03	4.777879E-16	1.074547E-17
3.875044E+03	4.948586E-16	1.111861E-17
3.876992E+03	5.095713E-16	1.143809E-17
3.878931E+03	5.257508E-16	1.178986E-17
3.880880E+03	5.418274E-16	1.213857E-17
3.882819E+03	5.554494E-16	1.243170E-17
3.884768E+03	5.695571E-16	1.273504E-17
3.886717E+03	5.838240E-16	1.304132E-17
3.888656E+03	6.004710E-16	1.340016E-17
3.890605E+03	6.173413E-16	1.376318E-17
3.892554E+03	6.321823E-16	1.408028E-17
3.894493E+03	6.454194E-16	1.436111E-17
3.896442E+03	6.565302E-16	1.459402E-17
3.898390E+03	6.683880E-16	1.484305E-17
3.900329E+03	6.819719E-16	1.512992E-17
3.902278E+03	6.960405E-16	1.542687E-17
3.904227E+03	7.103327E-16	1.572816E-17
3.906166E+03	7.247512E-16	1.603170E-17
3.908115E+03	7.383817E-16	1.631712E-17
3.910064E+03	7.514206E-16	1.658888E-17
3.912003E+03	7.637382E-16	1.684426E-17
3.913952E+03	7.740948E-16	1.705580E-17
3.915891E+03	7.853609E-16	1.728700E-17
3.917840E+03	7.988713E-16	1.756698E-17
3.919789E+03	8.113991E-16	1.782478E-17
3.921727E+03	8.244771E-16	1.809421E-17
3.923676E+03	8.372563E-16	1.835642E-17
3.925625E+03	8.482718E-16	1.857945E-17
3.927564E+03	8.604562E-16	1.882767E-17
3.929513E+03	8.718539E-16	1.905806E-17
3.931462E+03	8.823679E-16	1.926867E-17
3.933401E+03	8.944411E-16	1.951293E-17
3.935350E+03	9.062810E-16	1.975148E-17
3.937299E+03	9.173351E-16	1.997241E-17
3.939238E+03	9.309561E-16	2.024879E-17
3.941186E+03	9.422612E-16	2.047417E-17
3.943125E+03	9.516756E-16	2.065811E-17
3.945074E+03	9.611502E-16	2.084285E-17
3.947023E+03	9.720189E-16	2.105737E-17
3.948962E+03	9.846720E-16	2.131015E-17
3.950911E+03	9.956287E-16	2.152559E-17
3.952860E+03	1.007036E-15	2.175029E-17
3.954799E+03	1.021818E-15	2.204743E-17
3.956748E+03	1.036236E-15	2.233597E-17
3.958697E+03	1.048244E-15	2.257199E-17
3.960635E+03	1.058072E-15	2.276071E-17
3.962584E+03	1.068316E-15	2.295783E-17
3.964533E+03	1.079887E-15	2.318298E-17
3.966472E+03	1.093563E-15	2.345292E-17
3.968421E+03	1.109895E-15	2.377901E-17
3.970360E+03	1.125473E-15	2.408842E-17
3.972309E+03	1.139033E-15	2.435386E-17
3.974258E+03	1.152001E-15	2.460609E-17
3.976197E+03	1.165874E-15	2.487717E-17
3.978146E+03	1.181166E-15	2.517779E-17
3.980095E+03	1.197812E-15	2.550659E-17
3.982034E+03	1.214388E-15	2.583329E-17
3.983982E+03	1.228685E-15	2.611074E-17
3.985931E+03	1.242264E-15	2.637230E-17
3.987870E+03	1.255221E-15	2.662024E-17
3.989819E+03	1.265969E-15	2.682067E-17
3.991768E+03	1.277746E-15	2.704242E-17
3.993707E+03	1.291073E-15	2.729659E-17
3.995656E+03	1.303195E-15	2.752457E-17
3.997595E+03	1.314664E-15	2.773842E-17
3.999544E+03	1.326418E-15	2.795761E-17
4.001493E+03	1.336352E-15	2.813800E-17
4.003432E+03	1.343372E-15	2.825680E-17
4.005380E+03	1.351873E-15	2.840630E-17
4.007329E+03	1.361048E-15	2.856957E-17
4.009268E+03	1.365436E-15	2.863220E-17
4.011217E+03	1.367101E-15	2.863749E-17
4.013166E+03	1.370672E-15	2.868257E-17
4.015105E+03	1.375274E-15	2.874922E-17
4.017054E+03	1.377514E-15	2.876618E-17
4.019003E+03	1.376779E-15	2.872101E-17
4.020942E+03	1.375722E-15	2.866930E-17
4.022891E+03	1.375534E-15	2.863559E-17
4.024840E+03	1.373115E-15	2.855551E-17
4.026778E+03	1.368698E-15	2.843419E-17
4.028727E+03	1.364440E-15	2.831620E-17
4.030666E+03	1.358474E-15	2.816314E-17
4.032615E+03	1.352217E-15	2.800417E-17
4.034564E+03	1.348219E-15	2.789220E-17
4.036503E+03	1.343222E-15	2.775992E-17
4.038452E+03	1.335646E-15	2.757448E-17
4.040401E+03	1.326557E-15	2.735816E-17
4.042340E+03	1.319886E-15	2.719223E-17
4.044289E+03	1.312926E-15	2.702048E-17
4.046238E+03	1.302910E-15	2.678619E-17
4.048176E+03	1.290288E-15	2.649901E-17
4.050125E+03	1.279151E-15	2.624267E-17
4.052074E+03	1.271299E-15	2.605414E-17
4.054013E+03	1.264769E-15	2.589317E-17
4.055962E+03	1.257305E-15	2.571326E-17
4.057901E+03	1.249750E-15	2.553193E-17
4.059850E+03	1.243865E-15	2.538490E-17
4.061799E+03	1.239268E-15	2.526438E-17
4.063738E+03	1.234062E-15	2.513181E-17
4.065686E+03	1.227699E-15	2.497579E-17
4.067635E+03	1.221144E-15	2.481616E-17
4.069574E+03	1.214688E-15	2.465896E-17
4.071523E+03	1.206628E-15	2.446937E-17
4.073472E+03	1.196291E-15	2.423401E-17
4.075411E+03	1.186889E-15	2.401816E-17
4.077360E+03	1.179092E-15	2.383503E-17
4.079309E+03	1.171169E-15	2.364971E-17
4.081248E+03	1.163506E-15	2.347011E-17
4.083197E+03	1.156743E-15	2.330884E-17
4.085146E+03	1.149980E-15	2.314789E-17
4.087084E+03	1.144054E-15	2.300419E-17
4.089033E+03	1.138480E-15	2.286770E-17
4.090972E+03	1.131371E-15	2.270078E-17
4.092921E+03	1.123783E-15	2.252443E-17
4.094870E+03	1.118405E-15	2.239268E-17
4.096809E+03	1.115047E-15	2.230169E-17
4.098758E+03	1.112614E-15	2.222920E-17
4.100707E+03	1.109158E-15	2.213642E-17
4.102646E+03	1.104744E-15	2.202482E-17
4.104595E+03	1.103590E-15	2.197822E-17
4.106544E+03	1.104097E-15	2.196472E-17
4.108483E+03	1.102239E-15	2.190433E-17
4.110431E+03	1.098175E-15	2.180013E-17
4.112380E+03	1.095964E-15	2.173284E-17
4.114319E+03	1.096436E-15	2.171891E-17
4.116268E+03	1.094925E-15	2.166563E-17
4.118207E+03	1.091213E-15	2.156904E-17
4.120156E+03	1.088649E-15	2.149516E-17
4.122105E+03	1.086499E-15	2.142956E-17
4.124044E+03	1.084254E-15	2.136232E-17
4.125993E+03	1.083506E-15	2.132451E-17
4.127942E+03	1.082597E-15	2.128359E-17
4.129881E+03	1.080446E-15	2.121845E-17
4.131829E+03	1.078516E-15	2.115763E-17
4.133778E+03	1.076776E-15	2.110063E-17
4.135717E+03	1.074878E-15	2.104074E-17
4.137666E+03	1.073678E-15	2.099446E-17
4.139615E+03	1.069455E-15	2.088920E-17
4.141554E+03	1.064853E-15	2.077685E-17
4.143503E+03	1.062507E-15	2.070857E-17
4.145442E+03	1.060672E-15	2.065044E-17
4.147391E+03	1.056324E-15	2.054343E-17
4.149340E+03	1.049213E-15	2.038295E-17
4.151278E+03	1.043663E-15	2.025318E-17
4.153227E+03	1.040525E-15	2.017030E-17
4.155176E+03	1.036404E-15	2.006851E-17
4.157115E+03	1.029081E-15	1.990510E-17
4.159064E+03	1.020554E-15	1.971863E-17
4.161013E+03	1.013394E-15	1.955891E-17
4.162952E+03	1.007601E-15	1.942598E-17
4.164901E+03	1.001777E-15	1.929259E-17
4.166850E+03	9.939906E-16	1.912171E-17
4.168789E+03	9.855442E-16	1.893859E-17
4.170738E+03	9.778913E-16	1.877096E-17
4.172686E+03	9.702418E-16	1.860375E-17
4.174625E+03	9.642419E-16	1.846855E-17
4.176574E+03	9.582112E-16	1.833293E-17
4.178513E+03	9.527849E-16	1.820922E-17
4.180462E+03	9.484019E-16	1.810557E-17
4.182411E+03	9.425036E-16	1.797322E-17
4.184350E+03	9.377146E-16	1.786236E-17
4.186299E+03	9.341570E-16	1.777504E-17
4.188248E+03	9.296215E-16	1.766929E-17
4.190187E+03	9.262251E-16	1.758548E-17
4.192136E+03	9.239318E-16	1.752263E-17
4.194084E+03	9.209763E-16	1.744737E-17
4.196023E+03	9.188108E-16	1.738727E-17
4.197972E+03	9.184398E-16	1.736110E-17
4.199921E+03	9.191385E-16	1.735516E-17
4.201860E+03	9.190495E-16	1.733444E-17
4.203809E+03	9.189574E-16	1.731359E-17
4.205748E+03	9.191486E-16	1.729818E-17
4.207697E+03	9.191790E-16	1.727965E-17
4.209646E+03	9.211892E-16	1.729831E-17
4.211585E+03	9.239211E-16	1.733054E-17
4.213533E+03	9.234739E-16	1.730302E-17
4.215482E+03	9.220827E-16	1.725784E-17
4.217421E+03	9.225453E-16	1.724750E-17
4.219370E+03	9.238206E-16	1.725223E-17
4.221319E+03	9.244658E-16	1.724517E-17
4.223258E+03	9.245770E-16	1.722824E-17
4.225207E+03	9.265980E-16	1.724677E-17
4.227156E+03	9.296189E-16	1.728382E-17
4.229095E+03	9.319797E-16	1.730860E-17
4.231044E+03	9.354316E-16	1.735344E-17
4.232983E+03	9.390378E-16	1.740112E-17
4.234931E+03	9.418553E-16	1.743397E-17
4.236880E+03	9.433234E-16	1.744176E-17
4.238819E+03	9.451033E-16	1.745537E-17
4.240768E+03	9.481916E-16	1.749295E-17
4.242717E+03	9.504632E-16	1.751538E-17
4.244656E+03	9.523581E-16	1.753089E-17
4.246605E+03	9.553725E-16	1.756683E-17
4.248554E+03	9.597254E-16	1.762724E-17
4.250493E+03	9.648240E-16	1.770128E-17
4.252442E+03	9.700710E-16	1.777774E-17
4.254391E+03	9.749068E-16	1.784647E-17
4.256329E+03	9.788038E-16	1.789798E-17
4.258278E+03	9.822578E-16	1.794113E-17
4.260217E+03	9.851794E-16	1.797456E-17
4.262166E+03	9.865692E-16	1.797986E-17
4.264115E+03	9.879249E-16	1.798451E-17
4.266054E+03	9.887820E-16	1.798015E-17
4.268003E+03	9.883902E-16	1.795299E-17
4.269952E+03	9.867223E-16	1.790271E-17
4.271891E+03	9.860191E-16	1.787010E-17
4.273840E+03	9.864930E-16	1.785874E-17
4.275789E+03	9.850083E-16	1.781197E-17
4.277727E+03	9.828111E-16	1.775251E-17
4.279676E+03	9.807668E-16	1.769581E-17
4.281625E+03	9.778848E-16	1.762412E-17
4.283564E+03	9.755943E-16	1.756331E-17
4.285513E+03	9.730538E-16	1.749801E-17
4.287462E+03	9.698628E-16	1.742115E-17
4.289401E+03	9.648789E-16	1.731237E-17
4.291350E+03	9.596475E-16	1.719927E-17
4.293289E+03	9.559674E-16	1.711427E-17
4.295238E+03	9.509567E-16	1.700554E-17
4.297187E+03	9.450210E-16	1.688051E-17
4.299125E+03	9.385343E-16	1.674601E-17
4.301074E+03	9.328829E-16	1.662656E-17
4.303023E+03	9.282842E-16	1.652611E-17
4.304962E+03	9.222699E-16	1.640078E-17
4.306911E+03	9.148690E-16	1.625098E-17
4.308860E+03	9.074417E-16	1.610102E-17
4.310799E+03	9.004833E-16	1.595978E-17
4.312748E+03	8.929109E-16	1.580787E-17
4.314697E+03	8.846044E-16	1.564330E-17
4.316636E+03	8.777825E-16	1.550540E-17
4.318584E+03	8.733317E-16	1.540953E-17
4.320533E+03	8.698669E-16	1.533123E-17
4.322472E+03	8.669585E-16	1.526297E-17
4.324421E+03	8.642333E-16	1.519798E-17
4.326360E+03	8.618176E-16	1.513864E-17
4.328309E+03	8.579271E-16	1.505344E-17
4.330258E+03	8.549585E-16	1.498458E-17
4.332197E+03	8.540168E-16	1.495142E-17
4.334146E+03	8.537464E-16	1.492997E-17
4.336095E+03	8.526165E-16	1.489354E-17
4.338034E+03	8.509978E-16	1.484873E-17
4.339983E+03	8.492849E-16	1.480227E-17
4.341931E+03	8.502641E-16	1.480278E-17
4.343870E+03	8.523434E-16	1.482248E-17
4.345819E+03	8.537137E-16	1.482971E-17
4.347758E+03	8.536775E-16	1.481260E-17
4.349707E+03	8.556834E-16	1.483081E-17
4.351656E+03	8.585705E-16	1.486422E-17
4.353595E+03	8.604483E-16	1.488017E-17
4.355544E+03	8.616493E-16	1.488430E-17
4.357493E+03	8.644016E-16	1.491516E-17
4.359432E+03	8.694971E-16	1.498641E-17
4.361381E+03	8.730610E-16	1.503104E-17
4.363329E+03	8.752805E-16	1.505243E-17
4.365268E+03	8.782583E-16	1.508687E-17
4.367217E+03	8.816241E-16	1.512779E-17
4.369166E+03	8.851973E-16	1.517215E-17
4.371105E+03	8.875824E-16	1.519615E-17
4.373054E+03	8.920557E-16	1.525570E-17
4.375003E+03	8.976146E-16	1.533365E-17
4.376942E+03	9.034108E-16	1.541555E-17
4.378891E+03	9.083781E-16	1.548303E-17
4.380829E+03	9.107049E-16	1.550549E-17
4.382779E+03	9.122674E-16	1.551479E-17
4.384727E+03	9.141291E-16	1.552914E-17
4.386666E+03	9.160494E-16	1.554453E-17
4.388615E+03	9.185375E-16	1.556940E-17
4.390564E+03	9.199027E-16	1.557519E-17
4.392503E+03	9.223842E-16	1.559992E-17
4.394452E+03	9.263073E-16	1.564885E-17
4.396401E+03	9.289870E-16	1.567667E-17
4.398340E+03	9.304880E-16	1.568464E-17
4.400289E+03	9.302345E-16	1.566295E-17
4.402238E+03	9.285932E-16	1.561795E-17
4.404176E+03	9.273453E-16	1.557975E-17
4.406125E+03	9.272073E-16	1.556014E-17
4.408074E+03	9.269467E-16	1.553851E-17
4.410013E+03	9.253038E-16	1.549386E-17
4.411962E+03	9.238382E-16	1.545218E-17
4.413901E+03	9.240557E-16	1.543878E-17
4.415850E+03	9.233677E-16	1.541020E-17
4.417799E+03	9.228582E-16	1.538465E-17
4.419738E+03	9.201910E-16	1.532330E-17
4.421687E+03	9.165332E-16	1.524551E-17
4.423636E+03	9.152725E-16	1.520771E-17
4.425574E+03	9.147916E-16	1.518302E-17
4.427523E+03	9.141864E-16	1.515622E-17
4.429472E+03	9.136094E-16	1.512993E-17
4.431411E+03	9.125552E-16	1.509589E-17
4.433360E+03	9.111090E-16	1.505535E-17
4.435309E+03	9.102887E-16	1.502522E-17
4.437248E+03	9.112292E-16	1.502426E-17
4.439197E+03	9.111202E-16	1.500592E-17
4.441136E+03	9.111605E-16	1.499016E-17
4.443085E+03	9.135477E-16	1.501291E-17
4.445033E+03	9.162272E-16	1.504041E-17
4.446972E+03	9.199149E-16	1.508444E-17
4.448921E+03	9.242466E-16	1.513884E-17
4.450870E+03	9.286599E-16	1.519444E-17
4.452809E+03	9.322370E-16	1.523633E-17
4.454758E+03	9.385635E-16	1.532293E-17
4.456707E+03	9.466291E-16	1.543769E-17
4.458646E+03	9.556335E-16	1.556757E-17
4.460595E+03	9.667833E-16	1.573198E-17
4.462544E+03	9.791303E-16	1.591549E-17
4.464483E+03	9.908711E-16	1.608884E-17
4.466431E+03	1.003272E-15	1.627242E-17
4.468370E+03	1.016130E-15	1.646309E-17
4.470319E+03	1.028996E-15	1.665337E-17
4.472268E+03	1.042403E-15	1.685199E-17
4.474207E+03	1.056590E-15	1.706285E-17
4.476156E+03	1.072964E-15	1.730841E-17
4.478105E+03	1.088636E-15	1.754214E-17
4.480044E+03	1.101847E-15	1.773583E-17
4.481993E+03	1.117181E-15	1.796314E-17
4.483942E+03	1.133697E-15	1.820893E-17
4.485881E+03	1.150311E-15	1.845584E-17
4.487829E+03	1.168335E-15	1.872472E-17
4.489778E+03	1.185950E-15	1.898645E-17
4.491717E+03	1.203808E-15	1.925158E-17
4.493666E+03	1.222836E-15	1.953473E-17
4.495605E+03	1.239672E-15	1.978239E-17
4.497554E+03	1.256539E-15	2.002988E-17
4.499503E+03	1.272793E-15	2.026707E-17
4.501442E+03	1.290635E-15	2.052911E-17
4.503391E+03	1.310723E-15	2.082614E-17
4.505340E+03	1.329379E-15	2.109979E-17
4.507279E+03	1.345328E-15	2.133005E-17
4.509227E+03	1.361392E-15	2.156151E-17
4.511176E+03	1.377459E-15	2.179250E-17
4.513115E+03	1.392225E-15	2.200254E-17
4.515064E+03	1.407631E-15	2.222210E-17
4.517013E+03	1.425483E-15	2.247974E-17
4.518952E+03	1.443108E-15	2.273337E-17
4.520901E+03	1.459074E-15	2.296020E-17
4.522850E+03	1.473737E-15	2.316606E-17
4.524789E+03	1.487713E-15	2.336080E-17
4.526738E+03	1.500154E-15	2.353091E-17
4.528676E+03	1.514375E-15	2.372867E-17
4.530625E+03	1.528593E-15	2.392581E-17
4.532574E+03	1.542440E-15	2.411670E-17
4.534513E+03	1.555287E-15	2.429168E-17
4.536462E+03	1.568510E-15	2.447201E-17
4.538411E+03	1.581651E-15	2.465067E-17
4.540350E+03	1.595554E-15	2.484091E-17
4.542299E+03	1.608562E-15	2.501668E-17
4.544248E+03	1.620107E-15	2.516934E-17
4.546187E+03	1.631377E-15	2.531752E-17
4.548136E+03	1.643943E-15	2.548532E-17
4.550084E+03	1.656199E-15	2.564797E-17
4.552023E+03	1.668897E-15	2.581721E-17
4.553972E+03	1.683315E-15	2.601250E-17
4.555911E+03	1.695880E-15	2.617891E-17
4.557860E+03	1.706066E-15	2.630812E-17
4.559809E+03	1.715030E-15	2.641820E-17
4.561748E+03	1.726413E-15	2.656540E-17
