#wls	flux	fluxerr
1.600000E+03	2.327361E-17	1.269533E-18
1.640000E+03	2.209216E-17	1.203044E-18
1.680000E+03	2.089812E-17	1.136044E-18
1.720000E+03	1.970301E-17	1.069169E-18
1.760000E+03	1.851444E-17	1.002839E-18
1.800000E+03	1.734039E-17	9.374893E-19
1.840000E+03	1.618914E-17	8.735709E-19
1.880000E+03	1.507190E-17	8.116881E-19
1.920000E+03	1.399622E-17	7.522431E-19
1.960000E+03	1.296688E-17	6.954855E-19
2.000000E+03	1.199587E-17	6.420486E-19
2.040000E+03	1.108667E-17	5.921056E-19
2.080000E+03	1.024664E-17	5.460337E-19
2.120000E+03	9.478123E-18	5.039387E-19
2.160000E+03	8.786497E-18	4.660856E-19
2.200000E+03	8.175759E-18	4.326626E-19
2.240000E+03	7.645921E-18	4.036444E-19
2.280000E+03	7.199457E-18	3.791341E-19
2.320000E+03	6.835544E-18	3.590591E-19
2.360000E+03	6.558009E-18	3.435897E-19
2.400000E+03	6.363096E-18	3.324965E-19
2.440000E+03	6.254144E-18	3.259205E-19
2.480000E+03	6.230053E-18	3.237690E-19
2.520000E+03	6.292596E-18	3.260974E-19
2.560000E+03	6.443819E-18	3.329728E-19
2.600000E+03	6.689353E-18	3.446443E-19
2.640000E+03	7.038828E-18	3.615617E-19
2.680000E+03	7.505003E-18	3.843272E-19
2.720000E+03	8.110541E-18	4.140389E-19
2.760000E+03	8.885615E-18	4.521606E-19
2.800000E+03	9.864045E-18	5.003187E-19
2.840000E+03	1.109141E-17	5.607089E-19
2.880000E+03	1.262216E-17	6.359386E-19
2.920000E+03	1.451843E-17	7.289612E-19
2.960000E+03	1.685192E-17	8.431588E-19
3.000000E+03	1.971158E-17	9.827173E-19
3.010000E+03	2.051969E-17	1.022081E-18
3.020000E+03	2.136968E-17	1.063453E-18
3.030000E+03	2.226039E-17	1.106768E-18
3.040000E+03	2.319322E-17	1.152092E-18
3.050000E+03	2.417263E-17	1.199638E-18
3.060000E+03	2.519716E-17	1.249329E-18
3.070000E+03	2.627467E-17	1.301545E-18
3.080000E+03	2.740046E-17	1.356048E-18
3.090000E+03	2.857585E-17	1.412894E-18
3.100000E+03	2.980921E-17	1.472491E-18
3.110000E+03	3.109507E-17	1.534559E-18
3.120000E+03	3.244210E-17	1.599517E-18
3.130000E+03	3.384413E-17	1.667054E-18
3.140000E+03	3.530606E-17	1.737401E-18
3.150000E+03	3.683312E-17	1.810807E-18
3.160000E+03	3.841788E-17	1.886897E-18
3.170000E+03	4.006950E-17	1.966111E-18
3.180000E+03	4.178413E-17	2.048250E-18
3.190000E+03	4.356181E-17	2.133308E-18
3.200000E+03	4.540718E-17	2.221500E-18
3.210000E+03	4.731998E-17	2.312803E-18
3.220000E+03	4.928906E-17	2.406663E-18
3.230000E+03	5.132848E-17	2.503756E-18
3.240000E+03	5.342590E-17	2.603470E-18
3.250000E+03	5.558425E-17	2.705939E-18
3.260000E+03	5.780059E-17	2.811008E-18
3.270000E+03	6.007126E-17	2.918492E-18
3.280000E+03	6.239189E-17	3.028170E-18
3.290000E+03	6.475734E-17	3.139783E-18
3.300000E+03	6.716162E-17	3.253035E-18
3.310000E+03	6.959798E-17	3.367591E-18
3.320000E+03	7.206557E-17	3.483404E-18
3.330000E+03	7.455638E-17	3.600083E-18
3.340000E+03	7.705444E-17	3.716853E-18
3.350000E+03	7.954967E-17	3.833227E-18
3.360000E+03	8.204596E-17	3.949389E-18
3.370000E+03	8.451764E-17	4.064106E-18
3.380000E+03	8.696022E-17	4.177165E-18
3.390000E+03	8.936924E-17	4.288354E-18
3.400000E+03	9.171693E-17	4.396347E-18
3.410000E+03	9.400607E-17	4.501286E-18
3.420000E+03	9.622432E-17	4.602589E-18
3.430000E+03	9.835154E-17	4.699303E-18
3.440000E+03	1.003760E-16	4.790882E-18
3.450000E+03	1.023031E-16	4.877599E-18
3.460000E+03	1.041075E-16	4.958258E-18
3.470000E+03	1.057977E-16	5.033290E-18
3.480000E+03	1.073524E-16	5.101694E-18
3.490000E+03	1.087853E-16	5.164137E-18
3.500000E+03	1.100962E-16	5.220638E-18
3.510000E+03	1.112796E-16	5.270948E-18
3.520000E+03	1.123482E-16	5.315691E-18
3.530000E+03	1.133085E-16	5.355186E-18
3.540000E+03	1.141686E-16	5.389842E-18
3.550000E+03	1.149384E-16	5.420134E-18
3.560000E+03	1.156289E-16	5.446601E-18
3.570000E+03	1.162603E-16	5.470195E-18
3.580000E+03	1.168382E-16	5.491202E-18
3.590000E+03	1.173923E-16	5.511013E-18
3.600000E+03	1.179230E-16	5.529655E-18
3.610000E+03	1.184542E-16	5.548253E-18
3.620000E+03	1.190102E-16	5.567939E-18
3.630000E+03	1.196018E-16	5.589218E-18
3.640000E+03	1.202550E-16	5.613292E-18
3.650000E+03	1.209821E-16	5.640729E-18
3.660000E+03	1.218171E-16	5.673096E-18
3.670000E+03	1.227671E-16	5.710704E-18
3.680000E+03	1.238667E-16	5.755150E-18
3.690000E+03	1.251378E-16	5.807420E-18
3.700000E+03	1.265892E-16	5.867891E-18
3.710000E+03	1.282633E-16	5.938498E-18
3.720000E+03	1.301759E-16	6.019937E-18
3.730000E+03	1.323499E-16	6.113223E-18
3.740000E+03	1.348079E-16	6.219357E-18
3.750000E+03	1.375722E-16	6.339314E-18
3.760000E+03	1.406774E-16	6.474641E-18
3.770000E+03	1.441312E-16	6.625627E-18
3.780000E+03	1.479593E-16	6.793397E-18
3.790000E+03	1.521794E-16	6.978695E-18
3.800000E+03	1.568062E-16	7.182131E-18
3.810000E+03	1.618583E-16	7.404486E-18
3.820000E+03	1.673369E-16	7.645737E-18
3.830000E+03	1.732589E-16	7.906584E-18
3.840000E+03	1.796079E-16	8.186206E-18
3.850000E+03	1.863821E-16	8.484435E-18
3.860000E+03	1.935648E-16	8.800447E-18
3.870000E+03	2.011311E-16	9.133031E-18
3.880000E+03	2.090546E-16	9.480925E-18
3.890000E+03	2.172840E-16	9.841739E-18
3.900000E+03	2.257734E-16	1.021334E-17
3.910000E+03	2.344591E-16	1.059280E-17
3.920000E+03	2.432596E-16	1.097642E-17
3.930000E+03	2.521007E-16	1.136080E-17
3.940000E+03	2.609013E-16	1.174231E-17
3.950000E+03	2.695493E-16	1.211589E-17
3.960000E+03	2.779545E-16	1.247753E-17
3.970000E+03	2.860173E-16	1.282279E-17
3.980000E+03	2.936407E-16	1.314740E-17
3.990000E+03	3.007411E-16	1.344768E-17
4.000000E+03	3.072168E-16	1.371917E-17
4.010000E+03	3.130124E-16	1.395953E-17
4.020000E+03	3.180508E-16	1.416543E-17
4.030000E+03	3.222978E-16	1.433548E-17
4.040000E+03	3.257368E-16	1.446908E-17
4.050000E+03	3.283433E-16	1.456529E-17
4.060000E+03	3.301302E-16	1.462482E-17
4.070000E+03	3.311359E-16	1.464953E-17
4.080000E+03	3.314070E-16	1.464161E-17
4.090000E+03	3.309877E-16	1.460314E-17
4.100000E+03	3.299654E-16	1.453810E-17
4.110000E+03	3.284037E-16	1.444940E-17
4.120000E+03	3.263944E-16	1.434117E-17
4.130000E+03	3.240158E-16	1.421692E-17
4.140000E+03	3.213459E-16	1.408014E-17
4.150000E+03	3.184823E-16	1.393517E-17
4.160000E+03	3.154829E-16	1.378456E-17
4.170000E+03	3.124298E-16	1.363192E-17
4.180000E+03	3.093916E-16	1.348026E-17
4.190000E+03	3.064254E-16	1.333206E-17
4.200000E+03	3.035821E-16	1.318951E-17
4.210000E+03	3.009119E-16	1.305478E-17
4.220000E+03	2.984528E-16	1.292948E-17
4.230000E+03	2.962421E-16	1.281518E-17
4.240000E+03	2.943058E-16	1.271296E-17
4.250000E+03	2.926704E-16	1.262392E-17
4.260000E+03	2.913474E-16	1.254849E-17
4.270000E+03	2.903555E-16	1.248742E-17
4.280000E+03	2.897046E-16	1.244108E-17
4.290000E+03	2.894067E-16	1.240991E-17
4.300000E+03	2.894601E-16	1.239378E-17
4.310000E+03	2.898645E-16	1.239260E-17
4.320000E+03	2.906149E-16	1.240609E-17
4.330000E+03	2.917011E-16	1.243376E-17
4.340000E+03	2.931028E-16	1.247467E-17
4.350000E+03	2.947991E-16	1.252787E-17
4.360000E+03	2.967609E-16	1.259208E-17
4.370000E+03	2.989586E-16	1.266598E-17
4.380000E+03	3.013728E-16	1.274871E-17
4.390000E+03	3.039850E-16	1.283945E-17
4.400000E+03	3.068354E-16	1.293985E-17
4.410000E+03	3.099787E-16	1.305217E-17
4.420000E+03	3.134818E-16	1.317916E-17
4.430000E+03	3.174159E-16	1.332374E-17
4.440000E+03	3.218385E-16	1.348823E-17
4.450000E+03	3.267919E-16	1.367430E-17
4.460000E+03	3.323267E-16	1.388397E-17
4.470000E+03	3.384705E-16	1.411826E-17
4.480000E+03	3.452536E-16	1.437832E-17
4.490000E+03	3.526746E-16	1.466396E-17
4.500000E+03	3.607271E-16	1.497478E-17
4.510000E+03	3.693719E-16	1.530903E-17
4.520000E+03	3.785487E-16	1.566409E-17
4.530000E+03	3.881602E-16	1.603582E-17
4.540000E+03	3.981027E-16	1.641988E-17
4.550000E+03	4.082193E-16	1.680971E-17
4.560000E+03	4.183385E-16	1.719823E-17
4.570000E+03	4.282770E-16	1.757792E-17
4.580000E+03	4.378171E-16	1.793989E-17
4.590000E+03	4.467365E-16	1.827512E-17
4.600000E+03	4.548147E-16	1.857472E-17
4.610000E+03	4.618418E-16	1.883031E-17
4.620000E+03	4.676230E-16	1.903417E-17
4.630000E+03	4.720048E-16	1.918032E-17
4.640000E+03	4.748636E-16	1.926403E-17
4.650000E+03	4.761171E-16	1.928227E-17
4.660000E+03	4.757210E-16	1.923359E-17
4.670000E+03	4.736804E-16	1.911853E-17
4.680000E+03	4.700500E-16	1.893963E-17
4.690000E+03	4.649093E-16	1.870043E-17
4.700000E+03	4.583979E-16	1.840684E-17
4.710000E+03	4.506723E-16	1.806543E-17
4.720000E+03	4.419247E-16	1.768414E-17
4.730000E+03	4.323714E-16	1.727183E-17
4.740000E+03	4.222409E-16	1.683778E-17
4.750000E+03	4.117792E-16	1.639191E-17
4.760000E+03	4.012332E-16	1.594411E-17
4.770000E+03	3.908598E-16	1.550458E-17
4.780000E+03	3.808979E-16	1.508276E-17
4.790000E+03	3.715933E-16	1.468828E-17
4.800000E+03	3.631674E-16	1.432973E-17
4.810000E+03	3.558346E-16	1.401539E-17
4.820000E+03	3.498033E-16	1.375322E-17
4.830000E+03	3.452549E-16	1.355006E-17
4.840000E+03	3.423620E-16	1.341238E-17
4.850000E+03	3.412671E-16	1.334538E-17
4.860000E+03	3.421039E-16	1.335392E-17
4.870000E+03	3.449759E-16	1.344161E-17
4.880000E+03	3.499480E-16	1.361054E-17
4.890000E+03	3.570485E-16	1.386138E-17
4.900000E+03	3.662318E-16	1.419189E-17
4.910000E+03	3.773847E-16	1.459726E-17
4.920000E+03	3.902910E-16	1.506872E-17
4.930000E+03	4.046358E-16	1.559376E-17
4.940000E+03	4.199717E-16	1.615486E-17
4.950000E+03	4.357520E-16	1.673082E-17
4.960000E+03	4.513341E-16	1.729691E-17
4.970000E+03	4.660174E-16	1.782638E-17
4.980000E+03	4.791246E-16	1.829356E-17
4.990000E+03	4.900579E-16	1.867601E-17
5.000000E+03	4.984120E-16	1.895878E-17
5.010000E+03	5.039801E-16	1.913456E-17
5.020000E+03	5.068109E-16	1.920582E-17
5.030000E+03	5.071716E-16	1.918323E-17
5.040000E+03	5.055009E-16	1.908390E-17
5.050000E+03	5.023384E-16	1.892860E-17
5.060000E+03	4.982529E-16	1.873904E-17
5.070000E+03	4.938009E-16	1.853631E-17
5.080000E+03	4.894603E-16	1.833841E-17
5.090000E+03	4.856300E-16	1.816021E-17
5.100000E+03	4.825880E-16	1.801200E-17
5.110000E+03	4.805247E-16	1.790070E-17
5.120000E+03	4.795461E-16	1.783005E-17
5.130000E+03	4.796606E-16	1.780012E-17
5.140000E+03	4.808284E-16	1.780922E-17
5.150000E+03	4.829757E-16	1.785439E-17
5.160000E+03	4.859889E-16	1.793124E-17
5.170000E+03	4.897520E-16	1.803531E-17
5.180000E+03	4.941708E-16	1.816299E-17
5.190000E+03	4.991731E-16	1.831149E-17
5.200000E+03	5.046968E-16	1.847842E-17
5.210000E+03	5.107224E-16	1.866297E-17
5.220000E+03	5.172534E-16	1.886515E-17
5.230000E+03	5.242908E-16	1.908491E-17
5.240000E+03	5.318617E-16	1.932314E-17
5.250000E+03	5.399715E-16	1.957992E-17
5.260000E+03	5.486125E-16	1.985486E-17
5.270000E+03	5.577466E-16	2.014649E-17
5.280000E+03	5.673043E-16	2.045220E-17
5.290000E+03	5.771894E-16	2.076847E-17
5.300000E+03	5.872602E-16	2.109013E-17
5.310000E+03	5.973591E-16	2.141152E-17
5.320000E+03	6.073228E-16	2.172680E-17
5.330000E+03	6.170012E-16	2.203064E-17
5.340000E+03	6.262565E-16	2.231821E-17
5.350000E+03	6.349987E-16	2.258641E-17
5.360000E+03	6.431900E-16	2.283400E-17
5.370000E+03	6.508588E-16	2.306213E-17
5.380000E+03	6.580729E-16	2.327330E-17
5.390000E+03	6.649763E-16	2.347271E-17
5.400000E+03	6.717334E-16	2.366622E-17
5.410000E+03	6.785377E-16	2.386067E-17
5.420000E+03	6.855815E-16	2.406283E-17
5.430000E+03	6.930324E-16	2.427852E-17
5.440000E+03	7.009994E-16	2.451150E-17
5.450000E+03	7.095379E-16	2.476360E-17
5.460000E+03	7.185917E-16	2.503278E-17
5.470000E+03	7.280282E-16	2.531434E-17
5.480000E+03	7.376349E-16	2.560085E-17
5.490000E+03	7.470734E-16	2.588057E-17
5.500000E+03	7.559426E-16	2.613969E-17
5.510000E+03	7.637288E-16	2.636059E-17
5.520000E+03	7.698781E-16	2.652443E-17
5.530000E+03	7.738819E-16	2.661403E-17
5.540000E+03	7.753187E-16	2.661534E-17
5.550000E+03	7.738547E-16	2.651741E-17
5.560000E+03	7.692920E-16	2.631400E-17
5.570000E+03	7.615118E-16	2.600162E-17
5.580000E+03	7.505209E-16	2.558108E-17
5.590000E+03	7.364086E-16	2.505598E-17
5.600000E+03	7.193468E-16	2.443270E-17
5.610000E+03	6.995944E-16	2.372053E-17
5.620000E+03	6.775061E-16	2.293193E-17
5.630000E+03	6.535478E-16	2.208301E-17
5.640000E+03	6.282913E-16	2.119336E-17
5.650000E+03	6.024503E-16	2.028721E-17
5.660000E+03	5.768355E-16	1.939188E-17
5.670000E+03	5.523124E-16	1.853635E-17
5.680000E+03	5.297407E-16	1.774919E-17
5.690000E+03	5.099103E-16	1.705648E-17
5.700000E+03	4.935132E-16	1.648085E-17
5.710000E+03	4.811163E-16	1.604061E-17
5.720000E+03	4.731485E-16	1.574936E-17
5.730000E+03	4.699337E-16	1.561714E-17
5.740000E+03	4.716885E-16	1.565036E-17
5.750000E+03	4.785251E-16	1.585197E-17
5.760000E+03	4.904547E-16	1.622153E-17
5.770000E+03	5.073890E-16	1.675534E-17
5.780000E+03	5.291216E-16	1.744586E-17
5.790000E+03	5.552787E-16	1.828006E-17
5.800000E+03	5.853126E-16	1.923931E-17
5.810000E+03	6.184927E-16	2.029909E-17
5.820000E+03	6.539034E-16	2.142897E-17
5.830000E+03	6.904925E-16	2.259426E-17
5.840000E+03	7.271220E-16	2.375764E-17
5.850000E+03	7.626535E-16	2.488203E-17
5.860000E+03	7.960226E-16	2.593297E-17
5.870000E+03	8.262809E-16	2.687997E-17
5.880000E+03	8.526668E-16	2.769878E-17
5.890000E+03	8.746335E-16	2.837223E-17
5.900000E+03	8.918172E-16	2.888919E-17
5.910000E+03	9.040830E-16	2.924599E-17
5.920000E+03	9.114615E-16	2.944429E-17
5.930000E+03	9.141600E-16	2.949145E-17
5.940000E+03	9.124705E-16	2.939751E-17
5.950000E+03	9.068290E-16	2.917705E-17
5.960000E+03	8.977155E-16	2.884601E-17
5.970000E+03	8.856709E-16	2.842217E-17
5.980000E+03	8.712688E-16	2.792426E-17
5.990000E+03	8.550901E-16	2.737117E-17
6.000000E+03	8.377049E-16	2.678129E-17
6.010000E+03	8.196773E-16	2.617276E-17
6.020000E+03	8.015478E-16	2.556288E-17
6.030000E+03	7.837865E-16	2.496660E-17
6.040000E+03	7.668231E-16	2.439752E-17
6.050000E+03	7.510031E-16	2.386650E-17
6.060000E+03	7.365788E-16	2.338142E-17
6.070000E+03	7.237464E-16	2.294830E-17
6.080000E+03	7.125862E-16	2.256952E-17
6.090000E+03	7.031270E-16	2.224578E-17
6.100000E+03	6.953452E-16	2.197616E-17
6.110000E+03	6.891961E-16	2.175906E-17
6.120000E+03	6.845928E-16	2.159157E-17
6.130000E+03	6.814459E-16	2.147073E-17
6.140000E+03	6.796438E-16	2.139288E-17
6.150000E+03	6.790527E-16	2.135369E-17
6.160000E+03	6.795267E-16	2.134848E-17
6.170000E+03	6.808646E-16	2.137083E-17
6.180000E+03	6.828473E-16	2.141381E-17
6.190000E+03	6.852366E-16	2.146992E-17
6.200000E+03	6.877544E-16	2.153043E-17
6.210000E+03	6.901425E-16	2.158725E-17
6.220000E+03	6.921414E-16	2.163231E-17
6.230000E+03	6.935555E-16	2.165952E-17
6.240000E+03	6.942209E-16	2.166383E-17
6.250000E+03	6.940689E-16	2.164314E-17
6.260000E+03	6.930809E-16	2.159690E-17
6.270000E+03	6.913070E-16	2.152674E-17
6.280000E+03	6.888789E-16	2.143679E-17
6.290000E+03	6.859412E-16	2.133157E-17
6.300000E+03	6.826794E-16	2.121686E-17
6.310000E+03	6.792779E-16	2.109841E-17
6.320000E+03	6.758721E-16	2.098039E-17
6.330000E+03	6.725651E-16	2.086601E-17
6.340000E+03	6.694178E-16	2.075713E-17
6.350000E+03	6.664333E-16	2.065382E-17
6.360000E+03	6.635313E-16	2.055357E-17
6.370000E+03	6.605822E-16	2.045237E-17
6.380000E+03	6.573624E-16	2.034327E-17
6.390000E+03	6.535943E-16	2.021769E-17
6.400000E+03	6.490003E-16	2.006706E-17
6.410000E+03	6.433404E-16	1.988399E-17
6.420000E+03	6.364431E-16	1.966318E-17
6.430000E+03	6.282692E-16	1.940347E-17
6.440000E+03	6.189520E-16	1.910898E-17
6.450000E+03	6.087722E-16	1.878840E-17
6.460000E+03	5.981716E-16	1.845538E-17
6.470000E+03	5.877110E-16	1.812718E-17
6.480000E+03	5.780367E-16	1.782373E-17
6.490000E+03	5.697951E-16	1.756489E-17
6.500000E+03	5.635871E-16	1.736915E-17
6.510000E+03	5.599604E-16	1.725332E-17
6.520000E+03	5.593330E-16	1.723020E-17
6.530000E+03	5.619851E-16	1.730836E-17
6.540000E+03	5.680372E-16	1.749145E-17
6.550000E+03	5.774318E-16	1.777764E-17
6.560000E+03	5.898956E-16	1.815848E-17
6.570000E+03	6.049630E-16	1.861961E-17
6.580000E+03	6.219949E-16	1.914133E-17
6.590000E+03	6.402362E-16	1.970042E-17
6.600000E+03	6.588325E-16	2.027059E-17
6.610000E+03	6.769135E-16	2.082508E-17
6.620000E+03	6.936621E-16	2.133879E-17
6.630000E+03	7.083833E-16	2.179035E-17
6.640000E+03	7.205409E-16	2.216331E-17
6.650000E+03	7.298005E-16	2.244740E-17
6.660000E+03	7.360378E-16	2.263882E-17
6.670000E+03	7.392845E-16	2.273855E-17
6.680000E+03	7.397476E-16	2.275296E-17
6.690000E+03	7.377023E-16	2.269052E-17
6.700000E+03	7.334644E-16	2.256092E-17
6.710000E+03	7.273409E-16	2.237360E-17
6.720000E+03	7.195830E-16	2.213627E-17
6.730000E+03	7.104076E-16	2.185558E-17
6.740000E+03	6.999529E-16	2.153576E-17
6.750000E+03	6.883462E-16	2.118072E-17
6.760000E+03	6.756746E-16	2.079309E-17
6.770000E+03	6.620123E-16	2.037514E-17
6.780000E+03	6.474521E-16	1.992971E-17
6.790000E+03	6.321577E-16	1.946179E-17
6.800000E+03	6.163047E-16	1.897677E-17
6.810000E+03	6.001611E-16	1.848288E-17
6.820000E+03	5.840601E-16	1.799036E-17
6.830000E+03	5.683818E-16	1.751090E-17
6.840000E+03	5.535576E-16	1.705778E-17
6.850000E+03	5.400447E-16	1.664510E-17
6.860000E+03	5.283116E-16	1.628731E-17
6.870000E+03	5.188215E-16	1.599872E-17
6.880000E+03	5.119810E-16	1.579191E-17
6.890000E+03	5.081568E-16	1.567826E-17
6.900000E+03	5.076350E-16	1.566666E-17
6.910000E+03	5.105691E-16	1.576196E-17
6.920000E+03	5.169919E-16	1.596525E-17
6.930000E+03	5.267739E-16	1.627265E-17
6.940000E+03	5.396346E-16	1.667561E-17
6.950000E+03	5.551458E-16	1.716101E-17
6.960000E+03	5.727071E-16	1.771039E-17
6.970000E+03	5.915883E-16	1.830126E-17
6.980000E+03	6.109787E-16	1.890860E-17
6.990000E+03	6.299998E-16	1.950526E-17
7.000000E+03	6.478022E-16	2.006495E-17
7.010000E+03	6.636618E-16	2.056520E-17
7.020000E+03	6.769921E-16	2.098779E-17
7.030000E+03	6.874167E-16	2.132095E-17
7.040000E+03	6.947716E-16	2.155949E-17
7.050000E+03	6.991284E-16	2.170551E-17
7.060000E+03	7.007108E-16	2.176582E-17
7.070000E+03	6.998860E-16	2.175172E-17
7.080000E+03	6.971079E-16	2.167721E-17
7.090000E+03	6.928674E-16	2.155746E-17
7.100000E+03	6.876509E-16	2.140753E-17
7.110000E+03	6.819240E-16	2.124188E-17
7.120000E+03	6.760764E-16	2.107261E-17
7.130000E+03	6.704600E-16	2.091070E-17
7.140000E+03	6.653638E-16	2.076517E-17
7.150000E+03	6.609962E-16	2.064256E-17
7.160000E+03	6.575078E-16	2.054762E-17
7.170000E+03	6.549908E-16	2.048329E-17
7.180000E+03	6.534828E-16	2.045082E-17
7.190000E+03	6.529777E-16	2.045009E-17
7.200000E+03	6.533984E-16	2.047874E-17
7.210000E+03	6.546722E-16	2.053458E-17
7.220000E+03	6.566427E-16	2.061277E-17
7.230000E+03	6.591683E-16	2.070893E-17
7.240000E+03	6.620603E-16	2.081716E-17
7.250000E+03	6.651278E-16	2.093152E-17
7.260000E+03	6.681480E-16	2.104500E-17
7.270000E+03	6.709035E-16	2.115078E-17
7.280000E+03	6.731625E-16	2.124151E-17
7.290000E+03	6.746914E-16	2.130980E-17
7.300000E+03	6.752996E-16	2.134956E-17
7.310000E+03	6.748280E-16	2.135568E-17
7.320000E+03	6.731641E-16	2.132452E-17
7.330000E+03	6.702898E-16	2.125537E-17
7.340000E+03	6.662311E-16	2.114896E-17
7.350000E+03	6.610852E-16	2.100825E-17
7.360000E+03	6.550028E-16	2.083792E-17
7.370000E+03	6.481437E-16	2.064295E-17
7.380000E+03	6.406979E-16	2.042931E-17
7.390000E+03	6.328324E-16	2.020226E-17
7.400000E+03	6.247024E-16	1.996670E-17
7.410000E+03	6.164481E-16	1.972706E-17
7.420000E+03	6.081715E-16	1.948660E-17
7.430000E+03	5.999227E-16	1.924690E-17
7.440000E+03	5.917480E-16	1.900944E-17
7.450000E+03	5.836623E-16	1.877469E-17
7.460000E+03	5.756547E-16	1.854231E-17
7.470000E+03	5.677057E-16	1.831164E-17
7.480000E+03	5.597666E-16	1.808112E-17
7.490000E+03	5.517801E-16	1.784888E-17
7.500000E+03	5.436842E-16	1.761288E-17
7.510000E+03	5.354195E-16	1.737116E-17
7.520000E+03	5.269246E-16	1.712170E-17
7.530000E+03	5.181819E-16	1.686385E-17
7.540000E+03	5.091761E-16	1.659707E-17
7.550000E+03	4.999697E-16	1.632334E-17
7.560000E+03	4.906510E-16	1.604548E-17
7.570000E+03	4.813645E-16	1.576816E-17
7.580000E+03	4.722704E-16	1.549662E-17
7.590000E+03	4.635834E-16	1.523790E-17
7.600000E+03	4.555287E-16	1.499947E-17
7.610000E+03	4.483630E-16	1.478986E-17
7.620000E+03	4.423427E-16	1.461768E-17
7.630000E+03	4.377531E-16	1.449255E-17
7.640000E+03	4.348544E-16	1.442335E-17
7.650000E+03	4.338371E-16	1.441670E-17
7.660000E+03	4.348227E-16	1.447698E-17
7.670000E+03	4.378195E-16	1.460486E-17
7.680000E+03	4.427652E-16	1.479863E-17
7.690000E+03	4.495190E-16	1.505397E-17
7.700000E+03	4.578796E-16	1.536449E-17
7.710000E+03	4.675969E-16	1.572211E-17
7.720000E+03	4.783945E-16	1.611781E-17
7.730000E+03	4.899571E-16	1.654119E-17
7.740000E+03	5.019693E-16	1.698175E-17
7.750000E+03	5.141061E-16	1.742858E-17
7.760000E+03	5.260655E-16	1.787147E-17
