#wls	flux	fluxerr
1.600000E+03	1.945705E-18	6.275142E-19
1.640000E+03	1.891712E-18	6.054815E-19
1.680000E+03	1.839337E-18	5.841415E-19
1.720000E+03	1.788479E-18	5.634566E-19
1.760000E+03	1.739673E-18	5.435884E-19
1.800000E+03	1.693114E-18	5.245878E-19
1.840000E+03	1.648705E-18	5.064128E-19
1.880000E+03	1.606924E-18	4.891974E-19
1.920000E+03	1.567672E-18	4.728952E-19
1.960000E+03	1.531389E-18	4.576222E-19
2.000000E+03	1.498226E-18	4.434022E-19
2.040000E+03	1.468326E-18	4.302550E-19
2.080000E+03	1.441582E-18	4.181244E-19
2.120000E+03	1.418385E-18	4.070980E-19
2.160000E+03	1.398869E-18	3.971845E-19
2.200000E+03	1.383170E-18	3.883910E-19
2.240000E+03	1.371203E-18	3.806597E-19
2.280000E+03	1.363584E-18	3.741255E-19
2.320000E+03	1.360025E-18	3.686688E-19
2.360000E+03	1.360947E-18	3.643622E-19
2.400000E+03	1.366790E-18	3.612769E-19
2.440000E+03	1.377357E-18	3.593097E-19
2.480000E+03	1.393165E-18	3.585432E-19
2.520000E+03	1.414562E-18	3.590073E-19
2.560000E+03	1.441956E-18	3.607411E-19
2.600000E+03	1.475836E-18	3.637953E-19
2.640000E+03	1.516784E-18	3.682344E-19
2.680000E+03	1.565500E-18	3.741396E-19
2.720000E+03	1.623082E-18	3.816740E-19
2.760000E+03	1.690044E-18	3.908450E-19
2.800000E+03	1.767875E-18	4.018712E-19
2.840000E+03	1.858378E-18	4.150150E-19
2.880000E+03	1.962849E-18	4.303948E-19
2.920000E+03	2.084184E-18	4.484485E-19
2.960000E+03	2.224952E-18	4.694935E-19
3.000000E+03	2.388725E-18	4.940055E-19
3.010000E+03	2.433613E-18	5.007109E-19
3.020000E+03	2.480641E-18	5.077514E-19
3.030000E+03	2.529147E-18	5.149851E-19
3.040000E+03	2.579978E-18	5.225784E-19
3.050000E+03	2.632854E-18	5.304670E-19
3.060000E+03	2.687468E-18	5.385825E-19
3.070000E+03	2.744731E-18	5.471000E-19
3.080000E+03	2.804355E-18	5.559541E-19
3.090000E+03	2.866463E-18	5.651603E-19
3.100000E+03	2.931181E-18	5.747348E-19
3.110000E+03	2.998642E-18	5.846947E-19
3.120000E+03	3.068991E-18	5.950585E-19
3.130000E+03	3.142380E-18	6.058454E-19
3.140000E+03	3.219447E-18	6.171674E-19
3.150000E+03	3.299417E-18	6.288639E-19
3.160000E+03	3.383442E-18	6.411430E-19
3.170000E+03	3.470724E-18	6.538403E-19
3.180000E+03	3.562485E-18	6.671730E-19
3.190000E+03	3.657902E-18	6.809727E-19
3.200000E+03	3.758272E-18	6.954663E-19
3.210000E+03	3.863320E-18	7.105857E-19
3.220000E+03	3.973305E-18	7.263621E-19
3.230000E+03	4.087909E-18	7.427202E-19
3.240000E+03	4.208610E-18	7.599106E-19
3.250000E+03	4.335138E-18	7.778634E-19
3.260000E+03	4.468481E-18	7.967341E-19
3.270000E+03	4.607709E-18	8.163338E-19
3.280000E+03	4.753830E-18	8.368193E-19
3.290000E+03	4.907246E-18	8.582363E-19
3.300000E+03	5.068380E-18	8.806324E-19
3.310000E+03	5.238439E-18	9.041885E-19
3.320000E+03	5.416409E-18	9.286992E-19
3.330000E+03	5.604337E-18	9.544845E-19
3.340000E+03	5.801170E-18	9.813313E-19
3.350000E+03	6.009121E-18	1.009579E-18
3.360000E+03	6.227984E-18	1.039154E-18
3.370000E+03	6.458400E-18	1.070124E-18
3.380000E+03	6.700087E-18	1.102400E-18
3.390000E+03	6.955636E-18	1.136366E-18
3.400000E+03	7.224879E-18	1.171944E-18
3.410000E+03	7.508608E-18	1.209213E-18
3.420000E+03	7.807662E-18	1.248256E-18
3.430000E+03	8.122922E-18	1.289156E-18
3.440000E+03	8.455313E-18	1.332001E-18
3.450000E+03	8.807050E-18	1.377077E-18
3.460000E+03	9.176724E-18	1.424094E-18
3.470000E+03	9.566590E-18	1.473336E-18
3.480000E+03	9.979170E-18	1.525115E-18
3.490000E+03	1.041290E-17	1.579112E-18
3.500000E+03	1.087184E-17	1.635861E-18
3.510000E+03	1.135428E-17	1.695018E-18
3.520000E+03	1.186465E-17	1.757152E-18
3.530000E+03	1.240107E-17	1.821888E-18
3.540000E+03	1.296834E-17	1.889828E-18
3.550000E+03	1.356624E-17	1.960834E-18
3.560000E+03	1.419435E-17	2.034731E-18
3.570000E+03	1.485802E-17	2.112174E-18
3.580000E+03	1.555697E-17	2.192992E-18
3.590000E+03	1.629279E-17	2.277283E-18
3.600000E+03	1.706712E-17	2.365140E-18
3.610000E+03	1.788160E-17	2.456651E-18
3.620000E+03	1.873792E-17	2.551901E-18
3.630000E+03	1.963771E-17	2.650960E-18
3.640000E+03	2.058265E-17	2.753897E-18
3.650000E+03	2.157437E-17	2.860766E-18
3.660000E+03	2.261752E-17	2.972013E-18
3.670000E+03	2.370769E-17	3.086877E-18
3.680000E+03	2.484928E-17	3.205760E-18
3.690000E+03	2.604369E-17	3.328658E-18
3.700000E+03	2.729589E-17	3.456012E-18
3.710000E+03	2.859990E-17	3.586870E-18
3.720000E+03	2.996027E-17	3.721613E-18
3.730000E+03	3.138210E-17	3.860669E-18
3.740000E+03	3.285788E-17	4.002909E-18
3.750000E+03	3.439669E-17	4.149242E-18
3.760000E+03	3.598987E-17	4.298412E-18
3.770000E+03	3.764680E-17	4.451343E-18
3.780000E+03	3.935744E-17	4.606639E-18
3.790000E+03	4.113146E-17	4.765240E-18
3.800000E+03	4.296300E-17	4.926256E-18
3.810000E+03	4.484496E-17	5.088690E-18
3.820000E+03	4.678731E-17	5.253496E-18
3.830000E+03	4.877607E-17	5.418921E-18
3.840000E+03	5.082142E-17	5.585937E-18
3.850000E+03	5.291451E-17	5.753397E-18
3.860000E+03	5.505221E-17	5.920819E-18
3.870000E+03	5.722357E-17	6.086902E-18
3.880000E+03	5.943931E-17	6.252679E-18
3.890000E+03	6.168800E-17	6.416832E-18
3.900000E+03	6.396504E-17	6.578801E-18
3.910000E+03	6.625697E-17	6.737150E-18
3.920000E+03	6.857544E-17	6.893032E-18
3.930000E+03	7.090678E-17	7.045034E-18
3.940000E+03	7.324544E-17	7.192602E-18
3.950000E+03	7.558574E-17	7.335203E-18
3.960000E+03	7.791202E-17	7.471375E-18
3.970000E+03	8.023821E-17	7.602533E-18
3.980000E+03	8.254907E-17	7.727300E-18
3.990000E+03	8.483917E-17	7.845279E-18
4.000000E+03	8.710335E-17	7.956127E-18
4.010000E+03	8.932542E-17	8.058529E-18
4.020000E+03	9.152329E-17	8.154284E-18
4.030000E+03	9.368183E-17	8.242207E-18
4.040000E+03	9.579751E-17	8.322190E-18
4.050000E+03	9.786729E-17	8.394186E-18
4.060000E+03	9.987619E-17	8.457150E-18
4.070000E+03	1.018471E-16	8.513277E-18
4.080000E+03	1.037666E-16	8.561649E-18
4.090000E+03	1.056338E-16	8.602455E-18
4.100000E+03	1.074353E-16	8.634874E-18
4.110000E+03	1.091981E-16	8.661336E-18
4.120000E+03	1.109100E-16	8.681102E-18
4.130000E+03	1.125585E-16	8.693461E-18
4.140000E+03	1.141731E-16	8.700958E-18
4.150000E+03	1.157423E-16	8.702937E-18
4.160000E+03	1.172542E-16	8.698758E-18
4.170000E+03	1.187404E-16	8.691006E-18
4.180000E+03	1.201749E-16	8.677991E-18
4.190000E+03	1.215900E-16	8.662293E-18
4.200000E+03	1.229591E-16	8.642212E-18
4.210000E+03	1.243154E-16	8.620308E-18
4.220000E+03	1.256316E-16	8.594872E-18
4.230000E+03	1.269411E-16	8.568407E-18
4.240000E+03	1.282158E-16	8.539190E-18
4.250000E+03	1.294736E-16	8.508629E-18
4.260000E+03	1.307321E-16	8.478066E-18
4.270000E+03	1.319618E-16	8.445752E-18
4.280000E+03	1.331799E-16	8.412997E-18
4.290000E+03	1.343876E-16	8.380070E-18
4.300000E+03	1.355855E-16	8.347196E-18
4.310000E+03	1.367741E-16	8.314592E-18
4.320000E+03	1.379539E-16	8.282473E-18
4.330000E+03	1.391245E-16	8.251024E-18
4.340000E+03	1.402860E-16	8.220436E-18
4.350000E+03	1.414379E-16	8.190882E-18
4.360000E+03	1.425801E-16	8.162559E-18
4.370000E+03	1.437121E-16	8.135650E-18
4.380000E+03	1.448340E-16	8.110353E-18
4.390000E+03	1.459283E-16	8.085918E-18
4.400000E+03	1.470296E-16	8.064460E-18
4.410000E+03	1.481025E-16	8.044241E-18
4.420000E+03	1.491814E-16	8.027334E-18
4.430000E+03	1.502310E-16	8.012024E-18
4.440000E+03	1.512854E-16	8.000338E-18
4.450000E+03	1.523081E-16	7.990523E-18
4.460000E+03	1.533151E-16	7.983614E-18
4.470000E+03	1.543224E-16	7.980524E-18
4.480000E+03	1.552912E-16	7.979219E-18
4.490000E+03	1.562360E-16	7.980411E-18
4.500000E+03	1.571523E-16	7.983827E-18
4.510000E+03	1.580352E-16	7.989147E-18
4.520000E+03	1.588790E-16	7.996009E-18
4.530000E+03	1.596586E-16	8.003074E-18
4.540000E+03	1.604042E-16	8.011763E-18
4.550000E+03	1.610904E-16	8.020690E-18
4.560000E+03	1.616912E-16	8.028457E-18
4.570000E+03	1.622371E-16	8.036450E-18
4.580000E+03	1.626838E-16	8.042347E-18
4.590000E+03	1.630629E-16	8.047565E-18
4.600000E+03	1.633319E-16	8.049848E-18
4.610000E+03	1.635051E-16	8.049751E-18
4.620000E+03	1.635796E-16	8.046968E-18
4.630000E+03	1.635540E-16	8.041248E-18
4.640000E+03	1.634278E-16	8.032402E-18
4.650000E+03	1.632025E-16	8.020313E-18
4.660000E+03	1.628808E-16	8.004937E-18
4.670000E+03	1.624482E-16	7.985386E-18
4.680000E+03	1.619475E-16	7.963579E-18
4.690000E+03	1.613668E-16	7.938758E-18
4.700000E+03	1.606957E-16	7.910245E-18
4.710000E+03	1.599614E-16	7.879207E-18
4.720000E+03	1.591914E-16	7.846841E-18
4.730000E+03	1.583595E-16	7.811712E-18
4.740000E+03	1.574943E-16	7.775084E-18
4.750000E+03	1.566059E-16	7.737329E-18
4.760000E+03	1.557051E-16	7.698852E-18
4.770000E+03	1.548018E-16	7.660031E-18
4.780000E+03	1.538886E-16	7.620401E-18
4.790000E+03	1.530093E-16	7.582030E-18
4.800000E+03	1.521554E-16	7.544404E-18
4.810000E+03	1.513178E-16	7.507005E-18
4.820000E+03	1.505208E-16	7.470956E-18
4.830000E+03	1.497872E-16	7.437325E-18
4.840000E+03	1.490891E-16	7.404665E-18
4.850000E+03	1.484477E-16	7.373970E-18
4.860000E+03	1.478664E-16	7.345360E-18
4.870000E+03	1.473479E-16	7.318920E-18
4.880000E+03	1.468939E-16	7.294683E-18
4.890000E+03	1.464889E-16	7.271843E-18
4.900000E+03	1.461656E-16	7.251972E-18
4.910000E+03	1.458905E-16	7.233376E-18
4.920000E+03	1.456945E-16	7.217544E-18
4.930000E+03	1.455435E-16	7.202746E-18
4.940000E+03	1.454508E-16	7.189610E-18
4.950000E+03	1.454135E-16	7.177951E-18
4.960000E+03	1.454282E-16	7.167568E-18
4.970000E+03	1.454915E-16	7.158264E-18
4.980000E+03	1.455997E-16	7.149822E-18
4.990000E+03	1.457491E-16	7.142036E-18
5.000000E+03	1.459205E-16	7.133933E-18
5.010000E+03	1.461425E-16	7.126891E-18
5.020000E+03	1.463798E-16	7.119166E-18
5.030000E+03	1.466459E-16	7.111398E-18
5.040000E+03	1.469541E-16	7.104210E-18
5.050000E+03	1.472704E-16	7.095940E-18
5.060000E+03	1.476086E-16	7.087256E-18
5.070000E+03	1.479509E-16	7.077288E-18
5.080000E+03	1.483281E-16	7.067512E-18
5.090000E+03	1.487224E-16	7.057073E-18
5.100000E+03	1.491163E-16	7.045138E-18
5.110000E+03	1.495404E-16	7.033169E-18
5.120000E+03	1.499608E-16	7.019575E-18
5.130000E+03	1.504079E-16	7.005798E-18
5.140000E+03	1.508473E-16	6.990243E-18
5.150000E+03	1.512928E-16	6.973580E-18
5.160000E+03	1.517416E-16	6.955715E-18
5.170000E+03	1.521908E-16	6.936546E-18
5.180000E+03	1.526206E-16	6.915214E-18
5.190000E+03	1.530606E-16	6.893112E-18
5.200000E+03	1.534739E-16	6.868629E-18
5.210000E+03	1.538899E-16	6.843145E-18
5.220000E+03	1.542717E-16	6.815085E-18
5.230000E+03	1.546317E-16	6.785090E-18
5.240000E+03	1.549830E-16	6.753812E-18
5.250000E+03	1.552887E-16	6.719736E-18
5.260000E+03	1.555622E-16	6.683550E-18
5.270000E+03	1.557837E-16	6.644526E-18
5.280000E+03	1.559844E-16	6.604115E-18
5.290000E+03	1.561454E-16	6.561635E-18
5.300000E+03	1.562489E-16	6.516470E-18
5.310000E+03	1.563274E-16	6.470124E-18
5.320000E+03	1.563478E-16	6.421361E-18
5.330000E+03	1.563275E-16	6.371044E-18
5.340000E+03	1.562679E-16	6.319384E-18
5.350000E+03	1.561881E-16	6.267292E-18
5.360000E+03	1.560408E-16	6.213017E-18
5.370000E+03	1.558796E-16	6.158854E-18
5.380000E+03	1.556917E-16	6.104434E-18
5.390000E+03	1.554815E-16	6.050064E-18
5.400000E+03	1.552369E-16	5.995416E-18
5.410000E+03	1.549952E-16	5.942069E-18
5.420000E+03	1.547278E-16	5.889049E-18
5.430000E+03	1.544545E-16	5.837243E-18
5.440000E+03	1.541947E-16	5.787493E-18
5.450000E+03	1.539174E-16	5.738746E-18
5.460000E+03	1.536390E-16	5.691738E-18
5.470000E+03	1.533588E-16	5.646537E-18
5.480000E+03	1.530577E-16	5.602556E-18
5.490000E+03	1.527644E-16	5.560940E-18
5.500000E+03	1.524581E-16	5.520984E-18
5.510000E+03	1.521183E-16	5.481843E-18
5.520000E+03	1.517723E-16	5.444356E-18
5.530000E+03	1.513826E-16	5.407034E-18
5.540000E+03	1.509596E-16	5.370103E-18
5.550000E+03	1.504978E-16	5.333212E-18
5.560000E+03	1.500079E-16	5.296595E-18
5.570000E+03	1.494541E-16	5.258833E-18
5.580000E+03	1.488336E-16	5.219687E-18
5.590000E+03	1.481769E-16	5.180079E-18
5.600000E+03	1.474687E-16	5.139332E-18
5.610000E+03	1.467117E-16	5.097397E-18
5.620000E+03	1.458951E-16	5.053759E-18
5.630000E+03	1.450561E-16	5.009575E-18
5.640000E+03	1.441719E-16	4.963930E-18
5.650000E+03	1.432675E-16	4.917554E-18
5.660000E+03	1.423686E-16	4.871210E-18
5.670000E+03	1.414562E-16	4.824129E-18
5.680000E+03	1.405576E-16	4.777125E-18
5.690000E+03	1.396847E-16	4.730498E-18
5.700000E+03	1.388495E-16	4.684538E-18
5.710000E+03	1.380634E-16	4.639523E-18
5.720000E+03	1.373228E-16	4.595226E-18
5.730000E+03	1.366659E-16	4.552826E-18
5.740000E+03	1.360870E-16	4.512014E-18
5.750000E+03	1.355787E-16	4.472442E-18
5.760000E+03	1.351749E-16	4.435120E-18
5.770000E+03	1.348511E-16	4.399128E-18
5.780000E+03	1.346232E-16	4.364881E-18
5.790000E+03	1.344919E-16	4.332280E-18
5.800000E+03	1.344695E-16	4.301605E-18
5.810000E+03	1.345245E-16	4.271729E-18
5.820000E+03	1.346663E-16	4.242837E-18
5.830000E+03	1.348884E-16	4.214618E-18
5.840000E+03	1.351689E-16	4.186275E-18
5.850000E+03	1.355271E-16	4.158311E-18
5.860000E+03	1.359392E-16	4.129891E-18
5.870000E+03	1.363945E-16	4.100602E-18
5.880000E+03	1.368677E-16	4.069617E-18
5.890000E+03	1.373765E-16	4.037405E-18
5.900000E+03	1.378812E-16	4.002750E-18
5.910000E+03	1.383861E-16	3.965760E-18
5.920000E+03	1.388964E-16	3.926567E-18
5.930000E+03	1.393746E-16	3.884118E-18
5.940000E+03	1.398288E-16	3.838672E-18
5.950000E+03	1.402536E-16	3.790137E-18
5.960000E+03	1.406461E-16	3.738493E-18
5.970000E+03	1.410053E-16	3.683794E-18
5.980000E+03	1.413321E-16	3.626164E-18
5.990000E+03	1.416297E-16	3.565793E-18
6.000000E+03	1.419037E-16	3.502938E-18
6.010000E+03	1.421613E-16	3.437912E-18
6.020000E+03	1.423970E-16	3.370723E-18
6.030000E+03	1.426517E-16	3.302489E-18
6.040000E+03	1.429231E-16	3.233291E-18
6.050000E+03	1.432101E-16	3.163259E-18
6.060000E+03	1.435575E-16	3.093551E-18
6.070000E+03	1.439506E-16	3.024007E-18
6.080000E+03	1.444204E-16	2.955473E-18
6.090000E+03	1.449982E-16	2.888776E-18
6.100000E+03	1.456694E-16	2.823838E-18
6.110000E+03	1.464644E-16	2.761523E-18
6.120000E+03	1.473977E-16	2.702408E-18
6.130000E+03	1.484828E-16	2.647104E-18
6.140000E+03	1.497318E-16	2.596269E-18
6.150000E+03	1.511549E-16	2.550615E-18
6.160000E+03	1.527603E-16	2.510925E-18
6.170000E+03	1.545540E-16	2.478065E-18
6.180000E+03	1.565390E-16	2.452989E-18
6.190000E+03	1.587151E-16	2.436735E-18
6.200000E+03	1.610616E-16	2.430166E-18
6.210000E+03	1.636047E-16	2.434972E-18
6.220000E+03	1.663155E-16	2.452088E-18
6.230000E+03	1.691603E-16	2.482426E-18
6.240000E+03	1.721536E-16	2.527589E-18
6.250000E+03	1.752350E-16	2.587920E-18
6.260000E+03	1.784126E-16	2.664069E-18
6.270000E+03	1.816171E-16	2.755051E-18
6.280000E+03	1.848315E-16	2.860418E-18
6.290000E+03	1.880374E-16	2.979497E-18
6.300000E+03	1.911551E-16	3.110449E-18
6.310000E+03	1.941628E-16	3.252154E-18
6.320000E+03	1.970192E-16	3.403023E-18
6.330000E+03	1.997049E-16	3.561721E-18
6.340000E+03	2.021403E-16	3.725724E-18
6.350000E+03	2.043114E-16	3.893559E-18
6.360000E+03	2.061880E-16	4.063388E-18
6.370000E+03	2.077445E-16	4.233409E-18
6.380000E+03	2.089609E-16	4.401882E-18
6.390000E+03	2.098233E-16	4.567172E-18
6.400000E+03	2.103237E-16	4.727775E-18
6.410000E+03	2.104376E-16	4.881810E-18
6.420000E+03	2.102128E-16	5.029100E-18
6.430000E+03	2.096358E-16	5.168129E-18
6.440000E+03	2.087197E-16	5.298066E-18
6.450000E+03	2.074596E-16	5.417687E-18
6.460000E+03	2.059198E-16	5.527654E-18
6.470000E+03	2.041011E-16	5.627109E-18
6.480000E+03	2.020067E-16	5.715306E-18
6.490000E+03	1.997054E-16	5.793445E-18
6.500000E+03	1.971812E-16	5.860446E-18
6.510000E+03	1.945027E-16	5.917789E-18
6.520000E+03	1.916544E-16	5.964566E-18
6.530000E+03	1.887028E-16	6.002464E-18
6.540000E+03	1.856319E-16	6.030697E-18
6.550000E+03	1.824855E-16	6.050440E-18
6.560000E+03	1.793043E-16	6.062913E-18
6.570000E+03	1.760705E-16	6.067436E-18
6.580000E+03	1.728223E-16	6.065270E-18
6.590000E+03	1.695770E-16	6.057040E-18
6.600000E+03	1.663683E-16	6.044019E-18
6.610000E+03	1.631745E-16	6.025536E-18
6.620000E+03	1.600270E-16	6.002850E-18
6.630000E+03	1.569372E-16	5.976555E-18
6.640000E+03	1.539154E-16	5.947218E-18
6.650000E+03	1.509710E-16	5.915405E-18
6.660000E+03	1.481120E-16	5.881645E-18
6.670000E+03	1.453456E-16	5.846445E-18
6.680000E+03	1.426778E-16	5.810285E-18
6.690000E+03	1.401141E-16	5.773626E-18
6.700000E+03	1.376594E-16	5.736905E-18
6.710000E+03	1.353175E-16	5.700533E-18
6.720000E+03	1.330919E-16	5.664885E-18
6.730000E+03	1.309716E-16	5.629734E-18
6.740000E+03	1.289870E-16	5.596610E-18
6.750000E+03	1.271263E-16	5.565235E-18
6.760000E+03	1.253909E-16	5.535895E-18
6.770000E+03	1.237691E-16	5.508275E-18
6.780000E+03	1.222886E-16	5.483807E-18
6.790000E+03	1.209370E-16	5.462133E-18
6.800000E+03	1.197019E-16	5.442876E-18
6.810000E+03	1.186098E-16	5.427405E-18
6.820000E+03	1.176351E-16	5.414716E-18
6.830000E+03	1.168036E-16	5.406135E-18
6.840000E+03	1.160900E-16	5.400636E-18
6.850000E+03	1.155190E-16	5.399489E-18
6.860000E+03	1.150656E-16	5.401634E-18
6.870000E+03	1.147540E-16	5.408314E-18
6.880000E+03	1.145588E-16	5.418418E-18
6.890000E+03	1.144918E-16	5.432571E-18
6.900000E+03	1.145641E-16	5.451367E-18
6.910000E+03	1.147500E-16	5.473637E-18
6.920000E+03	1.150604E-16	5.499936E-18
6.930000E+03	1.155060E-16	5.530801E-18
6.940000E+03	1.160605E-16	5.564984E-18
6.950000E+03	1.167338E-16	5.602971E-18
6.960000E+03	1.175236E-16	5.644636E-18
6.970000E+03	1.184273E-16	5.689839E-18
6.980000E+03	1.194416E-16	5.738396E-18
6.990000E+03	1.205763E-16	5.790735E-18
7.000000E+03	1.218017E-16	5.845393E-18
7.010000E+03	1.231264E-16	5.902725E-18
7.020000E+03	1.245458E-16	5.962454E-18
7.030000E+03	1.260547E-16	6.024269E-18
7.040000E+03	1.276475E-16	6.087829E-18
7.050000E+03	1.293181E-16	6.152775E-18
7.060000E+03	1.310455E-16	6.218035E-18
7.070000E+03	1.328504E-16	6.284525E-18
7.080000E+03	1.347107E-16	6.351127E-18
7.090000E+03	1.366178E-16	6.417368E-18
7.100000E+03	1.385621E-16	6.482740E-18
7.110000E+03	1.405184E-16	6.546011E-18
7.120000E+03	1.425059E-16	6.608039E-18
7.130000E+03	1.444980E-16	6.667559E-18
7.140000E+03	1.464662E-16	6.723250E-18
7.150000E+03	1.484293E-16	6.775977E-18
7.160000E+03	1.503577E-16	6.824411E-18
7.170000E+03	1.522209E-16	6.867216E-18
7.180000E+03	1.540369E-16	6.905287E-18
7.190000E+03	1.557574E-16	6.936555E-18
7.200000E+03	1.574012E-16	6.961984E-18
7.210000E+03	1.589189E-16	6.979555E-18
7.220000E+03	1.603300E-16	6.990320E-18
7.230000E+03	1.615854E-16	6.992355E-18
7.240000E+03	1.626888E-16	6.986089E-18
7.250000E+03	1.636450E-16	6.972018E-18
7.260000E+03	1.644069E-16	6.948454E-18
7.270000E+03	1.649822E-16	6.916079E-18
7.280000E+03	1.653623E-16	6.874921E-18
7.290000E+03	1.655587E-16	6.825854E-18
7.300000E+03	1.655310E-16	6.767633E-18
7.310000E+03	1.652951E-16	6.701364E-18
7.320000E+03	1.648512E-16	6.627505E-18
7.330000E+03	1.642023E-16	6.546637E-18
7.340000E+03	1.633533E-16	6.459422E-18
7.350000E+03	1.623121E-16	6.366623E-18
7.360000E+03	1.610886E-16	6.269078E-18
7.370000E+03	1.596952E-16	6.167694E-18
7.380000E+03	1.581459E-16	6.063421E-18
7.390000E+03	1.564395E-16	5.956604E-18
7.400000E+03	1.546277E-16	5.849567E-18
7.410000E+03	1.527115E-16	5.742660E-18
7.420000E+03	1.507098E-16	5.636884E-18
7.430000E+03	1.486257E-16	5.532609E-18
7.440000E+03	1.465112E-16	5.431992E-18
7.450000E+03	1.443688E-16	5.335297E-18
7.460000E+03	1.422008E-16	5.242764E-18
7.470000E+03	1.400561E-16	5.156309E-18
7.480000E+03	1.379191E-16	5.075449E-18
7.490000E+03	1.358351E-16	5.001905E-18
7.500000E+03	1.337861E-16	4.935063E-18
7.510000E+03	1.318132E-16	4.876448E-18
7.520000E+03	1.298956E-16	4.825306E-18
7.530000E+03	1.280557E-16	4.782447E-18
7.540000E+03	1.263130E-16	4.748579E-18
7.550000E+03	1.246434E-16	4.722646E-18
7.560000E+03	1.230640E-16	4.705029E-18
7.570000E+03	1.215765E-16	4.695544E-18
7.580000E+03	1.201819E-16	4.693997E-18
7.590000E+03	1.188807E-16	4.700186E-18
7.600000E+03	1.176726E-16	4.713904E-18
7.610000E+03	1.165562E-16	4.734914E-18
7.620000E+03	1.155282E-16	4.762920E-18
7.630000E+03	1.145822E-16	4.797514E-18
7.640000E+03	1.137100E-16	4.838214E-18
7.650000E+03	1.129032E-16	4.884525E-18
7.660000E+03	1.121531E-16	4.935947E-18
7.670000E+03	1.114398E-16	4.991458E-18
7.680000E+03	1.107809E-16	5.051701E-18
7.690000E+03	1.101570E-16	5.115687E-18
7.700000E+03	1.095495E-16	5.182401E-18
7.710000E+03	1.089769E-16	5.252570E-18
7.720000E+03	1.084086E-16	5.324588E-18
7.730000E+03	1.078633E-16	5.399220E-18
7.740000E+03	1.073111E-16	5.474827E-18
7.750000E+03	1.067711E-16	5.552213E-18
7.760000E+03	1.062139E-16	5.629698E-18
