#wls	flux	fluxerr
1.600000E+03	8.338999E-15	2.014170E-16
1.640000E+03	8.659514E-15	2.061708E-16
1.680000E+03	8.978269E-15	2.106657E-16
1.720000E+03	9.293093E-15	2.148583E-16
1.760000E+03	9.601675E-15	2.187060E-16
1.800000E+03	9.901626E-15	2.221686E-16
1.840000E+03	1.019036E-14	2.252058E-16
1.880000E+03	1.046548E-14	2.277855E-16
1.920000E+03	1.072473E-14	2.298832E-16
1.960000E+03	1.096658E-14	2.314927E-16
2.000000E+03	1.119108E-14	2.326437E-16
2.040000E+03	1.140214E-14	2.334454E-16
2.080000E+03	1.161075E-14	2.341447E-16
2.120000E+03	1.182807E-14	2.349793E-16
2.160000E+03	1.204784E-14	2.358309E-16
2.200000E+03	1.225800E-14	2.364718E-16
2.240000E+03	1.245370E-14	2.368238E-16
2.280000E+03	1.263640E-14	2.369321E-16
2.320000E+03	1.280468E-14	2.367846E-16
2.360000E+03	1.295386E-14	2.363081E-16
2.400000E+03	1.308243E-14	2.354898E-16
2.440000E+03	1.319122E-14	2.343593E-16
2.480000E+03	1.328178E-14	2.329570E-16
2.520000E+03	1.335454E-14	2.313017E-16
2.560000E+03	1.340790E-14	2.293768E-16
2.600000E+03	1.343927E-14	2.271497E-16
2.640000E+03	1.344794E-14	2.246197E-16
2.680000E+03	1.343343E-14	2.217826E-16
2.720000E+03	1.339793E-14	2.186717E-16
2.760000E+03	1.334839E-14	2.153946E-16
2.800000E+03	1.329202E-14	2.120587E-16
2.840000E+03	1.323497E-14	2.087499E-16
2.880000E+03	1.318199E-14	2.055288E-16
2.920000E+03	1.313662E-14	2.024351E-16
2.960000E+03	1.310112E-14	1.994874E-16
3.000000E+03	1.307715E-14	1.966944E-16
3.010000E+03	1.307300E-14	1.960192E-16
3.020000E+03	1.306966E-14	1.953536E-16
3.030000E+03	1.306710E-14	1.946972E-16
3.040000E+03	1.306524E-14	1.940483E-16
3.050000E+03	1.306415E-14	1.934080E-16
3.060000E+03	1.306383E-14	1.927758E-16
3.070000E+03	1.306421E-14	1.921506E-16
3.080000E+03	1.306534E-14	1.915328E-16
3.090000E+03	1.306718E-14	1.909218E-16
3.100000E+03	1.306964E-14	1.903159E-16
3.110000E+03	1.307285E-14	1.897167E-16
3.120000E+03	1.307663E-14	1.891216E-16
3.130000E+03	1.308101E-14	1.885307E-16
3.140000E+03	1.308603E-14	1.879444E-16
3.150000E+03	1.309153E-14	1.873604E-16
3.160000E+03	1.309758E-14	1.867793E-16
3.170000E+03	1.310412E-14	1.862002E-16
3.180000E+03	1.311108E-14	1.856219E-16
3.190000E+03	1.311841E-14	1.850436E-16
3.200000E+03	1.312608E-14	1.844649E-16
3.210000E+03	1.313407E-14	1.838851E-16
3.220000E+03	1.314228E-14	1.833029E-16
3.230000E+03	1.315069E-14	1.827177E-16
3.240000E+03	1.315931E-14	1.821298E-16
3.250000E+03	1.316792E-14	1.815360E-16
3.260000E+03	1.317662E-14	1.809377E-16
3.270000E+03	1.318527E-14	1.803327E-16
3.280000E+03	1.319379E-14	1.797201E-16
3.290000E+03	1.320218E-14	1.790999E-16
3.300000E+03	1.321036E-14	1.784708E-16
3.310000E+03	1.321823E-14	1.778317E-16
3.320000E+03	1.322574E-14	1.771819E-16
3.330000E+03	1.323284E-14	1.765206E-16
3.340000E+03	1.323945E-14	1.758472E-16
3.350000E+03	1.324551E-14	1.751605E-16
3.360000E+03	1.325091E-14	1.744596E-16
3.370000E+03	1.325568E-14	1.737445E-16
3.380000E+03	1.325973E-14	1.730147E-16
3.390000E+03	1.326297E-14	1.722689E-16
3.400000E+03	1.326543E-14	1.715077E-16
3.410000E+03	1.326704E-14	1.707302E-16
3.420000E+03	1.326786E-14	1.699377E-16
3.430000E+03	1.326785E-14	1.691295E-16
3.440000E+03	1.326701E-14	1.683061E-16
3.450000E+03	1.326558E-14	1.674706E-16
3.460000E+03	1.326349E-14	1.666223E-16
3.470000E+03	1.326087E-14	1.657630E-16
3.480000E+03	1.325775E-14	1.648932E-16
3.490000E+03	1.325414E-14	1.640130E-16
3.500000E+03	1.325015E-14	1.631237E-16
3.510000E+03	1.324576E-14	1.622251E-16
3.520000E+03	1.324100E-14	1.613177E-16
3.530000E+03	1.323589E-14	1.604015E-16
3.540000E+03	1.323036E-14	1.594759E-16
3.550000E+03	1.322435E-14	1.585399E-16
3.560000E+03	1.321765E-14	1.575914E-16
3.570000E+03	1.321007E-14	1.566279E-16
3.580000E+03	1.320123E-14	1.556454E-16
3.590000E+03	1.319089E-14	1.546410E-16
3.600000E+03	1.317853E-14	1.536091E-16
3.610000E+03	1.316373E-14	1.525451E-16
3.620000E+03	1.314592E-14	1.514431E-16
3.630000E+03	1.312465E-14	1.502983E-16
3.640000E+03	1.309935E-14	1.491053E-16
3.650000E+03	1.306947E-14	1.478584E-16
3.660000E+03	1.303466E-14	1.465549E-16
3.670000E+03	1.299439E-14	1.451898E-16
3.680000E+03	1.294845E-14	1.437622E-16
3.690000E+03	1.289664E-14	1.422710E-16
3.700000E+03	1.283886E-14	1.407166E-16
3.710000E+03	1.277516E-14	1.391008E-16
3.720000E+03	1.270573E-14	1.374270E-16
3.730000E+03	1.263100E-14	1.357015E-16
3.740000E+03	1.255145E-14	1.339305E-16
3.750000E+03	1.246766E-14	1.321215E-16
3.760000E+03	1.238038E-14	1.302834E-16
3.770000E+03	1.229039E-14	1.284254E-16
3.780000E+03	1.219848E-14	1.265565E-16
3.790000E+03	1.210542E-14	1.246853E-16
3.800000E+03	1.201210E-14	1.228213E-16
3.810000E+03	1.191923E-14	1.209722E-16
3.820000E+03	1.182753E-14	1.191451E-16
3.830000E+03	1.173756E-14	1.173457E-16
3.840000E+03	1.164980E-14	1.155788E-16
3.850000E+03	1.156461E-14	1.138474E-16
3.860000E+03	1.148215E-14	1.121529E-16
3.870000E+03	1.140250E-14	1.104956E-16
3.880000E+03	1.132556E-14	1.088744E-16
3.890000E+03	1.125112E-14	1.072867E-16
3.900000E+03	1.117894E-14	1.057300E-16
3.910000E+03	1.110874E-14	1.042014E-16
3.920000E+03	1.104020E-14	1.026979E-16
3.930000E+03	1.097305E-14	1.012167E-16
3.940000E+03	1.090715E-14	9.975668E-17
3.950000E+03	1.084231E-14	9.831602E-17
3.960000E+03	1.077839E-14	9.689362E-17
3.970000E+03	1.071509E-14	9.548695E-17
3.980000E+03	1.065216E-14	9.409390E-17
3.990000E+03	1.058914E-14	9.271069E-17
4.000000E+03	1.052524E-14	9.133099E-17
4.010000E+03	1.045966E-14	8.994834E-17
4.020000E+03	1.039122E-14	8.855349E-17
4.030000E+03	1.031880E-14	8.713803E-17
4.040000E+03	1.024110E-14	8.569248E-17
4.050000E+03	1.015696E-14	8.420861E-17
4.060000E+03	1.006547E-14	8.268099E-17
4.070000E+03	9.965926E-15	8.110592E-17
4.080000E+03	9.858149E-15	7.948410E-17
4.090000E+03	9.742416E-15	7.781999E-17
4.100000E+03	9.619661E-15	7.612309E-17
4.110000E+03	9.491279E-15	7.440624E-17
4.120000E+03	9.359221E-15	7.268612E-17
4.130000E+03	9.225779E-15	7.098145E-17
4.140000E+03	9.093757E-15	6.931415E-17
4.150000E+03	8.965965E-15	6.770541E-17
4.160000E+03	8.845400E-15	6.617697E-17
4.170000E+03	8.734882E-15	6.474848E-17
4.180000E+03	8.636896E-15	6.343637E-17
4.190000E+03	8.553519E-15	6.225350E-17
4.200000E+03	8.486343E-15	6.120876E-17
4.210000E+03	8.436111E-15	6.030463E-17
4.220000E+03	8.403010E-15	5.953964E-17
4.230000E+03	8.386393E-15	5.890649E-17
4.240000E+03	8.384882E-15	5.839314E-17
4.250000E+03	8.396594E-15	5.798451E-17
4.260000E+03	8.418945E-15	5.766130E-17
4.270000E+03	8.449151E-15	5.740357E-17
4.280000E+03	8.484229E-15	5.719076E-17
4.290000E+03	8.521275E-15	5.700352E-17
4.300000E+03	8.557525E-15	5.682410E-17
4.310000E+03	8.590591E-15	5.663776E-17
4.320000E+03	8.618390E-15	5.643219E-17
4.330000E+03	8.639441E-15	5.619928E-17
4.340000E+03	8.652527E-15	5.593247E-17
4.350000E+03	8.656794E-15	5.562719E-17
4.360000E+03	8.651656E-15	5.528052E-17
4.370000E+03	8.637095E-15	5.489309E-17
4.380000E+03	8.613233E-15	5.446629E-17
4.390000E+03	8.580508E-15	5.400335E-17
4.400000E+03	8.539499E-15	5.350822E-17
4.410000E+03	8.490756E-15	5.298447E-17
4.420000E+03	8.435011E-15	5.243669E-17
4.430000E+03	8.372996E-15	5.186927E-17
4.440000E+03	8.305305E-15	5.128563E-17
4.450000E+03	8.232696E-15	5.069009E-17
4.460000E+03	8.155626E-15	5.008501E-17
4.470000E+03	8.074814E-15	4.947429E-17
4.480000E+03	7.990689E-15	4.885998E-17
4.490000E+03	7.903797E-15	4.824479E-17
4.500000E+03	7.814703E-15	4.763152E-17
4.510000E+03	7.723739E-15	4.702152E-17
4.520000E+03	7.631464E-15	4.641749E-17
4.530000E+03	7.538275E-15	4.582115E-17
4.540000E+03	7.444637E-15	4.523463E-17
4.550000E+03	7.351058E-15	4.466033E-17
4.560000E+03	7.258132E-15	4.410119E-17
4.570000E+03	7.166625E-15	4.356120E-17
4.580000E+03	7.077402E-15	4.304502E-17
4.590000E+03	6.991495E-15	4.255834E-17
4.600000E+03	6.910145E-15	4.210821E-17
4.610000E+03	6.834743E-15	4.170266E-17
4.620000E+03	6.766692E-15	4.134991E-17
4.630000E+03	6.707599E-15	4.105954E-17
4.640000E+03	6.658985E-15	4.084076E-17
4.650000E+03	6.622315E-15	4.070258E-17
4.660000E+03	6.598984E-15	4.065376E-17
4.670000E+03	6.590150E-15	4.070162E-17
4.680000E+03	6.596608E-15	4.085115E-17
4.690000E+03	6.619008E-15	4.110660E-17
4.700000E+03	6.657404E-15	4.146866E-17
4.710000E+03	6.711535E-15	4.193610E-17
4.720000E+03	6.780540E-15	4.250405E-17
4.730000E+03	6.863124E-15	4.316482E-17
4.740000E+03	6.957441E-15	4.390726E-17
4.750000E+03	7.060951E-15	4.471564E-17
4.760000E+03	7.170815E-15	4.557216E-17
4.770000E+03	7.283616E-15	4.645504E-17
4.780000E+03	7.395752E-15	4.734105E-17
4.790000E+03	7.503444E-15	4.820545E-17
4.800000E+03	7.602980E-15	4.902356E-17
4.810000E+03	7.690926E-15	4.977214E-17
4.820000E+03	7.764376E-15	5.043106E-17
4.830000E+03	7.820999E-15	5.098363E-17
4.840000E+03	7.859194E-15	5.141775E-17
4.850000E+03	7.878211E-15	5.172677E-17
4.860000E+03	7.877955E-15	5.190829E-17
4.870000E+03	7.859103E-15	5.196508E-17
4.880000E+03	7.822996E-15	5.190439E-17
4.890000E+03	7.771369E-15	5.173630E-17
4.900000E+03	7.706248E-15	5.147302E-17
4.910000E+03	7.629872E-15	5.112844E-17
4.920000E+03	7.544334E-15	5.071571E-17
4.930000E+03	7.451866E-15	5.024917E-17
4.940000E+03	7.354600E-15	4.974269E-17
4.950000E+03	7.254411E-15	4.920863E-17
4.960000E+03	7.153143E-15	4.865934E-17
4.970000E+03	7.052352E-15	4.810536E-17
4.980000E+03	6.953475E-15	4.755655E-17
4.990000E+03	6.857764E-15	4.702166E-17
5.000000E+03	6.766332E-15	4.650855E-17
5.010000E+03	6.679972E-15	4.602297E-17
5.020000E+03	6.599381E-15	4.557005E-17
5.030000E+03	6.524930E-15	4.515271E-17
5.040000E+03	6.456843E-15	4.477287E-17
5.050000E+03	6.395207E-15	4.443149E-17
5.060000E+03	6.339830E-15	4.412759E-17
5.070000E+03	6.290429E-15	4.385951E-17
5.080000E+03	6.246606E-15	4.362479E-17
5.090000E+03	6.207926E-15	4.342067E-17
5.100000E+03	6.173725E-15	4.324274E-17
5.110000E+03	6.143504E-15	4.308773E-17
5.120000E+03	6.116565E-15	4.295095E-17
5.130000E+03	6.092246E-15	4.282791E-17
5.140000E+03	6.069880E-15	4.271408E-17
5.150000E+03	6.048810E-15	4.260499E-17
5.160000E+03	6.028414E-15	4.249637E-17
5.170000E+03	6.008115E-15	4.238430E-17
5.180000E+03	5.987412E-15	4.226536E-17
5.190000E+03	5.965887E-15	4.213672E-17
5.200000E+03	5.943223E-15	4.199628E-17
5.210000E+03	5.919207E-15	4.184267E-17
5.220000E+03	5.893674E-15	4.167487E-17
5.230000E+03	5.866713E-15	4.149369E-17
5.240000E+03	5.838273E-15	4.129890E-17
5.250000E+03	5.808521E-15	4.109189E-17
5.260000E+03	5.777599E-15	4.087383E-17
5.270000E+03	5.745613E-15	4.064569E-17
5.280000E+03	5.712794E-15	4.040929E-17
5.290000E+03	5.679278E-15	4.016579E-17
5.300000E+03	5.645334E-15	3.991732E-17
5.310000E+03	5.611154E-15	3.966543E-17
5.320000E+03	5.577062E-15	3.941264E-17
5.330000E+03	5.543254E-15	3.916053E-17
5.340000E+03	5.510100E-15	3.891193E-17
5.350000E+03	5.477936E-15	3.866940E-17
5.360000E+03	5.447033E-15	3.843508E-17
5.370000E+03	5.417750E-15	3.821168E-17
5.380000E+03	5.390231E-15	3.800041E-17
5.390000E+03	5.364769E-15	3.780352E-17
5.400000E+03	5.341411E-15	3.762153E-17
5.410000E+03	5.320103E-15	3.745423E-17
5.420000E+03	5.300800E-15	3.730149E-17
5.430000E+03	5.283293E-15	3.716201E-17
5.440000E+03	5.267331E-15	3.703419E-17
5.450000E+03	5.252416E-15	3.691456E-17
5.460000E+03	5.238049E-15	3.679945E-17
5.470000E+03	5.223752E-15	3.668535E-17
5.480000E+03	5.208957E-15	3.656813E-17
5.490000E+03	5.193349E-15	3.644543E-17
5.500000E+03	5.176372E-15	3.631321E-17
5.510000E+03	5.157935E-15	3.617071E-17
5.520000E+03	5.137738E-15	3.601570E-17
5.530000E+03	5.115801E-15	3.584821E-17
5.540000E+03	5.092185E-15	3.566856E-17
5.550000E+03	5.066933E-15	3.547693E-17
5.560000E+03	5.040310E-15	3.527511E-17
5.570000E+03	5.012577E-15	3.506481E-17
5.580000E+03	4.983991E-15	3.484775E-17
5.590000E+03	4.954898E-15	3.462628E-17
5.600000E+03	4.925691E-15	3.440307E-17
5.610000E+03	4.896809E-15	3.418111E-17
5.620000E+03	4.868680E-15	3.396332E-17
5.630000E+03	4.841880E-15	3.375365E-17
5.640000E+03	4.816860E-15	3.355517E-17
5.650000E+03	4.794282E-15	3.337244E-17
5.660000E+03	4.774639E-15	3.320878E-17
5.670000E+03	4.758429E-15	3.306759E-17
5.680000E+03	4.746070E-15	3.295169E-17
5.690000E+03	4.737811E-15	3.286269E-17
5.700000E+03	4.733795E-15	3.280149E-17
5.710000E+03	4.734082E-15	3.276839E-17
5.720000E+03	4.738268E-15	3.276049E-17
5.730000E+03	4.746044E-15	3.277556E-17
5.740000E+03	4.756611E-15	3.280798E-17
5.750000E+03	4.769211E-15	3.285246E-17
5.760000E+03	4.782977E-15	3.290298E-17
5.770000E+03	4.796874E-15	3.295242E-17
5.780000E+03	4.809921E-15	3.299405E-17
5.790000E+03	4.821191E-15	3.302159E-17
5.800000E+03	4.829814E-15	3.302917E-17
5.810000E+03	4.835231E-15	3.301313E-17
5.820000E+03	4.836845E-15	3.296955E-17
5.830000E+03	4.834406E-15	3.289695E-17
5.840000E+03	4.827739E-15	3.279436E-17
5.850000E+03	4.816951E-15	3.266277E-17
5.860000E+03	4.802250E-15	3.250384E-17
5.870000E+03	4.783920E-15	3.231977E-17
5.880000E+03	4.762330E-15	3.211331E-17
5.890000E+03	4.738055E-15	3.188859E-17
5.900000E+03	4.711503E-15	3.164863E-17
5.910000E+03	4.683100E-15	3.139652E-17
5.920000E+03	4.653149E-15	3.113452E-17
5.930000E+03	4.621984E-15	3.086509E-17
5.940000E+03	4.589741E-15	3.058938E-17
5.950000E+03	4.556590E-15	3.030872E-17
5.960000E+03	4.522521E-15	3.002327E-17
5.970000E+03	4.487478E-15	2.973288E-17
5.980000E+03	4.451482E-15	2.943790E-17
5.990000E+03	4.414488E-15	2.913827E-17
6.000000E+03	4.376404E-15	2.883360E-17
6.010000E+03	4.337206E-15	2.852396E-17
6.020000E+03	4.296947E-15	2.820992E-17
6.030000E+03	4.255607E-15	2.789157E-17
6.040000E+03	4.213206E-15	2.756924E-17
6.050000E+03	4.169952E-15	2.724451E-17
6.060000E+03	4.125948E-15	2.691823E-17
6.070000E+03	4.081392E-15	2.659187E-17
6.080000E+03	4.036574E-15	2.626749E-17
6.090000E+03	3.991721E-15	2.594670E-17
6.100000E+03	3.947232E-15	2.563223E-17
6.110000E+03	3.903362E-15	2.532586E-17
6.120000E+03	3.860502E-15	2.503022E-17
6.130000E+03	3.818957E-15	2.474739E-17
6.140000E+03	3.778924E-15	2.447874E-17
6.150000E+03	3.740622E-15	2.422577E-17
6.160000E+03	3.704087E-15	2.398880E-17
6.170000E+03	3.669363E-15	2.376812E-17
6.180000E+03	3.636288E-15	2.356251E-17
6.190000E+03	3.604661E-15	2.337048E-17
6.200000E+03	3.574324E-15	2.319083E-17
6.210000E+03	3.545048E-15	2.302189E-17
6.220000E+03	3.516800E-15	2.286329E-17
6.230000E+03	3.489578E-15	2.271485E-17
6.240000E+03	3.463388E-15	2.257645E-17
6.250000E+03	3.438536E-15	2.244996E-17
6.260000E+03	3.415357E-15	2.233743E-17
6.270000E+03	3.394304E-15	2.224174E-17
6.280000E+03	3.375942E-15	2.216652E-17
6.290000E+03	3.361019E-15	2.211667E-17
6.300000E+03	3.350214E-15	2.209668E-17
6.310000E+03	3.344391E-15	2.211234E-17
6.320000E+03	3.344276E-15	2.216861E-17
6.330000E+03	3.350756E-15	2.227158E-17
6.340000E+03	3.364498E-15	2.242600E-17
6.350000E+03	3.386036E-15	2.263580E-17
6.360000E+03	3.415812E-15	2.290435E-17
6.370000E+03	3.453928E-15	2.323286E-17
6.380000E+03	3.500297E-15	2.362125E-17
6.390000E+03	3.554417E-15	2.406670E-17
6.400000E+03	3.615520E-15	2.456454E-17
6.410000E+03	3.682488E-15	2.510768E-17
6.420000E+03	3.753983E-15	2.568734E-17
6.430000E+03	3.828406E-15	2.629276E-17
6.440000E+03	3.903847E-15	2.691085E-17
6.450000E+03	3.978637E-15	2.753002E-17
6.460000E+03	4.050966E-15	2.813748E-17
6.470000E+03	4.119139E-15	2.872104E-17
6.480000E+03	4.181638E-15	2.926955E-17
6.490000E+03	4.237371E-15	2.977466E-17
6.500000E+03	4.285174E-15	3.022741E-17
6.510000E+03	4.324481E-15	3.062289E-17
6.520000E+03	4.354792E-15	3.095662E-17
6.530000E+03	4.375848E-15	3.122579E-17
6.540000E+03	4.387767E-15	3.143022E-17
6.550000E+03	4.390810E-15	3.157083E-17
6.560000E+03	4.385278E-15	3.164885E-17
6.570000E+03	4.371914E-15	3.166876E-17
6.580000E+03	4.351354E-15	3.163436E-17
6.590000E+03	4.324371E-15	3.155054E-17
6.600000E+03	4.291764E-15	3.142250E-17
6.610000E+03	4.254250E-15	3.125492E-17
6.620000E+03	4.212717E-15	3.105387E-17
6.630000E+03	4.167710E-15	3.082297E-17
6.640000E+03	4.119921E-15	3.056701E-17
6.650000E+03	4.069831E-15	3.028930E-17
6.660000E+03	4.018004E-15	2.999386E-17
6.670000E+03	3.964890E-15	2.968391E-17
6.680000E+03	3.910773E-15	2.936146E-17
6.690000E+03	3.856189E-15	2.903049E-17
6.700000E+03	3.801448E-15	2.869333E-17
6.710000E+03	3.746913E-15	2.835273E-17
6.720000E+03	3.692927E-15	2.801134E-17
6.730000E+03	3.639805E-15	2.767164E-17
6.740000E+03	3.587837E-15	2.733592E-17
6.750000E+03	3.537281E-15	2.700627E-17
6.760000E+03	3.488361E-15	2.668455E-17
6.770000E+03	3.441211E-15	2.637193E-17
6.780000E+03	3.395997E-15	2.606981E-17
6.790000E+03	3.352912E-15	2.577985E-17
6.800000E+03	3.312065E-15	2.550303E-17
6.810000E+03	3.273421E-15	2.523924E-17
6.820000E+03	3.237159E-15	2.499002E-17
6.830000E+03	3.203261E-15	2.475537E-17
6.840000E+03	3.171807E-15	2.453604E-17
6.850000E+03	3.142684E-15	2.433130E-17
6.860000E+03	3.115883E-15	2.414118E-17
6.870000E+03	3.091494E-15	2.396652E-17
6.880000E+03	3.069371E-15	2.380627E-17
6.890000E+03	3.049532E-15	2.366067E-17
6.900000E+03	3.031929E-15	2.352944E-17
6.910000E+03	3.016455E-15	2.341184E-17
6.920000E+03	3.003056E-15	2.330748E-17
6.930000E+03	2.991666E-15	2.321594E-17
6.940000E+03	2.982268E-15	2.313715E-17
6.950000E+03	2.974720E-15	2.307003E-17
6.960000E+03	2.968918E-15	2.301383E-17
6.970000E+03	2.964675E-15	2.296715E-17
6.980000E+03	2.961899E-15	2.292931E-17
6.990000E+03	2.960471E-15	2.289942E-17
7.000000E+03	2.960024E-15	2.287468E-17
7.010000E+03	2.960511E-15	2.285478E-17
7.020000E+03	2.961528E-15	2.283664E-17
7.030000E+03	2.962940E-15	2.281928E-17
7.040000E+03	2.964432E-15	2.280034E-17
7.050000E+03	2.965790E-15	2.277827E-17
7.060000E+03	2.966622E-15	2.275013E-17
7.070000E+03	2.966707E-15	2.271435E-17
7.080000E+03	2.965772E-15	2.266899E-17
7.090000E+03	2.963570E-15	2.261229E-17
7.100000E+03	2.959833E-15	2.254237E-17
7.110000E+03	2.954474E-15	2.245877E-17
7.120000E+03	2.947364E-15	2.236072E-17
7.130000E+03	2.938528E-15	2.224862E-17
7.140000E+03	2.928138E-15	2.212398E-17
7.150000E+03	2.916271E-15	2.198761E-17
7.160000E+03	2.903237E-15	2.184208E-17
7.170000E+03	2.889336E-15	2.168985E-17
7.180000E+03	2.874887E-15	2.153351E-17
7.190000E+03	2.860157E-15	2.137527E-17
7.200000E+03	2.845465E-15	2.121767E-17
7.210000E+03	2.831162E-15	2.106351E-17
7.220000E+03	2.817405E-15	2.091409E-17
7.230000E+03	2.804485E-15	2.077175E-17
7.240000E+03	2.792607E-15	2.063810E-17
7.250000E+03	2.781876E-15	2.051408E-17
7.260000E+03	2.772472E-15	2.040113E-17
7.270000E+03	2.764410E-15	2.029950E-17
7.280000E+03	2.757711E-15	2.020947E-17
7.290000E+03	2.752288E-15	2.013055E-17
7.300000E+03	2.748179E-15	2.006315E-17
7.310000E+03	2.745091E-15	2.000532E-17
7.320000E+03	2.742988E-15	1.995695E-17
7.330000E+03	2.741638E-15	1.991656E-17
7.340000E+03	2.740851E-15	1.988296E-17
7.350000E+03	2.740434E-15	1.985498E-17
7.360000E+03	2.740192E-15	1.983142E-17
7.370000E+03	2.739823E-15	1.981034E-17
7.380000E+03	2.739311E-15	1.979188E-17
7.390000E+03	2.738356E-15	1.977409E-17
7.400000E+03	2.736765E-15	1.975584E-17
7.410000E+03	2.734407E-15	1.973641E-17
7.420000E+03	2.731039E-15	1.971431E-17
7.430000E+03	2.726556E-15	1.968898E-17
7.440000E+03	2.720887E-15	1.966011E-17
7.450000E+03	2.713895E-15	1.962691E-17
7.460000E+03	2.705565E-15	1.958927E-17
7.470000E+03	2.695950E-15	1.954751E-17
7.480000E+03	2.685170E-15	1.950236E-17
7.490000E+03	2.673336E-15	1.945451E-17
7.500000E+03	2.660723E-15	1.940582E-17
7.510000E+03	2.647510E-15	1.935747E-17
7.520000E+03	2.634002E-15	1.931155E-17
7.530000E+03	2.620379E-15	1.926926E-17
7.540000E+03	2.606914E-15	1.923251E-17
7.550000E+03	2.593848E-15	1.920296E-17
7.560000E+03	2.581205E-15	1.918075E-17
7.570000E+03	2.569210E-15	1.916746E-17
7.580000E+03	2.557873E-15	1.916313E-17
7.590000E+03	2.547339E-15	1.916883E-17
7.600000E+03	2.537480E-15	1.918357E-17
7.610000E+03	2.528368E-15	1.920788E-17
7.620000E+03	2.519914E-15	1.924110E-17
7.630000E+03	2.511943E-15	1.928186E-17
7.640000E+03	2.504430E-15	1.932999E-17
7.650000E+03	2.497092E-15	1.938325E-17
7.660000E+03	2.489866E-15	1.944112E-17
7.670000E+03	2.482556E-15	1.950202E-17
7.680000E+03	2.474966E-15	1.956432E-17
7.690000E+03	2.466828E-15	1.962578E-17
7.700000E+03	2.458062E-15	1.968562E-17
7.710000E+03	2.448420E-15	1.974168E-17
7.720000E+03	2.437801E-15	1.979292E-17
7.730000E+03	2.426018E-15	1.983758E-17
7.740000E+03	2.413046E-15	1.987519E-17
7.750000E+03	2.398844E-15	1.990510E-17
7.760000E+03	2.383411E-15	1.992700E-17
