#wls	flux	fluxerr
1.600000E+03	1.376382E-14	3.995449E-16
1.640000E+03	1.462933E-14	4.228713E-16
1.680000E+03	1.552576E-14	4.468275E-16
1.720000E+03	1.644881E-14	4.712686E-16
1.760000E+03	1.739296E-14	4.960176E-16
1.800000E+03	1.835099E-14	5.208511E-16
1.840000E+03	1.931405E-14	5.455030E-16
1.880000E+03	2.027124E-14	5.696536E-16
1.920000E+03	2.120929E-14	5.929238E-16
1.960000E+03	2.211178E-14	6.148545E-16
2.000000E+03	2.295767E-14	6.348684E-16
2.040000E+03	2.371800E-14	6.521851E-16
2.080000E+03	2.435458E-14	6.657908E-16
2.120000E+03	2.482940E-14	6.747035E-16
2.160000E+03	2.511517E-14	6.782592E-16
2.200000E+03	2.518640E-14	6.758635E-16
2.240000E+03	2.501764E-14	6.669467E-16
2.280000E+03	2.460204E-14	6.514537E-16
2.320000E+03	2.396887E-14	6.302912E-16
2.360000E+03	2.317237E-14	6.050007E-16
2.400000E+03	2.226987E-14	5.771693E-16
2.440000E+03	2.131288E-14	5.481925E-16
2.480000E+03	2.034593E-14	5.192497E-16
2.520000E+03	1.940692E-14	4.913180E-16
2.560000E+03	1.852528E-14	4.651303E-16
2.600000E+03	1.771751E-14	4.410719E-16
2.640000E+03	1.698766E-14	4.192061E-16
2.680000E+03	1.632960E-14	3.993407E-16
2.720000E+03	1.573041E-14	3.811229E-16
2.760000E+03	1.517608E-14	3.641845E-16
2.800000E+03	1.465539E-14	3.482349E-16
2.840000E+03	1.416098E-14	3.330840E-16
2.880000E+03	1.368851E-14	3.186180E-16
2.920000E+03	1.323551E-14	3.047706E-16
2.960000E+03	1.280049E-14	2.914996E-16
3.000000E+03	1.238245E-14	2.787744E-16
3.010000E+03	1.228048E-14	2.756751E-16
3.020000E+03	1.217951E-14	2.726080E-16
3.030000E+03	1.207951E-14	2.695723E-16
3.040000E+03	1.198049E-14	2.665680E-16
3.050000E+03	1.188241E-14	2.635945E-16
3.060000E+03	1.178527E-14	2.606513E-16
3.070000E+03	1.168902E-14	2.577373E-16
3.080000E+03	1.159370E-14	2.548534E-16
3.090000E+03	1.149923E-14	2.519978E-16
3.100000E+03	1.140567E-14	2.491714E-16
3.110000E+03	1.131293E-14	2.463724E-16
3.120000E+03	1.122101E-14	2.436008E-16
3.130000E+03	1.112993E-14	2.408566E-16
3.140000E+03	1.103961E-14	2.381384E-16
3.150000E+03	1.095008E-14	2.354465E-16
3.160000E+03	1.086129E-14	2.327797E-16
3.170000E+03	1.077324E-14	2.301382E-16
3.180000E+03	1.068591E-14	2.275212E-16
3.190000E+03	1.059927E-14	2.249282E-16
3.200000E+03	1.051329E-14	2.223585E-16
3.210000E+03	1.042795E-14	2.198113E-16
3.220000E+03	1.034324E-14	2.172870E-16
3.230000E+03	1.025916E-14	2.147849E-16
3.240000E+03	1.017567E-14	2.123043E-16
3.250000E+03	1.009274E-14	2.098447E-16
3.260000E+03	1.001036E-14	2.074056E-16
3.270000E+03	9.928537E-15	2.049874E-16
3.280000E+03	9.847222E-15	2.025888E-16
3.290000E+03	9.766413E-15	2.002098E-16
3.300000E+03	9.686118E-15	1.978505E-16
3.310000E+03	9.606267E-15	1.955096E-16
3.320000E+03	9.526921E-15	1.931881E-16
3.330000E+03	9.448011E-15	1.908847E-16
3.340000E+03	9.369550E-15	1.885997E-16
3.350000E+03	9.291531E-15	1.863327E-16
3.360000E+03	9.213962E-15	1.840841E-16
3.370000E+03	9.136818E-15	1.818532E-16
3.380000E+03	9.060123E-15	1.796406E-16
3.390000E+03	8.983844E-15	1.774455E-16
3.400000E+03	8.908014E-15	1.752685E-16
3.410000E+03	8.832599E-15	1.731091E-16
3.420000E+03	8.757631E-15	1.709677E-16
3.430000E+03	8.683117E-15	1.688446E-16
3.440000E+03	8.609057E-15	1.667395E-16
3.450000E+03	8.535465E-15	1.646529E-16
3.460000E+03	8.462387E-15	1.625856E-16
3.470000E+03	8.389831E-15	1.605376E-16
3.480000E+03	8.317850E-15	1.585100E-16
3.490000E+03	8.246466E-15	1.565030E-16
3.500000E+03	8.175704E-15	1.545171E-16
3.510000E+03	8.105607E-15	1.525530E-16
3.520000E+03	8.036200E-15	1.506112E-16
3.530000E+03	7.967488E-15	1.486915E-16
3.540000E+03	7.899480E-15	1.467941E-16
3.550000E+03	7.832152E-15	1.449184E-16
3.560000E+03	7.765487E-15	1.430641E-16
3.570000E+03	7.699444E-15	1.412303E-16
3.580000E+03	7.633962E-15	1.394157E-16
3.590000E+03	7.568998E-15	1.376196E-16
3.600000E+03	7.504455E-15	1.358401E-16
3.610000E+03	7.440299E-15	1.340766E-16
3.620000E+03	7.376428E-15	1.323272E-16
3.630000E+03	7.312763E-15	1.305905E-16
3.640000E+03	7.249251E-15	1.288657E-16
3.650000E+03	7.185845E-15	1.271518E-16
3.660000E+03	7.122463E-15	1.254474E-16
3.670000E+03	7.059077E-15	1.237522E-16
3.680000E+03	6.995673E-15	1.220660E-16
3.690000E+03	6.932203E-15	1.203880E-16
3.700000E+03	6.868703E-15	1.187189E-16
3.710000E+03	6.805193E-15	1.170592E-16
3.720000E+03	6.741671E-15	1.154087E-16
3.730000E+03	6.678183E-15	1.137685E-16
3.740000E+03	6.614787E-15	1.121396E-16
3.750000E+03	6.551549E-15	1.105230E-16
3.760000E+03	6.488538E-15	1.089200E-16
3.770000E+03	6.425809E-15	1.073315E-16
3.780000E+03	6.363435E-15	1.057588E-16
3.790000E+03	6.301489E-15	1.042029E-16
3.800000E+03	6.240045E-15	1.026651E-16
3.810000E+03	6.179168E-15	1.011463E-16
3.820000E+03	6.118925E-15	9.964759E-17
3.830000E+03	6.059371E-15	9.816976E-17
3.840000E+03	6.000539E-15	9.671320E-17
3.850000E+03	5.942521E-15	9.527924E-17
3.860000E+03	5.885314E-15	9.386772E-17
3.870000E+03	5.828978E-15	9.247942E-17
3.880000E+03	5.773561E-15	9.111495E-17
3.890000E+03	5.719067E-15	8.977419E-17
3.900000E+03	5.665512E-15	8.845720E-17
3.910000E+03	5.612924E-15	8.716424E-17
3.920000E+03	5.561282E-15	8.589479E-17
3.930000E+03	5.510595E-15	8.464879E-17
3.940000E+03	5.460838E-15	8.342570E-17
3.950000E+03	5.411977E-15	8.222480E-17
3.960000E+03	5.363985E-15	8.104550E-17
3.970000E+03	5.316783E-15	7.988645E-17
3.980000E+03	5.270319E-15	7.874673E-17
3.990000E+03	5.224495E-15	7.762473E-17
4.000000E+03	5.179247E-15	7.651941E-17
4.010000E+03	5.134510E-15	7.542973E-17
4.020000E+03	5.090166E-15	7.435385E-17
4.030000E+03	5.046189E-15	7.329136E-17
4.040000E+03	5.002509E-15	7.224119E-17
4.050000E+03	4.959123E-15	7.120329E-17
4.060000E+03	4.916020E-15	7.017748E-17
4.070000E+03	4.873248E-15	6.916439E-17
4.080000E+03	4.830914E-15	6.816550E-17
4.090000E+03	4.789149E-15	6.718258E-17
4.100000E+03	4.748088E-15	6.621743E-17
4.110000E+03	4.707986E-15	6.527344E-17
4.120000E+03	4.669072E-15	6.435358E-17
4.130000E+03	4.631623E-15	6.346140E-17
4.140000E+03	4.595913E-15	6.260031E-17
4.150000E+03	4.562239E-15	6.177397E-17
4.160000E+03	4.530893E-15	6.098585E-17
4.170000E+03	4.502123E-15	6.023874E-17
4.180000E+03	4.476141E-15	5.953492E-17
4.190000E+03	4.453152E-15	5.887648E-17
4.200000E+03	4.433263E-15	5.826416E-17
4.210000E+03	4.416514E-15	5.769780E-17
4.220000E+03	4.402846E-15	5.717598E-17
4.230000E+03	4.392191E-15	5.669716E-17
4.240000E+03	4.384360E-15	5.625830E-17
4.250000E+03	4.379112E-15	5.585572E-17
4.260000E+03	4.376090E-15	5.548441E-17
4.270000E+03	4.374918E-15	5.513919E-17
4.280000E+03	4.375161E-15	5.481430E-17
4.290000E+03	4.376356E-15	5.450374E-17
4.300000E+03	4.377958E-15	5.420065E-17
4.310000E+03	4.379452E-15	5.389871E-17
4.320000E+03	4.380257E-15	5.359094E-17
4.330000E+03	4.379830E-15	5.327097E-17
4.340000E+03	4.377509E-15	5.293118E-17
4.350000E+03	4.372744E-15	5.256547E-17
4.360000E+03	4.365026E-15	5.216834E-17
4.370000E+03	4.353886E-15	5.173495E-17
4.380000E+03	4.338953E-15	5.126170E-17
4.390000E+03	4.320068E-15	5.074756E-17
4.400000E+03	4.297113E-15	5.019203E-17
4.410000E+03	4.270156E-15	4.959676E-17
4.420000E+03	4.239371E-15	4.896459E-17
4.430000E+03	4.205058E-15	4.829973E-17
4.440000E+03	4.167596E-15	4.760720E-17
4.450000E+03	4.127391E-15	4.689222E-17
4.460000E+03	4.084906E-15	4.616053E-17
4.470000E+03	4.040545E-15	4.541705E-17
4.480000E+03	3.994828E-15	4.466792E-17
4.490000E+03	3.948124E-15	4.391744E-17
4.500000E+03	3.900904E-15	4.317096E-17
4.510000E+03	3.853524E-15	4.243242E-17
4.520000E+03	3.806389E-15	4.170624E-17
4.530000E+03	3.759833E-15	4.099595E-17
4.540000E+03	3.714166E-15	4.030476E-17
4.550000E+03	3.669699E-15	3.963582E-17
4.560000E+03	3.626674E-15	3.899149E-17
4.570000E+03	3.585379E-15	3.837456E-17
4.580000E+03	3.546013E-15	3.778684E-17
4.590000E+03	3.508799E-15	3.723036E-17
4.600000E+03	3.473892E-15	3.670639E-17
4.610000E+03	3.441517E-15	3.621695E-17
4.620000E+03	3.411759E-15	3.576254E-17
4.630000E+03	3.384745E-15	3.534412E-17
4.640000E+03	3.360551E-15	3.496213E-17
4.650000E+03	3.339201E-15	3.461644E-17
4.660000E+03	3.320639E-15	3.430607E-17
4.670000E+03	3.304863E-15	3.403055E-17
4.680000E+03	3.291796E-15	3.378865E-17
4.690000E+03	3.281350E-15	3.357905E-17
4.700000E+03	3.273356E-15	3.339965E-17
4.710000E+03	3.267657E-15	3.324853E-17
4.720000E+03	3.264079E-15	3.312358E-17
4.730000E+03	3.262322E-15	3.302151E-17
4.740000E+03	3.262080E-15	3.293897E-17
4.750000E+03	3.263037E-15	3.287256E-17
4.760000E+03	3.264816E-15	3.281835E-17
4.770000E+03	3.267045E-15	3.277242E-17
4.780000E+03	3.269413E-15	3.273157E-17
4.790000E+03	3.271560E-15	3.269207E-17
4.800000E+03	3.273224E-15	3.265125E-17
4.810000E+03	3.274133E-15	3.260631E-17
4.820000E+03	3.274074E-15	3.255509E-17
4.830000E+03	3.272856E-15	3.249564E-17
4.840000E+03	3.270385E-15	3.242695E-17
4.850000E+03	3.266535E-15	3.234773E-17
4.860000E+03	3.261300E-15	3.225787E-17
4.870000E+03	3.254642E-15	3.215690E-17
4.880000E+03	3.246661E-15	3.204576E-17
4.890000E+03	3.237360E-15	3.192440E-17
4.900000E+03	3.226876E-15	3.179407E-17
4.910000E+03	3.215338E-15	3.165596E-17
4.920000E+03	3.202841E-15	3.151092E-17
4.930000E+03	3.189601E-15	3.136095E-17
4.940000E+03	3.175701E-15	3.120677E-17
4.950000E+03	3.161369E-15	3.105052E-17
4.960000E+03	3.146720E-15	3.089321E-17
4.970000E+03	3.131923E-15	3.073638E-17
4.980000E+03	3.117137E-15	3.058150E-17
4.990000E+03	3.102488E-15	3.042970E-17
5.000000E+03	3.088116E-15	3.028222E-17
5.010000E+03	3.074144E-15	3.014019E-17
5.020000E+03	3.060682E-15	3.000459E-17
5.030000E+03	3.047770E-15	2.987570E-17
5.040000E+03	3.035506E-15	2.975439E-17
5.050000E+03	3.023945E-15	2.964113E-17
5.060000E+03	3.013071E-15	2.953566E-17
5.070000E+03	3.002927E-15	2.943835E-17
5.080000E+03	2.993487E-15	2.934885E-17
5.090000E+03	2.984765E-15	2.926723E-17
5.100000E+03	2.976651E-15	2.919235E-17
5.110000E+03	2.969186E-15	2.912455E-17
5.120000E+03	2.962240E-15	2.906249E-17
5.130000E+03	2.955781E-15	2.900581E-17
5.140000E+03	2.949721E-15	2.895358E-17
5.150000E+03	2.943994E-15	2.890510E-17
5.160000E+03	2.938532E-15	2.885967E-17
5.170000E+03	2.933242E-15	2.881631E-17
5.180000E+03	2.928089E-15	2.877464E-17
5.190000E+03	2.922957E-15	2.873347E-17
5.200000E+03	2.917822E-15	2.869252E-17
5.210000E+03	2.912581E-15	2.865074E-17
5.220000E+03	2.907248E-15	2.860824E-17
5.230000E+03	2.901737E-15	2.856411E-17
5.240000E+03	2.896049E-15	2.851834E-17
5.250000E+03	2.890113E-15	2.847019E-17
5.260000E+03	2.883971E-15	2.842006E-17
5.270000E+03	2.877540E-15	2.836707E-17
5.280000E+03	2.870850E-15	2.831150E-17
5.290000E+03	2.863940E-15	2.825371E-17
5.300000E+03	2.856744E-15	2.819303E-17
5.310000E+03	2.849344E-15	2.813022E-17
5.320000E+03	2.841710E-15	2.806499E-17
5.330000E+03	2.833908E-15	2.799796E-17
5.340000E+03	2.825919E-15	2.792893E-17
5.350000E+03	2.817810E-15	2.785855E-17
5.360000E+03	2.809595E-15	2.778693E-17
5.370000E+03	2.801257E-15	2.771390E-17
5.380000E+03	2.792857E-15	2.764006E-17
5.390000E+03	2.784398E-15	2.756543E-17
5.400000E+03	2.775875E-15	2.748996E-17
5.410000E+03	2.767389E-15	2.741462E-17
5.420000E+03	2.758979E-15	2.733983E-17
5.430000E+03	2.750736E-15	2.726647E-17
5.440000E+03	2.742535E-15	2.719331E-17
5.450000E+03	2.734229E-15	2.711888E-17
5.460000E+03	2.725819E-15	2.704320E-17
5.470000E+03	2.717353E-15	2.696673E-17
5.480000E+03	2.708835E-15	2.688948E-17
5.490000E+03	2.700401E-15	2.681279E-17
5.500000E+03	2.692032E-15	2.673646E-17
5.510000E+03	2.683717E-15	2.666036E-17
5.520000E+03	2.675384E-15	2.658378E-17
5.530000E+03	2.667030E-15	2.650667E-17
5.540000E+03	2.658561E-15	2.642809E-17
5.550000E+03	2.650054E-15	2.634880E-17
5.560000E+03	2.641473E-15	2.626845E-17
5.570000E+03	2.632943E-15	2.618826E-17
5.580000E+03	2.624437E-15	2.610796E-17
5.590000E+03	2.616132E-15	2.602932E-17
5.600000E+03	2.608018E-15	2.595224E-17
5.610000E+03	2.600256E-15	2.587831E-17
5.620000E+03	2.592892E-15	2.580802E-17
5.630000E+03	2.586027E-15	2.574237E-17
5.640000E+03	2.579695E-15	2.568169E-17
5.650000E+03	2.574006E-15	2.562710E-17
5.660000E+03	2.568997E-15	2.557897E-17
5.670000E+03	2.564658E-15	2.553720E-17
5.680000E+03	2.561073E-15	2.550265E-17
5.690000E+03	2.558129E-15	2.547420E-17
5.700000E+03	2.555861E-15	2.545222E-17
5.710000E+03	2.554162E-15	2.543564E-17
5.720000E+03	2.552958E-15	2.542375E-17
5.730000E+03	2.552096E-15	2.541502E-17
5.740000E+03	2.551487E-15	2.540860E-17
5.750000E+03	2.550942E-15	2.540260E-17
5.760000E+03	2.550320E-15	2.539567E-17
5.770000E+03	2.549452E-15	2.538610E-17
5.780000E+03	2.548167E-15	2.537223E-17
5.790000E+03	2.546335E-15	2.535278E-17
5.800000E+03	2.543780E-15	2.532604E-17
5.810000E+03	2.540440E-15	2.529138E-17
5.820000E+03	2.536180E-15	2.524751E-17
5.830000E+03	2.530924E-15	2.519368E-17
5.840000E+03	2.524647E-15	2.512967E-17
5.850000E+03	2.517321E-15	2.505524E-17
5.860000E+03	2.508969E-15	2.497064E-17
5.870000E+03	2.499537E-15	2.487537E-17
5.880000E+03	2.489112E-15	2.477031E-17
5.890000E+03	2.477727E-15	2.465583E-17
5.900000E+03	2.465421E-15	2.453233E-17
5.910000E+03	2.452232E-15	2.440024E-17
5.920000E+03	2.438197E-15	2.425994E-17
5.930000E+03	2.423382E-15	2.411213E-17
5.940000E+03	2.407815E-15	2.395709E-17
5.950000E+03	2.391482E-15	2.379474E-17
5.960000E+03	2.374466E-15	2.362590E-17
5.970000E+03	2.356744E-15	2.345041E-17
5.980000E+03	2.338328E-15	2.326836E-17
5.990000E+03	2.319224E-15	2.307988E-17
6.000000E+03	2.299508E-15	2.288573E-17
6.010000E+03	2.279163E-15	2.268575E-17
6.020000E+03	2.258177E-15	2.247986E-17
6.030000E+03	2.236671E-15	2.226927E-17
6.040000E+03	2.214617E-15	2.205372E-17
6.050000E+03	2.192086E-15	2.183393E-17
6.060000E+03	2.169123E-15	2.161037E-17
6.070000E+03	2.145814E-15	2.138389E-17
6.080000E+03	2.122241E-15	2.115534E-17
6.090000E+03	2.098431E-15	2.092498E-17
6.100000E+03	2.074468E-15	2.069366E-17
6.110000E+03	2.050438E-15	2.046224E-17
6.120000E+03	2.026390E-15	2.023119E-17
6.130000E+03	2.002431E-15	2.000155E-17
6.140000E+03	1.978578E-15	1.977341E-17
6.150000E+03	1.954847E-15	1.954693E-17
6.160000E+03	1.931207E-15	1.932173E-17
6.170000E+03	1.907689E-15	1.909810E-17
6.180000E+03	1.884337E-15	1.887642E-17
6.190000E+03	1.861186E-15	1.865702E-17
6.200000E+03	1.838255E-15	1.844006E-17
6.210000E+03	1.815543E-15	1.822548E-17
6.220000E+03	1.793075E-15	1.801352E-17
6.230000E+03	1.770864E-15	1.780427E-17
6.240000E+03	1.748964E-15	1.759825E-17
6.250000E+03	1.727397E-15	1.739566E-17
6.260000E+03	1.706275E-15	1.719760E-17
6.270000E+03	1.685692E-15	1.700501E-17
6.280000E+03	1.665715E-15	1.681854E-17
6.290000E+03	1.646410E-15	1.663885E-17
6.300000E+03	1.627863E-15	1.646681E-17
6.310000E+03	1.610177E-15	1.630345E-17
6.320000E+03	1.593389E-15	1.614916E-17
6.330000E+03	1.577522E-15	1.600417E-17
6.340000E+03	1.562609E-15	1.586883E-17
6.350000E+03	1.548692E-15	1.574355E-17
6.360000E+03	1.535714E-15	1.562779E-17
6.370000E+03	1.523682E-15	1.552162E-17
6.380000E+03	1.512562E-15	1.542468E-17
6.390000E+03	1.502302E-15	1.533645E-17
6.400000E+03	1.492848E-15	1.525637E-17
6.410000E+03	1.484156E-15	1.518402E-17
6.420000E+03	1.476186E-15	1.511898E-17
6.430000E+03	1.468847E-15	1.506033E-17
6.440000E+03	1.462125E-15	1.500790E-17
6.450000E+03	1.455966E-15	1.496116E-17
6.460000E+03	1.450319E-15	1.491959E-17
6.470000E+03	1.445145E-15	1.488279E-17
6.480000E+03	1.440435E-15	1.485065E-17
6.490000E+03	1.436157E-15	1.482285E-17
6.500000E+03	1.432282E-15	1.479908E-17
6.510000E+03	1.428770E-15	1.477895E-17
6.520000E+03	1.425632E-15	1.476256E-17
6.530000E+03	1.422771E-15	1.474889E-17
6.540000E+03	1.420168E-15	1.473775E-17
6.550000E+03	1.417782E-15	1.472872E-17
6.560000E+03	1.415596E-15	1.472162E-17
6.570000E+03	1.413534E-15	1.471563E-17
6.580000E+03	1.411564E-15	1.471044E-17
6.590000E+03	1.409602E-15	1.470515E-17
6.600000E+03	1.407611E-15	1.469938E-17
6.610000E+03	1.405538E-15	1.469256E-17
6.620000E+03	1.403333E-15	1.468415E-17
6.630000E+03	1.400930E-15	1.467344E-17
6.640000E+03	1.398345E-15	1.466062E-17
6.650000E+03	1.395503E-15	1.464487E-17
6.660000E+03	1.392411E-15	1.462625E-17
6.670000E+03	1.389088E-15	1.460495E-17
6.680000E+03	1.385476E-15	1.458035E-17
6.690000E+03	1.381606E-15	1.455278E-17
6.700000E+03	1.377486E-15	1.452230E-17
6.710000E+03	1.373131E-15	1.448907E-17
6.720000E+03	1.368559E-15	1.445326E-17
6.730000E+03	1.363764E-15	1.441481E-17
6.740000E+03	1.358824E-15	1.437455E-17
6.750000E+03	1.353739E-15	1.433248E-17
6.760000E+03	1.348513E-15	1.428862E-17
6.770000E+03	1.343201E-15	1.424358E-17
6.780000E+03	1.337835E-15	1.419769E-17
6.790000E+03	1.332421E-15	1.415101E-17
6.800000E+03	1.327018E-15	1.410418E-17
6.810000E+03	1.321656E-15	1.405753E-17
6.820000E+03	1.316341E-15	1.401113E-17
6.830000E+03	1.311130E-15	1.396559E-17
6.840000E+03	1.306051E-15	1.392122E-17
6.850000E+03	1.301078E-15	1.387776E-17
6.860000E+03	1.296317E-15	1.383635E-17
6.870000E+03	1.291710E-15	1.379638E-17
6.880000E+03	1.287330E-15	1.375866E-17
6.890000E+03	1.283168E-15	1.372308E-17
6.900000E+03	1.279262E-15	1.369010E-17
6.910000E+03	1.275569E-15	1.365924E-17
6.920000E+03	1.272146E-15	1.363115E-17
6.930000E+03	1.268938E-15	1.360525E-17
6.940000E+03	1.265993E-15	1.358208E-17
6.950000E+03	1.263272E-15	1.356123E-17
6.960000E+03	1.260729E-15	1.354222E-17
6.970000E+03	1.258367E-15	1.352511E-17
6.980000E+03	1.256156E-15	1.350959E-17
6.990000E+03	1.254061E-15	1.349531E-17
7.000000E+03	1.252038E-15	1.348181E-17
7.010000E+03	1.250016E-15	1.346834E-17
7.020000E+03	1.247974E-15	1.345469E-17
7.030000E+03	1.245833E-15	1.344002E-17
7.040000E+03	1.243570E-15	1.342411E-17
7.050000E+03	1.241107E-15	1.340613E-17
7.060000E+03	1.238397E-15	1.338559E-17
7.070000E+03	1.235426E-15	1.336234E-17
7.080000E+03	1.232133E-15	1.333573E-17
7.090000E+03	1.228516E-15	1.330576E-17
7.100000E+03	1.224501E-15	1.327165E-17
7.110000E+03	1.220140E-15	1.323396E-17
7.120000E+03	1.215379E-15	1.319211E-17
7.130000E+03	1.210287E-15	1.314688E-17
7.140000E+03	1.204865E-15	1.309827E-17
7.150000E+03	1.199117E-15	1.304634E-17
7.160000E+03	1.193141E-15	1.299219E-17
7.170000E+03	1.186932E-15	1.293574E-17
7.180000E+03	1.180569E-15	1.287790E-17
7.190000E+03	1.174108E-15	1.281926E-17
7.200000E+03	1.167603E-15	1.276045E-17
7.210000E+03	1.161080E-15	1.270176E-17
7.220000E+03	1.154615E-15	1.264405E-17
7.230000E+03	1.148227E-15	1.258753E-17
7.240000E+03	1.141978E-15	1.253292E-17
7.250000E+03	1.135901E-15	1.248059E-17
7.260000E+03	1.129988E-15	1.243048E-17
7.270000E+03	1.124252E-15	1.238276E-17
7.280000E+03	1.118752E-15	1.233809E-17
7.290000E+03	1.113399E-15	1.229554E-17
7.300000E+03	1.108237E-15	1.225559E-17
7.310000E+03	1.103216E-15	1.221774E-17
7.320000E+03	1.098340E-15	1.218204E-17
7.330000E+03	1.093550E-15	1.214786E-17
7.340000E+03	1.088841E-15	1.211516E-17
7.350000E+03	1.084153E-15	1.208332E-17
7.360000E+03	1.079483E-15	1.205228E-17
7.370000E+03	1.074775E-15	1.202147E-17
7.380000E+03	1.070034E-15	1.199094E-17
7.390000E+03	1.065220E-15	1.196026E-17
7.400000E+03	1.060355E-15	1.192967E-17
7.410000E+03	1.055446E-15	1.189927E-17
7.420000E+03	1.050540E-15	1.186960E-17
7.430000E+03	1.045618E-15	1.184045E-17
7.440000E+03	1.040785E-15	1.181304E-17
7.450000E+03	1.036055E-15	1.178753E-17
7.460000E+03	1.031597E-15	1.176585E-17
7.470000E+03	1.027429E-15	1.174825E-17
7.480000E+03	1.023724E-15	1.173670E-17
7.490000E+03	1.020611E-15	1.173269E-17
7.500000E+03	1.018179E-15	1.173730E-17
7.510000E+03	1.016514E-15	1.175157E-17
7.520000E+03	1.015638E-15	1.177583E-17
7.530000E+03	1.015505E-15	1.180958E-17
7.540000E+03	1.016053E-15	1.185219E-17
7.550000E+03	1.017090E-15	1.190146E-17
7.560000E+03	1.018595E-15	1.195720E-17
7.570000E+03	1.020411E-15	1.201760E-17
7.580000E+03	1.022475E-15	1.208194E-17
7.590000E+03	1.024670E-15	1.214889E-17
7.600000E+03	1.026923E-15	1.221754E-17
7.610000E+03	1.029185E-15	1.228735E-17
7.620000E+03	1.031391E-15	1.235751E-17
7.630000E+03	1.033419E-15	1.242656E-17
7.640000E+03	1.035267E-15	1.249444E-17
7.650000E+03	1.036851E-15	1.256008E-17
7.660000E+03	1.038117E-15	1.262281E-17
7.670000E+03	1.039017E-15	1.268198E-17
7.680000E+03	1.039537E-15	1.273737E-17
7.690000E+03	1.039610E-15	1.278807E-17
7.700000E+03	1.039201E-15	1.283359E-17
7.710000E+03	1.038253E-15	1.287315E-17
7.720000E+03	1.036809E-15	1.290716E-17
7.730000E+03	1.034823E-15	1.293499E-17
7.740000E+03	1.032292E-15	1.295649E-17
7.750000E+03	1.029215E-15	1.297156E-17
7.760000E+03	1.025604E-15	1.298023E-17
