#wls	flux	fluxerr
1.600000E+03	5.792060E-17	3.149258E-18
1.640000E+03	5.844942E-17	3.159520E-18
1.680000E+03	5.897471E-17	3.168819E-18
1.720000E+03	5.957339E-17	3.181248E-18
1.760000E+03	6.019293E-17	3.193924E-18
1.800000E+03	6.085827E-17	3.208119E-18
1.840000E+03	6.156838E-17	3.223706E-18
1.880000E+03	6.232202E-17	3.240550E-18
1.920000E+03	6.311778E-17	3.258503E-18
1.960000E+03	6.395402E-17	3.277406E-18
2.000000E+03	6.485483E-17	3.298409E-18
2.040000E+03	6.581810E-17	3.321299E-18
2.080000E+03	6.681556E-17	3.344554E-18
2.120000E+03	6.789627E-17	3.370531E-18
2.160000E+03	6.903136E-17	3.397670E-18
2.200000E+03	7.021754E-17	3.425701E-18
2.240000E+03	7.147683E-17	3.455583E-18
2.280000E+03	7.280514E-17	3.486978E-18
2.320000E+03	7.419799E-17	3.519535E-18
2.360000E+03	7.567602E-17	3.554086E-18
2.400000E+03	7.720851E-17	3.589032E-18
2.440000E+03	7.879011E-17	3.623996E-18
2.480000E+03	8.044043E-17	3.659742E-18
2.520000E+03	8.215366E-17	3.695850E-18
2.560000E+03	8.392432E-17	3.731922E-18
2.600000E+03	8.574846E-17	3.767631E-18
2.640000E+03	8.760181E-17	3.801780E-18
2.680000E+03	8.954131E-17	3.836695E-18
2.720000E+03	9.155792E-17	3.871786E-18
2.760000E+03	9.372067E-17	3.909735E-18
2.800000E+03	9.600612E-17	3.949256E-18
2.840000E+03	9.849034E-17	3.993143E-18
2.880000E+03	1.011819E-16	4.041301E-18
2.920000E+03	1.041641E-16	4.096553E-18
2.960000E+03	1.074787E-16	4.159876E-18
3.000000E+03	1.111733E-16	4.232359E-18
3.010000E+03	1.121566E-16	4.251828E-18
3.020000E+03	1.131799E-16	4.272411E-18
3.030000E+03	1.142203E-16	4.293238E-18
3.040000E+03	1.153026E-16	4.315219E-18
3.050000E+03	1.164277E-16	4.338366E-18
3.060000E+03	1.175733E-16	4.361832E-18
3.070000E+03	1.187639E-16	4.386507E-18
3.080000E+03	1.200007E-16	4.412412E-18
3.090000E+03	1.212616E-16	4.438710E-18
3.100000E+03	1.225712E-16	4.466286E-18
3.110000E+03	1.239308E-16	4.495164E-18
3.120000E+03	1.253183E-16	4.524513E-18
3.130000E+03	1.267588E-16	4.555216E-18
3.140000E+03	1.282536E-16	4.587301E-18
3.150000E+03	1.298046E-16	4.620792E-18
3.160000E+03	1.313893E-16	4.654874E-18
3.170000E+03	1.330573E-16	4.691265E-18
3.180000E+03	1.347626E-16	4.728310E-18
3.190000E+03	1.365310E-16	4.766885E-18
3.200000E+03	1.383642E-16	4.807019E-18
3.210000E+03	1.402888E-16	4.849591E-18
3.220000E+03	1.422583E-16	4.892948E-18
3.230000E+03	1.443237E-16	4.938816E-18
3.240000E+03	1.464383E-16	4.985543E-18
3.250000E+03	1.486537E-16	5.034856E-18
3.260000E+03	1.509480E-16	5.085949E-18
3.270000E+03	1.533487E-16	5.139709E-18
3.280000E+03	1.558337E-16	5.195335E-18
3.290000E+03	1.584061E-16	5.252877E-18
3.300000E+03	1.610940E-16	5.313216E-18
3.310000E+03	1.639012E-16	5.376409E-18
3.320000E+03	1.668055E-16	5.441663E-18
3.330000E+03	1.698362E-16	5.509870E-18
3.340000E+03	1.729975E-16	5.581093E-18
3.350000E+03	1.762672E-16	5.654541E-18
3.360000E+03	1.796755E-16	5.731119E-18
3.370000E+03	1.832537E-16	5.811739E-18
3.380000E+03	1.869536E-16	5.894775E-18
3.390000E+03	1.908336E-16	5.981992E-18
3.400000E+03	1.948723E-16	6.072615E-18
3.410000E+03	1.990753E-16	6.166721E-18
3.420000E+03	2.034481E-16	6.264387E-18
3.430000E+03	2.080249E-16	6.366558E-18
3.440000E+03	2.128130E-16	6.473333E-18
3.450000E+03	2.177909E-16	6.583939E-18
3.460000E+03	2.229947E-16	6.699344E-18
3.470000E+03	2.284327E-16	6.819667E-18
3.480000E+03	2.341138E-16	6.945026E-18
3.490000E+03	2.400170E-16	7.074661E-18
3.500000E+03	2.462121E-16	7.210478E-18
3.510000E+03	2.527104E-16	7.352636E-18
3.520000E+03	2.594616E-16	7.499500E-18
3.530000E+03	2.665392E-16	7.653023E-18
3.540000E+03	2.739565E-16	7.813391E-18
3.550000E+03	2.816952E-16	7.979881E-18
3.560000E+03	2.898014E-16	8.153593E-18
3.570000E+03	2.982904E-16	8.334736E-18
3.580000E+03	3.071783E-16	8.523526E-18
3.590000E+03	3.164822E-16	8.720189E-18
3.600000E+03	3.262195E-16	8.924951E-18
3.610000E+03	3.364439E-16	9.139006E-18
3.620000E+03	3.471761E-16	9.362621E-18
3.630000E+03	3.584018E-16	9.595103E-18
3.640000E+03	3.701421E-16	9.836711E-18
3.650000E+03	3.824934E-16	1.008967E-17
3.660000E+03	3.954061E-16	1.035233E-17
3.670000E+03	4.089810E-16	1.062694E-17
3.680000E+03	4.232070E-16	1.091283E-17
3.690000E+03	4.381114E-16	1.121030E-17
3.700000E+03	4.537625E-16	1.152066E-17
3.710000E+03	4.701909E-16	1.184424E-17
3.720000E+03	4.873862E-16	1.218029E-17
3.730000E+03	5.054630E-16	1.253120E-17
3.740000E+03	5.243687E-16	1.289513E-17
3.750000E+03	5.442211E-16	1.327445E-17
3.760000E+03	5.650093E-16	1.366833E-17
3.770000E+03	5.868094E-16	1.407800E-17
3.780000E+03	6.096065E-16	1.450252E-17
3.790000E+03	6.334751E-16	1.494302E-17
3.800000E+03	6.584422E-16	1.539949E-17
3.810000E+03	6.845308E-16	1.587180E-17
3.820000E+03	7.117595E-16	1.635969E-17
3.830000E+03	7.401920E-16	1.686392E-17
3.840000E+03	7.698361E-16	1.738395E-17
3.850000E+03	8.006374E-16	1.791783E-17
3.860000E+03	8.326353E-16	1.846574E-17
3.870000E+03	8.658049E-16	1.902641E-17
3.880000E+03	9.001064E-16	1.959827E-17
3.890000E+03	9.354825E-16	2.017943E-17
3.900000E+03	9.719145E-16	2.076885E-17
3.910000E+03	1.009306E-15	2.136386E-17
3.920000E+03	1.047474E-15	2.196010E-17
3.930000E+03	1.086330E-15	2.255525E-17
3.940000E+03	1.125693E-15	2.314523E-17
3.950000E+03	1.165419E-15	2.372684E-17
3.960000E+03	1.205206E-15	2.429382E-17
3.970000E+03	1.244785E-15	2.484081E-17
3.980000E+03	1.283926E-15	2.536346E-17
3.990000E+03	1.322315E-15	2.585594E-17
4.000000E+03	1.359555E-15	2.631109E-17
4.010000E+03	1.395437E-15	2.672569E-17
4.020000E+03	1.429550E-15	2.709282E-17
4.030000E+03	1.461553E-15	2.740724E-17
4.040000E+03	1.491119E-15	2.766424E-17
4.050000E+03	1.518003E-15	2.786085E-17
4.060000E+03	1.541923E-15	2.799366E-17
4.070000E+03	1.562572E-15	2.805901E-17
4.080000E+03	1.579822E-15	2.805666E-17
4.090000E+03	1.593476E-15	2.798524E-17
4.100000E+03	1.603596E-15	2.784809E-17
4.110000E+03	1.610134E-15	2.764649E-17
4.120000E+03	1.613120E-15	2.738317E-17
4.130000E+03	1.612853E-15	2.706533E-17
4.140000E+03	1.609519E-15	2.669798E-17
4.150000E+03	1.603431E-15	2.628813E-17
4.160000E+03	1.595006E-15	2.584417E-17
4.170000E+03	1.584526E-15	2.537205E-17
4.180000E+03	1.572513E-15	2.488124E-17
4.190000E+03	1.559273E-15	2.437745E-17
4.200000E+03	1.545315E-15	2.386928E-17
4.210000E+03	1.531019E-15	2.336299E-17
4.220000E+03	1.516652E-15	2.286281E-17
4.230000E+03	1.502600E-15	2.237460E-17
4.240000E+03	1.489175E-15	2.190280E-17
4.250000E+03	1.476661E-15	2.145123E-17
4.260000E+03	1.465318E-15	2.102317E-17
4.270000E+03	1.455341E-15	2.062084E-17
4.280000E+03	1.446982E-15	2.024704E-17
4.290000E+03	1.440427E-15	1.990359E-17
4.300000E+03	1.435758E-15	1.959074E-17
4.310000E+03	1.433190E-15	1.931047E-17
4.320000E+03	1.432795E-15	1.906278E-17
4.330000E+03	1.434666E-15	1.884789E-17
4.340000E+03	1.438840E-15	1.866530E-17
4.350000E+03	1.445418E-15	1.851530E-17
4.360000E+03	1.454422E-15	1.839718E-17
4.370000E+03	1.465911E-15	1.831070E-17
4.380000E+03	1.479946E-15	1.825564E-17
4.390000E+03	1.496596E-15	1.823192E-17
4.400000E+03	1.515937E-15	1.823950E-17
4.410000E+03	1.538022E-15	1.827813E-17
4.420000E+03	1.562944E-15	1.834801E-17
4.430000E+03	1.590833E-15	1.844978E-17
4.440000E+03	1.621758E-15	1.858341E-17
4.450000E+03	1.655819E-15	1.874918E-17
4.460000E+03	1.693105E-15	1.894731E-17
4.470000E+03	1.733724E-15	1.917824E-17
4.480000E+03	1.777689E-15	1.944140E-17
4.490000E+03	1.825039E-15	1.973656E-17
4.500000E+03	1.875691E-15	2.006225E-17
4.510000E+03	1.929589E-15	2.041744E-17
4.520000E+03	1.986488E-15	2.079905E-17
4.530000E+03	2.046111E-15	2.120378E-17
4.540000E+03	2.107931E-15	2.162595E-17
4.550000E+03	2.171406E-15	2.205993E-17
4.560000E+03	2.235874E-15	2.249920E-17
4.570000E+03	2.300451E-15	2.293524E-17
4.580000E+03	2.364296E-15	2.336031E-17
4.590000E+03	2.426378E-15	2.376507E-17
4.600000E+03	2.485616E-15	2.414002E-17
4.610000E+03	2.541002E-15	2.447662E-17
4.620000E+03	2.591489E-15	2.476624E-17
4.630000E+03	2.636205E-15	2.500211E-17
4.640000E+03	2.674397E-15	2.517871E-17
4.650000E+03	2.705470E-15	2.529208E-17
4.660000E+03	2.729125E-15	2.534103E-17
4.670000E+03	2.745342E-15	2.532686E-17
4.680000E+03	2.754402E-15	2.525353E-17
4.690000E+03	2.756924E-15	2.512784E-17
4.700000E+03	2.753688E-15	2.495782E-17
4.710000E+03	2.745769E-15	2.475389E-17
4.720000E+03	2.734463E-15	2.452817E-17
4.730000E+03	2.720998E-15	2.429186E-17
4.740000E+03	2.706688E-15	2.405667E-17
4.750000E+03	2.692816E-15	2.383384E-17
4.760000E+03	2.680495E-15	2.363290E-17
4.770000E+03	2.670745E-15	2.346244E-17
4.780000E+03	2.664365E-15	2.332903E-17
4.790000E+03	2.661910E-15	2.323707E-17
4.800000E+03	2.663798E-15	2.318977E-17
4.810000E+03	2.670260E-15	2.318872E-17
4.820000E+03	2.681325E-15	2.323384E-17
4.830000E+03	2.696889E-15	2.332389E-17
4.840000E+03	2.716765E-15	2.345680E-17
4.850000E+03	2.740648E-15	2.362949E-17
4.860000E+03	2.768177E-15	2.383845E-17
4.870000E+03	2.798923E-15	2.407965E-17
4.880000E+03	2.832326E-15	2.434794E-17
4.890000E+03	2.867867E-15	2.463861E-17
4.900000E+03	2.904942E-15	2.494619E-17
4.910000E+03	2.942910E-15	2.526494E-17
4.920000E+03	2.981097E-15	2.558884E-17
4.930000E+03	3.018816E-15	2.591174E-17
4.940000E+03	3.055383E-15	2.622752E-17
4.950000E+03	3.090129E-15	2.653019E-17
4.960000E+03	3.122461E-15	2.681438E-17
4.970000E+03	3.151803E-15	2.707485E-17
4.980000E+03	3.177640E-15	2.730690E-17
4.990000E+03	3.199555E-15	2.750663E-17
5.000000E+03	3.217169E-15	2.767047E-17
5.010000E+03	3.230175E-15	2.779546E-17
5.020000E+03	3.238389E-15	2.787972E-17
5.030000E+03	3.241725E-15	2.792219E-17
5.040000E+03	3.240187E-15	2.792263E-17
5.050000E+03	3.233923E-15	2.788204E-17
5.060000E+03	3.223250E-15	2.780289E-17
5.070000E+03	3.208760E-15	2.769007E-17
5.080000E+03	3.191071E-15	2.754872E-17
5.090000E+03	3.171086E-15	2.738649E-17
5.100000E+03	3.149741E-15	2.721131E-17
5.110000E+03	3.128021E-15	2.703161E-17
5.120000E+03	3.106827E-15	2.685510E-17
5.130000E+03	3.086991E-15	2.668894E-17
5.140000E+03	3.069185E-15	2.653888E-17
5.150000E+03	3.054000E-15	2.641005E-17
5.160000E+03	3.041818E-15	2.630573E-17
5.170000E+03	3.032881E-15	2.622802E-17
5.180000E+03	3.027367E-15	2.617846E-17
5.190000E+03	3.025245E-15	2.615681E-17
5.200000E+03	3.026486E-15	2.616282E-17
5.210000E+03	3.030925E-15	2.619509E-17
5.220000E+03	3.038377E-15	2.625204E-17
5.230000E+03	3.048592E-15	2.633156E-17
5.240000E+03	3.061326E-15	2.643157E-17
5.250000E+03	3.076305E-15	2.654977E-17
5.260000E+03	3.093220E-15	2.668354E-17
5.270000E+03	3.111669E-15	2.682950E-17
5.280000E+03	3.131188E-15	2.698373E-17
5.290000E+03	3.151291E-15	2.714218E-17
5.300000E+03	3.171353E-15	2.729958E-17
5.310000E+03	3.190699E-15	2.745029E-17
5.320000E+03	3.208565E-15	2.758791E-17
5.330000E+03	3.224155E-15	2.770583E-17
5.340000E+03	3.236781E-15	2.779835E-17
5.350000E+03	3.245656E-15	2.785896E-17
5.360000E+03	3.250268E-15	2.788357E-17
5.370000E+03	3.250108E-15	2.786808E-17
5.380000E+03	3.245028E-15	2.781150E-17
5.390000E+03	3.234959E-15	2.771354E-17
5.400000E+03	3.220111E-15	2.757628E-17
5.410000E+03	3.200836E-15	2.740299E-17
5.420000E+03	3.177700E-15	2.719875E-17
5.430000E+03	3.151249E-15	2.696845E-17
5.440000E+03	3.122257E-15	2.671892E-17
5.450000E+03	3.091402E-15	2.645612E-17
5.460000E+03	3.059411E-15	2.618643E-17
5.470000E+03	3.026921E-15	2.591538E-17
5.480000E+03	2.994495E-15	2.564759E-17
5.490000E+03	2.962516E-15	2.538603E-17
5.500000E+03	2.931322E-15	2.513327E-17
5.510000E+03	2.901033E-15	2.489007E-17
5.520000E+03	2.871711E-15	2.465668E-17
5.530000E+03	2.843304E-15	2.443240E-17
5.540000E+03	2.815709E-15	2.421608E-17
5.550000E+03	2.788841E-15	2.400678E-17
5.560000E+03	2.762562E-15	2.380306E-17
5.570000E+03	2.736895E-15	2.360493E-17
5.580000E+03	2.711847E-15	2.341224E-17
5.590000E+03	2.687515E-15	2.322563E-17
5.600000E+03	2.664037E-15	2.304613E-17
5.610000E+03	2.641541E-15	2.287470E-17
5.620000E+03	2.620196E-15	2.271267E-17
5.630000E+03	2.600081E-15	2.256060E-17
5.640000E+03	2.581224E-15	2.241861E-17
5.650000E+03	2.563642E-15	2.228676E-17
5.660000E+03	2.547253E-15	2.216426E-17
5.670000E+03	2.531929E-15	2.204991E-17
5.680000E+03	2.517575E-15	2.194280E-17
5.690000E+03	2.504049E-15	2.184163E-17
5.700000E+03	2.491232E-15	2.174529E-17
5.710000E+03	2.479078E-15	2.165336E-17
5.720000E+03	2.467604E-15	2.156590E-17
5.730000E+03	2.456873E-15	2.148345E-17
5.740000E+03	2.447015E-15	2.140712E-17
5.750000E+03	2.438271E-15	2.133898E-17
5.760000E+03	2.430863E-15	2.128097E-17
5.770000E+03	2.425093E-15	2.123574E-17
5.780000E+03	2.421280E-15	2.120608E-17
5.790000E+03	2.419718E-15	2.119457E-17
5.800000E+03	2.420670E-15	2.120353E-17
5.810000E+03	2.424375E-15	2.123505E-17
5.820000E+03	2.430964E-15	2.129031E-17
5.830000E+03	2.440485E-15	2.136972E-17
5.840000E+03	2.452863E-15	2.147264E-17
5.850000E+03	2.467821E-15	2.159666E-17
5.860000E+03	2.485079E-15	2.173933E-17
5.870000E+03	2.504148E-15	2.189640E-17
5.880000E+03	2.524490E-15	2.206320E-17
5.890000E+03	2.545463E-15	2.223418E-17
5.900000E+03	2.566403E-15	2.240359E-17
5.910000E+03	2.586603E-15	2.256538E-17
5.920000E+03	2.605357E-15	2.271349E-17
5.930000E+03	2.622124E-15	2.284336E-17
5.940000E+03	2.636368E-15	2.295051E-17
5.950000E+03	2.647747E-15	2.303215E-17
5.960000E+03	2.656024E-15	2.308646E-17
5.970000E+03	2.661200E-15	2.311367E-17
5.980000E+03	2.663369E-15	2.311488E-17
5.990000E+03	2.662753E-15	2.309225E-17
6.000000E+03	2.659699E-15	2.304908E-17
6.010000E+03	2.654606E-15	2.298907E-17
6.020000E+03	2.647943E-15	2.291656E-17
6.030000E+03	2.640190E-15	2.283593E-17
6.040000E+03	2.631854E-15	2.275184E-17
6.050000E+03	2.623439E-15	2.266888E-17
6.060000E+03	2.615367E-15	2.259092E-17
6.070000E+03	2.608083E-15	2.252207E-17
6.080000E+03	2.601910E-15	2.246535E-17
6.090000E+03	2.597076E-15	2.242297E-17
6.100000E+03	2.593737E-15	2.239654E-17
6.110000E+03	2.591868E-15	2.238613E-17
6.120000E+03	2.591300E-15	2.239054E-17
6.130000E+03	2.591748E-15	2.240761E-17
6.140000E+03	2.592832E-15	2.243434E-17
6.150000E+03	2.593977E-15	2.246606E-17
6.160000E+03	2.594673E-15	2.249864E-17
6.170000E+03	2.594327E-15	2.252718E-17
6.180000E+03	2.592387E-15	2.254712E-17
6.190000E+03	2.588297E-15	2.255380E-17
6.200000E+03	2.581662E-15	2.254390E-17
6.210000E+03	2.572082E-15	2.251398E-17
6.220000E+03	2.559249E-15	2.246126E-17
6.230000E+03	2.542952E-15	2.238342E-17
6.240000E+03	2.523025E-15	2.227836E-17
6.250000E+03	2.499410E-15	2.214488E-17
6.260000E+03	2.472149E-15	2.198261E-17
6.270000E+03	2.441406E-15	2.179222E-17
6.280000E+03	2.407485E-15	2.157566E-17
6.290000E+03	2.370871E-15	2.133650E-17
6.300000E+03	2.332196E-15	2.107970E-17
6.310000E+03	2.292226E-15	2.081155E-17
6.320000E+03	2.251924E-15	2.054025E-17
6.330000E+03	2.212350E-15	2.027504E-17
6.340000E+03	2.174627E-15	2.002600E-17
6.350000E+03	2.139996E-15	1.980447E-17
6.360000E+03	2.109669E-15	1.962183E-17
6.370000E+03	2.084823E-15	1.948936E-17
6.380000E+03	2.066622E-15	1.941853E-17
6.390000E+03	2.056232E-15	1.942103E-17
6.400000E+03	2.054707E-15	1.950780E-17
6.410000E+03	2.063081E-15	1.968982E-17
6.420000E+03	2.082380E-15	1.997822E-17
6.430000E+03	2.113521E-15	2.038329E-17
6.440000E+03	2.157401E-15	2.091537E-17
6.450000E+03	2.214746E-15	2.158328E-17
6.460000E+03	2.286147E-15	2.239468E-17
6.470000E+03	2.371976E-15	2.335515E-17
6.480000E+03	2.472150E-15	2.446583E-17
6.490000E+03	2.586226E-15	2.572419E-17
6.500000E+03	2.713201E-15	2.712197E-17
6.510000E+03	2.851372E-15	2.864361E-17
6.520000E+03	2.998362E-15	3.026637E-17
6.530000E+03	3.150937E-15	3.195827E-17
6.540000E+03	3.305215E-15	3.368002E-17
6.550000E+03	3.456435E-15	3.538260E-17
6.560000E+03	3.599480E-15	3.701238E-17
6.570000E+03	3.729015E-15	3.851252E-17
6.580000E+03	3.839862E-15	3.982694E-17
6.590000E+03	3.927702E-15	4.090760E-17
6.600000E+03	3.989143E-15	4.171555E-17
6.610000E+03	4.022304E-15	4.222732E-17
6.620000E+03	4.026790E-15	4.243492E-17
6.630000E+03	4.003631E-15	4.234559E-17
6.640000E+03	3.955221E-15	4.198143E-17
6.650000E+03	3.884824E-15	4.137440E-17
6.660000E+03	3.796403E-15	4.056454E-17
6.670000E+03	3.694084E-15	3.959442E-17
6.680000E+03	3.581978E-15	3.850712E-17
6.690000E+03	3.463949E-15	3.734373E-17
6.700000E+03	3.343330E-15	3.614014E-17
6.710000E+03	3.222967E-15	3.492740E-17
6.720000E+03	3.105185E-15	3.373124E-17
6.730000E+03	2.991703E-15	3.257106E-17
6.740000E+03	2.883798E-15	3.146157E-17
6.750000E+03	2.782328E-15	3.041298E-17
6.760000E+03	2.687835E-15	2.943209E-17
6.770000E+03	2.600489E-15	2.852158E-17
6.780000E+03	2.520371E-15	2.768311E-17
6.790000E+03	2.447280E-15	2.691520E-17
6.800000E+03	2.381021E-15	2.621634E-17
6.810000E+03	2.321215E-15	2.558293E-17
6.820000E+03	2.267544E-15	2.501198E-17
6.830000E+03	2.219562E-15	2.449900E-17
6.840000E+03	2.176873E-15	2.403996E-17
6.850000E+03	2.139130E-15	2.363136E-17
6.860000E+03	2.105865E-15	2.326828E-17
6.870000E+03	2.076771E-15	2.294755E-17
6.880000E+03	2.051408E-15	2.266446E-17
6.890000E+03	2.029466E-15	2.241573E-17
6.900000E+03	2.010573E-15	2.219736E-17
6.910000E+03	1.994369E-15	2.200545E-17
6.920000E+03	1.980576E-15	2.183699E-17
6.930000E+03	1.968853E-15	2.168830E-17
6.940000E+03	1.958876E-15	2.155583E-17
6.950000E+03	1.950386E-15	2.143676E-17
6.960000E+03	1.943094E-15	2.132797E-17
6.970000E+03	1.936780E-15	2.122708E-17
6.980000E+03	1.931203E-15	2.113151E-17
6.990000E+03	1.926170E-15	2.103918E-17
7.000000E+03	1.921512E-15	2.094833E-17
7.010000E+03	1.917114E-15	2.085778E-17
7.020000E+03	1.912787E-15	2.076558E-17
7.030000E+03	1.908517E-15	2.067165E-17
7.040000E+03	1.904195E-15	2.057494E-17
7.050000E+03	1.899812E-15	2.047548E-17
7.060000E+03	1.895333E-15	2.037303E-17
7.070000E+03	1.890776E-15	2.026791E-17
7.080000E+03	1.886178E-15	2.016066E-17
7.090000E+03	1.881594E-15	2.005202E-17
7.100000E+03	1.877096E-15	1.994290E-17
7.110000E+03	1.872746E-15	1.983411E-17
7.120000E+03	1.868686E-15	1.972730E-17
7.130000E+03	1.864946E-15	1.962291E-17
7.140000E+03	1.861700E-15	1.952292E-17
7.150000E+03	1.858970E-15	1.942768E-17
7.160000E+03	1.856891E-15	1.933873E-17
7.170000E+03	1.855487E-15	1.925645E-17
7.180000E+03	1.854855E-15	1.918196E-17
7.190000E+03	1.854979E-15	1.911523E-17
7.200000E+03	1.855888E-15	1.905669E-17
7.210000E+03	1.857562E-15	1.900627E-17
7.220000E+03	1.859937E-15	1.896349E-17
7.230000E+03	1.862978E-15	1.892816E-17
7.240000E+03	1.866606E-15	1.889965E-17
7.250000E+03	1.870677E-15	1.887675E-17
7.260000E+03	1.875134E-15	1.885910E-17
7.270000E+03	1.879838E-15	1.884560E-17
7.280000E+03	1.884668E-15	1.883529E-17
7.290000E+03	1.889523E-15	1.882750E-17
7.300000E+03	1.894229E-15	1.882082E-17
7.310000E+03	1.898690E-15	1.881465E-17
7.320000E+03	1.902822E-15	1.880855E-17
7.330000E+03	1.906482E-15	1.880148E-17
7.340000E+03	1.909625E-15	1.879340E-17
7.350000E+03	1.912206E-15	1.878427E-17
7.360000E+03	1.914209E-15	1.877433E-17
7.370000E+03	1.915644E-15	1.876408E-17
7.380000E+03	1.916539E-15	1.875418E-17
7.390000E+03	1.916940E-15	1.874548E-17
7.400000E+03	1.916864E-15	1.873851E-17
7.410000E+03	1.916404E-15	1.873453E-17
7.420000E+03	1.915554E-15	1.873384E-17
7.430000E+03	1.914311E-15	1.873675E-17
7.440000E+03	1.912639E-15	1.874321E-17
7.450000E+03	1.910473E-15	1.875290E-17
7.460000E+03	1.907722E-15	1.876517E-17
7.470000E+03	1.904273E-15	1.877916E-17
7.480000E+03	1.900038E-15	1.879420E-17
7.490000E+03	1.894879E-15	1.880890E-17
7.500000E+03	1.888737E-15	1.882239E-17
7.510000E+03	1.881495E-15	1.883322E-17
7.520000E+03	1.873185E-15	1.884135E-17
7.530000E+03	1.863839E-15	1.884667E-17
7.540000E+03	1.853506E-15	1.884928E-17
7.550000E+03	1.842352E-15	1.885040E-17
7.560000E+03	1.830530E-15	1.885116E-17
7.570000E+03	1.818305E-15	1.885387E-17
7.580000E+03	1.805828E-15	1.885969E-17
7.590000E+03	1.793415E-15	1.887159E-17
7.600000E+03	1.781269E-15	1.889139E-17
7.610000E+03	1.769582E-15	1.892091E-17
7.620000E+03	1.758603E-15	1.896265E-17
7.630000E+03	1.748477E-15	1.901807E-17
7.640000E+03	1.739335E-15	1.908860E-17
7.650000E+03	1.731294E-15	1.917554E-17
7.660000E+03	1.724369E-15	1.927912E-17
7.670000E+03	1.718579E-15	1.939970E-17
7.680000E+03	1.713850E-15	1.953658E-17
7.690000E+03	1.710156E-15	1.968960E-17
7.700000E+03	1.707352E-15	1.985725E-17
7.710000E+03	1.705388E-15	2.003906E-17
7.720000E+03	1.704126E-15	2.023357E-17
7.730000E+03	1.703457E-15	2.043953E-17
7.740000E+03	1.703286E-15	2.065590E-17
7.750000E+03	1.703491E-15	2.088122E-17
7.760000E+03	1.703916E-15	2.111359E-17
