#wls	flux	fluxerr
1.567091E+03	-2.508843E-04	-4.747890E-05
1.606268E+03	-2.562181E-04	-4.847914E-05
1.645446E+03	-2.603748E-04	-4.925609E-05
1.684623E+03	-2.632642E-04	-4.979282E-05
1.723800E+03	-2.647502E-04	-5.006372E-05
1.762977E+03	-2.644806E-04	-5.000238E-05
1.802155E+03	-2.620244E-04	-4.952754E-05
1.841332E+03	-2.569229E-04	-4.855275E-05
1.880509E+03	-2.487955E-04	-4.700644E-05
1.919687E+03	-2.375584E-04	-4.487321E-05
1.958864E+03	-2.237717E-04	-4.225925E-05
1.998041E+03	-2.090053E-04	-3.946132E-05
2.037218E+03	-1.959069E-04	-3.697938E-05
2.076396E+03	-1.876169E-04	-3.540585E-05
2.115573E+03	-1.866556E-04	-3.521563E-05
2.154750E+03	-1.940071E-04	-3.659328E-05
2.193928E+03	-2.089764E-04	-3.940651E-05
2.233105E+03	-2.297426E-04	-4.331088E-05
2.272282E+03	-2.541538E-04	-4.789990E-05
2.311459E+03	-2.803469E-04	-5.282193E-05
2.350637E+03	-3.070189E-04	-5.783116E-05
2.389814E+03	-3.334133E-04	-6.278499E-05
2.428991E+03	-3.591826E-04	-6.761797E-05
2.468168E+03	-3.842340E-04	-7.231269E-05
2.507346E+03	-4.086128E-04	-7.687770E-05
2.546523E+03	-4.324231E-04	-8.133263E-05
2.585700E+03	-4.557801E-04	-8.569920E-05
2.624878E+03	-4.787825E-04	-8.999597E-05
2.664055E+03	-5.014977E-04	-9.423560E-05
2.703232E+03	-5.239503E-04	-9.842274E-05
2.742409E+03	-5.461158E-04	-1.025528E-04
2.781587E+03	-5.679140E-04	-1.066107E-04
2.820764E+03	-5.892051E-04	-1.105702E-04
2.859941E+03	-6.097835E-04	-1.143929E-04
2.899119E+03	-6.293752E-04	-1.180274E-04
2.938296E+03	-6.476371E-04	-1.214096E-04
2.948090E+03	-6.519482E-04	-1.222070E-04
2.957884E+03	-6.561439E-04	-1.229827E-04
2.967679E+03	-6.602170E-04	-1.237351E-04
2.977473E+03	-6.641763E-04	-1.244661E-04
2.987267E+03	-6.680726E-04	-1.251852E-04
2.997062E+03	-6.719583E-04	-1.259021E-04
3.006856E+03	-6.758061E-04	-1.266117E-04
3.016650E+03	-6.795911E-04	-1.273094E-04
3.026445E+03	-6.832886E-04	-1.279906E-04
3.036239E+03	-6.868759E-04	-1.286509E-04
3.046033E+03	-6.903310E-04	-1.292864E-04
3.055828E+03	-6.936343E-04	-1.298933E-04
3.065622E+03	-6.967652E-04	-1.304678E-04
3.075416E+03	-6.997066E-04	-1.310067E-04
3.085211E+03	-7.024406E-04	-1.315066E-04
3.095005E+03	-7.049519E-04	-1.319647E-04
3.104799E+03	-7.072262E-04	-1.323783E-04
3.114594E+03	-7.092492E-04	-1.327448E-04
3.124388E+03	-7.110093E-04	-1.330620E-04
3.134182E+03	-7.124952E-04	-1.333279E-04
3.143976E+03	-7.136977E-04	-1.335406E-04
3.153771E+03	-7.146082E-04	-1.336986E-04
3.163565E+03	-7.152201E-04	-1.338007E-04
3.173359E+03	-7.155281E-04	-1.338459E-04
3.183154E+03	-7.155278E-04	-1.338335E-04
3.192948E+03	-7.152173E-04	-1.337630E-04
3.202742E+03	-7.145953E-04	-1.336342E-04
3.212537E+03	-7.136627E-04	-1.334474E-04
3.222331E+03	-7.124224E-04	-1.332030E-04
3.232125E+03	-7.108776E-04	-1.329017E-04
3.241920E+03	-7.090348E-04	-1.325448E-04
3.251714E+03	-7.069013E-04	-1.321336E-04
3.261508E+03	-7.044861E-04	-1.316698E-04
3.271303E+03	-7.018005E-04	-1.311555E-04
3.281097E+03	-6.988568E-04	-1.305931E-04
3.290891E+03	-6.956697E-04	-1.299853E-04
3.300686E+03	-6.922555E-04	-1.293351E-04
3.310480E+03	-6.886310E-04	-1.286458E-04
3.320274E+03	-6.848158E-04	-1.279210E-04
3.330069E+03	-6.808303E-04	-1.271645E-04
3.339863E+03	-6.766963E-04	-1.263804E-04
3.349657E+03	-6.724363E-04	-1.255729E-04
3.359452E+03	-6.680745E-04	-1.247465E-04
3.369246E+03	-6.636338E-04	-1.239056E-04
3.379040E+03	-6.591398E-04	-1.230548E-04
3.388834E+03	-6.546159E-04	-1.221986E-04
3.398629E+03	-6.500855E-04	-1.213414E-04
3.408423E+03	-6.455708E-04	-1.204872E-04
3.418217E+03	-6.410912E-04	-1.196398E-04
3.428012E+03	-6.366642E-04	-1.188023E-04
3.437806E+03	-6.323023E-04	-1.179772E-04
3.447600E+03	-6.280137E-04	-1.171658E-04
3.457395E+03	-6.238002E-04	-1.163687E-04
3.467189E+03	-6.196578E-04	-1.155849E-04
3.476983E+03	-6.155730E-04	-1.148120E-04
3.486778E+03	-6.115264E-04	-1.140464E-04
3.496572E+03	-6.074894E-04	-1.132827E-04
3.506366E+03	-6.034281E-04	-1.125147E-04
3.516161E+03	-5.993019E-04	-1.117347E-04
3.525955E+03	-5.950667E-04	-1.109345E-04
3.535749E+03	-5.906758E-04	-1.101055E-04
3.545544E+03	-5.860835E-04	-1.092391E-04
3.555338E+03	-5.812485E-04	-1.083276E-04
3.565132E+03	-5.761384E-04	-1.073650E-04
3.574927E+03	-5.707310E-04	-1.063473E-04
3.584721E+03	-5.650193E-04	-1.052730E-04
3.594515E+03	-5.590129E-04	-1.041440E-04
3.604310E+03	-5.527403E-04	-1.029657E-04
3.614104E+03	-5.462503E-04	-1.017471E-04
3.623898E+03	-5.396126E-04	-1.005013E-04
3.633692E+03	-5.329171E-04	-9.924489E-05
3.643487E+03	-5.262729E-04	-9.799833E-05
3.653281E+03	-5.198055E-04	-9.678493E-05
3.663075E+03	-5.136544E-04	-9.563064E-05
3.672870E+03	-5.079686E-04	-9.456323E-05
3.682664E+03	-5.029041E-04	-9.361166E-05
3.692458E+03	-4.986185E-04	-9.280526E-05
3.702253E+03	-4.952690E-04	-9.217325E-05
3.712047E+03	-4.930098E-04	-9.174425E-05
3.721841E+03	-4.919860E-04	-9.154524E-05
3.731636E+03	-4.923362E-04	-9.160191E-05
3.741430E+03	-4.941866E-04	-9.193771E-05
3.751224E+03	-4.976497E-04	-9.257344E-05
3.761019E+03	-5.028234E-04	-9.352727E-05
3.770813E+03	-5.097866E-04	-9.481376E-05
3.780607E+03	-5.185969E-04	-9.644353E-05
3.790402E+03	-5.292865E-04	-9.842249E-05
3.800196E+03	-5.418571E-04	-1.007509E-04
3.809990E+03	-5.562750E-04	-1.034223E-04
3.819785E+03	-5.724664E-04	-1.064230E-04
3.829579E+03	-5.903105E-04	-1.097304E-04
3.839373E+03	-6.096383E-04	-1.133130E-04
3.849167E+03	-6.302276E-04	-1.171294E-04
3.858962E+03	-6.518053E-04	-1.211289E-04
3.868756E+03	-6.740515E-04	-1.252519E-04
3.878550E+03	-6.966053E-04	-1.294314E-04
3.888345E+03	-7.190798E-04	-1.335955E-04
3.898139E+03	-7.410750E-04	-1.376698E-04
3.907933E+03	-7.621974E-04	-1.415814E-04
3.917728E+03	-7.820795E-04	-1.452620E-04
3.927522E+03	-8.003967E-04	-1.486513E-04
3.937316E+03	-8.168884E-04	-1.517011E-04
3.947111E+03	-8.313675E-04	-1.543768E-04
3.956905E+03	-8.437300E-04	-1.566590E-04
3.966699E+03	-8.539569E-04	-1.585445E-04
3.976494E+03	-8.621125E-04	-1.600451E-04
3.986288E+03	-8.683333E-04	-1.611865E-04
3.996082E+03	-8.728161E-04	-1.620051E-04
4.005877E+03	-8.758037E-04	-1.625462E-04
4.015671E+03	-8.775651E-04	-1.628597E-04
4.025465E+03	-8.783808E-04	-1.629977E-04
4.035260E+03	-8.785265E-04	-1.630115E-04
4.045054E+03	-8.782595E-04	-1.629488E-04
4.054848E+03	-8.778103E-04	-1.628525E-04
4.064643E+03	-8.773724E-04	-1.627583E-04
4.074437E+03	-8.771018E-04	-1.626952E-04
4.084231E+03	-8.771113E-04	-1.626843E-04
4.094025E+03	-8.774722E-04	-1.627385E-04
4.103820E+03	-8.782173E-04	-1.628642E-04
4.113614E+03	-8.793426E-04	-1.630604E-04
4.123408E+03	-8.808116E-04	-1.633204E-04
4.133203E+03	-8.825617E-04	-1.636326E-04
4.142997E+03	-8.845080E-04	-1.639813E-04
4.152791E+03	-8.865502E-04	-1.643478E-04
4.162586E+03	-8.885754E-04	-1.647112E-04
4.172380E+03	-8.904658E-04	-1.650496E-04
4.182174E+03	-8.921007E-04	-1.653408E-04
4.191969E+03	-8.933643E-04	-1.655633E-04
4.201763E+03	-8.941468E-04	-1.656967E-04
4.211557E+03	-8.943517E-04	-1.657232E-04
4.221352E+03	-8.938986E-04	-1.656279E-04
4.231146E+03	-8.927315E-04	-1.654004E-04
4.240940E+03	-8.908197E-04	-1.650352E-04
4.250735E+03	-8.881662E-04	-1.645328E-04
4.260529E+03	-8.848108E-04	-1.639005E-04
4.270323E+03	-8.808342E-04	-1.631534E-04
4.280118E+03	-8.763603E-04	-1.623144E-04
4.289912E+03	-8.715565E-04	-1.614146E-04
4.299706E+03	-8.666292E-04	-1.604921E-04
4.309500E+03	-8.618134E-04	-1.595906E-04
4.319295E+03	-8.573634E-04	-1.587570E-04
4.329089E+03	-8.535426E-04	-1.580402E-04
4.338883E+03	-8.506077E-04	-1.574877E-04
4.348678E+03	-8.487992E-04	-1.571438E-04
4.358472E+03	-8.483225E-04	-1.570467E-04
4.368266E+03	-8.493424E-04	-1.572268E-04
4.378061E+03	-8.519715E-04	-1.577049E-04
4.387855E+03	-8.562663E-04	-1.584914E-04
4.397649E+03	-8.622260E-04	-1.595861E-04
4.407444E+03	-8.697879E-04	-1.609773E-04
4.417238E+03	-8.788310E-04	-1.626427E-04
4.427032E+03	-8.891808E-04	-1.645499E-04
4.436827E+03	-9.006099E-04	-1.666567E-04
4.446621E+03	-9.128496E-04	-1.689134E-04
4.456415E+03	-9.255962E-04	-1.712639E-04
4.466210E+03	-9.385216E-04	-1.736474E-04
4.476004E+03	-9.512857E-04	-1.760010E-04
4.485798E+03	-9.635460E-04	-1.782613E-04
4.495593E+03	-9.749699E-04	-1.803668E-04
4.505387E+03	-9.852443E-04	-1.822597E-04
4.515181E+03	-9.940826E-04	-1.838869E-04
4.524976E+03	-1.001233E-03	-1.852020E-04
4.534770E+03	-1.006483E-03	-1.861655E-04
4.544564E+03	-1.009661E-03	-1.867459E-04
4.554358E+03	-1.010639E-03	-1.869195E-04
4.564153E+03	-1.009334E-03	-1.866709E-04
4.573947E+03	-1.005706E-03	-1.859931E-04
4.583741E+03	-9.997635E-04	-1.848874E-04
4.593536E+03	-9.915584E-04	-1.833636E-04
4.603330E+03	-9.811876E-04	-1.814395E-04
4.613124E+03	-9.687911E-04	-1.791411E-04
4.622919E+03	-9.545514E-04	-1.765022E-04
4.632713E+03	-9.386878E-04	-1.735634E-04
4.642507E+03	-9.214519E-04	-1.703712E-04
4.652302E+03	-9.031219E-04	-1.669771E-04
4.662096E+03	-8.839951E-04	-1.634360E-04
4.671890E+03	-8.643775E-04	-1.598044E-04
4.681685E+03	-8.445786E-04	-1.561398E-04
4.691479E+03	-8.248985E-04	-1.524974E-04
4.701273E+03	-8.056235E-04	-1.489302E-04
4.711068E+03	-7.870149E-04	-1.454866E-04
4.720862E+03	-7.693054E-04	-1.422094E-04
4.730656E+03	-7.526939E-04	-1.391355E-04
4.740451E+03	-7.373416E-04	-1.362946E-04
4.750245E+03	-7.233729E-04	-1.337097E-04
4.760039E+03	-7.108734E-04	-1.313966E-04
4.769833E+03	-6.998908E-04	-1.293641E-04
4.779628E+03	-6.904388E-04	-1.276147E-04
4.789422E+03	-6.824965E-04	-1.261445E-04
4.799216E+03	-6.760111E-04	-1.249437E-04
4.809011E+03	-6.709009E-04	-1.239973E-04
4.818805E+03	-6.670560E-04	-1.232848E-04
4.828599E+03	-6.643452E-04	-1.227821E-04
4.838394E+03	-6.626168E-04	-1.224611E-04
4.848188E+03	-6.617047E-04	-1.222910E-04
4.857982E+03	-6.614393E-04	-1.222406E-04
4.867777E+03	-6.616523E-04	-1.222788E-04
4.877571E+03	-6.621867E-04	-1.223764E-04
4.887365E+03	-6.629091E-04	-1.225089E-04
4.897160E+03	-6.637167E-04	-1.226572E-04
4.906954E+03	-6.645426E-04	-1.228091E-04
4.916748E+03	-6.653615E-04	-1.229598E-04
4.926543E+03	-6.661880E-04	-1.231120E-04
4.936337E+03	-6.670735E-04	-1.232752E-04
4.946131E+03	-6.680984E-04	-1.234643E-04
4.955926E+03	-6.693627E-04	-1.236978E-04
4.965720E+03	-6.709732E-04	-1.239954E-04
4.975514E+03	-6.730347E-04	-1.243764E-04
4.985309E+03	-6.756388E-04	-1.248578E-04
4.995103E+03	-6.788550E-04	-1.254525E-04
5.004897E+03	-6.827273E-04	-1.261686E-04
5.014691E+03	-6.872671E-04	-1.270082E-04
5.024486E+03	-6.924582E-04	-1.279682E-04
5.034280E+03	-6.982542E-04	-1.290402E-04
5.044074E+03	-7.045848E-04	-1.302111E-04
5.053869E+03	-7.113622E-04	-1.314648E-04
5.063663E+03	-7.184844E-04	-1.327824E-04
5.073457E+03	-7.258422E-04	-1.341436E-04
5.083252E+03	-7.333229E-04	-1.355278E-04
5.093046E+03	-7.408159E-04	-1.369144E-04
5.102840E+03	-7.482113E-04	-1.382832E-04
5.112635E+03	-7.554026E-04	-1.396144E-04
5.122429E+03	-7.622852E-04	-1.408888E-04
5.132223E+03	-7.687552E-04	-1.420871E-04
5.142018E+03	-7.747109E-04	-1.431905E-04
5.151812E+03	-7.800487E-04	-1.441799E-04
5.161606E+03	-7.846664E-04	-1.450365E-04
5.171401E+03	-7.884668E-04	-1.457422E-04
5.181195E+03	-7.913572E-04	-1.462798E-04
5.190989E+03	-7.932571E-04	-1.466346E-04
5.200784E+03	-7.941009E-04	-1.467943E-04
5.210578E+03	-7.938424E-04	-1.467505E-04
5.220372E+03	-7.924595E-04	-1.464989E-04
5.230167E+03	-7.899559E-04	-1.460403E-04
5.239961E+03	-7.863622E-04	-1.453804E-04
5.249755E+03	-7.817345E-04	-1.445294E-04
5.259549E+03	-7.761532E-04	-1.435022E-04
5.269344E+03	-7.697195E-04	-1.423175E-04
5.279138E+03	-7.625505E-04	-1.409969E-04
5.288932E+03	-7.547753E-04	-1.395644E-04
5.298727E+03	-7.465272E-04	-1.380444E-04
5.308521E+03	-7.379427E-04	-1.364623E-04
5.318315E+03	-7.291536E-04	-1.348424E-04
5.328110E+03	-7.202846E-04	-1.332078E-04
5.337904E+03	-7.114510E-04	-1.315798E-04
5.347698E+03	-7.027531E-04	-1.299768E-04
5.357493E+03	-6.942778E-04	-1.284151E-04
5.367287E+03	-6.860897E-04	-1.269066E-04
5.377081E+03	-6.782270E-04	-1.254582E-04
5.386876E+03	-6.706954E-04	-1.240711E-04
5.396670E+03	-6.634635E-04	-1.227395E-04
5.406464E+03	-6.564779E-04	-1.214534E-04
5.416259E+03	-6.496748E-04	-1.202012E-04
5.426053E+03	-6.429924E-04	-1.189712E-04
5.435847E+03	-6.363755E-04	-1.177534E-04
5.445642E+03	-6.297829E-04	-1.165401E-04
5.455436E+03	-6.231897E-04	-1.153267E-04
5.465230E+03	-6.165861E-04	-1.141113E-04
5.475024E+03	-6.099815E-04	-1.128958E-04
5.484819E+03	-6.033988E-04	-1.116843E-04
5.494613E+03	-5.968785E-04	-1.104843E-04
5.504407E+03	-5.904697E-04	-1.093049E-04
5.514202E+03	-5.842335E-04	-1.081574E-04
5.523996E+03	-5.782365E-04	-1.070542E-04
5.533790E+03	-5.725504E-04	-1.060085E-04
5.543585E+03	-5.672498E-04	-1.050341E-04
5.553379E+03	-5.624113E-04	-1.041453E-04
5.563173E+03	-5.581130E-04	-1.033565E-04
5.572968E+03	-5.544337E-04	-1.026824E-04
5.582762E+03	-5.514529E-04	-1.021376E-04
5.592556E+03	-5.492497E-04	-1.017368E-04
5.602351E+03	-5.479019E-04	-1.014946E-04
5.612145E+03	-5.474842E-04	-1.014247E-04
5.621939E+03	-5.480666E-04	-1.015402E-04
5.631734E+03	-5.497121E-04	-1.018527E-04
5.641528E+03	-5.524737E-04	-1.023722E-04
5.651322E+03	-5.563926E-04	-1.031063E-04
5.661117E+03	-5.614949E-04	-1.040600E-04
5.670911E+03	-5.677896E-04	-1.052348E-04
5.680705E+03	-5.752662E-04	-1.066291E-04
5.690500E+03	-5.838934E-04	-1.082369E-04
5.700294E+03	-5.936174E-04	-1.100483E-04
5.710088E+03	-6.043612E-04	-1.120493E-04
5.719882E+03	-6.160249E-04	-1.142212E-04
5.729677E+03	-6.284857E-04	-1.165413E-04
5.739471E+03	-6.416004E-04	-1.189832E-04
5.749265E+03	-6.552039E-04	-1.215162E-04
5.759060E+03	-6.691166E-04	-1.241071E-04
5.768854E+03	-6.831450E-04	-1.267200E-04
5.778648E+03	-6.970859E-04	-1.293171E-04
5.788443E+03	-7.107343E-04	-1.318606E-04
5.798237E+03	-7.238862E-04	-1.343124E-04
5.808031E+03	-7.363510E-04	-1.366373E-04
5.817826E+03	-7.479531E-04	-1.388025E-04
5.827620E+03	-7.585402E-04	-1.407799E-04
5.837414E+03	-7.679926E-04	-1.425470E-04
5.847209E+03	-7.762209E-04	-1.440873E-04
5.857003E+03	-7.831742E-04	-1.453913E-04
5.866797E+03	-7.888360E-04	-1.464558E-04
5.876592E+03	-7.932226E-04	-1.472839E-04
5.886386E+03	-7.963806E-04	-1.478839E-04
5.896180E+03	-7.983804E-04	-1.482691E-04
5.905975E+03	-7.993096E-04	-1.484556E-04
5.915769E+03	-7.992665E-04	-1.484616E-04
5.925563E+03	-7.983551E-04	-1.483063E-04
5.935357E+03	-7.966785E-04	-1.480089E-04
5.945152E+03	-7.943357E-04	-1.475878E-04
5.954946E+03	-7.914158E-04	-1.470593E-04
5.964740E+03	-7.879994E-04	-1.464386E-04
5.974535E+03	-7.841544E-04	-1.457382E-04
5.984329E+03	-7.799364E-04	-1.449683E-04
5.994123E+03	-7.753919E-04	-1.441376E-04
6.003918E+03	-7.705576E-04	-1.432530E-04
6.013712E+03	-7.654641E-04	-1.423200E-04
6.023506E+03	-7.601407E-04	-1.413441E-04
6.033301E+03	-7.546151E-04	-1.403305E-04
6.043095E+03	-7.489233E-04	-1.392859E-04
6.052889E+03	-7.431083E-04	-1.382181E-04
6.062684E+03	-7.372278E-04	-1.371380E-04
6.072478E+03	-7.313576E-04	-1.360596E-04
6.082272E+03	-7.255911E-04	-1.350003E-04
6.092067E+03	-7.200428E-04	-1.339815E-04
6.101861E+03	-7.148426E-04	-1.330272E-04
6.111655E+03	-7.101266E-04	-1.321629E-04
6.121450E+03	-7.060267E-04	-1.314131E-04
6.131244E+03	-7.026629E-04	-1.308003E-04
6.141038E+03	-7.001418E-04	-1.303442E-04
6.150833E+03	-6.985604E-04	-1.300630E-04
6.160627E+03	-6.979982E-04	-1.299715E-04
6.170421E+03	-6.985176E-04	-1.300815E-04
6.180215E+03	-7.001552E-04	-1.303998E-04
6.190010E+03	-7.029191E-04	-1.309279E-04
6.199804E+03	-7.067877E-04	-1.316620E-04
6.209598E+03	-7.117088E-04	-1.325923E-04
6.219393E+03	-7.175991E-04	-1.337034E-04
6.229187E+03	-7.243499E-04	-1.349750E-04
6.238981E+03	-7.318276E-04	-1.363824E-04
6.248776E+03	-7.398814E-04	-1.378975E-04
6.258570E+03	-7.483443E-04	-1.394892E-04
6.268364E+03	-7.570442E-04	-1.411254E-04
6.278159E+03	-7.658076E-04	-1.427737E-04
6.287953E+03	-7.744642E-04	-1.444025E-04
6.297747E+03	-7.828585E-04	-1.459828E-04
6.307542E+03	-7.908504E-04	-1.474883E-04
6.317336E+03	-7.983248E-04	-1.488976E-04
6.327130E+03	-8.051938E-04	-1.501943E-04
6.336925E+03	-8.113995E-04	-1.513675E-04
6.346719E+03	-8.169187E-04	-1.524128E-04
6.356513E+03	-8.217614E-04	-1.533322E-04
6.366308E+03	-8.259699E-04	-1.541334E-04
6.376102E+03	-8.296159E-04	-1.548298E-04
6.385896E+03	-8.327975E-04	-1.554396E-04
6.395690E+03	-8.356316E-04	-1.559847E-04
6.405485E+03	-8.382518E-04	-1.564900E-04
6.415279E+03	-8.407962E-04	-1.569812E-04
6.425073E+03	-8.434042E-04	-1.574844E-04
6.434868E+03	-8.462098E-04	-1.580245E-04
6.444662E+03	-8.493305E-04	-1.586237E-04
6.454456E+03	-8.528666E-04	-1.593005E-04
6.464251E+03	-8.568924E-04	-1.600689E-04
6.474045E+03	-8.614523E-04	-1.609373E-04
6.483839E+03	-8.665617E-04	-1.619084E-04
6.493634E+03	-8.722039E-04	-1.629794E-04
6.503428E+03	-8.783317E-04	-1.641412E-04
6.513222E+03	-8.848711E-04	-1.653803E-04
6.523017E+03	-8.917268E-04	-1.666786E-04
6.532811E+03	-8.987857E-04	-1.680152E-04
6.542605E+03	-9.059237E-04	-1.693669E-04
6.552400E+03	-9.130130E-04	-1.707097E-04
6.562194E+03	-9.199283E-04	-1.720202E-04
6.571988E+03	-9.265526E-04	-1.732765E-04
6.581783E+03	-9.327797E-04	-1.744588E-04
6.591577E+03	-9.385231E-04	-1.755508E-04
6.601371E+03	-9.437130E-04	-1.765395E-04
6.611166E+03	-9.483017E-04	-1.774158E-04
6.620960E+03	-9.522626E-04	-1.781748E-04
6.630754E+03	-9.555882E-04	-1.788151E-04
6.640548E+03	-9.582907E-04	-1.793388E-04
6.650343E+03	-9.604010E-04	-1.797518E-04
6.660137E+03	-9.619623E-04	-1.800621E-04
6.669931E+03	-9.630307E-04	-1.802801E-04
6.679726E+03	-9.636706E-04	-1.804179E-04
6.689520E+03	-9.639542E-04	-1.804890E-04
6.699314E+03	-9.639551E-04	-1.805072E-04
6.709109E+03	-9.637482E-04	-1.804863E-04
6.718903E+03	-9.634085E-04	-1.804406E-04
6.728697E+03	-9.630059E-04	-1.803830E-04
6.738492E+03	-9.626081E-04	-1.803263E-04
6.748286E+03	-9.622781E-04	-1.802822E-04
6.758080E+03	-9.620738E-04	-1.802616E-04
6.767875E+03	-9.620473E-04	-1.802743E-04
6.777669E+03	-9.622467E-04	-1.803293E-04
6.787463E+03	-9.627157E-04	-1.804348E-04
6.797258E+03	-9.634932E-04	-1.805981E-04
6.807052E+03	-9.646137E-04	-1.808256E-04
6.816846E+03	-9.661063E-04	-1.811230E-04
6.826641E+03	-9.679940E-04	-1.814944E-04
6.836435E+03	-9.702938E-04	-1.819431E-04
6.846229E+03	-9.730138E-04	-1.824706E-04
6.856024E+03	-9.761526E-04	-1.830768E-04
6.865818E+03	-9.797006E-04	-1.837598E-04
6.875612E+03	-9.836376E-04	-1.845158E-04
6.885406E+03	-9.879326E-04	-1.853391E-04
6.895201E+03	-9.925468E-04	-1.862223E-04
6.904995E+03	-9.974341E-04	-1.871569E-04
6.914789E+03	-1.002542E-03	-1.881330E-04
6.924584E+03	-1.007815E-03	-1.891403E-04
6.934378E+03	-1.013197E-03	-1.901682E-04
6.944172E+03	-1.018634E-03	-1.912064E-04
6.953967E+03	-1.024074E-03	-1.922454E-04
6.963761E+03	-1.029471E-03	-1.932765E-04
6.973555E+03	-1.034785E-03	-1.942922E-04
6.983350E+03	-1.039984E-03	-1.952863E-04
6.993144E+03	-1.045044E-03	-1.962544E-04
7.002938E+03	-1.049945E-03	-1.971929E-04
7.012733E+03	-1.054676E-03	-1.980995E-04
7.022527E+03	-1.059230E-03	-1.989730E-04
7.032321E+03	-1.063603E-03	-1.998124E-04
7.042116E+03	-1.067790E-03	-2.006171E-04
7.051910E+03	-1.071787E-03	-2.013862E-04
7.061704E+03	-1.075586E-03	-2.021182E-04
7.071499E+03	-1.079176E-03	-2.028109E-04
7.081293E+03	-1.082537E-03	-2.034606E-04
7.091087E+03	-1.085644E-03	-2.040626E-04
7.100881E+03	-1.088463E-03	-2.046105E-04
7.110676E+03	-1.090953E-03	-2.050966E-04
7.120470E+03	-1.093067E-03	-2.055121E-04
7.130264E+03	-1.094750E-03	-2.058466E-04
7.140059E+03	-1.095945E-03	-2.060892E-04
7.149853E+03	-1.096591E-03	-2.062286E-04
7.159647E+03	-1.096626E-03	-2.062529E-04
7.169442E+03	-1.095989E-03	-2.061508E-04
7.179236E+03	-1.094622E-03	-2.059114E-04
7.189030E+03	-1.092472E-03	-2.055244E-04
7.198825E+03	-1.089494E-03	-2.049816E-04
7.208619E+03	-1.085650E-03	-2.042757E-04
7.218413E+03	-1.080915E-03	-2.034018E-04
7.228208E+03	-1.075273E-03	-2.023572E-04
7.238002E+03	-1.068723E-03	-2.011414E-04
7.247796E+03	-1.061275E-03	-1.997563E-04
7.257591E+03	-1.052954E-03	-1.982065E-04
7.267385E+03	-1.043795E-03	-1.964987E-04
7.277179E+03	-1.033846E-03	-1.946417E-04
7.286974E+03	-1.023163E-03	-1.926461E-04
7.296768E+03	-1.011812E-03	-1.905244E-04
7.306562E+03	-9.998642E-04	-1.882900E-04
7.316357E+03	-9.873961E-04	-1.859571E-04
7.326151E+03	-9.744879E-04	-1.835409E-04
7.335945E+03	-9.612213E-04	-1.810567E-04
7.345739E+03	-9.476791E-04	-1.785201E-04
7.355534E+03	-9.339475E-04	-1.759474E-04
