#wls	flux	fluxerr
1.567091E+03	2.901596E-05	5.818297E-06
1.606268E+03	2.932630E-05	5.838083E-06
1.645446E+03	2.948354E-05	5.825686E-06
1.684623E+03	2.949145E-05	5.782492E-06
1.723800E+03	2.933344E-05	5.705937E-06
1.762977E+03	2.897522E-05	5.590186E-06
1.802155E+03	2.838088E-05	5.429342E-06
1.841332E+03	2.750370E-05	5.215754E-06
1.880509E+03	2.632216E-05	4.946875E-06
1.919687E+03	2.483328E-05	4.623827E-06
1.958864E+03	2.310626E-05	4.261138E-06
1.998041E+03	2.131448E-05	3.891930E-06
2.037218E+03	1.972426E-05	3.564895E-06
2.076396E+03	1.864760E-05	3.334887E-06
2.115573E+03	1.830917E-05	3.238847E-06
2.154750E+03	1.877806E-05	3.284598E-06
2.193928E+03	1.995474E-05	3.450069E-06
2.233105E+03	2.163713E-05	3.696295E-06
2.272282E+03	2.360904E-05	3.983450E-06
2.311459E+03	2.567824E-05	4.277429E-06
2.350637E+03	2.772734E-05	4.558044E-06
2.389814E+03	2.968766E-05	4.814021E-06
2.428991E+03	3.153495E-05	5.041827E-06
2.468168E+03	3.326988E-05	5.242097E-06
2.507346E+03	3.489635E-05	5.415997E-06
2.546523E+03	3.643316E-05	5.566955E-06
2.585700E+03	3.790607E-05	5.699299E-06
2.624878E+03	3.933560E-05	5.816347E-06
2.664055E+03	4.073025E-05	5.919483E-06
2.703232E+03	4.210720E-05	6.011258E-06
2.742409E+03	4.349307E-05	6.095379E-06
2.781587E+03	4.489729E-05	6.172917E-06
2.820764E+03	4.633391E-05	6.245465E-06
2.859941E+03	4.781676E-05	6.314439E-06
2.899119E+03	4.937123E-05	6.382592E-06
2.938296E+03	5.100772E-05	6.450495E-06
2.948090E+03	5.143042E-05	6.467430E-06
2.957884E+03	5.186342E-05	6.484928E-06
2.967679E+03	5.230145E-05	6.502312E-06
2.977473E+03	5.274611E-05	6.519767E-06
2.987267E+03	5.321335E-05	6.539233E-06
2.997062E+03	5.369182E-05	6.559276E-06
3.006856E+03	5.419151E-05	6.581081E-06
3.016650E+03	5.471153E-05	6.604490E-06
3.026445E+03	5.524558E-05	6.628704E-06
3.036239E+03	5.580414E-05	6.654937E-06
3.046033E+03	5.637015E-05	6.681111E-06
3.055828E+03	5.695986E-05	6.709121E-06
3.065622E+03	5.756199E-05	6.737591E-06
3.075416E+03	5.818203E-05	6.767131E-06
3.085211E+03	5.881444E-05	6.797058E-06
3.095005E+03	5.947059E-05	6.828645E-06
3.104799E+03	6.014525E-05	6.861241E-06
3.114594E+03	6.083329E-05	6.894220E-06
3.124388E+03	6.154091E-05	6.928248E-06
3.134182E+03	6.227451E-05	6.963992E-06
3.143976E+03	6.302378E-05	7.000246E-06
3.153771E+03	6.380107E-05	7.038334E-06
3.163565E+03	6.459635E-05	7.077091E-06
3.173359E+03	6.542239E-05	7.117862E-06
3.183154E+03	6.627515E-05	7.160137E-06
3.192948E+03	6.715650E-05	7.204054E-06
3.202742E+03	6.807421E-05	7.250370E-06
3.212537E+03	6.902489E-05	7.298641E-06
3.222331E+03	7.001111E-05	7.349055E-06
3.232125E+03	7.104146E-05	7.402427E-06
3.241920E+03	7.211333E-05	7.458377E-06
3.251714E+03	7.323016E-05	7.517160E-06
3.261508E+03	7.440750E-05	7.580253E-06
3.271303E+03	7.563790E-05	7.646758E-06
3.281097E+03	7.692596E-05	7.717008E-06
3.290891E+03	7.828269E-05	7.791963E-06
3.300686E+03	7.971381E-05	7.872021E-06
3.310480E+03	8.122553E-05	7.957612E-06
3.320274E+03	8.282471E-05	8.049210E-06
3.330069E+03	8.451890E-05	8.147333E-06
3.339863E+03	8.631015E-05	8.251948E-06
3.349657E+03	8.821999E-05	8.364863E-06
3.359452E+03	9.025230E-05	8.486158E-06
3.369246E+03	9.241812E-05	8.616566E-06
3.379040E+03	9.472962E-05	8.756890E-06
3.388834E+03	9.720022E-05	8.908011E-06
3.398629E+03	9.985141E-05	9.071496E-06
3.408423E+03	1.026930E-04	9.247790E-06
3.418217E+03	1.057498E-04	9.438657E-06
3.428012E+03	1.090351E-04	9.644739E-06
3.437806E+03	1.125707E-04	9.867403E-06
3.447600E+03	1.163955E-04	1.010941E-05
3.457395E+03	1.205219E-04	1.037115E-05
3.467189E+03	1.249791E-04	1.065436E-05
3.476983E+03	1.298151E-04	1.096230E-05
3.486778E+03	1.350499E-04	1.129574E-05
3.496572E+03	1.407387E-04	1.165826E-05
3.506366E+03	1.469074E-04	1.205090E-05
3.516161E+03	1.536191E-04	1.247763E-05
3.525955E+03	1.609055E-04	1.293966E-05
3.535749E+03	1.688345E-04	1.344103E-05
3.545544E+03	1.774491E-04	1.398355E-05
3.555338E+03	1.868152E-04	1.457072E-05
3.565132E+03	1.969818E-04	1.520449E-05
3.574927E+03	2.080120E-04	1.588776E-05
3.584721E+03	2.199847E-04	1.662438E-05
3.594515E+03	2.329729E-04	1.741756E-05
3.604310E+03	2.470420E-04	1.826968E-05
3.614104E+03	2.622875E-04	1.918511E-05
3.623898E+03	2.787980E-04	2.016744E-05
3.633692E+03	2.966537E-04	2.121938E-05
3.643487E+03	3.159840E-04	2.234683E-05
3.653281E+03	3.368655E-04	2.355163E-05
3.663075E+03	3.594429E-04	2.484007E-05
3.672870E+03	3.838197E-04	2.621517E-05
3.682664E+03	4.101218E-04	2.768116E-05
3.692458E+03	4.384805E-04	2.924221E-05
3.702253E+03	4.690333E-04	3.090253E-05
3.712047E+03	5.019449E-04	3.266764E-05
3.721841E+03	5.373421E-04	3.454015E-05
3.731636E+03	5.753751E-04	3.652376E-05
3.741430E+03	6.162229E-04	3.862352E-05
3.751224E+03	6.600434E-04	4.084264E-05
3.761019E+03	7.069674E-04	4.318218E-05
3.770813E+03	7.571793E-04	4.564606E-05
3.780607E+03	8.108031E-04	4.823407E-05
3.790402E+03	8.680194E-04	5.094896E-05
3.800196E+03	9.289735E-04	5.379092E-05
3.809990E+03	9.937635E-04	5.675701E-05
3.819785E+03	1.062548E-03	5.984748E-05
3.829579E+03	1.135435E-03	6.305935E-05
3.839373E+03	1.212516E-03	6.638845E-05
3.849167E+03	1.293861E-03	6.982914E-05
3.858962E+03	1.379463E-03	7.337178E-05
3.868756E+03	1.469383E-03	7.701014E-05
3.878550E+03	1.563603E-03	8.073398E-05
3.888345E+03	1.662070E-03	8.453138E-05
3.898139E+03	1.764693E-03	8.838877E-05
3.907933E+03	1.871275E-03	9.228787E-05
3.917728E+03	1.981698E-03	9.621481E-05
3.927522E+03	2.095676E-03	1.001482E-04
3.937316E+03	2.213008E-03	1.040718E-04
3.947111E+03	2.333392E-03	1.079652E-04
3.956905E+03	2.456411E-03	1.118041E-04
3.966699E+03	2.581761E-03	1.155702E-04
3.976494E+03	2.708957E-03	1.192389E-04
3.986288E+03	2.837568E-03	1.227890E-04
3.996082E+03	2.967149E-03	1.262005E-04
4.005877E+03	3.097251E-03	1.294545E-04
4.015671E+03	3.227432E-03	1.325339E-04
4.025465E+03	3.357269E-03	1.354239E-04
4.035260E+03	3.486367E-03	1.381119E-04
4.045054E+03	3.614266E-03	1.405844E-04
4.054848E+03	3.740659E-03	1.428350E-04
4.064643E+03	3.865289E-03	1.448603E-04
4.074437E+03	3.988062E-03	1.466637E-04
4.084231E+03	4.108642E-03	1.482403E-04
4.094025E+03	4.227066E-03	1.495995E-04
4.103820E+03	4.343211E-03	1.507451E-04
4.113614E+03	4.457107E-03	1.516869E-04
4.123408E+03	4.568942E-03	1.524396E-04
4.133203E+03	4.678582E-03	1.530075E-04
4.142997E+03	4.786132E-03	1.534029E-04
4.152791E+03	4.891689E-03	1.536378E-04
4.162586E+03	4.995443E-03	1.537270E-04
4.172380E+03	5.097206E-03	1.536739E-04
4.182174E+03	5.196955E-03	1.534873E-04
4.191969E+03	5.294613E-03	1.531749E-04
4.201763E+03	5.390020E-03	1.527424E-04
4.211557E+03	5.482920E-03	1.521936E-04
4.221352E+03	5.572850E-03	1.515274E-04
4.231146E+03	5.659247E-03	1.507416E-04
4.240940E+03	5.741708E-03	1.498394E-04
4.250735E+03	5.819506E-03	1.488169E-04
4.260529E+03	5.892010E-03	1.476740E-04
4.270323E+03	5.958591E-03	1.464120E-04
4.280118E+03	6.018443E-03	1.450292E-04
4.289912E+03	6.071384E-03	1.435397E-04
4.299706E+03	6.116968E-03	1.419515E-04
4.309500E+03	6.155636E-03	1.402930E-04
4.319295E+03	6.188607E-03	1.386087E-04
4.329089E+03	6.216970E-03	1.369376E-04
4.338883E+03	6.242234E-03	1.353257E-04
4.348678E+03	6.266112E-03	1.338207E-04
4.358472E+03	6.290000E-03	1.324609E-04
4.368266E+03	6.315516E-03	1.312875E-04
4.378061E+03	6.344343E-03	1.303410E-04
4.387855E+03	6.377838E-03	1.296537E-04
4.397649E+03	6.417395E-03	1.292576E-04
4.407444E+03	6.464182E-03	1.291797E-04
4.417238E+03	6.519362E-03	1.294439E-04
4.427032E+03	6.584064E-03	1.300680E-04
4.436827E+03	6.658898E-03	1.310589E-04
4.446621E+03	6.744635E-03	1.324272E-04
4.456415E+03	6.841688E-03	1.341770E-04
4.466210E+03	6.949990E-03	1.363034E-04
4.476004E+03	7.069639E-03	1.388057E-04
4.485798E+03	7.200064E-03	1.416701E-04
4.495593E+03	7.340451E-03	1.448788E-04
4.505387E+03	7.489599E-03	1.484062E-04
4.515181E+03	7.645914E-03	1.522185E-04
4.524976E+03	7.807279E-03	1.562710E-04
4.534770E+03	7.971322E-03	1.605127E-04
4.544564E+03	8.135479E-03	1.648871E-04
4.554358E+03	8.296799E-03	1.693280E-04
4.564153E+03	8.452003E-03	1.737605E-04
4.573947E+03	8.597888E-03	1.781083E-04
4.583741E+03	8.731405E-03	1.822961E-04
4.593536E+03	8.849403E-03	1.862436E-04
4.603330E+03	8.949256E-03	1.898795E-04
4.613124E+03	9.028316E-03	1.931295E-04
4.622919E+03	9.085079E-03	1.959424E-04
4.632713E+03	9.117749E-03	1.982594E-04
4.642507E+03	9.125959E-03	2.000520E-04
4.652302E+03	9.109260E-03	2.012903E-04
4.662096E+03	9.068079E-03	2.019641E-04
4.671890E+03	9.003580E-03	2.020806E-04
4.681685E+03	8.917439E-03	2.016606E-04
4.691479E+03	8.811398E-03	2.007284E-04
4.701273E+03	8.687969E-03	1.993280E-04
4.711068E+03	8.549813E-03	1.975097E-04
4.720862E+03	8.399909E-03	1.953339E-04
4.730656E+03	8.241058E-03	1.928594E-04
4.740451E+03	8.076228E-03	1.901515E-04
4.750245E+03	7.908548E-03	1.872820E-04
4.760039E+03	7.740553E-03	1.843106E-04
4.769833E+03	7.575086E-03	1.813062E-04
4.779628E+03	7.414346E-03	1.783241E-04
4.789422E+03	7.260740E-03	1.754257E-04
4.799216E+03	7.116099E-03	1.726597E-04
4.809011E+03	6.982205E-03	1.700741E-04
4.818805E+03	6.860456E-03	1.677080E-04
4.828599E+03	6.752063E-03	1.655964E-04
4.838394E+03	6.657637E-03	1.637592E-04
4.848188E+03	6.577802E-03	1.622165E-04
4.857982E+03	6.512848E-03	1.609797E-04
4.867777E+03	6.462684E-03	1.600504E-04
4.877571E+03	6.426909E-03	1.594217E-04
4.887365E+03	6.404829E-03	1.590789E-04
4.897160E+03	6.395479E-03	1.590000E-04
4.906954E+03	6.397623E-03	1.591557E-04
4.916748E+03	6.409774E-03	1.595096E-04
4.926543E+03	6.430410E-03	1.600243E-04
4.936337E+03	6.457379E-03	1.606463E-04
4.946131E+03	6.488935E-03	1.613321E-04
4.955926E+03	6.522897E-03	1.620272E-04
4.965720E+03	6.557107E-03	1.626783E-04
4.975514E+03	6.589761E-03	1.632407E-04
4.985309E+03	6.618986E-03	1.636687E-04
4.995103E+03	6.643391E-03	1.639292E-04
5.004897E+03	6.661677E-03	1.639917E-04
5.014691E+03	6.673346E-03	1.638463E-04
5.024486E+03	6.678186E-03	1.634904E-04
5.034280E+03	6.676329E-03	1.629303E-04
5.044074E+03	6.668488E-03	1.621869E-04
5.053869E+03	6.655498E-03	1.612841E-04
5.063663E+03	6.638491E-03	1.602528E-04
5.073457E+03	6.618860E-03	1.591301E-04
5.083252E+03	6.597629E-03	1.579441E-04
5.093046E+03	6.575898E-03	1.567241E-04
5.102840E+03	6.554667E-03	1.554971E-04
5.112635E+03	6.534563E-03	1.542806E-04
5.122429E+03	6.516158E-03	1.530906E-04
5.132223E+03	6.499641E-03	1.519344E-04
5.142018E+03	6.485171E-03	1.508180E-04
5.151812E+03	6.472596E-03	1.497407E-04
5.161606E+03	6.461706E-03	1.487004E-04
5.171401E+03	6.452208E-03	1.476932E-04
5.181195E+03	6.443747E-03	1.467142E-04
5.190989E+03	6.435928E-03	1.457579E-04
5.200784E+03	6.428325E-03	1.448183E-04
5.210578E+03	6.420514E-03	1.438897E-04
5.220372E+03	6.411977E-03	1.429647E-04
5.230167E+03	6.402387E-03	1.420402E-04
5.239961E+03	6.391365E-03	1.411123E-04
5.249755E+03	6.378488E-03	1.401764E-04
5.259549E+03	6.363518E-03	1.392318E-04
5.269344E+03	6.346305E-03	1.382799E-04
5.279138E+03	6.326948E-03	1.373272E-04
5.288932E+03	6.305478E-03	1.363788E-04
5.298727E+03	6.282471E-03	1.354513E-04
5.308521E+03	6.258445E-03	1.345593E-04
5.318315E+03	6.234426E-03	1.337284E-04
5.328110E+03	6.211718E-03	1.329894E-04
5.337904E+03	6.191651E-03	1.323731E-04
5.347698E+03	6.175904E-03	1.319135E-04
5.357493E+03	6.166473E-03	1.316491E-04
5.367287E+03	6.165076E-03	1.316123E-04
5.377081E+03	6.173658E-03	1.318409E-04
5.386876E+03	6.193236E-03	1.323530E-04
5.396670E+03	6.222482E-03	1.331171E-04
5.406464E+03	6.259510E-03	1.340900E-04
5.416259E+03	6.302236E-03	1.352240E-04
5.426053E+03	6.348443E-03	1.364687E-04
5.435847E+03	6.395766E-03	1.377698E-04
5.445642E+03	6.441732E-03	1.390706E-04
5.455436E+03	6.483864E-03	1.403134E-04
5.465230E+03	6.519537E-03	1.414370E-04
5.475024E+03	6.546030E-03	1.423772E-04
5.484819E+03	6.560876E-03	1.430748E-04
5.494613E+03	6.561583E-03	1.434696E-04
5.504407E+03	6.546237E-03	1.435132E-04
5.514202E+03	6.513078E-03	1.431606E-04
5.523996E+03	6.461069E-03	1.423824E-04
5.533790E+03	6.389632E-03	1.411596E-04
5.543585E+03	6.299062E-03	1.394928E-04
5.553379E+03	6.190174E-03	1.373947E-04
5.563173E+03	6.064664E-03	1.348983E-04
5.572968E+03	5.924526E-03	1.320445E-04
5.582762E+03	5.772247E-03	1.288859E-04
5.592556E+03	5.610595E-03	1.254826E-04
5.602351E+03	5.442548E-03	1.219004E-04
5.612145E+03	5.271021E-03	1.182047E-04
5.621939E+03	5.098771E-03	1.144580E-04
5.631734E+03	4.928552E-03	1.107236E-04
5.641528E+03	4.762825E-03	1.070582E-04
5.651322E+03	4.603872E-03	1.035154E-04
5.661117E+03	4.453536E-03	1.001384E-04
5.670911E+03	4.313644E-03	9.697045E-05
5.680705E+03	4.185572E-03	9.404427E-05
5.690500E+03	4.070508E-03	9.138805E-05
5.700294E+03	3.969446E-03	8.902533E-05
5.710088E+03	3.883045E-03	8.697161E-05
5.719882E+03	3.811857E-03	8.523955E-05
5.729677E+03	3.756194E-03	8.383586E-05
5.739471E+03	3.716142E-03	8.276175E-05
5.749265E+03	3.691686E-03	8.201570E-05
5.759060E+03	3.682717E-03	8.159358E-05
5.768854E+03	3.688946E-03	8.148695E-05
5.778648E+03	3.709906E-03	8.168305E-05
5.788443E+03	3.745098E-03	8.216827E-05
5.798237E+03	3.793790E-03	8.292367E-05
5.808031E+03	3.855206E-03	8.392941E-05
5.817826E+03	3.928319E-03	8.516029E-05
5.827620E+03	4.011994E-03	8.658912E-05
5.837414E+03	4.104998E-03	8.818699E-05
5.847209E+03	4.205903E-03	8.992147E-05
5.857003E+03	4.313040E-03	9.175579E-05
5.866797E+03	4.424870E-03	9.365693E-05
5.876592E+03	4.539567E-03	9.558684E-05
5.886386E+03	4.655528E-03	9.751346E-05
5.896180E+03	4.771009E-03	9.940303E-05
5.905975E+03	4.884409E-03	1.012260E-04
5.915769E+03	4.994198E-03	1.029557E-04
5.925563E+03	5.099234E-03	1.045747E-04
5.935357E+03	5.198317E-03	1.060653E-04
5.945152E+03	5.290637E-03	1.074189E-04
5.954946E+03	5.375732E-03	1.086348E-04
5.964740E+03	5.453350E-03	1.097169E-04
5.974535E+03	5.523447E-03	1.106740E-04
5.984329E+03	5.586380E-03	1.115229E-04
5.994123E+03	5.642526E-03	1.122810E-04
6.003918E+03	5.692764E-03	1.129756E-04
6.013712E+03	5.737993E-03	1.136343E-04
6.023506E+03	5.779059E-03	1.142834E-04
6.033301E+03	5.817131E-03	1.149555E-04
6.043095E+03	5.853404E-03	1.156836E-04
6.052889E+03	5.888842E-03	1.164959E-04
6.062684E+03	5.924593E-03	1.174244E-04
6.072478E+03	5.961667E-03	1.184985E-04
6.082272E+03	6.000979E-03	1.197459E-04
6.092067E+03	6.043321E-03	1.211922E-04
6.101861E+03	6.089378E-03	1.228613E-04
6.111655E+03	6.139679E-03	1.247745E-04
6.121450E+03	6.194496E-03	1.269475E-04
6.131244E+03	6.254067E-03	1.293906E-04
6.141038E+03	6.318372E-03	1.321068E-04
6.150833E+03	6.387227E-03	1.350956E-04
6.160627E+03	6.460284E-03	1.383527E-04
6.170421E+03	6.536940E-03	1.418681E-04
6.180215E+03	6.616676E-03	1.456329E-04
6.190010E+03	6.698472E-03	1.496263E-04
6.199804E+03	6.781442E-03	1.538289E-04
6.209598E+03	6.864589E-03	1.582176E-04
6.219393E+03	6.946561E-03	1.627591E-04
6.229187E+03	7.026284E-03	1.674244E-04
6.238981E+03	7.102690E-03	1.721824E-04
6.248776E+03	7.174491E-03	1.769945E-04
6.258570E+03	7.240904E-03	1.818322E-04
6.268364E+03	7.300993E-03	1.866611E-04
6.278159E+03	7.354079E-03	1.914512E-04
6.287953E+03	7.399765E-03	1.961786E-04
6.297747E+03	7.437622E-03	2.008171E-04
6.307542E+03	7.467585E-03	2.053495E-04
6.317336E+03	7.489540E-03	2.097564E-04
6.327130E+03	7.503709E-03	2.140278E-04
6.336925E+03	7.510308E-03	2.181538E-04
6.346719E+03	7.509629E-03	2.221268E-04
6.356513E+03	7.502020E-03	2.259417E-04
6.366308E+03	7.487844E-03	2.295942E-04
6.376102E+03	7.467473E-03	2.330814E-04
6.385896E+03	7.441255E-03	2.364001E-04
6.395690E+03	7.409622E-03	2.395511E-04
6.405485E+03	7.372850E-03	2.425306E-04
6.415279E+03	7.331054E-03	2.453304E-04
6.425073E+03	7.284530E-03	2.479489E-04
6.434868E+03	7.233322E-03	2.503763E-04
6.444662E+03	7.177756E-03	2.526133E-04
6.454456E+03	7.117820E-03	2.546489E-04
6.464251E+03	7.053616E-03	2.564769E-04
6.474045E+03	6.985226E-03	2.580902E-04
6.483839E+03	6.912878E-03	2.594879E-04
6.493634E+03	6.836701E-03	2.606658E-04
6.503428E+03	6.756753E-03	2.616173E-04
6.513222E+03	6.673326E-03	2.623457E-04
6.523017E+03	6.586653E-03	2.628521E-04
6.532811E+03	6.496985E-03	2.631396E-04
6.542605E+03	6.404701E-03	2.632170E-04
6.552400E+03	6.309925E-03	2.630836E-04
6.562194E+03	6.213277E-03	2.627599E-04
6.571988E+03	6.114841E-03	2.622452E-04
6.581783E+03	6.015269E-03	2.615638E-04
6.591577E+03	5.914783E-03	2.607226E-04
6.601371E+03	5.813885E-03	2.597418E-04
6.611166E+03	5.712995E-03	2.586390E-04
6.620960E+03	5.612542E-03	2.574334E-04
6.630754E+03	5.512958E-03	2.561455E-04
6.640548E+03	5.414661E-03	2.547961E-04
6.650343E+03	5.318149E-03	2.534109E-04
6.660137E+03	5.223734E-03	2.520080E-04
6.669931E+03	5.131876E-03	2.506135E-04
6.679726E+03	5.042847E-03	2.492452E-04
6.689520E+03	4.957055E-03	2.479284E-04
6.699314E+03	4.874721E-03	2.466800E-04
6.709109E+03	4.796189E-03	2.455238E-04
6.718903E+03	4.721694E-03	2.444787E-04
6.728697E+03	4.651368E-03	2.435587E-04
6.738492E+03	4.585460E-03	2.427844E-04
6.748286E+03	4.524190E-03	2.421754E-04
6.758080E+03	4.467535E-03	2.417386E-04
6.767875E+03	4.415671E-03	2.414919E-04
6.777669E+03	4.368611E-03	2.414443E-04
6.787463E+03	4.326563E-03	2.416160E-04
6.797258E+03	4.289513E-03	2.420148E-04
6.807052E+03	4.257509E-03	2.426523E-04
6.816846E+03	4.230518E-03	2.435354E-04
6.826641E+03	4.208708E-03	2.446824E-04
6.836435E+03	4.191965E-03	2.460957E-04
6.846229E+03	4.180372E-03	2.477888E-04
6.856024E+03	4.173934E-03	2.497711E-04
6.865818E+03	4.172651E-03	2.520509E-04
6.875612E+03	4.176439E-03	2.546323E-04
6.885406E+03	4.185344E-03	2.575265E-04
6.895201E+03	4.199327E-03	2.607397E-04
6.904995E+03	4.218344E-03	2.642777E-04
6.914789E+03	4.242264E-03	2.681407E-04
6.924584E+03	4.271017E-03	2.723322E-04
6.934378E+03	4.304594E-03	2.768599E-04
6.944172E+03	4.342839E-03	2.817214E-04
6.953967E+03	4.385662E-03	2.869186E-04
6.963761E+03	4.433042E-03	2.924577E-04
6.973555E+03	4.484748E-03	2.983306E-04
6.983350E+03	4.540837E-03	3.045483E-04
6.993144E+03	4.601084E-03	3.111026E-04
7.002938E+03	4.665487E-03	3.180003E-04
7.012733E+03	4.733981E-03	3.252434E-04
7.022527E+03	4.806427E-03	3.328290E-04
7.032321E+03	4.882844E-03	3.407647E-04
7.042116E+03	4.963094E-03	3.490473E-04
7.051910E+03	5.047112E-03	3.576783E-04
7.061704E+03	5.134826E-03	3.666584E-04
7.071499E+03	5.226144E-03	3.759872E-04
7.081293E+03	5.320960E-03	3.856626E-04
7.091087E+03	5.419135E-03	3.956802E-04
7.100881E+03	5.520411E-03	4.060262E-04
7.110676E+03	5.624573E-03	4.166899E-04
7.120470E+03	5.731460E-03	4.276638E-04
7.130264E+03	5.840676E-03	4.389226E-04
7.140059E+03	5.951867E-03	4.504432E-04
7.149853E+03	6.064614E-03	4.621970E-04
7.159647E+03	6.178444E-03	4.741504E-04
7.169442E+03	6.292830E-03	4.862644E-04
7.179236E+03	6.407062E-03	4.984849E-04
7.189030E+03	6.520472E-03	5.107596E-04
7.198825E+03	6.632441E-03	5.230386E-04
7.208619E+03	6.742057E-03	5.352475E-04
7.218413E+03	6.848596E-03	5.473249E-04
7.228208E+03	6.950917E-03	5.591747E-04
7.238002E+03	7.048322E-03	5.707339E-04
7.247796E+03	7.139619E-03	5.818981E-04
7.257591E+03	7.224088E-03	5.925990E-04
7.267385E+03	7.300570E-03	6.027305E-04
7.277179E+03	7.368313E-03	6.122178E-04
7.286974E+03	7.426421E-03	6.209729E-04
7.296768E+03	7.474472E-03	6.289454E-04
7.306562E+03	7.511695E-03	6.360545E-04
7.316357E+03	7.537738E-03	6.422537E-04
7.326151E+03	7.552680E-03	6.475324E-04
7.335945E+03	7.556283E-03	6.518531E-04
7.345739E+03	7.548747E-03	6.552153E-04
7.355534E+03	7.530586E-03	6.576469E-04
7.365328E+03	7.502378E-03	6.591821E-04
7.375122E+03	7.464702E-03	6.598563E-04
7.384917E+03	7.418548E-03	6.597430E-04
7.394711E+03	7.364745E-03	6.589029E-04
7.404505E+03	7.304468E-03	6.574299E-04
7.414300E+03	7.238803E-03	6.554122E-04
7.424094E+03	7.168891E-03	6.529442E-04
7.433888E+03	7.095721E-03	6.501095E-04
7.443683E+03	7.020521E-03	6.470153E-04
7.453477E+03	6.944206E-03	6.437427E-04
7.463271E+03	6.867928E-03	6.403969E-04
7.473066E+03	6.792003E-03	6.370070E-04
7.482860E+03	6.716935E-03	6.336208E-04
7.492654E+03	6.643102E-03	6.302750E-04
7.502449E+03	6.570848E-03	6.270041E-04
7.512243E+03	6.500532E-03	6.238447E-04
7.522037E+03	6.432392E-03	6.208226E-04
7.531832E+03	6.367013E-03	6.179977E-04
7.541626E+03	6.304561E-03	6.153905E-04
7.551420E+03	6.245630E-03	6.130636E-04
7.561214E+03	6.190372E-03	6.110376E-04
7.571009E+03	6.139260E-03	6.093651E-04
7.580803E+03	6.092603E-03	6.080837E-04
7.590597E+03	6.050675E-03	6.072277E-04
7.600392E+03	6.013679E-03	6.068251E-04
