#wls	flux	fluxerr
1.600000E+03	1.052922E-16	9.637170E-17
1.640000E+03	1.096149E-16	9.984715E-17
1.680000E+03	1.142612E-16	1.035348E-16
1.720000E+03	1.192508E-16	1.074395E-16
1.760000E+03	1.246385E-16	1.115949E-16
1.800000E+03	1.304485E-16	1.160047E-16
1.840000E+03	1.367235E-16	1.206862E-16
1.880000E+03	1.434902E-16	1.256391E-16
1.920000E+03	1.508330E-16	1.309097E-16
1.960000E+03	1.587634E-16	1.364759E-16
2.000000E+03	1.673924E-16	1.423961E-16
2.040000E+03	1.767764E-16	1.486746E-16
2.080000E+03	1.869936E-16	1.553271E-16
2.120000E+03	1.981246E-16	1.623619E-16
2.160000E+03	2.102502E-16	1.697779E-16
2.200000E+03	2.235229E-16	1.776199E-16
2.240000E+03	2.380247E-16	1.858614E-16
2.280000E+03	2.538042E-16	1.944363E-16
2.320000E+03	2.710279E-16	2.033542E-16
2.360000E+03	2.896642E-16	2.124572E-16
2.400000E+03	3.097884E-16	2.216542E-16
2.440000E+03	3.313315E-16	2.307356E-16
2.480000E+03	3.542056E-16	2.394720E-16
2.520000E+03	3.782966E-16	2.476127E-16
2.560000E+03	4.033637E-16	2.548271E-16
2.600000E+03	4.291811E-16	2.608084E-16
2.640000E+03	4.553745E-16	2.651821E-16
2.680000E+03	4.814412E-16	2.675423E-16
2.720000E+03	5.069064E-16	2.675609E-16
2.760000E+03	5.310339E-16	2.648509E-16
2.800000E+03	5.531549E-16	2.591706E-16
2.840000E+03	5.724251E-16	2.503233E-16
2.880000E+03	5.879512E-16	2.382502E-16
2.920000E+03	5.988915E-16	2.230907E-16
2.960000E+03	6.045311E-16	2.052105E-16
3.000000E+03	6.043842E-16	1.852156E-16
3.010000E+03	6.034228E-16	1.799812E-16
3.020000E+03	6.020606E-16	1.746721E-16
3.030000E+03	6.003172E-16	1.693091E-16
3.040000E+03	5.981867E-16	1.639055E-16
3.050000E+03	5.956896E-16	1.584818E-16
3.060000E+03	5.928219E-16	1.530518E-16
3.070000E+03	5.895580E-16	1.476237E-16
3.080000E+03	5.859462E-16	1.422243E-16
3.090000E+03	5.819646E-16	1.368624E-16
3.100000E+03	5.776408E-16	1.315581E-16
3.110000E+03	5.729813E-16	1.263258E-16
3.120000E+03	5.680167E-16	1.211843E-16
3.130000E+03	5.627378E-16	1.161425E-16
3.140000E+03	5.572015E-16	1.112221E-16
3.150000E+03	5.513856E-16	1.064271E-16
3.160000E+03	5.453726E-16	1.017804E-16
3.170000E+03	5.391684E-16	9.728803E-17
3.180000E+03	5.328035E-16	9.295901E-17
3.190000E+03	5.263314E-16	8.880417E-17
3.200000E+03	5.198082E-16	8.483238E-17
3.210000E+03	5.132591E-16	8.104526E-17
3.220000E+03	5.067486E-16	7.744875E-17
3.230000E+03	5.003270E-16	7.404450E-17
3.240000E+03	4.940786E-16	7.083722E-17
3.250000E+03	4.880415E-16	6.782301E-17
3.260000E+03	4.822707E-16	6.499917E-17
3.270000E+03	4.768493E-16	6.236536E-17
3.280000E+03	4.718137E-16	5.991383E-17
3.290000E+03	4.672251E-16	5.763927E-17
3.300000E+03	4.631251E-16	5.553309E-17
3.310000E+03	4.595617E-16	5.358698E-17
3.320000E+03	4.565616E-16	5.178967E-17
3.330000E+03	4.541556E-16	5.013021E-17
3.340000E+03	4.523408E-16	4.859390E-17
3.350000E+03	4.511419E-16	4.716918E-17
3.360000E+03	4.505386E-16	4.584001E-17
3.370000E+03	4.505266E-16	4.459242E-17
3.380000E+03	4.510823E-16	4.341101E-17
3.390000E+03	4.521654E-16	4.227936E-17
3.400000E+03	4.537631E-16	4.118435E-17
3.410000E+03	4.558154E-16	4.010911E-17
3.420000E+03	4.583025E-16	3.904115E-17
3.430000E+03	4.611608E-16	3.796494E-17
3.440000E+03	4.643578E-16	3.686853E-17
3.450000E+03	4.678309E-16	3.573858E-17
3.460000E+03	4.715501E-16	3.456562E-17
3.470000E+03	4.754677E-16	3.334030E-17
3.480000E+03	4.795296E-16	3.205499E-17
3.490000E+03	4.837057E-16	3.070638E-17
3.500000E+03	4.879505E-16	2.929368E-17
3.510000E+03	4.922231E-16	2.782130E-17
3.520000E+03	4.965054E-16	2.630138E-17
3.530000E+03	5.007534E-16	2.475335E-17
3.540000E+03	5.049517E-16	2.320981E-17
3.550000E+03	5.090446E-16	2.171660E-17
3.560000E+03	5.130131E-16	2.033981E-17
3.570000E+03	5.167747E-16	1.916244E-17
3.580000E+03	5.202477E-16	1.828148E-17
3.590000E+03	5.233190E-16	1.778609E-17
3.600000E+03	5.259082E-16	1.771777E-17
3.610000E+03	5.280646E-16	1.803626E-17
3.620000E+03	5.299410E-16	1.864074E-17
3.630000E+03	5.316723E-16	1.941436E-17
3.640000E+03	5.333713E-16	2.025312E-17
3.650000E+03	5.351245E-16	2.107566E-17
3.660000E+03	5.369975E-16	2.182312E-17
3.670000E+03	5.390391E-16	2.245518E-17
3.680000E+03	5.412826E-16	2.294550E-17
3.690000E+03	5.437546E-16	2.327805E-17
3.700000E+03	5.464583E-16	2.344343E-17
3.710000E+03	5.493741E-16	2.343689E-17
3.720000E+03	5.524833E-16	2.325804E-17
3.730000E+03	5.557456E-16	2.290946E-17
3.740000E+03	5.591010E-16	2.239680E-17
3.750000E+03	5.625034E-16	2.173086E-17
3.760000E+03	5.658701E-16	2.092674E-17
3.770000E+03	5.691400E-16	2.000766E-17
3.780000E+03	5.722479E-16	1.900594E-17
3.790000E+03	5.751305E-16	1.796486E-17
3.800000E+03	5.777640E-16	1.694018E-17
3.810000E+03	5.801310E-16	1.599356E-17
3.820000E+03	5.823317E-16	1.517755E-17
3.830000E+03	5.845686E-16	1.451750E-17
3.840000E+03	5.871560E-16	1.401997E-17
3.850000E+03	5.904517E-16	1.367641E-17
3.860000E+03	5.948625E-16	1.346184E-17
3.870000E+03	6.007850E-16	1.334844E-17
3.880000E+03	6.086071E-16	1.331230E-17
3.890000E+03	6.186138E-16	1.332743E-17
3.900000E+03	6.310485E-16	1.337610E-17
3.910000E+03	6.460290E-16	1.344885E-17
3.920000E+03	6.634866E-16	1.353666E-17
3.930000E+03	6.832472E-16	1.363914E-17
3.940000E+03	7.049476E-16	1.376023E-17
3.950000E+03	7.280374E-16	1.389797E-17
3.960000E+03	7.518419E-16	1.405545E-17
3.970000E+03	7.756112E-16	1.423888E-17
3.980000E+03	7.986435E-16	1.444487E-17
3.990000E+03	8.203008E-16	1.467351E-17
4.000000E+03	8.400843E-16	1.492652E-17
4.010000E+03	8.578021E-16	1.519137E-17
4.020000E+03	8.734399E-16	1.545769E-17
4.030000E+03	8.870481E-16	1.571893E-17
4.040000E+03	8.987567E-16	1.595640E-17
4.050000E+03	9.086405E-16	1.615538E-17
4.060000E+03	9.167198E-16	1.630763E-17
4.070000E+03	9.229083E-16	1.639392E-17
4.080000E+03	9.270060E-16	1.640087E-17
4.090000E+03	9.288335E-16	1.632524E-17
4.100000E+03	9.282279E-16	1.615898E-17
4.110000E+03	9.250734E-16	1.590639E-17
4.120000E+03	9.193349E-16	1.558288E-17
4.130000E+03	9.110836E-16	1.519772E-17
4.140000E+03	9.004672E-16	1.477184E-17
4.150000E+03	8.876988E-16	1.433264E-17
4.160000E+03	8.730018E-16	1.389104E-17
4.170000E+03	8.566703E-16	1.346361E-17
4.180000E+03	8.390456E-16	1.306716E-17
4.190000E+03	8.205709E-16	1.269625E-17
4.200000E+03	8.017631E-16	1.235082E-17
4.210000E+03	7.832174E-16	1.203975E-17
4.220000E+03	7.656309E-16	1.176111E-17
4.230000E+03	7.497338E-16	1.152306E-17
4.240000E+03	7.362184E-16	1.134122E-17
4.250000E+03	7.257299E-16	1.121700E-17
4.260000E+03	7.188067E-16	1.115467E-17
4.270000E+03	7.157815E-16	1.115512E-17
4.280000E+03	7.166790E-16	1.119255E-17
4.290000E+03	7.213079E-16	1.124163E-17
4.300000E+03	7.292785E-16	1.128949E-17
4.310000E+03	7.399779E-16	1.132358E-17
4.320000E+03	7.525829E-16	1.134492E-17
4.330000E+03	7.661978E-16	1.135758E-17
4.340000E+03	7.798553E-16	1.134210E-17
4.350000E+03	7.925814E-16	1.128709E-17
4.360000E+03	8.034377E-16	1.120178E-17
4.370000E+03	8.115851E-16	1.109709E-17
4.380000E+03	8.164181E-16	1.100274E-17
4.390000E+03	8.176172E-16	1.094784E-17
4.400000E+03	8.151884E-16	1.091735E-17
4.410000E+03	8.094958E-16	1.087936E-17
4.420000E+03	8.011768E-16	1.081002E-17
4.430000E+03	7.910369E-16	1.069339E-17
4.440000E+03	7.799770E-16	1.054916E-17
4.450000E+03	7.689200E-16	1.041231E-17
4.460000E+03	7.587898E-16	1.029114E-17
4.470000E+03	7.504602E-16	1.019785E-17
4.480000E+03	7.447063E-16	1.015165E-17
4.490000E+03	7.421353E-16	1.015060E-17
4.500000E+03	7.432346E-16	1.019998E-17
4.510000E+03	7.483335E-16	1.030947E-17
4.520000E+03	7.574964E-16	1.046203E-17
4.530000E+03	7.706133E-16	1.064522E-17
4.540000E+03	7.874476E-16	1.085794E-17
4.550000E+03	8.075578E-16	1.108458E-17
4.560000E+03	8.303722E-16	1.132231E-17
4.570000E+03	8.552116E-16	1.157918E-17
4.580000E+03	8.813213E-16	1.184166E-17
4.590000E+03	9.078615E-16	1.210391E-17
4.600000E+03	9.339401E-16	1.236681E-17
4.610000E+03	9.586215E-16	1.260151E-17
4.620000E+03	9.809565E-16	1.278789E-17
4.630000E+03	9.999817E-16	1.292302E-17
4.640000E+03	1.014797E-15	1.299067E-17
4.650000E+03	1.024583E-15	1.299948E-17
4.660000E+03	1.028675E-15	1.297360E-17
4.670000E+03	1.026673E-15	1.290390E-17
4.680000E+03	1.018447E-15	1.279622E-17
4.690000E+03	1.004180E-15	1.266792E-17
4.700000E+03	9.844775E-16	1.249846E-17
4.710000E+03	9.602487E-16	1.228328E-17
4.720000E+03	9.327206E-16	1.204379E-17
4.730000E+03	9.033843E-16	1.178507E-17
4.740000E+03	8.738494E-16	1.152788E-17
4.750000E+03	8.456984E-16	1.129845E-17
4.760000E+03	8.203801E-16	1.108823E-17
4.770000E+03	7.991647E-16	1.089368E-17
4.780000E+03	7.829695E-16	1.072613E-17
4.790000E+03	7.722804E-16	1.058821E-17
4.800000E+03	7.672638E-16	1.049733E-17
4.810000E+03	7.677186E-16	1.047802E-17
4.820000E+03	7.730176E-16	1.053231E-17
4.830000E+03	7.822437E-16	1.066685E-17
4.840000E+03	7.943269E-16	1.088672E-17
4.850000E+03	8.081531E-16	1.116041E-17
4.860000E+03	8.225916E-16	1.145346E-17
4.870000E+03	8.366388E-16	1.174242E-17
4.880000E+03	8.495516E-16	1.199317E-17
4.890000E+03	8.608172E-16	1.218739E-17
4.900000E+03	8.701551E-16	1.232538E-17
4.910000E+03	8.775963E-16	1.240134E-17
4.920000E+03	8.833438E-16	1.242560E-17
4.930000E+03	8.876524E-16	1.241902E-17
4.940000E+03	8.907946E-16	1.238264E-17
4.950000E+03	8.929696E-16	1.232543E-17
4.960000E+03	8.943188E-16	1.226213E-17
4.970000E+03	8.948273E-16	1.218091E-17
4.980000E+03	8.943629E-16	1.207923E-17
4.990000E+03	8.927683E-16	1.196917E-17
5.000000E+03	8.897769E-16	1.184632E-17
5.010000E+03	8.851251E-16	1.172001E-17
5.020000E+03	8.785699E-16	1.160358E-17
5.030000E+03	8.699257E-16	1.147642E-17
5.040000E+03	8.591308E-16	1.132546E-17
5.050000E+03	8.463245E-16	1.115393E-17
5.060000E+03	8.319269E-16	1.095319E-17
5.070000E+03	8.165684E-16	1.073406E-17
5.080000E+03	8.009725E-16	1.051995E-17
5.090000E+03	7.859574E-16	1.031253E-17
5.100000E+03	7.723164E-16	1.012402E-17
5.110000E+03	7.606540E-16	9.974180E-18
5.120000E+03	7.513364E-16	9.858611E-18
5.130000E+03	7.444923E-16	9.781831E-18
5.140000E+03	7.401358E-16	9.758324E-18
5.150000E+03	7.381086E-16	9.779919E-18
5.160000E+03	7.381512E-16	9.845501E-18
5.170000E+03	7.399450E-16	9.957684E-18
5.180000E+03	7.431779E-16	1.008998E-17
5.190000E+03	7.475449E-16	1.021951E-17
5.200000E+03	7.527276E-16	1.033754E-17
5.210000E+03	7.585101E-16	1.042858E-17
5.220000E+03	7.647042E-16	1.049088E-17
5.230000E+03	7.711840E-16	1.053403E-17
5.240000E+03	7.779079E-16	1.055272E-17
5.250000E+03	7.848718E-16	1.055090E-17
5.260000E+03	7.920842E-16	1.054223E-17
5.270000E+03	7.995116E-16	1.052523E-17
5.280000E+03	8.070968E-16	1.051176E-17
5.290000E+03	8.147140E-16	1.052016E-17
5.300000E+03	8.222162E-16	1.054106E-17
5.310000E+03	8.294051E-16	1.057225E-17
5.320000E+03	8.360603E-16	1.061944E-17
5.330000E+03	8.419939E-16	1.066156E-17
5.340000E+03	8.470397E-16	1.068943E-17
5.350000E+03	8.510160E-16	1.071045E-17
5.360000E+03	8.537855E-16	1.071588E-17
5.370000E+03	8.552483E-16	1.071505E-17
5.380000E+03	8.553087E-16	1.072581E-17
5.390000E+03	8.538608E-16	1.073005E-17
5.400000E+03	8.508661E-16	1.071850E-17
5.410000E+03	8.463520E-16	1.069726E-17
5.420000E+03	8.404633E-16	1.065180E-17
5.430000E+03	8.334155E-16	1.058371E-17
5.440000E+03	8.255334E-16	1.050995E-17
5.450000E+03	8.171943E-16	1.042478E-17
5.460000E+03	8.088090E-16	1.033737E-17
5.470000E+03	8.007549E-16	1.027267E-17
5.480000E+03	7.932901E-16	1.023493E-17
5.490000E+03	7.865829E-16	1.023864E-17
5.500000E+03	7.807026E-16	1.030163E-17
5.510000E+03	7.755753E-16	1.040563E-17
5.520000E+03	7.710412E-16	1.052962E-17
5.530000E+03	7.669256E-16	1.065743E-17
5.540000E+03	7.630393E-16	1.075135E-17
5.550000E+03	7.592398E-16	1.078072E-17
5.560000E+03	7.553920E-16	1.073196E-17
5.570000E+03	7.513836E-16	1.059327E-17
5.580000E+03	7.471425E-16	1.037340E-17
5.590000E+03	7.425955E-16	1.009964E-17
5.600000E+03	7.376930E-16	9.799307E-18
5.610000E+03	7.323742E-16	9.515884E-18
5.620000E+03	7.265299E-16	9.286986E-18
5.630000E+03	7.199655E-16	9.106238E-18
5.640000E+03	7.124443E-16	8.964270E-18
5.650000E+03	7.037729E-16	8.857269E-18
5.660000E+03	6.937829E-16	8.758951E-18
5.670000E+03	6.823957E-16	8.657640E-18
5.680000E+03	6.696706E-16	8.558773E-18
5.690000E+03	6.558134E-16	8.454178E-18
5.700000E+03	6.411762E-16	8.349745E-18
5.710000E+03	6.262487E-16	8.261187E-18
5.720000E+03	6.116032E-16	8.182665E-18
5.730000E+03	5.978664E-16	8.114106E-18
5.740000E+03	5.856503E-16	8.063552E-18
5.750000E+03	5.754827E-16	8.023777E-18
5.760000E+03	5.678014E-16	7.993678E-18
5.770000E+03	5.628959E-16	7.980143E-18
5.780000E+03	5.608394E-16	7.979298E-18
5.790000E+03	5.615854E-16	7.994206E-18
5.800000E+03	5.649415E-16	8.034141E-18
5.810000E+03	5.706122E-16	8.098181E-18
5.820000E+03	5.782438E-16	8.191802E-18
5.830000E+03	5.874635E-16	8.323940E-18
5.840000E+03	5.979524E-16	8.486905E-18
5.850000E+03	6.094291E-16	8.675750E-18
5.860000E+03	6.216386E-16	8.888395E-18
5.870000E+03	6.343320E-16	9.103860E-18
5.880000E+03	6.472431E-16	9.303800E-18
5.890000E+03	6.600656E-16	9.478133E-18
5.900000E+03	6.724044E-16	9.607441E-18
5.910000E+03	6.837876E-16	9.683411E-18
5.920000E+03	6.937474E-16	9.713011E-18
5.930000E+03	7.018743E-16	9.701138E-18
5.940000E+03	7.078292E-16	9.667748E-18
5.950000E+03	7.114681E-16	9.637109E-18
5.960000E+03	7.128731E-16	9.606461E-18
5.970000E+03	7.123154E-16	9.575783E-18
5.980000E+03	7.101551E-16	9.550224E-18
5.990000E+03	7.068032E-16	9.514230E-18
6.000000E+03	7.026583E-16	9.461955E-18
6.010000E+03	6.980378E-16	9.400540E-18
6.020000E+03	6.931617E-16	9.324613E-18
6.030000E+03	6.881296E-16	9.239310E-18
6.040000E+03	6.830222E-16	9.157912E-18
6.050000E+03	6.778473E-16	9.074058E-18
6.060000E+03	6.726261E-16	8.989666E-18
6.070000E+03	6.673612E-16	8.915890E-18
6.080000E+03	6.620802E-16	8.849371E-18
6.090000E+03	6.568265E-16	8.795886E-18
6.100000E+03	6.516274E-16	8.765381E-18
6.110000E+03	6.465207E-16	8.744434E-18
6.120000E+03	6.415319E-16	8.723336E-18
6.130000E+03	6.366580E-16	8.701028E-18
6.140000E+03	6.319407E-16	8.665359E-18
6.150000E+03	6.273873E-16	8.614459E-18
6.160000E+03	6.230047E-16	8.557758E-18
6.170000E+03	6.187977E-16	8.494960E-18
6.180000E+03	6.147469E-16	8.435014E-18
6.190000E+03	6.108080E-16	8.390766E-18
6.200000E+03	6.068718E-16	8.353449E-18
6.210000E+03	6.028097E-16	8.316870E-18
6.220000E+03	5.984544E-16	8.280332E-18
6.230000E+03	5.936581E-16	8.230048E-18
6.240000E+03	5.882658E-16	8.160182E-18
6.250000E+03	5.821995E-16	8.076300E-18
6.260000E+03	5.754941E-16	7.977491E-18
6.270000E+03	5.682727E-16	7.872218E-18
6.280000E+03	5.607352E-16	7.772608E-18
6.290000E+03	5.531305E-16	7.672593E-18
6.300000E+03	5.457832E-16	7.569932E-18
6.310000E+03	5.389833E-16	7.468335E-18
6.320000E+03	5.330215E-16	7.362177E-18
6.330000E+03	5.281512E-16	7.254281E-18
6.340000E+03	5.245810E-16	7.155679E-18
6.350000E+03	5.224590E-16	7.068535E-18
6.360000E+03	5.218748E-16	7.002740E-18
6.370000E+03	5.228248E-16	6.970808E-18
6.380000E+03	5.252326E-16	6.967380E-18
6.390000E+03	5.289330E-16	6.990351E-18
6.400000E+03	5.337637E-16	7.041350E-18
6.410000E+03	5.395686E-16	7.104038E-18
6.420000E+03	5.462261E-16	7.169017E-18
6.430000E+03	5.536912E-16	7.239649E-18
6.440000E+03	5.619862E-16	7.312659E-18
6.450000E+03	5.712524E-16	7.397951E-18
6.460000E+03	5.816247E-16	7.511070E-18
6.470000E+03	5.932781E-16	7.646362E-18
6.480000E+03	6.063767E-16	7.803011E-18
6.490000E+03	6.210282E-16	7.989242E-18
6.500000E+03	6.372343E-16	8.198014E-18
6.510000E+03	6.548949E-16	8.433047E-18
6.520000E+03	6.738101E-16	8.708031E-18
6.530000E+03	6.936578E-16	9.014376E-18
6.540000E+03	7.139545E-16	9.345176E-18
6.550000E+03	7.341477E-16	9.697457E-18
6.560000E+03	7.535692E-16	1.004252E-17
6.570000E+03	7.716014E-16	1.035927E-17
6.580000E+03	7.876800E-16	1.064196E-17
6.590000E+03	8.013680E-16	1.087481E-17
6.600000E+03	8.124032E-16	1.105815E-17
6.610000E+03	8.207108E-16	1.120624E-17
6.620000E+03	8.263687E-16	1.131499E-17
6.630000E+03	8.296128E-16	1.138983E-17
6.640000E+03	8.307111E-16	1.144256E-17
6.650000E+03	8.299586E-16	1.146061E-17
6.660000E+03	8.275835E-16	1.143918E-17
6.670000E+03	8.238010E-16	1.138678E-17
6.680000E+03	8.187235E-16	1.129733E-17
6.690000E+03	8.124147E-16	1.118018E-17
6.700000E+03	8.049353E-16	1.105576E-17
6.710000E+03	7.962948E-16	1.092119E-17
6.720000E+03	7.865623E-16	1.078245E-17
6.730000E+03	7.758076E-16	1.065317E-17
6.740000E+03	7.641077E-16	1.052415E-17
6.750000E+03	7.515845E-16	1.039336E-17
6.760000E+03	7.383459E-16	1.026733E-17
6.770000E+03	7.245149E-16	1.013601E-17
6.780000E+03	7.102020E-16	9.998758E-18
6.790000E+03	6.955103E-16	9.865113E-18
6.800000E+03	6.805232E-16	9.730766E-18
6.810000E+03	6.653139E-16	9.599094E-18
6.820000E+03	6.499833E-16	9.478779E-18
6.830000E+03	6.345802E-16	9.359672E-18
6.840000E+03	6.191806E-16	9.236006E-18
6.850000E+03	6.038828E-16	9.108692E-18
6.860000E+03	5.888429E-16	8.968474E-18
6.870000E+03	5.741868E-16	8.812655E-18
6.880000E+03	5.601117E-16	8.647899E-18
6.890000E+03	5.467797E-16	8.473557E-18
6.900000E+03	5.343766E-16	8.296126E-18
6.910000E+03	5.230327E-16	8.126579E-18
6.920000E+03	5.128015E-16	7.965781E-18
6.930000E+03	5.037222E-16	7.818179E-18
6.940000E+03	4.957730E-16	7.690928E-18
6.950000E+03	4.888694E-16	7.581864E-18
6.960000E+03	4.829336E-16	7.492405E-18
6.970000E+03	4.778606E-16	7.425554E-18
6.980000E+03	4.735335E-16	7.373846E-18
6.990000E+03	4.698494E-16	7.333145E-18
7.000000E+03	4.667177E-16	7.303319E-18
7.010000E+03	4.640691E-16	7.276783E-18
7.020000E+03	4.618319E-16	7.250476E-18
7.030000E+03	4.599583E-16	7.227272E-18
7.040000E+03	4.583851E-16	7.204273E-18
7.050000E+03	4.570666E-16	7.183391E-18
7.060000E+03	4.559401E-16	7.169664E-18
7.070000E+03	4.549437E-16	7.159897E-18
7.080000E+03	4.540228E-16	7.153332E-18
7.090000E+03	4.531049E-16	7.151579E-18
7.100000E+03	4.521278E-16	7.148798E-18
7.110000E+03	4.510163E-16	7.142214E-18
7.120000E+03	4.497184E-16	7.133470E-18
7.130000E+03	4.481768E-16	7.118382E-18
7.140000E+03	4.463405E-16	7.096955E-18
7.150000E+03	4.441975E-16	7.073350E-18
7.160000E+03	4.417897E-16	7.045689E-18
7.170000E+03	4.391457E-16	7.014487E-18
7.180000E+03	4.363556E-16	6.982970E-18
7.190000E+03	4.334789E-16	6.945637E-18
7.200000E+03	4.305739E-16	6.900518E-18
7.210000E+03	4.277133E-16	6.852060E-18
7.220000E+03	4.249190E-16	6.801445E-18
7.230000E+03	4.222313E-16	6.754779E-18
7.240000E+03	4.196567E-16	6.718987E-18
7.250000E+03	4.172084E-16	6.691453E-18
7.260000E+03	4.148771E-16	6.668996E-18
7.270000E+03	4.126583E-16	6.649196E-18
7.280000E+03	4.105235E-16	6.622132E-18
7.290000E+03	4.084498E-16	6.582091E-18
7.300000E+03	4.064092E-16	6.529306E-18
7.310000E+03	4.044057E-16	6.462751E-18
7.320000E+03	4.024483E-16	6.388492E-18
7.330000E+03	4.005557E-16	6.317716E-18
7.340000E+03	3.987588E-16	6.255483E-18
7.350000E+03	3.970826E-16	6.208396E-18
7.360000E+03	3.955174E-16	6.182080E-18
7.370000E+03	3.940454E-16	6.170986E-18
7.380000E+03	3.926307E-16	6.169129E-18
7.390000E+03	3.912560E-16	6.172947E-18
7.400000E+03	3.899195E-16	6.173385E-18
7.410000E+03	3.886408E-16	6.165819E-18
7.420000E+03	3.874374E-16	6.150948E-18
7.430000E+03	3.863420E-16	6.126983E-18
7.440000E+03	3.853441E-16	6.096325E-18
7.450000E+03	3.844290E-16	6.065968E-18
7.460000E+03	3.835580E-16	6.039077E-18
7.470000E+03	3.826558E-16	6.021406E-18
7.480000E+03	3.816364E-16	6.017178E-18
7.490000E+03	3.804129E-16	6.017819E-18
7.500000E+03	3.788989E-16	6.013945E-18
7.510000E+03	3.770395E-16	5.999808E-18
7.520000E+03	3.747693E-16	5.965828E-18
7.530000E+03	3.720775E-16	5.909392E-18
7.540000E+03	3.689827E-16	5.835687E-18
7.550000E+03	3.655207E-16	5.749603E-18
7.560000E+03	3.617811E-16	5.662338E-18
7.570000E+03	3.578885E-16	5.585311E-18
7.580000E+03	3.539693E-16	5.517560E-18
7.590000E+03	3.501444E-16	5.457431E-18
7.600000E+03	3.465533E-16	5.404152E-18
7.610000E+03	3.432989E-16	5.347898E-18
7.620000E+03	3.404624E-16	5.282525E-18
7.630000E+03	3.381083E-16	5.208764E-18
7.640000E+03	3.362699E-16	5.125918E-18
7.650000E+03	3.349692E-16	5.039665E-18
7.660000E+03	3.341804E-16	4.959060E-18
7.670000E+03	3.338465E-16	4.886481E-18
7.680000E+03	3.338964E-16	4.826640E-18
7.690000E+03	3.342338E-16	4.784027E-18
7.700000E+03	3.347350E-16	4.751898E-18
7.710000E+03	3.352950E-16	4.726010E-18
7.720000E+03	3.358495E-16	4.706339E-18
7.730000E+03	3.363597E-16	4.686367E-18
7.740000E+03	3.368195E-16	4.665805E-18
7.750000E+03	3.372668E-16	4.650248E-18
7.760000E+03	3.377699E-16	4.638232E-18
