#wls	flux	fluxerr
1.600000E+03	3.128020E-17	2.872992E-17
1.640000E+03	3.197096E-17	2.923561E-17
1.680000E+03	3.270169E-17	2.976113E-17
1.720000E+03	3.347293E-17	3.030490E-17
1.760000E+03	3.428496E-17	3.086491E-17
1.800000E+03	3.513097E-17	3.143257E-17
1.840000E+03	3.603086E-17	3.202296E-17
1.880000E+03	3.697051E-17	3.262043E-17
1.920000E+03	3.796305E-17	3.323325E-17
1.960000E+03	3.899994E-17	3.385024E-17
2.000000E+03	4.008646E-17	3.447205E-17
2.040000E+03	4.122771E-17	3.509868E-17
2.080000E+03	4.241239E-17	3.571582E-17
2.120000E+03	4.364366E-17	3.632124E-17
2.160000E+03	4.491553E-17	3.690479E-17
2.200000E+03	4.622040E-17	3.745491E-17
2.240000E+03	4.755750E-17	3.796558E-17
2.280000E+03	4.890685E-17	3.841551E-17
2.320000E+03	5.026365E-17	3.879599E-17
2.360000E+03	5.161204E-17	3.909017E-17
2.400000E+03	5.292424E-17	3.927334E-17
2.440000E+03	5.418826E-17	3.933426E-17
2.480000E+03	5.538053E-17	3.925471E-17
2.520000E+03	5.647515E-17	3.901716E-17
2.560000E+03	5.743481E-17	3.859923E-17
2.600000E+03	5.824010E-17	3.799422E-17
2.640000E+03	5.886178E-17	3.719230E-17
2.680000E+03	5.926213E-17	3.618253E-17
2.720000E+03	5.943400E-17	3.497713E-17
2.760000E+03	5.934600E-17	3.357723E-17
2.800000E+03	5.898230E-17	3.199720E-17
2.840000E+03	5.834378E-17	3.026338E-17
2.880000E+03	5.743227E-17	2.840385E-17
2.920000E+03	5.627750E-17	2.646053E-17
2.960000E+03	5.491264E-17	2.447399E-17
3.000000E+03	5.338403E-17	2.248636E-17
3.010000E+03	5.298416E-17	2.199466E-17
3.020000E+03	5.258041E-17	2.150675E-17
3.030000E+03	5.217370E-17	2.102313E-17
3.040000E+03	5.176503E-17	2.054431E-17
3.050000E+03	5.135545E-17	2.007076E-17
3.060000E+03	5.094606E-17	1.960294E-17
3.070000E+03	5.053801E-17	1.914131E-17
3.080000E+03	5.013248E-17	1.868627E-17
3.090000E+03	4.973701E-17	1.824055E-17
3.100000E+03	4.934020E-17	1.779981E-17
3.110000E+03	4.896198E-17	1.737112E-17
3.120000E+03	4.858508E-17	1.694807E-17
3.130000E+03	4.822302E-17	1.653523E-17
3.140000E+03	4.787695E-17	1.613265E-17
3.150000E+03	4.754227E-17	1.573843E-17
3.160000E+03	4.722044E-17	1.535277E-17
3.170000E+03	4.692410E-17	1.497936E-17
3.180000E+03	4.664321E-17	1.461451E-17
3.190000E+03	4.638468E-17	1.425994E-17
3.200000E+03	4.614974E-17	1.391551E-17
3.210000E+03	4.594495E-17	1.358260E-17
3.220000E+03	4.576085E-17	1.325781E-17
3.230000E+03	4.560403E-17	1.294248E-17
3.240000E+03	4.548080E-17	1.263775E-17
3.250000E+03	4.538711E-17	1.234176E-17
3.260000E+03	4.532908E-17	1.205545E-17
3.270000E+03	4.530272E-17	1.177700E-17
3.280000E+03	4.531889E-17	1.150843E-17
3.290000E+03	4.536372E-17	1.124537E-17
3.300000E+03	4.545273E-17	1.099092E-17
3.310000E+03	4.558175E-17	1.074312E-17
3.320000E+03	4.575145E-17	1.050126E-17
3.330000E+03	4.596238E-17	1.026458E-17
3.340000E+03	4.621971E-17	1.003331E-17
3.350000E+03	4.651902E-17	9.805546E-18
3.360000E+03	4.686053E-17	9.580466E-18
3.370000E+03	4.725356E-17	9.359062E-18
3.380000E+03	4.768862E-17	9.138518E-18
3.390000E+03	4.817461E-17	8.919704E-18
3.400000E+03	4.870632E-17	8.700788E-18
3.410000E+03	4.928291E-17	8.480897E-18
3.420000E+03	4.990329E-17	8.259216E-18
3.430000E+03	5.057067E-17	8.035749E-18
3.440000E+03	5.128332E-17	7.809794E-18
3.450000E+03	5.203920E-17	7.580810E-18
3.460000E+03	5.283590E-17	7.348458E-18
3.470000E+03	5.367065E-17	7.112660E-18
3.480000E+03	5.454030E-17	6.873662E-18
3.490000E+03	5.544599E-17	6.632669E-18
3.500000E+03	5.638391E-17	6.390734E-18
3.510000E+03	5.734534E-17	6.149005E-18
3.520000E+03	5.833528E-17	5.910845E-18
3.530000E+03	5.934002E-17	5.678419E-18
3.540000E+03	6.036914E-17	5.457081E-18
3.550000E+03	6.140441E-17	5.250424E-18
3.560000E+03	6.245121E-17	5.065064E-18
3.570000E+03	6.350606E-17	4.907379E-18
3.580000E+03	6.457079E-17	4.784258E-18
3.590000E+03	6.563389E-17	4.700706E-18
3.600000E+03	6.669858E-17	4.660106E-18
3.610000E+03	6.776860E-17	4.661372E-18
3.620000E+03	6.884367E-17	4.699258E-18
3.630000E+03	6.991974E-17	4.766207E-18
3.640000E+03	7.100750E-17	4.854931E-18
3.650000E+03	7.209990E-17	4.957030E-18
3.660000E+03	7.320900E-17	5.066025E-18
3.670000E+03	7.433358E-17	5.175432E-18
3.680000E+03	7.547741E-17	5.280142E-18
3.690000E+03	7.665361E-17	5.376760E-18
3.700000E+03	7.785727E-17	5.461644E-18
3.710000E+03	7.909724E-17	5.533059E-18
3.720000E+03	8.037791E-17	5.589823E-18
3.730000E+03	8.170383E-17	5.631536E-18
3.740000E+03	8.307976E-17	5.658481E-18
3.750000E+03	8.451535E-17	5.671830E-18
3.760000E+03	8.601643E-17	5.672911E-18
3.770000E+03	8.758543E-17	5.663121E-18
3.780000E+03	8.923066E-17	5.644385E-18
3.790000E+03	9.097107E-17	5.619275E-18
3.800000E+03	9.281005E-17	5.589231E-18
3.810000E+03	9.477097E-17	5.556682E-18
3.820000E+03	9.686180E-17	5.522839E-18
3.830000E+03	9.911029E-17	5.489777E-18
3.840000E+03	1.015326E-16	5.458651E-18
3.850000E+03	1.041503E-16	5.430773E-18
3.860000E+03	1.069853E-16	5.407415E-18
3.870000E+03	1.100631E-16	5.390081E-18
3.880000E+03	1.133994E-16	5.379737E-18
3.890000E+03	1.170146E-16	5.377304E-18
3.900000E+03	1.209304E-16	5.383800E-18
3.910000E+03	1.251562E-16	5.399503E-18
3.920000E+03	1.297125E-16	5.424222E-18
3.930000E+03	1.346002E-16	5.456812E-18
3.940000E+03	1.398347E-16	5.496635E-18
3.950000E+03	1.453936E-16	5.540458E-18
3.960000E+03	1.512611E-16	5.585666E-18
3.970000E+03	1.574085E-16	5.630273E-18
3.980000E+03	1.637866E-16	5.672399E-18
3.990000E+03	1.703321E-16	5.711369E-18
4.000000E+03	1.769959E-16	5.747873E-18
4.001148E+03	2.245584E-16	8.874613E-17
4.002416E+03	2.238600E-16	8.874028E-17
4.006221E+03	2.231100E-16	8.873329E-17
4.007490E+03	2.234059E-16	8.873517E-17
4.008758E+03	2.239358E-16	8.873884E-17
4.010027E+03	2.252848E-16	8.874881E-17
4.011295E+03	2.256003E-16	8.875081E-17
4.012563E+03	2.252527E-16	8.874770E-17
4.013832E+03	2.255682E-16	8.874969E-17
4.015100E+03	2.256301E-16	8.874973E-17
4.016369E+03	2.243659E-16	8.873965E-17
4.017637E+03	2.234332E-16	8.873217E-17
4.018905E+03	2.237876E-16	8.873444E-17
4.020174E+03	2.231669E-16	8.872935E-17
4.021442E+03	2.207909E-16	8.871121E-17
4.022711E+03	2.184344E-16	8.869347E-17
4.023979E+03	2.175600E-16	8.868675E-17
4.025248E+03	2.168611E-16	8.868135E-17
4.026516E+03	2.151285E-16	8.866855E-17
4.027785E+03	2.146051E-16	8.866452E-17
4.029053E+03	2.158760E-16	8.871587E-17
4.030321E+03	2.170105E-16	8.869086E-17
4.031590E+03	2.164675E-16	8.721557E-17
4.032858E+03	2.161001E-16	9.040482E-17
4.034127E+03	2.158692E-16	9.327799E-17
4.035395E+03	2.157943E-16	9.486255E-17
4.036664E+03	2.158560E-16	9.492480E-17
4.037932E+03	2.160152E-16	9.455794E-17
4.039200E+03	2.162719E-16	9.540166E-17
4.040469E+03	2.166261E-16	9.639913E-17
4.041737E+03	2.170779E-16	9.604764E-17
4.043006E+03	2.175687E-16	9.525692E-17
4.044274E+03	2.181376E-16	9.297259E-17
4.045542E+03	2.187649E-16	8.817737E-17
4.046811E+03	2.194118E-16	8.621568E-17
4.048079E+03	2.196100E-16	8.471137E-17
4.049348E+03	2.196327E-16	8.228503E-17
4.050616E+03	2.195967E-16	8.221466E-17
4.051885E+03	2.200681E-16	8.140673E-17
4.053153E+03	2.219636E-16	7.889094E-17
4.054421E+03	2.240153E-16	7.488601E-17
4.055690E+03	2.249549E-16	6.863132E-17
4.056958E+03	2.260701E-16	6.617532E-17
4.058227E+03	2.274780E-16	6.587295E-17
4.059495E+03	2.276568E-16	6.594619E-17
4.060764E+03	2.269965E-16	6.747574E-17
4.062032E+03	2.267460E-16	6.766219E-17
4.063300E+03	2.266515E-16	6.755632E-17
4.064569E+03	2.275522E-16	6.584948E-17
4.065837E+03	2.291358E-16	6.549319E-17
4.067106E+03	2.311097E-16	6.556851E-17
4.068374E+03	2.333569E-16	6.494896E-17
4.069642E+03	2.358382E-16	6.566572E-17
4.070911E+03	2.381830E-16	6.590206E-17
4.072179E+03	2.395131E-16	6.728202E-17
4.073448E+03	2.398481E-16	6.769405E-17
4.074716E+03	2.397537E-16	6.516976E-17
4.075985E+03	2.406155E-16	6.524381E-17
4.077253E+03	2.425507E-16	6.727105E-17
4.078521E+03	2.438419E-16	6.746614E-17
4.079790E+03	2.440207E-16	6.836537E-17
4.081058E+03	2.451754E-16	6.946431E-17
4.082327E+03	2.483987E-16	6.566261E-17
4.083595E+03	2.505097E-16	5.974731E-17
4.084863E+03	2.532257E-16	5.648334E-17
4.086132E+03	2.550831E-16	5.481803E-17
4.087400E+03	2.554767E-16	5.472185E-17
4.088669E+03	2.562802E-16	5.370737E-17
4.089937E+03	2.586256E-16	5.242762E-17
4.091206E+03	2.608149E-16	5.244423E-17
4.092474E+03	2.627114E-16	5.239672E-17
4.093742E+03	2.635540E-16	5.068971E-17
4.095011E+03	2.619569E-16	5.036178E-17
4.096279E+03	2.590714E-16	4.983186E-17
4.097548E+03	2.569861E-16	4.929232E-17
4.098816E+03	2.548813E-16	4.933951E-17
4.100085E+03	2.518199E-16	4.897690E-17
4.101353E+03	2.500663E-16	4.926321E-17
4.102621E+03	2.514358E-16	4.946517E-17
4.103890E+03	2.538594E-16	5.029381E-17
4.105158E+03	2.560488E-16	5.133663E-17
4.106427E+03	2.589019E-16	5.046797E-17
4.107695E+03	2.616966E-16	5.069448E-17
4.108963E+03	2.639056E-16	5.137086E-17
4.110232E+03	2.657829E-16	4.923232E-17
4.111500E+03	2.675626E-16	5.034508E-17
4.112769E+03	2.691080E-16	5.164586E-17
4.114037E+03	2.692088E-16	5.188324E-17
4.115306E+03	2.670060E-16	5.070035E-17
4.116574E+03	2.652327E-16	5.069409E-17
4.117842E+03	2.653139E-16	5.111773E-17
4.119111E+03	2.658442E-16	4.991150E-17
4.120379E+03	2.659644E-16	5.186480E-17
4.121648E+03	2.650890E-16	5.346131E-17
4.122916E+03	2.650530E-16	5.175457E-17
4.124185E+03	2.676333E-16	5.168902E-17
4.125453E+03	2.698621E-16	5.228635E-17
4.126721E+03	2.696895E-16	4.989762E-17
4.127990E+03	2.694583E-16	5.081666E-17
4.129258E+03	2.700081E-16	4.984852E-17
4.130527E+03	2.705579E-16	4.836439E-17
4.131795E+03	2.704048E-16	4.823141E-17
4.133064E+03	2.675181E-16	4.821231E-17
4.134332E+03	2.640651E-16	4.801707E-17
4.135600E+03	2.609634E-16	4.808268E-17
4.136869E+03	2.591699E-16	4.845257E-17
4.138137E+03	2.588799E-16	4.900884E-17
4.139406E+03	2.592147E-16	4.927974E-17
4.140674E+03	2.589442E-16	4.930913E-17
4.141943E+03	2.573849E-16	4.930880E-17
4.143211E+03	2.566652E-16	4.954961E-17
4.144479E+03	2.574882E-16	4.958743E-17
4.145748E+03	2.575496E-16	5.016126E-17
4.147016E+03	2.565174E-16	5.140316E-17
4.148285E+03	2.557976E-16	5.205653E-17
4.149553E+03	2.551169E-16	5.221830E-17
4.150822E+03	2.540455E-16	5.263930E-17
4.152090E+03	2.529742E-16	5.295837E-17
4.153358E+03	2.525863E-16	5.239536E-17
4.154627E+03	2.522765E-16	5.134814E-17
4.155895E+03	2.525330E-16	5.124062E-17
4.157164E+03	2.526138E-16	5.097186E-17
4.158432E+03	2.517376E-16	4.987378E-17
4.159700E+03	2.507637E-16	5.081796E-17
4.160969E+03	2.487742E-16	5.047173E-17
4.162237E+03	2.472534E-16	4.982022E-17
4.163506E+03	2.458107E-16	4.828187E-17
4.164774E+03	2.434109E-16	4.783412E-17
4.166042E+03	2.403861E-16	4.796022E-17
4.167311E+03	2.382206E-16	4.781670E-17
4.168579E+03	2.359769E-16	4.719483E-17
4.169848E+03	2.318581E-16	4.496630E-17
4.171116E+03	2.276220E-16	4.187931E-17
4.172385E+03	2.252804E-16	4.122328E-17
4.173653E+03	2.239740E-16	4.177924E-17
4.174922E+03	2.216519E-16	4.452936E-17
4.176190E+03	2.190758E-16	4.527965E-17
4.177458E+03	2.184919E-16	4.365987E-17
4.178727E+03	2.187089E-16	4.305388E-17
4.179995E+03	2.172265E-16	4.278804E-17
4.181264E+03	2.133805E-16	4.272983E-17
4.182532E+03	2.101791E-16	4.303673E-17
4.183800E+03	2.068018E-16	4.411176E-17
4.185069E+03	2.024867E-16	4.471210E-17
4.186337E+03	1.982498E-16	4.533526E-17
4.187606E+03	1.956145E-16	4.478968E-17
4.188874E+03	1.940868E-16	4.543827E-17
4.190143E+03	1.928560E-16	4.546504E-17
4.191411E+03	1.921037E-16	4.597502E-17
4.192679E+03	1.910311E-16	4.648828E-17
4.193948E+03	1.891281E-16	4.659965E-17
4.195216E+03	1.867368E-16	4.608763E-17
4.196485E+03	1.844196E-16	4.474458E-17
4.197753E+03	1.816472E-16	4.385736E-17
4.199021E+03	1.787575E-16	4.399427E-17
4.200290E+03	1.772002E-16	4.239980E-17
4.201558E+03	1.770552E-16	4.220375E-17
4.202827E+03	1.770489E-16	4.354368E-17
4.204095E+03	1.756067E-16	4.297339E-17
4.205364E+03	1.725586E-16	4.298694E-17
4.206632E+03	1.691138E-16	4.277689E-17
4.207900E+03	1.663977E-16	4.291932E-17
4.209169E+03	1.655629E-16	4.228879E-17
4.210437E+03	1.664376E-16	4.098652E-17
4.211706E+03	1.672146E-16	4.000713E-17
4.212974E+03	1.672864E-16	3.936116E-17
4.214243E+03	1.676863E-16	3.918755E-17
4.215511E+03	1.676975E-16	3.942956E-17
4.216779E+03	1.672905E-16	3.945139E-17
4.218048E+03	1.660199E-16	3.894244E-17
4.219316E+03	1.651303E-16	3.899239E-17
4.220585E+03	1.641489E-16	3.898414E-17
4.221853E+03	1.621592E-16	3.878094E-17
4.223122E+03	1.605075E-16	3.831256E-17
4.224390E+03	1.602489E-16	3.365470E-17
4.225658E+03	1.610806E-16	3.213205E-17
4.226927E+03	1.611620E-16	3.221890E-17
4.228195E+03	1.599166E-16	3.228783E-17
4.229464E+03	1.589311E-16	3.760666E-17
4.230732E+03	1.591961E-16	4.554928E-17
4.232001E+03	1.595529E-16	4.575940E-17
4.233269E+03	1.594076E-16	4.452944E-17
4.234537E+03	1.593072E-16	4.373978E-17
4.235806E+03	1.588648E-16	4.589080E-17
4.237074E+03	1.586451E-16	5.066511E-17
4.238343E+03	1.586522E-16	5.047115E-17
4.239611E+03	1.579616E-16	5.044853E-17
4.240880E+03	1.571987E-16	5.047576E-17
4.242148E+03	1.565882E-16	5.134946E-17
4.243416E+03	1.543108E-16	5.242434E-17
4.244685E+03	1.523968E-16	5.261158E-17
4.245953E+03	1.524018E-16	5.253943E-17
4.247222E+03	1.530575E-16	5.255257E-17
4.248490E+03	1.529922E-16	5.204230E-17
4.249758E+03	1.527978E-16	5.344691E-17
4.251027E+03	1.534711E-16	5.320630E-17
4.252295E+03	1.535757E-16	5.203458E-17
4.253564E+03	1.519919E-16	5.210967E-17
4.254832E+03	1.505839E-16	5.230997E-17
4.256100E+03	1.505008E-16	5.260738E-17
4.257369E+03	1.498041E-16	5.652749E-17
4.258637E+03	1.477610E-16	5.806299E-17
4.259906E+03	1.464310E-16	5.901303E-17
4.261174E+03	1.457753E-16	6.219741E-17
4.262443E+03	1.446584E-16	6.262526E-17
4.263711E+03	1.423786E-16	6.262606E-17
4.264980E+03	1.405991E-16	6.267406E-17
4.266248E+03	1.409068E-16	6.288525E-17
4.267516E+03	1.416484E-16	6.321117E-17
4.268785E+03	1.417880E-16	6.447560E-17
4.270053E+03	1.412123E-16	6.469264E-17
4.271322E+03	1.398548E-16	6.459899E-17
4.272590E+03	1.391384E-16	6.474939E-17
4.273858E+03	1.389536E-16	6.546825E-17
4.275127E+03	1.385224E-16	6.572699E-17
4.276395E+03	1.384236E-16	6.569528E-17
4.277664E+03	1.382348E-16	6.573131E-17
4.278932E+03	1.371372E-16	6.289378E-17
4.280200E+03	1.351170E-16	5.690540E-17
4.281469E+03	1.329541E-16	5.594068E-17
4.282737E+03	1.318838E-16	5.637471E-17
4.284006E+03	1.317106E-16	5.739629E-17
4.285274E+03	1.322468E-16	5.639923E-17
4.286543E+03	1.338307E-16	5.268760E-17
4.287811E+03	1.341226E-16	5.223820E-17
4.289079E+03	1.326750E-16	5.250253E-17
4.290348E+03	1.318274E-16	5.209985E-17
4.291616E+03	1.319610E-16	5.044183E-17
4.292885E+03	1.317858E-16	4.928944E-17
4.297958E+03	1.313662E-16	4.890538E-17
4.299227E+03	1.314860E-16	4.886876E-17
4.300495E+03	1.323584E-16	4.988033E-17
4.301764E+03	1.330979E-16	5.136520E-17
4.303032E+03	1.328835E-16	5.016768E-17
4.304301E+03	1.327160E-16	4.988496E-17
4.305569E+03	1.331604E-16	5.029068E-17
4.306837E+03	1.331004E-16	5.011334E-17
4.308106E+03	1.324403E-16	5.009216E-17
4.309374E+03	1.322082E-16	4.981298E-17
4.310643E+03	1.321971E-16	4.536934E-17
4.311911E+03	1.320706E-16	4.310452E-17
4.313180E+03	1.319597E-16	4.557463E-17
4.314448E+03	1.324450E-16	4.130100E-17
4.315716E+03	1.335481E-16	4.054288E-17
4.316985E+03	1.345944E-16	4.054500E-17
4.318253E+03	1.346047E-16	4.261341E-17
4.319522E+03	1.332916E-16	4.474420E-17
4.320790E+03	1.324379E-16	4.442689E-17
4.322059E+03	1.326007E-16	4.277444E-17
4.323327E+03	1.324037E-16	4.304016E-17
4.324595E+03	1.318041E-16	4.303625E-17
4.325864E+03	1.321975E-16	4.555612E-17
4.327132E+03	1.329330E-16	4.723762E-17
4.328401E+03	1.334671E-16	4.680348E-17
4.329669E+03	1.343981E-16	4.845728E-17
4.330937E+03	1.353935E-16	5.042456E-17
4.332206E+03	1.355132E-16	5.080149E-17
4.333474E+03	1.340866E-16	5.061156E-17
4.334743E+03	1.319250E-16	5.122821E-17
4.336011E+03	1.308737E-16	5.240057E-17
4.337280E+03	1.301586E-16	5.263801E-17
4.338548E+03	1.295276E-16	5.216636E-17
4.339816E+03	1.303627E-16	5.202992E-17
4.341085E+03	1.319505E-16	5.249945E-17
4.342353E+03	1.331473E-16	5.254740E-17
4.344890E+03	1.343307E-16	5.255026E-17
4.346158E+03	1.347827E-16	5.241793E-17
4.347427E+03	1.340578E-16	5.191481E-17
4.348695E+03	1.332449E-16	5.230321E-17
4.349964E+03	1.330145E-16	5.298790E-17
4.351232E+03	1.329465E-16	5.193968E-17
4.352501E+03	1.325851E-16	5.079121E-17
4.353769E+03	1.326675E-16	5.135860E-17
4.355038E+03	1.331879E-16	5.232260E-17
4.356306E+03	1.326799E-16	5.299637E-17
4.357574E+03	1.322344E-16	5.327981E-17
4.358843E+03	1.321644E-16	5.333944E-17
4.360111E+03	1.309643E-16	5.363521E-17
4.361380E+03	1.296137E-16	5.310009E-17
4.362648E+03	1.305836E-16	5.314484E-17
4.363916E+03	1.327949E-16	5.080060E-17
4.365185E+03	1.333093E-16	5.116986E-17
4.366453E+03	1.320623E-16	5.092862E-17
4.367722E+03	1.308719E-16	5.206186E-17
4.368990E+03	1.305007E-16	5.222318E-17
4.370258E+03	1.310718E-16	5.004659E-17
4.371527E+03	1.322059E-16	5.074712E-17
4.372795E+03	1.332891E-16	5.127252E-17
4.374064E+03	1.346070E-16	5.068172E-17
4.375332E+03	1.349434E-16	5.068679E-17
4.376601E+03	1.352271E-16	4.846004E-17
4.377869E+03	1.370493E-16	4.574421E-17
4.379137E+03	1.397630E-16	4.583179E-17
4.380406E+03	1.420192E-16	4.404895E-17
4.381674E+03	1.435443E-16	4.140520E-17
4.382943E+03	1.445845E-16	4.040932E-17
4.384211E+03	1.454331E-16	4.064406E-17
4.385480E+03	1.468761E-16	4.018289E-17
4.386748E+03	1.488390E-16	3.888184E-17
4.388016E+03	1.506592E-16	3.781711E-17
4.389285E+03	1.520865E-16	3.718461E-17
4.390553E+03	1.532088E-16	3.754633E-17
4.391822E+03	1.556527E-16	3.722598E-17
4.393090E+03	1.588023E-16	3.755414E-17
4.394359E+03	1.609763E-16	3.774055E-17
4.395627E+03	1.625873E-16	3.820571E-17
4.396895E+03	1.641123E-16	3.840853E-17
4.398164E+03	1.660596E-16	3.784519E-17
4.399432E+03	1.691270E-16	3.693426E-17
4.400701E+03	1.716256E-16	3.747319E-17
4.401969E+03	1.726148E-16	3.746857E-17
4.403238E+03	1.731759E-16	3.678149E-17
4.404506E+03	1.745836E-16	3.591620E-17
4.405774E+03	1.761652E-16	3.427395E-17
4.407043E+03	1.766343E-16	3.450063E-17
4.408311E+03	1.765952E-16	3.414969E-17
4.409580E+03	1.767907E-16	3.485752E-17
4.410848E+03	1.767769E-16	3.485264E-17
4.412117E+03	1.761767E-16	3.721743E-17
4.413385E+03	1.762470E-16	3.883312E-17
4.414653E+03	1.772791E-16	3.809344E-17
4.415922E+03	1.773846E-16	3.912443E-17
4.417190E+03	1.765125E-16	3.807231E-17
4.418459E+03	1.756444E-16	3.522011E-17
4.419727E+03	1.764399E-16	3.502500E-17
4.420995E+03	1.777614E-16	3.445225E-17
4.422264E+03	1.782637E-16	3.481688E-17
4.423532E+03	1.783319E-16	3.556438E-17
4.424801E+03	1.774011E-16	3.554997E-17
4.426069E+03	1.764039E-16	3.551019E-17
4.427337E+03	1.769570E-16	3.557899E-17
4.428606E+03	1.786400E-16	3.576245E-17
4.429874E+03	1.791735E-16	3.669663E-17
4.431143E+03	1.776679E-16	3.714755E-17
4.432411E+03	1.753842E-16	3.712105E-17
4.433680E+03	1.737907E-16	3.744757E-17
4.434948E+03	1.729889E-16	3.991660E-17
4.436217E+03	1.731078E-16	4.174614E-17
4.437485E+03	1.738465E-16	4.252529E-17
4.438753E+03	1.741551E-16	4.288915E-17
4.440022E+03	1.739789E-16	4.308398E-17
4.441290E+03	1.735641E-16	4.350299E-17
4.442559E+03	1.728091E-16	4.275279E-17
4.443827E+03	1.719036E-16	4.347153E-17
4.445096E+03	1.706443E-16	4.325623E-17
4.446364E+03	1.689490E-16	4.363271E-17
4.447632E+03	1.674981E-16	4.396285E-17
4.448901E+03	1.672162E-16	4.389674E-17
4.450169E+03	1.678707E-16	4.397554E-17
4.451438E+03	1.681577E-16	4.365034E-17
4.452706E+03	1.673518E-16	4.315998E-17
4.453974E+03	1.656819E-16	4.260240E-17
4.455243E+03	1.638927E-16	4.355060E-17
4.456511E+03	1.621172E-16	4.504152E-17
4.457780E+03	1.599254E-16	4.592420E-17
4.459048E+03	1.581655E-16	4.495760E-17
4.460316E+03	1.565894E-16	4.497327E-17
4.461585E+03	1.541199E-16	4.285723E-17
4.462853E+03	1.511187E-16	4.110244E-17
4.464122E+03	1.491868E-16	4.111951E-17
4.465390E+03	1.484494E-16	4.036052E-17
4.466659E+03	1.469007E-16	4.015169E-17
4.467927E+03	1.440441E-16	4.015576E-17
4.469195E+03	1.410351E-16	4.055418E-17
4.470464E+03	1.388511E-16	4.060934E-17
4.471732E+03	1.371655E-16	3.967989E-17
4.473001E+03	1.357791E-16	3.897675E-17
4.474269E+03	1.346037E-16	3.926018E-17
4.475538E+03	1.337255E-16	3.878247E-17
4.476806E+03	1.333497E-16	3.914012E-17
4.478074E+03	1.326944E-16	3.988770E-17
4.479343E+03	1.322032E-16	3.873602E-17
4.480611E+03	1.324412E-16	3.804379E-17
4.481880E+03	1.326224E-16	3.812955E-17
4.483148E+03	1.324597E-16	3.819792E-17
4.484417E+03	1.325354E-16	3.617411E-17
