#wls	flux	fluxerr
1.600000E+03	3.512812E-17	3.225065E-17
1.640000E+03	3.592804E-17	3.283883E-17
1.680000E+03	3.677481E-17	3.345059E-17
1.720000E+03	3.766203E-17	3.407774E-17
1.760000E+03	3.859704E-17	3.472434E-17
1.800000E+03	3.958756E-17	3.539438E-17
1.840000E+03	4.063387E-17	3.608479E-17
1.880000E+03	4.172783E-17	3.678477E-17
1.920000E+03	4.288431E-17	3.750352E-17
1.960000E+03	4.410237E-17	3.823578E-17
2.000000E+03	4.538021E-17	3.897518E-17
2.040000E+03	4.671498E-17	3.971411E-17
2.080000E+03	4.812059E-17	4.045877E-17
2.120000E+03	4.958360E-17	4.119165E-17
2.160000E+03	5.110686E-17	4.190872E-17
2.200000E+03	5.267287E-17	4.258890E-17
2.240000E+03	5.429055E-17	4.323263E-17
2.280000E+03	5.593780E-17	4.381525E-17
2.320000E+03	5.759913E-17	4.431809E-17
2.360000E+03	5.925601E-17	4.472090E-17
2.400000E+03	6.088669E-17	4.500221E-17
2.440000E+03	6.246608E-17	4.513973E-17
2.480000E+03	6.397658E-17	4.511860E-17
2.520000E+03	6.536538E-17	4.490174E-17
2.560000E+03	6.660913E-17	4.447674E-17
2.600000E+03	6.767192E-17	4.382630E-17
2.640000E+03	6.850626E-17	4.293054E-17
2.680000E+03	6.909752E-17	4.179564E-17
2.720000E+03	6.939047E-17	4.040775E-17
2.760000E+03	6.936653E-17	3.878112E-17
2.800000E+03	6.899321E-17	3.692685E-17
2.840000E+03	6.826828E-17	3.487706E-17
2.880000E+03	6.720074E-17	3.267151E-17
2.920000E+03	6.579510E-17	3.034825E-17
2.960000E+03	6.410890E-17	2.796831E-17
3.000000E+03	6.219707E-17	2.558503E-17
3.010000E+03	6.168650E-17	2.499270E-17
3.020000E+03	6.117797E-17	2.440847E-17
3.030000E+03	6.065670E-17	2.382659E-17
3.040000E+03	6.013193E-17	2.325093E-17
3.050000E+03	5.960493E-17	2.268209E-17
3.060000E+03	5.907707E-17	2.212067E-17
3.070000E+03	5.854974E-17	2.156722E-17
3.080000E+03	5.803167E-17	2.102489E-17
3.090000E+03	5.750981E-17	2.048887E-17
3.100000E+03	5.699310E-17	1.996232E-17
3.110000E+03	5.649007E-17	1.944807E-17
3.120000E+03	5.599529E-17	1.894396E-17
3.130000E+03	5.551051E-17	1.845036E-17
3.140000E+03	5.504405E-17	1.796972E-17
3.150000E+03	5.459093E-17	1.750003E-17
3.160000E+03	5.415936E-17	1.704351E-17
3.170000E+03	5.374458E-17	1.659819E-17
3.180000E+03	5.336084E-17	1.616795E-17
3.190000E+03	5.299724E-17	1.574886E-17
3.200000E+03	5.265562E-17	1.534094E-17
3.210000E+03	5.234970E-17	1.494756E-17
3.220000E+03	5.207496E-17	1.456665E-17
3.230000E+03	5.183296E-17	1.419791E-17
3.240000E+03	5.162525E-17	1.384100E-17
3.250000E+03	5.145899E-17	1.349699E-17
3.260000E+03	5.132988E-17	1.316387E-17
3.270000E+03	5.124488E-17	1.284252E-17
3.280000E+03	5.119973E-17	1.253093E-17
3.290000E+03	5.120657E-17	1.223110E-17
3.300000E+03	5.125565E-17	1.193963E-17
3.310000E+03	5.135343E-17	1.165706E-17
3.320000E+03	5.150088E-17	1.138253E-17
3.330000E+03	5.170407E-17	1.111630E-17
3.340000E+03	5.195845E-17	1.085624E-17
3.350000E+03	5.226980E-17	1.060246E-17
3.360000E+03	5.263337E-17	1.035286E-17
3.370000E+03	5.305458E-17	1.010743E-17
3.380000E+03	5.353349E-17	9.865080E-18
3.390000E+03	5.407505E-17	9.625621E-18
3.400000E+03	5.467372E-17	9.387001E-18
3.410000E+03	5.532882E-17	9.148191E-18
3.420000E+03	5.604445E-17	8.909037E-18
3.430000E+03	5.681416E-17	8.667789E-18
3.440000E+03	5.764642E-17	8.425208E-18
3.450000E+03	5.853398E-17	8.179825E-18
3.460000E+03	5.947419E-17	7.931223E-18
3.470000E+03	6.046394E-17	7.679286E-18
3.480000E+03	6.150992E-17	7.425531E-18
3.490000E+03	6.259768E-17	7.169335E-18
3.500000E+03	6.372775E-17	6.912593E-18
3.510000E+03	6.489504E-17	6.657249E-18
3.520000E+03	6.609406E-17	6.406068E-18
3.530000E+03	6.732429E-17	6.163217E-18
3.540000E+03	6.857986E-17	5.933298E-18
3.550000E+03	6.984969E-17	5.721450E-18
3.560000E+03	7.113877E-17	5.534921E-18
3.570000E+03	7.243156E-17	5.379590E-18
3.580000E+03	7.373435E-17	5.262584E-18
3.590000E+03	7.504383E-17	5.188678E-18
3.600000E+03	7.635249E-17	5.159560E-18
3.610000E+03	7.766452E-17	5.174056E-18
3.620000E+03	7.898001E-17	5.227255E-18
3.630000E+03	8.029500E-17	5.311547E-18
3.640000E+03	8.162770E-17	5.419563E-18
3.650000E+03	8.296567E-17	5.541698E-18
3.660000E+03	8.432347E-17	5.670646E-18
3.670000E+03	8.570563E-17	5.799362E-18
3.680000E+03	8.711166E-17	5.921588E-18
3.690000E+03	8.855668E-17	6.033303E-18
3.700000E+03	9.003476E-17	6.130221E-18
3.710000E+03	9.155520E-17	6.210200E-18
3.720000E+03	9.312676E-17	6.272088E-18
3.730000E+03	9.474739E-17	6.314955E-18
3.740000E+03	9.641985E-17	6.339070E-18
3.750000E+03	9.815183E-17	6.345789E-18
3.760000E+03	9.994108E-17	6.336448E-18
3.770000E+03	1.017964E-16	6.313550E-18
3.780000E+03	1.037183E-16	6.279282E-18
3.790000E+03	1.057198E-16	6.236589E-18
3.800000E+03	1.078124E-16	6.188031E-18
3.810000E+03	1.100111E-16	6.135984E-18
3.820000E+03	1.123297E-16	6.082292E-18
3.830000E+03	1.148004E-16	6.029384E-18
3.840000E+03	1.174381E-16	5.978392E-18
3.850000E+03	1.202750E-16	5.931165E-18
3.860000E+03	1.233394E-16	5.889271E-18
3.870000E+03	1.266541E-16	5.854088E-18
3.880000E+03	1.302574E-16	5.827638E-18
3.890000E+03	1.341666E-16	5.810672E-18
3.900000E+03	1.384109E-16	5.804406E-18
3.910000E+03	1.430102E-16	5.809264E-18
3.920000E+03	1.479784E-16	5.824342E-18
3.930000E+03	1.533324E-16	5.848598E-18
3.940000E+03	1.590666E-16	5.879943E-18
3.950000E+03	1.651745E-16	5.915457E-18
3.960000E+03	1.716243E-16	5.951872E-18
3.970000E+03	1.783747E-16	5.987158E-18
3.980000E+03	1.853735E-16	6.020236E-18
3.990000E+03	1.925553E-16	6.051432E-18
3.999940E+03	2.136090E-16	9.287724E-17
4.001208E+03	2.166517E-16	9.027470E-17
4.002477E+03	2.207073E-16	9.092300E-17
4.003746E+03	2.229675E-16	9.023324E-17
4.005015E+03	2.243194E-16	8.768688E-17
4.006283E+03	2.253901E-16	8.714646E-17
4.007552E+03	2.263311E-16	8.666707E-17
4.008821E+03	2.273805E-16	8.626782E-17
4.010089E+03	2.295337E-16	8.678297E-17
4.011358E+03	2.294581E-16	8.491115E-17
4.012627E+03	2.288631E-16	7.903017E-17
4.013896E+03	2.315146E-16	7.806245E-17
4.015164E+03	2.361576E-16	8.101675E-17
4.016433E+03	2.401302E-16	8.162351E-17
4.017702E+03	2.427395E-16	8.185039E-17
4.018970E+03	2.442017E-16	8.721832E-17
4.020239E+03	2.454478E-16	8.922436E-17
4.021508E+03	2.460878E-16	8.838752E-17
4.022777E+03	2.459052E-16	8.845024E-17
4.024045E+03	2.450298E-16	8.351591E-17
4.025314E+03	2.433965E-16	8.206759E-17
4.026583E+03	2.422395E-16	8.221900E-17
4.027852E+03	2.403895E-16	8.257596E-17
4.029120E+03	2.384527E-16	8.466700E-17
4.030389E+03	2.379885E-16	8.545058E-17
4.031658E+03	2.386938E-16	8.336046E-17
4.032927E+03	2.375798E-16	8.118909E-17
4.034195E+03	2.351012E-16	8.032695E-17
4.035464E+03	2.359366E-16	7.780853E-17
4.036733E+03	2.377253E-16	7.798263E-17
4.038001E+03	2.366113E-16	7.883540E-17
4.039270E+03	2.332874E-16	7.797844E-17
4.040539E+03	2.306998E-16	7.634370E-17
4.041808E+03	2.287404E-16	8.048059E-17
4.043076E+03	2.272575E-16	8.176645E-17
4.044345E+03	2.252545E-16	8.142939E-17
4.045614E+03	2.204341E-16	8.256431E-17
4.046883E+03	2.150172E-16	8.256446E-17
4.048151E+03	2.131434E-16	8.248714E-17
4.049420E+03	2.146896E-16	8.279824E-17
4.050689E+03	2.153408E-16	8.607233E-17
4.051957E+03	2.135124E-16	8.419631E-17
4.053226E+03	2.122625E-16	8.381069E-17
4.054495E+03	2.135838E-16	8.373148E-17
4.055764E+03	2.148120E-16	8.695813E-17
4.057032E+03	2.150213E-16	9.020794E-17
4.058301E+03	2.152438E-16	9.017921E-17
4.059570E+03	2.153947E-16	9.021455E-17
4.060839E+03	2.150123E-16	9.022056E-17
4.062107E+03	2.131248E-16	9.043194E-17
4.063376E+03	2.091422E-16	8.912996E-17
4.064645E+03	2.051006E-16	8.770064E-17
4.065914E+03	2.032428E-16	9.045187E-17
4.067182E+03	2.010334E-16	9.132656E-17
4.068451E+03	1.990646E-16	8.744360E-17
4.069720E+03	1.979351E-16	8.569440E-17
4.070988E+03	1.957165E-16	8.654268E-17
4.072257E+03	1.929379E-16	8.730441E-17
4.073526E+03	1.928755E-16	8.795130E-17
4.074795E+03	1.956862E-16	8.878113E-17
4.076063E+03	1.981262E-16	9.024058E-17
4.077332E+03	2.000847E-16	8.988619E-17
4.078601E+03	2.035714E-16	8.690098E-17
4.079869E+03	2.083651E-16	8.588637E-17
4.081138E+03	2.123087E-16	8.609683E-17
4.082407E+03	2.134873E-16	8.602265E-17
4.083676E+03	2.139671E-16	8.613780E-17
4.084944E+03	2.181159E-16	8.609572E-17
4.086213E+03	2.243387E-16	8.671773E-17
4.087482E+03	2.290208E-16	8.598278E-17
4.088751E+03	2.319012E-16	8.544280E-17
4.090019E+03	2.335009E-16	8.498024E-17
4.091288E+03	2.339499E-16	8.236611E-17
4.092557E+03	2.350288E-16	8.072689E-17
4.093825E+03	2.378454E-16	8.049305E-17
4.095094E+03	2.408145E-16	7.876822E-17
4.096363E+03	2.425676E-16	8.009639E-17
4.097632E+03	2.437562E-16	8.276155E-17
4.098900E+03	2.462702E-16	8.055129E-17
4.100169E+03	2.498491E-16	7.777207E-17
4.101438E+03	2.518642E-16	7.793213E-17
4.102707E+03	2.526194E-16	7.933113E-17
4.103975E+03	2.532878E-16	8.283293E-17
4.105244E+03	2.563033E-16	8.224197E-17
4.106513E+03	2.602322E-16	7.907669E-17
4.107782E+03	2.615100E-16	7.922022E-17
4.109050E+03	2.623533E-16	7.975727E-17
4.110319E+03	2.633924E-16	7.974446E-17
4.111588E+03	2.632578E-16	7.906596E-17
4.112856E+03	2.630146E-16	7.947450E-17
4.114125E+03	2.639889E-16	7.825097E-17
4.115394E+03	2.662681E-16	7.503209E-17
4.116663E+03	2.686346E-16	7.475586E-17
4.117931E+03	2.702404E-16	7.638879E-17
4.119200E+03	2.695847E-16	7.653797E-17
4.120469E+03	2.677545E-16	7.564017E-17
4.121738E+03	2.660981E-16	7.822105E-17
4.123006E+03	2.651377E-16	8.009135E-17
4.124275E+03	2.656564E-16	7.862904E-17
4.125544E+03	2.670020E-16	7.866567E-17
4.126812E+03	2.680433E-16	8.247120E-17
4.128081E+03	2.687583E-16	8.339794E-17
4.129350E+03	2.683639E-16	8.321148E-17
4.130619E+03	2.674689E-16	8.312908E-17
4.131887E+03	2.667914E-16	8.290842E-17
4.133156E+03	2.661793E-16	8.294433E-17
4.134425E+03	2.650883E-16	8.319229E-17
4.135694E+03	2.641060E-16	8.254776E-17
4.136962E+03	2.638638E-16	8.261442E-17
4.138231E+03	2.648408E-16	8.351636E-17
4.139500E+03	2.661882E-16	8.334193E-17
4.140769E+03	2.655979E-16	8.145539E-17
4.142037E+03	2.628954E-16	8.106813E-17
4.143306E+03	2.606063E-16	8.093800E-17
4.144575E+03	2.590139E-16	8.090754E-17
4.145843E+03	2.565719E-16	7.876226E-17
4.147112E+03	2.543692E-16	7.495251E-17
4.148381E+03	2.532990E-16	7.404874E-17
4.149650E+03	2.534268E-16	7.407662E-17
4.150918E+03	2.542737E-16	7.404924E-17
4.152187E+03	2.533778E-16	7.235678E-17
4.153456E+03	2.507603E-16	6.885234E-17
4.154725E+03	2.494283E-16	6.399474E-17
4.155993E+03	2.505369E-16	6.437465E-17
4.157262E+03	2.518856E-16	6.959811E-17
4.158531E+03	2.510766E-16	6.996974E-17
4.159799E+03	2.500496E-16	6.999791E-17
4.161068E+03	2.503960E-16	7.000564E-17
4.162337E+03	2.508732E-16	6.882184E-17
4.163606E+03	2.501514E-16	6.841949E-17
4.164874E+03	2.474671E-16	6.866430E-17
4.166143E+03	2.436921E-16	6.830782E-17
4.167412E+03	2.407889E-16	6.656383E-17
4.168681E+03	2.387795E-16	6.807902E-17
4.169949E+03	2.379260E-16	6.956276E-17
4.171218E+03	2.382503E-16	6.560187E-17
4.172487E+03	2.378766E-16	6.344667E-17
4.173755E+03	2.376120E-16	6.329277E-17
4.175024E+03	2.389403E-16	6.088193E-17
4.176293E+03	2.397887E-16	5.596091E-17
4.177562E+03	2.383896E-16	5.492001E-17
4.178830E+03	2.366630E-16	5.492102E-17
4.180099E+03	2.355474E-16	5.584365E-17
4.181368E+03	2.342351E-16	5.591954E-17
4.182636E+03	2.326608E-16	5.631396E-17
4.183905E+03	2.312172E-16	5.781567E-17
4.185174E+03	2.299045E-16	5.963517E-17
4.186443E+03	2.281549E-16	5.999919E-17
4.187712E+03	2.261649E-16	5.963119E-17
4.188980E+03	2.243930E-16	5.991818E-17
4.190249E+03	2.223587E-16	5.993422E-17
4.191518E+03	2.193632E-16	5.987972E-17
4.192786E+03	2.159718E-16	5.981456E-17
4.194055E+03	2.120840E-16	5.979662E-17
4.195324E+03	2.093535E-16	5.982300E-17
4.196593E+03	2.093539E-16	6.030052E-17
4.197861E+03	2.118694E-16	6.107194E-17
4.199130E+03	2.136796E-16	6.109524E-17
4.200399E+03	2.133395E-16	6.066688E-17
4.201667E+03	2.127678E-16	6.086016E-17
4.202936E+03	2.116845E-16	6.011806E-17
4.204205E+03	2.088370E-16	5.984394E-17
4.205474E+03	2.051844E-16	5.742075E-17
4.206742E+03	2.023271E-16	5.041442E-17
4.208011E+03	1.996968E-16	4.805754E-17
4.209280E+03	1.954740E-16	4.732919E-17
4.210549E+03	1.904610E-16	4.675981E-17
4.211817E+03	1.852504E-16	4.699732E-17
4.213086E+03	1.795817E-16	4.693762E-17
4.214355E+03	1.750583E-16	4.663506E-17
4.215623E+03	1.719497E-16	4.639324E-17
4.216892E+03	1.687597E-16	4.685724E-17
4.218161E+03	1.652737E-16	4.424066E-17
4.219430E+03	1.613976E-16	4.098684E-17
4.220698E+03	1.585452E-16	4.214162E-17
4.221967E+03	1.574324E-16	4.205864E-17
4.223236E+03	1.562165E-16	4.118475E-17
4.224505E+03	1.536957E-16	4.104179E-17
4.225773E+03	1.516737E-16	4.170159E-17
4.227042E+03	1.521431E-16	4.124400E-17
4.228311E+03	1.532915E-16	4.246803E-17
4.229579E+03	1.526641E-16	4.104175E-17
4.230848E+03	1.508363E-16	4.050430E-17
4.232117E+03	1.493543E-16	3.989500E-17
4.233386E+03	1.490923E-16	3.737282E-17
4.234654E+03	1.499871E-16	3.477442E-17
4.235923E+03	1.509303E-16	3.377204E-17
4.237192E+03	1.519810E-16	3.317477E-17
4.238461E+03	1.531307E-16	3.231112E-17
4.239729E+03	1.538926E-16	3.261619E-17
4.240998E+03	1.547403E-16	3.263283E-17
4.242267E+03	1.570196E-16	3.287902E-17
4.243535E+03	1.599286E-16	3.382407E-17
4.244804E+03	1.631627E-16	3.793632E-17
4.246073E+03	1.661497E-16	3.965021E-17
4.247342E+03	1.665650E-16	3.855576E-17
4.248610E+03	1.648859E-16	3.914046E-17
4.249879E+03	1.644107E-16	4.042666E-17
4.251148E+03	1.661269E-16	3.982604E-17
4.252417E+03	1.677403E-16	3.997074E-17
4.253685E+03	1.684436E-16	4.150940E-17
4.254954E+03	1.680390E-16	4.215563E-17
4.256223E+03	1.657208E-16	4.285127E-17
4.257492E+03	1.624387E-16	4.469838E-17
4.258760E+03	1.603895E-16	4.611263E-17
4.260029E+03	1.589041E-16	4.629151E-17
4.261298E+03	1.580968E-16	4.654117E-17
4.262566E+03	1.579986E-16	4.754176E-17
4.263835E+03	1.571231E-16	4.763471E-17
4.265104E+03	1.563002E-16	4.668125E-17
4.266373E+03	1.567949E-16	4.668836E-17
4.267641E+03	1.576127E-16	4.645915E-17
4.268910E+03	1.562537E-16	4.758633E-17
4.270179E+03	1.534841E-16	4.737743E-17
4.271448E+03	1.522409E-16	4.673381E-17
4.272716E+03	1.531994E-16	4.674289E-17
4.273985E+03	1.539207E-16	4.674884E-17
4.275254E+03	1.537147E-16	4.682534E-17
4.276523E+03	1.541155E-16	5.035182E-17
4.277791E+03	1.540789E-16	5.011486E-17
4.279060E+03	1.518416E-16	4.987860E-17
4.280329E+03	1.492520E-16	4.985553E-17
4.281597E+03	1.484630E-16	5.217580E-17
4.282866E+03	1.491319E-16	5.584718E-17
4.284135E+03	1.501617E-16	5.802581E-17
4.285404E+03	1.512688E-16	5.908578E-17
4.286672E+03	1.514368E-16	5.944415E-17
4.287941E+03	1.507754E-16	5.930264E-17
4.289210E+03	1.505606E-16	6.012053E-17
4.290479E+03	1.505395E-16	6.005554E-17
4.291747E+03	1.507604E-16	5.966229E-17
4.293016E+03	1.515913E-16	6.046384E-17
4.294285E+03	1.528846E-16	6.135903E-17
4.295553E+03	1.542619E-16	6.537305E-17
4.296822E+03	1.541511E-16	7.096448E-17
4.298091E+03	1.522478E-16	7.119078E-17
4.299360E+03	1.523417E-16	7.196013E-17
4.300628E+03	1.542109E-16	7.288979E-17
4.301897E+03	1.549682E-16	7.294691E-17
4.303166E+03	1.553446E-16	7.334605E-17
4.304435E+03	1.565142E-16	7.427903E-17
4.305703E+03	1.579398E-16	7.392679E-17
4.306972E+03	1.588920E-16	7.321071E-17
4.308241E+03	1.597100E-16	7.192485E-17
4.309509E+03	1.602306E-16	7.165167E-17
4.310778E+03	1.597968E-16	7.157854E-17
4.312047E+03	1.588471E-16	7.132173E-17
4.313316E+03	1.589821E-16	7.148306E-17
4.314584E+03	1.610291E-16	7.145963E-17
4.315853E+03	1.634847E-16	7.111382E-17
4.317122E+03	1.644984E-16	7.105063E-17
4.318391E+03	1.648835E-16	7.130062E-17
4.319659E+03	1.656064E-16	7.152065E-17
4.320928E+03	1.663825E-16	7.150321E-17
4.322197E+03	1.668631E-16	7.151811E-17
4.323465E+03	1.672821E-16	7.190051E-17
4.324734E+03	1.668712E-16	7.151061E-17
4.326003E+03	1.650276E-16	6.879687E-17
4.327272E+03	1.633470E-16	6.806460E-17
4.328540E+03	1.627657E-16	6.805040E-17
4.329809E+03	1.622085E-16	6.988867E-17
4.331078E+03	1.617971E-16	6.893233E-17
4.332346E+03	1.617965E-16	6.558225E-17
4.333615E+03	1.616060E-16	6.328675E-17
4.334884E+03	1.611790E-16	6.160500E-17
4.336153E+03	1.609708E-16	6.003593E-17
4.337422E+03	1.602587E-16	6.008433E-17
4.338690E+03	1.595951E-16	6.178981E-17
4.339959E+03	1.591149E-16	6.370381E-17
4.341228E+03	1.576442E-16	6.466850E-17
4.342496E+03	1.560670E-16	6.488366E-17
4.343765E+03	1.551640E-16	6.296109E-17
4.345034E+03	1.550481E-16	5.734027E-17
4.346303E+03	1.548039E-16	4.921670E-17
4.347571E+03	1.540466E-16	4.817551E-17
4.348840E+03	1.526165E-16	5.044551E-17
4.350109E+03	1.521597E-16	4.986981E-17
4.351377E+03	1.537874E-16	5.073213E-17
4.352646E+03	1.558605E-16	4.915367E-17
4.353915E+03	1.564998E-16	4.668371E-17
4.355184E+03	1.561608E-16	4.712581E-17
4.356452E+03	1.547258E-16	4.782521E-17
4.357721E+03	1.520017E-16	4.846660E-17
4.358990E+03	1.486791E-16	4.881154E-17
4.360259E+03	1.461973E-16	4.884355E-17
4.361527E+03	1.453719E-16	4.939850E-17
4.362796E+03	1.453262E-16	5.000199E-17
4.364065E+03	1.448729E-16	5.025808E-17
4.365333E+03	1.431762E-16	5.046284E-17
4.366602E+03	1.410758E-16	5.176723E-17
4.367871E+03	1.405620E-16	5.095867E-17
4.369140E+03	1.411256E-16	5.104301E-17
4.370408E+03	1.408557E-16	5.099734E-17
4.371677E+03	1.399648E-16	5.195412E-17
4.372946E+03	1.388653E-16	5.328697E-17
4.375483E+03	1.384115E-16	5.392021E-17
4.376752E+03	1.390487E-16	5.409158E-17
4.378021E+03	1.404694E-16	5.398572E-17
4.379289E+03	1.415510E-16	5.402084E-17
4.380558E+03	1.415298E-16	5.257069E-17
4.381827E+03	1.408028E-16	5.198438E-17
4.383096E+03	1.414054E-16	5.179475E-17
4.384364E+03	1.439689E-16	5.134573E-17
4.385633E+03	1.470573E-16	5.121668E-17
4.386902E+03	1.499177E-16	5.094997E-17
4.388171E+03	1.529878E-16	5.132583E-17
4.389439E+03	1.545702E-16	5.025938E-17
4.390708E+03	1.542512E-16	4.887862E-17
4.391977E+03	1.545522E-16	4.766741E-17
4.393245E+03	1.562113E-16	4.682686E-17
4.394514E+03	1.573907E-16	4.654959E-17
4.395783E+03	1.573967E-16	4.669671E-17
4.397052E+03	1.560821E-16	4.760260E-17
4.398320E+03	1.543935E-16	5.001509E-17
4.399589E+03	1.537855E-16	5.024371E-17
4.400858E+03	1.544963E-16	5.265488E-17
4.402127E+03	1.559750E-16	5.208344E-17
4.403395E+03	1.577322E-16	5.235753E-17
4.404664E+03	1.588713E-16	5.589176E-17
4.405933E+03	1.586866E-16	5.844660E-17
4.407202E+03	1.593744E-16	5.835548E-17
4.408470E+03	1.617032E-16	5.781010E-17
4.409739E+03	1.637343E-16	5.801462E-17
4.411008E+03	1.654477E-16	5.898034E-17
4.412276E+03	1.671215E-16	5.906892E-17
4.413545E+03	1.679917E-16	5.789432E-17
4.414814E+03	1.679868E-16	5.754862E-17
4.416083E+03	1.681133E-16	5.732307E-17
4.417351E+03	1.684940E-16	5.746462E-17
4.418620E+03	1.687990E-16	5.784389E-17
4.419889E+03	1.692135E-16	5.728552E-17
4.421158E+03	1.695880E-16	5.734939E-17
4.422426E+03	1.696616E-16	5.652120E-17
4.423695E+03	1.694789E-16	5.476084E-17
4.424964E+03	1.688166E-16	5.354394E-17
4.426233E+03	1.682011E-16	5.342527E-17
4.427501E+03	1.678911E-16	5.377869E-17
4.428770E+03	1.672151E-16	5.387351E-17
4.430039E+03	1.670166E-16	5.381585E-17
4.431307E+03	1.684274E-16	5.445119E-17
4.432576E+03	1.691734E-16	5.443335E-17
4.433845E+03	1.679750E-16	5.431154E-17
4.435114E+03	1.667138E-16	5.457925E-17
4.436382E+03	1.661491E-16	5.604659E-17
4.437651E+03	1.657897E-16	5.708958E-17
4.438920E+03	1.656270E-16	5.805319E-17
4.440189E+03	1.662529E-16	5.790202E-17
4.441457E+03	1.671428E-16	5.817258E-17
4.442726E+03	1.676509E-16	5.933656E-17
4.443995E+03	1.671890E-16	5.946242E-17
4.445263E+03	1.664073E-16	5.944506E-17
4.446532E+03	1.658289E-16	5.895074E-17
4.447801E+03	1.650335E-16	5.726020E-17
4.449070E+03	1.652467E-16	5.326043E-17
4.450338E+03	1.676322E-16	5.061001E-17
4.451607E+03	1.688841E-16	5.359497E-17
4.452876E+03	1.681046E-16	5.500472E-17
4.454145E+03	1.673898E-16	5.110428E-17
4.455413E+03	1.672143E-16	4.807077E-17
4.456682E+03	1.670926E-16	4.697559E-17
4.457951E+03	1.664671E-16	4.699890E-17
4.459219E+03	1.651651E-16	4.708555E-17
4.460488E+03	1.639053E-16	4.636230E-17
4.461757E+03	1.639916E-16	4.566850E-17
4.463026E+03	1.653550E-16	4.619593E-17
4.464294E+03	1.672366E-16	4.685636E-17
4.465563E+03	1.685541E-16	4.655350E-17
4.466832E+03	1.677873E-16	4.488647E-17
4.468100E+03	1.661258E-16	4.526915E-17
4.469369E+03	1.661232E-16	4.565116E-17
4.470638E+03	1.672958E-16	4.624807E-17
4.471907E+03	1.682176E-16	4.683128E-17
4.473175E+03	1.681258E-16	4.703713E-17
4.474444E+03	1.666675E-16	4.780370E-17
4.475713E+03	1.649754E-16	4.787923E-17
4.476982E+03	1.639360E-16	4.769668E-17
4.478250E+03	1.637562E-16	4.769255E-17
