#wls	flux	fluxerr
1.600000E+03	1.323635E-17	1.230033E-17
1.640000E+03	1.349519E-17	1.250169E-17
1.680000E+03	1.376493E-17	1.270852E-17
1.720000E+03	1.404296E-17	1.291789E-17
1.760000E+03	1.433385E-17	1.313351E-17
1.800000E+03	1.463481E-17	1.335225E-17
1.840000E+03	1.494792E-17	1.357538E-17
1.880000E+03	1.527265E-17	1.380177E-17
1.920000E+03	1.560571E-17	1.402773E-17
1.960000E+03	1.594884E-17	1.425412E-17
2.000000E+03	1.630378E-17	1.448170E-17
2.040000E+03	1.666671E-17	1.470623E-17
2.080000E+03	1.703905E-17	1.492812E-17
2.120000E+03	1.741932E-17	1.514516E-17
2.160000E+03	1.780583E-17	1.535495E-17
2.200000E+03	1.819953E-17	1.555739E-17
2.240000E+03	1.859839E-17	1.574974E-17
2.280000E+03	1.900008E-17	1.592907E-17
2.320000E+03	1.940210E-17	1.609234E-17
2.360000E+03	1.980776E-17	1.624136E-17
2.400000E+03	2.021125E-17	1.637039E-17
2.440000E+03	2.060960E-17	1.647619E-17
2.480000E+03	2.100586E-17	1.656039E-17
2.520000E+03	2.139697E-17	1.661973E-17
2.560000E+03	2.177986E-17	1.665111E-17
2.600000E+03	2.215769E-17	1.665623E-17
2.640000E+03	2.252452E-17	1.662994E-17
2.680000E+03	2.288077E-17	1.657204E-17
2.720000E+03	2.323011E-17	1.648458E-17
2.760000E+03	2.356739E-17	1.636333E-17
2.800000E+03	2.389983E-17	1.621270E-17
2.840000E+03	2.422293E-17	1.602893E-17
2.880000E+03	2.454137E-17	1.581445E-17
2.920000E+03	2.485698E-17	1.556958E-17
2.960000E+03	2.517438E-17	1.529620E-17
3.000000E+03	2.549229E-17	1.499239E-17
3.010000E+03	2.557425E-17	1.491296E-17
3.020000E+03	2.565301E-17	1.482966E-17
3.030000E+03	2.573405E-17	1.474566E-17
3.040000E+03	2.581728E-17	1.466086E-17
3.050000E+03	2.589725E-17	1.457215E-17
3.060000E+03	2.597932E-17	1.448255E-17
3.070000E+03	2.606342E-17	1.439199E-17
3.080000E+03	2.614415E-17	1.429745E-17
3.090000E+03	2.622945E-17	1.420330E-17
3.100000E+03	2.631127E-17	1.410513E-17
3.110000E+03	2.639747E-17	1.400716E-17
3.120000E+03	2.648008E-17	1.390513E-17
3.130000E+03	2.656686E-17	1.380312E-17
3.140000E+03	2.665250E-17	1.369834E-17
3.150000E+03	2.673692E-17	1.359076E-17
3.160000E+03	2.682258E-17	1.348165E-17
3.170000E+03	2.690937E-17	1.337092E-17
3.180000E+03	2.699714E-17	1.325850E-17
3.190000E+03	2.708325E-17	1.314308E-17
3.200000E+03	2.717008E-17	1.302586E-17
3.210000E+03	2.725748E-17	1.290675E-17
3.220000E+03	2.734530E-17	1.278571E-17
3.230000E+03	2.743337E-17	1.266265E-17
3.240000E+03	2.751909E-17	1.253641E-17
3.250000E+03	2.760718E-17	1.240919E-17
3.260000E+03	2.769260E-17	1.227873E-17
3.270000E+03	2.778001E-17	1.214715E-17
3.280000E+03	2.786444E-17	1.201231E-17
3.290000E+03	2.795046E-17	1.187624E-17
3.300000E+03	2.803318E-17	1.173692E-17
3.310000E+03	2.811712E-17	1.159631E-17
3.320000E+03	2.819975E-17	1.145343E-17
3.330000E+03	2.828319E-17	1.130918E-17
3.340000E+03	2.836269E-17	1.116177E-17
3.350000E+03	2.844267E-17	1.101303E-17
3.360000E+03	2.852069E-17	1.086209E-17
3.370000E+03	2.859885E-17	1.070987E-17
3.380000E+03	2.867479E-17	1.055555E-17
3.390000E+03	2.875060E-17	1.040003E-17
3.400000E+03	2.882398E-17	1.024257E-17
3.410000E+03	2.889704E-17	1.008406E-17
3.420000E+03	2.896755E-17	9.923839E-18
3.430000E+03	2.903765E-17	9.762768E-18
3.440000E+03	2.910730E-17	9.600955E-18
3.450000E+03	2.917444E-17	9.437854E-18
3.460000E+03	2.924124E-17	9.274314E-18
3.470000E+03	2.930778E-17	9.110488E-18
3.480000E+03	2.937419E-17	8.946548E-18
3.490000E+03	2.944066E-17	8.782678E-18
3.500000E+03	2.950742E-17	8.619076E-18
3.510000E+03	2.957278E-17	8.455393E-18
3.520000E+03	2.964104E-17	8.292994E-18
3.530000E+03	2.971064E-17	8.131534E-18
3.540000E+03	2.978207E-17	7.971258E-18
3.550000E+03	2.985778E-17	7.812912E-18
3.560000E+03	2.993465E-17	7.655747E-18
3.570000E+03	3.001721E-17	7.500995E-18
3.580000E+03	3.010446E-17	7.348420E-18
3.590000E+03	3.019923E-17	7.198710E-18
3.600000E+03	3.030082E-17	7.051646E-18
3.610000E+03	3.041232E-17	6.907872E-18
3.620000E+03	3.053335E-17	6.767180E-18
3.630000E+03	3.066729E-17	6.630165E-18
3.640000E+03	3.081406E-17	6.496625E-18
3.650000E+03	3.097728E-17	6.367113E-18
3.660000E+03	3.115893E-17	6.241781E-18
3.670000E+03	3.135940E-17	6.120441E-18
3.680000E+03	3.158437E-17	6.003920E-18
3.690000E+03	3.183281E-17	5.891698E-18
3.700000E+03	3.210896E-17	5.784245E-18
3.710000E+03	3.241550E-17	5.681689E-18
3.720000E+03	3.275528E-17	5.584153E-18
3.730000E+03	3.313130E-17	5.491744E-18
3.740000E+03	3.354674E-17	5.404556E-18
3.750000E+03	3.400497E-17	5.322664E-18
3.760000E+03	3.451123E-17	5.246372E-18
3.770000E+03	3.506594E-17	5.175183E-18
3.780000E+03	3.567642E-17	5.109588E-18
3.790000E+03	3.634516E-17	5.049282E-18
3.800000E+03	3.707655E-17	4.994173E-18
3.810000E+03	3.787685E-17	4.944350E-18
3.820000E+03	3.874731E-17	4.899171E-18
3.830000E+03	3.969800E-17	4.859071E-18
3.840000E+03	4.072852E-17	4.823108E-18
3.850000E+03	4.184728E-17	4.791389E-18
3.860000E+03	4.305905E-17	4.763541E-18
3.870000E+03	4.436463E-17	4.738762E-18
3.880000E+03	4.577367E-17	4.717247E-18
3.890000E+03	4.728399E-17	4.697989E-18
3.900000E+03	4.890209E-17	4.680996E-18
3.910000E+03	5.062971E-17	4.665934E-18
3.920000E+03	5.246521E-17	4.652371E-18
3.930000E+03	5.440738E-17	4.640193E-18
3.940000E+03	5.645533E-17	4.629627E-18
3.950000E+03	5.860190E-17	4.620725E-18
3.960000E+03	6.084199E-17	4.614100E-18
3.970000E+03	6.316134E-17	4.610031E-18
3.980000E+03	6.555471E-17	4.609803E-18
3.990000E+03	6.800047E-17	4.613742E-18
4.000000E+03	7.048656E-17	4.622978E-18
4.010000E+03	7.299168E-17	4.637974E-18
4.020000E+03	7.549528E-17	4.659088E-18
4.030000E+03	7.797550E-17	4.686322E-18
4.040000E+03	8.040955E-17	4.719283E-18
4.050000E+03	8.277691E-17	4.757349E-18
4.060000E+03	8.504876E-17	4.799085E-18
4.070000E+03	8.720483E-17	4.843276E-18
4.080000E+03	8.922022E-17	4.888233E-18
4.090000E+03	9.107730E-17	4.932527E-18
4.100000E+03	9.275794E-17	4.974613E-18
4.110000E+03	9.424423E-17	5.012918E-18
4.120000E+03	9.552788E-17	5.046373E-18
4.130000E+03	9.659931E-17	5.073839E-18
4.140000E+03	9.745675E-17	5.094595E-18
4.150000E+03	9.810067E-17	5.108029E-18
4.160000E+03	9.854514E-17	5.114228E-18
4.170000E+03	9.879731E-17	5.112888E-18
4.180000E+03	9.887687E-17	5.104325E-18
4.190000E+03	9.880112E-17	5.088695E-18
4.200000E+03	9.859266E-17	5.066401E-18
4.210000E+03	9.827845E-17	5.038048E-18
4.220000E+03	9.787823E-17	5.003865E-18
4.230000E+03	9.741997E-17	4.964509E-18
4.240000E+03	9.692559E-17	4.920355E-18
4.250000E+03	9.642067E-17	4.872019E-18
4.260000E+03	9.592323E-17	4.819830E-18
4.270000E+03	9.544824E-17	4.764115E-18
4.280000E+03	9.501413E-17	4.705589E-18
4.290000E+03	9.462527E-17	4.644551E-18
4.300000E+03	9.428645E-17	4.581674E-18
4.310000E+03	9.399795E-17	4.517803E-18
4.320000E+03	9.375597E-17	4.453993E-18
4.330000E+03	9.355336E-17	4.391519E-18
4.340000E+03	9.337838E-17	4.331755E-18
4.350000E+03	9.322274E-17	4.276426E-18
4.360000E+03	9.307208E-17	4.227005E-18
4.370000E+03	9.292075E-17	4.185171E-18
4.380000E+03	9.276455E-17	4.152243E-18
4.390000E+03	9.260223E-17	4.129037E-18
4.400000E+03	9.244077E-17	4.115905E-18
4.410000E+03	9.229370E-17	4.112671E-18
4.420000E+03	9.218073E-17	4.118805E-18
4.430000E+03	9.212516E-17	4.133524E-18
4.440000E+03	9.215874E-17	4.156239E-18
4.450000E+03	9.231232E-17	4.186338E-18
4.460000E+03	9.261831E-17	4.223454E-18
4.470000E+03	9.311481E-17	4.267748E-18
4.480000E+03	9.382858E-17	4.319182E-18
4.490000E+03	9.479301E-17	4.378346E-18
4.500000E+03	9.603339E-17	4.445762E-18
4.510000E+03	9.756583E-17	4.521795E-18
4.520000E+03	9.940608E-17	4.607017E-18
4.530000E+03	1.015609E-16	4.701769E-18
4.540000E+03	1.040273E-16	4.806083E-18
4.550000E+03	1.067974E-16	4.919889E-18
4.560000E+03	1.098495E-16	5.042586E-18
4.570000E+03	1.131554E-16	5.173366E-18
4.580000E+03	1.166689E-16	5.310701E-18
4.590000E+03	1.203379E-16	5.452920E-18
4.600000E+03	1.240965E-16	5.597840E-18
4.610000E+03	1.278682E-16	5.742907E-18
4.620000E+03	1.315677E-16	5.885280E-18
4.630000E+03	1.351021E-16	6.021820E-18
4.640000E+03	1.383801E-16	6.149435E-18
4.650000E+03	1.413196E-16	6.265346E-18
4.660000E+03	1.438354E-16	6.366453E-18
4.670000E+03	1.458694E-16	6.450624E-18
4.680000E+03	1.473771E-16	6.516072E-18
4.690000E+03	1.483296E-16	6.561480E-18
4.700000E+03	1.487310E-16	6.586794E-18
4.710000E+03	1.486020E-16	6.592535E-18
4.720000E+03	1.479773E-16	6.579735E-18
4.730000E+03	1.469210E-16	6.550585E-18
4.740000E+03	1.454935E-16	6.506955E-18
4.750000E+03	1.437758E-16	6.451416E-18
4.760000E+03	1.418439E-16	6.386130E-18
4.770000E+03	1.397778E-16	6.313269E-18
4.780000E+03	1.376474E-16	6.234522E-18
4.790000E+03	1.355199E-16	6.151537E-18
4.800000E+03	1.334480E-16	6.065555E-18
4.810000E+03	1.314779E-16	5.977912E-18
4.820000E+03	1.296425E-16	5.889806E-18
4.830000E+03	1.279639E-16	5.802463E-18
4.840000E+03	1.264530E-16	5.717072E-18
4.850000E+03	1.251187E-16	5.635159E-18
4.860000E+03	1.239557E-16	5.557880E-18
4.870000E+03	1.229626E-16	5.486715E-18
4.880000E+03	1.221289E-16	5.422763E-18
4.890000E+03	1.214456E-16	5.367060E-18
4.900000E+03	1.209034E-16	5.320451E-18
4.910000E+03	1.204982E-16	5.283720E-18
4.920000E+03	1.202179E-16	5.256957E-18
4.930000E+03	1.200641E-16	5.240474E-18
4.940000E+03	1.200309E-16	5.233843E-18
4.950000E+03	1.201201E-16	5.236579E-18
4.960000E+03	1.203324E-16	5.247829E-18
4.970000E+03	1.206688E-16	5.266496E-18
4.980000E+03	1.211288E-16	5.291309E-18
4.990000E+03	1.217114E-16	5.320980E-18
5.000000E+03	1.224075E-16	5.354036E-18
5.010000E+03	1.232052E-16	5.389154E-18
5.020000E+03	1.240893E-16	5.425251E-18
5.030000E+03	1.250357E-16	5.461296E-18
5.040000E+03	1.260204E-16	5.496713E-18
5.050000E+03	1.270160E-16	5.531161E-18
5.060000E+03	1.279957E-16	5.564632E-18
5.070000E+03	1.289350E-16	5.597344E-18
5.080000E+03	1.298217E-16	5.630042E-18
5.090000E+03	1.306448E-16	5.663301E-18
5.100000E+03	1.314117E-16	5.698114E-18
5.110000E+03	1.321321E-16	5.735081E-18
5.120000E+03	1.328333E-16	5.775009E-18
5.130000E+03	1.335433E-16	5.818247E-18
5.140000E+03	1.342964E-16	5.865007E-18
5.150000E+03	1.351294E-16	5.915389E-18
5.160000E+03	1.360725E-16	5.969137E-18
5.170000E+03	1.371523E-16	6.025956E-18
5.180000E+03	1.383877E-16	6.085473E-18
5.190000E+03	1.397883E-16	6.147278E-18
5.200000E+03	1.413556E-16	6.211055E-18
5.210000E+03	1.430770E-16	6.276302E-18
5.220000E+03	1.449343E-16	6.342681E-18
5.230000E+03	1.468943E-16	6.409477E-18
5.240000E+03	1.489254E-16	6.476176E-18
5.250000E+03	1.509840E-16	6.541687E-18
5.260000E+03	1.530274E-16	6.604725E-18
5.270000E+03	1.550041E-16	6.663254E-18
5.280000E+03	1.568719E-16	6.715167E-18
5.290000E+03	1.585829E-16	6.757629E-18
5.300000E+03	1.600948E-16	6.787559E-18
5.310000E+03	1.613696E-16	6.801645E-18
5.320000E+03	1.623776E-16	6.796558E-18
5.330000E+03	1.630892E-16	6.768663E-18
5.340000E+03	1.634906E-16	6.714716E-18
5.350000E+03	1.635745E-16	6.631545E-18
5.360000E+03	1.633437E-16	6.516226E-18
5.370000E+03	1.628112E-16	6.366180E-18
5.380000E+03	1.620003E-16	6.179283E-18
5.390000E+03	1.609442E-16	5.954012E-18
5.400000E+03	1.596836E-16	5.689553E-18
5.410000E+03	1.582734E-16	5.386322E-18
5.420000E+03	1.567742E-16	5.046096E-18
5.430000E+03	1.552546E-16	4.672750E-18
5.440000E+03	1.537899E-16	4.273380E-18
5.450000E+03	1.524594E-16	3.860294E-18
5.460000E+03	1.513544E-16	3.454905E-18
5.470000E+03	1.505621E-16	3.093288E-18
5.480000E+03	1.501817E-16	2.833193E-18
5.490000E+03	1.503137E-16	2.750501E-18
5.500000E+03	1.510287E-16	2.887876E-18
5.510000E+03	1.522672E-16	3.190335E-18
5.520000E+03	1.539603E-16	3.586904E-18
5.530000E+03	1.560308E-16	4.025744E-18
5.540000E+03	1.584087E-16	4.474662E-18
5.550000E+03	1.610088E-16	4.913848E-18
5.560000E+03	1.637468E-16	5.330819E-18
5.570000E+03	1.665206E-16	5.716593E-18
5.580000E+03	1.692179E-16	6.064134E-18
5.590000E+03	1.717154E-16	6.367393E-18
5.600000E+03	1.738840E-16	6.621112E-18
5.610000E+03	1.755893E-16	6.820712E-18
5.620000E+03	1.766971E-16	6.962482E-18
5.630000E+03	1.771002E-16	7.044701E-18
5.640000E+03	1.767021E-16	7.067002E-18
5.650000E+03	1.754482E-16	7.031547E-18
5.660000E+03	1.733106E-16	6.942238E-18
5.670000E+03	1.703086E-16	6.805260E-18
5.680000E+03	1.664974E-16	6.628271E-18
5.690000E+03	1.619659E-16	6.419968E-18
5.700000E+03	1.568324E-16	6.189571E-18
5.710000E+03	1.512272E-16	5.945869E-18
5.720000E+03	1.453024E-16	5.697446E-18
5.730000E+03	1.391994E-16	5.451325E-18
5.740000E+03	1.330671E-16	5.213724E-18
5.750000E+03	1.270415E-16	4.989402E-18
5.760000E+03	1.212475E-16	4.781937E-18
5.770000E+03	1.157950E-16	4.593849E-18
5.780000E+03	1.107831E-16	4.427033E-18
5.790000E+03	1.062945E-16	4.282760E-18
5.800000E+03	1.023970E-16	4.161912E-18
5.810000E+03	9.914467E-17	4.065096E-18
5.820000E+03	9.657744E-17	3.992629E-18
5.830000E+03	9.472847E-17	3.944795E-18
5.840000E+03	9.361693E-17	3.921466E-18
5.850000E+03	9.325509E-17	3.922325E-18
5.860000E+03	9.364748E-17	3.946782E-18
5.870000E+03	9.479074E-17	3.993940E-18
5.880000E+03	9.667394E-17	4.062629E-18
5.890000E+03	9.927232E-17	4.151197E-18
5.900000E+03	1.025472E-16	4.257594E-18
5.910000E+03	1.064477E-16	4.379553E-18
5.920000E+03	1.109001E-16	4.514262E-18
5.930000E+03	1.158053E-16	4.658343E-18
5.940000E+03	1.210482E-16	4.808294E-18
5.950000E+03	1.264877E-16	4.960053E-18
5.960000E+03	1.319667E-16	5.109381E-18
5.970000E+03	1.373175E-16	5.251948E-18
5.980000E+03	1.423694E-16	5.383531E-18
5.990000E+03	1.469588E-16	5.500214E-18
6.000000E+03	1.509419E-16	5.598662E-18
6.010000E+03	1.541972E-16	5.676000E-18
6.020000E+03	1.566372E-16	5.730084E-18
6.030000E+03	1.582202E-16	5.759852E-18
6.040000E+03	1.589374E-16	5.764849E-18
6.050000E+03	1.588172E-16	5.745498E-18
6.060000E+03	1.579280E-16	5.703340E-18
6.070000E+03	1.563564E-16	5.640447E-18
6.080000E+03	1.542078E-16	5.559609E-18
6.090000E+03	1.516025E-16	5.464412E-18
6.100000E+03	1.486649E-16	5.358931E-18
6.110000E+03	1.455102E-16	5.247315E-18
6.120000E+03	1.422526E-16	5.133976E-18
6.130000E+03	1.390014E-16	5.023311E-18
6.140000E+03	1.358461E-16	4.918981E-18
6.150000E+03	1.328717E-16	4.824266E-18
6.160000E+03	1.301490E-16	4.741651E-18
6.170000E+03	1.277359E-16	4.672860E-18
6.180000E+03	1.256836E-16	4.619212E-18
6.190000E+03	1.240321E-16	4.581599E-18
6.200000E+03	1.228111E-16	4.560691E-18
6.210000E+03	1.220471E-16	4.557297E-18
6.220000E+03	1.217584E-16	4.572232E-18
6.230000E+03	1.219566E-16	4.606310E-18
6.240000E+03	1.226522E-16	4.660472E-18
6.250000E+03	1.238477E-16	4.735342E-18
6.260000E+03	1.255457E-16	4.831362E-18
6.270000E+03	1.277321E-16	4.947915E-18
6.280000E+03	1.303953E-16	5.083873E-18
6.290000E+03	1.335007E-16	5.236495E-18
6.300000E+03	1.370016E-16	5.401810E-18
6.310000E+03	1.408369E-16	5.574631E-18
6.320000E+03	1.449159E-16	5.748215E-18
6.330000E+03	1.491319E-16	5.915161E-18
6.340000E+03	1.533660E-16	6.067987E-18
6.350000E+03	1.574782E-16	6.199193E-18
6.360000E+03	1.613347E-16	6.302606E-18
6.370000E+03	1.647981E-16	6.373023E-18
6.380000E+03	1.677562E-16	6.407088E-18
6.390000E+03	1.701193E-16	6.402727E-18
6.400000E+03	1.718428E-16	6.359452E-18
6.410000E+03	1.729162E-16	6.277510E-18
6.420000E+03	1.733749E-16	6.158183E-18
6.430000E+03	1.732940E-16	6.003691E-18
6.440000E+03	1.727847E-16	5.817389E-18
6.450000E+03	1.719728E-16	5.603507E-18
6.460000E+03	1.710086E-16	5.368016E-18
6.470000E+03	1.700362E-16	5.118266E-18
6.480000E+03	1.691990E-16	4.863955E-18
6.490000E+03	1.686213E-16	4.617539E-18
6.500000E+03	1.684154E-16	4.395435E-18
6.510000E+03	1.686694E-16	4.218321E-18
6.520000E+03	1.694594E-16	4.110851E-18
6.530000E+03	1.708439E-16	4.098141E-18
6.540000E+03	1.727923E-16	4.185804E-18
6.550000E+03	1.751518E-16	4.351308E-18
6.560000E+03	1.777567E-16	4.568173E-18
6.570000E+03	1.804571E-16	4.812551E-18
6.580000E+03	1.831099E-16	5.065057E-18
6.590000E+03	1.855996E-16	5.311619E-18
6.600000E+03	1.878458E-16	5.543187E-18
6.610000E+03	1.897980E-16	5.754763E-18
6.620000E+03	1.914445E-16	5.944768E-18
6.630000E+03	1.928080E-16	6.114064E-18
6.640000E+03	1.939301E-16	6.264704E-18
6.650000E+03	1.948593E-16	6.398933E-18
6.660000E+03	1.956491E-16	6.518733E-18
6.670000E+03	1.963374E-16	6.625017E-18
6.680000E+03	1.969428E-16	6.717626E-18
6.690000E+03	1.974585E-16	6.795459E-18
6.700000E+03	1.978664E-16	6.857424E-18
6.710000E+03	1.981210E-16	6.902265E-18
6.720000E+03	1.981708E-16	6.929551E-18
6.730000E+03	1.979470E-16	6.939223E-18
6.740000E+03	1.973921E-16	6.932322E-18
6.750000E+03	1.964434E-16	6.909931E-18
6.760000E+03	1.950365E-16	6.872751E-18
6.770000E+03	1.931317E-16	6.821622E-18
6.780000E+03	1.906826E-16	6.756190E-18
6.790000E+03	1.876625E-16	6.675815E-18
6.800000E+03	1.840633E-16	6.579643E-18
6.810000E+03	1.798918E-16	6.466629E-18
6.820000E+03	1.751748E-16	6.335944E-18
6.830000E+03	1.699576E-16	6.187176E-18
6.840000E+03	1.643124E-16	6.020951E-18
6.850000E+03	1.583296E-16	5.838925E-18
6.860000E+03	1.521053E-16	5.643549E-18
6.870000E+03	1.457530E-16	5.438588E-18
6.880000E+03	1.393834E-16	5.228306E-18
6.890000E+03	1.331113E-16	5.017542E-18
6.900000E+03	1.270354E-16	4.810698E-18
6.910000E+03	1.212458E-16	4.611760E-18
6.920000E+03	1.158190E-16	4.423999E-18
6.930000E+03	1.108159E-16	4.249850E-18
6.940000E+03	1.062908E-16	4.091319E-18
6.950000E+03	1.022807E-16	3.949660E-18
6.960000E+03	9.881477E-17	3.825843E-18
6.970000E+03	9.591292E-17	3.720526E-18
6.980000E+03	9.359377E-17	3.634394E-18
6.990000E+03	9.186367E-17	3.567712E-18
7.000000E+03	9.073102E-17	3.520841E-18
7.010000E+03	9.019269E-17	3.493691E-18
7.020000E+03	9.024494E-17	3.486135E-18
7.030000E+03	9.087537E-17	3.497726E-18
7.040000E+03	9.206272E-17	3.527743E-18
7.050000E+03	9.377297E-17	3.575130E-18
7.060000E+03	9.596396E-17	3.638760E-18
7.070000E+03	9.857007E-17	3.716920E-18
7.080000E+03	1.015208E-16	3.808030E-18
7.090000E+03	1.047224E-16	3.909893E-18
7.100000E+03	1.080733E-16	4.020130E-18
7.110000E+03	1.114677E-16	4.136101E-18
7.120000E+03	1.147960E-16	4.254692E-18
7.130000E+03	1.179581E-16	4.372596E-18
7.140000E+03	1.208702E-16	4.486464E-18
7.150000E+03	1.234635E-16	4.592877E-18
7.160000E+03	1.256936E-16	4.688842E-18
7.170000E+03	1.275397E-16	4.771972E-18
7.180000E+03	1.290013E-16	4.840607E-18
7.190000E+03	1.301049E-16	4.894288E-18
7.200000E+03	1.308872E-16	4.933231E-18
7.210000E+03	1.313972E-16	4.958521E-18
7.220000E+03	1.316981E-16	4.972172E-18
7.230000E+03	1.318533E-16	4.976628E-18
7.240000E+03	1.319324E-16	4.974986E-18
7.250000E+03	1.319987E-16	4.970479E-18
7.260000E+03	1.321132E-16	4.966567E-18
7.270000E+03	1.323326E-16	4.966705E-18
7.280000E+03	1.326999E-16	4.973798E-18
7.290000E+03	1.332504E-16	4.990182E-18
7.300000E+03	1.340079E-16	5.017283E-18
7.310000E+03	1.349811E-16	5.055394E-18
7.320000E+03	1.361739E-16	5.104060E-18
7.330000E+03	1.375667E-16	5.161564E-18
7.340000E+03	1.391370E-16	5.225873E-18
7.350000E+03	1.408364E-16	5.293970E-18
7.360000E+03	1.426196E-16	5.363073E-18
7.370000E+03	1.444141E-16	5.429580E-18
7.380000E+03	1.461536E-16	5.490363E-18
7.390000E+03	1.477482E-16	5.541668E-18
7.400000E+03	1.491179E-16	5.580401E-18
7.410000E+03	1.501751E-16	5.603523E-18
7.420000E+03	1.508444E-16	5.608831E-18
7.430000E+03	1.510541E-16	5.594678E-18
7.440000E+03	1.507611E-16	5.560901E-18
7.450000E+03	1.499356E-16	5.508145E-18
7.460000E+03	1.485741E-16	5.438209E-18
7.470000E+03	1.466966E-16	5.353730E-18
7.480000E+03	1.443441E-16	5.257879E-18
7.490000E+03	1.415741E-16	5.154034E-18
7.500000E+03	1.384556E-16	5.045479E-18
7.510000E+03	1.350626E-16	4.935140E-18
7.520000E+03	1.314697E-16	4.825367E-18
7.530000E+03	1.277472E-16	4.717780E-18
7.540000E+03	1.239562E-16	4.613111E-18
7.550000E+03	1.201563E-16	4.511605E-18
7.560000E+03	1.163892E-16	4.412576E-18
7.570000E+03	1.126980E-16	4.315360E-18
7.580000E+03	1.091102E-16	4.218923E-18
7.590000E+03	1.056548E-16	4.122713E-18
7.600000E+03	1.023543E-16	4.026533E-18
7.610000E+03	9.922877E-17	3.930720E-18
7.620000E+03	9.629417E-17	3.836078E-18
7.630000E+03	9.357094E-17	3.744089E-18
7.640000E+03	9.107138E-17	3.656256E-18
7.650000E+03	8.881295E-17	3.574450E-18
7.660000E+03	8.681116E-17	3.500472E-18
7.670000E+03	8.508151E-17	3.436002E-18
7.680000E+03	8.363781E-17	3.382471E-18
7.690000E+03	8.249848E-17	3.341277E-18
7.700000E+03	8.167490E-17	3.313316E-18
7.710000E+03	8.118229E-17	3.299419E-18
7.720000E+03	8.103277E-17	3.300063E-18
7.730000E+03	8.123473E-17	3.315338E-18
7.740000E+03	8.179833E-17	3.345159E-18
7.750000E+03	8.272355E-17	3.388758E-18
7.760000E+03	8.401007E-17	3.445085E-18
