#wls	flux	fluxerr
1.600000E+03	5.759815E-18	5.424045E-18
1.640000E+03	5.844978E-18	5.493945E-18
1.680000E+03	5.932988E-18	5.565415E-18
1.720000E+03	6.023924E-18	5.638424E-18
1.760000E+03	6.118936E-18	5.713930E-18
1.800000E+03	6.218157E-18	5.791926E-18
1.840000E+03	6.320635E-18	5.871385E-18
1.880000E+03	6.427586E-18	5.953284E-18
1.920000E+03	6.538048E-18	6.036565E-18
1.960000E+03	6.653293E-18	6.122225E-18
2.000000E+03	6.773518E-18	6.210242E-18
2.040000E+03	6.898939E-18	6.300593E-18
2.080000E+03	7.028598E-18	6.392169E-18
2.120000E+03	7.162710E-18	6.484915E-18
2.160000E+03	7.303989E-18	6.581010E-18
2.200000E+03	7.450323E-18	6.678230E-18
2.240000E+03	7.603314E-18	6.777682E-18
2.280000E+03	7.763402E-18	6.879381E-18
2.320000E+03	7.931087E-18	6.983359E-18
2.360000E+03	8.105594E-18	7.088486E-18
2.400000E+03	8.288877E-18	7.195985E-18
2.440000E+03	8.481681E-18	7.305952E-18
2.480000E+03	8.684860E-18	7.418510E-18
2.520000E+03	8.899391E-18	7.533813E-18
2.560000E+03	9.126390E-18	7.652050E-18
2.600000E+03	9.365614E-18	7.772186E-18
2.640000E+03	9.621527E-18	7.896996E-18
2.680000E+03	9.892714E-18	8.024254E-18
2.720000E+03	1.018422E-17	8.156879E-18
2.760000E+03	1.049498E-17	8.292678E-18
2.800000E+03	1.083078E-17	8.434728E-18
2.840000E+03	1.119104E-17	8.580877E-18
2.880000E+03	1.158064E-17	8.732998E-18
2.920000E+03	1.200515E-17	8.893087E-18
2.960000E+03	1.246507E-17	9.059052E-18
3.000000E+03	1.296706E-17	9.232983E-18
3.010000E+03	1.309894E-17	9.277220E-18
3.020000E+03	1.323578E-17	9.323355E-18
3.030000E+03	1.337567E-17	9.369976E-18
3.040000E+03	1.351664E-17	9.415655E-18
3.050000E+03	1.366292E-17	9.463282E-18
3.060000E+03	1.381256E-17	9.511434E-18
3.070000E+03	1.396353E-17	9.558664E-18
3.080000E+03	1.412019E-17	9.607897E-18
3.090000E+03	1.428055E-17	9.657693E-18
3.100000E+03	1.444473E-17	9.708066E-18
3.110000E+03	1.461285E-17	9.759027E-18
3.120000E+03	1.478504E-17	9.810591E-18
3.130000E+03	1.496370E-17	9.864263E-18
3.140000E+03	1.514446E-17	9.917079E-18
3.150000E+03	1.532972E-17	9.970539E-18
3.160000E+03	1.551962E-17	1.002466E-17
3.170000E+03	1.571668E-17	1.008096E-17
3.180000E+03	1.591635E-17	1.013644E-17
3.190000E+03	1.612356E-17	1.019414E-17
3.200000E+03	1.633368E-17	1.025103E-17
3.210000E+03	1.655174E-17	1.031019E-17
3.220000E+03	1.677552E-17	1.037010E-17
3.230000E+03	1.700267E-17	1.042922E-17
3.240000E+03	1.723843E-17	1.049066E-17
3.250000E+03	1.748051E-17	1.055289E-17
3.260000E+03	1.772911E-17	1.061591E-17
3.270000E+03	1.798446E-17	1.067975E-17
3.280000E+03	1.824679E-17	1.074440E-17
3.290000E+03	1.851633E-17	1.080988E-17
3.300000E+03	1.879333E-17	1.087620E-17
3.310000E+03	1.907803E-17	1.094336E-17
3.320000E+03	1.937355E-17	1.101299E-17
3.330000E+03	1.967451E-17	1.108186E-17
3.340000E+03	1.998398E-17	1.115158E-17
3.350000E+03	2.030521E-17	1.122380E-17
3.360000E+03	2.063262E-17	1.129524E-17
3.370000E+03	2.096943E-17	1.136752E-17
3.380000E+03	2.131904E-17	1.144231E-17
3.390000E+03	2.167878E-17	1.151794E-17
3.400000E+03	2.204577E-17	1.159273E-17
3.410000E+03	2.242670E-17	1.167000E-17
3.420000E+03	2.281877E-17	1.174807E-17
3.430000E+03	2.321900E-17	1.182519E-17
3.440000E+03	2.363437E-17	1.190475E-17
3.450000E+03	2.406196E-17	1.198501E-17
3.460000E+03	2.450215E-17	1.206592E-17
3.470000E+03	2.495533E-17	1.214744E-17
3.480000E+03	2.542188E-17	1.222951E-17
3.490000E+03	2.590218E-17	1.231207E-17
3.500000E+03	2.639663E-17	1.239503E-17
3.510000E+03	2.690562E-17	1.247834E-17
3.520000E+03	2.742955E-17	1.256188E-17
3.530000E+03	2.797275E-17	1.264735E-17
3.540000E+03	2.852778E-17	1.273107E-17
3.550000E+03	2.909891E-17	1.281469E-17
3.560000E+03	2.968649E-17	1.289809E-17
3.570000E+03	3.029514E-17	1.298292E-17
3.580000E+03	3.091679E-17	1.306541E-17
3.590000E+03	3.156033E-17	1.314901E-17
3.600000E+03	3.221733E-17	1.322988E-17
3.610000E+03	3.289699E-17	1.331150E-17
3.620000E+03	3.359045E-17	1.338994E-17
3.630000E+03	3.430720E-17	1.346869E-17
3.640000E+03	3.503795E-17	1.354377E-17
3.650000E+03	3.579246E-17	1.361865E-17
3.660000E+03	3.656603E-17	1.369119E-17
3.670000E+03	3.735351E-17	1.375920E-17
3.680000E+03	3.816505E-17	1.382616E-17
3.690000E+03	3.899547E-17	1.388986E-17
3.700000E+03	3.984455E-17	1.394997E-17
3.710000E+03	4.071198E-17	1.400615E-17
3.720000E+03	4.159167E-17	1.405613E-17
3.730000E+03	4.249438E-17	1.410341E-17
3.740000E+03	4.341390E-17	1.414570E-17
3.750000E+03	4.434948E-17	1.418267E-17
3.760000E+03	4.530026E-17	1.421396E-17
3.770000E+03	4.626521E-17	1.423923E-17
3.780000E+03	4.724317E-17	1.425815E-17
3.790000E+03	4.823284E-17	1.427042E-17
3.800000E+03	4.923276E-17	1.427573E-17
3.810000E+03	5.024129E-17	1.427383E-17
3.820000E+03	5.125666E-17	1.426446E-17
3.830000E+03	5.227691E-17	1.424744E-17
3.840000E+03	5.329993E-17	1.422259E-17
3.850000E+03	5.432345E-17	1.418978E-17
3.860000E+03	5.534503E-17	1.414893E-17
3.870000E+03	5.636210E-17	1.410000E-17
3.880000E+03	5.737958E-17	1.404487E-17
3.890000E+03	5.837946E-17	1.397985E-17
3.900000E+03	5.936632E-17	1.390691E-17
3.910000E+03	6.033709E-17	1.382620E-17
3.920000E+03	6.128866E-17	1.373789E-17
3.930000E+03	6.221787E-17	1.364220E-17
3.940000E+03	6.312151E-17	1.353936E-17
3.950000E+03	6.400483E-17	1.343139E-17
3.960000E+03	6.484796E-17	1.331500E-17
3.970000E+03	6.565616E-17	1.319221E-17
3.980000E+03	6.642649E-17	1.306325E-17
3.990000E+03	6.715615E-17	1.292833E-17
4.000000E+03	6.784256E-17	1.278760E-17
4.010000E+03	6.849225E-17	1.264282E-17
4.020000E+03	6.908536E-17	1.249071E-17
4.030000E+03	6.962895E-17	1.233293E-17
4.040000E+03	7.012155E-17	1.216938E-17
4.050000E+03	7.056208E-17	1.199990E-17
4.060000E+03	7.094983E-17	1.182424E-17
4.070000E+03	7.128450E-17	1.164211E-17
4.080000E+03	7.156623E-17	1.145313E-17
4.090000E+03	7.179557E-17	1.125688E-17
4.100000E+03	7.197349E-17	1.105290E-17
4.110000E+03	7.210140E-17	1.084069E-17
4.120000E+03	7.218110E-17	1.061975E-17
4.130000E+03	7.221475E-17	1.038956E-17
4.140000E+03	7.220489E-17	1.014961E-17
4.150000E+03	7.215439E-17	9.899400E-18
4.160000E+03	7.206638E-17	9.638472E-18
4.170000E+03	7.194428E-17	9.366393E-18
4.180000E+03	7.179171E-17	9.082776E-18
4.190000E+03	7.161248E-17	8.787278E-18
4.200000E+03	7.141057E-17	8.479608E-18
4.210000E+03	7.119005E-17	8.159528E-18
4.220000E+03	7.094618E-17	7.825874E-18
4.230000E+03	7.070108E-17	7.480536E-18
4.240000E+03	7.045005E-17	7.122429E-18
4.250000E+03	7.019737E-17	6.751570E-18
4.260000E+03	6.993859E-17	6.367270E-18
4.270000E+03	6.969545E-17	5.971385E-18
4.280000E+03	6.945471E-17	5.562752E-18
4.290000E+03	6.923780E-17	5.143406E-18
4.300000E+03	6.903149E-17	4.712956E-18
4.310000E+03	6.885680E-17	4.274108E-18
4.320000E+03	6.870035E-17	3.828124E-18
4.330000E+03	6.858267E-17	3.379920E-18
4.340000E+03	6.849001E-17	2.935273E-18
4.350000E+03	6.843380E-17	2.506432E-18
4.360000E+03	6.841654E-17	2.114781E-18
4.370000E+03	6.844869E-17	1.798744E-18
4.380000E+03	6.851493E-17	1.616568E-18
4.390000E+03	6.862454E-17	1.623307E-18
4.400000E+03	6.877778E-17	1.817165E-18
4.410000E+03	6.897427E-17	2.141994E-18
4.420000E+03	6.921300E-17	2.540078E-18
4.430000E+03	6.949238E-17	2.974310E-18
4.440000E+03	6.981033E-17	3.423896E-18
4.450000E+03	7.015578E-17	3.876820E-18
4.460000E+03	7.054283E-17	4.327334E-18
4.470000E+03	7.095977E-17	4.771033E-18
4.480000E+03	7.139446E-17	5.204767E-18
4.490000E+03	7.186038E-17	5.628068E-18
4.500000E+03	7.234499E-17	6.039178E-18
4.510000E+03	7.283540E-17	6.436439E-18
4.520000E+03	7.333598E-17	6.819834E-18
4.530000E+03	7.385120E-17	7.189635E-18
4.540000E+03	7.435886E-17	7.543638E-18
4.550000E+03	7.486323E-17	7.882183E-18
4.560000E+03	7.535974E-17	8.204823E-18
4.570000E+03	7.584386E-17	8.511138E-18
4.580000E+03	7.631113E-17	8.800737E-18
4.590000E+03	7.675729E-17	9.073263E-18
4.600000E+03	7.717828E-17	9.328405E-18
4.610000E+03	7.757033E-17	9.565903E-18
4.620000E+03	7.793005E-17	9.785565E-18
4.630000E+03	7.824519E-17	9.986093E-18
4.640000E+03	7.853181E-17	1.016980E-17
4.650000E+03	7.876944E-17	1.033438E-17
4.660000E+03	7.897533E-17	1.048243E-17
4.670000E+03	7.913018E-17	1.061177E-17
4.680000E+03	7.924323E-17	1.072403E-17
4.690000E+03	7.932437E-17	1.082100E-17
4.700000E+03	7.935611E-17	1.090074E-17
4.710000E+03	7.934954E-17	1.096524E-17
4.720000E+03	7.930690E-17	1.101531E-17
4.730000E+03	7.923089E-17	1.105182E-17
4.740000E+03	7.912459E-17	1.107574E-17
4.750000E+03	7.898212E-17	1.108675E-17
4.760000E+03	7.882548E-17	1.108849E-17
4.770000E+03	7.864907E-17	1.108069E-17
4.780000E+03	7.844737E-17	1.106311E-17
4.790000E+03	7.824225E-17	1.103938E-17
4.800000E+03	7.801889E-17	1.100791E-17
4.810000E+03	7.778959E-17	1.097096E-17
4.820000E+03	7.755726E-17	1.092944E-17
4.830000E+03	7.732449E-17	1.088420E-17
4.840000E+03	7.709352E-17	1.083603E-17
4.850000E+03	7.686624E-17	1.078562E-17
4.860000E+03	7.664415E-17	1.073363E-17
4.870000E+03	7.642842E-17	1.068061E-17
4.880000E+03	7.621987E-17	1.062705E-17
4.890000E+03	7.601026E-17	1.057214E-17
4.900000E+03	7.581734E-17	1.051865E-17
4.910000E+03	7.562365E-17	1.046445E-17
4.920000E+03	7.544636E-17	1.041213E-17
4.930000E+03	7.526776E-17	1.035945E-17
4.940000E+03	7.509605E-17	1.030771E-17
4.950000E+03	7.493067E-17	1.025693E-17
4.960000E+03	7.477102E-17	1.020711E-17
4.970000E+03	7.461650E-17	1.015822E-17
4.980000E+03	7.446656E-17	1.011017E-17
4.990000E+03	7.431224E-17	1.006172E-17
5.000000E+03	7.417010E-17	1.001504E-17
5.010000E+03	7.403137E-17	9.968849E-18
5.020000E+03	7.388749E-17	9.921866E-18
5.030000E+03	7.374691E-17	9.875077E-18
5.040000E+03	7.361813E-17	9.829439E-18
5.050000E+03	7.348474E-17	9.782557E-18
5.060000E+03	7.335555E-17	9.735395E-18
5.070000E+03	7.323118E-17	9.687792E-18
5.080000E+03	7.311234E-17	9.639590E-18
5.090000E+03	7.299986E-17	9.590623E-18
5.100000E+03	7.289461E-17	9.540716E-18
5.110000E+03	7.278929E-17	9.488609E-18
5.120000E+03	7.270122E-17	9.436241E-18
5.130000E+03	7.261480E-17	9.381239E-18
5.140000E+03	7.254709E-17	9.325448E-18
5.150000E+03	7.248225E-17	9.266443E-18
5.160000E+03	7.242875E-17	9.204912E-18
5.170000E+03	7.238662E-17	9.140430E-18
5.180000E+03	7.235558E-17	9.072509E-18
5.190000E+03	7.233505E-17	9.000598E-18
5.200000E+03	7.232410E-17	8.924080E-18
5.210000E+03	7.232151E-17	8.842278E-18
5.220000E+03	7.232572E-17	8.754455E-18
5.230000E+03	7.232684E-17	8.658856E-18
5.240000E+03	7.233901E-17	8.556611E-18
5.250000E+03	7.234384E-17	8.444946E-18
5.260000E+03	7.234710E-17	8.323982E-18
5.270000E+03	7.235454E-17	8.193794E-18
5.280000E+03	7.234770E-17	8.051737E-18
5.290000E+03	7.233250E-17	7.897998E-18
5.300000E+03	7.230698E-17	7.731923E-18
5.310000E+03	7.226945E-17	7.552970E-18
5.320000E+03	7.221857E-17	7.360745E-18
5.330000E+03	7.214539E-17	7.154234E-18
5.340000E+03	7.206546E-17	6.935055E-18
5.350000E+03	7.196272E-17	6.701897E-18
5.360000E+03	7.185364E-17	6.456843E-18
5.370000E+03	7.172314E-17	6.199362E-18
5.380000E+03	7.158854E-17	5.932237E-18
5.390000E+03	7.143571E-17	5.656039E-18
5.400000E+03	7.127471E-17	5.374045E-18
5.410000E+03	7.110793E-17	5.089677E-18
5.420000E+03	7.093791E-17	4.807395E-18
5.430000E+03	7.076724E-17	4.532933E-18
5.440000E+03	7.059848E-17	4.273549E-18
5.450000E+03	7.042616E-17	4.037730E-18
5.460000E+03	7.026794E-17	3.836913E-18
5.470000E+03	7.010979E-17	3.681698E-18
5.480000E+03	6.996822E-17	3.583883E-18
5.490000E+03	6.982798E-17	3.550690E-18
5.500000E+03	6.970395E-17	3.585232E-18
5.510000E+03	6.957931E-17	3.682209E-18
5.520000E+03	6.945951E-17	3.832430E-18
5.530000E+03	6.934156E-17	4.024106E-18
5.540000E+03	6.922185E-17	4.245458E-18
5.550000E+03	6.909626E-17	4.485955E-18
5.560000E+03	6.896029E-17	4.736760E-18
5.570000E+03	6.880169E-17	4.990178E-18
5.580000E+03	6.863093E-17	5.241619E-18
5.590000E+03	6.843579E-17	5.486129E-18
5.600000E+03	6.820448E-17	5.719643E-18
5.610000E+03	6.794820E-17	5.940765E-18
5.620000E+03	6.764874E-17	6.146239E-18
5.630000E+03	6.731112E-17	6.335277E-18
5.640000E+03	6.694108E-17	6.507642E-18
5.650000E+03	6.652316E-17	6.661376E-18
5.660000E+03	6.606505E-17	6.796993E-18
5.670000E+03	6.556804E-17	6.914630E-18
5.680000E+03	6.503440E-17	7.014709E-18
5.690000E+03	6.446732E-17	7.097904E-18
5.700000E+03	6.386383E-17	7.164315E-18
5.710000E+03	6.324278E-17	7.216581E-18
5.720000E+03	6.260244E-17	7.255135E-18
5.730000E+03	6.194180E-17	7.280501E-18
5.740000E+03	6.128062E-17	7.295666E-18
5.750000E+03	6.061154E-17	7.300461E-18
5.760000E+03	5.995410E-17	7.297920E-18
5.770000E+03	5.930102E-17	7.287843E-18
5.780000E+03	5.866459E-17	7.272380E-18
5.790000E+03	5.804999E-17	7.252803E-18
5.800000E+03	5.746188E-17	7.230283E-18
5.810000E+03	5.690427E-17	7.205885E-18
5.820000E+03	5.638051E-17	7.180547E-18
5.830000E+03	5.589323E-17	7.155083E-18
5.840000E+03	5.544431E-17	7.130176E-18
5.850000E+03	5.503492E-17	7.106379E-18
5.860000E+03	5.466550E-17	7.084120E-18
5.870000E+03	5.432984E-17	7.062933E-18
5.880000E+03	5.403903E-17	7.044565E-18
5.890000E+03	5.378561E-17	7.028333E-18
5.900000E+03	5.356177E-17	7.013473E-18
5.910000E+03	5.337106E-17	7.000684E-18
5.920000E+03	5.321663E-17	6.990597E-18
5.930000E+03	5.308388E-17	6.981493E-18
5.940000E+03	5.297567E-17	6.973923E-18
5.950000E+03	5.289480E-17	6.968418E-18
5.960000E+03	5.282678E-17	6.963216E-18
5.970000E+03	5.277479E-17	6.958862E-18
5.980000E+03	5.273654E-17	6.955165E-18
5.990000E+03	5.271020E-17	6.951977E-18
6.000000E+03	5.269445E-17	6.949201E-18
6.010000E+03	5.268860E-17	6.946803E-18
6.020000E+03	5.268684E-17	6.944056E-18
6.030000E+03	5.270137E-17	6.942587E-18
6.040000E+03	5.272779E-17	6.941811E-18
6.050000E+03	5.276816E-17	6.941974E-18
6.060000E+03	5.281943E-17	6.942625E-18
6.070000E+03	5.289652E-17	6.945652E-18
6.080000E+03	5.299171E-17	6.949945E-18
6.090000E+03	5.312096E-17	6.957473E-18
6.100000E+03	5.327734E-17	6.967177E-18
6.110000E+03	5.347159E-17	6.980287E-18
6.120000E+03	5.371466E-17	6.998025E-18
6.130000E+03	5.399989E-17	7.019284E-18
6.140000E+03	5.433807E-17	7.045201E-18
6.150000E+03	5.473391E-17	7.076080E-18
6.160000E+03	5.519172E-17	7.112129E-18
6.170000E+03	5.572138E-17	7.154230E-18
6.180000E+03	5.631387E-17	7.200778E-18
6.190000E+03	5.697756E-17	7.252356E-18
6.200000E+03	5.771383E-17	7.308582E-18
6.210000E+03	5.851654E-17	7.368066E-18
6.220000E+03	5.939749E-17	7.431610E-18
6.230000E+03	6.034803E-17	7.497367E-18
6.240000E+03	6.136432E-17	7.564034E-18
6.250000E+03	6.244092E-17	7.630047E-18
6.260000E+03	6.356371E-17	7.692738E-18
6.270000E+03	6.473762E-17	7.751711E-18
6.280000E+03	6.594516E-17	7.803819E-18
6.290000E+03	6.716662E-17	7.845695E-18
6.300000E+03	6.840273E-17	7.876403E-18
6.310000E+03	6.962336E-17	7.891482E-18
6.320000E+03	7.082741E-17	7.889920E-18
6.330000E+03	7.198251E-17	7.867329E-18
6.340000E+03	7.307918E-17	7.822117E-18
6.350000E+03	7.410878E-17	7.752977E-18
6.360000E+03	7.503924E-17	7.656451E-18
6.370000E+03	7.586418E-17	7.532186E-18
6.380000E+03	7.657973E-17	7.380412E-18
6.390000E+03	7.715938E-17	7.199633E-18
6.400000E+03	7.760478E-17	6.991634E-18
6.410000E+03	7.791262E-17	6.758245E-18
6.420000E+03	7.808311E-17	6.502226E-18
6.430000E+03	7.812003E-17	6.227316E-18
6.440000E+03	7.803058E-17	5.938274E-18
6.450000E+03	7.782508E-17	5.640940E-18
6.460000E+03	7.751656E-17	5.342289E-18
6.470000E+03	7.712018E-17	5.050490E-18
6.480000E+03	7.665260E-17	4.774918E-18
6.490000E+03	7.613129E-17	4.526034E-18
6.500000E+03	7.557379E-17	4.314988E-18
6.510000E+03	7.499688E-17	4.152747E-18
6.520000E+03	7.440749E-17	4.048149E-18
6.530000E+03	7.383455E-17	4.007594E-18
6.540000E+03	7.327856E-17	4.030366E-18
6.550000E+03	7.273633E-17	4.109939E-18
6.560000E+03	7.222569E-17	4.237439E-18
6.570000E+03	7.173795E-17	4.401373E-18
6.580000E+03	7.126292E-17	4.590568E-18
6.590000E+03	7.081282E-17	4.796613E-18
6.600000E+03	7.036741E-17	5.010614E-18
6.610000E+03	6.993706E-17	5.227315E-18
6.620000E+03	6.950055E-17	5.440555E-18
6.630000E+03	6.906733E-17	5.647573E-18
6.640000E+03	6.861602E-17	5.844068E-18
6.650000E+03	6.815589E-17	6.028926E-18
6.660000E+03	6.766607E-17	6.198996E-18
6.670000E+03	6.714878E-17	6.353537E-18
6.680000E+03	6.660654E-17	6.492245E-18
6.690000E+03	6.602026E-17	6.612980E-18
6.700000E+03	6.539379E-17	6.716004E-18
6.710000E+03	6.472432E-17	6.801113E-18
6.720000E+03	6.401697E-17	6.869085E-18
6.730000E+03	6.325629E-17	6.918611E-18
6.740000E+03	6.244925E-17	6.950842E-18
6.750000E+03	6.159649E-17	6.966341E-18
6.760000E+03	6.069956E-17	6.965827E-18
6.770000E+03	5.976088E-17	6.950158E-18
6.780000E+03	5.878371E-17	6.920317E-18
6.790000E+03	5.777207E-17	6.877397E-18
6.800000E+03	5.673074E-17	6.822585E-18
6.810000E+03	5.566510E-17	6.757146E-18
6.820000E+03	5.458113E-17	6.682403E-18
6.830000E+03	5.348521E-17	6.599722E-18
6.840000E+03	5.238411E-17	6.510491E-18
6.850000E+03	5.128479E-17	6.416106E-18
6.860000E+03	5.019432E-17	6.317949E-18
6.870000E+03	4.911429E-17	6.216681E-18
6.880000E+03	4.806267E-17	6.115010E-18
6.890000E+03	4.704055E-17	6.013481E-18
6.900000E+03	4.605426E-17	5.913273E-18
6.910000E+03	4.510464E-17	5.814835E-18
6.920000E+03	4.420728E-17	5.720484E-18
6.930000E+03	4.336190E-17	5.630473E-18
6.940000E+03	4.256802E-17	5.544999E-18
6.950000E+03	4.183894E-17	5.466028E-18
6.960000E+03	4.117292E-17	5.393552E-18
6.970000E+03	4.056796E-17	5.327505E-18
6.980000E+03	4.003520E-17	5.269526E-18
6.990000E+03	3.956710E-17	5.218786E-18
7.000000E+03	3.917362E-17	5.176745E-18
7.010000E+03	3.884656E-17	5.142455E-18
7.020000E+03	3.859059E-17	5.116658E-18
7.030000E+03	3.841000E-17	5.100033E-18
7.040000E+03	3.829585E-17	5.091499E-18
7.050000E+03	3.825627E-17	5.092230E-18
7.060000E+03	3.828204E-17	5.101082E-18
7.070000E+03	3.837668E-17	5.118606E-18
7.080000E+03	3.853938E-17	5.144760E-18
7.090000E+03	3.877362E-17	5.180075E-18
7.100000E+03	3.906985E-17	5.223331E-18
7.110000E+03	3.943151E-17	5.275038E-18
7.120000E+03	3.985778E-17	5.335125E-18
7.130000E+03	4.034784E-17	5.403519E-18
7.140000E+03	4.090090E-17	5.480140E-18
7.150000E+03	4.151620E-17	5.564905E-18
7.160000E+03	4.219296E-17	5.657722E-18
7.170000E+03	4.293036E-17	5.758484E-18
7.180000E+03	4.372751E-17	5.867066E-18
7.190000E+03	4.458335E-17	5.983315E-18
7.200000E+03	4.549662E-17	6.107042E-18
7.210000E+03	4.646574E-17	6.238011E-18
7.220000E+03	4.748872E-17	6.375923E-18
7.230000E+03	4.856308E-17	6.520407E-18
7.240000E+03	4.968567E-17	6.671002E-18
7.250000E+03	5.084683E-17	6.826365E-18
7.260000E+03	5.205314E-17	6.987334E-18
7.270000E+03	5.329312E-17	7.152323E-18
7.280000E+03	5.455977E-17	7.320350E-18
7.290000E+03	5.583849E-17	7.489416E-18
7.300000E+03	5.713222E-17	7.659878E-18
7.310000E+03	5.842377E-17	7.829408E-18
7.320000E+03	5.969400E-17	7.995423E-18
7.330000E+03	6.094269E-17	8.157890E-18
7.340000E+03	6.214131E-17	8.313001E-18
7.350000E+03	6.328812E-17	8.460548E-18
7.360000E+03	6.435246E-17	8.596477E-18
7.370000E+03	6.532477E-17	8.719573E-18
7.380000E+03	6.619620E-17	8.828729E-18
7.390000E+03	6.693602E-17	8.919936E-18
7.400000E+03	6.753721E-17	8.992365E-18
7.410000E+03	6.799488E-17	9.045476E-18
7.420000E+03	6.828321E-17	9.075943E-18
7.430000E+03	6.840237E-17	9.083907E-18
7.440000E+03	6.834797E-17	9.068891E-18
7.450000E+03	6.812686E-17	9.031899E-18
7.460000E+03	6.772598E-17	8.971277E-18
7.470000E+03	6.715923E-17	8.888933E-18
7.480000E+03	6.643601E-17	8.786150E-18
7.490000E+03	6.556871E-17	8.664590E-18
7.500000E+03	6.457231E-17	8.526229E-18
7.510000E+03	6.346381E-17	8.373294E-18
7.520000E+03	6.226171E-17	8.208185E-18
7.530000E+03	6.097835E-17	8.032478E-18
7.540000E+03	5.964759E-17	7.850568E-18
7.550000E+03	5.828172E-17	7.663994E-18
7.560000E+03	5.689948E-17	7.475135E-18
7.570000E+03	5.551854E-17	7.286222E-18
7.580000E+03	5.414893E-17	7.098473E-18
7.590000E+03	5.281798E-17	6.915369E-18
7.600000E+03	5.153224E-17	6.737653E-18
7.610000E+03	5.029706E-17	6.565908E-18
7.620000E+03	4.913363E-17	6.402769E-18
7.630000E+03	4.803814E-17	6.247593E-18
7.640000E+03	4.702792E-17	6.102475E-18
7.650000E+03	4.609657E-17	5.966400E-18
7.660000E+03	4.525290E-17	5.840306E-18
7.670000E+03	4.450411E-17	5.724888E-18
7.680000E+03	4.384078E-17	5.618667E-18
7.690000E+03	4.326822E-17	5.522026E-18
7.700000E+03	4.279062E-17	5.435158E-18
7.710000E+03	4.239648E-17	5.356218E-18
7.720000E+03	4.208868E-17	5.285149E-18
7.730000E+03	4.186449E-17	5.221131E-18
7.740000E+03	4.172063E-17	5.163228E-18
7.750000E+03	4.165332E-17	5.110392E-18
7.760000E+03	4.165828E-17	5.061465E-18
