#wls	flux	fluxerr
1.600000E+03	4.701014E-18	4.438447E-18
1.640000E+03	4.767677E-18	4.493982E-18
1.680000E+03	4.836055E-18	4.550344E-18
1.720000E+03	4.907955E-18	4.609159E-18
1.760000E+03	4.982663E-18	4.669666E-18
1.800000E+03	5.060314E-18	4.731900E-18
1.840000E+03	5.141956E-18	4.796738E-18
1.880000E+03	5.226878E-18	4.863401E-18
1.920000E+03	5.315260E-18	4.931932E-18
1.960000E+03	5.408243E-18	5.003254E-18
2.000000E+03	5.505135E-18	5.076575E-18
2.040000E+03	5.606182E-18	5.151957E-18
2.080000E+03	5.712652E-18	5.230384E-18
2.120000E+03	5.823893E-18	5.311056E-18
2.160000E+03	5.941281E-18	5.395004E-18
2.200000E+03	6.064217E-18	5.481434E-18
2.240000E+03	6.193139E-18	5.570476E-18
2.280000E+03	6.329633E-18	5.663253E-18
2.320000E+03	6.473214E-18	5.758991E-18
2.360000E+03	6.625648E-18	5.858890E-18
2.400000E+03	6.786571E-18	5.962200E-18
2.440000E+03	6.957977E-18	6.070209E-18
2.480000E+03	7.139659E-18	6.182205E-18
2.520000E+03	7.332661E-18	6.298513E-18
2.560000E+03	7.539437E-18	6.420580E-18
2.600000E+03	7.761424E-18	6.548867E-18
2.640000E+03	7.997566E-18	6.681639E-18
2.680000E+03	8.253617E-18	6.822763E-18
2.720000E+03	8.527510E-18	6.969422E-18
2.760000E+03	8.825741E-18	7.125707E-18
2.800000E+03	9.146567E-18	7.288784E-18
2.840000E+03	9.495849E-18	7.461752E-18
2.880000E+03	9.877011E-18	7.645441E-18
2.920000E+03	1.029226E-17	7.839444E-18
2.960000E+03	1.074584E-17	8.044601E-18
3.000000E+03	1.124438E-17	8.263123E-18
3.010000E+03	1.137780E-17	8.320760E-18
3.020000E+03	1.151251E-17	8.377868E-18
3.030000E+03	1.165044E-17	8.435809E-18
3.040000E+03	1.179361E-17	8.495976E-18
3.050000E+03	1.193830E-17	8.555629E-18
3.060000E+03	1.208849E-17	8.617551E-18
3.070000E+03	1.224037E-17	8.678968E-18
3.080000E+03	1.239600E-17	8.741282E-18
3.090000E+03	1.255752E-17	8.805927E-18
3.100000E+03	1.272308E-17	8.871511E-18
3.110000E+03	1.289071E-17	8.936599E-18
3.120000E+03	1.306468E-17	9.004081E-18
3.130000E+03	1.324093E-17	9.071069E-18
3.140000E+03	1.342384E-17	9.140489E-18
3.150000E+03	1.361144E-17	9.210894E-18
3.160000E+03	1.380166E-17	9.280800E-18
3.170000E+03	1.399905E-17	9.353189E-18
3.180000E+03	1.420158E-17	9.426582E-18
3.190000E+03	1.440710E-17	9.499461E-18
3.200000E+03	1.462035E-17	9.574863E-18
3.210000E+03	1.483923E-17	9.651277E-18
3.220000E+03	1.506390E-17	9.728701E-18
3.230000E+03	1.529455E-17	9.807132E-18
3.240000E+03	1.552887E-17	9.884989E-18
3.250000E+03	1.577197E-17	9.965406E-18
3.260000E+03	1.602161E-17	1.004681E-17
3.270000E+03	1.627797E-17	1.012918E-17
3.280000E+03	1.654126E-17	1.021252E-17
3.290000E+03	1.681167E-17	1.029679E-17
3.300000E+03	1.708943E-17	1.038197E-17
3.310000E+03	1.737475E-17	1.046804E-17
3.320000E+03	1.766783E-17	1.055498E-17
3.330000E+03	1.796892E-17	1.064273E-17
3.340000E+03	1.827823E-17	1.073127E-17
3.350000E+03	1.859599E-17	1.082055E-17
3.360000E+03	1.892543E-17	1.091224E-17
3.370000E+03	1.926086E-17	1.100285E-17
3.380000E+03	1.960545E-17	1.109403E-17
3.390000E+03	1.995946E-17	1.118570E-17
3.400000E+03	2.032312E-17	1.127780E-17
3.410000E+03	2.069669E-17	1.137023E-17
3.420000E+03	2.108370E-17	1.146470E-17
3.430000E+03	2.147787E-17	1.155753E-17
3.440000E+03	2.188267E-17	1.165038E-17
3.450000E+03	2.229836E-17	1.174313E-17
3.460000E+03	2.272872E-17	1.183750E-17
3.470000E+03	2.316697E-17	1.192966E-17
3.480000E+03	2.361680E-17	1.202128E-17
3.490000E+03	2.408221E-17	1.211409E-17
3.500000E+03	2.455598E-17	1.220415E-17
3.510000E+03	2.504589E-17	1.229503E-17
3.520000E+03	2.554442E-17	1.238273E-17
3.530000E+03	2.605558E-17	1.246891E-17
3.540000E+03	2.658366E-17	1.255527E-17
3.550000E+03	2.712064E-17	1.263769E-17
3.560000E+03	2.767498E-17	1.271980E-17
3.570000E+03	2.823831E-17	1.279737E-17
3.580000E+03	2.881935E-17	1.287405E-17
3.590000E+03	2.940936E-17	1.294554E-17
3.600000E+03	3.001733E-17	1.301550E-17
3.610000E+03	3.063411E-17	1.307956E-17
3.620000E+03	3.126898E-17	1.314137E-17
3.630000E+03	3.191233E-17	1.319650E-17
3.640000E+03	3.257374E-17	1.324859E-17
3.650000E+03	3.324313E-17	1.329317E-17
3.660000E+03	3.393035E-17	1.333387E-17
3.670000E+03	3.462481E-17	1.336616E-17
3.680000E+03	3.533667E-17	1.339368E-17
3.690000E+03	3.605481E-17	1.341186E-17
3.700000E+03	3.678963E-17	1.342433E-17
3.710000E+03	3.753519E-17	1.342857E-17
3.720000E+03	3.828503E-17	1.342205E-17
3.730000E+03	3.904997E-17	1.340839E-17
3.740000E+03	3.982349E-17	1.338508E-17
3.750000E+03	4.059856E-17	1.334964E-17
3.760000E+03	4.138639E-17	1.330568E-17
3.770000E+03	4.217350E-17	1.324876E-17
3.780000E+03	4.297136E-17	1.318251E-17
3.790000E+03	4.377246E-17	1.310456E-17
3.800000E+03	4.456871E-17	1.301264E-17
3.810000E+03	4.537199E-17	1.291042E-17
3.820000E+03	4.617415E-17	1.279572E-17
3.830000E+03	4.696647E-17	1.266650E-17
3.840000E+03	4.776125E-17	1.252652E-17
3.850000E+03	4.854969E-17	1.237387E-17
3.860000E+03	4.932250E-17	1.220681E-17
3.870000E+03	5.009237E-17	1.202926E-17
3.880000E+03	5.084997E-17	1.183965E-17
3.890000E+03	5.158545E-17	1.163669E-17
3.900000E+03	5.231196E-17	1.142442E-17
3.910000E+03	5.301175E-17	1.120010E-17
3.920000E+03	5.369830E-17	1.096790E-17
3.930000E+03	5.436151E-17	1.072708E-17
3.940000E+03	5.499091E-17	1.047716E-17
3.950000E+03	5.560051E-17	1.022251E-17
3.960000E+03	5.617993E-17	9.962865E-18
3.970000E+03	5.671855E-17	9.698229E-18
3.980000E+03	5.723095E-17	9.433053E-18
3.990000E+03	5.770670E-17	9.167446E-18
4.000000E+03	5.813521E-17	8.901706E-18
4.010000E+03	5.853177E-17	8.640111E-18
4.020000E+03	5.887745E-17	8.381611E-18
4.030000E+03	5.918816E-17	8.130160E-18
4.040000E+03	5.944527E-17	7.884607E-18
4.050000E+03	5.966547E-17	7.648404E-18
4.060000E+03	5.983959E-17	7.421207E-18
4.070000E+03	5.995889E-17	7.202545E-18
4.080000E+03	6.004162E-17	6.994867E-18
4.090000E+03	6.007137E-17	6.796088E-18
4.100000E+03	6.006761E-17	6.607944E-18
4.110000E+03	6.001511E-17	6.427902E-18
4.120000E+03	5.993439E-17	6.257064E-18
4.130000E+03	5.981124E-17	6.092555E-18
4.140000E+03	5.966682E-17	5.935002E-18
4.150000E+03	5.948754E-17	5.781355E-18
4.160000E+03	5.929474E-17	5.631968E-18
4.170000E+03	5.907502E-17	5.483798E-18
4.180000E+03	5.884097E-17	5.336331E-18
4.190000E+03	5.860487E-17	5.189016E-18
4.200000E+03	5.835333E-17	5.039094E-18
4.210000E+03	5.810691E-17	4.886917E-18
4.220000E+03	5.785217E-17	4.730019E-18
4.230000E+03	5.760097E-17	4.568227E-18
4.240000E+03	5.736488E-17	4.401401E-18
4.250000E+03	5.713038E-17	4.227609E-18
4.260000E+03	5.690880E-17	4.047047E-18
4.270000E+03	5.670289E-17	3.859448E-18
4.280000E+03	5.652328E-17	3.665330E-18
4.290000E+03	5.635586E-17	3.463933E-18
4.300000E+03	5.621069E-17	3.256596E-18
4.310000E+03	5.608936E-17	3.044741E-18
4.320000E+03	5.599319E-17	2.830690E-18
4.330000E+03	5.593126E-17	2.618415E-18
4.340000E+03	5.588841E-17	2.412512E-18
4.350000E+03	5.587343E-17	2.221167E-18
4.360000E+03	5.588702E-17	2.055093E-18
4.370000E+03	5.592984E-17	1.927786E-18
4.380000E+03	5.600243E-17	1.853549E-18
4.390000E+03	5.610501E-17	1.842654E-18
4.400000E+03	5.623720E-17	1.895763E-18
4.410000E+03	5.639795E-17	2.003601E-18
4.420000E+03	5.658596E-17	2.152186E-18
4.430000E+03	5.679986E-17	2.327854E-18
4.440000E+03	5.703020E-17	2.519208E-18
4.450000E+03	5.729183E-17	2.718859E-18
4.460000E+03	5.757534E-17	2.920863E-18
4.470000E+03	5.787931E-17	3.121433E-18
4.480000E+03	5.820220E-17	3.318060E-18
4.490000E+03	5.853393E-17	3.508600E-18
4.500000E+03	5.888897E-17	3.692953E-18
4.510000E+03	5.925659E-17	3.869956E-18
4.520000E+03	5.962540E-17	4.038588E-18
4.530000E+03	6.000873E-17	4.199668E-18
4.540000E+03	6.039418E-17	4.352441E-18
4.550000E+03	6.076855E-17	4.496113E-18
4.560000E+03	6.114378E-17	4.631799E-18
4.570000E+03	6.149704E-17	4.758097E-18
4.580000E+03	6.183954E-17	4.876223E-18
4.590000E+03	6.214762E-17	4.984731E-18
4.600000E+03	6.242355E-17	5.084226E-18
4.610000E+03	6.266986E-17	5.175407E-18
4.620000E+03	6.286309E-17	5.256849E-18
4.630000E+03	6.300673E-17	5.329339E-18
4.640000E+03	6.310525E-17	5.393767E-18
4.650000E+03	6.313774E-17	5.448829E-18
4.660000E+03	6.311111E-17	5.495539E-18
4.670000E+03	6.302492E-17	5.534229E-18
4.680000E+03	6.288030E-17	5.565301E-18
4.690000E+03	6.267988E-17	5.589221E-18
4.700000E+03	6.243648E-17	5.607294E-18
4.710000E+03	6.213806E-17	5.618538E-18
4.720000E+03	6.179991E-17	5.624357E-18
4.730000E+03	6.142090E-17	5.624630E-18
4.740000E+03	6.102622E-17	5.621606E-18
4.750000E+03	6.061564E-17	5.615197E-18
4.760000E+03	6.019759E-17	5.606094E-18
4.770000E+03	5.978028E-17	5.594968E-18
4.780000E+03	5.937145E-17	5.582456E-18
4.790000E+03	5.896995E-17	5.568374E-18
4.800000E+03	5.859835E-17	5.554792E-18
4.810000E+03	5.825355E-17	5.541385E-18
4.820000E+03	5.793153E-17	5.527758E-18
4.830000E+03	5.765125E-17	5.515727E-18
4.840000E+03	5.739847E-17	5.503970E-18
4.850000E+03	5.718978E-17	5.494146E-18
4.860000E+03	5.700909E-17	5.484807E-18
4.870000E+03	5.687111E-17	5.477492E-18
4.880000E+03	5.675837E-17	5.470671E-18
4.890000E+03	5.668427E-17	5.465808E-18
4.900000E+03	5.663055E-17	5.461325E-18
4.910000E+03	5.660216E-17	5.457890E-18
4.920000E+03	5.659616E-17	5.455399E-18
4.930000E+03	5.661742E-17	5.454487E-18
4.940000E+03	5.664764E-17	5.453530E-18
4.950000E+03	5.669213E-17	5.453145E-18
4.960000E+03	5.674871E-17	5.453195E-18
4.970000E+03	5.681554E-17	5.453541E-18
4.980000E+03	5.689111E-17	5.454045E-18
4.990000E+03	5.697418E-17	5.454574E-18
5.000000E+03	5.706371E-17	5.454999E-18
5.010000E+03	5.715876E-17	5.455192E-18
5.020000E+03	5.725062E-17	5.454280E-18
5.030000E+03	5.735400E-17	5.453623E-18
5.040000E+03	5.746017E-17	5.452343E-18
5.050000E+03	5.756821E-17	5.450302E-18
5.060000E+03	5.766945E-17	5.446621E-18
5.070000E+03	5.777904E-17	5.442658E-18
5.080000E+03	5.788103E-17	5.436815E-18
5.090000E+03	5.799144E-17	5.430481E-18
5.100000E+03	5.810321E-17	5.422850E-18
5.110000E+03	5.820979E-17	5.413155E-18
5.120000E+03	5.832096E-17	5.402142E-18
5.130000E+03	5.844694E-17	5.390585E-18
5.140000E+03	5.857430E-17	5.377088E-18
5.150000E+03	5.871340E-17	5.362474E-18
5.160000E+03	5.887437E-17	5.347562E-18
5.170000E+03	5.904286E-17	5.330973E-18
5.180000E+03	5.922774E-17	5.313468E-18
5.190000E+03	5.942902E-17	5.295021E-18
5.200000E+03	5.964578E-17	5.275519E-18
5.210000E+03	5.987616E-17	5.254750E-18
5.220000E+03	6.011742E-17	5.232390E-18
5.230000E+03	6.036607E-17	5.207999E-18
5.240000E+03	6.061803E-17	5.181022E-18
5.250000E+03	6.086886E-17	5.150806E-18
5.260000E+03	6.111388E-17	5.116615E-18
5.270000E+03	6.134838E-17	5.077651E-18
5.280000E+03	6.155946E-17	5.032408E-18
5.290000E+03	6.175936E-17	4.981425E-18
5.300000E+03	6.193578E-17	4.923224E-18
5.310000E+03	6.207675E-17	4.856424E-18
5.320000E+03	6.219592E-17	4.781723E-18
5.330000E+03	6.228240E-17	4.697970E-18
5.340000E+03	6.232586E-17	4.604226E-18
5.350000E+03	6.234187E-17	4.501636E-18
5.360000E+03	6.231311E-17	4.389100E-18
5.370000E+03	6.224819E-17	4.267644E-18
5.380000E+03	6.215644E-17	4.138546E-18
5.390000E+03	6.202280E-17	4.001760E-18
5.400000E+03	6.185804E-17	3.859369E-18
5.410000E+03	6.167346E-17	3.713873E-18
5.420000E+03	6.145600E-17	3.566830E-18
5.430000E+03	6.121798E-17	3.421991E-18
5.440000E+03	6.096371E-17	3.283317E-18
5.450000E+03	6.069769E-17	3.155513E-18
5.460000E+03	6.042442E-17	3.043934E-18
5.470000E+03	6.014827E-17	2.954278E-18
5.480000E+03	5.987322E-17	2.891970E-18
5.490000E+03	5.960262E-17	2.861101E-18
5.500000E+03	5.933875E-17	2.863085E-18
5.510000E+03	5.908265E-17	2.896040E-18
5.520000E+03	5.883410E-17	2.955673E-18
5.530000E+03	5.858394E-17	3.036191E-18
5.540000E+03	5.834553E-17	3.132846E-18
5.550000E+03	5.810754E-17	3.240071E-18
5.560000E+03	5.785777E-17	3.352862E-18
5.570000E+03	5.760645E-17	3.468228E-18
5.580000E+03	5.733973E-17	3.582493E-18
5.590000E+03	5.704355E-17	3.692487E-18
5.600000E+03	5.672671E-17	3.796987E-18
5.610000E+03	5.636783E-17	3.893213E-18
5.620000E+03	5.597664E-17	3.980783E-18
5.630000E+03	5.553379E-17	4.057571E-18
5.640000E+03	5.504399E-17	4.123343E-18
5.650000E+03	5.451333E-17	4.178211E-18
5.660000E+03	5.392769E-17	4.220915E-18
5.670000E+03	5.329672E-17	4.252144E-18
5.680000E+03	5.262436E-17	4.272312E-18
5.690000E+03	5.192288E-17	4.282651E-18
5.700000E+03	5.118484E-17	4.282895E-18
5.710000E+03	5.042471E-17	4.274669E-18
5.720000E+03	4.965049E-17	4.259155E-18
5.730000E+03	4.887052E-17	4.237612E-18
5.740000E+03	4.809318E-17	4.211324E-18
5.750000E+03	4.732668E-17	4.181549E-18
5.760000E+03	4.657881E-17	4.149479E-18
5.770000E+03	4.585683E-17	4.116199E-18
5.780000E+03	4.516726E-17	4.082666E-18
5.790000E+03	4.451581E-17	4.049688E-18
5.800000E+03	4.390140E-17	4.017387E-18
5.810000E+03	4.333962E-17	3.987347E-18
5.820000E+03	4.282732E-17	3.959401E-18
5.830000E+03	4.236624E-17	3.933799E-18
5.840000E+03	4.195155E-17	3.910172E-18
5.850000E+03	4.159427E-17	3.889641E-18
5.860000E+03	4.128762E-17	3.871688E-18
5.870000E+03	4.102418E-17	3.855762E-18
5.880000E+03	4.081219E-17	3.842812E-18
5.890000E+03	4.063733E-17	3.831689E-18
5.900000E+03	4.050648E-17	3.823258E-18
5.910000E+03	4.040433E-17	3.816292E-18
5.920000E+03	4.033683E-17	3.811562E-18
5.930000E+03	4.028810E-17	3.807761E-18
5.940000E+03	4.025833E-17	3.805074E-18
5.950000E+03	4.024769E-17	3.803662E-18
5.960000E+03	4.024052E-17	3.802170E-18
5.970000E+03	4.023763E-17	3.800789E-18
5.980000E+03	4.024049E-17	3.799763E-18
5.990000E+03	4.023525E-17	3.797891E-18
6.000000E+03	4.022516E-17	3.795594E-18
6.010000E+03	4.020926E-17	3.792895E-18
6.020000E+03	4.018788E-17	3.789932E-18
6.030000E+03	4.016266E-17	3.786956E-18
6.040000E+03	4.014198E-17	3.784818E-18
6.050000E+03	4.011947E-17	3.782937E-18
6.060000E+03	4.010611E-17	3.782304E-18
6.070000E+03	4.010860E-17	3.783446E-18
6.080000E+03	4.013466E-17	3.786915E-18
6.090000E+03	4.019280E-17	3.793284E-18
6.100000E+03	4.028676E-17	3.802634E-18
6.110000E+03	4.043687E-17	3.816585E-18
6.120000E+03	4.064770E-17	3.835260E-18
6.130000E+03	4.092936E-17	3.859315E-18
6.140000E+03	4.129204E-17	3.889431E-18
6.150000E+03	4.174597E-17	3.926309E-18
6.160000E+03	4.229564E-17	3.970133E-18
6.170000E+03	4.296223E-17	4.022660E-18
6.180000E+03	4.374991E-17	4.084045E-18
6.190000E+03	4.466805E-17	4.154906E-18
6.200000E+03	4.571935E-17	4.235204E-18
6.210000E+03	4.692387E-17	4.326442E-18
6.220000E+03	4.828261E-17	4.428261E-18
6.230000E+03	4.979439E-17	4.539996E-18
6.240000E+03	5.147576E-17	4.662463E-18
6.250000E+03	5.331412E-17	4.793665E-18
6.260000E+03	5.532113E-17	4.933636E-18
6.270000E+03	5.747602E-17	5.079334E-18
6.280000E+03	5.978285E-17	5.229786E-18
6.290000E+03	6.220952E-17	5.380728E-18
6.300000E+03	6.474977E-17	5.530116E-18
6.310000E+03	6.735763E-17	5.672528E-18
6.320000E+03	7.000566E-17	5.804304E-18
6.330000E+03	7.266143E-17	5.921607E-18
6.340000E+03	7.525802E-17	6.018185E-18
6.350000E+03	7.776286E-17	6.091131E-18
6.360000E+03	8.010061E-17	6.134786E-18
6.370000E+03	8.222620E-17	6.146646E-18
6.380000E+03	8.408718E-17	6.124401E-18
6.390000E+03	8.564826E-17	6.067769E-18
6.400000E+03	8.684885E-17	5.975402E-18
6.410000E+03	8.767391E-17	5.849852E-18
6.420000E+03	8.811090E-17	5.694285E-18
6.430000E+03	8.816217E-17	5.513184E-18
6.440000E+03	8.784500E-17	5.312158E-18
6.450000E+03	8.720209E-17	5.098369E-18
6.460000E+03	8.625256E-17	4.877496E-18
6.470000E+03	8.505917E-17	4.657624E-18
6.480000E+03	8.367796E-17	4.446153E-18
6.490000E+03	8.216647E-17	4.250233E-18
6.500000E+03	8.058058E-17	4.076473E-18
6.510000E+03	7.897175E-17	3.930593E-18
6.520000E+03	7.738476E-17	3.816952E-18
6.530000E+03	7.585510E-17	3.737833E-18
6.540000E+03	7.440650E-17	3.692682E-18
6.550000E+03	7.305125E-17	3.678274E-18
6.560000E+03	7.179353E-17	3.689921E-18
6.570000E+03	7.062300E-17	3.722046E-18
6.580000E+03	6.955427E-17	3.770759E-18
6.590000E+03	6.857081E-17	3.831168E-18
6.600000E+03	6.766380E-17	3.899448E-18
6.610000E+03	6.682313E-17	3.972343E-18
6.620000E+03	6.603773E-17	4.047097E-18
6.630000E+03	6.528724E-17	4.120831E-18
6.640000E+03	6.457745E-17	4.192662E-18
6.650000E+03	6.388788E-17	4.260363E-18
6.660000E+03	6.320739E-17	4.322504E-18
6.670000E+03	6.251735E-17	4.377298E-18
6.680000E+03	6.182550E-17	4.424938E-18
6.690000E+03	6.111569E-17	4.464094E-18
6.700000E+03	6.037369E-17	4.493646E-18
6.710000E+03	5.961123E-17	4.514504E-18
6.720000E+03	5.880910E-17	4.525384E-18
6.730000E+03	5.798133E-17	4.527611E-18
6.740000E+03	5.711902E-17	4.520844E-18
6.750000E+03	5.621435E-17	4.504857E-18
6.760000E+03	5.528268E-17	4.481312E-18
6.770000E+03	5.430942E-17	4.449493E-18
6.780000E+03	5.330984E-17	4.411100E-18
6.790000E+03	5.227026E-17	4.365452E-18
6.800000E+03	5.120611E-17	4.314240E-18
6.810000E+03	5.010539E-17	4.256823E-18
6.820000E+03	4.898458E-17	4.194909E-18
6.830000E+03	4.783442E-17	4.127961E-18
6.840000E+03	4.666703E-17	4.057203E-18
6.850000E+03	4.549527E-17	3.983883E-18
6.860000E+03	4.431472E-17	3.907691E-18
6.870000E+03	4.314639E-17	3.830510E-18
6.880000E+03	4.198808E-17	3.752161E-18
6.890000E+03	4.085556E-17	3.674049E-18
6.900000E+03	3.976379E-17	3.597538E-18
6.910000E+03	3.871102E-17	3.522502E-18
6.920000E+03	3.771101E-17	3.450238E-18
6.930000E+03	3.677099E-17	3.381478E-18
6.940000E+03	3.590185E-17	3.317314E-18
6.950000E+03	3.509864E-17	3.257390E-18
6.960000E+03	3.436991E-17	3.202605E-18
6.970000E+03	3.371809E-17	3.153300E-18
6.980000E+03	3.314452E-17	3.109718E-18
6.990000E+03	3.264953E-17	3.072012E-18
7.000000E+03	3.223697E-17	3.040671E-18
7.010000E+03	3.189683E-17	3.014881E-18
7.020000E+03	3.163170E-17	2.995019E-18
7.030000E+03	3.143929E-17	2.981007E-18
7.040000E+03	3.131700E-17	2.972738E-18
7.050000E+03	3.126204E-17	2.970090E-18
7.060000E+03	3.127156E-17	2.972937E-18
7.070000E+03	3.134279E-17	2.981155E-18
7.080000E+03	3.147309E-17	2.994630E-18
7.090000E+03	3.166015E-17	3.013272E-18
7.100000E+03	3.190199E-17	3.037010E-18
7.110000E+03	3.219711E-17	3.065806E-18
7.120000E+03	3.254450E-17	3.099648E-18
7.130000E+03	3.294372E-17	3.138558E-18
7.140000E+03	3.339487E-17	3.182585E-18
7.150000E+03	3.389860E-17	3.231808E-18
7.160000E+03	3.445604E-17	3.286325E-18
7.170000E+03	3.506405E-17	3.345802E-18
7.180000E+03	3.573402E-17	3.411271E-18
7.190000E+03	3.646355E-17	3.482429E-18
7.200000E+03	3.725514E-17	3.559423E-18
7.210000E+03	3.811140E-17	3.642402E-18
7.220000E+03	3.902973E-17	3.731000E-18
7.230000E+03	4.002316E-17	3.826347E-18
7.240000E+03	4.108893E-17	3.928056E-18
7.250000E+03	4.222900E-17	4.036195E-18
7.260000E+03	4.343884E-17	4.150207E-18
7.270000E+03	4.473052E-17	4.271124E-18
7.280000E+03	4.609743E-17	4.398190E-18
7.290000E+03	4.753045E-17	4.530409E-18
7.300000E+03	4.903742E-17	4.668398E-18
7.310000E+03	5.060430E-17	4.810690E-18
7.320000E+03	5.221282E-17	4.955421E-18
7.330000E+03	5.386188E-17	5.102381E-18
7.340000E+03	5.551752E-17	5.248277E-18
7.350000E+03	5.717055E-17	5.392221E-18
7.360000E+03	5.877689E-17	5.530108E-18
7.370000E+03	6.031944E-17	5.660478E-18
7.380000E+03	6.174560E-17	5.778648E-18
7.390000E+03	6.303353E-17	5.882940E-18
7.400000E+03	6.412731E-17	5.968592E-18
7.410000E+03	6.500709E-17	6.034297E-18
7.420000E+03	6.562204E-17	6.075914E-18
7.430000E+03	6.595412E-17	6.092358E-18
7.440000E+03	6.599392E-17	6.083295E-18
7.450000E+03	6.571473E-17	6.046712E-18
7.460000E+03	6.513654E-17	5.984779E-18
7.470000E+03	6.425396E-17	5.897189E-18
7.480000E+03	6.309826E-17	5.786851E-18
7.490000E+03	6.169983E-17	5.656452E-18
7.500000E+03	6.010341E-17	5.509874E-18
7.510000E+03	5.833263E-17	5.348982E-18
7.520000E+03	5.643796E-17	5.178048E-18
7.530000E+03	5.446102E-17	5.000523E-18
7.540000E+03	5.244865E-17	4.820348E-18
7.550000E+03	5.042251E-17	4.639189E-18
7.560000E+03	4.842235E-17	4.460418E-18
7.570000E+03	4.647585E-17	4.286358E-18
7.580000E+03	4.460597E-17	4.118961E-18
7.590000E+03	4.283106E-17	3.959810E-18
7.600000E+03	4.116508E-17	3.810149E-18
7.610000E+03	3.961802E-17	3.670900E-18
7.620000E+03	3.819637E-17	3.542704E-18
7.630000E+03	3.690358E-17	3.425942E-18
7.640000E+03	3.574059E-17	3.320768E-18
7.650000E+03	3.470628E-17	3.227128E-18
7.660000E+03	3.379792E-17	3.144795E-18
7.670000E+03	3.301161E-17	3.073384E-18
7.680000E+03	3.234256E-17	3.012385E-18
7.690000E+03	3.178548E-17	2.961185E-18
7.700000E+03	3.133474E-17	2.919095E-18
7.710000E+03	3.098461E-17	2.885366E-18
7.720000E+03	3.072933E-17	2.859210E-18
7.730000E+03	3.056317E-17	2.839806E-18
7.740000E+03	3.047627E-17	2.825914E-18
7.750000E+03	3.047145E-17	2.817441E-18
7.760000E+03	3.053889E-17	2.813087E-18
