#wls	flux	fluxerr
1.596185E+03	3.744769E-03	5.471323E-05
1.636090E+03	3.995115E-03	5.797026E-05
1.675994E+03	4.249127E-03	6.122375E-05
1.715899E+03	4.504251E-03	6.443502E-05
1.755804E+03	4.759580E-03	6.758989E-05
1.795708E+03	5.011687E-03	7.063908E-05
1.835613E+03	5.258340E-03	7.355151E-05
1.875518E+03	5.499319E-03	7.632510E-05
1.915422E+03	5.734631E-03	7.896110E-05
1.955327E+03	5.968675E-03	8.152084E-05
1.995231E+03	6.207806E-03	8.409026E-05
2.035136E+03	6.456953E-03	8.673341E-05
2.075041E+03	6.704934E-03	8.929751E-05
2.114945E+03	6.960917E-03	9.190365E-05
2.154850E+03	7.320950E-03	9.580576E-05
2.194755E+03	7.865904E-03	1.020160E-04
2.234659E+03	8.587142E-03	1.103576E-04
2.274564E+03	9.390268E-03	1.195656E-04
2.314468E+03	1.023525E-02	1.291051E-04
2.354373E+03	1.115464E-02	1.393674E-04
2.394278E+03	1.215360E-02	1.503897E-04
2.434182E+03	1.321707E-02	1.619588E-04
2.474087E+03	1.432779E-02	1.738432E-04
2.513992E+03	1.546631E-02	1.857930E-04
2.553896E+03	1.660760E-02	1.975027E-04
2.593801E+03	1.767833E-02	2.081105E-04
2.633705E+03	1.845443E-02	2.150340E-04
2.673610E+03	1.895752E-02	2.186321E-04
2.713515E+03	1.934441E-02	2.207951E-04
2.753419E+03	1.965465E-02	2.220106E-04
2.793324E+03	1.989241E-02	2.223511E-04
2.833229E+03	2.005282E-02	2.217867E-04
2.873133E+03	2.013101E-02	2.202899E-04
2.913038E+03	2.012459E-02	2.178622E-04
2.952942E+03	2.003525E-02	2.145500E-04
2.992847E+03	1.986808E-02	2.104352E-04
3.002823E+03	1.981555E-02	2.092991E-04
3.012799E+03	1.975833E-02	2.081167E-04
3.022776E+03	1.969738E-02	2.068984E-04
3.032752E+03	1.963249E-02	2.056423E-04
3.042728E+03	1.956476E-02	2.043603E-04
3.052704E+03	1.949531E-02	2.030643E-04
3.062680E+03	1.942315E-02	2.017440E-04
3.072656E+03	1.934942E-02	2.004117E-04
3.082633E+03	1.927323E-02	1.990582E-04
3.092609E+03	1.919536E-02	1.976916E-04
3.102585E+03	1.911538E-02	1.963080E-04
3.112561E+03	1.903339E-02	1.949082E-04
3.122537E+03	1.895015E-02	1.935004E-04
3.132513E+03	1.886508E-02	1.920787E-04
3.142489E+03	1.877938E-02	1.906554E-04
3.152466E+03	1.869218E-02	1.892218E-04
3.162442E+03	1.860474E-02	1.877908E-04
3.172418E+03	1.851664E-02	1.863582E-04
3.182394E+03	1.842885E-02	1.849338E-04
3.192370E+03	1.834140E-02	1.835176E-04
3.202346E+03	1.825499E-02	1.821170E-04
3.212323E+03	1.817006E-02	1.807360E-04
3.222299E+03	1.808710E-02	1.793795E-04
3.232275E+03	1.800636E-02	1.780496E-04
3.242251E+03	1.792903E-02	1.767581E-04
3.252227E+03	1.785549E-02	1.755081E-04
3.262203E+03	1.778671E-02	1.743093E-04
3.272179E+03	1.772321E-02	1.731658E-04
3.282156E+03	1.766580E-02	1.720855E-04
3.292132E+03	1.761568E-02	1.710792E-04
3.302108E+03	1.757353E-02	1.701531E-04
3.312084E+03	1.754061E-02	1.693185E-04
3.322060E+03	1.751798E-02	1.685848E-04
3.332036E+03	1.750619E-02	1.679565E-04
3.342013E+03	1.750683E-02	1.674479E-04
3.351989E+03	1.752070E-02	1.670654E-04
3.361965E+03	1.754878E-02	1.668172E-04
3.371941E+03	1.759189E-02	1.667100E-04
3.381917E+03	1.765019E-02	1.667438E-04
3.391893E+03	1.772441E-02	1.669243E-04
3.401870E+03	1.781413E-02	1.672460E-04
3.411846E+03	1.791826E-02	1.676976E-04
3.421822E+03	1.803516E-02	1.682624E-04
3.431798E+03	1.816224E-02	1.689153E-04
3.441774E+03	1.829557E-02	1.696190E-04
3.451750E+03	1.843140E-02	1.703383E-04
3.461726E+03	1.856583E-02	1.710370E-04
3.471703E+03	1.869710E-02	1.716993E-04
3.481679E+03	1.882580E-02	1.723308E-04
3.491655E+03	1.895451E-02	1.729553E-04
3.501631E+03	1.908656E-02	1.736032E-04
3.511607E+03	1.922487E-02	1.743007E-04
3.521583E+03	1.937118E-02	1.750630E-04
3.531560E+03	1.952590E-02	1.758931E-04
3.541536E+03	1.968825E-02	1.767835E-04
3.551512E+03	1.985561E-02	1.777100E-04
3.561488E+03	2.002368E-02	1.786339E-04
3.571464E+03	2.018515E-02	1.794902E-04
3.581440E+03	2.032940E-02	1.801854E-04
3.591417E+03	2.044435E-02	1.806144E-04
3.601393E+03	2.053427E-02	1.808174E-04
3.611369E+03	2.060714E-02	1.808664E-04
3.621345E+03	2.066792E-02	1.808064E-04
3.631321E+03	2.071869E-02	1.806564E-04
3.641297E+03	2.076078E-02	1.804290E-04
3.651273E+03	2.079443E-02	1.801270E-04
3.661250E+03	2.081936E-02	1.797485E-04
3.671226E+03	2.083509E-02	1.792903E-04
3.681202E+03	2.084097E-02	1.787475E-04
3.691178E+03	2.083603E-02	1.781128E-04
3.701154E+03	2.081966E-02	1.773817E-04
3.711130E+03	2.079089E-02	1.765470E-04
3.721107E+03	2.074933E-02	1.756066E-04
3.731083E+03	2.069435E-02	1.745560E-04
3.741059E+03	2.062535E-02	1.733914E-04
3.751035E+03	2.054206E-02	1.721118E-04
3.761011E+03	2.044449E-02	1.707184E-04
3.770987E+03	2.033239E-02	1.692103E-04
3.780963E+03	2.020599E-02	1.675907E-04
3.790940E+03	2.006528E-02	1.658606E-04
3.800916E+03	1.991054E-02	1.640235E-04
3.810892E+03	1.974229E-02	1.620850E-04
3.820868E+03	1.956119E-02	1.600516E-04
3.830844E+03	1.936764E-02	1.579274E-04
3.840820E+03	1.916261E-02	1.557215E-04
3.850797E+03	1.894653E-02	1.534384E-04
3.860773E+03	1.872068E-02	1.510892E-04
3.870749E+03	1.848566E-02	1.486795E-04
3.880725E+03	1.824288E-02	1.462214E-04
3.890701E+03	1.799318E-02	1.437223E-04
3.900677E+03	1.773780E-02	1.411927E-04
3.910654E+03	1.747785E-02	1.386416E-04
3.920630E+03	1.721462E-02	1.360798E-04
3.930606E+03	1.694931E-02	1.335170E-04
3.940582E+03	1.668340E-02	1.309648E-04
3.950558E+03	1.641800E-02	1.284320E-04
3.960534E+03	1.615448E-02	1.259293E-04
3.970510E+03	1.589410E-02	1.234663E-04
3.980487E+03	1.563836E-02	1.210543E-04
3.990463E+03	1.538850E-02	1.187024E-04
4.000439E+03	1.514575E-02	1.164198E-04
4.010415E+03	1.491131E-02	1.142148E-04
4.020391E+03	1.468660E-02	1.120978E-04
4.030367E+03	1.447263E-02	1.100755E-04
4.040344E+03	1.427072E-02	1.081572E-04
4.050320E+03	1.408181E-02	1.063489E-04
4.060296E+03	1.390697E-02	1.046576E-04
4.070272E+03	1.374724E-02	1.030901E-04
4.080248E+03	1.360344E-02	1.016511E-04
4.090224E+03	1.347631E-02	1.003451E-04
4.100201E+03	1.336646E-02	9.917516E-05
4.110177E+03	1.327463E-02	9.814541E-05
4.120153E+03	1.320105E-02	9.725615E-05
4.130129E+03	1.314600E-02	9.650806E-05
4.140105E+03	1.310938E-02	9.589896E-05
4.150081E+03	1.309104E-02	9.542641E-05
4.160057E+03	1.309059E-02	9.508612E-05
4.170034E+03	1.310714E-02	9.487035E-05
4.180010E+03	1.313972E-02	9.477085E-05
4.189986E+03	1.318684E-02	9.477571E-05
4.199962E+03	1.324696E-02	9.487291E-05
4.209938E+03	1.331812E-02	9.504751E-05
4.219914E+03	1.339848E-02	9.528571E-05
4.229891E+03	1.348600E-02	9.557241E-05
4.239867E+03	1.357890E-02	9.589462E-05
4.249843E+03	1.367555E-02	9.624054E-05
4.259819E+03	1.377484E-02	9.660227E-05
4.269795E+03	1.387578E-02	9.697271E-05
4.279771E+03	1.397777E-02	9.734768E-05
4.289748E+03	1.408020E-02	9.772305E-05
4.299724E+03	1.418246E-02	9.809459E-05
4.309700E+03	1.428369E-02	9.845649E-05
4.319676E+03	1.438238E-02	9.879865E-05
4.329652E+03	1.447596E-02	9.910343E-05
4.339628E+03	1.456068E-02	9.934568E-05
4.349604E+03	1.463108E-02	9.948881E-05
4.359581E+03	1.467959E-02	9.948239E-05
4.369557E+03	1.469396E-02	9.924511E-05
4.379533E+03	1.465732E-02	9.866576E-05
4.389509E+03	1.457328E-02	9.777178E-05
4.399485E+03	1.446407E-02	9.671493E-05
4.409461E+03	1.434452E-02	9.559559E-05
4.419438E+03	1.422290E-02	9.446934E-05
4.429414E+03	1.410281E-02	9.335996E-05
4.439390E+03	1.398498E-02	9.227205E-05
4.449366E+03	1.386819E-02	9.119725E-05
4.459342E+03	1.374970E-02	9.011758E-05
4.469318E+03	1.362602E-02	8.901014E-05
4.479294E+03	1.349323E-02	8.784966E-05
4.489271E+03	1.334778E-02	8.661363E-05
4.499247E+03	1.318642E-02	8.528170E-05
4.509223E+03	1.300675E-02	8.383933E-05
4.519199E+03	1.280742E-02	8.227901E-05
4.529175E+03	1.258806E-02	8.059951E-05
4.539151E+03	1.234991E-02	7.880999E-05
4.549128E+03	1.209538E-02	7.692679E-05
4.559104E+03	1.182819E-02	7.497463E-05
4.569080E+03	1.155304E-02	7.298381E-05
4.579056E+03	1.127578E-02	7.099163E-05
4.589032E+03	1.100254E-02	6.903667E-05
4.599008E+03	1.073993E-02	6.715993E-05
4.608985E+03	1.049415E-02	6.539931E-05
4.618961E+03	1.027107E-02	6.379017E-05
4.628937E+03	1.007573E-02	6.236224E-05
4.638913E+03	9.912333E-03	6.113965E-05
4.648889E+03	9.783692E-03	6.013757E-05
4.658865E+03	9.691622E-03	5.936490E-05
4.668841E+03	9.636447E-03	5.882126E-05
4.678818E+03	9.617251E-03	5.849868E-05
4.688794E+03	9.632037E-03	5.838276E-05
4.698770E+03	9.677453E-03	5.845104E-05
4.708746E+03	9.749390E-03	5.867682E-05
4.718722E+03	9.842809E-03	5.902814E-05
4.728698E+03	9.952381E-03	5.947179E-05
4.738675E+03	1.007229E-02	5.997206E-05
4.748651E+03	1.019708E-02	6.049595E-05
4.758627E+03	1.032142E-02	6.101160E-05
4.768603E+03	1.044078E-02	6.149235E-05
4.778579E+03	1.055111E-02	6.191472E-05
4.788555E+03	1.064923E-02	6.226075E-05
4.798532E+03	1.073275E-02	6.251728E-05
4.808508E+03	1.079997E-02	6.267546E-05
4.818484E+03	1.084982E-02	6.273013E-05
4.828460E+03	1.088170E-02	6.267896E-05
4.838436E+03	1.089564E-02	6.252332E-05
4.848412E+03	1.089195E-02	6.226624E-05
4.858388E+03	1.087119E-02	6.191200E-05
4.868365E+03	1.083430E-02	6.146717E-05
4.878341E+03	1.078262E-02	6.094029E-05
4.888317E+03	1.071742E-02	6.033960E-05
4.898293E+03	1.064067E-02	5.967707E-05
4.908269E+03	1.055429E-02	5.896422E-05
4.918245E+03	1.046048E-02	5.821393E-05
4.928222E+03	1.036185E-02	5.744123E-05
4.938198E+03	1.026103E-02	5.666095E-05
4.948174E+03	1.016060E-02	5.588756E-05
4.958150E+03	1.006319E-02	5.513549E-05
4.968126E+03	9.970959E-03	5.441628E-05
4.978102E+03	9.886038E-03	5.374134E-05
4.988078E+03	9.809852E-03	5.311793E-05
4.998055E+03	9.743341E-03	5.255064E-05
5.008031E+03	9.687129E-03	5.204226E-05
5.018007E+03	9.641203E-03	5.159214E-05
5.027983E+03	9.605231E-03	5.119793E-05
5.037959E+03	9.578545E-03	5.085553E-05
5.047935E+03	9.560187E-03	5.055939E-05
5.057912E+03	9.548929E-03	5.030259E-05
5.067888E+03	9.543567E-03	5.007848E-05
5.077864E+03	9.542622E-03	4.987906E-05
5.087840E+03	9.544650E-03	4.969665E-05
5.097816E+03	9.548069E-03	4.952299E-05
5.107792E+03	9.551455E-03	4.935073E-05
5.117769E+03	9.553156E-03	4.917149E-05
5.127745E+03	9.551935E-03	4.897916E-05
5.137721E+03	9.546278E-03	4.876629E-05
5.147697E+03	9.535120E-03	4.852784E-05
5.157673E+03	9.517416E-03	4.825894E-05
5.167649E+03	9.492363E-03	4.795604E-05
5.177625E+03	9.459614E-03	4.761790E-05
5.187602E+03	9.418900E-03	4.724372E-05
5.197578E+03	9.370373E-03	4.683477E-05
5.207554E+03	9.314434E-03	4.639358E-05
5.217530E+03	9.251709E-03	4.592372E-05
5.227506E+03	9.183174E-03	4.543046E-05
5.237482E+03	9.109970E-03	4.491977E-05
5.247459E+03	9.033634E-03	4.439951E-05
5.257435E+03	8.955677E-03	4.387728E-05
5.267411E+03	8.877778E-03	4.336144E-05
5.277387E+03	8.801585E-03	4.286004E-05
5.287363E+03	8.728583E-03	4.238026E-05
5.297339E+03	8.660146E-03	4.192868E-05
5.307316E+03	8.597432E-03	4.151074E-05
5.317292E+03	8.541365E-03	4.113074E-05
5.327268E+03	8.492544E-03	4.079134E-05
5.337244E+03	8.451550E-03	4.049513E-05
5.347220E+03	8.418700E-03	4.024344E-05
5.357196E+03	8.394167E-03	4.003691E-05
5.367172E+03	8.377883E-03	3.987503E-05
5.377149E+03	8.369829E-03	3.975760E-05
5.387125E+03	8.369449E-03	3.968187E-05
5.397101E+03	8.376013E-03	3.964431E-05
5.407077E+03	8.387976E-03	3.963759E-05
5.417053E+03	8.403231E-03	3.965182E-05
5.427029E+03	8.418723E-03	3.967269E-05
5.437006E+03	8.430539E-03	3.968192E-05
5.446982E+03	8.433372E-03	3.965456E-05
5.456958E+03	8.420796E-03	3.956046E-05
5.466934E+03	8.385454E-03	3.936509E-05
5.476910E+03	8.319525E-03	3.903182E-05
5.486886E+03	8.219051E-03	3.854208E-05
5.496862E+03	8.090568E-03	3.792642E-05
5.506839E+03	7.942387E-03	3.722357E-05
5.516815E+03	7.782002E-03	3.646832E-05
5.526791E+03	7.616059E-03	3.569141E-05
5.536767E+03	7.450299E-03	3.491937E-05
5.546743E+03	7.289434E-03	3.417387E-05
5.556719E+03	7.137484E-03	3.347342E-05
5.566696E+03	6.997527E-03	3.283216E-05
5.576672E+03	6.872298E-03	3.226268E-05
5.586648E+03	6.763671E-03	3.177361E-05
5.596624E+03	6.673191E-03	3.137211E-05
5.606600E+03	6.601883E-03	3.106295E-05
5.616576E+03	6.550077E-03	3.084774E-05
5.626553E+03	6.517990E-03	3.072757E-05
5.636529E+03	6.505150E-03	3.070035E-05
5.646505E+03	6.510717E-03	3.076230E-05
5.656481E+03	6.533781E-03	3.090931E-05
5.666457E+03	6.572787E-03	3.113425E-05
5.676433E+03	6.626100E-03	3.142960E-05
5.686409E+03	6.691815E-03	3.178653E-05
5.696386E+03	6.767719E-03	3.219473E-05
5.706362E+03	6.851386E-03	3.264283E-05
5.716338E+03	6.940242E-03	3.311867E-05
5.726314E+03	7.031702E-03	3.361001E-05
5.736290E+03	7.123200E-03	3.410459E-05
5.746266E+03	7.212055E-03	3.458952E-05
5.756243E+03	7.296158E-03	3.505457E-05
5.766219E+03	7.373296E-03	3.548893E-05
5.776195E+03	7.441898E-03	3.588481E-05
5.786171E+03	7.500528E-03	3.623500E-05
5.796147E+03	7.548304E-03	3.653491E-05
5.806123E+03	7.584664E-03	3.678147E-05
5.816100E+03	7.609540E-03	3.697395E-05
5.826076E+03	7.623098E-03	3.711279E-05
5.836052E+03	7.625962E-03	3.720064E-05
5.846028E+03	7.619178E-03	3.724224E-05
5.856004E+03	7.604056E-03	3.724367E-05
5.865980E+03	7.581832E-03	3.721067E-05
5.875956E+03	7.554125E-03	3.715094E-05
5.885933E+03	7.522261E-03	3.707078E-05
5.895909E+03	7.487589E-03	3.697667E-05
5.905885E+03	7.451167E-03	3.687371E-05
5.915861E+03	7.413739E-03	3.676550E-05
5.925837E+03	7.375983E-03	3.665533E-05
5.935813E+03	7.338294E-03	3.654510E-05
5.945790E+03	7.300819E-03	3.643552E-05
5.955766E+03	7.263840E-03	3.632797E-05
5.965742E+03	7.227229E-03	3.622181E-05
5.975718E+03	7.191077E-03	3.611747E-05
5.985694E+03	7.155388E-03	3.601496E-05
5.995670E+03	7.120115E-03	3.591404E-05
6.005647E+03	7.085424E-03	3.581556E-05
6.015623E+03	7.051307E-03	3.571946E-05
6.025599E+03	7.018163E-03	3.562780E-05
6.035575E+03	6.986144E-03	3.554137E-05
6.045551E+03	6.955725E-03	3.546261E-05
6.055527E+03	6.927285E-03	3.539352E-05
6.065503E+03	6.901336E-03	3.533679E-05
6.075480E+03	6.878331E-03	3.529483E-05
6.085456E+03	6.858731E-03	3.527010E-05
6.095432E+03	6.843135E-03	3.526583E-05
6.105408E+03	6.831767E-03	3.528331E-05
6.115384E+03	6.825111E-03	3.532519E-05
6.125360E+03	6.823311E-03	3.539242E-05
6.135337E+03	6.826571E-03	3.548621E-05
6.145313E+03	6.834634E-03	3.560544E-05
6.155289E+03	6.847527E-03	3.575042E-05
6.165265E+03	6.864802E-03	3.591902E-05
6.175241E+03	6.886050E-03	3.610926E-05
6.185217E+03	6.910659E-03	3.631809E-05
6.195193E+03	6.938291E-03	3.654390E-05
6.205170E+03	6.968682E-03	3.678543E-05
6.215146E+03	7.001619E-03	3.704169E-05
6.225122E+03	7.037006E-03	3.731232E-05
6.235098E+03	7.074644E-03	3.759637E-05
6.245074E+03	7.114979E-03	3.789638E-05
6.255050E+03	7.158108E-03	3.821299E-05
6.265027E+03	7.204638E-03	3.854963E-05
6.275003E+03	7.255159E-03	3.890964E-05
6.284979E+03	7.309927E-03	3.929460E-05
6.294955E+03	7.369299E-03	3.970668E-05
6.304931E+03	7.433221E-03	4.014581E-05
6.314907E+03	7.501182E-03	4.060950E-05
6.324884E+03	7.571915E-03	4.109110E-05
6.334860E+03	7.643743E-03	4.158167E-05
6.344836E+03	7.714265E-03	4.206828E-05
6.354812E+03	7.780533E-03	4.253482E-05
6.364788E+03	7.839066E-03	4.296215E-05
6.374764E+03	7.886174E-03	4.332976E-05
6.384740E+03	7.918220E-03	4.361722E-05
6.394717E+03	7.932057E-03	4.380660E-05
6.404693E+03	7.925140E-03	4.388309E-05
6.414669E+03	7.895715E-03	4.383611E-05
6.424645E+03	7.844021E-03	4.366599E-05
6.434621E+03	7.771419E-03	4.337922E-05
6.444597E+03	7.680914E-03	4.299155E-05
6.454574E+03	7.577087E-03	4.252774E-05
6.464550E+03	7.465468E-03	4.201817E-05
6.474526E+03	7.352932E-03	4.150114E-05
6.484502E+03	7.246712E-03	4.101742E-05
6.494478E+03	7.154120E-03	4.060870E-05
6.504454E+03	7.081149E-03	4.030964E-05
6.514431E+03	7.032089E-03	4.014558E-05
6.524407E+03	7.007245E-03	4.011938E-05
6.534383E+03	7.003627E-03	4.021498E-05
6.544359E+03	7.015947E-03	4.040292E-05
6.554335E+03	7.037961E-03	4.064787E-05
6.564311E+03	7.063849E-03	4.091655E-05
6.574287E+03	7.088450E-03	4.117911E-05
6.584264E+03	7.107507E-03	4.141063E-05
6.594240E+03	7.117965E-03	4.159292E-05
6.604216E+03	7.117834E-03	4.171380E-05
6.614192E+03	7.106203E-03	4.176733E-05
6.624168E+03	7.082645E-03	4.175034E-05
6.634144E+03	7.047771E-03	4.166575E-05
6.644121E+03	7.002610E-03	4.151904E-05
6.654097E+03	6.948462E-03	4.131734E-05
6.664073E+03	6.887116E-03	4.107081E-05
6.674049E+03	6.820263E-03	4.078914E-05
6.684025E+03	6.749851E-03	4.048367E-05
6.694001E+03	6.677415E-03	4.016343E-05
6.703977E+03	6.604704E-03	3.983881E-05
6.713954E+03	6.533268E-03	3.951913E-05
6.723930E+03	6.464087E-03	3.921039E-05
6.733906E+03	6.398236E-03	3.891919E-05
6.743882E+03	6.336314E-03	3.864932E-05
6.753858E+03	6.278908E-03	3.840456E-05
6.763834E+03	6.226167E-03	3.818602E-05
6.773811E+03	6.178178E-03	3.799444E-05
6.783787E+03	6.134989E-03	3.783033E-05
6.793763E+03	6.096208E-03	3.769149E-05
6.803739E+03	6.061802E-03	3.757791E-05
6.813715E+03	6.031246E-03	3.748652E-05
6.823691E+03	6.004420E-03	3.741674E-05
6.833668E+03	5.980746E-03	3.736513E-05
6.843644E+03	5.959862E-03	3.732954E-05
6.853620E+03	5.941511E-03	3.730848E-05
6.863596E+03	5.925340E-03	3.729984E-05
6.873572E+03	5.910785E-03	3.730013E-05
6.883548E+03	5.897736E-03	3.730872E-05
6.893524E+03	5.885776E-03	3.732303E-05
6.903501E+03	5.874728E-03	3.734196E-05
6.913477E+03	5.864113E-03	3.736249E-05
6.923453E+03	5.853807E-03	3.738384E-05
6.933429E+03	5.843611E-03	3.740473E-05
6.943405E+03	5.833243E-03	3.742335E-05
6.953381E+03	5.822671E-03	3.743950E-05
6.963358E+03	5.811786E-03	3.745242E-05
6.973334E+03	5.800385E-03	3.746081E-05
6.983310E+03	5.788401E-03	3.746420E-05
6.993286E+03	5.775784E-03	3.746225E-05
7.003262E+03	5.762608E-03	3.745541E-05
7.013238E+03	5.748619E-03	3.744199E-05
7.023215E+03	5.734018E-03	3.742328E-05
7.033191E+03	5.718553E-03	3.739762E-05
7.043167E+03	5.702315E-03	3.736556E-05
7.053143E+03	5.685165E-03	3.732618E-05
7.063119E+03	5.667188E-03	3.728001E-05
7.073095E+03	5.648363E-03	3.722688E-05
7.083071E+03	5.628556E-03	3.716589E-05
7.093048E+03	5.607644E-03	3.709620E-05
7.103024E+03	5.585857E-03	3.701932E-05
7.113000E+03	5.563104E-03	3.693462E-05
7.122976E+03	5.539425E-03	3.684235E-05
7.132952E+03	5.514881E-03	3.674291E-05
7.142928E+03	5.489443E-03	3.663608E-05
7.152905E+03	5.463327E-03	3.652331E-05
7.162881E+03	5.436543E-03	3.640467E-05
7.172857E+03	5.409227E-03	3.628106E-05
7.182833E+03	5.381635E-03	3.615421E-05
7.192809E+03	5.353809E-03	3.602443E-05
7.202785E+03	5.326013E-03	3.589351E-05
7.212762E+03	5.298174E-03	3.576099E-05
7.222738E+03	5.270540E-03	3.562857E-05
7.232714E+03	5.243225E-03	3.549706E-05
7.242690E+03	5.216316E-03	3.536708E-05
7.252666E+03	5.189865E-03	3.523904E-05
7.262642E+03	5.163884E-03	3.511305E-05
7.272618E+03	5.138232E-03	3.498821E-05
7.282595E+03	5.112955E-03	3.486486E-05
7.292571E+03	5.087956E-03	3.474239E-05
7.302547E+03	5.063116E-03	3.462003E-05
7.312523E+03	5.038196E-03	3.449617E-05
7.322499E+03	5.013183E-03	3.437075E-05
7.332475E+03	4.988075E-03	3.424380E-05
7.342452E+03	4.962569E-03	3.411326E-05
7.352428E+03	4.936727E-03	3.397958E-05
7.362404E+03	4.910543E-03	3.384275E-05
7.372380E+03	4.884168E-03	3.370383E-05
7.382356E+03	4.857583E-03	3.356273E-05
7.392332E+03	4.831028E-03	3.342113E-05
7.402308E+03	4.804784E-03	3.328103E-05
7.412285E+03	4.778939E-03	3.314307E-05
7.422261E+03	4.753927E-03	3.301031E-05
7.432237E+03	4.729744E-03	3.288279E-05
7.442213E+03	4.706702E-03	3.276272E-05
7.452189E+03	4.684867E-03	3.265066E-05
7.462165E+03	4.664488E-03	3.254838E-05
7.472142E+03	4.645442E-03	3.245512E-05
7.482118E+03	4.627882E-03	3.237201E-05
7.492094E+03	4.611799E-03	3.229907E-05
7.502070E+03	4.597020E-03	3.223516E-05
7.512046E+03	4.583644E-03	3.218104E-05
7.522022E+03	4.571284E-03	3.213407E-05
7.531999E+03	4.559830E-03	3.209355E-05
7.541975E+03	4.548904E-03	3.205687E-05
7.551951E+03	4.538307E-03	3.202268E-05
7.561927E+03	4.527587E-03	3.198784E-05
7.571903E+03	4.516485E-03	3.195055E-05
7.581879E+03	4.504515E-03	3.190742E-05
7.591855E+03	4.491312E-03	3.185584E-05
7.601832E+03	4.476638E-03	3.179416E-05
7.611808E+03	4.460089E-03	3.171949E-05
7.621784E+03	4.441422E-03	3.163009E-05
7.631760E+03	4.420573E-03	3.152547E-05
7.641736E+03	4.397324E-03	3.140407E-05
7.651712E+03	4.371746E-03	3.126632E-05
7.661689E+03	4.343636E-03	3.111077E-05
7.671665E+03	4.313275E-03	3.093936E-05
7.681641E+03	4.280762E-03	3.075276E-05
7.691617E+03	4.246118E-03	3.055109E-05
7.701593E+03	4.209599E-03	3.033614E-05
7.711569E+03	4.171270E-03	3.010834E-05
7.721546E+03	4.131316E-03	2.986898E-05
7.731522E+03	4.090046E-03	2.962026E-05
7.741498E+03	4.047678E-03	2.936372E-05
