#wls	flux	fluxerr
1.596185E+03	1.135594E-03	5.387049E-08
1.636090E+03	1.156954E-03	5.488378E-08
1.675994E+03	1.170126E-03	5.550862E-08
1.715899E+03	1.173797E-03	5.568275E-08
1.755804E+03	1.167211E-03	5.537033E-08
1.795708E+03	1.149122E-03	5.451222E-08
1.835613E+03	1.119188E-03	5.309222E-08
1.875518E+03	1.077217E-03	5.110119E-08
1.915422E+03	1.024121E-03	4.858242E-08
1.955327E+03	9.623803E-04	4.565354E-08
1.995231E+03	8.971103E-04	4.255725E-08
2.035136E+03	8.375876E-04	3.973360E-08
2.075041E+03	7.992947E-04	3.791706E-08
2.114945E+03	7.978358E-04	3.784785E-08
2.154850E+03	8.277458E-04	3.926672E-08
2.194755E+03	8.862479E-04	4.204195E-08
2.234659E+03	9.793337E-04	4.645777E-08
2.274564E+03	1.120839E-03	5.317052E-08
2.314468E+03	1.306129E-03	6.196034E-08
2.354373E+03	1.510780E-03	7.166857E-08
2.394278E+03	1.715882E-03	8.139824E-08
2.434182E+03	1.908206E-03	9.052173E-08
2.474087E+03	2.078750E-03	9.861198E-08
2.513992E+03	2.224914E-03	1.055457E-07
2.553896E+03	2.351133E-03	1.115334E-07
2.593801E+03	2.473633E-03	1.173445E-07
2.633705E+03	2.617209E-03	1.241555E-07
2.673610E+03	2.783975E-03	1.320666E-07
2.713515E+03	2.954718E-03	1.401662E-07
2.753419E+03	3.115340E-03	1.477859E-07
2.793324E+03	3.256652E-03	1.544894E-07
2.833229E+03	3.372669E-03	1.599930E-07
2.873133E+03	3.459541E-03	1.641141E-07
2.913038E+03	3.515513E-03	1.667693E-07
2.952942E+03	3.540086E-03	1.679350E-07
2.992847E+03	3.533894E-03	1.676412E-07
3.002823E+03	3.527812E-03	1.673527E-07
3.012799E+03	3.519901E-03	1.669774E-07
3.022776E+03	3.510159E-03	1.665153E-07
3.032752E+03	3.498855E-03	1.659790E-07
3.042728E+03	3.485974E-03	1.653680E-07
3.052704E+03	3.471740E-03	1.646927E-07
3.062680E+03	3.455997E-03	1.639459E-07
3.072656E+03	3.439048E-03	1.631419E-07
3.082633E+03	3.420636E-03	1.622685E-07
3.092609E+03	3.400846E-03	1.613297E-07
3.102585E+03	3.379763E-03	1.603295E-07
3.112561E+03	3.357366E-03	1.592671E-07
3.122537E+03	3.333743E-03	1.581464E-07
3.132513E+03	3.308786E-03	1.569625E-07
3.142489E+03	3.282685E-03	1.557243E-07
3.152466E+03	3.255436E-03	1.544317E-07
3.162442E+03	3.227131E-03	1.530890E-07
3.172418E+03	3.197688E-03	1.516922E-07
3.182394E+03	2.966317E-03	1.407164E-07
3.192370E+03	3.135794E-03	1.487561E-07
3.202346E+03	3.103467E-03	1.472226E-07
3.212323E+03	3.070332E-03	1.456507E-07
3.222299E+03	3.036420E-03	1.440420E-07
3.232275E+03	3.001845E-03	1.424018E-07
3.242251E+03	2.966649E-03	1.407322E-07
3.252227E+03	2.930887E-03	1.390357E-07
3.262203E+03	2.894691E-03	1.373186E-07
3.272179E+03	2.858131E-03	1.355843E-07
3.282156E+03	2.821294E-03	1.338368E-07
3.292132E+03	2.784401E-03	1.320866E-07
3.302108E+03	2.747499E-03	1.303361E-07
3.312084E+03	2.710720E-03	1.285914E-07
3.322060E+03	2.674220E-03	1.268599E-07
3.332036E+03	2.638288E-03	1.251553E-07
3.342013E+03	2.603023E-03	1.234824E-07
3.351989E+03	2.568727E-03	1.218555E-07
3.361965E+03	2.535694E-03	1.202885E-07
3.371941E+03	2.504227E-03	1.187957E-07
3.381917E+03	2.474750E-03	1.173974E-07
3.391893E+03	2.447820E-03	1.161199E-07
3.401870E+03	2.423921E-03	1.149862E-07
3.411846E+03	2.403897E-03	1.140363E-07
3.421822E+03	2.388543E-03	1.133079E-07
3.431798E+03	2.379025E-03	1.128564E-07
3.441774E+03	2.376575E-03	1.127402E-07
3.451750E+03	2.382819E-03	1.130364E-07
3.461726E+03	2.399358E-03	1.138209E-07
3.471703E+03	2.427483E-03	1.151551E-07
3.481679E+03	2.466811E-03	1.170208E-07
3.491655E+03	2.516428E-03	1.193745E-07
3.501631E+03	2.575315E-03	1.221680E-07
3.511607E+03	2.642485E-03	1.253544E-07
3.521583E+03	2.717064E-03	1.288923E-07
3.531560E+03	2.798410E-03	1.327512E-07
3.541536E+03	2.886153E-03	1.369135E-07
3.551512E+03	2.980034E-03	1.413671E-07
3.561488E+03	3.080140E-03	1.461159E-07
3.571464E+03	3.186766E-03	1.511741E-07
3.581440E+03	3.300327E-03	1.565612E-07
3.591417E+03	3.421138E-03	1.622922E-07
3.601393E+03	3.548606E-03	1.683391E-07
3.611369E+03	3.681629E-03	1.746494E-07
3.621345E+03	3.818950E-03	1.811637E-07
3.631321E+03	3.959124E-03	1.878132E-07
3.641297E+03	4.101058E-03	1.945463E-07
3.651273E+03	4.243606E-03	2.013085E-07
3.661250E+03	4.385858E-03	2.080567E-07
3.671226E+03	4.526808E-03	2.147431E-07
3.681202E+03	4.665554E-03	2.213249E-07
3.691178E+03	4.801313E-03	2.277651E-07
3.701154E+03	4.933313E-03	2.340269E-07
3.711130E+03	5.060954E-03	2.400819E-07
3.721107E+03	5.183526E-03	2.458965E-07
3.731083E+03	5.300543E-03	2.514475E-07
3.741059E+03	5.411512E-03	2.567117E-07
3.751035E+03	5.516047E-03	2.616706E-07
3.761011E+03	5.613682E-03	2.663023E-07
3.770987E+03	5.704109E-03	2.705919E-07
3.780963E+03	5.786994E-03	2.745238E-07
3.790940E+03	5.862092E-03	2.780863E-07
3.800916E+03	5.929069E-03	2.812636E-07
3.810892E+03	5.987859E-03	2.840525E-07
3.820868E+03	6.038123E-03	2.864369E-07
3.830844E+03	6.079791E-03	2.884136E-07
3.840820E+03	6.112643E-03	2.899720E-07
3.850797E+03	6.136737E-03	2.911149E-07
3.860773E+03	6.151858E-03	2.918323E-07
3.870749E+03	6.158023E-03	2.921247E-07
3.880725E+03	6.155350E-03	2.919979E-07
3.890701E+03	6.143828E-03	2.914513E-07
3.900677E+03	6.123623E-03	2.904928E-07
3.910654E+03	6.094963E-03	2.891333E-07
3.920630E+03	6.058022E-03	2.873809E-07
3.930606E+03	6.013221E-03	2.852556E-07
3.940582E+03	5.960933E-03	2.827751E-07
3.950558E+03	5.901552E-03	2.799582E-07
3.960534E+03	5.835714E-03	2.768350E-07
3.970510E+03	5.764015E-03	2.734337E-07
3.980487E+03	5.687175E-03	2.697886E-07
3.990463E+03	5.605875E-03	2.659319E-07
4.000439E+03	5.520965E-03	2.619039E-07
4.010415E+03	5.433299E-03	2.577452E-07
4.020391E+03	5.343781E-03	2.534986E-07
4.030367E+03	5.253455E-03	2.492137E-07
4.040344E+03	5.163204E-03	2.449324E-07
4.050320E+03	5.074133E-03	2.407071E-07
4.060296E+03	4.987223E-03	2.365842E-07
4.070272E+03	4.903559E-03	2.326153E-07
4.080248E+03	4.824186E-03	2.288501E-07
4.090224E+03	4.750109E-03	2.253359E-07
4.100201E+03	4.682452E-03	2.221265E-07
4.110177E+03	4.622207E-03	2.192686E-07
4.120153E+03	4.570394E-03	2.168106E-07
4.130129E+03	4.528013E-03	2.148001E-07
4.140105E+03	4.496084E-03	2.132855E-07
4.150081E+03	4.475513E-03	2.123097E-07
4.160057E+03	4.467238E-03	2.119171E-07
4.162053E+03	4.371928E-03	2.073958E-07
4.166043E+03	4.334476E-03	2.056191E-07
4.170034E+03	4.294088E-03	2.037032E-07
4.174024E+03	4.256516E-03	2.019208E-07
4.178015E+03	4.223819E-03	2.003698E-07
4.182005E+03	4.201421E-03	1.993073E-07
4.185995E+03	4.182458E-03	1.984077E-07
4.189986E+03	4.179833E-03	1.982832E-07
4.193976E+03	4.197161E-03	1.991052E-07
4.197967E+03	4.227586E-03	2.005485E-07
4.201957E+03	4.265341E-03	2.023395E-07
4.205948E+03	4.315895E-03	2.047377E-07
4.209938E+03	4.384366E-03	2.079858E-07
4.213929E+03	4.461404E-03	2.116403E-07
4.217919E+03	4.535921E-03	2.151753E-07
4.221910E+03	4.610733E-03	2.187242E-07
4.225900E+03	4.692445E-03	2.226005E-07
4.229891E+03	4.769545E-03	2.262580E-07
4.233881E+03	4.838606E-03	2.295341E-07
4.237871E+03	4.898650E-03	2.323824E-07
4.241862E+03	4.946607E-03	2.346575E-07
4.245852E+03	4.994968E-03	2.369516E-07
4.249843E+03	5.033276E-03	2.387688E-07
4.253833E+03	5.064920E-03	2.402700E-07
4.257824E+03	5.087210E-03	2.413274E-07
4.261814E+03	5.106407E-03	2.422380E-07
4.265805E+03	5.128987E-03	2.433092E-07
4.269795E+03	5.147508E-03	2.441878E-07
4.273786E+03	5.167309E-03	2.451271E-07
4.277776E+03	5.197193E-03	2.465447E-07
4.281767E+03	5.217265E-03	2.474969E-07
4.285757E+03	5.233820E-03	2.482823E-07
4.289748E+03	5.256634E-03	2.493645E-07
4.293738E+03	5.292826E-03	2.510814E-07
4.297728E+03	5.328201E-03	2.527595E-07
4.301719E+03	5.359676E-03	2.542526E-07
4.305709E+03	5.393974E-03	2.558797E-07
4.309700E+03	5.430328E-03	2.576042E-07
4.313690E+03	5.462760E-03	2.591427E-07
4.317681E+03	5.486047E-03	2.602474E-07
4.321671E+03	5.500358E-03	2.609263E-07
4.325662E+03	5.510114E-03	2.613891E-07
4.329652E+03	5.515496E-03	2.616444E-07
4.333643E+03	5.511655E-03	2.614622E-07
4.337633E+03	5.491795E-03	2.605201E-07
4.341624E+03	5.472545E-03	2.596069E-07
4.345614E+03	5.449445E-03	2.585111E-07
4.349604E+03	5.415120E-03	2.568828E-07
4.353595E+03	5.374789E-03	2.549696E-07
4.357585E+03	5.330775E-03	2.528816E-07
4.361576E+03	5.290646E-03	2.509779E-07
4.365566E+03	5.244309E-03	2.487798E-07
4.369557E+03	5.186121E-03	2.460195E-07
4.373547E+03	5.130071E-03	2.433606E-07
4.377538E+03	5.082389E-03	2.410987E-07
4.381528E+03	5.033165E-03	2.387636E-07
4.385519E+03	4.985519E-03	2.365033E-07
4.389509E+03	4.940238E-03	2.343553E-07
4.393500E+03	4.900642E-03	2.324769E-07
4.397490E+03	4.867130E-03	2.308872E-07
4.401480E+03	4.835233E-03	2.293741E-07
4.405471E+03	4.811580E-03	2.282520E-07
4.409461E+03	4.785464E-03	2.270131E-07
4.413452E+03	4.769749E-03	2.262676E-07
4.417442E+03	4.770676E-03	2.263116E-07
4.421433E+03	4.786306E-03	2.270530E-07
4.425423E+03	4.820926E-03	2.286953E-07
4.429414E+03	4.864992E-03	2.307858E-07
4.433404E+03	4.912461E-03	2.330376E-07
4.437395E+03	4.976585E-03	2.360795E-07
4.441385E+03	5.056386E-03	2.398651E-07
4.445376E+03	5.150494E-03	2.443294E-07
4.449366E+03	5.245267E-03	2.488253E-07
4.453356E+03	5.338364E-03	2.532416E-07
4.457347E+03	5.430562E-03	2.576153E-07
4.461337E+03	5.527117E-03	2.621957E-07
4.465328E+03	5.624518E-03	2.668162E-07
4.469318E+03	5.724321E-03	2.715506E-07
4.473309E+03	5.820682E-03	2.761218E-07
4.477299E+03	5.919441E-03	2.808068E-07
4.481290E+03	6.024482E-03	2.857897E-07
4.485280E+03	6.126852E-03	2.906459E-07
4.489271E+03	6.221496E-03	2.951357E-07
4.493261E+03	6.313860E-03	2.995172E-07
4.497252E+03	6.402974E-03	3.037446E-07
4.501242E+03	6.489031E-03	3.078270E-07
4.505232E+03	6.578638E-03	3.120778E-07
4.509223E+03	6.666548E-03	3.162481E-07
4.513213E+03	6.759942E-03	3.206785E-07
4.517204E+03	6.854350E-03	3.251570E-07
4.521194E+03	6.948995E-03	3.296468E-07
4.525185E+03	7.049303E-03	3.344052E-07
4.529175E+03	7.153134E-03	3.393308E-07
4.533166E+03	7.254479E-03	3.441384E-07
4.537156E+03	7.351596E-03	3.487454E-07
4.541147E+03	7.448167E-03	3.533265E-07
4.545137E+03	7.543417E-03	3.578450E-07
4.549128E+03	7.631548E-03	3.620258E-07
4.553118E+03	7.706381E-03	3.655757E-07
4.557109E+03	7.770833E-03	3.686332E-07
4.561099E+03	7.820283E-03	3.709790E-07
4.565089E+03	7.856684E-03	3.727058E-07
4.569080E+03	7.886037E-03	3.740982E-07
4.573070E+03	7.904878E-03	3.749920E-07
4.577061E+03	7.914389E-03	3.754432E-07
4.581051E+03	7.911696E-03	3.753154E-07
4.585042E+03	7.898346E-03	3.746821E-07
4.589032E+03	7.877066E-03	3.736726E-07
4.593023E+03	7.845365E-03	3.721688E-07
4.597013E+03	7.799610E-03	3.699983E-07
4.601004E+03	7.733296E-03	3.668525E-07
4.604994E+03	7.651259E-03	3.629608E-07
4.608985E+03	7.561204E-03	3.586888E-07
4.612975E+03	7.463726E-03	3.540646E-07
4.616965E+03	7.353280E-03	3.488253E-07
4.620956E+03	7.234873E-03	3.432083E-07
4.624946E+03	7.106033E-03	3.370964E-07
4.628937E+03	6.973863E-03	3.308265E-07
4.632927E+03	6.846976E-03	3.248072E-07
4.636918E+03	6.715813E-03	3.185851E-07
4.640908E+03	6.573505E-03	3.118343E-07
4.644899E+03	6.427140E-03	3.048910E-07
4.648889E+03	6.275201E-03	2.976833E-07
4.652880E+03	6.120752E-03	2.903566E-07
4.656870E+03	5.971234E-03	2.832637E-07
4.660861E+03	5.827020E-03	2.764225E-07
4.664851E+03	5.688865E-03	2.698687E-07
4.668841E+03	5.557520E-03	2.636379E-07
4.672832E+03	5.438297E-03	2.579822E-07
4.676822E+03	5.329657E-03	2.528285E-07
4.680813E+03	5.234429E-03	2.483111E-07
4.684803E+03	5.156194E-03	2.445998E-07
4.688794E+03	5.095111E-03	2.417021E-07
4.692784E+03	5.053044E-03	2.397066E-07
4.696775E+03	5.028065E-03	2.385216E-07
4.700765E+03	5.021276E-03	2.381996E-07
4.704756E+03	5.036239E-03	2.389093E-07
4.708746E+03	5.071399E-03	2.405773E-07
4.712737E+03	5.122941E-03	2.430223E-07
4.716727E+03	5.190458E-03	2.462252E-07
4.720717E+03	5.274673E-03	2.502202E-07
4.724708E+03	5.368202E-03	2.546570E-07
4.728698E+03	5.468013E-03	2.593919E-07
4.732689E+03	5.570329E-03	2.642455E-07
4.736679E+03	5.672888E-03	2.691107E-07
4.740670E+03	5.770423E-03	2.737376E-07
4.744660E+03	5.859377E-03	2.779574E-07
4.748651E+03	5.936760E-03	2.816283E-07
4.752641E+03	6.002782E-03	2.847603E-07
4.756632E+03	6.062156E-03	2.875768E-07
4.760622E+03	6.111521E-03	2.899186E-07
4.764613E+03	6.150710E-03	2.917777E-07
4.768603E+03	6.185733E-03	2.934391E-07
4.772594E+03	6.218470E-03	2.949921E-07
4.776584E+03	6.249675E-03	2.964724E-07
4.780574E+03	6.285702E-03	2.981814E-07
4.784565E+03	6.331027E-03	3.003316E-07
4.788555E+03	6.380780E-03	3.026917E-07
4.792546E+03	6.435886E-03	3.053059E-07
4.796536E+03	6.496708E-03	3.081911E-07
4.800527E+03	6.558952E-03	3.111439E-07
4.804517E+03	6.625037E-03	3.142788E-07
4.808508E+03	6.692909E-03	3.174986E-07
4.812498E+03	6.759221E-03	3.206443E-07
4.816489E+03	6.818959E-03	3.234781E-07
4.820479E+03	6.867680E-03	3.257893E-07
4.824470E+03	6.903920E-03	3.275085E-07
4.828460E+03	6.924920E-03	3.285047E-07
4.832450E+03	6.932008E-03	3.288409E-07
4.836441E+03	6.923542E-03	3.284393E-07
4.840431E+03	6.899182E-03	3.272837E-07
4.844422E+03	6.864689E-03	3.256474E-07
4.848412E+03	6.826556E-03	3.238385E-07
4.852403E+03	6.782203E-03	3.217345E-07
4.856393E+03	6.737548E-03	3.196161E-07
4.860384E+03	6.699055E-03	3.177901E-07
4.864374E+03	6.669663E-03	3.163958E-07
4.868365E+03	6.650094E-03	3.154675E-07
4.872355E+03	6.640516E-03	3.150131E-07
4.876346E+03	6.644041E-03	3.151803E-07
4.880336E+03	6.659175E-03	3.158983E-07
4.884326E+03	6.685532E-03	3.171486E-07
4.888317E+03	6.724010E-03	3.189739E-07
4.892307E+03	6.766507E-03	3.209898E-07
4.896298E+03	6.810813E-03	3.230917E-07
4.900288E+03	6.855457E-03	3.252095E-07
4.904279E+03	6.898607E-03	3.272564E-07
4.908269E+03	6.937148E-03	3.290847E-07
4.912260E+03	6.969989E-03	3.306427E-07
4.916250E+03	6.994395E-03	3.318004E-07
4.920241E+03	7.012026E-03	3.326368E-07
4.924231E+03	7.017407E-03	3.328921E-07
4.928222E+03	7.011288E-03	3.326018E-07
4.932212E+03	6.994603E-03	3.318103E-07
4.936202E+03	6.966089E-03	3.304576E-07
4.940193E+03	6.928685E-03	3.286833E-07
4.944183E+03	6.885691E-03	3.266437E-07
4.948174E+03	6.833830E-03	3.241835E-07
4.952164E+03	6.773847E-03	3.213380E-07
4.956155E+03	6.708667E-03	3.182460E-07
4.960145E+03	6.635748E-03	3.147869E-07
4.964136E+03	6.557469E-03	3.110735E-07
4.968126E+03	6.476018E-03	3.072096E-07
4.972117E+03	6.391217E-03	3.031869E-07
4.976107E+03	6.302526E-03	2.989795E-07
4.980098E+03	6.211403E-03	2.946568E-07
4.984088E+03	6.117487E-03	2.902016E-07
4.988078E+03	6.022051E-03	2.856743E-07
4.992069E+03	5.931443E-03	2.813761E-07
4.996059E+03	5.844932E-03	2.772721E-07
5.000050E+03	5.759430E-03	2.732161E-07
5.004040E+03	5.676202E-03	2.692679E-07
5.008031E+03	5.604115E-03	2.658483E-07
5.012021E+03	5.543697E-03	2.629821E-07
5.016012E+03	5.494929E-03	2.606687E-07
5.020002E+03	5.456532E-03	2.588472E-07
5.023993E+03	5.428670E-03	2.575255E-07
5.027983E+03	5.412777E-03	2.567715E-07
5.031974E+03	5.407030E-03	2.564989E-07
5.035964E+03	5.411595E-03	2.567155E-07
5.039955E+03	5.424477E-03	2.573266E-07
5.043945E+03	5.439895E-03	2.580580E-07
5.047935E+03	5.459828E-03	2.590036E-07
5.051926E+03	5.483009E-03	2.601032E-07
5.055916E+03	5.507994E-03	2.612884E-07
5.059907E+03	5.534061E-03	2.625250E-07
5.063897E+03	5.562467E-03	2.638726E-07
5.067888E+03	5.586377E-03	2.650068E-07
5.071878E+03	5.606692E-03	2.659705E-07
5.075869E+03	5.622520E-03	2.667213E-07
5.079859E+03	5.635662E-03	2.673448E-07
5.083850E+03	5.645941E-03	2.678324E-07
5.087840E+03	5.652824E-03	2.681589E-07
5.091831E+03	5.659900E-03	2.684946E-07
5.095821E+03	5.670223E-03	2.689843E-07
5.099811E+03	5.682174E-03	2.695512E-07
5.103802E+03	5.695570E-03	2.701867E-07
5.107792E+03	5.709158E-03	2.708313E-07
5.111783E+03	5.722397E-03	2.714593E-07
5.115773E+03	5.735290E-03	2.720709E-07
5.119764E+03	5.747298E-03	2.726406E-07
5.123754E+03	5.757528E-03	2.731259E-07
5.127745E+03	5.767592E-03	2.736033E-07
5.131735E+03	5.779635E-03	2.741746E-07
5.135726E+03	5.793478E-03	2.748313E-07
5.139716E+03	5.806437E-03	2.754460E-07
5.143707E+03	5.820656E-03	2.761205E-07
5.147697E+03	5.834527E-03	2.767785E-07
5.151687E+03	5.846978E-03	2.773692E-07
5.155678E+03	5.863545E-03	2.781551E-07
5.159668E+03	5.882795E-03	2.790683E-07
5.163659E+03	5.905618E-03	2.801510E-07
5.167649E+03	5.931476E-03	2.813776E-07
5.171640E+03	5.961791E-03	2.828157E-07
5.175630E+03	5.994065E-03	2.843467E-07
5.179621E+03	6.027403E-03	2.859282E-07
5.183611E+03	6.064477E-03	2.876869E-07
5.187602E+03	6.106530E-03	2.896818E-07
5.191592E+03	6.149641E-03	2.917269E-07
5.195583E+03	6.197902E-03	2.940163E-07
5.199573E+03	6.250240E-03	2.964992E-07
5.203563E+03	6.303984E-03	2.990487E-07
5.207554E+03	6.360377E-03	3.017238E-07
5.211544E+03	6.417282E-03	3.044233E-07
5.215535E+03	6.473633E-03	3.070965E-07
5.219525E+03	6.525519E-03	3.095578E-07
5.223516E+03	6.571878E-03	3.117570E-07
5.227506E+03	6.612536E-03	3.136858E-07
5.231497E+03	6.650694E-03	3.154959E-07
5.235487E+03	6.686353E-03	3.171875E-07
5.239478E+03	6.712947E-03	3.184490E-07
5.243468E+03	6.732789E-03	3.193903E-07
5.247459E+03	6.750674E-03	3.202387E-07
5.251449E+03	6.768551E-03	3.210868E-07
5.255439E+03	6.785710E-03	3.219008E-07
5.259430E+03	6.800556E-03	3.226051E-07
5.263420E+03	6.815216E-03	3.233005E-07
5.267411E+03	6.831815E-03	3.240879E-07
5.271401E+03	6.846276E-03	3.247739E-07
5.275392E+03	6.858246E-03	3.253418E-07
5.279382E+03	6.867903E-03	3.257999E-07
5.283373E+03	6.878255E-03	3.262910E-07
5.287363E+03	6.888770E-03	3.267898E-07
5.291354E+03	6.895910E-03	3.271284E-07
5.295344E+03	6.901618E-03	3.273992E-07
5.299335E+03	6.906074E-03	3.276106E-07
5.303325E+03	6.908040E-03	3.277039E-07
5.307316E+03	6.908928E-03	3.277460E-07
5.311306E+03	6.906972E-03	3.276532E-07
5.315296E+03	6.903763E-03	3.275010E-07
5.319287E+03	6.895593E-03	3.271134E-07
5.323277E+03	6.883875E-03	3.265575E-07
5.327268E+03	6.867025E-03	3.257582E-07
5.331258E+03	6.844516E-03	3.246904E-07
5.335249E+03	6.818995E-03	3.234798E-07
5.339239E+03	6.792228E-03	3.222100E-07
5.343230E+03	6.764211E-03	3.208809E-07
5.347220E+03	6.740934E-03	3.197767E-07
5.351211E+03	6.718869E-03	3.187300E-07
5.355201E+03	6.698716E-03	3.177740E-07
5.359192E+03	6.683113E-03	3.170338E-07
5.363182E+03	6.670292E-03	3.164256E-07
5.367172E+03	6.659370E-03	3.159075E-07
5.371163E+03	6.652804E-03	3.155960E-07
5.375153E+03	6.647600E-03	3.153491E-07
5.379144E+03	6.643755E-03	3.151667E-07
5.383134E+03	6.646004E-03	3.152734E-07
5.387125E+03	6.651355E-03	3.155273E-07
5.391115E+03	6.651908E-03	3.155535E-07
5.395106E+03	6.649768E-03	3.154520E-07
5.399096E+03	6.647216E-03	3.153309E-07
5.403087E+03	6.644076E-03	3.151820E-07
5.407077E+03	6.639475E-03	3.149637E-07
5.411068E+03	6.631494E-03	3.145851E-07
5.415058E+03	6.622241E-03	3.141461E-07
5.419048E+03	6.611897E-03	3.136555E-07
5.423039E+03	6.596623E-03	3.129309E-07
5.427029E+03	6.578524E-03	3.120723E-07
5.431020E+03	6.557961E-03	3.110968E-07
5.435010E+03	6.536859E-03	3.100958E-07
5.439001E+03	6.514700E-03	3.090446E-07
5.442991E+03	6.488352E-03	3.077947E-07
5.446982E+03	6.460089E-03	3.064540E-07
5.450972E+03	6.430439E-03	3.050474E-07
5.454963E+03	6.400104E-03	3.036084E-07
5.458953E+03	6.370132E-03	3.021866E-07
5.462944E+03	6.340352E-03	3.007739E-07
5.466934E+03	6.311112E-03	2.993868E-07
5.470924E+03	6.282065E-03	2.980088E-07
5.474915E+03	6.253040E-03	2.966319E-07
5.478905E+03	6.224385E-03	2.952726E-07
5.482896E+03	6.196449E-03	2.939474E-07
5.486886E+03	6.168018E-03	2.925987E-07
5.490877E+03	6.139269E-03	2.912349E-07
5.494867E+03	6.112974E-03	2.899875E-07
5.498858E+03	6.089479E-03	2.888730E-07
5.502848E+03	6.066185E-03	2.877679E-07
5.506839E+03	6.045340E-03	2.867791E-07
5.510829E+03	6.025905E-03	2.858571E-07
5.514820E+03	6.007016E-03	2.849611E-07
5.518810E+03	5.990401E-03	2.841729E-07
5.522801E+03	5.977783E-03	2.835743E-07
5.526791E+03	5.966915E-03	2.830588E-07
5.530781E+03	5.953827E-03	2.824379E-07
5.534772E+03	5.937834E-03	2.816792E-07
5.538762E+03	5.935314E-03	2.815597E-07
5.542753E+03	5.938668E-03	2.817188E-07
5.546743E+03	5.933083E-03	2.814538E-07
5.550734E+03	5.917883E-03	2.807328E-07
5.554724E+03	5.892738E-03	2.795399E-07
5.558715E+03	5.856805E-03	2.778354E-07
5.562705E+03	5.808036E-03	2.755218E-07
5.566696E+03	5.747822E-03	2.726654E-07
5.570686E+03	5.676011E-03	2.692588E-07
5.574677E+03	5.591757E-03	2.652620E-07
5.578667E+03	5.497996E-03	2.608141E-07
5.582657E+03	5.394910E-03	2.559239E-07
5.586648E+03	5.286795E-03	2.507952E-07
5.590638E+03	5.175373E-03	2.455096E-07
