#wls	flux	fluxerr
1.596185E+03	7.368909E-04	3.188323E-05
1.636090E+03	7.505914E-04	3.213803E-05
1.675994E+03	7.597797E-04	3.219216E-05
1.715899E+03	7.641517E-04	3.203972E-05
1.755804E+03	7.630841E-04	3.166200E-05
1.795708E+03	7.560289E-04	3.104435E-05
1.835613E+03	7.429735E-04	3.019459E-05
1.875518E+03	7.237482E-04	2.911397E-05
1.915422E+03	6.988657E-04	2.783084E-05
1.955327E+03	6.701531E-04	2.642414E-05
1.995231E+03	6.400725E-04	2.499431E-05
2.035136E+03	6.131708E-04	2.371844E-05
2.075041E+03	5.950728E-04	2.280826E-05
2.114945E+03	5.908394E-04	2.244661E-05
2.154850E+03	6.021739E-04	2.268412E-05
2.194755E+03	6.286183E-04	2.348940E-05
2.234659E+03	6.676840E-04	2.475758E-05
2.274564E+03	7.156966E-04	2.634426E-05
2.314468E+03	7.679027E-04	2.807036E-05
2.354373E+03	8.196326E-04	2.976458E-05
2.394278E+03	8.667514E-04	3.127910E-05
2.434182E+03	9.065329E-04	3.251994E-05
2.474087E+03	9.386258E-04	3.347945E-05
2.513992E+03	9.646740E-04	3.422044E-05
2.553896E+03	9.882749E-04	3.487288E-05
2.593801E+03	1.013983E-03	3.559740E-05
2.633705E+03	1.045335E-03	3.651569E-05
2.673610E+03	1.083291E-03	3.765761E-05
2.713515E+03	1.126584E-03	3.897531E-05
2.753419E+03	1.172024E-03	4.035567E-05
2.793324E+03	1.216692E-03	4.169690E-05
2.833229E+03	1.257608E-03	4.289695E-05
2.873133E+03	1.292756E-03	4.388847E-05
2.913038E+03	1.320296E-03	4.461122E-05
2.952942E+03	1.339246E-03	4.503519E-05
2.992847E+03	1.349087E-03	4.514647E-05
3.002823E+03	1.350212E-03	4.512886E-05
3.012799E+03	1.350653E-03	4.508814E-05
3.022776E+03	1.350612E-03	4.503120E-05
3.032752E+03	1.350008E-03	4.495533E-05
3.042728E+03	1.348886E-03	4.486215E-05
3.052704E+03	1.347393E-03	4.475656E-05
3.062680E+03	1.345424E-03	4.463515E-05
3.072656E+03	1.343068E-03	4.450091E-05
3.082633E+03	1.340229E-03	4.435070E-05
3.092609E+03	1.336999E-03	4.418765E-05
3.102585E+03	1.333379E-03	4.401178E-05
3.112561E+03	1.329370E-03	4.382327E-05
3.122537E+03	1.324980E-03	4.362234E-05
3.132513E+03	1.320127E-03	4.340640E-05
3.142489E+03	1.314998E-03	4.318165E-05
3.152466E+03	1.309517E-03	4.294559E-05
3.162442E+03	1.303699E-03	4.269877E-05
3.172418E+03	1.297643E-03	4.244453E-05
3.182394E+03	1.291285E-03	4.218078E-05
3.192370E+03	1.284728E-03	4.191090E-05
3.202346E+03	1.277992E-03	4.163561E-05
3.212323E+03	1.271104E-03	4.135578E-05
3.222299E+03	1.264014E-03	4.106984E-05
3.232275E+03	1.256907E-03	4.078380E-05
3.242251E+03	1.249813E-03	4.049868E-05
3.252227E+03	1.242693E-03	4.021321E-05
3.262203E+03	1.235663E-03	3.993110E-05
3.272179E+03	1.228692E-03	3.965140E-05
3.282156E+03	1.221969E-03	3.938022E-05
3.292132E+03	1.215476E-03	3.911687E-05
3.302108E+03	1.209334E-03	3.886531E-05
3.312084E+03	1.203538E-03	3.862527E-05
3.322060E+03	1.198283E-03	3.840299E-05
3.332036E+03	1.193572E-03	3.819849E-05
3.342013E+03	1.189480E-03	3.801411E-05
3.351989E+03	1.186210E-03	3.785626E-05
3.361965E+03	1.183777E-03	3.772533E-05
3.371941E+03	1.182265E-03	3.762386E-05
3.381917E+03	1.181875E-03	3.755812E-05
3.391893E+03	1.182621E-03	3.752839E-05
3.401870E+03	1.184568E-03	3.753667E-05
3.411846E+03	1.187943E-03	3.758991E-05
3.421822E+03	1.192657E-03	3.768514E-05
3.431798E+03	1.198823E-03	3.782574E-05
3.441774E+03	1.206351E-03	3.800872E-05
3.451750E+03	1.215351E-03	3.823731E-05
3.461726E+03	1.225698E-03	3.850747E-05
3.471703E+03	1.237477E-03	3.882162E-05
3.481679E+03	1.250677E-03	3.917929E-05
3.491655E+03	1.265555E-03	3.958832E-05
3.501631E+03	1.282149E-03	4.004966E-05
3.511607E+03	1.300627E-03	4.056839E-05
3.521583E+03	1.321006E-03	4.114472E-05
3.531560E+03	1.343307E-03	4.177908E-05
3.541536E+03	1.367391E-03	4.246688E-05
3.551512E+03	1.393179E-03	4.320540E-05
3.561488E+03	1.420435E-03	4.398713E-05
3.571464E+03	1.448895E-03	4.480367E-05
3.581440E+03	1.478402E-03	4.564998E-05
3.591417E+03	1.508682E-03	4.651752E-05
3.601393E+03	1.539658E-03	4.740374E-05
3.611369E+03	1.571275E-03	4.830688E-05
3.621345E+03	1.603579E-03	4.922823E-05
3.631321E+03	1.636571E-03	5.016775E-05
3.641297E+03	1.670299E-03	5.112675E-05
3.651273E+03	1.704684E-03	5.210273E-05
3.661250E+03	1.739851E-03	5.309938E-05
3.671226E+03	1.775632E-03	5.411149E-05
3.681202E+03	1.812069E-03	5.514020E-05
3.691178E+03	1.849028E-03	5.618130E-05
3.701154E+03	1.886530E-03	5.723538E-05
3.711130E+03	1.924479E-03	5.829942E-05
3.721107E+03	1.962717E-03	5.936854E-05
3.731083E+03	2.001299E-03	6.044436E-05
3.741059E+03	2.040111E-03	6.152332E-05
3.751035E+03	2.078970E-03	6.259989E-05
3.761011E+03	2.117793E-03	6.367156E-05
3.770987E+03	2.156547E-03	6.473724E-05
3.780963E+03	2.195011E-03	6.579034E-05
3.790940E+03	2.233117E-03	6.682885E-05
3.800916E+03	2.270611E-03	6.784515E-05
3.810892E+03	2.307384E-03	6.883607E-05
3.820868E+03	2.343191E-03	6.979440E-05
3.830844E+03	2.377767E-03	7.071234E-05
3.840820E+03	2.410873E-03	7.158295E-05
3.850797E+03	2.442250E-03	7.239875E-05
3.860773E+03	2.471616E-03	7.315161E-05
3.870749E+03	2.498566E-03	7.382978E-05
3.880725E+03	2.522845E-03	7.442612E-05
3.890701E+03	2.544090E-03	7.493032E-05
3.900677E+03	2.561998E-03	7.533382E-05
3.910654E+03	2.576283E-03	7.562872E-05
3.920630E+03	2.586577E-03	7.580478E-05
3.930606E+03	2.592710E-03	7.585755E-05
3.940582E+03	2.594446E-03	7.578081E-05
3.950558E+03	2.591609E-03	7.557003E-05
3.960534E+03	2.584227E-03	7.522674E-05
3.970510E+03	2.572141E-03	7.474695E-05
3.980487E+03	2.555411E-03	7.413314E-05
3.990463E+03	2.534211E-03	7.339106E-05
4.000439E+03	2.508693E-03	7.252578E-05
4.010415E+03	2.479040E-03	7.154329E-05
4.020391E+03	2.445692E-03	7.045689E-05
4.030367E+03	2.409032E-03	6.927816E-05
4.040344E+03	2.369476E-03	6.801962E-05
4.050320E+03	2.327687E-03	6.670072E-05
4.060296E+03	2.284229E-03	6.533796E-05
4.070272E+03	2.239813E-03	6.395195E-05
4.080248E+03	2.195167E-03	6.256360E-05
4.090224E+03	2.151136E-03	6.119702E-05
4.100201E+03	2.108523E-03	5.987498E-05
4.110177E+03	2.068154E-03	5.862066E-05
4.120153E+03	2.030933E-03	5.745932E-05
4.130129E+03	1.997662E-03	5.641318E-05
4.140105E+03	1.969271E-03	5.550782E-05
4.150081E+03	1.946516E-03	5.476382E-05
4.160057E+03	1.930304E-03	5.420571E-05
4.170034E+03	1.921404E-03	5.385408E-05
4.180010E+03	1.920685E-03	5.373207E-05
4.189986E+03	1.928794E-03	5.385648E-05
4.199962E+03	1.946297E-03	5.424167E-05
4.209938E+03	1.973314E-03	5.488952E-05
4.219914E+03	2.009553E-03	5.579042E-05
4.229891E+03	2.054303E-03	5.692317E-05
4.239867E+03	2.106270E-03	5.825070E-05
4.249843E+03	2.163733E-03	5.972431E-05
4.259819E+03	2.224484E-03	6.128235E-05
4.269795E+03	2.286154E-03	6.285917E-05
4.279771E+03	2.346254E-03	6.438636E-05
4.289748E+03	2.402306E-03	6.579630E-05
4.299724E+03	2.451859E-03	6.702271E-05
4.309700E+03	2.492787E-03	6.800865E-05
4.319676E+03	2.523226E-03	6.870481E-05
4.329652E+03	2.541687E-03	6.907240E-05
4.339628E+03	2.547274E-03	6.908907E-05
4.349604E+03	2.540131E-03	6.876087E-05
4.359581E+03	2.521506E-03	6.812349E-05
4.369557E+03	2.493896E-03	6.724615E-05
4.379533E+03	2.460924E-03	6.622779E-05
4.389509E+03	2.426939E-03	6.518613E-05
4.399485E+03	2.396674E-03	6.424817E-05
4.409461E+03	2.374735E-03	6.353658E-05
4.419438E+03	2.365328E-03	6.316238E-05
4.429414E+03	2.372107E-03	6.322097E-05
4.439390E+03	2.398156E-03	6.379187E-05
4.449366E+03	2.445557E-03	6.492739E-05
4.459342E+03	2.515856E-03	6.666516E-05
4.469318E+03	2.609765E-03	6.902055E-05
4.479294E+03	2.727203E-03	7.198778E-05
4.489271E+03	2.867339E-03	7.554139E-05
4.499247E+03	3.028410E-03	7.963159E-05
4.509223E+03	3.207882E-03	8.418869E-05
4.519199E+03	3.402339E-03	8.912048E-05
4.529175E+03	3.607410E-03	9.431038E-05
4.539151E+03	3.817722E-03	9.961661E-05
4.549128E+03	4.026802E-03	1.048698E-04
4.559104E+03	4.227139E-03	1.098749E-04
4.569080E+03	4.409760E-03	1.144004E-04
4.579056E+03	4.564768E-03	1.181927E-04
4.589032E+03	4.681764E-03	1.209873E-04
4.599008E+03	4.750652E-03	1.225293E-04
4.608985E+03	4.763149E-03	1.226128E-04
4.618961E+03	4.714443E-03	1.211226E-04
4.628937E+03	4.605024E-03	1.180804E-04
4.638913E+03	4.441426E-03	1.136626E-04
4.648889E+03	4.236179E-03	1.081973E-04
4.658865E+03	4.006283E-03	1.021242E-04
4.668841E+03	3.770603E-03	9.592696E-05
4.678818E+03	3.547139E-03	9.006341E-05
4.688794E+03	3.350718E-03	8.490751E-05
4.698770E+03	3.192127E-03	8.072793E-05
4.708746E+03	3.077740E-03	7.767989E-05
4.718722E+03	3.009676E-03	7.581008E-05
4.728698E+03	2.987125E-03	7.509113E-05
4.738675E+03	3.006848E-03	7.543486E-05
4.748651E+03	3.063508E-03	7.670125E-05
4.758627E+03	3.150111E-03	7.870994E-05
4.768603E+03	3.258958E-03	8.126441E-05
4.778579E+03	3.381971E-03	8.416022E-05
4.788555E+03	3.511232E-03	8.719857E-05
4.798532E+03	3.639627E-03	9.020224E-05
4.808508E+03	3.761250E-03	9.302526E-05
4.818484E+03	3.871659E-03	9.555907E-05
4.828460E+03	3.967992E-03	9.773486E-05
4.838436E+03	4.049083E-03	9.952620E-05
4.848412E+03	4.115431E-03	1.009477E-04
4.858388E+03	4.169283E-03	1.020565E-04
4.868365E+03	4.214191E-03	1.029415E-04
4.878341E+03	4.254353E-03	1.037064E-04
4.888317E+03	4.293886E-03	1.044520E-04
4.898293E+03	4.335474E-03	1.052438E-04
4.908269E+03	4.380186E-03	1.061073E-04
4.918245E+03	4.426637E-03	1.070086E-04
4.928222E+03	4.470731E-03	1.078488E-04
4.938198E+03	4.506271E-03	1.084791E-04
4.948174E+03	4.525709E-03	1.087195E-04
4.958150E+03	4.521456E-03	1.083907E-04
4.968126E+03	4.487575E-03	1.073543E-04
4.978102E+03	4.421499E-03	1.055534E-04
4.988078E+03	4.324777E-03	1.030299E-04
4.998055E+03	4.203191E-03	9.992576E-05
5.008031E+03	4.065723E-03	9.645779E-05
5.018007E+03	3.922916E-03	9.287794E-05
5.027983E+03	3.785284E-03	8.943536E-05
5.037959E+03	3.662048E-03	8.634669E-05
5.047935E+03	3.559914E-03	8.376765E-05
5.057912E+03	3.483122E-03	8.179471E-05
5.067888E+03	3.433444E-03	8.046582E-05
5.077864E+03	3.410027E-03	7.975719E-05
5.087840E+03	3.409973E-03	7.959755E-05
5.097816E+03	3.428858E-03	7.988070E-05
5.107792E+03	3.461019E-03	8.047245E-05
5.117769E+03	3.500320E-03	8.122875E-05
5.127745E+03	3.541072E-03	8.201706E-05
5.137721E+03	3.578724E-03	8.273214E-05
5.147697E+03	3.610838E-03	8.331831E-05
5.157673E+03	3.637155E-03	8.377051E-05
5.167649E+03	3.659624E-03	8.413446E-05
5.177625E+03	3.681943E-03	8.449568E-05
5.187602E+03	3.708704E-03	8.495954E-05
5.197578E+03	3.744087E-03	8.562130E-05
5.207554E+03	3.791805E-03	8.656492E-05
5.217530E+03	3.854477E-03	8.784886E-05
5.227506E+03	3.933072E-03	8.949382E-05
5.237482E+03	4.027151E-03	9.148836E-05
5.247459E+03	4.135310E-03	9.379940E-05
5.257435E+03	4.254823E-03	9.636414E-05
5.267411E+03	4.382171E-03	9.910239E-05
5.277387E+03	4.513222E-03	1.019206E-04
5.287363E+03	4.643215E-03	1.047117E-04
5.297339E+03	4.766935E-03	1.073589E-04
5.307316E+03	4.879358E-03	1.097504E-04
5.317292E+03	4.975794E-03	1.117824E-04
5.327268E+03	5.052647E-03	1.133761E-04
5.337244E+03	5.107987E-03	1.144903E-04
5.347220E+03	5.141711E-03	1.151247E-04
5.357196E+03	5.155800E-03	1.153255E-04
5.367172E+03	5.153982E-03	1.151776E-04
5.377149E+03	5.140609E-03	1.147794E-04
5.387125E+03	5.120719E-03	1.142440E-04
5.397101E+03	5.099087E-03	1.136784E-04
5.407077E+03	5.079378E-03	1.131645E-04
5.417053E+03	5.064417E-03	1.127651E-04
5.427029E+03	5.056199E-03	1.125245E-04
5.437006E+03	5.055152E-03	1.124522E-04
5.446982E+03	5.061114E-03	1.125442E-04
5.456958E+03	5.073791E-03	1.127940E-04
5.466934E+03	5.092504E-03	1.131864E-04
5.476910E+03	5.115947E-03	1.136922E-04
5.486886E+03	5.141975E-03	1.142639E-04
5.496862E+03	5.167326E-03	1.148290E-04
5.506839E+03	5.188085E-03	1.153005E-04
5.516815E+03	5.200518E-03	1.155951E-04
5.526791E+03	5.200821E-03	1.156281E-04
5.536767E+03	5.185693E-03	1.153257E-04
5.546743E+03	5.152300E-03	1.146242E-04
5.556719E+03	5.097826E-03	1.134602E-04
5.566696E+03	5.019859E-03	1.117788E-04
5.576672E+03	4.917594E-03	1.095610E-04
5.586648E+03	4.791729E-03	1.068208E-04
5.596624E+03	4.644836E-03	1.036138E-04
5.606600E+03	4.481311E-03	1.000367E-04
5.616576E+03	4.306903E-03	9.621630E-05
5.626553E+03	4.128090E-03	9.229608E-05
5.636529E+03	3.951262E-03	8.841803E-05
5.646505E+03	3.782166E-03	8.471030E-05
5.656481E+03	3.625944E-03	8.128795E-05
5.666457E+03	3.487115E-03	7.825259E-05
5.676433E+03	3.369563E-03	7.569210E-05
5.686409E+03	3.276771E-03	7.368582E-05
5.696386E+03	3.211985E-03	7.230823E-05
5.706362E+03	3.178217E-03	7.162900E-05
5.716338E+03	3.178041E-03	7.170839E-05
5.726314E+03	3.213225E-03	7.258884E-05
5.736290E+03	3.284186E-03	7.428263E-05
5.746266E+03	3.389807E-03	7.676744E-05
5.756243E+03	3.527322E-03	7.998354E-05
5.766219E+03	3.691759E-03	8.382096E-05
5.776195E+03	3.876232E-03	8.812568E-05
5.786171E+03	4.072419E-03	9.271021E-05
5.796147E+03	4.271334E-03	9.737091E-05
5.806123E+03	4.464105E-03	1.019057E-04
5.816100E+03	4.643111E-03	1.061398E-04
5.826076E+03	4.802196E-03	1.099312E-04
5.836052E+03	4.937532E-03	1.131901E-04
5.846028E+03	5.047226E-03	1.158708E-04
5.856004E+03	5.131014E-03	1.179647E-04
5.865980E+03	5.190308E-03	1.195016E-04
5.875956E+03	5.227368E-03	1.205311E-04
5.885933E+03	5.244958E-03	1.211147E-04
5.895909E+03	5.246022E-03	1.213183E-04
5.905885E+03	5.233276E-03	1.212030E-04
5.915861E+03	5.208755E-03	1.208145E-04
5.925837E+03	5.173850E-03	1.201837E-04
5.935813E+03	5.129556E-03	1.193327E-04
5.945790E+03	5.076581E-03	1.182767E-04
5.955766E+03	5.015643E-03	1.170316E-04
5.965742E+03	4.947848E-03	1.156222E-04
5.975718E+03	4.874861E-03	1.140868E-04
5.985694E+03	4.798537E-03	1.124680E-04
5.995670E+03	4.721220E-03	1.108207E-04
6.005647E+03	4.644694E-03	1.091863E-04
6.015623E+03	4.570592E-03	1.076036E-04
6.025599E+03	4.499957E-03	1.060973E-04
6.035575E+03	4.433114E-03	1.046752E-04
6.045551E+03	4.369983E-03	1.033360E-04
6.055527E+03	4.310556E-03	1.020798E-04
6.065503E+03	4.254590E-03	1.009011E-04
6.075480E+03	4.202345E-03	9.980648E-05
6.085456E+03	4.154136E-03	9.880381E-05
6.095432E+03	4.110310E-03	9.790169E-05
6.105408E+03	4.071347E-03	9.711207E-05
6.115384E+03	4.037290E-03	9.643642E-05
6.125360E+03	4.007751E-03	9.586595E-05
6.135337E+03	3.982020E-03	9.538411E-05
6.145313E+03	3.959421E-03	9.497507E-05
6.155289E+03	3.939160E-03	9.462005E-05
6.165265E+03	3.920554E-03	9.430285E-05
6.175241E+03	3.903000E-03	9.400914E-05
6.185217E+03	3.885952E-03	9.372584E-05
6.195193E+03	3.868488E-03	9.343070E-05
6.205170E+03	3.849276E-03	9.309152E-05
6.215146E+03	3.826492E-03	9.266397E-05
6.225122E+03	3.798060E-03	9.209734E-05
6.235098E+03	3.761994E-03	9.134291E-05
6.245074E+03	3.716576E-03	9.035820E-05
6.255050E+03	3.661186E-03	8.912726E-05
6.265027E+03	3.596355E-03	8.766214E-05
6.275003E+03	3.524194E-03	8.601346E-05
6.284979E+03	3.448401E-03	8.427101E-05
6.294955E+03	3.374392E-03	8.256701E-05
6.304931E+03	3.308806E-03	8.106433E-05
6.314907E+03	3.259142E-03	7.994771E-05
6.324884E+03	3.233150E-03	7.940907E-05
6.334860E+03	3.237865E-03	7.962355E-05
6.344836E+03	3.279535E-03	8.074784E-05
6.354812E+03	3.362891E-03	8.290198E-05
6.364788E+03	3.490537E-03	8.615397E-05
6.374764E+03	3.662594E-03	9.051084E-05
6.384740E+03	3.876603E-03	9.591574E-05
6.394717E+03	4.126612E-03	1.022250E-04
6.404693E+03	4.403280E-03	1.092101E-04
6.414669E+03	4.694452E-03	1.165716E-04
6.424645E+03	4.986102E-03	1.239622E-04
6.434621E+03	5.263982E-03	1.310272E-04
6.444597E+03	5.515654E-03	1.374555E-04
6.454574E+03	5.732097E-03	1.430197E-04
6.464550E+03	5.909595E-03	1.476238E-04
6.474526E+03	6.049618E-03	1.513009E-04
6.484502E+03	6.158750E-03	1.542124E-04
6.494478E+03	6.247714E-03	1.566242E-04
6.504454E+03	6.328543E-03	1.588365E-04
6.514431E+03	6.412114E-03	1.611215E-04
6.524407E+03	6.504397E-03	1.636296E-04
6.534383E+03	6.605288E-03	1.663587E-04
6.544359E+03	6.710054E-03	1.691901E-04
6.554335E+03	6.811764E-03	1.719488E-04
6.564311E+03	6.902830E-03	1.744428E-04
6.574287E+03	6.975875E-03	1.764842E-04
6.584264E+03	7.025391E-03	1.779318E-04
6.594240E+03	7.047930E-03	1.786961E-04
6.604216E+03	7.042491E-03	1.787493E-04
6.614192E+03	7.010674E-03	1.781297E-04
6.624168E+03	6.955343E-03	1.769078E-04
6.634144E+03	6.880120E-03	1.751740E-04
6.644121E+03	6.788529E-03	1.730165E-04
6.654097E+03	6.683996E-03	1.705214E-04
6.664073E+03	6.568995E-03	1.677510E-04
6.674049E+03	6.445496E-03	1.647548E-04
6.684025E+03	6.315393E-03	1.615808E-04
6.694001E+03	6.179656E-03	1.582534E-04
6.703977E+03	6.039457E-03	1.548024E-04
6.713954E+03	5.895714E-03	1.512512E-04
6.723930E+03	5.749276E-03	1.476213E-04
6.733906E+03	5.601004E-03	1.439349E-04
6.743882E+03	5.452495E-03	1.402332E-04
6.753858E+03	5.305068E-03	1.365502E-04
6.763834E+03	5.160481E-03	1.329315E-04
6.773811E+03	5.020723E-03	1.294288E-04
6.783787E+03	4.887110E-03	1.260763E-04
6.793763E+03	4.761253E-03	1.229163E-04
6.803739E+03	4.644280E-03	1.199785E-04
6.813715E+03	4.537167E-03	1.172888E-04
6.823691E+03	4.440484E-03	1.148625E-04
6.833668E+03	4.355132E-03	1.127237E-04
6.843644E+03	4.281535E-03	1.108839E-04
6.853620E+03	4.220162E-03	1.093561E-04
6.863596E+03	4.171625E-03	1.081567E-04
6.873572E+03	4.136178E-03	1.072928E-04
6.883548E+03	4.113731E-03	1.067628E-04
6.893524E+03	4.103844E-03	1.065557E-04
6.903501E+03	4.104883E-03	1.066296E-04
6.913477E+03	4.114465E-03	1.069228E-04
6.923453E+03	4.129212E-03	1.073479E-04
6.933429E+03	4.145123E-03	1.078009E-04
6.943405E+03	4.158149E-03	1.081765E-04
6.953381E+03	4.164974E-03	1.083882E-04
6.963358E+03	4.163333E-03	1.083769E-04
6.973334E+03	4.152497E-03	1.081235E-04
6.983310E+03	4.133139E-03	1.076454E-04
6.993286E+03	4.106685E-03	1.069796E-04
7.003262E+03	4.075080E-03	1.061766E-04
7.013238E+03	4.040506E-03	1.052935E-04
7.023215E+03	4.004907E-03	1.043808E-04
7.033191E+03	3.969822E-03	1.034788E-04
7.043167E+03	3.936445E-03	1.026187E-04
7.053143E+03	3.905343E-03	1.018154E-04
7.063119E+03	3.876685E-03	1.010733E-04
7.073095E+03	3.850357E-03	1.003897E-04
7.083071E+03	3.825630E-03	9.974564E-05
7.093048E+03	3.801801E-03	9.912278E-05
7.103024E+03	3.778125E-03	9.850182E-05
7.113000E+03	3.753879E-03	9.786400E-05
7.122976E+03	3.728708E-03	9.720015E-05
7.132952E+03	3.702694E-03	9.651249E-05
7.142928E+03	3.676371E-03	9.581506E-05
7.152905E+03	3.650514E-03	9.512816E-05
7.162881E+03	3.626127E-03	9.447800E-05
7.172857E+03	3.603850E-03	9.388134E-05
7.182833E+03	3.584204E-03	9.335182E-05
7.192809E+03	3.567549E-03	9.289885E-05
7.202785E+03	3.553986E-03	9.252512E-05
7.212762E+03	3.543274E-03	9.222435E-05
7.222738E+03	3.535239E-03	9.199209E-05
7.232714E+03	3.529213E-03	9.181097E-05
7.242690E+03	3.524525E-03	9.166358E-05
7.252666E+03	3.520261E-03	9.152622E-05
7.262642E+03	3.515469E-03	9.137420E-05
7.272618E+03	3.509185E-03	9.118255E-05
7.282595E+03	3.500476E-03	9.092724E-05
7.292571E+03	3.488780E-03	9.059376E-05
7.302547E+03	3.473761E-03	9.017360E-05
7.312523E+03	3.455366E-03	8.966555E-05
7.322499E+03	3.434013E-03	8.908065E-05
7.332475E+03	3.410493E-03	8.843964E-05
7.342452E+03	3.385971E-03	8.777281E-05
7.352428E+03	3.361677E-03	8.711223E-05
7.362404E+03	3.339017E-03	8.649440E-05
7.372380E+03	3.319189E-03	8.595043E-05
7.382356E+03	3.302893E-03	8.549843E-05
7.392332E+03	3.290448E-03	8.514667E-05
7.402308E+03	3.281725E-03	8.489183E-05
7.412285E+03	3.276007E-03	8.471539E-05
7.422261E+03	3.272321E-03	8.459221E-05
7.432237E+03	3.269323E-03	8.448765E-05
7.442213E+03	3.265582E-03	8.436485E-05
7.452189E+03	3.259380E-03	8.417955E-05
7.462165E+03	3.249262E-03	8.389438E-05
7.472142E+03	3.233656E-03	8.346897E-05
7.482118E+03	3.211517E-03	8.287658E-05
7.492094E+03	3.182141E-03	8.209925E-05
7.502070E+03	3.145223E-03	8.112939E-05
7.512046E+03	3.101065E-03	7.997493E-05
7.522022E+03	3.050535E-03	7.865846E-05
7.531999E+03	2.994812E-03	7.721049E-05
7.541975E+03	2.935628E-03	7.567576E-05
7.551951E+03	2.874978E-03	7.410570E-05
7.561927E+03	2.815085E-03	7.255767E-05
7.571903E+03	2.758152E-03	7.108835E-05
7.581879E+03	2.706384E-03	6.975466E-05
7.591855E+03	2.661421E-03	6.859879E-05
7.601832E+03	2.624628E-03	6.765597E-05
7.611808E+03	2.596862E-03	6.694837E-05
7.621784E+03	2.578630E-03	6.648921E-05
7.631760E+03	2.569836E-03	6.627618E-05
7.641736E+03	2.570191E-03	6.630208E-05
7.651712E+03	2.578872E-03	6.654598E-05
7.661689E+03	2.594895E-03	6.698286E-05
7.671665E+03	2.617010E-03	6.758084E-05
7.681641E+03	2.643848E-03	6.830495E-05
7.691617E+03	2.673810E-03	6.911425E-05
7.701593E+03	2.705383E-03	6.997008E-05
7.711569E+03	2.737015E-03	7.083256E-05
7.721546E+03	2.767243E-03	7.166413E-05
7.731522E+03	2.794793E-03	7.243199E-05
7.741498E+03	2.818412E-03	7.310376E-05
