#wls	flux	fluxerr
1.596185E+03	2.055652E-04	5.732393E-06
1.636090E+03	2.194381E-04	6.112704E-06
1.675994E+03	2.341709E-04	6.515926E-06
1.715899E+03	2.497419E-04	6.941341E-06
1.755804E+03	2.660584E-04	7.386251E-06
1.795708E+03	2.828635E-04	7.843415E-06
1.835613E+03	2.997898E-04	8.302563E-06
1.875518E+03	3.162336E-04	8.746932E-06
1.915422E+03	3.313488E-04	9.153150E-06
1.955327E+03	3.443798E-04	9.500467E-06
1.995231E+03	3.545661E-04	9.768120E-06
2.035136E+03	3.618612E-04	9.955116E-06
2.075041E+03	3.671617E-04	1.008639E-05
2.114945E+03	3.722945E-04	1.021227E-05
2.154850E+03	3.791657E-04	1.038496E-05
2.194755E+03	3.883717E-04	1.062053E-05
2.234659E+03	3.988015E-04	1.088830E-05
2.274564E+03	4.083572E-04	1.113088E-05
2.314468E+03	4.152055E-04	1.129848E-05
2.354373E+03	4.181221E-04	1.135817E-05
2.394278E+03	4.169277E-04	1.130563E-05
2.434182E+03	4.120500E-04	1.115303E-05
2.474087E+03	4.044045E-04	1.092565E-05
2.513992E+03	3.948751E-04	1.064776E-05
2.553896E+03	3.842939E-04	1.034208E-05
2.593801E+03	3.734779E-04	1.003076E-05
2.633705E+03	3.629805E-04	9.728684E-06
2.673610E+03	3.532757E-04	9.448521E-06
2.713515E+03	3.447186E-04	9.199644E-06
2.753419E+03	3.376078E-04	8.989826E-06
2.793324E+03	3.321060E-04	8.823157E-06
2.833229E+03	3.282667E-04	8.700778E-06
2.873133E+03	3.262559E-04	8.626776E-06
2.913038E+03	3.260291E-04	8.599633E-06
2.952942E+03	3.275923E-04	8.619157E-06
2.992847E+03	3.309599E-04	8.685352E-06
3.002823E+03	3.320728E-04	8.708865E-06
3.012799E+03	3.333045E-04	8.735420E-06
3.022776E+03	3.346161E-04	8.763996E-06
3.032752E+03	3.360804E-04	8.796492E-06
3.042728E+03	3.376330E-04	8.831215E-06
3.052704E+03	3.393177E-04	8.869307E-06
3.062680E+03	3.411282E-04	8.910594E-06
3.072656E+03	3.430580E-04	8.954897E-06
3.082633E+03	3.451005E-04	9.002043E-06
3.092609E+03	3.472497E-04	9.051864E-06
3.102585E+03	3.494994E-04	9.104191E-06
3.112561E+03	3.518431E-04	9.158854E-06
3.122537E+03	3.543093E-04	9.216582E-06
3.132513E+03	3.568218E-04	9.275394E-06
3.142489E+03	3.594434E-04	9.336912E-06
3.152466E+03	3.621671E-04	9.400950E-06
3.162442E+03	3.649512E-04	9.466418E-06
3.172418E+03	3.677885E-04	9.533127E-06
3.182394E+03	3.707055E-04	9.601761E-06
3.192370E+03	3.736604E-04	9.671229E-06
3.202346E+03	3.766790E-04	9.742196E-06
3.212323E+03	3.797527E-04	9.814438E-06
3.222299E+03	3.828726E-04	9.887720E-06
3.232275E+03	3.859961E-04	9.960936E-06
3.242251E+03	3.891475E-04	1.003471E-05
3.252227E+03	3.923504E-04	1.010966E-05
3.262203E+03	3.955282E-04	1.018380E-05
3.272179E+03	3.987373E-04	1.025858E-05
3.282156E+03	4.019012E-04	1.033203E-05
3.292132E+03	4.050755E-04	1.040558E-05
3.302108E+03	4.082166E-04	1.047812E-05
3.312084E+03	4.113465E-04	1.055021E-05
3.322060E+03	4.144220E-04	1.062073E-05
3.332036E+03	4.174649E-04	1.069026E-05
3.342013E+03	4.204327E-04	1.075770E-05
3.351989E+03	4.233789E-04	1.082442E-05
3.361965E+03	4.261981E-04	1.088774E-05
3.371941E+03	4.289760E-04	1.094985E-05
3.381917E+03	4.316713E-04	1.100969E-05
3.391893E+03	4.342754E-04	1.106705E-05
3.401870E+03	4.367800E-04	1.112173E-05
3.411846E+03	4.392082E-04	1.117432E-05
3.421822E+03	4.415221E-04	1.122386E-05
3.431798E+03	4.437158E-04	1.127020E-05
3.441774E+03	4.458138E-04	1.131398E-05
3.451750E+03	4.477817E-04	1.135432E-05
3.461726E+03	4.496745E-04	1.139263E-05
3.471703E+03	4.514305E-04	1.142736E-05
3.481679E+03	4.530772E-04	1.145920E-05
3.491655E+03	4.546137E-04	1.148814E-05
3.501631E+03	4.560682E-04	1.151489E-05
3.511607E+03	4.574138E-04	1.153879E-05
3.521583E+03	4.586537E-04	1.155992E-05
3.531560E+03	4.598187E-04	1.157906E-05
3.541536E+03	4.608873E-04	1.159568E-05
3.551512E+03	4.619188E-04	1.161128E-05
3.561488E+03	4.628686E-04	1.162473E-05
3.571464E+03	4.637720E-04	1.163692E-05
3.581440E+03	4.646397E-04	1.164814E-05
3.591417E+03	4.655085E-04	1.165930E-05
3.601393E+03	4.663664E-04	1.167010E-05
3.611369E+03	4.672282E-04	1.168091E-05
3.621345E+03	4.681575E-04	1.169332E-05
3.631321E+03	4.691228E-04	1.170654E-05
3.641297E+03	4.701423E-04	1.172102E-05
3.651273E+03	4.712813E-04	1.173839E-05
3.661250E+03	4.725583E-04	1.175908E-05
3.671226E+03	4.739483E-04	1.178248E-05
3.681202E+03	4.755172E-04	1.181021E-05
3.691178E+03	4.772641E-04	1.184224E-05
3.701154E+03	4.792541E-04	1.188016E-05
3.711130E+03	4.814659E-04	1.192343E-05
3.721107E+03	4.839435E-04	1.197312E-05
3.731083E+03	4.867089E-04	1.202976E-05
3.741059E+03	4.897845E-04	1.209388E-05
3.751035E+03	4.932122E-04	1.216649E-05
3.761011E+03	4.969929E-04	1.224758E-05
3.770987E+03	5.011669E-04	1.233811E-05
3.780963E+03	5.057525E-04	1.243852E-05
3.790940E+03	5.107469E-04	1.254869E-05
3.800916E+03	5.162030E-04	1.266990E-05
3.810892E+03	5.220925E-04	1.280142E-05
3.820868E+03	5.284604E-04	1.294430E-05
3.830844E+03	5.353081E-04	1.309856E-05
3.840820E+03	5.426118E-04	1.326356E-05
3.850797E+03	5.503604E-04	1.343901E-05
3.860773E+03	5.585533E-04	1.362485E-05
3.870749E+03	5.671801E-04	1.382079E-05
3.880725E+03	5.761624E-04	1.402489E-05
3.890701E+03	5.854667E-04	1.423630E-05
3.900677E+03	5.950283E-04	1.445343E-05
3.910654E+03	6.047708E-04	1.467439E-05
3.920630E+03	6.146261E-04	1.489752E-05
3.930606E+03	6.244810E-04	1.512008E-05
3.940582E+03	6.342360E-04	1.533964E-05
3.950558E+03	6.438056E-04	1.555415E-05
3.960534E+03	6.530827E-04	1.576104E-05
3.970510E+03	6.619384E-04	1.595722E-05
3.980487E+03	6.702595E-04	1.614000E-05
3.990463E+03	6.779489E-04	1.630708E-05
4.000439E+03	6.848905E-04	1.645571E-05
4.010415E+03	6.909720E-04	1.658327E-05
4.020391E+03	6.960734E-04	1.668695E-05
4.030367E+03	7.001098E-04	1.676478E-05
4.040344E+03	7.030371E-04	1.681581E-05
4.050320E+03	7.048228E-04	1.683933E-05
4.060296E+03	7.054506E-04	1.683507E-05
4.070272E+03	7.049572E-04	1.680398E-05
4.080248E+03	7.034298E-04	1.674824E-05
4.090224E+03	7.009383E-04	1.666959E-05
4.100201E+03	6.976440E-04	1.657196E-05
4.110177E+03	6.936660E-04	1.645822E-05
4.120153E+03	6.891852E-04	1.633272E-05
4.130129E+03	6.843609E-04	1.619929E-05
4.140105E+03	6.793857E-04	1.606251E-05
4.150081E+03	6.744074E-04	1.592587E-05
4.160057E+03	6.696095E-04	1.579371E-05
4.170034E+03	6.651357E-04	1.566940E-05
4.180010E+03	6.611253E-04	1.555619E-05
4.189986E+03	6.576939E-04	1.545677E-05
4.199962E+03	6.549158E-04	1.537282E-05
4.209938E+03	6.528345E-04	1.530531E-05
4.219914E+03	6.514856E-04	1.525502E-05
4.229891E+03	6.508380E-04	1.522116E-05
4.239867E+03	6.508694E-04	1.520315E-05
4.249843E+03	6.515008E-04	1.519908E-05
4.259819E+03	6.526601E-04	1.520722E-05
4.269795E+03	6.542554E-04	1.522540E-05
4.279771E+03	6.561931E-04	1.525139E-05
4.289748E+03	6.583861E-04	1.528314E-05
4.299724E+03	6.607811E-04	1.531941E-05
4.309700E+03	6.632996E-04	1.535834E-05
4.319676E+03	6.659065E-04	1.539912E-05
4.329652E+03	6.686108E-04	1.544196E-05
4.339628E+03	6.713924E-04	1.548637E-05
4.349604E+03	6.743051E-04	1.553359E-05
4.359581E+03	6.773921E-04	1.558460E-05
4.369557E+03	6.807150E-04	1.564080E-05
4.379533E+03	6.843636E-04	1.570423E-05
4.389509E+03	6.884725E-04	1.577795E-05
4.399485E+03	6.932039E-04	1.586563E-05
4.409461E+03	6.987277E-04	1.597109E-05
4.419438E+03	7.051810E-04	1.609740E-05
4.429414E+03	7.127174E-04	1.624796E-05
4.439390E+03	7.214195E-04	1.642457E-05
4.449366E+03	7.313707E-04	1.662900E-05
4.459342E+03	7.425882E-04	1.686154E-05
4.469318E+03	7.550567E-04	1.712172E-05
4.479294E+03	7.686819E-04	1.740730E-05
4.489271E+03	7.833244E-04	1.771500E-05
4.499247E+03	7.987754E-04	1.804002E-05
4.509223E+03	8.147339E-04	1.837549E-05
4.519199E+03	8.308595E-04	1.871370E-05
4.529175E+03	8.467314E-04	1.904517E-05
4.539151E+03	8.618699E-04	1.935913E-05
4.549128E+03	8.758013E-04	1.964503E-05
4.559104E+03	8.880344E-04	1.989199E-05
4.569080E+03	8.981104E-04	2.008987E-05
4.579056E+03	9.056573E-04	2.023059E-05
4.589032E+03	9.103603E-04	2.030735E-05
4.599008E+03	9.120709E-04	2.031711E-05
4.608985E+03	9.107589E-04	2.025948E-05
4.618961E+03	9.065518E-04	2.013756E-05
4.628937E+03	8.996960E-04	1.995711E-05
4.638913E+03	8.905902E-04	1.972719E-05
4.648889E+03	8.796963E-04	1.945825E-05
4.658865E+03	8.675465E-04	1.916221E-05
4.668841E+03	8.547165E-04	1.885189E-05
4.678818E+03	8.417291E-04	1.853886E-05
4.688794E+03	8.290903E-04	1.823428E-05
4.698770E+03	8.172247E-04	1.794744E-05
4.708746E+03	8.064474E-04	1.768517E-05
4.718722E+03	7.970009E-04	1.745270E-05
4.728698E+03	7.890029E-04	1.725246E-05
4.738675E+03	7.825018E-04	1.708537E-05
4.748651E+03	7.774531E-04	1.695033E-05
4.758627E+03	7.737705E-04	1.684532E-05
4.768603E+03	7.713330E-04	1.676758E-05
4.778579E+03	7.699680E-04	1.671324E-05
4.788555E+03	7.695282E-04	1.667900E-05
4.798532E+03	7.698662E-04	1.666160E-05
4.808508E+03	7.708558E-04	1.665823E-05
4.818484E+03	7.723998E-04	1.666673E-05
4.828460E+03	7.744417E-04	1.668582E-05
4.838436E+03	7.769411E-04	1.671460E-05
4.848412E+03	7.799041E-04	1.675315E-05
4.858388E+03	7.833456E-04	1.680175E-05
4.868365E+03	7.873056E-04	1.686120E-05
4.878341E+03	7.918122E-04	1.693205E-05
4.888317E+03	7.969086E-04	1.701519E-05
4.898293E+03	8.025862E-04	1.711036E-05
4.908269E+03	8.088105E-04	1.721678E-05
4.918245E+03	8.154817E-04	1.733228E-05
4.928222E+03	8.224362E-04	1.745333E-05
4.938198E+03	8.294587E-04	1.757535E-05
4.948174E+03	8.362726E-04	1.769249E-05
4.958150E+03	8.425932E-04	1.779874E-05
4.968126E+03	8.481295E-04	1.788803E-05
4.978102E+03	8.526591E-04	1.795574E-05
4.988078E+03	8.560120E-04	1.799840E-05
4.998055E+03	8.581256E-04	1.801482E-05
5.008031E+03	8.590641E-04	1.800645E-05
5.018007E+03	8.589859E-04	1.797674E-05
5.027983E+03	8.581637E-04	1.793149E-05
5.037959E+03	8.569375E-04	1.787785E-05
5.047935E+03	8.556558E-04	1.782314E-05
5.057912E+03	8.547024E-04	1.777534E-05
5.067888E+03	8.544043E-04	1.774121E-05
5.077864E+03	8.550543E-04	1.772675E-05
5.087840E+03	8.568604E-04	1.773619E-05
5.097816E+03	8.599749E-04	1.777255E-05
5.107792E+03	8.644683E-04	1.783717E-05
5.117769E+03	8.703121E-04	1.792933E-05
5.127745E+03	8.774402E-04	1.804753E-05
5.137721E+03	8.857001E-04	1.818853E-05
5.147697E+03	8.949081E-04	1.834844E-05
5.157673E+03	9.048673E-04	1.852315E-05
5.167649E+03	9.153643E-04	1.870821E-05
5.177625E+03	9.262221E-04	1.889999E-05
5.187602E+03	9.372795E-04	1.909514E-05
5.197578E+03	9.484337E-04	1.929158E-05
5.207554E+03	9.596090E-04	1.948775E-05
5.217530E+03	9.707494E-04	1.968253E-05
5.227506E+03	9.818329E-04	1.987547E-05
5.237482E+03	9.928296E-04	2.006597E-05
5.247459E+03	1.003688E-03	2.025302E-05
5.257435E+03	1.014347E-03	2.043540E-05
5.267411E+03	1.024733E-03	2.061164E-05
5.277387E+03	1.034737E-03	2.077962E-05
5.287363E+03	1.044223E-03	2.093661E-05
5.297339E+03	1.053059E-03	2.108004E-05
5.307316E+03	1.061117E-03	2.120741E-05
5.317292E+03	1.068290E-03	2.131669E-05
5.327268E+03	1.074506E-03	2.140652E-05
5.337244E+03	1.079742E-03	2.147653E-05
5.347220E+03	1.084011E-03	2.152709E-05
5.357196E+03	1.087403E-03	2.156007E-05
5.367172E+03	1.090030E-03	2.157777E-05
5.377149E+03	1.092055E-03	2.158349E-05
5.387125E+03	1.093659E-03	2.158090E-05
5.397101E+03	1.095033E-03	2.157374E-05
5.407077E+03	1.096384E-03	2.156617E-05
5.417053E+03	1.097892E-03	2.156170E-05
5.427029E+03	1.099734E-03	2.156378E-05
5.437006E+03	1.102052E-03	2.157519E-05
5.446982E+03	1.104977E-03	2.159842E-05
5.456958E+03	1.108584E-03	2.163493E-05
5.466934E+03	1.112931E-03	2.168576E-05
5.476910E+03	1.118003E-03	2.175054E-05
5.486886E+03	1.123621E-03	2.182577E-05
5.496862E+03	1.129231E-03	2.190063E-05
5.506839E+03	1.134126E-03	2.196144E-05
5.516815E+03	1.137574E-03	2.199413E-05
5.526791E+03	1.138860E-03	2.198504E-05
5.536767E+03	1.137292E-03	2.192099E-05
5.546743E+03	1.132242E-03	2.179015E-05
5.556719E+03	1.123191E-03	2.158288E-05
5.566696E+03	1.109731E-03	2.129168E-05
5.576672E+03	1.091589E-03	2.091172E-05
5.586648E+03	1.068697E-03	2.044208E-05
5.596624E+03	1.041146E-03	1.988491E-05
5.606600E+03	1.009244E-03	1.924651E-05
5.616576E+03	9.735392E-04	1.853765E-05
5.626553E+03	9.347593E-04	1.777249E-05
5.636529E+03	8.938566E-04	1.696936E-05
5.646505E+03	8.519840E-04	1.615028E-05
5.656481E+03	8.103562E-04	1.533830E-05
5.666457E+03	7.702779E-04	1.455805E-05
5.676433E+03	7.330332E-04	1.383363E-05
5.686409E+03	6.998110E-04	1.318717E-05
5.696386E+03	6.716583E-04	1.263803E-05
5.706362E+03	6.494817E-04	1.220282E-05
5.716338E+03	6.340290E-04	1.189506E-05
5.726314E+03	6.259154E-04	1.172571E-05
5.736290E+03	6.256458E-04	1.170362E-05
5.746266E+03	6.336674E-04	1.183650E-05
5.756243E+03	6.503391E-04	1.213037E-05
5.766219E+03	6.759318E-04	1.258958E-05
5.776195E+03	7.106076E-04	1.321645E-05
5.786171E+03	7.543099E-04	1.400920E-05
5.796147E+03	8.066904E-04	1.496067E-05
5.806123E+03	8.669985E-04	1.605630E-05
5.816100E+03	9.340015E-04	1.727268E-05
5.826076E+03	1.005895E-03	1.857600E-05
5.836052E+03	1.080380E-03	1.992351E-05
5.846028E+03	1.154689E-03	2.126407E-05
5.856004E+03	1.225851E-03	2.254309E-05
5.865980E+03	1.290848E-03	2.370542E-05
5.875956E+03	1.346971E-03	2.470189E-05
5.885933E+03	1.392032E-03	2.549311E-05
5.895909E+03	1.424571E-03	2.605326E-05
5.905885E+03	1.443947E-03	2.637159E-05
5.915861E+03	1.450379E-03	2.645307E-05
5.925837E+03	1.444850E-03	2.631660E-05
5.935813E+03	1.428910E-03	2.599124E-05
5.945790E+03	1.404510E-03	2.551319E-05
5.955766E+03	1.373760E-03	2.492136E-05
5.965742E+03	1.338781E-03	2.425459E-05
5.975718E+03	1.301491E-03	2.354791E-05
5.985694E+03	1.263556E-03	2.283156E-05
5.995670E+03	1.226329E-03	2.212997E-05
6.005647E+03	1.190831E-03	2.146149E-05
6.015623E+03	1.157811E-03	2.083949E-05
6.025599E+03	1.127732E-03	2.027205E-05
6.035575E+03	1.100878E-03	1.976411E-05
6.045551E+03	1.077348E-03	1.931717E-05
6.055527E+03	1.057153E-03	1.893120E-05
6.065503E+03	1.040215E-03	1.860460E-05
6.075480E+03	1.026383E-03	1.833441E-05
6.085456E+03	1.015532E-03	1.811821E-05
6.095432E+03	1.007496E-03	1.795283E-05
6.105408E+03	1.002120E-03	1.783534E-05
6.115384E+03	9.992661E-04	1.776310E-05
6.125360E+03	9.987859E-04	1.773332E-05
6.135337E+03	1.000519E-03	1.774302E-05
6.145313E+03	1.004281E-03	1.778877E-05
6.155289E+03	1.009851E-03	1.786655E-05
6.165265E+03	1.016960E-03	1.797152E-05
6.175241E+03	1.025228E-03	1.809688E-05
6.185217E+03	1.034214E-03	1.823477E-05
6.195193E+03	1.043377E-03	1.837565E-05
6.205170E+03	1.052080E-03	1.850831E-05
6.215146E+03	1.059598E-03	1.862003E-05
6.225122E+03	1.065174E-03	1.869762E-05
6.235098E+03	1.068065E-03	1.872817E-05
6.245074E+03	1.067607E-03	1.870020E-05
6.255050E+03	1.063323E-03	1.860554E-05
6.265027E+03	1.055041E-03	1.844142E-05
6.275003E+03	1.042933E-03	1.821106E-05
6.284979E+03	1.027569E-03	1.792458E-05
6.294955E+03	1.009942E-03	1.759948E-05
6.304931E+03	9.913801E-04	1.725897E-05
6.314907E+03	9.734311E-04	1.693002E-05
6.324884E+03	9.577220E-04	1.664084E-05
6.334860E+03	9.458155E-04	1.641845E-05
6.344836E+03	9.390967E-04	1.628668E-05
6.354812E+03	9.386364E-04	1.626383E-05
6.364788E+03	9.451545E-04	1.636206E-05
6.374764E+03	9.589293E-04	1.658587E-05
6.384740E+03	9.798301E-04	1.693270E-05
6.394717E+03	1.007205E-03	1.739099E-05
6.404693E+03	1.039978E-03	1.794189E-05
6.414669E+03	1.076613E-03	1.855877E-05
6.424645E+03	1.115273E-03	1.920983E-05
6.434621E+03	1.153938E-03	1.986029E-05
6.444597E+03	1.190620E-03	2.047597E-05
6.454574E+03	1.223529E-03	2.102624E-05
6.464550E+03	1.251354E-03	2.148879E-05
6.474526E+03	1.273430E-03	2.185240E-05
6.484502E+03	1.289787E-03	2.211784E-05
6.494478E+03	1.301267E-03	2.229977E-05
6.504454E+03	1.309349E-03	2.242367E-05
6.514431E+03	1.316113E-03	2.252528E-05
6.524407E+03	1.323027E-03	2.262975E-05
6.534383E+03	1.330508E-03	2.274420E-05
6.544359E+03	1.338974E-03	2.287574E-05
6.554335E+03	1.348836E-03	2.303139E-05
6.564311E+03	1.360468E-03	2.321748E-05
6.574287E+03	1.374041E-03	2.343688E-05
6.584264E+03	1.389487E-03	2.368838E-05
6.594240E+03	1.406423E-03	2.396540E-05
6.604216E+03	1.424143E-03	2.425594E-05
6.614192E+03	1.441689E-03	2.454361E-05
6.624168E+03	1.457835E-03	2.480762E-05
6.634144E+03	1.471276E-03	2.502577E-05
6.644121E+03	1.480681E-03	2.517550E-05
6.654097E+03	1.484853E-03	2.523657E-05
6.664073E+03	1.482793E-03	2.519209E-05
6.674049E+03	1.473858E-03	2.503126E-05
6.684025E+03	1.457735E-03	2.474885E-05
6.694001E+03	1.434483E-03	2.434602E-05
6.703977E+03	1.404495E-03	2.382950E-05
6.713954E+03	1.368506E-03	2.321185E-05
6.723930E+03	1.327433E-03	2.250868E-05
6.733906E+03	1.282317E-03	2.173765E-05
6.743882E+03	1.234297E-03	2.091813E-05
6.753858E+03	1.184451E-03	2.006835E-05
6.763834E+03	1.133857E-03	1.920658E-05
6.773811E+03	1.083476E-03	1.834905E-05
6.783787E+03	1.034195E-03	1.751074E-05
6.793763E+03	9.867918E-04	1.670479E-05
6.803739E+03	9.419555E-04	1.594279E-05
6.813715E+03	9.002776E-04	1.523470E-05
6.823691E+03	8.623118E-04	1.458983E-05
6.833668E+03	8.285164E-04	1.401589E-05
6.843644E+03	7.993124E-04	1.351993E-05
6.853620E+03	7.750813E-04	1.310835E-05
6.863596E+03	7.561825E-04	1.278720E-05
6.873572E+03	7.429326E-04	1.256176E-05
6.883548E+03	7.356442E-04	1.243729E-05
6.893524E+03	7.345844E-04	1.241827E-05
6.903501E+03	7.399998E-04	1.250883E-05
6.913477E+03	7.520598E-04	1.271181E-05
6.923453E+03	7.708592E-04	1.302880E-05
6.933429E+03	7.963366E-04	1.345874E-05
6.943405E+03	8.282677E-04	1.399784E-05
6.953381E+03	8.661887E-04	1.463826E-05
6.963358E+03	9.093489E-04	1.536732E-05
6.973334E+03	9.567179E-04	1.616762E-05
6.983310E+03	1.006956E-03	1.701653E-05
6.993286E+03	1.058454E-03	1.788688E-05
7.003262E+03	1.109439E-03	1.874876E-05
7.013238E+03	1.158100E-03	1.957153E-05
7.023215E+03	1.202706E-03	2.032599E-05
7.033191E+03	1.241726E-03	2.098626E-05
7.043167E+03	1.274065E-03	2.153383E-05
7.053143E+03	1.298975E-03	2.195609E-05
7.063119E+03	1.316291E-03	2.225018E-05
7.073095E+03	1.326289E-03	2.242081E-05
7.083071E+03	1.329721E-03	2.248061E-05
7.093048E+03	1.327703E-03	2.244848E-05
7.103024E+03	1.321621E-03	2.234778E-05
7.113000E+03	1.312980E-03	2.220397E-05
7.122976E+03	1.303365E-03	2.204383E-05
7.132952E+03	1.294207E-03	2.189154E-05
7.142928E+03	1.286822E-03	2.176938E-05
7.152905E+03	1.282260E-03	2.169512E-05
7.162881E+03	1.281411E-03	2.168384E-05
7.172857E+03	1.284807E-03	2.174456E-05
7.182833E+03	1.292778E-03	2.188291E-05
7.192809E+03	1.305372E-03	2.209973E-05
7.202785E+03	1.322335E-03	2.239077E-05
7.212762E+03	1.343154E-03	2.274740E-05
7.222738E+03	1.366978E-03	2.315523E-05
7.232714E+03	1.392665E-03	2.359494E-05
7.242690E+03	1.418776E-03	2.404222E-05
7.252666E+03	1.443620E-03	2.446837E-05
7.262642E+03	1.465372E-03	2.484249E-05
7.272618E+03	1.482198E-03	2.513344E-05
7.282595E+03	1.492403E-03	2.531240E-05
7.292571E+03	1.494643E-03	2.535655E-05
7.302547E+03	1.488049E-03	2.525100E-05
7.312523E+03	1.472276E-03	2.498979E-05
7.322499E+03	1.447633E-03	2.457806E-05
7.332475E+03	1.414857E-03	2.402819E-05
7.342452E+03	1.375143E-03	2.336033E-05
7.352428E+03	1.329936E-03	2.259897E-05
7.362404E+03	1.280756E-03	2.176980E-05
7.372380E+03	1.229140E-03	2.089890E-05
7.382356E+03	1.176449E-03	2.000934E-05
7.392332E+03	1.123884E-03	1.912153E-05
7.402308E+03	1.072394E-03	1.825159E-05
7.412285E+03	1.022729E-03	1.741232E-05
7.422261E+03	9.754331E-04	1.661294E-05
7.432237E+03	9.308753E-04	1.585981E-05
7.442213E+03	8.892632E-04	1.515647E-05
7.452189E+03	8.507157E-04	1.450501E-05
7.462165E+03	8.152401E-04	1.390557E-05
7.472142E+03	7.828169E-04	1.335788E-05
7.482118E+03	7.534064E-04	1.286131E-05
7.492094E+03	7.269233E-04	1.241445E-05
7.502070E+03	7.032961E-04	1.201613E-05
7.512046E+03	6.824425E-04	1.166499E-05
7.522022E+03	6.642987E-04	1.136000E-05
7.531999E+03	6.487752E-04	1.109969E-05
7.541975E+03	6.358023E-04	1.088290E-05
7.551951E+03	6.253028E-04	1.070839E-05
7.561927E+03	6.172096E-04	1.057506E-05
7.571903E+03	6.114428E-04	1.048159E-05
7.581879E+03	6.079438E-04	1.042704E-05
7.591855E+03	6.066491E-04	1.041039E-05
7.601832E+03	6.074955E-04	1.043061E-05
7.611808E+03	6.104135E-04	1.048656E-05
7.621784E+03	6.153365E-04	1.057718E-05
7.631760E+03	6.221367E-04	1.070032E-05
7.641736E+03	6.307080E-04	1.085422E-05
7.651712E+03	6.408755E-04	1.103594E-05
7.661689E+03	6.524191E-04	1.124174E-05
7.671665E+03	6.650912E-04	1.146740E-05
7.681641E+03	6.785495E-04	1.170709E-05
7.691617E+03	6.924279E-04	1.195450E-05
7.701593E+03	7.062801E-04	1.220197E-05
7.711569E+03	7.196279E-04	1.244123E-05
7.721546E+03	7.319845E-04	1.266386E-05
7.731522E+03	7.428435E-04	1.286107E-05
7.741498E+03	7.517811E-04	1.302548E-05
