#wls	flux	fluxerr
1.596185E+03	1.094798E-04	3.927529E-06
1.636090E+03	1.159054E-04	4.153533E-06
1.675994E+03	1.224230E-04	4.382204E-06
1.715899E+03	1.289614E-04	4.610962E-06
1.755804E+03	1.354471E-04	4.837153E-06
1.795708E+03	1.416767E-04	5.053505E-06
1.835613E+03	1.474951E-04	5.254504E-06
1.875518E+03	1.526109E-04	5.429806E-06
1.915422E+03	1.568102E-04	5.571894E-06
1.955327E+03	1.598607E-04	5.672629E-06
1.995231E+03	1.616390E-04	5.727790E-06
2.035136E+03	1.623478E-04	5.744724E-06
2.075041E+03	1.626555E-04	5.747206E-06
2.114945E+03	1.635442E-04	5.769939E-06
2.154850E+03	1.660089E-04	5.847880E-06
2.194755E+03	1.704500E-04	5.994832E-06
2.234659E+03	1.765081E-04	6.197825E-06
2.274564E+03	1.833187E-04	6.426250E-06
2.314468E+03	1.900379E-04	6.650405E-06
2.354373E+03	1.960613E-04	6.849161E-06
2.394278E+03	2.009824E-04	7.008442E-06
2.434182E+03	2.047477E-04	7.126561E-06
2.474087E+03	2.073556E-04	7.203665E-06
2.513992E+03	2.089155E-04	7.243760E-06
2.553896E+03	2.095740E-04	7.252117E-06
2.593801E+03	2.095211E-04	7.235477E-06
2.633705E+03	2.089117E-04	7.199325E-06
2.673610E+03	2.078589E-04	7.147670E-06
2.713515E+03	2.065238E-04	7.086132E-06
2.753419E+03	2.050193E-04	7.018646E-06
2.793324E+03	2.034407E-04	6.948510E-06
2.833229E+03	2.018383E-04	6.877457E-06
2.873133E+03	2.003329E-04	6.809606E-06
2.913038E+03	1.989436E-04	6.745580E-06
2.952942E+03	1.976783E-04	6.685624E-06
2.992847E+03	1.966430E-04	6.633281E-06
3.002823E+03	1.964075E-04	6.620955E-06
3.012799E+03	1.961791E-04	6.608855E-06
3.022776E+03	1.959580E-04	6.596987E-06
3.032752E+03	1.957724E-04	6.586301E-06
3.042728E+03	1.956020E-04	6.576111E-06
3.052704E+03	1.954530E-04	6.566624E-06
3.062680E+03	1.953232E-04	6.557768E-06
3.072656E+03	1.952368E-04	6.550348E-06
3.082633E+03	1.951659E-04	6.543429E-06
3.092609E+03	1.951089E-04	6.536957E-06
3.102585E+03	1.950644E-04	6.530884E-06
3.112561E+03	1.950313E-04	6.525170E-06
3.122537E+03	1.950339E-04	6.520629E-06
3.132513E+03	1.950458E-04	6.516372E-06
3.142489E+03	1.950659E-04	6.512367E-06
3.152466E+03	1.950935E-04	6.508588E-06
3.162442E+03	1.951283E-04	6.505021E-06
3.172418E+03	1.951945E-04	6.502479E-06
3.182394E+03	1.952665E-04	6.500103E-06
3.192370E+03	1.953442E-04	6.497886E-06
3.202346E+03	1.954272E-04	6.495820E-06
3.212323E+03	1.955400E-04	6.494717E-06
3.222299E+03	1.956578E-04	6.493750E-06
3.232275E+03	1.957806E-04	6.492917E-06
3.242251E+03	1.959082E-04	6.492215E-06
3.252227E+03	1.960656E-04	6.492467E-06
3.262203E+03	1.962035E-04	6.492045E-06
3.272179E+03	1.963715E-04	6.492583E-06
3.282156E+03	1.965452E-04	6.493279E-06
3.292132E+03	1.967493E-04	6.494946E-06
3.302108E+03	1.969356E-04	6.495992E-06
3.312084E+03	1.971533E-04	6.498035E-06
3.322060E+03	1.973785E-04	6.500293E-06
3.332036E+03	1.976119E-04	6.502782E-06
3.342013E+03	1.978781E-04	6.506316E-06
3.351989E+03	1.981540E-04	6.510126E-06
3.361965E+03	1.984401E-04	6.514236E-06
3.371941E+03	1.987376E-04	6.518676E-06
3.381917E+03	1.990472E-04	6.523474E-06
3.391893E+03	1.993936E-04	6.529437E-06
3.401870E+03	1.997305E-04	6.535042E-06
3.411846E+03	2.001299E-04	6.542650E-06
3.421822E+03	2.005220E-04	6.549971E-06
3.431798E+03	2.009317E-04	6.557820E-06
3.441774E+03	2.013836E-04	6.567000E-06
3.451750E+03	2.018557E-04	6.576784E-06
3.461726E+03	2.023491E-04	6.587212E-06
3.471703E+03	2.028654E-04	6.598332E-06
3.481679E+03	2.034293E-04	6.610947E-06
3.491655E+03	2.040191E-04	6.624343E-06
3.501631E+03	2.046362E-04	6.638566E-06
3.511607E+03	2.052822E-04	6.653664E-06
3.521583E+03	2.059587E-04	6.669689E-06
3.531560E+03	2.066909E-04	6.687451E-06
3.541536E+03	2.074571E-04	6.706244E-06
3.551512E+03	2.082590E-04	6.726119E-06
3.561488E+03	2.090984E-04	6.747134E-06
3.571464E+03	2.099772E-04	6.769342E-06
3.581440E+03	2.109207E-04	6.793557E-06
3.591417E+03	2.119073E-04	6.819077E-06
3.601393E+03	2.129391E-04	6.845964E-06
3.611369E+03	2.140178E-04	6.874272E-06
3.621345E+03	2.151456E-04	6.904064E-06
3.631321E+03	2.163479E-04	6.936147E-06
3.641297E+03	2.176031E-04	6.969830E-06
3.651273E+03	2.189133E-04	7.005169E-06
3.661250E+03	2.202807E-04	7.042228E-06
3.671226E+03	2.217070E-04	7.081059E-06
3.681202E+03	2.232181E-04	7.122482E-06
3.691178E+03	2.247923E-04	7.165798E-06
3.701154E+03	2.264317E-04	7.211061E-06
3.711130E+03	2.281380E-04	7.258328E-06
3.721107E+03	2.299135E-04	7.307657E-06
3.731083E+03	2.317598E-04	7.359097E-06
3.741059E+03	2.337032E-04	7.413472E-06
3.751035E+03	2.357215E-04	7.470072E-06
3.761011E+03	2.378165E-04	7.528942E-06
3.770987E+03	2.399897E-04	7.590127E-06
3.780963E+03	2.422431E-04	7.653677E-06
3.790940E+03	2.445783E-04	7.719635E-06
3.800916E+03	2.470220E-04	7.788835E-06
3.810892E+03	2.495255E-04	7.859732E-06
3.820868E+03	2.521407E-04	7.933954E-06
3.830844E+03	2.548440E-04	8.010744E-06
3.840820E+03	2.576364E-04	8.090128E-06
3.850797E+03	2.605194E-04	8.172140E-06
3.860773E+03	2.635200E-04	8.257619E-06
3.870749E+03	2.665873E-04	8.344955E-06
3.880725E+03	2.697745E-04	8.435810E-06
3.890701E+03	2.730296E-04	8.528542E-06
3.900677E+03	2.764067E-04	8.624831E-06
3.910654E+03	2.798795E-04	8.723848E-06
3.920630E+03	2.834485E-04	8.825595E-06
3.930606E+03	2.871139E-04	8.930069E-06
3.940582E+03	2.908758E-04	9.037261E-06
3.950558E+03	2.947341E-04	9.147157E-06
3.960534E+03	2.987170E-04	9.260624E-06
3.970510E+03	3.027673E-04	9.375869E-06
3.980487E+03	3.069123E-04	9.493737E-06
3.990463E+03	3.111807E-04	9.615098E-06
4.000439E+03	3.155424E-04	9.739011E-06
4.010415E+03	3.199659E-04	9.864494E-06
4.020391E+03	3.245089E-04	9.993320E-06
4.030367E+03	3.291400E-04	1.012450E-05
4.040344E+03	3.338565E-04	1.025795E-05
4.050320E+03	3.386554E-04	1.039356E-05
4.060296E+03	3.435020E-04	1.053027E-05
4.070272E+03	3.484551E-04	1.066986E-05
4.080248E+03	3.534794E-04	1.081124E-05
4.090224E+03	3.585699E-04	1.095425E-05
4.100201E+03	3.637214E-04	1.109872E-05
4.110177E+03	3.689274E-04	1.124445E-05
4.120153E+03	3.741814E-04	1.139124E-05
4.130129E+03	3.794758E-04	1.153884E-05
4.140105E+03	3.848021E-04	1.168699E-05
4.150081E+03	3.901514E-04	1.183542E-05
4.160057E+03	3.955136E-04	1.198382E-05
4.170034E+03	4.008776E-04	1.213184E-05
4.180010E+03	4.062316E-04	1.227914E-05
4.189986E+03	4.115626E-04	1.242531E-05
4.199962E+03	4.168567E-04	1.256995E-05
4.209938E+03	4.220989E-04	1.271260E-05
4.219914E+03	4.272362E-04	1.285167E-05
4.229891E+03	4.323255E-04	1.298888E-05
4.239867E+03	4.373119E-04	1.312259E-05
4.249843E+03	4.421386E-04	1.325110E-05
4.259819E+03	4.468615E-04	1.337612E-05
4.269795E+03	4.513839E-04	1.349475E-05
4.279771E+03	4.557615E-04	1.360868E-05
4.289748E+03	4.598955E-04	1.371499E-05
4.299724E+03	4.638024E-04	1.381419E-05
4.309700E+03	4.674605E-04	1.390565E-05
4.319676E+03	4.708482E-04	1.398877E-05
4.329652E+03	4.739444E-04	1.406295E-05
4.339628E+03	4.767294E-04	1.412763E-05
4.349604E+03	4.791444E-04	1.418112E-05
4.359581E+03	4.812529E-04	1.422533E-05
4.369557E+03	4.829616E-04	1.425754E-05
4.379533E+03	4.843014E-04	1.427872E-05
4.389509E+03	4.852691E-04	1.428879E-05
4.399485E+03	4.858672E-04	1.428790E-05
4.409461E+03	4.861030E-04	1.427628E-05
4.419438E+03	4.859476E-04	1.425314E-05
4.429414E+03	4.854929E-04	1.422121E-05
4.439390E+03	4.846755E-04	1.417867E-05
4.449366E+03	4.835516E-04	1.412721E-05
4.459342E+03	4.821388E-04	1.406737E-05
4.469318E+03	4.804563E-04	1.399975E-05
4.479294E+03	4.784852E-04	1.392383E-05
4.489271E+03	4.763220E-04	1.384244E-05
4.499247E+03	4.739108E-04	1.375400E-05
4.509223E+03	4.713101E-04	1.366022E-05
4.519199E+03	4.685397E-04	1.356170E-05
4.529175E+03	4.655828E-04	1.345797E-05
4.539151E+03	4.624963E-04	1.335070E-05
4.549128E+03	4.592991E-04	1.324045E-05
4.559104E+03	4.560096E-04	1.312777E-05
4.569080E+03	4.526458E-04	1.301318E-05
4.579056E+03	4.491901E-04	1.289619E-05
4.589032E+03	4.456948E-04	1.277830E-05
4.599008E+03	4.421757E-04	1.265998E-05
4.608985E+03	4.386481E-04	1.254167E-05
4.618961E+03	4.350931E-04	1.242283E-05
4.628937E+03	4.315916E-04	1.230577E-05
4.638913E+03	4.280904E-04	1.218897E-05
4.648889E+03	4.246028E-04	1.207281E-05
4.658865E+03	4.212055E-04	1.195947E-05
4.668841E+03	4.178452E-04	1.184742E-05
4.678818E+03	4.145644E-04	1.173787E-05
4.688794E+03	4.113419E-04	1.163020E-05
4.698770E+03	4.082183E-04	1.152557E-05
4.708746E+03	4.052018E-04	1.142418E-05
4.718722E+03	4.023003E-04	1.132625E-05
4.728698E+03	3.995210E-04	1.123197E-05
4.738675E+03	3.968409E-04	1.114068E-05
4.748651E+03	3.942965E-04	1.105338E-05
4.758627E+03	3.918640E-04	1.096941E-05
4.768603E+03	3.895784E-04	1.088972E-05
4.778579E+03	3.874441E-04	1.081443E-05
4.788555E+03	3.854656E-04	1.074363E-05
4.798532E+03	3.836185E-04	1.067663E-05
4.808508E+03	3.819348E-04	1.061430E-05
4.818484E+03	3.804178E-04	1.055673E-05
4.828460E+03	3.790703E-04	1.050396E-05
4.838436E+03	3.778672E-04	1.045528E-05
4.848412E+03	3.768388E-04	1.041151E-05
4.858388E+03	3.759597E-04	1.037193E-05
4.868365E+03	3.752593E-04	1.033734E-05
4.878341E+03	3.747391E-04	1.030775E-05
4.888317E+03	3.744004E-04	1.028317E-05
4.898293E+03	3.742176E-04	1.026289E-05
4.908269E+03	3.742189E-04	1.024766E-05
4.918245E+03	3.743781E-04	1.023674E-05
4.928222E+03	3.747500E-04	1.023160E-05
4.938198E+03	3.752546E-04	1.023004E-05
4.948174E+03	3.759729E-04	1.023425E-05
4.958150E+03	3.768517E-04	1.024276E-05
4.968126E+03	3.779179E-04	1.025629E-05
4.978102E+03	3.791719E-04	1.027480E-05
4.988078E+03	3.805866E-04	1.029757E-05
4.998055E+03	3.821888E-04	1.032528E-05
5.008031E+03	3.839783E-04	1.035791E-05
5.018007E+03	3.859276E-04	1.039469E-05
5.027983E+03	3.880630E-04	1.043633E-05
5.037959E+03	3.903564E-04	1.048203E-05
5.047935E+03	3.928615E-04	1.053323E-05
5.057912E+03	3.955222E-04	1.058838E-05
5.067888E+03	3.983366E-04	1.064744E-05
5.077864E+03	4.013586E-04	1.071181E-05
5.087840E+03	4.045300E-04	1.077992E-05
5.097816E+03	4.078480E-04	1.085168E-05
5.107792E+03	4.113377E-04	1.092774E-05
5.117769E+03	4.149958E-04	1.100799E-05
5.127745E+03	4.188184E-04	1.109232E-05
5.137721E+03	4.227721E-04	1.117981E-05
5.147697E+03	4.268806E-04	1.127108E-05
5.157673E+03	4.311383E-04	1.136597E-05
5.167649E+03	4.355087E-04	1.146350E-05
5.177625E+03	4.400146E-04	1.156425E-05
5.187602E+03	4.446478E-04	1.166799E-05
5.197578E+03	4.493685E-04	1.177368E-05
5.207554E+03	4.541976E-04	1.188184E-05
5.217530E+03	4.591239E-04	1.199218E-05
5.227506E+03	4.641040E-04	1.210355E-05
5.237482E+03	4.691558E-04	1.221642E-05
5.247459E+03	4.742651E-04	1.233041E-05
5.257435E+03	4.794165E-04	1.244511E-05
5.267411E+03	4.845599E-04	1.255923E-05
5.277387E+03	4.896764E-04	1.267228E-05
5.287363E+03	4.948127E-04	1.278548E-05
5.297339E+03	4.998810E-04	1.289655E-05
5.307316E+03	5.048923E-04	1.300579E-05
5.317292E+03	5.097882E-04	1.311172E-05
5.327268E+03	5.146129E-04	1.321548E-05
5.337244E+03	5.192705E-04	1.331463E-05
5.347220E+03	5.237332E-04	1.340847E-05
5.357196E+03	5.280432E-04	1.349812E-05
5.367172E+03	5.321006E-04	1.358105E-05
5.377149E+03	5.358752E-04	1.365651E-05
5.387125E+03	5.394097E-04	1.372563E-05
5.397101E+03	5.426018E-04	1.378585E-05
5.407077E+03	5.454592E-04	1.383740E-05
5.417053E+03	5.479170E-04	1.387868E-05
5.427029E+03	5.499860E-04	1.391002E-05
5.437006E+03	5.516423E-04	1.393085E-05
5.446982E+03	5.528649E-04	1.394071E-05
5.456958E+03	5.536370E-04	1.393921E-05
5.466934E+03	5.539090E-04	1.392517E-05
5.476910E+03	5.536753E-04	1.389850E-05
5.486886E+03	5.530131E-04	1.386120E-05
5.496862E+03	5.518596E-04	1.381175E-05
5.506839E+03	5.502714E-04	1.375161E-05
5.516815E+03	5.482734E-04	1.368146E-05
5.526791E+03	5.458949E-04	1.360206E-05
5.536767E+03	5.431315E-04	1.351336E-05
5.546743E+03	5.400544E-04	1.341715E-05
5.556719E+03	5.366630E-04	1.331346E-05
5.566696E+03	5.330661E-04	1.320501E-05
5.576672E+03	5.292282E-04	1.309094E-05
5.586648E+03	5.252210E-04	1.297306E-05
5.596624E+03	5.210798E-04	1.285224E-05
5.606600E+03	5.168037E-04	1.272848E-05
5.616576E+03	5.124602E-04	1.260345E-05
5.626553E+03	5.080800E-04	1.247790E-05
5.636529E+03	5.036919E-04	1.235255E-05
5.646505E+03	4.992890E-04	1.222723E-05
5.656481E+03	4.949300E-04	1.210336E-05
5.666457E+03	4.906376E-04	1.198150E-05
5.676433E+03	4.864319E-04	1.186213E-05
5.686409E+03	4.823313E-04	1.174569E-05
5.696386E+03	4.783200E-04	1.163177E-05
5.706362E+03	4.744446E-04	1.152150E-05
5.716338E+03	4.707176E-04	1.141517E-05
5.726314E+03	4.671184E-04	1.131226E-05
5.736290E+03	4.637181E-04	1.121448E-05
5.746266E+03	4.604621E-04	1.112048E-05
5.756243E+03	4.573872E-04	1.103114E-05
5.766219E+03	4.544978E-04	1.094655E-05
5.776195E+03	4.517669E-04	1.086603E-05
5.786171E+03	4.492573E-04	1.079108E-05
5.796147E+03	4.469099E-04	1.072026E-05
5.806123E+03	4.447554E-04	1.065428E-05
5.816100E+03	4.427636E-04	1.059242E-05
5.826076E+03	4.409931E-04	1.053604E-05
5.836052E+03	4.393835E-04	1.048368E-05
5.846028E+03	4.379624E-04	1.043599E-05
5.856004E+03	4.367280E-04	1.039291E-05
5.865980E+03	4.356781E-04	1.035437E-05
5.875956E+03	4.348105E-04	1.032030E-05
5.885933E+03	4.340940E-04	1.028993E-05
5.895909E+03	4.335845E-04	1.026459E-05
5.905885E+03	4.332223E-04	1.024284E-05
5.915861E+03	4.330345E-04	1.022531E-05
5.925837E+03	4.329908E-04	1.021126E-05
5.935813E+03	4.331477E-04	1.020203E-05
5.945790E+03	4.334465E-04	1.019620E-05
5.955766E+03	4.339447E-04	1.019512E-05
5.965742E+03	4.345841E-04	1.019741E-05
5.975718E+03	4.353939E-04	1.020373E-05
5.985694E+03	4.363453E-04	1.021341E-05
5.995670E+03	4.374974E-04	1.022781E-05
6.005647E+03	4.388224E-04	1.024627E-05
6.015623E+03	4.402922E-04	1.026811E-05
6.025599E+03	4.419377E-04	1.029406E-05
6.035575E+03	4.437608E-04	1.032414E-05
6.045551E+03	4.457637E-04	1.035838E-05
6.055527E+03	4.479483E-04	1.039683E-05
6.065503E+03	4.503171E-04	1.043952E-05
6.075480E+03	4.528418E-04	1.048579E-05
6.085456E+03	4.555546E-04	1.053638E-05
6.095432E+03	4.584887E-04	1.059203E-05
6.105408E+03	4.615843E-04	1.065136E-05
6.115384E+03	4.648740E-04	1.071511E-05
6.125360E+03	4.683592E-04	1.078329E-05
6.135337E+03	4.720408E-04	1.085592E-05
6.145313E+03	4.758878E-04	1.093228E-05
6.155289E+03	4.799638E-04	1.101381E-05
6.165265E+03	4.842042E-04	1.109902E-05
6.175241E+03	4.886399E-04	1.118861E-05
6.185217E+03	4.933021E-04	1.128329E-05
6.195193E+03	4.981222E-04	1.138148E-05
6.205170E+03	5.031293E-04	1.148383E-05
6.215146E+03	5.083188E-04	1.159024E-05
6.225122E+03	5.136849E-04	1.170056E-05
6.235098E+03	5.191855E-04	1.181383E-05
6.245074E+03	5.248817E-04	1.193144E-05
6.255050E+03	5.306933E-04	1.205156E-05
6.265027E+03	5.366799E-04	1.217554E-05
6.275003E+03	5.427563E-04	1.230145E-05
6.284979E+03	5.489431E-04	1.242975E-05
6.294955E+03	5.552609E-04	1.256091E-05
6.304931E+03	5.616161E-04	1.269282E-05
6.314907E+03	5.680244E-04	1.282583E-05
6.324884E+03	5.744626E-04	1.295943E-05
6.334860E+03	5.808656E-04	1.309216E-05
6.344836E+03	5.872836E-04	1.322515E-05
6.354812E+03	5.936478E-04	1.335687E-05
6.364788E+03	5.998846E-04	1.348569E-05
6.374764E+03	6.060405E-04	1.361264E-05
6.384740E+03	6.119970E-04	1.373511E-05
6.394717E+03	6.177984E-04	1.385408E-05
6.404693E+03	6.233211E-04	1.396682E-05
6.414669E+03	6.286080E-04	1.407431E-05
6.424645E+03	6.335320E-04	1.417373E-05
6.434621E+03	6.380929E-04	1.426509E-05
6.444597E+03	6.422483E-04	1.434748E-05
6.454574E+03	6.459569E-04	1.442001E-05
6.464550E+03	6.491786E-04	1.448180E-05
6.474526E+03	6.518756E-04	1.453206E-05
6.484502E+03	6.540136E-04	1.457003E-05
6.494478E+03	6.555621E-04	1.459507E-05
6.504454E+03	6.564518E-04	1.460567E-05
6.514431E+03	6.567549E-04	1.460344E-05
6.524407E+03	6.564183E-04	1.458724E-05
6.534383E+03	6.553986E-04	1.455612E-05
6.544359E+03	6.537951E-04	1.451230E-05
6.554335E+03	6.515794E-04	1.445518E-05
6.564311E+03	6.487283E-04	1.438425E-05
6.574287E+03	6.453572E-04	1.430208E-05
6.584264E+03	6.414072E-04	1.420738E-05
6.594240E+03	6.369558E-04	1.410189E-05
6.604216E+03	6.320817E-04	1.398735E-05
6.614192E+03	6.267353E-04	1.386266E-05
6.624168E+03	6.209986E-04	1.372965E-05
6.634144E+03	6.149111E-04	1.358919E-05
6.644121E+03	6.085541E-04	1.344308E-05
6.654097E+03	6.018830E-04	1.329033E-05
6.664073E+03	5.949794E-04	1.313274E-05
6.674049E+03	5.878812E-04	1.297115E-05
6.684025E+03	5.806259E-04	1.280638E-05
6.694001E+03	5.732493E-04	1.263921E-05
6.703977E+03	5.657859E-04	1.247040E-05
6.713954E+03	5.582684E-04	1.230066E-05
6.723930E+03	5.507276E-04	1.213066E-05
6.733906E+03	5.431927E-04	1.196103E-05
6.743882E+03	5.356535E-04	1.179155E-05
6.753858E+03	5.282101E-04	1.162440E-05
6.763834E+03	5.208477E-04	1.145926E-05
6.773811E+03	5.135872E-04	1.129657E-05
6.783787E+03	5.064477E-04	1.113675E-05
6.793763E+03	4.994111E-04	1.097938E-05
6.803739E+03	4.925627E-04	1.082634E-05
6.813715E+03	4.858800E-04	1.067711E-05
6.823691E+03	4.793409E-04	1.053121E-05
6.833668E+03	4.730220E-04	1.039031E-05
6.843644E+03	4.668646E-04	1.025311E-05
6.853620E+03	4.609401E-04	1.012117E-05
6.863596E+03	4.551884E-04	9.993165E-06
6.873572E+03	4.496766E-04	9.870561E-06
6.883548E+03	4.443430E-04	9.751994E-06
6.893524E+03	4.392506E-04	9.638840E-06
6.903501E+03	4.343367E-04	9.529720E-06
6.913477E+03	4.296306E-04	9.425270E-06
6.923453E+03	4.251594E-04	9.326076E-06
6.933429E+03	4.208593E-04	9.230737E-06
6.943405E+03	4.167560E-04	9.139810E-06
6.953381E+03	4.128444E-04	9.053176E-06
6.963358E+03	4.091184E-04	8.970704E-06
6.973334E+03	4.056006E-04	8.892879E-06
6.983310E+03	4.022267E-04	8.818290E-06
6.993286E+03	3.990184E-04	8.747408E-06
7.003262E+03	3.959683E-04	8.680070E-06
7.013238E+03	3.930688E-04	8.616107E-06
7.023215E+03	3.903121E-04	8.555344E-06
7.033191E+03	3.876905E-04	8.497609E-06
7.043167E+03	3.851962E-04	8.442730E-06
7.053143E+03	3.827942E-04	8.389939E-06
7.063119E+03	3.805312E-04	8.340256E-06
7.073095E+03	3.783724E-04	8.292919E-06
7.083071E+03	3.763107E-04	8.247768E-06
7.093048E+03	3.743123E-04	8.204063E-06
7.103024E+03	3.724238E-04	8.162822E-06
7.113000E+03	3.706119E-04	8.123319E-06
7.122976E+03	3.688445E-04	8.084845E-06
7.132952E+03	3.671687E-04	8.048431E-06
7.142928E+03	3.655263E-04	8.012806E-06
7.152905E+03	3.639391E-04	7.978444E-06
7.162881E+03	3.624288E-04	7.945817E-06
7.172857E+03	3.609394E-04	7.913704E-06
7.182833E+03	3.594938E-04	7.882601E-06
7.192809E+03	3.580892E-04	7.852446E-06
7.202785E+03	3.567233E-04	7.823192E-06
7.212762E+03	3.554200E-04	7.795364E-06
7.222738E+03	3.541018E-04	7.767257E-06
7.232714E+03	3.528447E-04	7.740542E-06
7.242690E+03	3.516232E-04	7.714657E-06
7.252666E+03	3.504382E-04	7.689624E-06
7.262642E+03	3.492908E-04	7.665466E-06
7.272618E+03	3.481829E-04	7.642226E-06
7.282595E+03	3.470919E-04	7.619406E-06
7.292571E+03	3.460709E-04	7.598176E-06
7.302547E+03	3.450732E-04	7.577511E-06
7.312523E+03	3.441281E-04	7.558050E-06
7.322499E+03	3.432649E-04	7.540443E-06
7.332475E+03	3.424388E-04	7.523704E-06
7.342452E+03	3.416802E-04	7.508503E-06
7.352428E+03	3.409948E-04	7.494966E-06
7.362404E+03	3.403888E-04	7.483232E-06
7.372380E+03	3.398688E-04	7.473446E-06
7.382356E+03	3.394414E-04	7.465757E-06
7.392332E+03	3.391137E-04	7.460323E-06
7.402308E+03	3.388684E-04	7.456765E-06
7.412285E+03	3.387621E-04	7.456331E-06
7.422261E+03	3.387778E-04	7.458650E-06
7.432237E+03	3.388981E-04	7.463344E-06
7.442213E+03	3.391554E-04	7.471129E-06
7.452189E+03	3.395572E-04	7.482173E-06
7.462165E+03	3.401360E-04	7.497199E-06
7.472142E+03	3.408494E-04	7.515276E-06
7.482118E+03	3.417296E-04	7.537118E-06
7.492094E+03	3.427584E-04	7.562331E-06
7.502070E+03	3.439931E-04	7.592184E-06
7.512046E+03	3.454152E-04	7.626277E-06
7.522022E+03	3.470054E-04	7.664189E-06
7.531999E+03	3.488208E-04	7.707190E-06
7.541975E+03	3.508157E-04	7.754276E-06
7.551951E+03	3.530210E-04	7.806142E-06
7.561927E+03	3.554413E-04	7.862897E-06
7.571903E+03	3.580811E-04	7.924649E-06
7.581879E+03	3.609443E-04	7.991494E-06
7.591855E+03	3.640339E-04	8.063513E-06
7.601832E+03	3.673526E-04	8.140775E-06
7.611808E+03	3.708749E-04	8.222726E-06
7.621784E+03	3.746291E-04	8.310003E-06
7.631760E+03	3.786438E-04	8.403261E-06
7.641736E+03	3.828626E-04	8.501255E-06
7.651712E+03	3.873124E-04	8.604598E-06
7.661689E+03	3.919907E-04	8.713252E-06
7.671665E+03	3.968946E-04	8.827165E-06
7.681641E+03	4.019901E-04	8.945593E-06
7.691617E+03	4.073312E-04	9.069759E-06
7.701593E+03	4.128508E-04	9.198184E-06
7.711569E+03	4.186030E-04	9.332085E-06
7.721546E+03	4.245156E-04	9.469877E-06
7.731522E+03	4.306094E-04	9.612035E-06
7.741498E+03	4.368720E-04	9.758303E-06
