#wls	flux	fluxerr
1.596185E+03	7.084519E-05	2.689429E-06
1.636090E+03	7.443359E-05	2.822477E-06
1.675994E+03	7.801531E-05	2.954876E-06
1.715899E+03	8.153574E-05	3.084546E-06
1.755804E+03	8.495513E-05	3.209978E-06
1.795708E+03	8.818677E-05	3.327900E-06
1.835613E+03	9.110584E-05	3.433620E-06
1.875518E+03	9.359918E-05	3.522911E-06
1.915422E+03	9.551376E-05	3.590072E-06
1.955327E+03	9.675131E-05	3.631494E-06
1.995231E+03	9.728163E-05	3.646144E-06
2.035136E+03	9.725183E-05	3.639638E-06
2.075041E+03	9.704748E-05	3.626473E-06
2.114945E+03	9.729647E-05	3.630104E-06
2.154850E+03	9.857822E-05	3.672032E-06
2.194755E+03	1.011336E-04	3.761019E-06
2.234659E+03	1.047391E-04	3.888523E-06
2.274564E+03	1.089451E-04	4.037655E-06
2.314468E+03	1.132082E-04	4.188177E-06
2.354373E+03	1.171723E-04	4.326904E-06
2.394278E+03	1.206478E-04	4.446886E-06
2.434182E+03	1.235144E-04	4.543775E-06
2.474087E+03	1.257912E-04	4.618386E-06
2.513992E+03	1.275221E-04	4.672441E-06
2.553896E+03	1.287715E-04	4.708402E-06
2.593801E+03	1.296114E-04	4.728996E-06
2.633705E+03	1.301139E-04	4.736937E-06
2.673610E+03	1.303479E-04	4.734802E-06
2.713515E+03	1.303978E-04	4.725711E-06
2.753419E+03	1.302801E-04	4.710304E-06
2.793324E+03	1.300677E-04	4.691243E-06
2.833229E+03	1.298264E-04	4.670926E-06
2.873133E+03	1.295557E-04	4.649340E-06
2.913038E+03	1.293308E-04	4.629181E-06
2.952942E+03	1.291618E-04	4.610795E-06
2.992847E+03	1.290748E-04	4.595093E-06
3.002823E+03	1.290606E-04	4.591397E-06
3.012799E+03	1.290718E-04	4.588588E-06
3.022776E+03	1.290694E-04	4.585276E-06
3.032752E+03	1.290940E-04	4.582909E-06
3.042728E+03	1.291304E-04	4.580940E-06
3.052704E+03	1.291635E-04	4.578836E-06
3.062680E+03	1.292310E-04	4.577933E-06
3.072656E+03	1.293126E-04	4.577505E-06
3.082633E+03	1.294073E-04	4.577523E-06
3.092609E+03	1.295145E-04	4.577956E-06
3.102585E+03	1.296333E-04	4.578779E-06
3.112561E+03	1.297634E-04	4.579975E-06
3.122537E+03	1.299042E-04	4.581529E-06
3.132513E+03	1.300748E-04	4.584105E-06
3.142489E+03	1.302362E-04	4.586328E-06
3.152466E+03	1.304268E-04	4.589556E-06
3.162442E+03	1.306079E-04	4.592419E-06
3.172418E+03	1.308180E-04	4.596275E-06
3.182394E+03	1.310185E-04	4.599764E-06
3.192370E+03	1.312479E-04	4.604240E-06
3.202346E+03	1.314873E-04	4.609033E-06
3.212323E+03	1.317365E-04	4.614141E-06
3.222299E+03	1.319766E-04	4.618896E-06
3.232275E+03	1.322465E-04	4.624662E-06
3.242251E+03	1.325269E-04	4.630764E-06
3.252227E+03	1.328377E-04	4.637893E-06
3.262203E+03	1.331405E-04	4.644705E-06
3.272179E+03	1.334550E-04	4.651891E-06
3.282156E+03	1.337816E-04	4.659461E-06
3.292132E+03	1.341210E-04	4.667438E-06
3.302108E+03	1.344927E-04	4.676502E-06
3.312084E+03	1.348588E-04	4.685329E-06
3.322060E+03	1.352583E-04	4.695279E-06
3.332036E+03	1.356533E-04	4.705027E-06
3.342013E+03	1.360831E-04	4.715941E-06
3.351989E+03	1.365289E-04	4.727365E-06
3.361965E+03	1.369914E-04	4.739319E-06
3.371941E+03	1.374517E-04	4.751152E-06
3.381917E+03	1.379496E-04	4.764238E-06
3.391893E+03	1.384665E-04	4.777927E-06
3.401870E+03	1.390029E-04	4.792239E-06
3.411846E+03	1.395597E-04	4.807205E-06
3.421822E+03	1.401377E-04	4.822842E-06
3.431798E+03	1.407378E-04	4.839186E-06
3.441774E+03	1.413807E-04	4.856944E-06
3.451750E+03	1.420276E-04	4.874778E-06
3.461726E+03	1.426991E-04	4.893397E-06
3.471703E+03	1.434164E-04	4.913521E-06
3.481679E+03	1.441401E-04	4.933804E-06
3.491655E+03	1.449117E-04	4.955655E-06
3.501631E+03	1.456916E-04	4.977721E-06
3.511607E+03	1.465215E-04	5.001425E-06
3.521583E+03	1.473617E-04	5.025406E-06
3.531560E+03	1.482541E-04	5.051090E-06
3.541536E+03	1.491793E-04	5.077813E-06
3.551512E+03	1.501178E-04	5.104907E-06
3.561488E+03	1.511121E-04	5.133816E-06
3.571464E+03	1.521425E-04	5.163865E-06
3.581440E+03	1.532104E-04	5.195094E-06
3.591417E+03	1.543168E-04	5.227535E-06
3.601393E+03	1.554630E-04	5.261229E-06
3.611369E+03	1.566500E-04	5.296207E-06
3.621345E+03	1.578792E-04	5.332507E-06
3.631321E+03	1.591517E-04	5.370164E-06
3.641297E+03	1.604687E-04	5.409214E-06
3.651273E+03	1.618533E-04	5.450431E-06
3.661250E+03	1.632634E-04	5.492385E-06
3.671226E+03	1.647215E-04	5.535837E-06
3.681202E+03	1.662291E-04	5.580829E-06
3.691178E+03	1.678100E-04	5.628151E-06
3.701154E+03	1.694205E-04	5.676333E-06
3.711130E+03	1.710841E-04	5.726158E-06
3.721107E+03	1.728252E-04	5.778433E-06
3.731083E+03	1.745988E-04	5.831652E-06
3.741059E+03	1.764528E-04	5.887401E-06
3.751035E+03	1.783413E-04	5.944148E-06
3.761011E+03	1.803126E-04	6.003497E-06
3.770987E+03	1.823205E-04	6.063895E-06
3.780963E+03	1.844139E-04	6.126968E-06
3.790940E+03	1.865700E-04	6.191946E-06
3.800916E+03	1.887650E-04	6.258034E-06
3.810892E+03	1.910491E-04	6.326889E-06
3.820868E+03	1.933735E-04	6.396888E-06
3.830844E+03	1.957892E-04	6.469710E-06
3.840820E+03	1.982721E-04	6.544547E-06
3.850797E+03	2.008228E-04	6.621412E-06
3.860773E+03	2.034154E-04	6.699443E-06
3.870749E+03	2.061031E-04	6.780387E-06
3.880725E+03	2.088601E-04	6.863380E-06
3.890701E+03	2.116866E-04	6.948425E-06
3.900677E+03	2.145552E-04	7.034611E-06
3.910654E+03	2.175210E-04	7.123739E-06
3.920630E+03	2.205564E-04	7.214892E-06
3.930606E+03	2.236612E-04	7.308059E-06
3.940582E+03	2.268350E-04	7.403213E-06
3.950558E+03	2.300478E-04	7.499369E-06
3.960534E+03	2.333571E-04	7.598394E-06
3.970510E+03	2.367330E-04	7.699304E-06
3.980487E+03	2.401741E-04	7.802043E-06
3.990463E+03	2.436790E-04	7.906559E-06
4.000439E+03	2.472146E-04	8.011771E-06
4.010415E+03	2.508412E-04	8.119623E-06
4.020391E+03	2.545256E-04	8.229033E-06
4.030367E+03	2.582651E-04	8.339905E-06
4.040344E+03	2.620568E-04	8.452138E-06
4.050320E+03	2.658643E-04	8.564549E-06
4.060296E+03	2.697501E-04	8.679152E-06
4.070272E+03	2.736774E-04	8.794747E-06
4.080248E+03	2.776418E-04	8.911193E-06
4.090224E+03	2.816036E-04	9.027208E-06
4.100201E+03	2.856273E-04	9.144856E-06
4.110177E+03	2.896728E-04	9.262849E-06
4.120153E+03	2.936977E-04	9.379828E-06
4.130129E+03	2.977679E-04	9.497896E-06
4.140105E+03	3.018408E-04	9.615689E-06
4.150081E+03	3.058713E-04	9.731772E-06
4.160057E+03	3.099268E-04	9.848287E-06
4.170034E+03	3.139233E-04	9.962567E-06
4.180010E+03	3.179290E-04	1.007678E-05
4.189986E+03	3.218575E-04	1.018819E-05
4.199962E+03	3.257779E-04	1.029899E-05
4.209938E+03	3.296014E-04	1.040637E-05
4.219914E+03	3.333980E-04	1.051255E-05
4.229891E+03	3.370769E-04	1.061468E-05
4.239867E+03	3.406678E-04	1.071371E-05
4.249843E+03	3.442018E-04	1.081062E-05
4.259819E+03	3.475853E-04	1.090247E-05
4.269795E+03	3.508490E-04	1.099026E-05
4.279771E+03	3.539822E-04	1.107366E-05
4.289748E+03	3.569744E-04	1.115236E-05
4.299724E+03	3.598153E-04	1.122606E-05
4.309700E+03	3.624952E-04	1.129446E-05
4.319676E+03	3.650045E-04	1.135730E-05
4.329652E+03	3.673343E-04	1.141431E-05
4.339628E+03	3.694765E-04	1.146527E-05
4.349604E+03	3.714237E-04	1.150998E-05
4.359581E+03	3.731696E-04	1.154826E-05
4.369557E+03	3.747093E-04	1.157999E-05
4.379533E+03	3.759944E-04	1.160369E-05
4.389509E+03	3.771124E-04	1.162211E-05
4.399485E+03	3.779744E-04	1.163251E-05
4.409461E+03	3.786714E-04	1.163775E-05
4.419438E+03	3.791172E-04	1.163518E-05
4.429414E+03	3.794056E-04	1.162773E-05
4.439390E+03	3.794528E-04	1.161283E-05
4.449366E+03	3.793097E-04	1.159209E-05
4.459342E+03	3.790278E-04	1.156709E-05
4.469318E+03	3.785263E-04	1.153540E-05
4.479294E+03	3.778581E-04	1.149864E-05
4.489271E+03	3.770323E-04	1.145713E-05
4.499247E+03	3.760583E-04	1.141116E-05
4.509223E+03	3.749459E-04	1.136106E-05
4.519199E+03	3.736620E-04	1.130583E-05
4.529175E+03	3.723034E-04	1.124843E-05
4.539151E+03	3.708372E-04	1.118788E-05
4.549128E+03	3.692310E-04	1.112320E-05
4.559104E+03	3.675807E-04	1.105732E-05
4.569080E+03	3.658117E-04	1.098799E-05
4.579056E+03	3.640185E-04	1.091806E-05
4.589032E+03	3.621273E-04	1.084533E-05
4.599008E+03	3.601901E-04	1.077137E-05
4.608985E+03	3.582164E-04	1.069646E-05
4.618961E+03	3.562155E-04	1.062089E-05
4.628937E+03	3.541965E-04	1.054494E-05
4.638913E+03	3.521681E-04	1.046886E-05
4.648889E+03	3.501387E-04	1.039291E-05
4.658865E+03	3.480769E-04	1.031616E-05
4.668841E+03	3.460697E-04	1.024118E-05
4.678818E+03	3.440848E-04	1.016702E-05
4.688794E+03	3.420903E-04	1.009274E-05
4.698770E+03	3.401323E-04	1.001969E-05
4.708746E+03	3.382554E-04	9.949177E-06
4.718722E+03	3.363886E-04	9.879115E-06
4.728698E+03	3.345762E-04	9.810794E-06
4.738675E+03	3.328234E-04	9.744362E-06
4.748651E+03	3.311353E-04	9.679963E-06
4.758627E+03	3.295163E-04	9.617718E-06
4.768603E+03	3.279342E-04	9.556674E-06
4.778579E+03	3.264665E-04	9.499089E-06
4.788555E+03	3.250803E-04	9.443987E-06
4.798532E+03	3.237427E-04	9.390405E-06
4.808508E+03	3.224933E-04	9.339487E-06
4.818484E+03	3.213710E-04	9.292342E-06
4.828460E+03	3.203067E-04	9.246959E-06
4.838436E+03	3.193387E-04	9.204438E-06
4.848412E+03	3.184693E-04	9.164830E-06
4.858388E+03	3.177005E-04	9.128178E-06
4.868365E+03	3.170339E-04	9.094520E-06
4.878341E+03	3.164362E-04	9.062885E-06
4.888317E+03	3.159789E-04	9.035311E-06
4.898293E+03	3.155933E-04	9.009817E-06
4.908269E+03	3.153501E-04	8.988408E-06
4.918245E+03	3.151805E-04	8.969110E-06
4.928222E+03	3.151201E-04	8.952921E-06
4.938198E+03	3.151694E-04	8.939843E-06
4.948174E+03	3.153285E-04	8.929867E-06
4.958150E+03	3.155977E-04	8.922983E-06
4.968126E+03	3.159770E-04	8.919180E-06
4.978102E+03	3.164662E-04	8.918436E-06
4.988078E+03	3.170302E-04	8.919750E-06
4.998055E+03	3.177380E-04	8.925049E-06
5.008031E+03	3.185192E-04	8.932342E-06
5.018007E+03	3.194077E-04	8.942567E-06
5.027983E+03	3.204373E-04	8.956658E-06
5.037959E+03	3.215371E-04	8.972613E-06
5.047935E+03	3.227401E-04	8.991347E-06
5.057912E+03	3.240096E-04	9.011825E-06
5.067888E+03	3.254139E-04	9.035935E-06
5.077864E+03	3.269157E-04	9.062622E-06
5.087840E+03	3.284768E-04	9.090824E-06
5.097816E+03	3.301657E-04	9.122419E-06
5.107792E+03	3.319079E-04	9.155343E-06
5.117769E+03	3.337719E-04	9.191471E-06
5.127745E+03	3.356820E-04	9.228706E-06
5.137721E+03	3.376700E-04	9.267922E-06
5.147697E+03	3.397320E-04	9.308996E-06
5.157673E+03	3.418629E-04	9.351784E-06
5.167649E+03	3.440211E-04	9.395139E-06
5.177625E+03	3.462747E-04	9.440919E-06
5.187602E+03	3.485439E-04	9.486937E-06
5.197578E+03	3.508971E-04	9.535057E-06
5.207554E+03	3.532528E-04	9.583052E-06
5.217530E+03	3.556413E-04	9.631748E-06
5.227506E+03	3.580938E-04	9.681985E-06
5.237482E+03	3.605259E-04	9.731476E-06
5.247459E+03	3.629678E-04	9.781044E-06
5.257435E+03	3.653716E-04	9.829398E-06
5.267411E+03	3.678068E-04	9.878415E-06
5.277387E+03	3.702251E-04	9.926796E-06
5.287363E+03	3.725773E-04	9.973226E-06
5.297339E+03	3.749331E-04	1.001958E-05
5.307316E+03	3.772026E-04	1.006347E-05
5.317292E+03	3.794156E-04	1.010569E-05
5.327268E+03	3.815620E-04	1.014600E-05
5.337244E+03	3.836724E-04	1.018520E-05
5.347220E+03	3.856138E-04	1.021979E-05
5.357196E+03	3.874990E-04	1.025277E-05
5.367172E+03	3.892772E-04	1.028282E-05
5.377149E+03	3.909388E-04	1.030969E-05
5.387125E+03	3.924331E-04	1.033207E-05
5.397101E+03	3.938347E-04	1.035194E-05
5.407077E+03	3.950523E-04	1.036693E-05
5.417053E+03	3.961201E-04	1.037795E-05
5.427029E+03	3.970743E-04	1.038598E-05
5.437006E+03	3.978253E-04	1.038868E-05
5.446982E+03	3.984107E-04	1.038708E-05
5.456958E+03	3.988277E-04	1.038112E-05
5.466934E+03	3.990320E-04	1.036967E-05
5.476910E+03	3.991081E-04	1.035496E-05
5.486886E+03	3.990146E-04	1.033593E-05
5.496862E+03	3.987120E-04	1.031158E-05
5.506839E+03	3.982885E-04	1.028421E-05
5.516815E+03	3.976653E-04	1.025181E-05
5.526791E+03	3.968911E-04	1.021566E-05
5.536767E+03	3.959733E-04	1.017596E-05
5.546743E+03	3.949620E-04	1.013402E-05
5.556719E+03	3.937831E-04	1.008794E-05
5.566696E+03	3.924466E-04	1.003801E-05
5.576672E+03	3.910461E-04	9.986625E-06
5.586648E+03	3.895509E-04	9.933015E-06
5.596624E+03	3.879720E-04	9.877472E-06
5.606600E+03	3.862797E-04	9.819248E-06
5.616576E+03	3.845672E-04	9.760721E-06
5.626553E+03	3.827645E-04	9.700117E-06
5.636529E+03	3.809234E-04	9.638759E-06
5.646505E+03	3.790949E-04	9.577936E-06
5.656481E+03	3.772094E-04	9.515889E-06
5.666457E+03	3.753175E-04	9.453902E-06
5.676433E+03	3.734291E-04	9.392222E-06
5.686409E+03	3.715539E-04	9.331089E-06
5.696386E+03	3.697009E-04	9.270728E-06
5.706362E+03	3.678399E-04	9.210379E-06
5.716338E+03	3.660568E-04	9.152190E-06
5.726314E+03	3.643204E-04	9.095373E-06
5.736290E+03	3.625995E-04	9.039143E-06
5.746266E+03	3.609775E-04	8.985575E-06
5.756243E+03	3.593842E-04	8.932912E-06
5.766219E+03	3.578637E-04	8.882244E-06
5.776195E+03	3.564212E-04	8.833691E-06
5.786171E+03	3.550988E-04	8.788288E-06
5.796147E+03	3.538261E-04	8.744281E-06
5.806123E+03	3.526446E-04	8.702689E-06
5.816100E+03	3.515580E-04	8.663592E-06
5.826076E+03	3.505326E-04	8.626153E-06
5.836052E+03	3.496454E-04	8.592254E-06
5.846028E+03	3.488620E-04	8.561040E-06
5.856004E+03	3.481849E-04	8.532559E-06
5.865980E+03	3.475796E-04	8.505958E-06
5.875956E+03	3.471212E-04	8.483065E-06
5.885933E+03	3.467384E-04	8.462124E-06
5.895909E+03	3.464692E-04	8.444057E-06
5.905885E+03	3.463514E-04	8.429770E-06
5.915861E+03	3.463132E-04	8.417505E-06
5.925837E+03	3.463922E-04	8.408169E-06
5.935813E+03	3.465892E-04	8.401767E-06
5.945790E+03	3.469050E-04	8.398310E-06
5.955766E+03	3.473402E-04	8.397804E-06
5.965742E+03	3.478953E-04	8.400250E-06
5.975718E+03	3.485707E-04	8.405648E-06
5.985694E+03	3.493670E-04	8.413999E-06
5.995670E+03	3.502840E-04	8.425293E-06
6.005647E+03	3.512852E-04	8.438642E-06
6.015623E+03	3.524440E-04	8.455801E-06
6.025599E+03	3.537237E-04	8.475880E-06
6.035575E+03	3.550864E-04	8.497963E-06
6.045551E+03	3.566065E-04	8.523818E-06
6.055527E+03	3.582084E-04	8.551636E-06
6.065503E+03	3.599284E-04	8.582276E-06
6.075480E+03	3.618039E-04	8.616619E-06
6.085456E+03	3.637576E-04	8.652816E-06
6.095432E+03	3.658258E-04	8.691729E-06
6.105408E+03	3.680071E-04	8.733314E-06
6.115384E+03	3.702991E-04	8.777511E-06
6.125360E+03	3.726997E-04	8.824267E-06
6.135337E+03	3.752062E-04	8.873507E-06
6.145313E+03	3.778156E-04	8.925161E-06
6.155289E+03	3.805245E-04	8.979141E-06
6.165265E+03	3.833289E-04	9.035350E-06
6.175241E+03	3.862247E-04	9.093692E-06
6.185217E+03	3.891660E-04	9.153079E-06
6.195193E+03	3.922294E-04	9.215315E-06
6.205170E+03	3.953680E-04	9.279297E-06
6.215146E+03	3.985337E-04	9.343894E-06
6.225122E+03	4.018030E-04	9.410903E-06
6.235098E+03	4.050839E-04	9.478169E-06
6.245074E+03	4.084534E-04	9.547494E-06
6.255050E+03	4.118166E-04	9.616666E-06
6.265027E+03	4.152067E-04	9.686461E-06
6.275003E+03	4.186575E-04	9.757677E-06
6.284979E+03	4.220703E-04	9.828011E-06
6.294955E+03	4.254772E-04	9.898224E-06
6.304931E+03	4.288659E-04	9.968033E-06
6.314907E+03	4.322692E-04	1.003821E-05
6.324884E+03	4.355826E-04	1.010634E-05
6.334860E+03	4.388376E-04	1.017315E-05
6.344836E+03	4.420194E-04	1.023833E-05
6.354812E+03	4.451132E-04	1.030153E-05
6.364788E+03	4.481035E-04	1.036240E-05
6.374764E+03	4.509748E-04	1.042062E-05
6.384740E+03	4.537112E-04	1.047581E-05
6.394717E+03	4.562487E-04	1.052651E-05
6.404693E+03	4.586677E-04	1.057461E-05
6.414669E+03	4.609045E-04	1.061863E-05
6.424645E+03	4.629441E-04	1.065826E-05
6.434621E+03	4.647224E-04	1.069202E-05
6.444597E+03	4.663236E-04	1.072188E-05
6.454574E+03	4.676855E-04	1.074642E-05
6.464550E+03	4.687462E-04	1.076423E-05
6.474526E+03	4.695940E-04	1.077736E-05
6.484502E+03	4.701200E-04	1.078331E-05
6.494478E+03	4.704161E-04	1.078422E-05
6.504454E+03	4.703765E-04	1.077766E-05
6.514431E+03	4.700970E-04	1.076584E-05
6.524407E+03	4.694769E-04	1.074645E-05
6.534383E+03	4.685674E-04	1.072067E-05
6.544359E+03	4.674217E-04	1.068972E-05
6.554335E+03	4.659464E-04	1.065148E-05
6.564311E+03	4.641985E-04	1.060724E-05
6.574287E+03	4.621870E-04	1.055722E-05
6.584264E+03	4.599714E-04	1.050277E-05
6.594240E+03	4.574653E-04	1.044192E-05
6.604216E+03	4.547303E-04	1.037608E-05
6.614192E+03	4.517802E-04	1.030555E-05
6.624168E+03	4.486292E-04	1.023067E-05
6.634144E+03	4.452921E-04	1.015177E-05
6.644121E+03	4.417842E-04	1.006918E-05
6.654097E+03	4.381212E-04	9.983274E-06
6.664073E+03	4.343186E-04	9.894387E-06
6.674049E+03	4.303921E-04	9.802877E-06
6.684025E+03	4.263573E-04	9.709090E-06
6.694001E+03	4.222295E-04	9.613373E-06
6.703977E+03	4.180236E-04	9.516058E-06
6.713954E+03	4.137103E-04	9.416470E-06
6.723930E+03	4.093924E-04	9.316944E-06
6.733906E+03	4.050389E-04	9.216768E-06
6.743882E+03	4.006629E-04	9.116233E-06
6.753858E+03	3.962345E-04	9.014651E-06
6.763834E+03	3.918504E-04	8.914220E-06
6.773811E+03	3.874791E-04	8.814212E-06
6.783787E+03	3.830898E-04	8.713922E-06
6.793763E+03	3.787747E-04	8.615439E-06
6.803739E+03	3.744610E-04	8.517105E-06
6.813715E+03	3.702376E-04	8.420934E-06
6.823691E+03	3.660323E-04	8.325279E-06
6.833668E+03	3.619307E-04	8.232081E-06
6.843644E+03	3.578609E-04	8.139699E-06
6.853620E+03	3.539055E-04	8.050008E-06
6.863596E+03	3.499931E-04	7.961379E-06
6.873572E+03	3.461661E-04	7.874773E-06
6.883548E+03	3.424650E-04	7.791103E-06
6.893524E+03	3.388190E-04	7.708760E-06
6.903501E+03	3.352677E-04	7.628638E-06
6.913477E+03	3.318489E-04	7.551596E-06
6.923453E+03	3.284926E-04	7.476034E-06
6.933429E+03	3.252361E-04	7.402801E-06
6.943405E+03	3.220800E-04	7.331909E-06
6.953381E+03	3.190250E-04	7.263369E-06
6.963358E+03	3.160711E-04	7.197180E-06
6.973334E+03	3.132519E-04	7.134106E-06
6.983310E+03	3.104995E-04	7.072597E-06
6.993286E+03	3.078473E-04	7.013411E-06
7.003262E+03	3.052941E-04	6.956525E-06
7.013238E+03	3.028394E-04	6.901921E-06
7.023215E+03	3.004818E-04	6.849568E-06
7.033191E+03	2.982203E-04	6.799441E-06
7.043167E+03	2.960213E-04	6.750777E-06
7.053143E+03	2.939478E-04	6.705007E-06
7.063119E+03	2.919661E-04	6.661364E-06
7.073095E+03	2.900746E-04	6.619816E-06
7.083071E+03	2.882720E-04	6.580325E-06
7.093048E+03	2.865258E-04	6.542153E-06
7.103024E+03	2.848967E-04	6.506688E-06
7.113000E+03	2.833521E-04	6.473184E-06
7.122976E+03	2.818601E-04	6.440910E-06
7.132952E+03	2.804807E-04	6.411243E-06
7.142928E+03	2.791821E-04	6.383452E-06
7.152905E+03	2.779329E-04	6.356822E-06
7.162881E+03	2.767926E-04	6.332713E-06
7.172857E+03	2.757000E-04	6.309729E-06
7.182833E+03	2.747145E-04	6.289226E-06
7.192809E+03	2.737755E-04	6.269822E-06
7.202785E+03	2.729422E-04	6.252871E-06
7.212762E+03	2.721548E-04	6.237004E-06
7.222738E+03	2.714427E-04	6.222899E-06
7.232714E+03	2.708354E-04	6.211231E-06
7.242690E+03	2.702738E-04	6.200651E-06
7.252666E+03	2.697878E-04	6.191841E-06
7.262642E+03	2.693777E-04	6.184810E-06
7.272618E+03	2.690733E-04	6.180248E-06
7.282595E+03	2.688165E-04	6.176821E-06
7.292571E+03	2.686375E-04	6.175226E-06
7.302547E+03	2.685372E-04	6.175486E-06
7.312523E+03	2.685166E-04	6.177624E-06
7.322499E+03	2.685770E-04	6.181674E-06
7.332475E+03	2.687196E-04	6.187670E-06
7.342452E+03	2.689461E-04	6.195647E-06
7.352428E+03	2.692575E-04	6.205639E-06
7.362404E+03	2.696560E-04	6.217694E-06
7.372380E+03	2.701133E-04	6.231166E-06
7.382356E+03	2.706906E-04	6.247471E-06
7.392332E+03	2.713601E-04	6.265970E-06
7.402308E+03	2.721237E-04	6.286712E-06
7.412285E+03	2.729535E-04	6.309057E-06
7.422261E+03	2.739115E-04	6.334441E-06
7.432237E+03	2.749696E-04	6.362220E-06
7.442213E+03	2.760995E-04	6.391746E-06
7.452189E+03	2.773641E-04	6.424477E-06
7.462165E+03	2.787041E-04	6.459050E-06
7.472142E+03	2.801830E-04	6.496939E-06
7.482118E+03	2.817409E-04	6.536760E-06
7.492094E+03	2.834417E-04	6.580005E-06
7.502070E+03	2.852246E-04	6.625270E-06
7.512046E+03	2.871223E-04	6.673317E-06
7.522022E+03	2.891683E-04	6.724938E-06
7.531999E+03	2.913001E-04	6.778683E-06
7.541975E+03	2.935505E-04	6.835321E-06
7.551951E+03	2.959202E-04	6.894883E-06
7.561927E+03	2.984102E-04	6.957394E-06
7.571903E+03	3.010205E-04	7.022868E-06
7.581879E+03	3.037515E-04	7.091319E-06
7.591855E+03	3.066027E-04	7.162749E-06
7.601832E+03	3.095737E-04	7.237155E-06
7.611808E+03	3.126634E-04	7.314524E-06
7.621784E+03	3.158706E-04	7.394834E-06
7.631760E+03	3.191934E-04	7.478053E-06
7.641736E+03	3.226294E-04	7.564137E-06
7.651712E+03	3.261395E-04	7.652178E-06
7.661689E+03	3.297930E-04	7.743813E-06
7.671665E+03	3.335499E-04	7.838112E-06
7.681641E+03	3.373679E-04	7.934095E-06
7.691617E+03	3.413171E-04	8.033420E-06
7.701593E+03	3.453158E-04	8.134176E-06
7.711569E+03	3.494347E-04	8.238036E-06
7.721546E+03	3.535885E-04	8.343005E-06
7.731522E+03	3.578487E-04	8.450777E-06
7.741498E+03	3.621265E-04	8.559270E-06
