#wls	flux	fluxerr
1.596185E+03	2.404017E-05	1.151099E-06
1.636090E+03	2.487861E-05	1.189771E-06
1.675994E+03	2.568111E-05	1.226585E-06
1.715899E+03	2.644816E-05	1.261566E-06
1.755804E+03	2.716413E-05	1.293972E-06
1.795708E+03	2.780866E-05	1.322839E-06
1.835613E+03	2.835629E-05	1.346968E-06
1.875518E+03	2.877740E-05	1.364969E-06
1.915422E+03	2.904132E-05	1.375413E-06
1.955327E+03	2.913011E-05	1.377482E-06
1.995231E+03	2.903514E-05	1.370807E-06
2.035136E+03	2.881940E-05	1.358396E-06
2.075041E+03	2.859704E-05	1.345650E-06
2.114945E+03	2.856031E-05	1.341600E-06
2.154850E+03	2.887421E-05	1.353939E-06
2.194755E+03	2.961033E-05	1.385925E-06
2.234659E+03	3.071247E-05	1.434818E-06
2.274564E+03	3.204515E-05	1.494198E-06
2.314468E+03	3.346602E-05	1.557367E-06
2.354373E+03	3.487588E-05	1.619683E-06
2.394278E+03	3.620230E-05	1.677781E-06
2.434182E+03	3.743230E-05	1.731073E-06
2.474087E+03	3.854881E-05	1.778791E-06
2.513992E+03	3.957260E-05	1.821916E-06
2.553896E+03	4.050959E-05	1.860739E-06
2.593801E+03	4.137417E-05	1.895939E-06
2.633705E+03	4.218098E-05	1.928200E-06
2.673610E+03	4.294426E-05	1.958183E-06
2.713515E+03	4.367760E-05	1.986513E-06
2.753419E+03	4.440175E-05	2.014134E-06
2.793324E+03	4.511365E-05	2.040904E-06
2.833229E+03	4.584103E-05	2.068071E-06
2.873133E+03	4.657966E-05	2.095430E-06
2.913038E+03	4.735731E-05	2.124214E-06
2.952942E+03	4.817752E-05	2.154559E-06
2.992847E+03	4.905199E-05	2.186960E-06
3.002823E+03	4.927617E-05	2.195248E-06
3.012799E+03	4.951327E-05	2.204087E-06
3.022776E+03	4.974626E-05	2.212716E-06
3.032752E+03	4.999307E-05	2.221935E-06
3.042728E+03	5.023806E-05	2.231046E-06
3.052704E+03	5.050053E-05	2.240905E-06
3.062680E+03	5.076259E-05	2.250719E-06
3.072656E+03	5.104164E-05	2.261256E-06
3.082633E+03	5.131971E-05	2.271720E-06
3.092609E+03	5.161445E-05	2.282892E-06
3.102585E+03	5.190780E-05	2.293971E-06
3.112561E+03	5.221768E-05	2.305749E-06
3.122537E+03	5.252589E-05	2.317420E-06
3.132513E+03	5.285062E-05	2.329786E-06
3.142489E+03	5.318277E-05	2.342446E-06
3.152466E+03	5.351309E-05	2.354989E-06
3.162442E+03	5.386013E-05	2.368233E-06
3.172418E+03	5.420533E-05	2.381359E-06
3.182394E+03	5.456755E-05	2.395195E-06
3.192370E+03	5.492801E-05	2.408916E-06
3.202346E+03	5.530585E-05	2.423360E-06
3.212323E+03	5.569175E-05	2.438118E-06
3.222299E+03	5.607617E-05	2.452769E-06
3.232275E+03	5.647867E-05	2.468170E-06
3.242251E+03	5.687995E-05	2.483475E-06
3.252227E+03	5.729986E-05	2.499551E-06
3.262203E+03	5.771887E-05	2.515542E-06
3.272179E+03	5.815714E-05	2.532327E-06
3.282156E+03	5.860501E-05	2.549484E-06
3.292132E+03	5.905253E-05	2.566578E-06
3.302108E+03	5.952033E-05	2.584505E-06
3.312084E+03	5.998822E-05	2.602386E-06
3.322060E+03	6.047717E-05	2.621129E-06
3.332036E+03	6.097718E-05	2.640300E-06
3.342013E+03	6.147797E-05	2.659451E-06
3.351989E+03	6.200103E-05	2.679511E-06
3.361965E+03	6.253618E-05	2.700037E-06
3.371941E+03	6.307286E-05	2.720573E-06
3.381917E+03	6.363314E-05	2.742067E-06
3.391893E+03	6.419550E-05	2.763591E-06
3.401870E+03	6.478237E-05	2.786110E-06
3.411846E+03	6.538317E-05	2.809163E-06
3.421822E+03	6.598689E-05	2.832278E-06
3.431798E+03	6.661659E-05	2.856441E-06
3.441774E+03	6.726140E-05	2.881184E-06
3.451750E+03	6.791001E-05	2.906020E-06
3.461726E+03	6.858613E-05	2.931962E-06
3.471703E+03	6.927860E-05	2.958530E-06
3.481679E+03	6.997577E-05	2.985224E-06
3.491655E+03	7.070206E-05	3.013082E-06
3.501631E+03	7.144597E-05	3.041613E-06
3.511607E+03	7.219549E-05	3.070301E-06
3.521583E+03	7.297580E-05	3.100216E-06
3.531560E+03	7.377502E-05	3.130849E-06
3.541536E+03	7.458078E-05	3.161671E-06
3.551512E+03	7.541902E-05	3.193781E-06
3.561488E+03	7.627749E-05	3.226656E-06
3.571464E+03	7.714336E-05	3.259750E-06
3.581440E+03	7.804352E-05	3.294195E-06
3.591417E+03	7.896513E-05	3.329446E-06
3.601393E+03	7.989509E-05	3.364948E-06
3.611369E+03	8.086100E-05	3.401860E-06
3.621345E+03	8.184969E-05	3.439622E-06
3.631321E+03	8.284753E-05	3.477660E-06
3.641297E+03	8.388297E-05	3.517163E-06
3.651273E+03	8.494260E-05	3.557565E-06
3.661250E+03	8.601187E-05	3.598252E-06
3.671226E+03	8.712055E-05	3.640467E-06
3.681202E+03	8.825454E-05	3.683614E-06
3.691178E+03	8.939873E-05	3.727061E-06
3.701154E+03	9.058399E-05	3.772088E-06
3.711130E+03	9.179552E-05	3.818076E-06
3.721107E+03	9.301774E-05	3.864371E-06
3.731083E+03	9.428246E-05	3.912292E-06
3.741059E+03	9.557433E-05	3.961195E-06
3.751035E+03	9.687701E-05	4.010400E-06
3.761011E+03	9.822362E-05	4.061272E-06
3.770987E+03	9.959797E-05	4.113138E-06
3.780963E+03	1.009830E-04	4.165287E-06
3.790940E+03	1.024130E-04	4.219130E-06
3.800916E+03	1.038712E-04	4.273969E-06
3.810892E+03	1.053396E-04	4.329059E-06
3.820868E+03	1.068538E-04	4.385863E-06
3.830844E+03	1.083962E-04	4.443646E-06
3.840820E+03	1.099479E-04	4.501631E-06
3.850797E+03	1.115460E-04	4.561333E-06
3.860773E+03	1.131717E-04	4.621978E-06
3.870749E+03	1.148054E-04	4.682757E-06
3.880725E+03	1.164855E-04	4.745237E-06
3.890701E+03	1.181923E-04	4.808607E-06
3.900677E+03	1.199052E-04	4.872020E-06
3.910654E+03	1.216640E-04	4.937096E-06
3.920630E+03	1.234480E-04	5.002986E-06
3.930606E+03	1.252354E-04	5.068801E-06
3.940582E+03	1.270676E-04	5.136218E-06
3.950558E+03	1.289230E-04	5.204349E-06
3.960534E+03	1.307784E-04	5.272259E-06
3.970510E+03	1.326769E-04	5.341682E-06
3.980487E+03	1.345957E-04	5.411692E-06
3.990463E+03	1.365102E-04	5.481302E-06
4.000439E+03	1.384656E-04	5.552314E-06
4.010415E+03	1.404373E-04	5.623748E-06
4.020391E+03	1.424000E-04	5.694578E-06
4.030367E+03	1.444002E-04	5.766665E-06
4.040344E+03	1.463874E-04	5.837995E-06
4.050320E+03	1.484095E-04	5.910466E-06
4.060296E+03	1.504402E-04	5.983029E-06
4.070272E+03	1.524516E-04	6.054577E-06
4.080248E+03	1.544932E-04	6.127075E-06
4.090224E+03	1.565110E-04	6.198373E-06
4.100201E+03	1.585555E-04	6.270476E-06
4.110177E+03	1.605983E-04	6.342257E-06
4.120153E+03	1.626096E-04	6.412541E-06
4.130129E+03	1.646418E-04	6.483393E-06
4.140105E+03	1.666372E-04	6.552541E-06
4.150081E+03	1.686493E-04	6.622091E-06
4.160057E+03	1.706478E-04	6.690850E-06
4.170034E+03	1.726010E-04	6.757583E-06
4.180010E+03	1.745642E-04	6.824460E-06
4.189986E+03	1.764764E-04	6.889089E-06
4.199962E+03	1.783943E-04	6.953695E-06
4.209938E+03	1.802553E-04	7.015837E-06
4.219914E+03	1.821176E-04	7.077787E-06
4.229891E+03	1.839485E-04	7.138275E-06
4.239867E+03	1.857143E-04	7.196002E-06
4.249843E+03	1.874749E-04	7.253295E-06
4.259819E+03	1.891653E-04	7.307643E-06
4.269795E+03	1.908468E-04	7.361421E-06
4.279771E+03	1.924534E-04	7.412093E-06
4.289748E+03	1.940477E-04	7.462075E-06
4.299724E+03	1.955631E-04	7.508812E-06
4.309700E+03	1.970636E-04	7.554774E-06
4.319676E+03	1.984817E-04	7.597380E-06
4.329652E+03	1.998831E-04	7.639150E-06
4.339628E+03	2.011997E-04	7.677492E-06
4.349604E+03	2.024982E-04	7.714964E-06
4.359581E+03	2.037102E-04	7.748966E-06
4.369557E+03	2.049035E-04	7.782085E-06
4.379533E+03	2.060090E-04	7.811710E-06
4.389509E+03	2.070951E-04	7.840439E-06
4.399485E+03	2.080908E-04	7.865601E-06
4.409461E+03	2.090648E-04	7.889798E-06
4.419438E+03	2.099458E-04	7.910350E-06
4.429414E+03	2.108032E-04	7.929886E-06
4.439390E+03	2.115657E-04	7.945730E-06
4.449366E+03	2.122679E-04	7.959199E-06
4.459342E+03	2.129452E-04	7.971625E-06
4.469318E+03	2.135261E-04	7.980343E-06
4.479294E+03	2.140823E-04	7.988046E-06
4.489271E+03	2.145423E-04	7.992076E-06
4.499247E+03	2.149787E-04	7.995145E-06
4.509223E+03	2.153200E-04	7.994611E-06
4.519199E+03	2.156032E-04	7.991856E-06
4.529175E+03	2.158656E-04	7.988272E-06
4.539151E+03	2.160362E-04	7.981243E-06
4.549128E+03	2.161524E-04	7.972164E-06
4.559104E+03	2.162520E-04	7.962439E-06
4.569080E+03	2.162643E-04	7.949469E-06
4.579056E+03	2.162273E-04	7.934667E-06
4.589032E+03	2.161789E-04	7.919432E-06
4.599008E+03	2.160489E-04	7.901194E-06
4.608985E+03	2.158754E-04	7.881364E-06
4.618961E+03	2.156964E-04	7.861335E-06
4.628937E+03	2.154421E-04	7.838567E-06
4.638913E+03	2.151506E-04	7.814459E-06
4.648889E+03	2.148599E-04	7.790396E-06
4.658865E+03	2.145003E-04	7.763860E-06
4.668841E+03	2.141102E-04	7.736242E-06
4.678818E+03	2.137271E-04	7.708909E-06
4.688794E+03	2.132820E-04	7.679374E-06
4.698770E+03	2.128126E-04	7.649003E-06
4.708746E+03	2.123210E-04	7.617878E-06
4.718722E+03	2.118447E-04	7.587343E-06
4.728698E+03	2.113148E-04	7.554939E-06
4.738675E+03	2.107689E-04	7.522012E-06
4.748651E+03	2.102088E-04	7.488632E-06
4.758627E+03	2.096363E-04	7.454867E-06
4.768603E+03	2.090881E-04	7.422022E-06
4.778579E+03	2.084961E-04	7.387682E-06
4.788555E+03	2.078970E-04	7.353152E-06
4.798532E+03	2.072923E-04	7.318486E-06
4.808508E+03	2.066835E-04	7.283742E-06
4.818484E+03	2.061065E-04	7.250179E-06
4.828460E+03	2.054937E-04	7.215424E-06
4.838436E+03	2.048811E-04	7.180741E-06
4.848412E+03	2.042697E-04	7.146169E-06
4.858388E+03	2.036607E-04	7.111749E-06
4.868365E+03	2.030552E-04	7.077519E-06
4.878341E+03	2.024541E-04	7.043514E-06
4.888317E+03	2.018584E-04	7.009764E-06
4.898293E+03	2.012689E-04	6.976298E-06
4.908269E+03	2.007197E-04	6.944294E-06
4.918245E+03	2.001447E-04	6.911464E-06
4.928222E+03	1.995779E-04	6.878988E-06
4.938198E+03	1.990200E-04	6.846884E-06
4.948174E+03	1.984713E-04	6.815163E-06
4.958150E+03	1.979324E-04	6.783845E-06
4.968126E+03	1.974034E-04	6.752935E-06
4.978102E+03	1.968846E-04	6.722442E-06
4.988078E+03	1.963764E-04	6.692372E-06
4.998055E+03	1.958789E-04	6.662733E-06
5.008031E+03	1.953922E-04	6.633524E-06
5.018007E+03	1.949162E-04	6.604744E-06
5.027983E+03	1.944510E-04	6.576393E-06
5.037959E+03	1.939966E-04	6.548467E-06
5.047935E+03	1.935528E-04	6.520964E-06
5.057912E+03	1.931196E-04	6.493876E-06
5.067888E+03	1.926966E-04	6.467196E-06
5.077864E+03	1.922837E-04	6.440914E-06
5.087840E+03	1.918807E-04	6.415020E-06
5.097816E+03	1.914872E-04	6.389509E-06
5.107792E+03	1.910713E-04	6.363310E-06
5.117769E+03	1.906962E-04	6.338528E-06
5.127745E+03	1.903294E-04	6.314085E-06
5.137721E+03	1.899710E-04	6.289976E-06
5.147697E+03	1.896203E-04	6.266183E-06
5.157673E+03	1.892770E-04	6.242692E-06
5.167649E+03	1.889407E-04	6.219494E-06
5.177625E+03	1.886112E-04	6.196575E-06
5.187602E+03	1.882568E-04	6.172900E-06
5.197578E+03	1.879394E-04	6.150500E-06
5.207554E+03	1.876276E-04	6.128344E-06
5.217530E+03	1.873210E-04	6.106416E-06
5.227506E+03	1.870193E-04	6.084710E-06
5.237482E+03	1.866913E-04	6.062212E-06
5.247459E+03	1.863987E-04	6.040924E-06
5.257435E+03	1.861103E-04	6.019836E-06
5.267411E+03	1.858258E-04	5.998938E-06
5.277387E+03	1.855147E-04	5.977243E-06
5.287363E+03	1.852382E-04	5.956730E-06
5.297339E+03	1.849655E-04	5.936406E-06
5.307316E+03	1.846969E-04	5.916277E-06
5.317292E+03	1.844020E-04	5.895374E-06
5.327268E+03	1.841420E-04	5.875652E-06
5.337244E+03	1.838868E-04	5.856154E-06
5.347220E+03	1.836064E-04	5.835923E-06
5.357196E+03	1.833620E-04	5.816906E-06
5.367172E+03	1.831241E-04	5.798160E-06
5.377149E+03	1.828930E-04	5.779703E-06
5.387125E+03	1.826397E-04	5.760615E-06
5.397101E+03	1.824253E-04	5.742823E-06
5.407077E+03	1.821905E-04	5.724463E-06
5.417053E+03	1.819966E-04	5.707460E-06
5.427029E+03	1.818147E-04	5.690902E-06
5.437006E+03	1.816158E-04	5.673885E-06
5.446982E+03	1.814613E-04	5.658325E-06
5.456958E+03	1.812924E-04	5.642386E-06
5.466934E+03	1.811699E-04	5.627963E-06
5.476910E+03	1.810647E-04	5.614145E-06
5.486886E+03	1.809474E-04	5.600021E-06
5.496862E+03	1.808774E-04	5.587421E-06
5.506839E+03	1.807940E-04	5.574475E-06
5.516815E+03	1.807560E-04	5.562988E-06
5.526791E+03	1.807028E-04	5.551090E-06
5.536767E+03	1.806928E-04	5.540579E-06
5.546743E+03	1.806655E-04	5.529590E-06
5.556719E+03	1.806794E-04	5.519917E-06
5.566696E+03	1.806741E-04	5.509709E-06
5.576672E+03	1.807082E-04	5.500753E-06
5.586648E+03	1.807215E-04	5.491216E-06
5.596624E+03	1.807729E-04	5.482882E-06
5.606600E+03	1.808022E-04	5.473928E-06
5.616576E+03	1.808685E-04	5.466139E-06
5.626553E+03	1.809120E-04	5.457708E-06
5.636529E+03	1.809919E-04	5.450419E-06
5.646505E+03	1.810483E-04	5.442468E-06
5.656481E+03	1.811111E-04	5.434753E-06
5.666457E+03	1.812097E-04	5.428159E-06
5.676433E+03	1.812848E-04	5.420903E-06
5.686409E+03	1.813960E-04	5.414766E-06
5.696386E+03	1.814837E-04	5.407971E-06
5.706362E+03	1.815778E-04	5.401412E-06
5.716338E+03	1.817086E-04	5.395983E-06
5.726314E+03	1.818164E-04	5.389911E-06
5.736290E+03	1.819315E-04	5.384097E-06
5.746266E+03	1.820839E-04	5.379429E-06
5.756243E+03	1.822143E-04	5.374146E-06
5.766219E+03	1.823528E-04	5.369144E-06
5.776195E+03	1.825297E-04	5.365312E-06
5.786171E+03	1.826855E-04	5.360894E-06
5.796147E+03	1.828504E-04	5.356785E-06
5.806123E+03	1.830548E-04	5.353870E-06
5.816100E+03	1.832390E-04	5.350400E-06
5.826076E+03	1.834334E-04	5.347264E-06
5.836052E+03	1.836381E-04	5.344468E-06
5.846028E+03	1.838838E-04	5.342899E-06
5.856004E+03	1.841103E-04	5.340807E-06
5.865980E+03	1.843479E-04	5.339075E-06
5.875956E+03	1.845970E-04	5.337713E-06
5.885933E+03	1.848881E-04	5.337598E-06
5.895909E+03	1.851607E-04	5.336984E-06
5.905885E+03	1.854452E-04	5.336747E-06
5.915861E+03	1.857417E-04	5.336890E-06
5.925837E+03	1.860501E-04	5.337413E-06
5.935813E+03	1.864013E-04	5.339194E-06
5.945790E+03	1.867338E-04	5.340477E-06
5.955766E+03	1.870783E-04	5.342135E-06
5.965742E+03	1.874345E-04	5.344166E-06
5.975718E+03	1.878024E-04	5.346564E-06
5.985694E+03	1.881816E-04	5.349321E-06
5.995670E+03	1.886029E-04	5.353308E-06
6.005647E+03	1.890040E-04	5.356759E-06
6.015623E+03	1.894155E-04	5.360543E-06
6.025599E+03	1.898370E-04	5.364648E-06
6.035575E+03	1.902680E-04	5.369057E-06
6.045551E+03	1.907079E-04	5.373760E-06
6.055527E+03	1.911561E-04	5.378739E-06
6.065503E+03	1.916121E-04	5.383976E-06
6.075480E+03	1.920750E-04	5.389452E-06
6.085456E+03	1.925443E-04	5.395150E-06
6.095432E+03	1.930507E-04	5.401933E-06
6.105408E+03	1.935299E-04	5.408004E-06
6.115384E+03	1.940130E-04	5.414231E-06
6.125360E+03	1.944988E-04	5.420582E-06
6.135337E+03	1.949864E-04	5.427039E-06
6.145313E+03	1.954746E-04	5.433568E-06
6.155289E+03	1.959625E-04	5.440144E-06
6.165265E+03	1.964489E-04	5.446737E-06
6.175241E+03	1.969326E-04	5.453319E-06
6.185217E+03	1.974126E-04	5.459861E-06
6.195193E+03	1.978875E-04	5.466331E-06
6.205170E+03	1.983561E-04	5.472694E-06
6.215146E+03	1.988172E-04	5.478923E-06
6.225122E+03	1.992694E-04	5.484985E-06
6.235098E+03	1.997115E-04	5.490847E-06
6.245074E+03	2.001423E-04	5.496477E-06
6.255050E+03	2.005274E-04	5.500941E-06
6.265027E+03	2.009315E-04	5.506015E-06
6.275003E+03	2.013204E-04	5.510766E-06
6.284979E+03	2.016930E-04	5.515162E-06
6.294955E+03	2.020479E-04	5.519176E-06
6.304931E+03	2.023841E-04	5.522783E-06
6.314907E+03	2.027004E-04	5.525952E-06
6.324884E+03	2.029959E-04	5.528665E-06
6.334860E+03	2.032696E-04	5.530896E-06
6.344836E+03	2.035206E-04	5.532628E-06
6.354812E+03	2.037481E-04	5.533841E-06
6.364788E+03	2.039179E-04	5.533615E-06
6.374764E+03	2.040965E-04	5.533756E-06
6.384740E+03	2.042499E-04	5.533346E-06
6.394717E+03	2.043779E-04	5.532384E-06
6.404693E+03	2.044802E-04	5.530866E-06
6.414669E+03	2.045569E-04	5.528798E-06
6.424645E+03	2.046081E-04	5.526187E-06
6.434621E+03	2.046005E-04	5.522137E-06
6.444597E+03	2.046018E-04	5.518479E-06
6.454574E+03	2.045789E-04	5.514329E-06
6.464550E+03	2.045326E-04	5.509704E-06
6.474526E+03	2.044638E-04	5.504633E-06
6.484502E+03	2.043397E-04	5.498240E-06
6.494478E+03	2.042284E-04	5.492358E-06
6.504454E+03	2.040971E-04	5.486110E-06
6.514431E+03	2.039465E-04	5.479514E-06
6.524407E+03	2.037768E-04	5.472576E-06
6.534383E+03	2.035541E-04	5.464384E-06
6.544359E+03	2.033445E-04	5.456714E-06
6.554335E+03	2.031140E-04	5.448648E-06
6.564311E+03	2.028617E-04	5.440159E-06
6.574287E+03	2.025538E-04	5.430337E-06
6.584264E+03	2.022562E-04	5.420948E-06
6.594240E+03	2.019350E-04	5.411083E-06
6.604216E+03	2.015568E-04	5.399841E-06
6.614192E+03	2.011880E-04	5.388997E-06
6.624168E+03	2.007951E-04	5.377655E-06
6.634144E+03	2.003785E-04	5.365818E-06
6.644121E+03	1.999054E-04	5.352609E-06
6.654097E+03	1.994423E-04	5.339802E-06
6.664073E+03	1.989569E-04	5.326530E-06
6.674049E+03	1.984172E-04	5.311933E-06
6.684025E+03	1.978893E-04	5.297779E-06
6.694001E+03	1.973416E-04	5.283219E-06
6.703977E+03	1.967428E-04	5.267408E-06
6.713954E+03	1.961589E-04	5.252112E-06
6.723930E+03	1.955586E-04	5.236487E-06
6.733906E+03	1.949112E-04	5.219712E-06
6.743882E+03	1.942821E-04	5.203533E-06
6.753858E+03	1.936408E-04	5.187131E-06
6.763834E+03	1.929568E-04	5.169682E-06
6.773811E+03	1.922952E-04	5.152931E-06
6.783787E+03	1.915942E-04	5.135216E-06
6.793763E+03	1.909184E-04	5.118265E-06
6.803739E+03	1.902377E-04	5.101272E-06
6.813715E+03	1.895225E-04	5.083434E-06
6.823691E+03	1.888367E-04	5.066468E-06
6.833668E+03	1.881196E-04	5.048739E-06
6.843644E+03	1.874348E-04	5.031950E-06
6.853620E+03	1.867218E-04	5.014479E-06
6.863596E+03	1.860438E-04	4.998016E-06
6.873572E+03	1.853713E-04	4.981769E-06
6.883548E+03	1.846754E-04	4.964956E-06
6.893524E+03	1.840181E-04	4.949248E-06
6.903501E+03	1.833405E-04	4.933049E-06
6.913477E+03	1.827042E-04	4.918021E-06
6.923453E+03	1.820500E-04	4.902567E-06
6.933429E+03	1.814395E-04	4.888346E-06
6.943405E+03	1.808138E-04	4.873767E-06
6.953381E+03	1.802339E-04	4.860473E-06
6.963358E+03	1.796412E-04	4.846885E-06
6.973334E+03	1.790965E-04	4.834637E-06
6.983310E+03	1.785413E-04	4.822154E-06
6.993286E+03	1.780356E-04	4.811056E-06
7.003262E+03	1.775218E-04	4.799779E-06
7.013238E+03	1.770593E-04	4.789935E-06
7.023215E+03	1.765905E-04	4.779963E-06
7.033191E+03	1.761746E-04	4.771464E-06
7.043167E+03	1.757541E-04	4.762884E-06
7.053143E+03	1.753881E-04	4.755819E-06
7.063119E+03	1.750192E-04	4.748716E-06
7.073095E+03	1.747058E-04	4.743160E-06
7.083071E+03	1.743910E-04	4.737605E-06
7.093048E+03	1.741331E-04	4.733637E-06
7.103024E+03	1.738750E-04	4.729702E-06
7.113000E+03	1.736462E-04	4.726604E-06
7.122976E+03	1.734758E-04	4.725137E-06
7.132952E+03	1.733068E-04	4.723750E-06
7.142928E+03	1.731973E-04	4.724024E-06
7.152905E+03	1.730903E-04	4.724406E-06
7.162881E+03	1.730435E-04	4.726475E-06
7.172857E+03	1.730000E-04	4.728677E-06
7.182833E+03	1.729888E-04	4.731806E-06
7.192809E+03	1.730388E-04	4.736654E-06
7.202785E+03	1.730932E-04	4.741668E-06
7.212762E+03	1.731809E-04	4.747640E-06
7.222738E+03	1.733306E-04	4.755360E-06
7.232714E+03	1.734855E-04	4.763270E-06
7.242690E+03	1.737029E-04	4.772950E-06
7.252666E+03	1.739258E-04	4.782830E-06
7.262642E+03	1.741828E-04	4.793705E-06
7.272618E+03	1.745031E-04	4.806375E-06
7.282595E+03	1.748291E-04	4.819261E-06
7.292571E+03	1.751895E-04	4.833152E-06
7.302547E+03	1.756135E-04	4.848859E-06
7.312523E+03	1.760431E-04	4.864783E-06
7.322499E+03	1.765072E-04	4.881725E-06
7.332475E+03	1.770350E-04	4.900497E-06
7.342452E+03	1.775679E-04	4.919479E-06
7.352428E+03	1.781352E-04	4.939484E-06
7.362404E+03	1.787364E-04	4.960505E-06
7.372380E+03	1.794011E-04	4.983364E-06
7.382356E+03	1.800699E-04	5.006414E-06
7.392332E+03	1.807720E-04	5.030472E-06
7.402308E+03	1.815370E-04	5.056366E-06
7.412285E+03	1.823047E-04	5.082420E-06
7.422261E+03	1.831045E-04	5.109460E-06
7.432237E+03	1.839359E-04	5.137472E-06
7.442213E+03	1.848289E-04	5.167302E-06
7.452189E+03	1.857220E-04	5.197232E-06
7.462165E+03	1.866447E-04	5.228094E-06
7.472142E+03	1.875966E-04	5.259876E-06
7.482118E+03	1.886079E-04	5.293433E-06
7.492094E+03	1.896155E-04	5.326996E-06
7.502070E+03	1.906495E-04	5.361414E-06
7.512046E+03	1.917090E-04	5.396666E-06
7.522022E+03	1.928246E-04	5.433619E-06
7.531999E+03	1.939316E-04	5.470456E-06
7.541975E+03	1.950605E-04	5.508035E-06
7.551951E+03	1.962098E-04	5.546323E-06
7.561927E+03	1.973783E-04	5.585284E-06
7.571903E+03	1.985643E-04	5.624879E-06
7.581879E+03	1.997995E-04	5.666010E-06
7.591855E+03	2.010160E-04	5.706753E-06
7.601832E+03	2.022448E-04	5.747995E-06
7.611808E+03	2.034844E-04	5.789692E-06
7.621784E+03	2.047326E-04	5.831789E-06
7.631760E+03	2.060215E-04	5.875203E-06
7.641736E+03	2.072808E-04	5.917934E-06
7.651712E+03	2.085423E-04	5.960891E-06
7.661689E+03	2.098035E-04	6.004006E-06
7.671665E+03	2.110623E-04	6.047221E-06
7.681641E+03	2.123161E-04	6.090463E-06
7.691617E+03	2.135622E-04	6.133659E-06
7.701593E+03	2.147981E-04	6.176739E-06
7.711569E+03	2.160569E-04	6.220658E-06
7.721546E+03	2.172644E-04	6.263286E-06
7.731522E+03	2.184534E-04	6.305560E-06
7.741498E+03	2.196211E-04	6.347408E-06
