#wls	flux	fluxerr
1.594277E+03	1.186760E-17	2.967305E-18
1.634133E+03	1.257958E-17	3.138388E-18
1.673990E+03	1.328129E-17	3.305930E-18
1.713847E+03	1.395823E-17	3.466310E-18
1.753704E+03	1.460650E-17	3.618570E-18
1.793561E+03	1.518939E-17	3.753654E-18
1.833418E+03	1.567445E-17	3.863649E-18
1.873275E+03	1.601689E-17	3.937702E-18
1.913132E+03	1.617420E-17	3.965647E-18
1.952989E+03	1.609986E-17	3.936458E-18
1.992846E+03	1.579834E-17	3.851702E-18
2.032703E+03	1.534000E-17	3.728966E-18
2.072560E+03	1.489032E-17	3.608718E-18
2.112416E+03	1.469497E-17	3.550306E-18
2.152273E+03	1.498909E-17	3.609792E-18
2.192130E+03	1.593279E-17	3.824456E-18
2.231987E+03	1.754435E-17	4.197067E-18
2.271844E+03	1.973801E-17	4.705454E-18
2.311701E+03	2.234599E-17	5.308178E-18
2.351558E+03	2.520694E-17	5.965826E-18
2.391415E+03	2.817387E-17	6.642899E-18
2.431272E+03	3.114543E-17	7.315116E-18
2.471129E+03	3.403093E-17	7.961051E-18
2.510986E+03	3.676310E-17	8.565080E-18
2.550842E+03	3.925243E-17	9.106691E-18
2.590699E+03	4.140220E-17	9.564077E-18
2.630556E+03	4.311628E-17	9.916001E-18
2.670413E+03	4.438406E-17	1.016124E-17
2.710270E+03	4.527058E-17	1.031592E-17
2.750127E+03	4.584907E-17	1.039780E-17
2.789984E+03	4.617456E-17	1.042026E-17
2.829841E+03	4.630854E-17	1.039791E-17
2.869698E+03	4.628350E-17	1.033864E-17
2.909555E+03	4.614216E-17	1.025249E-17
2.949412E+03	4.592126E-17	1.014798E-17
2.989269E+03	4.563675E-17	1.002893E-17
2.999233E+03	4.555710E-17	9.997228E-18
3.009197E+03	4.548302E-17	9.966731E-18
3.019161E+03	4.540651E-17	9.935679E-18
3.029125E+03	4.532792E-17	9.904150E-18
3.039090E+03	4.525671E-17	9.874215E-18
3.049054E+03	4.518015E-17	9.843088E-18
3.059018E+03	4.511941E-17	9.815383E-18
3.068982E+03	4.507329E-17	9.790823E-18
3.078947E+03	4.503283E-17	9.767453E-18
3.088911E+03	4.499729E-17	9.745103E-18
3.098875E+03	4.497379E-17	9.725313E-18
3.108839E+03	4.495388E-17	9.706244E-18
3.118803E+03	4.493709E-17	9.687789E-18
3.128768E+03	4.493075E-17	9.671530E-18
3.138732E+03	4.493449E-17	9.657370E-18
3.148696E+03	4.494799E-17	9.645231E-18
3.158660E+03	4.496347E-17	9.633441E-18
3.168625E+03	4.498088E-17	9.621983E-18
3.178589E+03	4.501520E-17	9.614057E-18
3.188553E+03	4.505140E-17	9.606438E-18
3.198517E+03	4.509700E-17	9.600729E-18
3.208482E+03	4.515208E-17	9.596932E-18
3.218446E+03	4.521675E-17	9.595063E-18
3.228410E+03	4.529116E-17	9.595145E-18
3.238374E+03	4.537549E-17	9.597205E-18
3.248338E+03	4.546999E-17	9.601281E-18
3.258303E+03	4.557488E-17	9.607416E-18
3.268267E+03	4.569047E-17	9.615657E-18
3.278231E+03	4.581704E-17	9.626056E-18
3.288195E+03	4.596207E-17	9.640166E-18
3.298160E+03	4.611870E-17	9.656533E-18
3.308124E+03	4.628729E-17	9.675219E-18
3.318088E+03	4.647529E-17	9.697762E-18
3.328052E+03	4.667597E-17	9.722744E-18
3.338017E+03	4.689672E-17	9.751682E-18
3.347981E+03	4.713088E-17	9.783175E-18
3.357945E+03	4.739280E-17	9.820179E-18
3.367909E+03	4.766889E-17	9.859849E-18
3.377873E+03	4.795951E-17	9.902249E-18
3.387838E+03	4.827897E-17	9.950305E-18
3.397802E+03	4.862060E-17	1.000262E-17
3.407766E+03	4.897782E-17	1.005780E-17
3.417730E+03	4.936489E-17	1.011877E-17
3.427695E+03	4.977512E-17	1.018411E-17
3.437659E+03	5.021577E-17	1.025529E-17
3.447623E+03	5.068023E-17	1.033091E-17
3.457587E+03	5.116871E-17	1.041100E-17
3.467551E+03	5.168843E-17	1.049699E-17
3.477516E+03	5.223271E-17	1.058748E-17
3.487480E+03	5.281553E-17	1.068528E-17
3.497444E+03	5.342329E-17	1.078760E-17
3.507408E+03	5.406303E-17	1.089581E-17
3.517373E+03	5.473485E-17	1.100991E-17
3.527337E+03	5.544569E-17	1.113125E-17
3.537301E+03	5.618880E-17	1.125842E-17
3.547265E+03	5.695714E-17	1.138998E-17
3.557230E+03	5.777148E-17	1.153004E-17
3.567194E+03	5.861781E-17	1.167576E-17
3.577158E+03	5.949598E-17	1.182705E-17
3.587122E+03	6.041969E-17	1.198661E-17
3.597086E+03	6.137471E-17	1.215156E-17
3.607051E+03	6.236763E-17	1.232315E-17
3.617015E+03	6.339109E-17	1.249989E-17
3.626979E+03	6.445840E-17	1.268436E-17
3.636943E+03	6.556212E-17	1.287504E-17
3.646908E+03	6.670844E-17	1.307310E-17
3.656872E+03	6.788257E-17	1.327558E-17
3.666836E+03	6.909764E-17	1.348503E-17
3.676800E+03	7.035265E-17	1.370118E-17
3.686765E+03	7.163942E-17	1.392239E-17
3.696729E+03	7.296373E-17	1.414975E-17
3.706693E+03	7.432425E-17	1.438295E-17
3.716657E+03	7.571947E-17	1.462165E-17
3.726621E+03	7.714779E-17	1.486550E-17
3.736586E+03	7.860733E-17	1.511408E-17
3.746550E+03	8.009629E-17	1.536701E-17
3.756514E+03	8.161253E-17	1.562385E-17
3.766478E+03	8.316115E-17	1.588553E-17
3.776443E+03	8.473980E-17	1.615156E-17
3.786407E+03	8.634602E-17	1.642142E-17
3.796371E+03	8.797005E-17	1.669325E-17
3.806335E+03	8.961642E-17	1.696786E-17
3.816299E+03	9.128952E-17	1.724605E-17
3.826264E+03	9.297198E-17	1.752452E-17
3.836228E+03	9.467533E-17	1.780541E-17
3.846192E+03	9.639635E-17	1.808811E-17
3.856156E+03	9.812476E-17	1.837066E-17
3.866121E+03	9.986452E-17	1.865378E-17
3.876085E+03	1.016124E-16	1.893686E-17
3.886049E+03	1.033651E-16	1.921929E-17
3.896013E+03	1.051195E-16	1.950046E-17
3.905978E+03	1.068722E-16	1.977977E-17
3.915942E+03	1.086274E-16	2.005796E-17
3.925906E+03	1.103819E-16	2.033446E-17
3.935870E+03	1.121256E-16	2.060742E-17
3.945834E+03	1.138699E-16	2.087894E-17
3.955799E+03	1.155980E-16	2.114595E-17
3.965763E+03	1.173215E-16	2.141057E-17
3.975727E+03	1.190312E-16	2.167115E-17
3.985691E+03	1.207319E-16	2.192860E-17
3.995656E+03	1.224151E-16	2.218136E-17
4.005620E+03	1.240864E-16	2.243048E-17
4.015584E+03	1.257444E-16	2.267576E-17
4.025548E+03	1.273954E-16	2.291830E-17
4.035513E+03	1.290320E-16	2.315683E-17
4.045477E+03	1.306545E-16	2.339140E-17
4.055441E+03	1.322699E-16	2.362330E-17
4.065405E+03	1.338791E-16	2.385269E-17
4.075369E+03	1.354768E-16	2.407865E-17
4.085334E+03	1.370778E-16	2.430383E-17
4.095298E+03	1.386840E-16	2.452859E-17
4.105262E+03	1.402858E-16	2.475118E-17
4.115226E+03	1.419048E-16	2.497547E-17
4.125191E+03	1.435325E-16	2.519992E-17
4.135155E+03	1.451791E-16	2.542631E-17
4.145119E+03	1.468492E-16	2.565546E-17
4.155083E+03	1.485538E-16	2.588925E-17
4.165047E+03	1.502926E-16	2.612759E-17
4.175012E+03	1.520715E-16	2.637149E-17
4.184976E+03	1.539031E-16	2.662305E-17
4.194940E+03	1.557998E-16	2.688439E-17
4.204904E+03	1.577575E-16	2.715471E-17
4.214869E+03	1.597895E-16	2.743624E-17
4.224833E+03	1.619094E-16	2.773123E-17
4.234797E+03	1.641197E-16	2.804001E-17
4.244761E+03	1.664342E-16	2.836481E-17
4.254726E+03	1.688554E-16	2.870599E-17
4.264690E+03	1.714023E-16	2.906659E-17
4.274654E+03	1.740713E-16	2.944592E-17
4.284618E+03	1.768801E-16	2.984680E-17
4.294582E+03	1.798289E-16	3.026911E-17
4.304547E+03	1.829223E-16	3.071348E-17
4.314511E+03	1.861683E-16	3.118111E-17
4.324475E+03	1.895683E-16	3.167203E-17
4.334439E+03	1.931162E-16	3.218508E-17
4.344404E+03	1.968152E-16	3.272064E-17
4.354368E+03	2.006620E-16	3.327802E-17
4.364332E+03	2.046529E-16	3.385645E-17
4.374296E+03	2.087849E-16	3.445529E-17
4.384261E+03	2.130619E-16	3.507507E-17
4.394225E+03	2.175007E-16	3.571837E-17
4.404189E+03	2.221037E-16	3.638549E-17
4.414153E+03	2.268957E-16	3.708028E-17
4.424117E+03	2.318798E-16	3.780310E-17
4.434082E+03	2.370799E-16	3.855765E-17
4.444046E+03	2.425023E-16	3.934476E-17
4.454010E+03	2.481517E-16	4.016498E-17
4.463974E+03	2.540465E-16	4.102107E-17
4.473939E+03	2.601765E-16	4.191119E-17
4.483903E+03	2.665558E-16	4.283740E-17
4.493867E+03	2.731753E-16	4.379802E-17
4.503831E+03	2.800342E-16	4.479275E-17
4.513795E+03	2.871354E-16	4.582186E-17
4.523760E+03	2.944579E-16	4.688180E-17
4.533724E+03	3.020057E-16	4.797309E-17
4.543688E+03	3.097533E-16	4.909152E-17
4.553652E+03	3.176949E-16	5.023604E-17
4.563617E+03	3.258163E-16	5.140434E-17
4.573581E+03	3.340893E-16	5.259184E-17
4.583545E+03	3.425045E-16	5.379706E-17
4.593509E+03	3.510198E-16	5.501333E-17
4.603474E+03	3.596051E-16	5.623600E-17
4.613438E+03	3.682305E-16	5.746041E-17
4.623402E+03	3.768297E-16	5.867636E-17
4.633366E+03	3.853647E-16	5.987807E-17
4.643330E+03	3.937543E-16	6.105316E-17
4.653295E+03	4.019467E-16	6.219386E-17
4.663259E+03	4.098504E-16	6.328638E-17
4.673223E+03	4.173924E-16	6.431988E-17
4.683187E+03	4.245133E-16	6.528569E-17
4.693152E+03	4.311518E-16	6.617493E-17
4.703116E+03	4.372833E-16	6.698438E-17
4.713080E+03	4.428957E-16	6.771275E-17
4.723044E+03	4.479535E-16	6.835521E-17
4.733008E+03	4.524763E-16	6.891535E-17
4.742973E+03	4.564781E-16	6.939585E-17
4.752937E+03	4.600130E-16	6.980545E-17
4.762901E+03	4.631201E-16	7.015056E-17
4.772865E+03	4.658700E-16	7.044228E-17
4.782830E+03	4.683070E-16	7.068767E-17
4.792794E+03	4.704759E-16	7.089379E-17
4.802758E+03	4.724197E-16	7.106740E-17
4.812722E+03	4.741795E-16	7.121489E-17
4.822687E+03	4.757768E-16	7.133971E-17
4.832651E+03	4.772317E-16	7.144499E-17
4.842615E+03	4.785580E-16	7.153288E-17
4.852579E+03	4.797634E-16	7.160463E-17
4.862543E+03	4.808507E-16	7.166073E-17
4.872508E+03	4.818188E-16	7.170110E-17
4.882472E+03	4.826630E-16	7.172512E-17
4.892436E+03	4.833870E-16	7.173339E-17
4.902400E+03	4.839818E-16	7.172465E-17
4.912365E+03	4.844370E-16	7.169745E-17
4.922329E+03	4.847526E-16	7.165183E-17
4.932293E+03	4.849283E-16	7.158780E-17
4.942257E+03	4.849485E-16	7.150316E-17
4.952222E+03	4.848194E-16	7.139887E-17
4.962186E+03	4.845382E-16	7.127455E-17
4.972150E+03	4.840982E-16	7.112932E-17
4.982114E+03	4.835154E-16	7.096555E-17
4.992078E+03	4.827816E-16	7.078209E-17
5.002043E+03	4.819164E-16	7.058184E-17
5.012007E+03	4.809204E-16	7.036494E-17
5.021971E+03	4.798064E-16	7.013327E-17
5.031935E+03	4.785834E-16	6.988817E-17
5.041900E+03	4.772766E-16	6.963333E-17
5.051864E+03	4.758872E-16	6.936891E-17
5.061828E+03	4.744415E-16	6.909876E-17
5.071792E+03	4.729513E-16	6.882457E-17
5.081756E+03	4.714281E-16	6.854799E-17
5.091721E+03	4.698973E-16	6.827269E-17
5.101685E+03	4.683642E-16	6.799941E-17
5.111649E+03	4.668422E-16	6.773006E-17
5.121613E+03	4.653482E-16	6.746707E-17
5.131578E+03	4.638928E-16	6.721189E-17
5.141542E+03	4.624797E-16	6.696507E-17
5.151506E+03	4.611160E-16	6.672755E-17
5.161470E+03	4.598110E-16	6.650066E-17
5.171435E+03	4.585680E-16	6.628482E-17
5.181399E+03	4.573839E-16	6.607954E-17
5.191363E+03	4.562585E-16	6.588477E-17
5.201327E+03	4.551952E-16	6.570095E-17
5.211291E+03	4.541869E-16	6.552702E-17
5.221256E+03	4.532351E-16	6.536316E-17
5.231220E+03	4.523314E-16	6.520814E-17
5.241184E+03	4.514719E-16	6.506137E-17
5.251148E+03	4.506619E-16	6.492359E-17
5.261113E+03	4.498843E-16	6.479229E-17
5.271077E+03	4.491452E-16	6.466836E-17
5.281041E+03	4.484425E-16	6.455146E-17
5.291005E+03	4.477707E-16	6.444079E-17
5.300970E+03	4.471345E-16	6.433698E-17
5.310934E+03	4.465260E-16	6.423891E-17
5.320898E+03	4.459615E-16	6.414890E-17
5.330862E+03	4.454311E-16	6.406551E-17
5.340826E+03	4.449488E-16	6.399075E-17
5.350791E+03	4.445160E-16	6.392479E-17
5.360755E+03	4.441391E-16	6.386855E-17
5.370719E+03	4.438251E-16	6.382304E-17
5.380683E+03	4.435766E-16	6.378863E-17
5.390648E+03	4.434097E-16	6.376759E-17
5.400612E+03	4.433219E-16	6.375961E-17
5.410576E+03	4.433239E-16	6.376620E-17
5.420540E+03	4.434123E-16	6.378687E-17
5.430504E+03	4.436058E-16	6.382433E-17
5.440469E+03	4.438921E-16	6.387681E-17
5.450433E+03	4.442914E-16	6.394722E-17
5.460397E+03	4.447990E-16	6.403491E-17
5.470361E+03	4.454271E-16	6.414165E-17
5.480326E+03	4.461884E-16	6.426929E-17
5.490290E+03	4.470813E-16	6.441763E-17
5.500254E+03	4.481153E-16	6.458805E-17
5.510218E+03	4.492978E-16	6.478166E-17
5.520183E+03	4.506472E-16	6.500115E-17
5.530147E+03	4.521684E-16	6.524728E-17
5.540111E+03	4.538751E-16	6.552208E-17
5.550075E+03	4.557753E-16	6.582673E-17
5.560039E+03	4.578713E-16	6.616160E-17
5.570004E+03	4.601687E-16	6.652756E-17
5.579968E+03	4.626678E-16	6.692468E-17
5.589932E+03	4.653775E-16	6.735431E-17
5.599896E+03	4.682974E-16	6.781645E-17
5.609861E+03	4.714321E-16	6.831180E-17
5.619825E+03	4.747773E-16	6.883983E-17
5.629789E+03	4.783395E-16	6.940154E-17
5.639753E+03	4.821308E-16	6.999876E-17
5.649718E+03	4.861466E-16	7.063089E-17
5.659682E+03	4.904072E-16	7.130101E-17
5.669646E+03	4.949121E-16	7.200909E-17
5.679610E+03	4.996807E-16	7.275809E-17
5.689574E+03	5.047257E-16	7.354995E-17
5.699539E+03	5.100611E-16	7.438684E-17
5.709503E+03	5.157027E-16	7.527118E-17
5.719467E+03	5.216722E-16	7.620629E-17
5.729431E+03	5.279824E-16	7.719421E-17
5.739396E+03	5.346614E-16	7.823918E-17
5.749360E+03	5.417272E-16	7.934405E-17
5.759324E+03	5.491923E-16	8.051081E-17
5.769288E+03	5.570779E-16	8.174279E-17
5.779252E+03	5.653986E-16	8.304235E-17
5.789217E+03	5.741664E-16	8.441149E-17
5.799181E+03	5.833909E-16	8.585186E-17
5.809145E+03	5.930836E-16	8.736541E-17
5.819109E+03	6.032421E-16	8.895204E-17
5.829074E+03	6.138654E-16	9.061188E-17
5.839038E+03	6.249596E-16	9.234611E-17
5.849002E+03	6.365056E-16	9.415218E-17
5.858966E+03	6.484911E-16	9.602857E-17
5.868931E+03	6.609112E-16	9.797482E-17
5.878895E+03	6.737314E-16	9.998612E-17
5.888859E+03	6.869475E-16	1.020621E-16
5.898823E+03	7.005244E-16	1.041978E-16
5.908787E+03	7.144447E-16	1.063910E-16
5.918752E+03	7.286759E-16	1.086369E-16
5.928716E+03	7.431994E-16	1.109332E-16
5.938680E+03	7.579825E-16	1.132752E-16
5.948644E+03	7.730072E-16	1.156604E-16
5.958609E+03	7.882340E-16	1.180831E-16
5.968573E+03	8.036523E-16	1.205419E-16
5.978537E+03	8.192229E-16	1.230312E-16
5.988501E+03	8.349340E-16	1.255493E-16
5.998466E+03	8.507443E-16	1.280903E-16
6.008430E+03	8.666323E-16	1.306510E-16
6.018394E+03	8.825655E-16	1.332267E-16
6.028358E+03	8.984912E-16	1.358095E-16
6.038322E+03	9.143891E-16	1.383965E-16
6.048287E+03	9.301863E-16	1.409767E-16
6.058251E+03	9.458371E-16	1.435432E-16
6.068215E+03	9.612626E-16	1.460841E-16
6.078179E+03	9.763776E-16	1.485863E-16
6.088144E+03	9.910792E-16	1.510340E-16
6.098108E+03	1.005255E-15	1.534101E-16
6.108072E+03	1.018755E-15	1.556911E-16
6.118036E+03	1.031409E-15	1.578510E-16
6.128000E+03	1.043040E-15	1.598618E-16
6.137965E+03	1.053431E-15	1.616899E-16
6.147929E+03	1.062354E-15	1.632994E-16
6.157893E+03	1.069577E-15	1.646537E-16
6.167857E+03	1.074861E-15	1.657147E-16
6.177822E+03	1.078135E-15	1.664703E-16
6.187786E+03	1.079586E-15	1.669481E-16
6.197750E+03	1.079445E-15	1.671825E-16
6.207714E+03	1.077922E-15	1.672049E-16
6.217679E+03	1.075255E-15	1.670513E-16
6.227643E+03	1.071674E-15	1.667569E-16
6.237607E+03	1.067373E-15	1.663509E-16
6.247571E+03	1.062564E-15	1.658660E-16
6.257535E+03	1.057440E-15	1.653320E-16
6.267500E+03	1.052181E-15	1.647765E-16
6.277464E+03	1.046949E-15	1.642250E-16
6.287428E+03	1.041914E-15	1.637038E-16
6.297392E+03	1.037227E-15	1.632370E-16
6.307357E+03	1.033033E-15	1.628475E-16
6.317321E+03	1.029477E-15	1.625587E-16
6.327285E+03	1.026677E-15	1.623894E-16
6.337249E+03	1.024767E-15	1.623614E-16
6.347214E+03	1.023833E-15	1.624892E-16
6.357178E+03	1.023987E-15	1.627912E-16
6.367142E+03	1.025296E-15	1.632789E-16
6.377106E+03	1.027829E-15	1.639643E-16
6.387070E+03	1.031620E-15	1.648538E-16
6.397035E+03	1.036701E-15	1.659534E-16
6.406999E+03	1.043049E-15	1.672604E-16
6.416963E+03	1.050657E-15	1.687750E-16
6.426927E+03	1.059452E-15	1.704862E-16
6.436892E+03	1.069341E-15	1.723802E-16
6.446856E+03	1.080219E-15	1.744408E-16
6.456820E+03	1.091933E-15	1.766442E-16
6.466784E+03	1.104274E-15	1.789573E-16
6.476748E+03	1.117037E-15	1.813472E-16
6.486713E+03	1.129965E-15	1.837726E-16
6.496677E+03	1.142767E-15	1.861860E-16
6.506641E+03	1.155152E-15	1.885401E-16
6.516605E+03	1.166794E-15	1.907811E-16
6.526570E+03	1.177386E-15	1.928578E-16
6.536534E+03	1.186586E-15	1.947137E-16
6.546498E+03	1.194107E-15	1.962997E-16
6.556462E+03	1.199667E-15	1.975684E-16
6.566427E+03	1.203012E-15	1.984759E-16
6.576391E+03	1.203929E-15	1.989850E-16
6.586355E+03	1.202280E-15	1.990706E-16
6.596319E+03	1.197960E-15	1.987131E-16
6.606283E+03	1.190925E-15	1.979024E-16
6.616248E+03	1.181215E-15	1.966432E-16
6.626212E+03	1.168909E-15	1.949458E-16
6.636176E+03	1.154161E-15	1.928337E-16
6.646140E+03	1.137130E-15	1.903313E-16
6.656105E+03	1.118084E-15	1.874813E-16
6.666069E+03	1.097256E-15	1.843210E-16
6.676033E+03	1.074943E-15	1.808986E-16
6.685997E+03	1.051445E-15	1.772634E-16
6.695961E+03	1.027064E-15	1.734652E-16
6.705926E+03	1.002082E-15	1.695511E-16
6.715890E+03	9.767841E-16	1.655684E-16
6.725854E+03	9.514313E-16	1.615614E-16
6.735818E+03	9.262544E-16	1.575691E-16
6.745783E+03	9.014762E-16	1.536297E-16
6.755747E+03	8.772831E-16	1.497753E-16
6.765711E+03	8.538231E-16	1.460317E-16
6.775675E+03	8.312275E-16	1.424220E-16
6.785640E+03	8.096004E-16	1.389650E-16
6.795604E+03	7.890147E-16	1.356739E-16
6.805568E+03	7.695470E-16	1.325629E-16
6.815532E+03	7.512206E-16	1.296370E-16
6.825496E+03	7.340594E-16	1.269015E-16
6.835461E+03	7.180735E-16	1.243591E-16
6.845425E+03	7.032689E-16	1.220119E-16
6.855389E+03	6.896262E-16	1.198576E-16
6.865353E+03	6.771187E-16	1.178926E-16
6.875318E+03	6.657292E-16	1.161150E-16
6.885282E+03	6.554281E-16	1.145207E-16
6.895246E+03	6.461753E-16	1.131035E-16
6.905210E+03	6.379434E-16	1.118597E-16
6.915175E+03	6.306885E-16	1.107825E-16
6.925139E+03	6.243738E-16	1.098664E-16
6.935103E+03	6.189623E-16	1.091056E-16
6.945067E+03	6.144169E-16	1.084944E-16
6.955031E+03	6.107012E-16	1.080272E-16
6.964996E+03	6.077726E-16	1.076973E-16
6.974960E+03	6.056036E-16	1.075004E-16
6.984924E+03	6.041534E-16	1.074301E-16
6.994888E+03	6.033968E-16	1.074825E-16
7.004853E+03	6.032957E-16	1.076513E-16
7.014817E+03	6.038269E-16	1.079333E-16
7.024781E+03	6.049479E-16	1.083211E-16
7.034745E+03	6.066381E-16	1.088119E-16
7.044709E+03	6.088712E-16	1.094012E-16
7.054674E+03	6.116220E-16	1.100852E-16
7.064638E+03	6.148588E-16	1.108585E-16
7.074602E+03	6.185655E-16	1.117188E-16
7.084566E+03	6.227189E-16	1.126623E-16
7.094531E+03	6.272892E-16	1.136839E-16
7.104495E+03	6.322537E-16	1.147800E-16
7.114459E+03	6.375893E-16	1.159467E-16
7.124423E+03	6.432726E-16	1.171802E-16
7.134388E+03	6.492872E-16	1.184777E-16
7.144352E+03	6.555915E-16	1.198320E-16
7.154316E+03	6.621664E-16	1.212398E-16
7.164280E+03	6.689826E-16	1.226961E-16
7.174244E+03	6.760092E-16	1.241954E-16
7.184209E+03	6.832043E-16	1.257301E-16
7.194173E+03	6.905407E-16	1.272955E-16
7.204137E+03	6.979717E-16	1.288831E-16
7.214101E+03	7.054659E-16	1.304871E-16
7.224066E+03	7.129725E-16	1.320982E-16
7.234030E+03	7.204479E-16	1.337083E-16
7.243994E+03	7.278562E-16	1.353108E-16
7.253958E+03	7.351431E-16	1.368955E-16
7.263923E+03	7.422633E-16	1.384538E-16
7.273887E+03	7.491620E-16	1.399754E-16
7.283851E+03	7.558140E-16	1.414553E-16
7.293815E+03	7.621676E-16	1.428836E-16
7.303779E+03	7.681818E-16	1.442524E-16
7.313744E+03	7.738181E-16	1.455541E-16
7.323708E+03	7.790407E-16	1.467817E-16
7.333672E+03	7.838153E-16	1.479282E-16
7.343636E+03	7.881105E-16	1.489874E-16
7.353601E+03	7.918862E-16	1.499512E-16
7.363565E+03	7.951345E-16	1.508177E-16
7.373529E+03	7.978171E-16	1.515790E-16
7.383493E+03	7.999067E-16	1.522294E-16
7.393457E+03	8.013853E-16	1.527651E-16
7.403422E+03	8.022132E-16	1.531778E-16
7.413386E+03	8.023704E-16	1.534630E-16
7.423350E+03	8.018144E-16	1.536121E-16
7.433314E+03	8.005348E-16	1.536223E-16
7.443279E+03	7.984809E-16	1.534833E-16
7.453243E+03	7.956497E-16	1.531937E-16
7.463207E+03	7.920162E-16	1.527479E-16
7.473171E+03	7.875804E-16	1.521452E-16
7.483136E+03	7.823610E-16	1.513884E-16
7.493100E+03	7.764155E-16	1.504878E-16
7.503064E+03	7.698698E-16	1.494671E-16
7.513028E+03	7.628737E-16	1.483549E-16
7.522992E+03	7.555609E-16	1.471767E-16
7.532957E+03	7.480725E-16	1.459598E-16
7.542921E+03	7.405503E-16	1.447316E-16
7.552885E+03	7.330930E-16	1.435115E-16
7.562849E+03	7.258226E-16	1.423234E-16
7.572814E+03	7.188141E-16	1.411821E-16
7.582778E+03	7.121445E-16	1.401031E-16
7.592742E+03	7.058443E-16	1.390926E-16
7.602706E+03	6.999773E-16	1.381637E-16
7.612671E+03	6.945439E-16	1.373168E-16
7.622635E+03	6.895510E-16	1.365536E-16
7.632599E+03	6.850039E-16	1.358757E-16
7.642563E+03	6.808881E-16	1.352805E-16
7.652527E+03	6.771804E-16	1.347639E-16
7.662492E+03	6.738418E-16	1.343184E-16
7.672456E+03	6.708550E-16	1.339409E-16
7.682420E+03	6.681708E-16	1.336221E-16
7.692384E+03	6.657550E-16	1.333551E-16
7.702349E+03	6.635523E-16	1.331293E-16
7.712313E+03	6.615163E-16	1.329355E-16
7.722277E+03	6.596099E-16	1.327664E-16
7.732241E+03	6.577875E-16	1.326128E-16
