#wls	flux	fluxerr
1.594277E+03	2.147162E-17	3.879791E-18
1.634133E+03	2.281937E-17	4.103004E-18
1.673990E+03	2.415271E-17	4.320656E-18
1.713847E+03	2.547129E-17	4.532613E-18
1.753704E+03	2.673233E-17	4.731236E-18
1.793561E+03	2.788315E-17	4.907310E-18
1.833418E+03	2.887259E-17	5.052109E-18
1.873275E+03	2.959395E-17	5.147473E-18
1.913132E+03	2.996442E-17	5.179851E-18
1.952989E+03	2.990998E-17	5.137611E-18
1.992846E+03	2.942359E-17	5.020940E-18
2.032703E+03	2.863122E-17	4.852675E-18
2.072560E+03	2.783882E-17	4.685422E-18
2.112416E+03	2.749751E-17	4.594617E-18
2.152273E+03	2.806299E-17	4.654211E-18
2.192130E+03	2.982580E-17	4.908571E-18
2.231987E+03	3.282311E-17	5.359013E-18
2.271844E+03	3.686830E-17	5.970182E-18
2.311701E+03	4.165375E-17	6.688084E-18
2.351558E+03	4.685955E-17	7.458278E-18
2.391415E+03	5.222053E-17	8.236637E-18
2.431272E+03	5.752949E-17	8.989559E-18
2.471129E+03	6.268591E-17	9.701161E-18
2.510986E+03	6.758133E-17	1.035495E-17
2.550842E+03	7.211186E-17	1.093586E-17
2.590699E+03	7.621293E-17	1.143539E-17
2.630556E+03	7.973689E-17	1.183326E-17
2.670413E+03	8.268879E-17	1.213264E-17
2.710270E+03	8.513824E-17	1.234616E-17
2.750127E+03	8.716930E-17	1.248815E-17
2.789984E+03	8.880932E-17	1.256442E-17
2.829841E+03	9.009336E-17	1.258177E-17
2.869698E+03	9.109024E-17	1.255145E-17
2.909555E+03	9.180760E-17	1.247595E-17
2.949412E+03	9.229425E-17	1.236330E-17
2.989269E+03	9.260142E-17	1.222152E-17
2.999233E+03	9.265838E-17	1.218272E-17
3.009197E+03	9.271965E-17	1.214420E-17
3.019161E+03	9.274875E-17	1.210120E-17
3.029125E+03	9.280182E-17	1.206106E-17
3.039090E+03	9.282636E-17	1.201695E-17
3.049054E+03	9.288417E-17	1.197688E-17
3.059018E+03	9.293129E-17	1.193515E-17
3.068982E+03	9.300182E-17	1.189614E-17
3.078947E+03	9.309384E-17	1.185956E-17
3.088911E+03	9.320564E-17	1.182518E-17
3.098875E+03	9.330031E-17	1.178829E-17
3.108839E+03	9.343001E-17	1.175548E-17
3.118803E+03	9.355845E-17	1.172214E-17
3.128768E+03	9.370255E-17	1.169040E-17
3.138732E+03	9.386169E-17	1.166014E-17
3.148696E+03	9.401822E-17	1.162916E-17
3.158660E+03	9.420654E-17	1.160170E-17
3.168625E+03	9.439210E-17	1.157346E-17
3.178589E+03	9.459226E-17	1.154658E-17
3.188553E+03	9.479030E-17	1.151899E-17
3.198517E+03	9.502050E-17	1.149484E-17
3.208482E+03	9.526639E-17	1.147210E-17
3.218446E+03	9.551179E-17	1.144880E-17
3.228410E+03	9.579093E-17	1.142901E-17
3.238374E+03	9.608782E-17	1.141080E-17
3.248338E+03	9.640344E-17	1.139423E-17
3.258303E+03	9.673872E-17	1.137938E-17
3.268267E+03	9.711105E-17	1.136826E-17
3.278231E+03	9.748898E-17	1.135714E-17
3.288195E+03	9.790626E-17	1.134991E-17
3.298160E+03	9.836401E-17	1.134664E-17
3.308124E+03	9.883134E-17	1.134371E-17
3.318088E+03	9.935783E-17	1.134675E-17
3.328052E+03	9.989676E-17	1.135037E-17
3.338017E+03	1.004975E-16	1.136011E-17
3.347981E+03	1.011297E-16	1.137244E-17
3.357945E+03	1.017950E-16	1.138749E-17
3.367909E+03	1.025263E-16	1.140887E-17
3.377873E+03	1.032938E-16	1.143315E-17
3.387838E+03	1.041147E-16	1.146216E-17
3.397802E+03	1.049907E-16	1.149597E-17
3.407766E+03	1.059388E-16	1.153635E-17
3.417730E+03	1.069295E-16	1.157995E-17
3.427695E+03	1.079798E-16	1.162854E-17
3.437659E+03	1.091069E-16	1.168383E-17
3.447623E+03	1.102968E-16	1.174418E-17
3.457587E+03	1.115508E-16	1.180962E-17
3.467551E+03	1.128860E-16	1.188182E-17
3.477516E+03	1.142881E-16	1.195913E-17
3.487480E+03	1.157741E-16	1.204317E-17
3.497444E+03	1.173295E-16	1.213231E-17
3.507408E+03	1.189711E-16	1.222811E-17
3.517373E+03	1.207156E-16	1.233212E-17
3.527337E+03	1.225328E-16	1.244106E-17
3.537301E+03	1.244392E-16	1.255645E-17
3.547265E+03	1.264354E-16	1.267819E-17
3.557230E+03	1.285222E-16	1.280616E-17
3.567194E+03	1.307158E-16	1.294178E-17
3.577158E+03	1.330010E-16	1.308335E-17
3.587122E+03	1.353936E-16	1.323223E-17
3.597086E+03	1.378779E-16	1.338666E-17
3.607051E+03	1.404697E-16	1.354799E-17
3.617015E+03	1.431526E-16	1.371442E-17
3.626979E+03	1.459582E-16	1.388879E-17
3.636943E+03	1.488536E-16	1.406770E-17
3.646908E+03	1.518538E-16	1.425240E-17
3.656872E+03	1.549739E-16	1.444406E-17
3.666836E+03	1.581960E-16	1.464079E-17
3.676800E+03	1.615183E-16	1.484219E-17
3.686765E+03	1.649550E-16	1.504937E-17
3.696729E+03	1.684872E-16	1.526035E-17
3.706693E+03	1.721285E-16	1.547616E-17
3.716657E+03	1.758758E-16	1.569630E-17
3.726621E+03	1.797257E-16	1.592023E-17
3.736586E+03	1.836740E-16	1.614737E-17
3.746550E+03	1.876994E-16	1.637564E-17
3.756514E+03	1.918484E-16	1.660890E-17
3.766478E+03	1.960643E-16	1.684202E-17
3.776443E+03	2.003933E-16	1.707879E-17
3.786407E+03	2.047775E-16	1.731407E-17
3.796371E+03	2.092626E-16	1.755156E-17
3.806335E+03	2.138245E-16	1.778905E-17
3.816299E+03	2.184387E-16	1.802434E-17
3.826264E+03	2.231325E-16	1.825955E-17
3.836228E+03	2.278806E-16	1.849246E-17
3.846192E+03	2.326928E-16	1.872371E-17
3.856156E+03	2.375428E-16	1.895109E-17
3.866121E+03	2.424221E-16	1.917383E-17
3.876085E+03	2.473574E-16	1.939396E-17
3.886049E+03	2.523220E-16	1.960928E-17
3.896013E+03	2.572892E-16	1.981767E-17
3.905978E+03	2.622856E-16	2.002114E-17
3.915942E+03	2.673020E-16	2.021894E-17
3.925906E+03	2.723119E-16	2.040905E-17
3.935870E+03	2.773067E-16	2.059084E-17
3.945834E+03	2.823133E-16	2.076631E-17
3.955799E+03	2.872881E-16	2.093227E-17
3.965763E+03	2.922411E-16	2.108952E-17
3.975727E+03	2.971822E-16	2.123881E-17
3.985691E+03	3.020873E-16	2.137847E-17
3.995656E+03	3.069672E-16	2.150934E-17
4.005620E+03	3.117991E-16	2.162992E-17
4.015584E+03	3.165951E-16	2.174113E-17
4.025548E+03	3.213510E-16	2.184280E-17
4.035513E+03	3.260631E-16	2.193478E-17
4.045477E+03	3.307456E-16	2.201810E-17
4.055441E+03	3.353630E-16	2.209055E-17
4.065405E+03	3.399478E-16	2.215437E-17
4.075369E+03	3.444997E-16	2.220966E-17
4.085334E+03	3.490193E-16	2.225655E-17
4.095298E+03	3.534921E-16	2.229423E-17
4.105262E+03	3.579368E-16	2.232399E-17
4.115226E+03	3.623571E-16	2.234617E-17
4.125191E+03	3.667732E-16	2.236207E-17
4.135155E+03	3.711589E-16	2.237017E-17
4.145119E+03	3.755673E-16	2.237376E-17
4.155083E+03	3.799592E-16	2.237051E-17
4.165047E+03	3.843890E-16	2.236369E-17
4.175012E+03	3.888204E-16	2.235117E-17
4.184976E+03	3.933090E-16	2.233617E-17
4.194940E+03	3.978514E-16	2.231845E-17
4.204904E+03	4.024605E-16	2.229867E-17
4.214869E+03	4.071365E-16	2.227677E-17
4.224833E+03	4.119248E-16	2.225515E-17
4.234797E+03	4.168295E-16	2.223386E-17
4.244761E+03	4.218719E-16	2.221388E-17
4.254726E+03	4.270903E-16	2.219700E-17
4.264690E+03	4.324984E-16	2.218366E-17
4.274654E+03	4.381423E-16	2.217591E-17
4.284618E+03	4.440457E-16	2.217455E-17
4.294582E+03	4.502519E-16	2.218133E-17
4.304547E+03	4.568379E-16	2.219948E-17
4.314511E+03	4.638337E-16	2.222983E-17
4.324475E+03	4.713038E-16	2.227474E-17
4.334439E+03	4.793455E-16	2.233797E-17
4.344404E+03	4.880195E-16	2.242135E-17
4.354368E+03	4.973855E-16	2.252653E-17
4.364332E+03	5.075352E-16	2.265646E-17
4.374296E+03	5.185091E-16	2.281161E-17
4.384261E+03	5.303482E-16	2.299243E-17
4.394225E+03	5.430798E-16	2.319870E-17
4.404189E+03	5.567283E-16	2.343004E-17
4.414153E+03	5.712898E-16	2.368491E-17
4.424117E+03	5.867239E-16	2.396030E-17
4.434082E+03	6.030528E-16	2.425589E-17
4.444046E+03	6.202440E-16	2.456918E-17
4.454010E+03	6.382648E-16	2.489780E-17
4.463974E+03	6.571111E-16	2.524061E-17
4.473939E+03	6.767815E-16	2.559664E-17
4.483903E+03	6.972334E-16	2.596346E-17
4.493867E+03	7.184676E-16	2.634039E-17
4.503831E+03	7.404590E-16	2.672588E-17
4.513795E+03	7.632096E-16	2.711947E-17
4.523760E+03	7.866925E-16	2.751976E-17
4.533724E+03	8.108958E-16	2.792599E-17
4.543688E+03	8.357847E-16	2.833670E-17
4.553652E+03	8.613680E-16	2.875197E-17
4.563617E+03	8.875867E-16	2.916971E-17
4.573581E+03	9.144253E-16	2.958942E-17
4.583545E+03	9.418141E-16	3.000898E-17
4.593509E+03	9.697076E-16	3.042723E-17
4.603474E+03	9.980507E-16	3.084287E-17
4.613438E+03	1.026742E-15	3.125339E-17
4.623402E+03	1.055680E-15	3.165645E-17
4.633366E+03	1.084755E-15	3.204979E-17
4.643330E+03	1.113790E-15	3.242942E-17
4.653295E+03	1.142574E-15	3.279071E-17
4.663259E+03	1.170821E-15	3.312726E-17
4.673223E+03	1.198117E-15	3.342960E-17
4.683187E+03	1.223897E-15	3.368471E-17
4.693152E+03	1.247490E-15	3.387750E-17
4.703116E+03	1.268210E-15	3.399332E-17
4.713080E+03	1.285755E-15	3.402845E-17
4.723044E+03	1.300308E-15	3.399204E-17
4.733008E+03	1.312368E-15	3.390087E-17
4.742973E+03	1.322381E-15	3.376962E-17
4.752937E+03	1.330702E-15	3.360985E-17
4.762901E+03	1.337548E-15	3.342916E-17
4.772865E+03	1.343131E-15	3.323461E-17
4.782830E+03	1.347560E-15	3.303040E-17
4.792794E+03	1.350927E-15	3.282007E-17
4.802758E+03	1.353302E-15	3.260644E-17
4.812722E+03	1.354743E-15	3.239150E-17
4.822687E+03	1.355306E-15	3.217636E-17
4.832651E+03	1.355042E-15	3.196176E-17
4.842615E+03	1.353997E-15	3.174817E-17
4.852579E+03	1.352197E-15	3.153553E-17
4.862543E+03	1.349680E-15	3.132394E-17
4.872508E+03	1.346497E-15	3.111376E-17
4.882472E+03	1.342650E-15	3.090408E-17
4.892436E+03	1.338184E-15	3.069503E-17
4.902400E+03	1.333129E-15	3.048629E-17
4.912365E+03	1.327526E-15	3.027784E-17
4.922329E+03	1.321402E-15	3.006926E-17
4.932293E+03	1.314782E-15	2.986016E-17
4.942257E+03	1.307719E-15	2.965072E-17
4.952222E+03	1.300251E-15	2.944087E-17
4.962186E+03	1.292389E-15	2.922989E-17
4.972150E+03	1.284195E-15	2.901831E-17
4.982114E+03	1.275694E-15	2.880581E-17
4.992078E+03	1.266934E-15	2.859264E-17
5.002043E+03	1.257935E-15	2.837852E-17
5.012007E+03	1.248770E-15	2.816437E-17
5.021971E+03	1.239434E-15	2.794936E-17
5.031935E+03	1.229996E-15	2.773447E-17
5.041900E+03	1.220485E-15	2.751979E-17
5.051864E+03	1.210942E-15	2.730571E-17
5.061828E+03	1.201379E-15	2.709208E-17
5.071792E+03	1.191858E-15	2.687987E-17
5.081756E+03	1.182388E-15	2.666894E-17
5.091721E+03	1.172999E-15	2.645968E-17
5.101685E+03	1.163733E-15	2.625276E-17
5.111649E+03	1.154602E-15	2.604825E-17
5.121613E+03	1.145628E-15	2.584654E-17
5.131578E+03	1.136831E-15	2.564791E-17
5.141542E+03	1.128229E-15	2.545269E-17
5.151506E+03	1.119833E-15	2.526116E-17
5.161470E+03	1.111644E-15	2.507329E-17
5.171435E+03	1.103682E-15	2.488958E-17
5.181399E+03	1.095952E-15	2.471024E-17
5.191363E+03	1.088457E-15	2.453544E-17
5.201327E+03	1.081199E-15	2.436537E-17
5.211291E+03	1.074165E-15	2.419995E-17
5.221256E+03	1.067366E-15	2.403958E-17
5.231220E+03	1.060786E-15	2.388418E-17
5.241184E+03	1.054443E-15	2.373441E-17
5.251148E+03	1.048310E-15	2.358996E-17
5.261113E+03	1.042381E-15	2.345105E-17
5.271077E+03	1.036662E-15	2.331815E-17
5.281041E+03	1.031147E-15	2.319149E-17
5.291005E+03	1.025821E-15	2.307117E-17
5.300970E+03	1.020680E-15	2.295751E-17
5.310934E+03	1.015731E-15	2.285113E-17
5.320898E+03	1.010962E-15	2.275224E-17
5.330862E+03	1.006373E-15	2.266135E-17
5.340826E+03	1.001956E-15	2.257876E-17
5.350791E+03	9.977241E-16	2.250535E-17
5.360755E+03	9.936823E-16	2.244176E-17
5.370719E+03	9.898282E-16	2.238850E-17
5.380683E+03	9.861600E-16	2.234611E-17
5.390648E+03	9.826968E-16	2.231563E-17
5.400612E+03	9.794469E-16	2.229783E-17
5.410576E+03	9.763971E-16	2.229303E-17
5.420540E+03	9.735607E-16	2.230214E-17
5.430504E+03	9.709224E-16	2.232542E-17
5.440469E+03	9.684693E-16	2.236319E-17
5.450433E+03	9.661653E-16	2.241520E-17
5.460397E+03	9.639764E-16	2.248124E-17
5.470361E+03	9.618692E-16	2.256108E-17
5.480326E+03	9.598759E-16	2.265598E-17
5.490290E+03	9.580712E-16	2.276823E-17
5.500254E+03	9.565650E-16	2.290084E-17
5.510218E+03	9.554510E-16	2.305594E-17
5.520183E+03	9.548345E-16	2.323587E-17
5.530147E+03	9.547617E-16	2.344160E-17
5.540111E+03	9.552817E-16	2.367426E-17
5.550075E+03	9.564395E-16	2.393493E-17
5.560039E+03	9.582504E-16	2.422400E-17
5.570004E+03	9.607307E-16	2.454196E-17
5.579968E+03	9.638891E-16	2.488914E-17
5.589932E+03	9.677217E-16	2.526558E-17
5.599896E+03	9.722384E-16	2.567173E-17
5.609861E+03	9.774284E-16	2.610751E-17
5.619825E+03	9.832878E-16	2.657307E-17
5.629789E+03	9.898027E-16	2.706829E-17
5.639753E+03	9.969682E-16	2.759332E-17
5.649718E+03	1.004779E-15	2.814831E-17
5.659682E+03	1.013219E-15	2.873315E-17
5.669646E+03	1.022275E-15	2.934777E-17
5.679610E+03	1.031950E-15	2.999264E-17
5.689574E+03	1.042223E-15	3.066742E-17
5.699539E+03	1.053088E-15	3.137237E-17
5.709503E+03	1.064543E-15	3.210776E-17
5.719467E+03	1.076574E-15	3.287355E-17
5.729431E+03	1.089169E-15	3.366976E-17
5.739396E+03	1.102315E-15	3.449631E-17
5.749360E+03	1.116020E-15	3.535387E-17
5.759324E+03	1.130259E-15	3.624201E-17
5.769288E+03	1.145020E-15	3.716068E-17
5.779252E+03	1.160307E-15	3.811044E-17
5.789217E+03	1.176096E-15	3.909080E-17
5.799181E+03	1.192369E-15	4.010154E-17
5.809145E+03	1.209120E-15	4.114277E-17
5.819109E+03	1.226319E-15	4.221377E-17
5.829074E+03	1.243968E-15	4.331494E-17
5.839038E+03	1.262046E-15	4.444583E-17
5.849002E+03	1.280519E-15	4.560552E-17
5.858966E+03	1.299377E-15	4.679386E-17
5.868931E+03	1.318608E-15	4.801067E-17
5.878895E+03	1.338175E-15	4.925480E-17
5.888859E+03	1.358055E-15	5.052555E-17
5.898823E+03	1.378248E-15	5.182308E-17
5.908787E+03	1.398705E-15	5.314570E-17
5.918752E+03	1.419427E-15	5.449357E-17
5.928716E+03	1.440407E-15	5.586645E-17
5.938680E+03	1.461596E-15	5.726258E-17
5.948644E+03	1.483001E-15	5.868222E-17
5.958609E+03	1.504587E-15	6.012410E-17
5.968573E+03	1.526364E-15	6.158858E-17
5.978537E+03	1.548313E-15	6.307495E-17
5.988501E+03	1.570416E-15	6.458247E-17
5.998466E+03	1.592667E-15	6.611088E-17
6.008430E+03	1.615044E-15	6.765930E-17
6.018394E+03	1.637536E-15	6.922722E-17
6.028358E+03	1.660128E-15	7.081393E-17
6.038322E+03	1.682778E-15	7.241770E-17
6.048287E+03	1.705468E-15	7.403757E-17
6.058251E+03	1.728133E-15	7.567060E-17
6.068215E+03	1.750702E-15	7.731355E-17
6.078179E+03	1.773078E-15	7.896189E-17
6.088144E+03	1.795151E-15	8.061031E-17
6.098108E+03	1.816734E-15	8.224992E-17
6.108072E+03	1.837621E-15	8.387067E-17
6.118036E+03	1.857523E-15	8.545848E-17
6.128000E+03	1.876088E-15	8.699589E-17
6.137965E+03	1.892853E-15	8.845971E-17
6.147929E+03	1.907286E-15	8.982292E-17
6.157893E+03	1.918752E-15	9.105289E-17
6.167857E+03	1.926774E-15	9.212357E-17
6.177822E+03	1.931295E-15	9.302859E-17
6.187786E+03	1.932699E-15	9.378297E-17
6.197750E+03	1.931648E-15	9.441569E-17
6.207714E+03	1.928755E-15	9.495454E-17
6.217679E+03	1.924627E-15	9.542775E-17
6.227643E+03	1.919711E-15	9.585630E-17
6.237607E+03	1.914387E-15	9.625848E-17
6.247571E+03	1.909003E-15	9.665138E-17
6.257535E+03	1.903781E-15	9.704610E-17
6.267500E+03	1.898963E-15	9.745523E-17
6.277464E+03	1.894685E-15	9.788605E-17
6.287428E+03	1.891118E-15	9.834794E-17
6.297392E+03	1.888352E-15	9.884632E-17
6.307357E+03	1.886472E-15	9.938640E-17
6.317321E+03	1.885544E-15	9.997241E-17
6.327285E+03	1.885610E-15	1.006076E-16
6.337249E+03	1.886699E-15	1.012944E-16
6.347214E+03	1.888839E-15	1.020352E-16
6.357178E+03	1.892008E-15	1.028298E-16
6.367142E+03	1.896201E-15	1.036790E-16
6.377106E+03	1.901362E-15	1.045804E-16
6.387070E+03	1.907454E-15	1.055329E-16
6.397035E+03	1.914386E-15	1.065324E-16
6.406999E+03	1.922087E-15	1.075754E-16
6.416963E+03	1.930449E-15	1.086567E-16
6.426927E+03	1.939330E-15	1.097685E-16
6.436892E+03	1.948585E-15	1.109032E-16
6.446856E+03	1.958076E-15	1.120531E-16
6.456820E+03	1.967608E-15	1.132070E-16
6.466784E+03	1.976993E-15	1.143541E-16
6.476748E+03	1.986051E-15	1.154836E-16
6.486713E+03	1.994594E-15	1.165843E-16
6.496677E+03	2.002388E-15	1.176417E-16
6.506641E+03	2.009259E-15	1.186449E-16
6.516605E+03	2.015033E-15	1.195826E-16
6.526570E+03	2.019463E-15	1.204391E-16
6.536534E+03	2.022437E-15	1.212065E-16
6.546498E+03	2.023752E-15	1.218713E-16
6.556462E+03	2.023269E-15	1.224236E-16
6.566427E+03	2.020892E-15	1.228560E-16
6.576391E+03	2.016467E-15	1.231576E-16
6.586355E+03	2.009977E-15	1.233255E-16
6.596319E+03	2.001368E-15	1.233548E-16
6.606283E+03	1.990624E-15	1.232428E-16
6.616248E+03	1.977758E-15	1.229886E-16
6.626212E+03	1.962837E-15	1.225948E-16
6.636176E+03	1.945939E-15	1.220647E-16
6.646140E+03	1.927189E-15	1.214048E-16
6.656105E+03	1.906699E-15	1.206207E-16
6.666069E+03	1.884640E-15	1.197222E-16
6.676033E+03	1.861186E-15	1.187193E-16
6.685997E+03	1.836520E-15	1.176227E-16
6.695961E+03	1.810838E-15	1.164444E-16
6.705926E+03	1.784341E-15	1.151968E-16
6.715890E+03	1.757252E-15	1.138939E-16
6.725854E+03	1.729733E-15	1.125459E-16
6.735818E+03	1.702017E-15	1.111681E-16
6.745783E+03	1.674275E-15	1.097716E-16
6.755747E+03	1.646683E-15	1.083683E-16
6.765711E+03	1.619409E-15	1.069696E-16
6.775675E+03	1.592604E-15	1.055859E-16
6.785640E+03	1.566407E-15	1.042271E-16
6.795604E+03	1.540942E-15	1.029020E-16
6.805568E+03	1.516317E-15	1.016187E-16
6.815532E+03	1.492610E-15	1.003831E-16
6.825496E+03	1.469919E-15	9.920274E-17
6.835461E+03	1.448311E-15	9.808296E-17
6.845425E+03	1.427808E-15	9.702628E-17
6.855389E+03	1.408502E-15	9.603987E-17
6.865353E+03	1.390376E-15	9.512360E-17
6.875318E+03	1.373471E-15	9.428116E-17
6.885282E+03	1.357817E-15	9.351567E-17
6.895246E+03	1.343390E-15	9.282640E-17
6.905210E+03	1.330190E-15	9.221437E-17
6.915175E+03	1.318226E-15	9.168121E-17
6.925139E+03	1.307491E-15	9.122728E-17
6.935103E+03	1.297952E-15	9.085129E-17
6.945067E+03	1.289592E-15	9.055294E-17
6.955031E+03	1.282391E-15	9.033167E-17
6.964996E+03	1.276324E-15	9.018673E-17
6.974960E+03	1.271365E-15	9.011706E-17
6.984924E+03	1.267472E-15	9.012052E-17
6.994888E+03	1.264632E-15	9.019693E-17
7.004853E+03	1.262814E-15	9.034501E-17
7.014817E+03	1.261956E-15	9.056101E-17
7.024781E+03	1.262057E-15	9.084557E-17
7.034745E+03	1.263069E-15	9.119606E-17
7.044709E+03	1.264942E-15	9.160956E-17
7.054674E+03	1.267673E-15	9.208651E-17
7.064638E+03	1.271197E-15	9.262286E-17
7.074602E+03	1.275477E-15	9.321648E-17
7.084566E+03	1.280492E-15	9.386660E-17
7.094531E+03	1.286205E-15	9.457104E-17
7.104495E+03	1.292544E-15	9.532512E-17
7.114459E+03	1.299502E-15	9.612892E-17
7.124423E+03	1.307022E-15	9.697870E-17
7.134388E+03	1.315045E-15	9.787064E-17
7.144352E+03	1.323559E-15	9.880437E-17
7.154316E+03	1.332487E-15	9.977455E-17
7.164280E+03	1.341797E-15	1.007794E-16
7.174244E+03	1.351425E-15	1.018143E-16
7.184209E+03	1.361336E-15	1.028772E-16
7.194173E+03	1.371462E-15	1.039633E-16
7.204137E+03	1.381766E-15	1.050701E-16
7.214101E+03	1.392176E-15	1.061925E-16
7.224066E+03	1.402635E-15	1.073263E-16
7.234030E+03	1.413087E-15	1.084677E-16
7.243994E+03	1.423491E-15	1.096135E-16
7.253958E+03	1.433750E-15	1.107566E-16
7.263923E+03	1.443845E-15	1.118955E-16
7.273887E+03	1.453696E-15	1.130243E-16
7.283851E+03	1.463244E-15	1.141382E-16
7.293815E+03	1.472430E-15	1.152329E-16
7.303779E+03	1.481198E-15	1.163036E-16
7.313744E+03	1.489490E-15	1.173460E-16
7.323708E+03	1.497272E-15	1.183570E-16
7.333672E+03	1.504471E-15	1.193309E-16
7.343636E+03	1.511038E-15	1.202634E-16
7.353601E+03	1.516945E-15	1.211520E-16
7.363565E+03	1.522129E-15	1.219914E-16
7.373529E+03	1.526592E-15	1.227814E-16
7.383493E+03	1.530255E-15	1.235152E-16
7.393457E+03	1.533132E-15	1.241934E-16
7.403422E+03	1.535173E-15	1.248115E-16
7.413386E+03	1.536358E-15	1.253673E-16
7.423350E+03	1.536708E-15	1.258619E-16
7.433314E+03	1.536163E-15	1.262899E-16
7.443279E+03	1.534743E-15	1.266522E-16
7.453243E+03	1.532399E-15	1.269440E-16
7.463207E+03	1.529108E-15	1.271625E-16
7.473171E+03	1.524778E-15	1.272988E-16
7.483136E+03	1.519422E-15	1.273529E-16
7.493100E+03	1.513043E-15	1.273240E-16
7.503064E+03	1.505814E-15	1.272252E-16
7.513028E+03	1.497851E-15	1.270654E-16
7.522992E+03	1.489302E-15	1.268564E-16
7.532957E+03	1.480315E-15	1.266099E-16
7.542921E+03	1.470976E-15	1.263325E-16
7.552885E+03	1.461397E-15	1.260334E-16
7.562849E+03	1.451643E-15	1.257177E-16
7.572814E+03	1.441783E-15	1.253911E-16
7.582778E+03	1.431906E-15	1.250608E-16
7.592742E+03	1.422046E-15	1.247298E-16
7.602706E+03	1.412251E-15	1.244020E-16
7.612671E+03	1.402582E-15	1.240826E-16
7.622635E+03	1.393050E-15	1.237726E-16
7.632599E+03	1.383701E-15	1.234761E-16
7.642563E+03	1.374531E-15	1.231926E-16
7.652527E+03	1.365569E-15	1.229249E-16
7.662492E+03	1.356818E-15	1.226733E-16
7.672456E+03	1.348255E-15	1.224357E-16
7.682420E+03	1.339912E-15	1.222150E-16
7.692384E+03	1.331756E-15	1.220085E-16
7.702349E+03	1.323753E-15	1.218129E-16
7.712313E+03	1.315919E-15	1.216298E-16
7.722277E+03	1.308236E-15	1.214576E-16
7.732241E+03	1.300641E-15	1.212904E-16
