#wls	flux	fluxerr
1.594277E+03	6.460455E-18	5.606237E-19
1.634133E+03	6.854547E-18	5.924294E-19
1.673990E+03	7.240224E-18	6.231735E-19
1.713847E+03	7.616445E-18	6.527648E-19
1.753704E+03	7.972353E-18	6.802761E-19
1.793561E+03	8.297979E-18	7.048725E-19
1.833418E+03	8.569337E-18	7.245506E-19
1.873275E+03	8.764971E-18	7.375600E-19
1.913132E+03	8.861966E-18	7.420665E-19
1.952989E+03	8.836112E-18	7.361707E-19
1.992846E+03	8.691700E-18	7.203832E-19
2.032703E+03	8.464742E-18	6.978294E-19
2.072560E+03	8.246154E-18	6.760782E-19
2.112416E+03	8.170149E-18	6.660653E-19
2.152273E+03	8.374256E-18	6.787404E-19
2.192130E+03	8.952145E-18	7.212445E-19
2.231987E+03	9.921313E-18	7.944155E-19
2.271844E+03	1.123774E-17	8.941364E-19
2.311701E+03	1.281526E-17	1.013022E-18
2.351558E+03	1.456197E-17	1.143397E-18
2.391415E+03	1.640067E-17	1.278908E-18
2.431272E+03	1.826506E-17	1.414210E-18
2.471129E+03	2.011003E-17	1.545722E-18
2.510986E+03	2.189709E-17	1.670471E-18
2.550842E+03	2.359394E-17	1.786046E-18
2.590699E+03	2.517378E-17	1.890528E-18
2.630556E+03	2.661709E-17	1.982611E-18
2.670413E+03	2.791959E-17	2.062173E-18
2.710270E+03	2.907861E-17	2.129231E-18
2.750127E+03	3.011565E-17	2.185572E-18
2.789984E+03	3.104387E-17	2.232337E-18
2.829841E+03	3.189019E-17	2.271622E-18
2.869698E+03	3.267786E-17	2.305197E-18
2.909555E+03	3.344042E-17	2.335492E-18
2.949412E+03	3.420015E-17	2.364069E-18
2.989269E+03	3.497819E-17	2.392348E-18
2.999233E+03	3.517874E-17	2.399578E-18
3.009197E+03	3.538486E-17	2.407085E-18
3.019161E+03	3.559686E-17	2.414886E-18
3.029125E+03	3.580994E-17	2.422650E-18
3.039090E+03	3.602517E-17	2.430449E-18
3.049054E+03	3.625561E-17	2.439161E-18
3.059018E+03	3.649010E-17	2.448028E-18
3.068982E+03	3.674331E-17	2.458027E-18
3.078947E+03	3.700440E-17	2.468425E-18
3.088911E+03	3.727800E-17	2.479525E-18
3.098875E+03	3.756362E-17	2.491285E-18
3.108839E+03	3.786086E-17	2.503672E-18
3.118803E+03	3.816433E-17	2.516323E-18
3.128768E+03	3.847886E-17	2.529551E-18
3.138732E+03	3.880427E-17	2.543338E-18
3.148696E+03	3.914039E-17	2.557664E-18
3.158660E+03	3.948718E-17	2.572520E-18
3.168625E+03	3.984453E-17	2.587891E-18
3.178589E+03	4.020725E-17	2.603436E-18
3.188553E+03	4.058574E-17	2.619820E-18
3.198517E+03	4.096966E-17	2.636369E-18
3.208482E+03	4.136957E-17	2.653755E-18
3.218446E+03	4.177509E-17	2.671303E-18
3.228410E+03	4.219687E-17	2.689689E-18
3.238374E+03	4.262988E-17	2.708581E-18
3.248338E+03	4.307429E-17	2.727984E-18
3.258303E+03	4.353036E-17	2.747904E-18
3.268267E+03	4.400361E-17	2.768681E-18
3.278231E+03	4.448374E-17	2.789659E-18
3.288195E+03	4.498162E-17	2.811510E-18
3.298160E+03	4.549228E-17	2.833912E-18
3.308124E+03	4.602141E-17	2.857210E-18
3.318088E+03	4.656397E-17	2.881080E-18
3.328052E+03	4.712025E-17	2.905528E-18
3.338017E+03	4.769611E-17	2.930906E-18
3.347981E+03	4.828643E-17	2.956887E-18
3.357945E+03	4.889708E-17	2.983817E-18
3.367909E+03	4.952295E-17	3.011372E-18
3.377873E+03	5.016991E-17	3.039896E-18
3.387838E+03	5.083839E-17	3.069401E-18
3.397802E+03	5.152329E-17	3.099563E-18
3.407766E+03	5.223046E-17	3.130722E-18
3.417730E+03	5.296039E-17	3.162891E-18
3.427695E+03	5.370783E-17	3.195740E-18
3.437659E+03	5.448439E-17	3.229945E-18
3.447623E+03	5.527921E-17	3.264845E-18
3.457587E+03	5.609826E-17	3.300776E-18
3.467551E+03	5.694194E-17	3.337743E-18
3.477516E+03	5.781634E-17	3.376086E-18
3.487480E+03	5.871026E-17	3.415129E-18
3.497444E+03	5.962979E-17	3.455211E-18
3.507408E+03	6.058102E-17	3.496664E-18
3.517373E+03	6.155840E-17	3.539146E-18
3.527337E+03	6.256214E-17	3.582649E-18
3.537301E+03	6.359237E-17	3.627162E-18
3.547265E+03	6.465529E-17	3.673015E-18
3.557230E+03	6.574503E-17	3.719853E-18
3.567194E+03	6.686160E-17	3.767655E-18
3.577158E+03	6.801115E-17	3.816747E-18
3.587122E+03	6.919365E-17	3.867102E-18
3.597086E+03	7.040289E-17	3.918350E-18
3.607051E+03	7.164492E-17	3.970804E-18
3.617015E+03	7.291326E-17	4.024083E-18
3.626979E+03	7.422023E-17	4.078843E-18
3.636943E+03	7.555289E-17	4.134347E-18
3.646908E+03	7.691709E-17	4.190892E-18
3.656872E+03	7.831231E-17	4.248428E-18
3.666836E+03	7.973797E-17	4.306898E-18
3.676800E+03	8.118680E-17	4.365888E-18
3.686765E+03	8.267101E-17	4.426032E-18
3.696729E+03	8.418971E-17	4.487256E-18
3.706693E+03	8.572868E-17	4.548779E-18
3.716657E+03	8.729330E-17	4.610869E-18
3.726621E+03	8.888888E-17	4.673784E-18
3.736586E+03	9.050732E-17	4.737075E-18
3.746550E+03	9.215376E-17	4.800993E-18
3.756514E+03	9.381971E-17	4.865074E-18
3.766478E+03	9.550998E-17	4.929552E-18
3.776443E+03	9.721571E-17	4.993951E-18
3.786407E+03	9.893456E-17	5.058139E-18
3.796371E+03	1.006779E-16	5.122684E-18
3.806335E+03	1.024294E-16	5.186735E-18
3.816299E+03	1.041931E-16	5.250495E-18
3.826264E+03	1.059660E-16	5.313802E-18
3.836228E+03	1.077450E-16	5.376490E-18
3.846192E+03	1.095197E-16	5.438036E-18
3.856156E+03	1.113006E-16	5.498964E-18
3.866121E+03	1.130768E-16	5.558734E-18
3.876085E+03	1.148373E-16	5.616810E-18
3.886049E+03	1.165921E-16	5.673687E-18
3.896013E+03	1.183369E-16	5.729161E-18
3.905978E+03	1.200529E-16	5.782338E-18
3.915942E+03	1.217496E-16	5.833689E-18
3.925906E+03	1.234151E-16	5.882662E-18
3.935870E+03	1.250442E-16	5.929038E-18
3.945834E+03	1.266389E-16	5.972939E-18
3.955799E+03	1.281940E-16	6.014143E-18
3.965763E+03	1.296973E-16	6.052109E-18
3.975727E+03	1.311434E-16	6.086637E-18
3.985691E+03	1.325346E-16	6.117872E-18
3.995656E+03	1.338665E-16	6.145655E-18
4.005620E+03	1.351285E-16	6.169545E-18
4.015584E+03	1.363251E-16	6.189803E-18
4.025548E+03	1.374550E-16	6.206426E-18
4.035513E+03	1.385185E-16	6.219475E-18
4.045477E+03	1.395103E-16	6.228769E-18
4.055441E+03	1.404398E-16	6.234781E-18
4.065405E+03	1.413106E-16	6.237717E-18
4.075369E+03	1.421265E-16	6.237797E-18
4.085334E+03	1.428919E-16	6.235253E-18
4.095298E+03	1.436047E-16	6.230036E-18
4.105262E+03	1.442822E-16	6.222939E-18
4.115226E+03	1.449157E-16	6.213616E-18
4.125191E+03	1.455218E-16	6.202813E-18
4.135155E+03	1.460915E-16	6.190170E-18
4.145119E+03	1.466344E-16	6.176125E-18
4.155083E+03	1.471538E-16	6.160840E-18
4.165047E+03	1.476535E-16	6.144498E-18
4.175012E+03	1.481384E-16	6.127315E-18
4.184976E+03	1.486088E-16	6.109324E-18
4.194940E+03	1.490848E-16	6.091359E-18
4.204904E+03	1.495651E-16	6.073369E-18
4.214869E+03	1.500681E-16	6.056098E-18
4.224833E+03	1.506082E-16	6.040111E-18
4.234797E+03	1.512012E-16	6.026011E-18
4.244761E+03	1.518578E-16	6.014195E-18
4.254726E+03	1.525997E-16	6.005468E-18
4.264690E+03	1.534417E-16	6.000352E-18
4.274654E+03	1.543913E-16	5.999076E-18
4.284618E+03	1.554594E-16	6.001979E-18
4.294582E+03	1.566593E-16	6.009490E-18
4.304547E+03	1.579905E-16	6.021507E-18
4.314511E+03	1.594608E-16	6.038228E-18
4.324475E+03	1.610646E-16	6.059354E-18
4.334439E+03	1.627999E-16	6.084717E-18
4.344404E+03	1.646628E-16	6.114085E-18
4.354368E+03	1.666486E-16	6.147200E-18
4.364332E+03	1.687529E-16	6.183825E-18
4.374296E+03	1.709696E-16	6.223663E-18
4.384261E+03	1.733102E-16	6.267063E-18
4.394225E+03	1.757887E-16	6.314443E-18
4.404189E+03	1.784224E-16	6.366343E-18
4.414153E+03	1.812194E-16	6.422949E-18
4.424117E+03	1.842077E-16	6.485148E-18
4.434082E+03	1.873991E-16	6.553231E-18
4.444046E+03	1.908092E-16	6.627618E-18
4.454010E+03	1.944467E-16	6.708475E-18
4.463974E+03	1.983337E-16	6.796415E-18
4.473939E+03	2.024677E-16	6.891208E-18
4.483903E+03	2.068527E-16	6.992836E-18
4.493867E+03	2.114937E-16	7.101311E-18
4.503831E+03	2.163797E-16	7.216118E-18
4.513795E+03	2.214940E-16	7.336557E-18
4.523760E+03	2.268296E-16	7.462267E-18
4.533724E+03	2.323490E-16	7.591904E-18
4.543688E+03	2.380219E-16	7.724385E-18
4.553652E+03	2.437949E-16	7.857914E-18
4.563617E+03	2.496136E-16	7.990716E-18
4.573581E+03	2.553936E-16	8.120111E-18
4.583545E+03	2.610572E-16	8.243695E-18
4.593509E+03	2.665124E-16	8.358692E-18
4.603474E+03	2.716622E-16	8.462248E-18
4.613438E+03	2.764029E-16	8.551378E-18
4.623402E+03	2.806408E-16	8.623491E-18
4.633366E+03	2.842906E-16	8.676329E-18
4.643330E+03	2.872801E-16	8.708094E-18
4.653295E+03	2.895539E-16	8.717552E-18
4.663259E+03	2.910775E-16	8.704133E-18
4.673223E+03	2.918293E-16	8.667663E-18
4.683187E+03	2.918409E-16	8.609559E-18
4.693152E+03	2.911588E-16	8.531633E-18
4.703116E+03	2.898714E-16	8.436880E-18
4.713080E+03	2.881027E-16	8.329237E-18
4.723044E+03	2.860001E-16	8.213220E-18
4.733008E+03	2.837410E-16	8.094078E-18
4.742973E+03	2.814968E-16	7.976756E-18
4.752937E+03	2.794393E-16	7.866078E-18
4.762901E+03	2.777309E-16	7.766471E-18
4.772865E+03	2.764966E-16	7.681217E-18
4.782830E+03	2.758529E-16	7.613267E-18
4.792794E+03	2.758791E-16	7.564481E-18
4.802758E+03	2.766391E-16	7.536228E-18
4.812722E+03	2.781660E-16	7.529005E-18
4.822687E+03	2.804582E-16	7.542365E-18
4.832651E+03	2.835116E-16	7.575796E-18
4.842615E+03	2.872848E-16	7.627815E-18
4.852579E+03	2.917213E-16	7.696565E-18
4.862543E+03	2.967396E-16	7.779592E-18
4.872508E+03	3.022563E-16	7.874446E-18
4.882472E+03	3.081517E-16	7.977789E-18
4.892436E+03	3.143084E-16	8.086441E-18
4.902400E+03	3.205896E-16	8.196789E-18
4.912365E+03	3.268632E-16	8.305436E-18
4.922329E+03	3.329834E-16	8.408717E-18
4.932293E+03	3.388128E-16	8.503272E-18
4.942257E+03	3.441999E-16	8.585473E-18
4.952222E+03	3.489961E-16	8.651849E-18
4.962186E+03	3.530582E-16	8.699154E-18
4.972150E+03	3.562326E-16	8.723960E-18
4.982114E+03	3.584067E-16	8.723931E-18
4.992078E+03	3.594854E-16	8.697212E-18
5.002043E+03	3.594316E-16	8.643387E-18
5.012007E+03	3.582772E-16	8.563707E-18
5.021971E+03	3.561087E-16	8.460694E-18
5.031935E+03	3.530715E-16	8.338205E-18
5.041900E+03	3.493721E-16	8.201439E-18
5.051864E+03	3.452316E-16	8.055823E-18
5.061828E+03	3.408684E-16	7.906585E-18
5.071792E+03	3.365133E-16	7.759122E-18
5.081756E+03	3.323612E-16	7.617881E-18
5.091721E+03	3.285853E-16	7.486709E-18
5.101685E+03	3.253326E-16	7.368767E-18
5.111649E+03	3.227073E-16	7.266180E-18
5.121613E+03	3.207906E-16	7.180502E-18
5.131578E+03	3.196210E-16	7.112306E-18
5.141542E+03	3.192146E-16	7.061651E-18
5.151506E+03	3.195467E-16	7.027695E-18
5.161470E+03	3.205725E-16	7.009175E-18
5.171435E+03	3.222152E-16	7.004164E-18
5.181399E+03	3.243756E-16	7.010293E-18
5.191363E+03	3.269384E-16	7.024901E-18
5.201327E+03	3.297809E-16	7.045234E-18
5.211291E+03	3.327830E-16	7.068653E-18
5.221256E+03	3.358347E-16	7.092798E-18
5.231220E+03	3.388416E-16	7.115686E-18
5.241184E+03	3.417250E-16	7.135712E-18
5.251148E+03	3.444250E-16	7.151699E-18
5.261113E+03	3.468867E-16	7.162604E-18
5.271077E+03	3.490551E-16	7.167398E-18
5.281041E+03	3.508803E-16	7.165192E-18
5.291005E+03	3.523214E-16	7.155291E-18
5.300970E+03	3.533184E-16	7.136636E-18
5.310934E+03	3.538294E-16	7.108551E-18
5.320898E+03	3.538166E-16	7.070461E-18
5.330862E+03	3.532578E-16	7.022111E-18
5.340826E+03	3.521521E-16	6.963673E-18
5.350791E+03	3.505242E-16	6.895814E-18
5.360755E+03	3.484301E-16	6.819805E-18
5.370719E+03	3.459365E-16	6.737089E-18
5.380683E+03	3.431511E-16	6.649881E-18
5.390648E+03	3.401645E-16	6.560019E-18
5.400612E+03	3.370937E-16	6.469803E-18
5.410576E+03	3.340461E-16	6.381316E-18
5.420540E+03	3.311247E-16	6.296509E-18
5.430504E+03	3.284423E-16	6.217489E-18
5.440469E+03	3.261077E-16	6.146248E-18
5.450433E+03	3.242428E-16	6.084994E-18
5.460397E+03	3.229642E-16	6.035798E-18
5.470361E+03	3.223616E-16	6.000210E-18
5.480326E+03	3.224809E-16	5.978938E-18
5.490290E+03	3.232764E-16	5.971007E-18
5.500254E+03	3.246593E-16	5.974666E-18
5.510218E+03	3.265054E-16	5.987550E-18
5.520183E+03	3.286942E-16	6.007359E-18
5.530147E+03	3.310904E-16	6.031550E-18
5.540111E+03	3.335801E-16	6.057994E-18
5.550075E+03	3.360513E-16	6.084630E-18
5.560039E+03	3.384130E-16	6.109793E-18
5.570004E+03	3.405606E-16	6.131595E-18
5.579968E+03	3.423992E-16	6.148336E-18
5.589932E+03	3.438467E-16	6.158564E-18
5.599896E+03	3.448162E-16	6.160745E-18
5.609861E+03	3.452474E-16	6.153835E-18
5.619825E+03	3.451060E-16	6.137254E-18
5.629789E+03	3.443710E-16	6.110659E-18
5.639753E+03	3.430428E-16	6.074087E-18
5.649718E+03	3.411373E-16	6.027845E-18
5.659682E+03	3.386632E-16	5.972103E-18
5.669646E+03	3.356451E-16	5.907312E-18
5.679610E+03	3.320905E-16	5.833617E-18
5.689574E+03	3.280249E-16	5.751480E-18
5.699539E+03	3.234705E-16	5.661292E-18
5.709503E+03	3.184875E-16	5.564116E-18
5.719467E+03	3.131724E-16	5.461638E-18
5.729431E+03	3.076867E-16	5.356663E-18
5.739396E+03	3.022487E-16	5.252968E-18
5.749360E+03	2.971405E-16	5.155413E-18
5.759324E+03	2.926862E-16	5.069557E-18
5.769288E+03	2.892193E-16	5.001086E-18
5.779252E+03	2.870641E-16	4.955491E-18
5.789217E+03	2.864887E-16	4.937259E-18
5.799181E+03	2.877161E-16	4.950072E-18
5.809145E+03	2.908993E-16	4.996389E-18
5.819109E+03	2.961398E-16	5.077760E-18
5.829074E+03	3.034555E-16	5.194301E-18
5.839038E+03	3.127812E-16	5.344697E-18
5.849002E+03	3.239458E-16	5.525835E-18
5.858966E+03	3.366718E-16	5.732807E-18
5.868931E+03	3.505549E-16	5.958582E-18
5.878895E+03	3.650851E-16	6.194381E-18
5.888859E+03	3.796463E-16	6.429692E-18
5.898823E+03	3.935837E-16	6.653425E-18
5.908787E+03	4.062265E-16	6.854301E-18
5.918752E+03	4.169856E-16	7.022510E-18
5.928716E+03	4.254001E-16	7.150475E-18
5.938680E+03	4.312077E-16	7.234019E-18
5.948644E+03	4.343472E-16	7.272372E-18
5.958609E+03	4.349646E-16	7.268243E-18
5.968573E+03	4.333756E-16	7.227158E-18
5.978537E+03	4.300455E-16	7.157095E-18
5.988501E+03	4.255146E-16	7.067224E-18
5.998466E+03	4.203909E-16	6.967758E-18
6.008430E+03	4.152925E-16	6.869009E-18
6.018394E+03	4.108119E-16	6.780770E-18
6.028358E+03	4.075163E-16	6.712344E-18
6.038322E+03	4.059012E-16	6.671780E-18
6.048287E+03	4.063782E-16	6.665676E-18
6.058251E+03	4.092912E-16	6.699478E-18
6.068215E+03	4.148989E-16	6.777191E-18
6.078179E+03	4.233758E-16	6.901421E-18
6.088144E+03	4.347987E-16	7.073171E-18
6.098108E+03	4.491142E-16	7.291334E-18
6.108072E+03	4.660814E-16	7.551781E-18
6.118036E+03	4.852112E-16	7.846423E-18
6.128000E+03	5.056640E-16	8.161591E-18
6.137965E+03	5.261732E-16	8.476854E-18
6.147929E+03	5.450218E-16	8.764710E-18
6.157893E+03	5.602401E-16	8.993794E-18
6.167857E+03	5.701580E-16	9.137761E-18
6.177822E+03	5.742900E-16	9.189365E-18
6.187786E+03	5.735831E-16	9.164267E-18
6.197750E+03	5.697396E-16	9.090038E-18
6.207714E+03	5.644641E-16	8.994102E-18
6.217679E+03	5.590864E-16	8.897759E-18
6.227643E+03	5.544881E-16	8.815070E-18
6.237607E+03	5.511187E-16	8.753178E-18
6.247571E+03	5.490558E-16	8.713310E-18
6.257535E+03	5.481355E-16	8.692876E-18
6.267500E+03	5.479864E-16	8.686014E-18
6.277464E+03	5.481215E-16	8.685062E-18
6.287428E+03	5.479675E-16	8.681005E-18
6.297392E+03	5.469383E-16	8.664629E-18
6.307357E+03	5.444988E-16	8.627516E-18
6.317321E+03	5.402260E-16	8.562995E-18
6.327285E+03	5.338880E-16	8.467383E-18
6.337249E+03	5.255140E-16	8.341090E-18
6.347214E+03	5.154171E-16	8.188984E-18
6.357178E+03	5.042506E-16	8.021251E-18
6.367142E+03	4.929570E-16	7.852665E-18
6.377106E+03	4.827321E-16	7.702115E-18
6.387070E+03	4.749809E-16	7.591980E-18
6.397035E+03	4.712427E-16	7.546986E-18
6.406999E+03	4.731612E-16	7.593785E-18
6.416963E+03	4.824924E-16	7.761145E-18
6.426927E+03	5.011225E-16	8.080288E-18
6.436892E+03	5.311303E-16	8.585952E-18
6.446856E+03	5.747814E-16	9.316378E-18
6.456820E+03	6.345015E-16	1.031293E-17
6.466784E+03	7.126393E-16	1.161630E-17
6.476748E+03	8.111182E-16	1.326082E-17
6.486713E+03	9.309114E-16	1.526574E-17
6.496677E+03	1.071440E-15	1.762511E-17
6.506641E+03	1.230087E-15	2.029931E-17
6.516605E+03	1.402079E-15	2.321254E-17
6.526570E+03	1.580793E-15	2.625726E-17
6.536534E+03	1.758421E-15	2.930471E-17
6.546498E+03	1.926785E-15	3.221811E-17
6.556462E+03	2.077891E-15	3.486189E-17
6.566427E+03	2.204218E-15	3.710647E-17
6.576391E+03	2.298982E-15	3.883294E-17
6.586355E+03	2.356492E-15	3.993923E-17
6.596319E+03	2.372723E-15	4.035030E-17
6.606283E+03	2.346121E-15	4.003224E-17
6.616248E+03	2.278191E-15	3.900326E-17
6.626212E+03	2.173795E-15	3.733963E-17
6.636176E+03	2.040686E-15	3.516859E-17
6.646140E+03	1.888265E-15	3.264776E-17
6.656105E+03	1.726405E-15	2.994524E-17
6.666069E+03	1.563972E-15	2.721380E-17
6.676033E+03	1.408091E-15	2.457794E-17
6.685997E+03	1.263640E-15	2.212431E-17
6.695961E+03	1.133419E-15	1.990418E-17
6.705926E+03	1.018457E-15	1.793819E-17
6.715890E+03	9.185572E-16	1.622547E-17
6.725854E+03	8.327167E-16	1.475080E-17
6.735818E+03	7.595205E-16	1.349137E-17
6.745783E+03	6.974308E-16	1.242185E-17
6.755747E+03	6.449270E-16	1.151684E-17
6.765711E+03	6.005747E-16	1.075217E-17
6.775675E+03	5.631141E-16	1.010648E-17
6.785640E+03	5.314196E-16	9.560552E-18
6.795604E+03	5.045247E-16	9.097809E-18
6.805568E+03	4.816111E-16	8.704156E-18
6.815532E+03	4.619809E-16	8.367520E-18
6.825496E+03	4.450660E-16	8.078045E-18
6.835461E+03	4.304150E-16	7.827894E-18
6.845425E+03	4.176625E-16	7.610715E-18
6.855389E+03	4.065355E-16	7.421773E-18
6.865353E+03	3.968230E-16	7.257427E-18
6.875318E+03	3.883653E-16	7.114924E-18
6.885282E+03	3.810577E-16	6.992506E-18
6.895246E+03	3.748272E-16	6.888968E-18
6.905210E+03	3.696278E-16	6.803587E-18
6.915175E+03	3.654272E-16	6.735883E-18
6.925139E+03	3.622127E-16	6.685731E-18
6.935103E+03	3.599711E-16	6.652980E-18
6.945067E+03	3.586826E-16	6.637361E-18
6.955031E+03	3.583365E-16	6.638760E-18
6.964996E+03	3.588973E-16	6.656599E-18
6.974960E+03	3.603389E-16	6.690467E-18
6.984924E+03	3.626055E-16	6.739397E-18
6.994888E+03	3.656372E-16	6.802341E-18
7.004853E+03	3.693411E-16	6.877626E-18
7.014817E+03	3.736086E-16	6.963283E-18
7.024781E+03	3.782815E-16	7.056408E-18
7.034745E+03	3.831935E-16	7.153940E-18
7.044709E+03	3.881414E-16	7.252119E-18
7.054674E+03	3.929353E-16	7.347428E-18
7.064638E+03	3.974000E-16	7.436613E-18
7.074602E+03	4.014019E-16	7.517195E-18
7.084566E+03	4.048632E-16	7.587741E-18
7.094531E+03	4.077940E-16	7.648461E-18
7.104495E+03	4.102832E-16	7.701048E-18
7.114459E+03	4.125013E-16	7.748739E-18
7.124423E+03	4.146890E-16	7.796103E-18
7.134388E+03	4.171305E-16	7.848541E-18
7.144352E+03	4.201424E-16	7.912089E-18
7.154316E+03	4.240206E-16	7.992419E-18
7.164280E+03	4.290402E-16	8.094836E-18
7.174244E+03	4.353912E-16	8.223070E-18
7.184209E+03	4.431930E-16	8.379547E-18
7.194173E+03	4.524790E-16	8.565090E-18
7.204137E+03	4.631492E-16	8.778013E-18
7.214101E+03	4.749982E-16	9.014650E-18
7.224066E+03	4.877117E-16	9.269257E-18
7.234030E+03	5.008578E-16	9.533846E-18
7.243994E+03	5.139457E-16	9.799268E-18
7.253958E+03	5.264078E-16	1.005486E-17
7.263923E+03	5.377161E-16	1.029064E-17
7.273887E+03	5.473859E-16	1.049737E-17
7.283851E+03	5.550288E-16	1.066758E-17
7.293815E+03	5.604032E-16	1.079653E-17
7.303779E+03	5.634341E-16	1.088260E-17
7.313744E+03	5.641945E-16	1.092701E-17
7.323708E+03	5.629255E-16	1.093419E-17
7.333672E+03	5.599772E-16	1.091071E-17
7.343636E+03	5.557893E-16	1.086493E-17
7.353601E+03	5.508294E-16	1.080582E-17
7.363565E+03	5.454984E-16	1.074117E-17
7.373529E+03	5.400826E-16	1.067657E-17
7.383493E+03	5.346929E-16	1.061423E-17
7.393457E+03	5.292032E-16	1.055165E-17
7.403422E+03	5.233324E-16	1.048319E-17
7.413386E+03	5.166428E-16	1.039991E-17
7.423350E+03	5.087366E-16	1.029351E-17
7.433314E+03	4.992986E-16	1.015714E-17
7.443279E+03	4.881882E-16	9.987343E-18
7.453243E+03	4.754590E-16	9.784516E-18
7.463207E+03	4.613184E-16	9.552149E-18
7.473171E+03	4.461322E-16	9.297035E-18
7.483136E+03	4.303010E-16	9.026850E-18
7.493100E+03	4.141725E-16	8.748350E-18
7.503064E+03	3.980715E-16	8.467996E-18
7.513028E+03	3.823243E-16	8.192483E-18
7.522992E+03	3.673128E-16	7.929916E-18
7.532957E+03	3.534321E-16	7.688965E-18
7.542921E+03	3.410401E-16	7.477781E-18
7.552885E+03	3.304022E-16	7.302763E-18
7.562849E+03	3.216966E-16	7.168610E-18
7.572814E+03	3.150173E-16	7.078319E-18
7.582778E+03	3.103958E-16	7.033596E-18
7.592742E+03	3.078037E-16	7.034869E-18
7.602706E+03	3.071815E-16	7.081875E-18
7.612671E+03	3.084416E-16	7.173709E-18
7.622635E+03	3.114782E-16	7.309014E-18
7.632599E+03	3.161547E-16	7.485661E-18
7.642563E+03	3.223179E-16	7.701042E-18
7.652527E+03	3.297933E-16	7.951944E-18
7.662492E+03	3.383928E-16	8.234697E-18
7.672456E+03	3.479030E-16	8.544856E-18
7.682420E+03	3.581054E-16	8.877682E-18
7.692384E+03	3.687836E-16	9.228295E-18
7.702349E+03	3.797101E-16	9.591344E-18
7.712313E+03	3.906625E-16	9.961385E-18
7.722277E+03	4.014199E-16	1.033281E-17
7.732241E+03	4.117440E-16	1.069933E-17
