#wls	flux	fluxerr
1.594277E+03	3.426365E-18	6.091894E-19
1.634133E+03	3.597827E-18	6.363519E-19
1.673990E+03	3.760280E-18	6.615405E-19
1.713847E+03	3.912406E-18	6.845401E-19
1.753704E+03	4.048509E-18	7.043790E-19
1.793561E+03	4.162978E-18	7.201245E-19
1.833418E+03	4.246780E-18	7.302803E-19
1.873275E+03	4.289376E-18	7.331328E-19
1.913132E+03	4.281419E-18	7.272191E-19
1.952989E+03	4.212971E-18	7.110227E-19
1.992846E+03	4.088948E-18	6.855677E-19
2.032703E+03	3.928301E-18	6.542014E-19
2.072560E+03	3.774419E-18	6.242331E-19
2.112416E+03	3.687937E-18	6.056058E-19
2.152273E+03	3.728695E-18	6.078418E-19
2.192130E+03	3.931154E-18	6.360570E-19
2.231987E+03	4.297700E-18	6.900281E-19
2.271844E+03	4.804219E-18	7.652762E-19
2.311701E+03	5.412059E-18	8.551256E-19
2.351558E+03	6.081360E-18	9.528938E-19
2.391415E+03	6.783652E-18	1.053866E-18
2.431272E+03	7.497952E-18	1.154625E-18
2.471129E+03	8.215976E-18	1.253804E-18
2.510986E+03	8.934599E-18	1.350859E-18
2.550842E+03	9.655203E-18	1.445939E-18
2.590699E+03	1.037953E-17	1.539235E-18
2.630556E+03	1.111784E-17	1.632181E-18
2.670413E+03	1.187286E-17	1.725054E-18
2.710270E+03	1.264878E-17	1.818316E-18
2.750127E+03	1.344952E-17	1.912368E-18
2.789984E+03	1.427922E-17	2.007608E-18
2.829841E+03	1.514570E-17	2.104921E-18
2.869698E+03	1.605127E-17	2.204373E-18
2.909555E+03	1.700199E-17	2.306521E-18
2.949412E+03	1.801212E-17	2.412973E-18
2.989269E+03	1.907911E-17	2.523006E-18
2.999233E+03	1.935990E-17	2.551710E-18
3.009197E+03	1.964090E-17	2.580164E-18
3.019161E+03	1.992994E-17	2.609392E-18
3.029125E+03	2.022333E-17	2.638901E-18
3.039090E+03	2.052171E-17	2.668765E-18
3.049054E+03	2.082664E-17	2.699181E-18
3.059018E+03	2.114469E-17	2.730986E-18
3.068982E+03	2.147158E-17	2.763610E-18
3.078947E+03	2.180289E-17	2.796471E-18
3.088911E+03	2.214664E-17	2.830589E-18
3.098875E+03	2.250275E-17	2.865935E-18
3.108839E+03	2.286263E-17	2.901399E-18
3.118803E+03	2.323032E-17	2.937486E-18
3.128768E+03	2.361010E-17	2.974723E-18
3.138732E+03	2.399758E-17	3.012540E-18
3.148696E+03	2.439272E-17	3.050919E-18
3.158660E+03	2.480000E-17	3.090406E-18
3.168625E+03	2.521037E-17	3.129861E-18
3.178589E+03	2.563299E-17	3.170407E-18
3.188553E+03	2.606333E-17	3.211470E-18
3.198517E+03	2.650144E-17	3.253041E-18
3.208482E+03	2.694739E-17	3.295117E-18
3.218446E+03	2.740613E-17	3.338287E-18
3.228410E+03	2.786807E-17	3.381367E-18
3.238374E+03	2.834313E-17	3.425550E-18
3.248338E+03	2.882657E-17	3.470245E-18
3.258303E+03	2.932365E-17	3.516068E-18
3.268267E+03	2.982438E-17	3.561802E-18
3.278231E+03	3.033921E-17	3.608685E-18
3.288195E+03	3.086320E-17	3.656109E-18
3.298160E+03	3.139658E-17	3.704085E-18
3.308124E+03	3.193954E-17	3.752619E-18
3.318088E+03	3.249781E-17	3.802365E-18
3.328052E+03	3.306068E-17	3.852051E-18
3.338017E+03	3.363947E-17	3.902980E-18
3.347981E+03	3.423461E-17	3.955177E-18
3.357945E+03	3.483503E-17	4.007342E-18
3.367909E+03	3.545247E-17	4.060808E-18
3.377873E+03	3.608149E-17	4.114929E-18
3.387838E+03	3.672237E-17	4.169713E-18
3.397802E+03	3.737538E-17	4.225174E-18
3.407766E+03	3.804079E-17	4.281320E-18
3.417730E+03	3.872512E-17	4.338859E-18
3.427695E+03	3.942256E-17	4.397114E-18
3.437659E+03	4.013341E-17	4.456094E-18
3.447623E+03	4.086441E-17	4.516522E-18
3.457587E+03	4.160298E-17	4.576979E-18
3.467551E+03	4.236242E-17	4.638907E-18
3.477516E+03	4.313652E-17	4.701596E-18
3.487480E+03	4.392555E-17	4.765049E-18
3.497444E+03	4.473668E-17	4.830014E-18
3.507408E+03	4.556340E-17	4.895756E-18
3.517373E+03	4.640593E-17	4.962269E-18
3.527337E+03	4.726461E-17	5.029562E-18
3.537301E+03	4.813952E-17	5.097616E-18
3.547265E+03	4.903829E-17	5.167207E-18
3.557230E+03	4.995390E-17	5.237558E-18
3.567194E+03	5.088652E-17	5.308658E-18
3.577158E+03	5.184398E-17	5.381290E-18
3.587122E+03	5.281116E-17	5.453848E-18
3.597086E+03	5.380357E-17	5.527910E-18
3.607051E+03	5.481363E-17	5.602656E-18
3.617015E+03	5.584138E-17	5.678062E-18
3.626979E+03	5.689504E-17	5.754926E-18
3.636943E+03	5.796663E-17	5.832400E-18
3.646908E+03	5.905600E-17	5.910439E-18
3.656872E+03	6.016321E-17	5.989017E-18
3.666836E+03	6.129667E-17	6.068936E-18
3.676800E+03	6.243907E-17	6.148445E-18
3.686765E+03	6.360762E-17	6.229212E-18
3.696729E+03	6.480246E-17	6.311207E-18
3.706693E+03	6.600529E-17	6.392612E-18
3.716657E+03	6.723402E-17	6.475135E-18
3.726621E+03	6.847920E-17	6.557827E-18
3.736586E+03	6.974035E-17	6.640615E-18
3.746550E+03	7.101700E-17	6.723423E-18
3.756514E+03	7.231836E-17	6.807092E-18
3.766478E+03	7.363432E-17	6.890633E-18
3.776443E+03	7.496422E-17	6.973959E-18
3.786407E+03	7.630732E-17	7.056977E-18
3.796371E+03	7.767309E-17	7.140533E-18
3.806335E+03	7.905073E-17	7.223602E-18
3.816299E+03	8.043934E-17	7.306081E-18
3.826264E+03	8.183799E-17	7.387866E-18
3.836228E+03	8.325638E-17	7.469811E-18
3.846192E+03	8.468298E-17	7.550854E-18
3.856156E+03	8.611669E-17	7.630883E-18
3.866121E+03	8.755638E-17	7.709786E-18
3.876085E+03	8.900082E-17	7.787445E-18
3.886049E+03	9.046007E-17	7.864729E-18
3.896013E+03	9.192171E-17	7.940537E-18
3.905978E+03	9.338446E-17	8.014760E-18
3.915942E+03	9.485861E-17	8.088272E-18
3.925906E+03	9.631947E-17	8.158964E-18
3.935870E+03	9.778905E-17	8.228713E-18
3.945834E+03	9.926629E-17	8.297417E-18
3.955799E+03	1.007257E-16	8.362944E-18
3.965763E+03	1.021775E-16	8.426184E-18
3.975727E+03	1.036328E-16	8.488046E-18
3.985691E+03	1.050777E-16	8.547410E-18
3.995656E+03	1.065234E-16	8.605186E-18
4.005620E+03	1.079430E-16	8.659240E-18
4.015584E+03	1.093604E-16	8.711506E-18
4.025548E+03	1.107614E-16	8.760874E-18
4.035513E+03	1.121443E-16	8.807250E-18
4.045477E+03	1.135077E-16	8.850557E-18
4.055441E+03	1.148631E-16	8.891724E-18
4.065405E+03	1.161960E-16	8.929657E-18
4.075369E+03	1.175049E-16	8.964282E-18
4.085334E+03	1.187883E-16	8.995542E-18
4.095298E+03	1.200447E-16	9.023369E-18
4.105262E+03	1.212862E-16	9.048723E-18
4.115226E+03	1.224980E-16	9.070538E-18
4.125191E+03	1.236787E-16	9.088774E-18
4.135155E+03	1.248271E-16	9.103401E-18
4.145119E+03	1.259556E-16	9.115386E-18
4.155083E+03	1.270356E-16	9.122716E-18
4.165047E+03	1.280936E-16	9.127372E-18
4.175012E+03	1.291148E-16	9.128359E-18
4.184976E+03	1.300985E-16	9.125692E-18
4.194940E+03	1.310577E-16	9.120365E-18
4.204904E+03	1.319642E-16	9.110474E-18
4.214869E+03	1.328456E-16	9.098005E-18
4.224833E+03	1.336875E-16	9.082053E-18
4.234797E+03	1.344902E-16	9.062702E-18
4.244761E+03	1.352679E-16	9.040979E-18
4.254726E+03	1.359926E-16	9.015100E-18
4.264690E+03	1.366930E-16	8.987035E-18
4.274654E+03	1.373549E-16	8.955929E-18
4.284618E+03	1.379783E-16	8.921853E-18
4.294582E+03	1.385621E-16	8.884811E-18
4.304547E+03	1.391178E-16	8.845627E-18
4.314511E+03	1.396135E-16	8.802340E-18
4.324475E+03	1.400701E-16	8.756378E-18
4.334439E+03	1.404637E-16	8.706338E-18
4.344404E+03	1.407807E-16	8.651499E-18
4.354368E+03	1.410049E-16	8.591020E-18
4.364332E+03	1.411233E-16	8.524269E-18
4.374296E+03	1.411388E-16	8.451611E-18
4.384261E+03	1.411008E-16	8.376155E-18
4.394225E+03	1.410636E-16	8.301189E-18
4.404189E+03	1.410962E-16	8.230764E-18
4.414153E+03	1.413099E-16	8.171222E-18
4.424117E+03	1.417719E-16	8.126149E-18
4.434082E+03	1.425711E-16	8.100256E-18
4.444046E+03	1.437514E-16	8.095521E-18
4.454010E+03	1.453910E-16	8.115777E-18
4.463974E+03	1.475620E-16	8.164360E-18
4.473939E+03	1.503019E-16	8.242581E-18
4.483903E+03	1.536378E-16	8.351126E-18
4.493867E+03	1.576264E-16	8.492240E-18
4.503831E+03	1.622673E-16	8.665026E-18
4.513795E+03	1.675553E-16	8.868350E-18
4.523760E+03	1.734626E-16	9.099924E-18
4.533724E+03	1.799360E-16	9.356214E-18
4.543688E+03	1.869109E-16	9.633201E-18
4.553652E+03	1.942429E-16	9.922947E-18
4.563617E+03	2.018243E-16	1.021963E-17
4.573581E+03	2.094490E-16	1.051271E-17
4.583545E+03	2.169564E-16	1.079427E-17
4.593509E+03	2.240921E-16	1.105206E-17
4.603474E+03	2.306652E-16	1.127737E-17
4.613438E+03	2.364258E-16	1.145895E-17
4.623402E+03	2.411327E-16	1.158636E-17
4.633366E+03	2.446305E-16	1.165361E-17
4.643330E+03	2.467384E-16	1.165377E-17
4.653295E+03	2.473441E-16	1.158334E-17
4.663259E+03	2.463905E-16	1.144151E-17
4.673223E+03	2.438803E-16	1.123026E-17
4.683187E+03	2.398779E-16	1.095433E-17
4.693152E+03	2.345146E-16	1.062134E-17
4.703116E+03	2.280092E-16	1.024257E-17
4.713080E+03	2.206947E-16	9.834037E-18
4.723044E+03	2.129990E-16	9.415400E-18
4.733008E+03	2.053640E-16	9.006319E-18
4.742973E+03	1.981786E-16	8.623524E-18
4.752937E+03	1.917515E-16	8.279754E-18
4.762901E+03	1.863091E-16	7.983829E-18
4.772865E+03	1.820031E-16	7.741139E-18
4.782830E+03	1.789221E-16	7.554217E-18
4.792794E+03	1.771030E-16	7.423355E-18
4.802758E+03	1.765396E-16	7.347074E-18
4.812722E+03	1.771903E-16	7.322479E-18
4.822687E+03	1.789680E-16	7.344909E-18
4.832651E+03	1.817983E-16	7.410366E-18
4.842615E+03	1.855376E-16	7.512176E-18
4.852579E+03	1.900164E-16	7.642794E-18
4.862543E+03	1.950857E-16	7.795724E-18
4.872508E+03	2.005367E-16	7.962253E-18
4.882472E+03	2.061506E-16	8.133503E-18
4.892436E+03	2.117422E-16	8.302138E-18
4.902400E+03	2.171439E-16	8.461679E-18
4.912365E+03	2.221672E-16	8.605001E-18
4.922329E+03	2.267105E-16	8.728485E-18
4.932293E+03	2.306984E-16	8.829594E-18
4.942257E+03	2.340955E-16	8.907367E-18
4.952222E+03	2.368981E-16	8.962051E-18
4.962186E+03	2.391213E-16	8.994603E-18
4.972150E+03	2.407692E-16	9.005527E-18
4.982114E+03	2.418953E-16	8.997152E-18
4.992078E+03	2.424739E-16	8.968831E-18
5.002043E+03	2.425444E-16	8.922309E-18
5.012007E+03	2.420760E-16	8.856737E-18
5.021971E+03	2.411030E-16	8.773639E-18
5.031935E+03	2.396640E-16	8.674670E-18
5.041900E+03	2.378110E-16	8.561928E-18
5.051864E+03	2.356812E-16	8.440523E-18
5.061828E+03	2.333758E-16	8.314171E-18
5.071792E+03	2.310882E-16	8.189785E-18
5.081756E+03	2.289593E-16	8.072278E-18
5.091721E+03	2.271797E-16	7.968214E-18
5.101685E+03	2.258938E-16	7.882409E-18
5.111649E+03	2.252671E-16	7.820316E-18
5.121613E+03	2.253647E-16	7.783805E-18
5.131578E+03	2.262704E-16	7.775358E-18
5.141542E+03	2.279569E-16	7.793603E-18
5.151506E+03	2.303950E-16	7.837135E-18
5.161470E+03	2.334779E-16	7.901941E-18
5.171435E+03	2.371061E-16	7.984349E-18
5.181399E+03	2.410855E-16	8.077574E-18
5.191363E+03	2.452508E-16	8.175940E-18
5.201327E+03	2.494153E-16	8.273171E-18
5.211291E+03	2.533846E-16	8.362861E-18
5.221256E+03	2.570373E-16	8.441139E-18
5.231220E+03	2.602166E-16	8.503048E-18
5.241184E+03	2.628548E-16	8.546636E-18
5.251148E+03	2.649051E-16	8.570667E-18
5.261113E+03	2.663356E-16	8.574415E-18
5.271077E+03	2.671741E-16	8.559086E-18
5.281041E+03	2.674454E-16	8.525768E-18
5.291005E+03	2.671807E-16	8.475731E-18
5.300970E+03	2.663939E-16	8.409683E-18
5.310934E+03	2.651322E-16	8.329366E-18
5.320898E+03	2.634239E-16	8.235898E-18
5.330862E+03	2.612980E-16	8.130396E-18
5.340826E+03	2.587708E-16	8.013564E-18
5.350791E+03	2.559155E-16	7.887851E-18
5.360755E+03	2.527309E-16	7.753376E-18
5.370719E+03	2.493245E-16	7.613566E-18
5.380683E+03	2.457315E-16	7.469600E-18
5.390648E+03	2.420454E-16	7.324384E-18
5.400612E+03	2.383514E-16	7.180533E-18
5.410576E+03	2.347271E-16	7.040376E-18
5.420540E+03	2.312845E-16	6.907236E-18
5.430504E+03	2.281219E-16	6.783965E-18
5.440469E+03	2.253347E-16	6.673287E-18
5.450433E+03	2.229965E-16	6.577242E-18
5.460397E+03	2.211788E-16	6.497772E-18
5.470361E+03	2.199452E-16	6.436571E-18
5.480326E+03	2.192405E-16	6.391845E-18
5.490290E+03	2.189744E-16	6.360822E-18
5.500254E+03	2.189901E-16	6.338825E-18
5.510218E+03	2.190949E-16	6.320157E-18
5.520183E+03	2.191223E-16	6.299933E-18
5.530147E+03	2.188924E-16	6.272950E-18
5.540111E+03	2.182786E-16	6.235590E-18
5.550075E+03	2.171777E-16	6.184944E-18
5.560039E+03	2.155306E-16	6.119384E-18
5.570004E+03	2.133112E-16	6.038234E-18
5.579968E+03	2.105619E-16	5.942761E-18
5.589932E+03	2.073327E-16	5.834427E-18
5.599896E+03	2.037205E-16	5.716001E-18
5.609861E+03	1.998171E-16	5.590077E-18
5.619825E+03	1.956976E-16	5.458754E-18
5.629789E+03	1.914461E-16	5.324373E-18
5.639753E+03	1.871130E-16	5.188312E-18
5.649718E+03	1.827134E-16	5.050965E-18
5.659682E+03	1.782619E-16	4.912714E-18
5.669646E+03	1.737442E-16	4.773147E-18
5.679610E+03	1.691271E-16	4.631349E-18
5.689574E+03	1.643913E-16	4.486801E-18
5.699539E+03	1.595520E-16	4.339940E-18
5.709503E+03	1.546135E-16	4.190907E-18
5.719467E+03	1.496372E-16	4.041392E-18
5.729431E+03	1.447421E-16	3.894614E-18
5.739396E+03	1.400413E-16	3.753597E-18
5.749360E+03	1.357278E-16	3.623448E-18
5.759324E+03	1.319681E-16	3.508492E-18
5.769288E+03	1.289472E-16	3.413457E-18
5.779252E+03	1.268531E-16	3.343057E-18
5.789217E+03	1.258159E-16	3.300382E-18
5.799181E+03	1.259836E-16	3.288904E-18
5.809145E+03	1.274369E-16	3.310248E-18
5.819109E+03	1.302370E-16	3.365458E-18
5.829074E+03	1.344133E-16	3.454696E-18
5.839038E+03	1.399414E-16	3.576698E-18
5.849002E+03	1.467415E-16	3.728769E-18
5.858966E+03	1.546525E-16	3.906169E-18
5.868931E+03	1.634877E-16	4.103585E-18
5.878895E+03	1.729510E-16	4.313067E-18
5.888859E+03	1.827203E-16	4.526191E-18
5.898823E+03	1.924230E-16	4.733497E-18
5.908787E+03	2.017081E-16	4.926310E-18
5.918752E+03	2.102387E-16	5.096553E-18
5.928716E+03	2.177692E-16	5.238616E-18
5.938680E+03	2.241365E-16	5.349074E-18
5.948644E+03	2.292721E-16	5.426891E-18
5.958609E+03	2.332418E-16	5.474286E-18
5.968573E+03	2.361858E-16	5.495189E-18
5.978537E+03	2.383547E-16	5.495995E-18
5.988501E+03	2.400365E-16	5.483776E-18
5.998466E+03	2.415894E-16	5.466963E-18
6.008430E+03	2.433826E-16	5.453938E-18
6.018394E+03	2.457797E-16	5.452640E-18
6.028358E+03	2.491680E-16	5.471196E-18
6.038322E+03	2.538942E-16	5.516491E-18
6.048287E+03	2.603133E-16	5.595260E-18
6.058251E+03	2.687259E-16	5.712732E-18
6.068215E+03	2.794270E-16	5.873727E-18
6.078179E+03	2.926493E-16	6.081472E-18
6.088144E+03	3.085356E-16	6.337134E-18
6.098108E+03	3.271513E-16	6.640176E-18
6.108072E+03	3.483592E-16	6.985954E-18
6.118036E+03	3.718097E-16	7.365793E-18
6.128000E+03	3.967599E-16	7.763710E-18
6.137965E+03	4.220367E-16	8.156206E-18
6.147929E+03	4.458990E-16	8.510150E-18
6.157893E+03	4.661476E-16	8.785511E-18
6.167857E+03	4.807756E-16	8.947982E-18
6.177822E+03	4.890261E-16	8.988092E-18
6.187786E+03	4.917386E-16	8.925975E-18
6.197750E+03	4.906068E-16	8.796207E-18
6.207714E+03	4.872648E-16	8.630689E-18
6.217679E+03	4.830902E-16	8.455333E-18
6.227643E+03	4.788605E-16	8.284467E-18
6.237607E+03	4.750210E-16	8.126098E-18
6.247571E+03	4.716445E-16	7.981593E-18
6.257535E+03	4.686328E-16	7.849432E-18
6.267500E+03	4.657024E-16	7.725101E-18
6.277464E+03	4.625641E-16	7.604193E-18
6.287428E+03	4.588864E-16	7.481754E-18
6.297392E+03	4.544490E-16	7.354762E-18
6.307357E+03	4.491074E-16	7.221432E-18
6.317321E+03	4.428222E-16	7.081605E-18
6.327285E+03	4.357487E-16	6.938101E-18
6.337249E+03	4.281426E-16	6.795154E-18
6.347214E+03	4.204487E-16	6.659814E-18
6.357178E+03	4.132127E-16	6.540587E-18
6.367142E+03	4.070626E-16	6.447182E-18
6.377106E+03	4.027322E-16	6.390724E-18
6.387070E+03	4.010646E-16	6.384193E-18
6.397035E+03	4.028499E-16	6.440138E-18
6.406999E+03	4.090687E-16	6.574717E-18
6.416963E+03	4.206603E-16	6.804149E-18
6.426927E+03	4.386903E-16	7.147544E-18
6.436892E+03	4.643662E-16	7.627330E-18
6.446856E+03	4.988556E-16	8.266430E-18
6.456820E+03	5.435177E-16	9.092175E-18
6.466784E+03	5.995165E-16	1.012999E-17
6.476748E+03	6.678330E-16	1.140344E-17
6.486713E+03	7.490073E-16	1.292964E-17
6.496677E+03	8.427625E-16	1.471222E-17
6.506641E+03	9.476595E-16	1.673428E-17
6.516605E+03	1.060965E-15	1.895478E-17
6.526570E+03	1.178401E-15	2.130241E-17
6.536534E+03	1.294230E-15	2.367533E-17
6.546498E+03	1.401853E-15	2.595044E-17
6.556462E+03	1.494199E-15	2.798963E-17
6.566427E+03	1.564847E-15	2.966046E-17
6.576391E+03	1.608641E-15	3.084873E-17
6.586355E+03	1.622370E-15	3.147312E-17
6.596319E+03	1.605436E-15	3.150077E-17
6.606283E+03	1.559540E-15	3.094414E-17
6.616248E+03	1.488710E-15	2.986416E-17
6.626212E+03	1.398413E-15	2.835501E-17
6.636176E+03	1.294812E-15	2.653033E-17
6.646140E+03	1.184221E-15	2.451267E-17
6.656105E+03	1.072236E-15	2.241530E-17
6.666069E+03	9.633499E-16	2.033310E-17
6.676033E+03	8.609367E-16	1.834087E-17
6.685997E+03	7.670497E-16	1.648776E-17
6.695961E+03	6.827836E-16	1.480358E-17
6.705926E+03	6.083608E-16	1.329977E-17
6.715890E+03	5.433999E-16	1.197436E-17
6.725854E+03	4.872280E-16	1.081842E-17
6.735818E+03	4.389531E-16	9.817361E-18
6.745783E+03	3.976033E-16	8.953996E-18
6.755747E+03	3.622789E-16	8.211905E-18
6.765711E+03	3.321072E-16	7.574532E-18
6.775675E+03	3.063681E-16	7.028123E-18
6.785640E+03	2.843708E-16	6.559039E-18
6.795604E+03	2.655638E-16	6.156354E-18
6.805568E+03	2.494999E-16	5.811184E-18
6.815532E+03	2.357959E-16	5.515811E-18
6.825496E+03	2.241364E-16	5.263854E-18
6.835461E+03	2.142502E-16	5.049748E-18
6.845425E+03	2.059348E-16	4.869384E-18
6.855389E+03	1.989985E-16	4.718771E-18
6.865353E+03	1.932991E-16	4.594965E-18
6.875318E+03	1.887035E-16	4.495150E-18
6.885282E+03	1.850951E-16	4.416823E-18
6.895246E+03	1.823620E-16	4.357516E-18
6.905210E+03	1.804260E-16	4.315511E-18
6.915175E+03	1.792013E-16	4.288858E-18
6.925139E+03	1.786444E-16	4.276579E-18
6.935103E+03	1.786833E-16	4.276981E-18
6.945067E+03	1.792760E-16	4.289050E-18
6.955031E+03	1.804077E-16	4.312408E-18
6.964996E+03	1.820284E-16	4.345803E-18
6.974960E+03	1.841197E-16	4.388719E-18
6.984924E+03	1.866410E-16	4.440100E-18
6.994888E+03	1.895685E-16	4.499266E-18
7.004853E+03	1.928625E-16	4.565154E-18
7.014817E+03	1.964770E-16	4.636549E-18
7.024781E+03	2.003494E-16	4.711847E-18
7.034745E+03	2.044359E-16	4.789887E-18
7.044709E+03	2.086702E-16	4.869006E-18
7.054674E+03	2.130258E-16	4.948481E-18
7.064638E+03	2.174390E-16	5.026744E-18
7.074602E+03	2.218974E-16	5.103443E-18
7.084566E+03	2.263854E-16	5.178159E-18
7.094531E+03	2.309516E-16	5.251953E-18
7.104495E+03	2.356233E-16	5.325388E-18
7.114459E+03	2.404974E-16	5.400578E-18
7.124423E+03	2.456737E-16	5.479659E-18
7.134388E+03	2.513041E-16	5.565860E-18
7.144352E+03	2.575436E-16	5.662387E-18
7.154316E+03	2.645521E-16	5.772457E-18
7.164280E+03	2.724647E-16	5.898642E-18
7.174244E+03	2.814362E-16	6.043850E-18
7.184209E+03	2.915145E-16	6.208616E-18
7.194173E+03	3.027142E-16	6.392745E-18
7.204137E+03	3.150045E-16	6.595109E-18
7.214101E+03	3.281902E-16	6.811224E-18
7.224066E+03	3.420264E-16	7.035770E-18
7.234030E+03	3.561513E-16	7.261284E-18
7.243994E+03	3.700991E-16	7.478525E-18
7.253958E+03	3.833929E-16	7.678441E-18
7.263923E+03	3.955274E-16	7.851825E-18
7.273887E+03	4.060396E-16	7.990706E-18
7.283851E+03	4.145331E-16	8.088769E-18
7.293815E+03	4.208121E-16	8.143853E-18
7.303779E+03	4.247331E-16	8.154898E-18
7.313744E+03	4.263701E-16	8.125021E-18
7.323708E+03	4.258680E-16	8.058555E-18
7.333672E+03	4.235261E-16	7.962542E-18
7.343636E+03	4.195768E-16	7.842510E-18
7.353601E+03	4.143130E-16	7.704873E-18
7.363565E+03	4.079527E-16	7.554410E-18
7.373529E+03	4.006188E-16	7.393933E-18
7.383493E+03	3.924054E-16	7.225549E-18
7.393457E+03	3.833399E-16	7.049971E-18
7.403422E+03	3.733199E-16	6.865349E-18
7.413386E+03	3.623724E-16	6.672027E-18
7.423350E+03	3.504637E-16	6.469023E-18
7.433314E+03	3.376246E-16	6.256313E-18
7.443279E+03	3.240102E-16	6.035965E-18
7.453243E+03	3.098451E-16	5.811180E-18
7.463207E+03	2.954331E-16	5.586518E-18
7.473171E+03	2.811040E-16	5.366865E-18
7.483136E+03	2.671889E-16	5.157303E-18
7.493100E+03	2.538960E-16	4.960841E-18
7.503064E+03	2.412708E-16	4.777571E-18
7.513028E+03	2.293620E-16	4.607819E-18
7.522992E+03	2.182682E-16	4.453116E-18
7.532957E+03	2.080603E-16	4.314693E-18
7.542921E+03	1.988633E-16	4.195167E-18
7.552885E+03	1.907982E-16	4.097414E-18
7.562849E+03	1.839275E-16	4.023389E-18
7.572814E+03	1.783646E-16	3.976453E-18
7.582778E+03	1.741554E-16	3.958800E-18
7.592742E+03	1.713244E-16	3.972373E-18
7.602706E+03	1.698939E-16	4.019272E-18
7.612671E+03	1.698503E-16	4.100926E-18
7.622635E+03	1.711536E-16	4.218218E-18
7.632599E+03	1.737341E-16	4.371329E-18
7.642563E+03	1.774797E-16	4.559318E-18
7.652527E+03	1.822678E-16	4.780820E-18
7.662492E+03	1.879476E-16	5.033525E-18
7.672456E+03	1.943104E-16	5.313258E-18
7.682420E+03	2.011534E-16	5.615587E-18
7.692384E+03	2.082939E-16	5.936201E-18
7.702349E+03	2.155161E-16	6.269424E-18
7.712313E+03	2.226139E-16	6.609346E-18
7.722277E+03	2.294249E-16	6.950880E-18
7.732241E+03	2.358085E-16	7.289201E-18
