#wls	flux	fluxerr
1.594277E+03	2.191446E-18	2.948095E-19
1.634133E+03	2.293433E-18	3.068214E-19
1.673990E+03	2.388235E-18	3.176849E-19
1.713847E+03	2.475063E-18	3.273062E-19
1.753704E+03	2.551169E-18	3.353376E-19
1.793561E+03	2.614055E-18	3.414735E-19
1.833418E+03	2.657415E-18	3.449237E-19
1.873275E+03	2.674048E-18	3.448052E-19
1.913132E+03	2.659349E-18	3.405947E-19
1.952989E+03	2.607478E-18	3.316316E-19
1.992846E+03	2.521934E-18	3.184590E-19
2.032703E+03	2.413972E-18	3.025838E-19
2.072560E+03	2.311899E-18	2.875956E-19
2.112416E+03	2.251924E-18	2.779523E-19
2.152273E+03	2.268808E-18	2.777907E-19
2.192130E+03	2.385420E-18	2.896577E-19
2.231987E+03	2.600444E-18	3.130848E-19
2.271844E+03	2.898573E-18	3.459257E-19
2.311701E+03	3.256810E-18	3.851784E-19
2.351558E+03	3.651094E-18	4.278053E-19
2.391415E+03	4.064590E-18	4.717074E-19
2.431272E+03	4.485058E-18	5.153846E-19
2.471129E+03	4.908042E-18	5.582772E-19
2.510986E+03	5.330757E-18	6.000326E-19
2.550842E+03	5.754136E-18	6.407258E-19
2.590699E+03	6.182209E-18	6.807673E-19
2.630556E+03	6.618419E-18	7.204835E-19
2.670413E+03	7.066209E-18	7.601822E-19
2.710270E+03	7.526981E-18	7.999348E-19
2.750127E+03	8.005410E-18	8.401474E-19
2.789984E+03	8.504621E-18	8.810376E-19
2.829841E+03	9.027971E-18	9.228275E-19
2.869698E+03	9.579182E-18	9.657538E-19
2.909555E+03	1.016023E-17	1.009856E-18
2.949412E+03	1.078022E-17	1.055854E-18
2.989269E+03	1.144241E-17	1.103848E-18
2.999233E+03	1.161693E-17	1.116359E-18
3.009197E+03	1.179182E-17	1.128759E-18
3.019161E+03	1.197209E-17	1.141523E-18
3.029125E+03	1.215541E-17	1.154422E-18
3.039090E+03	1.234215E-17	1.167488E-18
3.049054E+03	1.253328E-17	1.180807E-18
3.059018E+03	1.273032E-17	1.194517E-18
3.068982E+03	1.293309E-17	1.208593E-18
3.078947E+03	1.314414E-17	1.223262E-18
3.088911E+03	1.335801E-17	1.238012E-18
3.098875E+03	1.357998E-17	1.253324E-18
3.108839E+03	1.380729E-17	1.268934E-18
3.118803E+03	1.403989E-17	1.284830E-18
3.128768E+03	1.427771E-17	1.300999E-18
3.138732E+03	1.452359E-17	1.317691E-18
3.148696E+03	1.477181E-17	1.334379E-18
3.158660E+03	1.502815E-17	1.351578E-18
3.168625E+03	1.528974E-17	1.369023E-18
3.178589E+03	1.555662E-17	1.386706E-18
3.188553E+03	1.582881E-17	1.404625E-18
3.198517E+03	1.610637E-17	1.422777E-18
3.208482E+03	1.638937E-17	1.441159E-18
3.218446E+03	1.668105E-17	1.460048E-18
3.228410E+03	1.697842E-17	1.479171E-18
3.238374E+03	1.728155E-17	1.498528E-18
3.248338E+03	1.759058E-17	1.518120E-18
3.258303E+03	1.790560E-17	1.537948E-18
3.268267E+03	1.822677E-17	1.558016E-18
3.278231E+03	1.855764E-17	1.578618E-18
3.288195E+03	1.889154E-17	1.599175E-18
3.298160E+03	1.923555E-17	1.620279E-18
3.308124E+03	1.958639E-17	1.641642E-18
3.318088E+03	1.994425E-17	1.663267E-18
3.328052E+03	2.031297E-17	1.685466E-18
3.338017E+03	2.068543E-17	1.707634E-18
3.347981E+03	2.106926E-17	1.730391E-18
3.357945E+03	2.146096E-17	1.753437E-18
3.367909E+03	2.186075E-17	1.776777E-18
3.377873E+03	2.226884E-17	1.800416E-18
3.387838E+03	2.268545E-17	1.824361E-18
3.397802E+03	2.311486E-17	1.848941E-18
3.407766E+03	2.354924E-17	1.873515E-18
3.417730E+03	2.399701E-17	1.898741E-18
3.427695E+03	2.445433E-17	1.924299E-18
3.437659E+03	2.492146E-17	1.950194E-18
3.447623E+03	2.540299E-17	1.976769E-18
3.457587E+03	2.589051E-17	2.003354E-18
3.467551E+03	2.639305E-17	2.030632E-18
3.477516E+03	2.690195E-17	2.057922E-18
3.487480E+03	2.742650E-17	2.085918E-18
3.497444E+03	2.796714E-17	2.114632E-18
3.507408E+03	2.851482E-17	2.143361E-18
3.517373E+03	2.907440E-17	2.172456E-18
3.527337E+03	2.965101E-17	2.202282E-18
3.537301E+03	3.024015E-17	2.232481E-18
3.547265E+03	3.084206E-17	2.263052E-18
3.557230E+03	3.145695E-17	2.293993E-18
3.567194E+03	3.209026E-17	2.325677E-18
3.577158E+03	3.273187E-17	2.357351E-18
3.587122E+03	3.339252E-17	2.389768E-18
3.597086E+03	3.406714E-17	2.422541E-18
3.607051E+03	3.475597E-17	2.455667E-18
3.617015E+03	3.545916E-17	2.489136E-18
3.626979E+03	3.618262E-17	2.523337E-18
3.636943E+03	3.691516E-17	2.557466E-18
3.646908E+03	3.766839E-17	2.592308E-18
3.656872E+03	3.843679E-17	2.627456E-18
3.666836E+03	3.922043E-17	2.662892E-18
3.676800E+03	4.001941E-17	2.698601E-18
3.686765E+03	4.084006E-17	2.734983E-18
3.696729E+03	4.167002E-17	2.771185E-18
3.706693E+03	4.252187E-17	2.808023E-18
3.716657E+03	4.338945E-17	2.845063E-18
3.726621E+03	4.427267E-17	2.882274E-18
3.736586E+03	4.517825E-17	2.920069E-18
3.746550E+03	4.609273E-17	2.957550E-18
3.756514E+03	4.702961E-17	2.995566E-18
3.766478E+03	4.798200E-17	3.033648E-18
3.776443E+03	4.894975E-17	3.071763E-18
3.786407E+03	4.993269E-17	3.109879E-18
3.796371E+03	5.093053E-17	3.147957E-18
3.806335E+03	5.195054E-17	3.186420E-18
3.816299E+03	5.297754E-17	3.224314E-18
3.826264E+03	5.402635E-17	3.262523E-18
3.836228E+03	5.508901E-17	3.300539E-18
3.846192E+03	5.617312E-17	3.338796E-18
3.856156E+03	5.726246E-17	3.376306E-18
3.866121E+03	5.837256E-17	3.413971E-18
3.876085E+03	5.948664E-17	3.450790E-18
3.886049E+03	6.062062E-17	3.487673E-18
3.896013E+03	6.176573E-17	3.524094E-18
3.905978E+03	6.292999E-17	3.560491E-18
3.915942E+03	6.409551E-17	3.595836E-18
3.925906E+03	6.527011E-17	3.630565E-18
3.935870E+03	6.646204E-17	3.665121E-18
3.945834E+03	6.766173E-17	3.698959E-18
3.955799E+03	6.886830E-17	3.732025E-18
3.965763E+03	7.008090E-17	3.764265E-18
3.975727E+03	7.130803E-17	3.796128E-18
3.985691E+03	7.252986E-17	3.826551E-18
3.995656E+03	7.376450E-17	3.856493E-18
4.005620E+03	7.500127E-17	3.885386E-18
4.015584E+03	7.623915E-17	3.913183E-18
4.025548E+03	7.747686E-17	3.939821E-18
4.035513E+03	7.871318E-17	3.965245E-18
4.045477E+03	7.995711E-17	3.989914E-18
4.055441E+03	8.118675E-17	4.012741E-18
4.065405E+03	8.242136E-17	4.034697E-18
4.075369E+03	8.364916E-17	4.055213E-18
4.085334E+03	8.486846E-17	4.074225E-18
4.095298E+03	8.607764E-17	4.091678E-18
4.105262E+03	8.728578E-17	4.108024E-18
4.115226E+03	8.846932E-17	4.122175E-18
4.125191E+03	8.964816E-17	4.135097E-18
4.135155E+03	9.079815E-17	4.145704E-18
4.145119E+03	9.193930E-17	4.154953E-18
4.155083E+03	9.305820E-17	4.162269E-18
4.165047E+03	9.416386E-17	4.168096E-18
4.175012E+03	9.523097E-17	4.171356E-18
4.184976E+03	9.626815E-17	4.172491E-18
4.194940E+03	9.728432E-17	4.171941E-18
4.204904E+03	9.826508E-17	4.169137E-18
4.214869E+03	9.919571E-17	4.163528E-18
4.224833E+03	1.000967E-16	4.156050E-18
4.234797E+03	1.009535E-16	4.146158E-18
4.244761E+03	1.017749E-16	4.134291E-18
4.254726E+03	1.025345E-16	4.119451E-18
4.264690E+03	1.032414E-16	4.102104E-18
4.274654E+03	1.039053E-16	4.082716E-18
4.284618E+03	1.045120E-16	4.060815E-18
4.294582E+03	1.050478E-16	4.035966E-18
4.304547E+03	1.055348E-16	4.009122E-18
4.314511E+03	1.059592E-16	3.979844E-18
4.324475E+03	1.063178E-16	3.948121E-18
4.334439E+03	1.066059E-16	3.913876E-18
4.344404E+03	1.068275E-16	3.877368E-18
4.354368E+03	1.069487E-16	3.837482E-18
4.364332E+03	1.069844E-16	3.794890E-18
4.374296E+03	1.069141E-16	3.748999E-18
4.384261E+03	1.067898E-16	3.701753E-18
4.394225E+03	1.066534E-16	3.654674E-18
4.404189E+03	1.065607E-16	3.609682E-18
4.414153E+03	1.066067E-16	3.569931E-18
4.424117E+03	1.068537E-16	3.537335E-18
4.434082E+03	1.073772E-16	3.514162E-18
4.444046E+03	1.082553E-16	3.502654E-18
4.454010E+03	1.095795E-16	3.505384E-18
4.463974E+03	1.114078E-16	3.523737E-18
4.473939E+03	1.138312E-16	3.560070E-18
4.483903E+03	1.169359E-16	3.616487E-18
4.493867E+03	1.207613E-16	3.693561E-18
4.503831E+03	1.253794E-16	3.792817E-18
4.513795E+03	1.307887E-16	3.913522E-18
4.523760E+03	1.370108E-16	4.055649E-18
4.533724E+03	1.439923E-16	4.216994E-18
4.543688E+03	1.516383E-16	4.394246E-18
4.553652E+03	1.598589E-16	4.584386E-18
4.563617E+03	1.684785E-16	4.782101E-18
4.573581E+03	1.772960E-16	4.981593E-18
4.583545E+03	1.860721E-16	5.176238E-18
4.593509E+03	1.945327E-16	5.358735E-18
4.603474E+03	2.023762E-16	5.521324E-18
4.613438E+03	2.092852E-16	5.656112E-18
4.623402E+03	2.149439E-16	5.755545E-18
4.633366E+03	2.190612E-16	5.812983E-18
4.643330E+03	2.213966E-16	5.823335E-18
4.653295E+03	2.217841E-16	5.783601E-18
4.663259E+03	2.201502E-16	5.693227E-18
4.673223E+03	2.165236E-16	5.554248E-18
4.683187E+03	2.110393E-16	5.371279E-18
4.693152E+03	2.039415E-16	5.151492E-18
4.703116E+03	1.955925E-16	4.904737E-18
4.713080E+03	1.864780E-16	4.643606E-18
4.723044E+03	1.771800E-16	4.382672E-18
4.733008E+03	1.682153E-16	4.134501E-18
4.742973E+03	1.600664E-16	3.910503E-18
4.752937E+03	1.530856E-16	3.718667E-18
4.762901E+03	1.475153E-16	3.564183E-18
4.772865E+03	1.435040E-16	3.449933E-18
4.782830E+03	1.411280E-16	3.377073E-18
4.792794E+03	1.404094E-16	3.345528E-18
4.802758E+03	1.413291E-16	3.354324E-18
4.812722E+03	1.438214E-16	3.401474E-18
4.822687E+03	1.478266E-16	3.485214E-18
4.832651E+03	1.532098E-16	3.602093E-18
4.842615E+03	1.598064E-16	3.748072E-18
4.852579E+03	1.673891E-16	3.917734E-18
4.862543E+03	1.757232E-16	4.105581E-18
4.872508E+03	1.844786E-16	4.303954E-18
4.882472E+03	1.932800E-16	4.504194E-18
4.892436E+03	2.017831E-16	4.698405E-18
4.902400E+03	2.095964E-16	4.877594E-18
4.912365E+03	2.164524E-16	5.035650E-18
4.922329E+03	2.221869E-16	5.168821E-18
4.932293E+03	2.268009E-16	5.277167E-18
4.942257E+03	2.303772E-16	5.362597E-18
4.952222E+03	2.331552E-16	5.430641E-18
4.962186E+03	2.353785E-16	5.486914E-18
4.972150E+03	2.372139E-16	5.535232E-18
4.982114E+03	2.387771E-16	5.578224E-18
4.992078E+03	2.400004E-16	5.614234E-18
5.002043E+03	2.407218E-16	5.639385E-18
5.012007E+03	2.407961E-16	5.650157E-18
5.021971E+03	2.400082E-16	5.641358E-18
5.031935E+03	2.382690E-16	5.610723E-18
5.041900E+03	2.355724E-16	5.557914E-18
5.051864E+03	2.320324E-16	5.485419E-18
5.061828E+03	2.278783E-16	5.398481E-18
5.071792E+03	2.234340E-16	5.304625E-18
5.081756E+03	2.190650E-16	5.212436E-18
5.091721E+03	2.152121E-16	5.132380E-18
5.101685E+03	2.122228E-16	5.072790E-18
5.111649E+03	2.104390E-16	5.041956E-18
5.121613E+03	2.100931E-16	5.045623E-18
5.131578E+03	2.113078E-16	5.086955E-18
5.141542E+03	2.140911E-16	5.166389E-18
5.151506E+03	2.183225E-16	5.281260E-18
5.161470E+03	2.238308E-16	5.427644E-18
5.171435E+03	2.302846E-16	5.597692E-18
5.181399E+03	2.373381E-16	5.783120E-18
5.191363E+03	2.445885E-16	5.974174E-18
5.201327E+03	2.516276E-16	6.160874E-18
5.211291E+03	2.580818E-16	6.333987E-18
5.221256E+03	2.636326E-16	6.485555E-18
5.231220E+03	2.681145E-16	6.611318E-18
5.241184E+03	2.714956E-16	6.710282E-18
5.251148E+03	2.737827E-16	6.782413E-18
5.261113E+03	2.751962E-16	6.832977E-18
5.271077E+03	2.758995E-16	6.865889E-18
5.281041E+03	2.760333E-16	6.884526E-18
5.291005E+03	2.757275E-16	6.892039E-18
5.300970E+03	2.750295E-16	6.889542E-18
5.310934E+03	2.739358E-16	6.876880E-18
5.320898E+03	2.724158E-16	6.853225E-18
5.330862E+03	2.704185E-16	6.817228E-18
5.340826E+03	2.679550E-16	6.769098E-18
5.350791E+03	2.650420E-16	6.709200E-18
5.360755E+03	2.617207E-16	6.638518E-18
5.370719E+03	2.580301E-16	6.557993E-18
5.380683E+03	2.540614E-16	6.469907E-18
5.390648E+03	2.499161E-16	6.376818E-18
5.400612E+03	2.456349E-16	6.279763E-18
5.410576E+03	2.413936E-16	6.183233E-18
5.420540E+03	2.373016E-16	6.090064E-18
5.430504E+03	2.335675E-16	6.005650E-18
5.440469E+03	2.303273E-16	5.933568E-18
5.450433E+03	2.278195E-16	5.880059E-18
5.460397E+03	2.261859E-16	5.848910E-18
5.470361E+03	2.255053E-16	5.842304E-18
5.480326E+03	2.257801E-16	5.860453E-18
5.490290E+03	2.268437E-16	5.899145E-18
5.500254E+03	2.284640E-16	5.952415E-18
5.510218E+03	2.302648E-16	6.010502E-18
5.520183E+03	2.318820E-16	6.063872E-18
5.530147E+03	2.329394E-16	6.102619E-18
5.540111E+03	2.330986E-16	6.117749E-18
5.550075E+03	2.321547E-16	6.103720E-18
5.560039E+03	2.300157E-16	6.057931E-18
5.570004E+03	2.267275E-16	5.981409E-18
5.579968E+03	2.224408E-16	5.877971E-18
5.589932E+03	2.174220E-16	5.754527E-18
5.599896E+03	2.119549E-16	5.618502E-18
5.609861E+03	2.063128E-16	5.477096E-18
5.619825E+03	2.007112E-16	5.336024E-18
5.629789E+03	1.953313E-16	5.200120E-18
5.639753E+03	1.902656E-16	5.071880E-18
5.649718E+03	1.855180E-16	4.951457E-18
5.659682E+03	1.810467E-16	4.837766E-18
5.669646E+03	1.767270E-16	4.727518E-18
5.679610E+03	1.723757E-16	4.615826E-18
5.689574E+03	1.677577E-16	4.496403E-18
5.699539E+03	1.626585E-16	4.363492E-18
5.709503E+03	1.569015E-16	4.212340E-18
5.719467E+03	1.504091E-16	4.040853E-18
5.729431E+03	1.432794E-16	3.851663E-18
5.739396E+03	1.357641E-16	3.651547E-18
5.749360E+03	1.282525E-16	3.451014E-18
5.759324E+03	1.212008E-16	3.262393E-18
5.769288E+03	1.150813E-16	3.098462E-18
5.779252E+03	1.102867E-16	2.969853E-18
5.789217E+03	1.071444E-16	2.885436E-18
5.799181E+03	1.058685E-16	2.851007E-18
5.809145E+03	1.066234E-16	2.870997E-18
5.819109E+03	1.095383E-16	2.948858E-18
5.829074E+03	1.146646E-16	3.085916E-18
5.839038E+03	1.220091E-16	3.282257E-18
5.849002E+03	1.314594E-16	3.534734E-18
5.858966E+03	1.427758E-16	3.836749E-18
5.868931E+03	1.555362E-16	4.176798E-18
5.878895E+03	1.691280E-16	4.538270E-18
5.888859E+03	1.828269E-16	4.901597E-18
5.898823E+03	1.957818E-16	5.243882E-18
5.908787E+03	2.072560E-16	5.545384E-18
5.918752E+03	2.165930E-16	5.788610E-18
5.928716E+03	2.233980E-16	5.963164E-18
5.938680E+03	2.275147E-16	6.065091E-18
5.948644E+03	2.290068E-16	6.096358E-18
5.958609E+03	2.281566E-16	6.064764E-18
5.968573E+03	2.253615E-16	5.981153E-18
5.978537E+03	2.210858E-16	5.858105E-18
5.988501E+03	2.158696E-16	5.710141E-18
5.998466E+03	2.102386E-16	5.551316E-18
6.008430E+03	2.047488E-16	5.396392E-18
6.018394E+03	1.998642E-16	5.257606E-18
6.028358E+03	1.960246E-16	5.146451E-18
6.038322E+03	1.936295E-16	5.073277E-18
6.048287E+03	1.929542E-16	5.045080E-18
6.058251E+03	1.942275E-16	5.067574E-18
6.068215E+03	1.976327E-16	5.145232E-18
6.078179E+03	2.032283E-16	5.279224E-18
6.088144E+03	2.110157E-16	5.469224E-18
6.098108E+03	2.209264E-16	5.713091E-18
6.108072E+03	2.327119E-16	6.004059E-18
6.118036E+03	2.459920E-16	6.332027E-18
6.128000E+03	2.602226E-16	6.682785E-18
6.137965E+03	2.745615E-16	7.034628E-18
6.147929E+03	2.879823E-16	7.361349E-18
6.157893E+03	2.993049E-16	7.633076E-18
6.167857E+03	3.076621E-16	7.828187E-18
6.177822E+03	3.130545E-16	7.947288E-18
6.187786E+03	3.164841E-16	8.016350E-18
6.197750E+03	3.194100E-16	8.072657E-18
6.207714E+03	3.230708E-16	8.147602E-18
6.217679E+03	3.282235E-16	8.260196E-18
6.227643E+03	3.351723E-16	8.417942E-18
6.237607E+03	3.437625E-16	8.616787E-18
6.247571E+03	3.534775E-16	8.843700E-18
6.257535E+03	3.636300E-16	9.081491E-18
6.267500E+03	3.734109E-16	9.310086E-18
6.277464E+03	3.820050E-16	9.509401E-18
6.287428E+03	3.886357E-16	9.660429E-18
6.297392E+03	3.926732E-16	9.747895E-18
6.307357E+03	3.937145E-16	9.762189E-18
6.317321E+03	3.914740E-16	9.696596E-18
6.327285E+03	3.859965E-16	9.552539E-18
6.337249E+03	3.775455E-16	9.336762E-18
6.347214E+03	3.667008E-16	9.063724E-18
6.357178E+03	3.542604E-16	8.753170E-18
6.367142E+03	3.412054E-16	8.429280E-18
6.377106E+03	3.287381E-16	8.121641E-18
6.387070E+03	3.180429E-16	7.859395E-18
6.397035E+03	3.104706E-16	7.675788E-18
6.406999E+03	3.072843E-16	7.602005E-18
6.416963E+03	3.098596E-16	7.672210E-18
6.426927E+03	3.196810E-16	7.923532E-18
6.436892E+03	3.384493E-16	8.398800E-18
6.446856E+03	3.682575E-16	9.150988E-18
6.456820E+03	4.115727E-16	1.024290E-17
6.466784E+03	4.713133E-16	1.174923E-17
6.476748E+03	5.504197E-16	1.374600E-17
6.486713E+03	6.515005E-16	1.630178E-17
6.496677E+03	7.760929E-16	1.945913E-17
6.506641E+03	9.234104E-16	2.320284E-17
6.516605E+03	1.089655E-15	2.744200E-17
6.526570E+03	1.267674E-15	3.200034E-17
6.536534E+03	1.446854E-15	3.661235E-17
6.546498E+03	1.614745E-15	4.096330E-17
6.556462E+03	1.758296E-15	4.471979E-17
6.566427E+03	1.866048E-15	4.758528E-17
6.576391E+03	1.929368E-15	4.933198E-17
6.586355E+03	1.943588E-15	4.983101E-17
6.596319E+03	1.908373E-15	4.906323E-17
6.606283E+03	1.828077E-15	4.712992E-17
6.616248E+03	1.710741E-15	4.422879E-17
6.626212E+03	1.566934E-15	4.062530E-17
6.636176E+03	1.408491E-15	3.662085E-17
6.646140E+03	1.246525E-15	3.250161E-17
6.656105E+03	1.090161E-15	2.850511E-17
6.666069E+03	9.460792E-16	2.480756E-17
6.676033E+03	8.178851E-16	2.150639E-17
6.685997E+03	7.069515E-16	1.864127E-17
6.695961E+03	6.129867E-16	1.620830E-17
6.705926E+03	5.344473E-16	1.417034E-17
6.715890E+03	4.693791E-16	1.247885E-17
6.725854E+03	4.157615E-16	1.108295E-17
6.735818E+03	3.715708E-16	9.931090E-18
6.745783E+03	3.351044E-16	8.979700E-18
6.755747E+03	3.048960E-16	8.191072E-18
6.765711E+03	2.797182E-16	7.533507E-18
6.775675E+03	2.586154E-16	6.982279E-18
6.785640E+03	2.408121E-16	6.517270E-18
6.795604E+03	2.256915E-16	6.122443E-18
6.805568E+03	2.128274E-16	5.786767E-18
6.815532E+03	2.018518E-16	5.500679E-18
6.825496E+03	1.925191E-16	5.257856E-18
6.835461E+03	1.846740E-16	5.054375E-18
6.845425E+03	1.781544E-16	4.886084E-18
6.855389E+03	1.728591E-16	4.750447E-18
6.865353E+03	1.686817E-16	4.644761E-18
6.875318E+03	1.655029E-16	4.565938E-18
6.885282E+03	1.632188E-16	4.511276E-18
6.895246E+03	1.617102E-16	4.477625E-18
6.905210E+03	1.608632E-16	4.461951E-18
6.915175E+03	1.605712E-16	4.461396E-18
6.925139E+03	1.607757E-16	4.474417E-18
6.935103E+03	1.614368E-16	4.499976E-18
6.945067E+03	1.625398E-16	4.537727E-18
6.955031E+03	1.640773E-16	4.587530E-18
6.964996E+03	1.660720E-16	4.650077E-18
6.974960E+03	1.685346E-16	4.725729E-18
6.984924E+03	1.714654E-16	4.814555E-18
6.994888E+03	1.748352E-16	4.915801E-18
7.004853E+03	1.786270E-16	5.029036E-18
7.014817E+03	1.827521E-16	5.151824E-18
7.024781E+03	1.871217E-16	5.281704E-18
7.034745E+03	1.916555E-16	5.416443E-18
7.044709E+03	1.962131E-16	5.552109E-18
7.054674E+03	2.006917E-16	5.685808E-18
7.064638E+03	2.049845E-16	5.814530E-18
7.074602E+03	2.089907E-16	5.935419E-18
7.084566E+03	2.126815E-16	6.047660E-18
7.094531E+03	2.160152E-16	6.150072E-18
7.104495E+03	2.190489E-16	6.244281E-18
7.114459E+03	2.218798E-16	6.333072E-18
7.124423E+03	2.247275E-16	6.422745E-18
7.134388E+03	2.278286E-16	6.520121E-18
7.144352E+03	2.315255E-16	6.635099E-18
7.154316E+03	2.361827E-16	6.778268E-18
7.164280E+03	2.421555E-16	6.960030E-18
7.174244E+03	2.498247E-16	7.191596E-18
7.184209E+03	2.594479E-16	7.480719E-18
7.194173E+03	2.712368E-16	7.833908E-18
7.204137E+03	2.852288E-16	8.252706E-18
7.214101E+03	3.013318E-16	8.734962E-18
7.224066E+03	3.191456E-16	9.269602E-18
7.234030E+03	3.380752E-16	9.839844E-18
7.243994E+03	3.572660E-16	1.042123E-17
7.253958E+03	3.756868E-16	1.098396E-17
7.263923E+03	3.922471E-16	1.149621E-17
7.273887E+03	4.059283E-16	1.192797E-17
7.283851E+03	4.160261E-16	1.225810E-17
7.293815E+03	4.221858E-16	1.247550E-17
7.303779E+03	4.244716E-16	1.258127E-17
7.313744E+03	4.233307E-16	1.258780E-17
7.323708E+03	4.194636E-16	1.251511E-17
7.333672E+03	4.137715E-16	1.238940E-17
7.343636E+03	4.071219E-16	1.223617E-17
7.353601E+03	4.002489E-16	1.207722E-17
7.363565E+03	3.936554E-16	1.192769E-17
7.373529E+03	3.875348E-16	1.179353E-17
7.383493E+03	3.818459E-16	1.167364E-17
7.393457E+03	3.762912E-16	1.155904E-17
7.403422E+03	3.703113E-16	1.143248E-17
7.413386E+03	3.633273E-16	1.127576E-17
7.423350E+03	3.548652E-16	1.107351E-17
7.433314E+03	3.445188E-16	1.081210E-17
7.443279E+03	3.322229E-16	1.048828E-17
7.453243E+03	3.180814E-16	1.010401E-17
7.463207E+03	3.025020E-16	9.670875E-18
7.473171E+03	2.860151E-16	9.204610E-18
7.483136E+03	2.691427E-16	8.721102E-18
7.493100E+03	2.523470E-16	8.234708E-18
7.503064E+03	2.358819E-16	7.753378E-18
7.513028E+03	2.200093E-16	7.285589E-18
7.522992E+03	2.049775E-16	6.839646E-18
7.532957E+03	1.910375E-16	6.424250E-18
7.542921E+03	1.784213E-16	6.047776E-18
7.552885E+03	1.673131E-16	5.717263E-18
7.562849E+03	1.578761E-16	5.439318E-18
7.572814E+03	1.502269E-16	5.219174E-18
7.582778E+03	1.444137E-16	5.059892E-18
7.592742E+03	1.404947E-16	4.965012E-18
7.602706E+03	1.384905E-16	4.936884E-18
7.612671E+03	1.384328E-16	4.978356E-18
7.622635E+03	1.402877E-16	5.090006E-18
7.632599E+03	1.439595E-16	5.270180E-18
7.642563E+03	1.492887E-16	5.514797E-18
7.652527E+03	1.560164E-16	5.815920E-18
7.662492E+03	1.638108E-16	6.162560E-18
7.672456E+03	1.722976E-16	6.541694E-18
7.682420E+03	1.811002E-16	6.939714E-18
7.692384E+03	1.898665E-16	7.343426E-18
7.702349E+03	1.983534E-16	7.743403E-18
7.712313E+03	2.063389E-16	8.130665E-18
7.722277E+03	2.137043E-16	8.500021E-18
7.732241E+03	2.203543E-16	8.847015E-18
