#wls	flux	fluxerr	mangling_mask
4.067320E+03	8.177602E-14	1.424411E-14	1.198043E+00
4.072830E+03	7.865693E-14	1.362909E-14	1.198490E+00
4.078340E+03	7.467514E-14	1.288423E-14	1.198927E+00
4.083870E+03	6.968838E-14	1.199187E-14	1.199353E+00
4.089400E+03	6.453186E-14	1.121897E-14	1.199767E+00
4.094940E+03	5.944681E-14	1.014592E-14	1.200170E+00
4.100490E+03	5.456912E-14	9.488232E-15	1.200562E+00
4.106040E+03	5.138225E-14	8.963441E-15	1.200941E+00
4.111610E+03	5.005855E-14	8.776161E-15	1.201309E+00
4.117180E+03	4.957346E-14	8.452276E-15	1.201664E+00
4.122750E+03	4.959360E-14	8.263169E-15	1.202007E+00
4.128340E+03	5.075307E-14	8.317303E-15	1.202337E+00
4.133930E+03	5.227098E-14	8.336220E-15	1.202655E+00
4.139530E+03	5.260900E-14	8.470155E-15	1.202959E+00
4.145140E+03	5.140163E-14	8.302996E-15	1.203250E+00
4.150750E+03	4.980435E-14	8.233315E-15	1.203527E+00
4.156380E+03	4.845377E-14	8.018775E-15	1.203791E+00
4.162010E+03	4.715983E-14	7.802765E-15	1.204040E+00
4.167650E+03	4.605388E-14	7.902637E-15	1.204275E+00
4.173290E+03	4.344614E-14	7.075387E-15	1.204495E+00
4.178950E+03	3.989006E-14	7.706489E-15	1.204701E+00
4.184610E+03	3.590095E-14	7.924785E-15	1.204892E+00
4.190280E+03	3.110519E-14	7.525509E-15	1.205067E+00
4.195950E+03	2.677290E-14	7.465792E-15	1.205226E+00
4.201640E+03	2.333356E-14	7.058524E-15	1.205370E+00
4.207330E+03	2.029576E-14	7.627844E-15	1.205498E+00
4.213030E+03	1.802988E-14	6.454868E-15	1.205609E+00
4.218740E+03	1.833634E-14	4.055018E-15	1.205704E+00
4.224450E+03	2.002079E-14	5.799070E-15	1.205781E+00
4.230180E+03	2.197525E-14	6.979389E-15	1.205841E+00
4.235910E+03	2.419365E-14	6.665788E-15	1.205884E+00
4.241640E+03	2.767923E-14	5.647440E-15	1.205909E+00
4.247390E+03	3.255249E-14	5.797528E-15	1.205916E+00
4.253150E+03	3.709964E-14	6.746293E-15	1.205904E+00
4.258910E+03	4.063674E-14	6.989910E-15	1.205874E+00
4.264680E+03	4.340726E-14	5.960715E-15	1.205824E+00
4.270450E+03	4.538705E-14	6.564407E-15	1.205755E+00
4.276240E+03	4.670512E-14	7.241854E-15	1.205667E+00
4.282030E+03	4.837062E-14	7.574220E-15	1.205558E+00
4.287830E+03	4.886811E-14	7.291128E-15	1.205430E+00
4.293640E+03	4.847636E-14	6.520923E-15	1.205280E+00
4.299460E+03	4.709567E-14	6.514019E-15	1.205109E+00
4.305280E+03	4.449881E-14	6.108907E-15	1.204918E+00
4.311120E+03	4.252965E-14	5.338841E-15	1.204704E+00
4.316960E+03	4.061225E-14	4.505670E-15	1.204468E+00
4.322800E+03	3.963056E-14	4.562948E-15	1.204210E+00
4.328660E+03	4.039664E-14	4.742711E-15	1.203929E+00
4.334520E+03	4.240493E-14	4.907087E-15	1.203625E+00
4.340400E+03	4.495881E-14	5.068733E-15	1.203298E+00
4.346280E+03	4.761261E-14	5.504844E-15	1.202946E+00
4.352160E+03	4.930781E-14	5.522609E-15	1.202571E+00
4.358060E+03	4.991892E-14	4.830757E-15	1.202170E+00
4.363960E+03	4.947225E-14	5.232943E-15	1.201745E+00
4.369880E+03	4.846620E-14	5.456258E-15	1.201294E+00
4.375800E+03	4.663614E-14	5.318912E-15	1.200817E+00
4.381720E+03	4.388831E-14	4.791299E-15	1.200315E+00
4.387660E+03	4.067751E-14	4.435298E-15	1.199785E+00
4.393600E+03	3.779489E-14	4.028246E-15	1.199229E+00
4.399560E+03	3.605759E-14	3.625330E-15	1.198644E+00
4.405520E+03	3.417384E-14	3.004585E-15	1.198031E+00
4.411480E+03	3.299053E-14	2.918521E-15	1.197392E+00
4.417460E+03	3.292540E-14	2.858357E-15	1.196722E+00
4.423450E+03	3.243134E-14	2.766505E-15	1.196022E+00
4.429440E+03	3.238769E-14	2.734731E-15	1.195294E+00
4.435440E+03	3.243163E-14	2.750560E-15	1.194535E+00
4.441450E+03	3.273728E-14	2.612958E-15	1.193746E+00
4.447460E+03	3.397930E-14	2.694827E-15	1.192926E+00
4.453490E+03	3.516615E-14	2.801752E-15	1.192073E+00
4.459520E+03	3.666361E-14	3.045357E-15	1.191189E+00
4.465560E+03	3.857910E-14	3.351008E-15	1.190272E+00
4.471610E+03	4.057134E-14	3.346411E-15	1.189322E+00
4.477670E+03	4.324717E-14	3.417952E-15	1.188338E+00
4.483740E+03	4.536033E-14	3.426658E-15	1.187319E+00
4.489810E+03	4.858475E-14	3.639680E-15	1.186267E+00
4.495890E+03	5.216922E-14	3.520898E-15	1.185179E+00
4.501980E+03	5.562102E-14	3.389671E-15	1.184056E+00
4.508080E+03	5.865978E-14	3.436457E-15	1.182895E+00
4.514190E+03	6.237119E-14	3.492673E-15	1.181698E+00
4.520310E+03	6.684723E-14	3.475105E-15	1.180462E+00
4.526430E+03	7.098374E-14	3.443115E-15	1.179191E+00
4.532560E+03	7.564110E-14	4.115183E-15	1.177880E+00
4.538700E+03	8.094055E-14	4.100743E-15	1.176530E+00
4.544850E+03	8.553488E-14	4.447405E-15	1.175139E+00
4.551010E+03	8.996005E-14	4.816559E-15	1.173708E+00
4.557170E+03	9.462893E-14	4.868565E-15	1.172238E+00
4.563350E+03	9.931248E-14	4.956343E-15	1.170724E+00
4.569530E+03	1.041718E-13	4.490857E-15	1.169169E+00
4.575720E+03	1.081007E-13	4.534490E-15	1.167571E+00
4.581920E+03	1.120784E-13	4.210091E-15	1.165928E+00
4.588130E+03	1.159527E-13	3.860567E-15	1.164242E+00
4.594340E+03	1.185530E-13	4.400857E-15	1.162512E+00
4.600570E+03	1.203449E-13	3.947685E-15	1.160734E+00
4.606800E+03	1.204689E-13	4.186477E-15	1.158912E+00
4.613040E+03	1.209920E-13	3.963224E-15	1.157043E+00
4.619290E+03	1.233328E-13	3.780313E-15	1.155126E+00
4.625550E+03	1.254292E-13	4.819817E-15	1.153160E+00
4.631810E+03	1.260046E-13	3.915113E-15	1.151147E+00
4.638090E+03	1.260542E-13	4.444473E-15	1.149081E+00
4.644370E+03	1.264531E-13	5.387102E-15	1.146967E+00
4.650660E+03	1.260770E-13	6.426926E-15	1.144802E+00
4.656960E+03	1.241189E-13	6.453250E-15	1.142584E+00
4.663270E+03	1.206450E-13	8.217921E-15	1.140312E+00
4.669590E+03	1.156195E-13	7.909044E-15	1.137987E+00
4.675920E+03	1.070561E-13	8.637770E-15	1.135609E+00
4.682250E+03	9.532214E-14	8.684090E-15	1.133182E+00
4.688590E+03	8.155875E-14	7.991880E-15	1.130703E+00
4.694940E+03	6.766555E-14	7.959621E-15	1.128173E+00
4.701300E+03	5.461821E-14	4.706318E-15	1.125592E+00
4.707670E+03	4.497905E-14	6.671134E-15	1.122960E+00
4.714050E+03	3.951896E-14	7.234715E-15	1.120279E+00
4.720440E+03	3.677069E-14	6.310800E-15	1.117548E+00
4.726830E+03	3.708517E-14	8.702482E-15	1.114773E+00
4.733240E+03	3.925503E-14	9.822140E-15	1.111946E+00
4.739650E+03	4.537561E-14	9.819919E-15	1.109076E+00
4.746070E+03	5.536211E-14	8.925822E-15	1.106158E+00
4.752500E+03	6.537860E-14	6.624751E-15	1.103194E+00
4.758940E+03	7.476634E-14	7.751702E-15	1.100184E+00
4.765380E+03	8.383861E-14	6.355362E-15	1.097134E+00
4.771840E+03	9.232994E-14	5.098792E-15	1.094034E+00
4.778300E+03	9.754023E-14	6.267233E-15	1.090895E+00
4.784780E+03	9.939256E-14	6.426127E-15	1.087708E+00
4.791260E+03	9.793523E-14	6.394695E-15	1.084482E+00
4.797750E+03	9.535982E-14	6.043274E-15	1.081214E+00
4.804250E+03	9.123055E-14	6.147198E-15	1.077904E+00
4.810760E+03	8.572350E-14	8.340308E-15	1.074552E+00
4.817280E+03	7.919302E-14	9.314897E-15	1.071160E+00
4.823800E+03	7.546418E-14	9.263998E-15	1.067733E+00
4.830340E+03	7.467921E-14	8.765122E-15	1.064261E+00
4.836880E+03	7.716466E-14	8.086918E-15	1.060755E+00
4.843430E+03	8.219713E-14	8.663927E-15	1.057211E+00
4.849990E+03	8.846905E-14	8.167714E-15	1.053629E+00
4.856560E+03	9.615258E-14	6.800102E-15	1.050010E+00
4.863140E+03	1.052842E-13	7.119355E-15	1.046354E+00
4.869730E+03	1.128786E-13	8.478348E-15	1.042662E+00
4.876330E+03	1.178463E-13	8.625139E-15	1.038934E+00
4.882940E+03	1.177818E-13	8.698434E-15	1.035172E+00
4.889550E+03	1.144007E-13	9.710545E-15	1.031380E+00
4.896170E+03	1.086948E-13	9.839087E-15	1.027555E+00
4.902810E+03	1.025124E-13	9.918464E-15	1.023691E+00
4.909450E+03	9.652408E-14	1.140365E-14	1.019800E+00
4.916100E+03	9.253931E-14	1.118664E-14	1.015877E+00
4.922760E+03	9.045478E-14	1.143100E-14	1.011923E+00
4.929430E+03	9.197131E-14	1.016283E-14	1.007938E+00
4.936110E+03	9.662654E-14	9.691178E-15	1.003923E+00
4.942790E+03	1.030780E-13	1.102182E-14	9.998837E-01
4.949490E+03	1.111623E-13	9.602797E-15	9.958098E-01
4.956200E+03	1.226048E-13	1.056955E-14	9.917075E-01
4.962910E+03	1.352298E-13	1.113578E-14	9.875836E-01
4.969630E+03	1.465806E-13	1.223247E-14	9.834325E-01
4.976370E+03	1.549367E-13	1.299909E-14	9.792487E-01
4.983110E+03	1.589421E-13	1.335418E-14	9.750452E-01
4.989860E+03	1.610002E-13	1.441231E-14	9.708164E-01
4.996620E+03	1.611550E-13	1.446105E-14	9.665629E-01
5.003390E+03	1.576223E-13	1.516600E-14	9.622854E-01
5.010170E+03	1.563526E-13	1.595935E-14	9.579845E-01
5.016950E+03	1.564968E-13	1.615091E-14	9.536672E-01
5.023750E+03	1.557552E-13	1.582368E-14	9.493213E-01
5.030550E+03	1.519874E-13	1.545475E-14	9.449605E-01
5.037370E+03	1.465788E-13	1.545313E-14	9.405723E-01
5.044190E+03	1.409966E-13	1.601983E-14	9.361704E-01
5.051030E+03	1.374227E-13	1.441419E-14	9.317425E-01
5.057870E+03	1.341250E-13	1.840175E-14	9.273022E-01
5.064720E+03	1.309423E-13	2.118471E-14	9.228436E-01
5.071580E+03	1.277541E-13	2.035024E-14	9.183675E-01
5.078450E+03	1.243600E-13	2.148212E-14	9.138746E-01
5.085330E+03	1.204363E-13	2.112848E-14	9.093653E-01
5.092220E+03	1.175478E-13	2.072661E-14	9.048406E-01
5.099120E+03	1.155086E-13	1.868237E-14	9.003010E-01
5.106030E+03	1.147990E-13	1.492868E-14	8.957472E-01
5.112950E+03	1.154345E-13	1.504240E-14	8.911799E-01
5.119870E+03	1.155425E-13	1.407835E-14	8.866064E-01
5.126810E+03	1.158790E-13	1.216520E-14	8.820142E-01
5.133750E+03	1.138624E-13	1.247005E-14	8.774173E-01
5.140710E+03	1.103659E-13	1.159530E-14	8.728030E-01
5.147670E+03	1.091830E-13	1.151645E-14	8.681854E-01
5.154650E+03	1.101979E-13	1.180999E-14	8.635519E-01
5.161630E+03	1.114444E-13	1.176555E-14	8.589164E-01
5.168620E+03	1.122686E-13	1.173548E-14	8.542732E-01
5.175620E+03	1.117509E-13	1.126061E-14	8.496229E-01
5.182640E+03	1.104024E-13	1.095589E-14	8.449597E-01
5.189660E+03	1.107932E-13	1.090246E-14	8.402975E-01
5.196690E+03	1.109884E-13	1.073587E-14	8.356304E-01
5.203730E+03	1.113402E-13	1.057954E-14	8.309593E-01
5.210780E+03	1.128292E-13	1.074258E-14	8.262849E-01
5.217840E+03	1.143267E-13	1.095384E-14	8.216079E-01
5.224910E+03	1.144354E-13	1.121837E-14	8.169292E-01
5.231980E+03	1.139677E-13	1.156006E-14	8.122561E-01
5.239070E+03	1.133756E-13	1.144602E-14	8.075762E-01
5.246170E+03	1.138267E-13	1.153687E-14	8.028969E-01
5.253280E+03	1.152868E-13	1.197778E-14	7.982190E-01
5.260390E+03	1.183500E-13	1.253569E-14	7.935498E-01
5.267520E+03	1.229465E-13	1.243875E-14	7.888772E-01
5.274660E+03	1.275907E-13	1.244845E-14	7.842084E-01
5.281800E+03	1.320091E-13	1.304861E-14	7.795508E-01
5.288960E+03	1.365050E-13	1.330399E-14	7.748923E-01
5.296120E+03	1.412940E-13	1.311544E-14	7.702466E-01
5.303300E+03	1.457859E-13	1.262267E-14	7.656016E-01
5.310480E+03	1.489601E-13	1.328053E-14	7.609712E-01
5.317670E+03	1.499161E-13	1.306289E-14	7.563498E-01
5.324880E+03	1.491135E-13	1.285179E-14	7.517318E-01
5.332090E+03	1.467589E-13	1.272849E-14	7.471309E-01
5.339320E+03	1.442078E-13	1.236756E-14	7.425353E-01
5.346550E+03	1.429131E-13	1.248642E-14	7.379586E-01
5.353790E+03	1.428141E-13	1.210240E-14	7.333953E-01
5.361050E+03	1.427944E-13	1.190595E-14	7.288402E-01
5.368310E+03	1.435721E-13	1.141230E-14	7.243066E-01
5.375580E+03	1.448720E-13	1.071611E-14	7.197893E-01
5.382860E+03	1.471350E-13	1.121975E-14	7.152892E-01
5.390160E+03	1.477471E-13	1.047897E-14	7.108011E-01
5.397460E+03	1.452090E-13	9.836567E-15	7.063384E-01
5.404770E+03	1.429481E-13	9.460863E-15	7.018957E-01
5.412090E+03	1.403876E-13	9.075759E-15	6.974743E-01
5.419420E+03	1.363625E-13	8.828331E-15	6.930749E-01
5.426770E+03	1.319122E-13	8.799846E-15	6.886928E-01
5.434120E+03	1.278486E-13	9.467870E-15	6.843408E-01
5.441480E+03	1.252994E-13	9.732549E-15	6.800141E-01
5.448850E+03	1.243786E-13	1.139179E-14	6.757137E-01
5.456230E+03	1.238137E-13	1.093843E-14	6.714407E-01
5.463620E+03	1.246122E-13	1.067573E-14	6.671960E-01
5.471030E+03	1.270327E-13	9.874125E-15	6.629753E-01
5.478440E+03	1.293272E-13	8.414132E-15	6.587908E-01
5.485860E+03	1.339979E-13	8.367784E-15	6.546382E-01
5.493290E+03	1.389312E-13	5.213534E-15	6.505184E-01
5.500730E+03	1.417239E-13	5.319175E-15	6.464326E-01
5.508180E+03	1.414397E-13	6.437264E-15	6.423821E-01
5.515650E+03	1.406504E-13	6.398933E-15	6.383625E-01
5.523120E+03	1.408971E-13	5.450782E-15	6.343859E-01
5.530600E+03	1.419958E-13	5.215202E-15	6.304480E-01
5.538090E+03	1.415564E-13	9.075182E-15	6.265500E-01
5.545600E+03	1.390712E-13	8.848647E-15	6.226882E-01
5.553110E+03	1.356757E-13	9.378547E-15	6.188736E-01
5.560630E+03	1.308505E-13	1.133457E-14	6.151012E-01
5.568170E+03	1.254217E-13	1.128170E-14	6.113657E-01
5.575710E+03	1.210857E-13	1.197217E-14	6.076767E-01
5.583260E+03	1.171031E-13	9.943602E-15	6.040290E-01
5.590830E+03	1.139172E-13	1.026644E-14	6.004177E-01
5.598400E+03	1.113606E-13	9.261418E-15	5.968519E-01
5.605980E+03	1.081753E-13	7.463766E-15	5.933266E-01
5.613580E+03	1.040237E-13	8.934109E-15	5.898371E-01
5.621180E+03	1.003552E-13	8.088230E-15	5.863922E-01
5.628800E+03	9.770789E-14	8.173687E-15	5.829826E-01
5.636420E+03	9.793211E-14	8.464872E-15	5.796171E-01
5.644060E+03	9.844127E-14	9.040077E-15	5.762866E-01
5.651710E+03	9.784467E-14	8.394579E-15	5.729952E-01
5.659360E+03	9.504521E-14	7.633097E-15	5.697471E-01
5.667030E+03	9.053203E-14	9.567367E-15	5.665334E-01
5.674710E+03	8.532059E-14	9.135646E-15	5.633582E-01
5.682390E+03	7.850437E-14	8.570197E-15	5.602253E-01
5.690090E+03	7.063249E-14	8.008959E-15	5.571264E-01
5.697800E+03	6.236006E-14	7.784609E-15	5.540654E-01
5.705520E+03	5.347147E-14	7.418067E-15	5.510420E-01
5.713250E+03	4.478167E-14	4.563987E-15	5.480561E-01
5.720990E+03	3.679421E-14	3.923172E-15	5.451075E-01
5.728740E+03	3.085311E-14	3.659204E-15	5.421959E-01
5.736500E+03	2.755554E-14	3.326777E-15	5.393212E-01
5.744270E+03	2.853822E-14	3.331065E-15	5.364831E-01
5.752050E+03	3.342394E-14	3.733061E-15	5.336816E-01
5.759840E+03	4.096603E-14	4.855804E-15	5.309163E-01
5.767650E+03	4.912320E-14	5.547211E-15	5.281838E-01
5.775460E+03	5.850814E-14	7.302972E-15	5.254907E-01
5.783290E+03	6.763330E-14	9.085660E-15	5.228301E-01
5.791120E+03	7.655389E-14	1.015482E-14	5.202086E-01
5.798970E+03	8.481191E-14	1.131270E-14	5.176192E-01
5.806820E+03	9.389185E-14	1.274936E-14	5.150686E-01
5.814690E+03	1.038272E-13	1.431452E-14	5.125499E-01
5.822570E+03	1.130256E-13	1.519873E-14	5.100664E-01
5.830450E+03	1.201539E-13	1.548881E-14	5.076210E-01
5.838350E+03	1.267515E-13	1.708125E-14	5.052074E-01
5.846260E+03	1.314595E-13	1.837196E-14	5.028284E-01
5.854180E+03	1.344901E-13	1.863727E-14	5.004841E-01
5.862110E+03	1.361959E-13	1.891612E-14	4.981744E-01
5.870050E+03	1.368235E-13	1.971814E-14	4.958990E-01
5.878010E+03	1.354244E-13	1.972943E-14	4.936550E-01
5.885970E+03	1.329416E-13	1.921650E-14	4.914481E-01
5.893940E+03	1.301717E-13	1.862575E-14	4.892753E-01
5.901930E+03	1.281795E-13	1.808381E-14	4.871338E-01
5.909920E+03	1.270582E-13	1.800272E-14	4.850288E-01
5.917930E+03	1.273987E-13	1.777681E-14	4.829552E-01
5.925950E+03	1.284236E-13	1.797353E-14	4.809153E-01
5.933970E+03	1.293780E-13	1.814312E-14	4.789117E-01
5.942010E+03	1.290597E-13	1.775146E-14	4.769392E-01
5.950060E+03	1.273808E-13	1.756257E-14	4.750003E-01
5.958120E+03	1.242679E-13	1.718349E-14	4.730950E-01
5.966200E+03	1.207032E-13	1.674823E-14	4.712209E-01
5.974280E+03	1.177024E-13	1.633254E-14	4.693826E-01
5.982370E+03	1.147015E-13	1.562679E-14	4.675777E-01
5.990480E+03	1.103583E-13	1.516209E-14	4.658041E-01
5.998590E+03	1.071343E-13	1.469067E-14	4.640660E-01
6.006720E+03	1.042897E-13	1.418693E-14	4.623591E-01
6.014850E+03	1.023510E-13	1.373379E-14	4.606878E-01
6.023000E+03	1.008941E-13	1.322351E-14	4.590477E-01
6.031160E+03	9.879812E-14	1.293660E-14	4.574410E-01
6.039330E+03	9.672603E-14	1.242369E-14	4.558678E-01
6.047520E+03	9.499958E-14	1.207606E-14	4.543261E-01
6.055710E+03	9.385594E-14	1.176803E-14	4.528197E-01
6.063910E+03	9.341524E-14	1.154621E-14	4.513468E-01
6.072130E+03	9.276153E-14	1.126371E-14	4.499056E-01
6.080350E+03	9.376334E-14	1.110812E-14	4.484997E-01
6.088590E+03	9.438823E-14	1.115557E-14	4.471257E-01
6.096840E+03	9.392698E-14	1.081441E-14	4.457854E-01
6.105100E+03	9.464287E-14	1.059640E-14	4.444788E-01
6.113370E+03	9.483723E-14	1.032155E-14	4.432061E-01
6.121650E+03	9.495223E-14	9.994560E-15	4.419672E-01
6.129940E+03	9.474186E-14	9.697592E-15	4.407623E-01
6.138250E+03	9.404589E-14	8.979679E-15	4.395900E-01
6.146560E+03	9.341687E-14	9.281717E-15	4.384534E-01
6.154890E+03	9.221517E-14	9.172768E-15	4.373496E-01
6.163230E+03	9.120003E-14	9.517091E-15	4.362803E-01
6.171580E+03	9.082704E-14	9.134503E-15	4.352455E-01
6.179940E+03	9.218596E-14	9.002248E-15	4.342454E-01
6.188310E+03	9.328521E-14	8.679807E-15	4.332801E-01
6.196690E+03	9.408796E-14	7.994454E-15	4.323498E-01
6.205090E+03	9.522610E-14	7.291198E-15	4.314535E-01
6.213500E+03	9.618575E-14	6.417116E-15	4.305925E-01
6.221910E+03	9.680954E-14	6.145275E-15	4.297680E-01
6.230340E+03	9.707775E-14	5.609452E-15	4.289781E-01
6.238780E+03	9.652172E-14	6.299787E-15	4.282241E-01
6.247230E+03	9.705246E-14	6.061326E-15	4.275062E-01
6.255700E+03	9.602253E-14	5.953528E-15	4.268237E-01
6.264170E+03	9.324785E-14	5.608693E-15	4.261785E-01
6.272660E+03	9.126750E-14	5.533187E-15	4.255689E-01
6.281160E+03	8.859024E-14	5.952092E-15	4.249951E-01
6.289670E+03	8.557474E-14	5.274843E-15	4.244568E-01
6.298190E+03	8.173821E-14	5.331109E-15	4.239534E-01
6.306720E+03	7.720968E-14	5.557030E-15	4.234844E-01
6.315260E+03	7.164765E-14	5.559294E-15	4.230494E-01
6.323820E+03	6.643595E-14	5.665448E-15	4.226474E-01
6.332380E+03	6.138669E-14	6.229867E-15	4.222789E-01
6.340960E+03	5.845171E-14	6.550671E-15	4.219426E-01
6.349550E+03	6.007082E-14	6.890885E-15	4.216384E-01
6.358150E+03	6.289729E-14	7.444896E-15	4.213659E-01
6.366770E+03	6.902229E-14	8.192643E-15	4.211244E-01
6.375390E+03	7.819319E-14	9.977659E-15	4.209140E-01
6.384030E+03	8.952793E-14	1.161645E-14	4.207337E-01
6.392680E+03	1.011840E-13	1.352105E-14	4.205834E-01
6.401340E+03	1.138444E-13	1.593556E-14	4.204626E-01
6.410010E+03	1.266031E-13	1.910366E-14	4.203708E-01
6.418700E+03	1.393740E-13	2.175301E-14	4.203077E-01
6.427390E+03	1.501257E-13	2.412193E-14	4.202728E-01
6.436100E+03	1.587554E-13	2.648095E-14	4.202658E-01
6.444820E+03	1.661433E-13	2.861945E-14	4.202861E-01
6.453550E+03	1.714288E-13	3.095692E-14	4.203335E-01
6.462290E+03	1.734181E-13	3.213495E-14	4.204074E-01
6.471040E+03	1.728875E-13	3.324275E-14	4.205075E-01
6.479810E+03	1.714292E-13	3.416240E-14	4.206336E-01
6.488590E+03	1.673925E-13	3.450450E-14	4.207850E-01
6.497380E+03	1.615608E-13	3.448098E-14	4.209615E-01
6.506180E+03	1.542339E-13	3.386453E-14	4.211625E-01
6.515000E+03	1.482738E-13	3.360026E-14	4.213880E-01
6.523820E+03	1.461647E-13	3.419937E-14	4.216372E-01
6.532660E+03	1.458754E-13	3.517603E-14	4.219100E-01
6.541510E+03	1.489923E-13	3.701068E-14	4.222060E-01
6.550370E+03	1.551003E-13	3.958708E-14	4.225246E-01
6.559250E+03	1.626766E-13	4.277157E-14	4.228660E-01
6.568130E+03	1.707941E-13	4.610141E-14	4.232290E-01
6.577030E+03	1.793794E-13	4.956377E-14	4.236140E-01
6.585940E+03	1.864036E-13	5.270825E-14	4.240203E-01
6.594860E+03	1.925718E-13	5.553956E-14	4.244475E-01
6.603800E+03	1.969264E-13	5.812970E-14	4.248957E-01
6.612740E+03	1.992956E-13	6.002709E-14	4.253636E-01
6.621700E+03	2.008956E-13	6.172592E-14	4.258519E-01
6.630670E+03	1.991654E-13	6.244763E-14	4.263597E-01
6.639650E+03	1.947158E-13	6.231533E-14	4.268867E-01
6.648650E+03	1.907292E-13	6.226249E-14	4.274331E-01
6.657660E+03	1.878398E-13	6.251924E-14	4.279980E-01
6.666680E+03	1.846199E-13	6.263926E-14	4.285811E-01
6.675710E+03	1.800676E-13	6.219510E-14	4.291820E-01
6.684750E+03	1.750147E-13	6.152815E-14	4.298005E-01
6.693810E+03	1.700613E-13	6.102479E-14	4.304368E-01
6.702880E+03	1.663231E-13	6.068683E-14	4.310900E-01
6.711960E+03	1.634772E-13	6.066514E-14	4.317597E-01
6.721050E+03	1.619163E-13	6.104540E-14	4.324457E-01
6.730150E+03	1.614341E-13	6.178789E-14	4.331477E-01
6.739270E+03	1.617062E-13	6.279216E-14	4.338660E-01
6.748400E+03	1.630140E-13	6.420340E-14	4.345997E-01
6.757540E+03	1.642352E-13	6.558432E-14	4.353483E-01
