#wls	flux	fluxerr
1.594499E+03	3.218953E-16	1.577694E-17
1.634361E+03	3.323907E-16	1.612841E-17
1.674224E+03	3.417585E-16	1.641314E-17
1.714086E+03	3.498819E-16	1.662711E-17
1.753949E+03	3.565963E-16	1.676434E-17
1.793811E+03	3.615802E-16	1.681197E-17
1.833674E+03	3.644313E-16	1.675414E-17
1.873536E+03	3.647167E-16	1.657454E-17
1.913399E+03	3.620234E-16	1.625874E-17
1.953261E+03	3.561592E-16	1.580312E-17
1.993124E+03	3.474538E-16	1.522743E-17
2.032986E+03	3.372292E-16	1.459374E-17
2.072849E+03	3.280458E-16	1.401419E-17
2.112711E+03	3.233561E-16	1.363282E-17
2.152574E+03	3.263077E-16	1.357316E-17
2.192436E+03	3.383715E-16	1.388268E-17
2.232299E+03	3.589107E-16	1.451991E-17
2.272161E+03	3.858200E-16	1.538610E-17
2.312024E+03	4.166906E-16	1.637522E-17
2.351886E+03	4.494939E-16	1.740145E-17
2.391748E+03	4.828650E-16	1.840895E-17
2.431611E+03	5.160180E-16	1.936683E-17
2.471473E+03	5.485310E-16	2.025952E-17
2.511336E+03	5.802280E-16	2.108140E-17
2.551198E+03	6.110115E-16	2.183016E-17
2.591061E+03	6.408343E-16	2.250549E-17
2.630923E+03	6.696708E-16	2.310803E-17
2.670786E+03	6.976022E-16	2.364214E-17
2.710648E+03	7.248290E-16	2.411599E-17
2.750511E+03	7.516313E-16	2.453987E-17
2.790373E+03	7.783957E-16	2.492642E-17
2.830236E+03	8.055298E-16	2.528788E-17
2.870098E+03	8.333993E-16	2.563416E-17
2.909961E+03	8.623816E-16	2.597454E-17
2.949823E+03	8.928126E-16	2.631608E-17
2.989686E+03	9.249722E-16	2.666333E-17
2.999651E+03	9.333222E-16	2.675170E-17
3.009617E+03	9.417925E-16	2.684045E-17
3.019582E+03	9.504032E-16	2.693006E-17
3.029548E+03	9.591616E-16	2.702067E-17
3.039514E+03	9.681160E-16	2.711355E-17
3.049479E+03	9.773228E-16	2.721015E-17
3.059445E+03	9.867814E-16	2.731032E-17
3.069411E+03	9.964821E-16	2.741366E-17
3.079376E+03	1.006416E-15	2.751979E-17
3.089342E+03	1.016566E-15	2.762814E-17
3.099307E+03	1.026935E-15	2.773863E-17
3.109273E+03	1.037501E-15	2.785054E-17
3.119239E+03	1.048273E-15	2.796406E-17
3.129204E+03	1.059233E-15	2.807855E-17
3.139170E+03	1.070377E-15	2.819380E-17
3.149135E+03	1.081702E-15	2.830964E-17
3.159101E+03	1.093198E-15	2.842571E-17
3.169067E+03	1.104857E-15	2.854169E-17
3.179032E+03	1.116685E-15	2.865765E-17
3.188998E+03	1.128676E-15	2.877331E-17
3.198964E+03	1.140820E-15	2.888839E-17
3.208929E+03	1.153104E-15	2.900239E-17
3.218895E+03	1.165544E-15	2.911570E-17
3.228860E+03	1.178119E-15	2.922765E-17
3.238826E+03	1.190830E-15	2.933823E-17
3.248792E+03	1.203665E-15	2.944703E-17
3.258757E+03	1.216625E-15	2.955405E-17
3.268723E+03	1.229706E-15	2.965908E-17
3.278689E+03	1.242904E-15	2.976195E-17
3.288654E+03	1.256197E-15	2.986208E-17
3.298620E+03	1.269589E-15	2.995951E-17
3.308585E+03	1.283067E-15	3.005389E-17
3.318551E+03	1.296627E-15	3.014506E-17
3.328517E+03	1.310257E-15	3.023268E-17
3.338482E+03	1.323934E-15	3.031621E-17
3.348448E+03	1.337662E-15	3.039571E-17
3.358413E+03	1.351420E-15	3.047067E-17
3.368379E+03	1.365202E-15	3.054094E-17
3.378345E+03	1.378969E-15	3.060563E-17
3.388310E+03	1.392721E-15	3.066478E-17
3.398276E+03	1.406437E-15	3.071790E-17
3.408242E+03	1.420099E-15	3.076464E-17
3.418207E+03	1.433674E-15	3.080432E-17
3.428173E+03	1.447143E-15	3.083660E-17
3.438138E+03	1.460481E-15	3.086100E-17
3.448104E+03	1.473669E-15	3.087720E-17
3.458070E+03	1.486679E-15	3.088472E-17
3.468035E+03	1.499495E-15	3.088330E-17
3.478001E+03	1.512087E-15	3.087250E-17
3.487967E+03	1.524449E-15	3.085229E-17
3.497932E+03	1.536580E-15	3.082279E-17
3.507898E+03	1.548481E-15	3.078416E-17
3.517863E+03	1.560153E-15	3.073653E-17
3.527829E+03	1.571596E-15	3.067999E-17
3.537795E+03	1.582828E-15	3.061501E-17
3.547760E+03	1.593848E-15	3.054166E-17
3.557726E+03	1.604663E-15	3.046018E-17
3.567691E+03	1.615289E-15	3.037095E-17
3.577657E+03	1.625711E-15	3.027382E-17
3.587623E+03	1.635952E-15	3.016930E-17
3.597588E+03	1.646008E-15	3.005737E-17
3.607554E+03	1.655879E-15	2.993817E-17
3.617520E+03	1.665568E-15	2.981184E-17
3.627485E+03	1.675085E-15	2.967862E-17
3.637451E+03	1.684410E-15	2.953829E-17
3.647416E+03	1.693561E-15	2.939124E-17
3.657382E+03	1.702525E-15	2.923735E-17
3.667348E+03	1.711290E-15	2.907654E-17
3.677313E+03	1.719870E-15	2.890914E-17
3.687279E+03	1.728241E-15	2.873487E-17
3.697245E+03	1.736406E-15	2.855390E-17
3.707210E+03	1.744347E-15	2.836608E-17
3.717176E+03	1.752056E-15	2.817140E-17
3.727141E+03	1.759524E-15	2.796988E-17
3.737107E+03	1.766741E-15	2.776151E-17
3.747073E+03	1.773683E-15	2.754610E-17
3.757038E+03	1.780331E-15	2.732352E-17
3.767004E+03	1.786690E-15	2.709408E-17
3.776969E+03	1.792718E-15	2.685731E-17
3.786935E+03	1.798420E-15	2.661353E-17
3.796901E+03	1.803762E-15	2.636246E-17
3.806866E+03	1.808728E-15	2.610416E-17
3.816832E+03	1.813295E-15	2.583851E-17
3.826798E+03	1.817457E-15	2.556576E-17
3.836763E+03	1.821190E-15	2.528585E-17
3.846729E+03	1.824460E-15	2.499861E-17
3.856694E+03	1.827273E-15	2.470449E-17
3.866660E+03	1.829598E-15	2.440339E-17
3.876626E+03	1.831413E-15	2.409540E-17
3.886591E+03	1.832718E-15	2.378089E-17
3.896557E+03	1.833498E-15	2.346005E-17
3.906522E+03	1.833736E-15	2.313306E-17
3.916488E+03	1.833417E-15	2.280017E-17
3.926454E+03	1.832551E-15	2.246193E-17
3.936419E+03	1.831121E-15	2.211854E-17
3.946385E+03	1.829131E-15	2.177053E-17
3.956351E+03	1.826590E-15	2.141842E-17
3.966316E+03	1.823487E-15	2.106256E-17
3.976282E+03	1.819848E-15	2.070370E-17
3.986247E+03	1.815680E-15	2.034238E-17
3.996213E+03	1.810983E-15	1.997907E-17
4.006179E+03	1.805803E-15	1.961471E-17
4.016144E+03	1.800135E-15	1.924972E-17
4.026110E+03	1.794010E-15	1.888487E-17
4.036076E+03	1.787471E-15	1.852106E-17
4.046041E+03	1.780523E-15	1.815876E-17
4.056007E+03	1.773215E-15	1.779892E-17
4.065972E+03	1.765564E-15	1.744211E-17
4.075938E+03	1.757623E-15	1.708927E-17
4.085904E+03	1.749414E-15	1.674100E-17
4.095869E+03	1.740980E-15	1.639811E-17
4.105835E+03	1.732367E-15	1.606138E-17
4.115800E+03	1.723585E-15	1.573130E-17
4.125766E+03	1.714690E-15	1.540871E-17
4.135732E+03	1.705716E-15	1.509427E-17
4.145697E+03	1.696694E-15	1.478858E-17
4.155663E+03	1.687655E-15	1.449224E-17
4.165629E+03	1.678640E-15	1.420590E-17
4.175594E+03	1.669666E-15	1.393001E-17
4.185560E+03	1.660758E-15	1.366509E-17
4.195525E+03	1.651951E-15	1.341170E-17
4.205491E+03	1.643255E-15	1.317019E-17
4.215457E+03	1.634687E-15	1.294097E-17
4.225422E+03	1.626255E-15	1.272436E-17
4.235388E+03	1.617991E-15	1.252084E-17
4.245354E+03	1.609875E-15	1.233047E-17
4.255319E+03	1.601925E-15	1.215360E-17
4.265285E+03	1.594124E-15	1.199029E-17
4.275250E+03	1.586485E-15	1.184077E-17
4.285216E+03	1.578985E-15	1.170503E-17
4.295182E+03	1.571609E-15	1.158305E-17
4.305147E+03	1.564339E-15	1.147475E-17
4.315113E+03	1.557152E-15	1.137985E-17
4.325078E+03	1.550041E-15	1.129781E-17
4.335044E+03	1.542957E-15	1.122767E-17
4.345010E+03	1.535915E-15	1.116895E-17
4.354975E+03	1.528888E-15	1.112082E-17
4.364941E+03	1.521858E-15	1.108249E-17
4.374907E+03	1.514828E-15	1.105333E-17
4.384872E+03	1.507782E-15	1.103256E-17
4.394838E+03	1.500701E-15	1.101937E-17
4.404803E+03	1.493592E-15	1.101314E-17
4.414769E+03	1.486445E-15	1.101315E-17
4.424735E+03	1.479274E-15	1.101883E-17
4.434700E+03	1.472065E-15	1.102948E-17
4.444666E+03	1.464838E-15	1.104461E-17
4.454632E+03	1.457581E-15	1.106354E-17
4.464597E+03	1.450306E-15	1.108579E-17
4.474563E+03	1.443021E-15	1.111088E-17
4.484528E+03	1.435726E-15	1.113831E-17
4.494494E+03	1.428412E-15	1.116748E-17
4.504460E+03	1.421097E-15	1.119810E-17
4.514425E+03	1.413771E-15	1.122964E-17
4.524391E+03	1.406445E-15	1.126176E-17
4.534356E+03	1.399117E-15	1.129409E-17
4.544322E+03	1.391789E-15	1.132627E-17
4.554288E+03	1.384473E-15	1.135807E-17
4.564253E+03	1.377159E-15	1.138910E-17
4.574219E+03	1.369862E-15	1.141920E-17
4.584185E+03	1.362587E-15	1.144814E-17
4.594150E+03	1.355338E-15	1.147573E-17
4.604116E+03	1.348143E-15	1.150199E-17
4.614081E+03	1.340981E-15	1.152654E-17
4.624047E+03	1.333891E-15	1.154954E-17
4.634013E+03	1.326874E-15	1.157084E-17
4.643978E+03	1.319941E-15	1.159041E-17
4.653944E+03	1.313115E-15	1.160832E-17
4.663910E+03	1.306399E-15	1.162450E-17
4.673875E+03	1.299806E-15	1.163896E-17
4.683841E+03	1.293348E-15	1.165175E-17
4.693806E+03	1.287039E-15	1.166291E-17
4.703772E+03	1.280887E-15	1.167248E-17
4.713738E+03	1.274895E-15	1.168043E-17
4.723703E+03	1.269080E-15	1.168689E-17
4.733669E+03	1.263430E-15	1.169172E-17
4.743634E+03	1.257969E-15	1.169512E-17
4.753600E+03	1.252678E-15	1.169691E-17
4.763566E+03	1.247558E-15	1.169709E-17
4.773531E+03	1.242606E-15	1.169562E-17
4.783497E+03	1.237828E-15	1.169255E-17
4.793463E+03	1.233195E-15	1.168764E-17
4.803428E+03	1.228710E-15	1.168089E-17
4.813394E+03	1.224349E-15	1.167212E-17
4.823359E+03	1.220112E-15	1.166131E-17
4.833325E+03	1.215975E-15	1.164827E-17
4.843291E+03	1.211925E-15	1.163287E-17
4.853256E+03	1.207956E-15	1.161509E-17
4.863222E+03	1.204035E-15	1.159463E-17
4.873188E+03	1.200169E-15	1.157158E-17
4.883153E+03	1.196334E-15	1.154574E-17
4.893119E+03	1.192519E-15	1.151704E-17
4.903084E+03	1.188724E-15	1.148551E-17
4.913050E+03	1.184930E-15	1.145100E-17
4.923016E+03	1.181128E-15	1.141348E-17
4.932981E+03	1.177326E-15	1.137306E-17
4.942947E+03	1.173506E-15	1.132963E-17
4.952912E+03	1.169679E-15	1.128334E-17
4.962878E+03	1.165844E-15	1.123423E-17
4.972844E+03	1.162000E-15	1.118237E-17
4.982809E+03	1.158151E-15	1.112785E-17
4.992775E+03	1.154313E-15	1.107089E-17
5.002741E+03	1.150478E-15	1.101149E-17
5.012706E+03	1.146654E-15	1.094980E-17
5.022672E+03	1.142866E-15	1.088614E-17
5.032637E+03	1.139103E-15	1.082047E-17
5.042603E+03	1.135394E-15	1.075315E-17
5.052569E+03	1.131724E-15	1.068412E-17
5.062534E+03	1.128133E-15	1.061385E-17
5.072500E+03	1.124610E-15	1.054230E-17
5.082465E+03	1.121170E-15	1.046973E-17
5.092431E+03	1.117822E-15	1.039629E-17
5.102397E+03	1.114582E-15	1.032223E-17
5.112362E+03	1.111446E-15	1.024759E-17
5.122328E+03	1.108420E-15	1.017253E-17
5.132294E+03	1.105519E-15	1.009727E-17
5.142259E+03	1.102745E-15	1.002196E-17
5.152225E+03	1.100104E-15	9.946709E-18
5.162190E+03	1.097607E-15	9.871746E-18
5.172156E+03	1.095235E-15	9.796999E-18
5.182122E+03	1.093012E-15	9.722780E-18
5.192087E+03	1.090938E-15	9.649204E-18
5.202053E+03	1.089014E-15	9.576384E-18
5.212019E+03	1.087229E-15	9.504355E-18
5.221984E+03	1.085593E-15	9.433319E-18
5.231950E+03	1.084119E-15	9.363501E-18
5.241915E+03	1.082785E-15	9.294842E-18
5.251881E+03	1.081612E-15	9.227656E-18
5.261847E+03	1.080588E-15	9.161982E-18
5.271812E+03	1.079717E-15	9.097978E-18
5.281778E+03	1.078997E-15	9.035784E-18
5.291743E+03	1.078440E-15	8.975644E-18
5.301709E+03	1.078047E-15	8.917721E-18
5.311675E+03	1.077809E-15	8.862092E-18
5.321640E+03	1.077728E-15	8.808930E-18
5.331606E+03	1.077803E-15	8.758402E-18
5.341572E+03	1.078046E-15	8.710765E-18
5.351537E+03	1.078456E-15	8.666187E-18
5.361503E+03	1.079009E-15	8.624654E-18
5.371468E+03	1.079713E-15	8.586407E-18
5.381434E+03	1.080572E-15	8.551655E-18
5.391400E+03	1.081543E-15	8.520245E-18
5.401365E+03	1.082644E-15	8.492510E-18
5.411331E+03	1.083834E-15	8.468314E-18
5.421297E+03	1.085086E-15	8.447624E-18
5.431262E+03	1.086369E-15	8.430361E-18
5.441228E+03	1.087658E-15	8.416506E-18
5.451193E+03	1.088893E-15	8.405760E-18
5.461159E+03	1.090042E-15	8.397956E-18
5.471125E+03	1.091074E-15	8.392763E-18
5.481090E+03	1.091968E-15	8.389868E-18
5.491056E+03	1.092686E-15	8.388836E-18
5.501021E+03	1.093246E-15	8.389634E-18
5.510987E+03	1.093624E-15	8.391923E-18
5.520953E+03	1.093842E-15	8.395682E-18
5.530918E+03	1.093900E-15	8.400735E-18
5.540884E+03	1.093810E-15	8.407004E-18
5.550850E+03	1.093593E-15	8.414445E-18
5.560815E+03	1.093245E-15	8.422847E-18
5.570781E+03	1.092808E-15	8.432343E-18
5.580746E+03	1.092279E-15	8.442736E-18
5.590712E+03	1.091689E-15	8.454081E-18
5.600678E+03	1.091048E-15	8.466270E-18
5.610643E+03	1.090365E-15	8.479199E-18
5.620609E+03	1.089668E-15	8.492925E-18
5.630575E+03	1.088965E-15	8.507353E-18
5.640540E+03	1.088263E-15	8.522361E-18
5.650506E+03	1.087588E-15	8.538031E-18
5.660471E+03	1.086956E-15	8.554329E-18
5.670437E+03	1.086360E-15	8.571068E-18
5.680403E+03	1.085823E-15	8.588308E-18
5.690368E+03	1.085359E-15	8.606031E-18
5.700334E+03	1.084955E-15	8.624031E-18
5.710299E+03	1.084633E-15	8.642379E-18
5.720265E+03	1.084403E-15	8.661051E-18
5.730231E+03	1.084260E-15	8.679921E-18
5.740196E+03	1.084212E-15	8.698963E-18
5.750162E+03	1.084264E-15	8.718150E-18
5.760128E+03	1.084421E-15	8.737447E-18
5.770093E+03	1.084664E-15	8.756641E-18
5.780059E+03	1.085018E-15	8.775870E-18
5.790024E+03	1.085473E-15	8.795004E-18
5.799990E+03	1.086017E-15	8.813911E-18
5.809956E+03	1.086661E-15	8.832638E-18
5.819921E+03	1.087381E-15	8.850949E-18
5.829887E+03	1.088195E-15	8.868975E-18
5.839853E+03	1.089089E-15	8.886577E-18
5.849818E+03	1.090044E-15	8.903593E-18
5.859784E+03	1.091057E-15	8.919972E-18
5.869749E+03	1.092128E-15	8.935738E-18
5.879715E+03	1.093239E-15	8.950728E-18
5.889681E+03	1.094369E-15	8.964782E-18
5.899646E+03	1.095529E-15	8.978020E-18
5.909612E+03	1.096673E-15	8.990075E-18
5.919577E+03	1.097823E-15	9.001161E-18
5.929543E+03	1.098930E-15	9.010910E-18
5.939509E+03	1.100001E-15	9.019425E-18
5.949474E+03	1.101009E-15	9.026538E-18
5.959440E+03	1.101925E-15	9.032060E-18
5.969406E+03	1.102755E-15	9.036106E-18
5.979371E+03	1.103443E-15	9.038289E-18
5.989337E+03	1.104005E-15	9.038822E-18
5.999302E+03	1.104385E-15	9.037322E-18
6.009268E+03	1.104585E-15	9.033902E-18
6.019234E+03	1.104559E-15	9.028287E-18
6.029199E+03	1.104309E-15	9.020590E-18
6.039165E+03	1.103775E-15	9.010434E-18
6.049130E+03	1.102957E-15	8.997948E-18
6.059096E+03	1.101821E-15	8.982965E-18
6.069062E+03	1.100329E-15	8.965309E-18
6.079027E+03	1.098460E-15	8.944937E-18
6.088993E+03	1.096190E-15	8.921793E-18
6.098959E+03	1.093497E-15	8.895833E-18
6.108924E+03	1.090322E-15	8.866723E-18
6.118890E+03	1.086672E-15	8.834654E-18
6.128855E+03	1.082503E-15	8.799406E-18
6.138821E+03	1.077799E-15	8.760992E-18
6.148787E+03	1.072523E-15	8.719239E-18
6.158752E+03	1.066690E-15	8.674401E-18
6.168718E+03	1.060258E-15	8.626230E-18
6.178684E+03	1.053279E-15	8.575164E-18
6.188649E+03	1.045774E-15	8.521365E-18
6.198615E+03	1.037770E-15	8.465045E-18
6.208580E+03	1.029341E-15	8.406795E-18
6.218546E+03	1.020507E-15	8.346757E-18
6.228512E+03	1.011357E-15	8.285649E-18
6.238477E+03	1.001943E-15	8.223864E-18
6.248443E+03	9.923436E-16	8.162031E-18
6.258408E+03	9.826198E-16	8.100628E-18
6.268374E+03	9.728591E-16	8.040356E-18
6.278340E+03	9.631488E-16	7.981919E-18
6.288305E+03	9.535353E-16	7.925688E-18
6.298271E+03	9.441003E-16	7.872331E-18
6.308237E+03	9.348969E-16	7.822287E-18
6.318202E+03	9.259965E-16	7.776155E-18
6.328168E+03	9.174412E-16	7.734296E-18
6.338133E+03	9.092653E-16	7.697014E-18
6.348099E+03	9.015245E-16	7.664799E-18
6.358065E+03	8.942419E-16	7.637878E-18
6.368030E+03	8.874465E-16	7.616532E-18
6.377996E+03	8.811508E-16	7.600910E-18
6.387962E+03	8.753868E-16	7.591290E-18
6.397927E+03	8.701290E-16	7.587375E-18
6.407893E+03	8.654104E-16	7.589372E-18
6.417858E+03	8.611863E-16	7.596817E-18
6.427824E+03	8.574668E-16	7.609733E-18
6.437790E+03	8.542239E-16	7.627809E-18
6.447755E+03	8.514355E-16	7.650789E-18
6.457721E+03	8.490650E-16	7.678287E-18
6.467686E+03	8.470825E-16	7.709978E-18
6.477652E+03	8.454689E-16	7.745631E-18
6.487618E+03	8.441765E-16	7.784752E-18
6.497583E+03	8.431654E-16	7.826914E-18
6.507549E+03	8.423816E-16	7.871552E-18
6.517515E+03	8.417942E-16	7.918308E-18
6.527480E+03	8.413437E-16	7.966550E-18
6.537446E+03	8.409974E-16	8.015888E-18
6.547411E+03	8.406819E-16	8.065540E-18
6.557377E+03	8.403773E-16	8.115222E-18
6.567343E+03	8.400024E-16	8.164053E-18
6.577308E+03	8.395549E-16	8.211908E-18
6.587274E+03	8.389595E-16	8.257944E-18
6.597240E+03	8.381985E-16	8.301875E-18
6.607205E+03	8.372455E-16	8.343330E-18
6.617171E+03	8.360806E-16	8.381994E-18
6.627136E+03	8.346765E-16	8.417485E-18
6.637102E+03	8.330240E-16	8.449596E-18
6.647068E+03	8.311352E-16	8.478344E-18
6.657033E+03	8.289861E-16	8.503380E-18
6.666999E+03	8.265989E-16	8.524833E-18
6.676964E+03	8.239719E-16	8.542596E-18
6.686930E+03	8.211359E-16	8.556901E-18
6.696896E+03	8.180984E-16	8.567753E-18
6.706861E+03	8.148678E-16	8.575169E-18
6.716827E+03	8.114967E-16	8.579640E-18
6.726793E+03	8.079834E-16	8.581098E-18
6.736758E+03	8.043550E-16	8.579785E-18
6.746724E+03	8.006531E-16	8.576108E-18
6.756689E+03	7.968911E-16	8.570181E-18
6.766655E+03	7.930943E-16	8.562256E-18
6.776621E+03	7.892878E-16	8.552586E-18
6.786586E+03	7.854970E-16	8.541437E-18
6.796552E+03	7.817291E-16	8.528883E-18
6.806518E+03	7.780059E-16	8.515161E-18
6.816483E+03	7.743585E-16	8.500615E-18
6.826449E+03	7.707900E-16	8.485288E-18
6.836414E+03	7.673023E-16	8.469212E-18
6.846380E+03	7.639344E-16	8.452831E-18
6.856346E+03	7.606707E-16	8.435987E-18
6.866311E+03	7.575333E-16	8.418943E-18
6.876277E+03	7.545163E-16	8.401653E-18
6.886242E+03	7.516383E-16	8.384346E-18
6.896208E+03	7.488772E-16	8.366794E-18
6.906174E+03	7.462619E-16	8.349344E-18
6.916139E+03	7.437677E-16	8.331743E-18
6.926105E+03	7.414213E-16	8.314313E-18
6.936071E+03	7.391957E-16	8.296777E-18
6.946036E+03	7.370898E-16	8.279146E-18
6.956002E+03	7.351144E-16	8.261569E-18
6.965967E+03	7.332668E-16	8.244041E-18
6.975933E+03	7.315177E-16	8.226262E-18
6.985899E+03	7.298765E-16	8.208364E-18
6.995864E+03	7.283526E-16	8.190483E-18
7.005830E+03	7.269155E-16	8.172309E-18
7.015796E+03	7.255741E-16	8.153974E-18
7.025761E+03	7.243110E-16	8.135315E-18
7.035727E+03	7.231349E-16	8.116467E-18
7.045692E+03	7.220283E-16	8.097271E-18
7.055658E+03	7.210001E-16	8.077866E-18
7.065624E+03	7.200196E-16	8.057951E-18
7.075589E+03	7.191090E-16	8.037819E-18
7.085555E+03	7.182378E-16	8.017177E-18
7.095520E+03	7.174286E-16	7.996325E-18
7.105486E+03	7.166511E-16	7.974980E-18
7.115452E+03	7.159016E-16	7.953156E-18
7.125417E+03	7.151896E-16	7.931019E-18
7.135383E+03	7.144987E-16	7.908447E-18
7.145349E+03	7.138386E-16	7.885615E-18
7.155314E+03	7.131795E-16	7.862265E-18
7.165280E+03	7.125451E-16	7.838729E-18
7.175245E+03	7.119054E-16	7.814756E-18
7.185211E+03	7.112845E-16	7.790690E-18
7.195177E+03	7.106526E-16	7.766290E-18
7.205142E+03	7.100069E-16	7.741616E-18
7.215108E+03	7.093718E-16	7.717026E-18
7.225073E+03	7.087043E-16	7.692149E-18
7.235039E+03	7.080287E-16	7.667351E-18
7.245005E+03	7.073292E-16	7.642566E-18
7.254970E+03	7.066171E-16	7.618024E-18
7.264936E+03	7.058629E-16	7.593522E-18
7.274902E+03	7.050781E-16	7.569300E-18
7.284867E+03	7.042609E-16	7.545459E-18
7.294833E+03	7.034093E-16	7.522103E-18
7.304798E+03	7.025216E-16	7.499338E-18
7.314764E+03	7.015827E-16	7.477135E-18
7.324730E+03	7.006049E-16	7.455757E-18
7.334695E+03	6.995733E-16	7.435180E-18
7.344661E+03	6.985009E-16	7.415679E-18
7.354627E+03	6.973731E-16	7.397235E-18
7.364592E+03	6.962035E-16	7.380132E-18
7.374558E+03	6.949780E-16	7.364360E-18
7.384523E+03	6.936968E-16	7.350059E-18
7.394489E+03	6.923603E-16	7.337372E-18
7.404455E+03	6.909834E-16	7.326592E-18
7.414420E+03	6.895532E-16	7.317718E-18
7.424386E+03	6.880712E-16	7.310896E-18
7.434351E+03	6.865391E-16	7.306275E-18
7.444317E+03	6.849734E-16	7.304152E-18
7.454283E+03	6.833483E-16	7.304374E-18
7.464248E+03	6.817092E-16	7.307541E-18
7.474214E+03	6.800168E-16	7.313343E-18
7.484180E+03	6.783174E-16	7.322381E-18
7.494145E+03	6.765866E-16	7.334490E-18
7.504111E+03	6.748573E-16	7.350119E-18
7.514076E+03	6.731057E-16	7.369097E-18
7.524042E+03	6.713656E-16	7.391869E-18
7.534008E+03	6.696421E-16	7.418555E-18
7.543973E+03	6.679266E-16	7.449016E-18
7.553939E+03	6.662388E-16	7.483383E-18
7.563905E+03	6.645838E-16	7.521622E-18
7.573870E+03	6.629657E-16	7.563687E-18
7.583836E+03	6.613876E-16	7.609518E-18
7.593801E+03	6.598658E-16	7.659209E-18
7.603767E+03	6.584001E-16	7.712665E-18
7.613733E+03	6.569742E-16	7.769598E-18
7.623698E+03	6.555998E-16	7.830051E-18
7.633664E+03	6.542726E-16	7.893878E-18
7.643629E+03	6.530028E-16	7.961106E-18
7.653595E+03	6.517558E-16	8.031220E-18
7.663561E+03	6.505557E-16	8.104417E-18
7.673526E+03	6.493970E-16	8.180537E-18
7.683492E+03	6.482738E-16	8.259415E-18
7.693458E+03	6.471654E-16	8.340688E-18
7.703423E+03	6.460952E-16	8.424567E-18
7.713389E+03	6.450269E-16	8.510485E-18
7.723354E+03	6.439841E-16	8.598658E-18
7.733320E+03	6.429447E-16	8.688698E-18
