#wls	flux	fluxerr
1.594499E+03	1.818395E-17	6.603920E-19
1.634361E+03	1.824593E-17	6.594032E-19
1.674224E+03	1.826420E-17	6.567475E-19
1.714086E+03	1.823722E-17	6.523920E-19
1.753949E+03	1.816662E-17	6.464190E-19
1.793811E+03	1.803407E-17	6.382049E-19
1.833674E+03	1.782293E-17	6.272002E-19
1.873536E+03	1.752470E-17	6.131555E-19
1.913399E+03	1.711626E-17	5.953224E-19
1.953261E+03	1.659376E-17	5.736413E-19
1.993124E+03	1.597173E-17	5.486886E-19
2.032986E+03	1.530715E-17	5.224815E-19
2.072849E+03	1.471459E-17	4.989411E-19
2.112711E+03	1.434308E-17	4.830456E-19
2.152574E+03	1.431092E-17	4.786029E-19
2.192436E+03	1.467612E-17	4.872994E-19
2.232299E+03	1.540105E-17	5.076029E-19
2.272161E+03	1.638264E-17	5.358668E-19
2.312024E+03	1.751779E-17	5.685370E-19
2.351886E+03	1.872330E-17	6.027987E-19
2.391748E+03	1.995301E-17	6.371043E-19
2.431611E+03	2.118301E-17	6.706570E-19
2.471473E+03	2.241711E-17	7.035556E-19
2.511336E+03	2.365905E-17	7.358924E-19
2.551198E+03	2.492250E-17	7.680610E-19
2.591061E+03	2.622324E-17	8.005028E-19
2.630923E+03	2.758340E-17	8.338322E-19
2.670786E+03	2.901980E-17	8.684762E-19
2.710648E+03	3.054925E-17	9.048383E-19
2.750511E+03	3.218864E-17	9.433014E-19
2.790373E+03	3.397322E-17	9.847553E-19
2.830236E+03	3.591556E-17	1.029391E-18
2.870098E+03	3.804742E-17	1.077919E-18
2.909961E+03	4.039643E-17	1.130891E-18
2.949823E+03	4.299877E-17	1.189048E-18
2.989686E+03	4.588746E-17	1.252987E-18
2.999651E+03	4.665550E-17	1.269865E-18
3.009617E+03	4.744965E-17	1.287300E-18
3.019582E+03	4.827040E-17	1.305297E-18
3.029548E+03	4.911243E-17	1.323706E-18
3.039514E+03	4.997855E-17	1.342595E-18
3.049479E+03	5.087197E-17	1.362042E-18
3.059445E+03	5.179962E-17	1.382224E-18
3.069411E+03	5.276148E-17	1.403131E-18
3.079376E+03	5.375754E-17	1.424752E-18
3.089342E+03	5.478143E-17	1.446909E-18
3.099307E+03	5.583971E-17	1.469765E-18
3.109273E+03	5.693260E-17	1.493316E-18
3.119239E+03	5.805376E-17	1.517385E-18
3.129204E+03	5.921670E-17	1.542316E-18
3.139170E+03	6.041522E-17	1.567935E-18
3.149135E+03	6.164975E-17	1.594241E-18
3.159101E+03	6.292074E-17	1.621236E-18
3.169067E+03	6.422867E-17	1.648919E-18
3.179032E+03	6.558099E-17	1.677470E-18
3.188998E+03	6.697151E-17	1.706717E-18
3.198964E+03	6.840094E-17	1.736667E-18
3.208929E+03	6.988381E-17	1.767674E-18
3.218895E+03	7.140022E-17	1.799220E-18
3.228860E+03	7.297198E-17	1.831841E-18
3.238826E+03	7.458589E-17	1.865190E-18
3.248792E+03	7.625012E-17	1.899457E-18
3.258757E+03	7.796566E-17	1.934650E-18
3.268723E+03	7.973372E-17	1.970782E-18
3.278689E+03	8.155537E-17	2.007864E-18
3.288654E+03	8.343927E-17	2.046089E-18
3.298620E+03	8.537940E-17	2.085292E-18
3.308585E+03	8.737713E-17	2.125487E-18
3.318551E+03	8.943387E-17	2.166688E-18
3.328517E+03	9.155853E-17	2.209093E-18
3.338482E+03	9.375282E-17	2.252720E-18
3.348448E+03	9.601078E-17	2.297403E-18
3.358413E+03	9.834940E-17	2.343527E-18
3.368379E+03	1.007552E-16	2.390745E-18
3.378345E+03	1.032377E-16	2.439260E-18
3.388310E+03	1.057988E-16	2.489091E-18
3.398276E+03	1.084485E-16	2.540446E-18
3.408242E+03	1.111731E-16	2.592977E-18
3.418207E+03	1.139984E-16	2.647259E-18
3.428173E+03	1.169031E-16	2.702764E-18
3.438138E+03	1.199052E-16	2.759883E-18
3.448104E+03	1.230073E-16	2.818640E-18
3.458070E+03	1.262039E-16	2.878876E-18
3.468035E+03	1.295137E-16	2.940987E-18
3.478001E+03	1.329231E-16	3.004626E-18
3.487967E+03	1.364430E-16	3.070006E-18
3.497932E+03	1.400762E-16	3.137151E-18
3.507898E+03	1.438342E-16	3.206278E-18
3.517863E+03	1.477113E-16	3.277223E-18
3.527829E+03	1.517108E-16	3.350014E-18
3.537795E+03	1.558355E-16	3.424674E-18
3.547760E+03	1.601062E-16	3.501614E-18
3.557726E+03	1.644998E-16	3.580283E-18
3.567691E+03	1.690461E-16	3.661285E-18
3.577657E+03	1.737307E-16	3.744258E-18
3.587623E+03	1.785661E-16	3.829421E-18
3.597588E+03	1.835648E-16	3.916992E-18
3.607554E+03	1.887122E-16	4.006604E-18
3.617520E+03	1.940210E-16	4.098475E-18
3.627485E+03	1.995042E-16	4.192822E-18
3.637451E+03	2.051656E-16	4.289668E-18
3.647416E+03	2.109899E-16	4.388631E-18
3.657382E+03	2.170096E-16	4.490330E-18
3.667348E+03	2.232093E-16	4.594379E-18
3.677313E+03	2.295924E-16	4.700789E-18
3.687279E+03	2.361827E-16	4.809979E-18
3.697245E+03	2.429639E-16	4.921551E-18
3.707210E+03	2.499601E-16	5.035923E-18
3.717176E+03	2.571649E-16	5.152894E-18
3.727141E+03	2.645715E-16	5.272259E-18
3.737107E+03	2.722149E-16	5.394641E-18
3.747073E+03	2.800673E-16	5.519410E-18
3.757038E+03	2.881533E-16	5.646978E-18
3.767004E+03	2.964656E-16	5.777125E-18
3.776969E+03	3.050182E-16	5.910043E-18
3.786935E+03	3.138032E-16	6.045500E-18
3.796901E+03	3.228344E-16	6.183678E-18
3.806866E+03	3.321025E-16	6.324320E-18
3.816832E+03	3.416313E-16	6.467794E-18
3.826798E+03	3.513984E-16	6.613591E-18
3.836763E+03	3.614025E-16	6.761607E-18
3.846729E+03	3.716525E-16	6.911928E-18
3.856694E+03	3.821438E-16	7.064385E-18
3.866660E+03	3.928689E-16	7.218762E-18
3.876626E+03	4.038171E-16	7.374782E-18
3.877863E+03	8.823135E-17	1.610115E-18
3.880895E+03	8.515610E-17	1.551098E-18
3.883925E+03	8.493861E-17	1.544246E-18
3.886957E+03	8.418991E-17	1.527769E-18
3.889988E+03	8.654774E-17	1.567610E-18
3.893018E+03	8.867068E-17	1.603044E-18
3.896050E+03	9.501345E-17	1.714476E-18
3.899080E+03	1.054125E-16	1.898533E-18
3.902112E+03	1.199432E-16	2.156152E-18
3.905142E+03	1.363842E-16	2.447058E-18
3.908173E+03	1.531167E-16	2.742063E-18
3.911204E+03	1.720382E-16	3.075053E-18
3.914235E+03	1.923838E-16	3.432161E-18
3.917266E+03	2.128328E-16	3.789719E-18
3.920297E+03	2.373127E-16	4.217522E-18
3.923328E+03	2.636401E-16	4.676428E-18
3.926359E+03	2.937830E-16	5.201084E-18
3.929390E+03	3.252885E-16	5.747764E-18
3.932421E+03	3.549620E-16	6.259983E-18
3.935452E+03	3.864911E-16	6.802841E-18
3.938482E+03	4.168821E-16	7.323559E-18
3.941514E+03	4.452880E-16	7.807391E-18
3.944544E+03	4.726913E-16	8.271747E-18
3.947576E+03	4.979981E-16	8.697611E-18
3.950606E+03	5.205300E-16	9.073386E-18
3.953638E+03	5.420209E-16	9.429508E-18
3.956668E+03	5.597225E-16	9.718379E-18
3.959699E+03	5.730287E-16	9.929874E-18
3.962731E+03	5.853917E-16	1.012414E-17
3.965761E+03	5.984859E-16	1.033020E-17
3.968793E+03	6.103248E-16	1.051373E-17
3.971823E+03	6.203461E-16	1.066522E-17
3.974854E+03	6.276014E-16	1.076856E-17
3.977885E+03	6.300202E-16	1.078858E-17
3.980916E+03	6.305466E-16	1.077610E-17
3.983947E+03	6.258270E-16	1.067411E-17
3.986978E+03	6.142696E-16	1.045605E-17
3.990008E+03	5.996827E-16	1.018732E-17
3.993040E+03	5.851691E-16	9.920824E-18
3.996071E+03	5.738589E-16	9.709526E-18
3.999102E+03	5.638885E-16	9.521618E-18
4.002133E+03	5.502683E-16	9.272893E-18
4.005163E+03	5.392840E-16	9.069428E-18
4.008195E+03	5.279222E-16	8.860371E-18
4.011225E+03	5.186056E-16	8.686355E-18
4.014257E+03	5.108503E-16	8.539067E-18
4.017287E+03	5.040841E-16	8.408816E-18
4.020319E+03	5.018516E-16	8.354497E-18
4.023349E+03	5.023054E-16	8.344968E-18
4.026380E+03	5.032588E-16	8.343695E-18
4.029412E+03	5.070777E-16	8.389768E-18
4.032442E+03	5.100106E-16	8.420959E-18
4.035474E+03	5.152923E-16	8.490654E-18
4.038504E+03	5.207531E-16	8.562945E-18
4.041536E+03	5.302959E-16	8.701848E-18
4.044566E+03	5.428823E-16	8.889955E-18
4.047597E+03	5.592350E-16	9.138759E-18
4.050628E+03	5.766162E-16	9.403225E-18
4.053659E+03	5.946352E-16	9.676904E-18
4.056690E+03	6.142082E-16	9.974597E-18
4.059721E+03	6.346510E-16	1.028507E-17
4.062752E+03	6.562807E-16	1.061337E-17
4.065783E+03	6.813911E-16	1.099637E-17
4.068814E+03	7.063839E-16	1.137579E-17
4.071845E+03	7.313796E-16	1.175357E-17
4.074876E+03	7.543349E-16	1.209696E-17
4.077906E+03	7.740109E-16	1.238632E-17
4.080938E+03	7.879307E-16	1.258244E-17
4.083968E+03	7.939080E-16	1.265107E-17
4.087000E+03	7.948990E-16	1.264001E-17
4.090030E+03	7.907644E-16	1.254758E-17
4.093061E+03	7.800388E-16	1.235107E-17
4.096092E+03	7.637874E-16	1.206799E-17
4.099123E+03	7.462262E-16	1.176537E-17
4.102155E+03	7.256948E-16	1.141721E-17
4.105185E+03	7.060993E-16	1.108515E-17
4.108217E+03	6.903408E-16	1.081452E-17
4.111247E+03	6.753372E-16	1.055677E-17
4.114278E+03	6.617920E-16	1.032280E-17
4.117309E+03	6.485421E-16	1.009433E-17
4.120340E+03	6.361712E-16	9.880429E-18
4.123370E+03	6.239753E-16	9.670081E-18
4.126402E+03	6.099157E-16	9.431739E-18
4.129432E+03	5.964935E-16	9.204194E-18
4.132464E+03	5.850545E-16	9.008090E-18
4.135495E+03	5.763633E-16	8.854988E-18
4.138526E+03	5.717714E-16	8.765317E-18
4.141557E+03	5.682687E-16	8.692634E-18
4.144587E+03	5.643316E-16	8.613568E-18
4.147619E+03	5.563875E-16	8.473746E-18
4.150649E+03	5.469640E-16	8.311993E-18
4.153681E+03	5.361586E-16	8.129921E-18
4.156711E+03	5.254310E-16	7.949766E-18
4.159742E+03	5.162994E-16	7.794434E-18
4.162773E+03	5.084449E-16	7.658955E-18
4.165804E+03	5.021797E-16	7.547905E-18
4.168836E+03	4.970627E-16	7.454498E-18
4.171866E+03	4.912298E-16	7.350739E-18
4.174898E+03	4.883685E-16	7.291743E-18
4.177928E+03	4.849152E-16	7.224137E-18
4.180959E+03	4.848391E-16	7.206976E-18
4.183990E+03	4.842625E-16	7.182405E-18
4.187021E+03	4.853550E-16	7.182594E-18
4.190052E+03	4.880861E-16	7.206915E-18
4.193083E+03	4.926919E-16	7.258697E-18
4.196113E+03	4.963215E-16	7.295841E-18
4.199145E+03	4.994418E-16	7.325289E-18
4.202175E+03	5.041389E-16	7.377629E-18
4.205207E+03	5.080035E-16	7.417517E-18
4.208238E+03	5.131121E-16	7.475298E-18
4.211268E+03	5.196567E-16	7.553635E-18
4.214300E+03	5.265436E-16	7.636524E-18
4.217330E+03	5.326655E-16	7.707916E-18
4.220362E+03	5.362079E-16	7.741681E-18
4.223392E+03	5.355203E-16	7.714306E-18
4.226424E+03	5.330278E-16	7.661050E-18
4.229454E+03	5.262611E-16	7.546689E-18
4.232485E+03	5.146638E-16	7.363674E-18
4.235516E+03	5.007539E-16	7.148413E-18
4.238547E+03	4.842693E-16	6.897409E-18
4.241579E+03	4.639367E-16	6.592804E-18
4.244609E+03	4.430772E-16	6.282069E-18
4.247640E+03	4.212627E-16	5.959188E-18
4.250671E+03	3.996845E-16	5.641064E-18
4.253702E+03	3.772171E-16	5.311829E-18
4.256733E+03	3.533748E-16	4.964735E-18
4.259764E+03	3.300487E-16	4.626428E-18
4.262794E+03	3.101263E-16	4.337232E-18
4.265826E+03	2.951584E-16	4.118456E-18
4.268856E+03	2.862814E-16	3.985448E-18
4.271888E+03	2.795861E-16	3.883321E-18
4.274919E+03	2.828383E-16	3.919485E-18
4.277949E+03	2.907967E-16	4.020523E-18
4.280981E+03	3.029144E-16	4.178442E-18
4.284011E+03	3.205898E-16	4.412098E-18
4.287043E+03	3.419635E-16	4.695426E-18
4.290073E+03	3.650131E-16	5.000383E-18
4.293105E+03	3.863299E-16	5.280216E-18
4.296135E+03	4.077482E-16	5.560114E-18
4.299166E+03	4.294269E-16	5.842229E-18
4.302197E+03	4.477112E-16	6.076927E-18
4.305228E+03	4.642198E-16	6.286461E-18
4.308260E+03	4.789160E-16	6.470496E-18
4.311290E+03	4.904552E-16	6.611090E-18
4.314321E+03	4.970238E-16	6.684146E-18
4.317352E+03	4.993312E-16	6.699642E-18
4.320383E+03	4.994544E-16	6.685790E-18
4.323414E+03	4.961483E-16	6.626157E-18
4.326445E+03	4.931691E-16	6.571119E-18
4.329475E+03	4.884873E-16	6.493662E-18
4.332507E+03	4.850101E-16	6.432495E-18
4.335537E+03	4.831848E-16	6.393433E-18
4.338569E+03	4.796553E-16	6.332012E-18
4.341599E+03	4.773220E-16	6.286598E-18
4.344630E+03	4.750434E-16	6.242076E-18
4.347662E+03	4.743755E-16	6.218834E-18
4.350692E+03	4.732717E-16	6.189967E-18
4.353724E+03	4.744459E-16	6.190919E-18
4.356754E+03	4.776148E-16	6.217805E-18
4.359786E+03	4.811309E-16	6.249037E-18
4.362816E+03	4.851667E-16	6.286826E-18
4.365847E+03	4.901705E-16	6.336923E-18
4.368878E+03	4.944331E-16	6.377187E-18
4.371909E+03	4.989297E-16	6.420247E-18
4.374940E+03	5.022928E-16	6.448518E-18
4.377971E+03	5.075338E-16	6.500681E-18
4.381002E+03	5.159904E-16	6.593661E-18
4.384033E+03	5.246284E-16	6.688485E-18
4.387064E+03	5.337704E-16	6.789252E-18
4.390095E+03	5.437285E-16	6.899870E-18
4.393126E+03	5.540310E-16	7.014309E-18
4.396156E+03	5.621521E-16	7.100631E-18
4.399188E+03	5.679036E-16	7.156656E-18
4.402218E+03	5.724599E-16	7.197366E-18
4.405250E+03	5.752644E-16	7.215878E-18
4.408280E+03	5.801755E-16	7.260641E-18
4.411311E+03	5.834836E-16	7.285153E-18
4.414343E+03	5.861586E-16	7.301629E-18
4.417373E+03	5.883844E-16	7.312423E-18
4.420405E+03	5.907977E-16	7.325458E-18
4.423435E+03	5.917991E-16	7.320943E-18
4.426467E+03	5.939030E-16	7.330024E-18
4.429497E+03	5.969368E-16	7.350493E-18
4.432528E+03	5.978144E-16	7.344351E-18
4.435559E+03	5.978564E-16	7.327965E-18
4.438590E+03	5.982467E-16	7.315894E-18
4.441621E+03	5.989743E-16	7.307966E-18
4.444652E+03	5.993184E-16	7.295388E-18
4.447682E+03	5.973931E-16	7.255284E-18
4.450714E+03	5.957217E-16	7.218413E-18
4.453745E+03	5.926152E-16	7.164346E-18
4.456776E+03	5.862997E-16	7.071796E-18
4.459807E+03	5.762220E-16	6.934380E-18
4.462837E+03	5.636831E-16	6.768023E-18
4.465869E+03	5.481308E-16	6.566302E-18
4.468899E+03	5.312071E-16	6.349098E-18
4.471931E+03	5.144996E-16	6.135438E-18
4.474961E+03	4.969910E-16	5.913209E-18
4.477992E+03	4.804586E-16	5.703561E-18
4.481023E+03	4.635813E-16	5.490760E-18
4.484054E+03	4.466863E-16	5.278705E-18
4.487086E+03	4.310976E-16	5.082997E-18
4.490116E+03	4.153755E-16	4.886593E-18
4.493148E+03	3.984875E-16	4.677376E-18
4.496178E+03	3.839641E-16	4.496788E-18
4.499209E+03	3.718087E-16	4.344673E-18
4.502240E+03	3.619783E-16	4.220335E-18
4.505271E+03	3.563213E-16	4.145101E-18
4.508302E+03	3.567491E-16	4.140820E-18
4.511333E+03	3.591532E-16	4.159446E-18
4.514363E+03	3.662322E-16	4.232004E-18
4.517395E+03	3.797478E-16	4.378447E-18
4.520426E+03	4.025372E-16	4.630930E-18
4.523457E+03	4.320683E-16	4.959677E-18
4.526488E+03	4.667823E-16	5.346337E-18
4.529518E+03	5.050350E-16	5.771734E-18
4.532550E+03	5.472212E-16	6.240107E-18
4.535580E+03	5.896729E-16	6.709451E-18
4.538612E+03	6.324969E-16	7.180959E-18
4.541642E+03	6.739076E-16	7.634401E-18
4.544673E+03	7.152997E-16	8.085654E-18
4.547704E+03	7.568491E-16	8.536714E-18
4.550735E+03	7.976453E-16	8.977345E-18
4.553767E+03	8.386687E-16	9.418615E-18
4.556797E+03	8.769097E-16	9.826807E-18
4.559829E+03	9.128747E-16	1.020779E-17
4.562859E+03	9.452773E-16	1.054739E-17
4.565890E+03	9.757149E-16	1.086366E-17
4.568921E+03	1.002238E-15	1.113509E-17
4.571952E+03	1.024411E-15	1.135715E-17
4.574983E+03	1.040126E-15	1.150682E-17
4.578014E+03	1.050952E-15	1.160191E-17
4.581045E+03	1.056790E-15	1.164164E-17
4.584076E+03	1.060667E-15	1.165967E-17
4.587106E+03	1.061425E-15	1.164343E-17
4.590138E+03	1.058451E-15	1.158642E-17
4.593169E+03	1.053708E-15	1.151034E-17
4.596199E+03	1.048802E-15	1.143283E-17
4.599231E+03	1.043067E-15	1.134662E-17
4.602261E+03	1.037633E-15	1.126408E-17
4.605293E+03	1.031523E-15	1.117457E-17
4.608323E+03	1.027340E-15	1.110629E-17
4.611355E+03	1.026533E-15	1.107473E-17
4.614385E+03	1.028914E-15	1.107767E-17
4.617416E+03	1.035326E-15	1.112393E-17
4.620447E+03	1.045511E-15	1.121047E-17
4.623478E+03	1.061461E-15	1.135839E-17
4.626510E+03	1.080369E-15	1.153732E-17
4.629540E+03	1.100272E-15	1.172618E-17
4.632571E+03	1.118678E-15	1.189839E-17
4.635602E+03	1.134133E-15	1.203862E-17
4.638633E+03	1.143454E-15	1.211336E-17
4.641664E+03	1.150330E-15	1.216198E-17
4.644695E+03	1.154205E-15	1.217880E-17
4.647726E+03	1.156422E-15	1.217813E-17
4.650757E+03	1.158876E-15	1.218001E-17
4.653787E+03	1.161233E-15	1.218091E-17
4.656819E+03	1.159570E-15	1.213976E-17
4.659850E+03	1.162148E-15	1.214315E-17
4.662880E+03	1.163328E-15	1.213200E-17
4.665912E+03	1.166347E-15	1.214007E-17
4.668942E+03	1.167954E-15	1.213352E-17
4.671974E+03	1.167269E-15	1.210327E-17
4.675004E+03	1.165420E-15	1.206116E-17
4.678036E+03	1.159694E-15	1.197922E-17
4.681066E+03	1.148795E-15	1.184431E-17
4.684097E+03	1.134406E-15	1.167407E-17
4.687128E+03	1.118252E-15	1.148639E-17
4.690159E+03	1.101779E-15	1.129620E-17
4.693190E+03	1.085435E-15	1.110810E-17
4.696221E+03	1.070150E-15	1.093158E-17
4.699253E+03	1.056640E-15	1.077386E-17
4.702283E+03	1.041967E-15	1.060495E-17
4.705314E+03	1.027278E-15	1.043657E-17
4.708345E+03	1.014924E-15	1.029252E-17
4.711376E+03	1.004784E-15	1.017149E-17
4.714407E+03	9.937011E-16	1.004141E-17
4.717438E+03	9.827032E-16	9.912728E-18
4.720468E+03	9.707599E-16	9.775053E-18
4.723500E+03	9.590479E-16	9.640250E-18
4.726530E+03	9.460860E-16	9.493451E-18
4.729562E+03	9.345195E-16	9.361204E-18
4.732593E+03	9.227714E-16	9.227673E-18
4.735623E+03	9.109751E-16	9.094189E-18
4.738655E+03	9.010981E-16	8.980355E-18
4.741685E+03	8.913808E-16	8.868571E-18
4.744717E+03	8.816293E-16	8.756891E-18
4.747747E+03	8.710542E-16	8.637496E-18
4.750778E+03	8.562504E-16	8.476705E-18
4.753809E+03	8.407538E-16	8.309665E-18
4.756840E+03	8.217307E-16	8.108450E-18
4.759871E+03	7.988979E-16	7.870425E-18
4.762902E+03	7.748323E-16	7.621116E-18
4.765934E+03	7.488408E-16	7.353756E-18
4.768964E+03	7.213355E-16	7.072474E-18
4.771995E+03	6.943491E-16	6.797224E-18
4.775026E+03	6.663723E-16	6.513216E-18
4.778057E+03	6.384892E-16	6.231068E-18
4.781088E+03	6.106513E-16	5.950286E-18
4.784119E+03	5.838218E-16	5.680234E-18
4.787149E+03	5.599519E-16	5.439808E-18
4.790181E+03	5.424329E-16	5.261761E-18
4.793211E+03	5.335973E-16	5.168409E-18
4.796243E+03	5.309992E-16	5.135714E-18
4.799274E+03	5.377157E-16	5.193130E-18
4.802304E+03	5.536050E-16	5.338902E-18
4.805336E+03	5.815878E-16	5.600776E-18
4.808366E+03	6.178007E-16	5.941122E-18
4.811398E+03	6.636750E-16	6.373360E-18
4.814428E+03	7.162122E-16	6.868371E-18
4.817459E+03	7.712738E-16	7.386280E-18
4.820490E+03	8.288241E-16	7.926667E-18
4.823521E+03	8.835505E-16	8.438728E-18
4.826552E+03	9.335214E-16	8.904167E-18
4.829583E+03	9.789788E-16	9.325499E-18
4.832614E+03	1.020774E-15	9.711007E-18
4.835645E+03	1.055351E-15	1.002707E-17
4.838676E+03	1.083843E-15	1.028472E-17
4.841707E+03	1.105893E-15	1.048079E-17
4.844738E+03	1.121352E-15	1.061414E-17
4.847769E+03	1.131123E-15	1.069352E-17
4.850800E+03	1.135045E-15	1.071763E-17
4.853830E+03	1.133668E-15	1.069185E-17
4.856862E+03	1.128163E-15	1.062739E-17
4.859892E+03	1.118236E-15	1.052163E-17
4.862924E+03	1.106150E-15	1.039596E-17
4.865954E+03	1.092380E-15	1.025490E-17
4.868985E+03	1.078577E-15	1.011400E-17
4.872017E+03	1.066184E-15	9.986757E-18
4.875047E+03	1.056558E-15	9.885820E-18
4.878079E+03	1.051154E-15	9.824694E-18
4.881109E+03	1.052797E-15	9.829630E-18
4.884140E+03	1.062378E-15	9.908725E-18
4.887171E+03	1.080581E-15	1.006813E-17
4.890202E+03	1.106980E-15	1.030362E-17
4.893233E+03	1.140299E-15	1.060313E-17
4.896264E+03	1.179083E-15	1.095296E-17
4.899295E+03	1.223222E-15	1.135194E-17
4.902326E+03	1.269720E-15	1.177218E-17
4.905357E+03	1.316814E-15	1.219730E-17
4.908388E+03	1.359616E-15	1.258206E-17
4.911419E+03	1.396538E-15	1.291193E-17
4.914450E+03	1.426847E-15	1.318028E-17
4.917481E+03	1.450667E-15	1.338843E-17
4.920511E+03	1.461035E-15	1.347236E-17
4.923543E+03	1.458567E-15	1.343805E-17
4.926573E+03	1.443998E-15	1.329259E-17
4.929605E+03	1.414281E-15	1.300821E-17
4.932635E+03	1.371862E-15	1.260775E-17
4.935666E+03	1.320166E-15	1.212290E-17
4.938697E+03	1.260664E-15	1.156735E-17
4.941728E+03	1.194028E-15	1.094743E-17
4.944760E+03	1.127917E-15	1.033340E-17
4.947790E+03	1.061246E-15	9.715302E-18
4.950821E+03	9.979310E-16	9.128951E-18
4.953852E+03	9.423035E-16	8.613843E-18
4.956883E+03	8.967628E-16	8.191724E-18
4.959914E+03	8.605366E-16	7.855326E-18
4.962945E+03	8.337299E-16	7.605419E-18
4.965976E+03	8.182646E-16	7.459332E-18
4.969007E+03	8.139646E-16	7.415250E-18
4.972037E+03	8.196650E-16	7.462361E-18
4.975069E+03	8.329478E-16	7.578489E-18
4.978100E+03	8.565254E-16	7.788174E-18
4.981131E+03	8.870168E-16	8.060523E-18
4.984162E+03	9.255247E-16	8.405446E-18
4.987192E+03	9.715338E-16	8.818148E-18
4.990224E+03	1.021130E-15	9.263016E-18
4.993254E+03	1.073119E-15	9.729189E-18
4.996286E+03	1.124895E-15	1.019303E-17
4.999316E+03	1.176287E-15	1.065302E-17
5.002347E+03	1.225325E-15	1.109133E-17
5.005378E+03	1.268401E-15	1.147538E-17
5.008409E+03	1.308289E-15	1.183034E-17
5.011441E+03	1.342197E-15	1.213104E-17
5.014471E+03	1.369035E-15	1.236773E-17
5.017502E+03	1.387354E-15	1.252740E-17
5.020533E+03	1.397159E-15	1.261022E-17
5.023564E+03	1.397851E-15	1.261090E-17
5.026595E+03	1.389559E-15	1.253070E-17
5.029626E+03	1.374353E-15	1.238838E-17
5.032657E+03	1.355026E-15	1.220919E-17
5.035688E+03	1.332676E-15	1.200304E-17
5.038718E+03	1.307304E-15	1.176998E-17
5.041750E+03	1.283395E-15	1.155038E-17
5.044781E+03	1.262038E-15	1.135403E-17
5.047812E+03	1.242141E-15	1.117108E-17
