#wls	flux	fluxerr
1.594499E+03	1.481710E-17	5.247336E-19
1.634361E+03	1.522643E-17	5.371518E-19
1.674224E+03	1.560247E-17	5.482356E-19
1.714086E+03	1.594680E-17	5.580486E-19
1.753949E+03	1.624705E-17	5.661692E-19
1.793811E+03	1.649400E-17	5.722921E-19
1.833674E+03	1.666788E-17	5.757552E-19
1.873536E+03	1.674548E-17	5.757906E-19
1.913399E+03	1.670321E-17	5.716353E-19
1.953261E+03	1.651971E-17	5.626182E-19
1.993124E+03	1.621422E-17	5.494637E-19
2.032986E+03	1.583424E-17	5.338370E-19
2.072849E+03	1.548897E-17	5.194426E-19
2.112711E+03	1.534876E-17	5.119477E-19
2.152574E+03	1.555305E-17	5.158657E-19
2.192436E+03	1.618390E-17	5.337065E-19
2.232299E+03	1.720750E-17	5.641083E-19
2.272161E+03	1.852498E-17	6.036059E-19
2.312024E+03	2.002072E-17	6.482599E-19
2.351886E+03	2.160006E-17	6.948950E-19
2.391748E+03	2.320164E-17	7.414741E-19
2.431611E+03	2.479998E-17	7.871506E-19
2.471473E+03	2.636930E-17	8.310896E-19
2.511336E+03	2.791505E-17	8.734566E-19
2.551198E+03	2.944949E-17	9.146246E-19
2.591061E+03	3.096465E-17	9.543306E-19
2.630923E+03	3.248339E-17	9.932635E-19
2.670786E+03	3.400513E-17	1.031378E-18
2.710648E+03	3.553614E-17	1.068835E-18
2.750511E+03	3.708174E-17	1.105762E-18
2.790373E+03	3.866405E-17	1.142774E-18
2.830236E+03	4.026974E-17	1.179426E-18
2.870098E+03	4.191072E-17	1.216017E-18
2.909961E+03	4.359888E-17	1.252833E-18
2.949823E+03	4.534596E-17	1.290139E-18
2.989686E+03	4.715400E-17	1.327912E-18
2.999651E+03	4.762024E-17	1.337551E-18
3.009617E+03	4.808738E-17	1.347131E-18
3.019582E+03	4.855540E-17	1.356649E-18
3.029548E+03	4.904445E-17	1.366668E-18
3.039514E+03	4.952756E-17	1.376432E-18
3.049479E+03	5.002695E-17	1.386558E-18
3.059445E+03	5.054253E-17	1.397040E-18
3.069411E+03	5.106372E-17	1.407581E-18
3.079376E+03	5.158981E-17	1.418160E-18
3.089342E+03	5.213015E-17	1.429033E-18
3.099307E+03	5.268425E-17	1.440180E-18
3.109273E+03	5.325165E-17	1.451587E-18
3.119239E+03	5.382179E-17	1.462963E-18
3.129204E+03	5.440435E-17	1.474569E-18
3.139170E+03	5.499898E-17	1.486392E-18
3.149135E+03	5.559511E-17	1.498143E-18
3.159101E+03	5.620263E-17	1.510087E-18
3.169067E+03	5.682124E-17	1.522214E-18
3.179032E+03	5.745068E-17	1.534512E-18
3.188998E+03	5.809083E-17	1.546976E-18
3.198964E+03	5.874141E-17	1.559595E-18
3.208929E+03	5.939175E-17	1.572083E-18
3.218895E+03	6.006261E-17	1.584987E-18
3.228860E+03	6.074337E-17	1.598024E-18
3.238826E+03	6.143391E-17	1.611185E-18
3.248792E+03	6.213410E-17	1.624465E-18
3.258757E+03	6.284383E-17	1.637858E-18
3.268723E+03	6.357361E-17	1.651633E-18
3.278689E+03	6.431274E-17	1.665509E-18
3.288654E+03	6.506104E-17	1.679478E-18
3.298620E+03	6.581852E-17	1.693536E-18
3.308585E+03	6.659585E-17	1.707954E-18
3.318551E+03	6.739300E-17	1.722727E-18
3.328517E+03	6.819905E-17	1.737569E-18
3.338482E+03	6.901392E-17	1.752476E-18
3.348448E+03	6.984846E-17	1.767720E-18
3.358413E+03	7.070258E-17	1.783292E-18
3.368379E+03	7.157635E-17	1.799189E-18
3.378345E+03	7.246958E-17	1.815399E-18
3.388310E+03	7.337122E-17	1.831642E-18
3.398276E+03	7.429223E-17	1.848186E-18
3.408242E+03	7.524362E-17	1.865300E-18
3.418207E+03	7.620311E-17	1.882423E-18
3.428173E+03	7.719278E-17	1.900096E-18
3.438138E+03	7.820147E-17	1.918037E-18
3.448104E+03	7.922895E-17	1.936235E-18
3.458070E+03	8.027519E-17	1.954682E-18
3.468035E+03	8.135111E-17	1.973638E-18
3.478001E+03	8.245659E-17	1.993091E-18
3.487967E+03	8.358022E-17	2.012758E-18
3.497932E+03	8.473308E-17	2.032899E-18
3.507898E+03	8.591483E-17	2.053496E-18
3.517863E+03	8.711407E-17	2.074269E-18
3.527829E+03	8.835298E-17	2.095739E-18
3.537795E+03	8.960876E-17	2.117356E-18
3.547760E+03	9.090363E-17	2.139637E-18
3.557726E+03	9.222583E-17	2.162294E-18
3.567691E+03	9.357514E-17	2.185314E-18
3.577657E+03	9.495100E-17	2.208675E-18
3.587623E+03	9.636429E-17	2.232622E-18
3.597588E+03	9.781450E-17	2.257130E-18
3.607554E+03	9.928976E-17	2.281917E-18
3.617520E+03	1.008121E-16	2.307477E-18
3.627485E+03	1.023583E-16	2.333269E-18
3.637451E+03	1.039390E-16	2.359523E-18
3.647416E+03	1.055534E-16	2.386214E-18
3.657382E+03	1.072006E-16	2.413312E-18
3.667348E+03	1.088800E-16	2.440789E-18
3.677313E+03	1.106018E-16	2.468865E-18
3.687279E+03	1.123651E-16	2.497506E-18
3.697245E+03	1.141576E-16	2.526428E-18
3.707210E+03	1.159894E-16	2.555844E-18
3.717176E+03	1.178593E-16	2.585714E-18
3.727141E+03	1.197548E-16	2.615755E-18
3.737107E+03	1.216971E-16	2.646419E-18
3.747073E+03	1.236734E-16	2.677415E-18
3.757038E+03	1.256936E-16	2.708943E-18
3.767004E+03	1.277446E-16	2.740713E-18
3.776969E+03	1.298249E-16	2.772678E-18
3.786935E+03	1.319438E-16	2.805030E-18
3.796901E+03	1.340994E-16	2.837714E-18
3.806866E+03	1.362896E-16	2.870676E-18
3.816832E+03	1.385122E-16	2.903861E-18
3.826798E+03	1.407762E-16	2.937441E-18
3.836763E+03	1.430679E-16	2.971123E-18
3.846729E+03	1.453849E-16	3.004849E-18
3.856694E+03	1.477356E-16	3.038781E-18
3.866660E+03	1.501173E-16	3.072853E-18
3.876626E+03	1.525268E-16	3.106994E-18
3.886591E+03	1.549615E-16	3.141138E-18
3.896557E+03	1.574179E-16	3.175212E-18
3.906522E+03	1.598930E-16	3.209145E-18
3.916488E+03	1.623943E-16	3.243080E-18
3.926454E+03	1.649181E-16	3.276940E-18
3.936419E+03	1.674610E-16	3.310648E-18
3.946385E+03	1.700089E-16	3.343923E-18
3.956351E+03	1.725794E-16	3.377106E-18
3.966316E+03	1.751583E-16	3.409916E-18
3.976282E+03	1.777525E-16	3.442484E-18
3.986247E+03	1.803482E-16	3.474539E-18
3.996213E+03	1.829524E-16	3.506217E-18
4.006179E+03	1.855517E-16	3.537259E-18
4.016144E+03	1.881635E-16	3.568000E-18
4.026110E+03	1.907750E-16	3.598193E-18
4.036076E+03	1.933838E-16	3.627796E-18
4.046041E+03	1.959980E-16	3.656962E-18
4.056007E+03	1.986062E-16	3.685478E-18
4.065972E+03	2.012174E-16	3.713516E-18
4.075938E+03	2.038315E-16	3.741071E-18
4.085904E+03	2.064487E-16	3.768152E-18
4.095869E+03	2.090705E-16	3.794787E-18
4.105835E+03	2.116991E-16	3.821014E-18
4.115800E+03	2.143469E-16	3.847055E-18
4.125766E+03	2.170082E-16	3.872809E-18
4.135732E+03	2.196970E-16	3.898521E-18
4.145697E+03	2.224187E-16	3.924280E-18
4.155663E+03	2.251791E-16	3.950184E-18
4.165629E+03	2.279852E-16	3.976342E-18
4.175594E+03	2.308441E-16	4.002868E-18
4.185560E+03	2.337635E-16	4.029885E-18
4.195525E+03	2.367515E-16	4.057516E-18
4.205491E+03	2.398251E-16	4.086033E-18
4.215457E+03	2.429841E-16	4.115412E-18
4.225422E+03	2.462454E-16	4.145918E-18
4.235388E+03	2.496090E-16	4.177523E-18
4.245354E+03	2.530915E-16	4.210478E-18
4.255319E+03	2.567006E-16	4.244882E-18
4.265285E+03	2.604436E-16	4.280819E-18
4.275250E+03	2.643188E-16	4.318234E-18
4.285216E+03	2.683484E-16	4.357449E-18
4.295182E+03	2.725207E-16	4.398240E-18
4.305147E+03	2.768473E-16	4.440758E-18
4.315113E+03	2.813301E-16	4.484994E-18
4.325078E+03	2.859693E-16	4.530917E-18
4.335044E+03	2.907631E-16	4.578458E-18
4.345010E+03	2.957073E-16	4.627518E-18
4.354975E+03	3.007950E-16	4.677957E-18
4.364941E+03	3.060085E-16	4.729470E-18
4.374907E+03	3.113517E-16	4.782091E-18
4.384872E+03	3.168170E-16	4.835681E-18
4.394838E+03	3.224414E-16	4.890780E-18
4.404803E+03	3.282539E-16	4.947790E-18
4.414769E+03	3.342748E-16	5.006977E-18
4.424735E+03	3.405387E-16	5.068814E-18
4.434700E+03	3.470711E-16	5.133626E-18
4.444666E+03	3.538882E-16	5.201593E-18
4.454632E+03	3.610282E-16	5.273212E-18
4.464597E+03	3.684880E-16	5.348370E-18
4.474563E+03	3.763019E-16	5.427493E-18
4.484528E+03	3.844859E-16	5.510737E-18
4.494494E+03	3.930537E-16	5.598220E-18
4.504460E+03	4.020158E-16	5.690015E-18
4.514425E+03	4.113795E-16	5.786146E-18
4.524391E+03	4.211409E-16	5.886482E-18
4.534356E+03	4.313161E-16	5.991170E-18
4.544322E+03	4.418851E-16	6.099863E-18
4.554288E+03	4.528400E-16	6.212384E-18
4.564253E+03	4.641687E-16	6.328504E-18
4.574219E+03	4.758546E-16	6.447936E-18
4.584185E+03	4.878610E-16	6.570130E-18
4.594150E+03	5.001549E-16	6.694602E-18
4.604116E+03	5.127169E-16	6.821057E-18
4.614081E+03	5.254908E-16	6.948727E-18
4.624047E+03	5.384514E-16	7.077269E-18
4.634013E+03	5.515377E-16	7.205883E-18
4.643978E+03	5.647131E-16	7.334107E-18
4.653944E+03	5.779324E-16	7.461378E-18
4.663910E+03	5.911426E-16	7.587050E-18
4.673875E+03	6.043101E-16	7.710741E-18
4.683841E+03	6.173783E-16	7.831790E-18
4.693806E+03	6.303216E-16	7.949941E-18
4.703772E+03	6.431020E-16	8.064791E-18
4.713738E+03	6.556968E-16	8.176140E-18
4.723703E+03	6.680810E-16	8.283765E-18
4.733669E+03	6.802457E-16	8.387647E-18
4.743634E+03	6.921890E-16	8.487859E-18
4.753600E+03	7.039155E-16	8.584545E-18
4.763566E+03	7.154178E-16	8.677712E-18
4.773531E+03	7.266955E-16	8.767443E-18
4.783497E+03	7.377083E-16	8.853348E-18
4.793463E+03	7.483967E-16	8.934817E-18
4.803428E+03	7.586867E-16	9.011076E-18
4.813394E+03	7.685305E-16	9.081683E-18
4.823359E+03	7.778722E-16	9.146107E-18
4.833325E+03	7.866597E-16	9.203872E-18
4.843291E+03	7.948313E-16	9.254400E-18
4.853256E+03	8.023567E-16	9.297486E-18
4.863222E+03	8.091726E-16	9.332546E-18
4.873188E+03	8.152457E-16	9.359355E-18
4.883153E+03	8.205493E-16	9.377758E-18
4.893119E+03	8.250427E-16	9.387445E-18
4.903084E+03	8.287190E-16	9.388490E-18
4.913050E+03	8.315529E-16	9.380755E-18
4.923016E+03	8.335450E-16	9.364378E-18
4.932981E+03	8.347159E-16	9.339695E-18
4.942947E+03	8.350680E-16	9.306829E-18
4.952912E+03	8.346327E-16	9.266218E-18
4.962878E+03	8.334695E-16	9.218600E-18
4.972844E+03	8.316104E-16	9.164394E-18
4.982809E+03	8.291229E-16	9.104399E-18
4.992775E+03	8.260720E-16	9.039373E-18
5.002741E+03	8.225264E-16	8.970098E-18
5.012706E+03	8.185703E-16	8.897514E-18
5.022672E+03	8.142714E-16	8.822365E-18
5.032637E+03	8.097343E-16	8.745785E-18
5.042603E+03	8.050237E-16	8.668460E-18
5.052569E+03	8.002361E-16	8.591411E-18
5.062534E+03	7.954509E-16	8.515464E-18
5.072500E+03	7.907629E-16	8.441596E-18
5.082465E+03	7.862307E-16	8.370393E-18
5.092431E+03	7.819498E-16	8.302826E-18
5.102397E+03	7.779852E-16	8.239532E-18
5.112362E+03	7.744053E-16	8.181182E-18
5.122328E+03	7.712729E-16	8.128381E-18
5.132294E+03	7.686342E-16	8.081558E-18
5.142259E+03	7.665435E-16	8.041222E-18
5.152225E+03	7.650329E-16	8.007651E-18
5.162190E+03	7.641337E-16	7.981113E-18
5.172156E+03	7.638749E-16	7.961853E-18
5.182122E+03	7.642571E-16	7.949821E-18
5.192087E+03	7.653008E-16	7.945177E-18
5.202053E+03	7.669967E-16	7.947773E-18
5.212019E+03	7.693302E-16	7.957412E-18
5.221984E+03	7.723003E-16	7.974039E-18
5.231950E+03	7.758728E-16	7.997261E-18
5.241915E+03	7.800305E-16	8.026864E-18
5.251881E+03	7.847350E-16	8.062421E-18
5.261847E+03	7.899696E-16	8.103732E-18
5.271812E+03	7.956723E-16	8.150135E-18
5.281778E+03	8.018269E-16	8.201445E-18
5.291743E+03	8.083652E-16	8.256946E-18
5.301709E+03	8.152565E-16	8.316310E-18
5.311675E+03	8.224449E-16	8.378957E-18
5.321640E+03	8.298790E-16	8.444356E-18
5.331606E+03	8.374987E-16	8.511892E-18
5.341572E+03	8.452604E-16	8.581120E-18
5.351537E+03	8.531119E-16	8.651510E-18
5.361503E+03	8.609927E-16	8.722454E-18
5.371468E+03	8.688459E-16	8.793382E-18
5.381434E+03	8.766336E-16	8.863915E-18
5.391400E+03	8.843128E-16	8.933630E-18
5.401365E+03	8.918380E-16	9.002076E-18
5.411331E+03	8.991686E-16	9.068856E-18
5.421297E+03	9.062793E-16	9.133725E-18
5.431262E+03	9.131650E-16	9.196645E-18
5.441228E+03	9.198006E-16	9.257375E-18
5.451193E+03	9.261907E-16	9.315974E-18
5.461159E+03	9.323504E-16	9.372607E-18
5.471125E+03	9.382860E-16	9.427346E-18
5.481090E+03	9.440216E-16	9.480446E-18
5.491056E+03	9.494906E-16	9.531246E-18
5.501021E+03	9.546705E-16	9.579526E-18
5.510987E+03	9.594976E-16	9.624629E-18
5.520953E+03	9.639543E-16	9.666362E-18
5.530918E+03	9.679913E-16	9.704213E-18
5.540884E+03	9.716161E-16	9.738238E-18
5.550850E+03	9.747885E-16	9.768016E-18
5.560815E+03	9.775140E-16	9.793581E-18
5.570781E+03	9.798090E-16	9.815079E-18
5.580746E+03	9.816681E-16	9.832433E-18
5.590712E+03	9.831154E-16	9.845865E-18
5.600678E+03	9.841881E-16	9.855726E-18
5.610643E+03	9.849027E-16	9.862160E-18
5.620609E+03	9.853164E-16	9.865720E-18
5.630575E+03	9.854422E-16	9.866513E-18
5.640540E+03	9.853324E-16	9.865043E-18
5.650506E+03	9.850322E-16	9.861745E-18
5.660471E+03	9.845801E-16	9.856982E-18
5.670437E+03	9.840136E-16	9.851112E-18
5.680403E+03	9.833944E-16	9.844737E-18
5.690368E+03	9.827552E-16	9.838165E-18
5.700334E+03	9.821521E-16	9.831941E-18
5.710299E+03	9.816306E-16	9.826507E-18
5.720265E+03	9.812592E-16	9.822532E-18
5.730231E+03	9.810634E-16	9.820258E-18
5.740196E+03	9.811162E-16	9.820402E-18
5.750162E+03	9.814369E-16	9.823145E-18
5.760128E+03	9.820777E-16	9.828997E-18
5.770093E+03	9.830626E-16	9.838189E-18
5.780059E+03	9.844061E-16	9.850852E-18
5.790024E+03	9.861108E-16	9.867003E-18
5.799990E+03	9.881767E-16	9.886632E-18
5.809956E+03	9.905818E-16	9.909509E-18
5.819921E+03	9.932889E-16	9.935255E-18
5.829887E+03	9.962591E-16	9.963470E-18
5.839853E+03	9.994320E-16	9.993544E-18
5.849818E+03	1.002726E-15	1.002466E-17
5.859784E+03	1.006081E-15	1.005620E-17
5.869749E+03	1.009414E-15	1.008733E-17
5.879715E+03	1.012627E-15	1.011708E-17
5.889681E+03	1.015644E-15	1.014468E-17
5.899646E+03	1.018391E-15	1.016940E-17
5.909612E+03	1.020795E-15	1.019050E-17
5.919577E+03	1.022791E-15	1.020735E-17
5.929543E+03	1.024331E-15	1.021946E-17
5.939509E+03	1.025378E-15	1.022649E-17
5.949474E+03	1.025933E-15	1.022844E-17
5.959440E+03	1.025977E-15	1.022514E-17
5.969406E+03	1.025517E-15	1.021666E-17
5.979371E+03	1.024584E-15	1.020333E-17
5.989337E+03	1.023198E-15	1.018537E-17
5.999302E+03	1.021375E-15	1.016293E-17
6.009268E+03	1.019168E-15	1.013659E-17
6.019234E+03	1.016596E-15	1.010653E-17
6.029199E+03	1.013686E-15	1.007303E-17
6.039165E+03	1.010489E-15	1.003663E-17
6.049130E+03	1.007008E-15	9.997367E-18
6.059096E+03	1.003289E-15	9.955716E-18
6.069062E+03	9.993455E-16	9.911839E-18
6.079027E+03	9.951969E-16	9.865934E-18
6.088993E+03	9.908570E-16	9.818163E-18
6.098959E+03	9.863364E-16	9.768647E-18
6.108924E+03	9.816419E-16	9.717473E-18
6.118890E+03	9.767859E-16	9.664784E-18
6.128855E+03	9.717712E-16	9.610627E-18
6.138821E+03	9.666075E-16	9.555115E-18
6.148787E+03	9.612955E-16	9.498277E-18
6.158752E+03	9.558474E-16	9.440253E-18
6.168718E+03	9.502776E-16	9.381203E-18
6.178684E+03	9.446025E-16	9.321310E-18
6.188649E+03	9.388427E-16	9.260795E-18
6.198615E+03	9.330199E-16	9.199889E-18
6.208580E+03	9.271601E-16	9.138859E-18
6.218546E+03	9.212915E-16	9.077991E-18
6.228512E+03	9.154414E-16	9.017564E-18
6.238477E+03	9.096386E-16	8.957869E-18
6.248443E+03	9.038879E-16	8.898962E-18
6.258408E+03	8.982333E-16	8.841283E-18
6.268374E+03	8.926884E-16	8.784975E-18
6.278340E+03	8.872882E-16	8.730392E-18
6.288305E+03	8.820898E-16	8.678102E-18
6.298271E+03	8.771110E-16	8.628290E-18
6.308237E+03	8.724158E-16	8.581594E-18
6.318202E+03	8.680551E-16	8.538525E-18
6.328168E+03	8.640718E-16	8.499512E-18
6.338133E+03	8.605192E-16	8.465092E-18
6.348099E+03	8.574662E-16	8.435954E-18
6.358065E+03	8.549547E-16	8.412524E-18
6.368030E+03	8.530341E-16	8.395302E-18
6.377996E+03	8.517562E-16	8.384814E-18
6.387962E+03	8.511535E-16	8.381399E-18
6.397927E+03	8.512642E-16	8.385454E-18
6.407893E+03	8.521137E-16	8.397252E-18
6.417858E+03	8.537239E-16	8.417037E-18
6.427824E+03	8.560784E-16	8.444676E-18
6.437790E+03	8.591837E-16	8.480263E-18
6.447755E+03	8.630049E-16	8.523488E-18
6.457721E+03	8.675128E-16	8.574098E-18
6.467686E+03	8.726462E-16	8.631529E-18
6.477652E+03	8.783589E-16	8.695343E-18
6.487618E+03	8.845595E-16	8.764638E-18
6.497583E+03	8.911840E-16	8.838779E-18
6.507549E+03	8.981566E-16	8.917014E-18
6.517515E+03	9.053537E-16	8.998108E-18
6.527480E+03	9.125803E-16	9.080118E-18
6.537446E+03	9.196467E-16	9.161138E-18
6.547411E+03	9.263681E-16	9.239306E-18
6.557377E+03	9.325576E-16	9.312724E-18
6.567343E+03	9.380639E-16	9.379842E-18
6.577308E+03	9.427321E-16	9.439064E-18
6.587274E+03	9.464335E-16	9.489043E-18
6.597240E+03	9.490634E-16	9.528671E-18
6.607205E+03	9.505716E-16	9.557372E-18
6.617171E+03	9.509100E-16	9.574590E-18
6.627136E+03	9.500869E-16	9.580334E-18
6.637102E+03	9.481350E-16	9.574858E-18
6.647068E+03	9.451305E-16	9.558855E-18
6.657033E+03	9.411593E-16	9.533125E-18
6.666999E+03	9.363520E-16	9.498923E-18
6.676964E+03	9.308475E-16	9.457595E-18
6.686930E+03	9.247968E-16	9.410624E-18
6.696896E+03	9.183475E-16	9.359466E-18
6.706861E+03	9.116767E-16	9.305886E-18
6.716827E+03	9.049260E-16	9.251303E-18
6.726793E+03	8.982367E-16	9.197139E-18
6.736758E+03	8.917481E-16	9.144807E-18
6.746724E+03	8.855517E-16	9.095240E-18
6.756689E+03	8.797612E-16	9.049605E-18
6.766655E+03	8.744391E-16	9.008550E-18
6.776621E+03	8.696285E-16	8.972526E-18
6.786586E+03	8.653819E-16	8.942086E-18
6.796552E+03	8.617051E-16	8.917304E-18
6.806518E+03	8.585854E-16	8.898062E-18
6.816483E+03	8.560166E-16	8.884310E-18
6.826449E+03	8.539718E-16	8.875781E-18
6.836414E+03	8.524054E-16	8.872013E-18
6.846380E+03	8.512858E-16	8.872687E-18
6.856346E+03	8.505606E-16	8.877268E-18
6.866311E+03	8.501858E-16	8.885300E-18
6.876277E+03	8.501315E-16	8.896478E-18
6.886242E+03	8.503404E-16	8.910204E-18
6.896208E+03	8.508009E-16	8.926360E-18
6.906174E+03	8.514646E-16	8.944441E-18
6.916139E+03	8.523096E-16	8.964215E-18
6.926105E+03	8.533264E-16	8.985582E-18
6.936071E+03	8.545000E-16	9.008384E-18
6.946036E+03	8.558083E-16	9.032387E-18
6.956002E+03	8.572415E-16	9.057487E-18
6.965967E+03	8.587816E-16	9.083491E-18
6.975933E+03	8.604426E-16	9.110547E-18
6.985899E+03	8.622086E-16	9.138487E-18
6.995864E+03	8.640661E-16	9.167166E-18
7.005830E+03	8.660150E-16	9.196582E-18
7.015796E+03	8.680658E-16	9.226848E-18
7.025761E+03	8.702112E-16	9.257886E-18
7.035727E+03	8.724662E-16	9.289855E-18
7.045692E+03	8.748176E-16	9.322618E-18
7.055658E+03	8.772818E-16	9.356351E-18
7.065624E+03	8.798679E-16	9.391153E-18
7.075589E+03	8.825820E-16	9.427092E-18
7.085555E+03	8.854178E-16	9.464105E-18
7.095520E+03	8.883799E-16	9.502245E-18
7.105486E+03	8.914790E-16	9.541631E-18
7.115452E+03	8.947028E-16	9.582135E-18
7.125417E+03	8.980463E-16	9.623711E-18
7.135383E+03	9.015016E-16	9.666277E-18
7.145349E+03	9.050576E-16	9.709722E-18
7.155314E+03	9.086981E-16	9.753878E-18
7.165280E+03	9.123940E-16	9.798437E-18
7.175245E+03	9.161346E-16	9.843293E-18
7.185211E+03	9.198816E-16	9.888041E-18
7.195177E+03	9.236189E-16	9.932515E-18
7.205142E+03	9.273040E-16	9.976265E-18
7.215108E+03	9.309047E-16	1.001895E-17
7.225073E+03	9.343977E-16	1.006033E-17
7.235039E+03	9.377262E-16	1.009981E-17
7.245005E+03	9.408792E-16	1.013727E-17
7.254970E+03	9.438005E-16	1.017211E-17
7.264936E+03	9.464703E-16	1.020414E-17
7.274902E+03	9.488600E-16	1.023305E-17
7.284867E+03	9.509435E-16	1.025858E-17
7.294833E+03	9.527003E-16	1.028051E-17
7.304798E+03	9.541033E-16	1.029858E-17
7.314764E+03	9.551707E-16	1.031297E-17
7.324730E+03	9.558768E-16	1.032344E-17
7.334695E+03	9.562461E-16	1.033026E-17
7.344661E+03	9.562951E-16	1.033363E-17
7.354627E+03	9.560353E-16	1.033368E-17
7.364592E+03	9.555229E-16	1.033103E-17
7.374558E+03	9.547898E-16	1.032606E-17
7.384523E+03	9.538416E-16	1.031883E-17
7.394489E+03	9.527470E-16	1.031011E-17
7.404455E+03	9.515065E-16	1.029993E-17
7.414420E+03	9.501652E-16	1.028878E-17
7.424386E+03	9.487254E-16	1.027671E-17
7.434351E+03	9.472106E-16	1.026400E-17
7.444317E+03	9.456258E-16	1.025072E-17
7.454283E+03	9.439860E-16	1.023706E-17
7.464248E+03	9.422791E-16	1.022289E-17
7.474214E+03	9.405187E-16	1.020839E-17
7.484180E+03	9.386800E-16	1.019331E-17
7.494145E+03	9.367658E-16	1.017770E-17
7.504111E+03	9.347950E-16	1.016178E-17
7.514076E+03	9.327753E-16	1.014565E-17
7.524042E+03	9.306912E-16	1.012917E-17
7.534008E+03	9.285698E-16	1.011264E-17
7.543973E+03	9.264252E-16	1.009625E-17
7.553939E+03	9.242767E-16	1.008021E-17
7.563905E+03	9.221416E-16	1.006474E-17
7.573870E+03	9.200399E-16	1.005005E-17
7.583836E+03	9.180035E-16	1.003648E-17
7.593801E+03	9.160251E-16	1.002393E-17
7.603767E+03	9.141375E-16	1.001275E-17
7.613733E+03	9.123725E-16	1.000325E-17
7.623698E+03	9.107305E-16	9.995438E-18
7.633664E+03	9.092217E-16	9.989402E-18
7.643629E+03	9.078637E-16	9.985320E-18
7.653595E+03	9.066434E-16	9.983038E-18
7.663561E+03	9.055848E-16	9.982804E-18
7.673526E+03	9.046540E-16	9.984233E-18
7.683492E+03	9.038532E-16	9.987338E-18
7.693458E+03	9.031710E-16	9.991979E-18
7.703423E+03	9.026063E-16	9.998132E-18
7.713389E+03	9.021168E-16	1.000532E-17
7.723354E+03	9.017289E-16	1.001381E-17
7.733320E+03	9.013847E-16	1.002296E-17
