#wls	flux	fluxerr
1.594261E+03	4.952107E-02	1.312437E-03
1.634117E+03	4.839110E-02	1.247503E-03
1.673974E+03	4.724527E-02	1.184060E-03
1.713830E+03	4.615509E-02	1.123956E-03
1.753687E+03	4.521935E-02	1.069480E-03
1.793543E+03	4.456478E-02	1.023299E-03
1.833400E+03	4.434052E-02	9.882485E-04
1.873256E+03	4.469860E-02	9.668645E-04
1.913113E+03	4.575591E-02	9.606153E-04
1.952969E+03	4.754012E-02	9.689561E-04
1.992826E+03	4.992820E-02	9.884258E-04
2.032682E+03	5.263139E-02	1.012808E-03
2.072539E+03	5.533829E-02	1.036227E-03
2.112395E+03	5.784251E-02	1.055432E-03
2.152252E+03	5.979579E-02	1.064972E-03
2.192108E+03	6.100094E-02	1.062440E-03
2.231965E+03	6.139063E-02	1.047774E-03
2.271821E+03	6.104389E-02	1.023239E-03
2.311678E+03	6.012850E-02	9.921768E-04
2.351534E+03	5.894653E-02	9.596901E-04
2.391391E+03	5.783984E-02	9.311642E-04
2.431248E+03	5.701130E-02	9.095187E-04
2.471104E+03	5.652485E-02	8.954101E-04
2.510961E+03	5.635870E-02	8.881913E-04
2.550817E+03	5.641805E-02	8.861460E-04
2.590674E+03	5.652718E-02	8.863624E-04
2.630530E+03	5.650820E-02	8.859172E-04
2.670387E+03	5.628381E-02	8.833528E-04
2.710243E+03	5.593643E-02	8.796763E-04
2.750100E+03	5.563350E-02	8.772551E-04
2.789956E+03	5.549879E-02	8.778197E-04
2.829813E+03	5.555281E-02	8.815166E-04
2.869669E+03	5.572265E-02	8.870384E-04
2.909526E+03	5.589486E-02	8.924399E-04
2.949382E+03	5.598595E-02	8.962578E-04
2.989239E+03	5.598643E-02	8.982279E-04
2.999203E+03	5.597865E-02	8.985215E-04
3.009167E+03	5.597031E-02	8.987752E-04
3.019131E+03	5.596313E-02	8.990156E-04
3.029095E+03	5.595867E-02	8.992674E-04
3.039059E+03	5.595822E-02	8.995503E-04
3.049024E+03	5.596328E-02	8.998881E-04
3.058988E+03	5.597539E-02	9.003052E-04
3.068952E+03	5.599572E-02	9.008199E-04
3.078916E+03	5.602534E-02	9.014493E-04
3.088880E+03	5.606485E-02	9.022026E-04
3.098844E+03	5.611487E-02	9.030897E-04
3.108808E+03	5.617626E-02	9.041245E-04
3.118772E+03	5.624876E-02	9.053026E-04
3.128737E+03	5.633260E-02	9.066275E-04
3.138701E+03	5.642731E-02	9.080918E-04
3.148665E+03	5.653287E-02	9.096952E-04
3.158629E+03	5.664822E-02	9.114208E-04
3.168593E+03	5.677275E-02	9.132585E-04
3.178557E+03	5.690541E-02	9.151920E-04
3.188521E+03	5.704479E-02	9.171987E-04
3.198485E+03	5.718995E-02	9.192639E-04
3.208450E+03	5.733886E-02	9.213550E-04
3.218414E+03	5.749021E-02	9.234518E-04
3.228378E+03	5.764159E-02	9.255159E-04
3.238342E+03	5.779105E-02	9.275167E-04
3.248306E+03	5.793623E-02	9.294170E-04
3.258270E+03	5.807452E-02	9.311762E-04
3.268234E+03	5.820335E-02	9.327539E-04
3.278198E+03	5.831912E-02	9.340938E-04
3.288163E+03	5.841877E-02	9.351483E-04
3.298127E+03	5.849898E-02	9.358660E-04
3.308091E+03	5.855543E-02	9.361793E-04
3.318055E+03	5.858465E-02	9.360353E-04
3.328019E+03	5.858219E-02	9.353651E-04
3.337983E+03	5.854385E-02	9.341040E-04
3.347947E+03	5.846542E-02	9.321878E-04
3.357912E+03	5.834286E-02	9.295553E-04
3.367876E+03	5.817273E-02	9.261548E-04
3.377840E+03	5.795173E-02	9.219375E-04
3.387804E+03	5.767763E-02	9.168715E-04
3.397768E+03	5.734975E-02	9.109497E-04
3.407732E+03	5.696840E-02	9.041812E-04
3.417696E+03	5.653612E-02	8.966100E-04
3.427660E+03	5.605784E-02	8.883182E-04
3.437625E+03	5.554021E-02	8.794145E-04
3.447589E+03	5.499230E-02	8.700454E-04
3.457553E+03	5.442380E-02	8.603652E-04
3.467517E+03	5.384519E-02	8.505386E-04
3.477481E+03	5.326600E-02	8.407153E-04
3.487445E+03	5.269549E-02	8.310400E-04
3.497409E+03	5.214174E-02	8.216387E-04
3.507373E+03	5.161262E-02	8.126335E-04
3.517338E+03	5.111477E-02	8.041274E-04
3.527302E+03	5.065335E-02	7.961989E-04
3.537266E+03	5.023237E-02	7.889088E-04
3.547230E+03	4.985382E-02	7.822861E-04
3.557194E+03	4.951777E-02	7.763294E-04
3.567158E+03	4.922338E-02	7.710230E-04
3.577122E+03	4.896761E-02	7.663170E-04
3.587086E+03	4.874681E-02	7.621521E-04
3.597051E+03	4.855723E-02	7.584674E-04
3.607015E+03	4.839413E-02	7.551873E-04
3.616979E+03	4.825274E-02	7.522356E-04
3.626943E+03	4.812929E-02	7.495521E-04
3.636907E+03	4.801952E-02	7.470690E-04
3.646871E+03	4.792061E-02	7.447419E-04
3.656835E+03	4.782948E-02	7.425219E-04
3.666800E+03	4.774443E-02	7.403818E-04
3.676764E+03	4.766343E-02	7.382900E-04
3.686728E+03	4.758577E-02	7.362348E-04
3.696692E+03	4.751036E-02	7.341992E-04
3.706656E+03	4.743659E-02	7.321737E-04
3.716620E+03	4.736395E-02	7.301502E-04
3.726584E+03	4.729219E-02	7.281249E-04
3.736548E+03	4.722034E-02	7.260830E-04
3.746513E+03	4.714815E-02	7.240210E-04
3.756477E+03	4.707476E-02	7.219257E-04
3.766441E+03	4.699861E-02	7.197739E-04
3.776405E+03	4.691876E-02	7.175519E-04
3.786369E+03	4.683368E-02	7.152368E-04
3.796333E+03	4.674140E-02	7.127995E-04
3.806297E+03	4.664023E-02	7.102156E-04
3.816261E+03	4.652884E-02	7.074659E-04
3.826226E+03	4.640575E-02	7.045296E-04
3.836190E+03	4.627040E-02	7.013999E-04
3.846154E+03	4.612257E-02	6.980752E-04
3.856118E+03	4.596255E-02	6.945618E-04
3.866082E+03	4.579168E-02	6.908819E-04
3.876046E+03	4.561148E-02	6.870602E-04
3.886010E+03	4.542446E-02	6.831365E-04
3.895974E+03	4.523320E-02	6.791513E-04
3.905939E+03	4.504048E-02	6.751480E-04
3.915903E+03	4.484916E-02	6.711706E-04
3.925867E+03	4.466169E-02	6.672575E-04
3.935831E+03	4.448081E-02	6.634504E-04
3.945795E+03	4.430876E-02	6.597838E-04
3.955759E+03	4.414737E-02	6.562858E-04
3.965723E+03	4.399815E-02	6.529800E-04
3.975688E+03	4.386209E-02	6.498813E-04
3.985652E+03	4.373969E-02	6.469984E-04
3.995616E+03	4.363071E-02	6.443283E-04
4.005580E+03	4.353417E-02	6.418575E-04
4.015544E+03	4.344829E-02	6.395606E-04
4.025508E+03	4.337031E-02	6.373986E-04
4.035472E+03	4.329694E-02	6.353243E-04
4.045436E+03	4.322357E-02	6.332724E-04
4.055401E+03	4.314621E-02	6.311863E-04
4.065365E+03	4.306014E-02	6.289997E-04
4.075329E+03	4.296172E-02	6.266622E-04
4.085293E+03	4.284777E-02	6.241303E-04
4.095257E+03	4.271670E-02	6.213842E-04
4.105221E+03	4.256855E-02	6.184277E-04
4.115185E+03	4.240527E-02	6.152921E-04
4.125149E+03	4.222995E-02	6.120252E-04
4.135114E+03	4.204741E-02	6.086996E-04
4.145078E+03	4.186304E-02	6.053955E-04
4.155042E+03	4.168194E-02	6.021887E-04
4.165006E+03	4.150993E-02	5.991652E-04
4.174970E+03	4.135065E-02	5.963792E-04
4.184934E+03	4.120648E-02	5.938665E-04
4.194898E+03	4.107814E-02	5.916393E-04
4.204862E+03	4.096280E-02	5.896583E-04
4.214827E+03	4.085542E-02	5.878531E-04
4.224791E+03	4.074742E-02	5.861020E-04
4.234755E+03	4.062739E-02	5.842433E-04
4.244719E+03	4.048060E-02	5.820672E-04
4.254683E+03	4.028959E-02	5.793246E-04
4.264647E+03	4.003485E-02	5.757365E-04
4.274611E+03	3.969600E-02	5.710104E-04
4.284576E+03	3.925292E-02	5.648564E-04
4.294540E+03	3.868848E-02	5.570251E-04
4.304504E+03	3.798921E-02	5.473162E-04
4.314468E+03	3.714776E-02	5.356141E-04
4.324432E+03	3.616586E-02	5.219319E-04
4.334396E+03	3.505537E-02	5.064280E-04
4.344360E+03	3.384442E-02	4.894957E-04
4.354324E+03	3.258450E-02	4.718675E-04
4.364289E+03	3.134672E-02	4.545638E-04
4.374253E+03	3.019733E-02	4.385402E-04
4.384217E+03	2.917454E-02	4.243512E-04
4.394181E+03	2.828725E-02	4.121289E-04
4.404145E+03	2.752893E-02	4.017824E-04
4.414109E+03	2.688638E-02	3.931241E-04
4.424073E+03	2.634503E-02	3.859454E-04
4.434037E+03	2.589003E-02	3.800337E-04
4.444002E+03	2.550750E-02	3.751890E-04
4.453966E+03	2.518525E-02	3.712354E-04
4.463930E+03	2.491328E-02	3.680285E-04
4.473894E+03	2.468312E-02	3.654456E-04
4.483858E+03	2.448842E-02	3.633946E-04
4.493822E+03	2.432434E-02	3.618052E-04
4.503786E+03	2.418710E-02	3.606225E-04
4.513750E+03	2.407428E-02	3.598115E-04
4.523715E+03	2.398391E-02	3.593442E-04
4.533679E+03	2.391426E-02	3.591953E-04
4.543643E+03	2.386409E-02	3.593474E-04
4.553607E+03	2.383212E-02	3.597822E-04
4.563571E+03	2.381697E-02	3.604796E-04
4.573535E+03	2.381740E-02	3.614217E-04
4.583499E+03	2.383201E-02	3.625881E-04
4.593464E+03	2.386013E-02	3.639693E-04
4.603428E+03	2.390098E-02	3.655540E-04
4.613392E+03	2.395424E-02	3.673379E-04
4.623356E+03	2.402022E-02	3.693264E-04
4.633320E+03	2.409970E-02	3.715325E-04
4.643284E+03	2.419400E-02	3.739773E-04
4.653248E+03	2.430516E-02	3.766934E-04
4.663212E+03	2.443540E-02	3.797169E-04
4.673177E+03	2.458743E-02	3.830918E-04
4.683141E+03	2.476421E-02	3.868661E-04
4.693105E+03	2.496897E-02	3.910931E-04
4.703069E+03	2.520442E-02	3.958180E-04
4.713033E+03	2.547316E-02	4.010853E-04
4.722997E+03	2.577677E-02	4.069234E-04
4.732961E+03	2.611522E-02	4.133355E-04
4.742925E+03	2.648773E-02	4.203130E-04
4.752890E+03	2.689043E-02	4.277980E-04
4.762854E+03	2.731763E-02	4.357033E-04
4.772818E+03	2.776060E-02	4.438913E-04
4.782782E+03	2.820849E-02	4.521902E-04
4.792746E+03	2.864804E-02	4.603867E-04
4.802710E+03	2.906448E-02	4.682416E-04
4.812674E+03	2.944213E-02	4.754985E-04
4.822639E+03	2.976629E-02	4.819148E-04
4.832603E+03	3.002404E-02	4.872739E-04
4.842567E+03	3.020456E-02	4.913925E-04
4.852531E+03	3.030160E-02	4.941589E-04
4.862495E+03	3.031293E-02	4.955274E-04
4.872459E+03	3.024082E-02	4.955254E-04
4.882423E+03	3.009151E-02	4.942456E-04
4.892387E+03	2.987458E-02	4.918373E-04
4.902352E+03	2.960199E-02	4.884907E-04
4.912316E+03	2.928609E-02	4.844036E-04
4.922280E+03	2.894002E-02	4.797900E-04
4.932244E+03	2.857492E-02	4.748318E-04
4.942208E+03	2.820112E-02	4.696994E-04
4.952172E+03	2.782611E-02	4.645175E-04
4.962136E+03	2.745562E-02	4.593825E-04
4.972100E+03	2.709271E-02	4.543470E-04
4.982065E+03	2.673961E-02	4.494498E-04
4.992029E+03	2.639678E-02	4.447006E-04
5.001993E+03	2.606357E-02	4.400902E-04
5.011957E+03	2.573975E-02	4.356162E-04
5.021921E+03	2.542448E-02	4.312666E-04
5.031885E+03	2.511766E-02	4.270410E-04
5.041849E+03	2.481922E-02	4.229398E-04
5.051813E+03	2.452996E-02	4.189786E-04
5.061778E+03	2.425092E-02	4.151767E-04
5.071742E+03	2.398389E-02	4.115666E-04
5.081706E+03	2.373063E-02	4.081811E-04
5.091670E+03	2.349323E-02	4.050581E-04
5.101634E+03	2.327397E-02	4.022397E-04
5.111598E+03	2.307478E-02	3.997624E-04
5.121562E+03	2.289698E-02	3.976524E-04
5.131527E+03	2.274183E-02	3.959349E-04
5.141491E+03	2.260956E-02	3.946174E-04
5.151455E+03	2.250013E-02	3.937034E-04
5.161419E+03	2.241265E-02	3.931808E-04
5.171383E+03	2.234535E-02	3.930225E-04
5.181347E+03	2.229628E-02	3.931978E-04
5.191311E+03	2.226285E-02	3.936643E-04
5.201275E+03	2.224190E-02	3.943693E-04
5.211240E+03	2.223045E-02	3.952626E-04
5.221204E+03	2.222499E-02	3.962842E-04
5.231168E+03	2.222260E-02	3.973839E-04
5.241132E+03	2.221955E-02	3.984964E-04
5.251096E+03	2.221259E-02	3.995643E-04
5.261060E+03	2.219888E-02	4.005368E-04
5.271024E+03	2.217478E-02	4.013482E-04
5.280988E+03	2.213723E-02	4.019419E-04
5.290953E+03	2.208259E-02	4.022507E-04
5.300917E+03	2.200770E-02	4.022146E-04
5.310881E+03	2.190835E-02	4.017533E-04
5.320845E+03	2.178069E-02	4.007924E-04
5.330809E+03	2.162046E-02	3.992484E-04
5.340773E+03	2.142312E-02	3.970310E-04
5.350737E+03	2.118462E-02	3.940577E-04
5.360701E+03	2.090111E-02	3.902478E-04
5.370666E+03	2.056955E-02	3.855347E-04
5.380630E+03	2.018829E-02	3.798759E-04
5.390594E+03	1.975751E-02	3.732618E-04
5.400558E+03	1.928071E-02	3.657448E-04
5.410522E+03	1.876521E-02	3.574503E-04
5.420486E+03	1.822380E-02	3.486104E-04
5.430450E+03	1.767468E-02	3.395648E-04
5.440415E+03	1.713943E-02	3.307245E-04
5.450379E+03	1.663853E-02	3.224869E-04
5.460343E+03	1.619030E-02	3.152142E-04
5.470307E+03	1.580802E-02	3.091772E-04
5.480271E+03	1.549871E-02	3.045289E-04
5.490235E+03	1.526149E-02	3.012701E-04
5.500199E+03	1.509124E-02	2.993171E-04
5.510163E+03	1.498046E-02	2.985382E-04
5.520128E+03	1.492074E-02	2.987805E-04
5.530092E+03	1.490386E-02	2.998927E-04
5.540056E+03	1.492188E-02	3.017256E-04
5.550020E+03	1.496667E-02	3.041245E-04
5.559984E+03	1.503174E-02	3.069639E-04
5.569948E+03	1.511048E-02	3.101142E-04
5.579912E+03	1.519760E-02	3.134699E-04
5.589876E+03	1.528847E-02	3.169377E-04
5.599841E+03	1.537918E-02	3.204364E-04
5.609805E+03	1.546695E-02	3.239081E-04
5.619769E+03	1.554967E-02	3.273067E-04
5.629733E+03	1.562594E-02	3.306007E-04
5.639697E+03	1.569481E-02	3.337676E-04
5.649661E+03	1.575624E-02	3.368034E-04
5.659625E+03	1.581022E-02	3.397055E-04
5.669589E+03	1.585762E-02	3.424895E-04
5.679554E+03	1.589860E-02	3.451561E-04
5.689518E+03	1.593448E-02	3.477319E-04
5.699482E+03	1.596570E-02	3.502243E-04
5.709446E+03	1.599319E-02	3.526515E-04
5.719410E+03	1.601735E-02	3.550210E-04
5.729374E+03	1.603878E-02	3.573443E-04
5.739338E+03	1.605745E-02	3.596194E-04
5.749303E+03	1.607343E-02	3.618464E-04
5.759267E+03	1.608627E-02	3.640141E-04
5.769231E+03	1.609502E-02	3.660990E-04
5.779195E+03	1.609879E-02	3.680792E-04
5.789159E+03	1.609605E-02	3.699171E-04
5.799123E+03	1.608546E-02	3.715791E-04
5.809087E+03	1.606523E-02	3.730202E-04
5.819051E+03	1.603401E-02	3.742056E-04
5.829016E+03	1.599031E-02	3.750957E-04
5.838980E+03	1.593321E-02	3.756638E-04
5.848944E+03	1.586269E-02	3.759044E-04
5.858908E+03	1.577832E-02	3.758019E-04
5.868872E+03	1.568128E-02	3.753793E-04
5.878836E+03	1.557291E-02	3.746637E-04
5.888800E+03	1.545464E-02	3.736854E-04
5.898764E+03	1.532920E-02	3.725070E-04
5.908729E+03	1.519835E-02	3.711679E-04
5.918693E+03	1.506480E-02	3.697328E-04
5.928657E+03	1.493073E-02	3.682542E-04
5.938621E+03	1.479769E-02	3.667698E-04
5.948585E+03	1.466765E-02	3.653289E-04
5.958549E+03	1.454183E-02	3.639628E-04
5.968513E+03	1.442088E-02	3.626893E-04
5.978477E+03	1.430531E-02	3.615226E-04
5.988442E+03	1.419533E-02	3.604702E-04
5.998406E+03	1.409094E-02	3.595335E-04
6.008370E+03	1.399214E-02	3.587148E-04
6.018334E+03	1.389847E-02	3.580037E-04
6.028298E+03	1.380975E-02	3.573976E-04
6.038262E+03	1.372523E-02	3.568783E-04
6.048226E+03	1.364487E-02	3.564468E-04
6.058191E+03	1.356811E-02	3.560891E-04
6.068155E+03	1.349455E-02	3.557961E-04
6.078119E+03	1.342399E-02	3.555637E-04
6.088083E+03	1.335568E-02	3.553729E-04
6.098047E+03	1.328961E-02	3.552241E-04
6.108011E+03	1.322521E-02	3.551028E-04
6.117975E+03	1.316211E-02	3.549994E-04
6.127939E+03	1.309995E-02	3.549045E-04
6.137904E+03	1.303837E-02	3.548091E-04
6.147868E+03	1.297710E-02	3.547053E-04
6.157832E+03	1.291607E-02	3.545917E-04
6.167796E+03	1.285472E-02	3.544528E-04
6.177760E+03	1.279313E-02	3.542906E-04
6.187724E+03	1.273144E-02	3.541088E-04
6.197688E+03	1.266947E-02	3.539025E-04
6.207652E+03	1.260707E-02	3.536675E-04
6.217617E+03	1.254468E-02	3.534158E-04
6.227581E+03	1.248199E-02	3.531384E-04
6.237545E+03	1.241936E-02	3.528461E-04
6.247509E+03	1.235659E-02	3.525324E-04
6.257473E+03	1.229337E-02	3.521891E-04
6.267437E+03	1.222992E-02	3.518221E-04
6.277401E+03	1.216565E-02	3.514143E-04
6.287365E+03	1.210053E-02	3.509645E-04
6.297330E+03	1.203454E-02	3.504719E-04
6.307294E+03	1.196717E-02	3.499211E-04
6.317258E+03	1.189856E-02	3.493162E-04
6.327222E+03	1.182885E-02	3.486607E-04
6.337186E+03	1.175836E-02	3.479636E-04
6.347150E+03	1.168746E-02	3.472358E-04
6.357114E+03	1.161730E-02	3.465116E-04
6.367079E+03	1.154854E-02	3.458110E-04
6.377043E+03	1.148281E-02	3.451832E-04
6.387007E+03	1.142119E-02	3.446617E-04
6.396971E+03	1.136527E-02	3.442966E-04
6.406935E+03	1.131714E-02	3.441526E-04
6.416899E+03	1.127815E-02	3.442740E-04
6.426863E+03	1.125017E-02	3.447214E-04
6.436827E+03	1.123479E-02	3.455469E-04
6.446792E+03	1.123338E-02	3.467973E-04
6.456756E+03	1.124683E-02	3.485051E-04
6.466720E+03	1.127608E-02	3.507040E-04
6.476684E+03	1.132138E-02	3.534077E-04
6.486648E+03	1.138245E-02	3.566127E-04
6.496612E+03	1.145808E-02	3.602856E-04
6.506576E+03	1.154627E-02	3.643689E-04
6.516540E+03	1.164294E-02	3.687373E-04
6.526505E+03	1.174293E-02	3.732291E-04
6.536469E+03	1.183918E-02	3.776201E-04
6.546433E+03	1.192584E-02	3.817222E-04
6.556397E+03	1.199668E-02	3.853311E-04
6.566361E+03	1.204709E-02	3.882933E-04
6.576325E+03	1.207345E-02	3.904847E-04
6.586289E+03	1.207409E-02	3.918428E-04
6.596253E+03	1.204847E-02	3.923415E-04
6.606218E+03	1.199810E-02	3.920216E-04
6.616182E+03	1.192463E-02	3.909284E-04
6.626146E+03	1.183162E-02	3.891719E-04
6.636110E+03	1.172275E-02	3.868673E-04
6.646074E+03	1.160174E-02	3.841320E-04
6.656038E+03	1.147266E-02	3.810981E-04
6.666002E+03	1.133915E-02	3.778842E-04
6.675967E+03	1.120407E-02	3.745842E-04
6.685931E+03	1.107082E-02	3.713120E-04
6.695895E+03	1.094106E-02	3.681245E-04
6.705859E+03	1.081721E-02	3.651039E-04
6.715823E+03	1.069994E-02	3.622753E-04
6.725787E+03	1.059072E-02	3.596910E-04
6.735751E+03	1.048944E-02	3.573497E-04
6.745715E+03	1.039667E-02	3.552734E-04
6.755680E+03	1.031233E-02	3.534622E-04
6.765644E+03	1.023595E-02	3.519026E-04
6.775608E+03	1.016714E-02	3.505836E-04
6.785572E+03	1.010562E-02	3.494981E-04
6.795536E+03	1.005068E-02	3.486239E-04
6.805500E+03	1.000181E-02	3.479451E-04
6.815464E+03	9.958712E-03	3.474530E-04
6.825428E+03	9.920706E-03	3.471261E-04
6.835393E+03	9.887545E-03	3.469570E-04
6.845357E+03	9.858605E-03	3.469253E-04
6.855321E+03	9.833466E-03	3.470175E-04
6.865285E+03	9.811907E-03	3.472269E-04
6.875249E+03	9.793300E-03	3.475323E-04
6.885213E+03	9.777181E-03	3.479180E-04
6.895177E+03	9.763048E-03	3.483671E-04
6.905141E+03	9.750562E-03	3.488678E-04
6.915106E+03	9.738917E-03	3.493919E-04
6.925070E+03	9.727656E-03	3.499230E-04
6.935034E+03	9.715654E-03	3.504208E-04
6.944998E+03	9.702533E-03	3.508714E-04
6.954962E+03	9.687261E-03	3.512371E-04
6.964926E+03	9.668982E-03	3.514862E-04
6.974890E+03	9.647033E-03	3.515937E-04
6.984855E+03	9.620392E-03	3.515214E-04
6.994819E+03	9.588315E-03	3.512406E-04
7.004783E+03	9.550199E-03	3.507277E-04
7.014747E+03	9.505624E-03	3.499658E-04
7.024711E+03	9.454614E-03	3.489540E-04
7.034675E+03	9.397044E-03	3.476859E-04
7.044639E+03	9.333280E-03	3.461735E-04
7.054603E+03	9.263960E-03	3.444388E-04
7.064568E+03	9.189971E-03	3.425137E-04
7.074532E+03	9.112596E-03	3.404448E-04
7.084496E+03	9.032654E-03	3.382621E-04
7.094460E+03	8.951823E-03	3.360280E-04
7.104424E+03	8.871160E-03	3.337821E-04
7.114388E+03	8.791846E-03	3.315692E-04
7.124352E+03	8.714901E-03	3.294283E-04
7.134316E+03	8.641171E-03	3.273922E-04
7.144281E+03	8.571264E-03	3.254850E-04
7.154245E+03	8.505568E-03	3.237226E-04
7.164209E+03	8.444432E-03	3.221194E-04
7.174173E+03	8.387416E-03	3.206600E-04
7.184137E+03	8.334665E-03	3.193510E-04
7.194101E+03	8.285597E-03	3.181713E-04
7.204065E+03	8.239510E-03	3.170949E-04
7.214029E+03	8.196208E-03	3.161150E-04
7.223994E+03	8.154876E-03	3.152011E-04
7.233958E+03	8.114897E-03	3.143297E-04
7.243922E+03	8.075675E-03	3.134781E-04
7.253886E+03	8.036494E-03	3.126188E-04
7.263850E+03	7.997281E-03	3.117491E-04
7.273814E+03	7.957498E-03	3.108479E-04
7.283778E+03	7.916900E-03	3.099056E-04
7.293743E+03	7.875356E-03	3.089171E-04
7.303707E+03	7.832836E-03	3.078809E-04
7.313671E+03	7.789220E-03	3.067922E-04
7.323635E+03	7.745022E-03	3.056712E-04
7.333599E+03	7.700251E-03	3.045181E-04
7.343563E+03	7.655125E-03	3.033415E-04
7.353527E+03	7.609687E-03	3.021431E-04
7.363491E+03	7.564520E-03	3.009462E-04
7.373456E+03	7.519604E-03	2.997500E-04
7.383420E+03	7.474877E-03	2.985524E-04
7.393384E+03	7.430584E-03	2.973632E-04
7.403348E+03	7.386910E-03	2.961900E-04
7.413312E+03	7.343426E-03	2.950158E-04
7.423276E+03	7.300209E-03	2.938440E-04
7.433240E+03	7.257131E-03	2.926693E-04
7.443204E+03	7.214054E-03	2.914865E-04
7.453169E+03	7.170855E-03	2.902906E-04
7.463133E+03	7.127467E-03	2.890789E-04
7.473097E+03	7.083714E-03	2.878443E-04
7.483061E+03	7.040060E-03	2.866058E-04
7.493025E+03	6.996359E-03	2.853574E-04
7.502989E+03	6.953116E-03	2.841200E-04
7.512953E+03	6.910767E-03	2.829115E-04
7.522917E+03	6.869825E-03	2.817531E-04
7.532882E+03	6.830859E-03	2.806689E-04
7.542846E+03	6.794255E-03	2.796751E-04
7.552810E+03	6.760914E-03	2.788094E-04
7.562774E+03	6.730923E-03	2.780764E-04
7.572738E+03	6.704794E-03	2.774980E-04
7.582702E+03	6.682712E-03	2.770829E-04
7.592666E+03	6.664700E-03	2.768328E-04
7.602631E+03	6.650432E-03	2.767354E-04
7.612595E+03	6.639794E-03	2.767867E-04
7.622559E+03	6.632369E-03	2.769702E-04
7.632523E+03	6.627639E-03	2.772650E-04
7.642487E+03	6.625040E-03	2.776481E-04
7.652451E+03	6.623806E-03	2.780880E-04
7.662415E+03	6.623559E-03	2.785690E-04
7.672379E+03	6.623797E-03	2.790704E-04
7.682344E+03	6.624086E-03	2.795739E-04
7.692308E+03	6.623905E-03	2.800577E-04
7.702272E+03	6.623359E-03	2.805261E-04
7.712236E+03	6.621908E-03	2.809562E-04
7.722200E+03	6.619434E-03	2.813430E-04
7.732164E+03	6.616242E-03	2.816991E-04
