#wls	flux	fluxerr
1.594261E+03	7.522918E-05	1.400222E-05
1.634117E+03	6.956814E-05	1.293674E-05
1.673974E+03	6.437062E-05	1.195899E-05
1.713830E+03	5.963844E-05	1.106913E-05
1.753687E+03	5.537538E-05	1.026767E-05
1.793543E+03	5.157446E-05	9.553138E-06
1.833400E+03	4.823190E-05	8.924607E-06
1.873256E+03	4.534059E-05	8.380547E-06
1.913113E+03	4.289294E-05	7.919330E-06
1.952969E+03	4.088092E-05	7.539236E-06
1.992826E+03	3.930158E-05	7.239477E-06
2.032682E+03	3.815443E-05	7.019705E-06
2.072539E+03	3.744477E-05	6.880622E-06
2.112395E+03	3.718387E-05	6.824007E-06
2.152252E+03	3.739355E-05	6.853548E-06
2.192108E+03	3.810329E-05	6.974295E-06
2.231965E+03	3.935011E-05	7.192630E-06
2.271821E+03	4.118307E-05	7.517084E-06
2.311678E+03	4.365339E-05	7.956501E-06
2.351534E+03	4.681981E-05	8.521020E-06
2.391391E+03	5.074621E-05	9.221627E-06
2.431248E+03	5.548802E-05	1.006767E-05
2.471104E+03	6.109721E-05	1.106779E-05
2.510961E+03	6.761082E-05	1.222782E-05
2.550817E+03	7.504574E-05	1.354989E-05
2.590674E+03	8.340439E-05	1.503345E-05
2.630530E+03	9.267060E-05	1.667458E-05
2.670387E+03	1.028127E-04	1.846656E-05
2.710243E+03	1.137980E-04	2.040247E-05
2.750100E+03	1.255874E-04	2.247429E-05
2.789956E+03	1.381379E-04	2.467332E-05
2.829813E+03	1.513943E-04	2.698867E-05
2.869669E+03	1.652975E-04	2.940886E-05
2.909526E+03	1.797678E-04	3.191878E-05
2.949382E+03	1.947011E-04	3.449910E-05
2.989239E+03	2.099881E-04	3.712973E-05
2.999203E+03	2.138515E-04	3.779276E-05
3.009167E+03	2.177274E-04	3.845720E-05
3.019131E+03	2.216068E-04	3.912143E-05
3.029095E+03	2.255021E-04	3.978763E-05
3.039059E+03	2.293962E-04	4.045282E-05
3.049024E+03	2.333025E-04	4.111930E-05
3.058988E+03	2.372037E-04	4.178405E-05
3.068952E+03	2.411131E-04	4.244941E-05
3.078916E+03	2.450138E-04	4.311238E-05
3.088880E+03	2.489115E-04	4.377396E-05
3.098844E+03	2.528046E-04	4.443391E-05
3.108808E+03	2.566917E-04	4.509193E-05
3.118772E+03	2.605716E-04	4.574782E-05
3.128737E+03	2.644429E-04	4.640134E-05
3.138701E+03	2.682963E-04	4.705086E-05
3.148665E+03	2.721480E-04	4.769923E-05
3.158629E+03	2.759802E-04	4.834329E-05
3.168593E+03	2.798103E-04	4.898612E-05
3.178557E+03	2.836205E-04	4.962461E-05
3.188521E+03	2.874294E-04	5.026199E-05
3.198485E+03	2.912190E-04	5.089514E-05
3.208450E+03	2.949998E-04	5.152586E-05
3.218414E+03	2.987733E-04	5.215444E-05
3.228378E+03	3.025412E-04	5.278117E-05
3.238342E+03	3.063059E-04	5.340647E-05
3.248306E+03	3.100707E-04	5.403088E-05
3.258270E+03	3.138381E-04	5.465488E-05
3.268234E+03	3.176024E-04	5.527744E-05
3.278198E+03	3.213882E-04	5.590285E-05
3.288163E+03	3.251904E-04	5.653022E-05
3.298127E+03	3.290036E-04	5.715861E-05
3.308091E+03	3.328448E-04	5.779093E-05
3.318055E+03	3.367315E-04	5.843024E-05
3.328019E+03	3.406494E-04	5.907401E-05
3.337983E+03	3.446167E-04	5.972543E-05
3.347947E+03	3.486424E-04	6.038600E-05
3.357912E+03	3.527349E-04	6.105715E-05
3.367876E+03	3.569036E-04	6.174053E-05
3.377840E+03	3.611583E-04	6.243774E-05
3.387804E+03	3.655081E-04	6.315037E-05
3.397768E+03	3.699512E-04	6.387808E-05
3.407732E+03	3.745207E-04	6.462652E-05
3.417696E+03	3.792146E-04	6.539530E-05
3.427660E+03	3.840289E-04	6.618371E-05
3.437625E+03	3.889842E-04	6.699523E-05
3.447589E+03	3.941007E-04	6.783333E-05
3.457553E+03	3.993595E-04	6.869466E-05
3.467517E+03	4.047785E-04	6.958226E-05
3.477481E+03	4.103617E-04	7.049678E-05
3.487445E+03	4.161127E-04	7.143876E-05
3.497409E+03	4.220326E-04	7.240834E-05
3.507373E+03	4.281220E-04	7.340556E-05
3.517338E+03	4.343799E-04	7.443020E-05
3.527302E+03	4.407902E-04	7.547942E-05
3.537266E+03	4.473780E-04	7.655748E-05
3.547230E+03	4.541251E-04	7.766121E-05
3.557194E+03	4.610109E-04	7.878702E-05
3.567158E+03	4.680444E-04	7.993641E-05
3.577122E+03	4.752346E-04	8.111084E-05
3.587086E+03	4.825435E-04	8.230380E-05
3.597051E+03	4.899795E-04	8.351668E-05
3.607015E+03	4.975355E-04	8.474820E-05
3.616979E+03	5.052052E-04	8.599727E-05
3.626943E+03	5.129838E-04	8.726303E-05
3.636907E+03	5.208678E-04	8.854483E-05
3.646871E+03	5.288559E-04	8.984242E-05
3.656835E+03	5.369502E-04	9.115613E-05
3.666800E+03	5.451378E-04	9.248372E-05
3.676764E+03	5.534636E-04	9.383277E-05
3.686728E+03	5.619057E-04	9.519952E-05
3.696692E+03	5.705187E-04	9.659319E-05
3.706656E+03	5.792890E-04	9.801141E-05
3.716620E+03	5.882617E-04	9.946173E-05
3.726584E+03	5.974847E-04	1.009522E-04
3.736548E+03	6.069456E-04	1.024807E-04
3.746513E+03	6.166853E-04	1.040539E-04
3.756477E+03	6.267174E-04	1.056741E-04
3.766441E+03	6.370486E-04	1.073423E-04
3.776405E+03	6.476817E-04	1.090589E-04
3.786369E+03	6.585965E-04	1.108203E-04
3.796333E+03	6.698406E-04	1.126345E-04
3.806297E+03	6.814019E-04	1.144994E-04
3.816261E+03	6.932747E-04	1.164138E-04
3.826226E+03	7.055300E-04	1.183897E-04
3.836190E+03	7.181566E-04	1.204248E-04
3.846154E+03	7.312419E-04	1.225339E-04
3.856118E+03	7.447749E-04	1.247148E-04
3.866082E+03	7.588032E-04	1.269755E-04
3.876046E+03	7.733283E-04	1.293159E-04
3.886010E+03	7.883275E-04	1.317322E-04
3.895974E+03	8.037562E-04	1.342167E-04
3.905939E+03	8.195538E-04	1.367591E-04
3.915903E+03	8.356493E-04	1.393476E-04
3.925867E+03	8.519680E-04	1.419694E-04
3.935831E+03	8.684388E-04	1.446129E-04
3.945795E+03	8.849709E-04	1.472627E-04
3.955759E+03	9.015750E-04	1.499206E-04
3.965723E+03	9.181570E-04	1.525711E-04
3.975688E+03	9.347464E-04	1.552190E-04
3.985652E+03	9.512355E-04	1.578464E-04
3.995616E+03	9.675648E-04	1.604436E-04
4.005580E+03	9.835986E-04	1.629881E-04
4.015544E+03	9.989939E-04	1.654232E-04
4.025508E+03	1.013396E-03	1.676905E-04
4.035472E+03	1.026355E-03	1.697159E-04
4.045436E+03	1.037436E-03	1.714283E-04
4.055401E+03	1.046294E-03	1.727709E-04
4.065365E+03	1.052712E-03	1.737091E-04
4.075329E+03	1.056581E-03	1.742257E-04
4.085293E+03	1.058037E-03	1.743439E-04
4.095257E+03	1.057224E-03	1.740884E-04
4.105221E+03	1.054373E-03	1.734979E-04
4.115185E+03	1.049875E-03	1.726373E-04
4.125149E+03	1.044004E-03	1.715524E-04
4.135114E+03	1.037136E-03	1.703054E-04
4.145078E+03	1.029634E-03	1.689561E-04
4.155042E+03	1.021739E-03	1.675443E-04
4.165006E+03	1.013788E-03	1.661254E-04
4.174970E+03	1.006074E-03	1.647474E-04
4.184934E+03	9.988708E-04	1.634549E-04
4.194898E+03	9.924146E-04	1.622865E-04
4.204862E+03	9.868927E-04	1.612725E-04
4.214827E+03	9.824456E-04	1.604356E-04
4.224791E+03	9.791752E-04	1.597920E-04
4.234755E+03	9.771264E-04	1.593486E-04
4.244719E+03	9.764317E-04	1.591267E-04
4.254683E+03	9.771254E-04	1.591314E-04
4.264647E+03	9.792430E-04	1.593680E-04
4.274611E+03	9.829080E-04	1.598561E-04
4.284576E+03	9.880792E-04	1.605886E-04
4.294540E+03	9.947611E-04	1.615658E-04
4.304504E+03	1.002890E-03	1.627766E-04
4.314468E+03	1.012224E-03	1.641817E-04
4.324432E+03	1.022559E-03	1.657474E-04
4.334396E+03	1.033624E-03	1.674294E-04
4.344360E+03	1.045156E-03	1.691852E-04
4.354324E+03	1.056950E-03	1.709814E-04
4.364289E+03	1.068880E-03	1.727976E-04
4.374253E+03	1.080888E-03	1.746243E-04
4.384217E+03	1.092902E-03	1.764499E-04
4.394181E+03	1.104973E-03	1.782828E-04
4.404145E+03	1.117078E-03	1.801192E-04
4.414109E+03	1.129226E-03	1.819606E-04
4.424073E+03	1.141552E-03	1.838288E-04
4.434037E+03	1.154017E-03	1.857174E-04
4.444002E+03	1.166694E-03	1.876380E-04
4.453966E+03	1.179452E-03	1.895697E-04
4.463930E+03	1.192236E-03	1.915036E-04
4.473894E+03	1.204957E-03	1.934256E-04
4.483858E+03	1.217364E-03	1.952951E-04
4.493822E+03	1.229271E-03	1.970826E-04
4.503786E+03	1.240387E-03	1.987415E-04
4.513750E+03	1.250343E-03	2.002132E-04
4.523715E+03	1.258697E-03	2.014272E-04
4.533679E+03	1.264953E-03	2.023048E-04
4.543643E+03	1.268565E-03	2.027589E-04
4.553607E+03	1.269169E-03	2.027327E-04
4.563571E+03	1.266395E-03	2.021676E-04
4.573535E+03	1.260092E-03	2.010406E-04
4.583499E+03	1.250275E-03	1.993553E-04
4.593464E+03	1.237310E-03	1.971706E-04
4.603428E+03	1.221572E-03	1.945474E-04
4.613392E+03	1.203737E-03	1.915940E-04
4.623356E+03	1.184384E-03	1.884032E-04
4.633320E+03	1.164240E-03	1.850906E-04
4.643284E+03	1.144007E-03	1.817683E-04
4.653248E+03	1.124227E-03	1.785220E-04
4.663212E+03	1.105497E-03	1.754467E-04
4.673177E+03	1.088307E-03	1.726195E-04
4.683141E+03	1.073060E-03	1.701042E-04
4.693105E+03	1.060069E-03	1.679493E-04
4.703069E+03	1.049535E-03	1.661864E-04
4.713033E+03	1.041560E-03	1.648308E-04
4.722997E+03	1.036165E-03	1.638852E-04
4.732961E+03	1.033293E-03	1.633398E-04
4.742925E+03	1.032977E-03	1.631993E-04
4.752890E+03	1.035140E-03	1.634508E-04
4.762854E+03	1.039699E-03	1.640804E-04
4.772818E+03	1.046652E-03	1.650875E-04
4.782782E+03	1.055797E-03	1.664393E-04
4.792746E+03	1.066978E-03	1.681109E-04
4.802710E+03	1.079773E-03	1.700352E-04
4.812674E+03	1.093759E-03	1.721452E-04
4.822639E+03	1.108432E-03	1.743616E-04
4.832603E+03	1.123131E-03	1.765802E-04
4.842567E+03	1.137304E-03	1.787140E-04
4.852531E+03	1.150381E-03	1.806740E-04
4.862495E+03	1.161850E-03	1.823800E-04
4.872459E+03	1.171283E-03	1.837653E-04
4.882423E+03	1.178364E-03	1.847807E-04
4.892387E+03	1.182917E-03	1.853992E-04
4.902352E+03	1.184931E-03	1.856200E-04
4.912316E+03	1.184576E-03	1.854701E-04
4.922280E+03	1.182197E-03	1.850041E-04
4.932244E+03	1.178275E-03	1.842976E-04
4.942208E+03	1.173337E-03	1.834334E-04
4.952172E+03	1.168066E-03	1.825187E-04
4.962136E+03	1.163024E-03	1.816411E-04
4.972100E+03	1.158740E-03	1.808832E-04
4.982065E+03	1.155811E-03	1.803379E-04
4.992029E+03	1.154588E-03	1.800596E-04
5.001993E+03	1.155439E-03	1.801055E-04
5.011957E+03	1.158635E-03	1.805171E-04
5.021921E+03	1.164255E-03	1.813062E-04
5.031885E+03	1.172476E-03	1.825001E-04
5.041849E+03	1.183481E-03	1.841265E-04
5.051813E+03	1.197315E-03	1.861919E-04
5.061778E+03	1.214101E-03	1.887146E-04
5.071742E+03	1.233816E-03	1.916907E-04
5.081706E+03	1.256298E-03	1.950942E-04
5.091670E+03	1.281195E-03	1.988702E-04
5.101634E+03	1.307937E-03	2.029297E-04
5.111598E+03	1.335711E-03	2.071461E-04
5.121562E+03	1.363474E-03	2.113577E-04
5.131527E+03	1.390032E-03	2.153796E-04
5.141491E+03	1.414154E-03	2.190213E-04
5.151455E+03	1.434986E-03	2.221512E-04
5.161419E+03	1.451913E-03	2.246749E-04
5.171383E+03	1.464745E-03	2.265637E-04
5.181347E+03	1.473808E-03	2.278689E-04
5.191311E+03	1.479513E-03	2.286550E-04
5.201275E+03	1.482391E-03	2.290043E-04
5.211240E+03	1.483129E-03	2.290239E-04
5.221204E+03	1.482125E-03	2.287751E-04
5.231168E+03	1.479858E-03	2.283326E-04
5.241132E+03	1.476462E-03	2.277171E-04
5.251096E+03	1.472101E-03	2.269542E-04
5.261060E+03	1.466786E-03	2.260459E-04
5.271024E+03	1.460523E-03	2.249929E-04
5.280988E+03	1.453131E-03	2.237678E-04
5.290953E+03	1.444600E-03	2.223693E-04
5.300917E+03	1.434906E-03	2.207935E-04
5.310881E+03	1.424078E-03	2.190456E-04
5.320845E+03	1.412214E-03	2.171405E-04
5.330809E+03	1.399469E-03	2.151022E-04
5.340773E+03	1.386038E-03	2.129610E-04
5.350737E+03	1.372120E-03	2.107472E-04
5.360701E+03	1.357877E-03	2.084862E-04
5.370666E+03	1.343418E-03	2.061946E-04
5.380630E+03	1.328815E-03	2.038832E-04
5.390594E+03	1.314129E-03	2.015616E-04
5.400558E+03	1.299396E-03	1.992353E-04
5.410522E+03	1.284837E-03	1.969381E-04
5.420486E+03	1.270577E-03	1.946891E-04
5.430450E+03	1.256781E-03	1.925136E-04
5.440415E+03	1.243767E-03	1.904601E-04
5.450379E+03	1.231638E-03	1.885443E-04
5.460343E+03	1.220590E-03	1.867958E-04
5.470307E+03	1.210476E-03	1.851925E-04
5.480271E+03	1.201125E-03	1.837074E-04
5.490235E+03	1.191973E-03	1.822545E-04
5.500199E+03	1.182467E-03	1.807493E-04
5.510163E+03	1.171822E-03	1.790714E-04
5.520128E+03	1.159446E-03	1.771310E-04
5.530092E+03	1.144936E-03	1.748664E-04
5.540056E+03	1.128042E-03	1.722397E-04
5.550020E+03	1.108964E-03	1.692819E-04
5.559984E+03	1.088173E-03	1.660649E-04
5.569948E+03	1.066384E-03	1.626977E-04
5.579912E+03	1.044495E-03	1.593179E-04
5.589876E+03	1.023315E-03	1.560485E-04
5.599841E+03	1.003670E-03	1.530152E-04
5.609805E+03	9.861587E-04	1.503092E-04
5.619769E+03	9.711499E-04	1.479864E-04
5.629733E+03	9.587697E-04	1.460657E-04
5.639697E+03	9.489171E-04	1.445314E-04
5.649661E+03	9.413064E-04	1.433397E-04
5.659625E+03	9.354896E-04	1.424221E-04
5.669589E+03	9.310561E-04	1.417160E-04
5.679554E+03	9.274883E-04	1.411424E-04
5.689518E+03	9.243608E-04	1.406365E-04
5.699482E+03	9.213479E-04	1.401487E-04
5.709446E+03	9.182059E-04	1.396419E-04
5.719410E+03	9.149067E-04	1.391119E-04
5.729374E+03	9.114141E-04	1.385531E-04
5.739338E+03	9.077565E-04	1.379698E-04
5.749303E+03	9.040957E-04	1.373867E-04
5.759267E+03	9.004948E-04	1.368134E-04
5.769231E+03	8.970063E-04	1.362577E-04
5.779195E+03	8.937789E-04	1.357423E-04
5.789159E+03	8.908569E-04	1.352738E-04
5.799123E+03	8.885109E-04	1.348933E-04
5.809087E+03	8.870190E-04	1.346430E-04
5.819051E+03	8.869074E-04	1.346026E-04
5.829016E+03	8.885486E-04	1.348286E-04
5.838980E+03	8.922148E-04	1.353620E-04
5.848944E+03	8.978673E-04	1.361969E-04
5.858908E+03	9.050775E-04	1.372681E-04
5.868872E+03	9.133401E-04	1.384989E-04
5.878836E+03	9.220940E-04	1.398042E-04
5.888800E+03	9.307005E-04	1.410870E-04
5.898764E+03	9.387030E-04	1.422782E-04
5.908729E+03	9.457182E-04	1.433198E-04
5.918693E+03	9.514889E-04	1.441728E-04
5.928657E+03	9.559287E-04	1.448243E-04
5.938621E+03	9.589790E-04	1.452654E-04
5.948585E+03	9.608168E-04	1.455231E-04
5.958549E+03	9.616926E-04	1.456353E-04
5.968513E+03	9.619435E-04	1.456533E-04
5.978477E+03	9.619649E-04	1.456368E-04
5.988442E+03	9.621886E-04	1.456512E-04
5.998406E+03	9.630790E-04	1.457669E-04
6.008370E+03	9.651508E-04	1.460616E-04
6.018334E+03	9.689952E-04	1.466248E-04
6.028298E+03	9.752787E-04	1.475571E-04
6.038262E+03	9.846979E-04	1.489639E-04
6.048226E+03	9.978923E-04	1.509418E-04
6.058191E+03	1.015331E-03	1.535614E-04
6.068155E+03	1.037179E-03	1.568475E-04
6.078119E+03	1.063124E-03	1.607525E-04
6.088083E+03	1.092470E-03	1.651713E-04
6.098047E+03	1.123960E-03	1.699135E-04
6.108011E+03	1.156104E-03	1.747539E-04
6.117975E+03	1.187348E-03	1.794575E-04
6.127939E+03	1.216210E-03	1.838007E-04
6.137904E+03	1.241637E-03	1.876240E-04
6.147868E+03	1.262835E-03	1.908081E-04
6.157832E+03	1.279519E-03	1.933101E-04
6.167796E+03	1.291809E-03	1.951479E-04
6.177760E+03	1.300354E-03	1.964202E-04
6.187724E+03	1.305902E-03	1.972401E-04
6.197688E+03	1.309279E-03	1.977323E-04
6.207652E+03	1.311394E-03	1.980342E-04
6.217617E+03	1.312792E-03	1.982282E-04
6.227581E+03	1.314010E-03	1.983953E-04
6.237545E+03	1.315217E-03	1.985612E-04
6.247509E+03	1.316400E-03	1.987239E-04
6.257473E+03	1.317581E-03	1.988866E-04
6.267437E+03	1.318516E-03	1.990125E-04
6.277401E+03	1.319163E-03	1.990955E-04
6.287365E+03	1.319325E-03	1.991055E-04
6.297330E+03	1.319095E-03	1.990569E-04
6.307294E+03	1.318477E-03	1.989502E-04
6.317258E+03	1.317816E-03	1.988374E-04
6.327222E+03	1.317386E-03	1.987598E-04
6.337186E+03	1.317730E-03	1.987996E-04
6.347150E+03	1.319470E-03	1.990503E-04
6.357114E+03	1.323099E-03	1.995865E-04
6.367079E+03	1.329282E-03	2.005081E-04
6.377043E+03	1.338365E-03	2.018678E-04
6.387007E+03	1.350692E-03	2.037168E-04
6.396971E+03	1.366409E-03	2.060775E-04
6.406935E+03	1.385288E-03	2.089152E-04
6.416899E+03	1.407045E-03	2.121873E-04
6.426863E+03	1.431200E-03	2.158212E-04
6.436827E+03	1.456931E-03	2.196931E-04
6.446792E+03	1.483451E-03	2.236841E-04
6.456756E+03	1.509887E-03	2.276626E-04
6.466720E+03	1.535144E-03	2.314638E-04
6.476684E+03	1.558308E-03	2.349498E-04
6.486648E+03	1.578435E-03	2.379784E-04
6.496612E+03	1.594700E-03	2.404252E-04
6.506576E+03	1.606158E-03	2.421477E-04
6.516540E+03	1.612153E-03	2.430474E-04
6.526505E+03	1.612099E-03	2.430357E-04
6.536469E+03	1.605645E-03	2.420598E-04
6.546433E+03	1.592448E-03	2.400679E-04
6.556397E+03	1.572583E-03	2.370716E-04
6.566361E+03	1.546300E-03	2.331085E-04
6.576325E+03	1.514081E-03	2.282509E-04
6.586289E+03	1.476678E-03	2.226125E-04
6.596253E+03	1.434846E-03	2.163068E-04
6.606218E+03	1.389657E-03	2.094956E-04
6.616182E+03	1.342211E-03	2.023445E-04
6.626146E+03	1.293642E-03	1.950244E-04
6.636110E+03	1.245063E-03	1.877031E-04
6.646074E+03	1.197524E-03	1.805389E-04
6.656038E+03	1.152034E-03	1.736835E-04
6.666002E+03	1.109348E-03	1.672513E-04
6.675967E+03	1.070256E-03	1.613609E-04
6.685931E+03	1.035367E-03	1.561042E-04
6.695895E+03	1.005129E-03	1.515489E-04
6.705859E+03	9.797949E-04	1.477330E-04
6.715823E+03	9.593899E-04	1.446605E-04
6.725787E+03	9.436979E-04	1.422987E-04
6.735751E+03	9.322586E-04	1.405783E-04
6.745715E+03	9.244375E-04	1.394037E-04
6.755680E+03	9.193519E-04	1.386418E-04
6.765644E+03	9.162061E-04	1.381726E-04
6.775608E+03	9.142330E-04	1.378804E-04
6.785572E+03	9.128035E-04	1.376705E-04
6.795536E+03	9.114711E-04	1.374755E-04
6.805500E+03	9.099939E-04	1.372588E-04
6.815464E+03	9.083305E-04	1.370142E-04
6.825428E+03	9.066147E-04	1.367619E-04
6.835393E+03	9.051121E-04	1.365420E-04
6.845357E+03	9.041598E-04	1.364053E-04
6.855321E+03	9.040982E-04	1.364032E-04
6.865285E+03	9.052045E-04	1.365776E-04
6.875249E+03	9.076390E-04	1.369525E-04
6.885213E+03	9.114080E-04	1.375291E-04
6.895177E+03	9.163953E-04	1.382899E-04
6.905141E+03	9.222489E-04	1.391816E-04
6.915106E+03	9.286802E-04	1.401609E-04
6.925070E+03	9.353843E-04	1.411817E-04
6.935034E+03	9.421471E-04	1.422117E-04
6.944998E+03	9.488890E-04	1.432389E-04
6.954962E+03	9.556706E-04	1.442725E-04
6.964926E+03	9.626451E-04	1.453355E-04
6.974890E+03	9.699773E-04	1.464529E-04
6.984855E+03	9.777621E-04	1.476391E-04
6.994819E+03	9.859689E-04	1.488893E-04
7.004783E+03	9.944127E-04	1.501758E-04
7.014747E+03	1.002760E-03	1.514481E-04
7.024711E+03	1.010578E-03	1.526409E-04
7.034675E+03	1.017416E-03	1.536861E-04
7.044639E+03	1.022886E-03	1.545251E-04
7.054603E+03	1.026732E-03	1.551190E-04
7.064568E+03	1.028918E-03	1.554625E-04
7.074532E+03	1.029471E-03	1.555595E-04
7.084496E+03	1.028725E-03	1.554605E-04
7.094460E+03	1.027095E-03	1.552283E-04
7.104424E+03	1.025072E-03	1.549367E-04
7.114388E+03	1.023162E-03	1.546624E-04
7.124352E+03	1.021844E-03	1.544778E-04
7.134316E+03	1.021540E-03	1.544468E-04
7.144281E+03	1.022606E-03	1.546232E-04
7.154245E+03	1.025350E-03	1.550536E-04
7.164209E+03	1.030045E-03	1.557794E-04
7.174173E+03	1.037003E-03	1.568480E-04
7.184137E+03	1.046419E-03	1.582889E-04
7.194101E+03	1.058628E-03	1.601529E-04
7.204065E+03	1.073889E-03	1.624793E-04
7.214029E+03	1.092366E-03	1.652932E-04
7.223994E+03	1.114055E-03	1.685942E-04
7.233958E+03	1.138734E-03	1.723487E-04
7.243922E+03	1.165971E-03	1.764918E-04
7.253886E+03	1.194910E-03	1.808938E-04
7.263850E+03	1.224594E-03	1.854100E-04
7.273814E+03	1.253825E-03	1.898591E-04
7.283778E+03	1.281306E-03	1.940447E-04
7.293743E+03	1.305757E-03	1.977729E-04
7.303707E+03	1.326099E-03	2.008801E-04
7.313671E+03	1.341339E-03	2.032155E-04
7.323635E+03	1.350980E-03	2.047036E-04
7.333599E+03	1.354811E-03	2.053122E-04
7.343563E+03	1.352941E-03	2.050574E-04
7.353527E+03	1.345775E-03	2.040001E-04
7.363491E+03	1.333674E-03	2.021948E-04
7.373456E+03	1.317213E-03	1.997286E-04
7.383420E+03	1.296877E-03	1.966744E-04
7.393384E+03	1.273147E-03	1.931051E-04
7.403348E+03	1.246307E-03	1.890633E-04
7.413312E+03	1.216859E-03	1.846251E-04
7.423276E+03	1.185440E-03	1.798870E-04
7.433240E+03	1.152694E-03	1.749464E-04
7.443204E+03	1.119532E-03	1.699417E-04
7.453169E+03	1.086821E-03	1.650040E-04
7.463133E+03	1.055403E-03	1.602617E-04
7.473097E+03	1.025877E-03	1.558055E-04
7.483061E+03	9.988699E-04	1.517309E-04
7.493025E+03	9.748966E-04	1.481162E-04
7.502989E+03	9.542327E-04	1.450036E-04
7.512953E+03	9.372116E-04	1.424439E-04
7.522917E+03	9.238717E-04	1.404433E-04
7.532882E+03	9.142381E-04	1.390060E-04
7.542846E+03	9.081859E-04	1.381133E-04
7.552810E+03	9.053282E-04	1.377066E-04
7.562774E+03	9.053369E-04	1.377363E-04
7.572738E+03	9.076702E-04	1.381203E-04
7.582702E+03	9.119432E-04	1.388002E-04
7.592666E+03	9.176319E-04	1.396965E-04
7.602631E+03	9.244146E-04	1.407603E-04
7.612595E+03	9.318456E-04	1.419238E-04
7.622559E+03	9.396734E-04	1.431489E-04
7.632523E+03	9.474914E-04	1.443737E-04
7.642487E+03	9.550588E-04	1.455615E-04
7.652451E+03	9.619587E-04	1.466488E-04
7.662415E+03	9.679453E-04	1.475979E-04
7.672379E+03	9.726166E-04	1.483476E-04
7.682344E+03	9.757903E-04	1.488699E-04
7.692308E+03	9.771874E-04	1.491219E-04
7.702272E+03	9.768092E-04	1.491039E-04
7.712236E+03	9.746442E-04	1.488137E-04
7.722200E+03	9.707995E-04	1.482676E-04
7.732164E+03	9.656167E-04	1.475174E-04
