#wls	flux	fluxerr
1.594261E+03	3.734174E-06	7.994188E-07
1.634117E+03	3.578065E-06	7.657120E-07
1.673974E+03	3.437035E-06	7.352484E-07
1.713830E+03	3.311338E-06	7.080797E-07
1.753687E+03	3.201214E-06	6.842535E-07
1.793543E+03	3.106657E-06	6.637655E-07
1.833400E+03	3.028449E-06	6.467786E-07
1.873256E+03	2.966660E-06	6.333040E-07
1.913113E+03	2.921464E-06	6.233742E-07
1.952969E+03	2.893616E-06	6.171460E-07
1.992826E+03	2.884000E-06	6.148025E-07
2.032682E+03	2.892969E-06	6.164134E-07
2.072539E+03	2.921771E-06	6.222384E-07
2.112395E+03	2.971651E-06	6.325356E-07
2.152252E+03	3.044112E-06	6.476175E-07
2.192108E+03	3.140948E-06	6.678571E-07
2.231965E+03	3.264014E-06	6.936390E-07
2.271821E+03	3.416291E-06	7.255861E-07
2.311678E+03	3.600087E-06	7.641758E-07
2.351534E+03	3.819225E-06	8.102057E-07
2.391391E+03	4.076803E-06	8.643168E-07
2.431248E+03	4.377631E-06	9.275104E-07
2.471104E+03	4.725704E-06	1.000612E-06
2.510961E+03	5.126575E-06	1.084774E-06
2.550817E+03	5.586069E-06	1.181201E-06
2.590674E+03	6.110681E-06	1.291235E-06
2.630530E+03	6.707108E-06	1.416257E-06
2.670387E+03	7.384476E-06	1.558152E-06
2.710243E+03	8.151356E-06	1.718683E-06
2.750100E+03	9.017225E-06	1.899795E-06
2.789956E+03	9.994965E-06	2.104144E-06
2.829813E+03	1.109603E-05	2.334069E-06
2.869669E+03	1.233585E-05	2.592741E-06
2.909526E+03	1.373107E-05	2.883569E-06
2.949382E+03	1.530173E-05	3.210657E-06
2.989239E+03	1.706662E-05	3.577830E-06
2.999203E+03	1.754037E-05	3.676328E-06
3.009167E+03	1.802959E-05	3.778019E-06
3.019131E+03	1.853181E-05	3.882383E-06
3.029095E+03	1.904885E-05	3.989800E-06
3.039059E+03	1.958272E-05	4.100685E-06
3.049024E+03	2.013071E-05	4.214472E-06
3.058988E+03	2.069645E-05	4.331918E-06
3.068952E+03	2.127711E-05	4.452422E-06
3.078916E+03	2.187649E-05	4.576783E-06
3.088880E+03	2.249156E-05	4.704363E-06
3.098844E+03	2.312637E-05	4.836002E-06
3.108808E+03	2.377766E-05	4.971020E-06
3.118772E+03	2.444771E-05	5.109888E-06
3.128737E+03	2.513900E-05	5.253119E-06
3.138701E+03	2.584796E-05	5.399967E-06
3.148665E+03	2.657914E-05	5.551379E-06
3.158629E+03	2.732875E-05	5.706557E-06
3.168593E+03	2.809928E-05	5.866019E-06
3.178557E+03	2.889346E-05	6.030333E-06
3.188521E+03	2.970708E-05	6.198612E-06
3.198485E+03	3.054276E-05	6.371402E-06
3.208450E+03	3.140338E-05	6.549296E-06
3.218414E+03	3.228421E-05	6.731308E-06
3.228378E+03	3.319068E-05	6.918563E-06
3.238342E+03	3.411771E-05	7.109999E-06
3.248306E+03	3.506808E-05	7.306190E-06
3.258270E+03	3.604484E-05	7.507766E-06
3.268234E+03	3.704226E-05	7.713532E-06
3.278198E+03	3.806320E-05	7.924075E-06
3.288163E+03	3.911071E-05	8.140029E-06
3.298127E+03	4.017838E-05	8.360054E-06
3.308091E+03	4.126905E-05	8.584734E-06
3.318055E+03	4.238234E-05	8.813989E-06
3.328019E+03	4.352132E-05	9.048452E-06
3.337983E+03	4.467848E-05	9.286553E-06
3.347947E+03	4.585654E-05	9.528859E-06
3.357912E+03	4.705851E-05	9.775985E-06
3.367876E+03	4.827591E-05	1.002617E-05
3.377840E+03	4.951138E-05	1.027995E-05
3.387804E+03	5.076371E-05	1.053709E-05
3.397768E+03	5.203575E-05	1.079815E-05
3.407732E+03	5.331769E-05	1.106111E-05
3.417696E+03	5.461201E-05	1.132647E-05
3.427660E+03	5.591694E-05	1.159387E-05
3.437625E+03	5.723518E-05	1.186386E-05
3.447589E+03	5.855562E-05	1.213414E-05
3.457553E+03	5.988055E-05	1.240518E-05
3.467517E+03	6.120778E-05	1.267652E-05
3.477481E+03	6.253483E-05	1.294765E-05
3.487445E+03	6.386443E-05	1.321913E-05
3.497409E+03	6.518375E-05	1.348831E-05
3.507373E+03	6.649502E-05	1.375565E-05
3.517338E+03	6.779545E-05	1.402056E-05
3.527302E+03	6.908198E-05	1.428243E-05
3.537266E+03	7.035716E-05	1.454178E-05
3.547230E+03	7.160621E-05	1.479555E-05
3.557194E+03	7.283129E-05	1.504420E-05
3.567158E+03	7.402841E-05	1.528690E-05
3.577122E+03	7.519366E-05	1.552286E-05
3.587086E+03	7.632264E-05	1.575116E-05
3.597051E+03	7.741717E-05	1.597220E-05
3.607015E+03	7.846000E-05	1.618241E-05
3.616979E+03	7.945244E-05	1.638208E-05
3.626943E+03	8.038948E-05	1.657018E-05
3.636907E+03	8.126606E-05	1.674569E-05
3.646871E+03	8.207723E-05	1.690758E-05
3.656835E+03	8.281813E-05	1.705488E-05
3.666800E+03	8.348415E-05	1.718664E-05
3.676764E+03	8.407779E-05	1.730340E-05
3.686728E+03	8.458157E-05	1.740157E-05
3.696692E+03	8.499889E-05	1.748187E-05
3.706656E+03	8.532674E-05	1.754370E-05
3.716620E+03	8.556276E-05	1.758658E-05
3.726584E+03	8.570516E-05	1.761018E-05
3.736548E+03	8.575278E-05	1.761426E-05
3.746513E+03	8.570493E-05	1.759871E-05
3.756477E+03	8.556165E-05	1.756355E-05
3.766441E+03	8.532360E-05	1.750894E-05
3.776405E+03	8.499204E-05	1.743516E-05
3.786369E+03	8.456884E-05	1.734261E-05
3.796333E+03	8.405658E-05	1.723183E-05
3.806297E+03	8.345840E-05	1.710349E-05
3.816261E+03	8.277804E-05	1.695838E-05
3.826226E+03	8.201988E-05	1.679740E-05
3.836190E+03	8.118888E-05	1.662160E-05
3.846154E+03	8.029034E-05	1.643207E-05
3.856118E+03	7.933009E-05	1.623001E-05
3.866082E+03	7.831419E-05	1.601669E-05
3.876046E+03	7.724905E-05	1.579342E-05
3.886010E+03	7.614100E-05	1.556151E-05
3.895974E+03	7.499653E-05	1.532229E-05
3.905939E+03	7.382185E-05	1.507705E-05
3.915903E+03	7.262309E-05	1.482704E-05
3.925867E+03	7.140602E-05	1.457345E-05
3.935831E+03	7.017592E-05	1.431735E-05
3.945795E+03	6.893783E-05	1.405978E-05
3.955759E+03	6.769619E-05	1.380165E-05
3.965723E+03	6.645508E-05	1.354380E-05
3.975688E+03	6.521813E-05	1.328695E-05
3.985652E+03	6.398869E-05	1.303179E-05
3.995616E+03	6.276970E-05	1.277893E-05
4.005580E+03	6.156397E-05	1.252893E-05
4.015544E+03	6.037427E-05	1.228235E-05
4.025508E+03	5.920316E-05	1.203971E-05
4.035472E+03	5.805342E-05	1.180158E-05
4.045436E+03	5.692792E-05	1.156853E-05
4.055401E+03	5.582501E-05	1.134022E-05
4.065365E+03	5.475699E-05	1.111915E-05
4.075329E+03	5.372257E-05	1.090504E-05
4.085293E+03	5.272505E-05	1.069857E-05
4.095257E+03	5.176784E-05	1.050041E-05
4.105221E+03	5.085433E-05	1.031125E-05
4.115185E+03	4.998775E-05	1.013172E-05
4.125149E+03	4.917109E-05	9.962430E-06
4.135114E+03	4.840310E-05	9.803109E-06
4.145078E+03	4.769393E-05	9.655805E-06
4.155042E+03	4.704133E-05	9.520047E-06
4.165006E+03	4.644645E-05	9.396056E-06
4.174970E+03	4.590983E-05	9.283928E-06
4.184934E+03	4.543138E-05	9.183631E-06
4.194898E+03	4.500670E-05	9.094266E-06
4.204862E+03	4.464186E-05	9.017042E-06
4.214827E+03	4.433128E-05	8.950821E-06
4.224791E+03	4.407261E-05	8.895118E-06
4.234755E+03	4.386309E-05	8.849360E-06
4.244719E+03	4.369604E-05	8.812192E-06
4.254683E+03	4.357519E-05	8.784354E-06
4.264647E+03	4.349337E-05	8.764390E-06
4.274611E+03	4.344678E-05	8.751528E-06
4.284576E+03	4.343156E-05	8.744980E-06
4.294540E+03	4.344020E-05	8.743228E-06
4.304504E+03	4.347580E-05	8.746889E-06
4.314468E+03	4.353082E-05	8.754444E-06
4.324432E+03	4.360135E-05	8.765097E-06
4.334396E+03	4.367997E-05	8.777355E-06
4.344360E+03	4.377007E-05	8.791901E-06
4.354324E+03	4.386459E-05	8.807308E-06
4.364289E+03	4.396019E-05	8.822911E-06
4.374253E+03	4.405026E-05	8.837378E-06
4.384217E+03	4.413925E-05	8.851607E-06
4.394181E+03	4.422121E-05	8.864403E-06
4.404145E+03	4.429414E-05	8.875371E-06
4.414109E+03	4.435283E-05	8.883465E-06
4.424073E+03	4.440334E-05	8.889905E-06
4.434037E+03	4.444129E-05	8.893815E-06
4.444002E+03	4.446270E-05	8.894404E-06
4.453966E+03	4.447488E-05	8.893134E-06
4.463930E+03	4.447462E-05	8.889372E-06
4.473894E+03	4.445908E-05	8.882548E-06
4.483858E+03	4.443664E-05	8.874342E-06
4.493822E+03	4.440507E-05	8.864310E-06
4.503786E+03	4.436242E-05	8.852067E-06
4.513750E+03	4.431786E-05	8.839444E-06
4.523715E+03	4.426987E-05	8.826139E-06
4.533679E+03	4.421713E-05	8.811887E-06
4.543643E+03	4.416929E-05	8.798617E-06
4.553607E+03	4.412531E-05	8.786117E-06
4.563571E+03	4.408424E-05	8.774198E-06
4.573535E+03	4.405603E-05	8.764841E-06
4.583499E+03	4.403992E-05	8.757888E-06
4.593464E+03	4.403513E-05	8.753183E-06
4.603428E+03	4.405175E-05	8.752729E-06
4.613392E+03	4.408542E-05	8.755654E-06
4.623356E+03	4.414616E-05	8.763942E-06
4.633320E+03	4.423305E-05	8.777404E-06
4.643284E+03	4.434498E-05	8.795815E-06
4.653248E+03	4.449152E-05	8.821064E-06
4.663212E+03	4.466737E-05	8.852093E-06
4.673177E+03	4.488146E-05	8.890665E-06
4.683141E+03	4.513134E-05	8.936281E-06
4.693105E+03	4.541396E-05	8.988332E-06
4.703069E+03	4.573682E-05	9.048293E-06
4.713033E+03	4.609195E-05	9.114577E-06
4.722997E+03	4.648570E-05	9.188429E-06
4.732961E+03	4.690862E-05	9.267976E-06
4.742925E+03	4.736586E-05	9.354225E-06
4.752890E+03	4.784651E-05	9.445015E-06
4.762854E+03	4.835457E-05	9.541126E-06
4.772818E+03	4.887777E-05	9.640136E-06
4.782782E+03	4.941920E-05	9.742650E-06
4.792746E+03	4.996963E-05	9.846840E-06
4.802710E+03	5.051934E-05	9.950793E-06
4.812674E+03	5.107084E-05	1.005500E-05
4.822639E+03	5.161010E-05	1.015671E-05
4.832603E+03	5.214001E-05	1.025648E-05
4.842567E+03	5.264688E-05	1.035164E-05
4.852531E+03	5.313462E-05	1.044294E-05
4.862495E+03	5.359072E-05	1.052795E-05
4.872459E+03	5.402076E-05	1.060776E-05
4.882423E+03	5.441389E-05	1.068026E-05
4.892387E+03	5.477351E-05	1.074611E-05
4.902352E+03	5.510420E-05	1.080623E-05
4.912316E+03	5.539816E-05	1.085910E-05
4.922280E+03	5.566679E-05	1.090695E-05
4.932244E+03	5.590415E-05	1.094865E-05
4.942208E+03	5.612363E-05	1.098680E-05
4.952172E+03	5.632074E-05	1.102054E-05
4.962136E+03	5.651021E-05	1.105276E-05
4.972100E+03	5.668845E-05	1.108276E-05
4.982065E+03	5.687076E-05	1.111352E-05
4.992029E+03	5.705378E-05	1.114440E-05
5.001993E+03	5.724803E-05	1.117745E-05
5.011957E+03	5.746384E-05	1.121468E-05
5.021921E+03	5.769693E-05	1.125525E-05
5.031885E+03	5.796144E-05	1.130191E-05
5.041849E+03	5.825170E-05	1.135355E-05
5.051813E+03	5.857575E-05	1.141174E-05
5.061778E+03	5.894063E-05	1.147783E-05
5.071742E+03	5.933811E-05	1.155022E-05
5.081706E+03	5.977838E-05	1.163088E-05
5.091670E+03	6.025102E-05	1.171776E-05
5.101634E+03	6.075953E-05	1.181155E-05
5.111598E+03	6.130649E-05	1.191274E-05
5.121562E+03	6.187872E-05	1.201876E-05
5.131527E+03	6.247744E-05	1.212983E-05
5.141491E+03	6.310338E-05	1.224611E-05
5.151455E+03	6.374139E-05	1.236463E-05
5.161419E+03	6.439682E-05	1.248644E-05
5.171383E+03	6.505390E-05	1.260848E-05
5.181347E+03	6.571249E-05	1.273072E-05
5.191311E+03	6.637292E-05	1.285322E-05
5.201275E+03	6.701900E-05	1.297286E-05
5.211240E+03	6.765119E-05	1.308972E-05
5.221204E+03	6.827019E-05	1.320394E-05
5.231168E+03	6.886002E-05	1.331245E-05
5.241132E+03	6.942163E-05	1.341542E-05
5.251096E+03	6.995041E-05	1.351199E-05
5.261060E+03	7.044772E-05	1.360241E-05
5.271024E+03	7.089737E-05	1.368359E-05
5.280988E+03	7.130055E-05	1.375574E-05
5.290953E+03	7.165860E-05	1.381916E-05
5.300917E+03	7.195480E-05	1.387062E-05
5.310881E+03	7.219010E-05	1.391033E-05
5.320845E+03	7.235920E-05	1.393727E-05
5.330809E+03	7.246253E-05	1.395156E-05
5.340773E+03	7.248209E-05	1.394973E-05
5.350737E+03	7.241756E-05	1.393175E-05
5.360701E+03	7.226805E-05	1.389747E-05
5.370666E+03	7.201445E-05	1.384323E-05
5.380630E+03	7.165511E-05	1.376875E-05
5.390594E+03	7.118246E-05	1.367258E-05
5.400558E+03	7.059464E-05	1.355441E-05
5.410522E+03	6.987270E-05	1.341061E-05
5.420486E+03	6.901599E-05	1.324109E-05
5.430450E+03	6.801923E-05	1.304487E-05
5.440415E+03	6.687875E-05	1.282128E-05
5.450379E+03	6.559862E-05	1.257112E-05
5.460343E+03	6.416939E-05	1.229261E-05
5.470307E+03	6.260112E-05	1.198770E-05
5.480271E+03	6.090364E-05	1.165832E-05
5.490235E+03	5.909987E-05	1.130885E-05
5.500199E+03	5.720047E-05	1.094138E-05
5.510163E+03	5.523240E-05	1.056107E-05
5.520128E+03	5.321773E-05	1.017214E-05
5.530092E+03	5.117807E-05	9.778745E-06
5.540056E+03	4.913421E-05	9.384844E-06
5.550020E+03	4.710929E-05	8.994859E-06
5.559984E+03	4.511299E-05	8.610632E-06
5.569948E+03	4.316506E-05	8.235919E-06
5.579912E+03	4.127912E-05	7.873311E-06
5.589876E+03	3.946673E-05	7.524992E-06
5.599841E+03	3.773732E-05	7.192746E-06
5.609805E+03	3.610130E-05	6.878536E-06
5.619769E+03	3.455804E-05	6.582225E-06
5.629733E+03	3.311439E-05	6.305091E-06
5.639697E+03	3.177242E-05	6.047512E-06
5.649661E+03	3.053282E-05	5.809597E-06
5.659625E+03	2.939503E-05	5.591217E-06
5.669589E+03	2.835748E-05	5.392052E-06
5.679554E+03	2.742000E-05	5.212052E-06
5.689518E+03	2.657487E-05	5.049728E-06
5.699482E+03	2.582081E-05	4.904818E-06
5.709446E+03	2.515377E-05	4.776536E-06
5.719410E+03	2.456941E-05	4.664042E-06
5.729374E+03	2.406318E-05	4.566453E-06
5.739338E+03	2.363037E-05	4.482864E-06
5.749303E+03	2.326621E-05	4.412354E-06
5.759267E+03	2.296588E-05	4.353999E-06
5.769231E+03	2.272650E-05	4.307237E-06
5.779195E+03	2.253955E-05	4.270446E-06
5.789159E+03	2.240235E-05	4.243109E-06
5.799123E+03	2.231051E-05	4.224382E-06
5.809087E+03	2.225985E-05	4.213466E-06
5.819051E+03	2.224647E-05	4.209620E-06
5.829016E+03	2.226683E-05	4.212163E-06
5.838980E+03	2.231778E-05	4.220497E-06
5.848944E+03	2.239661E-05	4.234102E-06
5.858908E+03	2.250111E-05	4.252556E-06
5.868872E+03	2.262958E-05	4.275532E-06
5.878836E+03	2.278087E-05	4.302813E-06
5.888800E+03	2.295446E-05	4.334291E-06
5.898764E+03	2.315037E-05	4.369971E-06
5.908729E+03	2.336926E-05	4.409972E-06
5.918693E+03	2.361237E-05	4.454525E-06
5.928657E+03	2.388150E-05	4.503965E-06
5.938621E+03	2.417901E-05	4.558731E-06
5.948585E+03	2.450769E-05	4.619349E-06
5.958549E+03	2.487077E-05	4.686418E-06
5.968513E+03	2.527177E-05	4.760599E-06
5.978477E+03	2.571447E-05	4.842597E-06
5.988442E+03	2.620277E-05	4.933139E-06
5.998406E+03	2.674060E-05	5.032959E-06
6.008370E+03	2.733184E-05	5.142779E-06
6.018334E+03	2.798021E-05	5.263290E-06
6.028298E+03	2.868919E-05	5.395138E-06
6.038262E+03	2.946191E-05	5.538905E-06
6.048226E+03	3.030112E-05	5.695096E-06
6.058191E+03	3.120908E-05	5.864127E-06
6.068155E+03	3.218752E-05	6.046313E-06
6.078119E+03	3.323756E-05	6.241855E-06
6.088083E+03	3.435973E-05	6.450841E-06
6.098047E+03	3.555387E-05	6.673231E-06
6.108011E+03	3.681916E-05	6.908865E-06
6.117975E+03	3.815415E-05	7.157457E-06
6.127939E+03	3.955674E-05	7.418606E-06
6.137904E+03	4.102424E-05	7.691799E-06
6.147868E+03	4.255342E-05	7.976423E-06
6.157832E+03	4.414057E-05	8.271774E-06
6.167796E+03	4.578153E-05	8.577066E-06
6.177760E+03	4.747174E-05	8.891441E-06
6.187724E+03	4.920633E-05	9.213981E-06
6.197688E+03	5.098013E-05	9.543712E-06
6.207652E+03	5.278756E-05	9.879585E-06
6.217617E+03	5.462283E-05	1.022052E-05
6.227581E+03	5.647517E-05	1.056449E-05
6.237545E+03	5.834748E-05	1.091205E-05
6.247509E+03	6.022870E-05	1.126113E-05
6.257473E+03	6.211190E-05	1.161042E-05
6.267437E+03	6.399007E-05	1.195863E-05
6.277401E+03	6.585586E-05	1.230438E-05
6.287365E+03	6.770178E-05	1.264628E-05
6.297330E+03	6.952002E-05	1.298288E-05
6.307294E+03	7.130244E-05	1.331266E-05
6.317258E+03	7.303436E-05	1.363288E-05
6.327222E+03	7.471882E-05	1.394413E-05
6.337186E+03	7.634014E-05	1.424348E-05
6.347150E+03	7.788787E-05	1.452901E-05
6.357114E+03	7.935062E-05	1.479859E-05
6.367079E+03	8.071602E-05	1.504993E-05
6.377043E+03	8.197072E-05	1.528057E-05
6.387007E+03	8.310039E-05	1.548783E-05
6.396971E+03	8.408262E-05	1.566757E-05
6.406935E+03	8.491556E-05	1.581945E-05
6.416899E+03	8.557581E-05	1.593915E-05
6.426863E+03	8.604693E-05	1.602362E-05
6.436827E+03	8.631299E-05	1.606991E-05
6.446792E+03	8.635884E-05	1.607524E-05
6.456756E+03	8.616389E-05	1.603579E-05
6.466720E+03	8.573135E-05	1.595219E-05
6.476684E+03	8.504556E-05	1.582155E-05
6.486648E+03	8.410187E-05	1.564303E-05
6.496612E+03	8.289970E-05	1.541655E-05
6.506576E+03	8.144329E-05	1.514293E-05
6.516540E+03	7.973766E-05	1.482312E-05
6.526505E+03	7.781624E-05	1.446337E-05
6.536469E+03	7.569606E-05	1.406684E-05
6.546433E+03	7.340414E-05	1.363859E-05
6.556397E+03	7.096962E-05	1.318403E-05
6.566361E+03	6.841721E-05	1.270777E-05
6.576325E+03	6.578968E-05	1.221775E-05
6.586289E+03	6.311170E-05	1.171857E-05
6.596253E+03	6.041300E-05	1.121573E-05
6.606218E+03	5.772162E-05	1.071444E-05
6.616182E+03	5.505888E-05	1.021866E-05
6.626146E+03	5.245773E-05	9.734483E-06
6.636110E+03	4.993383E-05	9.264814E-06
6.646074E+03	4.750475E-05	8.812902E-06
6.656038E+03	4.518500E-05	8.381425E-06
6.666002E+03	4.298240E-05	7.971820E-06
6.675967E+03	4.091287E-05	7.587026E-06
6.685931E+03	3.897847E-05	7.227414E-06
6.695895E+03	3.718262E-05	6.893601E-06
6.705859E+03	3.552360E-05	6.585257E-06
6.715823E+03	3.400703E-05	6.303411E-06
6.725787E+03	3.262778E-05	6.047101E-06
6.735751E+03	3.138274E-05	5.815738E-06
6.745715E+03	3.026539E-05	5.608104E-06
6.755680E+03	2.927644E-05	5.424319E-06
6.765644E+03	2.840842E-05	5.262993E-06
6.775608E+03	2.765647E-05	5.123216E-06
6.785572E+03	2.701350E-05	5.003669E-06
6.795536E+03	2.647956E-05	4.904351E-06
6.805500E+03	2.604802E-05	4.824031E-06
6.815464E+03	2.571276E-05	4.761569E-06
6.825428E+03	2.547454E-05	4.717101E-06
6.835393E+03	2.532783E-05	4.689599E-06
6.845357E+03	2.526958E-05	4.678492E-06
6.855321E+03	2.529471E-05	4.682841E-06
6.865285E+03	2.540468E-05	4.702907E-06
6.875249E+03	2.559449E-05	4.737766E-06
6.885213E+03	2.585899E-05	4.786459E-06
6.895177E+03	2.619942E-05	4.849217E-06
6.905141E+03	2.661026E-05	4.925015E-06
6.915106E+03	2.708565E-05	5.012767E-06
6.925070E+03	2.762630E-05	5.112605E-06
6.935034E+03	2.822594E-05	5.223365E-06
6.944998E+03	2.888036E-05	5.344270E-06
6.954962E+03	2.958278E-05	5.474064E-06
6.964926E+03	3.033387E-05	5.612872E-06
6.974890E+03	3.112702E-05	5.759471E-06
6.984855E+03	3.195554E-05	5.912625E-06
6.994819E+03	3.282116E-05	6.072653E-06
7.004783E+03	3.371802E-05	6.238472E-06
7.014747E+03	3.464045E-05	6.409036E-06
7.024711E+03	3.559214E-05	6.585025E-06
7.034675E+03	3.656868E-05	6.765628E-06
7.044639E+03	3.756598E-05	6.950090E-06
7.054603E+03	3.859007E-05	7.139526E-06
7.064568E+03	3.963813E-05	7.333415E-06
7.074532E+03	4.070748E-05	7.531267E-06
7.084496E+03	4.180617E-05	7.734569E-06
7.094460E+03	4.292854E-05	7.942278E-06
7.104424E+03	4.408342E-05	8.156028E-06
7.114388E+03	4.526881E-05	8.375453E-06
7.124352E+03	4.648208E-05	8.600068E-06
7.134316E+03	4.773211E-05	8.831516E-06
7.144281E+03	4.901561E-05	9.069195E-06
7.154245E+03	5.032827E-05	9.312305E-06
7.164209E+03	5.167779E-05	9.562279E-06
7.174173E+03	5.305840E-05	9.818048E-06
7.184137E+03	5.446295E-05	1.007829E-05
7.194101E+03	5.589720E-05	1.034408E-05
7.204065E+03	5.734724E-05	1.061285E-05
7.214029E+03	5.881727E-05	1.088537E-05
7.223994E+03	6.029590E-05	1.115954E-05
7.233958E+03	6.177037E-05	1.143299E-05
7.243922E+03	6.324250E-05	1.170608E-05
7.253886E+03	6.469230E-05	1.197510E-05
7.263850E+03	6.612049E-05	1.224019E-05
7.273814E+03	6.751105E-05	1.249838E-05
7.283778E+03	6.884702E-05	1.274654E-05
7.293743E+03	7.012884E-05	1.298475E-05
7.303707E+03	7.133357E-05	1.320875E-05
7.313671E+03	7.246271E-05	1.341883E-05
7.323635E+03	7.350023E-05	1.361202E-05
7.333599E+03	7.443078E-05	1.378547E-05
7.343563E+03	7.525909E-05	1.394006E-05
7.353527E+03	7.596586E-05	1.407221E-05
7.363491E+03	7.655914E-05	1.418340E-05
7.373456E+03	7.702258E-05	1.427060E-05
7.383420E+03	7.736778E-05	1.433596E-05
7.393384E+03	7.758843E-05	1.437830E-05
7.403348E+03	7.767999E-05	1.439678E-05
7.413312E+03	7.765958E-05	1.439455E-05
7.423276E+03	7.751943E-05	1.437018E-05
7.433240E+03	7.728005E-05	1.432746E-05
7.443204E+03	7.693691E-05	1.426554E-05
7.453169E+03	7.651338E-05	1.418874E-05
7.463133E+03	7.601425E-05	1.409796E-05
7.473097E+03	7.544561E-05	1.399432E-05
7.483061E+03	7.483404E-05	1.388273E-05
7.493025E+03	7.418104E-05	1.376349E-05
7.502989E+03	7.351427E-05	1.364170E-05
7.512953E+03	7.283626E-05	1.351785E-05
7.522917E+03	7.217483E-05	1.339709E-05
7.532882E+03	7.153236E-05	1.327986E-05
7.542846E+03	7.093530E-05	1.317109E-05
7.552810E+03	7.038450E-05	1.307092E-05
7.562774E+03	6.990367E-05	1.298377E-05
7.572738E+03	6.949051E-05	1.290922E-05
7.582702E+03	6.916471E-05	1.285092E-05
7.592666E+03	6.892570E-05	1.280879E-05
7.602631E+03	6.877037E-05	1.278225E-05
7.612595E+03	6.871095E-05	1.277358E-05
7.622559E+03	6.873336E-05	1.278019E-05
7.632523E+03	6.884490E-05	1.280342E-05
7.642487E+03	6.902689E-05	1.283983E-05
7.652451E+03	6.928249E-05	1.289001E-05
7.662415E+03	6.958959E-05	1.294984E-05
7.672379E+03	6.994883E-05	1.301947E-05
7.682344E+03	7.033617E-05	1.309442E-05
7.692308E+03	7.075148E-05	1.317467E-05
7.702272E+03	7.117052E-05	1.325571E-05
7.712236E+03	7.159396E-05	1.333768E-05
7.722200E+03	7.199879E-05	1.341628E-05
7.732164E+03	7.238765E-05	1.349200E-05
