#wls	flux	fluxerr
1.594261E+03	4.354551E-06	1.021421E-06
1.634117E+03	4.204243E-06	9.858215E-07
1.673974E+03	4.069023E-06	9.537743E-07
1.713830E+03	3.949993E-06	9.255341E-07
1.753687E+03	3.846809E-06	9.010171E-07
1.793543E+03	3.760554E-06	8.804730E-07
1.833400E+03	3.690986E-06	8.638410E-07
1.873256E+03	3.638942E-06	8.513128E-07
1.913113E+03	3.605333E-06	8.430960E-07
1.952969E+03	3.590220E-06	8.392001E-07
1.992826E+03	3.594776E-06	8.398932E-07
2.032682E+03	3.620022E-06	8.454075E-07
2.072539E+03	3.667182E-06	8.560215E-07
2.112395E+03	3.737713E-06	8.720676E-07
2.152252E+03	3.833338E-06	8.939388E-07
2.192108E+03	3.956074E-06	9.220956E-07
2.231965E+03	4.108272E-06	9.570749E-07
2.271821E+03	4.292269E-06	9.994084E-07
2.311678E+03	4.511929E-06	1.049981E-06
2.351534E+03	4.770446E-06	1.109521E-06
2.391391E+03	5.071417E-06	1.178846E-06
2.431248E+03	5.420281E-06	1.259199E-06
2.471104E+03	5.821244E-06	1.351533E-06
2.510961E+03	6.280523E-06	1.457264E-06
2.550817E+03	6.805179E-06	1.578000E-06
2.590674E+03	7.401279E-06	1.715112E-06
2.630530E+03	8.077449E-06	1.870558E-06
2.670387E+03	8.842694E-06	2.046377E-06
2.710243E+03	9.707940E-06	2.245045E-06
2.750100E+03	1.068272E-05	2.468708E-06
2.789956E+03	1.178029E-05	2.720357E-06
2.829813E+03	1.301444E-05	3.003100E-06
2.869669E+03	1.439907E-05	3.320058E-06
2.909526E+03	1.595322E-05	3.675519E-06
2.949382E+03	1.769366E-05	4.073231E-06
2.989239E+03	1.963935E-05	4.517433E-06
2.999203E+03	2.015880E-05	4.635950E-06
3.009167E+03	2.069438E-05	4.758121E-06
3.019131E+03	2.124464E-05	4.883609E-06
3.029095E+03	2.180797E-05	5.012042E-06
3.039059E+03	2.238848E-05	5.144361E-06
3.049024E+03	2.298458E-05	5.280199E-06
3.058988E+03	2.359446E-05	5.419137E-06
3.068952E+03	2.422254E-05	5.562190E-06
3.078916E+03	2.486705E-05	5.708942E-06
3.088880E+03	2.552598E-05	5.858934E-06
3.098844E+03	2.620404E-05	6.013242E-06
3.108808E+03	2.689925E-05	6.171410E-06
3.118772E+03	2.760936E-05	6.332919E-06
3.128737E+03	2.833941E-05	6.498917E-06
3.138701E+03	2.908456E-05	6.668296E-06
3.148665E+03	2.985006E-05	6.842255E-06
3.158629E+03	3.063349E-05	7.020234E-06
3.168593E+03	3.143211E-05	7.201603E-06
3.178557E+03	3.225147E-05	7.387629E-06
3.188521E+03	3.308586E-05	7.577004E-06
3.198485E+03	3.394104E-05	7.771039E-06
3.208450E+03	3.481401E-05	7.969049E-06
3.218414E+03	3.570144E-05	8.170261E-06
3.228378E+03	3.660934E-05	8.376051E-06
3.238342E+03	3.753096E-05	8.584873E-06
3.248306E+03	3.847255E-05	8.798149E-06
3.258270E+03	3.943038E-05	9.015026E-06
3.268234E+03	4.040033E-05	9.234554E-06
3.278198E+03	4.138888E-05	9.458215E-06
3.288163E+03	4.238802E-05	9.684175E-06
3.298127E+03	4.340442E-05	9.913952E-06
3.308091E+03	4.442952E-05	1.014559E-05
3.318055E+03	4.547013E-05	1.038064E-05
3.328019E+03	4.652126E-05	1.061796E-05
3.337983E+03	4.757744E-05	1.085630E-05
3.347947E+03	4.864570E-05	1.109726E-05
3.357912E+03	4.971600E-05	1.133855E-05
3.367876E+03	5.079550E-05	1.158180E-05
3.377840E+03	5.187355E-05	1.182458E-05
3.387804E+03	5.295745E-05	1.206855E-05
3.397768E+03	5.403592E-05	1.231114E-05
3.407732E+03	5.511641E-05	1.255405E-05
3.417696E+03	5.618701E-05	1.279456E-05
3.427660E+03	5.725532E-05	1.303441E-05
3.437625E+03	5.830881E-05	1.327074E-05
3.447589E+03	5.935524E-05	1.350532E-05
3.457553E+03	6.038151E-05	1.373517E-05
3.467517E+03	6.139555E-05	1.396209E-05
3.477481E+03	6.238369E-05	1.418299E-05
3.487445E+03	6.335404E-05	1.439970E-05
3.497409E+03	6.429244E-05	1.460902E-05
3.507373E+03	6.520721E-05	1.481284E-05
3.517338E+03	6.608371E-05	1.500783E-05
3.527302E+03	6.693050E-05	1.519594E-05
3.537266E+03	6.773257E-05	1.537378E-05
3.547230E+03	6.849873E-05	1.554335E-05
3.557194E+03	6.921368E-05	1.570119E-05
3.567158E+03	6.988653E-05	1.584937E-05
3.577122E+03	7.050179E-05	1.598438E-05
3.587086E+03	7.106892E-05	1.610839E-05
3.597051E+03	7.157240E-05	1.621788E-05
3.607015E+03	7.202211E-05	1.631510E-05
3.616979E+03	7.240260E-05	1.639657E-05
3.626943E+03	7.272429E-05	1.646465E-05
3.636907E+03	7.297198E-05	1.651593E-05
3.646871E+03	7.315016E-05	1.655142E-05
3.656835E+03	7.326365E-05	1.657223E-05
3.666800E+03	7.329799E-05	1.657511E-05
3.676764E+03	7.326519E-05	1.656279E-05
3.686728E+03	7.315149E-05	1.653216E-05
3.696692E+03	7.296964E-05	1.648613E-05
3.706656E+03	7.270670E-05	1.642179E-05
3.716620E+03	7.236970E-05	1.634075E-05
3.726584E+03	7.196600E-05	1.624467E-05
3.736548E+03	7.148409E-05	1.613098E-05
3.746513E+03	7.093851E-05	1.600297E-05
3.756477E+03	7.031874E-05	1.585828E-05
3.766441E+03	6.963371E-05	1.569895E-05
3.776405E+03	6.889252E-05	1.552704E-05
3.786369E+03	6.808609E-05	1.534051E-05
3.796333E+03	6.723024E-05	1.514294E-05
3.806297E+03	6.631677E-05	1.493250E-05
3.816261E+03	6.535587E-05	1.471149E-05
3.826226E+03	6.435762E-05	1.448220E-05
3.836190E+03	6.331492E-05	1.424303E-05
3.846154E+03	6.224376E-05	1.399760E-05
3.856118E+03	6.113760E-05	1.374443E-05
3.866082E+03	6.000679E-05	1.348586E-05
3.876046E+03	5.886124E-05	1.322414E-05
3.886010E+03	5.769499E-05	1.295791E-05
3.895974E+03	5.651788E-05	1.268940E-05
3.905939E+03	5.533925E-05	1.242070E-05
3.915903E+03	5.415333E-05	1.215053E-05
3.925867E+03	5.296919E-05	1.188091E-05
3.935831E+03	5.179528E-05	1.161376E-05
3.945795E+03	5.062585E-05	1.134776E-05
3.955759E+03	4.946897E-05	1.108474E-05
3.965723E+03	4.833208E-05	1.082636E-05
3.975688E+03	4.720932E-05	1.057130E-05
3.985652E+03	4.610775E-05	1.032114E-05
3.995616E+03	4.503376E-05	1.007730E-05
4.005580E+03	4.398138E-05	9.838454E-06
4.015544E+03	4.295667E-05	9.605942E-06
4.025508E+03	4.196510E-05	9.380984E-06
4.035472E+03	4.100059E-05	9.162216E-06
4.045436E+03	4.006832E-05	8.950786E-06
4.055401E+03	3.917293E-05	8.747725E-06
4.065365E+03	3.830828E-05	8.551657E-06
4.075329E+03	3.747874E-05	8.363547E-06
4.085293E+03	3.668492E-05	8.183527E-06
4.095257E+03	3.593048E-05	8.012402E-06
4.105221E+03	3.520922E-05	7.848785E-06
4.115185E+03	3.452454E-05	7.693423E-06
4.125149E+03	3.387944E-05	7.546979E-06
4.135114E+03	3.326762E-05	7.408040E-06
4.145078E+03	3.269184E-05	7.277212E-06
4.155042E+03	3.215162E-05	7.154380E-06
4.165006E+03	3.164915E-05	7.040025E-06
4.174970E+03	3.117799E-05	6.932704E-06
4.184934E+03	3.074010E-05	6.832848E-06
4.194898E+03	3.033720E-05	6.740830E-06
4.204862E+03	2.996271E-05	6.655181E-06
4.214827E+03	2.961814E-05	6.576229E-06
4.224791E+03	2.930221E-05	6.503681E-06
4.234755E+03	2.901350E-05	6.437219E-06
4.244719E+03	2.875313E-05	6.377084E-06
4.254683E+03	2.851444E-05	6.321791E-06
4.264647E+03	2.829847E-05	6.271566E-06
4.274611E+03	2.810365E-05	6.226056E-06
4.284576E+03	2.793090E-05	6.185460E-06
4.294540E+03	2.777362E-05	6.148311E-06
4.304504E+03	2.763276E-05	6.114815E-06
4.314468E+03	2.750678E-05	6.084630E-06
4.324432E+03	2.739663E-05	6.057960E-06
4.334396E+03	2.729597E-05	6.033400E-06
4.344360E+03	2.720587E-05	6.011183E-06
4.354324E+03	2.712503E-05	5.991024E-06
4.364289E+03	2.705225E-05	5.972649E-06
4.374253E+03	2.698881E-05	5.956345E-06
4.384217E+03	2.692888E-05	5.940820E-06
4.394181E+03	2.687398E-05	5.926409E-06
4.404145E+03	2.682333E-05	5.912941E-06
4.414109E+03	2.677629E-05	5.900270E-06
4.424073E+03	2.673474E-05	5.888810E-06
4.434037E+03	2.669348E-05	5.877419E-06
4.444002E+03	2.665465E-05	5.866565E-06
4.453966E+03	2.661813E-05	5.856219E-06
4.463930E+03	2.658391E-05	5.846381E-06
4.473894E+03	2.655209E-05	5.837074E-06
4.483858E+03	2.652530E-05	5.828871E-06
4.493822E+03	2.649911E-05	5.820802E-06
4.503786E+03	2.647634E-05	5.813485E-06
4.513750E+03	2.645754E-05	5.807037E-06
4.523715E+03	2.644332E-05	5.801593E-06
4.533679E+03	2.643436E-05	5.797301E-06
4.543643E+03	2.643141E-05	5.794326E-06
4.553607E+03	2.643764E-05	5.793358E-06
4.563571E+03	2.644915E-05	5.793542E-06
4.573535E+03	2.646916E-05	5.795583E-06
4.583499E+03	2.649855E-05	5.799669E-06
4.593464E+03	2.653819E-05	5.805989E-06
4.603428E+03	2.658894E-05	5.814728E-06
4.613392E+03	2.665163E-05	5.826064E-06
4.623356E+03	2.672705E-05	5.840168E-06
4.633320E+03	2.681833E-05	5.857720E-06
4.643284E+03	2.692134E-05	5.877816E-06
4.653248E+03	2.703908E-05	5.901102E-06
4.663212E+03	2.717203E-05	5.927685E-06
4.673177E+03	2.732059E-05	5.957644E-06
4.683141E+03	2.748504E-05	5.991039E-06
4.693105E+03	2.766555E-05	6.027902E-06
4.703069E+03	2.786215E-05	6.068232E-06
4.713033E+03	2.807474E-05	6.112008E-06
4.722997E+03	2.830563E-05	6.159725E-06
4.732961E+03	2.854940E-05	6.210201E-06
4.742925E+03	2.880809E-05	6.263874E-06
4.752890E+03	2.908107E-05	6.320607E-06
4.762854E+03	2.936765E-05	6.380242E-06
4.772818E+03	2.966698E-05	6.442594E-06
4.782782E+03	2.997819E-05	6.507469E-06
4.792746E+03	3.030031E-05	6.574656E-06
4.802710E+03	3.063237E-05	6.643937E-06
4.812674E+03	3.097335E-05	6.715093E-06
4.822639E+03	3.132228E-05	6.787909E-06
4.832603E+03	3.167823E-05	6.862182E-06
4.842567E+03	3.204033E-05	6.937723E-06
4.852531E+03	3.240782E-05	7.014365E-06
4.862495E+03	3.278007E-05	7.091970E-06
4.872459E+03	3.315659E-05	7.170432E-06
4.882423E+03	3.353707E-05	7.249682E-06
4.892387E+03	3.392442E-05	7.330351E-06
4.902352E+03	3.431266E-05	7.411141E-06
4.912316E+03	3.470507E-05	7.492761E-06
4.922280E+03	3.510210E-05	7.575312E-06
4.932244E+03	3.550442E-05	7.658934E-06
4.942208E+03	3.591287E-05	7.743806E-06
4.952172E+03	3.632847E-05	7.830147E-06
4.962136E+03	3.675234E-05	7.918199E-06
4.972100E+03	3.718576E-05	8.008235E-06
4.982065E+03	3.763007E-05	8.100539E-06
4.992029E+03	3.808668E-05	8.195415E-06
5.001993E+03	3.855701E-05	8.293163E-06
5.011957E+03	3.904247E-05	8.394084E-06
5.021921E+03	3.954440E-05	8.498462E-06
5.031885E+03	4.006410E-05	8.606571E-06
5.041849E+03	4.060269E-05	8.718650E-06
5.051813E+03	4.116116E-05	8.834907E-06
5.061778E+03	4.174036E-05	8.955517E-06
5.071742E+03	4.234087E-05	9.080600E-06
5.081706E+03	4.296306E-05	9.210232E-06
5.091670E+03	4.360705E-05	9.344432E-06
5.101634E+03	4.427269E-05	9.483162E-06
5.111598E+03	4.495950E-05	9.626318E-06
5.121562E+03	4.566677E-05	9.773738E-06
5.131527E+03	4.638923E-05	9.924296E-06
5.141491E+03	4.713384E-05	1.007947E-05
5.151455E+03	4.789476E-05	1.023801E-05
5.161419E+03	4.867000E-05	1.039949E-05
5.171383E+03	4.945721E-05	1.056341E-05
5.181347E+03	5.025373E-05	1.072918E-05
5.191311E+03	5.105656E-05	1.089618E-05
5.201275E+03	5.186237E-05	1.106369E-05
5.211240E+03	5.266748E-05	1.123093E-05
5.221204E+03	5.346788E-05	1.139703E-05
5.231168E+03	5.425918E-05	1.156108E-05
5.241132E+03	5.503666E-05	1.172206E-05
5.251096E+03	5.579517E-05	1.187890E-05
5.261060E+03	5.652922E-05	1.203041E-05
5.271024E+03	5.723289E-05	1.217536E-05
5.280988E+03	5.789989E-05	1.231241E-05
5.290953E+03	5.851820E-05	1.243902E-05
5.300917E+03	5.909122E-05	1.255592E-05
5.310881E+03	5.960620E-05	1.266042E-05
5.320845E+03	6.005527E-05	1.275086E-05
5.330809E+03	6.043021E-05	1.282553E-05
5.340773E+03	6.072257E-05	1.288263E-05
5.350737E+03	6.092368E-05	1.292036E-05
5.360701E+03	6.102481E-05	1.293688E-05
5.370666E+03	6.101728E-05	1.293039E-05
5.380630E+03	6.089267E-05	1.289912E-05
5.390594E+03	6.064296E-05	1.284141E-05
5.400558E+03	6.025538E-05	1.275458E-05
5.410522E+03	5.973451E-05	1.263964E-05
5.420486E+03	5.906980E-05	1.249438E-05
5.430450E+03	5.825779E-05	1.231811E-05
5.440415E+03	5.729708E-05	1.211056E-05
5.450379E+03	5.618872E-05	1.187198E-05
5.460343E+03	5.493683E-05	1.160329E-05
5.470307E+03	5.354945E-05	1.130620E-05
5.480271E+03	5.203493E-05	1.098251E-05
5.490235E+03	5.042091E-05	1.063808E-05
5.500199E+03	4.872377E-05	1.027638E-05
5.510163E+03	4.696576E-05	9.902118E-06
5.520128E+03	4.516883E-05	9.519932E-06
5.530092E+03	4.335377E-05	9.134208E-06
5.540056E+03	4.153968E-05	8.748972E-06
5.550020E+03	3.974008E-05	8.367067E-06
5.559984E+03	3.797725E-05	7.993175E-06
5.569948E+03	3.626012E-05	7.629168E-06
5.579912E+03	3.459920E-05	7.277241E-06
5.589876E+03	3.300285E-05	6.939142E-06
5.599841E+03	3.147753E-05	6.616210E-06
5.609805E+03	3.002519E-05	6.308838E-06
5.619769E+03	2.865448E-05	6.018827E-06
5.629733E+03	2.736426E-05	5.745918E-06
5.639697E+03	2.615507E-05	5.490207E-06
5.649661E+03	2.502647E-05	5.251583E-06
5.659625E+03	2.397505E-05	5.029311E-06
5.669589E+03	2.300334E-05	4.823907E-06
5.679554E+03	2.210670E-05	4.634380E-06
5.689518E+03	2.128237E-05	4.460138E-06
5.699482E+03	2.052739E-05	4.300541E-06
5.709446E+03	1.983678E-05	4.154533E-06
5.719410E+03	1.921099E-05	4.022195E-06
5.729374E+03	1.864491E-05	3.902442E-06
5.739338E+03	1.813534E-05	3.794596E-06
5.749303E+03	1.767919E-05	3.697996E-06
5.759267E+03	1.727192E-05	3.611680E-06
5.769231E+03	1.691385E-05	3.535709E-06
5.779195E+03	1.660073E-05	3.469183E-06
5.789159E+03	1.633006E-05	3.411571E-06
5.799123E+03	1.609959E-05	3.362394E-06
5.809087E+03	1.590578E-05	3.320906E-06
5.819051E+03	1.574969E-05	3.287318E-06
5.829016E+03	1.562819E-05	3.260975E-06
5.838980E+03	1.553985E-05	3.241568E-06
5.848944E+03	1.548206E-05	3.228547E-06
5.858908E+03	1.545663E-05	3.222283E-06
5.868872E+03	1.546137E-05	3.222317E-06
5.878836E+03	1.549573E-05	3.228523E-06
5.888800E+03	1.555792E-05	3.240528E-06
5.898764E+03	1.565063E-05	3.258884E-06
5.908729E+03	1.577251E-05	3.283306E-06
5.918693E+03	1.592383E-05	3.313843E-06
5.928657E+03	1.610355E-05	3.350277E-06
5.938621E+03	1.631524E-05	3.393341E-06
5.948585E+03	1.655824E-05	3.442896E-06
5.958549E+03	1.683352E-05	3.499138E-06
5.968513E+03	1.714064E-05	3.561967E-06
5.978477E+03	1.748394E-05	3.632281E-06
5.988442E+03	1.786324E-05	3.710038E-06
5.998406E+03	1.828002E-05	3.795538E-06
6.008370E+03	1.873413E-05	3.888743E-06
6.018334E+03	1.923054E-05	3.990678E-06
6.028298E+03	1.976924E-05	4.101335E-06
6.038262E+03	2.035004E-05	4.220669E-06
6.048226E+03	2.097824E-05	4.349772E-06
6.058191E+03	2.165368E-05	4.488602E-06
6.068155E+03	2.237791E-05	4.637471E-06
6.078119E+03	2.315028E-05	4.796241E-06
6.088083E+03	2.397627E-05	4.966039E-06
6.098047E+03	2.485505E-05	5.146683E-06
6.108011E+03	2.578526E-05	5.337885E-06
6.117975E+03	2.677231E-05	5.540755E-06
6.127939E+03	2.781446E-05	5.754927E-06
6.137904E+03	2.890934E-05	5.979902E-06
6.147868E+03	3.006205E-05	6.216727E-06
6.157832E+03	3.126965E-05	6.464785E-06
6.167796E+03	3.253135E-05	6.723908E-06
6.177760E+03	3.384286E-05	6.993200E-06
6.187724E+03	3.520856E-05	7.273562E-06
6.197688E+03	3.662336E-05	7.563932E-06
6.207652E+03	3.808115E-05	7.863043E-06
6.217617E+03	3.958551E-05	8.171632E-06
6.227581E+03	4.112933E-05	8.488225E-06
6.237545E+03	4.270432E-05	8.811104E-06
6.247509E+03	4.431308E-05	9.140806E-06
6.257473E+03	4.594614E-05	9.475373E-06
6.267437E+03	4.759271E-05	9.812581E-06
6.277401E+03	4.925419E-05	1.015271E-05
6.287365E+03	5.091845E-05	1.049328E-05
6.297330E+03	5.257198E-05	1.083149E-05
6.307294E+03	5.421480E-05	1.116735E-05
6.317258E+03	5.583191E-05	1.149778E-05
6.327222E+03	5.740706E-05	1.181945E-05
6.337186E+03	5.893871E-05	1.213203E-05
6.347150E+03	6.040383E-05	1.243080E-05
6.357114E+03	6.180007E-05	1.271529E-05
6.367079E+03	6.310836E-05	1.298158E-05
6.377043E+03	6.430859E-05	1.322556E-05
6.387007E+03	6.539798E-05	1.344667E-05
6.396971E+03	6.635633E-05	1.364078E-05
6.406935E+03	6.716298E-05	1.380365E-05
6.416899E+03	6.781627E-05	1.393497E-05
6.426863E+03	6.829693E-05	1.403080E-05
6.436827E+03	6.858652E-05	1.408737E-05
6.446792E+03	6.868700E-05	1.410512E-05
6.456756E+03	6.857697E-05	1.407967E-05
6.466720E+03	6.826268E-05	1.401234E-05
6.476684E+03	6.773412E-05	1.390109E-05
6.486648E+03	6.698477E-05	1.374462E-05
6.496612E+03	6.603043E-05	1.354619E-05
6.506576E+03	6.486721E-05	1.330503E-05
6.516540E+03	6.352086E-05	1.302643E-05
6.526505E+03	6.200431E-05	1.271308E-05
6.536469E+03	6.033466E-05	1.236849E-05
6.546433E+03	5.854751E-05	1.199997E-05
6.556397E+03	5.665705E-05	1.161045E-05
6.566361E+03	5.469884E-05	1.120722E-05
6.576325E+03	5.269164E-05	1.079412E-05
6.586289E+03	5.065368E-05	1.037489E-05
6.596253E+03	4.861555E-05	9.955805E-06
6.606218E+03	4.658725E-05	9.538893E-06
6.616182E+03	4.459463E-05	9.129450E-06
6.626146E+03	4.264797E-05	8.729573E-06
6.636110E+03	4.075615E-05	8.341069E-06
6.646074E+03	3.893722E-05	7.967624E-06
6.656038E+03	3.719221E-05	7.609440E-06
6.666002E+03	3.553452E-05	7.269250E-06
6.675967E+03	3.396218E-05	6.946635E-06
6.685931E+03	3.248465E-05	6.643524E-06
6.695895E+03	3.110045E-05	6.359600E-06
6.705859E+03	2.980743E-05	6.094412E-06
6.715823E+03	2.861076E-05	5.849013E-06
6.725787E+03	2.750389E-05	5.622046E-06
6.735751E+03	2.649011E-05	5.414179E-06
6.745715E+03	2.556213E-05	5.223915E-06
6.755680E+03	2.472207E-05	5.051674E-06
6.765644E+03	2.396238E-05	4.895908E-06
6.775608E+03	2.328448E-05	4.756902E-06
6.785572E+03	2.268302E-05	4.633552E-06
6.795536E+03	2.215285E-05	4.524803E-06
6.805500E+03	2.169507E-05	4.430875E-06
6.815464E+03	2.130270E-05	4.350335E-06
6.825428E+03	2.097689E-05	4.283415E-06
6.835393E+03	2.071107E-05	4.228770E-06
6.845357E+03	2.050658E-05	4.186666E-06
6.855321E+03	2.035724E-05	4.155841E-06
6.865285E+03	2.026461E-05	4.136610E-06
6.875249E+03	2.022290E-05	4.127787E-06
6.885213E+03	2.023390E-05	4.129736E-06
6.895177E+03	2.029209E-05	4.141328E-06
6.905141E+03	2.039953E-05	4.162981E-06
6.915106E+03	2.055090E-05	4.193607E-06
6.925070E+03	2.074849E-05	4.233672E-06
6.935034E+03	2.098712E-05	4.282118E-06
6.944998E+03	2.126931E-05	4.339460E-06
6.954962E+03	2.158996E-05	4.404652E-06
6.964926E+03	2.195184E-05	4.478264E-06
6.974890E+03	2.235192E-05	4.559672E-06
6.984855E+03	2.278707E-05	4.648242E-06
6.994819E+03	2.326051E-05	4.744625E-06
7.004783E+03	2.376708E-05	4.847774E-06
7.014747E+03	2.431030E-05	4.958404E-06
7.024711E+03	2.488496E-05	5.075452E-06
7.034675E+03	2.549487E-05	5.199697E-06
7.044639E+03	2.613472E-05	5.330055E-06
7.054603E+03	2.680861E-05	5.467364E-06
7.064568E+03	2.751105E-05	5.610506E-06
7.074532E+03	2.824382E-05	5.759841E-06
7.084496E+03	2.900894E-05	5.915788E-06
7.094460E+03	2.980046E-05	6.077130E-06
7.104424E+03	3.062305E-05	6.244820E-06
7.114388E+03	3.147027E-05	6.417547E-06
7.124352E+03	3.234685E-05	6.596280E-06
7.134316E+03	3.324574E-05	6.779581E-06
7.144281E+03	3.417165E-05	6.968409E-06
7.154245E+03	3.511674E-05	7.161172E-06
7.164209E+03	3.608557E-05	7.358797E-06
7.174173E+03	3.706940E-05	7.559506E-06
7.184137E+03	3.807253E-05	7.764178E-06
7.194101E+03	3.908524E-05	7.970834E-06
7.204065E+03	4.011152E-05	8.180286E-06
7.214029E+03	4.114058E-05	8.390340E-06
7.223994E+03	4.217619E-05	8.601762E-06
7.233958E+03	4.320652E-05	8.812146E-06
7.243922E+03	4.423509E-05	9.022208E-06
7.253886E+03	4.524918E-05	9.229359E-06
7.263850E+03	4.624799E-05	9.433435E-06
7.273814E+03	4.723098E-05	9.634329E-06
7.283778E+03	4.818451E-05	9.829260E-06
7.293743E+03	4.911240E-05	1.001901E-05
7.303707E+03	5.000085E-05	1.020076E-05
7.313671E+03	5.085433E-05	1.037543E-05
7.323635E+03	5.165915E-05	1.054022E-05
7.333599E+03	5.242074E-05	1.069624E-05
7.343563E+03	5.312594E-05	1.084081E-05
7.353527E+03	5.377652E-05	1.097429E-05
7.363491E+03	5.437510E-05	1.109721E-05
7.373456E+03	5.490991E-05	1.120717E-05
7.383420E+03	5.538996E-05	1.130600E-05
7.393384E+03	5.580476E-05	1.139157E-05
7.403348E+03	5.616499E-05	1.146605E-05
7.413312E+03	5.646146E-05	1.152756E-05
7.423276E+03	5.670116E-05	1.157754E-05
7.433240E+03	5.689196E-05	1.161758E-05
7.443204E+03	5.702651E-05	1.164618E-05
7.453169E+03	5.711912E-05	1.166626E-05
7.463133E+03	5.716344E-05	1.167653E-05
7.473097E+03	5.717474E-05	1.168009E-05
7.483061E+03	5.714743E-05	1.167581E-05
7.493025E+03	5.709193E-05	1.166582E-05
7.502989E+03	5.701885E-05	1.165227E-05
7.512953E+03	5.692290E-05	1.163409E-05
7.522917E+03	5.681990E-05	1.161451E-05
7.532882E+03	5.670427E-05	1.159239E-05
7.542846E+03	5.658603E-05	1.156978E-05
7.552810E+03	5.647479E-05	1.154864E-05
7.562774E+03	5.636393E-05	1.152762E-05
7.572738E+03	5.626730E-05	1.150955E-05
7.582702E+03	5.617730E-05	1.149288E-05
7.592666E+03	5.610138E-05	1.147913E-05
7.602631E+03	5.604630E-05	1.146970E-05
7.612595E+03	5.600260E-05	1.146264E-05
7.622559E+03	5.598104E-05	1.146016E-05
7.632523E+03	5.597095E-05	1.146008E-05
7.642487E+03	5.597666E-05	1.146329E-05
7.652451E+03	5.600205E-05	1.147058E-05
7.662415E+03	5.603482E-05	1.147944E-05
7.672379E+03	5.608321E-05	1.149155E-05
7.682344E+03	5.613425E-05	1.150427E-05
7.692308E+03	5.619034E-05	1.151809E-05
7.702272E+03	5.625371E-05	1.153346E-05
7.712236E+03	5.631090E-05	1.154762E-05
7.722200E+03	5.636399E-05	1.156101E-05
7.732164E+03	5.641529E-05	1.157409E-05
