#wls	flux	fluxerr
1.596966E+03	1.321995E-04	7.695813E-06
1.636890E+03	1.367644E-04	7.879367E-06
1.676814E+03	1.406857E-04	8.019444E-06
1.716738E+03	1.439050E-04	8.113821E-06
1.756662E+03	1.463532E-04	8.159886E-06
1.796586E+03	1.477391E-04	8.142980E-06
1.836511E+03	1.477719E-04	8.049283E-06
1.876435E+03	1.460833E-04	7.861625E-06
1.916359E+03	1.423726E-04	7.567462E-06
1.956283E+03	1.365471E-04	7.166080E-06
1.996207E+03	1.290024E-04	6.682406E-06
2.036131E+03	1.208698E-04	6.177987E-06
2.076055E+03	1.141894E-04	5.757105E-06
2.115980E+03	1.114688E-04	5.541587E-06
2.155904E+03	1.145751E-04	5.614659E-06
2.195828E+03	1.247116E-04	6.022003E-06
2.235752E+03	1.422291E-04	6.765022E-06
2.275676E+03	1.666905E-04	7.806965E-06
2.315600E+03	1.971165E-04	9.087127E-06
2.355525E+03	2.323858E-04	1.054109E-05
2.395449E+03	2.714052E-04	1.210885E-05
2.435373E+03	3.131236E-04	1.373537E-05
2.475297E+03	3.563350E-04	1.536203E-05
2.515221E+03	3.991900E-04	1.690658E-05
2.555145E+03	4.384799E-04	1.823589E-05
2.595069E+03	4.703118E-04	1.919882E-05
2.634994E+03	4.935789E-04	1.976795E-05
2.674918E+03	5.072890E-04	1.992401E-05
2.714842E+03	5.125390E-04	1.973151E-05
2.754766E+03	5.130776E-04	1.935173E-05
2.794690E+03	5.124129E-04	1.892552E-05
2.834614E+03	5.129785E-04	1.854393E-05
2.874538E+03	5.166344E-04	1.827016E-05
2.914463E+03	5.250334E-04	1.815437E-05
2.954387E+03	5.398784E-04	1.824330E-05
2.994311E+03	5.631518E-04	1.858760E-05
3.004292E+03	5.705581E-04	1.872020E-05
3.014273E+03	5.786905E-04	1.887365E-05
3.024254E+03	5.876336E-04	1.905025E-05
3.034235E+03	5.974204E-04	1.925061E-05
3.044216E+03	6.081742E-04	1.947818E-05
3.054197E+03	6.200281E-04	1.973663E-05
3.064178E+03	6.330713E-04	2.002815E-05
3.074159E+03	6.473643E-04	2.035394E-05
3.084140E+03	6.629365E-04	2.071421E-05
3.094121E+03	6.799037E-04	2.111180E-05
3.104102E+03	6.983530E-04	2.154860E-05
3.114083E+03	7.183820E-04	2.202674E-05
3.124064E+03	7.400993E-04	2.254861E-05
3.134045E+03	7.636677E-04	2.311817E-05
3.144026E+03	7.891796E-04	2.373715E-05
3.154007E+03	8.167820E-04	2.440879E-05
3.163988E+03	8.466821E-04	2.513807E-05
3.173969E+03	8.790587E-04	2.592893E-05
3.183950E+03	9.141537E-04	2.678704E-05
3.193932E+03	9.520765E-04	2.771403E-05
3.203913E+03	9.931361E-04	2.871721E-05
3.213894E+03	1.037493E-03	2.979941E-05
3.223875E+03	1.085398E-03	3.096589E-05
3.233856E+03	1.137026E-03	3.221963E-05
3.243837E+03	1.192515E-03	3.356233E-05
3.253818E+03	1.252006E-03	3.499580E-05
3.263799E+03	1.315457E-03	3.651659E-05
3.273780E+03	1.382866E-03	3.812242E-05
3.283761E+03	1.454090E-03	3.980712E-05
3.293742E+03	1.528974E-03	4.156442E-05
3.303723E+03	1.607173E-03	4.338291E-05
3.313704E+03	1.688440E-03	4.525418E-05
3.323685E+03	1.772428E-03	4.716731E-05
3.333666E+03	1.858825E-03	4.911259E-05
3.343647E+03	1.947116E-03	5.107522E-05
3.353628E+03	2.036963E-03	5.304545E-05
3.363609E+03	2.127700E-03	5.500526E-05
3.373590E+03	2.218713E-03	5.693852E-05
3.383571E+03	2.309162E-03	5.882378E-05
3.393552E+03	2.398123E-03	6.063814E-05
3.403533E+03	2.484426E-03	6.235320E-05
3.413514E+03	2.566839E-03	6.393993E-05
3.423495E+03	2.644377E-03	6.537628E-05
3.433476E+03	2.716465E-03	6.665101E-05
3.443457E+03	2.783022E-03	6.776534E-05
3.453438E+03	2.845264E-03	6.875192E-05
3.463420E+03	2.905046E-03	6.965774E-05
3.473401E+03	2.964333E-03	7.053106E-05
3.483382E+03	3.022706E-03	7.136242E-05
3.493363E+03	3.078724E-03	7.211869E-05
3.503344E+03	3.131983E-03	7.279197E-05
3.513325E+03	3.182339E-03	7.338058E-05
3.523306E+03	3.230432E-03	7.390089E-05
3.533287E+03	3.277006E-03	7.437121E-05
3.543268E+03	3.323162E-03	7.481729E-05
3.543270E+03	4.658685E-03	1.048849E-04
3.547510E+03	4.578390E-03	1.027261E-04
3.551740E+03	4.480056E-03	1.001775E-04
3.555980E+03	4.374082E-03	9.747347E-05
3.560220E+03	4.273670E-03	9.490961E-05
3.564450E+03	4.144968E-03	9.173622E-05
3.568689E+03	3.999123E-03	8.820403E-05
3.572930E+03	3.882676E-03	8.534060E-05
3.577170E+03	3.794897E-03	8.312331E-05
3.581400E+03	3.722103E-03	8.124751E-05
3.585640E+03	3.648911E-03	7.937385E-05
3.589880E+03	3.611856E-03	7.829503E-05
3.594110E+03	3.618083E-03	7.815783E-05
3.598350E+03	3.645754E-03	7.848110E-05
3.602590E+03	3.672940E-03	7.879018E-05
3.606820E+03	3.698762E-03	7.906708E-05
3.611060E+03	3.733689E-03	7.953383E-05
3.615300E+03	3.769825E-03	8.002142E-05
3.619540E+03	3.775043E-03	7.985002E-05
3.623770E+03	3.782835E-03	7.973317E-05
3.628010E+03	3.812732E-03	8.007916E-05
3.632250E+03	3.856787E-03	8.071740E-05
3.636480E+03	3.910041E-03	8.154200E-05
3.640720E+03	3.942429E-03	8.192483E-05
3.644960E+03	3.959116E-03	8.197814E-05
3.649200E+03	4.004889E-03	8.262946E-05
3.653430E+03	4.065690E-03	8.358403E-05
3.657670E+03	4.114090E-03	8.427534E-05
3.661910E+03	4.176812E-03	8.525222E-05
3.666140E+03	4.241277E-03	8.625648E-05
3.670380E+03	4.320969E-03	8.755946E-05
3.674620E+03	4.405048E-03	8.893973E-05
3.678860E+03	4.489761E-03	9.032079E-05
3.683090E+03	4.585055E-03	9.190275E-05
3.687330E+03	4.674294E-03	9.334946E-05
3.691570E+03	4.750647E-03	9.452713E-05
3.695800E+03	4.797614E-03	9.511233E-05
3.700040E+03	4.844551E-03	9.568968E-05
3.704280E+03	4.861803E-03	9.567643E-05
3.708520E+03	4.804404E-03	9.419746E-05
3.712750E+03	4.708989E-03	9.198542E-05
3.716990E+03	4.594312E-03	8.941195E-05
3.721230E+03	4.431481E-03	8.592182E-05
3.725460E+03	4.219254E-03	8.150220E-05
3.729700E+03	3.969312E-03	7.638709E-05
3.733941E+03	3.715454E-03	7.123327E-05
3.738179E+03	3.448880E-03	6.587367E-05
3.742410E+03	3.173021E-03	6.037654E-05
3.746650E+03	2.891343E-03	5.480854E-05
3.750890E+03	2.618161E-03	4.944177E-05
3.755120E+03	2.387078E-03	4.490685E-05
3.759360E+03	2.186157E-03	4.097012E-05
3.763600E+03	1.994911E-03	3.724301E-05
3.767840E+03	1.846268E-03	3.433576E-05
3.772070E+03	1.739398E-03	3.222410E-05
3.776310E+03	1.650231E-03	3.045424E-05
3.780550E+03	1.569995E-03	2.886144E-05
3.784780E+03	1.514992E-03	2.774252E-05
3.789020E+03	1.489428E-03	2.716825E-05
3.793260E+03	1.485750E-03	2.699542E-05
3.797500E+03	1.497716E-03	2.710634E-05
3.801730E+03	1.527313E-03	2.753379E-05
3.805970E+03	1.581901E-03	2.840564E-05
3.810210E+03	1.646029E-03	2.944049E-05
3.814440E+03	1.710092E-03	3.046551E-05
3.818681E+03	1.779892E-03	3.158310E-05
3.822920E+03	1.861182E-03	3.289404E-05
3.827150E+03	1.940849E-03	3.416540E-05
3.831390E+03	2.022628E-03	3.546239E-05
3.835630E+03	2.129917E-03	3.719347E-05
3.839870E+03	2.265851E-03	3.940782E-05
3.844100E+03	2.434624E-03	4.217247E-05
3.848340E+03	2.617359E-03	4.515409E-05
3.852580E+03	2.828600E-03	4.860007E-05
3.856810E+03	3.081348E-03	5.272743E-05
3.861050E+03	3.355031E-03	5.717598E-05
3.865290E+03	3.662282E-03	6.215626E-05
3.869530E+03	4.006035E-03	6.771091E-05
3.873760E+03	4.364752E-03	7.347057E-05
3.878000E+03	4.716542E-03	7.906385E-05
3.882240E+03	5.046944E-03	8.425157E-05
3.886470E+03	5.364929E-03	8.918829E-05
3.890710E+03	5.669424E-03	9.385723E-05
3.894950E+03	5.955908E-03	9.818755E-05
3.899191E+03	6.242654E-03	1.024830E-04
3.903420E+03	6.515277E-03	1.065098E-04
3.907660E+03	6.772209E-03	1.102430E-04
3.911900E+03	7.030830E-03	1.139689E-04
3.916130E+03	7.292998E-03	1.177184E-04
3.920370E+03	7.563744E-03	1.215694E-04
3.924610E+03	7.849945E-03	1.256314E-04
3.928850E+03	8.151640E-03	1.299019E-04
3.933080E+03	8.469475E-03	1.343896E-04
3.937320E+03	8.781593E-03	1.387432E-04
3.941560E+03	9.082946E-03	1.428859E-04
3.945790E+03	9.402347E-03	1.472730E-04
3.950030E+03	9.734225E-03	1.518109E-04
3.954270E+03	1.003898E-02	1.558839E-04
3.958510E+03	1.032786E-02	1.596715E-04
3.962740E+03	1.060395E-02	1.632263E-04
3.966980E+03	1.084960E-02	1.662771E-04
3.971220E+03	1.105839E-02	1.687340E-04
3.975450E+03	1.124916E-02	1.708924E-04
3.979690E+03	1.141557E-02	1.726567E-04
3.983930E+03	1.153602E-02	1.737085E-04
3.988169E+03	1.160281E-02	1.739415E-04
3.992400E+03	1.162527E-02	1.735075E-04
3.996640E+03	1.161285E-02	1.725524E-04
4.000880E+03	1.156100E-02	1.710176E-04
4.005110E+03	1.148229E-02	1.690978E-04
4.009350E+03	1.140468E-02	1.672048E-04
4.013590E+03	1.133197E-02	1.653955E-04
4.017830E+03	1.125016E-02	1.634656E-04
4.022060E+03	1.115157E-02	1.613074E-04
4.026300E+03	1.102088E-02	1.587003E-04
4.030540E+03	1.086502E-02	1.557515E-04
4.034770E+03	1.069030E-02	1.525576E-04
4.039010E+03	1.048777E-02	1.489918E-04
4.043250E+03	1.024967E-02	1.449512E-04
4.047490E+03	9.981036E-03	1.405135E-04
4.051720E+03	9.692040E-03	1.358285E-04
4.055960E+03	9.386525E-03	1.309505E-04
4.060200E+03	9.079842E-03	1.260973E-04
4.064430E+03	8.784179E-03	1.214387E-04
4.068671E+03	8.515032E-03	1.171829E-04
4.072909E+03	8.273084E-03	1.133359E-04
4.077150E+03	8.050037E-03	1.097788E-04
4.081380E+03	7.831749E-03	1.063174E-04
4.085620E+03	7.626644E-03	1.030622E-04
4.089860E+03	7.456027E-03	1.002983E-04
4.094090E+03	7.296079E-03	9.770146E-05
4.098330E+03	7.135219E-03	9.511305E-05
4.102570E+03	6.985075E-03	9.268853E-05
4.106800E+03	6.837898E-03	9.032449E-05
4.111040E+03	6.685300E-03	8.790806E-05
4.115280E+03	6.555121E-03	8.580552E-05
4.119520E+03	6.450000E-03	8.404717E-05
4.123750E+03	6.352988E-03	8.240952E-05
4.127990E+03	6.262822E-03	8.087302E-05
4.132230E+03	6.183663E-03	7.949080E-05
4.136460E+03	6.112084E-03	7.821786E-05
4.140700E+03	6.046033E-03	7.702508E-05
4.144940E+03	5.977185E-03	7.580672E-05
4.149180E+03	5.924616E-03	7.480410E-05
4.153410E+03	5.894020E-03	7.408677E-05
4.157650E+03	5.886500E-03	7.366322E-05
4.161890E+03	5.899476E-03	7.349842E-05
4.166120E+03	5.937615E-03	7.364760E-05
4.170360E+03	5.995554E-03	7.403897E-05
4.174600E+03	6.072860E-03	7.466485E-05
4.178840E+03	6.164728E-03	7.546347E-05
4.183070E+03	6.266852E-03	7.638094E-05
4.187310E+03	6.366232E-03	7.725654E-05
4.191550E+03	6.467114E-03	7.814298E-05
4.195780E+03	6.564504E-03	7.898096E-05
4.200020E+03	6.644117E-03	7.959851E-05
4.204260E+03	6.717195E-03	8.013347E-05
4.208500E+03	6.783729E-03	8.058687E-05
4.212730E+03	6.845011E-03	8.097602E-05
4.216970E+03	6.899076E-03	8.127709E-05
4.221210E+03	6.945244E-03	8.148412E-05
4.225440E+03	6.982839E-03	8.159133E-05
4.229680E+03	7.015148E-03	8.163676E-05
4.233921E+03	7.043478E-03	8.163716E-05
4.238159E+03	7.065837E-03	8.157044E-05
4.242389E+03	7.076944E-03	8.137736E-05
4.246630E+03	7.061632E-03	8.088430E-05
4.250870E+03	7.029746E-03	8.020813E-05
4.255100E+03	6.991162E-03	7.946395E-05
4.259340E+03	6.962392E-03	7.883816E-05
4.263580E+03	6.929567E-03	7.817381E-05
4.267810E+03	6.883428E-03	7.736799E-05
4.272050E+03	6.839837E-03	7.659867E-05
4.276290E+03	6.808710E-03	7.597683E-05
4.280530E+03	6.788075E-03	7.547905E-05
4.284760E+03	6.774633E-03	7.506819E-05
4.289000E+03	6.760456E-03	7.465468E-05
4.293240E+03	6.748189E-03	7.426837E-05
4.297480E+03	6.735182E-03	7.388003E-05
4.301710E+03	6.718780E-03	7.346133E-05
4.305950E+03	6.701641E-03	7.304048E-05
4.310190E+03	6.680445E-03	7.258211E-05
4.314420E+03	6.648551E-03	7.201523E-05
4.318660E+03	6.610534E-03	7.138927E-05
4.322900E+03	6.569906E-03	7.074309E-05
4.327140E+03	6.526133E-03	7.007126E-05
4.331370E+03	6.478614E-03	6.936799E-05
4.335610E+03	6.427748E-03	6.863692E-05
4.339850E+03	6.372539E-03	6.786812E-05
4.344080E+03	6.321417E-03	6.715181E-05
4.348320E+03	6.276984E-03	6.651433E-05
4.352560E+03	6.236515E-03	6.592669E-05
4.356790E+03	6.203001E-03	6.542040E-05
4.361030E+03	6.179309E-03	6.502436E-05
4.365270E+03	6.161917E-03	6.470119E-05
4.369510E+03	6.153551E-03	6.447896E-05
4.373740E+03	6.151019E-03	6.432388E-05
4.377980E+03	6.144547E-03	6.413289E-05
4.382220E+03	6.132603E-03	6.389049E-05
4.386450E+03	6.113048E-03	6.357489E-05
4.390690E+03	6.075374E-03	6.307676E-05
4.394930E+03	6.028556E-03	6.249017E-05
4.399170E+03	5.982778E-03	6.192080E-05
4.403400E+03	5.934645E-03	6.133353E-05
4.407640E+03	5.872053E-03	6.060289E-05
4.411880E+03	5.801922E-03	5.980087E-05
4.416110E+03	5.741560E-03	5.910586E-05
4.420350E+03	5.684914E-03	5.845466E-05
4.424590E+03	5.634784E-03	5.787589E-05
4.428830E+03	5.590439E-03	5.736162E-05
4.433060E+03	5.558933E-03	5.698395E-05
4.437300E+03	5.537937E-03	5.671823E-05
4.441540E+03	5.526651E-03	5.655600E-05
4.445770E+03	5.531531E-03	5.656303E-05
4.450010E+03	5.556292E-03	5.677662E-05
4.454250E+03	5.597207E-03	5.715836E-05
4.458490E+03	5.654998E-03	5.771529E-05
4.462720E+03	5.733447E-03	5.848582E-05
4.466960E+03	5.833741E-03	5.948159E-05
4.471200E+03	5.948551E-03	6.062780E-05
4.475430E+03	6.077146E-03	6.191696E-05
4.479670E+03	6.216447E-03	6.331760E-05
4.483910E+03	6.365123E-03	6.481626E-05
4.488150E+03	6.525357E-03	6.643523E-05
4.492380E+03	6.693951E-03	6.814205E-05
4.496620E+03	6.881509E-03	7.004474E-05
4.500860E+03	7.092131E-03	7.218519E-05
4.505090E+03	7.308552E-03	7.438780E-05
4.509330E+03	7.522129E-03	7.656482E-05
4.513570E+03	7.744140E-03	7.883120E-05
4.517810E+03	7.977220E-03	8.121399E-05
4.522040E+03	8.213412E-03	8.363234E-05
4.526280E+03	8.449381E-03	8.605253E-05
4.530520E+03	8.685135E-03	8.847479E-05
4.534750E+03	8.906107E-03	9.075074E-05
4.538990E+03	9.111632E-03	9.287374E-05
4.543230E+03	9.311657E-03	9.494509E-05
4.547460E+03	9.504203E-03	9.694454E-05
4.551700E+03	9.682652E-03	9.880470E-05
4.555940E+03	9.845702E-03	1.005121E-04
4.560180E+03	9.997334E-03	1.021071E-04
4.564410E+03	1.014086E-02	1.036235E-04
4.568650E+03	1.026969E-02	1.049937E-04
4.572890E+03	1.038317E-02	1.062109E-04
4.577119E+03	1.048529E-02	1.073154E-04
4.581360E+03	1.056418E-02	1.081858E-04
4.585600E+03	1.062384E-02	1.088622E-04
4.589840E+03	1.067547E-02	1.094593E-04
4.594070E+03	1.071648E-02	1.099499E-04
4.598310E+03	1.074225E-02	1.102867E-04
4.602550E+03	1.076267E-02	1.105708E-04
4.606780E+03	1.077581E-02	1.107818E-04
4.611020E+03	1.078821E-02	1.109872E-04
4.615260E+03	1.079531E-02	1.111396E-04
4.619500E+03	1.079512E-02	1.112185E-04
4.623730E+03	1.078965E-02	1.112440E-04
4.627970E+03	1.077692E-02	1.111959E-04
4.632210E+03	1.074842E-02	1.109858E-04
4.636440E+03	1.071140E-02	1.106880E-04
4.640680E+03	1.067895E-02	1.104380E-04
4.644920E+03	1.064520E-02	1.101748E-04
4.649160E+03	1.059443E-02	1.097354E-04
4.653390E+03	1.052995E-02	1.091535E-04
4.657631E+03	1.047008E-02	1.086190E-04
4.661869E+03	1.042593E-02	1.082472E-04
4.666100E+03	1.039489E-02	1.080111E-04
4.670340E+03	1.037366E-02	1.078769E-04
4.674580E+03	1.035635E-02	1.077834E-04
4.678820E+03	1.033839E-02	1.076829E-04
4.683050E+03	1.032112E-02	1.075890E-04
4.687290E+03	1.030384E-02	1.074951E-04
4.691530E+03	1.028658E-02	1.074009E-04
4.695760E+03	1.026283E-02	1.072383E-04
4.700000E+03	1.022738E-02	1.069529E-04
4.704240E+03	1.018351E-02	1.065785E-04
4.708480E+03	1.013254E-02	1.061286E-04
4.712710E+03	1.006539E-02	1.055077E-04
4.716950E+03	9.986602E-03	1.047634E-04
4.721190E+03	9.889072E-03	1.038205E-04
4.725420E+03	9.770238E-03	1.026514E-04
4.729660E+03	9.642440E-03	1.013859E-04
4.733900E+03	9.504405E-03	1.000099E-04
4.738140E+03	9.345128E-03	9.840738E-05
4.742370E+03	9.166596E-03	9.659863E-05
4.746610E+03	8.977875E-03	9.467910E-05
4.750850E+03	8.777057E-03	9.262826E-05
4.755080E+03	8.574515E-03	9.055525E-05
4.759320E+03	8.358593E-03	8.833719E-05
4.763560E+03	8.128026E-03	8.596025E-05
4.767800E+03	7.891875E-03	8.352005E-05
4.772030E+03	7.644341E-03	8.095494E-05
4.776270E+03	7.384775E-03	7.825808E-05
4.780510E+03	7.126755E-03	7.557311E-05
4.784740E+03	6.877380E-03	7.297530E-05
4.788980E+03	6.637267E-03	7.047166E-05
4.793220E+03	6.408923E-03	6.808895E-05
4.797460E+03	6.196976E-03	6.587665E-05
4.801690E+03	6.009392E-03	6.391976E-05
4.805930E+03	5.850194E-03	6.226180E-05
4.810170E+03	5.720636E-03	6.091655E-05
4.814400E+03	5.620369E-03	5.988080E-05
4.818640E+03	5.550510E-03	5.916713E-05
4.822880E+03	5.511926E-03	5.878520E-05
4.827120E+03	5.493208E-03	5.861377E-05
4.831350E+03	5.494210E-03	5.865150E-05
4.835590E+03	5.515867E-03	5.890877E-05
4.839830E+03	5.541659E-03	5.920924E-05
4.844060E+03	5.560732E-03	5.943686E-05
4.848300E+03	5.573405E-03	5.959504E-05
4.852540E+03	5.578218E-03	5.966796E-05
4.856770E+03	5.570172E-03	5.960199E-05
4.861010E+03	5.549851E-03	5.940331E-05
4.865250E+03	5.517456E-03	5.907389E-05
4.869490E+03	5.481723E-03	5.870715E-05
4.873720E+03	5.457579E-03	5.846296E-05
4.877960E+03	5.445394E-03	5.834543E-05
4.882200E+03	5.450541E-03	5.841218E-05
4.886430E+03	5.485371E-03	5.879566E-05
4.890670E+03	5.556637E-03	5.956842E-05
4.894910E+03	5.668925E-03	6.077972E-05
4.899150E+03	5.820740E-03	6.241357E-05
4.903380E+03	6.002845E-03	6.437089E-05
4.907620E+03	6.216369E-03	6.666373E-05
4.911860E+03	6.453055E-03	6.920334E-05
4.916090E+03	6.701701E-03	7.186942E-05
4.920330E+03	6.965622E-03	7.469728E-05
4.924570E+03	7.249932E-03	7.774148E-05
4.928810E+03	7.553982E-03	8.099477E-05
4.933040E+03	7.872662E-03	8.440205E-05
4.937280E+03	8.199574E-03	8.789433E-05
4.941520E+03	8.525144E-03	9.136870E-05
4.945750E+03	8.840443E-03	9.472921E-05
4.949990E+03	9.135900E-03	9.787299E-05
4.954230E+03	9.403231E-03	1.007113E-04
4.958470E+03	9.632883E-03	1.031417E-04
4.962700E+03	9.826793E-03	1.051852E-04
4.966940E+03	9.979868E-03	1.067873E-04
4.971180E+03	1.008830E-02	1.079078E-04
4.975410E+03	1.015659E-02	1.085950E-04
4.979650E+03	1.017643E-02	1.087607E-04
4.983890E+03	1.014085E-02	1.083310E-04
4.988131E+03	1.005496E-02	1.073613E-04
4.992361E+03	9.921960E-03	1.058868E-04
4.996599E+03	9.738035E-03	1.038675E-04
5.000840E+03	9.507030E-03	1.013454E-04
5.005070E+03	9.232133E-03	9.835589E-05
5.009310E+03	8.922276E-03	9.499477E-05
5.013550E+03	8.585747E-03	9.135138E-05
5.017790E+03	8.233379E-03	8.754179E-05
5.022020E+03	7.879830E-03	8.372257E-05
5.026260E+03	7.539744E-03	8.004926E-05
5.030500E+03	7.226494E-03	7.666387E-05
5.034730E+03	6.952817E-03	7.370119E-05
5.038970E+03	6.728889E-03	7.126797E-05
5.043210E+03	6.559804E-03	6.941712E-05
5.047450E+03	6.443638E-03	6.812698E-05
5.051680E+03	6.374015E-03	6.732896E-05
5.055920E+03	6.347612E-03	6.698642E-05
5.060160E+03	6.365387E-03	6.710834E-05
5.064390E+03	6.426507E-03	6.768474E-05
5.068630E+03	6.526450E-03	6.866631E-05
5.072870E+03	6.658906E-03	6.998557E-05
5.077101E+03	6.818784E-03	7.158803E-05
5.081340E+03	6.997166E-03	7.337883E-05
5.085580E+03	7.182590E-03	7.523727E-05
5.089820E+03	7.369963E-03	7.710968E-05
5.094050E+03	7.552279E-03	7.892289E-05
5.098290E+03	7.723171E-03	8.061009E-05
5.102530E+03	7.877546E-03	8.211871E-05
5.106770E+03	8.019223E-03	8.348910E-05
5.111000E+03	8.148204E-03	8.472196E-05
5.115240E+03	8.261942E-03	8.579080E-05
5.119480E+03	8.352789E-03	8.661713E-05
5.123710E+03	8.419469E-03	8.718897E-05
5.127950E+03	8.472175E-03	8.761221E-05
5.132190E+03	8.513453E-03	8.791402E-05
5.136420E+03	8.538202E-03	8.804261E-05
5.140660E+03	8.550884E-03	8.804412E-05
5.144900E+03	8.550857E-03	8.791282E-05
5.149140E+03	8.534931E-03	8.761660E-05
5.153370E+03	8.513298E-03	8.726105E-05
5.157610E+03	8.485323E-03	8.683937E-05
5.161850E+03	8.445905E-03	8.630009E-05
5.166080E+03	8.397584E-03	8.567015E-05
5.170320E+03	8.344187E-03	8.498835E-05
5.174560E+03	8.290176E-03	8.430074E-05
5.178800E+03	8.241289E-03	8.366569E-05
5.183030E+03	8.201353E-03	8.312211E-05
5.187270E+03	8.175478E-03	8.272070E-05
5.191510E+03	8.156645E-03	8.239024E-05
5.195740E+03	8.148688E-03	8.216941E-05
5.199980E+03	8.166926E-03	8.221130E-05
5.204220E+03	8.208181E-03	8.248296E-05
5.208460E+03	8.266711E-03	8.292567E-05
5.212690E+03	8.339968E-03	8.351338E-05
5.216930E+03	8.431158E-03	8.427673E-05
5.221170E+03	8.539650E-03	8.520887E-05
5.225400E+03	8.662890E-03	8.628385E-05
5.229640E+03	8.799616E-03	8.748766E-05
5.233880E+03	8.946636E-03	8.878833E-05
5.238120E+03	9.104597E-03	9.019178E-05
5.242350E+03	9.269667E-03	9.165998E-05
5.246590E+03	9.441863E-03	9.319198E-05
5.250830E+03	9.627567E-03	9.485084E-05
5.255060E+03	9.813366E-03	9.650438E-05
5.259300E+03	9.994151E-03	9.810172E-05
5.263540E+03	1.016352E-02	9.958097E-05
5.267780E+03	1.032211E-02	1.009490E-04
5.272010E+03	1.048014E-02	1.023069E-04
5.276250E+03	1.063251E-02	1.036042E-04
5.280490E+03	1.077665E-02	1.048167E-04
5.284720E+03	1.091320E-02	1.059516E-04
5.288960E+03	1.103190E-02	1.069094E-04
5.293200E+03	1.113660E-02	1.077287E-04
5.297440E+03	1.123113E-02	1.084474E-04
5.301670E+03	1.131803E-02	1.090913E-04
5.305910E+03	1.139027E-02	1.095922E-04
5.310150E+03	1.144013E-02	1.098775E-04
5.314380E+03	1.147915E-02	1.100594E-04
5.318620E+03	1.150732E-02	1.101379E-04
5.322860E+03	1.151566E-02	1.100280E-04
