#wls	flux	fluxerr
1.596966E+03	6.587243E-05	7.076664E-06
1.636890E+03	6.748859E-05	7.187477E-06
1.676814E+03	6.871763E-05	7.253140E-06
1.716738E+03	6.951415E-05	7.269931E-06
1.756662E+03	6.985662E-05	7.236815E-06
1.796586E+03	6.963037E-05	7.143346E-06
1.836511E+03	6.868749E-05	6.976219E-06
1.876435E+03	6.692834E-05	6.727667E-06
1.916359E+03	6.424260E-05	6.389371E-06
1.956283E+03	6.065825E-05	5.967187E-06
1.996207E+03	5.642776E-05	5.488801E-06
2.036131E+03	5.212428E-05	5.011702E-06
2.076055E+03	4.866098E-05	4.623144E-06
2.115980E+03	4.701965E-05	4.412588E-06
2.155904E+03	4.792802E-05	4.441220E-06
2.195828E+03	5.176647E-05	4.734740E-06
2.235752E+03	5.852465E-05	5.281434E-06
2.275676E+03	6.783806E-05	6.037780E-06
2.315600E+03	7.910010E-05	6.940506E-06
2.355525E+03	9.160128E-05	7.920259E-06
2.395449E+03	1.046090E-04	8.909184E-06
2.435373E+03	1.174029E-04	9.844173E-06
2.475297E+03	1.293070E-04	1.066961E-05
2.515221E+03	1.396651E-04	1.133515E-05
2.555145E+03	1.480610E-04	1.181337E-05
2.595069E+03	1.547163E-04	1.212929E-05
2.634994E+03	1.602237E-04	1.233554E-05
2.674918E+03	1.645875E-04	1.243707E-05
2.714842E+03	1.672854E-04	1.239992E-05
2.754766E+03	1.682903E-04	1.222931E-05
2.794690E+03	1.680155E-04	1.196212E-05
2.834614E+03	1.670525E-04	1.164536E-05
2.874538E+03	1.660008E-04	1.132320E-05
2.914463E+03	1.653650E-04	1.102988E-05
2.954387E+03	1.655770E-04	1.079186E-05
2.994311E+03	1.670602E-04	1.063239E-05
3.004292E+03	1.676859E-04	1.060769E-05
3.014273E+03	1.684334E-04	1.059007E-05
3.024254E+03	1.692741E-04	1.057761E-05
3.034235E+03	1.702735E-04	1.057427E-05
3.044216E+03	1.714224E-04	1.057930E-05
3.054197E+03	1.727483E-04	1.059421E-05
3.064178E+03	1.742720E-04	1.062008E-05
3.074159E+03	1.759977E-04	1.065692E-05
3.084140E+03	1.779320E-04	1.070489E-05
3.094121E+03	1.800823E-04	1.076421E-05
3.104102E+03	1.824405E-04	1.083413E-05
3.114083E+03	1.850542E-04	1.091722E-05
3.124064E+03	1.879014E-04	1.101191E-05
3.134045E+03	1.910356E-04	1.112103E-05
3.144026E+03	1.944402E-04	1.124328E-05
3.154007E+03	1.981767E-04	1.138189E-05
3.163988E+03	2.022547E-04	1.153703E-05
3.173969E+03	2.067282E-04	1.171134E-05
3.183950E+03	2.116178E-04	1.190552E-05
3.193932E+03	2.169701E-04	1.212171E-05
3.203913E+03	2.228780E-04	1.236451E-05
3.213894E+03	2.293590E-04	1.263424E-05
3.223875E+03	2.364931E-04	1.293460E-05
3.233856E+03	2.443410E-04	1.326813E-05
3.243837E+03	2.529592E-04	1.363706E-05
3.253818E+03	2.624206E-04	1.404437E-05
3.263799E+03	2.727443E-04	1.449012E-05
3.273780E+03	2.839616E-04	1.497494E-05
3.283761E+03	2.961448E-04	1.550160E-05
3.293742E+03	3.092825E-04	1.606837E-05
3.303723E+03	3.233509E-04	1.667293E-05
3.313704E+03	3.383977E-04	1.731667E-05
3.323685E+03	3.544116E-04	1.799787E-05
3.333666E+03	3.713419E-04	1.871288E-05
3.343647E+03	3.892202E-04	1.946224E-05
3.353628E+03	4.079758E-04	2.024138E-05
3.363609E+03	4.275504E-04	2.104644E-05
3.373590E+03	4.478958E-04	2.187415E-05
3.383571E+03	4.689358E-04	2.271998E-05
3.393552E+03	4.904414E-04	2.357217E-05
3.403533E+03	5.123173E-04	2.442568E-05
3.413514E+03	5.342253E-04	2.526418E-05
3.423495E+03	5.559290E-04	2.607658E-05
3.433476E+03	5.770715E-04	2.684660E-05
3.443457E+03	5.972425E-04	2.755603E-05
3.453438E+03	6.162738E-04	2.819836E-05
3.463420E+03	6.338853E-04	2.876227E-05
3.473401E+03	6.501640E-04	2.925337E-05
3.483382E+03	6.650789E-04	2.967188E-05
3.493363E+03	6.787037E-04	3.002270E-05
3.503344E+03	6.914121E-04	3.032373E-05
3.513325E+03	7.035378E-04	3.059062E-05
3.523306E+03	7.155486E-04	3.084426E-05
3.533287E+03	7.278934E-04	3.110402E-05
3.543268E+03	7.409400E-04	3.138518E-05
3.553249E+03	7.548298E-04	3.169296E-05
3.563230E+03	7.693520E-04	3.201770E-05
3.573211E+03	7.843726E-04	3.235326E-05
3.583192E+03	7.995282E-04	3.268428E-05
3.593173E+03	8.144986E-04	3.299767E-05
3.603154E+03	8.289402E-04	3.327983E-05
3.613135E+03	8.421578E-04	3.350369E-05
3.623116E+03	8.532367E-04	3.363453E-05
3.633097E+03	8.610844E-04	3.363199E-05
3.643078E+03	8.642521E-04	3.344350E-05
3.653059E+03	8.611630E-04	3.301363E-05
3.663040E+03	8.502922E-04	3.229119E-05
3.673021E+03	8.305232E-04	3.124250E-05
3.683002E+03	8.013483E-04	2.985813E-05
3.692983E+03	7.631726E-04	2.816302E-05
3.702964E+03	7.175138E-04	2.622218E-05
3.712945E+03	6.667992E-04	2.413133E-05
3.722926E+03	6.140918E-04	2.200552E-05
3.732907E+03	5.627216E-04	1.996490E-05
3.742889E+03	5.156004E-04	1.811024E-05
3.752870E+03	4.749155E-04	1.651298E-05
3.762851E+03	4.419747E-04	1.521123E-05
3.772832E+03	4.174804E-04	1.422062E-05
3.782813E+03	4.018483E-04	1.354620E-05
3.792794E+03	3.953503E-04	1.318760E-05
3.802775E+03	3.983639E-04	1.314760E-05
3.802990E+03	1.132162E-04	3.735723E-06
3.804461E+03	1.191272E-04	3.924576E-06
3.805930E+03	1.237393E-04	4.070097E-06
3.807400E+03	1.283048E-04	4.213606E-06
3.808860E+03	1.333337E-04	4.371880E-06
3.810330E+03	1.402222E-04	4.590466E-06
3.811800E+03	1.469364E-04	4.802643E-06
3.813260E+03	1.523458E-04	4.971594E-06
3.814730E+03	1.578031E-04	5.141492E-06
3.816200E+03	1.639346E-04	5.332757E-06
3.817670E+03	1.688534E-04	5.483998E-06
3.819130E+03	1.740963E-04	5.645308E-06
3.820600E+03	1.794918E-04	5.810948E-06
3.822070E+03	1.846283E-04	5.967658E-06
3.823540E+03	1.884519E-04	6.081464E-06
3.825000E+03	1.929891E-04	6.217942E-06
3.826470E+03	1.954467E-04	6.286984E-06
3.827940E+03	1.995032E-04	6.407118E-06
3.829400E+03	2.034648E-04	6.523861E-06
3.830870E+03	2.078497E-04	6.653672E-06
3.832341E+03	2.119594E-04	6.774236E-06
3.833810E+03	2.185294E-04	6.972884E-06
3.835270E+03	2.245359E-04	7.152974E-06
3.836740E+03	2.307579E-04	7.339216E-06
3.838210E+03	2.373291E-04	7.535901E-06
3.839670E+03	2.452820E-04	7.775802E-06
3.841140E+03	2.543589E-04	8.050362E-06
3.842610E+03	2.637587E-04	8.334183E-06
3.844080E+03	2.748900E-04	8.671651E-06
3.845540E+03	2.881713E-04	9.075778E-06
3.847010E+03	3.028222E-04	9.521507E-06
3.848480E+03	3.158320E-04	9.914191E-06
3.849950E+03	3.308841E-04	1.036953E-05
3.851410E+03	3.489690E-04	1.091832E-05
3.852880E+03	3.679135E-04	1.149198E-05
3.854350E+03	3.881505E-04	1.210397E-05
3.855810E+03	4.072743E-04	1.267935E-05
3.857280E+03	4.273618E-04	1.328256E-05
3.858750E+03	4.509632E-04	1.399273E-05
3.860220E+03	4.772081E-04	1.478235E-05
3.861680E+03	5.059525E-04	1.564671E-05
3.863150E+03	5.341380E-04	1.649066E-05
3.864620E+03	5.611421E-04	1.729529E-05
3.866079E+03	5.886774E-04	1.811369E-05
3.867550E+03	6.185012E-04	1.899931E-05
3.869020E+03	6.466320E-04	1.982993E-05
3.870490E+03	6.760285E-04	2.069639E-05
3.871950E+03	7.050447E-04	2.154842E-05
3.873421E+03	7.310132E-04	2.230422E-05
3.874890E+03	7.574420E-04	2.307137E-05
3.876350E+03	7.830846E-04	2.381213E-05
3.877820E+03	8.076516E-04	2.451732E-05
3.879290E+03	8.323117E-04	2.522278E-05
3.880760E+03	8.567350E-04	2.591856E-05
3.882220E+03	8.831197E-04	2.667132E-05
3.883690E+03	9.065933E-04	2.733328E-05
3.885160E+03	9.305632E-04	2.800775E-05
3.886630E+03	9.538547E-04	2.865936E-05
3.888090E+03	9.767953E-04	2.929840E-05
3.889560E+03	9.975524E-04	2.986932E-05
3.891030E+03	1.013253E-03	3.028696E-05
3.892490E+03	1.028633E-03	3.069375E-05
3.893959E+03	1.046456E-03	3.117141E-05
3.895430E+03	1.063337E-03	3.161918E-05
3.896900E+03	1.081189E-03	3.209402E-05
3.898360E+03	1.099679E-03	3.258631E-05
3.899830E+03	1.114981E-03	3.298199E-05
3.901301E+03	1.129189E-03	3.334381E-05
3.902760E+03	1.144438E-03	3.373527E-05
3.904230E+03	1.158485E-03	3.408936E-05
3.905700E+03	1.173024E-03	3.445643E-05
3.907170E+03	1.187169E-03	3.481043E-05
3.908630E+03	1.200139E-03	3.512906E-05
3.910100E+03	1.213825E-03	3.546683E-05
3.911570E+03	1.224713E-03	3.572154E-05
3.913040E+03	1.237126E-03	3.601955E-05
3.914500E+03	1.249878E-03	3.632658E-05
3.915970E+03	1.265347E-03	3.671070E-05
3.917440E+03	1.279088E-03	3.704315E-05
3.918900E+03	1.291281E-03	3.732986E-05
3.920370E+03	1.306490E-03	3.770190E-05
3.921840E+03	1.321895E-03	3.807810E-05
3.923310E+03	1.339466E-03	3.851489E-05
3.924770E+03	1.358680E-03	3.899752E-05
3.926240E+03	1.376762E-03	3.944528E-05
3.927710E+03	1.394042E-03	3.986823E-05
3.929170E+03	1.413636E-03	4.035598E-05
3.930640E+03	1.434365E-03	4.087353E-05
3.932110E+03	1.457714E-03	4.146346E-05
3.933580E+03	1.479297E-03	4.200082E-05
3.935040E+03	1.498735E-03	4.247569E-05
3.936510E+03	1.517336E-03	4.292441E-05
3.937980E+03	1.537331E-03	4.341053E-05
3.939450E+03	1.559391E-03	4.395281E-05
3.940910E+03	1.584187E-03	4.457031E-05
3.942379E+03	1.610350E-03	4.522315E-05
3.943850E+03	1.636348E-03	4.586862E-05
3.945310E+03	1.664304E-03	4.656676E-05
3.946780E+03	1.692100E-03	4.725700E-05
3.948250E+03	1.720368E-03	4.795750E-05
3.949720E+03	1.750116E-03	4.869634E-05
3.951180E+03	1.782239E-03	4.949864E-05
3.952650E+03	1.816825E-03	5.036527E-05
3.954120E+03	1.850317E-03	5.119807E-05
3.955580E+03	1.883531E-03	5.202042E-05
3.957050E+03	1.918913E-03	5.289849E-05
3.958520E+03	1.955897E-03	5.381695E-05
3.959990E+03	1.993099E-03	5.473759E-05
3.961450E+03	2.028452E-03	5.560439E-05
3.962920E+03	2.065264E-03	5.650680E-05
3.964390E+03	2.103533E-03	5.744525E-05
3.965850E+03	2.141001E-03	5.835863E-05
3.967320E+03	2.176328E-03	5.920913E-05
3.968790E+03	2.212324E-03	6.007418E-05
3.970260E+03	2.247710E-03	6.091908E-05
3.971720E+03	2.281388E-03	6.171484E-05
3.973190E+03	2.314912E-03	6.250221E-05
3.974660E+03	2.347412E-03	6.325850E-05
3.976130E+03	2.376963E-03	6.393216E-05
3.977590E+03	2.407962E-03	6.464259E-05
3.979060E+03	2.436582E-03	6.528516E-05
3.980530E+03	2.463795E-03	6.588717E-05
3.981990E+03	2.488531E-03	6.642115E-05
3.983460E+03	2.509977E-03	6.686409E-05
3.984930E+03	2.528759E-03	6.723408E-05
3.986400E+03	2.546463E-03	6.757346E-05
3.987860E+03	2.564439E-03	6.791914E-05
3.989330E+03	2.579601E-03	6.818772E-05
3.990800E+03	2.593604E-03	6.842415E-05
3.992260E+03	2.607271E-03	6.865135E-05
3.993730E+03	2.618118E-03	6.880203E-05
3.995200E+03	2.628103E-03	6.892904E-05
3.996670E+03	2.635787E-03	6.899476E-05
3.998131E+03	2.644341E-03	6.908341E-05
3.999600E+03	2.650899E-03	6.911829E-05
4.001070E+03	2.656326E-03	6.912303E-05
4.002540E+03	2.660731E-03	6.910069E-05
4.004000E+03	2.664224E-03	6.905518E-05
4.005470E+03	2.668599E-03	6.903135E-05
4.006940E+03	2.672788E-03	6.900220E-05
4.008400E+03	2.679290E-03	6.903316E-05
4.009870E+03	2.685159E-03	6.904627E-05
4.011339E+03	2.687456E-03	6.896724E-05
4.012810E+03	2.688995E-03	6.886851E-05
4.014270E+03	2.692125E-03	6.881122E-05
4.015740E+03	2.696218E-03	6.877729E-05
4.017210E+03	2.698523E-03	6.869746E-05
4.018670E+03	2.697470E-03	6.853313E-05
4.020140E+03	2.697603E-03	6.839798E-05
4.021610E+03	2.698004E-03	6.826962E-05
4.023080E+03	2.697758E-03	6.812492E-05
4.024540E+03	2.701204E-03	6.807427E-05
4.026010E+03	2.702483E-03	6.796796E-05
4.027480E+03	2.704452E-03	6.787876E-05
4.028950E+03	2.707186E-03	6.780857E-05
4.030410E+03	2.710336E-03	6.774947E-05
4.031880E+03	2.713879E-03	6.769895E-05
4.033350E+03	2.714398E-03	6.757293E-05
4.034810E+03	2.716442E-03	6.748562E-05
4.036280E+03	2.716046E-03	6.733672E-05
4.037750E+03	2.715226E-03	6.717739E-05
4.039219E+03	2.714367E-03	6.701733E-05
4.040680E+03	2.715684E-03	6.691186E-05
4.042150E+03	2.719389E-03	6.686409E-05
4.043620E+03	2.723979E-03	6.683767E-05
4.045080E+03	2.724764E-03	6.671864E-05
4.046550E+03	2.725516E-03	6.659789E-05
4.048020E+03	2.723389E-03	6.640683E-05
4.049490E+03	2.718877E-03	6.615799E-05
4.050950E+03	2.717276E-03	6.598128E-05
4.052420E+03	2.716718E-03	6.582915E-05
4.053890E+03	2.716005E-03	6.567343E-05
4.055350E+03	2.714590E-03	6.550177E-05
4.056820E+03	2.710255E-03	6.525906E-05
4.058290E+03	2.704720E-03	6.498800E-05
4.059760E+03	2.701417E-03	6.477106E-05
4.061220E+03	2.698410E-03	6.456264E-05
4.062690E+03	2.696373E-03	6.437671E-05
4.064160E+03	2.694297E-03	6.419012E-05
4.065630E+03	2.693530E-03	6.403491E-05
4.067091E+03	2.690088E-03	6.381733E-05
4.068560E+03	2.688314E-03	6.363877E-05
4.070030E+03	2.688006E-03	6.349501E-05
4.071490E+03	2.686722E-03	6.332928E-05
4.072960E+03	2.687186E-03	6.320393E-05
4.074430E+03	2.684825E-03	6.301237E-05
4.075900E+03	2.682769E-03	6.282817E-05
4.077360E+03	2.682023E-03	6.267577E-05
4.078830E+03	2.680778E-03	6.251097E-05
4.080300E+03	2.676895E-03	6.228498E-05
4.081760E+03	2.671759E-03	6.203136E-05
4.083230E+03	2.664646E-03	6.173154E-05
4.084700E+03	2.658769E-03	6.146108E-05
4.086170E+03	2.653509E-03	6.120550E-05
4.087630E+03	2.647847E-03	6.094230E-05
4.089100E+03	2.644288E-03	6.072702E-05
4.090570E+03	2.639868E-03	6.049244E-05
4.092040E+03	2.631669E-03	6.017200E-05
4.093500E+03	2.624354E-03	5.987351E-05
4.094970E+03	2.618009E-03	5.959713E-05
4.096440E+03	2.609946E-03	5.928233E-05
4.097900E+03	2.602104E-03	5.897433E-05
4.099370E+03	2.594064E-03	5.866183E-05
4.100840E+03	2.586447E-03	5.835978E-05
4.102310E+03	2.578511E-03	5.805148E-05
4.103770E+03	2.568570E-03	5.769979E-05
4.105240E+03	2.558978E-03	5.735615E-05
4.106710E+03	2.550316E-03	5.703436E-05
4.108169E+03	2.541676E-03	5.671495E-05
4.109640E+03	2.533430E-03	5.640431E-05
4.111110E+03	2.525916E-03	5.611086E-05
4.112580E+03	2.518986E-03	5.583119E-05
4.114040E+03	2.510356E-03	5.551557E-05
4.115510E+03	2.500354E-03	5.516985E-05
4.116980E+03	2.491599E-03	5.485260E-05
4.118450E+03	2.484600E-03	5.457488E-05
4.119910E+03	2.477782E-03	5.430278E-05
4.121380E+03	2.471085E-03	5.403323E-05
4.122850E+03	2.463946E-03	5.375491E-05
4.124310E+03	2.454833E-03	5.343518E-05
4.125780E+03	2.447920E-03	5.316338E-05
4.127250E+03	2.443237E-03	5.294072E-05
4.128720E+03	2.436153E-03	5.266670E-05
4.130180E+03	2.428702E-03	5.238648E-05
4.131650E+03	2.421173E-03	5.210451E-05
4.133120E+03	2.413594E-03	5.182234E-05
4.134580E+03	2.408486E-03	5.159476E-05
4.136050E+03	2.402865E-03	5.135609E-05
4.137520E+03	2.396335E-03	5.109862E-05
4.138990E+03	2.389324E-03	5.083170E-05
4.140450E+03	2.383918E-03	5.060042E-05
4.141920E+03	2.378631E-03	5.037152E-05
4.143390E+03	2.372667E-03	5.012905E-05
4.144850E+03	2.367601E-03	4.990689E-05
4.146320E+03	2.364115E-03	4.971782E-05
4.147790E+03	2.361854E-03	4.955488E-05
4.149260E+03	2.357770E-03	4.935415E-05
4.150720E+03	2.355137E-03	4.918510E-05
4.152190E+03	2.352391E-03	4.901320E-05
4.153660E+03	2.349563E-03	4.884001E-05
4.155130E+03	2.347721E-03	4.868768E-05
4.156590E+03	2.345315E-03	4.852476E-05
4.158060E+03	2.344856E-03	4.840168E-05
4.159530E+03	2.343087E-03	4.825174E-05
4.160990E+03	2.339920E-03	4.807417E-05
4.162460E+03	2.339617E-03	4.795495E-05
4.163931E+03	2.337087E-03	4.779039E-05
4.165400E+03	2.333758E-03	4.760997E-05
4.166860E+03	2.329546E-03	4.741274E-05
4.168330E+03	2.325577E-03	4.722023E-05
4.169800E+03	2.322715E-03	4.705066E-05
4.171260E+03	2.321795E-03	4.692160E-05
4.172730E+03	2.321596E-03	4.680648E-05
4.174200E+03	2.320000E-03	4.666345E-05
4.175670E+03	2.315616E-03	4.646477E-05
4.177129E+03	2.314766E-03	4.633823E-05
4.178600E+03	2.313245E-03	4.619771E-05
4.180070E+03	2.312679E-03	4.607653E-05
4.181540E+03	2.311632E-03	4.594600E-05
4.183000E+03	2.310217E-03	4.580918E-05
4.184471E+03	2.308408E-03	4.566411E-05
4.185940E+03	2.305558E-03	4.549894E-05
4.187400E+03	2.304977E-03	4.537952E-05
4.188870E+03	2.305359E-03	4.527850E-05
4.190340E+03	2.304583E-03	4.515495E-05
4.191810E+03	2.302041E-03	4.499720E-05
4.193270E+03	2.299014E-03	4.483105E-05
4.194740E+03	2.295546E-03	4.465607E-05
4.196210E+03	2.292836E-03	4.449630E-05
4.197670E+03	2.289277E-03	4.432125E-05
4.199140E+03	2.286922E-03	4.416932E-05
4.200610E+03	2.287212E-03	4.406870E-05
4.202080E+03	2.284090E-03	4.390266E-05
4.203540E+03	2.279874E-03	4.371684E-05
4.205009E+03	2.275861E-03	4.353483E-05
4.206480E+03	2.272165E-03	4.335939E-05
4.207940E+03	2.268540E-03	4.318653E-05
4.209410E+03	2.266526E-03	4.304409E-05
4.210880E+03	2.263584E-03	4.288446E-05
4.212351E+03	2.259874E-03	4.271080E-05
4.213810E+03	2.255630E-03	4.252837E-05
4.215280E+03	2.250059E-03	4.232082E-05
4.216750E+03	2.245208E-03	4.212751E-05
4.218220E+03	2.240392E-03	4.193550E-05
4.219680E+03	2.236412E-03	4.176050E-05
4.221150E+03	2.231789E-03	4.157335E-05
4.222620E+03	2.227928E-03	4.140100E-05
4.224080E+03	2.222926E-03	4.120875E-05
4.225550E+03	2.218976E-03	4.103594E-05
4.227020E+03	2.215061E-03	4.086444E-05
4.228490E+03	2.209041E-03	4.065469E-05
4.229950E+03	2.202928E-03	4.044468E-05
4.231420E+03	2.198757E-03	4.027035E-05
4.232890E+03	2.196524E-03	4.013210E-05
4.234350E+03	2.193675E-03	3.998365E-05
4.235820E+03	2.190019E-03	3.982036E-05
4.237290E+03	2.185427E-03	3.964066E-05
4.238760E+03	2.181155E-03	3.946739E-05
4.240220E+03	2.176588E-03	3.929013E-05
4.241690E+03	2.171658E-03	3.910627E-05
4.243160E+03	2.167453E-03	3.893612E-05
4.244630E+03	2.161742E-03	3.873959E-05
4.246090E+03	2.156182E-03	3.854716E-05
4.247560E+03	2.151962E-03	3.837879E-05
4.249030E+03	2.145950E-03	3.817911E-05
4.250490E+03	2.141635E-03	3.801093E-05
4.251960E+03	2.137524E-03	3.784639E-05
4.253429E+03	2.132961E-03	3.767454E-05
4.254900E+03	2.129616E-03	3.752473E-05
4.256360E+03	2.125649E-03	3.736519E-05
4.257830E+03	2.122377E-03	3.721782E-05
4.259300E+03	2.119836E-03	3.708379E-05
4.260760E+03	2.117081E-03	3.694718E-05
4.262230E+03	2.114451E-03	3.681261E-05
4.263700E+03	2.111125E-03	3.666645E-05
4.265170E+03	2.107754E-03	3.652007E-05
4.266630E+03	2.106457E-03	3.641070E-05
4.268100E+03	2.105245E-03	3.630267E-05
4.269570E+03	2.103785E-03	3.619072E-05
4.271040E+03	2.103101E-03	3.609249E-05
4.272500E+03	2.102205E-03	3.599158E-05
4.273970E+03	2.102295E-03	3.590730E-05
4.275440E+03	2.103407E-03	3.584080E-05
4.276900E+03	2.103121E-03	3.575127E-05
4.278370E+03	2.101815E-03	3.564421E-05
4.279840E+03	2.101163E-03	3.554863E-05
4.281310E+03	2.099525E-03	3.543683E-05
4.282770E+03	2.095910E-03	3.529273E-05
4.284240E+03	2.091927E-03	3.514248E-05
4.285710E+03	2.085765E-03	3.495635E-05
4.287170E+03	2.078277E-03	3.474943E-05
4.288640E+03	2.070417E-03	3.453673E-05
4.290110E+03	2.061195E-03	3.430225E-05
4.291580E+03	2.052457E-03	3.407687E-05
4.293040E+03	2.042308E-03	3.382967E-05
4.294510E+03	2.030920E-03	3.356259E-05
4.295980E+03	2.020469E-03	3.331222E-05
4.297440E+03	2.008233E-03	3.303411E-05
4.298910E+03	1.994756E-03	3.273639E-05
4.300380E+03	1.979908E-03	3.241759E-05
4.301850E+03	1.963893E-03	3.208119E-05
4.303310E+03	1.948683E-03	3.176002E-05
4.304780E+03	1.933137E-03	3.143431E-05
4.306250E+03	1.916793E-03	3.109718E-05
4.307720E+03	1.899320E-03	3.074334E-05
4.309180E+03	1.881704E-03	3.038934E-05
4.310650E+03	1.863169E-03	3.002166E-05
4.312120E+03	1.844330E-03	2.965079E-05
4.313580E+03	1.825512E-03	2.928242E-05
4.315050E+03	1.808959E-03	2.895156E-05
4.316520E+03	1.789660E-03	2.857844E-05
4.317990E+03	1.770759E-03	2.821336E-05
4.319450E+03	1.752709E-03	2.786390E-05
4.320920E+03	1.734110E-03	2.750694E-05
4.322389E+03	1.715329E-03	2.714880E-05
4.323850E+03	1.694829E-03	2.676553E-05
4.325320E+03	1.673031E-03	2.636318E-05
4.326790E+03	1.651382E-03	2.596501E-05
4.328260E+03	1.627058E-03	2.552672E-05
4.329721E+03	1.602877E-03	2.509303E-05
4.331190E+03	1.578473E-03	2.465750E-05
4.332660E+03	1.555006E-03	2.423852E-05
4.334120E+03	1.531184E-03	2.381627E-05
4.335590E+03	1.507055E-03	2.339085E-05
4.337060E+03	1.485528E-03	2.300767E-05
4.338530E+03	1.465192E-03	2.264460E-05
4.339990E+03	1.446501E-03	2.230889E-05
4.341460E+03	1.428175E-03	2.197998E-05
4.342930E+03	1.410583E-03	2.166388E-05
4.344400E+03	1.394853E-03	2.137778E-05
4.345860E+03	1.381818E-03	2.113448E-05
4.347330E+03	1.370694E-03	2.092120E-05
4.348800E+03	1.361147E-03	2.073296E-05
4.350260E+03	1.354469E-03	2.058954E-05
4.351730E+03	1.348749E-03	2.046108E-05
4.353200E+03	1.347786E-03	2.040532E-05
4.354670E+03	1.349455E-03	2.038970E-05
4.356130E+03	1.351581E-03	2.038147E-05
4.357600E+03	1.356262E-03	2.041165E-05
4.359070E+03	1.363121E-03	2.047457E-05
4.360540E+03	1.372412E-03	2.057387E-05
4.362000E+03	1.382794E-03	2.068958E-05
4.363470E+03	1.395448E-03	2.083869E-05
4.364940E+03	1.410708E-03	2.102628E-05
4.366400E+03	1.431675E-03	2.129852E-05
4.367870E+03	1.454002E-03	2.158986E-05
4.369340E+03	1.478399E-03	2.191102E-05
4.370809E+03	1.503023E-03	2.223459E-05
4.372270E+03	1.532068E-03	2.262274E-05
4.373740E+03	1.562984E-03	2.303702E-05
4.375210E+03	1.592451E-03	2.342873E-05
4.376670E+03	1.624162E-03	2.385254E-05
4.378140E+03	1.655184E-03	2.426475E-05
4.379610E+03	1.687320E-03	2.469208E-05
4.381080E+03	1.721162E-03	2.514311E-05
