#wls	flux	fluxerr
1.596966E+03	1.674325E-05	2.671709E-07
1.636890E+03	1.682418E-05	2.681473E-07
1.676814E+03	1.679792E-05	2.674064E-07
1.716738E+03	1.666464E-05	2.649569E-07
1.756662E+03	1.642198E-05	2.607674E-07
1.796586E+03	1.605513E-05	2.546102E-07
1.836511E+03	1.553992E-05	2.461103E-07
1.876435E+03	1.486120E-05	2.350385E-07
1.916359E+03	1.400117E-05	2.211251E-07
1.956283E+03	1.297295E-05	2.045904E-07
1.996207E+03	1.183178E-05	1.863173E-07
2.036131E+03	1.068963E-05	1.680761E-07
2.076055E+03	9.709763E-06	1.524317E-07
2.115980E+03	9.070420E-06	1.421674E-07
2.155904E+03	8.893876E-06	1.391722E-07
2.195828E+03	9.219563E-06	1.440266E-07
2.235752E+03	9.995885E-06	1.558856E-07
2.275676E+03	1.112058E-05	1.731196E-07
2.315600E+03	1.247047E-05	1.937835E-07
2.355525E+03	1.393081E-05	2.160759E-07
2.395449E+03	1.542073E-05	2.387322E-07
2.435373E+03	1.689072E-05	2.609821E-07
2.475297E+03	1.832477E-05	2.825771E-07
2.515221E+03	1.971972E-05	3.034691E-07
2.555145E+03	2.109770E-05	3.239986E-07
2.595069E+03	2.247529E-05	3.444184E-07
2.634994E+03	2.389070E-05	3.653095E-07
2.674918E+03	2.537801E-05	3.871853E-07
2.714842E+03	2.697995E-05	4.106854E-07
2.754766E+03	2.875016E-05	4.366089E-07
2.794690E+03	3.074508E-05	4.657887E-07
2.834614E+03	3.304285E-05	4.993769E-07
2.874538E+03	3.573755E-05	5.387531E-07
2.914463E+03	3.895879E-05	5.858150E-07
2.954387E+03	4.285867E-05	6.427758E-07
2.994311E+03	4.764885E-05	7.127126E-07
3.004292E+03	4.901526E-05	7.326555E-07
3.014273E+03	5.046026E-05	7.537423E-07
3.024254E+03	5.198887E-05	7.760453E-07
3.034235E+03	5.360242E-05	7.995817E-07
3.044216E+03	5.531814E-05	8.246056E-07
3.054197E+03	5.714896E-05	8.513060E-07
3.064178E+03	5.909428E-05	8.796701E-07
3.074159E+03	6.117188E-05	9.099588E-07
3.084140E+03	6.337575E-05	9.420781E-07
3.094121E+03	6.572508E-05	9.763088E-07
3.104102E+03	6.821390E-05	1.012558E-06
3.114083E+03	7.086282E-05	1.051125E-06
3.124064E+03	7.367295E-05	1.092023E-06
3.134045E+03	7.664482E-05	1.135252E-06
3.144026E+03	7.980856E-05	1.181254E-06
3.154007E+03	8.315042E-05	1.229818E-06
3.163988E+03	8.669414E-05	1.281290E-06
3.173969E+03	9.044053E-05	1.335674E-06
3.183950E+03	9.439784E-05	1.393084E-06
3.193932E+03	9.858296E-05	1.453762E-06
3.203913E+03	1.030045E-04	1.517827E-06
3.213894E+03	1.076610E-04	1.585250E-06
3.223875E+03	1.125689E-04	1.656262E-06
3.233856E+03	1.177246E-04	1.730803E-06
3.243837E+03	1.231537E-04	1.809240E-06
3.253818E+03	1.288399E-04	1.891323E-06
3.263799E+03	1.347961E-04	1.977232E-06
3.273780E+03	1.410234E-04	2.066972E-06
3.283761E+03	1.475205E-04	2.160516E-06
3.293742E+03	1.542841E-04	2.257805E-06
3.303723E+03	1.613208E-04	2.358924E-06
3.313704E+03	1.685964E-04	2.463364E-06
3.323685E+03	1.761246E-04	2.571315E-06
3.333666E+03	1.838765E-04	2.682347E-06
3.343647E+03	1.918472E-04	2.796379E-06
3.353628E+03	1.999994E-04	2.912859E-06
3.363609E+03	2.083209E-04	3.031603E-06
3.373590E+03	2.167812E-04	3.152157E-06
3.383571E+03	2.253300E-04	3.273787E-06
3.393552E+03	2.339605E-04	3.396390E-06
3.403533E+03	2.425987E-04	3.518888E-06
3.413514E+03	2.512169E-04	3.640878E-06
3.423495E+03	2.597689E-04	3.761690E-06
3.433476E+03	2.682260E-04	3.880912E-06
3.443457E+03	2.765246E-04	3.997624E-06
3.453438E+03	2.846205E-04	4.111194E-06
3.463420E+03	2.924906E-04	4.221295E-06
3.473401E+03	3.000788E-04	4.327126E-06
3.483382E+03	3.073717E-04	4.428502E-06
3.493363E+03	3.143405E-04	4.525020E-06
3.503344E+03	3.209599E-04	4.616323E-06
3.513325E+03	3.272043E-04	4.702061E-06
3.523306E+03	3.330250E-04	4.781545E-06
3.533287E+03	3.384251E-04	4.854836E-06
3.543268E+03	3.433574E-04	4.921270E-06
3.553249E+03	3.477217E-04	4.979432E-06
3.563230E+03	3.514818E-04	5.028825E-06
3.573211E+03	3.545506E-04	5.068225E-06
3.583192E+03	3.568313E-04	5.096276E-06
3.593173E+03	3.582058E-04	5.111323E-06
3.603154E+03	3.585991E-04	5.112330E-06
3.613135E+03	3.579488E-04	5.098449E-06
3.623116E+03	3.561771E-04	5.068611E-06
3.633097E+03	3.532561E-04	5.022464E-06
3.643078E+03	3.491951E-04	4.960185E-06
3.653059E+03	3.440610E-04	4.882769E-06
3.663040E+03	3.379299E-04	4.791337E-06
3.673021E+03	3.309684E-04	4.688291E-06
3.683002E+03	3.233176E-04	4.575657E-06
3.692983E+03	3.152144E-04	4.456816E-06
3.702964E+03	3.068633E-04	4.334675E-06
3.712945E+03	2.985466E-04	4.213230E-06
3.722926E+03	2.905147E-04	4.096011E-06
3.732907E+03	2.830475E-04	3.986948E-06
3.742889E+03	2.763926E-04	3.889505E-06
3.752870E+03	2.708197E-04	3.807442E-06
3.762851E+03	2.665335E-04	3.743591E-06
3.772832E+03	2.637529E-04	3.700973E-06
3.782813E+03	2.626655E-04	3.682155E-06
3.792794E+03	2.634535E-04	3.689624E-06
3.802775E+03	2.662567E-04	3.725255E-06
3.812756E+03	2.712596E-04	3.791548E-06
3.822737E+03	2.785921E-04	3.890224E-06
3.832718E+03	2.883997E-04	4.023217E-06
3.842699E+03	3.008409E-04	4.192634E-06
3.852680E+03	3.160144E-04	4.399739E-06
3.862661E+03	3.340332E-04	4.645988E-06
3.872642E+03	3.549208E-04	4.931587E-06
3.882623E+03	3.786832E-04	5.256502E-06
3.892604E+03	4.052110E-04	5.619091E-06
3.902585E+03	4.343222E-04	6.016716E-06
3.912566E+03	4.657020E-04	6.444908E-06
3.922547E+03	4.989421E-04	6.897926E-06
3.932528E+03	5.335729E-04	7.369202E-06
3.942509E+03	5.689718E-04	7.850084E-06
3.952490E+03	6.045668E-04	8.332655E-06
3.962471E+03	6.396837E-04	8.807621E-06
3.972452E+03	6.737291E-04	9.266834E-06
3.982433E+03	7.060694E-04	9.701634E-06
3.992414E+03	7.361890E-04	1.010502E-05
4.002395E+03	7.636409E-04	1.047094E-05
4.012376E+03	7.880712E-04	1.079467E-05
4.022358E+03	8.093283E-04	1.107426E-05
4.032339E+03	8.273315E-04	1.130875E-05
4.042320E+03	8.422174E-04	1.150013E-05
4.052301E+03	8.542385E-04	1.165199E-05
4.062282E+03	8.637477E-04	1.176925E-05
4.072263E+03	8.711335E-04	1.185732E-05
4.082244E+03	8.768341E-04	1.192224E-05
4.092225E+03	8.811899E-04	1.196871E-05
4.102206E+03	8.845821E-04	1.200197E-05
4.112187E+03	8.871910E-04	1.202449E-05
4.122168E+03	8.892018E-04	1.203882E-05
4.132149E+03	8.906951E-04	1.204607E-05
4.142130E+03	8.917442E-04	1.204726E-05
4.152111E+03	8.923786E-04	1.204281E-05
4.162092E+03	8.925847E-04	1.203255E-05
4.172073E+03	8.923983E-04	1.201699E-05
4.182054E+03	8.918915E-04	1.199710E-05
4.192035E+03	8.911010E-04	1.197341E-05
4.202016E+03	8.901327E-04	1.194734E-05
4.211997E+03	8.890632E-04	1.191993E-05
4.221978E+03	8.879681E-04	1.189219E-05
4.231959E+03	8.869307E-04	1.186525E-05
4.241940E+03	8.860163E-04	1.183997E-05
4.251921E+03	8.852359E-04	1.181650E-05
4.261902E+03	8.846283E-04	1.179534E-05
4.271883E+03	8.841563E-04	1.177600E-05
4.281864E+03	8.838648E-04	1.175907E-05
4.291845E+03	8.837587E-04	1.174461E-05
4.301827E+03	8.838829E-04	1.173319E-05
4.311808E+03	8.843713E-04	1.172660E-05
4.321789E+03	8.853595E-04	1.172661E-05
4.331770E+03	8.869713E-04	1.173484E-05
4.341751E+03	8.893155E-04	1.175269E-05
4.351732E+03	8.923974E-04	1.178021E-05
4.361713E+03	8.960996E-04	1.181582E-05
4.371694E+03	9.002817E-04	1.185763E-05
4.381675E+03	9.048109E-04	1.190389E-05
4.391656E+03	9.098115E-04	1.195621E-05
4.401637E+03	9.156192E-04	1.201898E-05
4.411618E+03	9.225938E-04	1.209688E-05
4.421599E+03	9.310378E-04	1.219382E-05
4.431580E+03	9.410931E-04	1.231159E-05
4.441561E+03	9.528264E-04	1.245100E-05
4.451542E+03	9.662179E-04	1.261171E-05
4.461523E+03	9.812501E-04	1.279342E-05
4.471504E+03	9.979846E-04	1.299686E-05
4.481485E+03	1.016505E-03	1.322304E-05
4.491466E+03	1.036957E-03	1.347379E-05
4.501447E+03	1.059471E-03	1.375069E-05
4.511428E+03	1.084041E-03	1.405359E-05
4.521409E+03	1.110513E-03	1.438040E-05
4.531390E+03	1.138503E-03	1.472608E-05
4.541371E+03	1.167386E-03	1.508247E-05
4.551352E+03	1.196455E-03	1.544041E-05
4.561333E+03	1.224864E-03	1.578900E-05
4.571315E+03	1.251876E-03	1.611875E-05
4.581296E+03	1.276918E-03	1.642240E-05
4.591277E+03	1.299624E-03	1.669529E-05
4.601258E+03	1.319973E-03	1.693728E-05
4.611239E+03	1.338166E-03	1.715104E-05
4.621220E+03	1.354629E-03	1.734213E-05
4.631201E+03	1.369841E-03	1.751673E-05
4.641182E+03	1.384270E-03	1.768089E-05
4.651163E+03	1.398200E-03	1.783826E-05
4.661144E+03	1.411640E-03	1.798898E-05
4.671125E+03	1.424332E-03	1.812979E-05
4.681106E+03	1.435698E-03	1.825338E-05
4.691087E+03	1.444966E-03	1.834998E-05
4.701068E+03	1.451211E-03	1.840798E-05
4.711049E+03	1.453461E-03	1.841518E-05
4.721030E+03	1.450821E-03	1.836043E-05
4.731011E+03	1.442517E-03	1.823418E-05
4.740992E+03	1.427951E-03	1.802910E-05
4.750973E+03	1.406693E-03	1.774006E-05
4.760954E+03	1.378507E-03	1.736438E-05
4.770935E+03	1.343525E-03	1.690403E-05
4.780916E+03	1.302190E-03	1.636487E-05
4.790897E+03	1.255408E-03	1.575855E-05
4.800878E+03	1.204659E-03	1.510386E-05
4.810859E+03	1.151832E-03	1.442465E-05
4.820840E+03	1.099247E-03	1.375002E-05
4.830821E+03	1.049379E-03	1.311088E-05
4.840802E+03	1.004738E-03	1.253843E-05
4.850784E+03	9.676328E-04	1.206122E-05
4.860765E+03	9.400900E-04	1.170416E-05
4.870746E+03	9.238349E-04	1.148828E-05
4.880727E+03	9.202509E-04	1.143026E-05
4.890708E+03	9.304590E-04	1.154346E-05
4.900689E+03	9.552902E-04	1.183757E-05
4.910670E+03	9.952102E-04	1.231772E-05
4.920651E+03	1.050177E-03	1.298272E-05
4.930632E+03	1.119432E-03	1.382255E-05
4.940613E+03	1.201246E-03	1.481528E-05
4.950594E+03	1.292722E-03	1.592465E-05
4.960575E+03	1.389744E-03	1.709960E-05
4.970556E+03	1.487234E-03	1.827750E-05
4.980537E+03	1.579464E-03	1.938801E-05
4.990518E+03	1.660913E-03	2.036368E-05
5.000499E+03	1.726898E-03	2.114763E-05
5.010480E+03	1.774269E-03	2.170201E-05
5.020461E+03	1.801878E-03	2.201360E-05
5.030442E+03	1.810551E-03	2.209336E-05
5.040423E+03	1.802888E-03	2.197378E-05
5.050404E+03	1.782613E-03	2.170092E-05
5.060385E+03	1.753961E-03	2.132680E-05
5.070366E+03	1.721133E-03	2.090284E-05
5.080347E+03	1.687793E-03	2.047363E-05
5.090328E+03	1.656805E-03	2.007391E-05
5.100309E+03	1.630129E-03	1.972729E-05
5.110290E+03	1.608835E-03	1.944653E-05
5.120271E+03	1.593234E-03	1.923513E-05
5.130253E+03	1.582980E-03	1.908871E-05
5.140234E+03	1.577330E-03	1.899806E-05
5.150215E+03	1.575276E-03	1.895086E-05
5.160196E+03	1.575732E-03	1.893392E-05
5.170177E+03	1.577739E-03	1.893563E-05
5.180158E+03	1.580511E-03	1.894648E-05
5.190139E+03	1.583578E-03	1.896084E-05
5.200120E+03	1.586684E-03	1.897563E-05
5.210101E+03	1.589871E-03	1.899133E-05
5.220082E+03	1.593329E-03	1.901024E-05
5.230063E+03	1.597411E-03	1.903652E-05
5.240044E+03	1.602413E-03	1.907370E-05
5.250025E+03	1.608689E-03	1.912594E-05
5.260006E+03	1.616472E-03	1.919597E-05
5.269987E+03	1.625862E-03	1.928489E-05
5.279968E+03	1.636817E-03	1.939215E-05
5.289949E+03	1.649201E-03	1.951609E-05
5.299930E+03	1.662678E-03	1.965267E-05
5.309911E+03	1.676848E-03	1.979713E-05
5.319892E+03	1.691167E-03	1.994303E-05
5.329873E+03	1.705093E-03	2.008398E-05
5.339854E+03	1.717954E-03	2.021212E-05
5.349835E+03	1.729168E-03	2.032061E-05
5.359816E+03	1.738135E-03	2.040253E-05
5.369797E+03	1.744457E-03	2.045328E-05
5.379778E+03	1.747924E-03	2.047051E-05
5.389759E+03	1.748793E-03	2.045735E-05
5.399740E+03	1.747700E-03	2.042134E-05
5.409722E+03	1.745844E-03	2.037655E-05
5.419703E+03	1.744785E-03	2.034121E-05
5.429684E+03	1.746414E-03	2.033730E-05
5.439665E+03	1.752633E-03	2.038685E-05
5.449646E+03	1.765295E-03	2.051121E-05
5.459627E+03	1.785883E-03	2.072736E-05
5.469608E+03	1.815186E-03	2.104412E-05
5.479589E+03	1.852929E-03	2.145800E-05
5.489570E+03	1.897266E-03	2.194733E-05
5.499551E+03	1.944527E-03	2.246945E-05
5.509532E+03	1.989995E-03	2.296982E-05
5.519513E+03	2.028729E-03	2.339155E-05
5.529494E+03	2.056723E-03	2.368876E-05
5.539475E+03	2.071357E-03	2.383172E-05
5.549456E+03	2.071779E-03	2.381112E-05
5.559437E+03	2.058552E-03	2.363396E-05
5.569418E+03	2.033305E-03	2.331943E-05
5.579399E+03	1.998093E-03	2.289149E-05
5.589380E+03	1.954735E-03	2.237132E-05
5.599361E+03	1.904443E-03	2.177306E-05
5.609342E+03	1.847587E-03	2.110118E-05
5.619323E+03	1.783816E-03	2.035189E-05
5.629304E+03	1.712459E-03	1.951776E-05
5.639285E+03	1.632974E-03	1.859289E-05
5.649266E+03	1.545636E-03	1.758068E-05
5.659247E+03	1.451845E-03	1.649726E-05
5.669228E+03	1.354399E-03	1.537461E-05
5.679210E+03	1.257098E-03	1.425592E-05
5.689191E+03	1.164329E-03	1.319087E-05
5.699172E+03	1.080397E-03	1.222801E-05
5.709153E+03	1.008992E-03	1.140873E-05
5.719134E+03	9.529653E-04	1.076482E-05
5.729115E+03	9.143408E-04	1.031861E-05
5.739096E+03	8.944417E-04	1.008444E-05
5.749077E+03	8.942137E-04	1.007235E-05
5.759058E+03	9.143792E-04	1.028984E-05
5.769039E+03	9.555570E-04	1.074323E-05
5.779020E+03	1.018123E-03	1.143610E-05
5.789001E+03	1.101999E-03	1.236692E-05
5.798982E+03	1.206260E-03	1.352469E-05
5.808963E+03	1.328776E-03	1.488497E-05
5.818944E+03	1.465832E-03	1.640567E-05
5.828925E+03	1.612077E-03	1.802655E-05
5.838906E+03	1.760817E-03	1.967260E-05
5.848887E+03	1.904481E-03	2.125929E-05
5.858868E+03	2.035562E-03	2.270309E-05
5.868849E+03	2.147430E-03	2.393052E-05
5.878830E+03	2.235060E-03	2.488621E-05
5.888811E+03	2.295528E-03	2.553834E-05
5.898792E+03	2.328095E-03	2.587948E-05
5.908773E+03	2.334027E-03	2.592446E-05
5.918754E+03	2.316071E-03	2.570450E-05
5.928735E+03	2.278081E-03	2.526296E-05
5.938716E+03	2.224378E-03	2.464825E-05
5.948697E+03	2.159416E-03	2.391006E-05
5.958679E+03	2.087365E-03	2.309481E-05
5.968660E+03	2.011956E-03	2.224391E-05
5.978641E+03	1.936388E-03	2.139273E-05
5.988622E+03	1.863272E-03	2.057011E-05
5.998603E+03	1.794561E-03	1.979748E-05
6.008584E+03	1.731711E-03	1.909078E-05
6.018565E+03	1.675652E-03	1.846009E-05
6.028546E+03	1.626929E-03	1.791126E-05
6.038527E+03	1.585737E-03	1.744622E-05
6.048508E+03	1.552012E-03	1.706410E-05
6.058489E+03	1.525466E-03	1.676158E-05
6.068470E+03	1.505618E-03	1.653319E-05
6.078451E+03	1.491873E-03	1.637229E-05
6.088432E+03	1.483564E-03	1.627142E-05
6.098413E+03	1.480081E-03	1.622379E-05
6.108394E+03	1.480909E-03	1.622367E-05
6.118375E+03	1.485748E-03	1.626770E-05
6.128356E+03	1.494592E-03	1.635574E-05
6.138337E+03	1.507640E-03	1.648991E-05
6.148318E+03	1.525328E-03	1.667492E-05
6.158299E+03	1.548099E-03	1.691555E-05
6.168280E+03	1.576300E-03	1.721550E-05
6.178261E+03	1.610066E-03	1.757620E-05
6.188242E+03	1.649175E-03	1.799516E-05
6.198223E+03	1.693007E-03	1.846556E-05
6.208204E+03	1.740536E-03	1.897618E-05
6.218185E+03	1.790417E-03	1.951235E-05
6.228166E+03	1.840967E-03	2.005574E-05
6.238148E+03	1.890241E-03	2.058518E-05
6.248129E+03	1.936182E-03	2.107834E-05
6.258110E+03	1.976902E-03	2.151475E-05
6.268091E+03	2.010881E-03	2.187794E-05
6.278072E+03	2.037222E-03	2.215823E-05
6.288053E+03	2.055627E-03	2.235252E-05
6.298034E+03	2.066355E-03	2.246368E-05
6.308015E+03	2.070224E-03	2.250068E-05
6.317996E+03	2.068253E-03	2.247465E-05
6.327977E+03	2.061780E-03	2.240017E-05
6.337958E+03	2.052150E-03	2.229188E-05
6.347939E+03	2.040731E-03	2.216466E-05
6.357920E+03	2.028625E-03	2.203049E-05
6.367901E+03	2.016812E-03	2.190000E-05
6.377882E+03	2.005819E-03	2.177891E-05
6.387863E+03	1.995856E-03	2.166949E-05
6.397844E+03	1.986585E-03	2.156808E-05
6.407825E+03	1.977379E-03	2.146787E-05
6.417806E+03	1.967160E-03	2.135715E-05
6.427787E+03	1.954614E-03	2.122165E-05
6.437768E+03	1.938409E-03	2.104690E-05
6.447749E+03	1.917376E-03	2.082021E-05
6.457730E+03	1.890662E-03	2.053227E-05
6.467711E+03	1.858161E-03	2.018190E-05
6.477692E+03	1.820430E-03	1.977512E-05
6.487673E+03	1.778801E-03	1.932633E-05
6.497654E+03	1.735250E-03	1.885698E-05
6.507635E+03	1.692107E-03	1.839232E-05
6.517617E+03	1.651859E-03	1.795937E-05
6.527598E+03	1.616929E-03	1.758445E-05
6.537579E+03	1.589344E-03	1.728964E-05
6.547560E+03	1.570597E-03	1.709122E-05
6.557541E+03	1.561533E-03	1.699846E-05
6.567522E+03	1.562222E-03	1.701224E-05
6.577503E+03	1.572051E-03	1.712597E-05
6.587484E+03	1.589789E-03	1.732637E-05
6.597465E+03	1.613571E-03	1.759321E-05
6.607446E+03	1.641088E-03	1.790141E-05
6.617427E+03	1.669675E-03	1.822194E-05
6.627408E+03	1.696526E-03	1.852421E-05
6.637389E+03	1.718855E-03	1.877776E-05
6.647370E+03	1.734234E-03	1.895598E-05
6.657351E+03	1.740689E-03	1.903717E-05
6.667332E+03	1.736994E-03	1.900773E-05
6.677313E+03	1.722606E-03	1.886154E-05
6.687294E+03	1.697822E-03	1.860162E-05
6.697275E+03	1.663555E-03	1.823774E-05
6.707256E+03	1.621199E-03	1.778498E-05
6.717237E+03	1.572522E-03	1.726253E-05
6.727218E+03	1.519377E-03	1.669059E-05
6.737199E+03	1.463568E-03	1.608884E-05
6.747180E+03	1.406784E-03	1.547576E-05
6.757161E+03	1.350465E-03	1.486715E-05
6.767142E+03	1.295792E-03	1.427600E-05
6.777123E+03	1.243707E-03	1.371270E-05
6.787105E+03	1.194906E-03	1.318497E-05
6.797086E+03	1.149964E-03	1.269921E-05
6.807067E+03	1.109358E-03	1.226076E-05
6.817048E+03	1.073552E-03	1.187485E-05
6.827029E+03	1.043046E-03	1.154712E-05
6.837010E+03	1.018484E-03	1.128486E-05
6.846991E+03	1.000556E-03	1.109586E-05
6.856972E+03	9.901316E-04	1.098994E-05
6.866953E+03	9.882017E-04	1.097834E-05
6.876934E+03	9.958504E-04	1.107335E-05
6.886915E+03	1.014219E-03	1.128798E-05
6.896896E+03	1.044482E-03	1.163562E-05
6.906877E+03	1.087788E-03	1.212949E-05
6.916858E+03	1.145062E-03	1.278032E-05
6.926839E+03	1.217012E-03	1.359649E-05
6.936820E+03	1.303780E-03	1.458009E-05
6.946801E+03	1.404835E-03	1.572569E-05
6.956782E+03	1.518672E-03	1.701693E-05
6.966763E+03	1.642691E-03	1.842512E-05
6.976744E+03	1.773068E-03	1.990771E-05
6.986725E+03	1.904831E-03	2.140907E-05
6.996706E+03	2.032230E-03	2.286460E-05
7.006687E+03	2.149145E-03	2.420526E-05
7.016668E+03	2.249851E-03	2.536616E-05
7.026649E+03	2.329628E-03	2.629349E-05
7.036630E+03	2.385319E-03	2.695085E-05
7.046611E+03	2.415881E-03	2.732556E-05
7.056592E+03	2.422272E-03	2.742758E-05
7.066574E+03	2.407221E-03	2.728693E-05
7.076555E+03	2.374975E-03	2.695101E-05
7.086536E+03	2.330488E-03	2.647544E-05
7.096517E+03	2.279094E-03	2.592040E-05
7.106498E+03	2.225910E-03	2.534388E-05
7.116479E+03	2.175545E-03	2.479833E-05
7.126460E+03	2.131880E-03	2.432812E-05
7.136441E+03	2.098053E-03	2.396935E-05
7.146422E+03	2.076445E-03	2.374962E-05
7.156403E+03	2.068758E-03	2.368889E-05
7.166384E+03	2.075966E-03	2.379887E-05
7.176365E+03	2.098488E-03	2.408497E-05
7.186346E+03	2.136164E-03	2.454594E-05
7.196327E+03	2.188124E-03	2.517239E-05
7.206308E+03	2.252800E-03	2.594685E-05
7.216289E+03	2.327783E-03	2.684206E-05
7.226270E+03	2.409830E-03	2.782102E-05
7.236251E+03	2.494891E-03	2.883721E-05
7.246232E+03	2.578125E-03	2.983473E-05
7.256213E+03	2.654348E-03	3.075349E-05
7.266194E+03	2.718414E-03	3.153347E-05
7.276175E+03	2.765692E-03	3.212042E-05
7.286156E+03	2.792712E-03	3.247329E-05
7.296137E+03	2.797414E-03	3.256723E-05
7.306118E+03	2.779613E-03	3.239916E-05
7.316099E+03	2.740764E-03	3.198508E-05
7.326080E+03	2.683922E-03	3.135980E-05
7.336061E+03	2.613059E-03	3.056901E-05
7.346043E+03	2.532726E-03	2.966540E-05
7.356024E+03	2.447340E-03	2.870034E-05
7.366005E+03	2.360825E-03	2.771969E-05
7.375986E+03	2.276394E-03	2.676113E-05
7.385967E+03	2.196289E-03	2.585116E-05
7.395948E+03	2.121858E-03	2.500582E-05
7.405929E+03	2.053678E-03	2.423216E-05
7.415910E+03	1.991725E-03	2.353016E-05
7.425891E+03	1.935366E-03	2.289259E-05
7.435872E+03	1.883808E-03	2.231030E-05
7.445853E+03	1.836067E-03	2.177182E-05
7.455834E+03	1.791254E-03	2.126676E-05
7.465815E+03	1.748615E-03	2.078628E-05
7.475796E+03	1.707746E-03	2.032568E-05
7.485777E+03	1.668532E-03	1.988362E-05
7.495758E+03	1.631172E-03	1.946259E-05
7.505739E+03	1.596231E-03	1.906938E-05
7.515720E+03	1.564418E-03	1.871260E-05
7.525701E+03	1.536584E-03	1.840256E-05
7.535682E+03	1.513522E-03	1.814895E-05
7.545663E+03	1.495873E-03	1.795968E-05
7.555644E+03	1.483955E-03	1.783882E-05
7.565625E+03	1.477698E-03	1.778576E-05
7.575606E+03	1.476633E-03	1.779512E-05
7.585587E+03	1.479960E-03	1.785749E-05
7.595568E+03	1.486825E-03	1.796272E-05
7.605549E+03	1.496676E-03	1.810430E-05
7.615530E+03	1.509511E-03	1.828236E-05
7.625512E+03	1.525721E-03	1.850177E-05
7.635493E+03	1.545877E-03	1.876960E-05
7.645474E+03	1.570402E-03	1.909118E-05
7.655455E+03	1.599342E-03	1.946728E-05
7.665436E+03	1.632438E-03	1.989493E-05
7.675417E+03	1.668949E-03	2.036530E-05
7.685398E+03	1.707769E-03	2.086501E-05
7.695379E+03	1.747363E-03	2.137540E-05
7.705360E+03	1.785908E-03	2.187418E-05
7.715341E+03	1.821314E-03	2.233567E-05
7.725322E+03	1.851339E-03	2.273220E-05
7.735303E+03	1.873799E-03	2.303668E-05
7.745284E+03	1.886790E-03	2.322531E-05
