#wls	flux	fluxerr
1.596966E+03	1.091668E-05	2.288631E-07
1.636890E+03	1.099296E-05	2.301628E-07
1.676814E+03	1.099833E-05	2.299687E-07
1.716738E+03	1.093770E-05	2.283890E-07
1.756662E+03	1.080457E-05	2.252941E-07
1.796586E+03	1.058608E-05	2.204227E-07
1.836511E+03	1.027041E-05	2.135371E-07
1.876435E+03	9.840762E-06	2.042977E-07
1.916359E+03	9.287945E-06	1.925257E-07
1.956283E+03	8.618411E-06	1.783673E-07
1.996207E+03	7.869088E-06	1.625982E-07
2.036131E+03	7.114323E-06	1.467616E-07
2.076055E+03	6.466833E-06	1.331810E-07
2.115980E+03	6.044734E-06	1.242748E-07
2.155904E+03	5.931771E-06	1.217390E-07
2.195828E+03	6.156872E-06	1.261328E-07
2.235752E+03	6.690737E-06	1.368195E-07
2.275676E+03	7.469927E-06	1.524683E-07
2.315600E+03	8.417069E-06	1.714732E-07
2.355525E+03	9.467540E-06	1.924985E-07
2.395449E+03	1.057168E-05	2.145222E-07
2.435373E+03	1.170739E-05	2.370874E-07
2.475297E+03	1.286606E-05	2.600143E-07
2.515221E+03	1.405557E-05	2.834559E-07
2.555145E+03	1.529104E-05	3.077102E-07
2.595069E+03	1.659614E-05	3.332440E-07
2.634994E+03	1.799506E-05	3.605298E-07
2.674918E+03	1.952125E-05	3.902210E-07
2.714842E+03	2.121369E-05	4.230745E-07
2.754766E+03	2.311171E-05	4.598463E-07
2.794690E+03	2.526718E-05	5.015336E-07
2.834614E+03	2.773743E-05	5.492306E-07
2.874538E+03	3.059319E-05	6.042845E-07
2.914463E+03	3.390890E-05	6.681004E-07
2.954387E+03	3.778777E-05	7.426322E-07
2.994311E+03	4.232483E-05	8.296522E-07
3.004292E+03	4.357378E-05	8.535777E-07
3.014273E+03	4.487536E-05	8.785001E-07
3.024254E+03	4.623167E-05	9.044583E-07
3.034235E+03	4.764076E-05	9.314117E-07
3.044216E+03	4.911550E-05	9.596096E-07
3.054197E+03	5.065838E-05	9.890983E-07
3.064178E+03	5.227629E-05	1.020009E-06
3.074159E+03	5.397064E-05	1.052366E-06
3.084140E+03	5.573649E-05	1.086071E-06
3.094121E+03	5.758124E-05	1.121264E-06
3.104102E+03	5.950632E-05	1.157970E-06
3.114083E+03	6.150622E-05	1.196078E-06
3.124064E+03	6.358881E-05	1.235739E-06
3.134045E+03	6.574806E-05	1.276831E-06
3.144026E+03	6.799948E-05	1.319653E-06
3.154007E+03	7.032939E-05	1.363935E-06
3.163988E+03	7.273811E-05	1.409681E-06
3.173969E+03	7.523383E-05	1.457045E-06
3.183950E+03	7.781718E-05	1.506036E-06
3.193932E+03	8.048850E-05	1.556657E-06
3.203913E+03	8.324796E-05	1.608907E-06
3.213894E+03	8.608639E-05	1.662606E-06
3.223875E+03	8.901201E-05	1.717909E-06
3.233856E+03	9.201455E-05	1.774614E-06
3.243837E+03	9.510206E-05	1.832873E-06
3.253818E+03	9.828326E-05	1.892851E-06
3.263799E+03	1.015262E-04	1.953926E-06
3.273780E+03	1.048589E-04	2.016640E-06
3.283761E+03	1.082581E-04	2.080535E-06
3.293742E+03	1.117422E-04	2.145968E-06
3.303723E+03	1.152859E-04	2.212445E-06
3.313704E+03	1.188846E-04	2.279877E-06
3.323685E+03	1.225572E-04	2.348626E-06
3.333666E+03	1.262755E-04	2.418144E-06
3.343647E+03	1.300461E-04	2.488559E-06
3.353628E+03	1.338636E-04	2.559765E-06
3.363609E+03	1.377223E-04	2.631649E-06
3.373590E+03	1.416160E-04	2.704093E-06
3.383571E+03	1.455245E-04	2.776709E-06
3.393552E+03	1.494543E-04	2.849621E-06
3.403533E+03	1.533985E-04	2.922694E-06
3.413514E+03	1.573500E-04	2.995795E-06
3.423495E+03	1.613015E-04	3.068784E-06
3.433476E+03	1.652459E-04	3.141525E-06
3.443457E+03	1.691759E-04	3.213879E-06
3.453438E+03	1.730687E-04	3.285418E-06
3.463420E+03	1.769327E-04	3.356299E-06
3.473401E+03	1.807613E-04	3.426398E-06
3.483382E+03	1.845647E-04	3.495910E-06
3.493363E+03	1.882882E-04	3.563804E-06
3.503344E+03	1.919759E-04	3.630912E-06
3.513325E+03	1.956070E-04	3.696848E-06
3.523306E+03	1.991782E-04	3.761549E-06
3.533287E+03	2.026698E-04	3.824646E-06
3.543268E+03	2.061147E-04	3.886765E-06
3.553249E+03	2.094782E-04	3.947249E-06
3.563230E+03	2.127961E-04	4.006783E-06
3.573211E+03	2.160361E-04	4.064755E-06
3.583192E+03	2.192193E-04	4.121570E-06
3.593173E+03	2.223516E-04	4.177338E-06
3.603154E+03	2.254401E-04	4.232195E-06
3.613135E+03	2.284936E-04	4.286311E-06
3.623116E+03	2.315225E-04	4.339877E-06
3.633097E+03	2.345204E-04	4.392781E-06
3.643078E+03	2.375375E-04	4.445962E-06
3.653059E+03	2.405713E-04	4.499370E-06
3.663040E+03	2.436191E-04	4.552957E-06
3.673021E+03	2.467365E-04	4.607761E-06
3.683002E+03	2.499049E-04	4.663430E-06
3.692983E+03	2.531824E-04	4.721047E-06
3.702964E+03	2.565517E-04	4.780287E-06
3.712945E+03	2.600536E-04	4.841903E-06
3.722926E+03	2.637097E-04	4.906295E-06
3.732907E+03	2.675421E-04	4.973866E-06
3.742889E+03	2.715724E-04	5.045009E-06
3.752870E+03	2.758215E-04	5.120109E-06
3.762851E+03	2.802900E-04	5.199163E-06
3.772832E+03	2.850363E-04	5.283248E-06
3.782813E+03	2.900581E-04	5.372309E-06
3.792794E+03	2.953494E-04	5.466227E-06
3.802775E+03	3.009432E-04	5.565598E-06
3.812756E+03	3.068484E-04	5.670578E-06
3.822737E+03	3.130704E-04	5.781253E-06
3.832718E+03	3.196110E-04	5.897643E-06
3.842699E+03	3.264664E-04	6.019667E-06
3.852680E+03	3.336053E-04	6.146738E-06
3.862661E+03	3.410575E-04	6.279390E-06
3.872642E+03	3.487567E-04	6.416397E-06
3.882623E+03	3.566976E-04	6.557648E-06
3.892604E+03	3.648463E-04	6.702513E-06
3.902585E+03	3.731371E-04	6.849780E-06
3.912566E+03	3.815465E-04	6.999012E-06
3.922547E+03	3.900459E-04	7.149684E-06
3.932528E+03	3.985032E-04	7.299372E-06
3.942509E+03	4.069321E-04	7.448331E-06
3.952490E+03	4.152183E-04	7.594471E-06
3.962471E+03	4.233245E-04	7.737120E-06
3.972452E+03	4.311897E-04	7.875174E-06
3.982433E+03	4.387302E-04	8.007114E-06
3.992414E+03	4.459221E-04	8.132520E-06
4.002395E+03	4.527230E-04	8.250634E-06
4.012376E+03	4.590735E-04	8.360392E-06
4.022358E+03	4.649798E-04	8.461926E-06
4.032339E+03	4.704057E-04	8.554599E-06
4.042320E+03	4.753836E-04	8.639014E-06
4.052301E+03	4.799029E-04	8.715005E-06
4.062282E+03	4.840216E-04	8.783636E-06
4.072263E+03	4.877806E-04	8.845673E-06
4.082244E+03	4.912042E-04	8.901566E-06
4.092225E+03	4.943522E-04	8.952414E-06
4.102206E+03	4.973189E-04	8.999935E-06
4.112187E+03	5.001485E-04	9.044938E-06
4.122168E+03	5.029423E-04	9.089261E-06
4.132149E+03	5.057206E-04	9.133269E-06
4.142130E+03	5.086403E-04	9.179799E-06
4.152111E+03	5.116902E-04	9.228647E-06
4.162092E+03	5.149939E-04	9.282031E-06
4.172073E+03	5.185858E-04	9.340571E-06
4.182054E+03	5.225222E-04	9.405267E-06
4.192035E+03	5.268791E-04	9.477478E-06
4.202016E+03	5.316408E-04	9.556908E-06
4.211997E+03	5.368924E-04	9.645072E-06
4.221978E+03	5.426248E-04	9.741795E-06
4.231959E+03	5.488444E-04	9.847177E-06
4.241940E+03	5.555164E-04	9.960577E-06
4.251921E+03	5.626755E-04	1.008261E-05
4.261902E+03	5.702575E-04	1.021211E-05
4.271883E+03	5.782092E-04	1.034811E-05
4.281864E+03	5.864616E-04	1.048937E-05
4.291845E+03	5.949284E-04	1.063434E-05
4.301827E+03	6.034790E-04	1.078069E-05
4.311808E+03	6.120555E-04	1.092738E-05
4.321789E+03	6.204722E-04	1.107110E-05
4.331770E+03	6.286248E-04	1.121001E-05
4.341751E+03	6.363809E-04	1.134175E-05
4.351732E+03	6.435883E-04	1.146362E-05
4.361713E+03	6.501783E-04	1.157444E-05
4.371694E+03	6.560899E-04	1.167312E-05
4.381675E+03	6.612790E-04	1.175892E-05
4.391656E+03	6.658120E-04	1.183304E-05
4.401637E+03	6.697711E-04	1.189696E-05
4.411618E+03	6.732521E-04	1.195239E-05
4.421599E+03	6.764415E-04	1.200268E-05
4.431580E+03	6.794779E-04	1.205027E-05
4.441561E+03	6.825584E-04	1.209868E-05
4.451542E+03	6.858049E-04	1.215006E-05
4.461523E+03	6.893469E-04	1.220670E-05
4.471504E+03	6.933163E-04	1.227093E-05
4.481485E+03	6.977513E-04	1.234342E-05
4.491466E+03	7.026871E-04	1.242477E-05
4.501447E+03	7.081560E-04	1.251554E-05
4.511428E+03	7.140953E-04	1.261461E-05
4.521409E+03	7.204433E-04	1.272089E-05
4.531390E+03	7.271409E-04	1.283332E-05
4.541371E+03	7.340126E-04	1.294879E-05
4.551352E+03	7.409882E-04	1.306608E-05
4.561333E+03	7.478908E-04	1.318205E-05
4.571315E+03	7.545666E-04	1.329400E-05
4.581296E+03	7.608928E-04	1.339978E-05
4.591277E+03	7.666563E-04	1.349564E-05
4.601258E+03	7.717490E-04	1.357970E-05
4.611239E+03	7.760465E-04	1.364978E-05
4.621220E+03	7.794755E-04	1.370460E-05
4.631201E+03	7.818899E-04	1.374163E-05
4.641182E+03	7.832938E-04	1.376095E-05
4.651163E+03	7.835900E-04	1.376088E-05
4.661144E+03	7.827994E-04	1.374180E-05
4.671125E+03	7.809665E-04	1.370451E-05
4.681106E+03	7.780628E-04	1.364854E-05
4.691087E+03	7.741747E-04	1.357542E-05
4.701068E+03	7.693751E-04	1.348645E-05
4.711049E+03	7.637539E-04	1.338321E-05
4.721030E+03	7.573872E-04	1.326704E-05
4.731011E+03	7.504551E-04	1.314112E-05
4.740992E+03	7.430332E-04	1.300678E-05
4.750973E+03	7.353264E-04	1.286760E-05
4.760954E+03	7.274367E-04	1.272537E-05
4.770935E+03	7.195363E-04	1.258311E-05
4.780916E+03	7.118598E-04	1.244491E-05
4.790897E+03	7.045681E-04	1.231358E-05
4.800878E+03	6.978274E-04	1.219201E-05
4.810859E+03	6.918619E-04	1.208411E-05
4.820840E+03	6.868663E-04	1.199326E-05
4.830821E+03	6.830062E-04	1.192234E-05
4.840802E+03	6.805144E-04	1.187539E-05
4.850784E+03	6.795074E-04	1.185441E-05
4.860765E+03	6.801578E-04	1.186241E-05
4.870746E+03	6.825873E-04	1.190147E-05
4.880727E+03	6.868611E-04	1.197270E-05
4.890708E+03	6.930558E-04	1.207742E-05
4.900689E+03	7.011795E-04	1.221573E-05
4.910670E+03	7.111898E-04	1.238688E-05
4.920651E+03	7.229635E-04	1.258870E-05
4.930632E+03	7.363716E-04	1.281890E-05
4.940613E+03	7.512015E-04	1.307379E-05
4.950594E+03	7.671851E-04	1.334867E-05
4.960575E+03	7.839788E-04	1.363756E-05
4.970556E+03	8.012579E-04	1.393479E-05
4.980537E+03	8.186498E-04	1.423390E-05
4.990518E+03	8.357828E-04	1.452842E-05
5.000499E+03	8.522745E-04	1.481171E-05
5.010480E+03	8.678762E-04	1.507946E-05
5.020461E+03	8.822794E-04	1.532632E-05
5.030442E+03	8.953102E-04	1.554929E-05
5.040423E+03	9.069419E-04	1.574792E-05
5.050404E+03	9.171036E-04	1.592099E-05
5.060385E+03	9.258962E-04	1.607029E-05
5.070366E+03	9.334506E-04	1.619809E-05
5.080347E+03	9.399107E-04	1.630691E-05
5.090328E+03	9.455452E-04	1.640141E-05
5.100309E+03	9.504980E-04	1.648410E-05
5.110290E+03	9.550026E-04	1.655905E-05
5.120271E+03	9.592371E-04	1.662933E-05
5.130253E+03	9.633132E-04	1.669689E-05
5.140234E+03	9.674049E-04	1.676476E-05
5.150215E+03	9.715140E-04	1.683295E-05
5.160196E+03	9.757050E-04	1.690258E-05
5.170177E+03	9.799765E-04	1.697364E-05
5.180158E+03	9.843000E-04	1.704562E-05
5.190139E+03	9.885921E-04	1.711709E-05
5.200120E+03	9.928250E-04	1.718755E-05
5.210101E+03	9.969628E-04	1.725640E-05
5.220082E+03	1.000867E-03	1.732124E-05
5.230063E+03	1.004505E-03	1.738150E-05
5.240044E+03	1.007817E-03	1.743615E-05
5.250025E+03	1.010719E-03	1.748374E-05
5.260006E+03	1.013244E-03	1.752484E-05
5.269987E+03	1.015333E-03	1.755846E-05
5.279968E+03	1.016944E-03	1.758383E-05
5.289949E+03	1.018118E-03	1.760171E-05
5.299930E+03	1.018913E-03	1.761308E-05
5.309911E+03	1.019300E-03	1.761744E-05
5.319892E+03	1.019368E-03	1.761634E-05
5.329873E+03	1.019192E-03	1.761106E-05
5.339854E+03	1.018858E-03	1.760312E-05
5.349835E+03	1.018471E-03	1.759432E-05
5.359816E+03	1.018149E-03	1.758668E-05
5.369797E+03	1.018019E-03	1.758242E-05
5.379778E+03	1.018220E-03	1.758391E-05
5.389759E+03	1.018890E-03	1.759356E-05
5.399740E+03	1.020166E-03	1.761373E-05
5.409722E+03	1.022139E-03	1.764596E-05
5.419703E+03	1.024981E-03	1.769326E-05
5.429684E+03	1.028729E-03	1.775623E-05
5.439665E+03	1.033409E-03	1.783532E-05
5.449646E+03	1.038985E-03	1.792992E-05
5.459627E+03	1.045350E-03	1.803816E-05
5.469608E+03	1.052312E-03	1.815673E-05
5.479589E+03	1.059622E-03	1.828135E-05
5.489570E+03	1.066832E-03	1.840427E-05
5.499551E+03	1.073511E-03	1.851807E-05
5.509532E+03	1.079164E-03	1.861419E-05
5.519513E+03	1.083146E-03	1.868156E-05
5.529494E+03	1.084959E-03	1.871153E-05
5.539475E+03	1.084028E-03	1.869425E-05
5.549456E+03	1.079894E-03	1.862177E-05
5.559437E+03	1.072208E-03	1.848812E-05
5.569418E+03	1.060764E-03	1.828972E-05
5.579399E+03	1.045515E-03	1.802578E-05
5.589380E+03	1.026615E-03	1.769899E-05
5.599361E+03	1.004312E-03	1.731360E-05
5.609342E+03	9.790382E-04	1.687708E-05
5.619323E+03	9.513499E-04	1.639902E-05
5.629304E+03	9.218993E-04	1.589067E-05
5.639285E+03	8.914333E-04	1.536489E-05
5.649266E+03	8.606657E-04	1.483399E-05
5.659247E+03	8.303422E-04	1.431082E-05
5.669228E+03	8.011793E-04	1.380772E-05
5.679210E+03	7.738678E-04	1.333658E-05
5.689191E+03	7.489777E-04	1.290724E-05
5.699172E+03	7.270286E-04	1.252863E-05
5.709153E+03	7.084812E-04	1.220868E-05
5.719134E+03	6.936424E-04	1.195268E-05
5.729115E+03	6.828581E-04	1.176659E-05
5.739096E+03	6.762600E-04	1.165265E-05
5.749077E+03	6.740244E-04	1.161392E-05
5.759058E+03	6.761897E-04	1.165103E-05
5.769039E+03	6.827679E-04	1.176420E-05
5.779020E+03	6.936246E-04	1.195111E-05
5.789001E+03	7.086517E-04	1.220990E-05
5.798982E+03	7.275006E-04	1.253455E-05
5.808963E+03	7.498490E-04	1.291951E-05
5.818944E+03	7.751025E-04	1.335454E-05
5.828925E+03	8.026568E-04	1.382924E-05
5.838906E+03	8.317027E-04	1.432966E-05
5.848887E+03	8.613725E-04	1.484085E-05
5.858868E+03	8.906903E-04	1.534601E-05
5.868849E+03	9.185825E-04	1.582664E-05
5.878830E+03	9.441457E-04	1.626717E-05
5.888811E+03	9.663728E-04	1.665025E-05
5.898792E+03	9.845588E-04	1.696375E-05
5.908773E+03	9.981342E-04	1.719784E-05
5.918754E+03	1.006732E-03	1.734621E-05
5.928735E+03	1.010308E-03	1.740808E-05
5.938716E+03	1.009005E-03	1.738591E-05
5.948697E+03	1.003262E-03	1.728729E-05
5.958679E+03	9.936427E-04	1.712188E-05
5.968660E+03	9.809153E-04	1.690294E-05
5.978641E+03	9.658993E-04	1.664458E-05
5.988622E+03	9.494147E-04	1.636094E-05
5.998603E+03	9.323002E-04	1.606645E-05
6.008584E+03	9.154081E-04	1.577582E-05
6.018565E+03	8.993605E-04	1.549974E-05
6.028546E+03	8.848786E-04	1.525067E-05
6.038527E+03	8.724397E-04	1.503682E-05
6.048508E+03	8.624966E-04	1.486600E-05
6.058489E+03	8.554805E-04	1.474565E-05
6.068470E+03	8.516378E-04	1.468001E-05
6.078451E+03	8.512193E-04	1.467343E-05
6.088432E+03	8.544581E-04	1.472993E-05
6.098413E+03	8.615242E-04	1.485244E-05
6.108394E+03	8.725568E-04	1.504338E-05
6.118375E+03	8.876382E-04	1.530418E-05
6.128356E+03	9.068796E-04	1.563676E-05
6.138337E+03	9.302973E-04	1.604143E-05
6.148318E+03	9.579544E-04	1.651929E-05
6.158299E+03	9.897260E-04	1.706819E-05
6.168280E+03	1.025506E-03	1.768633E-05
6.178261E+03	1.065020E-03	1.836900E-05
6.188242E+03	1.107948E-03	1.911067E-05
6.198223E+03	1.153796E-03	1.990288E-05
6.208204E+03	1.201925E-03	2.073458E-05
6.218185E+03	1.251498E-03	2.159137E-05
6.228166E+03	1.301615E-03	2.245773E-05
6.238148E+03	1.351214E-03	2.331534E-05
6.248129E+03	1.399143E-03	2.414431E-05
6.258110E+03	1.444211E-03	2.492413E-05
6.268091E+03	1.485200E-03	2.563374E-05
6.278072E+03	1.521077E-03	2.625531E-05
6.288053E+03	1.550918E-03	2.677284E-05
6.298034E+03	1.574003E-03	2.717393E-05
6.308015E+03	1.589869E-03	2.745053E-05
6.317996E+03	1.598269E-03	2.759832E-05
6.327977E+03	1.599336E-03	2.761961E-05
6.337958E+03	1.593403E-03	2.752008E-05
6.347939E+03	1.581011E-03	2.730904E-05
6.357920E+03	1.562859E-03	2.699852E-05
6.367901E+03	1.539744E-03	2.660227E-05
6.377882E+03	1.512507E-03	2.613481E-05
6.387863E+03	1.481931E-03	2.560959E-05
6.397844E+03	1.448905E-03	2.504199E-05
6.407825E+03	1.414039E-03	2.444253E-05
6.417806E+03	1.378010E-03	2.382288E-05
6.427787E+03	1.341349E-03	2.319223E-05
6.437768E+03	1.304551E-03	2.255911E-05
6.447749E+03	1.267896E-03	2.192836E-05
6.457730E+03	1.231746E-03	2.130625E-05
6.467711E+03	1.196331E-03	2.069674E-05
6.477692E+03	1.161974E-03	2.010545E-05
6.487673E+03	1.128849E-03	1.953536E-05
6.497654E+03	1.097150E-03	1.898984E-05
6.507635E+03	1.067048E-03	1.847187E-05
6.517617E+03	1.038675E-03	1.798372E-05
6.527598E+03	1.012093E-03	1.752648E-05
6.537579E+03	9.872552E-04	1.709936E-05
6.547560E+03	9.641657E-04	1.670243E-05
6.557541E+03	9.426832E-04	1.633325E-05
6.567522E+03	9.226622E-04	1.598933E-05
6.577503E+03	9.039194E-04	1.566747E-05
6.587484E+03	8.862357E-04	1.536391E-05
6.597465E+03	8.693632E-04	1.507434E-05
6.607446E+03	8.530346E-04	1.479414E-05
6.617427E+03	8.369767E-04	1.451856E-05
6.627408E+03	8.209240E-04	1.424301E-05
6.637389E+03	8.046633E-04	1.396377E-05
6.647370E+03	7.879331E-04	1.367630E-05
6.657351E+03	7.706118E-04	1.337849E-05
6.667332E+03	7.526370E-04	1.306924E-05
6.677313E+03	7.339603E-04	1.274770E-05
6.687294E+03	7.146037E-04	1.241423E-05
6.697275E+03	6.947360E-04	1.207177E-05
6.707256E+03	6.745039E-04	1.172285E-05
6.717237E+03	6.541294E-04	1.137133E-05
6.727218E+03	6.338683E-04	1.102164E-05
6.737199E+03	6.140198E-04	1.067899E-05
6.747180E+03	5.948229E-04	1.034754E-05
6.757161E+03	5.766019E-04	1.003294E-05
6.767142E+03	5.595804E-04	9.739084E-06
6.777123E+03	5.440484E-04	9.471038E-06
6.787105E+03	5.302103E-04	9.232376E-06
6.797086E+03	5.182692E-04	9.026656E-06
6.807067E+03	5.084064E-04	8.857057E-06
6.817048E+03	5.008029E-04	8.726761E-06
6.827029E+03	4.955690E-04	8.637717E-06
6.837010E+03	4.928777E-04	8.592971E-06
6.846991E+03	4.928380E-04	8.594460E-06
6.856972E+03	4.955711E-04	8.644328E-06
6.866953E+03	5.011910E-04	8.744604E-06
6.876934E+03	5.098032E-04	8.897168E-06
6.886915E+03	5.215003E-04	9.103677E-06
6.896896E+03	5.363752E-04	9.365796E-06
6.906877E+03	5.544320E-04	9.683641E-06
6.916858E+03	5.757138E-04	1.005801E-05
6.926839E+03	6.001496E-04	1.048771E-05
6.936820E+03	6.276191E-04	1.097068E-05
6.946801E+03	6.579229E-04	1.150349E-05
6.956782E+03	6.907959E-04	1.208153E-05
6.966763E+03	7.258043E-04	1.269725E-05
6.976744E+03	7.625273E-04	1.334333E-05
6.986725E+03	8.003576E-04	1.400916E-05
6.996706E+03	8.387478E-04	1.468518E-05
7.006687E+03	8.770422E-04	1.535992E-05
7.016668E+03	9.146279E-04	1.602263E-05
7.026649E+03	9.509494E-04	1.666358E-05
7.036630E+03	9.855492E-04	1.727472E-05
7.046611E+03	1.018139E-03	1.785100E-05
7.056592E+03	1.048474E-03	1.838807E-05
7.066574E+03	1.076586E-03	1.888647E-05
7.076555E+03	1.102678E-03	1.934972E-05
7.086536E+03	1.126978E-03	1.978180E-05
7.096517E+03	1.150003E-03	2.019177E-05
7.106498E+03	1.172235E-03	2.058807E-05
7.116479E+03	1.194247E-03	2.098076E-05
7.126460E+03	1.216580E-03	2.137934E-05
7.136441E+03	1.239884E-03	2.179523E-05
7.146422E+03	1.264605E-03	2.223630E-05
7.156403E+03	1.291135E-03	2.270949E-05
7.166384E+03	1.319737E-03	2.321942E-05
7.176365E+03	1.350456E-03	2.376695E-05
7.186346E+03	1.383309E-03	2.435238E-05
7.196327E+03	1.417952E-03	2.496971E-05
7.206308E+03	1.453874E-03	2.560996E-05
7.216289E+03	1.490340E-03	2.626021E-05
7.226270E+03	1.526344E-03	2.690273E-05
7.236251E+03	1.560870E-03	2.751962E-05
7.246232E+03	1.592526E-03	2.808628E-05
7.256213E+03	1.620079E-03	2.858094E-05
7.266194E+03	1.642055E-03	2.897752E-05
7.276175E+03	1.657320E-03	2.925590E-05
7.286156E+03	1.664668E-03	2.939469E-05
7.296137E+03	1.663353E-03	2.938057E-05
7.306118E+03	1.652898E-03	2.920497E-05
7.316099E+03	1.633197E-03	2.886589E-05
7.326080E+03	1.604462E-03	2.836690E-05
7.336061E+03	1.567447E-03	2.772121E-05
7.346043E+03	1.522960E-03	2.694293E-05
7.356024E+03	1.472276E-03	2.605454E-05
7.366005E+03	1.416579E-03	2.507686E-05
7.375986E+03	1.357284E-03	2.403488E-05
7.385967E+03	1.295677E-03	2.295130E-05
7.395948E+03	1.233116E-03	2.185016E-05
7.405929E+03	1.170631E-03	2.074967E-05
7.415910E+03	1.109245E-03	1.966799E-05
7.425891E+03	1.049767E-03	1.861946E-05
7.435872E+03	9.928023E-04	1.761487E-05
7.445853E+03	9.389263E-04	1.666446E-05
7.455834E+03	8.884230E-04	1.577333E-05
7.465815E+03	8.415444E-04	1.494600E-05
7.475796E+03	7.985126E-04	1.418649E-05
7.485777E+03	7.593438E-04	1.349514E-05
7.495758E+03	7.240953E-04	1.287304E-05
7.505739E+03	6.927516E-04	1.231999E-05
7.515720E+03	6.652416E-04	1.183478E-05
7.525701E+03	6.415307E-04	1.141686E-05
7.535682E+03	6.215438E-04	1.106498E-05
7.545663E+03	6.051766E-04	1.077733E-05
7.555644E+03	5.923706E-04	1.055295E-05
7.565625E+03	5.830427E-04	1.039041E-05
7.575606E+03	5.770855E-04	1.028786E-05
7.585587E+03	5.744368E-04	1.024427E-05
7.595568E+03	5.749823E-04	1.025765E-05
7.605549E+03	5.786681E-04	1.032710E-05
7.615530E+03	5.853097E-04	1.044939E-05
7.625512E+03	5.948377E-04	1.062333E-05
7.635493E+03	6.070376E-04	1.084517E-05
7.645474E+03	6.217002E-04	1.111120E-05
7.655455E+03	6.386226E-04	1.141785E-05
7.665436E+03	6.574235E-04	1.175836E-05
7.675417E+03	6.778225E-04	1.212774E-05
7.685398E+03	6.993564E-04	1.251774E-05
7.695379E+03	7.215686E-04	1.292021E-05
7.705360E+03	7.440014E-04	1.332696E-05
7.715341E+03	7.661599E-04	1.372915E-05
7.725322E+03	7.875300E-04	1.411755E-05
7.735303E+03	8.077034E-04	1.448482E-05
7.745284E+03	8.262816E-04	1.482381E-05
