#wls	flux	fluxerr
1.596966E+03	4.265403E-06	1.497453E-07
1.636890E+03	4.327829E-06	1.516232E-07
1.676814E+03	4.365553E-06	1.526203E-07
1.716738E+03	4.376769E-06	1.526787E-07
1.756662E+03	4.359600E-06	1.517389E-07
1.796586E+03	4.307939E-06	1.495955E-07
1.836511E+03	4.215226E-06	1.460296E-07
1.876435E+03	4.073357E-06	1.407717E-07
1.916359E+03	3.877239E-06	1.336592E-07
1.956283E+03	3.628242E-06	1.247546E-07
1.996207E+03	3.340829E-06	1.145692E-07
2.036131E+03	3.045943E-06	1.041737E-07
2.076055E+03	2.791741E-06	9.521419E-08
2.115980E+03	2.630916E-06	8.947281E-08
2.155904E+03	2.603584E-06	8.828355E-08
2.195828E+03	2.724659E-06	9.211071E-08
2.235752E+03	2.985225E-06	1.006073E-07
2.275676E+03	3.360207E-06	1.128853E-07
2.315600E+03	3.817131E-06	1.278174E-07
2.355525E+03	4.326790E-06	1.443986E-07
2.395449E+03	4.868008E-06	1.619026E-07
2.435373E+03	5.429572E-06	1.799427E-07
2.475297E+03	6.006116E-06	1.983299E-07
2.515221E+03	6.599500E-06	2.171150E-07
2.555145E+03	7.211718E-06	2.363523E-07
2.595069E+03	7.851414E-06	2.563114E-07
2.634994E+03	8.525027E-06	2.771857E-07
2.674918E+03	9.242559E-06	2.992795E-07
2.714842E+03	1.001175E-05	3.228188E-07
2.754766E+03	1.084227E-05	3.480853E-07
2.794690E+03	1.174633E-05	3.754361E-07
2.834614E+03	1.273092E-05	4.050542E-07
2.874538E+03	1.381167E-05	4.373903E-07
2.914463E+03	1.500130E-05	4.727919E-07
2.954387E+03	1.630786E-05	5.114514E-07
2.994311E+03	1.775030E-05	5.538932E-07
3.004292E+03	1.813420E-05	5.651495E-07
3.014273E+03	1.852757E-05	5.766669E-07
3.024254E+03	1.893070E-05	5.884522E-07
3.034235E+03	1.934118E-05	6.004295E-07
3.044216E+03	1.976782E-05	6.128707E-07
3.054197E+03	2.021010E-05	6.257577E-07
3.064178E+03	2.066782E-05	6.390820E-07
3.074159E+03	2.114078E-05	6.528352E-07
3.084140E+03	2.162884E-05	6.670109E-07
3.094121E+03	2.213184E-05	6.816018E-07
3.104102E+03	2.264971E-05	6.966040E-07
3.114083E+03	2.317849E-05	7.118933E-07
3.124064E+03	2.372573E-05	7.276997E-07
3.134045E+03	2.428763E-05	7.439043E-07
3.144026E+03	2.486418E-05	7.605045E-07
3.154007E+03	2.545536E-05	7.774974E-07
3.163988E+03	2.606123E-05	7.948826E-07
3.173969E+03	2.668179E-05	8.126581E-07
3.183950E+03	2.731714E-05	8.308243E-07
3.193932E+03	2.797194E-05	8.495206E-07
3.203913E+03	2.863719E-05	8.684710E-07
3.213894E+03	2.931753E-05	8.878145E-07
3.223875E+03	3.001306E-05	9.075518E-07
3.233856E+03	3.072399E-05	9.276863E-07
3.243837E+03	3.145046E-05	9.482202E-07
3.253818E+03	3.219269E-05	9.691576E-07
3.263799E+03	3.295092E-05	9.905030E-07
3.273780E+03	3.373089E-05	1.012426E-06
3.283761E+03	3.452197E-05	1.034605E-06
3.293742E+03	3.532983E-05	1.057207E-06
3.303723E+03	3.615480E-05	1.080240E-06
3.313704E+03	3.699719E-05	1.103710E-06
3.323685E+03	3.786358E-05	1.127810E-06
3.333666E+03	3.874211E-05	1.152183E-06
3.343647E+03	3.963924E-05	1.177019E-06
3.353628E+03	4.055542E-05	1.202329E-06
3.363609E+03	4.149787E-05	1.228323E-06
3.373590E+03	4.245370E-05	1.254615E-06
3.383571E+03	4.343008E-05	1.281416E-06
3.393552E+03	4.443477E-05	1.308949E-06
3.403533E+03	4.545406E-05	1.336807E-06
3.413514E+03	4.649566E-05	1.365214E-06
3.423495E+03	4.756789E-05	1.394410E-06
3.433476E+03	4.865622E-05	1.423965E-06
3.443457E+03	4.976887E-05	1.454115E-06
3.453438E+03	5.091486E-05	1.485120E-06
3.463420E+03	5.207866E-05	1.516522E-06
3.473401E+03	5.326913E-05	1.548576E-06
3.483382E+03	5.449596E-05	1.581558E-06
3.493363E+03	5.574262E-05	1.614982E-06
3.503344E+03	5.702782E-05	1.649388E-06
3.513325E+03	5.833434E-05	1.684270E-06
3.523306E+03	5.968176E-05	1.720189E-06
3.533287E+03	6.105213E-05	1.756623E-06
3.543268E+03	6.245588E-05	1.793865E-06
3.553249E+03	6.390438E-05	1.832238E-06
3.563230E+03	6.537840E-05	1.871182E-06
3.573211E+03	6.689992E-05	1.911321E-06
3.583192E+03	6.844882E-05	1.952073E-06
3.593173E+03	7.004805E-05	1.994086E-06
3.603154E+03	7.167658E-05	2.036755E-06
3.613135E+03	7.335838E-05	2.080753E-06
3.623116E+03	7.507141E-05	2.125447E-06
3.633097E+03	7.684069E-05	2.171540E-06
3.643078E+03	7.864314E-05	2.218369E-06
3.653059E+03	8.050482E-05	2.266664E-06
3.663040E+03	8.240152E-05	2.315732E-06
3.673021E+03	8.436036E-05	2.366329E-06
3.683002E+03	8.635591E-05	2.417732E-06
3.692983E+03	8.841646E-05	2.470724E-06
3.702964E+03	9.051513E-05	2.524543E-06
3.712945E+03	9.268136E-05	2.580004E-06
3.722926E+03	9.488684E-05	2.636307E-06
3.732907E+03	9.716216E-05	2.694293E-06
3.742889E+03	9.949319E-05	2.753558E-06
3.752870E+03	1.018643E-04	2.813660E-06
3.762851E+03	1.043077E-04	2.875482E-06
3.772832E+03	1.067909E-04	2.938115E-06
3.782813E+03	1.093474E-04	3.002470E-06
3.792794E+03	1.119426E-04	3.067591E-06
3.802775E+03	1.146113E-04	3.134413E-06
3.812756E+03	1.173167E-04	3.201928E-06
3.822737E+03	1.200947E-04	3.271101E-06
3.832718E+03	1.229065E-04	3.340864E-06
3.842699E+03	1.257887E-04	3.412205E-06
3.852680E+03	1.287202E-04	3.484541E-06
3.862661E+03	1.316776E-04	3.557228E-06
3.872642E+03	1.346980E-04	3.631260E-06
3.882623E+03	1.377338E-04	3.705346E-06
3.892604E+03	1.408193E-04	3.780405E-06
3.902585E+03	1.438983E-04	3.854917E-06
3.912566E+03	1.469974E-04	3.929598E-06
3.922547E+03	1.500475E-04	4.002596E-06
3.932528E+03	1.530661E-04	4.074386E-06
3.942509E+03	1.559729E-04	4.142842E-06
3.952490E+03	1.587825E-04	4.208366E-06
3.962471E+03	1.614144E-04	4.268843E-06
3.972452E+03	1.638928E-04	4.324947E-06
3.982433E+03	1.661487E-04	4.374882E-06
3.992414E+03	1.682230E-04	4.419764E-06
4.002395E+03	1.700608E-04	4.458184E-06
4.012376E+03	1.717191E-04	4.491672E-06
4.022358E+03	1.731549E-04	4.519139E-06
4.032339E+03	1.744376E-04	4.542427E-06
4.042320E+03	1.755330E-04	4.560679E-06
4.052301E+03	1.765194E-04	4.575954E-06
4.062282E+03	1.773690E-04	4.587557E-06
4.072263E+03	1.781662E-04	4.597685E-06
4.082244E+03	1.788868E-04	4.605727E-06
4.092225E+03	1.795901E-04	4.613218E-06
4.102206E+03	1.803361E-04	4.621701E-06
4.112187E+03	1.811007E-04	4.630551E-06
4.122168E+03	1.819706E-04	4.641979E-06
4.132149E+03	1.829194E-04	4.655292E-06
4.142130E+03	1.840031E-04	4.671899E-06
4.152111E+03	1.852763E-04	4.693158E-06
4.162092E+03	1.867054E-04	4.718188E-06
4.172073E+03	1.883678E-04	4.748910E-06
4.182054E+03	1.902215E-04	4.784230E-06
4.192035E+03	1.923067E-04	4.825117E-06
4.202016E+03	1.946598E-04	4.872443E-06
4.211997E+03	1.972231E-04	4.924720E-06
4.221978E+03	2.000245E-04	4.982603E-06
4.231959E+03	2.030596E-04	5.045938E-06
4.241940E+03	2.063533E-04	5.115306E-06
4.251921E+03	2.098340E-04	5.188883E-06
4.261902E+03	2.135196E-04	5.267080E-06
4.271883E+03	2.173919E-04	5.349410E-06
4.281864E+03	2.214605E-04	5.436077E-06
4.291845E+03	2.256282E-04	5.524664E-06
4.301827E+03	2.298933E-04	5.615110E-06
4.311808E+03	2.342176E-04	5.706470E-06
4.321789E+03	2.385627E-04	5.797796E-06
4.331770E+03	2.428926E-04	5.888215E-06
4.341751E+03	2.472136E-04	5.977881E-06
4.351732E+03	2.514247E-04	6.064361E-06
4.361713E+03	2.555449E-04	6.148131E-06
4.371694E+03	2.595639E-04	6.228964E-06
4.381675E+03	2.634816E-04	6.306873E-06
4.391656E+03	2.673193E-04	6.382389E-06
4.401637E+03	2.711191E-04	6.456529E-06
4.411618E+03	2.749291E-04	6.530443E-06
4.421599E+03	2.787998E-04	6.605326E-06
4.431580E+03	2.827806E-04	6.682338E-06
4.441561E+03	2.869157E-04	6.762499E-06
4.451542E+03	2.912412E-04	6.846630E-06
4.461523E+03	2.957810E-04	6.935260E-06
4.471504E+03	3.005437E-04	7.028547E-06
4.481485E+03	3.055165E-04	7.126156E-06
4.491466E+03	3.106163E-04	7.226113E-06
4.501447E+03	3.158710E-04	7.329040E-06
4.511428E+03	3.211392E-04	7.431637E-06
4.521409E+03	3.262994E-04	7.531099E-06
4.531390E+03	3.312107E-04	7.624201E-06
4.541371E+03	3.356711E-04	7.706350E-06
4.551352E+03	3.396294E-04	7.776455E-06
4.561333E+03	3.428952E-04	7.830264E-06
4.571315E+03	3.453501E-04	7.865205E-06
4.581296E+03	3.468547E-04	7.878258E-06
4.591277E+03	3.474654E-04	7.870880E-06
4.601258E+03	3.471259E-04	7.841958E-06
4.611239E+03	3.458237E-04	7.791388E-06
4.621220E+03	3.437420E-04	7.723459E-06
4.631201E+03	3.408899E-04	7.638522E-06
4.641182E+03	3.375056E-04	7.542040E-06
4.651163E+03	3.336337E-04	7.435105E-06
4.661144E+03	3.295229E-04	7.323330E-06
4.671125E+03	3.252148E-04	7.207688E-06
4.681106E+03	3.209345E-04	7.093184E-06
4.691087E+03	3.166956E-04	6.980116E-06
4.701068E+03	3.126843E-04	6.872568E-06
4.711049E+03	3.088783E-04	6.770010E-06
4.721030E+03	3.054226E-04	6.675574E-06
4.731011E+03	3.022599E-04	6.587946E-06
4.740992E+03	2.994545E-04	6.508471E-06
4.750973E+03	2.970110E-04	6.437182E-06
4.760954E+03	2.949649E-04	6.374782E-06
4.770935E+03	2.932122E-04	6.318957E-06
4.780916E+03	2.917752E-04	6.270130E-06
4.790897E+03	2.906290E-04	6.227713E-06
4.800878E+03	2.897947E-04	6.192101E-06
4.810859E+03	2.891682E-04	6.161022E-06
4.820840E+03	2.887821E-04	6.135127E-06
4.830821E+03	2.886354E-04	6.114357E-06
4.840802E+03	2.887374E-04	6.098858E-06
4.850784E+03	2.891083E-04	6.089017E-06
4.860765E+03	2.897820E-04	6.085492E-06
4.870746E+03	2.908054E-04	6.089212E-06
4.880727E+03	2.922413E-04	6.101427E-06
4.890708E+03	2.941696E-04	6.123723E-06
4.900689E+03	2.966841E-04	6.157958E-06
4.910670E+03	2.998862E-04	6.206124E-06
4.920651E+03	3.038722E-04	6.270082E-06
4.930632E+03	3.087166E-04	6.351225E-06
4.940613E+03	3.144080E-04	6.449161E-06
4.950594E+03	3.210115E-04	6.565072E-06
4.960575E+03	3.283815E-04	6.695820E-06
4.970556E+03	3.363435E-04	6.837723E-06
4.980537E+03	3.446152E-04	6.984950E-06
4.990518E+03	3.530303E-04	7.134090E-06
5.000499E+03	3.612741E-04	7.278778E-06
5.010480E+03	3.690659E-04	7.413408E-06
5.020461E+03	3.763627E-04	7.537204E-06
5.030442E+03	3.830548E-04	7.648071E-06
5.040423E+03	3.891273E-04	7.745822E-06
5.050404E+03	3.948241E-04	7.835414E-06
5.060385E+03	4.002238E-04	7.918474E-06
5.070366E+03	4.056669E-04	8.001775E-06
5.080347E+03	4.112535E-04	8.087278E-06
5.090328E+03	4.172878E-04	8.180927E-06
5.100309E+03	4.237749E-04	8.282745E-06
5.110290E+03	4.308255E-04	8.394811E-06
5.120271E+03	4.384694E-04	8.517607E-06
5.130253E+03	4.464591E-04	8.646242E-06
5.140234E+03	4.546598E-04	8.778053E-06
5.150215E+03	4.628161E-04	8.908093E-06
5.160196E+03	4.707129E-04	9.032248E-06
5.170177E+03	4.779302E-04	9.142537E-06
5.180158E+03	4.842771E-04	9.235446E-06
5.190139E+03	4.895354E-04	9.306983E-06
5.200120E+03	4.935385E-04	9.354189E-06
5.210101E+03	4.961737E-04	9.375163E-06
5.220082E+03	4.974509E-04	9.370331E-06
5.230063E+03	4.972086E-04	9.336904E-06
5.240044E+03	4.955458E-04	9.277004E-06
5.250025E+03	4.925275E-04	9.192091E-06
5.260006E+03	4.882551E-04	9.084288E-06
5.269987E+03	4.828573E-04	8.956200E-06
5.279968E+03	4.764154E-04	8.809525E-06
5.289949E+03	4.692363E-04	8.650098E-06
5.299930E+03	4.614266E-04	8.480002E-06
5.309911E+03	4.531700E-04	8.302707E-06
5.319892E+03	4.446554E-04	8.121739E-06
5.329873E+03	4.360723E-04	7.940588E-06
5.339854E+03	4.275480E-04	7.761574E-06
5.349835E+03	4.193930E-04	7.590302E-06
5.359816E+03	4.117172E-04	7.428692E-06
5.369797E+03	4.046187E-04	7.278428E-06
5.379778E+03	3.983507E-04	7.143949E-06
5.389759E+03	3.929616E-04	7.025985E-06
5.399740E+03	3.884755E-04	6.924821E-06
5.409722E+03	3.850599E-04	6.843286E-06
5.419703E+03	3.826312E-04	6.779727E-06
5.429684E+03	3.813106E-04	6.736131E-06
5.439665E+03	3.809730E-04	6.710114E-06
5.449646E+03	3.816864E-04	6.702725E-06
5.459627E+03	3.832562E-04	6.710387E-06
5.469608E+03	3.856536E-04	6.732467E-06
5.479589E+03	3.885620E-04	6.763326E-06
5.489570E+03	3.917629E-04	6.799093E-06
5.499551E+03	3.949867E-04	6.835062E-06
5.509532E+03	3.977487E-04	6.862863E-06
5.519513E+03	3.997243E-04	6.876988E-06
5.529494E+03	4.006223E-04	6.872554E-06
5.539475E+03	4.000430E-04	6.842885E-06
5.549456E+03	3.978580E-04	6.786008E-06
5.559437E+03	3.939981E-04	6.700978E-06
5.569418E+03	3.885089E-04	6.588809E-06
5.579399E+03	3.815933E-04	6.453160E-06
5.589380E+03	3.733611E-04	6.296083E-06
5.599361E+03	3.641248E-04	6.123013E-06
5.609342E+03	3.541363E-04	5.938308E-06
5.619323E+03	3.436170E-04	5.745766E-06
5.629304E+03	3.327436E-04	5.548399E-06
5.639285E+03	3.216541E-04	5.348544E-06
5.649266E+03	3.104596E-04	5.148058E-06
5.659247E+03	2.992692E-04	4.948755E-06
5.669228E+03	2.882141E-04	4.752786E-06
5.679210E+03	2.774598E-04	4.562843E-06
5.689191E+03	2.671640E-04	4.381467E-06
5.699172E+03	2.576216E-04	4.213406E-06
5.709153E+03	2.490114E-04	4.061470E-06
5.719134E+03	2.415382E-04	3.928856E-06
5.729115E+03	2.353768E-04	3.818245E-06
5.739096E+03	2.306323E-04	3.731156E-06
5.749077E+03	2.274731E-04	3.670118E-06
5.759058E+03	2.259320E-04	3.635448E-06
5.769039E+03	2.260423E-04	3.627467E-06
5.779020E+03	2.277691E-04	3.645403E-06
5.789001E+03	2.311334E-04	3.689387E-06
5.798982E+03	2.359715E-04	3.756602E-06
5.808963E+03	2.421889E-04	3.845366E-06
5.818944E+03	2.495141E-04	3.951209E-06
5.828925E+03	2.575892E-04	4.068344E-06
5.838906E+03	2.660899E-04	4.191578E-06
5.848887E+03	2.744881E-04	4.312564E-06
5.858868E+03	2.823829E-04	4.425041E-06
5.868849E+03	2.892228E-04	4.520457E-06
5.878830E+03	2.946628E-04	4.593570E-06
5.888811E+03	2.982693E-04	4.637810E-06
5.898792E+03	2.998399E-04	4.650263E-06
5.908773E+03	2.992961E-04	4.629964E-06
5.918754E+03	2.965615E-04	4.575982E-06
5.928735E+03	2.918208E-04	4.491419E-06
5.938716E+03	2.853767E-04	4.381156E-06
5.948697E+03	2.775044E-04	4.249601E-06
5.958679E+03	2.686687E-04	4.104011E-06
5.968660E+03	2.593554E-04	3.951898E-06
5.978641E+03	2.499295E-04	3.798852E-06
5.988622E+03	2.408356E-04	3.651625E-06
5.998603E+03	2.324271E-04	3.515514E-06
6.008584E+03	2.249972E-04	3.394862E-06
6.018565E+03	2.188136E-04	3.293586E-06
6.028546E+03	2.139990E-04	3.213387E-06
6.038527E+03	2.107345E-04	3.156825E-06
6.048508E+03	2.091428E-04	3.125567E-06
6.058489E+03	2.093327E-04	3.121057E-06
6.068470E+03	2.114101E-04	3.144686E-06
6.078451E+03	2.154896E-04	3.197959E-06
6.088432E+03	2.217049E-04	3.282656E-06
6.098413E+03	2.302191E-04	3.400980E-06
6.108394E+03	2.412359E-04	3.555713E-06
6.118375E+03	2.550103E-04	3.750370E-06
6.128356E+03	2.718565E-04	3.989310E-06
6.138337E+03	2.921497E-04	4.277751E-06
6.148318E+03	3.163198E-04	4.621672E-06
6.158299E+03	3.448355E-04	5.027577E-06
6.168280E+03	3.781767E-04	5.502082E-06
6.178261E+03	4.167900E-04	6.051278E-06
6.188242E+03	4.609610E-04	6.678886E-06
6.198223E+03	5.110013E-04	7.388984E-06
6.208204E+03	5.667891E-04	8.179381E-06
6.218185E+03	6.279221E-04	9.043880E-06
6.228166E+03	6.935714E-04	9.970213E-06
6.238148E+03	7.622973E-04	1.093747E-05
6.248129E+03	8.324428E-04	1.192178E-05
6.258110E+03	9.015231E-04	1.288764E-05
6.268091E+03	9.667331E-04	1.379524E-05
6.278072E+03	1.024889E-03	1.459965E-05
6.288053E+03	1.073288E-03	1.526309E-05
6.298034E+03	1.109183E-03	1.574734E-05
6.308015E+03	1.130507E-03	1.602411E-05
6.317996E+03	1.136640E-03	1.608566E-05
6.327977E+03	1.127395E-03	1.593040E-05
6.337958E+03	1.104295E-03	1.558084E-05
6.347939E+03	1.069270E-03	1.506497E-05
6.357920E+03	1.024883E-03	1.441956E-05
6.367901E+03	9.744478E-04	1.369161E-05
6.377882E+03	9.206347E-04	1.291885E-05
6.387863E+03	8.663496E-04	1.214207E-05
6.397844E+03	8.134566E-04	1.138730E-05
6.407825E+03	7.637385E-04	1.067928E-05
6.417806E+03	7.179315E-04	1.002803E-05
6.427787E+03	6.767047E-04	9.442615E-06
6.437768E+03	6.399081E-04	8.920658E-06
6.447749E+03	6.073983E-04	8.459902E-06
6.457730E+03	5.788067E-04	8.054983E-06
6.467711E+03	5.533809E-04	7.695235E-06
6.477692E+03	5.306390E-04	7.373804E-06
6.487673E+03	5.097645E-04	7.079216E-06
6.497654E+03	4.902166E-04	6.803867E-06
6.507635E+03	4.715231E-04	6.541126E-06
6.517617E+03	4.531106E-04	6.282980E-06
6.527598E+03	4.349232E-04	6.028599E-06
6.537579E+03	4.172172E-04	5.781474E-06
6.547560E+03	4.000318E-04	5.542086E-06
6.557541E+03	3.835184E-04	5.312468E-06
6.567522E+03	3.676914E-04	5.092763E-06
6.577503E+03	3.525545E-04	4.882970E-06
6.587484E+03	3.379149E-04	4.680368E-06
6.597465E+03	3.237194E-04	4.484179E-06
6.607446E+03	3.098630E-04	4.292907E-06
6.617427E+03	2.962565E-04	4.105277E-06
6.627408E+03	2.828760E-04	3.920923E-06
6.637389E+03	2.696022E-04	3.738154E-06
6.647370E+03	2.564720E-04	3.557447E-06
6.657351E+03	2.435075E-04	3.379081E-06
6.667332E+03	2.307565E-04	3.203685E-06
6.677313E+03	2.182877E-04	3.032189E-06
6.687294E+03	2.061863E-04	2.865753E-06
6.697275E+03	1.945474E-04	2.705679E-06
6.707256E+03	1.834673E-04	2.553293E-06
6.717237E+03	1.730354E-04	2.409835E-06
6.727218E+03	1.633527E-04	2.276706E-06
6.737199E+03	1.544314E-04	2.154082E-06
6.747180E+03	1.463404E-04	2.042931E-06
6.757161E+03	1.391068E-04	1.943645E-06
6.767142E+03	1.327432E-04	1.856417E-06
6.777123E+03	1.272321E-04	1.781024E-06
6.787105E+03	1.226040E-04	1.717917E-06
6.797086E+03	1.188280E-04	1.666690E-06
6.807067E+03	1.158919E-04	1.627198E-06
6.817048E+03	1.137858E-04	1.599336E-06
6.827029E+03	1.125059E-04	1.583082E-06
6.837010E+03	1.120572E-04	1.578542E-06
6.846991E+03	1.124556E-04	1.585976E-06
6.856972E+03	1.137285E-04	1.605811E-06
6.866953E+03	1.159151E-04	1.638645E-06
6.876934E+03	1.190481E-04	1.684988E-06
6.886915E+03	1.232201E-04	1.746202E-06
6.896896E+03	1.284784E-04	1.823014E-06
6.906877E+03	1.348880E-04	1.916410E-06
6.916858E+03	1.425099E-04	2.027323E-06
6.926839E+03	1.513729E-04	2.156235E-06
6.936820E+03	1.615527E-04	2.304301E-06
6.946801E+03	1.730372E-04	2.471427E-06
6.956782E+03	1.858046E-04	2.657381E-06
6.966763E+03	1.997700E-04	2.861030E-06
6.976744E+03	2.149004E-04	3.081978E-06
6.986725E+03	2.310541E-04	3.318264E-06
6.996706E+03	2.481007E-04	3.568080E-06
7.006687E+03	2.658670E-04	3.828996E-06
7.016668E+03	2.843015E-04	4.100313E-06
7.026649E+03	3.032615E-04	4.380021E-06
7.036630E+03	3.226243E-04	4.666383E-06
7.046611E+03	3.424449E-04	4.960224E-06
7.056592E+03	3.626381E-04	5.260343E-06
7.066574E+03	3.833722E-04	5.569213E-06
7.076555E+03	4.047221E-04	5.887960E-06
7.086536E+03	4.268116E-04	6.218431E-06
7.096517E+03	4.500134E-04	6.566116E-06
7.106498E+03	4.745134E-04	6.933806E-06
7.116479E+03	5.008226E-04	7.329065E-06
7.126460E+03	5.292322E-04	7.756283E-06
7.136441E+03	5.603717E-04	8.224836E-06
7.146422E+03	5.945854E-04	8.739970E-06
7.156403E+03	6.325353E-04	9.311633E-06
7.166384E+03	6.744696E-04	9.943734E-06
7.176365E+03	7.208759E-04	1.064374E-05
7.186346E+03	7.716396E-04	1.141025E-05
7.196327E+03	8.267813E-04	1.224387E-05
7.206308E+03	8.854966E-04	1.313295E-05
7.216289E+03	9.470192E-04	1.406637E-05
7.226270E+03	1.009572E-03	1.501787E-05
7.236251E+03	1.071272E-03	1.595948E-05
7.246232E+03	1.129823E-03	1.685688E-05
7.256213E+03	1.182115E-03	1.766342E-05
7.266194E+03	1.225406E-03	1.833763E-05
7.276175E+03	1.257131E-03	1.884047E-05
7.286156E+03	1.274638E-03	1.913137E-05
7.296137E+03	1.276565E-03	1.918892E-05
7.306118E+03	1.262504E-03	1.900591E-05
7.316099E+03	1.232520E-03	1.858224E-05
7.326080E+03	1.188220E-03	1.794113E-05
7.336061E+03	1.132000E-03	1.711781E-05
7.346043E+03	1.066281E-03	1.614814E-05
7.356024E+03	9.942411E-04	1.507969E-05
7.366005E+03	9.188340E-04	1.395687E-05
7.375986E+03	8.427285E-04	1.282004E-05
7.385967E+03	7.682717E-04	1.170491E-05
7.395948E+03	6.969548E-04	1.063433E-05
7.405929E+03	6.301215E-04	9.629044E-06
7.415910E+03	5.685278E-04	8.700918E-06
7.425891E+03	5.125472E-04	7.856026E-06
7.435872E+03	4.622532E-04	7.095879E-06
7.445853E+03	4.175663E-04	6.419637E-06
7.455834E+03	3.780751E-04	5.821349E-06
7.465815E+03	3.434833E-04	5.296802E-06
7.475796E+03	3.133881E-04	4.840109E-06
7.485777E+03	2.873786E-04	4.445227E-06
7.495758E+03	2.650556E-04	4.106256E-06
7.505739E+03	2.460452E-04	3.817651E-06
7.515720E+03	2.300059E-04	3.574338E-06
7.525701E+03	2.166328E-04	3.371780E-06
7.535682E+03	2.056581E-04	3.205994E-06
7.545663E+03	1.968500E-04	3.073532E-06
7.555644E+03	1.900098E-04	2.971445E-06
7.565625E+03	1.849689E-04	2.897237E-06
7.575606E+03	1.815851E-04	2.848811E-06
7.585587E+03	1.797388E-04	2.824412E-06
7.595568E+03	1.793280E-04	2.822552E-06
7.605549E+03	1.802623E-04	2.841918E-06
7.615530E+03	1.824566E-04	2.881276E-06
7.625512E+03	1.857964E-04	2.938913E-06
7.635493E+03	1.902396E-04	3.014259E-06
7.645474E+03	1.956467E-04	3.105196E-06
7.655455E+03	2.018823E-04	3.209653E-06
7.665436E+03	2.087815E-04	3.325081E-06
7.675417E+03	2.161457E-04	3.448375E-06
7.685398E+03	2.237070E-04	3.575301E-06
7.695379E+03	2.312607E-04	3.702610E-06
7.705360E+03	2.384755E-04	3.824997E-06
7.715341E+03	2.450324E-04	3.937320E-06
7.725322E+03	2.506083E-04	4.034327E-06
7.735303E+03	2.548575E-04	4.110371E-06
7.745284E+03	2.575891E-04	4.162252E-06
