#wls	flux	fluxerr
1.596966E+03	4.119016E-06	1.320834E-07
1.636890E+03	4.182436E-06	1.338115E-07
1.676814E+03	4.222125E-06	1.347663E-07
1.716738E+03	4.236265E-06	1.348947E-07
1.756662E+03	4.223720E-06	1.341665E-07
1.796586E+03	4.176984E-06	1.323500E-07
1.836511E+03	4.090353E-06	1.292731E-07
1.876435E+03	3.955844E-06	1.246944E-07
1.916359E+03	3.768380E-06	1.184666E-07
1.956283E+03	3.529156E-06	1.106415E-07
1.996207E+03	3.252123E-06	1.016699E-07
2.036131E+03	2.966811E-06	9.248367E-08
2.076055E+03	2.721238E-06	8.457900E-08
2.115980E+03	2.566323E-06	7.952401E-08
2.155904E+03	2.541418E-06	7.850981E-08
2.195828E+03	2.660883E-06	8.194142E-08
2.235752E+03	2.917144E-06	8.954346E-08
2.275676E+03	3.284867E-06	1.004986E-07
2.315600E+03	3.732810E-06	1.138181E-07
2.355525E+03	4.233117E-06	1.286280E-07
2.395449E+03	4.764426E-06	1.442619E-07
2.435373E+03	5.314719E-06	1.603438E-07
2.475297E+03	5.879308E-06	1.767232E-07
2.515221E+03	6.459819E-06	1.934403E-07
2.555145E+03	7.057964E-06	2.105370E-07
2.595069E+03	7.681966E-06	2.282476E-07
2.634994E+03	8.337834E-06	2.467366E-07
2.674918E+03	9.035040E-06	2.662673E-07
2.714842E+03	9.780789E-06	2.870313E-07
2.754766E+03	1.058231E-05	3.092168E-07
2.794690E+03	1.145459E-05	3.332330E-07
2.834614E+03	1.240227E-05	3.591814E-07
2.874538E+03	1.344013E-05	3.874515E-07
2.914463E+03	1.457508E-05	4.181989E-07
2.954387E+03	1.582392E-05	4.518557E-07
2.994311E+03	1.720005E-05	4.887470E-07
3.004292E+03	1.756443E-05	4.984808E-07
3.014273E+03	1.793762E-05	5.084363E-07
3.024254E+03	1.831991E-05	5.186201E-07
3.034235E+03	1.871203E-05	5.290521E-07
3.044216E+03	1.911639E-05	5.397988E-07
3.054197E+03	1.953878E-05	5.510223E-07
3.064178E+03	1.997249E-05	5.625311E-07
3.074159E+03	2.042054E-05	5.744090E-07
3.084140E+03	2.088276E-05	5.866496E-07
3.094121E+03	2.135904E-05	5.992480E-07
3.104102E+03	2.185294E-05	6.123019E-07
3.114083E+03	2.235710E-05	6.256035E-07
3.124064E+03	2.287505E-05	6.392497E-07
3.134045E+03	2.340673E-05	6.532376E-07
3.144026E+03	2.395617E-05	6.676774E-07
3.154007E+03	2.451541E-05	6.823457E-07
3.163988E+03	2.508840E-05	6.973503E-07
3.173969E+03	2.567518E-05	7.126912E-07
3.183950E+03	2.628021E-05	7.284897E-07
3.193932E+03	2.689489E-05	7.445057E-07
3.203913E+03	2.752360E-05	7.608588E-07
3.213894E+03	2.817119E-05	7.776809E-07
3.223875E+03	2.882846E-05	7.947162E-07
3.233856E+03	2.950020E-05	8.120950E-07
3.243837E+03	3.019164E-05	8.299592E-07
3.253818E+03	3.089300E-05	8.480375E-07
3.263799E+03	3.161469E-05	8.666141E-07
3.273780E+03	3.234655E-05	8.854081E-07
3.283761E+03	3.309399E-05	9.045659E-07
3.293742E+03	3.386295E-05	9.242474E-07
3.303723E+03	3.464257E-05	9.441536E-07
3.313704E+03	3.544461E-05	9.646030E-07
3.323685E+03	3.625777E-05	9.852858E-07
3.333666E+03	3.709432E-05	1.006533E-06
3.343647E+03	3.794249E-05	1.028023E-06
3.353628E+03	3.881519E-05	1.050102E-06
3.363609E+03	3.970012E-05	1.072436E-06
3.373590E+03	4.061080E-05	1.095388E-06
3.383571E+03	4.153441E-05	1.118607E-06
3.393552E+03	4.248507E-05	1.142472E-06
3.403533E+03	4.344945E-05	1.166622E-06
3.413514E+03	4.444237E-05	1.191452E-06
3.423495E+03	4.544987E-05	1.216584E-06
3.433476E+03	4.648745E-05	1.242430E-06
3.443457E+03	4.754063E-05	1.268599E-06
3.453438E+03	4.862557E-05	1.295520E-06
3.463420E+03	4.972718E-05	1.322787E-06
3.473401E+03	5.086238E-05	1.350847E-06
3.483382E+03	5.202396E-05	1.379504E-06
3.493363E+03	5.320397E-05	1.408543E-06
3.503344E+03	5.442058E-05	1.438442E-06
3.513325E+03	5.565689E-05	1.468751E-06
3.523306E+03	5.693191E-05	1.499965E-06
3.533287E+03	5.823758E-05	1.531870E-06
3.543268E+03	5.956511E-05	1.564228E-06
3.553249E+03	6.093473E-05	1.597567E-06
3.563230E+03	6.232765E-05	1.631389E-06
3.573211E+03	6.376506E-05	1.666245E-06
3.583192E+03	6.523798E-05	1.701894E-06
3.593173E+03	6.673648E-05	1.738072E-06
3.603154E+03	6.828318E-05	1.775362E-06
3.613135E+03	6.986842E-05	1.813509E-06
3.623116E+03	7.148156E-05	1.852229E-06
3.633097E+03	7.314666E-05	1.892142E-06
3.643078E+03	7.484113E-05	1.932655E-06
3.653059E+03	7.659003E-05	1.974412E-06
3.663040E+03	7.838243E-05	2.017123E-06
3.673021E+03	8.020617E-05	2.060468E-06
3.683002E+03	8.208794E-05	2.105127E-06
3.692983E+03	8.401581E-05	2.150787E-06
3.702964E+03	8.597658E-05	2.197103E-06
3.712945E+03	8.799857E-05	2.244793E-06
3.722926E+03	9.006876E-05	2.293516E-06
3.732907E+03	9.217272E-05	2.342898E-06
3.742889E+03	9.434049E-05	2.393695E-06
3.752870E+03	9.655775E-05	2.445536E-06
3.762851E+03	9.880875E-05	2.498014E-06
3.772832E+03	1.011252E-04	2.551926E-06
3.782813E+03	1.034914E-04	2.606865E-06
3.792794E+03	1.058902E-04	2.662391E-06
3.802775E+03	1.083549E-04	2.719338E-06
3.812756E+03	1.108684E-04	2.777265E-06
3.822737E+03	1.134117E-04	2.835690E-06
3.832718E+03	1.160202E-04	2.895492E-06
3.842699E+03	1.186751E-04	2.956190E-06
3.852680E+03	1.213556E-04	3.017264E-06
3.862661E+03	1.240992E-04	3.079635E-06
3.872642E+03	1.268852E-04	3.142786E-06
3.882623E+03	1.296912E-04	3.206154E-06
3.892604E+03	4.528272E-05	1.117307E-06
3.894600E+03	4.838732E-05	1.193451E-06
3.896596E+03	5.308126E-05	1.308721E-06
3.898593E+03	5.768267E-05	1.421620E-06
3.900589E+03	6.205668E-05	1.528830E-06
3.902585E+03	6.646324E-05	1.636758E-06
3.904581E+03	7.076329E-05	1.741980E-06
3.906578E+03	7.514200E-05	1.849055E-06
3.908574E+03	7.975406E-05	1.961786E-06
3.910570E+03	8.436307E-05	2.074354E-06
3.912566E+03	9.073969E-05	2.230280E-06
3.914562E+03	9.713178E-05	2.386464E-06
3.916559E+03	1.026905E-04	2.522059E-06
3.918555E+03	1.080826E-04	2.653456E-06
3.920551E+03	1.123916E-04	2.758167E-06
3.922547E+03	1.181005E-04	2.897141E-06
3.924543E+03	1.233513E-04	3.024770E-06
3.926540E+03	1.279120E-04	3.135380E-06
3.928536E+03	1.335486E-04	3.272267E-06
3.930532E+03	1.394301E-04	3.415045E-06
3.932528E+03	1.433334E-04	3.509275E-06
3.934524E+03	1.476780E-04	3.614229E-06
3.936521E+03	1.522410E-04	3.724442E-06
3.938517E+03	1.566530E-04	3.830875E-06
3.940513E+03	1.612149E-04	3.940887E-06
3.942509E+03	1.644729E-04	4.018951E-06
3.944505E+03	1.684222E-04	4.113836E-06
3.946502E+03	1.716860E-04	4.191907E-06
3.948498E+03	1.746080E-04	4.261573E-06
3.950494E+03	1.778599E-04	4.339229E-06
3.952490E+03	1.809162E-04	4.412054E-06
3.954486E+03	1.835698E-04	4.475001E-06
3.956483E+03	1.851127E-04	4.510830E-06
3.958479E+03	1.873128E-04	4.562638E-06
3.960475E+03	1.896098E-04	4.616761E-06
3.962471E+03	1.895677E-04	4.613910E-06
3.964468E+03	1.885145E-04	4.586457E-06
3.966464E+03	1.890772E-04	4.598322E-06
3.968460E+03	1.894934E-04	4.606614E-06
3.970456E+03	1.893388E-04	4.601028E-06
3.972452E+03	1.882665E-04	4.573152E-06
3.974449E+03	1.866738E-04	4.532660E-06
3.976445E+03	1.856776E-04	4.506674E-06
3.978441E+03	1.850879E-04	4.490571E-06
3.980437E+03	1.844977E-04	4.474466E-06
3.982433E+03	1.824151E-04	4.422192E-06
3.984430E+03	1.809382E-04	4.384635E-06
3.986426E+03	1.797292E-04	4.353596E-06
3.988422E+03	1.788058E-04	4.329495E-06
3.990418E+03	1.781250E-04	4.311282E-06
3.992414E+03	1.769828E-04	4.281921E-06
3.994411E+03	1.761094E-04	4.259079E-06
3.996407E+03	1.751482E-04	4.234132E-06
3.998403E+03	1.743951E-04	4.214232E-06
4.000399E+03	1.732495E-04	4.184866E-06
4.002395E+03	1.719897E-04	4.152764E-06
4.004392E+03	1.711995E-04	4.132018E-06
4.006388E+03	1.708969E-04	4.123051E-06
4.008384E+03	1.710039E-04	4.123969E-06
4.010380E+03	1.708754E-04	4.119206E-06
4.012376E+03	1.710349E-04	4.121385E-06
4.014373E+03	1.712470E-04	4.124825E-06
4.016369E+03	1.723940E-04	4.150774E-06
4.018365E+03	1.730963E-04	4.165994E-06
4.020361E+03	1.727323E-04	4.155550E-06
4.022358E+03	1.718695E-04	4.133113E-06
4.024354E+03	1.723449E-04	4.142863E-06
4.026350E+03	1.726981E-04	4.149666E-06
4.028346E+03	1.719918E-04	4.131014E-06
4.030342E+03	1.718982E-04	4.127086E-06
4.032339E+03	1.725060E-04	4.139989E-06
4.034335E+03	1.728423E-04	4.146370E-06
4.036331E+03	1.729683E-04	4.147700E-06
4.038327E+03	1.727434E-04	4.140614E-06
4.040323E+03	1.720616E-04	4.122586E-06
4.042320E+03	1.720908E-04	4.121600E-06
4.044316E+03	1.729373E-04	4.140180E-06
4.046312E+03	1.729669E-04	4.139192E-06
4.048308E+03	1.723632E-04	4.123053E-06
4.050304E+03	1.720317E-04	4.113436E-06
4.052301E+03	1.713654E-04	4.095822E-06
4.054297E+03	1.709452E-04	4.084098E-06
4.056293E+03	1.715819E-04	4.097624E-06
4.058289E+03	1.726951E-04	4.122512E-06
4.060285E+03	1.730685E-04	4.129724E-06
4.062282E+03	1.719424E-04	4.101161E-06
4.064278E+03	1.705240E-04	4.065652E-06
4.066274E+03	1.689984E-04	4.027615E-06
4.068270E+03	1.680104E-04	4.002414E-06
4.070266E+03	1.672778E-04	3.983314E-06
4.072263E+03	1.662969E-04	3.958319E-06
4.074259E+03	1.667040E-04	3.966364E-06
4.076255E+03	1.670759E-04	3.973565E-06
4.078251E+03	1.665451E-04	3.959300E-06
4.080248E+03	1.651371E-04	3.924197E-06
4.082244E+03	1.647291E-04	3.912874E-06
4.084240E+03	1.644004E-04	3.903444E-06
4.086236E+03	1.632911E-04	3.875492E-06
4.088232E+03	1.624824E-04	3.854693E-06
4.090229E+03	1.621434E-04	3.845048E-06
4.092225E+03	1.627808E-04	3.858554E-06
4.094221E+03	1.632233E-04	3.867427E-06
4.096217E+03	1.634884E-04	3.872090E-06
4.098213E+03	1.633714E-04	3.867701E-06
4.100210E+03	1.636367E-04	3.872361E-06
4.102206E+03	1.637687E-04	3.873863E-06
4.104202E+03	1.634913E-04	3.865681E-06
4.106198E+03	1.641843E-04	3.880440E-06
4.108194E+03	1.640849E-04	3.876465E-06
4.110191E+03	1.631655E-04	3.853123E-06
4.112187E+03	1.637878E-04	3.866194E-06
4.114183E+03	1.657041E-04	3.909784E-06
4.116179E+03	1.658995E-04	3.912748E-06
4.118175E+03	1.651219E-04	3.892768E-06
4.120172E+03	1.644954E-04	3.876364E-06
4.122168E+03	1.643420E-04	3.871114E-06
4.124164E+03	1.647158E-04	3.878281E-06
4.126160E+03	1.650362E-04	3.884184E-06
4.128157E+03	1.653658E-04	3.890296E-06
4.130153E+03	1.647378E-04	3.873883E-06
4.132149E+03	1.643958E-04	3.864204E-06
4.134145E+03	1.641699E-04	3.857260E-06
4.136141E+03	1.634688E-04	3.839157E-06
4.138138E+03	1.630270E-04	3.827157E-06
4.140134E+03	1.629885E-04	3.824628E-06
4.142130E+03	1.623396E-04	3.807782E-06
4.144126E+03	1.619235E-04	3.796408E-06
4.146122E+03	1.622435E-04	3.802292E-06
4.148119E+03	1.614945E-04	3.783126E-06
4.150115E+03	1.601245E-04	3.749434E-06
4.152111E+03	1.602911E-04	3.751735E-06
4.154107E+03	1.613574E-04	3.775081E-06
4.156103E+03	1.614345E-04	3.775272E-06
4.158100E+03	1.613226E-04	3.771041E-06
4.160096E+03	1.619851E-04	3.784909E-06
4.162092E+03	1.625580E-04	3.796670E-06
4.164088E+03	1.630683E-04	3.806955E-06
4.166084E+03	1.622891E-04	3.787139E-06
4.168081E+03	1.612113E-04	3.760376E-06
4.170077E+03	1.609631E-04	3.752975E-06
4.172073E+03	1.616900E-04	3.768303E-06
4.174069E+03	1.616675E-04	3.766158E-06
4.176065E+03	1.612382E-04	3.754541E-06
4.178062E+03	1.616584E-04	3.762706E-06
4.180058E+03	1.618618E-04	3.765817E-06
4.182054E+03	1.618933E-04	3.764926E-06
4.184050E+03	1.622417E-04	3.771399E-06
4.186047E+03	1.632424E-04	3.793022E-06
4.188043E+03	1.638089E-04	3.804541E-06
4.190039E+03	1.652913E-04	3.837311E-06
4.192035E+03	1.666843E-04	3.867974E-06
4.194031E+03	1.675067E-04	3.885376E-06
4.196028E+03	1.685112E-04	3.906983E-06
4.198024E+03	1.692350E-04	3.922063E-06
4.200020E+03	1.712401E-04	3.966810E-06
4.202016E+03	1.735649E-04	4.018917E-06
4.204012E+03	1.757461E-04	4.067654E-06
4.206009E+03	1.778925E-04	4.115543E-06
4.208005E+03	1.783573E-04	4.124501E-06
4.210001E+03	1.796508E-04	4.152603E-06
4.211997E+03	1.819378E-04	4.203634E-06
4.213993E+03	1.839259E-04	4.247717E-06
4.215990E+03	1.856057E-04	4.284641E-06
4.217986E+03	1.876880E-04	4.330817E-06
4.219982E+03	1.894799E-04	4.370255E-06
4.221978E+03	1.912915E-04	4.410108E-06
4.223974E+03	1.928123E-04	4.443224E-06
4.225971E+03	1.935488E-04	4.458244E-06
4.227967E+03	1.934909E-04	4.454957E-06
4.229963E+03	1.929850E-04	4.441360E-06
4.231959E+03	1.919665E-04	4.415982E-06
4.233955E+03	1.914409E-04	4.401959E-06
4.235952E+03	1.910338E-04	4.390668E-06
4.237948E+03	1.903608E-04	4.373274E-06
4.239944E+03	1.897145E-04	4.356510E-06
4.241940E+03	1.881513E-04	4.318712E-06
4.243937E+03	1.862476E-04	4.273131E-06
4.245933E+03	1.849016E-04	4.240378E-06
4.247929E+03	1.840313E-04	4.218559E-06
4.249925E+03	1.829217E-04	4.191271E-06
4.251921E+03	1.823526E-04	4.176387E-06
4.253918E+03	1.825637E-04	4.179373E-06
4.255914E+03	1.827197E-04	4.181093E-06
4.257910E+03	1.827837E-04	4.180707E-06
4.259906E+03	1.836477E-04	4.198608E-06
4.261902E+03	1.831692E-04	4.185811E-06
4.263899E+03	1.828373E-04	4.176374E-06
4.265895E+03	1.825879E-04	4.168825E-06
4.267891E+03	1.834250E-04	4.186078E-06
4.269887E+03	1.844469E-04	4.207528E-06
4.271883E+03	1.858381E-04	4.237380E-06
4.273880E+03	1.866033E-04	4.252933E-06
4.275876E+03	1.871936E-04	4.264488E-06
4.277872E+03	1.903221E-04	4.333827E-06
4.279868E+03	1.924374E-04	4.380040E-06
4.281864E+03	1.935937E-04	4.404391E-06
4.283861E+03	1.951572E-04	4.437981E-06
4.285857E+03	1.978772E-04	4.497824E-06
4.287853E+03	1.997022E-04	4.537278E-06
4.289849E+03	2.018707E-04	4.584495E-06
4.291845E+03	2.055862E-04	4.666784E-06
4.293842E+03	2.086101E-04	4.733304E-06
4.295838E+03	2.103673E-04	4.771036E-06
4.297834E+03	2.128298E-04	4.824720E-06
4.299830E+03	2.162951E-04	4.901074E-06
4.301827E+03	2.200039E-04	4.982874E-06
4.303823E+03	2.231402E-04	5.051639E-06
4.305819E+03	2.258520E-04	5.110730E-06
4.307815E+03	2.287977E-04	5.175057E-06
4.309811E+03	2.308446E-04	5.219006E-06
4.311808E+03	2.328186E-04	5.261264E-06
4.313804E+03	2.345058E-04	5.297002E-06
4.315800E+03	2.358501E-04	5.324963E-06
4.317796E+03	2.377904E-04	5.366347E-06
4.319792E+03	2.390992E-04	5.393447E-06
4.321789E+03	2.400553E-04	5.412566E-06
4.323785E+03	2.408720E-04	5.428525E-06
4.325781E+03	2.415402E-04	5.441122E-06
4.327777E+03	2.428423E-04	5.467976E-06
4.329773E+03	2.437628E-04	5.486217E-06
4.331770E+03	2.442921E-04	5.495635E-06
4.333766E+03	2.443180E-04	5.493725E-06
4.335762E+03	2.437649E-04	5.478800E-06
4.337758E+03	2.432394E-04	5.464506E-06
4.339754E+03	2.423116E-04	5.441188E-06
4.341751E+03	2.414760E-04	5.419960E-06
4.343747E+03	2.407613E-04	5.401459E-06
4.345743E+03	2.403262E-04	5.389242E-06
4.347739E+03	2.403769E-04	5.387924E-06
4.349736E+03	2.400532E-04	5.378217E-06
4.351732E+03	2.400940E-04	5.376677E-06
4.353728E+03	2.400596E-04	5.373452E-06
4.355724E+03	2.401000E-04	5.371903E-06
4.357720E+03	2.408990E-04	5.387317E-06
4.359717E+03	2.418951E-04	5.407118E-06
4.361713E+03	2.426479E-04	5.421465E-06
4.363709E+03	2.433165E-04	5.433915E-06
4.365705E+03	2.443702E-04	5.454946E-06
4.367701E+03	2.453021E-04	5.473240E-06
4.369698E+03	2.462440E-04	5.491737E-06
4.371694E+03	2.468104E-04	5.501844E-06
4.373690E+03	2.472078E-04	5.508171E-06
4.375686E+03	2.473797E-04	5.509470E-06
4.377682E+03	2.473164E-04	5.505529E-06
4.379679E+03	2.473655E-04	5.504088E-06
4.381675E+03	2.478473E-04	5.512272E-06
4.383671E+03	2.475949E-04	5.504123E-06
4.385667E+03	2.473233E-04	5.495552E-06
4.387663E+03	2.474939E-04	5.496808E-06
4.389660E+03	2.469292E-04	5.481736E-06
4.391656E+03	2.466751E-04	5.473568E-06
4.393652E+03	2.469201E-04	5.476472E-06
4.395648E+03	2.468726E-04	5.472890E-06
4.397644E+03	2.468815E-04	5.470557E-06
4.399641E+03	2.471259E-04	5.473440E-06
4.401637E+03	2.474079E-04	5.477150E-06
4.403633E+03	2.474538E-04	5.475629E-06
4.405629E+03	2.475940E-04	5.476192E-06
4.407626E+03	2.473463E-04	5.468177E-06
4.409622E+03	2.472306E-04	5.463085E-06
4.411618E+03	2.482305E-04	5.482634E-06
4.413614E+03	2.487577E-04	5.491725E-06
4.415610E+03	2.498811E-04	5.513964E-06
4.417607E+03	2.504748E-04	5.524496E-06
4.419603E+03	2.511161E-04	5.536063E-06
4.421599E+03	2.520509E-04	5.554086E-06
4.423595E+03	2.537252E-04	5.588377E-06
4.425591E+03	2.559408E-04	5.634550E-06
4.427588E+03	2.555023E-04	5.622273E-06
4.429584E+03	2.555564E-04	5.620841E-06
4.431580E+03	2.563027E-04	5.634625E-06
4.433576E+03	2.567645E-04	5.642142E-06
4.435572E+03	2.563528E-04	5.630464E-06
4.437569E+03	2.571279E-04	5.644846E-06
4.439565E+03	2.577982E-04	5.656916E-06
4.441561E+03	2.571668E-04	5.640421E-06
4.443557E+03	2.574095E-04	5.643100E-06
4.445553E+03	2.576991E-04	5.646803E-06
4.447550E+03	2.579698E-04	5.650084E-06
4.449546E+03	2.581451E-04	5.651273E-06
4.451542E+03	2.582536E-04	5.650996E-06
4.453538E+03	2.584093E-04	5.651748E-06
4.455534E+03	2.587362E-04	5.656240E-06
4.457531E+03	2.589390E-04	5.658015E-06
4.459527E+03	2.587509E-04	5.651245E-06
4.461523E+03	2.579999E-04	5.632193E-06
4.463519E+03	2.578679E-04	5.626661E-06
4.465516E+03	2.587563E-04	5.643388E-06
4.467512E+03	2.585092E-04	5.635343E-06
4.469508E+03	2.586051E-04	5.634774E-06
4.471504E+03	2.592737E-04	5.646679E-06
4.473500E+03	2.596367E-04	5.651915E-06
4.475497E+03	2.591396E-04	5.638431E-06
4.477493E+03	2.588044E-04	5.628478E-06
4.479489E+03	2.583731E-04	5.616443E-06
4.481485E+03	2.569562E-04	5.583002E-06
4.483481E+03	2.558347E-04	5.556003E-06
4.485478E+03	2.546931E-04	5.528593E-06
4.487474E+03	2.546797E-04	5.525684E-06
4.489470E+03	2.543691E-04	5.516330E-06
4.491466E+03	2.538184E-04	5.501776E-06
4.493462E+03	2.545986E-04	5.516069E-06
4.495459E+03	2.551104E-04	5.524536E-06
4.497455E+03	2.563410E-04	5.548548E-06
4.499451E+03	2.588470E-04	5.600128E-06
4.501447E+03	2.618523E-04	5.662454E-06
4.503443E+03	2.655687E-04	5.740090E-06
4.505440E+03	2.695169E-04	5.822654E-06
4.507436E+03	2.734191E-04	5.904144E-06
4.509432E+03	2.770156E-04	5.978956E-06
4.511428E+03	2.814780E-04	6.072374E-06
4.513424E+03	2.859423E-04	6.165742E-06
4.515421E+03	2.894575E-04	6.238560E-06
4.517417E+03	2.933392E-04	6.319203E-06
4.519413E+03	2.986644E-04	6.430848E-06
4.521409E+03	3.039246E-04	6.540983E-06
4.523406E+03	3.090909E-04	6.648989E-06
4.525402E+03	3.134225E-04	6.738941E-06
4.527398E+03	3.180639E-04	6.835464E-06
4.529394E+03	3.224859E-04	6.927176E-06
4.531390E+03	3.269482E-04	7.019664E-06
4.533387E+03	3.314796E-04	7.113541E-06
4.535383E+03	3.357047E-04	7.200755E-06
4.537379E+03	3.399697E-04	7.288739E-06
4.539375E+03	3.442175E-04	7.376264E-06
4.541371E+03	3.480811E-04	7.455474E-06
4.543368E+03	3.516570E-04	7.528444E-06
4.545364E+03	3.559477E-04	7.616636E-06
4.547360E+03	3.593815E-04	7.686412E-06
4.549356E+03	3.618613E-04	7.735722E-06
4.551352E+03	3.649207E-04	7.797366E-06
4.553349E+03	3.685122E-04	7.870310E-06
4.555345E+03	3.713709E-04	7.927538E-06
4.557341E+03	3.745780E-04	7.992141E-06
4.559337E+03	3.771198E-04	8.042489E-06
4.561333E+03	3.792179E-04	8.083325E-06
4.563330E+03	3.810843E-04	8.119184E-06
4.565326E+03	3.828738E-04	8.153364E-06
4.567322E+03	3.841316E-04	8.176193E-06
4.569318E+03	3.852638E-04	8.196321E-06
4.571315E+03	3.856705E-04	8.200998E-06
4.573311E+03	3.858448E-04	8.200729E-06
4.575307E+03	3.862605E-04	8.205584E-06
4.577303E+03	3.861433E-04	8.199113E-06
4.579299E+03	3.850187E-04	8.171266E-06
4.581296E+03	3.837478E-04	8.140338E-06
4.583292E+03	3.817302E-04	8.093603E-06
4.585288E+03	3.797885E-04	8.048520E-06
4.587284E+03	3.787563E-04	8.022740E-06
4.589280E+03	3.770154E-04	7.981979E-06
4.591277E+03	3.755935E-04	7.948001E-06
4.593273E+03	3.740346E-04	7.911156E-06
4.595269E+03	3.723193E-04	7.871038E-06
4.597265E+03	3.704669E-04	7.828056E-06
4.599261E+03	3.685454E-04	7.783655E-06
4.601258E+03	3.663604E-04	7.733729E-06
4.603254E+03	3.641741E-04	7.683821E-06
4.605250E+03	3.621902E-04	7.638228E-06
4.607246E+03	3.604285E-04	7.597358E-06
4.609242E+03	3.593841E-04	7.571635E-06
4.611239E+03	3.586401E-04	7.552262E-06
4.613235E+03	3.572929E-04	7.520206E-06
4.615231E+03	3.552060E-04	7.472616E-06
4.617227E+03	3.539244E-04	7.442005E-06
4.619223E+03	3.523116E-04	7.404457E-06
4.621220E+03	3.494236E-04	7.340155E-06
4.623216E+03	3.462035E-04	7.268941E-06
4.625212E+03	3.437208E-04	7.213267E-06
4.627208E+03	3.398553E-04	7.128638E-06
4.629205E+03	3.355207E-04	7.034256E-06
4.631201E+03	3.326440E-04	6.970512E-06
4.633197E+03	3.291040E-04	6.892935E-06
4.635193E+03	3.252698E-04	6.809273E-06
4.637189E+03	3.210347E-04	6.717301E-06
4.639186E+03	3.176547E-04	6.643301E-06
4.641182E+03	3.146139E-04	6.576459E-06
4.643178E+03	3.110652E-04	6.499067E-06
4.645174E+03	3.086059E-04	6.444501E-06
4.647170E+03	3.063210E-04	6.393624E-06
4.649167E+03	3.037423E-04	6.336664E-06
4.651163E+03	3.018548E-04	6.294171E-06
4.653159E+03	2.995566E-04	6.243156E-06
4.655155E+03	2.971399E-04	6.189722E-06
4.657151E+03	2.950342E-04	6.142812E-06
4.659148E+03	2.936789E-04	6.111561E-06
4.661144E+03	2.917566E-04	6.068545E-06
4.663140E+03	2.898334E-04	6.025550E-06
