#wls	flux	fluxerr
1.596966E+03	2.301254E-06	1.411943E-07
1.636890E+03	2.350573E-06	1.438848E-07
1.676814E+03	2.386662E-06	1.457446E-07
1.716738E+03	2.408612E-06	1.467234E-07
1.756662E+03	2.415026E-06	1.467423E-07
1.796586E+03	2.402112E-06	1.455784E-07
1.836511E+03	2.365309E-06	1.429651E-07
1.876435E+03	2.299951E-06	1.386332E-07
1.916359E+03	2.202555E-06	1.323879E-07
1.956283E+03	2.073290E-06	1.242570E-07
1.996207E+03	1.919572E-06	1.147016E-07
2.036131E+03	1.759310E-06	1.048035E-07
2.076055E+03	1.620427E-06	9.622650E-08
2.115980E+03	1.534043E-06	9.080232E-08
2.155904E+03	1.524135E-06	8.991626E-08
2.195828E+03	1.600600E-06	9.410523E-08
2.235752E+03	1.758900E-06	1.030499E-07
2.275676E+03	1.984258E-06	1.158347E-07
2.315600E+03	2.258091E-06	1.313330E-07
2.355525E+03	2.561924E-06	1.484385E-07
2.395449E+03	2.882871E-06	1.663830E-07
2.435373E+03	3.212864E-06	1.846859E-07
2.475297E+03	3.548817E-06	2.031590E-07
2.515221E+03	3.888873E-06	2.216865E-07
2.555145E+03	4.234908E-06	2.403662E-07
2.595069E+03	4.590185E-06	2.593721E-07
2.634994E+03	4.956204E-06	2.787755E-07
2.674918E+03	5.337158E-06	2.987963E-07
2.714842E+03	5.737731E-06	3.196769E-07
2.754766E+03	6.159746E-06	3.414952E-07
2.794690E+03	6.609311E-06	3.645628E-07
2.834614E+03	7.088273E-06	3.889498E-07
2.874538E+03	7.603449E-06	4.149939E-07
2.914463E+03	8.156806E-06	4.427606E-07
2.954387E+03	8.756090E-06	4.726234E-07
2.994311E+03	9.403534E-06	5.046491E-07
3.004292E+03	9.575089E-06	5.131031E-07
3.014273E+03	9.748491E-06	5.216251E-07
3.024254E+03	9.927297E-06	5.304048E-07
3.034235E+03	1.010839E-05	5.392741E-07
3.044216E+03	1.029475E-05	5.483914E-07
3.054197E+03	1.048958E-05	5.579252E-07
3.064178E+03	1.068900E-05	5.676671E-07
3.074159E+03	1.089470E-05	5.777055E-07
3.084140E+03	1.110853E-05	5.881369E-07
3.094121E+03	1.132645E-05	5.987452E-07
3.104102E+03	1.155238E-05	6.097357E-07
3.114083E+03	1.178214E-05	6.208864E-07
3.124064E+03	1.201769E-05	6.322991E-07
3.134045E+03	1.226117E-05	6.440844E-07
3.144026E+03	1.250820E-05	6.560103E-07
3.154007E+03	1.276318E-05	6.683062E-07
3.163988E+03	1.302158E-05	6.807328E-07
3.173969E+03	1.328564E-05	6.934055E-07
3.183950E+03	1.355778E-05	7.064494E-07
3.193932E+03	1.383324E-05	7.196135E-07
3.203913E+03	1.411693E-05	7.331528E-07
3.213894E+03	1.440391E-05	7.468078E-07
3.223875E+03	1.469933E-05	7.608441E-07
3.233856E+03	1.499805E-05	7.749938E-07
3.243837E+03	1.530272E-05	7.893922E-07
3.253818E+03	1.561621E-05	8.041854E-07
3.263799E+03	1.593310E-05	8.190914E-07
3.273780E+03	1.625912E-05	8.344036E-07
3.283761E+03	1.658863E-05	8.498304E-07
3.293742E+03	1.692461E-05	8.655221E-07
3.303723E+03	1.727026E-05	8.816407E-07
3.313704E+03	1.761962E-05	8.978789E-07
3.323685E+03	1.797907E-05	9.145599E-07
3.333666E+03	1.834239E-05	9.313656E-07
3.343647E+03	1.871291E-05	9.484621E-07
3.353628E+03	1.909420E-05	9.660282E-07
3.363609E+03	1.947969E-05	9.837285E-07
3.373590E+03	1.987646E-05	1.001918E-06
3.383571E+03	2.027765E-05	1.020249E-06
3.393552E+03	2.069065E-05	1.039090E-06
3.403533E+03	2.110834E-05	1.058080E-06
3.413514E+03	2.153456E-05	1.077411E-06
3.423495E+03	2.197345E-05	1.097285E-06
3.433476E+03	2.241744E-05	1.117322E-06
3.443457E+03	2.287471E-05	1.137926E-06
3.453438E+03	2.333740E-05	1.158702E-06
3.463420E+03	2.380975E-05	1.179860E-06
3.473401E+03	2.429630E-05	1.201619E-06
3.483382E+03	2.478876E-05	1.223567E-06
3.493363E+03	2.529610E-05	1.246142E-06
3.503344E+03	2.580965E-05	1.268914E-06
3.513325E+03	2.633875E-05	1.292338E-06
3.523306E+03	2.687437E-05	1.315968E-06
3.533287E+03	2.742138E-05	1.340038E-06
3.543268E+03	2.798502E-05	1.364801E-06
3.553249E+03	2.855564E-05	1.389780E-06
3.563230E+03	2.914357E-05	1.415476E-06
3.573211E+03	2.973879E-05	1.441396E-06
3.583192E+03	3.034664E-05	1.467797E-06
3.593173E+03	3.097288E-05	1.494951E-06
3.603154E+03	3.160679E-05	1.522336E-06
3.613135E+03	3.225981E-05	1.550499E-06
3.623116E+03	3.292075E-05	1.578896E-06
3.633097E+03	3.360146E-05	1.608092E-06
3.643078E+03	3.429029E-05	1.637525E-06
3.653059E+03	3.499334E-05	1.667479E-06
3.663040E+03	3.571713E-05	1.698262E-06
3.673021E+03	3.644926E-05	1.729278E-06
3.683002E+03	3.720276E-05	1.761140E-06
3.692983E+03	3.796467E-05	1.793228E-06
3.702964E+03	3.874164E-05	1.825853E-06
3.712945E+03	3.954081E-05	1.859345E-06
3.722926E+03	4.034840E-05	1.893048E-06
3.732907E+03	4.117871E-05	1.927631E-06
3.742889E+03	4.201733E-05	1.962411E-06
3.752870E+03	4.287913E-05	1.998077E-06
3.762851E+03	4.374905E-05	2.033923E-06
3.772832E+03	4.463460E-05	2.070292E-06
3.782813E+03	4.554389E-05	2.107554E-06
3.792794E+03	4.646093E-05	2.144962E-06
3.802775E+03	4.740201E-05	2.183264E-06
3.812756E+03	4.835046E-05	2.221685E-06
3.822737E+03	4.931450E-05	2.260597E-06
3.832718E+03	5.030298E-05	2.300401E-06
3.842699E+03	5.129815E-05	2.340278E-06
3.852680E+03	5.231804E-05	2.381045E-06
3.862661E+03	5.334408E-05	2.421850E-06
3.872642E+03	5.439506E-05	2.463542E-06
3.882623E+03	5.545169E-05	2.505239E-06
3.892604E+03	5.652342E-05	2.547365E-06
3.902585E+03	5.762041E-05	2.590371E-06
3.912566E+03	5.872229E-05	2.633334E-06
3.922547E+03	5.984975E-05	2.677178E-06
3.932528E+03	6.098164E-05	2.720949E-06
3.942509E+03	6.212840E-05	2.765109E-06
3.952490E+03	6.330130E-05	2.810154E-06
3.962471E+03	6.447808E-05	2.855088E-06
3.972452E+03	6.568151E-05	2.900914E-06
3.982433E+03	6.688855E-05	2.946609E-06
3.992414E+03	6.811078E-05	2.992678E-06
4.002395E+03	6.936066E-05	3.039662E-06
4.012376E+03	7.061388E-05	3.086488E-06
4.022358E+03	7.189557E-05	3.134250E-06
4.032339E+03	7.318056E-05	3.181843E-06
4.042320E+03	7.448163E-05	3.229820E-06
4.052301E+03	7.581248E-05	3.278767E-06
4.062282E+03	7.714660E-05	3.327529E-06
4.072263E+03	7.851140E-05	3.377285E-06
4.082244E+03	7.987940E-05	3.426843E-06
4.092225E+03	8.126448E-05	3.476796E-06
4.102206E+03	8.268145E-05	3.527770E-06
4.112187E+03	8.410125E-05	3.578516E-06
4.122168E+03	8.555348E-05	3.630289E-06
4.132149E+03	8.700795E-05	3.681800E-06
4.142130E+03	8.847943E-05	3.733671E-06
4.152111E+03	8.998357E-05	3.786554E-06
4.162092E+03	9.148827E-05	3.839090E-06
4.172073E+03	9.302520E-05	3.892604E-06
4.182054E+03	9.456084E-05	3.945685E-06
4.192035E+03	9.611059E-05	3.998976E-06
4.202016E+03	9.769066E-05	4.053142E-06
4.211997E+03	9.926536E-05	4.106696E-06
4.221978E+03	1.008681E-04	4.161022E-06
4.231959E+03	1.024618E-04	4.214575E-06
4.241940E+03	1.040618E-04	4.268001E-06
4.251921E+03	1.056849E-04	4.321974E-06
4.261902E+03	1.072913E-04	4.374866E-06
4.271883E+03	1.088966E-04	4.427321E-06
4.281864E+03	1.105176E-04	4.480014E-06
4.291845E+03	1.121119E-04	4.531231E-06
4.301827E+03	1.137155E-04	4.582431E-06
4.311808E+03	1.152845E-04	4.631847E-06
4.321789E+03	1.168346E-04	4.680124E-06
4.331770E+03	1.183826E-04	4.727935E-06
4.341751E+03	1.198821E-04	4.773439E-06
4.351732E+03	1.213493E-04	4.817295E-06
4.361713E+03	1.228014E-04	4.860191E-06
4.371694E+03	1.241906E-04	4.900254E-06
4.381675E+03	1.255568E-04	4.939078E-06
4.391656E+03	1.268529E-04	4.974819E-06
4.401637E+03	1.280986E-04	5.008277E-06
4.411618E+03	1.293155E-04	5.040309E-06
4.421599E+03	1.304568E-04	5.069115E-06
4.431580E+03	1.315447E-04	5.095579E-06
4.441561E+03	1.326023E-04	5.120613E-06
4.451542E+03	1.335824E-04	5.142417E-06
4.461523E+03	1.345084E-04	5.161911E-06
4.471504E+03	1.354044E-04	5.180035E-06
4.481485E+03	1.362226E-04	5.194985E-06
4.491466E+03	1.369874E-04	5.207710E-06
4.501447E+03	1.377237E-04	5.219173E-06
4.511428E+03	1.383836E-04	5.227576E-06
4.521409E+03	1.390170E-04	5.234823E-06
4.531390E+03	1.395759E-04	5.239119E-06
4.541371E+03	1.400860E-04	5.241460E-06
4.551352E+03	1.405739E-04	5.242849E-06
4.561333E+03	1.409917E-04	5.241513E-06
4.571315E+03	1.413660E-04	5.238467E-06
4.581296E+03	1.417243E-04	5.234736E-06
4.591277E+03	1.420187E-04	5.228567E-06
4.601258E+03	1.422769E-04	5.220995E-06
4.611239E+03	1.425269E-04	5.213058E-06
4.621220E+03	1.427212E-04	5.203028E-06
4.631201E+03	1.428880E-04	5.191950E-06
4.641182E+03	1.430558E-04	5.180868E-06
4.651163E+03	1.431775E-04	5.168074E-06
4.661144E+03	1.432818E-04	5.154620E-06
4.671125E+03	1.433974E-04	5.141545E-06
4.681106E+03	1.434772E-04	5.127160E-06
4.691087E+03	1.435502E-04	5.112506E-06
4.701068E+03	1.436199E-04	5.097714E-06
4.711049E+03	1.437152E-04	5.083809E-06
4.721030E+03	1.437889E-04	5.069111E-06
4.731011E+03	1.438697E-04	5.054644E-06
4.740992E+03	1.439864E-04	5.041411E-06
4.750973E+03	1.440915E-04	5.027736E-06
4.760954E+03	1.442132E-04	5.014614E-06
4.770935E+03	1.443803E-04	5.003027E-06
4.780916E+03	1.445442E-04	4.991290E-06
4.790897E+03	1.447332E-04	4.980372E-06
4.800878E+03	1.449753E-04	4.971223E-06
4.810859E+03	1.452212E-04	4.962147E-06
4.820840E+03	1.454988E-04	4.954083E-06
4.830821E+03	1.458094E-04	4.947075E-06
4.840802E+03	1.461806E-04	4.942035E-06
4.850784E+03	1.465619E-04	4.937243E-06
4.860765E+03	1.469800E-04	4.933595E-06
4.870746E+03	1.474617E-04	4.931972E-06
4.880727E+03	1.479554E-04	4.930631E-06
4.890708E+03	1.484872E-04	4.930438E-06
4.900689E+03	1.490570E-04	4.931374E-06
4.910670E+03	1.496909E-04	4.934288E-06
4.920651E+03	1.503355E-04	4.937401E-06
4.930632E+03	1.510161E-04	4.941543E-06
4.940613E+03	1.517586E-04	4.947540E-06
4.950594E+03	1.525079E-04	4.953583E-06
4.960575E+03	1.532891E-04	4.960485E-06
4.970556E+03	1.541003E-04	4.968171E-06
4.980537E+03	1.549666E-04	4.977444E-06
4.990518E+03	1.558313E-04	4.986461E-06
5.000499E+03	1.567189E-04	4.996011E-06
5.010480E+03	1.576267E-04	5.006002E-06
5.020461E+03	1.585798E-04	5.017220E-06
5.030442E+03	1.595192E-04	5.027791E-06
5.040423E+03	1.604696E-04	5.038498E-06
5.050404E+03	1.614276E-04	5.049233E-06
5.060385E+03	1.624185E-04	5.060779E-06
5.070366E+03	1.633815E-04	5.071245E-06
5.080347E+03	1.643416E-04	5.081411E-06
5.090328E+03	1.652952E-04	5.091172E-06
5.100309E+03	1.662680E-04	5.101320E-06
5.110290E+03	1.671979E-04	5.109954E-06
5.120271E+03	1.681107E-04	5.117872E-06
5.130253E+03	1.690027E-04	5.124979E-06
5.140234E+03	1.699008E-04	5.132089E-06
5.150215E+03	1.707418E-04	5.137308E-06
5.160196E+03	1.715527E-04	5.141461E-06
5.170177E+03	1.723305E-04	5.144477E-06
5.180158E+03	1.730726E-04	5.146292E-06
5.190139E+03	1.738074E-04	5.147762E-06
5.200120E+03	1.744714E-04	5.147019E-06
5.210101E+03	1.750932E-04	5.144935E-06
5.220082E+03	1.756714E-04	5.141479E-06
5.230063E+03	1.762356E-04	5.137539E-06
5.240044E+03	1.767226E-04	5.131287E-06
5.250025E+03	1.771626E-04	5.123626E-06
5.260006E+03	1.775551E-04	5.114560E-06
5.269987E+03	1.778999E-04	5.104102E-06
5.279968E+03	1.782282E-04	5.093166E-06
5.289949E+03	1.784773E-04	5.079977E-06
5.299930E+03	1.786790E-04	5.065464E-06
5.309911E+03	1.788337E-04	5.049660E-06
5.319892E+03	1.789421E-04	5.032600E-06
5.329873E+03	1.790362E-04	5.015206E-06
5.339854E+03	1.790538E-04	4.995744E-06
5.349835E+03	1.790271E-04	4.975142E-06
5.359816E+03	1.789568E-04	4.953438E-06
5.369797E+03	1.788436E-04	4.930668E-06
5.379778E+03	1.787198E-04	4.907734E-06
5.389759E+03	1.785228E-04	4.882932E-06
5.399740E+03	1.782845E-04	4.857160E-06
5.409722E+03	1.780054E-04	4.830443E-06
5.419703E+03	1.776855E-04	4.802803E-06
5.429684E+03	1.773249E-04	4.774257E-06
5.439665E+03	1.769550E-04	4.745660E-06
5.449646E+03	1.765130E-04	4.715345E-06
5.459627E+03	1.760304E-04	4.684171E-06
5.469608E+03	1.755074E-04	4.652162E-06
5.479589E+03	1.749448E-04	4.619352E-06
5.489570E+03	1.743443E-04	4.585799E-06
5.499551E+03	1.737389E-04	4.552378E-06
5.509532E+03	1.730705E-04	4.517568E-06
5.519513E+03	1.723736E-04	4.482282E-06
5.529494E+03	1.716521E-04	4.446628E-06
5.539475E+03	1.709103E-04	4.410718E-06
5.549456E+03	1.701524E-04	4.374663E-06
5.559437E+03	1.693827E-04	4.338571E-06
5.569418E+03	1.686350E-04	4.303309E-06
5.579399E+03	1.678542E-04	4.267463E-06
5.589380E+03	1.670744E-04	4.231903E-06
5.599361E+03	1.663000E-04	4.196735E-06
5.609342E+03	1.655351E-04	4.162060E-06
5.619323E+03	1.647841E-04	4.127981E-06
5.629304E+03	1.640513E-04	4.094596E-06
5.639285E+03	1.633409E-04	4.062004E-06
5.649266E+03	1.626857E-04	4.031007E-06
5.659247E+03	1.620323E-04	4.000270E-06
5.669228E+03	1.614134E-04	3.970595E-06
5.679210E+03	1.608329E-04	3.942063E-06
5.689191E+03	1.602945E-04	3.914752E-06
5.699172E+03	1.598016E-04	3.888733E-06
5.709153E+03	1.593575E-04	3.864074E-06
5.719134E+03	1.589654E-04	3.840833E-06
5.729115E+03	1.586283E-04	3.819069E-06
5.739096E+03	1.583768E-04	3.799500E-06
5.749077E+03	1.581575E-04	3.780829E-06
5.759058E+03	1.580008E-04	3.763768E-06
5.769039E+03	1.579091E-04	3.748355E-06
5.779020E+03	1.578842E-04	3.734620E-06
5.789001E+03	1.579282E-04	3.722594E-06
5.798982E+03	1.580430E-04	3.712302E-06
5.808963E+03	1.582304E-04	3.703771E-06
5.818944E+03	1.584923E-04	3.697025E-06
5.828925E+03	1.588304E-04	3.692089E-06
5.838906E+03	1.592747E-04	3.689638E-06
5.848887E+03	1.597712E-04	3.688401E-06
5.858868E+03	1.603501E-04	3.689060E-06
5.868849E+03	1.610136E-04	3.691648E-06
5.878830E+03	1.617643E-04	3.696205E-06
5.888811E+03	1.626047E-04	3.702772E-06
5.898792E+03	1.635380E-04	3.711400E-06
5.908773E+03	1.645673E-04	3.722140E-06
5.918754E+03	1.656960E-04	3.735049E-06
5.928735E+03	1.669278E-04	3.750192E-06
5.938716E+03	1.682665E-04	3.767634E-06
5.948697E+03	1.697162E-04	3.787444E-06
5.958679E+03	1.712812E-04	3.809696E-06
5.968660E+03	1.729655E-04	3.834463E-06
5.978641E+03	1.747737E-04	3.861818E-06
5.988622E+03	1.767409E-04	3.892517E-06
5.998603E+03	1.788095E-04	3.925264E-06
6.008584E+03	1.810139E-04	3.960799E-06
6.018565E+03	1.833578E-04	3.999176E-06
6.028546E+03	1.858440E-04	4.040438E-06
6.038527E+03	1.884749E-04	4.084616E-06
6.048508E+03	1.912524E-04	4.131722E-06
6.058489E+03	1.941769E-04	4.181753E-06
6.068470E+03	1.972485E-04	4.234683E-06
6.078451E+03	2.004655E-04	4.290462E-06
6.088432E+03	2.038253E-04	4.349015E-06
6.098413E+03	2.073236E-04	4.410233E-06
6.108394E+03	2.109545E-04	4.473980E-06
6.118375E+03	2.147106E-04	4.540083E-06
6.128356E+03	2.185823E-04	4.608336E-06
6.138337E+03	2.225584E-04	4.678493E-06
6.148318E+03	2.266255E-04	4.750272E-06
6.158299E+03	2.307683E-04	4.823352E-06
6.168280E+03	2.349693E-04	4.897376E-06
6.178261E+03	2.392093E-04	4.971949E-06
6.188242E+03	2.434670E-04	5.046644E-06
6.198223E+03	2.477193E-04	5.121001E-06
6.208204E+03	2.519417E-04	5.194535E-06
6.218185E+03	2.561081E-04	5.266740E-06
6.228166E+03	2.601917E-04	5.337091E-06
6.238148E+03	2.641645E-04	5.405054E-06
6.248129E+03	2.679984E-04	5.470094E-06
6.258110E+03	2.716652E-04	5.531680E-06
6.268091E+03	2.751369E-04	5.589294E-06
6.278072E+03	2.783866E-04	5.642438E-06
6.288053E+03	2.813884E-04	5.690642E-06
6.298034E+03	2.841181E-04	5.733473E-06
6.308015E+03	2.865535E-04	5.770541E-06
6.317996E+03	2.886746E-04	5.801503E-06
6.327977E+03	2.904642E-04	5.826071E-06
6.337958E+03	2.919077E-04	5.844013E-06
6.347939E+03	2.929938E-04	5.855157E-06
6.357920E+03	2.937142E-04	5.859395E-06
6.367901E+03	2.940639E-04	5.856676E-06
6.377882E+03	2.940408E-04	5.847012E-06
6.387863E+03	2.936460E-04	5.830470E-06
6.397844E+03	2.928836E-04	5.807172E-06
6.407825E+03	2.917603E-04	5.777288E-06
6.417806E+03	2.902851E-04	5.741032E-06
6.427787E+03	2.884695E-04	5.698656E-06
6.437768E+03	2.863265E-04	5.650445E-06
6.447749E+03	2.838710E-04	5.596706E-06
6.457730E+03	2.811190E-04	5.537771E-06
6.467711E+03	2.780875E-04	5.473982E-06
6.477692E+03	2.747945E-04	5.405697E-06
6.487673E+03	2.712585E-04	5.333280E-06
6.497654E+03	2.674992E-04	5.257114E-06
6.507635E+03	2.635381E-04	5.177598E-06
6.517617E+03	2.593528E-04	5.094263E-06
6.527598E+03	2.550618E-04	5.009400E-06
6.537579E+03	2.506475E-04	4.922621E-06
6.547560E+03	2.461397E-04	4.834477E-06
6.557541E+03	2.415682E-04	4.745513E-06
6.567522E+03	2.369617E-04	4.656255E-06
6.577503E+03	2.323470E-04	4.567193E-06
6.587484E+03	2.277493E-04	4.478782E-06
6.597465E+03	2.231913E-04	4.391439E-06
6.607446E+03	2.186940E-04	4.305541E-06
6.617427E+03	2.142763E-04	4.221430E-06
6.627408E+03	2.099550E-04	4.139413E-06
6.637389E+03	2.057455E-04	4.059763E-06
6.647370E+03	2.016613E-04	3.982727E-06
6.657351E+03	1.977145E-04	3.908521E-06
6.667332E+03	1.939156E-04	3.837338E-06
6.677313E+03	1.902404E-04	3.768682E-06
6.687294E+03	1.867648E-04	3.704042E-06
6.697275E+03	1.834615E-04	3.642868E-06
6.707256E+03	1.803365E-04	3.585275E-06
6.717237E+03	1.773951E-04	3.531357E-06
6.727218E+03	1.746413E-04	3.481197E-06
6.737199E+03	1.720788E-04	3.434865E-06
6.747180E+03	1.697105E-04	3.392417E-06
6.757161E+03	1.675387E-04	3.353904E-06
6.767142E+03	1.655650E-04	3.319365E-06
6.777123E+03	1.637909E-04	3.288832E-06
6.787105E+03	1.621885E-04	3.261753E-06
6.797086E+03	1.608158E-04	3.239300E-06
6.807067E+03	1.596440E-04	3.220908E-06
6.817048E+03	1.586729E-04	3.206584E-06
6.827029E+03	1.579021E-04	3.196329E-06
6.837010E+03	1.573308E-04	3.190141E-06
6.846991E+03	1.569582E-04	3.188016E-06
6.856972E+03	1.567828E-04	3.189941E-06
6.866953E+03	1.568034E-04	3.195903E-06
6.876934E+03	1.570182E-04	3.205881E-06
6.886915E+03	1.573974E-04	3.219283E-06
6.896896E+03	1.579942E-04	3.237211E-06
6.906877E+03	1.587784E-04	3.259062E-06
6.916858E+03	1.597471E-04	3.284794E-06
6.926839E+03	1.608971E-04	3.314358E-06
6.936820E+03	1.622247E-04	3.347691E-06
6.946801E+03	1.637259E-04	3.384727E-06
6.956782E+03	1.653961E-04	3.425385E-06
6.966763E+03	1.672006E-04	3.468962E-06
6.976744E+03	1.691924E-04	3.516571E-06
6.986725E+03	1.713361E-04	3.567486E-06
6.996706E+03	1.736243E-04	3.621573E-06
7.006687E+03	1.760495E-04	3.678683E-06
7.016668E+03	1.786030E-04	3.738644E-06
7.026649E+03	1.812751E-04	3.801268E-06
7.036630E+03	1.840556E-04	3.866345E-06
7.046611E+03	1.869001E-04	3.932949E-06
7.056592E+03	1.898616E-04	4.002202E-06
7.066574E+03	1.928942E-04	4.073143E-06
7.076555E+03	1.959837E-04	4.145473E-06
7.086536E+03	1.991147E-04	4.218869E-06
7.096517E+03	2.022706E-04	4.292980E-06
7.106498E+03	2.054343E-04	4.367440E-06
7.116479E+03	2.085508E-04	4.441075E-06
7.126460E+03	2.116741E-04	4.515027E-06
7.136441E+03	2.147485E-04	4.588103E-06
7.146422E+03	2.177538E-04	4.659862E-06
7.156403E+03	2.206695E-04	4.729857E-06
7.166384E+03	2.234752E-04	4.797633E-06
7.176365E+03	2.261107E-04	4.861882E-06
7.186346E+03	2.286351E-04	4.923858E-06
7.196327E+03	2.309895E-04	4.982279E-06
7.206308E+03	2.331557E-04	5.036729E-06
7.216289E+03	2.351162E-04	5.086811E-06
7.226270E+03	2.368554E-04	5.132167E-06
7.236251E+03	2.383172E-04	5.171554E-06
7.246232E+03	2.395737E-04	5.206515E-06
7.256213E+03	2.405735E-04	5.235909E-06
7.266194E+03	2.413097E-04	5.259561E-06
7.276175E+03	2.417777E-04	5.277350E-06
7.286156E+03	2.419760E-04	5.289219E-06
7.296137E+03	2.418633E-04	5.294238E-06
7.306118E+03	2.415292E-04	5.294345E-06
7.316099E+03	2.409378E-04	5.288737E-06
7.326080E+03	2.400990E-04	5.277608E-06
7.336061E+03	2.390248E-04	5.261206E-06
7.346043E+03	2.376879E-04	5.238911E-06
7.356024E+03	2.361892E-04	5.212928E-06
7.366005E+03	2.345047E-04	5.182720E-06
7.375986E+03	2.326545E-04	5.148717E-06
7.385967E+03	2.306595E-04	5.111372E-06
7.395948E+03	2.285415E-04	5.071164E-06
7.405929E+03	2.262828E-04	5.027691E-06
7.415910E+03	2.239862E-04	4.983233E-06
7.425891E+03	2.216335E-04	4.937387E-06
7.435872E+03	2.192466E-04	4.890641E-06
7.445853E+03	2.168465E-04	4.843465E-06
7.455834E+03	2.144156E-04	4.795470E-06
7.465815E+03	2.120489E-04	4.748788E-06
7.475796E+03	2.097261E-04	4.702970E-06
7.485777E+03	2.074634E-04	4.658394E-06
7.495758E+03	2.052761E-04	4.615409E-06
7.505739E+03	2.031417E-04	4.573521E-06
7.515720E+03	2.011441E-04	4.534634E-06
7.525701E+03	1.992577E-04	4.498184E-06
7.535682E+03	1.974914E-04	4.464389E-06
7.545663E+03	1.958181E-04	4.432651E-06
7.555644E+03	1.943134E-04	4.404696E-06
7.565625E+03	1.929472E-04	4.379864E-06
7.575606E+03	1.917230E-04	4.358250E-06
7.585587E+03	1.906432E-04	4.339929E-06
7.595568E+03	1.896754E-04	4.324184E-06
7.605549E+03	1.888871E-04	4.312569E-06
7.615530E+03	1.882439E-04	4.304323E-06
7.625512E+03	1.877441E-04	4.299427E-06
7.635493E+03	1.873522E-04	4.297091E-06
7.645474E+03	1.871313E-04	4.298780E-06
7.655455E+03	1.870445E-04	4.303671E-06
7.665436E+03	1.870873E-04	4.311682E-06
7.675417E+03	1.872547E-04	4.322720E-06
7.685398E+03	1.875079E-04	4.335913E-06
7.695379E+03	1.879073E-04	4.352676E-06
7.705360E+03	1.884133E-04	4.372117E-06
7.715341E+03	1.890189E-04	4.394098E-06
7.725322E+03	1.896835E-04	4.417692E-06
7.735303E+03	1.904662E-04	4.444298E-06
7.745284E+03	1.913256E-04	4.472976E-06
