#wls	flux	fluxerr
1.596074E+03	2.102455E-06	1.031390E-07
1.635976E+03	2.219045E-06	1.086915E-07
1.675877E+03	2.318330E-06	1.133757E-07
1.715779E+03	2.396831E-06	1.170251E-07
1.755681E+03	2.451077E-06	1.194750E-07
1.795583E+03	2.473213E-06	1.203485E-07
1.835485E+03	2.453600E-06	1.191852E-07
1.875387E+03	2.385026E-06	1.156462E-07
1.915288E+03	2.260762E-06	1.094188E-07
1.955190E+03	2.083188E-06	1.006336E-07
1.995092E+03	1.868678E-06	9.009599E-08
2.034994E+03	1.647458E-06	7.927190E-08
2.074896E+03	1.461029E-06	7.015766E-08
2.114798E+03	1.349374E-06	6.466021E-08
2.154699E+03	1.340281E-06	6.408630E-08
2.194601E+03	1.447418E-06	6.905633E-08
2.234503E+03	1.673469E-06	7.966045E-08
2.274405E+03	2.010883E-06	9.549972E-08
2.314307E+03	2.442698E-06	1.157308E-07
2.354209E+03	2.947627E-06	1.393123E-07
2.394110E+03	3.503242E-06	1.651572E-07
2.434012E+03	4.093033E-06	1.924666E-07
2.473914E+03	4.703736E-06	2.206008E-07
2.513816E+03	5.327632E-06	2.491860E-07
2.553718E+03	5.961997E-06	2.780843E-07
2.593620E+03	6.604653E-06	3.071849E-07
2.633522E+03	7.258815E-06	3.366276E-07
2.673423E+03	7.925169E-06	3.664333E-07
2.713325E+03	8.606164E-06	3.967035E-07
2.753227E+03	9.306214E-06	4.276284E-07
2.793129E+03	1.002857E-05	4.593417E-07
2.833031E+03	1.077840E-05	4.920617E-07
2.872933E+03	1.155938E-05	5.259365E-07
2.912834E+03	1.237329E-05	5.610246E-07
2.952736E+03	1.322992E-05	5.977434E-07
2.992638E+03	1.412945E-05	6.360719E-07
3.002614E+03	1.436272E-05	6.459781E-07
3.012589E+03	1.459821E-05	6.559611E-07
3.022564E+03	1.483814E-05	6.661212E-07
3.032540E+03	1.508336E-05	6.764950E-07
3.042515E+03	1.533208E-05	6.870019E-07
3.052491E+03	1.559391E-05	6.980708E-07
3.062466E+03	1.586147E-05	7.093708E-07
3.072442E+03	1.614109E-05	7.211833E-07
3.082417E+03	1.642768E-05	7.332797E-07
3.092393E+03	1.672076E-05	7.456370E-07
3.102368E+03	1.702229E-05	7.583414E-07
3.112344E+03	1.733189E-05	7.713753E-07
3.122319E+03	1.764681E-05	7.846144E-07
3.132295E+03	1.796916E-05	7.981521E-07
3.142270E+03	1.829617E-05	8.118642E-07
3.152245E+03	1.863005E-05	8.258480E-07
3.162221E+03	1.897062E-05	8.400937E-07
3.172196E+03	1.931509E-05	8.544772E-07
3.182172E+03	1.966584E-05	8.691030E-07
3.192147E+03	2.002009E-05	8.838470E-07
3.202123E+03	2.038031E-05	8.988179E-07
3.212098E+03	2.074644E-05	9.140113E-07
3.222074E+03	2.111840E-05	9.294230E-07
3.232049E+03	2.149335E-05	9.449272E-07
3.242025E+03	2.187400E-05	9.606419E-07
3.252000E+03	2.225749E-05	9.764412E-07
3.261976E+03	2.264948E-05	9.925716E-07
3.271951E+03	2.304429E-05	1.008783E-06
3.281926E+03	2.344189E-05	1.025075E-06
3.291902E+03	2.384812E-05	1.041700E-06
3.301877E+03	2.425719E-05	1.058405E-06
3.311853E+03	2.467214E-05	1.075321E-06
3.321828E+03	2.509303E-05	1.092450E-06
3.331804E+03	2.552000E-05	1.109798E-06
3.341779E+03	2.595008E-05	1.127233E-06
3.351755E+03	2.638954E-05	1.145027E-06
3.361730E+03	2.683236E-05	1.162917E-06
3.371706E+03	2.728176E-05	1.181042E-06
3.381681E+03	2.773792E-05	1.199409E-06
3.391657E+03	2.819780E-05	1.217885E-06
3.401632E+03	2.866799E-05	1.236753E-06
3.411607E+03	2.914223E-05	1.255742E-06
3.421583E+03	2.962725E-05	1.275140E-06
3.431558E+03	3.011666E-05	1.294670E-06
3.441534E+03	3.061397E-05	1.314483E-06
3.451509E+03	3.111938E-05	1.334586E-06
3.461485E+03	3.163654E-05	1.355132E-06
3.471460E+03	3.215889E-05	1.375840E-06
3.481436E+03	3.269001E-05	1.396861E-06
3.491411E+03	3.323016E-05	1.418205E-06
3.501387E+03	3.377956E-05	1.439878E-06
3.511362E+03	3.433844E-05	1.461890E-06
3.521338E+03	3.490704E-05	1.484248E-06
3.531313E+03	3.548558E-05	1.506960E-06
3.541288E+03	3.607429E-05	1.530032E-06
3.551264E+03	3.667707E-05	1.553630E-06
3.561239E+03	3.728679E-05	1.577448E-06
3.571215E+03	3.790734E-05	1.601650E-06
3.581190E+03	3.854267E-05	1.626398E-06
3.591166E+03	3.918546E-05	1.651383E-06
3.601141E+03	3.984347E-05	1.676930E-06
3.611117E+03	4.051311E-05	1.702883E-06
3.621092E+03	4.119452E-05	1.729248E-06
3.631068E+03	4.188784E-05	1.756026E-06
3.641043E+03	4.259715E-05	1.783388E-06
3.651018E+03	4.331468E-05	1.811004E-06
3.660994E+03	4.404845E-05	1.839207E-06
3.670969E+03	4.479459E-05	1.867833E-06
3.680945E+03	4.555311E-05	1.896881E-06
3.690920E+03	4.632817E-05	1.926519E-06
3.700896E+03	4.711152E-05	1.956403E-06
3.710871E+03	4.791142E-05	1.986872E-06
3.720847E+03	4.872367E-05	2.017750E-06
3.730822E+03	4.955242E-05	2.049205E-06
3.740798E+03	5.039334E-05	2.081056E-06
3.750773E+03	5.124627E-05	2.113292E-06
3.760749E+03	5.211100E-05	2.145903E-06
3.770724E+03	5.299167E-05	2.179056E-06
3.780699E+03	5.388368E-05	2.212558E-06
3.790675E+03	5.478674E-05	2.246396E-06
3.800650E+03	5.570496E-05	2.280735E-06
3.810626E+03	5.663355E-05	2.315376E-06
3.820601E+03	5.757208E-05	2.350299E-06
3.830577E+03	5.852469E-05	2.385670E-06
3.840552E+03	5.948638E-05	2.421282E-06
3.850528E+03	6.045664E-05	2.457113E-06
3.860503E+03	6.143960E-05	2.493327E-06
3.870479E+03	6.243009E-05	2.529714E-06
3.880454E+03	6.343231E-05	2.566439E-06
3.890430E+03	6.444095E-05	2.603286E-06
3.900405E+03	6.546023E-05	2.640424E-06
3.910380E+03	6.648482E-05	2.677635E-06
3.920356E+03	6.751412E-05	2.714893E-06
3.930331E+03	6.855244E-05	2.752371E-06
3.940307E+03	6.959439E-05	2.789848E-06
3.950282E+03	7.064438E-05	2.827501E-06
3.960258E+03	7.169699E-05	2.865111E-06
3.970233E+03	7.275177E-05	2.902658E-06
3.980209E+03	7.381332E-05	2.940325E-06
3.990184E+03	7.488133E-05	2.978098E-06
4.000160E+03	7.595048E-05	3.015763E-06
4.010135E+03	7.702057E-05	3.053312E-06
4.020111E+03	7.809650E-05	3.090937E-06
4.030086E+03	7.917310E-05	3.128434E-06
4.040061E+03	8.025551E-05	3.166003E-06
4.050037E+03	8.133871E-05	3.203444E-06
4.060012E+03	8.242801E-05	3.240967E-06
4.069988E+03	8.351850E-05	3.278377E-06
4.079963E+03	8.461576E-05	3.315891E-06
4.089939E+03	8.571500E-05	3.353319E-06
4.099914E+03	8.681670E-05	3.390681E-06
4.109890E+03	8.792679E-05	3.428205E-06
4.119865E+03	8.904597E-05	3.465917E-06
4.129841E+03	9.016972E-05	3.503639E-06
4.139816E+03	9.129892E-05	3.541403E-06
4.149792E+03	9.243441E-05	3.579240E-06
4.159767E+03	9.358793E-05	3.617602E-06
4.169742E+03	9.474446E-05	3.655905E-06
4.179718E+03	9.591581E-05	3.694603E-06
4.189693E+03	9.709773E-05	3.733528E-06
4.199669E+03	9.829680E-05	3.772932E-06
4.209644E+03	9.950878E-05	3.812645E-06
4.219620E+03	1.007403E-04	3.852920E-06
4.229595E+03	1.019816E-04	3.893381E-06
4.239571E+03	1.032449E-04	3.934485E-06
4.249546E+03	1.045311E-04	3.976270E-06
4.259522E+03	1.058360E-04	4.018563E-06
4.269497E+03	1.071606E-04	4.061398E-06
4.279472E+03	1.085056E-04	4.104804E-06
4.289448E+03	1.098776E-04	4.149017E-06
4.299423E+03	1.112715E-04	4.193844E-06
4.309399E+03	1.126880E-04	4.239303E-06
4.319374E+03	1.141273E-04	4.285400E-06
4.329350E+03	1.155954E-04	4.332350E-06
4.339325E+03	1.170868E-04	4.379939E-06
4.349301E+03	1.186013E-04	4.428162E-06
4.359276E+03	1.201390E-04	4.477010E-06
4.369252E+03	1.216998E-04	4.526472E-06
4.379227E+03	1.232835E-04	4.576542E-06
4.389203E+03	1.248959E-04	4.627428E-06
4.399178E+03	1.265256E-04	4.678698E-06
4.409153E+03	1.281843E-04	4.730781E-06
4.419129E+03	1.298663E-04	4.783459E-06
4.429104E+03	1.315658E-04	4.836513E-06
4.439080E+03	1.332945E-04	4.890368E-06
4.449055E+03	1.350402E-04	4.944576E-06
4.459031E+03	1.368146E-04	4.999550E-06
4.469006E+03	1.386050E-04	5.054829E-06
4.478982E+03	1.404225E-04	5.110808E-06
4.488957E+03	1.422542E-04	5.167009E-06
4.498933E+03	1.441045E-04	5.223596E-06
4.508908E+03	1.459722E-04	5.280510E-06
4.518884E+03	1.478494E-04	5.337467E-06
4.528859E+03	1.497466E-04	5.394839E-06
4.538834E+03	1.516496E-04	5.452110E-06
4.548810E+03	1.535625E-04	5.509426E-06
4.558785E+03	1.554771E-04	5.566489E-06
4.568761E+03	1.573974E-04	5.623442E-06
4.578736E+03	1.593213E-04	5.680207E-06
4.588712E+03	1.612406E-04	5.736487E-06
4.598687E+03	1.631595E-04	5.792431E-06
4.608663E+03	1.650698E-04	5.847749E-06
4.618638E+03	1.669759E-04	5.902599E-06
4.628614E+03	1.688762E-04	5.956923E-06
4.638589E+03	1.707565E-04	6.010219E-06
4.648565E+03	1.726347E-04	6.063118E-06
4.658540E+03	1.744903E-04	6.114905E-06
4.668515E+03	1.763354E-04	6.166002E-06
4.678491E+03	1.781627E-04	6.216161E-06
4.688466E+03	1.799783E-04	6.265593E-06
4.698442E+03	1.817690E-04	6.313843E-06
4.708417E+03	1.835477E-04	6.361360E-06
4.718393E+03	1.853146E-04	6.408154E-06
4.728368E+03	1.870570E-04	6.453791E-06
4.738344E+03	1.887820E-04	6.498515E-06
4.748319E+03	1.904969E-04	6.542581E-06
4.758295E+03	1.921959E-04	6.585792E-06
4.768270E+03	1.938735E-04	6.627960E-06
4.778246E+03	1.955438E-04	6.669575E-06
4.788221E+03	1.971948E-04	6.710228E-06
4.798196E+03	1.988411E-04	6.750410E-06
4.808172E+03	2.004772E-04	6.789945E-06
4.818147E+03	2.020979E-04	6.828655E-06
4.828123E+03	2.037112E-04	6.866810E-06
4.838098E+03	2.053185E-04	6.904459E-06
4.848074E+03	2.069213E-04	6.941652E-06
4.858049E+03	2.085210E-04	6.978437E-06
4.868025E+03	2.101125E-04	7.014644E-06
4.878000E+03	2.117041E-04	7.050546E-06
4.887976E+03	2.132973E-04	7.086197E-06
4.897951E+03	2.148872E-04	7.121432E-06
4.907927E+03	2.164824E-04	7.156531E-06
4.917902E+03	2.180846E-04	7.191554E-06
4.927877E+03	2.196893E-04	7.226347E-06
4.937853E+03	2.213054E-04	7.261198E-06
4.947828E+03	2.229286E-04	7.295964E-06
4.957804E+03	2.245679E-04	7.330940E-06
4.967779E+03	2.262196E-04	7.365994E-06
4.977755E+03	2.278931E-04	7.401433E-06
4.987730E+03	2.295850E-04	7.437135E-06
4.997706E+03	2.313051E-04	7.473416E-06
5.007681E+03	2.330436E-04	7.509949E-06
5.017657E+03	2.348243E-04	7.547494E-06
5.027632E+03	2.366308E-04	7.585517E-06
5.037607E+03	2.384808E-04	7.624569E-06
5.047583E+03	2.403714E-04	7.664554E-06
5.057558E+03	2.423138E-04	7.705810E-06
5.067534E+03	2.442986E-04	7.748031E-06
5.077509E+03	2.463439E-04	7.791770E-06
5.087485E+03	2.484470E-04	7.836933E-06
5.097460E+03	2.506124E-04	7.883640E-06
5.107436E+03	2.528510E-04	7.932221E-06
5.117411E+03	2.551533E-04	7.982354E-06
5.127387E+03	2.575368E-04	8.034572E-06
5.137362E+03	2.599915E-04	8.088538E-06
5.147338E+03	2.625346E-04	8.144769E-06
5.157313E+03	2.651624E-04	8.203122E-06
5.167288E+03	2.678775E-04	8.263663E-06
5.177264E+03	2.706825E-04	8.326439E-06
5.187239E+03	2.735720E-04	8.391265E-06
5.197215E+03	2.765619E-04	8.458602E-06
5.207190E+03	2.796460E-04	8.528235E-06
5.217166E+03	2.828248E-04	8.600153E-06
5.227141E+03	2.860909E-04	8.674105E-06
5.237117E+03	2.894582E-04	8.750488E-06
5.247092E+03	2.929107E-04	8.828793E-06
5.257068E+03	2.964613E-04	8.909384E-06
5.267043E+03	3.000927E-04	8.991713E-06
5.277019E+03	3.038090E-04	9.075883E-06
5.286994E+03	3.076065E-04	9.161761E-06
5.296969E+03	3.114807E-04	9.249191E-06
5.306945E+03	3.154190E-04	9.337775E-06
5.316920E+03	3.194309E-04	9.427783E-06
5.326896E+03	3.234948E-04	9.518554E-06
5.336871E+03	3.276117E-04	9.610104E-06
5.346847E+03	3.317663E-04	9.701971E-06
5.356822E+03	3.359668E-04	9.794389E-06
5.366798E+03	3.401890E-04	9.886639E-06
5.376773E+03	3.444327E-04	9.978706E-06
5.386749E+03	3.486807E-04	1.007010E-05
5.396724E+03	3.529326E-04	1.016079E-05
5.406700E+03	3.571795E-04	1.025054E-05
5.416675E+03	3.614126E-04	1.033909E-05
5.426650E+03	3.656148E-04	1.042596E-05
5.436626E+03	3.697861E-04	1.051116E-05
5.446601E+03	3.739100E-04	1.059423E-05
5.456577E+03	3.779878E-04	1.067523E-05
5.466552E+03	3.820127E-04	1.075397E-05
5.476528E+03	3.859701E-04	1.083007E-05
5.486503E+03	3.898549E-04	1.090341E-05
5.496479E+03	3.936810E-04	1.097439E-05
5.506454E+03	3.974188E-04	1.104221E-05
5.516430E+03	4.010936E-04	1.110759E-05
5.526405E+03	4.046775E-04	1.116980E-05
5.536381E+03	4.081987E-04	1.122963E-05
5.546356E+03	4.116308E-04	1.128639E-05
5.556331E+03	4.150048E-04	1.134094E-05
5.566307E+03	4.182969E-04	1.139266E-05
5.576282E+03	4.215300E-04	1.144220E-05
5.586258E+03	4.247098E-04	1.148973E-05
5.596233E+03	4.278339E-04	1.153521E-05
5.606209E+03	4.309097E-04	1.157885E-05
5.616184E+03	4.339543E-04	1.162114E-05
5.626160E+03	4.369672E-04	1.166208E-05
5.636135E+03	4.399570E-04	1.170190E-05
5.646111E+03	4.429423E-04	1.174112E-05
5.656086E+03	4.459237E-04	1.177975E-05
5.666061E+03	4.489194E-04	1.181829E-05
5.676037E+03	4.519198E-04	1.185648E-05
5.686012E+03	4.549537E-04	1.189509E-05
5.695988E+03	4.580294E-04	1.193433E-05
5.705963E+03	4.611351E-04	1.197388E-05
5.715939E+03	4.642989E-04	1.201448E-05
5.725914E+03	4.675168E-04	1.205602E-05
5.735890E+03	4.707949E-04	1.209865E-05
5.745865E+03	4.741480E-04	1.214273E-05
5.755841E+03	4.775594E-04	1.218784E-05
5.765816E+03	4.810523E-04	1.223456E-05
5.775792E+03	4.846172E-04	1.228264E-05
5.785767E+03	4.882549E-04	1.233208E-05
5.795742E+03	4.919743E-04	1.238311E-05
5.805718E+03	4.957515E-04	1.243511E-05
5.815693E+03	4.995938E-04	1.248828E-05
5.825669E+03	5.035061E-04	1.254271E-05
5.835644E+03	5.074716E-04	1.259800E-05
5.845620E+03	5.114834E-04	1.265397E-05
5.855595E+03	5.155329E-04	1.271041E-05
5.865571E+03	5.196103E-04	1.276709E-05
5.875546E+03	5.237063E-04	1.282379E-05
5.885522E+03	5.278099E-04	1.288026E-05
5.895497E+03	5.319093E-04	1.293621E-05
5.905473E+03	5.359942E-04	1.299141E-05
5.915448E+03	5.400526E-04	1.304561E-05
5.925423E+03	5.440728E-04	1.309854E-05
5.935399E+03	5.480435E-04	1.314996E-05
5.945374E+03	5.519538E-04	1.319963E-05
5.955350E+03	5.557940E-04	1.324737E-05
5.965325E+03	5.595646E-04	1.329322E-05
5.975301E+03	5.632348E-04	1.333648E-05
5.985276E+03	5.668081E-04	1.337729E-05
5.995252E+03	5.702769E-04	1.341551E-05
6.005227E+03	5.736245E-04	1.345079E-05
6.015203E+03	5.768694E-04	1.348361E-05
6.025178E+03	5.799965E-04	1.351367E-05
6.035154E+03	5.830039E-04	1.354097E-05
6.045129E+03	5.858906E-04	1.356554E-05
6.055104E+03	5.886454E-04	1.358716E-05
6.065080E+03	5.912942E-04	1.360648E-05
6.075055E+03	5.938155E-04	1.362306E-05
6.085031E+03	5.962385E-04	1.363760E-05
6.095006E+03	5.985438E-04	1.364972E-05
6.104982E+03	6.007507E-04	1.365990E-05
6.114957E+03	6.028665E-04	1.366834E-05
6.124933E+03	6.049007E-04	1.367530E-05
6.134908E+03	6.068628E-04	1.368104E-05
6.144884E+03	6.087637E-04	1.368583E-05
6.154859E+03	6.106151E-04	1.368998E-05
6.164835E+03	6.124297E-04	1.369380E-05
6.174810E+03	6.142209E-04	1.369761E-05
6.184785E+03	6.160027E-04	1.370177E-05
6.194761E+03	6.177901E-04	1.370662E-05
6.204736E+03	6.195860E-04	1.371225E-05
6.214712E+03	6.214308E-04	1.371959E-05
6.224687E+03	6.233277E-04	1.372871E-05
6.234663E+03	6.252812E-04	1.373974E-05
6.244638E+03	6.273324E-04	1.375360E-05
6.254614E+03	6.294841E-04	1.377035E-05
6.264589E+03	6.317411E-04	1.379011E-05
6.274565E+03	6.341426E-04	1.381376E-05
6.284540E+03	6.366909E-04	1.384135E-05
6.294515E+03	6.393866E-04	1.387290E-05
6.304491E+03	6.422680E-04	1.390926E-05
6.314466E+03	6.453323E-04	1.395038E-05
6.324442E+03	6.485886E-04	1.399646E-05
6.334417E+03	6.520431E-04	1.404765E-05
6.344393E+03	6.557126E-04	1.410433E-05
6.354368E+03	6.595719E-04	1.416597E-05
6.364344E+03	6.636321E-04	1.423283E-05
6.374319E+03	6.678998E-04	1.430507E-05
6.384295E+03	6.723523E-04	1.438223E-05
6.394270E+03	6.769762E-04	1.446404E-05
6.404246E+03	6.817516E-04	1.455013E-05
6.414221E+03	6.866705E-04	1.464034E-05
6.424196E+03	6.916900E-04	1.473380E-05
6.434172E+03	6.967787E-04	1.482987E-05
6.444147E+03	7.018977E-04	1.492775E-05
6.454123E+03	7.070188E-04	1.502683E-05
6.464098E+03	7.120803E-04	1.512583E-05
6.474074E+03	7.170286E-04	1.522362E-05
6.484049E+03	7.218202E-04	1.531928E-05
6.494025E+03	7.263798E-04	1.541123E-05
6.504000E+03	7.306459E-04	1.549818E-05
6.513976E+03	7.345758E-04	1.557922E-05
6.523951E+03	7.381254E-04	1.565344E-05
6.533927E+03	7.412477E-04	1.571982E-05
6.543902E+03	7.439201E-04	1.577790E-05
6.553877E+03	7.461403E-04	1.582760E-05
6.563853E+03	7.478786E-04	1.586829E-05
6.573828E+03	7.491370E-04	1.589999E-05
6.583804E+03	7.499061E-04	1.592248E-05
6.593779E+03	7.501618E-04	1.593521E-05
6.603755E+03	7.498991E-04	1.593805E-05
6.613730E+03	7.491475E-04	1.593157E-05
6.623706E+03	7.478796E-04	1.591517E-05
6.633681E+03	7.461166E-04	1.588924E-05
6.643657E+03	7.438555E-04	1.585366E-05
6.653632E+03	7.411250E-04	1.580900E-05
6.663608E+03	7.379439E-04	1.575559E-05
6.673583E+03	7.343343E-04	1.569386E-05
6.683558E+03	7.303210E-04	1.562427E-05
6.693534E+03	7.259170E-04	1.554704E-05
6.703509E+03	7.211660E-04	1.546305E-05
6.713485E+03	7.161008E-04	1.537293E-05
6.723460E+03	7.107534E-04	1.527731E-05
6.733436E+03	7.051577E-04	1.517686E-05
6.743411E+03	6.993474E-04	1.507225E-05
6.753387E+03	6.933568E-04	1.496416E-05
6.763362E+03	6.872057E-04	1.485298E-05
6.773338E+03	6.809540E-04	1.473994E-05
6.783313E+03	6.746196E-04	1.462538E-05
6.793289E+03	6.682191E-04	1.450963E-05
6.803264E+03	6.618081E-04	1.439384E-05
6.813239E+03	6.553999E-04	1.427828E-05
6.823215E+03	6.490185E-04	1.416343E-05
6.833190E+03	6.426867E-04	1.404977E-05
6.843166E+03	6.364249E-04	1.393771E-05
6.853141E+03	6.302517E-04	1.382764E-05
6.863117E+03	6.241952E-04	1.372016E-05
6.873092E+03	6.182572E-04	1.361529E-05
6.883068E+03	6.124356E-04	1.351298E-05
6.893043E+03	6.067798E-04	1.341431E-05
6.903019E+03	6.012585E-04	1.331857E-05
6.912994E+03	5.958914E-04	1.322620E-05
6.922969E+03	5.906954E-04	1.313757E-05
6.932945E+03	5.856598E-04	1.305245E-05
6.942920E+03	5.808001E-04	1.297118E-05
6.952896E+03	5.760901E-04	1.289317E-05
6.962871E+03	5.715546E-04	1.281900E-05
6.972847E+03	5.671903E-04	1.274858E-05
6.982822E+03	5.629828E-04	1.268160E-05
6.992798E+03	5.589276E-04	1.261797E-05
7.002773E+03	5.550209E-04	1.255760E-05
7.012749E+03	5.512681E-04	1.250064E-05
7.022724E+03	5.476633E-04	1.244694E-05
7.032700E+03	5.441776E-04	1.239586E-05
7.042675E+03	5.408378E-04	1.234802E-05
7.052650E+03	5.376032E-04	1.230250E-05
7.062626E+03	5.344885E-04	1.225963E-05
7.072601E+03	5.314865E-04	1.221927E-05
7.082577E+03	5.285775E-04	1.218095E-05
7.092552E+03	5.257653E-04	1.214479E-05
7.102528E+03	5.230305E-04	1.211032E-05
7.112503E+03	5.203763E-04	1.207763E-05
7.122479E+03	5.177836E-04	1.204628E-05
7.132454E+03	5.152557E-04	1.201635E-05
7.142430E+03	5.127735E-04	1.198739E-05
7.152405E+03	5.103407E-04	1.195949E-05
7.162381E+03	5.079386E-04	1.193221E-05
7.172356E+03	5.055711E-04	1.190565E-05
7.182331E+03	5.032313E-04	1.187962E-05
7.192307E+03	5.009013E-04	1.185372E-05
7.202282E+03	4.985857E-04	1.182805E-05
7.212258E+03	4.962677E-04	1.180219E-05
7.222233E+03	4.939526E-04	1.177628E-05
7.232209E+03	4.916352E-04	1.175018E-05
7.242184E+03	4.893107E-04	1.172377E-05
7.252160E+03	4.869638E-04	1.169668E-05
7.262135E+03	4.845910E-04	1.166881E-05
7.272111E+03	4.822108E-04	1.164061E-05
7.282086E+03	4.797987E-04	1.161147E-05
7.292062E+03	4.773526E-04	1.158133E-05
7.302037E+03	4.748928E-04	1.155067E-05
7.312012E+03	4.723965E-04	1.151894E-05
7.321988E+03	4.698744E-04	1.148638E-05
7.331963E+03	4.673159E-04	1.145272E-05
7.341939E+03	4.647325E-04	1.141825E-05
7.351914E+03	4.621257E-04	1.138298E-05
7.361890E+03	4.594971E-04	1.134694E-05
7.371865E+03	4.568387E-04	1.130995E-05
7.381841E+03	4.541640E-04	1.127231E-05
7.391816E+03	4.514762E-04	1.123410E-05
7.401792E+03	4.487789E-04	1.119542E-05
7.411767E+03	4.460657E-04	1.115609E-05
7.421743E+03	4.433515E-04	1.111648E-05
7.431718E+03	4.406406E-04	1.107670E-05
7.441693E+03	4.379274E-04	1.103661E-05
7.451669E+03	4.352373E-04	1.099684E-05
7.461644E+03	4.325544E-04	1.095700E-05
7.471620E+03	4.298939E-04	1.091747E-05
7.481595E+03	4.272503E-04	1.087811E-05
7.491571E+03	4.246482E-04	1.083956E-05
7.501546E+03	4.220719E-04	1.080142E-05
7.511522E+03	4.195355E-04	1.076405E-05
7.521497E+03	4.170426E-04	1.072756E-05
7.531473E+03	4.145867E-04	1.069178E-05
7.541448E+03	4.121906E-04	1.065732E-05
7.551423E+03	4.098368E-04	1.062372E-05
7.561399E+03	4.075373E-04	1.059131E-05
7.571374E+03	4.052935E-04	1.056013E-05
7.581350E+03	4.030966E-04	1.052997E-05
7.591325E+03	4.009665E-04	1.050135E-05
7.601301E+03	3.988833E-04	1.047377E-05
7.611276E+03	3.968562E-04	1.044748E-05
7.621252E+03	3.948837E-04	1.042245E-05
7.631227E+03	3.929544E-04	1.039839E-05
7.641203E+03	3.910851E-04	1.037575E-05
7.651178E+03	3.892535E-04	1.035396E-05
7.661154E+03	3.874658E-04	1.033318E-05
7.671129E+03	3.857182E-04	1.031333E-05
7.681104E+03	3.840063E-04	1.029430E-05
7.691080E+03	3.823160E-04	1.027571E-05
7.701055E+03	3.806611E-04	1.025794E-05
7.711031E+03	3.790174E-04	1.024034E-05
7.721006E+03	3.773889E-04	1.022304E-05
7.730982E+03	3.757699E-04	1.020586E-05
7.740957E+03	3.741544E-04	1.018867E-05
