#wls	flux	fluxerr
1.600160E+03	6.523927E-05	1.612398E-06
1.640164E+03	6.758749E-05	1.661365E-06
1.680168E+03	7.014235E-05	1.714523E-06
1.720172E+03	7.291219E-05	1.771961E-06
1.760176E+03	7.593428E-05	1.834456E-06
1.800180E+03	7.921964E-05	1.902129E-06
1.840184E+03	8.279479E-05	1.975459E-06
1.880188E+03	8.670258E-05	2.055287E-06
1.920192E+03	9.095959E-05	2.141805E-06
1.960196E+03	9.560633E-05	2.235744E-06
2.000200E+03	1.006717E-04	2.337530E-06
2.040204E+03	1.062023E-04	2.447970E-06
2.080208E+03	1.122185E-04	2.567228E-06
2.120212E+03	1.187510E-04	2.695678E-06
2.160216E+03	1.258265E-04	2.833565E-06
2.200220E+03	1.334353E-04	2.980296E-06
2.240224E+03	1.415607E-04	3.135115E-06
2.280228E+03	1.502194E-04	3.297997E-06
2.320232E+03	1.594634E-04	3.469664E-06
2.360236E+03	1.694427E-04	3.652892E-06
2.400240E+03	1.803021E-04	3.850213E-06
2.440244E+03	1.921895E-04	4.064091E-06
2.480248E+03	2.052835E-04	4.297482E-06
2.520252E+03	2.197224E-04	4.552330E-06
2.560256E+03	2.356737E-04	4.831038E-06
2.600260E+03	2.532979E-04	5.135680E-06
2.640264E+03	2.727746E-04	5.468539E-06
2.680268E+03	2.942611E-04	5.831261E-06
2.720272E+03	3.179170E-04	6.225351E-06
2.760276E+03	3.438882E-04	6.651861E-06
2.800280E+03	3.722997E-04	7.111266E-06
2.840284E+03	4.032563E-04	7.603503E-06
2.880288E+03	4.368586E-04	8.128295E-06
2.920292E+03	4.731984E-04	8.685069E-06
2.960296E+03	5.123814E-04	9.273386E-06
3.000300E+03	5.545265E-04	9.892919E-06
3.010301E+03	5.655572E-04	1.005294E-05
3.020302E+03	5.767719E-04	1.021469E-05
3.030303E+03	5.881965E-04	1.037858E-05
3.040304E+03	5.998183E-04	1.054435E-05
3.050305E+03	6.116509E-04	1.071219E-05
3.060306E+03	6.237090E-04	1.088232E-05
3.070307E+03	6.359682E-04	1.105425E-05
3.080308E+03	6.484707E-04	1.122869E-05
3.090309E+03	6.611938E-04	1.140518E-05
3.100310E+03	6.741695E-04	1.158423E-05
3.110311E+03	6.873908E-04	1.176567E-05
3.120312E+03	7.008656E-04	1.194957E-05
3.130313E+03	7.146312E-04	1.213653E-05
3.140314E+03	7.286731E-04	1.232622E-05
3.150315E+03	7.430475E-04	1.251956E-05
3.160316E+03	7.577309E-04	1.271606E-05
3.170317E+03	7.727869E-04	1.291673E-05
3.180318E+03	7.882129E-04	1.312145E-05
3.190319E+03	8.040672E-04	1.333111E-05
3.200320E+03	8.203704E-04	1.354597E-05
3.210321E+03	8.371774E-04	1.376682E-05
3.220322E+03	8.545340E-04	1.399433E-05
3.230323E+03	8.724929E-04	1.422925E-05
3.240324E+03	8.910982E-04	1.447215E-05
3.250325E+03	9.104456E-04	1.472446E-05
3.260326E+03	9.305930E-04	1.498697E-05
3.270327E+03	9.516343E-04	1.526102E-05
3.280328E+03	9.736396E-04	1.554754E-05
3.290329E+03	9.966983E-04	1.584776E-05
3.300330E+03	1.020918E-03	1.616318E-05
3.310331E+03	1.046374E-03	1.649475E-05
3.320332E+03	1.073172E-03	1.684387E-05
3.330333E+03	1.101390E-03	1.721150E-05
3.340334E+03	1.131059E-03	1.759784E-05
3.350335E+03	1.162250E-03	1.800368E-05
3.360336E+03	1.194949E-03	1.842852E-05
3.370337E+03	1.229110E-03	1.887134E-05
3.380338E+03	1.264627E-03	1.933025E-05
3.390339E+03	1.301283E-03	1.980165E-05
3.400340E+03	1.338843E-03	2.028179E-05
3.410341E+03	1.376927E-03	2.076475E-05
3.420342E+03	1.415054E-03	2.124324E-05
3.430343E+03	1.452671E-03	2.170896E-05
3.440344E+03	1.489145E-03	2.215266E-05
3.450345E+03	1.523786E-03	2.256436E-05
3.460346E+03	1.556098E-03	2.293714E-05
3.470347E+03	1.585814E-03	2.326759E-05
3.480348E+03	1.612921E-03	2.355606E-05
3.490349E+03	1.637510E-03	2.380442E-05
3.500350E+03	1.659773E-03	2.401601E-05
3.510351E+03	1.679929E-03	2.419446E-05
3.520352E+03	1.698093E-03	2.434187E-05
3.530353E+03	1.714162E-03	2.445719E-05
3.540354E+03	1.727851E-03	2.453683E-05
3.550355E+03	1.738740E-03	2.457534E-05
3.560356E+03	1.746209E-03	2.456462E-05
3.570357E+03	1.749531E-03	2.449516E-05
3.580358E+03	1.748287E-03	2.436198E-05
3.590359E+03	1.743084E-03	2.417442E-05
3.600360E+03	1.734670E-03	2.394362E-05
3.610361E+03	1.723998E-03	2.368330E-05
3.620362E+03	1.712210E-03	2.340955E-05
3.630363E+03	1.700243E-03	2.313532E-05
3.640324E+03	1.597808E-03	2.163834E-05
3.645255E+03	1.601586E-03	2.163849E-05
3.650185E+03	1.602910E-03	2.160540E-05
3.655136E+03	1.605454E-03	2.158855E-05
3.660086E+03	1.608072E-03	2.157261E-05
3.665047E+03	1.608815E-03	2.153142E-05
3.670007E+03	1.609149E-03	2.148482E-05
3.674977E+03	1.605499E-03	2.138514E-05
3.679958E+03	1.600433E-03	2.126688E-05
3.684948E+03	1.595672E-03	2.115299E-05
3.689939E+03	1.591834E-03	2.105171E-05
3.694939E+03	1.588694E-03	2.095989E-05
3.699940E+03	1.586868E-03	2.088567E-05
3.704950E+03	1.582533E-03	2.077863E-05
3.709971E+03	1.579245E-03	2.068560E-05
3.715002E+03	1.577615E-03	2.061443E-05
3.720032E+03	1.572875E-03	2.050295E-05
3.725073E+03	1.571101E-03	2.043036E-05
3.730113E+03	1.570893E-03	2.037830E-05
3.735174E+03	1.569972E-03	2.031694E-05
3.740234E+03	1.564691E-03	2.019949E-05
3.745295E+03	1.557760E-03	2.006123E-05
3.750375E+03	1.549961E-03	1.991217E-05
3.755456E+03	1.541996E-03	1.976159E-05
3.760536E+03	1.535166E-03	1.962615E-05
3.765637E+03	1.527168E-03	1.947616E-05
3.770737E+03	1.520822E-03	1.934781E-05
3.775848E+03	1.516508E-03	1.924569E-05
3.780958E+03	1.512930E-03	1.915326E-05
3.786079E+03	1.511331E-03	1.908609E-05
3.791209E+03	1.513642E-03	1.906830E-05
3.796350E+03	1.514603E-03	1.903345E-05
3.801490E+03	1.516801E-03	1.901417E-05
3.806641E+03	1.517995E-03	1.898225E-05
3.811801E+03	1.514718E-03	1.889452E-05
3.816962E+03	1.511399E-03	1.880661E-05
3.822132E+03	1.506452E-03	1.869873E-05
3.827313E+03	1.502744E-03	1.860655E-05
3.832493E+03	1.501469E-03	1.854479E-05
3.837684E+03	1.500484E-03	1.848674E-05
3.842884E+03	1.501237E-03	1.845016E-05
3.848095E+03	1.502275E-03	1.841708E-05
3.853305E+03	1.503346E-03	1.838450E-05
3.858526E+03	1.502368E-03	1.832692E-05
3.863756E+03	1.498884E-03	1.823897E-05
3.868987E+03	1.493582E-03	1.812931E-05
3.874227E+03	1.485959E-03	1.799194E-05
3.879478E+03	1.478555E-03	1.785775E-05
3.884728E+03	1.471289E-03	1.772583E-05
3.889999E+03	1.470723E-03	1.767485E-05
3.895260E+03	1.472174E-03	1.764834E-05
3.900540E+03	1.464872E-03	1.751707E-05
3.905821E+03	1.450996E-03	1.730798E-05
3.911121E+03	1.432072E-03	1.703966E-05
3.916412E+03	1.409384E-03	1.672804E-05
3.921722E+03	1.387701E-03	1.642967E-05
3.927033E+03	1.371160E-03	1.619347E-05
3.932353E+03	1.355527E-03	1.596904E-05
3.937684E+03	1.340800E-03	1.575626E-05
3.943014E+03	1.328683E-03	1.557512E-05
3.948355E+03	1.320618E-03	1.544215E-05
3.953705E+03	1.315179E-03	1.534039E-05
3.959066E+03	1.312108E-03	1.526660E-05
3.964426E+03	1.309910E-03	1.520329E-05
3.969797E+03	1.304527E-03	1.510335E-05
3.975178E+03	1.294570E-03	1.495100E-05
3.980558E+03	1.282656E-03	1.477687E-05
3.985949E+03	1.281305E-03	1.472491E-05
3.991349E+03	1.283815E-03	1.471742E-05
3.996760E+03	1.283930E-03	1.468252E-05
4.002170E+03	1.281622E-03	1.462017E-05
4.007591E+03	1.277799E-03	1.454083E-05
4.013021E+03	1.273038E-03	1.445120E-05
4.018462E+03	1.269264E-03	1.437315E-05
4.023902E+03	1.269127E-03	1.433660E-05
4.029353E+03	1.269352E-03	1.430427E-05
4.034813E+03	1.268879E-03	1.426423E-05
4.040284E+03	1.267832E-03	1.421794E-05
4.045755E+03	1.265365E-03	1.415604E-05
4.051235E+03	1.262534E-03	1.409036E-05
4.056726E+03	1.258369E-03	1.401016E-05
4.062216E+03	1.253648E-03	1.392421E-05
4.067727E+03	1.249253E-03	1.384225E-05
4.073237E+03	1.243457E-03	1.374526E-05
4.078748E+03	1.239245E-03	1.366628E-05
4.084278E+03	1.237891E-03	1.361909E-05
4.089809E+03	1.236982E-03	1.357708E-05
4.095350E+03	1.235308E-03	1.352694E-05
4.100900E+03	1.232913E-03	1.346921E-05
4.106451E+03	1.230203E-03	1.340842E-05
4.112021E+03	1.228573E-03	1.335964E-05
4.117592E+03	1.225908E-03	1.329998E-05
4.123162E+03	1.223250E-03	1.324079E-05
4.128753E+03	1.219239E-03	1.316728E-05
4.134343E+03	1.215675E-03	1.309905E-05
4.139944E+03	1.210927E-03	1.301849E-05
4.145555E+03	1.205158E-03	1.292743E-05
4.151165E+03	1.199444E-03	1.283751E-05
4.156796E+03	1.190458E-03	1.271311E-05
4.162426E+03	1.178694E-03	1.255981E-05
4.168067E+03	1.166485E-03	1.240257E-05
4.173707E+03	1.152223E-03	1.222439E-05
4.179368E+03	1.136067E-03	1.202701E-05
4.185029E+03	1.119836E-03	1.182987E-05
4.190699E+03	1.104941E-03	1.164778E-05
4.196370E+03	1.089929E-03	1.146542E-05
4.202060E+03	1.077729E-03	1.131344E-05
4.207751E+03	1.065055E-03	1.115731E-05
4.213451E+03	1.054832E-03	1.102760E-05
4.219162E+03	1.045336E-03	1.090616E-05
4.224872E+03	1.035555E-03	1.078245E-05
4.230603E+03	1.026224E-03	1.066404E-05
4.236334E+03	1.017850E-03	1.055624E-05
4.242064E+03	1.010430E-03	1.045894E-05
4.247815E+03	1.004188E-03	1.037434E-05
4.253575E+03	9.998937E-04	1.031034E-05
4.259336E+03	9.968484E-04	1.025966E-05
4.265107E+03	9.945435E-04	1.021698E-05
4.270877E+03	9.922084E-04	1.017439E-05
4.276668E+03	9.910308E-04	1.014397E-05
4.282458E+03	9.901276E-04	1.011673E-05
4.288259E+03	9.890741E-04	1.008826E-05
4.294069E+03	9.889046E-04	1.006914E-05
4.299890E+03	9.889279E-04	1.005227E-05
4.305711E+03	9.896416E-04	1.004274E-05
4.311551E+03	9.885977E-04	1.001566E-05
4.317392E+03	9.885506E-04	9.999033E-06
4.323232E+03	9.908282E-04	1.000622E-05
4.329093E+03	9.946194E-04	1.002887E-05
4.334953E+03	9.996571E-04	1.006428E-05
4.340834E+03	1.004643E-03	1.009930E-05
4.346715E+03	1.008712E-03	1.012528E-05
4.352595E+03	1.012282E-03	1.014647E-05
4.358496E+03	1.014672E-03	1.015602E-05
4.364396E+03	1.016380E-03	1.015900E-05
4.370317E+03	1.015974E-03	1.014109E-05
4.376238E+03	1.013503E-03	1.010293E-05
4.382158E+03	1.011230E-03	1.006710E-05
4.388099E+03	1.008587E-03	1.002791E-05
4.394039E+03	1.005541E-03	9.985079E-06
4.400000E+03	1.003850E-03	9.956009E-06
4.405961E+03	1.003251E-03	9.938082E-06
4.411921E+03	1.003031E-03	9.924195E-06
4.417902E+03	1.001579E-03	9.898383E-06
4.423892E+03	9.984191E-04	9.855993E-06
4.429883E+03	9.954191E-04	9.815515E-06
4.435884E+03	9.914245E-04	9.765548E-06
4.441894E+03	9.874783E-04	9.716380E-06
4.447905E+03	9.839900E-04	9.672044E-06
4.453935E+03	9.791396E-04	9.614615E-06
4.459966E+03	9.743781E-04	9.558394E-06
4.466007E+03	9.705533E-04	9.511661E-06
4.472057E+03	9.650049E-04	9.448340E-06
4.478118E+03	9.572234E-04	9.363483E-06
4.484188E+03	9.494618E-04	9.279164E-06
4.490259E+03	9.419057E-04	9.197198E-06
4.496340E+03	9.341120E-04	9.113234E-06
4.502430E+03	9.257882E-04	9.024419E-06
4.508531E+03	9.180348E-04	8.941476E-06
4.514641E+03	9.087275E-04	8.843709E-06
4.520762E+03	8.998091E-04	8.750038E-06
4.526883E+03	8.916448E-04	8.664005E-06
4.533013E+03	8.830634E-04	8.574200E-06
4.539154E+03	8.748675E-04	8.488415E-06
4.545305E+03	8.658916E-04	8.395331E-06
4.551465E+03	8.577374E-04	8.310475E-06
4.557626E+03	8.498589E-04	8.228546E-06
4.563806E+03	8.418897E-04	8.145968E-06
4.569987E+03	8.333261E-04	8.057882E-06
4.576178E+03	8.253620E-04	7.975821E-06
4.582378E+03	8.165866E-04	7.886141E-06
4.588589E+03	8.083015E-04	7.801415E-06
4.594799E+03	7.996053E-04	7.712937E-06
4.601030E+03	7.916130E-04	7.631442E-06
4.607261E+03	7.842890E-04	7.556586E-06
4.613501E+03	7.768390E-04	7.480693E-06
4.619752E+03	7.711656E-04	7.422073E-06
4.626013E+03	7.659364E-04	7.367875E-06
4.632273E+03	7.608647E-04	7.315340E-06
4.638554E+03	7.559833E-04	7.264761E-06
4.644834E+03	7.515441E-04	7.218562E-06
4.651125E+03	7.482940E-04	7.183900E-06
4.657426E+03	7.450879E-04	7.149766E-06
4.663736E+03	7.427096E-04	7.123671E-06
4.670057E+03	7.406934E-04	7.101140E-06
4.676388E+03	7.392163E-04	7.083858E-06
4.682718E+03	7.377805E-04	7.067055E-06
4.689059E+03	7.363847E-04	7.050707E-06
4.695410E+03	7.347100E-04	7.031761E-06
4.701770E+03	7.349509E-04	7.031213E-06
4.708141E+03	7.360415E-04	7.038842E-06
4.714521E+03	7.379432E-04	7.054270E-06
4.720912E+03	7.404772E-04	7.075778E-06
4.727303E+03	7.425507E-04	7.092921E-06
4.733713E+03	7.458871E-04	7.122151E-06
4.740124E+03	7.497468E-04	7.156401E-06
4.746545E+03	7.533190E-04	7.187926E-06
4.752975E+03	7.565695E-04	7.216400E-06
4.759416E+03	7.590438E-04	7.237491E-06
4.765857E+03	7.626012E-04	7.268932E-06
4.772317E+03	7.659419E-04	7.298319E-06
4.778778E+03	7.694532E-04	7.329349E-06
4.785259E+03	7.732022E-04	7.362650E-06
4.791739E+03	7.764582E-04	7.391272E-06
4.798230E+03	7.807543E-04	7.429803E-06
4.804730E+03	7.846955E-04	7.464962E-06
4.811241E+03	7.878308E-04	7.492462E-06
4.817762E+03	7.919341E-04	7.529176E-06
4.824282E+03	7.958587E-04	7.564198E-06
4.830823E+03	7.991520E-04	7.593220E-06
4.837364E+03	8.018533E-04	7.616630E-06
4.843914E+03	8.039975E-04	7.634758E-06
4.850475E+03	8.060011E-04	7.651563E-06
4.857046E+03	8.068289E-04	7.657221E-06
4.863626E+03	8.078638E-04	7.664862E-06
4.870217E+03	8.078651E-04	7.662714E-06
4.876818E+03	8.076617E-04	7.658646E-06
4.883428E+03	8.087330E-04	7.666685E-06
4.890039E+03	8.099774E-04	7.676381E-06
4.896660E+03	8.108780E-04	7.682834E-06
4.903300E+03	8.118805E-04	7.690266E-06
4.909941E+03	8.133298E-04	7.701946E-06
4.916592E+03	8.142991E-04	7.709095E-06
4.923252E+03	8.150636E-04	7.714322E-06
4.929923E+03	8.141890E-04	7.704056E-06
4.936604E+03	8.127379E-04	7.688362E-06
4.943284E+03	8.096906E-04	7.657604E-06
4.949985E+03	8.057301E-04	7.618246E-06
4.956696E+03	8.010987E-04	7.572588E-06
4.963406E+03	7.963091E-04	7.525482E-06
4.970127E+03	7.908510E-04	7.472107E-06
4.976868E+03	7.853025E-04	7.417925E-06
4.983608E+03	7.798350E-04	7.364561E-06
4.990359E+03	7.732959E-04	7.301132E-06
4.997120E+03	7.675153E-04	7.244920E-06
5.003890E+03	7.613754E-04	7.185371E-06
5.010671E+03	7.545395E-04	7.119311E-06
5.017452E+03	7.480902E-04	7.056961E-06
5.024252E+03	7.419572E-04	6.997652E-06
5.031053E+03	7.364784E-04	6.944572E-06
5.037874E+03	7.313473E-04	6.894827E-06
5.044694E+03	7.282799E-04	6.864592E-06
5.051535E+03	7.250511E-04	6.832888E-06
5.058376E+03	7.226704E-04	6.809230E-06
5.065227E+03	7.206652E-04	6.789163E-06
5.072087E+03	7.171910E-04	6.755313E-06
5.078958E+03	7.144284E-04	6.728224E-06
5.085839E+03	7.117395E-04	6.701891E-06
5.092729E+03	7.082553E-04	6.668131E-06
5.099630E+03	7.054473E-04	6.640804E-06
5.106541E+03	7.023459E-04	6.610782E-06
5.113461E+03	6.987854E-04	6.576508E-06
5.120382E+03	6.955671E-04	6.545529E-06
5.127323E+03	6.927551E-04	6.518447E-06
5.134263E+03	6.887205E-04	6.479937E-06
5.141224E+03	6.856910E-04	6.450964E-06
5.148185E+03	6.825369E-04	6.420900E-06
5.155166E+03	6.790577E-04	6.387861E-06
5.162146E+03	6.759188E-04	6.358110E-06
5.169137E+03	6.727544E-04	6.328208E-06
5.176138E+03	6.694650E-04	6.297221E-06
5.183158E+03	6.666125E-04	6.270438E-06
5.190179E+03	6.641644E-04	6.247555E-06
5.197210E+03	6.605999E-04	6.214270E-06
5.204250E+03	6.576374E-04	6.186750E-06
5.211301E+03	6.549787E-04	6.162192E-06
5.218362E+03	6.518328E-04	6.133157E-06
5.225433E+03	6.490890E-04	6.108017E-06
5.232503E+03	6.461225E-04	6.080892E-06
5.239594E+03	6.423736E-04	6.046520E-06
5.246695E+03	6.380091E-04	6.006469E-06
5.253805E+03	6.349008E-04	5.978361E-06
5.260916E+03	6.311773E-04	5.944582E-06
5.268047E+03	6.284442E-04	5.920256E-06
5.275188E+03	6.256852E-04	5.895816E-06
5.282328E+03	6.232607E-04	5.874660E-06
5.289489E+03	6.212667E-04	5.857703E-06
5.296650E+03	6.194423E-04	5.842485E-06
5.303830E+03	6.172636E-04	5.824074E-06
5.311011E+03	6.147651E-04	5.802791E-06
5.318202E+03	6.122402E-04	5.781408E-06
5.325413E+03	6.089717E-04	5.753155E-06
5.332623E+03	6.058089E-04	5.726045E-06
5.339854E+03	6.028155E-04	5.700691E-06
5.347085E+03	5.996343E-04	5.673713E-06
5.354325E+03	5.967204E-04	5.649419E-06
5.361586E+03	5.942996E-04	5.629962E-06
5.368847E+03	5.914639E-04	5.606736E-06
5.376118E+03	5.887643E-04	5.584967E-06
5.383398E+03	5.858123E-04	5.560971E-06
5.390699E+03	5.825425E-04	5.534130E-06
5.398000E+03	5.797337E-04	5.511833E-06
5.405311E+03	5.749589E-04	5.471002E-06
5.412631E+03	5.706458E-04	5.434711E-06
5.419962E+03	5.669868E-04	5.404806E-06
5.427313E+03	5.637547E-04	5.379139E-06
5.434663E+03	5.609170E-04	5.357390E-06
5.442024E+03	5.582791E-04	5.337711E-06
5.449395E+03	5.561307E-04	5.322872E-06
5.456776E+03	5.538588E-04	5.307010E-06
5.464166E+03	5.521396E-04	5.296599E-06
5.471577E+03	5.496209E-04	5.278677E-06
5.478988E+03	5.468512E-04	5.258465E-06
5.486409E+03	5.436699E-04	5.234410E-06
5.493839E+03	5.399494E-04	5.205262E-06
5.501280E+03	5.361074E-04	5.175022E-06
5.508731E+03	5.326570E-04	5.148640E-06
5.516202E+03	5.286679E-04	5.117128E-06
5.523672E+03	5.254547E-04	5.093180E-06
5.531153E+03	5.228555E-04	5.075260E-06
5.538644E+03	5.187580E-04	5.042852E-06
5.546155E+03	5.150825E-04	5.014591E-06
5.553665E+03	5.115095E-04	4.987354E-06
5.561186E+03	5.078786E-04	4.959580E-06
5.568727E+03	5.042534E-04	4.931895E-06
5.576268E+03	5.001240E-04	4.899274E-06
5.583818E+03	4.960646E-04	4.867333E-06
5.591389E+03	4.922660E-04	4.837954E-06
5.598960E+03	4.885372E-04	4.809241E-06
5.606541E+03	4.845275E-04	4.777745E-06
5.614141E+03	4.813826E-04	4.754771E-06
5.621742E+03	4.786879E-04	4.736235E-06
5.629363E+03	4.765059E-04	4.722794E-06
5.636984E+03	4.754717E-04	4.720755E-06
5.644624E+03	4.747889E-04	4.722273E-06
5.652275E+03	4.743621E-04	4.726401E-06
5.659926E+03	4.738107E-04	4.729339E-06
5.667597E+03	4.727536E-04	4.727288E-06
5.675278E+03	4.715087E-04	4.723391E-06
5.682958E+03	4.699182E-04	4.716039E-06
5.690659E+03	4.682037E-04	4.707458E-06
5.698370E+03	4.670298E-04	4.704321E-06
5.706091E+03	4.658582E-04	4.701222E-06
5.713821E+03	4.651630E-04	4.702951E-06
5.721562E+03	4.655756E-04	4.715928E-06
5.729313E+03	4.665887E-04	4.735063E-06
5.737074E+03	4.672863E-04	4.751073E-06
5.744844E+03	4.681734E-04	4.769085E-06
5.752625E+03	4.694390E-04	4.791033E-06
5.760416E+03	4.702315E-04	4.808229E-06
5.768227E+03	4.702989E-04	4.818072E-06
5.776038E+03	4.703043E-04	4.827301E-06
5.783868E+03	4.701526E-04	4.834955E-06
5.791699E+03	4.701908E-04	4.844572E-06
5.799550E+03	4.701979E-04	4.853903E-06
5.807401E+03	4.695454E-04	4.856420E-06
5.815272E+03	4.688310E-04	4.858297E-06
5.823152E+03	4.678348E-04	4.857236E-06
5.831033E+03	4.665889E-04	4.853536E-06
5.838934E+03	4.652189E-04	4.848513E-06
5.846845E+03	4.632854E-04	4.837558E-06
5.854765E+03	4.613854E-04	4.826879E-06
5.862696E+03	4.595499E-04	4.816803E-06
5.870637E+03	4.566822E-04	4.795811E-06
5.878598E+03	4.533787E-04	4.770129E-06
5.886559E+03	4.499841E-04	4.743338E-06
5.894529E+03	4.467492E-04	4.718091E-06
5.902520E+03	4.430475E-04	4.687776E-06
5.910511E+03	4.391305E-04	4.655011E-06
5.918522E+03	4.355913E-04	4.626099E-06
5.926543E+03	4.323673E-04	4.600386E-06
5.934563E+03	4.296144E-04	4.579539E-06
5.942604E+03	4.273936E-04	4.564257E-06
5.950655E+03	4.252990E-04	4.550219E-06
5.958716E+03	4.232370E-04	4.536425E-06
5.966797E+03	4.211138E-04	4.521879E-06
5.974877E+03	4.188364E-04	4.505557E-06
5.982968E+03	4.161556E-04	4.484773E-06
5.991079E+03	4.136319E-04	4.465563E-06
5.999190E+03	4.112342E-04	4.447580E-06
6.007321E+03	4.089933E-04	4.431183E-06
6.015452E+03	4.062253E-04	4.408938E-06
6.023602E+03	4.036452E-04	4.388608E-06
6.031763E+03	4.015631E-04	4.373571E-06
6.039934E+03	3.992647E-04	4.356062E-06
6.048125E+03	3.967191E-04	4.335738E-06
6.056316E+03	3.945159E-04	4.319022E-06
6.064516E+03	3.924683E-04	4.303896E-06
6.072737E+03	3.906382E-04	4.291054E-06
6.080958E+03	3.890563E-04	4.280828E-06
6.089199E+03	3.873507E-04	4.269151E-06
6.097450E+03	3.858307E-04	4.259423E-06
6.105711E+03	3.843107E-04	4.249600E-06
6.113981E+03	3.829761E-04	4.241736E-06
6.122262E+03	3.816719E-04	4.234121E-06
6.130553E+03	3.800280E-04	4.222644E-06
6.138864E+03	3.783222E-04	4.210387E-06
6.147175E+03	3.761539E-04	4.192865E-06
6.155506E+03	3.741707E-04	4.177301E-06
6.163846E+03	3.724650E-04	4.164729E-06
6.172197E+03	3.707282E-04	4.151707E-06
6.180558E+03	3.698528E-04	4.148247E-06
6.188929E+03	3.684227E-04	4.138483E-06
6.197310E+03	3.667462E-04	4.125858E-06
6.205711E+03	3.648848E-04	4.111059E-06
6.214121E+03	3.639442E-04	4.106545E-06
6.222532E+03	3.630641E-04	4.102635E-06
6.230963E+03	3.611395E-04	4.086842E-06
6.239404E+03	3.580808E-04	4.058092E-06
6.247855E+03	3.546251E-04	4.024696E-06
6.256326E+03	3.507116E-04	3.985952E-06
6.264796E+03	3.470755E-04	3.950193E-06
6.273287E+03	3.440832E-04	3.921623E-06
6.281788E+03	3.417028E-04	3.899903E-06
6.290299E+03	3.400556E-04	3.886450E-06
6.298820E+03	3.382552E-04	3.871155E-06
6.307351E+03	3.367896E-04	3.859604E-06
6.315892E+03	3.360850E-04	3.856704E-06
6.324452E+03	3.360787E-04	3.861776E-06
6.333013E+03	3.364044E-04	3.870627E-06
6.341594E+03	3.363005E-04	3.874509E-06
6.350185E+03	3.357678E-04	3.873407E-06
6.358786E+03	3.346556E-04	3.865562E-06
