#wls	flux	fluxerr
1.600160E+03	3.877213E-06	5.967273E-08
1.640164E+03	3.869703E-06	5.949809E-08
1.680168E+03	3.862809E-06	5.933168E-08
1.720172E+03	3.857200E-06	5.918369E-08
1.760176E+03	3.851523E-06	5.903334E-08
1.800180E+03	3.847134E-06	5.890135E-08
1.840184E+03	3.844041E-06	5.878778E-08
1.880188E+03	3.841595E-06	5.868264E-08
1.920192E+03	3.840489E-06	5.859644E-08
1.960196E+03	3.840764E-06	5.852971E-08
2.000200E+03	3.843117E-06	5.849297E-08
2.040204E+03	3.846965E-06	5.847722E-08
2.080208E+03	3.853035E-06	5.849341E-08
2.120212E+03	3.861430E-06	5.854292E-08
2.160216E+03	3.872283E-06	5.862762E-08
2.200220E+03	3.886380E-06	5.875922E-08
2.240224E+03	3.903915E-06	5.894040E-08
2.280228E+03	3.925123E-06	5.917447E-08
2.320232E+03	3.950912E-06	5.947481E-08
2.360236E+03	3.981628E-06	5.984627E-08
2.400240E+03	4.017693E-06	6.029482E-08
2.440244E+03	4.060830E-06	6.084587E-08
2.480248E+03	4.111050E-06	6.149900E-08
2.520252E+03	4.169101E-06	6.226484E-08
2.560256E+03	4.237686E-06	6.318303E-08
2.600260E+03	4.316699E-06	6.425111E-08
2.640264E+03	4.409267E-06	6.551471E-08
2.680268E+03	4.516417E-06	6.698790E-08
2.720272E+03	4.641339E-06	6.871664E-08
2.760276E+03	4.785875E-06	7.072662E-08
2.800280E+03	4.955491E-06	7.309674E-08
2.840284E+03	5.152756E-06	7.586260E-08
2.880288E+03	5.384293E-06	7.911903E-08
2.920292E+03	5.656181E-06	8.295209E-08
2.960296E+03	5.977523E-06	8.749137E-08
3.000300E+03	6.359893E-06	9.290135E-08
3.010301E+03	6.465918E-06	9.440233E-08
3.020302E+03	6.577345E-06	9.598045E-08
3.030303E+03	6.694466E-06	9.763983E-08
3.040304E+03	6.816866E-06	9.937431E-08
3.050305E+03	6.944857E-06	1.011883E-07
3.060306E+03	7.079500E-06	1.030971E-07
3.070307E+03	7.220442E-06	1.050955E-07
3.080308E+03	7.368069E-06	1.071889E-07
3.090309E+03	7.523558E-06	1.093942E-07
3.100310E+03	7.687391E-06	1.117184E-07
3.110311E+03	7.859316E-06	1.141574E-07
3.120312E+03	8.040653E-06	1.167304E-07
3.130313E+03	8.231217E-06	1.194344E-07
3.140314E+03	8.432447E-06	1.222900E-07
3.150315E+03	8.645061E-06	1.253075E-07
3.160316E+03	8.869003E-06	1.284857E-07
3.170317E+03	9.106775E-06	1.318606E-07
3.180318E+03	9.357606E-06	1.354207E-07
3.190319E+03	9.622432E-06	1.391793E-07
3.200320E+03	9.904083E-06	1.431769E-07
3.210321E+03	1.020192E-05	1.474040E-07
3.220322E+03	1.051903E-05	1.519046E-07
3.230323E+03	1.085488E-05	1.566707E-07
3.240324E+03	1.121284E-05	1.617504E-07
3.250325E+03	1.159251E-05	1.671374E-07
3.260326E+03	1.199754E-05	1.728839E-07
3.270327E+03	1.242768E-05	1.789856E-07
3.280328E+03	1.288689E-05	1.854989E-07
3.290329E+03	1.337612E-05	1.924370E-07
3.300330E+03	1.389746E-05	1.998290E-07
3.310331E+03	1.445306E-05	2.077050E-07
3.320332E+03	1.504634E-05	2.161136E-07
3.329163E+03	1.605736E-05	2.305242E-07
3.333673E+03	1.626719E-05	2.334793E-07
3.338184E+03	1.640368E-05	2.353804E-07
3.342714E+03	1.661968E-05	2.384209E-07
3.347235E+03	1.653060E-05	2.370845E-07
3.351775E+03	1.642391E-05	2.354960E-07
3.356316E+03	1.621444E-05	2.324349E-07
3.360856E+03	1.601507E-05	2.295199E-07
3.365417E+03	1.572340E-05	2.252837E-07
3.369977E+03	1.555232E-05	2.227769E-07
3.374537E+03	1.541002E-05	2.206835E-07
3.379108E+03	1.524546E-05	2.182723E-07
3.383688E+03	1.521927E-05	2.178425E-07
3.388269E+03	1.553165E-05	2.222581E-07
3.392859E+03	1.583397E-05	2.265273E-07
3.397460E+03	1.612022E-05	2.305644E-07
3.402060E+03	1.657092E-05	2.369508E-07
3.406671E+03	1.708144E-05	2.441891E-07
3.411281E+03	1.762466E-05	2.518909E-07
3.415902E+03	1.807886E-05	2.583169E-07
3.420532E+03	1.864764E-05	2.663760E-07
3.425163E+03	1.958067E-05	2.796329E-07
3.429803E+03	2.026838E-05	2.893803E-07
3.434453E+03	2.112631E-05	3.015524E-07
3.439104E+03	2.228389E-05	3.179940E-07
3.443764E+03	2.371872E-05	3.383826E-07
3.448435E+03	2.488420E-05	3.549187E-07
3.453105E+03	2.613825E-05	3.727092E-07
3.457776E+03	2.676660E-05	3.815708E-07
3.462466E+03	2.734078E-05	3.896555E-07
3.467157E+03	2.779563E-05	3.960358E-07
3.471847E+03	2.837596E-05	4.042001E-07
3.476558E+03	2.901889E-05	4.132510E-07
3.481268E+03	2.956932E-05	4.209805E-07
3.485979E+03	2.998614E-05	4.268041E-07
3.490699E+03	3.040349E-05	4.326320E-07
3.495430E+03	3.065026E-05	4.360299E-07
3.500170E+03	3.064975E-05	4.359089E-07
3.504910E+03	3.021993E-05	4.296839E-07
3.509661E+03	2.927686E-05	4.161660E-07
3.514411E+03	2.797084E-05	3.974972E-07
3.519172E+03	2.660318E-05	3.779622E-07
3.523942E+03	2.535551E-05	3.601416E-07
3.528713E+03	2.421299E-05	3.438234E-07
3.533493E+03	2.309123E-05	3.278082E-07
3.538284E+03	2.233750E-05	3.170247E-07
3.543074E+03	2.150454E-05	3.051225E-07
3.547875E+03	2.101648E-05	2.981189E-07
3.552685E+03	2.042408E-05	2.896392E-07
3.557496E+03	1.997923E-05	2.832558E-07
3.562316E+03	1.994545E-05	2.827020E-07
3.567137E+03	2.017120E-05	2.858262E-07
3.571977E+03	2.049807E-05	2.903809E-07
3.576808E+03	2.110856E-05	2.989500E-07
3.581658E+03	2.200469E-05	3.115586E-07
3.586509E+03	2.333861E-05	3.303575E-07
3.591369E+03	2.496820E-05	3.533302E-07
3.596230E+03	2.628379E-05	3.718484E-07
3.601110E+03	2.774239E-05	3.923792E-07
3.605981E+03	2.931276E-05	4.144795E-07
3.610871E+03	3.073668E-05	4.344976E-07
3.615762E+03	3.174638E-05	4.486510E-07
3.620662E+03	3.216016E-05	4.543773E-07
3.625563E+03	3.187067E-05	4.501668E-07
3.630473E+03	3.102793E-05	4.381460E-07
3.635394E+03	2.962443E-05	4.182151E-07
3.640324E+03	2.804725E-05	3.958435E-07
3.645255E+03	2.653785E-05	3.744403E-07
3.650185E+03	2.554211E-05	3.602943E-07
3.655136E+03	2.515782E-05	3.547782E-07
3.660086E+03	2.541749E-05	3.583438E-07
3.665047E+03	2.608728E-05	3.676880E-07
3.670007E+03	2.709131E-05	3.817369E-07
3.674977E+03	2.840983E-05	4.002083E-07
3.679958E+03	2.986686E-05	4.206201E-07
3.684948E+03	3.101239E-05	4.366353E-07
3.689939E+03	3.184160E-05	4.481895E-07
3.694939E+03	3.240757E-05	4.560331E-07
3.699940E+03	3.282066E-05	4.617218E-07
3.704950E+03	3.348895E-05	4.709967E-07
3.709971E+03	3.439831E-05	4.836558E-07
3.715002E+03	3.574929E-05	5.025158E-07
3.720032E+03	3.764492E-05	5.290197E-07
3.725073E+03	3.962183E-05	5.566511E-07
3.730113E+03	4.167468E-05	5.853344E-07
3.735174E+03	4.316957E-05	6.061671E-07
3.740234E+03	4.410249E-05	6.191001E-07
3.745295E+03	4.428322E-05	6.214700E-07
3.750375E+03	4.339593E-05	6.088538E-07
3.755456E+03	4.140411E-05	5.807519E-07
3.760536E+03	3.857605E-05	5.409390E-07
3.765637E+03	3.517126E-05	4.930621E-07
3.770737E+03	3.148607E-05	4.412811E-07
3.775848E+03	2.813055E-05	3.941472E-07
3.780958E+03	2.523300E-05	3.534538E-07
3.786079E+03	2.296309E-05	3.215715E-07
3.791209E+03	2.110727E-05	2.955035E-07
3.796350E+03	1.957024E-05	2.739115E-07
3.801490E+03	1.814072E-05	2.538355E-07
3.806641E+03	1.688806E-05	2.362443E-07
3.811801E+03	1.601461E-05	2.239659E-07
3.816962E+03	1.546741E-05	2.162554E-07
3.822132E+03	1.527431E-05	2.134986E-07
3.827313E+03	1.508938E-05	2.108574E-07
3.832493E+03	1.497014E-05	2.091354E-07
3.837684E+03	1.483682E-05	2.072177E-07
3.842884E+03	1.469120E-05	2.051293E-07
3.848095E+03	1.463038E-05	2.042258E-07
3.853305E+03	1.463355E-05	2.042158E-07
3.858526E+03	1.460611E-05	2.037788E-07
3.863756E+03	1.458331E-05	2.034069E-07
3.868987E+03	1.472495E-05	2.053281E-07
3.874227E+03	1.504226E-05	2.096974E-07
3.879478E+03	1.575025E-05	2.195093E-07
3.884728E+03	1.711770E-05	2.385046E-07
3.889999E+03	2.012228E-05	2.802942E-07
3.895260E+03	2.439340E-05	3.396999E-07
3.900540E+03	2.929290E-05	4.078229E-07
3.905821E+03	3.500373E-05	4.872032E-07
3.911121E+03	4.137342E-05	5.757098E-07
3.916412E+03	4.792036E-05	6.666366E-07
3.921722E+03	5.414831E-05	7.530798E-07
3.927033E+03	5.962808E-05	8.290758E-07
3.932353E+03	6.319840E-05	8.784903E-07
3.937684E+03	6.473947E-05	8.996793E-07
3.943014E+03	6.452091E-05	8.964110E-07
3.948355E+03	6.241580E-05	8.669409E-07
3.953705E+03	5.893561E-05	8.183917E-07
3.959066E+03	5.488437E-05	7.619402E-07
3.964426E+03	5.083200E-05	7.055024E-07
3.969797E+03	4.753992E-05	6.596433E-07
3.975178E+03	4.545596E-05	6.305669E-07
3.980558E+03	4.457695E-05	6.182167E-07
3.985949E+03	4.600434E-05	6.378514E-07
3.991349E+03	4.894104E-05	6.783980E-07
3.996760E+03	5.253180E-05	7.279886E-07
4.002170E+03	5.679846E-05	7.869193E-07
4.007591E+03	6.088530E-05	8.433304E-07
4.013021E+03	6.426489E-05	8.899202E-07
4.018462E+03	6.692980E-05	9.265932E-07
4.023902E+03	6.920487E-05	9.578534E-07
4.029353E+03	7.052276E-05	9.758540E-07
4.034813E+03	7.130958E-05	9.864997E-07
4.040284E+03	7.207464E-05	9.968399E-07
4.045755E+03	7.264446E-05	1.004477E-06
4.051235E+03	7.270098E-05	1.005015E-06
4.056726E+03	7.243197E-05	1.001054E-06
4.062216E+03	7.159884E-05	9.893023E-07
4.067727E+03	7.083041E-05	9.784503E-07
4.073237E+03	7.064010E-05	9.755890E-07
4.078748E+03	7.043504E-05	9.725267E-07
4.084278E+03	7.011766E-05	9.679160E-07
4.089809E+03	6.937336E-05	9.574167E-07
4.095350E+03	6.832498E-05	9.427278E-07
4.100900E+03	6.725094E-05	9.276927E-07
4.106451E+03	6.634291E-05	9.149556E-07
4.112021E+03	6.576005E-05	9.067083E-07
4.117592E+03	6.573390E-05	9.061404E-07
4.123162E+03	6.635131E-05	9.144436E-07
4.128753E+03	6.754362E-05	9.306652E-07
4.134343E+03	6.951344E-05	9.575915E-07
4.139944E+03	7.171101E-05	9.876437E-07
4.145555E+03	7.339475E-05	1.010609E-06
4.151165E+03	7.387733E-05	1.017029E-06
4.156796E+03	7.322377E-05	1.007811E-06
4.162426E+03	7.143765E-05	9.830137E-07
4.168067E+03	6.895664E-05	9.486686E-07
4.173707E+03	6.637403E-05	9.129426E-07
4.179368E+03	6.309658E-05	8.676776E-07
4.185029E+03	5.913879E-05	8.130797E-07
4.190699E+03	5.478648E-05	7.530831E-07
4.196370E+03	5.086452E-05	6.990271E-07
4.202060E+03	4.767678E-05	6.550827E-07
4.207751E+03	4.584180E-05	6.297409E-07
4.213451E+03	4.498336E-05	6.178227E-07
4.219162E+03	4.509413E-05	6.192192E-07
4.224872E+03	4.592084E-05	6.304455E-07
4.230603E+03	4.752852E-05	6.523879E-07
4.236334E+03	4.979045E-05	6.833018E-07
4.242064E+03	5.227255E-05	7.172259E-07
4.247815E+03	5.430571E-05	7.449793E-07
4.253575E+03	5.549584E-05	7.611607E-07
4.259336E+03	5.619017E-05	7.705387E-07
4.265107E+03	5.678651E-05	7.785712E-07
4.270877E+03	5.821040E-05	7.979465E-07
4.276668E+03	6.088819E-05	8.345012E-07
4.282458E+03	6.388694E-05	8.754428E-07
4.288259E+03	6.645470E-05	9.104667E-07
4.294069E+03	6.814702E-05	9.334881E-07
4.299890E+03	6.907255E-05	9.460017E-07
4.305711E+03	6.911587E-05	9.464327E-07
4.311551E+03	6.861682E-05	9.394398E-07
4.317392E+03	6.718547E-05	9.196895E-07
4.323232E+03	6.537483E-05	8.947569E-07
4.329093E+03	6.371233E-05	8.718614E-07
4.334953E+03	6.269267E-05	8.577710E-07
4.340834E+03	6.229753E-05	8.522302E-07
4.346715E+03	6.248700E-05	8.546896E-07
4.352595E+03	6.296477E-05	8.610933E-07
4.358496E+03	6.293314E-05	8.605316E-07
4.364396E+03	6.200623E-05	8.477325E-07
4.370317E+03	5.960728E-05	8.148166E-07
4.376238E+03	5.640800E-05	7.709736E-07
4.382158E+03	5.278036E-05	7.212913E-07
4.388099E+03	4.910322E-05	6.709481E-07
4.394039E+03	4.588503E-05	6.268907E-07
4.400000E+03	4.354005E-05	5.947750E-07
4.405961E+03	4.260473E-05	5.819235E-07
4.411921E+03	4.306020E-05	5.880709E-07
4.417902E+03	4.496313E-05	6.139838E-07
4.423892E+03	4.746262E-05	6.480375E-07
4.429883E+03	5.014783E-05	6.846205E-07
4.435884E+03	5.276654E-05	7.202896E-07
4.441894E+03	5.504530E-05	7.513127E-07
4.447905E+03	5.700950E-05	7.780384E-07
4.453935E+03	5.858377E-05	7.994398E-07
4.459966E+03	5.989787E-05	8.172892E-07
4.466007E+03	6.099869E-05	8.322278E-07
4.472057E+03	6.185766E-05	8.438664E-07
4.478118E+03	6.226301E-05	8.493177E-07
4.484188E+03	6.270356E-05	8.552505E-07
4.490259E+03	6.298185E-05	8.589720E-07
4.496340E+03	6.322718E-05	8.622458E-07
4.502430E+03	6.388088E-05	8.710902E-07
4.508531E+03	6.492464E-05	8.852543E-07
4.514641E+03	6.660897E-05	9.081523E-07
4.520762E+03	6.898695E-05	9.405061E-07
4.526883E+03	7.197905E-05	9.812298E-07
4.533013E+03	7.527646E-05	1.026113E-06
4.539154E+03	7.880719E-05	1.074173E-06
4.545305E+03	8.236692E-05	1.122625E-06
4.551465E+03	8.549403E-05	1.165179E-06
4.557626E+03	8.826413E-05	1.202866E-06
4.563806E+03	9.033428E-05	1.231014E-06
4.569987E+03	9.183048E-05	1.251341E-06
4.576178E+03	9.288550E-05	1.265658E-06
4.582378E+03	9.358552E-05	1.275140E-06
4.588589E+03	9.404517E-05	1.281350E-06
4.594799E+03	9.450387E-05	1.287550E-06
4.601030E+03	9.451571E-05	1.287665E-06
4.607261E+03	9.376429E-05	1.277386E-06
4.613501E+03	9.224698E-05	1.256676E-06
4.619752E+03	9.006813E-05	1.226959E-06
4.626013E+03	8.763088E-05	1.193727E-06
4.632273E+03	8.509221E-05	1.159119E-06
4.638554E+03	8.229575E-05	1.121003E-06
4.644834E+03	7.944108E-05	1.082098E-06
4.651125E+03	7.741989E-05	1.054551E-06
4.657426E+03	7.679548E-05	1.046032E-06
4.663736E+03	7.717898E-05	1.051245E-06
4.670057E+03	7.810071E-05	1.063792E-06
4.676388E+03	7.840415E-05	1.067919E-06
4.682718E+03	7.639315E-05	1.040525E-06
4.689059E+03	7.170661E-05	9.766907E-07
4.695410E+03	6.493989E-05	8.845254E-07
4.701770E+03	5.728155E-05	7.802170E-07
4.708141E+03	5.023928E-05	6.843007E-07
4.714521E+03	4.469205E-05	6.087484E-07
4.720912E+03	4.143212E-05	5.643514E-07
4.727303E+03	4.078749E-05	5.555784E-07
4.733713E+03	4.297941E-05	5.854446E-07
4.740124E+03	4.768933E-05	6.496126E-07
4.746545E+03	5.365485E-05	7.308883E-07
4.752975E+03	5.941232E-05	8.093352E-07
4.759416E+03	6.390624E-05	8.705746E-07
4.765857E+03	6.692427E-05	9.117129E-07
4.772317E+03	6.871496E-05	9.361349E-07
4.778778E+03	6.975485E-05	9.503315E-07
4.785259E+03	7.075788E-05	9.640291E-07
4.791739E+03	7.234872E-05	9.857382E-07
4.798230E+03	7.372675E-05	1.004551E-06
4.804730E+03	7.466809E-05	1.017418E-06
4.811241E+03	7.490042E-05	1.020626E-06
4.817762E+03	7.421159E-05	1.011284E-06
4.824282E+03	7.301970E-05	9.950877E-07
4.830823E+03	7.201409E-05	9.814303E-07
4.837364E+03	7.143206E-05	9.735466E-07
4.843914E+03	7.098303E-05	9.674765E-07
4.850475E+03	7.057603E-05	9.619808E-07
4.857046E+03	7.030511E-05	9.583411E-07
4.863626E+03	6.999933E-05	9.542275E-07
4.870217E+03	6.942205E-05	9.464140E-07
4.876818E+03	6.834429E-05	9.317778E-07
4.883428E+03	6.654462E-05	9.072988E-07
4.890039E+03	6.394825E-05	8.719549E-07
4.896660E+03	6.074427E-05	8.283223E-07
4.903300E+03	5.719062E-05	7.799170E-07
4.909941E+03	5.393991E-05	7.356378E-07
4.916592E+03	5.170496E-05	7.052076E-07
4.923252E+03	5.114467E-05	6.976167E-07
4.929923E+03	5.215859E-05	7.114998E-07
4.936604E+03	5.424899E-05	7.400716E-07
4.943284E+03	5.735482E-05	7.825025E-07
4.949985E+03	6.223631E-05	8.491691E-07
4.956696E+03	6.873083E-05	9.378581E-07
4.963406E+03	7.593542E-05	1.036253E-06
4.970127E+03	8.302193E-05	1.133054E-06
4.976868E+03	8.908907E-05	1.215960E-06
4.983608E+03	9.334858E-05	1.274208E-06
4.990359E+03	9.535447E-05	1.301704E-06
4.997120E+03	9.518749E-05	1.299541E-06
5.003890E+03	9.333627E-05	1.274384E-06
5.010671E+03	9.066502E-05	1.238026E-06
5.017452E+03	8.784012E-05	1.199565E-06
5.024252E+03	8.510126E-05	1.162273E-06
5.031053E+03	8.238015E-05	1.125218E-06
5.037874E+03	7.979271E-05	1.089984E-06
5.044694E+03	7.776209E-05	1.062350E-06
5.051535E+03	7.576159E-05	1.035124E-06
5.058376E+03	7.308935E-05	9.987154E-07
5.065227E+03	6.948135E-05	9.495122E-07
5.072087E+03	6.558640E-05	8.963782E-07
5.078958E+03	6.209188E-05	8.487074E-07
5.085839E+03	5.954371E-05	8.139641E-07
5.092729E+03	5.881852E-05	8.041371E-07
5.099630E+03	6.012195E-05	8.220463E-07
5.106541E+03	6.336420E-05	8.664725E-07
5.113461E+03	6.811039E-05	9.314772E-07
5.120382E+03	7.344354E-05	1.004525E-06
5.127323E+03	7.837518E-05	1.072099E-06
5.134263E+03	8.248779E-05	1.128484E-06
5.141224E+03	8.568877E-05	1.172410E-06
5.148185E+03	8.779865E-05	1.201416E-06
5.155166E+03	8.891768E-05	1.216871E-06
5.162146E+03	8.928080E-05	1.221984E-06
5.169137E+03	8.925968E-05	1.221839E-06
5.176138E+03	8.892250E-05	1.217369E-06
5.183158E+03	8.842101E-05	1.210648E-06
5.190179E+03	8.788328E-05	1.203431E-06
5.197210E+03	8.762753E-05	1.200075E-06
5.204250E+03	8.767309E-05	1.200846E-06
5.211301E+03	8.796234E-05	1.204956E-06
5.218362E+03	8.839437E-05	1.211024E-06
5.225433E+03	8.859831E-05	1.213970E-06
5.232503E+03	8.862825E-05	1.214532E-06
5.239594E+03	8.870434E-05	1.215728E-06
5.246695E+03	8.873003E-05	1.216234E-06
5.253805E+03	8.856246E-05	1.214091E-06
5.260916E+03	8.824213E-05	1.209854E-06
5.268047E+03	8.806472E-05	1.207577E-06
5.275188E+03	8.822892E-05	1.209985E-06
5.282328E+03	8.897912E-05	1.220431E-06
5.289489E+03	9.016445E-05	1.236850E-06
5.296650E+03	9.128790E-05	1.252424E-06
5.303830E+03	9.215769E-05	1.264523E-06
5.311011E+03	9.288044E-05	1.274608E-06
5.318202E+03	9.333438E-05	1.281006E-06
5.325413E+03	9.338839E-05	1.281917E-06
5.332623E+03	9.307673E-05	1.277809E-06
5.339854E+03	9.263699E-05	1.271941E-06
5.347085E+03	9.225378E-05	1.266849E-06
5.354325E+03	9.207453E-05	1.264557E-06
5.361586E+03	9.236749E-05	1.268750E-06
5.368847E+03	9.315117E-05	1.279687E-06
5.376118E+03	9.423751E-05	1.294786E-06
5.383398E+03	9.529864E-05	1.309542E-06
5.390699E+03	9.600129E-05	1.319376E-06
5.398000E+03	9.623247E-05	1.322733E-06
5.405311E+03	9.585324E-05	1.317699E-06
5.412631E+03	9.497283E-05	1.305774E-06
5.419962E+03	9.354714E-05	1.286347E-06
5.427313E+03	9.169145E-05	1.261002E-06
5.434663E+03	8.962490E-05	1.232750E-06
5.442024E+03	8.756860E-05	1.204631E-06
5.449395E+03	8.573654E-05	1.179590E-06
5.456776E+03	8.441311E-05	1.161540E-06
5.464166E+03	8.396565E-05	1.155541E-06
5.471577E+03	8.476325E-05	1.166678E-06
5.478988E+03	8.687357E-05	1.195888E-06
5.486409E+03	9.021202E-05	1.242015E-06
5.493839E+03	9.471056E-05	1.304129E-06
5.501280E+03	1.000566E-04	1.377931E-06
5.508731E+03	1.057203E-04	1.456127E-06
5.516202E+03	1.110962E-04	1.530381E-06
5.523672E+03	1.155434E-04	1.591860E-06
5.531153E+03	1.187757E-04	1.636617E-06
5.538644E+03	1.204059E-04	1.659306E-06
5.546155E+03	1.202976E-04	1.658040E-06
5.553665E+03	1.182803E-04	1.630459E-06
5.561186E+03	1.146024E-04	1.579974E-06
5.568727E+03	1.096769E-04	1.512275E-06
5.576268E+03	1.039768E-04	1.433873E-06
5.583818E+03	9.798181E-05	1.351383E-06
5.591389E+03	9.219563E-05	1.271751E-06
5.598960E+03	8.708840E-05	1.201463E-06
5.606541E+03	8.310902E-05	1.146718E-06
5.614141E+03	8.047298E-05	1.110495E-06
5.621742E+03	7.885324E-05	1.088289E-06
5.629363E+03	7.792994E-05	1.075689E-06
5.636984E+03	7.755574E-05	1.070666E-06
5.644624E+03	7.732740E-05	1.067655E-06
5.652275E+03	7.695731E-05	1.062686E-06
5.659926E+03	7.596343E-05	1.049099E-06
5.667597E+03	7.410476E-05	1.023564E-06
5.675278E+03	7.116364E-05	9.830677E-07
5.682958E+03	6.714651E-05	9.276945E-07
5.690659E+03	6.190879E-05	8.554407E-07
5.698370E+03	5.568958E-05	7.696041E-07
5.706091E+03	4.892138E-05	6.761572E-07
5.713821E+03	4.207260E-05	5.815721E-07
5.721562E+03	3.561597E-05	4.923841E-07
5.729313E+03	2.996741E-05	4.143459E-07
5.737074E+03	2.554955E-05	3.533062E-07
5.744844E+03	2.264138E-05	3.131302E-07
5.752625E+03	2.157967E-05	2.984837E-07
5.760416E+03	2.239476E-05	3.097959E-07
5.768227E+03	2.501781E-05	3.461239E-07
5.776038E+03	2.923000E-05	4.044490E-07
5.783868E+03	3.470858E-05	4.803127E-07
5.791699E+03	4.117693E-05	5.698926E-07
5.799550E+03	4.847796E-05	6.710193E-07
5.807401E+03	5.639262E-05	7.806638E-07
5.815272E+03	6.472099E-05	8.960614E-07
5.823152E+03	7.340936E-05	1.016470E-06
5.831033E+03	8.188276E-05	1.133928E-06
5.838934E+03	8.952205E-05	1.239860E-06
5.846845E+03	9.567385E-05	1.325211E-06
5.854765E+03	1.000165E-04	1.385518E-06
5.862696E+03	1.027031E-04	1.422893E-06
5.870637E+03	1.041437E-04	1.443011E-06
5.878598E+03	1.044004E-04	1.446724E-06
5.886559E+03	1.037587E-04	1.437988E-06
5.894529E+03	1.024969E-04	1.420652E-06
5.902520E+03	1.009223E-04	1.398976E-06
5.910511E+03	9.951890E-05	1.379666E-06
5.918522E+03	9.856968E-05	1.366648E-06
5.926543E+03	9.800019E-05	1.358892E-06
5.934563E+03	9.741661E-05	1.350936E-06
5.942604E+03	9.649016E-05	1.338222E-06
5.950655E+03	9.471752E-05	1.313768E-06
5.958716E+03	9.192212E-05	1.275119E-06
5.966797E+03	8.843155E-05	1.226817E-06
5.974877E+03	8.461779E-05	1.174020E-06
5.982968E+03	8.070270E-05	1.119806E-06
5.991079E+03	7.672883E-05	1.064765E-06
5.999190E+03	7.281438E-05	1.010536E-06
6.007321E+03	6.922758E-05	9.608442E-07
6.015452E+03	6.629015E-05	9.201558E-07
6.023602E+03	6.388551E-05	8.868552E-07
6.031763E+03	6.209033E-05	8.620090E-07
6.039934E+03	6.080963E-05	8.443004E-07
6.048125E+03	5.977152E-05	8.299563E-07
6.056316E+03	5.896046E-05	8.187616E-07
6.064516E+03	5.839363E-05	8.109558E-07
