#wls	flux	fluxerr
1.600160E+03	2.331493E-06	8.699870E-08
1.640164E+03	2.330446E-06	8.670856E-08
1.680168E+03	2.330068E-06	8.643645E-08
1.720172E+03	2.330432E-06	8.618478E-08
1.760176E+03	2.331220E-06	8.594136E-08
1.800180E+03	2.333323E-06	8.573866E-08
1.840184E+03	2.336448E-06	8.556527E-08
1.880188E+03	2.340707E-06	8.542479E-08
1.920192E+03	2.346629E-06	8.533576E-08
1.960196E+03	2.353967E-06	8.528846E-08
2.000200E+03	2.362886E-06	8.528796E-08
2.040204E+03	2.373574E-06	8.534022E-08
2.080208E+03	2.386639E-06	8.546596E-08
2.120212E+03	2.402322E-06	8.567245E-08
2.160216E+03	2.420497E-06	8.595378E-08
2.200220E+03	2.441473E-06	8.631940E-08
2.240224E+03	2.466399E-06	8.680805E-08
2.280228E+03	2.494880E-06	8.740357E-08
2.320232E+03	2.527775E-06	8.813376E-08
2.360236E+03	2.565618E-06	8.901440E-08
2.400240E+03	2.609024E-06	9.006356E-08
2.440244E+03	2.658704E-06	9.130215E-08
2.480248E+03	2.715489E-06	9.275444E-08
2.520252E+03	2.780351E-06	9.444875E-08
2.560256E+03	2.854869E-06	9.643297E-08
2.600260E+03	2.939983E-06	9.873212E-08
2.640264E+03	3.037313E-06	1.013929E-07
2.680268E+03	3.149279E-06	1.044869E-07
2.720272E+03	3.277789E-06	1.080667E-07
2.760276E+03	3.426232E-06	1.122312E-07
2.800280E+03	3.598205E-06	1.170829E-07
2.840284E+03	3.798175E-06	1.227486E-07
2.880288E+03	4.031152E-06	1.293681E-07
2.920292E+03	4.305270E-06	1.371754E-07
2.960296E+03	4.628223E-06	1.463820E-07
3.000300E+03	5.011822E-06	1.573208E-07
3.010301E+03	5.118812E-06	1.603711E-07
3.020302E+03	5.231299E-06	1.635791E-07
3.030303E+03	5.348133E-06	1.669079E-07
3.040304E+03	5.471036E-06	1.704101E-07
3.050305E+03	5.599586E-06	1.740716E-07
3.060306E+03	5.734100E-06	1.779009E-07
3.070307E+03	5.874900E-06	1.819069E-07
3.080308E+03	6.022335E-06	1.860990E-07
3.090309E+03	6.177589E-06	1.905126E-07
3.100310E+03	6.340257E-06	1.951335E-07
3.110311E+03	6.510732E-06	1.999723E-07
3.120312E+03	6.689432E-06	2.050403E-07
3.130313E+03	6.877695E-06	2.103767E-07
3.140314E+03	7.074171E-06	2.159384E-07
3.150315E+03	7.281159E-06	2.217937E-07
3.160316E+03	7.498221E-06	2.279272E-07
3.170317E+03	7.725839E-06	2.343514E-07
3.180318E+03	7.965529E-06	2.411100E-07
3.190319E+03	8.216797E-06	2.481858E-07
3.200320E+03	8.479030E-06	2.555577E-07
3.210321E+03	8.754859E-06	2.633027E-07
3.220322E+03	9.044832E-06	2.714343E-07
3.230323E+03	9.347086E-06	2.798939E-07
3.240324E+03	9.664368E-06	2.887609E-07
3.250325E+03	9.995860E-06	2.980079E-07
3.260326E+03	1.034185E-05	3.076403E-07
3.270327E+03	1.070253E-05	3.176612E-07
3.280328E+03	1.107944E-05	3.281123E-07
3.290329E+03	1.146982E-05	3.389094E-07
3.300330E+03	1.187641E-05	3.501299E-07
3.310331E+03	1.229909E-05	3.617672E-07
3.320332E+03	1.273446E-05	3.737178E-07
3.330333E+03	1.318341E-05	3.860052E-07
3.340334E+03	1.364688E-05	3.986535E-07
3.350335E+03	1.412231E-05	4.115854E-07
3.360336E+03	1.460854E-05	4.247645E-07
3.370337E+03	1.510605E-05	4.382020E-07
3.380338E+03	1.560967E-05	4.517460E-07
3.390339E+03	1.612147E-05	4.654549E-07
3.400340E+03	1.663749E-05	4.792128E-07
3.406671E+03	1.304147E-05	3.750690E-07
3.411281E+03	1.316559E-05	3.782212E-07
3.415902E+03	1.325028E-05	3.802329E-07
3.420532E+03	1.336382E-05	3.830645E-07
3.425163E+03	1.356940E-05	3.885241E-07
3.429803E+03	1.385364E-05	3.962188E-07
3.434453E+03	1.418823E-05	4.053322E-07
3.439104E+03	1.450856E-05	4.140166E-07
3.443764E+03	1.487508E-05	4.239959E-07
3.448435E+03	1.518781E-05	4.324182E-07
3.453105E+03	1.551742E-05	4.413001E-07
3.457776E+03	1.583833E-05	4.499130E-07
3.462466E+03	1.613006E-05	4.576743E-07
3.467157E+03	1.661101E-05	4.707791E-07
3.471847E+03	1.702415E-05	4.819324E-07
3.476558E+03	1.744961E-05	4.934040E-07
3.481268E+03	1.797593E-05	5.076959E-07
3.485979E+03	1.869456E-05	5.273780E-07
3.490699E+03	1.927548E-05	5.431307E-07
3.495430E+03	1.971066E-05	5.547414E-07
3.500170E+03	1.984369E-05	5.578275E-07
3.504910E+03	1.968042E-05	5.525850E-07
3.509661E+03	1.942413E-05	5.447429E-07
3.514411E+03	1.928816E-05	5.402876E-07
3.519172E+03	1.904609E-05	5.328711E-07
3.523942E+03	1.833629E-05	5.123987E-07
3.528713E+03	1.802468E-05	5.030871E-07
3.533493E+03	1.780356E-05	4.963175E-07
3.538284E+03	1.723875E-05	4.799915E-07
3.543074E+03	1.679147E-05	4.669717E-07
3.547875E+03	1.640055E-05	4.555461E-07
3.552685E+03	1.611842E-05	4.471635E-07
3.557496E+03	1.573834E-05	4.360860E-07
3.562316E+03	1.535246E-05	4.248721E-07
3.567137E+03	1.572277E-05	4.345858E-07
3.571977E+03	1.641064E-05	4.530384E-07
3.576808E+03	1.714888E-05	4.728336E-07
3.581658E+03	1.816327E-05	5.001806E-07
3.586509E+03	1.895085E-05	5.212197E-07
3.591369E+03	1.947072E-05	5.348491E-07
3.596230E+03	1.997059E-05	5.478939E-07
3.601110E+03	2.068864E-05	5.668795E-07
3.605981E+03	2.125405E-05	5.816398E-07
3.610871E+03	2.135730E-05	5.837263E-07
3.615762E+03	2.198680E-05	6.001703E-07
3.620662E+03	2.264419E-05	6.173293E-07
3.625563E+03	2.296112E-05	6.251725E-07
3.630473E+03	2.336871E-05	6.354572E-07
3.635394E+03	2.368675E-05	6.432799E-07
3.640324E+03	2.379451E-05	6.453752E-07
3.645255E+03	2.370833E-05	6.422093E-07
3.650185E+03	2.332617E-05	6.310423E-07
3.655136E+03	2.321299E-05	6.271659E-07
3.660086E+03	2.295407E-05	6.193648E-07
3.665047E+03	2.302346E-05	6.204277E-07
3.670007E+03	2.338988E-05	6.294793E-07
3.674977E+03	2.374273E-05	6.381391E-07
3.679958E+03	2.395553E-05	6.430127E-07
3.684948E+03	2.393981E-05	6.417442E-07
3.689939E+03	2.381960E-05	6.376792E-07
3.694939E+03	2.380465E-05	6.364357E-07
3.699940E+03	2.381411E-05	6.358449E-07
3.704950E+03	2.375150E-05	6.333304E-07
3.709971E+03	2.373823E-05	6.321326E-07
3.715002E+03	2.424313E-05	6.447144E-07
3.720032E+03	2.529372E-05	6.717529E-07
3.725073E+03	2.674335E-05	7.092986E-07
3.730113E+03	2.828044E-05	7.490578E-07
3.735174E+03	2.974910E-05	7.868938E-07
3.740234E+03	3.102686E-05	8.195822E-07
3.745295E+03	3.163025E-05	8.343904E-07
3.750375E+03	3.131119E-05	8.248505E-07
3.755456E+03	3.028511E-05	7.967342E-07
3.760536E+03	2.869455E-05	7.538620E-07
3.765637E+03	2.645590E-05	6.940972E-07
3.770737E+03	2.378531E-05	6.231771E-07
3.775848E+03	2.092402E-05	5.474583E-07
3.780958E+03	1.826288E-05	4.771754E-07
3.786079E+03	1.637725E-05	4.273180E-07
3.791209E+03	1.479959E-05	3.856201E-07
3.796350E+03	1.332154E-05	3.466272E-07
3.801490E+03	1.177664E-05	3.060043E-07
3.806641E+03	1.060312E-05	2.751292E-07
3.811801E+03	1.000634E-05	2.592824E-07
3.816962E+03	9.725519E-06	2.516550E-07
3.822132E+03	9.366764E-06	2.420337E-07
3.827313E+03	9.031037E-06	2.330322E-07
3.832493E+03	9.056716E-06	2.333678E-07
3.837684E+03	9.133336E-06	2.350121E-07
3.842884E+03	9.111754E-06	2.341273E-07
3.848095E+03	9.235515E-06	2.369732E-07
3.853305E+03	9.682600E-06	2.480950E-07
3.858526E+03	9.883747E-06	2.528915E-07
3.863756E+03	1.000461E-05	2.556222E-07
3.868987E+03	1.019532E-05	2.601265E-07
3.874227E+03	1.035106E-05	2.637260E-07
3.879478E+03	1.077447E-05	2.741242E-07
3.884728E+03	1.146228E-05	2.912096E-07
3.889999E+03	1.300235E-05	3.298661E-07
3.895260E+03	1.475963E-05	3.739160E-07
3.900540E+03	1.683187E-05	4.258055E-07
3.905821E+03	1.970777E-05	4.978483E-07
3.911121E+03	2.300105E-05	5.802106E-07
3.916412E+03	2.660636E-05	6.701986E-07
3.921722E+03	3.058506E-05	7.693169E-07
3.927033E+03	3.454465E-05	8.676711E-07
3.932353E+03	3.786650E-05	9.497452E-07
3.937684E+03	4.022716E-05	1.007507E-06
3.943014E+03	4.166156E-05	1.041938E-06
3.948355E+03	4.201679E-05	1.049315E-06
3.953705E+03	4.131510E-05	1.030310E-06
3.959066E+03	4.012931E-05	9.993006E-07
3.964426E+03	3.849252E-05	9.571655E-07
3.969797E+03	3.665838E-05	9.102477E-07
3.975178E+03	3.504889E-05	8.690322E-07
3.980558E+03	3.403934E-05	8.427887E-07
3.985949E+03	3.409120E-05	8.428602E-07
3.991349E+03	3.491258E-05	8.619273E-07
3.996760E+03	3.624373E-05	8.935043E-07
4.002170E+03	3.797504E-05	9.348419E-07
4.007591E+03	3.950195E-05	9.710339E-07
4.013021E+03	4.067636E-05	9.984672E-07
4.018462E+03	4.166344E-05	1.021228E-06
4.023902E+03	4.247412E-05	1.039606E-06
4.029353E+03	4.318288E-05	1.055439E-06
4.034813E+03	4.385393E-05	1.070304E-06
4.040284E+03	4.447309E-05	1.083860E-06
4.045755E+03	4.500127E-05	1.095164E-06
4.051235E+03	4.541911E-05	1.103753E-06
4.056726E+03	4.570219E-05	1.109046E-06
4.062216E+03	4.549482E-05	1.102440E-06
4.067727E+03	4.538939E-05	1.098317E-06
4.073237E+03	4.540752E-05	1.097192E-06
4.078748E+03	4.519408E-05	1.090486E-06
4.084278E+03	4.489936E-05	1.081836E-06
4.089809E+03	4.422970E-05	1.064192E-06
4.095350E+03	4.369503E-05	1.049841E-06
4.100900E+03	4.321199E-05	1.036769E-06
4.106451E+03	4.290334E-05	1.027915E-06
4.112021E+03	4.283761E-05	1.024896E-06
4.117592E+03	4.295022E-05	1.026149E-06
4.123162E+03	4.348782E-05	1.037541E-06
4.128753E+03	4.481708E-05	1.067760E-06
4.134343E+03	4.650935E-05	1.106536E-06
4.139944E+03	4.825145E-05	1.146389E-06
4.145555E+03	4.970706E-05	1.179336E-06
4.151165E+03	5.056052E-05	1.197930E-06
4.156796E+03	5.055418E-05	1.196128E-06
4.162426E+03	4.965604E-05	1.173266E-06
4.168067E+03	4.820460E-05	1.137413E-06
4.173707E+03	4.629004E-05	1.090750E-06
4.179368E+03	4.378956E-05	1.030427E-06
4.185029E+03	4.111195E-05	9.661105E-07
4.190699E+03	3.847566E-05	9.029400E-07
4.196370E+03	3.662973E-05	8.584674E-07
4.202060E+03	3.590832E-05	8.404340E-07
4.207751E+03	3.610060E-05	8.438101E-07
4.213451E+03	3.678044E-05	8.585618E-07
4.219162E+03	3.765606E-05	8.778417E-07
4.224872E+03	3.854312E-05	8.973432E-07
4.230603E+03	3.931406E-05	9.140954E-07
4.236334E+03	3.990462E-05	9.266220E-07
4.242064E+03	4.030010E-05	9.345988E-07
4.247815E+03	4.007640E-05	9.282169E-07
4.253575E+03	3.945721E-05	9.127082E-07
4.259336E+03	3.873800E-05	8.949353E-07
4.265107E+03	3.851675E-05	8.887019E-07
4.270877E+03	3.925894E-05	9.046937E-07
4.276668E+03	4.104385E-05	9.446481E-07
4.282458E+03	4.343098E-05	9.983554E-07
4.288259E+03	4.580460E-05	1.051627E-06
4.294069E+03	4.787586E-05	1.097843E-06
4.299890E+03	4.934124E-05	1.130079E-06
4.305711E+03	5.043788E-05	1.153813E-06
4.311551E+03	5.102259E-05	1.165800E-06
4.317392E+03	5.068425E-05	1.156705E-06
4.323232E+03	4.998925E-05	1.139514E-06
4.329093E+03	4.889198E-05	1.113212E-06
4.334953E+03	4.777238E-05	1.086474E-06
4.340834E+03	4.689367E-05	1.065278E-06
4.346715E+03	4.652322E-05	1.055675E-06
4.352595E+03	4.668299E-05	1.058125E-06
4.358496E+03	4.730256E-05	1.070988E-06
4.364396E+03	4.796650E-05	1.084840E-06
4.370317E+03	4.844906E-05	1.094575E-06
4.376238E+03	4.872781E-05	1.099703E-06
4.382158E+03	4.849996E-05	1.093414E-06
4.388099E+03	4.784464E-05	1.077522E-06
4.394039E+03	4.683646E-05	1.053739E-06
4.400000E+03	4.577868E-05	1.028901E-06
4.405961E+03	4.473246E-05	1.004387E-06
4.411921E+03	4.395446E-05	9.859523E-07
4.417902E+03	4.369795E-05	9.792517E-07
4.423892E+03	4.375336E-05	9.795607E-07
4.429883E+03	4.436253E-05	9.922708E-07
4.435884E+03	4.512136E-05	1.008316E-06
4.441894E+03	4.619417E-05	1.031356E-06
4.447905E+03	4.733443E-05	1.055876E-06
4.453935E+03	4.821231E-05	1.074518E-06
4.459966E+03	4.887413E-05	1.088334E-06
4.466007E+03	4.917535E-05	1.094118E-06
4.472057E+03	4.894956E-05	1.088193E-06
4.478118E+03	4.844277E-05	1.076051E-06
4.484188E+03	4.805360E-05	1.066555E-06
4.490259E+03	4.773662E-05	1.058691E-06
4.496340E+03	4.744643E-05	1.051448E-06
4.502430E+03	4.729550E-05	1.047316E-06
4.508531E+03	4.762069E-05	1.053739E-06
4.514641E+03	4.820012E-05	1.065790E-06
4.520762E+03	4.924371E-05	1.088095E-06
4.526883E+03	5.082589E-05	1.122278E-06
4.533013E+03	5.264915E-05	1.161750E-06
4.539154E+03	5.465434E-05	1.205197E-06
4.545305E+03	5.651930E-05	1.245514E-06
4.551465E+03	5.794140E-05	1.276044E-06
4.557626E+03	5.911831E-05	1.301159E-06
4.563806E+03	5.981067E-05	1.315601E-06
4.569987E+03	6.012278E-05	1.321687E-06
4.576178E+03	6.007379E-05	1.319850E-06
4.582378E+03	5.963428E-05	1.309459E-06
4.588589E+03	5.882802E-05	1.291049E-06
4.594799E+03	5.810693E-05	1.274546E-06
4.601030E+03	5.746160E-05	1.259737E-06
4.607261E+03	5.688324E-05	1.246430E-06
4.613501E+03	5.650763E-05	1.237592E-06
4.619752E+03	5.621104E-05	1.230511E-06
4.626013E+03	5.572596E-05	1.219328E-06
4.632273E+03	5.508839E-05	1.204837E-06
4.638554E+03	5.421147E-05	1.185142E-06
4.644834E+03	5.297459E-05	1.157615E-06
4.651125E+03	5.175806E-05	1.130570E-06
4.657426E+03	5.070094E-05	1.107043E-06
4.663736E+03	4.968537E-05	1.084455E-06
4.670057E+03	4.875452E-05	1.063747E-06
4.676388E+03	4.739776E-05	1.033778E-06
4.682718E+03	4.507348E-05	9.827491E-07
4.689059E+03	4.209467E-05	9.175006E-07
4.695410E+03	3.885763E-05	8.466790E-07
4.701770E+03	3.566921E-05	7.769708E-07
4.708141E+03	3.313856E-05	7.216377E-07
4.714521E+03	3.139125E-05	6.833985E-07
4.720912E+03	3.063006E-05	6.666509E-07
4.727303E+03	3.108827E-05	6.764537E-07
4.733713E+03	3.251912E-05	7.074184E-07
4.740124E+03	3.464083E-05	7.534031E-07
4.746545E+03	3.700963E-05	8.047497E-07
4.752975E+03	3.912233E-05	8.505168E-07
4.759416E+03	4.068398E-05	8.842987E-07
4.765857E+03	4.166221E-05	9.054000E-07
4.772317E+03	4.216737E-05	9.162255E-07
4.778778E+03	4.254610E-05	9.243120E-07
4.785259E+03	4.316166E-05	9.375510E-07
4.791739E+03	4.402967E-05	9.562802E-07
4.798230E+03	4.483518E-05	9.736585E-07
4.804730E+03	4.568272E-05	9.919567E-07
4.811241E+03	4.640974E-05	1.007645E-06
4.817762E+03	4.691716E-05	1.018575E-06
4.824282E+03	4.723959E-05	1.025499E-06
4.830823E+03	4.757230E-05	1.032656E-06
4.837364E+03	4.797743E-05	1.041395E-06
4.843914E+03	4.838435E-05	1.050184E-06
4.850475E+03	4.867374E-05	1.056433E-06
4.857046E+03	4.875601E-05	1.058197E-06
4.863626E+03	4.857097E-05	1.054171E-06
4.870217E+03	4.809163E-05	1.043768E-06
4.876818E+03	4.719742E-05	1.024372E-06
4.883428E+03	4.587876E-05	9.957736E-07
4.890039E+03	4.415062E-05	9.582960E-07
4.896660E+03	4.200739E-05	9.118152E-07
4.903300E+03	3.954262E-05	8.583597E-07
4.909941E+03	3.689597E-05	8.009583E-07
4.916592E+03	3.455685E-05	7.502336E-07
4.923252E+03	3.313497E-05	7.194235E-07
4.929923E+03	3.281751E-05	7.125965E-07
4.936604E+03	3.361070E-05	7.298939E-07
4.943284E+03	3.543126E-05	7.695149E-07
4.949985E+03	3.856570E-05	8.376915E-07
4.956696E+03	4.286676E-05	9.312371E-07
4.963406E+03	4.787445E-05	1.040169E-06
4.970127E+03	5.295501E-05	1.150726E-06
4.976868E+03	5.738443E-05	1.247176E-06
4.983608E+03	6.055990E-05	1.316411E-06
4.990359E+03	6.214701E-05	1.351150E-06
4.997120E+03	6.196374E-05	1.347415E-06
5.003890E+03	6.056232E-05	1.317197E-06
5.010671E+03	5.853324E-05	1.273325E-06
5.017452E+03	5.620845E-05	1.223012E-06
5.024252E+03	5.392045E-05	1.173488E-06
5.031053E+03	5.156454E-05	1.122474E-06
5.037874E+03	4.943152E-05	1.076298E-06
5.044694E+03	4.762078E-05	1.037129E-06
5.051535E+03	4.599110E-05	1.001893E-06
5.058376E+03	4.396435E-05	9.579941E-07
5.065227E+03	4.138566E-05	9.020500E-07
5.072087E+03	3.864191E-05	8.424837E-07
5.078958E+03	3.613721E-05	7.881038E-07
5.085839E+03	3.446843E-05	7.519340E-07
5.092729E+03	3.410724E-05	7.442827E-07
5.099630E+03	3.509993E-05	7.661863E-07
5.106541E+03	3.746546E-05	8.180869E-07
5.113461E+03	4.088042E-05	8.929510E-07
5.120382E+03	4.474877E-05	9.777787E-07
5.127323E+03	4.876119E-05	1.065822E-06
5.134263E+03	5.234628E-05	1.144591E-06
5.141224E+03	5.517689E-05	1.206924E-06
5.148185E+03	5.712014E-05	1.249894E-06
5.155166E+03	5.804360E-05	1.270584E-06
5.162146E+03	5.823734E-05	1.275319E-06
5.169137E+03	5.793252E-05	1.269145E-06
5.176138E+03	5.735851E-05	1.257077E-06
5.183158E+03	5.647258E-05	1.238171E-06
5.190179E+03	5.559066E-05	1.219346E-06
5.197210E+03	5.492603E-05	1.205282E-06
5.204250E+03	5.467184E-05	1.200226E-06
5.211301E+03	5.471547E-05	1.201716E-06
5.218362E+03	5.495629E-05	1.207550E-06
5.225433E+03	5.507571E-05	1.210729E-06
5.232503E+03	5.505291E-05	1.210792E-06
5.239594E+03	5.493207E-05	1.208707E-06
5.246695E+03	5.468504E-05	1.203852E-06
5.253805E+03	5.439947E-05	1.198153E-06
5.260916E+03	5.403969E-05	1.190821E-06
5.268047E+03	5.374630E-05	1.184955E-06
5.275188E+03	5.364476E-05	1.183325E-06
5.282328E+03	5.377344E-05	1.186781E-06
5.289489E+03	5.407692E-05	1.194112E-06
5.296650E+03	5.436173E-05	1.201045E-06
5.303830E+03	5.451018E-05	1.204983E-06
5.311011E+03	5.441332E-05	1.203506E-06
5.318202E+03	5.409031E-05	1.197033E-06
5.325413E+03	5.347870E-05	1.184172E-06
5.332623E+03	5.276782E-05	1.169105E-06
5.339854E+03	5.186987E-05	1.149884E-06
5.347085E+03	5.088834E-05	1.128794E-06
5.354325E+03	4.979897E-05	1.105293E-06
5.361586E+03	4.891061E-05	1.086238E-06
5.368847E+03	4.839010E-05	1.075342E-06
5.376118E+03	4.812001E-05	1.070009E-06
5.383398E+03	4.796652E-05	1.067272E-06
5.390699E+03	4.779679E-05	1.064179E-06
5.398000E+03	4.753142E-05	1.058958E-06
5.405311E+03	4.728854E-05	1.054241E-06
5.412631E+03	4.685731E-05	1.045324E-06
5.419962E+03	4.622150E-05	1.031836E-06
5.427313E+03	4.535461E-05	1.013176E-06
5.434663E+03	4.436814E-05	9.918256E-07
5.442024E+03	4.330716E-05	9.687862E-07
5.449395E+03	4.213785E-05	9.432969E-07
5.456776E+03	4.078209E-05	9.136016E-07
5.464166E+03	3.984825E-05	8.933293E-07
5.471577E+03	3.970878E-05	8.908562E-07
5.478988E+03	4.060464E-05	9.116294E-07
5.486409E+03	4.215037E-05	9.470409E-07
5.493839E+03	4.465469E-05	1.004066E-06
5.501280E+03	4.816384E-05	1.083794E-06
5.508731E+03	5.233197E-05	1.178491E-06
5.516202E+03	5.662643E-05	1.276188E-06
5.523672E+03	6.026895E-05	1.359339E-06
5.531153E+03	6.316848E-05	1.425856E-06
5.538644E+03	6.526810E-05	1.474414E-06
5.546155E+03	6.594757E-05	1.490951E-06
5.553665E+03	6.503254E-05	1.471441E-06
5.561186E+03	6.259990E-05	1.417539E-06
5.568727E+03	5.913668E-05	1.340202E-06
5.576268E+03	5.515410E-05	1.250961E-06
5.583818E+03	5.110683E-05	1.160111E-06
5.591389E+03	4.711789E-05	1.070441E-06
5.598960E+03	4.371510E-05	9.939529E-07
5.606541E+03	4.119117E-05	9.373395E-07
5.614141E+03	3.973468E-05	9.049457E-07
5.621742E+03	3.889823E-05	8.866315E-07
5.629363E+03	3.858349E-05	8.801905E-07
5.636984E+03	3.860710E-05	8.814636E-07
5.644624E+03	3.868742E-05	8.840362E-07
5.652275E+03	3.848836E-05	8.802243E-07
5.659926E+03	3.752397E-05	8.588874E-07
5.667597E+03	3.603329E-05	8.254592E-07
5.675278E+03	3.435614E-05	7.876993E-07
5.682958E+03	3.237633E-05	7.429293E-07
5.690659E+03	3.003664E-05	6.898197E-07
5.698370E+03	2.733514E-05	6.283036E-07
5.706091E+03	2.434830E-05	5.601194E-07
5.713821E+03	2.129792E-05	4.903572E-07
5.721562E+03	1.840104E-05	4.240141E-07
5.729313E+03	1.579165E-05	3.641896E-07
5.737074E+03	1.357794E-05	3.133972E-07
5.744844E+03	1.182539E-05	2.731725E-07
5.752625E+03	1.070822E-05	2.475700E-07
5.760416E+03	1.035819E-05	2.396752E-07
5.768227E+03	1.081385E-05	2.504247E-07
5.776038E+03	1.204856E-05	2.792463E-07
5.783868E+03	1.394571E-05	3.234800E-07
5.791699E+03	1.632378E-05	3.789485E-07
5.799550E+03	1.909534E-05	4.436479E-07
5.807401E+03	2.222926E-05	5.168745E-07
5.815272E+03	2.570933E-05	5.982718E-07
5.823152E+03	2.928572E-05	6.820395E-07
5.831033E+03	3.298655E-05	7.688360E-07
5.838934E+03	3.638384E-05	8.486857E-07
5.846845E+03	3.885901E-05	9.071293E-07
5.854765E+03	4.045262E-05	9.450634E-07
5.862696E+03	4.135629E-05	9.669191E-07
5.870637E+03	4.160358E-05	9.734439E-07
5.878598E+03	4.129525E-05	9.669627E-07
5.886559E+03	4.070217E-05	9.537912E-07
5.894529E+03	3.981832E-05	9.337744E-07
5.902520E+03	3.884942E-05	9.117258E-07
5.910511E+03	3.808416E-05	8.944194E-07
5.918522E+03	3.773036E-05	8.867521E-07
5.926543E+03	3.776813E-05	8.882756E-07
5.934563E+03	3.796963E-05	8.936469E-07
5.942604E+03	3.811383E-05	8.976694E-07
5.950655E+03	3.792265E-05	8.937851E-07
5.958716E+03	3.718882E-05	8.770893E-07
5.966797E+03	3.584916E-05	8.460653E-07
5.974877E+03	3.435792E-05	8.114116E-07
5.982968E+03	3.271839E-05	7.731996E-07
5.991079E+03	3.069654E-05	7.258902E-07
5.999190E+03	2.858809E-05	6.764626E-07
6.007321E+03	2.667580E-05	6.316107E-07
6.015452E+03	2.497244E-05	5.916459E-07
6.023602E+03	2.353124E-05	5.578409E-07
6.031763E+03	2.256865E-05	5.353422E-07
6.039934E+03	2.193805E-05	5.206902E-07
6.048125E+03	2.158622E-05	5.126362E-07
6.056316E+03	2.140916E-05	5.087200E-07
6.064516E+03	2.137743E-05	5.082485E-07
6.072737E+03	2.148836E-05	5.111646E-07
6.080958E+03	2.179104E-05	5.186413E-07
6.089199E+03	2.230565E-05	5.311668E-07
6.097450E+03	2.298057E-05	5.475181E-07
6.105711E+03	2.376293E-05	5.664404E-07
6.113981E+03	2.451428E-05	5.846349E-07
6.122262E+03	2.511821E-05	5.993217E-07
6.130553E+03	2.547519E-05	6.081198E-07
6.138864E+03	2.564536E-05	6.124571E-07
