#wls	flux	fluxerr
1.600160E+03	1.229393E-06	6.393624E-08
1.640164E+03	1.233105E-06	6.394418E-08
1.680168E+03	1.237377E-06	6.397554E-08
1.720172E+03	1.242746E-06	6.405764E-08
1.760176E+03	1.249106E-06	6.418432E-08
1.800180E+03	1.256580E-06	6.436136E-08
1.840184E+03	1.265309E-06	6.459516E-08
1.880188E+03	1.275674E-06	6.490438E-08
1.920192E+03	1.287630E-06	6.528569E-08
1.960196E+03	1.301378E-06	6.574820E-08
2.000200E+03	1.317146E-06	6.630214E-08
2.040204E+03	1.335425E-06	6.697083E-08
2.080208E+03	1.356281E-06	6.775589E-08
2.120212E+03	1.380053E-06	6.867230E-08
2.160216E+03	1.407126E-06	6.973720E-08
2.200220E+03	1.438199E-06	7.098262E-08
2.240224E+03	1.473547E-06	7.241923E-08
2.280228E+03	1.513772E-06	7.407325E-08
2.320232E+03	1.559572E-06	7.597509E-08
2.360236E+03	1.612044E-06	7.817371E-08
2.400240E+03	1.671890E-06	8.069777E-08
2.440244E+03	1.740244E-06	8.359599E-08
2.480248E+03	1.818760E-06	8.694073E-08
2.520252E+03	1.908747E-06	9.078599E-08
2.560256E+03	2.012104E-06	9.521227E-08
2.600260E+03	2.131097E-06	1.003153E-07
2.640264E+03	2.268822E-06	1.062267E-07
2.680268E+03	2.428180E-06	1.130659E-07
2.720272E+03	2.613056E-06	1.209943E-07
2.760276E+03	2.828571E-06	1.302254E-07
2.800280E+03	3.079836E-06	1.409664E-07
2.840284E+03	3.373369E-06	1.534822E-07
2.880288E+03	3.716745E-06	1.680776E-07
2.920292E+03	4.119277E-06	1.851261E-07
2.960296E+03	4.589856E-06	2.049710E-07
3.000300E+03	5.138229E-06	2.279821E-07
3.010301E+03	5.288125E-06	2.342497E-07
3.020302E+03	5.444465E-06	2.407796E-07
3.030303E+03	5.606503E-06	2.475370E-07
3.040304E+03	5.773375E-06	2.544828E-07
3.050305E+03	5.947071E-06	2.617032E-07
3.060306E+03	6.126723E-06	2.691585E-07
3.070307E+03	6.311333E-06	2.768036E-07
3.080308E+03	6.503006E-06	2.847295E-07
3.090309E+03	6.700732E-06	2.928903E-07
3.100310E+03	6.903356E-06	3.012342E-07
3.110311E+03	7.113116E-06	3.098575E-07
3.120312E+03	7.328845E-06	3.187077E-07
3.130313E+03	7.550481E-06	3.277808E-07
3.140314E+03	7.776653E-06	3.370158E-07
3.150315E+03	8.009821E-06	3.465181E-07
3.160316E+03	8.248636E-06	3.562278E-07
3.170317E+03	8.493003E-06	3.661394E-07
3.180318E+03	8.742838E-06	3.762479E-07
3.190319E+03	8.998071E-06	3.865490E-07
3.200320E+03	9.257116E-06	3.969733E-07
3.210321E+03	9.316482E-06	3.988091E-07
3.220322E+03	9.581796E-06	4.094346E-07
3.230323E+03	1.007067E-05	4.295540E-07
3.240324E+03	1.035262E-05	4.407867E-07
3.250325E+03	1.064010E-05	4.522094E-07
3.260326E+03	1.093320E-05	4.638255E-07
3.270327E+03	1.123208E-05	4.756390E-07
3.280328E+03	1.153682E-05	4.876534E-07
3.290329E+03	1.184753E-05	4.998704E-07
3.300330E+03	1.216420E-05	5.122894E-07
3.310331E+03	1.248675E-05	5.249051E-07
3.320332E+03	1.281494E-05	5.377061E-07
3.330333E+03	1.314835E-05	5.506730E-07
3.340334E+03	1.348630E-05	5.637765E-07
3.350335E+03	1.382782E-05	5.769750E-07
3.360336E+03	1.417160E-05	5.902133E-07
3.370337E+03	1.451598E-05	6.034213E-07
3.380338E+03	1.485887E-05	6.165129E-07
3.390339E+03	1.519783E-05	6.293867E-07
3.400340E+03	1.553005E-05	6.419278E-07
3.410341E+03	1.585244E-05	6.540099E-07
3.420342E+03	1.616172E-05	6.655010E-07
3.430343E+03	1.645730E-05	6.763798E-07
3.440344E+03	1.673076E-05	6.863036E-07
3.450345E+03	1.698199E-05	6.952737E-07
3.460346E+03	1.720884E-05	7.032077E-07
3.470347E+03	1.740995E-05	7.100553E-07
3.480348E+03	1.758483E-05	7.158035E-07
3.490349E+03	1.773686E-05	7.205957E-07
3.500350E+03	1.786172E-05	7.242621E-07
3.510351E+03	1.796451E-05	7.270153E-07
3.520352E+03	1.804802E-05	7.289741E-07
3.530353E+03	1.811536E-05	7.302676E-07
3.540354E+03	1.817247E-05	7.311396E-07
3.550355E+03	1.821604E-05	7.314594E-07
3.560356E+03	1.825076E-05	7.314185E-07
3.570357E+03	1.827729E-05	7.310449E-07
3.580358E+03	1.829490E-05	7.303123E-07
3.590359E+03	1.830435E-05	7.292529E-07
3.600360E+03	1.829602E-05	7.274860E-07
3.610361E+03	1.826770E-05	7.249289E-07
3.620362E+03	1.821599E-05	7.214508E-07
3.630363E+03	1.812777E-05	7.165397E-07
3.640364E+03	1.799838E-05	7.100201E-07
3.650365E+03	1.782039E-05	7.016090E-07
3.660366E+03	1.759001E-05	6.911691E-07
3.670367E+03	1.729643E-05	6.782891E-07
3.680368E+03	1.693960E-05	6.629812E-07
3.690369E+03	1.651931E-05	6.452525E-07
3.700370E+03	1.604109E-05	6.253329E-07
3.710371E+03	1.550596E-05	6.032759E-07
3.720372E+03	1.492605E-05	5.795650E-07
3.730373E+03	1.431591E-05	5.547747E-07
3.740374E+03	1.368527E-05	5.292880E-07
3.750375E+03	1.305223E-05	5.038076E-07
3.760376E+03	1.243481E-05	4.790283E-07
3.770377E+03	1.184444E-05	4.553858E-07
3.780378E+03	1.129741E-05	4.334984E-07
3.790379E+03	1.080609E-05	4.138302E-07
3.800380E+03	1.038247E-05	3.968262E-07
3.810381E+03	1.003147E-05	3.826590E-07
3.820382E+03	9.761300E-06	3.716242E-07
3.830383E+03	9.578475E-06	3.639512E-07
3.840384E+03	9.483864E-06	3.596537E-07
3.850385E+03	9.482215E-06	3.588916E-07
3.860386E+03	9.577760E-06	3.618044E-07
3.870387E+03	9.769849E-06	3.683463E-07
3.880388E+03	1.006189E-05	3.786245E-07
3.890389E+03	1.045672E-05	3.927249E-07
3.900390E+03	1.095119E-05	4.105067E-07
3.910391E+03	1.154521E-05	4.319462E-07
3.920392E+03	1.223473E-05	4.568718E-07
3.930393E+03	1.301475E-05	4.850776E-07
3.940394E+03	1.387074E-05	5.160045E-07
3.950395E+03	1.479033E-05	5.491790E-07
3.960396E+03	1.575815E-05	5.840192E-07
3.970397E+03	1.674859E-05	6.195695E-07
3.980398E+03	1.774128E-05	6.550743E-07
3.990399E+03	1.871299E-05	6.896789E-07
4.000400E+03	1.964464E-05	7.226873E-07
4.010401E+03	2.051061E-05	7.531688E-07
4.020402E+03	2.129812E-05	7.806692E-07
4.030403E+03	2.199617E-05	8.048039E-07
4.040404E+03	2.260246E-05	8.255075E-07
4.050405E+03	2.310914E-05	8.425139E-07
4.060406E+03	2.352333E-05	8.561023E-07
4.070407E+03	2.385232E-05	8.665565E-07
4.080408E+03	2.410602E-05	8.742533E-07
4.090409E+03	2.429980E-05	8.797640E-07
4.100410E+03	2.443825E-05	8.832668E-07
4.110411E+03	2.453723E-05	8.853443E-07
4.120412E+03	2.460811E-05	8.864146E-07
4.130413E+03	2.466126E-05	8.868558E-07
4.140414E+03	2.470968E-05	8.871385E-07
4.150415E+03	2.475370E-05	8.872759E-07
4.160416E+03	2.480399E-05	8.876507E-07
4.170417E+03	2.486624E-05	8.884657E-07
4.180418E+03	2.494518E-05	8.898888E-07
4.190419E+03	2.504440E-05	8.920448E-07
4.200420E+03	2.516639E-05	8.950200E-07
4.210421E+03	2.531228E-05	8.988510E-07
4.220422E+03	2.548170E-05	9.035225E-07
4.230423E+03	2.567662E-05	9.091008E-07
4.240424E+03	2.588530E-05	9.151676E-07
4.250425E+03	2.610600E-05	9.216610E-07
4.260426E+03	2.633141E-05	9.283216E-07
4.270427E+03	2.655278E-05	9.348425E-07
4.280428E+03	2.676059E-05	9.408901E-07
4.290429E+03	2.694522E-05	9.461300E-07
4.300430E+03	2.709797E-05	9.502607E-07
4.310431E+03	2.721208E-05	9.530513E-07
4.320432E+03	2.728374E-05	9.543740E-07
4.330433E+03	2.730873E-05	9.540877E-07
4.340434E+03	2.729977E-05	9.526430E-07
4.350435E+03	2.726140E-05	9.502026E-07
4.360436E+03	2.652079E-05	9.233452E-07
4.370437E+03	2.715021E-05	9.442203E-07
4.380438E+03	2.711076E-05	9.418409E-07
4.390439E+03	2.710561E-05	9.406850E-07
4.400440E+03	2.714559E-05	9.411249E-07
4.410441E+03	2.723042E-05	9.431464E-07
4.420442E+03	2.737103E-05	9.471241E-07
4.430443E+03	2.756518E-05	9.529762E-07
4.440444E+03	2.781439E-05	9.607505E-07
4.450445E+03	2.739951E-05	9.456242E-07
4.460446E+03	2.847676E-05	9.820088E-07
4.470447E+03	2.889358E-05	9.956109E-07
4.480448E+03	2.936318E-05	1.011041E-06
4.490449E+03	2.987600E-05	1.027969E-06
4.500450E+03	3.043317E-05	1.046430E-06
4.510451E+03	3.101894E-05	1.065882E-06
4.520452E+03	3.161358E-05	1.085647E-06
4.530453E+03	3.220807E-05	1.105416E-06
4.540454E+03	3.277107E-05	1.124115E-06
4.550455E+03	3.328860E-05	1.141269E-06
4.560456E+03	3.372589E-05	1.155690E-06
4.570457E+03	3.406920E-05	1.166911E-06
4.580458E+03	3.429238E-05	1.174042E-06
4.590459E+03	3.437369E-05	1.176346E-06
4.600460E+03	3.430811E-05	1.173656E-06
4.610461E+03	3.409788E-05	1.166053E-06
4.620462E+03	3.373734E-05	1.153348E-06
4.630463E+03	3.324882E-05	1.136308E-06
4.640464E+03	3.264053E-05	1.115215E-06
4.650465E+03	3.194569E-05	1.091206E-06
4.660466E+03	3.118079E-05	1.064843E-06
4.670467E+03	3.037827E-05	1.037233E-06
4.680468E+03	2.956505E-05	1.009293E-06
4.690469E+03	2.877044E-05	9.820223E-07
4.700470E+03	2.800743E-05	9.558604E-07
4.710471E+03	2.729845E-05	9.315707E-07
4.720472E+03	2.665722E-05	9.096178E-07
4.730473E+03	2.609697E-05	8.904516E-07
4.740474E+03	2.561492E-05	8.739750E-07
4.750475E+03	2.521635E-05	8.603661E-07
4.760476E+03	2.489905E-05	8.495484E-07
4.770477E+03	2.465786E-05	8.413447E-07
4.780478E+03	2.448516E-05	8.354943E-07
4.790479E+03	2.437150E-05	8.316749E-07
4.800480E+03	2.430621E-05	8.295213E-07
4.810481E+03	2.427797E-05	8.286478E-07
4.820482E+03	2.427552E-05	8.286700E-07
4.830483E+03	2.428834E-05	8.292288E-07
4.840484E+03	2.430735E-05	8.300133E-07
4.850485E+03	2.432528E-05	8.307759E-07
4.860486E+03	2.433735E-05	8.313528E-07
4.870487E+03	2.434136E-05	8.316680E-07
4.880488E+03	2.433766E-05	8.317334E-07
4.890489E+03	2.432893E-05	8.316395E-07
4.900490E+03	2.431587E-05	8.314106E-07
4.910491E+03	2.431098E-05	8.314735E-07
4.920492E+03	2.431594E-05	8.318851E-07
4.930493E+03	2.433502E-05	8.327922E-07
4.940494E+03	2.436734E-05	8.341644E-07
4.950495E+03	2.442064E-05	8.362670E-07
4.960496E+03	2.448950E-05	8.389151E-07
4.970497E+03	2.456645E-05	8.418525E-07
4.980498E+03	2.465354E-05	8.451504E-07
4.990499E+03	2.473792E-05	8.483675E-07
5.000500E+03	2.482213E-05	8.515911E-07
5.010501E+03	2.489963E-05	8.545965E-07
5.020502E+03	2.496676E-05	8.572574E-07
5.030503E+03	2.503434E-05	8.599448E-07
5.040504E+03	2.510177E-05	8.626386E-07
5.050505E+03	2.518249E-05	8.657998E-07
5.060506E+03	2.529189E-05	8.699586E-07
5.070507E+03	2.543486E-05	8.752843E-07
5.080508E+03	2.563064E-05	8.824407E-07
5.090509E+03	2.588138E-05	8.915050E-07
5.100510E+03	2.619750E-05	9.028382E-07
5.110511E+03	2.658160E-05	9.165339E-07
5.120512E+03	2.703576E-05	9.326673E-07
5.130513E+03	2.754537E-05	9.507378E-07
5.140514E+03	2.810309E-05	9.704952E-07
5.150515E+03	2.869358E-05	9.914122E-07
5.160516E+03	2.929828E-05	1.012849E-06
5.170517E+03	2.909455E-05	1.006353E-06
5.180518E+03	2.965001E-05	1.026129E-06
5.190519E+03	3.099429E-05	1.073247E-06
5.200520E+03	3.144975E-05	1.089630E-06
5.210521E+03	3.182232E-05	1.103163E-06
5.220522E+03	3.209967E-05	1.113413E-06
5.230523E+03	3.227332E-05	1.120082E-06
5.240524E+03	3.233864E-05	1.123002E-06
5.250525E+03	3.229452E-05	1.122127E-06
5.260526E+03	3.213825E-05	1.117356E-06
5.270527E+03	3.188397E-05	1.109174E-06
5.280528E+03	3.153374E-05	1.097646E-06
5.290529E+03	3.109613E-05	1.083065E-06
5.300530E+03	3.058106E-05	1.065770E-06
5.310531E+03	2.999963E-05	1.046143E-06
5.320532E+03	2.935966E-05	1.024452E-06
5.330533E+03	2.868266E-05	1.001444E-06
5.340534E+03	2.797766E-05	9.774318E-07
5.350535E+03	2.725443E-05	9.527549E-07
5.360536E+03	2.653493E-05	9.281797E-07
5.370537E+03	2.582878E-05	9.040427E-07
5.380538E+03	2.514545E-05	8.806762E-07
5.390539E+03	2.450483E-05	8.587786E-07
5.400540E+03	2.391094E-05	8.384933E-07
5.410541E+03	2.338080E-05	8.204203E-07
5.420542E+03	2.291577E-05	8.046110E-07
5.430543E+03	2.252906E-05	7.915345E-07
5.440544E+03	2.221832E-05	7.811123E-07
5.450545E+03	2.199199E-05	7.736467E-07
5.460546E+03	2.184277E-05	7.688854E-07
5.470547E+03	2.176995E-05	7.668090E-07
5.480548E+03	2.176927E-05	7.672721E-07
5.490549E+03	2.182304E-05	7.696550E-07
5.500550E+03	2.191881E-05	7.735217E-07
5.510551E+03	2.203953E-05	7.782736E-07
5.520552E+03	2.215514E-05	7.828489E-07
5.530553E+03	2.224328E-05	7.864566E-07
5.540554E+03	2.227799E-05	7.881768E-07
5.550555E+03	2.223826E-05	7.872616E-07
5.560556E+03	2.209695E-05	7.827442E-07
5.570557E+03	2.184208E-05	7.741933E-07
5.580558E+03	2.146522E-05	7.613023E-07
5.590559E+03	2.096536E-05	7.440272E-07
5.600560E+03	2.034884E-05	7.225856E-07
5.610561E+03	1.962865E-05	6.974310E-07
5.620562E+03	1.882301E-05	6.692047E-07
5.630563E+03	1.795375E-05	6.386785E-07
5.640564E+03	1.704470E-05	6.066965E-07
5.650565E+03	1.611996E-05	5.741147E-07
5.660566E+03	1.520258E-05	5.417543E-07
5.670567E+03	1.431358E-05	5.103652E-07
5.680568E+03	1.347120E-05	4.806004E-07
5.690569E+03	1.269057E-05	4.530031E-07
5.700570E+03	1.198184E-05	4.279405E-07
5.710571E+03	1.135747E-05	4.058615E-07
5.720572E+03	1.082165E-05	3.869222E-07
5.730573E+03	1.037809E-05	3.712600E-07
5.740574E+03	1.002852E-05	3.589425E-07
5.750575E+03	9.771702E-06	3.499309E-07
5.760576E+03	9.609447E-06	3.442953E-07
5.770577E+03	9.538166E-06	3.419124E-07
5.780578E+03	9.553312E-06	3.426239E-07
5.790579E+03	9.653338E-06	3.463787E-07
5.800580E+03	9.831091E-06	3.529245E-07
5.810581E+03	1.007753E-05	3.619400E-07
5.820582E+03	1.038575E-05	3.731808E-07
5.830583E+03	1.074042E-05	3.860976E-07
5.840584E+03	1.112953E-05	4.002613E-07
5.850585E+03	1.153228E-05	4.149239E-07
5.860586E+03	1.193229E-05	4.294963E-07
5.870587E+03	1.230535E-05	4.431060E-07
5.880588E+03	1.263437E-05	4.551360E-07
5.890589E+03	1.289683E-05	4.647719E-07
5.900590E+03	1.308080E-05	4.715808E-07
5.910591E+03	1.317150E-05	4.750265E-07
5.920592E+03	1.316546E-05	4.749789E-07
5.930593E+03	1.306520E-05	4.715261E-07
5.940594E+03	1.287333E-05	4.647582E-07
5.950595E+03	1.260322E-05	4.551553E-07
5.960596E+03	1.227198E-05	4.433325E-07
5.970597E+03	1.189370E-05	4.297975E-07
5.980598E+03	1.148894E-05	4.152925E-07
5.990599E+03	1.107614E-05	4.004837E-07
6.000600E+03	1.067403E-05	3.860486E-07
6.010601E+03	1.029470E-05	3.724253E-07
6.020602E+03	9.952830E-06	3.601463E-07
6.030603E+03	9.659307E-06	3.496069E-07
6.040604E+03	9.423108E-06	3.411338E-07
6.050605E+03	9.251720E-06	3.349996E-07
6.060606E+03	9.152989E-06	3.314901E-07
6.070607E+03	9.130330E-06	3.307308E-07
6.080608E+03	9.191296E-06	3.329968E-07
6.090609E+03	9.342722E-06	3.385372E-07
6.100610E+03	9.592523E-06	3.476402E-07
6.110611E+03	9.950079E-06	3.606470E-07
6.120612E+03	1.042653E-05	3.779623E-07
6.130613E+03	1.103490E-05	4.000596E-07
6.140614E+03	1.179010E-05	4.274800E-07
6.150615E+03	1.270860E-05	4.608209E-07
6.160616E+03	1.380775E-05	5.007118E-07
6.170617E+03	1.510462E-05	5.477717E-07
6.180618E+03	1.661184E-05	6.024577E-07
6.190619E+03	1.834461E-05	6.653200E-07
6.200620E+03	2.030382E-05	7.363891E-07
6.210621E+03	2.248169E-05	8.153800E-07
6.220622E+03	2.485589E-05	9.014803E-07
6.230623E+03	2.738676E-05	9.932472E-07
6.240624E+03	3.001125E-05	1.088391E-06
6.250625E+03	3.266073E-05	1.184417E-06
6.260626E+03	3.523923E-05	1.277842E-06
6.270627E+03	3.764614E-05	1.365015E-06
6.280628E+03	3.977504E-05	1.442074E-06
6.290629E+03	4.154663E-05	1.506145E-06
6.300630E+03	4.288419E-05	1.554449E-06
6.310631E+03	4.373683E-05	1.585143E-06
6.320632E+03	4.410330E-05	1.598190E-06
6.330633E+03	4.399361E-05	1.593958E-06
6.340634E+03	4.344400E-05	1.573768E-06
6.350635E+03	4.252941E-05	1.540346E-06
6.360636E+03	4.131702E-05	1.496131E-06
6.370637E+03	3.987836E-05	1.443722E-06
6.380638E+03	3.829966E-05	1.386247E-06
6.390639E+03	3.663620E-05	1.325713E-06
6.400640E+03	3.495507E-05	1.264551E-06
6.410641E+03	3.329038E-05	1.203999E-06
6.420642E+03	3.168550E-05	1.145627E-06
6.430643E+03	3.015427E-05	1.089934E-06
6.440644E+03	2.872069E-05	1.037789E-06
6.450645E+03	2.664096E-05	9.623228E-07
6.460646E+03	2.544338E-05	9.187477E-07
6.470647E+03	2.503123E-05	9.035415E-07
6.480648E+03	2.401102E-05	8.663930E-07
6.490649E+03	2.308542E-05	8.326726E-07
6.500650E+03	2.225596E-05	8.024333E-07
6.510651E+03	2.150976E-05	7.752079E-07
6.520652E+03	2.084294E-05	7.508539E-07
6.530653E+03	2.025003E-05	7.291719E-07
6.540654E+03	1.971483E-05	7.095761E-07
6.550655E+03	1.922834E-05	6.917406E-07
6.560656E+03	1.878072E-05	6.753102E-07
6.570657E+03	1.835392E-05	6.596344E-07
6.580658E+03	1.793878E-05	6.443838E-07
6.590659E+03	1.752685E-05	6.292551E-07
6.600660E+03	1.710316E-05	6.137118E-07
6.610661E+03	1.666204E-05	5.975514E-07
6.620662E+03	1.619684E-05	5.805377E-07
6.630663E+03	1.570507E-05	5.625836E-07
6.640664E+03	1.517925E-05	5.434235E-07
6.650665E+03	1.462097E-05	5.231175E-07
6.660666E+03	1.403154E-05	5.017153E-07
6.670667E+03	1.341425E-05	4.793375E-07
6.680668E+03	1.277424E-05	4.561703E-07
6.690669E+03	1.211995E-05	4.325178E-07
6.700670E+03	1.145562E-05	4.085330E-07
6.710671E+03	1.079177E-05	3.845921E-07
6.720672E+03	1.013731E-05	3.610140E-07
6.730673E+03	9.501002E-06	3.381102E-07
6.740674E+03	8.890989E-06	3.161701E-07
6.750675E+03	8.089671E-06	2.874602E-07
6.760676E+03	7.567187E-06	2.686902E-07
6.770677E+03	7.284725E-06	2.584611E-07
6.780678E+03	6.839606E-06	2.424779E-07
6.790679E+03	6.444306E-06	2.282815E-07
6.800680E+03	6.099954E-06	2.159081E-07
6.810681E+03	5.806830E-06	2.053638E-07
6.820682E+03	5.564603E-06	1.966327E-07
6.830683E+03	5.372559E-06	1.896855E-07
6.840684E+03	5.229789E-06	1.844859E-07
6.850685E+03	5.135368E-06	1.809969E-07
6.860686E+03	5.088458E-06	1.791848E-07
6.870687E+03	5.088381E-06	1.790213E-07
6.880688E+03	5.134633E-06	1.804843E-07
6.890689E+03	5.226836E-06	1.835561E-07
6.900690E+03	5.364667E-06	1.882207E-07
6.910691E+03	5.547720E-06	1.944594E-07
6.920692E+03	5.775355E-06	2.022450E-07
6.930693E+03	6.045626E-06	2.115049E-07
6.940694E+03	6.358613E-06	2.222372E-07
6.950695E+03	6.711072E-06	2.343239E-07
6.960696E+03	7.099754E-06	2.476474E-07
6.970697E+03	7.520529E-06	2.620595E-07
6.980698E+03	7.967256E-06	2.773429E-07
6.990699E+03	8.436561E-06	2.933769E-07
7.000700E+03	8.921249E-06	3.099089E-07
7.010701E+03	9.415102E-06	3.267210E-07
7.020702E+03	9.912133E-06	3.436044E-07
7.030703E+03	1.040544E-05	3.603191E-07
7.040704E+03	1.089357E-05	3.768153E-07
7.050705E+03	1.137188E-05	3.929328E-07
7.060706E+03	1.183692E-05	4.085532E-07
7.070707E+03	1.229200E-05	4.237917E-07
7.080708E+03	1.273699E-05	4.386451E-07
7.090709E+03	1.317315E-05	4.531576E-07
7.100710E+03	1.360901E-05	4.676231E-07
7.110711E+03	1.404879E-05	4.821861E-07
7.120712E+03	1.449754E-05	4.970196E-07
7.130713E+03	1.496747E-05	5.125406E-07
7.140714E+03	1.546268E-05	5.288859E-07
7.150715E+03	1.599600E-05	5.464918E-07
7.160716E+03	1.657301E-05	5.655431E-07
7.170717E+03	1.719763E-05	5.861687E-07
7.180718E+03	1.787926E-05	6.086828E-07
7.190719E+03	1.861419E-05	6.329522E-07
7.200720E+03	1.940544E-05	6.590729E-07
7.210721E+03	2.024029E-05	6.866066E-07
7.220722E+03	2.111188E-05	7.153156E-07
7.230723E+03	2.199539E-05	7.443554E-07
7.240724E+03	2.287232E-05	7.730998E-07
7.250725E+03	2.370564E-05	8.002990E-07
7.260726E+03	2.446761E-05	8.250234E-07
7.270727E+03	2.511441E-05	8.458065E-07
7.280728E+03	2.561728E-05	8.616947E-07
7.290729E+03	2.593653E-05	8.713732E-07
7.300730E+03	2.605064E-05	8.741426E-07
7.310731E+03	2.594778E-05	8.696318E-07
7.320732E+03	2.561576E-05	8.574599E-07
7.330733E+03	2.506937E-05	8.381495E-07
7.340734E+03	2.431906E-05	8.120762E-07
7.350735E+03	2.339556E-05	7.802899E-07
7.360736E+03	2.233518E-05	7.440212E-07
7.370737E+03	2.116739E-05	7.042671E-07
7.380738E+03	1.993219E-05	6.623701E-07
7.390739E+03	1.866678E-05	6.195725E-07
7.400740E+03	1.739607E-05	5.767034E-07
7.410741E+03	1.614882E-05	5.347153E-07
7.420742E+03	1.494554E-05	4.942834E-07
7.430743E+03	1.380371E-05	4.559797E-07
7.440744E+03	1.272990E-05	4.200124E-07
7.450745E+03	1.173315E-05	3.866716E-07
7.460746E+03	1.081709E-05	3.560671E-07
7.470747E+03	9.982884E-06	3.282271E-07
7.480748E+03	9.231218E-06	3.031643E-07
7.490749E+03	8.557312E-06	2.807120E-07
7.500750E+03	7.959898E-06	2.608194E-07
7.510751E+03	7.435782E-06	2.433728E-07
7.520752E+03	6.981598E-06	2.282539E-07
7.530753E+03	6.594029E-06	2.153460E-07
7.540754E+03	6.270884E-06	2.045705E-07
7.550755E+03	6.007454E-06	1.957665E-07
7.560756E+03	5.802305E-06	1.888808E-07
7.570757E+03	5.653456E-06	1.838430E-07
7.580758E+03	5.559374E-06	1.805972E-07
7.590759E+03	5.518946E-06	1.791019E-07
7.600760E+03	5.531413E-06	1.793271E-07
7.610761E+03	5.596231E-06	1.812503E-07
7.620762E+03	5.712893E-06	1.848503E-07
7.630763E+03	5.880646E-06	1.900983E-07
7.640764E+03	6.098145E-06	1.969465E-07
7.650765E+03	6.363026E-06	2.053147E-07
7.660766E+03	6.671440E-06	2.150755E-07
7.670767E+03	7.017581E-06	2.260389E-07
7.680768E+03	7.393296E-06	2.379401E-07
7.690769E+03	7.787871E-06	2.504334E-07
7.700770E+03	8.188104E-06	2.630941E-07
7.710771E+03	8.577455E-06	2.753919E-07
7.720772E+03	8.941974E-06	2.868812E-07
7.730773E+03	9.263987E-06	2.969983E-07
7.740774E+03	9.528513E-06	3.052672E-07
7.750775E+03	9.723532E-06	3.113080E-07
7.760776E+03	9.841257E-06	3.148765E-07
