#wls	flux	fluxerr
1.600160E+03	4.497791E-07	3.988675E-08
1.640164E+03	4.541909E-07	4.014738E-08
1.680168E+03	4.590739E-07	4.044392E-08
1.720172E+03	4.644807E-07	4.078044E-08
1.760176E+03	4.704698E-07	4.116144E-08
1.800180E+03	4.771072E-07	4.159194E-08
1.840184E+03	4.844669E-07	4.207759E-08
1.880188E+03	4.926320E-07	4.262467E-08
1.920192E+03	5.016966E-07	4.324027E-08
1.960196E+03	5.117666E-07	4.393235E-08
2.000200E+03	5.229629E-07	4.470991E-08
2.040204E+03	5.354221E-07	4.558311E-08
2.080208E+03	5.493005E-07	4.656353E-08
2.120212E+03	5.647764E-07	4.766427E-08
2.160216E+03	5.820542E-07	4.890034E-08
2.200220E+03	6.013687E-07	5.028887E-08
2.240224E+03	6.229905E-07	5.184951E-08
2.280228E+03	6.472325E-07	5.360486E-08
2.320232E+03	6.745776E-07	5.559096E-08
2.360236E+03	7.052092E-07	5.781828E-08
2.400240E+03	7.397329E-07	6.033134E-08
2.440244E+03	7.787188E-07	6.317051E-08
2.480248E+03	8.229813E-07	6.639470E-08
2.520252E+03	8.730135E-07	7.003535E-08
2.560256E+03	9.298686E-07	7.416741E-08
2.600260E+03	9.947956E-07	7.887914E-08
2.640264E+03	1.068705E-06	8.422943E-08
2.680268E+03	1.153232E-06	9.033176E-08
2.720272E+03	1.250314E-06	9.731960E-08
2.760276E+03	1.361512E-06	1.052930E-07
2.800280E+03	1.489596E-06	1.144410E-07
2.840284E+03	1.636672E-06	1.248959E-07
2.880288E+03	1.806227E-06	1.368895E-07
2.920292E+03	2.000802E-06	1.505745E-07
2.960296E+03	2.224300E-06	1.661989E-07
3.000300E+03	2.478886E-06	1.838725E-07
3.010301E+03	2.548055E-06	1.886539E-07
3.020302E+03	2.618889E-06	1.935383E-07
3.030303E+03	2.692325E-06	1.985941E-07
3.040304E+03	2.767408E-06	2.037499E-07
3.050305E+03	2.844597E-06	2.090386E-07
3.060306E+03	2.924395E-06	2.144961E-07
3.070307E+03	3.005729E-06	2.200427E-07
3.080308E+03	3.089061E-06	2.257115E-07
3.090309E+03	3.174895E-06	2.315384E-07
3.100310E+03	3.262033E-06	2.374349E-07
3.110311E+03	3.351536E-06	2.434775E-07
3.120312E+03	3.442115E-06	2.495717E-07
3.130313E+03	3.534234E-06	2.557507E-07
3.140314E+03	3.628417E-06	2.620514E-07
3.150315E+03	3.723249E-06	2.683708E-07
3.160316E+03	3.819903E-06	2.747932E-07
3.170317E+03	3.916893E-06	2.812109E-07
3.180318E+03	4.014746E-06	2.876615E-07
3.190319E+03	4.114070E-06	2.941881E-07
3.200320E+03	4.213294E-06	3.006776E-07
3.210321E+03	4.313805E-06	3.072291E-07
3.220322E+03	4.413996E-06	3.137277E-07
3.230323E+03	4.515362E-06	3.202795E-07
3.240324E+03	4.616266E-06	3.267680E-07
3.250325E+03	4.717474E-06	3.332476E-07
3.260326E+03	4.819845E-06	3.397785E-07
3.270327E+03	4.921679E-06	3.462407E-07
3.280328E+03	5.024735E-06	3.527578E-07
3.290329E+03	5.127248E-06	3.592057E-07
3.300330E+03	5.230100E-06	3.656462E-07
3.310331E+03	5.334225E-06	3.721444E-07
3.320332E+03	5.437684E-06	3.785647E-07
3.330333E+03	5.542302E-06	3.850339E-07
3.340334E+03	5.645957E-06	3.914048E-07
3.350335E+03	5.749388E-06	3.977287E-07
3.360336E+03	5.853311E-06	4.040551E-07
3.370337E+03	5.955209E-06	4.102106E-07
3.380338E+03	6.056602E-06	4.163005E-07
3.390339E+03	6.154603E-06	4.221270E-07
3.400340E+03	6.250490E-06	4.277791E-07
3.410341E+03	6.340968E-06	4.330328E-07
3.420342E+03	6.425924E-06	4.378829E-07
3.430343E+03	6.505262E-06	4.423252E-07
3.440344E+03	6.575432E-06	4.461216E-07
3.450345E+03	6.637604E-06	4.493553E-07
3.460346E+03	6.688434E-06	4.518043E-07
3.470347E+03	6.728420E-06	4.535069E-07
3.480348E+03	6.758419E-06	4.545259E-07
3.490349E+03	6.776111E-06	4.547102E-07
3.500350E+03	6.784575E-06	4.542713E-07
3.510351E+03	6.782508E-06	4.531265E-07
3.520352E+03	6.773808E-06	4.515405E-07
3.530353E+03	6.757903E-06	4.494781E-07
3.540354E+03	6.737969E-06	4.471536E-07
3.550355E+03	6.716954E-06	4.447639E-07
3.560356E+03	6.693789E-06	4.422391E-07
3.570357E+03	6.671788E-06	4.397985E-07
3.580358E+03	6.649062E-06	4.373177E-07
3.590359E+03	6.626826E-06	4.348766E-07
3.600360E+03	6.605830E-06	4.325244E-07
3.610361E+03	6.582883E-06	4.300520E-07
3.620362E+03	6.559077E-06	4.275317E-07
3.630363E+03	6.530449E-06	4.247062E-07
3.640364E+03	6.497432E-06	4.216058E-07
3.650365E+03	6.455570E-06	4.179440E-07
3.660366E+03	6.403816E-06	4.136571E-07
3.670367E+03	6.341212E-06	4.086880E-07
3.680368E+03	6.263710E-06	4.027810E-07
3.690369E+03	6.172160E-06	3.959972E-07
3.700370E+03	6.063432E-06	3.881425E-07
3.710371E+03	5.938320E-06	3.792750E-07
3.720372E+03	5.798247E-06	3.694924E-07
3.730373E+03	5.642417E-06	3.587507E-07
3.740374E+03	5.475195E-06	3.473335E-07
3.750375E+03	5.297920E-06	3.353302E-07
3.760376E+03	5.117071E-06	3.231543E-07
3.770377E+03	4.936684E-06	3.110614E-07
3.775848E+03	4.774831E-06	3.004931E-07
3.780958E+03	4.777410E-06	3.003104E-07
3.786079E+03	4.791886E-06	3.008742E-07
3.791209E+03	4.788272E-06	3.003015E-07
3.796350E+03	4.666421E-06	2.923225E-07
3.801490E+03	4.699742E-06	2.940711E-07
3.806641E+03	4.603645E-06	2.877264E-07
3.811801E+03	4.516334E-06	2.819441E-07
3.816962E+03	4.388494E-06	2.736479E-07
3.822132E+03	4.274171E-06	2.662120E-07
3.827313E+03	4.115342E-06	2.560239E-07
3.832493E+03	4.059659E-06	2.522689E-07
3.837684E+03	4.185951E-06	2.598169E-07
3.842884E+03	4.257205E-06	2.639348E-07
3.848095E+03	4.297603E-06	2.661319E-07
3.853305E+03	4.095145E-06	2.533025E-07
3.858526E+03	4.129623E-06	2.551406E-07
3.863756E+03	4.138502E-06	2.553944E-07
3.868987E+03	4.051800E-06	2.497560E-07
3.874227E+03	3.940884E-06	2.426394E-07
3.879478E+03	3.985466E-06	2.451018E-07
3.884728E+03	3.967573E-06	2.437209E-07
3.889999E+03	4.013434E-06	2.462542E-07
3.895260E+03	4.012615E-06	2.459216E-07
3.900540E+03	4.021755E-06	2.461985E-07
3.905821E+03	4.147902E-06	2.536297E-07
3.911121E+03	4.285065E-06	2.617158E-07
3.916412E+03	4.638897E-06	2.830025E-07
3.921722E+03	5.062069E-06	3.084650E-07
3.927033E+03	5.455793E-06	3.320774E-07
3.932353E+03	5.750789E-06	3.496332E-07
3.937684E+03	6.038876E-06	3.667292E-07
3.943014E+03	6.274175E-06	3.805849E-07
3.948355E+03	6.611170E-06	4.005707E-07
3.953705E+03	6.946768E-06	4.204264E-07
3.959066E+03	7.286865E-06	4.405091E-07
3.964426E+03	7.475487E-06	4.514005E-07
3.969797E+03	7.625276E-06	4.599251E-07
3.975178E+03	8.067399E-06	4.860430E-07
3.980558E+03	8.279168E-06	4.982406E-07
3.985949E+03	8.334801E-06	5.010254E-07
3.991349E+03	8.579465E-06	5.151545E-07
3.996760E+03	9.143301E-06	5.483955E-07
4.002170E+03	9.530350E-06	5.709724E-07
4.007591E+03	9.919552E-06	5.936285E-07
4.013021E+03	9.925523E-06	5.933260E-07
4.018462E+03	9.932630E-06	5.930927E-07
4.023902E+03	1.004430E-05	5.990987E-07
4.029353E+03	1.008228E-05	6.007017E-07
4.034813E+03	9.925648E-06	5.907201E-07
4.040284E+03	9.731287E-06	5.785183E-07
4.045755E+03	9.204872E-06	5.466265E-07
4.051235E+03	8.655819E-06	5.134623E-07
4.056726E+03	8.322008E-06	4.931255E-07
4.062216E+03	8.092803E-06	4.790264E-07
4.067727E+03	8.001198E-06	4.730940E-07
4.073237E+03	7.939898E-06	4.689663E-07
4.078748E+03	7.832478E-06	4.621285E-07
4.084278E+03	7.956210E-06	4.689294E-07
4.089809E+03	8.184630E-06	4.818819E-07
4.095350E+03	8.285179E-06	4.872878E-07
4.100900E+03	8.278631E-06	4.863917E-07
4.106451E+03	8.043294E-06	4.720722E-07
4.112021E+03	7.950257E-06	4.661263E-07
4.117592E+03	8.069802E-06	4.726462E-07
4.123162E+03	8.132424E-06	4.758249E-07
4.128753E+03	8.298789E-06	4.850618E-07
4.134343E+03	8.454410E-06	4.936555E-07
4.139944E+03	8.655095E-06	5.048626E-07
4.145555E+03	9.027571E-06	5.260601E-07
4.151165E+03	9.536580E-06	5.551668E-07
4.156796E+03	1.002545E-05	5.830460E-07
4.162426E+03	1.031082E-05	5.990506E-07
4.168067E+03	1.025177E-05	5.950366E-07
4.173707E+03	1.009035E-05	5.850979E-07
4.179368E+03	9.990696E-06	5.787594E-07
4.185029E+03	9.747649E-06	5.641385E-07
4.190699E+03	9.729507E-06	5.625526E-07
4.196370E+03	9.896724E-06	5.716814E-07
4.202060E+03	9.978410E-06	5.758597E-07
4.207751E+03	1.057940E-05	6.099762E-07
4.213451E+03	1.105283E-05	6.366861E-07
4.219162E+03	1.138774E-05	6.553793E-07
4.224872E+03	1.174861E-05	6.755374E-07
4.230603E+03	1.165420E-05	6.695078E-07
4.236334E+03	1.149687E-05	6.598840E-07
4.242064E+03	1.106784E-05	6.347020E-07
4.247815E+03	1.068378E-05	6.121445E-07
4.253575E+03	1.028134E-05	5.885790E-07
4.259336E+03	1.022334E-05	5.847609E-07
4.265107E+03	1.017304E-05	5.813948E-07
4.270877E+03	1.011717E-05	5.777219E-07
4.276668E+03	1.033113E-05	5.894547E-07
4.282458E+03	1.096903E-05	6.253438E-07
4.288259E+03	1.164017E-05	6.630743E-07
4.294069E+03	1.250100E-05	7.115480E-07
4.299890E+03	1.330805E-05	7.568940E-07
4.305711E+03	1.380325E-05	7.844562E-07
4.311551E+03	1.396356E-05	7.929654E-07
4.317392E+03	1.408986E-05	7.995410E-07
4.323232E+03	1.408906E-05	7.989096E-07
4.329093E+03	1.389045E-05	7.870781E-07
4.334953E+03	1.387293E-05	7.855274E-07
4.340834E+03	1.388905E-05	7.858903E-07
4.346715E+03	1.371219E-05	7.753509E-07
4.352595E+03	1.373938E-05	7.763661E-07
4.358496E+03	1.349143E-05	7.618514E-07
4.364396E+03	1.332306E-05	7.518566E-07
4.370317E+03	1.311281E-05	7.395218E-07
4.376238E+03	1.295676E-05	7.302676E-07
4.382158E+03	1.295395E-05	7.296667E-07
4.388099E+03	1.318645E-05	7.423220E-07
4.394039E+03	1.351407E-05	7.603245E-07
4.400000E+03	1.352982E-05	7.607802E-07
4.405961E+03	1.352058E-05	7.598425E-07
4.411921E+03	1.360345E-05	7.640904E-07
4.417902E+03	1.354182E-05	7.602329E-07
4.423892E+03	1.370859E-05	7.692056E-07
4.429883E+03	1.369712E-05	7.681857E-07
4.435884E+03	1.364803E-05	7.650690E-07
4.441894E+03	1.349624E-05	7.562130E-07
4.447905E+03	1.342924E-05	7.521259E-07
4.453935E+03	1.327829E-05	7.433538E-07
4.459966E+03	1.279306E-05	7.158945E-07
4.466007E+03	1.222187E-05	6.836603E-07
4.472057E+03	1.178926E-05	6.592102E-07
4.478118E+03	1.143194E-05	6.389968E-07
4.484188E+03	1.176894E-05	6.576035E-07
4.490259E+03	1.217632E-05	6.801391E-07
4.496340E+03	1.290857E-05	7.208107E-07
4.502430E+03	1.393637E-05	7.779664E-07
4.508531E+03	1.500847E-05	8.375722E-07
4.514641E+03	1.649169E-05	9.200941E-07
4.520762E+03	1.800716E-05	1.004385E-06
4.526883E+03	1.980032E-05	1.104133E-06
4.533013E+03	2.159227E-05	1.203784E-06
4.539154E+03	2.284451E-05	1.273325E-06
4.545305E+03	2.366675E-05	1.318893E-06
4.551465E+03	2.402152E-05	1.338417E-06
4.557626E+03	2.394673E-05	1.334025E-06
4.563806E+03	2.343006E-05	1.305040E-06
4.569987E+03	2.265611E-05	1.261754E-06
4.576178E+03	2.166655E-05	1.206492E-06
4.582378E+03	2.074174E-05	1.154865E-06
4.588589E+03	1.982864E-05	1.103917E-06
4.594799E+03	1.885415E-05	1.049577E-06
4.601030E+03	1.763187E-05	9.814672E-07
4.607261E+03	1.632694E-05	9.087785E-07
4.613501E+03	1.515370E-05	8.434392E-07
4.619752E+03	1.431161E-05	7.965471E-07
4.626013E+03	1.365127E-05	7.597837E-07
4.632273E+03	1.315336E-05	7.320710E-07
4.638554E+03	1.268858E-05	7.062119E-07
4.644834E+03	1.212165E-05	6.746758E-07
4.651125E+03	1.166057E-05	6.490380E-07
4.657426E+03	1.111642E-05	6.187823E-07
4.663736E+03	1.080869E-05	6.016920E-07
4.670057E+03	1.074732E-05	5.983229E-07
4.676388E+03	1.028497E-05	5.726351E-07
4.682718E+03	9.835699E-06	5.476777E-07
4.689059E+03	9.558477E-06	5.323030E-07
4.695410E+03	9.254104E-06	5.154190E-07
4.701770E+03	8.999387E-06	5.013028E-07
4.708141E+03	8.801208E-06	4.903385E-07
4.714521E+03	8.752896E-06	4.877276E-07
4.720912E+03	8.686457E-06	4.841114E-07
4.727303E+03	8.931422E-06	4.978577E-07
4.733713E+03	9.317253E-06	5.194693E-07
4.740124E+03	9.579936E-06	5.342282E-07
4.746545E+03	9.761698E-06	5.444861E-07
4.752975E+03	9.876148E-06	5.509996E-07
4.759416E+03	9.925832E-06	5.539080E-07
4.765857E+03	1.002856E-05	5.597850E-07
4.772317E+03	1.000940E-05	5.588657E-07
4.778778E+03	9.844539E-06	5.498143E-07
4.785259E+03	9.497519E-06	5.305876E-07
4.791739E+03	9.204823E-06	5.143906E-07
4.798230E+03	8.990435E-06	5.025665E-07
4.804730E+03	8.685006E-06	4.856493E-07
4.811241E+03	8.434199E-06	4.717813E-07
4.817762E+03	8.315840E-06	4.653200E-07
4.824282E+03	8.292791E-06	4.641936E-07
4.830823E+03	8.425316E-06	4.717827E-07
4.837364E+03	8.591696E-06	4.812781E-07
4.843914E+03	8.796918E-06	4.929619E-07
4.850475E+03	9.215816E-06	5.166380E-07
4.857046E+03	9.604465E-06	5.386412E-07
4.863626E+03	9.883383E-06	5.545106E-07
4.870217E+03	1.033516E-05	5.801007E-07
4.876818E+03	1.069942E-05	6.008030E-07
4.883428E+03	1.095498E-05	6.154221E-07
4.890039E+03	1.110569E-05	6.241663E-07
4.896660E+03	1.108646E-05	6.233678E-07
4.903300E+03	1.101637E-05	6.197135E-07
4.909941E+03	1.081573E-05	6.087131E-07
4.916592E+03	1.058460E-05	5.959900E-07
4.923252E+03	1.016646E-05	5.727240E-07
4.929923E+03	9.659668E-06	5.444436E-07
4.936604E+03	9.337861E-06	5.265703E-07
4.943284E+03	9.210896E-06	5.196753E-07
4.949985E+03	9.087522E-06	5.129802E-07
4.956696E+03	9.085373E-06	5.131284E-07
4.963406E+03	9.562968E-06	5.403897E-07
4.970127E+03	1.000348E-05	5.655872E-07
4.976868E+03	1.042701E-05	5.898559E-07
4.983608E+03	1.079821E-05	6.111928E-07
4.990359E+03	1.105807E-05	6.262519E-07
4.997120E+03	1.130322E-05	6.404985E-07
5.003890E+03	1.136271E-05	6.442388E-07
5.010671E+03	1.127319E-05	6.395339E-07
5.017452E+03	1.107661E-05	6.287499E-07
5.024252E+03	1.083822E-05	6.155826E-07
5.031053E+03	1.043217E-05	5.928744E-07
5.037874E+03	1.001303E-05	5.693980E-07
5.044694E+03	9.716997E-06	5.529010E-07
5.051535E+03	9.353024E-06	5.325189E-07
5.058376E+03	8.952541E-06	5.100338E-07
5.065227E+03	8.641361E-06	4.926141E-07
5.072087E+03	8.302851E-06	4.736160E-07
5.078958E+03	8.056438E-06	4.598529E-07
5.085839E+03	8.047862E-06	4.596585E-07
5.092729E+03	8.215982E-06	4.695646E-07
5.099630E+03	8.592868E-06	4.914250E-07
5.106541E+03	9.126315E-06	5.222758E-07
5.113461E+03	9.976378E-06	5.713007E-07
5.120382E+03	1.094230E-05	6.270316E-07
5.127323E+03	1.201594E-05	6.890168E-07
5.134263E+03	1.310849E-05	7.521724E-07
5.141224E+03	1.408778E-05	8.089143E-07
5.148185E+03	1.485200E-05	8.533774E-07
5.155166E+03	1.535898E-05	8.831147E-07
5.162146E+03	1.564568E-05	9.002208E-07
5.169137E+03	1.567069E-05	9.022859E-07
5.176138E+03	1.550897E-05	8.935980E-07
5.183158E+03	1.525984E-05	8.798611E-07
5.190179E+03	1.490056E-05	8.597514E-07
5.197210E+03	1.462412E-05	8.443991E-07
5.204250E+03	1.436116E-05	8.298060E-07
5.211301E+03	1.425929E-05	8.245090E-07
5.218362E+03	1.420019E-05	8.216808E-07
5.225433E+03	1.414278E-05	8.189491E-07
5.232503E+03	1.418174E-05	8.217988E-07
5.239594E+03	1.412860E-05	8.193144E-07
5.246695E+03	1.407454E-05	8.167745E-07
5.253805E+03	1.398053E-05	8.119131E-07
5.260916E+03	1.376737E-05	8.001203E-07
5.268047E+03	1.348693E-05	7.843991E-07
5.275188E+03	1.314113E-05	7.648522E-07
5.282328E+03	1.281250E-05	7.462772E-07
5.289489E+03	1.253651E-05	7.307444E-07
5.296650E+03	1.224238E-05	7.141311E-07
5.303830E+03	1.196976E-05	6.987500E-07
5.311011E+03	1.167752E-05	6.822003E-07
5.318202E+03	1.140008E-05	6.664918E-07
5.325413E+03	1.107443E-05	6.479401E-07
5.332623E+03	1.073865E-05	6.287674E-07
5.339854E+03	1.040600E-05	6.097506E-07
5.347085E+03	9.921290E-06	5.817881E-07
5.354325E+03	9.478342E-06	5.562344E-07
5.361586E+03	9.127144E-06	5.360313E-07
5.368847E+03	8.794357E-06	5.168794E-07
5.376118E+03	8.478358E-06	4.986860E-07
5.383398E+03	8.306245E-06	4.889347E-07
5.390699E+03	8.186086E-06	4.822298E-07
5.398000E+03	7.952673E-06	4.688375E-07
5.405311E+03	7.732598E-06	4.562118E-07
5.412631E+03	7.514769E-06	4.436995E-07
5.419962E+03	7.314189E-06	4.321872E-07
5.427313E+03	7.093782E-06	4.194853E-07
5.434663E+03	6.869645E-06	4.065426E-07
5.442024E+03	6.581509E-06	3.897897E-07
5.449395E+03	6.385332E-06	3.784614E-07
5.456776E+03	6.196269E-06	3.675375E-07
5.464166E+03	6.087640E-06	3.613714E-07
5.471577E+03	6.099626E-06	3.623613E-07
5.478988E+03	6.126435E-06	3.642333E-07
5.486409E+03	6.212875E-06	3.696558E-07
5.493839E+03	6.426134E-06	3.826375E-07
5.501280E+03	6.667761E-06	3.973291E-07
5.508731E+03	6.929769E-06	4.132582E-07
5.516202E+03	7.148330E-06	4.266184E-07
5.523672E+03	7.488124E-06	4.472388E-07
5.531153E+03	7.736010E-06	4.623963E-07
5.538644E+03	7.799712E-06	4.665587E-07
5.546155E+03	7.824269E-06	4.683835E-07
5.553665E+03	7.665426E-06	4.592226E-07
5.561186E+03	7.346834E-06	4.404691E-07
5.568727E+03	6.928358E-06	4.156938E-07
5.576268E+03	6.538312E-06	3.925866E-07
5.583818E+03	6.165904E-06	3.705035E-07
5.591389E+03	5.801873E-06	3.488904E-07
5.598960E+03	5.518502E-06	3.320976E-07
5.606541E+03	5.231665E-06	3.150701E-07
5.614141E+03	5.071135E-06	3.056289E-07
5.621742E+03	4.993179E-06	3.011527E-07
5.629363E+03	4.967703E-06	2.998367E-07
5.636984E+03	5.056230E-06	3.054033E-07
5.644624E+03	5.039869E-06	3.046373E-07
5.652275E+03	5.029310E-06	3.042200E-07
5.659926E+03	4.961638E-06	3.003434E-07
5.667597E+03	4.906550E-06	2.972225E-07
5.675278E+03	4.764692E-06	2.888360E-07
5.682958E+03	4.480927E-06	2.718274E-07
5.690659E+03	4.311403E-06	2.617290E-07
5.698370E+03	4.140717E-06	2.515444E-07
5.706091E+03	3.905986E-06	2.374510E-07
5.713821E+03	3.661445E-06	2.227401E-07
5.721562E+03	3.390688E-06	2.064116E-07
5.729313E+03	3.114007E-06	1.896988E-07
5.737074E+03	2.805195E-06	1.710034E-07
5.744844E+03	2.576402E-06	1.571629E-07
5.752625E+03	2.378232E-06	1.451721E-07
5.760416E+03	2.280486E-06	1.392986E-07
5.768227E+03	2.264766E-06	1.384304E-07
5.776038E+03	2.271698E-06	1.389456E-07
5.783868E+03	2.328417E-06	1.425080E-07
5.791699E+03	2.543086E-06	1.557475E-07
5.799550E+03	2.756515E-06	1.689274E-07
5.807401E+03	3.060170E-06	1.876559E-07
5.815272E+03	3.415529E-06	2.095798E-07
5.823152E+03	3.734570E-06	2.293002E-07
5.831033E+03	4.016245E-06	2.467479E-07
5.838934E+03	4.382771E-06	2.694320E-07
5.846845E+03	4.603452E-06	2.831710E-07
5.854765E+03	4.782919E-06	2.943881E-07
5.862696E+03	4.888040E-06	3.010379E-07
5.870637E+03	4.920746E-06	3.032313E-07
5.878598E+03	4.929515E-06	3.039495E-07
5.886559E+03	4.908949E-06	3.028564E-07
5.894529E+03	4.881135E-06	3.013125E-07
5.902520E+03	4.857534E-06	3.000252E-07
5.910511E+03	4.800206E-06	2.966498E-07
5.918522E+03	4.788698E-06	2.961020E-07
5.926543E+03	4.753536E-06	2.940880E-07
5.934563E+03	4.697545E-06	2.907802E-07
5.942604E+03	4.584377E-06	2.839256E-07
5.950655E+03	4.413822E-06	2.735058E-07
5.958716E+03	4.194605E-06	2.600560E-07
5.966797E+03	3.963705E-06	2.458660E-07
5.974877E+03	3.651266E-06	2.265992E-07
5.982968E+03	3.394159E-06	2.107470E-07
5.991079E+03	3.107617E-06	1.930493E-07
5.999190E+03	2.781307E-06	1.728612E-07
6.007321E+03	2.551472E-06	1.586515E-07
6.015452E+03	2.428666E-06	1.510853E-07
6.023602E+03	2.242309E-06	1.395557E-07
6.031763E+03	2.167419E-06	1.349551E-07
6.039934E+03	2.103575E-06	1.310374E-07
6.048125E+03	2.059845E-06	1.283688E-07
6.056316E+03	2.148292E-06	1.339374E-07
6.064516E+03	2.308415E-06	1.439801E-07
6.072737E+03	2.497948E-06	1.558650E-07
6.080958E+03	2.703095E-06	1.687327E-07
6.089199E+03	2.887548E-06	1.803169E-07
6.097450E+03	3.106386E-06	1.940564E-07
6.105711E+03	3.292304E-06	2.057473E-07
6.113981E+03	3.455777E-06	2.160419E-07
6.122262E+03	3.593089E-06	2.247059E-07
6.130553E+03	3.810991E-06	2.384155E-07
6.138864E+03	3.932881E-06	2.461240E-07
6.147175E+03	3.591405E-06	2.248278E-07
6.155506E+03	3.045898E-06	1.907391E-07
6.163846E+03	2.547259E-06	1.595630E-07
6.172197E+03	2.414231E-06	1.512756E-07
6.180558E+03	2.565271E-06	1.607866E-07
6.188929E+03	3.441407E-06	2.157622E-07
6.197310E+03	5.540733E-06	3.474763E-07
6.205711E+03	8.510810E-06	5.338799E-07
6.214121E+03	1.226731E-05	7.697198E-07
6.222532E+03	1.631133E-05	1.023715E-06
6.230963E+03	2.084385E-05	1.308489E-06
6.239404E+03	2.602880E-05	1.634347E-06
6.247855E+03	3.125592E-05	1.962981E-06
6.256326E+03	3.599843E-05	2.261295E-06
6.264796E+03	4.026112E-05	2.529560E-06
6.273287E+03	4.365014E-05	2.743002E-06
6.281788E+03	4.603739E-05	2.893531E-06
6.290299E+03	4.721443E-05	2.968006E-06
6.298820E+03	4.722670E-05	2.969245E-06
6.307351E+03	4.614645E-05	2.901755E-06
6.315892E+03	4.442587E-05	2.793946E-06
6.324452E+03	4.205383E-05	2.645106E-06
6.333013E+03	3.880287E-05	2.440912E-06
6.341594E+03	3.530814E-05	2.221313E-06
6.350185E+03	3.188384E-05	2.006078E-06
6.358786E+03	2.875232E-05	1.809205E-06
6.367407E+03	2.571962E-05	1.618500E-06
6.376028E+03	2.322110E-05	1.461369E-06
6.384668E+03	2.158716E-05	1.358616E-06
6.393319E+03	2.041555E-05	1.284938E-06
6.401980E+03	1.948871E-05	1.226647E-06
6.410651E+03	1.838457E-05	1.157180E-06
6.419342E+03	1.748574E-05	1.100621E-06
6.428033E+03	1.688949E-05	1.063095E-06
6.436744E+03	1.603512E-05	1.009311E-06
6.445465E+03	1.498364E-05	9.431116E-07
6.454195E+03	1.398700E-05	8.803565E-07
6.462936E+03	1.295935E-05	8.156443E-07
6.471687E+03	1.222534E-05	7.694096E-07
