#wls	flux	fluxerr
1.591691E+03	4.183010E-02	0.000000E+00
1.631484E+03	4.396039E-02	0.000000E+00
1.671276E+03	4.617394E-02	0.000000E+00
1.711068E+03	4.847062E-02	0.000000E+00
1.750861E+03	5.084946E-02	0.000000E+00
1.790653E+03	5.330800E-02	0.000000E+00
1.830445E+03	5.584156E-02	0.000000E+00
1.870237E+03	5.844198E-02	0.000000E+00
1.910030E+03	6.109524E-02	0.000000E+00
1.949822E+03	6.377731E-02	0.000000E+00
1.989614E+03	6.644607E-02	0.000000E+00
2.029406E+03	6.902436E-02	0.000000E+00
2.069199E+03	7.138413E-02	0.000000E+00
2.108991E+03	7.341965E-02	0.000000E+00
2.148783E+03	7.515581E-02	0.000000E+00
2.188576E+03	7.660934E-02	0.000000E+00
2.228368E+03	7.767386E-02	0.000000E+00
2.268160E+03	7.819804E-02	0.000000E+00
2.307952E+03	7.829814E-02	0.000000E+00
2.347745E+03	7.823762E-02	0.000000E+00
2.387537E+03	7.817791E-02	0.000000E+00
2.427329E+03	7.819122E-02	0.000000E+00
2.467122E+03	7.829953E-02	0.000000E+00
2.506914E+03	7.848547E-02	0.000000E+00
2.546706E+03	7.867085E-02	0.000000E+00
2.586498E+03	7.865053E-02	0.000000E+00
2.626291E+03	7.817062E-02	0.000000E+00
2.666083E+03	7.724741E-02	0.000000E+00
2.705875E+03	7.608560E-02	0.000000E+00
2.745668E+03	7.481987E-02	0.000000E+00
2.785460E+03	7.351494E-02	0.000000E+00
2.825252E+03	7.220161E-02	0.000000E+00
2.865044E+03	7.089487E-02	0.000000E+00
2.904837E+03	6.960162E-02	0.000000E+00
2.944629E+03	6.832492E-02	0.000000E+00
2.984421E+03	6.706615E-02	0.000000E+00
2.994369E+03	6.675444E-02	0.000000E+00
3.004317E+03	6.644383E-02	0.000000E+00
3.014266E+03	6.613465E-02	0.000000E+00
3.024214E+03	6.582694E-02	0.000000E+00
3.034162E+03	6.552052E-02	0.000000E+00
3.044110E+03	6.521559E-02	0.000000E+00
3.054058E+03	6.491255E-02	0.000000E+00
3.064006E+03	6.461105E-02	0.000000E+00
3.073954E+03	6.431155E-02	0.000000E+00
3.083902E+03	6.401433E-02	0.000000E+00
3.093850E+03	6.371927E-02	0.000000E+00
3.103798E+03	6.342682E-02	0.000000E+00
3.113746E+03	6.313719E-02	0.000000E+00
3.123694E+03	6.285071E-02	0.000000E+00
3.133642E+03	6.256771E-02	0.000000E+00
3.143590E+03	6.228862E-02	0.000000E+00
3.153539E+03	6.201387E-02	0.000000E+00
3.163487E+03	6.174384E-02	0.000000E+00
3.173435E+03	6.147916E-02	0.000000E+00
3.183383E+03	6.122029E-02	0.000000E+00
3.193331E+03	6.096776E-02	0.000000E+00
3.203279E+03	6.072244E-02	0.000000E+00
3.213227E+03	6.048479E-02	0.000000E+00
3.223175E+03	6.025559E-02	0.000000E+00
3.233123E+03	6.003554E-02	0.000000E+00
3.243071E+03	5.982555E-02	0.000000E+00
3.253019E+03	5.962644E-02	0.000000E+00
3.262967E+03	5.943873E-02	0.000000E+00
3.272915E+03	5.926346E-02	0.000000E+00
3.282863E+03	5.910112E-02	0.000000E+00
3.292812E+03	5.895270E-02	0.000000E+00
3.302760E+03	5.881860E-02	0.000000E+00
3.312708E+03	5.869918E-02	0.000000E+00
3.322656E+03	5.859497E-02	0.000000E+00
3.332604E+03	5.850598E-02	0.000000E+00
3.342552E+03	5.843191E-02	0.000000E+00
3.352500E+03	5.837221E-02	0.000000E+00
3.362448E+03	5.832575E-02	0.000000E+00
3.372396E+03	5.829132E-02	0.000000E+00
3.382344E+03	5.826633E-02	0.000000E+00
3.392292E+03	5.824797E-02	0.000000E+00
3.402240E+03	5.823256E-02	0.000000E+00
3.412188E+03	5.821535E-02	0.000000E+00
3.422136E+03	5.819131E-02	0.000000E+00
3.432085E+03	5.815464E-02	0.000000E+00
3.442033E+03	5.810017E-02	0.000000E+00
3.451981E+03	5.802353E-02	0.000000E+00
3.461929E+03	5.792286E-02	0.000000E+00
3.471877E+03	5.779915E-02	0.000000E+00
3.481825E+03	5.765574E-02	0.000000E+00
3.491773E+03	5.749721E-02	0.000000E+00
3.501721E+03	5.732824E-02	0.000000E+00
3.511669E+03	5.715355E-02	0.000000E+00
3.521617E+03	5.697642E-02	0.000000E+00
3.531565E+03	5.679987E-02	0.000000E+00
3.541513E+03	5.662575E-02	0.000000E+00
3.551461E+03	5.645535E-02	0.000000E+00
3.561409E+03	5.628914E-02	0.000000E+00
3.571358E+03	5.612742E-02	0.000000E+00
3.581306E+03	5.596947E-02	0.000000E+00
3.591254E+03	5.581495E-02	0.000000E+00
3.601202E+03	5.566286E-02	0.000000E+00
3.611150E+03	5.551177E-02	0.000000E+00
3.621098E+03	5.536064E-02	0.000000E+00
3.631046E+03	5.520812E-02	0.000000E+00
3.640994E+03	5.505265E-02	0.000000E+00
3.650942E+03	5.489302E-02	0.000000E+00
3.660890E+03	5.472782E-02	0.000000E+00
3.670838E+03	5.455556E-02	0.000000E+00
3.680786E+03	5.437490E-02	0.000000E+00
3.690734E+03	5.418504E-02	0.000000E+00
3.700682E+03	5.398436E-02	0.000000E+00
3.710631E+03	5.377228E-02	0.000000E+00
3.720579E+03	5.354755E-02	0.000000E+00
3.730527E+03	5.330957E-02	0.000000E+00
3.740475E+03	5.305752E-02	0.000000E+00
3.750423E+03	5.279098E-02	0.000000E+00
3.760371E+03	5.250922E-02	0.000000E+00
3.770319E+03	5.221239E-02	0.000000E+00
3.780267E+03	5.189972E-02	0.000000E+00
3.790215E+03	5.157151E-02	0.000000E+00
3.800163E+03	5.122770E-02	0.000000E+00
3.810111E+03	5.086830E-02	0.000000E+00
3.820059E+03	5.049364E-02	0.000000E+00
3.830007E+03	5.010400E-02	0.000000E+00
3.839955E+03	4.970000E-02	0.000000E+00
3.849904E+03	4.928175E-02	0.000000E+00
3.859852E+03	4.885038E-02	0.000000E+00
3.869800E+03	4.840614E-02	0.000000E+00
3.879748E+03	4.795016E-02	0.000000E+00
3.889696E+03	4.748303E-02	0.000000E+00
3.899644E+03	4.700579E-02	0.000000E+00
3.909592E+03	4.651935E-02	0.000000E+00
3.919540E+03	4.602483E-02	0.000000E+00
3.929488E+03	4.552307E-02	0.000000E+00
3.939436E+03	4.501545E-02	0.000000E+00
3.949384E+03	4.450286E-02	0.000000E+00
3.959332E+03	4.398655E-02	0.000000E+00
3.969280E+03	4.346762E-02	0.000000E+00
3.979228E+03	4.294735E-02	0.000000E+00
3.989176E+03	4.242668E-02	0.000000E+00
3.999125E+03	4.190688E-02	0.000000E+00
4.009073E+03	4.138923E-02	0.000000E+00
4.019021E+03	4.087478E-02	0.000000E+00
4.028969E+03	4.036442E-02	0.000000E+00
4.038917E+03	3.985953E-02	0.000000E+00
4.048865E+03	3.936092E-02	0.000000E+00
4.058813E+03	3.886972E-02	0.000000E+00
4.068761E+03	3.838668E-02	0.000000E+00
4.078709E+03	3.791300E-02	0.000000E+00
4.088657E+03	3.744917E-02	0.000000E+00
4.098605E+03	3.699613E-02	0.000000E+00
4.108553E+03	3.655477E-02	0.000000E+00
4.118501E+03	3.612541E-02	0.000000E+00
4.128449E+03	3.570882E-02	0.000000E+00
4.138398E+03	3.530557E-02	0.000000E+00
4.148346E+03	3.491596E-02	0.000000E+00
4.158294E+03	3.454041E-02	0.000000E+00
4.168242E+03	3.417930E-02	0.000000E+00
4.178190E+03	3.383261E-02	0.000000E+00
4.188138E+03	3.350057E-02	0.000000E+00
4.198086E+03	3.318336E-02	0.000000E+00
4.208034E+03	3.288075E-02	0.000000E+00
4.217982E+03	3.259282E-02	0.000000E+00
4.227930E+03	3.231906E-02	0.000000E+00
4.237878E+03	3.205939E-02	0.000000E+00
4.247826E+03	3.181353E-02	0.000000E+00
4.257774E+03	3.158063E-02	0.000000E+00
4.267722E+03	3.136061E-02	0.000000E+00
4.277671E+03	3.115267E-02	0.000000E+00
4.287619E+03	3.095646E-02	0.000000E+00
4.297567E+03	3.077153E-02	0.000000E+00
4.307515E+03	3.059718E-02	0.000000E+00
4.317463E+03	3.043280E-02	0.000000E+00
4.327411E+03	3.027757E-02	0.000000E+00
4.337359E+03	3.012985E-02	0.000000E+00
4.347307E+03	2.998742E-02	0.000000E+00
4.357255E+03	2.984718E-02	0.000000E+00
4.367203E+03	2.970548E-02	0.000000E+00
4.377151E+03	2.955795E-02	0.000000E+00
4.387099E+03	2.940071E-02	0.000000E+00
4.397047E+03	2.922953E-02	0.000000E+00
4.406995E+03	2.904044E-02	0.000000E+00
4.416944E+03	2.882943E-02	0.000000E+00
4.426892E+03	2.859213E-02	0.000000E+00
4.436840E+03	2.832404E-02	0.000000E+00
4.446788E+03	2.802019E-02	0.000000E+00
4.456736E+03	2.767619E-02	0.000000E+00
4.466684E+03	2.728926E-02	0.000000E+00
4.476632E+03	2.685997E-02	0.000000E+00
4.486580E+03	2.639358E-02	0.000000E+00
4.496528E+03	2.590082E-02	0.000000E+00
4.506476E+03	2.539572E-02	0.000000E+00
4.516424E+03	2.489285E-02	0.000000E+00
4.526372E+03	2.440574E-02	0.000000E+00
4.536320E+03	2.394502E-02	0.000000E+00
4.546268E+03	2.351902E-02	0.000000E+00
4.556217E+03	2.313322E-02	0.000000E+00
4.566165E+03	2.279063E-02	0.000000E+00
4.576113E+03	2.249195E-02	0.000000E+00
4.586061E+03	2.223455E-02	0.000000E+00
4.596009E+03	2.201239E-02	0.000000E+00
4.605957E+03	2.181620E-02	0.000000E+00
4.615905E+03	2.163405E-02	0.000000E+00
4.625853E+03	2.145237E-02	0.000000E+00
4.635801E+03	2.125860E-02	0.000000E+00
4.645749E+03	2.104388E-02	0.000000E+00
4.655697E+03	2.080587E-02	0.000000E+00
4.665645E+03	2.055203E-02	0.000000E+00
4.675593E+03	2.030025E-02	0.000000E+00
4.685541E+03	2.007595E-02	0.000000E+00
4.695490E+03	1.990982E-02	0.000000E+00
4.705438E+03	1.983355E-02	0.000000E+00
4.715386E+03	1.987727E-02	0.000000E+00
4.725334E+03	2.006690E-02	0.000000E+00
4.735282E+03	2.042107E-02	0.000000E+00
4.745230E+03	2.094692E-02	0.000000E+00
4.755178E+03	2.163476E-02	0.000000E+00
4.765126E+03	2.245413E-02	0.000000E+00
4.775074E+03	2.335311E-02	0.000000E+00
4.785022E+03	2.426249E-02	0.000000E+00
4.794970E+03	2.510405E-02	0.000000E+00
4.804918E+03	2.580435E-02	0.000000E+00
4.814866E+03	2.630823E-02	0.000000E+00
4.824814E+03	2.658976E-02	0.000000E+00
4.834763E+03	2.665322E-02	0.000000E+00
4.844711E+03	2.652690E-02	0.000000E+00
4.854659E+03	2.625331E-02	0.000000E+00
4.864607E+03	2.587986E-02	0.000000E+00
4.874555E+03	2.545195E-02	0.000000E+00
4.884503E+03	2.500841E-02	0.000000E+00
4.894451E+03	2.457758E-02	0.000000E+00
4.904399E+03	2.417720E-02	0.000000E+00
4.914347E+03	2.381345E-02	0.000000E+00
4.924295E+03	2.348422E-02	0.000000E+00
4.934243E+03	2.318119E-02	0.000000E+00
4.944191E+03	2.289309E-02	0.000000E+00
4.954139E+03	2.260979E-02	0.000000E+00
4.964087E+03	2.232489E-02	0.000000E+00
4.974036E+03	2.203719E-02	0.000000E+00
4.983984E+03	2.175021E-02	0.000000E+00
4.993932E+03	2.147086E-02	0.000000E+00
5.003880E+03	2.120680E-02	0.000000E+00
5.013828E+03	2.096464E-02	0.000000E+00
5.023776E+03	2.074797E-02	0.000000E+00
5.033724E+03	2.055553E-02	0.000000E+00
5.043672E+03	2.038309E-02	0.000000E+00
5.053620E+03	2.022302E-02	0.000000E+00
5.063568E+03	2.006707E-02	0.000000E+00
5.073516E+03	1.990730E-02	0.000000E+00
5.083464E+03	1.973812E-02	0.000000E+00
5.093412E+03	1.955755E-02	0.000000E+00
5.103360E+03	1.936634E-02	0.000000E+00
5.113309E+03	1.916769E-02	0.000000E+00
5.123257E+03	1.896571E-02	0.000000E+00
5.133205E+03	1.876459E-02	0.000000E+00
5.143153E+03	1.856762E-02	0.000000E+00
5.153101E+03	1.837592E-02	0.000000E+00
5.163049E+03	1.819027E-02	0.000000E+00
5.172997E+03	1.801038E-02	0.000000E+00
5.182945E+03	1.783615E-02	0.000000E+00
5.192893E+03	1.766766E-02	0.000000E+00
5.202841E+03	1.750558E-02	0.000000E+00
5.212789E+03	1.735080E-02	0.000000E+00
5.222737E+03	1.720418E-02	0.000000E+00
5.232685E+03	1.706601E-02	0.000000E+00
5.242633E+03	1.693654E-02	0.000000E+00
5.252582E+03	1.681543E-02	0.000000E+00
5.262530E+03	1.670326E-02	0.000000E+00
5.272478E+03	1.660135E-02	0.000000E+00
5.282426E+03	1.651122E-02	0.000000E+00
5.292374E+03	1.643530E-02	0.000000E+00
5.302322E+03	1.637556E-02	0.000000E+00
5.312270E+03	1.633385E-02	0.000000E+00
5.322218E+03	1.631063E-02	0.000000E+00
5.332166E+03	1.630491E-02	0.000000E+00
5.342114E+03	1.631516E-02	0.000000E+00
5.352062E+03	1.633913E-02	0.000000E+00
5.362010E+03	1.637416E-02	0.000000E+00
5.371958E+03	1.641798E-02	0.000000E+00
5.381906E+03	1.646858E-02	0.000000E+00
5.391855E+03	1.652364E-02	0.000000E+00
5.401803E+03	1.658018E-02	0.000000E+00
5.411751E+03	1.663597E-02	0.000000E+00
5.421699E+03	1.668924E-02	0.000000E+00
5.431647E+03	1.673544E-02	0.000000E+00
5.441595E+03	1.676659E-02	0.000000E+00
5.451543E+03	1.677083E-02	0.000000E+00
5.461491E+03	1.673333E-02	0.000000E+00
5.471439E+03	1.664735E-02	0.000000E+00
5.481387E+03	1.652425E-02	0.000000E+00
5.491335E+03	1.637906E-02	0.000000E+00
5.501283E+03	1.622387E-02	0.000000E+00
5.511231E+03	1.606608E-02	0.000000E+00
5.521179E+03	1.590961E-02	0.000000E+00
5.531128E+03	1.575641E-02	0.000000E+00
5.541076E+03	1.560672E-02	0.000000E+00
5.551024E+03	1.546020E-02	0.000000E+00
5.560972E+03	1.531730E-02	0.000000E+00
5.570920E+03	1.517912E-02	0.000000E+00
5.580868E+03	1.504672E-02	0.000000E+00
5.590816E+03	1.492106E-02	0.000000E+00
5.600764E+03	1.480166E-02	0.000000E+00
5.610712E+03	1.468646E-02	0.000000E+00
5.620660E+03	1.457132E-02	0.000000E+00
5.630608E+03	1.445063E-02	0.000000E+00
5.640556E+03	1.431843E-02	0.000000E+00
5.650504E+03	1.417032E-02	0.000000E+00
5.660452E+03	1.400439E-02	0.000000E+00
5.670401E+03	1.382330E-02	0.000000E+00
5.680349E+03	1.363518E-02	0.000000E+00
5.690297E+03	1.345309E-02	0.000000E+00
5.700245E+03	1.329389E-02	0.000000E+00
5.710193E+03	1.317533E-02	0.000000E+00
5.720141E+03	1.311408E-02	0.000000E+00
5.730089E+03	1.312256E-02	0.000000E+00
5.740037E+03	1.320603E-02	0.000000E+00
5.749985E+03	1.336150E-02	0.000000E+00
5.759933E+03	1.357790E-02	0.000000E+00
5.769881E+03	1.383658E-02	0.000000E+00
5.779829E+03	1.411424E-02	0.000000E+00
5.789777E+03	1.438540E-02	0.000000E+00
5.799725E+03	1.462710E-02	0.000000E+00
5.809674E+03	1.482096E-02	0.000000E+00
5.819622E+03	1.495633E-02	0.000000E+00
5.829570E+03	1.502951E-02	0.000000E+00
5.839518E+03	1.504319E-02	0.000000E+00
5.849466E+03	1.500489E-02	0.000000E+00
5.859414E+03	1.492492E-02	0.000000E+00
5.869362E+03	1.481458E-02	0.000000E+00
5.879310E+03	1.468489E-02	0.000000E+00
5.889258E+03	1.454442E-02	0.000000E+00
5.899206E+03	1.439983E-02	0.000000E+00
5.909154E+03	1.425531E-02	0.000000E+00
5.919102E+03	1.411222E-02	0.000000E+00
5.929050E+03	1.397130E-02	0.000000E+00
5.938998E+03	1.383162E-02	0.000000E+00
5.948946E+03	1.369305E-02	0.000000E+00
5.958895E+03	1.355578E-02	0.000000E+00
5.968843E+03	1.342129E-02	0.000000E+00
5.978791E+03	1.329083E-02	0.000000E+00
5.988739E+03	1.316597E-02	0.000000E+00
5.998687E+03	1.304735E-02	0.000000E+00
6.008635E+03	1.293605E-02	0.000000E+00
6.018583E+03	1.283172E-02	0.000000E+00
6.028531E+03	1.273416E-02	0.000000E+00
6.038479E+03	1.264278E-02	0.000000E+00
6.048427E+03	1.255682E-02	0.000000E+00
6.058375E+03	1.247537E-02	0.000000E+00
6.068323E+03	1.239740E-02	0.000000E+00
6.078271E+03	1.232142E-02	0.000000E+00
6.088219E+03	1.224551E-02	0.000000E+00
6.098168E+03	1.216787E-02	0.000000E+00
6.108116E+03	1.208682E-02	0.000000E+00
6.118064E+03	1.200177E-02	0.000000E+00
6.128012E+03	1.191312E-02	0.000000E+00
6.137960E+03	1.182326E-02	0.000000E+00
6.147908E+03	1.173571E-02	0.000000E+00
6.157856E+03	1.165480E-02	0.000000E+00
6.167804E+03	1.158441E-02	0.000000E+00
6.177752E+03	1.152741E-02	0.000000E+00
6.187700E+03	1.148445E-02	0.000000E+00
6.197648E+03	1.145418E-02	0.000000E+00
6.207596E+03	1.143376E-02	0.000000E+00
6.217544E+03	1.141975E-02	0.000000E+00
6.227492E+03	1.140954E-02	0.000000E+00
6.237441E+03	1.140080E-02	0.000000E+00
6.247389E+03	1.139204E-02	0.000000E+00
6.257337E+03	1.138128E-02	0.000000E+00
6.267285E+03	1.136693E-02	0.000000E+00
6.277233E+03	1.134629E-02	0.000000E+00
6.287181E+03	1.131705E-02	0.000000E+00
6.297129E+03	1.127751E-02	0.000000E+00
6.307077E+03	1.122770E-02	0.000000E+00
6.317025E+03	1.117093E-02	0.000000E+00
6.326973E+03	1.111357E-02	0.000000E+00
6.336921E+03	1.106567E-02	0.000000E+00
6.346869E+03	1.103948E-02	0.000000E+00
6.356817E+03	1.104786E-02	0.000000E+00
6.366765E+03	1.110193E-02	0.000000E+00
6.376714E+03	1.121023E-02	0.000000E+00
6.386662E+03	1.137603E-02	0.000000E+00
6.396610E+03	1.159834E-02	0.000000E+00
6.406558E+03	1.187149E-02	0.000000E+00
6.416506E+03	1.218585E-02	0.000000E+00
6.426454E+03	1.252937E-02	0.000000E+00
6.436402E+03	1.288882E-02	0.000000E+00
6.446350E+03	1.325057E-02	0.000000E+00
6.456298E+03	1.360054E-02	0.000000E+00
6.466246E+03	1.392366E-02	0.000000E+00
6.476194E+03	1.420628E-02	0.000000E+00
6.486142E+03	1.443563E-02	0.000000E+00
6.496090E+03	1.460258E-02	0.000000E+00
6.506038E+03	1.470260E-02	0.000000E+00
6.515987E+03	1.473588E-02	0.000000E+00
6.525935E+03	1.470860E-02	0.000000E+00
6.535883E+03	1.463009E-02	0.000000E+00
6.545831E+03	1.451058E-02	0.000000E+00
6.555779E+03	1.435944E-02	0.000000E+00
6.565727E+03	1.418362E-02	0.000000E+00
6.575675E+03	1.398863E-02	0.000000E+00
6.585623E+03	1.377902E-02	0.000000E+00
6.595571E+03	1.355818E-02	0.000000E+00
6.605519E+03	1.332970E-02	0.000000E+00
6.615467E+03	1.309644E-02	0.000000E+00
6.625415E+03	1.286096E-02	0.000000E+00
6.635363E+03	1.262494E-02	0.000000E+00
6.645311E+03	1.238940E-02	0.000000E+00
6.655260E+03	1.215435E-02	0.000000E+00
6.665208E+03	1.192018E-02	0.000000E+00
6.675156E+03	1.168802E-02	0.000000E+00
6.685104E+03	1.145915E-02	0.000000E+00
6.695052E+03	1.123541E-02	0.000000E+00
6.705000E+03	1.101869E-02	0.000000E+00
6.714948E+03	1.081054E-02	0.000000E+00
6.724896E+03	1.061186E-02	0.000000E+00
6.734844E+03	1.042254E-02	0.000000E+00
6.744792E+03	1.024145E-02	0.000000E+00
6.754740E+03	1.006561E-02	0.000000E+00
6.764688E+03	9.891904E-03	0.000000E+00
6.774636E+03	9.717125E-03	0.000000E+00
6.784584E+03	9.540170E-03	0.000000E+00
6.794533E+03	9.361452E-03	0.000000E+00
6.804481E+03	9.184154E-03	0.000000E+00
6.814429E+03	9.012704E-03	0.000000E+00
6.824377E+03	8.852680E-03	0.000000E+00
6.834325E+03	8.709296E-03	0.000000E+00
6.844273E+03	8.587330E-03	0.000000E+00
6.854221E+03	8.489787E-03	0.000000E+00
6.864169E+03	8.418026E-03	0.000000E+00
6.874117E+03	8.370549E-03	0.000000E+00
6.884065E+03	8.344352E-03	0.000000E+00
6.894013E+03	8.334408E-03	0.000000E+00
6.903961E+03	8.335500E-03	0.000000E+00
6.913909E+03	8.343064E-03	0.000000E+00
6.923857E+03	8.353017E-03	0.000000E+00
6.933806E+03	8.362923E-03	0.000000E+00
6.943754E+03	8.371197E-03	0.000000E+00
6.953702E+03	8.376930E-03	0.000000E+00
6.963650E+03	8.380340E-03	0.000000E+00
6.973598E+03	8.381160E-03	0.000000E+00
6.983546E+03	8.379338E-03	0.000000E+00
6.993494E+03	8.374536E-03	0.000000E+00
7.003442E+03	8.365670E-03	0.000000E+00
7.013390E+03	8.351186E-03	0.000000E+00
7.023338E+03	8.330016E-03	0.000000E+00
7.033286E+03	8.301139E-03	0.000000E+00
7.043234E+03	8.264135E-03	0.000000E+00
7.053182E+03	8.218795E-03	0.000000E+00
7.063130E+03	8.164913E-03	0.000000E+00
7.073079E+03	8.102433E-03	0.000000E+00
7.083027E+03	8.030996E-03	0.000000E+00
7.092975E+03	7.950578E-03	0.000000E+00
7.102923E+03	7.862411E-03	0.000000E+00
7.112871E+03	7.768040E-03	0.000000E+00
7.122819E+03	7.670587E-03	0.000000E+00
7.132767E+03	7.573578E-03	0.000000E+00
7.142715E+03	7.480480E-03	0.000000E+00
7.152663E+03	7.394029E-03	0.000000E+00
7.162611E+03	7.316507E-03	0.000000E+00
7.172559E+03	7.249258E-03	0.000000E+00
7.182507E+03	7.192791E-03	0.000000E+00
7.192455E+03	7.147470E-03	0.000000E+00
7.202403E+03	7.112789E-03	0.000000E+00
7.212352E+03	7.088809E-03	0.000000E+00
7.222300E+03	7.074473E-03	0.000000E+00
7.232248E+03	7.068750E-03	0.000000E+00
7.242196E+03	7.070291E-03	0.000000E+00
7.252144E+03	7.077502E-03	0.000000E+00
7.262092E+03	7.088848E-03	0.000000E+00
7.272040E+03	7.102430E-03	0.000000E+00
7.281988E+03	7.116385E-03	0.000000E+00
7.291936E+03	7.129495E-03	0.000000E+00
7.301884E+03	7.140192E-03	0.000000E+00
7.311832E+03	7.147432E-03	0.000000E+00
7.321780E+03	7.150617E-03	0.000000E+00
7.331728E+03	7.149649E-03	0.000000E+00
7.341676E+03	7.144656E-03	0.000000E+00
7.351625E+03	7.136506E-03	0.000000E+00
7.361573E+03	7.125556E-03	0.000000E+00
7.371521E+03	7.112107E-03	0.000000E+00
7.381469E+03	7.096864E-03	0.000000E+00
7.391417E+03	7.079815E-03	0.000000E+00
7.401365E+03	7.060657E-03	0.000000E+00
7.411313E+03	7.039201E-03	0.000000E+00
7.421261E+03	7.014330E-03	0.000000E+00
7.431209E+03	6.983941E-03	0.000000E+00
7.441157E+03	6.946193E-03	0.000000E+00
7.451105E+03	6.897815E-03	0.000000E+00
7.461053E+03	6.836589E-03	0.000000E+00
7.471001E+03	6.760364E-03	0.000000E+00
7.480949E+03	6.669173E-03	0.000000E+00
7.490898E+03	6.563470E-03	0.000000E+00
7.500846E+03	6.446034E-03	0.000000E+00
7.510794E+03	6.320411E-03	0.000000E+00
7.520742E+03	6.191348E-03	0.000000E+00
7.530690E+03	6.064360E-03	0.000000E+00
7.540638E+03	5.945542E-03	0.000000E+00
7.550586E+03	5.840750E-03	0.000000E+00
7.560534E+03	5.755716E-03	0.000000E+00
7.570482E+03	5.695782E-03	0.000000E+00
7.580430E+03	5.665193E-03	0.000000E+00
7.590378E+03	5.667277E-03	0.000000E+00
7.600326E+03	5.703828E-03	0.000000E+00
7.610274E+03	5.774597E-03	0.000000E+00
7.620222E+03	5.876079E-03	0.000000E+00
7.630171E+03	6.001875E-03	0.000000E+00
7.640119E+03	6.142512E-03	0.000000E+00
7.650067E+03	6.287980E-03	0.000000E+00
7.660015E+03	6.428389E-03	0.000000E+00
7.669963E+03	6.555252E-03	0.000000E+00
7.679911E+03	6.663512E-03	0.000000E+00
7.689859E+03	6.750840E-03	0.000000E+00
7.699807E+03	6.817269E-03	0.000000E+00
7.709755E+03	6.865561E-03	0.000000E+00
7.719703E+03	6.898926E-03	0.000000E+00
