#wls	flux	fluxerr
1.591691E+03	1.833935E-04	6.512443E-06
1.631484E+03	1.717312E-04	6.058971E-06
1.671276E+03	1.606374E-04	5.629951E-06
1.711068E+03	1.501780E-04	5.227446E-06
1.750861E+03	1.403553E-04	4.851222E-06
1.790653E+03	1.311977E-04	4.501932E-06
1.830445E+03	1.227082E-04	4.179321E-06
1.870237E+03	1.149161E-04	3.883991E-06
1.910030E+03	1.078316E-04	3.615860E-06
1.949822E+03	1.015100E-04	3.376315E-06
1.989614E+03	9.597024E-05	3.165457E-06
2.029406E+03	9.125549E-05	2.984135E-06
2.069199E+03	8.741050E-05	2.833175E-06
2.108991E+03	8.448072E-05	2.713344E-06
2.148783E+03	8.248415E-05	2.624455E-06
2.188576E+03	8.150407E-05	2.568323E-06
2.228368E+03	8.157976E-05	2.545251E-06
2.268160E+03	8.277463E-05	2.556207E-06
2.307952E+03	8.509706E-05	2.600353E-06
2.347745E+03	8.860351E-05	2.678256E-06
2.387537E+03	9.331139E-05	2.789198E-06
2.427329E+03	9.927503E-05	2.933485E-06
2.467122E+03	1.065894E-04	3.112489E-06
2.506914E+03	1.154223E-04	3.329510E-06
2.546706E+03	1.259916E-04	3.588972E-06
2.586498E+03	1.385975E-04	3.897249E-06
2.626291E+03	1.535724E-04	4.261093E-06
2.666083E+03	1.713198E-04	4.688638E-06
2.705875E+03	1.922471E-04	5.187406E-06
2.745668E+03	2.167913E-04	5.764988E-06
2.785460E+03	2.454707E-04	6.430292E-06
2.825252E+03	2.788945E-04	7.193631E-06
2.865044E+03	3.178263E-04	8.068111E-06
2.904837E+03	3.631559E-04	9.068578E-06
2.944629E+03	4.159945E-04	1.021366E-05
2.984421E+03	4.776831E-04	1.152548E-05
2.994369E+03	4.946489E-04	1.188193E-05
3.004317E+03	5.123550E-04	1.225229E-05
3.014266E+03	5.306968E-04	1.263382E-05
3.024214E+03	5.498355E-04	1.303011E-05
3.034162E+03	5.697571E-04	1.344056E-05
3.044110E+03	5.904456E-04	1.386453E-05
3.054058E+03	6.119789E-04	1.430357E-05
3.064006E+03	6.344420E-04	1.475936E-05
3.073954E+03	6.577715E-04	1.523011E-05
3.083902E+03	6.821056E-04	1.571871E-05
3.093850E+03	7.074336E-04	1.622455E-05
3.103798E+03	7.337962E-04	1.674823E-05
3.113746E+03	7.612924E-04	1.729162E-05
3.123694E+03	7.899135E-04	1.785414E-05
3.133642E+03	8.197642E-04	1.843775E-05
3.143590E+03	8.508397E-04	1.904189E-05
3.153539E+03	8.832510E-04	1.966863E-05
3.163487E+03	9.170578E-04	2.031881E-05
3.173435E+03	9.522579E-04	2.099189E-05
3.183383E+03	9.889776E-04	2.169014E-05
3.193331E+03	1.027350E-03	2.241594E-05
3.203279E+03	1.067317E-03	2.316746E-05
3.213227E+03	1.109020E-03	2.394717E-05
3.223175E+03	1.152609E-03	2.475769E-05
3.233123E+03	1.198032E-03	2.559722E-05
3.243071E+03	1.245519E-03	2.647003E-05
3.253019E+03	1.295173E-03	2.737753E-05
3.262967E+03	1.347022E-03	2.831958E-05
3.272915E+03	1.401173E-03	2.929764E-05
3.282863E+03	1.457821E-03	3.031493E-05
3.292812E+03	1.517009E-03	3.137143E-05
3.302760E+03	1.579028E-03	3.247231E-05
3.312708E+03	1.643852E-03	3.361595E-05
3.322656E+03	1.711703E-03	3.480592E-05
3.332604E+03	1.782728E-03	3.604409E-05
3.342552E+03	1.857072E-03	3.733229E-05
3.352500E+03	1.934882E-03	3.867224E-05
3.362448E+03	2.016294E-03	4.006547E-05
3.372396E+03	2.101434E-03	4.151316E-05
3.382344E+03	2.190505E-03	4.301797E-05
3.392292E+03	2.283471E-03	4.457784E-05
3.402240E+03	2.380447E-03	4.619361E-05
3.412188E+03	2.481254E-03	4.786043E-05
3.422136E+03	2.585818E-03	4.957551E-05
3.432085E+03	2.693701E-03	5.132918E-05
3.442033E+03	2.804656E-03	5.311561E-05
3.451981E+03	2.917896E-03	5.491893E-05
3.461929E+03	3.033153E-03	5.673329E-05
3.471877E+03	3.150467E-03	5.855877E-05
3.481825E+03	3.270341E-03	6.040395E-05
3.491773E+03	3.392995E-03	6.227195E-05
3.501721E+03	3.519138E-03	6.417481E-05
3.511669E+03	3.649029E-03	6.611597E-05
3.521617E+03	3.782986E-03	6.809992E-05
3.531565E+03	3.921267E-03	7.012986E-05
3.541513E+03	4.064215E-03	7.221042E-05
3.551461E+03	4.211988E-03	7.434283E-05
3.561409E+03	4.364553E-03	7.652487E-05
3.571358E+03	4.522130E-03	7.875877E-05
3.581306E+03	4.684603E-03	8.104084E-05
3.591254E+03	4.852138E-03	8.337232E-05
3.601202E+03	5.024704E-03	8.575103E-05
3.611150E+03	5.202256E-03	8.817455E-05
3.621098E+03	5.384541E-03	9.063701E-05
3.631046E+03	5.571613E-03	9.313780E-05
3.640994E+03	5.763324E-03	9.567287E-05
3.650942E+03	5.959504E-03	9.823793E-05
3.660890E+03	6.159777E-03	1.008254E-04
3.670838E+03	6.364262E-03	1.034359E-04
3.680786E+03	6.572343E-03	1.060582E-04
3.690734E+03	6.783903E-03	1.086893E-04
3.700682E+03	6.998431E-03	1.113200E-04
3.710631E+03	7.215762E-03	1.139469E-04
3.720579E+03	7.435505E-03	1.165630E-04
3.730527E+03	7.657254E-03	1.191614E-04
3.740475E+03	7.880357E-03	1.217316E-04
3.750423E+03	8.104534E-03	1.242690E-04
3.760371E+03	8.329075E-03	1.267626E-04
3.770319E+03	8.553648E-03	1.292076E-04
3.780267E+03	8.777472E-03	1.315924E-04
3.790215E+03	9.000173E-03	1.339121E-04
3.800163E+03	9.220698E-03	1.361518E-04
3.810111E+03	9.438830E-03	1.383093E-04
3.820059E+03	9.653687E-03	1.403730E-04
3.830007E+03	9.864370E-03	1.423312E-04
3.839955E+03	1.007061E-02	1.441819E-04
3.849904E+03	1.027126E-02	1.459105E-04
3.859852E+03	1.046579E-02	1.475120E-04
3.869800E+03	1.065327E-02	1.489757E-04
3.879748E+03	1.083295E-02	1.502939E-04
3.889696E+03	1.100433E-02	1.514628E-04
3.899644E+03	1.116648E-02	1.524727E-04
3.909592E+03	1.131869E-02	1.533176E-04
3.919540E+03	1.146031E-02	1.539923E-04
3.929488E+03	1.159049E-02	1.544894E-04
3.939436E+03	1.170889E-02	1.548086E-04
3.949384E+03	1.181479E-02	1.549445E-04
3.959332E+03	1.190778E-02	1.548966E-04
3.969280E+03	1.198778E-02	1.546681E-04
3.979228E+03	1.205417E-02	1.542558E-04
3.989176E+03	1.210692E-02	1.536641E-04
3.999125E+03	1.214637E-02	1.529018E-04
4.009073E+03	1.217283E-02	1.519774E-04
4.019021E+03	1.218637E-02	1.508962E-04
4.028969E+03	1.218790E-02	1.496739E-04
4.038917E+03	1.217815E-02	1.483232E-04
4.048865E+03	1.215842E-02	1.468638E-04
4.058813E+03	1.213005E-02	1.453148E-04
4.068761E+03	1.209414E-02	1.436925E-04
4.078709E+03	1.205239E-02	1.420194E-04
4.088657E+03	1.200680E-02	1.403209E-04
4.098605E+03	1.195913E-02	1.386186E-04
4.108553E+03	1.191136E-02	1.369365E-04
4.118501E+03	1.186536E-02	1.352963E-04
4.128449E+03	1.182336E-02	1.337227E-04
4.138398E+03	1.178716E-02	1.322355E-04
4.148346E+03	1.175853E-02	1.308529E-04
4.158294E+03	1.173927E-02	1.295933E-04
4.168242E+03	1.173121E-02	1.284747E-04
4.178190E+03	1.173552E-02	1.275072E-04
4.188138E+03	1.175347E-02	1.267021E-04
4.198086E+03	1.178614E-02	1.260679E-04
4.208034E+03	1.183433E-02	1.256101E-04
4.217982E+03	1.189825E-02	1.253280E-04
4.227930E+03	1.197831E-02	1.252229E-04
4.237878E+03	1.207428E-02	1.252896E-04
4.247826E+03	1.218564E-02	1.255200E-04
4.257774E+03	1.231168E-02	1.259047E-04
4.267722E+03	1.245142E-02	1.264317E-04
4.277671E+03	1.260343E-02	1.270850E-04
4.287619E+03	1.276591E-02	1.278455E-04
4.297567E+03	1.293752E-02	1.286994E-04
4.307515E+03	1.311613E-02	1.296252E-04
4.317463E+03	1.330010E-02	1.306076E-04
4.327411E+03	1.348804E-02	1.316336E-04
4.337359E+03	1.367865E-02	1.326919E-04
4.347307E+03	1.387085E-02	1.337735E-04
4.357255E+03	1.406367E-02	1.348707E-04
4.367203E+03	1.425621E-02	1.359769E-04
4.377151E+03	1.444719E-02	1.370822E-04
4.387099E+03	1.463524E-02	1.381759E-04
4.397047E+03	1.481971E-02	1.392542E-04
4.406995E+03	1.500019E-02	1.403158E-04
4.416944E+03	1.517746E-02	1.413705E-04
4.426892E+03	1.535319E-02	1.424362E-04
4.436840E+03	1.552910E-02	1.435310E-04
4.446788E+03	1.570749E-02	1.446778E-04
4.456736E+03	1.589064E-02	1.458986E-04
4.466684E+03	1.608059E-02	1.472119E-04
4.476632E+03	1.627892E-02	1.486321E-04
4.486580E+03	1.648659E-02	1.501677E-04
4.496528E+03	1.670366E-02	1.518191E-04
4.506476E+03	1.692961E-02	1.535812E-04
4.516424E+03	1.716311E-02	1.554420E-04
4.526372E+03	1.740228E-02	1.573844E-04
4.536320E+03	1.764423E-02	1.593823E-04
4.546268E+03	1.788572E-02	1.614064E-04
4.556217E+03	1.812314E-02	1.634244E-04
4.566165E+03	1.835293E-02	1.654043E-04
4.576113E+03	1.857121E-02	1.673109E-04
4.586061E+03	1.877458E-02	1.691135E-04
4.596009E+03	1.896050E-02	1.707889E-04
4.605957E+03	1.912639E-02	1.723133E-04
4.615905E+03	1.927107E-02	1.736753E-04
4.625853E+03	1.939432E-02	1.748718E-04
4.635801E+03	1.949652E-02	1.759050E-04
4.645749E+03	1.957958E-02	1.767907E-04
4.655697E+03	1.964592E-02	1.775492E-04
4.665645E+03	1.969849E-02	1.782056E-04
4.675593E+03	1.974157E-02	1.787971E-04
4.685541E+03	1.977919E-02	1.793587E-04
4.695490E+03	1.981553E-02	1.799268E-04
4.705438E+03	1.985502E-02	1.805404E-04
4.715386E+03	1.990158E-02	1.812341E-04
4.725334E+03	1.995862E-02	1.820382E-04
4.735282E+03	2.002870E-02	1.829751E-04
4.745230E+03	2.011339E-02	1.840590E-04
4.755178E+03	2.021339E-02	1.852956E-04
4.765126E+03	2.032867E-02	1.866844E-04
4.775074E+03	2.045809E-02	1.882147E-04
4.785022E+03	2.059961E-02	1.898673E-04
4.794970E+03	2.075037E-02	1.916155E-04
4.804918E+03	2.090716E-02	1.934291E-04
4.814866E+03	2.106564E-02	1.952671E-04
4.824814E+03	2.122159E-02	1.970897E-04
4.834763E+03	2.136998E-02	1.988487E-04
4.844711E+03	2.150673E-02	2.005049E-04
4.854659E+03	2.162668E-02	2.020085E-04
4.864607E+03	2.172602E-02	2.033220E-04
4.874555E+03	2.180080E-02	2.044065E-04
4.884503E+03	2.184815E-02	2.052326E-04
4.894451E+03	2.186570E-02	2.057759E-04
4.904399E+03	2.185212E-02	2.060217E-04
4.914347E+03	2.180654E-02	2.059592E-04
4.924295E+03	2.172936E-02	2.055899E-04
4.934243E+03	2.162159E-02	2.049214E-04
4.944191E+03	2.148549E-02	2.039729E-04
4.954139E+03	2.132316E-02	2.027629E-04
4.964087E+03	2.113817E-02	2.013235E-04
4.974036E+03	2.093418E-02	1.996884E-04
4.983984E+03	2.071525E-02	1.978955E-04
4.993932E+03	2.048590E-02	1.959870E-04
5.003880E+03	2.025058E-02	1.940051E-04
5.013828E+03	2.001393E-02	1.919941E-04
5.023776E+03	1.978028E-02	1.899954E-04
5.033724E+03	1.955369E-02	1.880484E-04
5.043672E+03	1.933806E-02	1.861908E-04
5.053620E+03	1.913682E-02	1.844563E-04
5.063568E+03	1.895268E-02	1.828715E-04
5.073516E+03	1.878780E-02	1.814579E-04
5.083464E+03	1.864366E-02	1.802305E-04
5.093412E+03	1.852150E-02	1.792019E-04
5.103360E+03	1.842137E-02	1.783733E-04
5.113309E+03	1.834307E-02	1.777432E-04
5.123257E+03	1.828566E-02	1.773031E-04
5.133205E+03	1.824766E-02	1.770390E-04
5.143153E+03	1.822748E-02	1.769358E-04
5.153101E+03	1.822261E-02	1.769695E-04
5.163049E+03	1.823058E-02	1.771162E-04
5.172997E+03	1.824869E-02	1.773498E-04
5.182945E+03	1.827352E-02	1.776373E-04
5.192893E+03	1.830251E-02	1.779536E-04
5.202841E+03	1.833221E-02	1.782653E-04
5.212789E+03	1.836019E-02	1.785487E-04
5.222737E+03	1.838331E-02	1.787734E-04
5.232685E+03	1.839928E-02	1.789172E-04
5.242633E+03	1.840601E-02	1.789598E-04
5.252582E+03	1.840206E-02	1.788875E-04
5.262530E+03	1.838635E-02	1.786898E-04
5.272478E+03	1.835856E-02	1.783641E-04
5.282426E+03	1.831850E-02	1.779087E-04
5.292374E+03	1.826750E-02	1.773370E-04
5.302322E+03	1.820664E-02	1.766600E-04
5.312270E+03	1.813831E-02	1.759013E-04
5.322218E+03	1.806489E-02	1.750843E-04
5.332166E+03	1.798937E-02	1.742387E-04
5.342114E+03	1.791525E-02	1.733984E-04
5.352062E+03	1.784598E-02	1.725974E-04
5.362010E+03	1.778506E-02	1.718697E-04
5.371958E+03	1.773580E-02	1.712475E-04
5.381906E+03	1.770118E-02	1.707596E-04
5.391855E+03	1.768371E-02	1.704302E-04
5.401803E+03	1.768463E-02	1.702711E-04
5.411751E+03	1.770402E-02	1.702827E-04
5.421699E+03	1.774057E-02	1.704522E-04
5.431647E+03	1.779141E-02	1.707517E-04
5.441595E+03	1.785247E-02	1.711419E-04
5.451543E+03	1.791988E-02	1.715855E-04
5.461491E+03	1.798926E-02	1.720404E-04
5.471439E+03	1.805697E-02	1.724713E-04
5.481387E+03	1.811946E-02	1.728444E-04
5.491335E+03	1.817440E-02	1.731375E-04
5.501283E+03	1.822000E-02	1.733336E-04
5.511231E+03	1.825422E-02	1.734136E-04
5.521179E+03	1.827626E-02	1.733703E-04
5.531128E+03	1.828514E-02	1.731948E-04
5.541076E+03	1.828055E-02	1.728846E-04
5.551024E+03	1.826176E-02	1.724335E-04
5.560972E+03	1.822942E-02	1.718482E-04
5.570920E+03	1.818334E-02	1.711275E-04
5.580868E+03	1.812449E-02	1.702813E-04
5.590816E+03	1.805329E-02	1.693143E-04
5.600764E+03	1.797093E-02	1.682382E-04
5.610712E+03	1.787835E-02	1.670626E-04
5.620660E+03	1.777685E-02	1.658003E-04
5.630608E+03	1.766785E-02	1.644651E-04
5.640556E+03	1.755269E-02	1.630701E-04
5.650504E+03	1.743298E-02	1.616310E-04
5.660452E+03	1.731044E-02	1.601640E-04
5.670401E+03	1.718679E-02	1.586855E-04
5.680349E+03	1.706362E-02	1.572104E-04
5.690297E+03	1.694268E-02	1.557552E-04
5.700245E+03	1.682567E-02	1.543356E-04
5.710193E+03	1.671399E-02	1.529645E-04
5.720141E+03	1.660912E-02	1.516553E-04
5.730089E+03	1.651235E-02	1.504198E-04
5.740037E+03	1.642460E-02	1.492660E-04
5.749985E+03	1.634689E-02	1.482031E-04
5.759933E+03	1.627951E-02	1.472333E-04
5.769881E+03	1.622299E-02	1.463610E-04
5.779829E+03	1.617727E-02	1.455854E-04
5.789777E+03	1.614223E-02	1.449049E-04
5.799725E+03	1.611735E-02	1.443147E-04
5.809674E+03	1.610226E-02	1.438111E-04
5.819622E+03	1.609611E-02	1.433861E-04
5.829570E+03	1.609795E-02	1.430312E-04
5.839518E+03	1.610705E-02	1.427398E-04
5.849466E+03	1.612237E-02	1.425026E-04
5.859414E+03	1.614289E-02	1.423108E-04
5.869362E+03	1.616800E-02	1.421589E-04
5.879310E+03	1.619684E-02	1.420397E-04
5.889258E+03	1.622903E-02	1.419501E-04
5.899206E+03	1.626368E-02	1.418827E-04
5.909154E+03	1.630090E-02	1.418388E-04
5.919102E+03	1.634061E-02	1.418182E-04
5.929050E+03	1.638255E-02	1.418190E-04
5.938998E+03	1.642707E-02	1.418449E-04
5.948946E+03	1.647430E-02	1.418974E-04
5.958895E+03	1.652457E-02	1.419798E-04
5.968843E+03	1.657838E-02	1.420970E-04
5.978791E+03	1.663568E-02	1.422490E-04
5.988739E+03	1.669665E-02	1.424381E-04
5.998687E+03	1.676168E-02	1.426681E-04
6.008635E+03	1.683010E-02	1.429337E-04
6.018583E+03	1.690182E-02	1.432351E-04
6.028531E+03	1.697598E-02	1.435657E-04
6.038479E+03	1.705173E-02	1.439189E-04
6.048427E+03	1.712735E-02	1.442814E-04
6.058375E+03	1.720149E-02	1.446425E-04
6.068323E+03	1.727192E-02	1.449846E-04
6.078271E+03	1.733647E-02	1.452908E-04
6.088219E+03	1.739234E-02	1.455387E-04
6.098168E+03	1.743712E-02	1.457096E-04
6.108116E+03	1.746760E-02	1.457779E-04
6.118064E+03	1.748153E-02	1.457263E-04
6.128012E+03	1.747596E-02	1.455315E-04
6.137960E+03	1.744904E-02	1.451794E-04
6.147908E+03	1.739913E-02	1.446575E-04
6.157856E+03	1.732530E-02	1.439591E-04
6.167804E+03	1.722773E-02	1.430863E-04
6.177752E+03	1.710721E-02	1.420464E-04
6.187700E+03	1.696625E-02	1.408606E-04
6.197648E+03	1.680764E-02	1.395519E-04
6.207596E+03	1.663541E-02	1.381523E-04
6.217544E+03	1.645231E-02	1.366829E-04
6.227492E+03	1.626043E-02	1.351596E-04
6.237441E+03	1.606173E-02	1.335967E-04
6.247389E+03	1.585889E-02	1.320150E-04
6.257337E+03	1.565544E-02	1.304422E-04
6.267285E+03	1.545569E-02	1.289126E-04
6.277233E+03	1.526420E-02	1.274631E-04
6.287181E+03	1.508581E-02	1.261327E-04
6.297129E+03	1.492558E-02	1.249631E-04
6.307077E+03	1.478837E-02	1.239941E-04
6.317025E+03	1.467918E-02	1.232676E-04
6.326973E+03	1.460222E-02	1.228189E-04
6.336921E+03	1.456182E-02	1.226849E-04
6.346869E+03	1.456135E-02	1.228945E-04
6.356817E+03	1.460428E-02	1.234781E-04
6.366765E+03	1.469275E-02	1.244549E-04
6.376714E+03	1.482865E-02	1.258425E-04
6.386662E+03	1.501277E-02	1.276491E-04
6.396610E+03	1.524508E-02	1.298762E-04
6.406558E+03	1.552377E-02	1.325101E-04
6.416506E+03	1.584620E-02	1.355298E-04
6.426454E+03	1.620808E-02	1.389003E-04
6.436402E+03	1.660288E-02	1.425665E-04
6.446350E+03	1.702297E-02	1.464638E-04
6.456298E+03	1.745845E-02	1.505074E-04
6.466246E+03	1.789838E-02	1.546026E-04
6.476194E+03	1.833061E-02	1.586434E-04
6.486142E+03	1.874205E-02	1.625151E-04
6.496090E+03	1.911965E-02	1.661021E-04
6.506038E+03	1.945087E-02	1.692926E-04
6.515987E+03	1.972435E-02	1.719841E-04
6.525935E+03	1.993030E-02	1.740875E-04
6.535883E+03	2.006187E-02	1.755385E-04
6.545831E+03	2.011474E-02	1.762953E-04
6.555779E+03	2.008736E-02	1.763398E-04
6.565727E+03	1.998165E-02	1.756850E-04
6.575675E+03	1.980201E-02	1.743658E-04
6.585623E+03	1.955495E-02	1.724363E-04
6.595571E+03	1.924927E-02	1.699716E-04
6.605519E+03	1.889470E-02	1.670556E-04
6.615467E+03	1.850137E-02	1.637764E-04
6.625415E+03	1.807995E-02	1.602276E-04
6.635363E+03	1.764045E-02	1.564976E-04
6.645311E+03	1.719214E-02	1.526687E-04
6.655260E+03	1.674329E-02	1.488148E-04
6.665208E+03	1.630078E-02	1.449976E-04
6.675156E+03	1.587076E-02	1.412728E-04
6.685104E+03	1.545796E-02	1.376835E-04
6.695052E+03	1.506600E-02	1.342629E-04
6.705000E+03	1.469731E-02	1.310339E-04
6.714948E+03	1.435386E-02	1.280147E-04
6.724896E+03	1.403666E-02	1.252154E-04
6.734844E+03	1.374610E-02	1.226404E-04
6.744792E+03	1.348191E-02	1.202879E-04
6.754740E+03	1.324381E-02	1.181561E-04
6.764688E+03	1.303084E-02	1.162368E-04
6.774636E+03	1.284222E-02	1.145234E-04
6.784584E+03	1.267664E-02	1.130046E-04
6.794533E+03	1.253283E-02	1.116693E-04
6.804481E+03	1.240969E-02	1.105077E-04
6.814429E+03	1.230584E-02	1.095075E-04
6.824377E+03	1.221954E-02	1.086532E-04
6.834325E+03	1.214971E-02	1.079351E-04
6.844273E+03	1.209474E-02	1.073387E-04
6.854221E+03	1.205321E-02	1.068512E-04
6.864169E+03	1.202363E-02	1.064593E-04
6.874117E+03	1.200440E-02	1.061486E-04
6.884065E+03	1.199445E-02	1.059092E-04
6.894013E+03	1.199200E-02	1.057256E-04
6.903961E+03	1.199605E-02	1.055884E-04
6.913909E+03	1.200475E-02	1.054816E-04
6.923857E+03	1.201741E-02	1.053989E-04
6.933806E+03	1.203252E-02	1.053271E-04
6.943754E+03	1.204906E-02	1.052573E-04
6.953702E+03	1.206609E-02	1.051814E-04
6.963650E+03	1.208301E-02	1.050944E-04
6.973598E+03	1.209895E-02	1.049890E-04
6.983546E+03	1.211341E-02	1.048612E-04
6.993494E+03	1.212597E-02	1.047079E-04
7.003442E+03	1.213638E-02	1.045271E-04
7.013390E+03	1.214446E-02	1.043180E-04
7.023338E+03	1.215020E-02	1.040809E-04
7.033286E+03	1.215347E-02	1.038154E-04
7.043234E+03	1.215463E-02	1.035250E-04
7.053182E+03	1.215372E-02	1.032109E-04
7.063130E+03	1.215125E-02	1.028780E-04
7.073079E+03	1.214741E-02	1.025285E-04
7.083027E+03	1.214261E-02	1.021666E-04
7.092975E+03	1.213727E-02	1.017964E-04
7.102923E+03	1.213204E-02	1.014241E-04
7.112871E+03	1.212696E-02	1.010506E-04
7.122819E+03	1.212280E-02	1.006830E-04
7.132767E+03	1.211954E-02	1.003218E-04
7.142715E+03	1.211746E-02	9.996990E-05
7.152663E+03	1.211695E-02	9.963125E-05
7.162611E+03	1.211812E-02	9.930745E-05
7.172559E+03	1.212080E-02	9.899785E-05
7.182507E+03	1.212492E-02	9.870246E-05
7.192455E+03	1.213048E-02	9.842226E-05
7.202403E+03	1.213685E-02	9.815286E-05
7.212352E+03	1.214407E-02	9.789560E-05
7.222300E+03	1.215134E-02	9.764503E-05
7.232248E+03	1.215844E-02	9.740030E-05
7.242196E+03	1.216468E-02	9.715715E-05
7.252144E+03	1.216979E-02	9.691454E-05
7.262092E+03	1.217329E-02	9.666998E-05
7.272040E+03	1.217455E-02	9.641966E-05
7.281988E+03	1.217292E-02	9.615990E-05
7.291936E+03	1.216843E-02	9.589229E-05
7.301884E+03	1.216051E-02	9.561380E-05
7.311832E+03	1.214884E-02	9.532338E-05
7.321780E+03	1.213294E-02	9.501862E-05
7.331728E+03	1.211274E-02	9.470040E-05
7.341676E+03	1.208795E-02	9.436803E-05
7.351625E+03	1.205815E-02	9.401945E-05
7.361573E+03	1.202307E-02	9.365392E-05
7.371521E+03	1.198245E-02	9.327079E-05
7.381469E+03	1.193606E-02	9.286928E-05
7.391417E+03	1.188362E-02	9.244854E-05
7.401365E+03	1.182514E-02	9.200942E-05
7.411313E+03	1.176001E-02	9.154813E-05
7.421261E+03	1.168848E-02	9.106742E-05
7.431209E+03	1.161051E-02	9.056741E-05
7.441157E+03	1.152573E-02	9.004573E-05
7.451105E+03	1.143473E-02	8.950717E-05
7.461053E+03	1.133767E-02	8.895300E-05
7.471001E+03	1.123529E-02	8.838906E-05
7.480949E+03	1.112820E-02	8.781981E-05
7.490898E+03	1.101748E-02	8.725341E-05
7.500846E+03	1.090471E-02	8.670195E-05
7.510794E+03	1.079178E-02	8.618017E-05
7.520742E+03	1.068042E-02	8.570108E-05
7.530690E+03	1.057323E-02	8.528453E-05
7.540638E+03	1.047319E-02	8.495327E-05
7.550586E+03	1.038310E-02	8.472963E-05
7.560534E+03	1.030619E-02	8.463999E-05
7.570482E+03	1.024509E-02	8.470669E-05
7.580430E+03	1.020130E-02	8.494338E-05
7.590378E+03	1.017458E-02	8.535022E-05
7.600326E+03	1.016372E-02	8.591881E-05
7.610274E+03	1.016660E-02	8.663351E-05
7.620222E+03	1.018127E-02	8.747952E-05
7.630171E+03	1.020607E-02	8.844428E-05
7.640119E+03	1.023932E-02	8.951467E-05
7.650067E+03	1.027950E-02	9.067862E-05
7.660015E+03	1.032519E-02	9.192466E-05
7.669963E+03	1.037529E-02	9.324376E-05
7.679911E+03	1.042819E-02	9.462192E-05
7.689859E+03	1.048312E-02	9.605232E-05
7.699807E+03	1.053899E-02	9.752492E-05
7.709755E+03	1.059456E-02	9.902795E-05
7.719703E+03	1.064905E-02	1.005535E-04
