#wls	flux	fluxerr
1.591691E+03	7.780058E-06	5.947111E-08
1.631484E+03	7.514652E-06	5.744233E-08
1.671276E+03	7.264225E-06	5.552805E-08
1.711068E+03	7.025010E-06	5.369947E-08
1.750861E+03	6.799628E-06	5.197663E-08
1.790653E+03	6.588468E-06	5.036250E-08
1.830445E+03	6.391859E-06	4.885961E-08
1.870237E+03	6.208459E-06	4.745768E-08
1.910030E+03	6.041826E-06	4.618393E-08
1.949822E+03	5.888946E-06	4.501530E-08
1.989614E+03	5.753005E-06	4.397616E-08
2.029406E+03	5.632552E-06	4.305540E-08
2.069199E+03	5.527663E-06	4.225362E-08
2.108991E+03	5.438403E-06	4.157131E-08
2.148783E+03	5.366043E-06	4.101818E-08
2.188576E+03	5.309326E-06	4.058463E-08
2.228368E+03	5.268303E-06	4.027104E-08
2.268160E+03	5.244190E-06	4.008671E-08
2.307952E+03	5.235886E-06	4.002323E-08
2.347745E+03	5.244626E-06	4.009003E-08
2.387537E+03	5.270547E-06	4.028817E-08
2.427329E+03	5.313851E-06	4.061917E-08
2.467122E+03	5.374839E-06	4.108536E-08
2.506914E+03	5.454956E-06	4.169777E-08
2.546706E+03	5.553677E-06	4.245239E-08
2.586498E+03	5.671682E-06	4.335441E-08
2.626291E+03	5.811928E-06	4.442645E-08
2.666083E+03	5.973434E-06	4.566100E-08
2.705875E+03	6.160780E-06	4.709307E-08
2.745668E+03	6.373664E-06	4.872035E-08
2.785460E+03	6.615444E-06	5.056851E-08
2.825252E+03	6.891279E-06	5.267699E-08
2.865044E+03	7.203926E-06	5.506686E-08
2.904837E+03	7.558291E-06	5.777562E-08
2.944629E+03	7.964291E-06	6.087908E-08
2.984421E+03	8.428031E-06	6.442389E-08
2.994369E+03	8.555321E-06	6.539690E-08
3.004317E+03	8.686564E-06	6.640012E-08
3.014266E+03	8.823224E-06	6.744475E-08
3.024214E+03	8.964274E-06	6.852293E-08
3.034162E+03	9.111232E-06	6.964627E-08
3.044110E+03	9.264390E-06	7.081702E-08
3.054058E+03	9.422749E-06	7.202751E-08
3.064006E+03	9.587923E-06	7.329009E-08
3.073954E+03	9.760270E-06	7.460751E-08
3.083902E+03	9.938818E-06	7.597233E-08
3.093850E+03	1.012531E-05	7.739787E-08
3.103798E+03	1.032019E-05	7.888752E-08
3.113746E+03	1.052252E-05	8.043413E-08
3.123694E+03	1.073562E-05	8.206308E-08
3.133642E+03	1.095722E-05	8.375696E-08
3.143590E+03	1.118932E-05	8.553112E-08
3.153539E+03	1.143108E-05	8.737917E-08
3.163487E+03	1.168615E-05	8.932893E-08
3.173435E+03	1.195229E-05	9.136332E-08
3.183383E+03	1.223336E-05	9.351181E-08
3.193331E+03	1.252716E-05	9.575758E-08
3.203279E+03	1.283616E-05	9.811954E-08
3.213227E+03	1.316139E-05	1.006056E-07
3.223175E+03	1.350396E-05	1.032243E-07
3.233123E+03	1.386510E-05	1.059847E-07
3.243071E+03	1.424608E-05	1.088970E-07
3.253019E+03	1.464831E-05	1.119716E-07
3.262967E+03	1.507332E-05	1.152204E-07
3.272915E+03	1.552273E-05	1.186557E-07
3.282863E+03	1.600018E-05	1.223053E-07
3.292812E+03	1.650385E-05	1.261554E-07
3.302760E+03	1.703958E-05	1.302504E-07
3.312708E+03	1.760563E-05	1.345774E-07
3.322656E+03	1.820832E-05	1.391843E-07
3.332604E+03	1.884814E-05	1.440751E-07
3.342552E+03	1.952769E-05	1.492696E-07
3.352500E+03	2.025196E-05	1.548059E-07
3.362448E+03	2.102169E-05	1.606897E-07
3.372396E+03	2.183987E-05	1.669438E-07
3.382344E+03	2.270955E-05	1.735917E-07
3.392292E+03	2.363638E-05	1.806763E-07
3.402240E+03	2.462112E-05	1.882037E-07
3.412188E+03	2.566961E-05	1.962183E-07
3.422136E+03	2.678242E-05	2.047246E-07
3.432085E+03	2.796259E-05	2.137459E-07
3.442033E+03	2.921611E-05	2.233278E-07
3.451981E+03	3.054624E-05	2.334952E-07
3.461929E+03	3.195337E-05	2.442513E-07
3.471877E+03	3.344242E-05	2.556336E-07
3.481825E+03	3.502597E-05	2.677382E-07
3.491773E+03	3.670370E-05	2.805628E-07
3.501721E+03	3.848196E-05	2.941558E-07
3.511669E+03	4.037118E-05	3.085970E-07
3.521617E+03	4.237852E-05	3.239410E-07
3.531565E+03	4.451123E-05	3.402434E-07
3.541513E+03	4.677666E-05	3.575603E-07
3.551461E+03	4.917766E-05	3.759135E-07
3.561409E+03	5.172571E-05	3.953908E-07
3.571358E+03	5.442806E-05	4.160475E-07
3.581306E+03	5.729190E-05	4.379386E-07
3.591254E+03	6.032411E-05	4.611169E-07
3.601202E+03	6.353145E-05	4.856337E-07
3.611150E+03	6.692042E-05	5.115389E-07
3.621098E+03	7.049095E-05	5.388320E-07
3.631046E+03	7.426055E-05	5.676467E-07
3.640994E+03	7.822848E-05	5.979776E-07
3.650942E+03	8.239917E-05	6.298583E-07
3.660890E+03	8.678336E-05	6.633709E-07
3.670838E+03	9.136968E-05	6.984287E-07
3.680786E+03	9.617428E-05	7.351550E-07
3.690734E+03	1.011906E-04	7.734995E-07
3.700682E+03	1.064178E-04	8.134560E-07
3.710631E+03	1.118537E-04	8.550084E-07
3.720579E+03	1.175039E-04	8.981980E-07
3.730527E+03	1.233547E-04	9.429215E-07
3.740475E+03	1.294090E-04	9.892009E-07
3.750423E+03	1.356491E-04	1.036900E-06
3.760371E+03	1.420644E-04	1.085938E-06
3.770319E+03	1.486531E-04	1.136302E-06
3.780267E+03	1.554018E-04	1.187889E-06
3.790215E+03	1.622835E-04	1.240493E-06
3.800163E+03	1.692796E-04	1.293970E-06
3.810111E+03	1.763817E-04	1.348259E-06
3.820059E+03	1.835682E-04	1.403192E-06
3.830007E+03	1.908028E-04	1.458493E-06
3.839955E+03	1.980725E-04	1.514063E-06
3.849904E+03	2.053505E-04	1.569696E-06
3.850055E+03	2.049286E-04	1.566471E-06
3.852153E+03	2.069939E-04	1.582258E-06
3.854251E+03	2.075028E-04	1.586148E-06
3.856349E+03	2.096696E-04	1.602711E-06
3.858447E+03	2.125315E-04	1.624587E-06
3.860545E+03	2.146911E-04	1.641095E-06
3.862653E+03	2.126086E-04	1.625177E-06
3.864751E+03	2.142616E-04	1.637812E-06
3.866849E+03	2.132144E-04	1.629807E-06
3.868947E+03	2.149472E-04	1.643053E-06
3.871045E+03	2.175343E-04	1.662829E-06
3.873143E+03	2.178193E-04	1.665007E-06
3.875251E+03	2.130146E-04	1.628280E-06
3.877349E+03	2.094333E-04	1.600905E-06
3.879447E+03	2.057724E-04	1.572921E-06
3.881545E+03	2.055070E-04	1.570892E-06
3.883643E+03	2.075948E-04	1.586851E-06
3.885741E+03	2.089007E-04	1.596834E-06
3.887839E+03	2.097867E-04	1.603606E-06
3.889947E+03	2.073710E-04	1.585141E-06
3.892046E+03	2.076344E-04	1.587154E-06
3.894144E+03	2.084553E-04	1.593429E-06
3.896242E+03	2.045769E-04	1.563783E-06
3.898340E+03	2.077512E-04	1.588046E-06
3.900438E+03	2.105273E-04	1.609267E-06
3.902546E+03	2.180827E-04	1.667020E-06
3.904644E+03	2.208300E-04	1.688021E-06
3.906742E+03	2.235992E-04	1.709189E-06
3.908840E+03	2.246813E-04	1.717460E-06
3.910938E+03	2.265454E-04	1.731709E-06
3.913036E+03	2.284966E-04	1.746624E-06
3.915144E+03	2.370885E-04	1.812300E-06
3.917241E+03	2.405027E-04	1.838398E-06
3.919339E+03	2.424180E-04	1.853039E-06
3.921437E+03	2.431818E-04	1.858878E-06
3.923536E+03	2.451841E-04	1.874183E-06
3.925633E+03	2.444995E-04	1.868950E-06
3.927731E+03	2.483270E-04	1.898207E-06
3.929839E+03	2.450642E-04	1.873266E-06
3.931937E+03	2.453574E-04	1.875508E-06
3.934035E+03	2.455783E-04	1.877196E-06
3.936133E+03	2.500144E-04	1.911106E-06
3.938231E+03	2.562180E-04	1.958526E-06
3.940329E+03	2.579021E-04	1.971399E-06
3.942437E+03	2.598398E-04	1.986211E-06
3.944536E+03	2.618428E-04	2.001521E-06
3.946634E+03	2.651278E-04	2.026632E-06
3.948732E+03	2.662110E-04	2.034912E-06
3.950830E+03	2.662150E-04	2.034942E-06
3.952928E+03	2.697321E-04	2.061827E-06
3.955036E+03	2.725467E-04	2.083342E-06
3.957134E+03	2.786211E-04	2.129774E-06
3.959232E+03	2.831600E-04	2.164470E-06
3.961330E+03	2.857504E-04	2.184271E-06
3.963428E+03	2.831830E-04	2.164646E-06
3.965526E+03	2.831075E-04	2.164069E-06
3.967624E+03	2.835465E-04	2.167424E-06
3.969732E+03	2.882452E-04	2.203341E-06
3.971830E+03	2.868224E-04	2.192465E-06
3.973928E+03	2.884133E-04	2.204626E-06
3.976026E+03	2.859182E-04	2.185553E-06
3.978124E+03	2.829956E-04	2.163213E-06
3.980222E+03	2.813480E-04	2.150619E-06
3.982330E+03	2.822579E-04	2.157574E-06
3.984428E+03	2.782193E-04	2.126703E-06
3.986526E+03	2.789988E-04	2.132662E-06
3.988624E+03	2.832055E-04	2.164817E-06
3.990722E+03	2.796232E-04	2.137435E-06
3.992820E+03	2.840763E-04	2.171474E-06
3.994928E+03	2.841169E-04	2.171784E-06
3.997026E+03	2.845560E-04	2.175140E-06
3.999124E+03	2.855096E-04	2.182430E-06
4.001222E+03	2.883617E-04	2.204231E-06
4.003321E+03	2.899458E-04	2.216340E-06
4.005419E+03	2.915371E-04	2.228504E-06
4.007517E+03	2.971576E-04	2.271467E-06
4.009624E+03	2.987347E-04	2.283522E-06
4.011722E+03	3.027322E-04	2.314079E-06
4.013820E+03	3.041500E-04	2.324916E-06
4.015918E+03	3.082636E-04	2.356361E-06
4.018016E+03	3.128195E-04	2.391186E-06
4.020114E+03	3.177160E-04	2.428615E-06
4.022222E+03	3.215547E-04	2.457958E-06
4.024320E+03	3.279083E-04	2.506525E-06
4.026418E+03	3.334938E-04	2.549220E-06
4.028516E+03	3.381302E-04	2.584660E-06
4.030614E+03	3.425998E-04	2.618826E-06
4.032712E+03	3.454172E-04	2.640362E-06
4.034820E+03	3.503003E-04	2.677688E-06
4.036918E+03	3.523495E-04	2.693352E-06
4.039016E+03	3.559209E-04	2.720652E-06
4.041114E+03	3.558610E-04	2.720194E-06
4.043212E+03	3.555329E-04	2.717686E-06
4.045310E+03	3.585536E-04	2.740776E-06
4.047409E+03	3.605596E-04	2.756110E-06
4.049517E+03	3.611086E-04	2.760307E-06
4.051615E+03	3.606718E-04	2.756968E-06
4.053713E+03	3.620907E-04	2.767814E-06
4.055811E+03	3.630457E-04	2.775114E-06
4.057909E+03	3.618694E-04	2.766122E-06
4.060007E+03	3.613238E-04	2.761952E-06
4.062115E+03	3.592340E-04	2.745978E-06
4.064213E+03	3.557596E-04	2.719419E-06
4.066311E+03	3.527272E-04	2.696239E-06
4.068409E+03	3.524133E-04	2.693840E-06
4.070507E+03	3.474813E-04	2.656140E-06
4.072605E+03	3.439992E-04	2.629522E-06
4.074713E+03	3.438736E-04	2.628563E-06
4.076811E+03	3.396300E-04	2.596125E-06
4.078909E+03	3.382501E-04	2.585577E-06
4.081007E+03	3.384724E-04	2.587276E-06
4.083104E+03	3.394633E-04	2.594850E-06
4.085203E+03	3.374670E-04	2.579590E-06
4.087300E+03	3.341727E-04	2.554409E-06
4.089408E+03	3.329593E-04	2.545134E-06
4.091506E+03	3.335367E-04	2.549548E-06
4.093604E+03	3.300827E-04	2.523145E-06
4.095702E+03	3.308341E-04	2.528889E-06
4.097800E+03	3.312229E-04	2.531861E-06
4.099899E+03	3.334028E-04	2.548524E-06
4.102007E+03	3.356190E-04	2.565465E-06
4.104105E+03	3.394958E-04	2.595099E-06
4.106203E+03	3.393119E-04	2.593693E-06
4.108301E+03	3.364810E-04	2.572054E-06
4.110399E+03	3.348974E-04	2.559948E-06
4.112497E+03	3.353514E-04	2.563419E-06
4.114605E+03	3.355372E-04	2.564839E-06
4.116703E+03	3.347293E-04	2.558664E-06
4.118801E+03	3.330367E-04	2.545726E-06
4.120899E+03	3.298790E-04	2.521588E-06
4.122997E+03	3.261701E-04	2.493238E-06
4.125095E+03	3.260219E-04	2.492105E-06
4.127203E+03	3.212395E-04	2.455548E-06
4.129301E+03	3.170951E-04	2.423868E-06
4.131399E+03	3.116016E-04	2.381876E-06
4.133497E+03	3.069637E-04	2.346424E-06
4.135595E+03	3.025069E-04	2.312356E-06
4.137693E+03	2.937999E-04	2.245800E-06
4.139791E+03	2.898723E-04	2.215778E-06
4.141899E+03	2.827025E-04	2.160972E-06
4.143997E+03	2.772152E-04	2.119027E-06
4.146095E+03	2.718221E-04	2.077802E-06
4.148193E+03	2.671396E-04	2.042009E-06
4.150291E+03	2.626528E-04	2.007712E-06
4.152390E+03	2.585213E-04	1.976131E-06
4.154498E+03	2.557388E-04	1.954862E-06
4.156596E+03	2.517812E-04	1.924610E-06
4.158694E+03	2.457561E-04	1.878554E-06
4.160792E+03	2.407246E-04	1.840094E-06
4.162889E+03	2.388412E-04	1.825697E-06
4.164988E+03	2.365515E-04	1.808194E-06
4.167095E+03	2.354876E-04	1.800062E-06
4.169193E+03	2.338942E-04	1.787882E-06
4.171291E+03	2.344333E-04	1.792003E-06
4.173389E+03	2.349798E-04	1.796180E-06
4.175487E+03	2.345396E-04	1.792815E-06
4.177585E+03	2.375597E-04	1.815901E-06
4.179683E+03	2.379465E-04	1.818857E-06
4.181791E+03	2.418952E-04	1.849041E-06
4.183889E+03	2.428188E-04	1.856101E-06
4.185987E+03	2.457301E-04	1.878355E-06
4.188085E+03	2.464143E-04	1.883585E-06
4.190183E+03	2.497899E-04	1.909388E-06
4.192281E+03	2.531148E-04	1.934804E-06
4.194389E+03	2.562655E-04	1.958888E-06
4.196487E+03	2.578130E-04	1.970716E-06
4.198585E+03	2.598972E-04	1.986649E-06
4.200683E+03	2.615317E-04	1.999142E-06
4.202781E+03	2.630138E-04	2.010471E-06
4.204880E+03	2.633350E-04	2.012927E-06
4.206988E+03	2.658400E-04	2.032075E-06
4.209086E+03	2.661103E-04	2.034141E-06
4.211184E+03	2.669320E-04	2.040422E-06
4.213282E+03	2.672240E-04	2.042654E-06
4.215380E+03	2.683214E-04	2.051042E-06
4.217478E+03	2.680038E-04	2.048615E-06
4.219576E+03	2.697903E-04	2.062271E-06
4.221684E+03	2.718743E-04	2.078201E-06
4.223782E+03	2.717162E-04	2.076992E-06
4.225880E+03	2.711735E-04	2.072844E-06
4.227978E+03	2.712837E-04	2.073686E-06
4.230076E+03	2.706611E-04	2.068927E-06
4.232174E+03	2.695450E-04	2.060396E-06
4.234282E+03	2.700323E-04	2.064121E-06
4.236380E+03	2.692208E-04	2.057918E-06
4.238478E+03	2.706295E-04	2.068686E-06
4.240576E+03	2.722123E-04	2.080785E-06
4.242674E+03	2.749560E-04	2.101757E-06
4.244772E+03	2.762920E-04	2.111970E-06
4.246869E+03	2.770692E-04	2.117910E-06
4.248978E+03	2.795950E-04	2.137218E-06
4.251075E+03	2.815693E-04	2.152309E-06
4.253173E+03	2.828107E-04	2.161798E-06
4.255271E+03	2.861345E-04	2.187205E-06
4.257370E+03	2.900169E-04	2.216882E-06
4.259468E+03	2.938049E-04	2.245838E-06
4.261576E+03	2.972446E-04	2.272130E-06
4.263674E+03	3.022079E-04	2.310070E-06
4.265772E+03	3.083393E-04	2.356939E-06
4.267870E+03	3.138830E-04	2.399314E-06
4.269968E+03	3.215308E-04	2.457774E-06
4.272066E+03	3.274733E-04	2.503198E-06
4.274174E+03	3.302230E-04	2.524217E-06
4.276272E+03	3.353090E-04	2.563094E-06
4.278370E+03	3.391614E-04	2.592542E-06
4.280468E+03	3.441238E-04	2.630474E-06
4.282566E+03	3.459878E-04	2.644722E-06
4.284664E+03	3.493972E-04	2.670783E-06
4.286762E+03	3.514568E-04	2.686527E-06
4.288870E+03	3.543144E-04	2.708370E-06
4.290968E+03	3.567510E-04	2.726996E-06
4.293066E+03	3.597461E-04	2.749890E-06
4.295164E+03	3.619430E-04	2.766683E-06
4.297262E+03	3.632181E-04	2.776430E-06
4.299360E+03	3.631146E-04	2.775639E-06
4.301468E+03	3.626553E-04	2.772128E-06
4.303566E+03	3.623410E-04	2.769726E-06
4.305664E+03	3.601184E-04	2.752736E-06
4.307762E+03	3.595063E-04	2.748057E-06
4.309861E+03	3.573414E-04	2.731509E-06
4.311959E+03	3.545814E-04	2.710412E-06
4.314067E+03	3.509870E-04	2.682936E-06
4.316165E+03	3.452594E-04	2.639154E-06
4.318263E+03	3.418244E-04	2.612897E-06
4.320361E+03	3.383312E-04	2.586195E-06
4.322459E+03	3.320158E-04	2.537920E-06
4.324557E+03	3.288272E-04	2.513547E-06
4.326655E+03	3.228526E-04	2.467877E-06
4.328763E+03	3.189818E-04	2.438289E-06
4.330860E+03	3.137762E-04	2.398497E-06
4.332959E+03	3.103044E-04	2.371959E-06
4.335056E+03	3.067092E-04	2.344477E-06
4.337154E+03	3.031647E-04	2.317383E-06
4.339252E+03	2.997797E-04	2.291508E-06
4.341360E+03	2.970548E-04	2.270679E-06
4.343458E+03	2.946562E-04	2.252345E-06
4.345556E+03	2.934473E-04	2.243103E-06
4.347654E+03	2.926008E-04	2.236633E-06
4.349752E+03	2.913843E-04	2.227334E-06
4.351850E+03	2.907697E-04	2.222636E-06
4.353958E+03	2.911704E-04	2.225699E-06
4.356056E+03	2.912083E-04	2.225989E-06
4.358154E+03	2.918770E-04	2.231101E-06
4.360252E+03	2.935029E-04	2.243529E-06
4.362351E+03	2.957741E-04	2.260889E-06
4.364449E+03	2.977693E-04	2.276141E-06
4.366547E+03	2.998949E-04	2.292389E-06
4.368655E+03	3.027308E-04	2.314066E-06
4.370753E+03	3.039128E-04	2.323102E-06
4.372851E+03	3.051599E-04	2.332635E-06
4.374949E+03	3.054132E-04	2.334571E-06
4.377047E+03	3.070151E-04	2.346815E-06
4.379145E+03	3.088052E-04	2.360499E-06
4.381253E+03	3.101308E-04	2.370632E-06
4.383351E+03	3.100712E-04	2.370176E-06
4.385449E+03	3.115051E-04	2.381137E-06
4.387547E+03	3.107634E-04	2.375468E-06
4.389645E+03	3.067516E-04	2.344801E-06
4.391743E+03	3.037331E-04	2.321728E-06
4.393851E+03	3.005839E-04	2.297655E-06
4.395949E+03	2.977827E-04	2.276243E-06
4.398047E+03	2.949018E-04	2.254221E-06
4.400145E+03	2.931951E-04	2.241176E-06
4.402243E+03	2.927352E-04	2.237660E-06
4.404341E+03	2.923619E-04	2.234807E-06
4.406439E+03	2.913869E-04	2.227354E-06
4.408547E+03	2.932384E-04	2.241506E-06
4.410644E+03	2.956693E-04	2.260088E-06
4.412743E+03	2.998609E-04	2.292129E-06
4.414841E+03	3.035301E-04	2.320176E-06
4.416939E+03	3.083364E-04	2.356915E-06
4.419037E+03	3.126348E-04	2.389772E-06
4.421145E+03	3.171860E-04	2.424562E-06
4.423243E+03	3.226206E-04	2.466103E-06
4.425341E+03	3.287789E-04	2.513177E-06
4.427439E+03	3.354362E-04	2.564066E-06
4.429537E+03	3.400132E-04	2.599052E-06
4.431635E+03	3.487478E-04	2.665819E-06
4.433743E+03	3.549456E-04	2.713195E-06
4.435841E+03	3.635619E-04	2.779057E-06
4.437939E+03	3.705760E-04	2.832673E-06
4.440037E+03	3.754233E-04	2.869726E-06
4.442135E+03	3.815806E-04	2.916792E-06
4.444233E+03	3.861724E-04	2.951891E-06
4.446341E+03	3.926097E-04	3.001098E-06
4.448439E+03	3.992342E-04	3.051736E-06
4.450537E+03	4.037214E-04	3.086035E-06
4.452635E+03	4.089605E-04	3.126083E-06
4.454733E+03	4.107522E-04	3.139779E-06
4.456831E+03	4.125286E-04	3.153358E-06
4.458929E+03	4.123352E-04	3.151879E-06
4.461037E+03	4.115983E-04	3.146246E-06
4.463135E+03	4.112302E-04	3.143432E-06
4.465233E+03	4.113465E-04	3.144321E-06
4.467332E+03	4.074528E-04	3.114558E-06
4.469430E+03	4.034072E-04	3.083633E-06
4.471528E+03	3.994700E-04	3.053538E-06
4.473636E+03	3.950408E-04	3.019681E-06
4.475734E+03	3.899751E-04	2.980959E-06
4.477832E+03	3.877744E-04	2.964137E-06
4.479930E+03	3.869914E-04	2.958152E-06
4.482028E+03	3.886961E-04	2.971182E-06
4.484126E+03	3.904362E-04	2.984483E-06
4.486234E+03	3.933178E-04	3.006510E-06
4.488332E+03	3.973483E-04	3.037319E-06
4.490429E+03	4.034454E-04	3.083926E-06
4.492528E+03	4.122450E-04	3.151189E-06
4.494625E+03	4.210929E-04	3.218822E-06
4.496724E+03	4.266059E-04	3.260964E-06
4.498822E+03	4.360132E-04	3.332873E-06
4.500929E+03	4.458442E-04	3.408021E-06
4.503027E+03	4.557089E-04	3.483426E-06
4.505125E+03	4.626803E-04	3.536715E-06
4.507223E+03	4.712608E-04	3.602304E-06
4.509321E+03	4.828296E-04	3.690736E-06
4.511419E+03	4.969020E-04	3.798305E-06
4.513527E+03	5.132888E-04	3.923565E-06
4.515625E+03	5.326613E-04	4.071648E-06
4.517723E+03	5.546283E-04	4.239563E-06
4.519822E+03	5.787770E-04	4.424155E-06
4.521920E+03	6.072154E-04	4.641538E-06
4.524018E+03	6.388584E-04	4.883416E-06
4.526126E+03	6.726866E-04	5.141997E-06
4.528224E+03	7.069891E-04	5.404205E-06
4.530322E+03	7.430785E-04	5.680071E-06
4.532420E+03	7.809404E-04	5.969486E-06
4.534518E+03	8.182851E-04	6.254948E-06
4.536616E+03	8.554029E-04	6.538676E-06
4.538714E+03	8.915713E-04	6.815146E-06
4.540822E+03	9.259965E-04	7.078291E-06
4.542920E+03	9.596902E-04	7.335845E-06
4.545018E+03	9.910651E-04	7.575674E-06
4.547116E+03	1.020987E-03	7.804398E-06
4.549214E+03	1.049097E-03	8.019268E-06
4.551312E+03	1.074025E-03	8.209819E-06
4.553420E+03	1.096421E-03	8.381013E-06
4.555518E+03	1.118233E-03	8.547740E-06
4.557616E+03	1.136289E-03	8.685762E-06
4.559714E+03	1.153834E-03	8.819876E-06
4.561812E+03	1.167338E-03	8.923102E-06
4.563910E+03	1.178388E-03	9.007563E-06
4.566018E+03	1.184824E-03	9.056758E-06
4.568116E+03	1.189528E-03	9.092717E-06
4.570214E+03	1.191853E-03	9.110494E-06
4.572313E+03	1.192089E-03	9.112296E-06
4.574410E+03	1.187863E-03	9.079988E-06
4.576509E+03	1.181045E-03	9.027876E-06
4.578607E+03	1.172142E-03	8.959823E-06
4.580714E+03	1.159213E-03	8.860989E-06
4.582812E+03	1.144202E-03	8.746244E-06
4.584910E+03	1.127612E-03	8.619435E-06
4.587008E+03	1.109158E-03	8.478369E-06
4.589106E+03	1.091786E-03	8.345580E-06
4.591204E+03	1.074131E-03	8.210630E-06
4.593312E+03	1.058922E-03	8.094372E-06
4.595410E+03	1.043575E-03	7.977055E-06
4.597508E+03	1.030457E-03	7.876783E-06
4.599606E+03	1.020071E-03	7.797390E-06
4.601704E+03	1.009758E-03	7.718558E-06
4.603802E+03	1.003538E-03	7.671014E-06
4.605910E+03	9.981077E-04	7.629506E-06
4.608008E+03	9.954760E-04	7.609389E-06
4.610106E+03	9.934177E-04	7.593656E-06
4.612204E+03	9.899969E-04	7.567507E-06
4.614302E+03	9.878659E-04	7.551218E-06
4.616400E+03	9.878130E-04	7.550814E-06
4.618498E+03	9.874004E-04	7.547659E-06
4.620606E+03	9.902818E-04	7.569684E-06
4.622704E+03	9.958121E-04	7.611958E-06
4.624803E+03	1.005421E-03	7.685409E-06
4.626901E+03	1.017030E-03	7.774143E-06
4.628999E+03	1.031925E-03	7.888006E-06
4.631097E+03	1.048818E-03	8.017134E-06
4.633205E+03	1.068277E-03	8.165876E-06
4.635303E+03	1.087728E-03	8.314559E-06
4.637401E+03	1.108528E-03	8.473553E-06
4.639499E+03	1.130104E-03	8.638485E-06
4.641597E+03	1.146737E-03	8.765622E-06
4.643695E+03	1.159929E-03	8.866465E-06
4.645803E+03	1.175186E-03	8.983090E-06
4.647901E+03	1.185506E-03	9.061976E-06
4.649999E+03	1.193463E-03	9.122794E-06
4.652097E+03	1.199771E-03	9.171016E-06
4.654195E+03	1.206647E-03	9.223576E-06
4.656293E+03	1.213233E-03	9.273917E-06
4.658391E+03	1.218316E-03	9.312770E-06
4.660499E+03	1.222324E-03	9.343405E-06
4.662596E+03	1.227613E-03	9.383840E-06
4.664694E+03	1.231972E-03	9.417160E-06
