#wls	flux	fluxerr
1.594499E+03	7.126893E-04	2.032673E-05
1.634361E+03	7.121695E-04	2.021147E-05
1.674224E+03	7.112483E-04	2.008260E-05
1.714086E+03	7.100626E-04	1.994411E-05
1.753949E+03	7.086803E-04	1.979797E-05
1.793811E+03	7.072366E-04	1.964801E-05
1.833674E+03	7.058654E-04	1.949792E-05
1.873536E+03	7.047327E-04	1.935219E-05
1.913399E+03	7.039674E-04	1.921421E-05
1.953261E+03	7.037632E-04	1.908899E-05
1.993124E+03	7.042747E-04	1.898039E-05
2.032986E+03	7.056840E-04	1.889285E-05
2.072849E+03	7.081322E-04	1.882958E-05
2.112711E+03	7.117850E-04	1.879433E-05
2.152574E+03	7.168334E-04	1.879134E-05
2.192436E+03	7.234242E-04	1.882352E-05
2.232299E+03	7.316599E-04	1.889250E-05
2.272161E+03	7.416339E-04	1.899955E-05
2.312024E+03	7.534997E-04	1.914733E-05
2.351886E+03	7.671627E-04	1.933209E-05
2.391748E+03	7.826249E-04	1.955252E-05
2.431611E+03	7.997490E-04	1.980379E-05
2.471473E+03	8.185340E-04	2.008451E-05
2.511336E+03	8.388477E-04	2.039005E-05
2.551198E+03	8.607351E-04	2.072012E-05
2.591061E+03	8.841490E-04	2.107214E-05
2.630923E+03	9.091815E-04	2.144683E-05
2.670786E+03	9.358919E-04	2.184399E-05
2.710648E+03	9.644401E-04	2.226566E-05
2.750511E+03	9.950277E-04	2.271460E-05
2.790373E+03	1.027937E-03	2.319514E-05
2.830236E+03	1.063470E-03	2.371167E-05
2.870098E+03	1.102045E-03	2.427078E-05
2.909961E+03	1.144071E-03	2.487830E-05
2.949823E+03	1.190046E-03	2.554145E-05
2.989686E+03	1.240413E-03	2.626556E-05
2.999651E+03	1.253716E-03	2.645613E-05
3.009617E+03	1.267316E-03	2.665061E-05
3.019582E+03	1.281245E-03	2.684962E-05
3.029548E+03	1.295477E-03	2.705253E-05
3.039514E+03	1.310016E-03	2.725935E-05
3.049479E+03	1.324866E-03	2.747006E-05
3.059445E+03	1.340032E-03	2.768471E-05
3.069411E+03	1.355548E-03	2.790388E-05
3.079376E+03	1.371390E-03	2.812701E-05
3.089342E+03	1.387563E-03	2.835412E-05
3.099307E+03	1.404073E-03	2.858523E-05
3.109273E+03	1.420927E-03	2.882040E-05
3.119239E+03	1.438131E-03	2.905966E-05
3.129204E+03	1.455692E-03	2.930305E-05
3.139170E+03	1.473590E-03	2.955007E-05
3.149135E+03	1.491860E-03	2.980136E-05
3.159101E+03	1.510484E-03	3.005640E-05
3.169067E+03	1.529498E-03	3.031587E-05
3.179032E+03	1.548854E-03	3.057869E-05
3.188998E+03	1.568593E-03	3.084555E-05
3.198964E+03	1.588695E-03	3.111599E-05
3.208929E+03	1.609201E-03	3.139070E-05
3.218895E+03	1.630065E-03	3.166867E-05
3.228860E+03	1.651329E-03	3.195060E-05
3.238826E+03	1.673006E-03	3.223664E-05
3.248792E+03	1.695053E-03	3.252585E-05
3.258757E+03	1.717512E-03	3.281894E-05
3.268723E+03	1.740372E-03	3.311555E-05
3.278689E+03	1.763618E-03	3.341533E-05
3.288654E+03	1.787325E-03	3.371957E-05
3.298620E+03	1.811396E-03	3.402631E-05
3.308585E+03	1.835936E-03	3.433741E-05
3.318551E+03	1.860878E-03	3.465149E-05
3.328517E+03	1.886270E-03	3.496934E-05
3.338482E+03	1.912104E-03	3.529067E-05
3.348448E+03	1.938373E-03	3.561523E-05
3.358413E+03	1.965099E-03	3.594330E-05
3.368379E+03	1.992304E-03	3.627517E-05
3.378345E+03	2.019955E-03	3.661006E-05
3.388310E+03	2.048103E-03	3.694882E-05
3.398276E+03	2.076715E-03	3.729068E-05
3.408242E+03	2.105844E-03	3.763647E-05
3.418207E+03	2.135486E-03	3.798596E-05
3.428173E+03	2.165636E-03	3.833891E-05
3.438138E+03	2.196317E-03	3.869562E-05
3.448104E+03	2.227524E-03	3.905582E-05
3.458070E+03	2.259279E-03	3.941976E-05
3.468035E+03	2.291602E-03	3.978763E-05
3.478001E+03	2.324488E-03	4.015916E-05
3.487967E+03	2.357954E-03	4.053453E-05
3.497932E+03	2.391991E-03	4.091339E-05
3.507898E+03	2.426647E-03	4.129639E-05
3.517863E+03	2.461905E-03	4.168311E-05
3.527829E+03	2.497755E-03	4.207318E-05
3.537795E+03	2.534239E-03	4.246715E-05
3.547760E+03	2.571372E-03	4.286509E-05
3.557726E+03	2.609108E-03	4.326605E-05
3.567691E+03	2.647488E-03	4.367056E-05
3.577657E+03	2.686525E-03	4.407865E-05
3.587623E+03	2.726198E-03	4.448979E-05
3.597588E+03	2.766492E-03	4.490354E-05
3.607554E+03	2.807473E-03	4.532084E-05
3.617520E+03	2.849057E-03	4.574013E-05
3.627485E+03	2.891318E-03	4.616243E-05
3.637451E+03	2.934230E-03	4.658714E-05
3.647416E+03	2.977799E-03	4.701418E-05
3.657382E+03	3.021992E-03	4.744288E-05
3.667348E+03	3.066815E-03	4.787313E-05
3.677313E+03	3.112292E-03	4.830516E-05
3.687279E+03	3.158387E-03	4.873825E-05
3.697245E+03	3.205090E-03	4.917205E-05
3.707210E+03	3.252342E-03	4.960555E-05
3.717176E+03	3.300189E-03	5.003927E-05
3.727141E+03	3.348529E-03	5.047155E-05
3.737107E+03	3.397321E-03	5.090165E-05
3.747073E+03	3.446549E-03	5.132922E-05
3.757038E+03	3.496128E-03	5.175289E-05
3.767004E+03	3.545995E-03	5.217167E-05
3.776969E+03	3.596081E-03	5.258449E-05
3.786935E+03	3.646353E-03	5.299083E-05
3.796901E+03	3.696656E-03	5.338845E-05
3.806866E+03	3.746966E-03	5.377701E-05
3.816832E+03	3.797111E-03	5.415408E-05
3.826798E+03	3.846998E-03	5.451843E-05
3.836763E+03	3.896484E-03	5.486815E-05
3.846729E+03	3.945391E-03	5.520090E-05
3.856694E+03	3.993516E-03	5.551407E-05
3.866660E+03	4.040583E-03	5.580408E-05
3.876626E+03	4.086353E-03	5.606800E-05
3.886591E+03	4.130521E-03	5.630210E-05
3.896557E+03	4.172709E-03	5.650171E-05
3.906522E+03	4.212622E-03	5.666347E-05
3.916488E+03	4.249765E-03	5.678144E-05
3.926454E+03	4.283818E-03	5.685219E-05
3.936419E+03	4.314393E-03	5.687150E-05
3.946385E+03	4.341128E-03	5.683563E-05
3.956351E+03	4.363662E-03	5.674098E-05
3.966316E+03	4.381729E-03	5.658532E-05
3.976282E+03	4.395211E-03	5.636839E-05
3.986247E+03	4.403880E-03	5.608859E-05
3.996213E+03	4.407818E-03	5.574831E-05
4.006179E+03	4.406964E-03	5.534810E-05
4.016144E+03	4.401559E-03	5.489230E-05
4.026110E+03	4.391716E-03	5.438360E-05
4.036076E+03	4.377674E-03	5.382615E-05
4.046041E+03	4.359753E-03	5.322504E-05
4.056007E+03	4.338272E-03	5.258519E-05
4.065972E+03	4.313567E-03	5.191164E-05
4.075938E+03	4.285962E-03	5.120916E-05
4.085904E+03	4.255830E-03	5.048297E-05
4.095869E+03	4.223601E-03	4.973883E-05
4.105835E+03	4.189672E-03	4.898197E-05
4.115800E+03	4.154448E-03	4.821756E-05
4.125766E+03	4.118302E-03	4.745027E-05
4.135732E+03	4.081715E-03	4.668588E-05
4.145697E+03	4.045024E-03	4.592835E-05
4.155663E+03	4.008633E-03	4.518229E-05
4.165629E+03	3.973004E-03	4.445283E-05
4.175594E+03	3.938454E-03	4.374336E-05
4.185560E+03	3.905418E-03	4.305840E-05
4.195525E+03	3.874175E-03	4.240069E-05
4.205491E+03	3.845067E-03	4.177355E-05
4.215457E+03	3.818398E-03	4.117977E-05
4.225422E+03	3.794322E-03	4.062047E-05
4.235388E+03	3.773024E-03	4.009704E-05
4.245354E+03	3.754611E-03	3.961001E-05
4.255319E+03	3.739018E-03	3.915807E-05
4.265285E+03	3.726183E-03	3.874001E-05
4.275250E+03	3.715967E-03	3.835382E-05
4.285216E+03	3.708077E-03	3.799599E-05
4.295182E+03	3.702259E-03	3.766348E-05
4.305147E+03	3.698227E-03	3.735305E-05
4.315113E+03	3.695607E-03	3.706062E-05
4.325078E+03	3.694119E-03	3.678322E-05
4.335044E+03	3.693497E-03	3.651807E-05
4.345010E+03	3.693500E-03	3.626272E-05
4.354975E+03	3.694045E-03	3.601634E-05
4.364941E+03	3.695036E-03	3.577798E-05
4.374907E+03	3.696531E-03	3.554821E-05
4.384872E+03	3.698591E-03	3.532754E-05
4.394838E+03	3.701480E-03	3.511838E-05
4.404803E+03	3.705456E-03	3.492303E-05
4.414769E+03	3.710909E-03	3.474496E-05
4.424735E+03	3.718210E-03	3.458738E-05
4.434700E+03	3.727778E-03	3.445384E-05
4.444666E+03	3.740078E-03	3.434829E-05
4.454632E+03	3.755396E-03	3.427289E-05
4.464597E+03	3.773988E-03	3.422950E-05
4.474563E+03	3.796022E-03	3.421916E-05
4.484528E+03	3.821384E-03	3.424038E-05
4.494494E+03	3.849854E-03	3.429076E-05
4.504460E+03	3.880981E-03	3.436590E-05
4.514425E+03	3.914129E-03	3.445992E-05
4.524391E+03	3.948450E-03	3.456523E-05
4.534356E+03	3.983007E-03	3.467361E-05
4.544322E+03	4.016808E-03	3.477660E-05
4.554288E+03	4.048771E-03	3.486510E-05
4.564253E+03	4.077879E-03	3.493081E-05
4.574219E+03	4.103208E-03	3.496634E-05
4.584185E+03	4.123945E-03	3.496545E-05
4.594150E+03	4.139509E-03	3.492390E-05
4.604116E+03	4.149526E-03	3.483928E-05
4.614081E+03	4.153943E-03	3.471189E-05
4.624047E+03	4.152908E-03	3.454367E-05
4.634013E+03	4.146861E-03	3.433892E-05
4.643978E+03	4.136410E-03	3.410322E-05
4.653944E+03	4.122448E-03	3.384436E-05
4.663910E+03	4.105943E-03	3.357060E-05
4.673875E+03	4.087917E-03	3.329049E-05
4.683841E+03	4.069485E-03	3.301319E-05
4.693806E+03	4.051737E-03	3.274749E-05
4.703772E+03	4.035647E-03	3.250115E-05
4.713738E+03	4.022136E-03	3.228138E-05
4.723703E+03	4.011933E-03	3.209376E-05
4.733669E+03	4.005609E-03	3.194259E-05
4.743634E+03	4.003508E-03	3.183029E-05
4.753600E+03	4.005796E-03	3.175791E-05
4.763566E+03	4.012407E-03	3.172459E-05
4.773531E+03	4.023146E-03	3.172844E-05
4.783497E+03	4.037554E-03	3.176549E-05
4.793463E+03	4.055112E-03	3.183138E-05
4.803428E+03	4.075125E-03	3.192043E-05
4.813394E+03	4.096832E-03	3.202651E-05
4.823359E+03	4.119418E-03	3.214311E-05
4.833325E+03	4.142015E-03	3.226336E-05
4.843291E+03	4.163795E-03	3.238077E-05
4.853256E+03	4.183971E-03	3.248918E-05
4.863222E+03	4.201759E-03	3.258248E-05
4.873188E+03	4.216608E-03	3.265642E-05
4.883153E+03	4.227944E-03	3.270653E-05
4.893119E+03	4.235401E-03	3.272998E-05
4.903084E+03	4.238754E-03	3.272503E-05
4.913050E+03	4.237891E-03	3.269078E-05
4.923016E+03	4.232870E-03	3.262762E-05
4.932981E+03	4.223791E-03	3.253628E-05
4.942947E+03	4.210962E-03	3.241905E-05
4.952912E+03	4.194710E-03	3.227834E-05
4.962878E+03	4.175300E-03	3.211611E-05
4.972844E+03	4.153206E-03	3.193586E-05
4.982809E+03	4.128772E-03	3.174013E-05
4.992775E+03	4.102438E-03	3.153217E-05
5.002741E+03	4.074585E-03	3.131477E-05
5.012706E+03	4.045765E-03	3.109205E-05
5.022672E+03	4.016373E-03	3.086690E-05
5.032637E+03	3.986923E-03	3.064317E-05
5.042603E+03	3.957910E-03	3.042451E-05
5.052569E+03	3.929838E-03	3.021471E-05
5.062534E+03	3.903146E-03	3.001703E-05
5.072500E+03	3.878247E-03	2.983456E-05
5.082465E+03	3.855403E-03	2.966924E-05
5.092431E+03	3.834851E-03	2.952282E-05
5.102397E+03	3.816697E-03	2.939605E-05
5.112362E+03	3.800974E-03	2.928915E-05
5.122328E+03	3.787554E-03	2.920111E-05
5.132294E+03	3.776305E-03	2.913085E-05
5.142259E+03	3.767034E-03	2.907689E-05
5.152225E+03	3.759404E-03	2.903659E-05
5.162190E+03	3.753213E-03	2.900838E-05
5.172156E+03	3.748191E-03	2.899016E-05
5.182122E+03	3.744094E-03	2.898002E-05
5.192087E+03	3.740703E-03	2.897627E-05
5.202053E+03	3.737829E-03	2.897741E-05
5.212019E+03	3.735335E-03	2.898238E-05
5.221984E+03	3.733026E-03	2.898966E-05
5.231950E+03	3.730770E-03	2.899821E-05
5.241915E+03	3.728380E-03	2.900657E-05
5.251881E+03	3.725687E-03	2.901341E-05
5.261847E+03	3.722387E-03	2.901635E-05
5.271812E+03	3.718293E-03	2.901392E-05
5.281778E+03	3.713149E-03	2.900409E-05
5.291743E+03	3.706664E-03	2.898457E-05
5.301709E+03	3.698617E-03	2.895360E-05
5.311675E+03	3.688901E-03	2.891029E-05
5.321640E+03	3.677364E-03	2.885342E-05
5.331606E+03	3.663954E-03	2.878254E-05
5.341572E+03	3.648661E-03	2.869752E-05
5.351537E+03	3.631647E-03	2.859959E-05
5.361503E+03	3.613062E-03	2.848988E-05
5.371468E+03	3.593035E-03	2.836937E-05
5.381434E+03	3.571875E-03	2.824047E-05
5.391400E+03	3.549839E-03	2.810519E-05
5.401365E+03	3.527127E-03	2.796507E-05
5.411331E+03	3.504033E-03	2.782243E-05
5.421297E+03	3.480770E-03	2.767893E-05
5.431262E+03	3.457485E-03	2.753572E-05
5.441228E+03	3.434434E-03	2.739482E-05
5.451193E+03	3.411694E-03	2.725674E-05
5.461159E+03	3.389436E-03	2.712278E-05
5.471125E+03	3.367729E-03	2.699342E-05
5.481090E+03	3.346535E-03	2.686828E-05
5.491056E+03	3.325898E-03	2.674765E-05
5.501021E+03	3.305771E-03	2.663109E-05
5.510987E+03	3.286105E-03	2.651816E-05
5.520953E+03	3.266918E-03	2.640893E-05
5.530918E+03	3.248194E-03	2.630324E-05
5.540884E+03	3.229833E-03	2.620020E-05
5.550850E+03	3.211937E-03	2.610062E-05
5.560815E+03	3.194419E-03	2.600372E-05
5.570781E+03	3.177334E-03	2.590993E-05
5.580746E+03	3.160666E-03	2.581906E-05
5.590712E+03	3.144405E-03	2.573100E-05
5.600678E+03	3.128635E-03	2.564640E-05
5.610643E+03	3.113310E-03	2.556486E-05
5.620609E+03	3.098414E-03	2.548623E-05
5.630575E+03	3.083999E-03	2.541089E-05
5.640540E+03	3.070050E-03	2.533872E-05
5.650506E+03	3.056592E-03	2.526989E-05
5.660471E+03	3.043620E-03	2.520435E-05
5.670437E+03	3.031168E-03	2.514237E-05
5.680403E+03	3.019268E-03	2.508421E-05
5.690368E+03	3.007928E-03	2.502992E-05
5.700334E+03	2.997182E-03	2.497978E-05
5.710299E+03	2.987062E-03	2.493406E-05
5.720265E+03	2.977569E-03	2.489276E-05
5.730231E+03	2.968723E-03	2.485607E-05
5.740196E+03	2.960510E-03	2.482386E-05
5.750162E+03	2.952940E-03	2.479623E-05
5.760128E+03	2.946021E-03	2.477325E-05
5.770093E+03	2.939754E-03	2.475493E-05
5.780059E+03	2.934076E-03	2.474077E-05
5.790024E+03	2.929042E-03	2.473123E-05
5.799990E+03	2.924547E-03	2.472543E-05
5.809956E+03	2.920639E-03	2.472379E-05
5.819921E+03	2.917264E-03	2.472587E-05
5.829887E+03	2.914370E-03	2.473122E-05
5.839853E+03	2.911958E-03	2.473989E-05
5.849818E+03	2.909935E-03	2.475109E-05
5.859784E+03	2.908303E-03	2.476484E-05
5.869749E+03	2.906999E-03	2.478063E-05
5.879715E+03	2.906019E-03	2.479842E-05
5.889681E+03	2.905271E-03	2.481744E-05
5.899646E+03	2.904754E-03	2.483770E-05
5.909612E+03	2.904435E-03	2.485892E-05
5.919577E+03	2.904245E-03	2.488054E-05
5.929543E+03	2.904153E-03	2.490229E-05
5.939509E+03	2.904157E-03	2.492418E-05
5.949474E+03	2.904156E-03	2.494534E-05
5.959440E+03	2.904146E-03	2.496578E-05
5.969406E+03	2.904090E-03	2.498517E-05
5.979371E+03	2.903951E-03	2.500322E-05
5.989337E+03	2.903682E-03	2.501955E-05
5.999302E+03	2.903236E-03	2.503377E-05
6.009268E+03	2.902521E-03	2.504509E-05
6.019234E+03	2.901530E-03	2.505349E-05
6.029199E+03	2.900151E-03	2.505803E-05
6.039165E+03	2.898283E-03	2.505784E-05
6.049130E+03	2.895850E-03	2.505229E-05
6.059096E+03	2.892719E-03	2.504025E-05
6.069062E+03	2.888716E-03	2.502025E-05
6.079027E+03	2.883748E-03	2.499149E-05
6.088993E+03	2.877617E-03	2.495228E-05
6.098959E+03	2.870177E-03	2.490138E-05
6.108924E+03	2.861257E-03	2.483733E-05
6.118890E+03	2.850710E-03	2.475886E-05
6.128855E+03	2.838343E-03	2.466432E-05
6.138821E+03	2.823999E-03	2.455237E-05
6.148787E+03	2.807619E-03	2.442250E-05
6.158752E+03	2.789066E-03	2.427354E-05
6.168718E+03	2.768303E-03	2.410518E-05
6.178684E+03	2.745282E-03	2.391703E-05
6.188649E+03	2.720066E-03	2.370964E-05
6.198615E+03	2.692755E-03	2.348389E-05
6.208580E+03	2.663517E-03	2.324127E-05
6.218546E+03	2.632663E-03	2.298451E-05
6.228512E+03	2.600553E-03	2.271675E-05
6.238477E+03	2.567558E-03	2.244122E-05
6.248443E+03	2.534190E-03	2.216243E-05
6.258408E+03	2.501029E-03	2.188544E-05
6.268374E+03	2.468715E-03	2.161588E-05
6.278340E+03	2.437878E-03	2.135928E-05
6.288305E+03	2.409259E-03	2.112218E-05
6.298271E+03	2.383638E-03	2.091148E-05
6.308237E+03	2.361800E-03	2.073412E-05
6.318202E+03	2.344571E-03	2.059744E-05
6.328168E+03	2.332795E-03	2.050897E-05
6.338133E+03	2.327402E-03	2.047702E-05
6.348099E+03	2.329210E-03	2.050893E-05
6.358065E+03	2.339148E-03	2.061307E-05
6.368030E+03	2.358047E-03	2.079698E-05
6.377996E+03	2.386680E-03	2.106772E-05
6.387962E+03	2.425715E-03	2.143146E-05
6.397927E+03	2.475676E-03	2.189316E-05
6.407893E+03	2.536960E-03	2.245666E-05
6.417858E+03	2.609596E-03	2.312259E-05
6.427824E+03	2.693441E-03	2.389010E-05
6.437790E+03	2.787935E-03	2.475462E-05
6.447755E+03	2.892076E-03	2.570769E-05
6.457721E+03	3.004482E-03	2.673742E-05
6.467686E+03	3.123267E-03	2.782739E-05
6.477652E+03	3.246122E-03	2.895725E-05
6.487618E+03	3.370199E-03	3.010177E-05
6.497583E+03	3.492504E-03	3.123426E-05
6.507549E+03	3.609779E-03	3.232554E-05
6.517515E+03	3.718705E-03	3.334570E-05
6.527480E+03	3.816241E-03	3.426713E-05
6.537446E+03	3.899661E-03	3.506493E-05
6.547411E+03	3.966770E-03	3.571877E-05
6.557377E+03	4.016015E-03	3.621402E-05
6.567343E+03	4.046499E-03	3.654180E-05
6.577308E+03	4.058220E-03	3.670134E-05
6.587274E+03	4.051629E-03	3.669591E-05
6.597240E+03	4.028005E-03	3.653628E-05
6.607205E+03	3.988868E-03	3.623552E-05
6.617171E+03	3.936255E-03	3.581145E-05
6.627136E+03	3.872301E-03	3.528287E-05
6.637102E+03	3.799322E-03	3.467039E-05
6.647068E+03	3.719497E-03	3.399349E-05
6.657033E+03	3.634998E-03	3.327168E-05
6.666999E+03	3.547702E-03	3.252192E-05
6.676964E+03	3.459323E-03	3.175977E-05
6.686930E+03	3.371333E-03	3.099869E-05
6.696896E+03	3.284957E-03	3.024992E-05
6.706861E+03	3.201190E-03	2.952267E-05
6.716827E+03	3.120803E-03	2.882414E-05
6.726793E+03	3.044326E-03	2.815935E-05
6.736758E+03	2.972163E-03	2.753219E-05
6.746724E+03	2.904572E-03	2.694520E-05
6.756689E+03	2.841722E-03	2.640012E-05
6.766655E+03	2.783598E-03	2.589701E-05
6.776621E+03	2.730097E-03	2.543507E-05
6.786586E+03	2.681140E-03	2.501374E-05
6.796552E+03	2.636555E-03	2.463159E-05
6.806518E+03	2.596084E-03	2.428639E-05
6.816483E+03	2.559497E-03	2.397610E-05
6.826449E+03	2.526583E-03	2.369890E-05
6.836414E+03	2.496996E-03	2.345168E-05
6.846380E+03	2.470561E-03	2.323291E-05
6.856346E+03	2.446931E-03	2.303944E-05
6.866311E+03	2.425904E-03	2.286945E-05
6.876277E+03	2.407190E-03	2.272030E-05
6.886242E+03	2.390565E-03	2.258994E-05
6.896208E+03	2.375850E-03	2.247677E-05
6.906174E+03	2.362803E-03	2.237853E-05
6.916139E+03	2.351238E-03	2.229352E-05
6.926105E+03	2.340940E-03	2.221975E-05
6.936071E+03	2.331797E-03	2.215619E-05
6.946036E+03	2.323662E-03	2.210148E-05
6.956002E+03	2.316370E-03	2.205408E-05
6.965967E+03	2.309849E-03	2.201332E-05
6.975933E+03	2.303960E-03	2.197789E-05
6.985899E+03	2.298617E-03	2.194702E-05
6.995864E+03	2.293746E-03	2.191999E-05
7.005830E+03	2.289290E-03	2.189629E-05
7.015796E+03	2.285196E-03	2.187542E-05
7.025761E+03	2.281391E-03	2.185669E-05
7.035727E+03	2.277879E-03	2.184016E-05
7.045692E+03	2.274645E-03	2.182570E-05
7.055658E+03	2.271629E-03	2.181273E-05
7.065624E+03	2.268825E-03	2.180123E-05
7.075589E+03	2.266271E-03	2.179156E-05
7.085555E+03	2.263883E-03	2.178295E-05
7.095520E+03	2.261748E-03	2.177624E-05
7.105486E+03	2.259834E-03	2.177112E-05
7.115452E+03	2.258146E-03	2.176769E-05
7.125417E+03	2.256696E-03	2.176606E-05
7.135383E+03	2.255496E-03	2.176637E-05
7.145349E+03	2.254551E-03	2.176869E-05
7.155314E+03	2.253836E-03	2.177280E-05
7.165280E+03	2.253392E-03	2.177912E-05
7.175245E+03	2.253227E-03	2.178773E-05
7.185211E+03	2.253334E-03	2.179861E-05
7.195177E+03	2.253713E-03	2.181177E-05
7.205142E+03	2.254308E-03	2.182670E-05
7.215108E+03	2.255152E-03	2.184373E-05
7.225073E+03	2.256226E-03	2.186271E-05
7.235039E+03	2.257511E-03	2.188348E-05
7.245005E+03	2.258944E-03	2.190546E-05
7.254970E+03	2.260546E-03	2.192887E-05
7.264936E+03	2.262299E-03	2.195357E-05
7.274902E+03	2.264179E-03	2.197935E-05
7.284867E+03	2.266167E-03	2.200606E-05
7.294833E+03	2.268239E-03	2.203350E-05
7.304798E+03	2.270380E-03	2.206154E-05
7.314764E+03	2.272558E-03	2.208992E-05
7.324730E+03	2.274752E-03	2.211844E-05
7.334695E+03	2.276974E-03	2.214727E-05
7.344661E+03	2.279102E-03	2.217525E-05
7.354627E+03	2.281186E-03	2.220291E-05
7.364592E+03	2.283180E-03	2.222981E-05
7.374558E+03	2.284953E-03	2.225472E-05
7.384523E+03	2.286536E-03	2.227798E-05
7.394489E+03	2.287834E-03	2.229870E-05
7.404455E+03	2.288790E-03	2.231635E-05
7.414420E+03	2.289348E-03	2.233043E-05
7.424386E+03	2.289414E-03	2.234003E-05
7.434351E+03	2.289029E-03	2.234560E-05
7.444317E+03	2.288015E-03	2.234544E-05
7.454283E+03	2.286389E-03	2.233973E-05
7.464248E+03	2.284215E-03	2.232913E-05
7.474214E+03	2.281395E-03	2.231272E-05
7.484180E+03	2.278015E-03	2.229135E-05
7.494145E+03	2.274043E-03	2.226475E-05
7.504111E+03	2.269496E-03	2.223310E-05
7.514076E+03	2.264456E-03	2.219724E-05
7.524042E+03	2.258966E-03	2.215760E-05
7.534008E+03	2.253034E-03	2.211431E-05
7.543973E+03	2.246775E-03	2.206850E-05
7.553939E+03	2.240266E-03	2.202093E-05
7.563905E+03	2.233594E-03	2.197243E-05
7.573870E+03	2.226855E-03	2.192388E-05
7.583836E+03	2.220106E-03	2.187580E-05
7.593801E+03	2.213545E-03	2.183011E-05
7.603767E+03	2.207190E-03	2.178696E-05
7.613733E+03	2.201199E-03	2.174786E-05
7.623698E+03	2.195680E-03	2.171386E-05
7.633664E+03	2.190781E-03	2.168640E-05
7.643629E+03	2.186501E-03	2.166546E-05
7.653595E+03	2.182961E-03	2.165220E-05
7.663561E+03	2.180209E-03	2.164710E-05
7.673526E+03	2.178315E-03	2.165085E-05
7.683492E+03	2.177177E-03	2.166242E-05
7.693458E+03	2.176847E-03	2.168232E-05
7.703423E+03	2.177207E-03	2.170937E-05
7.713389E+03	2.178210E-03	2.174309E-05
7.723354E+03	2.179648E-03	2.178140E-05
7.733320E+03	2.181490E-03	2.182398E-05
