#wls	flux	fluxerr
1.594499E+03	1.063259E-04	3.861469E-06
1.634361E+03	1.056311E-04	3.817481E-06
1.674224E+03	1.050236E-04	3.776456E-06
1.714086E+03	1.045021E-04	3.738307E-06
1.753949E+03	1.040962E-04	3.704033E-06
1.793811E+03	1.037739E-04	3.672438E-06
1.833674E+03	1.035341E-04	3.643431E-06
1.873536E+03	1.034361E-04	3.619029E-06
1.913399E+03	1.034478E-04	3.598030E-06
1.953261E+03	1.035977E-04	3.581341E-06
1.993124E+03	1.038840E-04	3.568804E-06
2.032986E+03	1.043049E-04	3.560257E-06
2.072849E+03	1.048883E-04	3.556545E-06
2.112711E+03	1.056617E-04	3.558469E-06
2.152574E+03	1.065642E-04	3.563846E-06
2.192436E+03	1.076532E-04	3.574467E-06
2.232299E+03	1.089561E-04	3.591081E-06
2.272161E+03	1.104424E-04	3.612507E-06
2.312024E+03	1.121402E-04	3.639490E-06
2.351886E+03	1.140491E-04	3.671824E-06
2.391748E+03	1.161980E-04	3.710230E-06
2.431611E+03	1.185878E-04	3.754507E-06
2.471473E+03	1.212773E-04	3.806259E-06
2.511336E+03	1.242691E-04	3.865274E-06
2.551198E+03	1.275958E-04	3.932243E-06
2.591061E+03	1.312913E-04	4.007860E-06
2.630923E+03	1.354196E-04	4.093666E-06
2.670786E+03	1.400188E-04	4.190347E-06
2.710648E+03	1.451304E-04	4.298618E-06
2.750511E+03	1.507993E-04	4.419237E-06
2.790373E+03	1.571583E-04	4.555424E-06
2.830236E+03	1.642345E-04	4.707193E-06
2.870098E+03	1.721453E-04	4.877040E-06
2.909961E+03	1.809883E-04	5.066738E-06
2.949823E+03	1.908988E-04	5.278939E-06
2.989686E+03	2.019968E-04	5.515651E-06
2.999651E+03	2.049586E-04	5.578544E-06
3.009617E+03	2.080287E-04	5.643780E-06
3.019582E+03	2.112087E-04	5.711371E-06
3.029548E+03	2.144720E-04	5.780571E-06
3.039514E+03	2.178203E-04	5.851397E-06
3.049479E+03	2.212552E-04	5.923868E-06
3.059445E+03	2.248065E-04	5.998752E-06
3.069411E+03	2.284762E-04	6.076065E-06
3.079376E+03	2.322661E-04	6.155820E-06
3.089342E+03	2.361504E-04	6.237299E-06
3.099307E+03	2.401591E-04	6.321263E-06
3.109273E+03	2.442945E-04	6.407733E-06
3.119239E+03	2.485307E-04	6.495994E-06
3.129204E+03	2.529268E-04	6.587552E-06
3.139170E+03	2.574571E-04	6.681694E-06
3.149135E+03	2.621245E-04	6.778447E-06
3.159101E+03	2.669315E-04	6.877841E-06
3.169067E+03	2.718811E-04	6.979902E-06
3.179032E+03	2.770052E-04	7.085405E-06
3.188998E+03	2.822782E-04	7.193642E-06
3.198964E+03	2.877035E-04	7.304653E-06
3.208929E+03	2.933425E-04	7.419941E-06
3.218895E+03	2.991118E-04	7.537341E-06
3.228860E+03	3.051031E-04	7.659107E-06
3.238826E+03	3.112611E-04	7.783791E-06
3.248792E+03	3.176200E-04	7.912188E-06
3.258757E+03	3.241838E-04	8.044338E-06
3.268723E+03	3.309575E-04	8.180292E-06
3.278689E+03	3.379452E-04	8.320090E-06
3.288654E+03	3.451826E-04	8.464534E-06
3.298620E+03	3.526445E-04	8.612929E-06
3.308585E+03	3.603360E-04	8.765329E-06
3.318551E+03	3.682627E-04	8.921793E-06
3.328517E+03	3.764608E-04	9.083118E-06
3.338482E+03	3.849366E-04	9.249368E-06
3.348448E+03	3.936653E-04	9.419856E-06
3.358413E+03	4.027157E-04	9.596142E-06
3.368379E+03	4.120319E-04	9.776795E-06
3.378345E+03	4.216522E-04	9.962631E-06
3.388310E+03	4.315835E-04	1.015371E-05
3.398276E+03	4.418656E-04	1.035086E-05
3.408242E+03	4.524419E-04	1.055266E-05
3.418207E+03	4.634166E-04	1.076141E-05
3.428173E+03	4.747016E-04	1.097496E-05
3.438138E+03	4.863696E-04	1.119487E-05
3.448104E+03	4.984297E-04	1.142122E-05
3.458070E+03	5.108578E-04	1.165334E-05
3.468035E+03	5.237293E-04	1.189281E-05
3.478001E+03	5.369875E-04	1.213820E-05
3.487967E+03	5.506752E-04	1.239035E-05
3.497932E+03	5.648021E-04	1.264932E-05
3.507898E+03	5.794127E-04	1.291597E-05
3.517863E+03	5.944836E-04	1.318961E-05
3.527829E+03	6.100252E-04	1.347032E-05
3.537795E+03	6.260478E-04	1.375816E-05
3.547760E+03	6.426328E-04	1.405475E-05
3.557726E+03	6.596860E-04	1.435785E-05
3.567691E+03	6.773248E-04	1.466984E-05
3.577657E+03	6.954899E-04	1.498925E-05
3.587623E+03	7.142284E-04	1.531691E-05
3.597588E+03	7.335891E-04	1.565367E-05
3.607554E+03	7.535108E-04	1.599801E-05
3.617520E+03	7.740420E-04	1.635076E-05
3.627485E+03	7.952321E-04	1.671277E-05
3.637451E+03	8.170941E-04	1.708406E-05
3.647416E+03	8.395641E-04	1.746310E-05
3.657382E+03	8.627688E-04	1.785228E-05
3.667348E+03	8.866440E-04	1.825004E-05
3.677313E+03	9.112012E-04	1.865638E-05
3.687279E+03	9.365308E-04	1.907292E-05
3.697245E+03	9.625659E-04	1.949803E-05
3.707210E+03	9.893983E-04	1.993332E-05
3.717176E+03	1.017000E-03	2.037794E-05
3.727141E+03	1.045340E-03	2.083105E-05
3.737107E+03	1.074554E-03	2.129505E-05
3.747073E+03	1.104527E-03	2.176740E-05
3.757038E+03	1.135354E-03	2.224969E-05
3.767004E+03	1.167003E-03	2.274099E-05
3.776969E+03	1.199524E-03	2.324202E-05
3.786935E+03	1.232882E-03	2.375179E-05
3.796901E+03	1.267128E-03	2.427099E-05
3.806866E+03	1.302221E-03	2.479855E-05
3.816832E+03	1.338250E-03	2.533586E-05
3.826798E+03	1.375123E-03	2.588088E-05
3.836763E+03	1.412831E-03	2.643316E-05
3.846729E+03	1.451405E-03	2.699297E-05
3.856694E+03	1.490822E-03	2.755962E-05
3.866660E+03	1.531049E-03	2.813222E-05
3.876626E+03	1.572040E-03	2.870965E-05
3.877863E+03	3.434344E-04	6.267262E-06
3.880895E+03	3.313560E-04	6.035569E-06
3.883925E+03	3.304014E-04	6.006940E-06
3.886957E+03	3.273813E-04	5.940889E-06
3.889988E+03	3.364390E-04	6.093805E-06
3.893018E+03	3.445774E-04	6.229485E-06
3.896050E+03	3.691030E-04	6.660304E-06
3.899080E+03	4.093642E-04	7.372860E-06
3.902112E+03	4.656377E-04	8.370513E-06
3.905142E+03	5.292870E-04	9.496672E-06
3.908173E+03	5.940235E-04	1.063796E-05
3.911204E+03	6.672051E-04	1.192579E-05
3.914235E+03	7.458579E-04	1.330623E-05
3.917266E+03	8.248569E-04	1.468747E-05
3.920297E+03	9.194180E-04	1.633990E-05
3.923328E+03	1.021069E-03	1.811165E-05
3.926359E+03	1.137422E-03	2.013672E-05
3.929390E+03	1.258967E-03	2.224562E-05
3.932421E+03	1.373339E-03	2.421971E-05
3.935452E+03	1.494807E-03	2.631091E-05
3.938482E+03	1.611789E-03	2.831504E-05
3.941514E+03	1.721015E-03	3.017517E-05
3.944544E+03	1.826291E-03	3.195873E-05
3.947576E+03	1.923392E-03	3.359233E-05
3.950606E+03	2.009711E-03	3.503137E-05
3.953638E+03	2.091948E-03	3.639350E-05
3.956668E+03	2.159505E-03	3.749517E-05
3.959699E+03	2.210060E-03	3.829759E-05
3.962731E+03	2.256940E-03	3.903298E-05
3.965761E+03	2.306602E-03	3.981324E-05
3.968793E+03	2.351390E-03	4.050611E-05
3.971823E+03	2.389143E-03	4.107502E-05
3.974854E+03	2.416218E-03	4.145813E-05
3.977885E+03	2.424656E-03	4.152025E-05
3.980916E+03	2.425806E-03	4.145726E-05
3.983947E+03	2.406777E-03	4.105000E-05
3.986978E+03	2.361473E-03	4.019682E-05
3.990008E+03	2.304556E-03	3.914947E-05
3.993040E+03	2.247960E-03	3.811141E-05
3.996071E+03	2.203705E-03	3.728605E-05
3.999102E+03	2.164623E-03	3.655104E-05
4.002133E+03	2.111561E-03	3.558315E-05
4.005163E+03	2.068648E-03	3.478956E-05
4.008195E+03	2.024316E-03	3.397507E-05
4.011225E+03	1.987855E-03	3.329546E-05
4.014257E+03	1.957400E-03	3.271873E-05
4.017287E+03	1.930755E-03	3.220765E-05
4.020319E+03	1.921486E-03	3.198765E-05
4.023349E+03	1.922504E-03	3.193920E-05
4.026380E+03	1.925430E-03	3.192235E-05
4.029412E+03	1.939311E-03	3.208655E-05
4.032442E+03	1.949793E-03	3.219370E-05
4.035474E+03	1.969240E-03	3.244787E-05
4.038504E+03	1.989356E-03	3.271175E-05
4.041536E+03	2.025042E-03	3.322976E-05
4.044566E+03	2.072317E-03	3.393516E-05
4.047597E+03	2.133925E-03	3.487161E-05
4.050628E+03	2.199407E-03	3.586704E-05
4.053659E+03	2.267268E-03	3.689680E-05
4.056690E+03	2.340999E-03	3.801727E-05
4.059721E+03	2.417984E-03	3.918555E-05
4.062752E+03	2.499428E-03	4.042074E-05
4.065783E+03	2.594058E-03	4.186321E-05
4.068814E+03	2.688164E-03	4.329091E-05
4.071845E+03	2.782206E-03	4.471120E-05
4.074876E+03	2.868414E-03	4.599957E-05
4.077906E+03	2.942087E-03	4.708156E-05
4.080938E+03	2.993828E-03	4.780834E-05
4.083968E+03	3.015360E-03	4.805032E-05
4.087000E+03	3.017941E-03	4.798951E-05
4.090030E+03	3.001065E-03	4.761987E-05
4.093061E+03	2.959195E-03	4.685567E-05
4.096092E+03	2.896401E-03	4.576371E-05
4.099123E+03	2.828689E-03	4.459852E-05
4.102155E+03	2.749773E-03	4.326164E-05
4.105185E+03	2.674463E-03	4.198676E-05
4.108217E+03	2.613737E-03	4.094545E-05
4.111247E+03	2.555914E-03	3.995368E-05
4.114278E+03	2.503653E-03	3.905260E-05
4.117309E+03	2.452547E-03	3.817304E-05
4.120340E+03	2.404804E-03	3.734921E-05
4.123370E+03	2.357757E-03	3.653944E-05
4.126402E+03	2.303707E-03	3.562454E-05
4.129432E+03	2.252106E-03	3.475112E-05
4.132464E+03	2.208028E-03	3.399703E-05
4.135495E+03	2.174350E-03	3.340575E-05
4.138526E+03	2.156157E-03	3.305411E-05
4.141557E+03	2.142082E-03	3.276677E-05
4.144587E+03	2.126380E-03	3.245559E-05
4.147619E+03	2.095597E-03	3.191580E-05
4.150649E+03	2.059267E-03	3.129386E-05
4.153681E+03	2.017765E-03	3.059593E-05
4.156711E+03	1.976588E-03	2.990576E-05
4.159742E+03	1.941444E-03	2.930947E-05
4.162773E+03	1.911128E-03	2.878826E-05
4.165804E+03	1.886807E-03	2.835925E-05
4.168836E+03	1.866816E-03	2.799683E-05
4.171866E+03	1.844154E-03	2.759582E-05
4.174898E+03	1.832659E-03	2.736311E-05
4.177928E+03	1.818952E-03	2.709827E-05
4.180959E+03	1.817919E-03	2.702277E-05
4.183990E+03	1.815008E-03	2.691954E-05
4.187021E+03	1.818353E-03	2.690914E-05
4.190052E+03	1.827829E-03	2.698911E-05
4.193083E+03	1.844315E-03	2.717179E-05
4.196113E+03	1.857132E-03	2.729953E-05
4.199145E+03	1.868033E-03	2.739835E-05
4.202175E+03	1.884819E-03	2.758267E-05
4.205207E+03	1.898479E-03	2.772028E-05
4.208238E+03	1.916773E-03	2.792460E-05
4.211268E+03	1.940413E-03	2.820549E-05
4.214300E+03	1.965310E-03	2.850312E-05
4.217330E+03	1.987331E-03	2.875759E-05
4.220362E+03	1.999712E-03	2.887151E-05
4.223392E+03	1.996313E-03	2.875739E-05
4.226424E+03	1.986190E-03	2.854692E-05
4.229454E+03	1.960155E-03	2.810901E-05
4.232485E+03	1.916156E-03	2.741585E-05
4.235516E+03	1.863585E-03	2.660325E-05
4.238547E+03	1.801481E-03	2.565835E-05
4.241579E+03	1.725118E-03	2.451491E-05
4.244609E+03	1.646861E-03	2.334964E-05
4.247640E+03	1.565121E-03	2.214022E-05
4.250671E+03	1.484326E-03	2.094947E-05
4.253702E+03	1.400298E-03	1.971846E-05
4.256733E+03	1.311237E-03	1.842221E-05
4.259764E+03	1.224167E-03	1.715964E-05
4.262794E+03	1.149788E-03	1.608021E-05
4.265826E+03	1.093832E-03	1.526265E-05
4.268856E+03	1.060486E-03	1.476349E-05
4.271888E+03	1.035246E-03	1.437909E-05
4.274919E+03	1.046845E-03	1.450685E-05
4.277949E+03	1.075845E-03	1.487452E-05
4.280981E+03	1.120201E-03	1.545221E-05
4.284011E+03	1.185064E-03	1.630936E-05
4.287043E+03	1.263535E-03	1.734932E-05
4.290073E+03	1.348130E-03	1.846828E-05
4.293105E+03	1.426254E-03	1.949353E-05
4.296135E+03	1.504687E-03	2.051813E-05
4.299166E+03	1.584013E-03	2.155004E-05
4.302197E+03	1.650755E-03	2.240623E-05
4.305228E+03	1.710896E-03	2.316894E-05
4.308260E+03	1.764308E-03	2.383706E-05
4.311290E+03	1.806049E-03	2.434463E-05
4.314321E+03	1.829458E-03	2.460317E-05
4.317352E+03	1.837167E-03	2.464970E-05
4.320383E+03	1.836837E-03	2.458825E-05
4.323414E+03	1.823900E-03	2.435854E-05
4.326445E+03	1.812175E-03	2.414592E-05
4.329475E+03	1.794206E-03	2.385112E-05
4.332507E+03	1.780674E-03	2.361637E-05
4.335537E+03	1.773216E-03	2.346294E-05
4.338569E+03	1.759511E-03	2.322761E-05
4.341599E+03	1.750205E-03	2.305118E-05
4.344630E+03	1.741106E-03	2.287815E-05
4.347662E+03	1.737915E-03	2.278323E-05
4.350692E+03	1.733131E-03	2.266779E-05
4.353724E+03	1.736688E-03	2.266159E-05
4.356754E+03	1.747541E-03	2.275028E-05
4.359786E+03	1.759654E-03	2.285478E-05
4.362816E+03	1.773655E-03	2.298316E-05
4.365847E+03	1.791183E-03	2.315640E-05
4.368878E+03	1.805987E-03	2.329357E-05
4.371909E+03	1.821632E-03	2.344083E-05
4.374940E+03	1.833127E-03	2.353399E-05
4.377971E+03	1.851463E-03	2.371422E-05
4.381002E+03	1.881508E-03	2.404313E-05
4.384033E+03	1.912187E-03	2.437847E-05
4.387064E+03	1.944677E-03	2.473517E-05
4.390095E+03	1.980110E-03	2.512744E-05
4.393126E+03	2.016767E-03	2.553328E-05
4.396156E+03	2.045455E-03	2.583647E-05
4.399188E+03	2.065500E-03	2.602919E-05
4.402218E+03	2.081182E-03	2.616608E-05
4.405250E+03	2.090485E-03	2.622217E-05
4.408280E+03	2.107431E-03	2.637357E-05
4.411311E+03	2.118543E-03	2.645131E-05
4.414343E+03	2.127347E-03	2.649982E-05
4.417373E+03	2.134513E-03	2.652767E-05
4.420405E+03	2.142354E-03	2.656361E-05
4.423435E+03	2.145069E-03	2.653592E-05
4.426467E+03	2.151777E-03	2.655750E-05
4.429497E+03	2.161847E-03	2.662031E-05
4.432528E+03	2.164103E-03	2.658673E-05
4.435559E+03	2.163333E-03	2.651611E-05
4.438590E+03	2.163823E-03	2.646115E-05
4.441621E+03	2.165532E-03	2.642122E-05
4.444652E+03	2.165854E-03	2.636452E-05
4.447682E+03	2.157978E-03	2.620844E-05
4.450714E+03	2.151024E-03	2.606415E-05
4.453745E+03	2.138898E-03	2.585793E-05
4.456776E+03	2.115204E-03	2.551305E-05
4.459807E+03	2.077963E-03	2.500666E-05
4.462837E+03	2.031883E-03	2.439638E-05
4.465869E+03	1.974984E-03	2.365920E-05
4.468899E+03	1.913194E-03	2.286689E-05
4.471931E+03	1.852234E-03	2.208800E-05
4.474961E+03	1.788444E-03	2.127894E-05
4.477992E+03	1.728219E-03	2.051582E-05
4.481023E+03	1.666804E-03	1.974200E-05
4.484054E+03	1.605379E-03	1.897153E-05
4.487086E+03	1.548698E-03	1.826043E-05
4.490116E+03	1.491587E-03	1.754744E-05
4.493148E+03	1.430338E-03	1.678906E-05
4.496178E+03	1.377626E-03	1.613404E-05
4.499209E+03	1.333451E-03	1.558169E-05
4.502240E+03	1.297648E-03	1.512938E-05
4.505271E+03	1.276830E-03	1.485342E-05
4.508302E+03	1.277824E-03	1.483183E-05
4.511333E+03	1.285894E-03	1.489227E-05
4.514363E+03	1.310688E-03	1.514568E-05
4.517395E+03	1.358487E-03	1.566319E-05
4.520426E+03	1.439407E-03	1.655945E-05
4.523457E+03	1.544357E-03	1.772755E-05
4.526488E+03	1.667737E-03	1.910159E-05
4.529518E+03	1.803652E-03	2.061283E-05
4.532550E+03	1.953495E-03	2.227621E-05
4.535580E+03	2.104160E-03	2.394168E-05
4.538612E+03	2.256027E-03	2.561347E-05
4.541642E+03	2.402729E-03	2.721945E-05
4.544673E+03	2.549243E-03	2.881631E-05
4.547704E+03	2.696194E-03	3.041114E-05
4.550735E+03	2.840342E-03	3.196751E-05
4.553767E+03	2.985179E-03	3.352486E-05
4.556797E+03	3.119997E-03	3.496324E-05
4.559829E+03	3.246608E-03	3.630364E-05
4.562859E+03	3.360450E-03	3.749585E-05
4.565890E+03	3.467216E-03	3.860417E-05
4.568921E+03	3.559988E-03	3.955227E-05
4.571952E+03	3.637242E-03	4.032434E-05
4.574983E+03	3.691509E-03	4.083883E-05
4.578014E+03	3.728392E-03	4.115929E-05
4.581045E+03	3.747554E-03	4.128319E-05
4.584076E+03	3.759749E-03	4.133007E-05
4.587106E+03	3.760883E-03	4.125547E-05
4.590138E+03	3.748804E-03	4.103657E-05
4.593169E+03	3.730469E-03	4.075034E-05
4.596199E+03	3.711575E-03	4.045929E-05
4.599231E+03	3.689762E-03	4.013773E-05
4.602261E+03	3.669033E-03	3.982939E-05
4.605293E+03	3.645933E-03	3.949668E-05
4.608323E+03	3.629661E-03	3.923928E-05
4.611355E+03	3.625326E-03	3.911179E-05
4.614385E+03	3.632254E-03	3.910619E-05
4.617416E+03	3.653398E-03	3.925345E-05
4.620447E+03	3.687834E-03	3.954272E-05
4.623478E+03	3.742570E-03	4.004816E-05
4.626510E+03	3.807686E-03	4.066250E-05
4.629540E+03	3.876257E-03	4.131133E-05
4.632571E+03	3.939502E-03	4.190102E-05
4.635602E+03	3.992307E-03	4.237765E-05
4.638633E+03	4.023489E-03	4.262347E-05
4.641664E+03	4.046048E-03	4.277727E-05
4.644695E+03	4.058038E-03	4.281912E-05
4.647726E+03	4.064190E-03	4.279946E-05
4.650757E+03	4.071177E-03	4.278884E-05
4.653787E+03	4.077814E-03	4.277477E-05
4.656819E+03	4.070336E-03	4.261313E-05
4.659850E+03	4.077748E-03	4.260791E-05
4.662880E+03	4.080253E-03	4.255172E-05
4.665912E+03	4.089201E-03	4.256298E-05
4.668942E+03	4.093199E-03	4.252299E-05
4.671974E+03	4.089160E-03	4.240001E-05
4.675004E+03	4.081055E-03	4.223565E-05
4.678036E+03	4.059385E-03	4.193197E-05
4.681066E+03	4.019633E-03	4.144326E-05
4.684097E+03	3.967711E-03	4.083136E-05
4.687128E+03	3.909657E-03	4.015895E-05
4.690159E+03	3.850535E-03	3.947836E-05
4.693190E+03	3.791914E-03	3.880560E-05
4.696221E+03	3.737039E-03	3.817383E-05
4.699253E+03	3.688402E-03	3.760820E-05
4.702283E+03	3.635749E-03	3.700400E-05
4.705314E+03	3.583086E-03	3.640212E-05
4.708345E+03	3.538603E-03	3.588559E-05
4.711376E+03	3.501874E-03	3.544965E-05
4.714407E+03	3.461887E-03	3.498257E-05
4.717438E+03	3.422232E-03	3.452075E-05
4.720468E+03	3.379318E-03	3.402799E-05
4.723500E+03	3.337243E-03	3.354562E-05
4.726530E+03	3.290855E-03	3.302191E-05
4.729562E+03	3.249356E-03	3.254922E-05
4.732593E+03	3.207260E-03	3.207245E-05
4.735623E+03	3.165030E-03	3.159623E-05
4.738655E+03	3.129500E-03	3.118863E-05
4.741685E+03	3.094553E-03	3.078849E-05
4.744717E+03	3.059516E-03	3.038902E-05
4.747747E+03	3.021651E-03	2.996311E-05
4.750778E+03	2.969152E-03	2.939400E-05
4.753809E+03	2.914293E-03	2.880367E-05
4.756840E+03	2.847259E-03	2.809541E-05
4.759871E+03	2.767082E-03	2.726019E-05
4.762902E+03	2.682699E-03	2.638656E-05
4.765934E+03	2.591717E-03	2.545114E-05
4.768964E+03	2.495568E-03	2.446828E-05
4.771995E+03	2.401289E-03	2.350705E-05
4.775026E+03	2.303658E-03	2.251627E-05
4.778057E+03	2.206426E-03	2.153269E-05
4.781088E+03	2.109426E-03	2.055459E-05
4.784119E+03	2.015982E-03	1.961428E-05
4.787149E+03	1.932826E-03	1.877697E-05
4.790181E+03	1.871646E-03	1.815553E-05
4.793211E+03	1.840465E-03	1.782669E-05
4.796243E+03	1.830814E-03	1.770725E-05
4.799274E+03	1.853274E-03	1.789848E-05
4.802304E+03	1.907321E-03	1.839398E-05
4.805336E+03	2.002978E-03	1.928898E-05
4.808366E+03	2.126899E-03	2.045347E-05
4.811398E+03	2.283976E-03	2.193333E-05
4.814428E+03	2.463859E-03	2.362805E-05
4.817459E+03	2.652290E-03	2.540026E-05
4.820490E+03	2.849136E-03	2.724843E-05
4.823521E+03	3.036134E-03	2.899790E-05
4.826552E+03	3.206660E-03	3.058594E-05
4.829583E+03	3.361562E-03	3.202138E-05
4.832614E+03	3.503781E-03	3.333279E-05
4.835645E+03	3.621130E-03	3.440498E-05
4.838676E+03	3.717524E-03	3.527603E-05
4.841707E+03	3.791759E-03	3.593534E-05
4.844738E+03	3.843354E-03	3.637921E-05
4.847769E+03	3.875423E-03	3.663785E-05
4.850800E+03	3.887440E-03	3.670704E-05
4.853830E+03	3.881305E-03	3.660537E-05
4.856862E+03	3.861051E-03	3.637143E-05
4.859892E+03	3.825687E-03	3.599638E-05
4.862924E+03	3.782964E-03	3.555351E-05
4.865954E+03	3.734516E-03	3.505841E-05
4.868985E+03	3.685994E-03	3.456421E-05
4.872017E+03	3.642325E-03	3.411702E-05
4.875047E+03	3.608139E-03	3.376002E-05
4.878079E+03	3.588392E-03	3.353920E-05
4.881109E+03	3.592710E-03	3.354399E-05
4.884140E+03	3.624105E-03	3.380178E-05
4.887171E+03	3.684883E-03	3.433326E-05
4.890202E+03	3.773555E-03	3.512376E-05
4.893233E+03	3.885748E-03	3.613185E-05
4.896264E+03	4.016483E-03	3.731067E-05
4.899295E+03	4.165358E-03	3.865602E-05
4.902326E+03	4.322159E-03	4.007279E-05
4.905357E+03	4.480881E-03	4.150522E-05
4.908388E+03	4.624893E-03	4.279937E-05
4.911419E+03	4.748813E-03	4.390595E-05
4.914450E+03	4.850167E-03	4.480264E-05
4.917481E+03	4.929402E-03	4.549422E-05
4.920511E+03	4.962890E-03	4.576333E-05
4.923543E+03	4.952770E-03	4.563079E-05
4.926573E+03	4.901586E-03	4.512109E-05
4.929605E+03	4.799036E-03	4.414036E-05
4.932635E+03	4.653477E-03	4.276658E-05
4.935666E+03	4.476563E-03	4.110764E-05
4.938697E+03	4.273310E-03	3.921020E-05
4.941728E+03	4.046033E-03	3.709597E-05
4.944760E+03	3.820690E-03	3.500319E-05
4.947790E+03	3.593608E-03	3.289811E-05
4.950821E+03	3.378046E-03	3.090195E-05
4.953852E+03	3.188647E-03	2.914826E-05
4.956883E+03	3.033501E-03	2.771034E-05
4.959914E+03	2.909960E-03	2.656329E-05
4.962945E+03	2.818348E-03	2.570943E-05
4.965976E+03	2.765125E-03	2.520699E-05
4.969007E+03	2.749657E-03	2.504949E-05
4.972037E+03	2.767973E-03	2.520006E-05
4.975069E+03	2.811873E-03	2.558354E-05
4.978100E+03	2.890488E-03	2.628249E-05
4.981131E+03	2.992374E-03	2.719238E-05
4.984162E+03	3.121228E-03	2.834642E-05
4.987192E+03	3.275286E-03	2.972820E-05
4.990224E+03	3.441329E-03	3.121747E-05
4.993254E+03	3.615325E-03	3.277753E-05
4.996286E+03	3.788489E-03	3.432871E-05
4.999316E+03	3.960248E-03	3.586590E-05
5.002347E+03	4.123971E-03	3.732913E-05
5.005378E+03	4.267527E-03	3.860883E-05
5.008409E+03	4.400267E-03	3.978988E-05
5.011441E+03	4.512814E-03	4.078772E-05
5.014471E+03	4.601530E-03	4.156976E-05
5.017502E+03	4.661562E-03	4.209254E-05
5.020533E+03	4.692958E-03	4.235685E-05
5.023564E+03	4.693738E-03	4.234519E-05
5.026595E+03	4.664364E-03	4.206208E-05
5.029626E+03	4.611809E-03	4.157073E-05
5.032657E+03	4.545470E-03	4.095604E-05
5.035688E+03	4.469036E-03	4.025136E-05
5.038718E+03	4.382525E-03	3.945695E-05
5.041750E+03	4.300976E-03	3.870821E-05
5.044781E+03	4.228030E-03	3.803784E-05
5.047812E+03	4.160025E-03	3.741278E-05
