#wls	flux	fluxerr
1.594499E+03	7.635808E-05	1.527633E-06
1.634361E+03	7.716107E-05	1.537950E-06
1.674224E+03	7.807738E-05	1.550265E-06
1.714086E+03	7.900688E-05	1.562567E-06
1.753949E+03	8.005248E-05	1.576871E-06
1.793811E+03	8.114790E-05	1.591842E-06
1.833674E+03	8.232870E-05	1.608154E-06
1.873536E+03	8.359674E-05	1.625813E-06
1.913399E+03	8.495398E-05	1.644825E-06
1.953261E+03	8.640259E-05	1.665199E-06
1.993124E+03	8.797946E-05	1.687606E-06
2.032986E+03	8.965274E-05	1.711394E-06
2.072849E+03	9.146004E-05	1.737236E-06
2.112711E+03	9.340467E-05	1.765144E-06
2.152574E+03	9.549019E-05	1.795130E-06
2.192436E+03	9.772055E-05	1.827211E-06
2.232299E+03	1.001353E-04	1.862062E-06
2.272161E+03	1.027039E-04	1.899042E-06
2.312024E+03	1.055026E-04	1.939489E-06
2.351886E+03	1.085018E-04	1.982764E-06
2.391748E+03	1.117076E-04	2.028889E-06
2.431611E+03	1.151264E-04	2.077888E-06
2.471473E+03	1.188017E-04	2.130444E-06
2.511336E+03	1.227046E-04	2.185921E-06
2.551198E+03	1.268797E-04	2.245003E-06
2.591061E+03	1.312982E-04	2.307051E-06
2.630923E+03	1.360060E-04	2.372742E-06
2.670786E+03	1.410123E-04	2.442091E-06
2.710648E+03	1.462878E-04	2.514445E-06
2.750511E+03	1.519570E-04	2.591781E-06
2.790373E+03	1.579140E-04	2.672106E-06
2.830236E+03	1.642847E-04	2.757374E-06
2.870098E+03	1.710398E-04	2.846879E-06
2.909961E+03	1.782282E-04	2.941215E-06
2.949823E+03	1.858179E-04	3.039622E-06
2.989686E+03	1.939379E-04	3.143959E-06
2.999651E+03	1.960247E-04	3.170515E-06
3.009617E+03	1.982043E-04	3.198384E-06
3.019582E+03	2.003535E-04	3.225569E-06
3.029548E+03	2.025545E-04	3.253394E-06
3.039514E+03	2.048075E-04	3.281857E-06
3.049479E+03	2.070712E-04	3.310289E-06
3.059445E+03	2.093871E-04	3.339350E-06
3.069411E+03	2.117553E-04	3.369036E-06
3.079376E+03	2.141343E-04	3.398677E-06
3.089342E+03	2.165656E-04	3.428934E-06
3.099307E+03	2.190496E-04	3.459801E-06
3.109273E+03	2.215440E-04	3.490608E-06
3.119239E+03	2.240910E-04	3.522013E-06
3.129204E+03	2.266907E-04	3.554011E-06
3.139170E+03	2.293005E-04	3.585930E-06
3.149135E+03	2.320055E-04	3.619094E-06
3.159101E+03	2.347204E-04	3.652164E-06
3.169067E+03	2.375307E-04	3.686465E-06
3.179032E+03	2.403508E-04	3.720657E-06
3.188998E+03	2.432231E-04	3.755394E-06
3.198964E+03	2.461479E-04	3.790674E-06
3.208929E+03	2.491682E-04	3.827147E-06
3.218895E+03	2.521974E-04	3.863477E-06
3.228860E+03	2.553219E-04	3.900979E-06
3.238826E+03	2.584983E-04	3.938981E-06
3.248792E+03	2.617264E-04	3.977471E-06
3.258757E+03	2.650057E-04	4.016434E-06
3.268723E+03	2.683801E-04	4.056526E-06
3.278689E+03	2.718055E-04	4.097068E-06
3.288654E+03	2.753255E-04	4.138709E-06
3.298620E+03	2.788956E-04	4.180770E-06
3.308585E+03	2.825598E-04	4.223899E-06
3.318551E+03	2.862735E-04	4.267418E-06
3.328517E+03	2.901251E-04	4.312633E-06
3.338482E+03	2.939806E-04	4.357541E-06
3.348448E+03	2.979732E-04	4.404107E-06
3.358413E+03	3.020581E-04	4.451654E-06
3.368379E+03	3.062346E-04	4.500155E-06
3.378345E+03	3.105020E-04	4.549588E-06
3.388310E+03	3.148599E-04	4.599934E-06
3.398276E+03	3.193072E-04	4.651165E-06
3.408242E+03	3.238435E-04	4.703261E-06
3.418207E+03	3.285128E-04	4.756846E-06
3.428173E+03	3.333148E-04	4.811896E-06
3.438138E+03	3.381575E-04	4.867068E-06
3.448104E+03	3.431758E-04	4.924293E-06
3.458070E+03	3.482782E-04	4.982234E-06
3.468035E+03	3.535546E-04	5.042162E-06
3.478001E+03	3.589123E-04	5.102735E-06
3.487967E+03	3.643957E-04	5.164567E-06
3.497932E+03	3.700032E-04	5.227620E-06
3.507898E+03	3.757788E-04	5.292495E-06
3.517863E+03	3.816298E-04	5.357864E-06
3.527829E+03	3.876915E-04	5.425610E-06
3.537795E+03	3.938705E-04	5.494402E-06
3.547760E+03	4.001643E-04	5.564184E-06
3.557726E+03	4.066171E-04	5.635553E-06
3.567691E+03	4.132722E-04	5.709083E-06
3.577657E+03	4.200353E-04	5.783447E-06
3.587623E+03	4.269497E-04	5.859222E-06
3.597588E+03	4.340586E-04	5.936978E-06
3.607554E+03	4.413126E-04	6.016011E-06
3.617520E+03	4.487090E-04	6.096263E-06
3.627485E+03	4.562898E-04	6.178283E-06
3.637451E+03	4.640518E-04	6.261998E-06
3.647416E+03	4.719448E-04	6.346706E-06
3.657382E+03	4.800107E-04	6.432950E-06
3.667348E+03	4.882914E-04	6.521264E-06
3.677313E+03	4.967358E-04	6.610936E-06
3.687279E+03	5.053389E-04	6.701873E-06
3.697245E+03	5.140959E-04	6.793989E-06
3.707210E+03	5.230925E-04	6.888391E-06
3.717176E+03	5.322312E-04	6.983760E-06
3.727141E+03	5.415517E-04	7.080598E-06
3.737107E+03	5.510011E-04	7.178186E-06
3.747073E+03	5.607100E-04	7.278199E-06
3.757038E+03	5.705332E-04	7.378723E-06
3.767004E+03	5.805544E-04	7.480818E-06
3.776969E+03	5.907196E-04	7.583760E-06
3.786935E+03	6.011106E-04	7.688575E-06
3.796901E+03	6.116270E-04	7.793950E-06
3.806866E+03	6.223042E-04	7.900314E-06
3.816832E+03	6.331765E-04	8.008079E-06
3.826798E+03	6.441874E-04	8.116501E-06
3.836763E+03	6.553248E-04	8.225411E-06
3.846729E+03	6.666211E-04	8.335192E-06
3.856694E+03	6.780623E-04	8.445649E-06
3.866660E+03	6.896343E-04	8.556585E-06
3.876626E+03	7.013218E-04	8.667790E-06
3.886591E+03	7.131089E-04	8.779053E-06
3.896557E+03	7.250231E-04	8.890697E-06
3.902112E+03	2.267658E-04	2.774635E-06
3.905142E+03	2.485966E-04	3.038092E-06
3.908173E+03	2.740128E-04	3.344669E-06
3.911204E+03	2.974419E-04	3.626270E-06
3.914235E+03	3.209782E-04	3.908487E-06
3.917266E+03	3.526861E-04	4.289390E-06
3.920297E+03	3.914744E-04	4.755368E-06
3.923328E+03	4.308578E-04	5.227420E-06
3.926359E+03	4.763928E-04	5.772852E-06
3.929390E+03	5.144507E-04	6.226445E-06
3.932421E+03	5.576970E-04	6.741630E-06
3.935452E+03	6.036290E-04	7.287964E-06
3.938482E+03	6.431432E-04	7.755550E-06
3.941514E+03	6.968099E-04	8.392416E-06
3.944544E+03	7.381570E-04	8.879504E-06
3.947576E+03	7.731031E-04	9.288458E-06
3.950606E+03	8.003524E-04	9.604021E-06
3.953638E+03	8.345326E-04	1.000184E-05
3.956668E+03	8.516273E-04	1.019413E-05
3.959699E+03	8.737747E-04	1.044632E-05
3.962731E+03	9.015588E-04	1.076516E-05
3.965761E+03	9.174975E-04	1.094191E-05
3.968793E+03	9.287110E-04	1.106190E-05
3.971823E+03	9.422577E-04	1.120931E-05
3.974854E+03	9.582032E-04	1.138482E-05
3.977885E+03	9.716247E-04	1.152991E-05
3.980916E+03	9.783758E-04	1.159554E-05
3.983947E+03	9.746327E-04	1.153674E-05
3.986978E+03	9.763314E-04	1.154239E-05
3.990008E+03	9.697361E-04	1.145006E-05
3.993040E+03	9.493370E-04	1.119514E-05
3.996071E+03	9.243980E-04	1.088735E-05
3.999102E+03	8.987421E-04	1.057186E-05
4.002133E+03	8.663407E-04	1.017789E-05
4.005163E+03	8.264795E-04	9.697350E-06
4.008195E+03	7.741653E-04	9.072055E-06
4.011225E+03	7.356517E-04	8.609830E-06
4.014257E+03	7.108123E-04	8.308580E-06
4.017287E+03	6.923239E-04	8.082210E-06
4.020319E+03	6.839483E-04	7.974290E-06
4.023349E+03	6.798518E-04	7.916450E-06
4.026380E+03	6.793215E-04	7.900205E-06
4.029412E+03	7.041524E-04	8.178533E-06
4.032442E+03	7.247707E-04	8.407263E-06
4.035474E+03	7.601833E-04	8.806771E-06
4.038504E+03	8.046841E-04	9.310384E-06
4.041536E+03	8.606762E-04	9.945459E-06
4.044566E+03	9.257612E-04	1.068382E-05
4.047597E+03	9.802784E-04	1.129844E-05
4.050628E+03	1.051028E-03	1.209830E-05
4.053659E+03	1.121984E-03	1.289842E-05
4.056690E+03	1.193989E-03	1.370849E-05
4.059721E+03	1.262564E-03	1.447710E-05
4.062752E+03	1.322970E-03	1.515012E-05
4.065783E+03	1.387929E-03	1.587343E-05
4.068814E+03	1.445951E-03	1.651557E-05
4.071845E+03	1.500604E-03	1.711757E-05
4.074876E+03	1.550526E-03	1.766405E-05
4.077906E+03	1.598766E-03	1.818991E-05
4.080938E+03	1.639154E-03	1.862513E-05
4.083968E+03	1.666103E-03	1.890665E-05
4.087000E+03	1.686170E-03	1.910937E-05
4.090030E+03	1.687595E-03	1.910053E-05
4.093061E+03	1.666737E-03	1.883976E-05
4.096092E+03	1.631451E-03	1.841674E-05
4.099123E+03	1.589207E-03	1.791633E-05
4.102155E+03	1.534480E-03	1.727662E-05
4.105185E+03	1.484424E-03	1.669106E-05
4.108217E+03	1.426951E-03	1.602370E-05
4.111247E+03	1.365115E-03	1.530911E-05
4.114278E+03	1.313019E-03	1.470545E-05
4.117309E+03	1.270081E-03	1.420577E-05
4.120340E+03	1.236173E-03	1.380822E-05
4.123370E+03	1.198099E-03	1.336521E-05
4.126402E+03	1.157939E-03	1.290008E-05
4.129432E+03	1.122779E-03	1.249179E-05
4.132464E+03	1.104196E-03	1.226872E-05
4.135495E+03	1.084635E-03	1.203535E-05
4.138526E+03	1.068323E-03	1.183856E-05
4.141557E+03	1.055066E-03	1.167607E-05
4.144587E+03	1.038489E-03	1.147728E-05
4.147619E+03	1.010590E-03	1.115403E-05
4.150649E+03	9.758556E-04	1.075627E-05
4.153681E+03	9.430685E-04	1.038096E-05
4.156711E+03	9.249812E-04	1.016822E-05
4.159742E+03	8.923805E-04	9.796691E-06
4.162773E+03	8.546341E-04	9.369708E-06
4.165804E+03	8.202012E-04	8.980124E-06
4.168836E+03	7.806217E-04	8.535282E-06
4.171866E+03	7.407762E-04	8.088709E-06
4.174898E+03	7.130974E-04	7.775982E-06
4.177928E+03	6.849592E-04	7.459074E-06
4.180959E+03	6.700977E-04	7.287383E-06
4.183990E+03	6.668229E-04	7.241965E-06
4.187021E+03	6.714912E-04	7.282802E-06
4.190052E+03	6.820853E-04	7.387683E-06
4.193083E+03	7.014069E-04	7.586661E-06
4.196113E+03	7.352536E-04	7.941971E-06
4.199145E+03	7.806976E-04	8.421390E-06
4.202175E+03	8.304464E-04	8.945859E-06
4.205207E+03	8.779215E-04	9.444412E-06
4.208238E+03	9.226020E-04	9.911561E-06
4.211268E+03	9.771902E-04	1.048370E-05
4.214300E+03	1.030287E-03	1.103827E-05
4.217330E+03	1.081044E-03	1.156627E-05
4.220362E+03	1.127769E-03	1.204970E-05
4.223392E+03	1.167722E-03	1.245953E-05
4.226424E+03	1.202011E-03	1.280783E-05
4.229454E+03	1.227896E-03	1.306574E-05
4.232485E+03	1.240163E-03	1.317819E-05
4.235516E+03	1.237505E-03	1.313191E-05
4.238547E+03	1.218224E-03	1.290957E-05
4.241579E+03	1.191314E-03	1.260705E-05
4.244609E+03	1.154164E-03	1.219713E-05
4.247640E+03	1.111729E-03	1.173252E-05
4.250671E+03	1.065702E-03	1.123130E-05
4.253702E+03	1.012627E-03	1.065725E-05
4.256733E+03	9.603272E-04	1.009290E-05
4.259764E+03	9.031954E-04	9.479357E-06
4.262794E+03	8.470342E-04	8.877657E-06
4.265826E+03	7.894963E-04	8.263179E-06
4.268856E+03	7.337124E-04	7.668711E-06
4.271888E+03	6.846398E-04	7.145910E-06
4.274919E+03	6.441066E-04	6.713543E-06
4.277949E+03	6.168049E-04	6.420077E-06
4.280981E+03	6.057380E-04	6.296148E-06
4.284011E+03	6.109024E-04	6.341028E-06
4.287043E+03	6.245691E-04	6.473890E-06
4.290073E+03	6.443252E-04	6.669402E-06
4.293105E+03	6.761818E-04	6.989428E-06
4.296135E+03	7.130280E-04	7.360054E-06
4.299166E+03	7.656068E-04	7.891803E-06
4.302197E+03	8.154503E-04	8.393891E-06
4.305228E+03	8.551822E-04	8.790628E-06
4.308260E+03	8.921769E-04	9.158135E-06
4.311290E+03	9.236922E-04	9.468433E-06
4.314321E+03	9.490742E-04	9.715061E-06
4.317352E+03	9.683872E-04	9.898933E-06
4.320383E+03	9.766682E-04	9.969661E-06
4.323414E+03	9.782899E-04	9.972279E-06
4.326445E+03	9.693334E-04	9.867190E-06
4.329475E+03	9.495358E-04	9.652169E-06
4.332507E+03	9.307150E-04	9.447635E-06
4.335537E+03	9.145697E-04	9.270775E-06
4.338569E+03	8.943730E-04	9.053371E-06
4.341599E+03	8.729329E-04	8.823987E-06
4.344630E+03	8.614184E-04	8.695416E-06
4.347662E+03	8.470285E-04	8.538195E-06
4.350692E+03	8.379933E-04	8.435299E-06
4.353724E+03	8.337258E-04	8.380591E-06
4.356754E+03	8.312217E-04	8.343721E-06
4.359786E+03	8.355773E-04	8.375694E-06
4.362816E+03	8.431346E-04	8.439609E-06
4.365847E+03	8.535676E-04	8.532071E-06
4.368878E+03	8.738031E-04	8.722099E-06
4.371909E+03	9.006408E-04	8.977387E-06
4.374940E+03	9.323170E-04	9.280098E-06
4.377971E+03	9.565455E-04	9.507916E-06
4.381002E+03	9.773122E-04	9.700714E-06
4.384033E+03	9.889298E-04	9.802261E-06
4.387064E+03	9.936848E-04	9.835581E-06
4.390095E+03	9.919031E-04	9.804172E-06
4.393126E+03	9.963312E-04	9.834129E-06
4.396156E+03	1.003636E-03	9.892336E-06
4.399188E+03	1.017479E-03	1.001471E-05
4.402218E+03	1.030669E-03	1.013031E-05
4.405250E+03	1.039675E-03	1.020449E-05
4.408280E+03	1.053259E-03	1.032332E-05
4.411311E+03	1.067106E-03	1.044437E-05
4.414343E+03	1.083634E-03	1.059126E-05
4.417373E+03	1.098986E-03	1.072625E-05
4.420405E+03	1.112116E-03	1.083918E-05
4.423435E+03	1.127863E-03	1.097724E-05
4.426467E+03	1.146554E-03	1.114351E-05
4.429497E+03	1.164592E-03	1.130297E-05
4.432528E+03	1.185837E-03	1.149303E-05
4.435559E+03	1.207737E-03	1.168888E-05
4.438590E+03	1.229573E-03	1.188355E-05
4.441621E+03	1.255139E-03	1.211366E-05
4.444652E+03	1.285025E-03	1.238474E-05
4.447682E+03	1.304184E-03	1.255179E-05
4.450714E+03	1.325044E-03	1.273471E-05
4.453745E+03	1.341064E-03	1.287066E-05
4.456776E+03	1.352963E-03	1.296669E-05
4.459807E+03	1.364535E-03	1.305932E-05
4.462837E+03	1.369956E-03	1.309289E-05
4.465869E+03	1.364841E-03	1.302578E-05
4.468899E+03	1.353573E-03	1.290022E-05
4.471931E+03	1.331243E-03	1.266970E-05
4.474961E+03	1.295429E-03	1.231166E-05
4.477992E+03	1.259481E-03	1.195333E-05
4.481023E+03	1.215936E-03	1.152398E-05
4.484054E+03	1.162046E-03	1.099791E-05
4.487086E+03	1.108282E-03	1.047447E-05
4.490116E+03	1.059162E-03	9.996315E-06
4.493148E+03	1.006698E-03	9.487962E-06
4.496178E+03	9.605814E-04	9.040744E-06
4.499209E+03	9.200908E-04	8.647640E-06
4.502240E+03	8.787459E-04	8.247595E-06
4.505271E+03	8.434866E-04	7.905693E-06
4.508302E+03	8.077662E-04	7.560411E-06
4.511333E+03	7.645133E-04	7.145678E-06
4.514363E+03	7.329777E-04	6.841452E-06
4.517395E+03	6.938441E-04	6.467238E-06
4.520426E+03	6.668874E-04	6.207399E-06
4.523457E+03	6.471324E-04	6.015209E-06
4.526488E+03	6.460463E-04	5.996840E-06
4.529518E+03	6.638734E-04	6.153835E-06
4.532550E+03	7.175321E-04	6.642080E-06
4.535580E+03	8.082635E-04	7.471687E-06
4.538612E+03	9.329926E-04	8.612857E-06
4.541642E+03	1.080719E-03	9.962901E-06
4.544673E+03	1.241749E-03	1.143173E-05
4.547704E+03	1.410911E-03	1.297128E-05
4.550735E+03	1.575563E-03	1.446522E-05
4.553767E+03	1.733082E-03	1.588968E-05
4.556797E+03	1.876264E-03	1.717898E-05
4.559829E+03	2.009037E-03	1.836958E-05
4.562859E+03	2.128582E-03	1.943617E-05
4.565890E+03	2.243875E-03	2.046108E-05
4.568921E+03	2.358387E-03	2.147609E-05
4.571952E+03	2.470545E-03	2.246694E-05
4.574983E+03	2.581002E-03	2.343966E-05
4.578014E+03	2.685569E-03	2.435633E-05
4.581045E+03	2.783061E-03	2.520644E-05
4.584076E+03	2.869157E-03	2.595119E-05
4.587106E+03	2.942741E-03	2.658092E-05
4.590138E+03	2.992013E-03	2.698964E-05
4.593169E+03	3.016649E-03	2.717534E-05
4.596199E+03	3.018413E-03	2.715479E-05
4.599231E+03	2.987804E-03	2.684342E-05
4.602261E+03	2.942446E-03	2.640059E-05
4.605293E+03	2.892429E-03	2.591717E-05
4.608323E+03	2.836774E-03	2.538462E-05
4.611355E+03	2.782817E-03	2.486865E-05
4.614385E+03	2.743599E-03	2.448561E-05
4.617416E+03	2.712046E-03	2.417191E-05
4.620447E+03	2.686978E-03	2.391676E-05
4.623478E+03	2.682940E-03	2.384925E-05
4.626510E+03	2.686699E-03	2.385113E-05
4.629540E+03	2.701135E-03	2.394770E-05
4.632571E+03	2.735034E-03	2.421635E-05
4.635602E+03	2.788654E-03	2.465868E-05
4.638633E+03	2.866324E-03	2.531226E-05
4.641664E+03	2.971120E-03	2.620337E-05
4.644695E+03	3.084564E-03	2.716834E-05
4.647726E+03	3.194067E-03	2.809614E-05
4.650757E+03	3.288623E-03	2.889025E-05
4.653787E+03	3.355317E-03	2.943787E-05
4.656819E+03	3.396378E-03	2.975949E-05
4.659850E+03	3.417574E-03	2.990647E-05
4.662880E+03	3.413859E-03	2.983538E-05
4.665912E+03	3.411381E-03	2.977530E-05
4.668942E+03	3.406341E-03	2.969308E-05
4.671974E+03	3.407846E-03	2.966806E-05
4.675004E+03	3.416354E-03	2.970405E-05
4.678036E+03	3.434881E-03	2.982695E-05
4.681066E+03	3.456673E-03	2.997791E-05
4.684097E+03	3.481667E-03	3.015625E-05
4.687128E+03	3.505534E-03	3.032441E-05
4.690159E+03	3.528084E-03	3.048081E-05
4.693190E+03	3.528605E-03	3.044677E-05
4.696221E+03	3.504549E-03	3.020106E-05
4.699253E+03	3.461684E-03	2.979412E-05
4.702283E+03	3.400470E-03	2.923053E-05
4.705314E+03	3.338923E-03	2.866552E-05
4.708345E+03	3.279470E-03	2.811992E-05
4.711376E+03	3.229181E-03	2.765421E-05
4.714407E+03	3.198996E-03	2.736165E-05
4.717438E+03	3.179612E-03	2.716213E-05
4.720468E+03	3.162837E-03	2.698542E-05
4.723500E+03	3.145007E-03	2.680017E-05
4.726530E+03	3.139742E-03	2.672239E-05
4.729562E+03	3.135316E-03	2.665197E-05
4.732593E+03	3.123616E-03	2.652002E-05
4.735623E+03	3.099727E-03	2.628508E-05
4.738655E+03	3.066538E-03	2.597198E-05
4.741685E+03	3.015214E-03	2.550629E-05
4.744717E+03	2.944124E-03	2.487477E-05
4.747747E+03	2.865836E-03	2.418410E-05
4.750778E+03	2.784087E-03	2.346597E-05
4.753809E+03	2.712548E-03	2.283555E-05
4.756840E+03	2.656584E-03	2.233767E-05
4.759871E+03	2.622468E-03	2.202450E-05
4.762902E+03	2.605225E-03	2.185367E-05
4.765934E+03	2.608246E-03	2.185307E-05
4.768964E+03	2.622701E-03	2.194821E-05
4.771995E+03	2.638119E-03	2.205124E-05
4.775026E+03	2.654764E-03	2.216431E-05
4.778057E+03	2.674925E-03	2.230649E-05
4.781088E+03	2.696830E-03	2.246292E-05
4.784119E+03	2.731003E-03	2.272112E-05
4.787149E+03	2.766066E-03	2.298617E-05
4.790181E+03	2.786084E-03	2.312579E-05
4.793211E+03	2.795304E-03	2.317562E-05
4.796243E+03	2.790403E-03	2.310845E-05
4.799274E+03	2.774392E-03	2.294961E-05
4.802304E+03	2.745184E-03	2.268215E-05
4.805336E+03	2.709253E-03	2.235987E-05
4.808366E+03	2.672276E-03	2.202978E-05
4.811398E+03	2.638823E-03	2.172950E-05
4.814428E+03	2.610978E-03	2.147610E-05
4.817459E+03	2.596305E-03	2.133155E-05
4.820490E+03	2.589123E-03	2.124887E-05
4.823521E+03	2.589493E-03	2.122834E-05
4.826552E+03	2.604644E-03	2.132897E-05
4.829583E+03	2.629612E-03	2.150975E-05
4.832614E+03	2.659766E-03	2.173258E-05
4.835645E+03	2.683185E-03	2.190002E-05
4.838676E+03	2.686911E-03	2.190661E-05
4.841707E+03	2.689124E-03	2.190095E-05
4.844738E+03	2.675700E-03	2.176815E-05
4.847769E+03	2.643394E-03	2.148227E-05
4.850800E+03	2.600099E-03	2.110787E-05
4.853830E+03	2.533918E-03	2.054875E-05
4.856862E+03	2.454559E-03	1.988413E-05
4.859892E+03	2.367753E-03	1.916074E-05
4.862924E+03	2.273705E-03	1.838038E-05
4.865954E+03	2.189246E-03	1.767916E-05
4.868985E+03	2.119434E-03	1.709764E-05
4.872017E+03	2.063349E-03	1.662799E-05
4.875047E+03	2.025068E-03	1.630272E-05
4.878079E+03	2.005613E-03	1.612959E-05
4.881109E+03	1.998676E-03	1.605744E-05
4.884140E+03	2.011182E-03	1.614155E-05
4.887171E+03	2.039416E-03	1.635166E-05
4.890202E+03	2.074616E-03	1.661722E-05
4.893233E+03	2.126553E-03	1.701624E-05
4.896264E+03	2.201878E-03	1.760151E-05
4.899295E+03	2.313510E-03	1.847564E-05
4.902326E+03	2.456941E-03	1.960184E-05
4.905357E+03	2.640478E-03	2.104558E-05
4.908388E+03	2.865042E-03	2.281329E-05
4.911419E+03	3.114744E-03	2.477766E-05
4.914450E+03	3.377987E-03	2.684598E-05
4.917481E+03	3.650746E-03	2.898603E-05
4.920511E+03	3.911764E-03	3.102901E-05
4.923543E+03	4.160339E-03	3.296967E-05
4.926573E+03	4.385392E-03	3.472061E-05
4.929605E+03	4.577079E-03	3.620450E-05
4.932635E+03	4.719980E-03	3.730028E-05
4.935666E+03	4.812994E-03	3.800033E-05
4.938697E+03	4.858763E-03	3.832658E-05
4.941728E+03	4.841710E-03	3.815734E-05
4.944760E+03	4.760320E-03	3.748198E-05
4.947790E+03	4.602917E-03	3.621006E-05
4.950821E+03	4.393391E-03	3.453090E-05
4.953852E+03	4.129639E-03	3.242906E-05
4.956883E+03	3.832543E-03	3.006949E-05
4.959914E+03	3.525004E-03	2.763233E-05
4.962945E+03	3.216920E-03	2.519530E-05
4.965976E+03	2.909066E-03	2.276441E-05
4.969007E+03	2.631109E-03	2.057159E-05
4.972037E+03	2.388772E-03	1.866088E-05
4.975069E+03	2.197936E-03	1.715549E-05
4.978100E+03	2.072339E-03	1.616151E-05
4.981131E+03	2.008232E-03	1.564842E-05
4.984162E+03	2.016441E-03	1.569928E-05
4.987192E+03	2.087075E-03	1.623575E-05
4.990224E+03	2.210710E-03	1.718337E-05
4.993254E+03	2.375709E-03	1.845077E-05
4.996286E+03	2.567528E-03	1.992432E-05
4.999316E+03	2.775797E-03	2.152312E-05
5.002347E+03	2.997173E-03	2.322100E-05
5.005378E+03	3.225137E-03	2.496728E-05
5.008409E+03	3.459420E-03	2.675978E-05
5.011441E+03	3.693394E-03	2.854718E-05
5.014471E+03	3.905021E-03	3.015934E-05
5.017502E+03	4.089132E-03	3.155678E-05
5.020533E+03	4.251991E-03	3.278832E-05
5.023564E+03	4.384886E-03	3.378725E-05
5.026595E+03	4.480085E-03	3.449455E-05
5.029626E+03	4.550694E-03	3.501177E-05
5.032657E+03	4.591070E-03	3.529594E-05
5.035688E+03	4.589067E-03	3.525428E-05
5.038718E+03	4.550520E-03	3.493232E-05
5.041750E+03	4.472720E-03	3.430989E-05
5.044781E+03	4.363451E-03	3.344730E-05
5.047812E+03	4.222772E-03	3.234553E-05
5.050843E+03	4.066384E-03	3.112525E-05
5.053874E+03	3.910879E-03	2.991362E-05
5.056905E+03	3.756134E-03	2.870966E-05
5.059935E+03	3.615668E-03	2.761659E-05
5.062967E+03	3.492033E-03	2.665365E-05
5.065997E+03	3.379670E-03	2.577814E-05
