#wls	flux	fluxerr
1.594499E+03	8.535583E-05	3.911377E-06
1.634361E+03	8.737819E-05	3.989656E-06
1.674224E+03	8.951065E-05	4.071910E-06
1.714086E+03	9.169940E-05	4.155610E-06
1.753949E+03	9.397276E-05	4.241971E-06
1.793811E+03	9.635967E-05	4.332210E-06
1.833674E+03	9.880486E-05	4.423752E-06
1.873536E+03	1.013368E-04	4.517795E-06
1.913399E+03	1.039848E-04	4.615541E-06
1.953261E+03	1.067206E-04	4.715636E-06
1.993124E+03	1.095444E-04	4.817981E-06
2.032986E+03	1.124559E-04	4.922465E-06
2.072849E+03	1.154547E-04	5.028959E-06
2.112711E+03	1.185399E-04	5.137320E-06
2.152574E+03	1.217105E-04	5.247383E-06
2.192436E+03	1.249950E-04	5.360256E-06
2.232299E+03	1.283617E-04	5.474448E-06
2.272161E+03	1.317777E-04	5.588442E-06
2.312024E+03	1.353008E-04	5.704571E-06
2.351886E+03	1.388970E-04	5.821268E-06
2.391748E+03	1.425622E-04	5.938231E-06
2.431611E+03	1.462603E-04	6.053845E-06
2.471473E+03	1.500478E-04	6.170328E-06
2.511336E+03	1.538558E-04	6.284720E-06
2.551198E+03	1.577082E-04	6.397892E-06
2.591061E+03	1.615650E-04	6.508123E-06
2.630923E+03	1.654804E-04	6.617494E-06
2.670786E+03	1.693489E-04	6.721680E-06
2.710648E+03	1.732227E-04	6.822704E-06
2.750511E+03	1.770576E-04	6.918750E-06
2.790373E+03	1.808402E-04	7.009256E-06
2.830236E+03	1.845562E-04	7.093639E-06
2.870098E+03	1.881902E-04	7.171301E-06
2.909961E+03	1.917582E-04	7.242854E-06
2.949823E+03	1.951788E-04	7.305236E-06
2.989686E+03	1.985306E-04	7.361447E-06
2.999651E+03	1.993485E-04	7.374195E-06
3.009617E+03	2.001547E-04	7.386281E-06
3.019582E+03	2.009808E-04	7.398879E-06
3.029548E+03	2.017946E-04	7.410793E-06
3.039514E+03	2.025955E-04	7.422012E-06
3.049479E+03	2.033834E-04	7.432528E-06
3.059445E+03	2.041900E-04	7.443499E-06
3.069411E+03	2.049828E-04	7.453742E-06
3.079376E+03	2.057935E-04	7.464406E-06
3.089342E+03	2.065899E-04	7.474317E-06
3.099307E+03	2.073715E-04	7.483468E-06
3.109273E+03	2.082016E-04	7.494137E-06
3.119239E+03	2.089845E-04	7.502872E-06
3.129204E+03	2.097833E-04	7.511948E-06
3.139170E+03	2.105977E-04	7.521342E-06
3.149135E+03	2.114271E-04	7.531036E-06
3.159101E+03	2.122394E-04	7.539882E-06
3.169067E+03	2.130660E-04	7.548993E-06
3.179032E+03	2.139063E-04	7.558345E-06
3.188998E+03	2.147597E-04	7.567914E-06
3.198964E+03	2.155945E-04	7.576579E-06
3.208929E+03	2.164729E-04	7.586522E-06
3.218895E+03	2.173317E-04	7.595525E-06
3.228860E+03	2.182329E-04	7.605752E-06
3.238826E+03	2.191446E-04	7.616083E-06
3.248792E+03	2.200354E-04	7.625420E-06
3.258757E+03	2.209666E-04	7.635896E-06
3.268723E+03	2.219377E-04	7.647471E-06
3.278689E+03	2.228861E-04	7.657986E-06
3.288654E+03	2.238729E-04	7.669542E-06
3.298620E+03	2.248667E-04	7.681051E-06
3.308585E+03	2.258975E-04	7.693530E-06
3.318551E+03	2.269338E-04	7.705904E-06
3.328517E+03	2.280055E-04	7.719176E-06
3.338482E+03	2.291117E-04	7.733306E-06
3.348448E+03	2.302212E-04	7.747236E-06
3.358413E+03	2.313636E-04	7.761950E-06
3.368379E+03	2.325378E-04	7.777408E-06
3.378345E+03	2.337430E-04	7.793568E-06
3.388310E+03	2.349782E-04	7.810385E-06
3.398276E+03	2.362127E-04	7.826833E-06
3.408242E+03	2.375049E-04	7.844842E-06
3.418207E+03	2.388539E-04	7.864361E-06
3.428173E+03	2.401991E-04	7.883382E-06
3.438138E+03	2.415989E-04	7.903817E-06
3.448104E+03	2.430221E-04	7.924629E-06
3.458070E+03	2.444970E-04	7.946734E-06
3.468035E+03	2.460226E-04	7.970076E-06
3.478001E+03	2.475681E-04	7.993642E-06
3.487967E+03	2.491613E-04	8.018326E-06
3.497932E+03	2.508011E-04	8.044072E-06
3.507898E+03	2.524569E-04	8.069887E-06
3.517863E+03	2.541849E-04	8.097554E-06
3.527829E+03	2.559547E-04	8.126086E-06
3.537795E+03	2.577650E-04	8.155422E-06
3.547760E+03	2.596140E-04	8.185496E-06
3.557726E+03	2.615284E-04	8.217128E-06
3.567691E+03	2.634784E-04	8.249367E-06
3.577657E+03	2.654902E-04	8.283014E-06
3.587623E+03	2.675618E-04	8.317989E-06
3.597588E+03	2.696637E-04	8.353352E-06
3.607554E+03	2.718220E-04	8.389904E-06
3.617520E+03	2.740343E-04	8.427544E-06
3.627485E+03	2.762990E-04	8.466211E-06
3.637451E+03	2.786141E-04	8.505819E-06
3.647416E+03	2.810045E-04	8.547108E-06
3.657382E+03	2.834406E-04	8.589160E-06
3.667348E+03	2.859214E-04	8.631922E-06
3.677313E+03	2.884444E-04	8.675307E-06
3.687279E+03	2.910599E-04	8.720805E-06
3.697245E+03	2.937134E-04	8.766756E-06
3.707210E+03	2.964288E-04	8.813857E-06
3.717176E+03	2.992034E-04	8.862008E-06
3.727141E+03	3.020355E-04	8.911133E-06
3.737107E+03	3.049223E-04	8.961133E-06
3.747073E+03	3.078616E-04	9.011926E-06
3.757038E+03	3.108764E-04	9.064157E-06
3.767004E+03	3.139387E-04	9.116991E-06
3.776969E+03	3.170709E-04	9.171058E-06
3.786935E+03	3.202703E-04	9.226255E-06
3.796901E+03	3.235341E-04	9.282478E-06
3.806866E+03	3.268597E-04	9.339628E-06
3.816832E+03	3.302197E-04	9.396906E-06
3.826798E+03	3.336832E-04	9.456256E-06
3.836763E+03	3.371753E-04	9.515532E-06
3.846729E+03	3.407403E-04	9.575963E-06
3.856694E+03	3.443738E-04	9.637404E-06
3.866660E+03	3.480492E-04	9.699089E-06
3.876626E+03	3.518080E-04	9.762155E-06
3.886591E+03	3.556000E-04	9.825183E-06
3.896557E+03	3.594655E-04	9.889278E-06
3.906522E+03	3.633766E-04	9.953646E-06
3.916488E+03	3.673502E-04	1.001873E-05
3.926454E+03	3.713579E-04	1.008374E-05
3.936419E+03	3.754376E-04	1.014970E-05
3.946385E+03	3.795389E-04	1.021521E-05
3.956351E+03	3.836777E-04	1.028070E-05
3.966316E+03	3.878477E-04	1.034600E-05
3.976282E+03	3.920643E-04	1.041149E-05
3.986247E+03	3.963221E-04	1.047703E-05
3.996213E+03	4.005953E-04	1.054192E-05
4.006179E+03	4.049012E-04	1.060662E-05
4.016144E+03	4.092373E-04	1.067104E-05
4.026110E+03	4.136021E-04	1.073515E-05
4.036076E+03	4.179960E-04	1.079895E-05
4.046041E+03	4.224406E-04	1.086298E-05
4.056007E+03	4.269395E-04	1.092733E-05
4.065972E+03	4.314782E-04	1.099161E-05
4.075938E+03	4.360838E-04	1.105650E-05
4.085904E+03	4.407662E-04	1.112222E-05
4.095869E+03	4.455372E-04	1.118906E-05
4.105835E+03	4.504304E-04	1.125783E-05
4.115800E+03	4.554243E-04	1.132795E-05
4.125766E+03	4.605947E-04	1.140128E-05
4.135732E+03	4.659250E-04	1.147734E-05
4.145697E+03	4.714391E-04	1.155667E-05
4.155663E+03	4.771985E-04	1.164072E-05
4.165629E+03	4.831937E-04	1.172918E-05
4.175594E+03	4.894710E-04	1.182308E-05
4.185560E+03	4.960771E-04	1.192347E-05
4.195525E+03	5.030061E-04	1.203008E-05
4.205491E+03	5.103238E-04	1.214439E-05
4.215457E+03	5.180422E-04	1.226655E-05
4.225422E+03	5.261912E-04	1.239714E-05
4.235388E+03	5.347997E-04	1.253669E-05
4.245354E+03	5.439125E-04	1.268610E-05
4.255319E+03	5.535390E-04	1.284543E-05
4.265285E+03	5.637031E-04	1.301506E-05
4.275250E+03	5.744269E-04	1.319533E-05
4.285216E+03	5.857469E-04	1.338690E-05
4.295182E+03	5.976452E-04	1.358918E-05
4.305147E+03	6.101685E-04	1.380303E-05
4.315113E+03	6.232910E-04	1.402770E-05
4.325078E+03	6.370344E-04	1.426348E-05
4.335044E+03	6.513801E-04	1.450977E-05
4.345010E+03	6.663393E-04	1.476664E-05
4.354975E+03	6.818820E-04	1.503326E-05
4.364941E+03	6.979886E-04	1.530903E-05
4.374907E+03	7.146166E-04	1.559286E-05
4.384872E+03	7.317952E-04	1.588526E-05
4.394838E+03	7.495749E-04	1.618718E-05
4.404803E+03	7.679544E-04	1.649842E-05
4.414769E+03	7.870366E-04	1.682103E-05
4.424735E+03	8.068344E-04	1.715511E-05
4.434700E+03	8.273768E-04	1.750108E-05
4.444666E+03	8.487260E-04	1.786007E-05
4.454632E+03	8.709046E-04	1.823236E-05
4.464597E+03	8.939323E-04	1.861813E-05
4.474563E+03	9.178419E-04	1.901788E-05
4.484528E+03	9.426607E-04	1.943195E-05
4.494494E+03	9.684102E-04	1.986057E-05
4.504460E+03	9.950662E-04	2.030305E-05
4.514425E+03	1.022633E-03	2.075927E-05
4.524391E+03	1.051088E-03	2.122857E-05
4.534356E+03	1.080435E-03	2.171087E-05
4.544322E+03	1.110609E-03	2.220470E-05
4.554288E+03	1.141594E-03	2.270959E-05
4.564253E+03	1.173280E-03	2.322324E-05
4.574219E+03	1.205627E-03	2.374479E-05
4.584185E+03	1.238564E-03	2.427276E-05
4.594150E+03	1.271969E-03	2.480470E-05
4.604116E+03	1.305728E-03	2.533837E-05
4.614081E+03	1.339762E-03	2.587229E-05
4.624047E+03	1.373922E-03	2.640360E-05
4.634013E+03	1.408120E-03	2.693070E-05
4.643978E+03	1.442175E-03	2.745024E-05
4.653944E+03	1.475994E-03	2.796063E-05
4.663910E+03	1.509441E-03	2.845950E-05
4.673875E+03	1.542385E-03	2.894457E-05
4.683841E+03	1.574723E-03	2.941418E-05
4.693806E+03	1.606313E-03	2.986598E-05
4.703772E+03	1.637093E-03	3.029912E-05
4.713738E+03	1.666968E-03	3.071217E-05
4.723703E+03	1.695856E-03	3.110395E-05
4.733669E+03	1.723686E-03	3.147353E-05
4.743634E+03	1.750428E-03	3.182074E-05
4.753600E+03	1.776041E-03	3.214519E-05
4.763566E+03	1.800524E-03	3.244722E-05
4.773531E+03	1.823833E-03	3.272645E-05
4.783497E+03	1.845881E-03	3.298165E-05
4.793463E+03	1.866569E-03	3.321147E-05
4.803428E+03	1.885758E-03	3.341382E-05
4.813394E+03	1.903364E-03	3.358763E-05
4.823359E+03	1.919307E-03	3.373195E-05
4.833325E+03	1.933516E-03	3.384594E-05
4.843291E+03	1.945904E-03	3.392852E-05
4.853256E+03	1.956414E-03	3.397916E-05
4.863222E+03	1.964976E-03	3.399708E-05
4.873188E+03	1.971580E-03	3.398253E-05
4.883153E+03	1.976201E-03	3.393554E-05
4.893119E+03	1.978781E-03	3.385551E-05
4.903084E+03	1.979373E-03	3.374375E-05
4.913050E+03	1.977947E-03	3.360018E-05
4.923016E+03	1.974565E-03	3.342618E-05
4.932981E+03	1.969283E-03	3.322303E-05
4.942947E+03	1.962176E-03	3.299223E-05
4.952912E+03	1.953338E-03	3.273561E-05
4.962878E+03	1.942879E-03	3.245523E-05
4.972844E+03	1.930929E-03	3.215341E-05
4.982809E+03	1.917630E-03	3.183271E-05
4.992775E+03	1.903163E-03	3.149623E-05
5.002741E+03	1.887697E-03	3.114683E-05
5.012706E+03	1.871388E-03	3.078716E-05
5.022672E+03	1.854464E-03	3.042099E-05
5.032637E+03	1.837093E-03	3.005106E-05
5.042603E+03	1.819486E-03	2.968079E-05
5.052569E+03	1.801853E-03	2.931354E-05
5.062534E+03	1.784362E-03	2.895194E-05
5.072500E+03	1.767212E-03	2.859912E-05
5.082465E+03	1.750578E-03	2.825779E-05
5.092431E+03	1.734665E-03	2.793108E-05
5.102397E+03	1.719606E-03	2.762100E-05
5.112362E+03	1.705546E-03	2.732968E-05
5.122328E+03	1.692669E-03	2.705988E-05
5.132294E+03	1.681052E-03	2.681267E-05
5.142259E+03	1.670816E-03	2.658973E-05
5.152225E+03	1.662081E-03	2.639280E-05
5.162190E+03	1.654898E-03	2.622247E-05
5.172156E+03	1.649339E-03	2.607969E-05
5.182122E+03	1.645457E-03	2.596511E-05
5.192087E+03	1.643276E-03	2.587890E-05
5.202053E+03	1.642839E-03	2.582153E-05
5.212019E+03	1.644119E-03	2.579245E-05
5.221984E+03	1.647114E-03	2.579142E-05
5.231950E+03	1.651790E-03	2.581777E-05
5.241915E+03	1.658155E-03	2.587146E-05
5.251881E+03	1.666116E-03	2.595092E-05
5.261847E+03	1.675641E-03	2.605552E-05
5.271812E+03	1.686653E-03	2.618394E-05
5.281778E+03	1.699102E-03	2.633531E-05
5.291743E+03	1.712875E-03	2.650780E-05
5.301709E+03	1.727890E-03	2.670006E-05
5.311675E+03	1.744037E-03	2.691033E-05
5.321640E+03	1.761257E-03	2.713766E-05
5.331606E+03	1.779396E-03	2.737962E-05
5.341572E+03	1.798367E-03	2.763487E-05
5.351537E+03	1.818044E-03	2.790145E-05
5.361503E+03	1.838321E-03	2.817771E-05
5.371468E+03	1.859088E-03	2.846201E-05
5.381434E+03	1.880202E-03	2.875214E-05
5.391400E+03	1.901577E-03	2.904683E-05
5.401365E+03	1.923077E-03	2.934404E-05
5.411331E+03	1.944630E-03	2.964269E-05
5.421297E+03	1.966135E-03	2.994129E-05
5.431262E+03	1.987518E-03	3.023878E-05
5.441228E+03	2.008681E-03	3.053371E-05
5.451193E+03	2.029577E-03	3.082541E-05
5.461159E+03	2.050174E-03	3.111348E-05
5.471125E+03	2.070416E-03	3.139710E-05
5.481090E+03	2.090293E-03	3.167621E-05
5.491056E+03	2.109663E-03	3.194869E-05
5.501021E+03	2.128396E-03	3.221267E-05
5.510987E+03	2.146423E-03	3.246713E-05
5.520953E+03	2.163599E-03	3.270991E-05
5.530918E+03	2.179855E-03	3.293997E-05
5.540884E+03	2.195116E-03	3.315617E-05
5.550850E+03	2.209320E-03	3.335755E-05
5.560815E+03	2.222442E-03	3.354372E-05
5.570781E+03	2.234406E-03	3.371351E-05
5.580746E+03	2.245217E-03	3.386697E-05
5.590712E+03	2.254895E-03	3.400438E-05
5.600678E+03	2.263407E-03	3.412519E-05
5.610643E+03	2.270777E-03	3.422976E-05
5.620609E+03	2.277068E-03	3.431897E-05
5.630575E+03	2.282310E-03	3.439325E-05
5.640540E+03	2.286563E-03	3.445346E-05
5.650506E+03	2.289884E-03	3.450040E-05
5.660471E+03	2.292354E-03	3.453526E-05
5.670437E+03	2.294051E-03	3.455918E-05
5.680403E+03	2.295101E-03	3.457398E-05
5.690368E+03	2.295596E-03	3.458102E-05
5.700334E+03	2.295614E-03	3.458144E-05
5.710299E+03	2.295328E-03	3.457777E-05
5.720265E+03	2.294800E-03	3.457092E-05
5.730231E+03	2.294204E-03	3.456348E-05
5.740196E+03	2.293604E-03	3.455635E-05
5.750162E+03	2.293142E-03	3.455165E-05
5.760128E+03	2.292911E-03	3.455073E-05
5.770093E+03	2.292963E-03	3.455435E-05
5.780059E+03	2.293427E-03	3.456441E-05
5.790024E+03	2.294301E-03	3.458087E-05
5.799990E+03	2.295632E-03	3.460439E-05
5.809956E+03	2.297420E-03	3.463496E-05
5.819921E+03	2.299667E-03	3.467259E-05
5.829887E+03	2.302336E-03	3.471669E-05
5.839853E+03	2.305371E-03	3.476639E-05
5.849818E+03	2.308694E-03	3.482052E-05
5.859784E+03	2.312221E-03	3.487777E-05
5.869749E+03	2.315875E-03	3.493698E-05
5.879715E+03	2.319534E-03	3.499629E-05
5.889681E+03	2.323114E-03	3.505442E-05
5.899646E+03	2.326512E-03	3.510981E-05
5.909612E+03	2.329631E-03	3.516097E-05
5.919577E+03	2.332363E-03	3.520629E-05
5.929543E+03	2.334672E-03	3.524519E-05
5.939509E+03	2.336477E-03	3.527644E-05
5.949474E+03	2.337748E-03	3.529962E-05
5.959440E+03	2.338413E-03	3.531361E-05
5.969406E+03	2.338492E-03	3.531872E-05
5.979371E+03	2.337960E-03	3.531456E-05
5.989337E+03	2.336841E-03	3.530153E-05
5.999302E+03	2.335130E-03	3.527953E-05
6.009268E+03	2.332865E-03	3.524914E-05
6.019234E+03	2.330077E-03	3.521085E-05
6.029199E+03	2.326766E-03	3.516467E-05
6.039165E+03	2.323002E-03	3.511168E-05
6.049130E+03	2.318789E-03	3.505193E-05
6.059096E+03	2.314148E-03	3.498577E-05
6.069062E+03	2.309115E-03	3.491376E-05
6.079027E+03	2.303701E-03	3.483610E-05
6.088993E+03	2.297934E-03	3.475321E-05
6.098959E+03	2.291796E-03	3.466485E-05
6.108924E+03	2.285325E-03	3.457161E-05
6.118890E+03	2.278493E-03	3.447312E-05
6.128855E+03	2.271314E-03	3.436959E-05
6.138821E+03	2.263816E-03	3.426146E-05
6.148787E+03	2.255991E-03	3.414868E-05
6.158752E+03	2.247833E-03	3.403114E-05
6.168718E+03	2.239373E-03	3.390936E-05
6.178684E+03	2.230625E-03	3.378359E-05
6.188649E+03	2.221614E-03	3.365424E-05
6.198615E+03	2.212362E-03	3.352165E-05
6.208580E+03	2.202915E-03	3.338655E-05
6.218546E+03	2.193306E-03	3.324948E-05
6.228512E+03	2.183566E-03	3.311092E-05
6.238477E+03	2.173753E-03	3.297178E-05
6.248443E+03	2.163876E-03	3.283222E-05
6.258408E+03	2.154020E-03	3.269353E-05
6.268374E+03	2.144198E-03	3.255599E-05
6.278340E+03	2.134491E-03	3.242079E-05
6.288305E+03	2.124952E-03	3.228880E-05
6.298271E+03	2.115663E-03	3.216130E-05
6.308237E+03	2.106654E-03	3.203876E-05
6.318202E+03	2.098024E-03	3.192273E-05
6.328168E+03	2.089820E-03	3.181396E-05
6.338133E+03	2.082141E-03	3.171398E-05
6.348099E+03	2.075012E-03	3.162324E-05
6.358065E+03	2.068526E-03	3.154320E-05
6.368030E+03	2.062737E-03	3.147470E-05
6.377996E+03	2.057671E-03	3.141823E-05
6.387962E+03	2.053405E-03	3.137498E-05
6.397927E+03	2.049968E-03	3.134548E-05
6.407893E+03	2.047363E-03	3.132985E-05
6.417858E+03	2.045603E-03	3.132833E-05
6.427824E+03	2.044725E-03	3.134155E-05
6.437790E+03	2.044683E-03	3.136890E-05
6.447755E+03	2.045475E-03	3.141042E-05
6.457721E+03	2.047053E-03	3.146545E-05
6.467686E+03	2.049397E-03	3.153373E-05
6.477652E+03	2.052457E-03	3.161461E-05
6.487618E+03	2.056142E-03	3.170664E-05
6.497583E+03	2.060390E-03	3.180889E-05
6.507549E+03	2.065158E-03	3.192063E-05
6.517515E+03	2.070296E-03	3.203954E-05
6.527480E+03	2.075645E-03	3.216316E-05
6.537446E+03	2.080992E-03	3.228810E-05
6.547411E+03	2.086145E-03	3.241134E-05
6.557377E+03	2.090963E-03	3.253065E-05
6.567343E+03	2.095258E-03	3.264302E-05
6.577308E+03	2.098902E-03	3.274635E-05
6.587274E+03	2.101744E-03	3.283819E-05
6.597240E+03	2.103712E-03	3.291733E-05
6.607205E+03	2.104685E-03	3.298173E-05
6.617171E+03	2.104660E-03	3.303124E-05
6.627136E+03	2.103548E-03	3.306434E-05
6.637102E+03	2.101380E-03	3.308135E-05
6.647068E+03	2.098175E-03	3.308248E-05
6.657033E+03	2.093959E-03	3.306798E-05
6.666999E+03	2.088817E-03	3.303907E-05
6.676964E+03	2.082810E-03	3.299660E-05
6.686930E+03	2.076081E-03	3.294273E-05
6.696896E+03	2.068678E-03	3.287808E-05
6.706861E+03	2.060779E-03	3.280543E-05
6.716827E+03	2.052463E-03	3.272591E-05
6.726793E+03	2.043868E-03	3.264168E-05
6.736758E+03	2.035110E-03	3.255449E-05
6.746724E+03	2.026272E-03	3.246565E-05
6.756689E+03	2.017451E-03	3.237664E-05
6.766655E+03	2.008751E-03	3.228912E-05
6.776621E+03	2.000224E-03	3.220386E-05
6.786586E+03	1.991927E-03	3.212179E-05
6.796552E+03	1.983906E-03	3.204363E-05
6.806518E+03	1.976217E-03	3.197027E-05
6.816483E+03	1.968844E-03	3.190141E-05
6.826449E+03	1.961821E-03	3.183765E-05
6.836414E+03	1.955160E-03	3.177914E-05
6.846380E+03	1.948842E-03	3.172560E-05
6.856346E+03	1.942889E-03	3.167738E-05
6.866311E+03	1.937299E-03	3.163445E-05
6.876277E+03	1.932028E-03	3.159607E-05
6.886242E+03	1.927113E-03	3.156289E-05
6.896208E+03	1.922532E-03	3.153452E-05
6.906174E+03	1.918284E-03	3.151094E-05
6.916139E+03	1.914346E-03	3.149180E-05
6.926105E+03	1.910742E-03	3.147750E-05
6.936071E+03	1.907475E-03	3.146810E-05
6.946036E+03	1.904532E-03	3.146336E-05
6.956002E+03	1.901940E-03	3.146377E-05
6.965967E+03	1.899690E-03	3.146916E-05
6.975933E+03	1.897795E-03	3.147977E-05
6.985899E+03	1.896269E-03	3.149585E-05
6.995864E+03	1.895109E-03	3.151736E-05
7.005830E+03	1.894379E-03	3.154536E-05
7.015796E+03	1.894057E-03	3.157952E-05
7.025761E+03	1.894169E-03	3.162028E-05
7.035727E+03	1.894762E-03	3.166843E-05
7.045692E+03	1.895841E-03	3.172411E-05
7.055658E+03	1.897436E-03	3.178782E-05
7.065624E+03	1.899574E-03	3.186004E-05
7.075589E+03	1.902284E-03	3.194127E-05
7.085555E+03	1.905590E-03	3.203196E-05
7.095520E+03	1.909494E-03	3.213215E-05
7.105486E+03	1.914036E-03	3.224253E-05
7.115452E+03	1.919205E-03	3.236298E-05
7.125417E+03	1.925006E-03	3.249359E-05
7.135383E+03	1.931459E-03	3.263473E-05
7.145349E+03	1.938505E-03	3.278543E-05
7.155314E+03	1.946144E-03	3.294571E-05
7.165280E+03	1.954339E-03	3.311497E-05
7.175245E+03	1.963044E-03	3.329245E-05
7.185211E+03	1.972175E-03	3.347674E-05
7.195177E+03	1.981660E-03	3.366666E-05
7.205142E+03	1.991440E-03	3.386119E-05
7.215108E+03	2.001374E-03	3.405795E-05
7.225073E+03	2.011408E-03	3.425603E-05
7.235039E+03	2.021384E-03	3.445275E-05
7.245005E+03	2.031212E-03	3.464658E-05
7.254970E+03	2.040752E-03	3.483510E-05
7.264936E+03	2.049910E-03	3.501673E-05
7.274902E+03	2.058549E-03	3.518909E-05
7.284867E+03	2.066558E-03	3.535031E-05
7.294833E+03	2.073838E-03	3.549865E-05
7.304798E+03	2.080299E-03	3.563257E-05
7.314764E+03	2.085864E-03	3.575072E-05
7.324730E+03	2.090470E-03	3.585204E-05
7.334695E+03	2.094047E-03	3.593528E-05
7.344661E+03	2.096564E-03	3.599993E-05
7.354627E+03	2.098036E-03	3.604620E-05
7.364592E+03	2.098438E-03	3.607369E-05
7.374558E+03	2.097791E-03	3.608270E-05
7.384523E+03	2.096096E-03	3.607330E-05
7.394489E+03	2.093450E-03	3.604712E-05
7.404455E+03	2.089875E-03	3.600455E-05
7.414420E+03	2.085428E-03	3.594659E-05
7.424386E+03	2.080173E-03	3.587433E-05
7.434351E+03	2.074148E-03	3.578844E-05
7.444317E+03	2.067447E-03	3.569056E-05
7.454283E+03	2.060139E-03	3.558190E-05
7.464248E+03	2.052296E-03	3.546372E-05
7.474214E+03	2.043989E-03	3.533724E-05
7.484180E+03	2.035290E-03	3.520375E-05
7.494145E+03	2.026272E-03	3.506453E-05
7.504111E+03	2.017007E-03	3.492087E-05
7.514076E+03	2.007571E-03	3.477407E-05
7.524042E+03	1.998063E-03	3.462591E-05
7.534008E+03	1.988532E-03	3.447726E-05
7.543973E+03	1.979077E-03	3.432987E-05
7.553939E+03	1.969772E-03	3.418503E-05
7.563905E+03	1.960661E-03	3.404358E-05
7.573870E+03	1.951865E-03	3.390760E-05
7.583836E+03	1.943422E-03	3.377776E-05
7.593801E+03	1.935388E-03	3.365500E-05
7.603767E+03	1.927782E-03	3.353963E-05
7.613733E+03	1.920660E-03	3.343263E-05
7.623698E+03	1.913971E-03	3.333308E-05
7.633664E+03	1.907709E-03	3.324087E-05
7.643629E+03	1.901913E-03	3.315668E-05
7.653595E+03	1.896566E-03	3.308018E-05
7.663561E+03	1.891593E-03	3.301007E-05
7.673526E+03	1.887018E-03	3.294677E-05
7.683492E+03	1.882786E-03	3.288926E-05
7.693458E+03	1.878886E-03	3.283741E-05
7.703423E+03	1.875285E-03	3.279057E-05
7.713389E+03	1.871945E-03	3.274809E-05
7.723354E+03	1.868804E-03	3.270888E-05
7.733320E+03	1.865876E-03	3.267317E-05
