#wls	flux	fluxerr
1.600000E+03	6.502004E-17	3.674485E-17
1.640000E+03	6.651160E-17	3.563591E-17
1.680000E+03	6.803111E-17	3.437565E-17
1.720000E+03	6.959355E-17	3.297380E-17
1.760000E+03	7.117886E-17	3.142855E-17
1.800000E+03	7.277735E-17	2.975337E-17
1.840000E+03	7.438264E-17	2.797627E-17
1.880000E+03	7.597283E-17	2.613764E-17
1.920000E+03	7.752930E-17	2.430458E-17
1.960000E+03	7.903062E-17	2.257418E-17
2.000000E+03	8.044167E-17	2.107159E-17
2.040000E+03	8.174431E-17	1.994341E-17
2.080000E+03	8.289592E-17	1.930048E-17
2.120000E+03	8.386661E-17	1.915637E-17
2.160000E+03	8.464978E-17	1.939444E-17
2.200000E+03	8.523882E-17	1.981467E-17
2.240000E+03	8.562394E-17	2.021228E-17
2.280000E+03	8.584107E-17	2.043474E-17
2.320000E+03	8.591990E-17	2.038177E-17
2.360000E+03	8.592644E-17	2.001243E-17
2.400000E+03	8.592834E-17	1.933125E-17
2.440000E+03	8.599110E-17	1.838546E-17
2.480000E+03	8.618309E-17	1.727152E-17
2.520000E+03	8.655868E-17	1.614568E-17
2.560000E+03	8.718818E-17	1.524484E-17
2.600000E+03	8.812193E-17	1.486082E-17
2.640000E+03	8.940050E-17	1.523222E-17
2.680000E+03	9.102958E-17	1.638568E-17
2.720000E+03	9.299178E-17	1.813870E-17
2.760000E+03	9.525297E-17	2.024134E-17
2.800000E+03	9.777715E-17	2.247406E-17
2.840000E+03	1.005404E-16	2.466962E-17
2.880000E+03	1.035245E-16	2.670158E-17
2.920000E+03	1.067297E-16	2.847474E-17
2.960000E+03	1.101739E-16	2.991614E-17
3.000000E+03	1.138944E-16	3.097002E-17
3.010000E+03	1.148733E-16	3.116757E-17
3.020000E+03	1.158744E-16	3.133774E-17
3.030000E+03	1.168983E-16	3.147991E-17
3.040000E+03	1.179485E-16	3.159421E-17
3.050000E+03	1.190235E-16	3.167941E-17
3.060000E+03	1.201243E-16	3.173504E-17
3.070000E+03	1.212572E-16	3.176201E-17
3.080000E+03	1.224184E-16	3.175857E-17
3.090000E+03	1.236145E-16	3.172570E-17
3.100000E+03	1.248444E-16	3.166242E-17
3.110000E+03	1.261100E-16	3.156847E-17
3.120000E+03	1.274180E-16	3.144489E-17
3.130000E+03	1.287656E-16	3.129027E-17
3.140000E+03	1.301572E-16	3.110510E-17
3.150000E+03	1.315954E-16	3.088933E-17
3.160000E+03	1.330851E-16	3.064356E-17
3.170000E+03	1.346264E-16	3.036726E-17
3.180000E+03	1.362249E-16	3.006116E-17
3.190000E+03	1.378834E-16	2.972549E-17
3.200000E+03	1.396028E-16	2.936005E-17
3.210000E+03	1.413890E-16	2.896583E-17
3.220000E+03	1.432481E-16	2.854391E-17
3.230000E+03	1.451790E-16	2.809402E-17
3.240000E+03	1.471906E-16	2.761804E-17
3.250000E+03	1.492821E-16	2.711615E-17
3.260000E+03	1.514652E-16	2.659107E-17
3.270000E+03	1.537367E-16	2.604304E-17
3.280000E+03	1.561035E-16	2.547448E-17
3.290000E+03	1.585723E-16	2.488807E-17
3.300000E+03	1.611447E-16	2.428606E-17
3.310000E+03	1.638271E-16	2.367195E-17
3.320000E+03	1.666177E-16	2.304854E-17
3.330000E+03	1.695212E-16	2.242022E-17
3.340000E+03	1.725390E-16	2.179138E-17
3.350000E+03	1.756703E-16	2.116666E-17
3.360000E+03	1.789123E-16	2.055087E-17
3.370000E+03	1.822560E-16	1.994841E-17
3.380000E+03	1.856912E-16	1.936373E-17
3.390000E+03	1.892029E-16	1.880079E-17
3.400000E+03	1.927706E-16	1.826304E-17
3.410000E+03	1.963655E-16	1.775319E-17
3.420000E+03	1.999553E-16	1.727391E-17
3.430000E+03	2.035021E-16	1.682779E-17
3.440000E+03	2.069609E-16	1.641738E-17
3.450000E+03	2.102859E-16	1.604565E-17
3.460000E+03	2.134305E-16	1.571567E-17
3.470000E+03	2.163450E-16	1.542985E-17
3.480000E+03	2.189939E-16	1.519041E-17
3.490000E+03	2.213466E-16	1.499794E-17
3.500000E+03	2.233849E-16	1.485128E-17
3.510000E+03	2.251071E-16	1.474760E-17
3.520000E+03	2.265180E-16	1.468181E-17
3.530000E+03	2.276367E-16	1.464748E-17
3.540000E+03	2.284839E-16	1.463670E-17
3.550000E+03	2.290797E-16	1.464067E-17
3.560000E+03	2.294405E-16	1.465025E-17
3.570000E+03	2.295760E-16	1.465649E-17
3.580000E+03	2.294858E-16	1.465105E-17
3.590000E+03	2.291678E-16	1.462712E-17
3.600000E+03	2.286077E-16	1.457912E-17
3.610000E+03	2.277911E-16	1.450347E-17
3.620000E+03	2.266912E-16	1.439786E-17
3.630000E+03	2.252880E-16	1.426215E-17
3.640000E+03	2.235486E-16	1.409684E-17
3.650000E+03	2.214525E-16	1.390423E-17
3.660000E+03	2.189830E-16	1.368737E-17
3.670000E+03	2.161433E-16	1.345060E-17
3.680000E+03	2.129533E-16	1.319887E-17
3.690000E+03	2.094698E-16	1.293858E-17
3.700000E+03	2.057795E-16	1.267685E-17
3.710000E+03	2.020080E-16	1.242191E-17
3.720000E+03	1.983061E-16	1.218219E-17
3.730000E+03	1.948513E-16	1.196649E-17
3.740000E+03	1.918236E-16	1.178269E-17
3.750000E+03	1.894096E-16	1.163822E-17
3.760000E+03	1.877829E-16	1.153922E-17
3.770000E+03	1.871049E-16	1.149075E-17
3.780000E+03	1.875203E-16	1.149674E-17
3.790000E+03	1.891640E-16	1.156056E-17
3.800000E+03	1.921554E-16	1.168471E-17
3.810000E+03	1.966113E-16	1.187161E-17
3.820000E+03	2.026400E-16	1.212328E-17
3.830000E+03	2.103407E-16	1.244133E-17
3.840000E+03	2.197979E-16	1.282672E-17
3.850000E+03	2.310697E-16	1.327926E-17
3.860000E+03	2.441813E-16	1.379739E-17
3.870000E+03	2.590969E-16	1.437686E-17
3.880000E+03	2.756998E-16	1.500985E-17
3.890000E+03	2.937795E-16	1.568447E-17
3.900000E+03	3.130099E-16	1.638388E-17
3.910000E+03	3.329489E-16	1.708671E-17
3.920000E+03	3.530402E-16	1.776772E-17
3.930000E+03	3.726547E-16	1.840084E-17
3.940000E+03	3.911168E-16	1.896146E-17
3.950000E+03	4.077775E-16	1.943081E-17
3.960000E+03	4.220520E-16	1.979769E-17
3.970000E+03	4.334808E-16	2.006016E-17
3.980000E+03	4.417658E-16	2.022449E-17
3.990000E+03	4.467622E-16	2.030118E-17
4.000000E+03	4.484900E-16	2.030178E-17
4.010000E+03	4.471053E-16	2.023535E-17
4.020000E+03	4.428845E-16	2.010772E-17
4.030000E+03	4.361933E-16	1.992187E-17
4.040000E+03	4.274629E-16	1.967987E-17
4.050000E+03	4.171641E-16	1.938486E-17
4.060000E+03	4.057734E-16	1.904210E-17
4.070000E+03	3.937373E-16	1.865894E-17
4.080000E+03	3.814777E-16	1.824560E-17
4.090000E+03	3.693465E-16	1.781279E-17
4.100000E+03	3.576481E-16	1.737209E-17
4.110000E+03	3.466178E-16	1.693421E-17
4.120000E+03	3.364399E-16	1.650914E-17
4.130000E+03	3.272445E-16	1.610538E-17
4.140000E+03	3.191175E-16	1.572984E-17
4.150000E+03	3.121063E-16	1.538763E-17
4.160000E+03	3.062269E-16	1.508202E-17
4.170000E+03	3.014731E-16	1.481458E-17
4.180000E+03	2.978168E-16	1.458517E-17
4.190000E+03	2.952146E-16	1.439240E-17
4.200000E+03	2.936165E-16	1.423442E-17
4.210000E+03	2.929659E-16	1.410941E-17
4.220000E+03	2.932029E-16	1.401614E-17
4.230000E+03	2.942536E-16	1.395380E-17
4.240000E+03	2.960329E-16	1.392224E-17
4.250000E+03	2.984326E-16	1.392132E-17
4.260000E+03	3.013210E-16	1.395062E-17
4.270000E+03	3.045280E-16	1.400822E-17
4.280000E+03	3.078511E-16	1.409013E-17
4.290000E+03	3.110590E-16	1.418952E-17
4.300000E+03	3.139007E-16	1.429609E-17
4.310000E+03	3.161434E-16	1.439707E-17
4.320000E+03	3.175802E-16	1.447747E-17
4.330000E+03	3.180767E-16	1.452280E-17
4.340000E+03	3.175887E-16	1.452127E-17
4.350000E+03	3.161910E-16	1.446686E-17
4.360000E+03	3.140598E-16	1.436036E-17
4.370000E+03	3.114924E-16	1.421142E-17
4.380000E+03	3.088685E-16	1.403717E-17
4.390000E+03	3.066305E-16	1.386075E-17
4.400000E+03	3.052507E-16	1.370848E-17
4.410000E+03	3.051936E-16	1.360668E-17
4.420000E+03	3.068949E-16	1.357923E-17
4.430000E+03	3.107243E-16	1.364495E-17
4.440000E+03	3.169921E-16	1.381745E-17
4.450000E+03	3.259210E-16	1.410394E-17
4.460000E+03	3.376489E-16	1.450589E-17
4.470000E+03	3.522249E-16	1.501972E-17
4.480000E+03	3.695781E-16	1.563660E-17
4.490000E+03	3.895381E-16	1.634469E-17
4.500000E+03	4.117828E-16	1.712812E-17
4.510000E+03	4.358623E-16	1.796910E-17
4.520000E+03	4.611674E-16	1.884719E-17
4.530000E+03	4.869528E-16	1.974028E-17
4.540000E+03	5.123601E-16	2.062474E-17
4.550000E+03	5.364564E-16	2.147529E-17
4.560000E+03	5.583256E-16	2.226648E-17
4.570000E+03	5.771059E-16	2.297198E-17
4.580000E+03	5.920900E-16	2.356732E-17
4.590000E+03	6.027750E-16	2.403222E-17
4.600000E+03	6.088987E-16	2.435367E-17
4.610000E+03	6.104444E-16	2.452797E-17
4.620000E+03	6.076326E-16	2.456164E-17
4.630000E+03	6.008915E-16	2.447037E-17
4.640000E+03	5.908034E-16	2.427581E-17
4.650000E+03	5.780492E-16	2.400181E-17
4.660000E+03	5.633438E-16	2.367027E-17
4.670000E+03	5.474144E-16	2.329991E-17
4.680000E+03	5.309351E-16	2.290443E-17
4.690000E+03	5.145092E-16	2.249367E-17
4.700000E+03	4.986558E-16	2.207504E-17
4.710000E+03	4.837906E-16	2.165452E-17
4.720000E+03	4.702306E-16	2.123795E-17
4.730000E+03	4.582003E-16	2.083186E-17
4.740000E+03	4.478443E-16	2.044401E-17
4.750000E+03	4.392413E-16	2.008351E-17
4.760000E+03	4.324192E-16	1.976063E-17
4.770000E+03	4.273664E-16	1.948608E-17
4.780000E+03	4.240357E-16	1.926979E-17
4.790000E+03	4.223597E-16	1.911995E-17
4.800000E+03	4.222302E-16	1.904063E-17
4.810000E+03	4.235279E-16	1.903204E-17
4.820000E+03	4.260944E-16	1.908899E-17
4.830000E+03	4.297732E-16	1.920332E-17
4.840000E+03	4.344081E-16	1.936512E-17
4.850000E+03	4.398530E-16	1.956448E-17
4.860000E+03	4.460020E-16	1.979415E-17
4.870000E+03	4.527544E-16	2.004861E-17
4.880000E+03	4.600164E-16	2.032437E-17
4.890000E+03	4.676449E-16	2.061715E-17
4.900000E+03	4.754591E-16	2.092167E-17
4.910000E+03	4.831633E-16	2.122746E-17
4.920000E+03	4.903733E-16	2.151919E-17
4.930000E+03	4.966069E-16	2.177577E-17
4.940000E+03	5.013455E-16	2.197286E-17
4.950000E+03	5.040793E-16	2.208514E-17
4.960000E+03	5.044213E-16	2.209197E-17
4.970000E+03	5.021759E-16	2.198113E-17
4.980000E+03	4.973810E-16	2.175148E-17
4.990000E+03	4.903519E-16	2.141556E-17
5.000000E+03	4.816447E-16	2.099860E-17
5.010000E+03	4.719732E-16	2.053534E-17
5.020000E+03	4.621076E-16	2.006527E-17
5.030000E+03	4.527997E-16	1.962839E-17
5.040000E+03	4.446822E-16	1.925905E-17
5.050000E+03	4.382217E-16	1.898205E-17
5.060000E+03	4.336935E-16	1.881028E-17
5.070000E+03	4.311974E-16	1.874500E-17
5.080000E+03	4.306838E-16	1.877739E-17
5.090000E+03	4.319720E-16	1.889037E-17
5.100000E+03	4.348152E-16	1.906299E-17
5.110000E+03	4.389194E-16	1.927296E-17
5.120000E+03	4.439940E-16	1.950038E-17
5.130000E+03	4.497815E-16	1.973001E-17
5.140000E+03	4.560830E-16	1.995259E-17
5.150000E+03	4.627698E-16	2.016502E-17
5.160000E+03	4.697994E-16	2.037014E-17
5.170000E+03	4.771829E-16	2.057424E-17
5.180000E+03	4.849927E-16	2.078627E-17
5.190000E+03	4.933127E-16	2.101479E-17
5.200000E+03	5.022247E-16	2.126676E-17
5.210000E+03	5.117799E-16	2.154599E-17
5.220000E+03	5.219819E-16	2.185254E-17
5.230000E+03	5.327674E-16	2.218217E-17
5.240000E+03	5.440369E-16	2.252810E-17
5.250000E+03	5.556117E-16	2.287973E-17
5.260000E+03	5.672975E-16	2.322566E-17
5.270000E+03	5.788466E-16	2.355226E-17
5.280000E+03	5.900098E-16	2.384571E-17
5.290000E+03	6.005225E-16	2.409113E-17
5.300000E+03	6.101311E-16	2.427353E-17
5.310000E+03	6.186220E-16	2.437922E-17
5.320000E+03	6.258090E-16	2.439570E-17
5.330000E+03	6.315858E-16	2.431413E-17
5.340000E+03	6.359066E-16	2.412874E-17
5.350000E+03	6.388029E-16	2.383730E-17
5.360000E+03	6.403834E-16	2.344083E-17
5.370000E+03	6.408124E-16	2.294249E-17
5.380000E+03	6.402865E-16	2.234680E-17
5.390000E+03	6.389975E-16	2.165868E-17
5.400000E+03	6.371447E-16	2.088463E-17
5.410000E+03	6.348932E-16	2.003181E-17
5.420000E+03	6.324032E-16	1.910904E-17
5.430000E+03	6.298151E-16	1.812649E-17
5.440000E+03	6.273222E-16	1.709978E-17
5.450000E+03	6.251452E-16	1.605578E-17
5.460000E+03	6.235835E-16	1.504720E-17
5.470000E+03	6.229238E-16	1.416742E-17
5.480000E+03	6.234240E-16	1.356069E-17
5.490000E+03	6.252846E-16	1.339993E-17
5.500000E+03	6.285077E-16	1.377337E-17
5.510000E+03	6.327811E-16	1.456127E-17
5.520000E+03	6.376110E-16	1.558690E-17
5.530000E+03	6.425390E-16	1.670315E-17
5.540000E+03	6.471532E-16	1.780907E-17
5.550000E+03	6.511750E-16	1.884452E-17
5.560000E+03	6.544414E-16	1.977793E-17
5.570000E+03	6.568862E-16	2.059627E-17
5.580000E+03	6.584964E-16	2.129777E-17
5.590000E+03	6.593076E-16	2.188815E-17
5.600000E+03	6.593640E-16	2.237702E-17
5.610000E+03	6.586955E-16	2.277517E-17
5.620000E+03	6.573185E-16	2.309299E-17
5.630000E+03	6.552520E-16	2.333991E-17
5.640000E+03	6.524937E-16	2.352309E-17
5.650000E+03	6.490659E-16	2.364904E-17
5.660000E+03	6.450084E-16	2.372357E-17
5.670000E+03	6.404033E-16	2.375295E-17
5.680000E+03	6.353702E-16	2.374415E-17
5.690000E+03	6.300782E-16	2.370574E-17
5.700000E+03	6.247546E-16	2.364879E-17
5.710000E+03	6.196748E-16	2.358693E-17
5.720000E+03	6.151419E-16	2.353547E-17
5.730000E+03	6.114974E-16	2.351132E-17
5.740000E+03	6.090795E-16	2.353039E-17
5.750000E+03	6.082008E-16	2.360568E-17
5.760000E+03	6.091258E-16	2.374583E-17
5.770000E+03	6.119961E-16	2.395208E-17
5.780000E+03	6.168488E-16	2.421976E-17
5.790000E+03	6.235474E-16	2.453724E-17
5.800000E+03	6.318032E-16	2.488888E-17
5.810000E+03	6.411637E-16	2.525635E-17
5.820000E+03	6.510496E-16	2.562087E-17
5.830000E+03	6.608200E-16	2.596526E-17
5.840000E+03	6.698302E-16	2.627433E-17
5.850000E+03	6.775493E-16	2.653689E-17
5.860000E+03	6.836169E-16	2.674513E-17
5.870000E+03	6.878821E-16	2.689441E-17
5.880000E+03	6.904239E-16	2.698397E-17
5.890000E+03	6.914434E-16	2.701406E-17
5.900000E+03	6.912477E-16	2.698763E-17
5.910000E+03	6.901226E-16	2.690769E-17
5.920000E+03	6.883080E-16	2.677837E-17
5.930000E+03	6.859707E-16	2.660492E-17
5.940000E+03	6.831761E-16	2.639258E-17
5.950000E+03	6.799564E-16	2.614817E-17
5.960000E+03	6.763227E-16	2.587896E-17
5.970000E+03	6.722762E-16	2.559128E-17
5.980000E+03	6.678793E-16	2.529181E-17
5.990000E+03	6.632349E-16	2.498627E-17
6.000000E+03	6.584800E-16	2.467952E-17
6.010000E+03	6.537851E-16	2.437661E-17
6.020000E+03	6.493289E-16	2.408274E-17
6.030000E+03	6.452770E-16	2.380311E-17
6.040000E+03	6.417863E-16	2.354306E-17
6.050000E+03	6.389910E-16	2.330687E-17
6.060000E+03	6.369472E-16	2.309463E-17
6.070000E+03	6.356791E-16	2.290281E-17
6.080000E+03	6.350836E-16	2.272047E-17
6.090000E+03	6.349926E-16	2.253227E-17
6.100000E+03	6.350988E-16	2.231726E-17
6.110000E+03	6.350413E-16	2.205302E-17
6.120000E+03	6.343888E-16	2.171526E-17
6.130000E+03	6.327325E-16	2.128066E-17
6.140000E+03	6.296889E-16	2.072650E-17
6.150000E+03	6.249645E-16	2.003335E-17
6.160000E+03	6.183675E-16	1.918707E-17
6.170000E+03	6.097334E-16	1.817972E-17
6.180000E+03	5.988933E-16	1.701374E-17
6.190000E+03	5.855418E-16	1.570553E-17
6.200000E+03	5.691555E-16	1.429316E-17
6.210000E+03	5.489768E-16	1.284710E-17
6.220000E+03	5.241664E-16	1.147965E-17
6.230000E+03	4.941474E-16	1.033568E-17
6.240000E+03	4.592206E-16	9.540445E-18
6.250000E+03	4.212288E-16	9.080214E-18
6.260000E+03	3.832254E-16	8.805765E-18
6.270000E+03	3.480390E-16	8.601780E-18
6.280000E+03	3.176430E-16	8.426499E-18
6.290000E+03	2.930913E-16	8.287659E-18
6.300000E+03	2.747354E-16	8.211815E-18
6.310000E+03	2.625074E-16	8.226261E-18
6.320000E+03	2.561563E-16	8.352619E-18
6.330000E+03	2.554109E-16	8.606859E-18
6.340000E+03	2.600481E-16	9.000545E-18
6.350000E+03	2.699370E-16	9.542809E-18
6.360000E+03	2.850090E-16	1.024007E-17
6.370000E+03	3.052081E-16	1.109487E-17
6.380000E+03	3.304154E-16	1.210382E-17
6.390000E+03	3.603651E-16	1.325566E-17
6.400000E+03	3.945702E-16	1.453011E-17
6.410000E+03	4.322713E-16	1.589803E-17
6.420000E+03	4.724607E-16	1.732414E-17
6.430000E+03	5.139344E-16	1.876998E-17
6.440000E+03	5.554265E-16	2.019872E-17
6.450000E+03	5.957501E-16	2.157883E-17
6.460000E+03	6.339093E-16	2.288586E-17
6.470000E+03	6.692263E-16	2.410476E-17
6.480000E+03	7.013146E-16	2.522746E-17
6.490000E+03	7.300650E-16	2.625205E-17
6.500000E+03	7.555409E-16	2.717956E-17
6.510000E+03	7.779593E-16	2.801475E-17
6.520000E+03	7.975654E-16	2.876306E-17
6.530000E+03	8.146529E-16	2.943222E-17
6.540000E+03	8.294934E-16	3.002947E-17
6.550000E+03	8.423715E-16	3.056198E-17
6.560000E+03	8.535456E-16	3.103468E-17
6.570000E+03	8.631876E-16	3.144821E-17
6.580000E+03	8.714422E-16	3.180203E-17
6.590000E+03	8.783687E-16	3.209373E-17
6.600000E+03	8.838896E-16	3.231848E-17
6.610000E+03	8.878982E-16	3.247377E-17
6.620000E+03	8.901743E-16	3.255594E-17
6.630000E+03	8.905490E-16	3.256458E-17
6.640000E+03	8.888469E-16	3.249826E-17
6.650000E+03	8.850409E-16	3.235867E-17
6.660000E+03	8.792241E-16	3.214946E-17
6.670000E+03	8.716100E-16	3.187704E-17
6.680000E+03	8.625465E-16	3.155192E-17
6.690000E+03	8.524039E-16	3.118524E-17
6.700000E+03	8.415578E-16	3.078858E-17
6.710000E+03	8.303386E-16	3.037263E-17
6.720000E+03	8.189572E-16	2.994528E-17
6.730000E+03	8.075282E-16	2.951299E-17
6.740000E+03	7.961230E-16	2.908254E-17
6.750000E+03	7.846952E-16	2.865717E-17
6.760000E+03	7.732088E-16	2.823971E-17
6.770000E+03	7.616099E-16	2.783071E-17
6.780000E+03	7.498490E-16	2.742934E-17
6.790000E+03	7.379218E-16	2.703564E-17
6.800000E+03	7.258575E-16	2.665071E-17
6.810000E+03	7.137257E-16	2.627734E-17
6.820000E+03	7.015844E-16	2.591795E-17
6.830000E+03	6.894924E-16	2.557421E-17
6.840000E+03	6.775209E-16	2.524668E-17
6.850000E+03	6.657086E-16	2.493235E-17
6.860000E+03	6.540767E-16	2.462523E-17
6.870000E+03	6.426272E-16	2.431755E-17
6.880000E+03	6.313842E-16	2.400321E-17
6.890000E+03	6.204100E-16	2.368007E-17
6.900000E+03	6.097821E-16	2.334988E-17
6.910000E+03	5.996327E-16	2.301937E-17
6.920000E+03	5.901284E-16	2.269823E-17
6.930000E+03	5.814505E-16	2.239689E-17
6.940000E+03	5.737670E-16	2.212418E-17
6.950000E+03	5.672028E-16	2.188592E-17
6.960000E+03	5.618018E-16	2.168419E-17
6.970000E+03	5.575301E-16	2.151852E-17
6.980000E+03	5.542710E-16	2.138609E-17
6.990000E+03	5.518147E-16	2.128081E-17
7.000000E+03	5.498721E-16	2.119294E-17
7.010000E+03	5.481753E-16	2.111254E-17
7.020000E+03	5.464414E-16	2.102858E-17
7.030000E+03	5.444511E-16	2.093301E-17
7.040000E+03	5.420519E-16	2.082142E-17
7.050000E+03	5.391970E-16	2.069420E-17
7.060000E+03	5.359047E-16	2.055429E-17
7.070000E+03	5.322500E-16	2.040634E-17
7.080000E+03	5.283293E-16	2.025570E-17
7.090000E+03	5.242578E-16	2.010886E-17
7.100000E+03	5.201499E-16	1.997260E-17
7.110000E+03	5.160758E-16	1.985127E-17
7.120000E+03	5.120784E-16	1.974597E-17
7.130000E+03	5.082066E-16	1.965490E-17
7.140000E+03	5.044612E-16	1.957164E-17
7.150000E+03	5.008453E-16	1.948863E-17
7.160000E+03	4.973525E-16	1.939855E-17
7.170000E+03	4.940006E-16	1.929721E-17
7.180000E+03	4.908012E-16	1.918345E-17
7.190000E+03	4.877551E-16	1.905927E-17
7.200000E+03	4.848654E-16	1.892991E-17
7.210000E+03	4.821316E-16	1.880249E-17
7.220000E+03	4.795153E-16	1.868294E-17
7.230000E+03	4.769718E-16	1.857528E-17
7.240000E+03	4.744448E-16	1.847990E-17
7.250000E+03	4.718762E-16	1.839352E-17
7.260000E+03	4.692071E-16	1.831023E-17
7.270000E+03	4.664270E-16	1.822522E-17
7.280000E+03	4.635228E-16	1.813435E-17
7.290000E+03	4.605007E-16	1.803580E-17
7.300000E+03	4.574423E-16	1.793229E-17
7.310000E+03	4.543908E-16	1.782616E-17
7.320000E+03	4.514484E-16	1.772246E-17
7.330000E+03	4.486885E-16	1.762491E-17
7.340000E+03	4.461850E-16	1.753654E-17
7.350000E+03	4.439858E-16	1.745851E-17
7.360000E+03	4.421258E-16	1.739074E-17
7.370000E+03	4.406140E-16	1.733156E-17
7.380000E+03	4.394296E-16	1.727809E-17
7.390000E+03	4.385021E-16	1.722578E-17
7.400000E+03	4.377591E-16	1.717055E-17
7.410000E+03	4.370734E-16	1.710663E-17
7.420000E+03	4.363081E-16	1.702802E-17
7.430000E+03	4.353178E-16	1.692788E-17
7.440000E+03	4.339807E-16	1.679913E-17
7.450000E+03	4.321823E-16	1.663318E-17
7.460000E+03	4.298534E-16	1.642130E-17
7.470000E+03	4.269554E-16	1.615470E-17
7.480000E+03	4.234512E-16	1.582445E-17
7.490000E+03	4.193492E-16	1.542430E-17
7.500000E+03	4.146880E-16	1.495073E-17
7.510000E+03	4.094867E-16	1.440150E-17
7.520000E+03	4.038184E-16	1.377837E-17
7.530000E+03	3.977581E-16	1.308512E-17
7.540000E+03	3.914091E-16	1.232864E-17
7.550000E+03	3.849133E-16	1.151980E-17
7.560000E+03	3.784606E-16	1.067537E-17
7.570000E+03	3.723026E-16	9.821764E-18
7.580000E+03	3.667225E-16	9.000277E-18
7.590000E+03	3.620562E-16	8.276732E-18
7.600000E+03	3.586366E-16	7.747336E-18
7.610000E+03	3.567939E-16	7.529009E-18
7.620000E+03	3.567177E-16	7.697588E-18
7.630000E+03	3.581927E-16	8.186832E-18
7.640000E+03	3.608693E-16	8.878615E-18
7.650000E+03	3.643861E-16	9.673577E-18
7.660000E+03	3.684071E-16	1.050449E-17
7.670000E+03	3.726675E-16	1.133092E-17
7.680000E+03	3.769475E-16	1.212874E-17
7.690000E+03	3.811160E-16	1.288411E-17
7.700000E+03	3.850617E-16	1.358711E-17
7.710000E+03	3.887468E-16	1.423224E-17
7.720000E+03	3.921522E-16	1.481694E-17
7.730000E+03	3.953059E-16	1.534342E-17
7.740000E+03	3.982476E-16	1.581771E-17
7.750000E+03	4.010315E-16	1.624915E-17
7.760000E+03	4.037086E-16	1.664825E-17
