#wls	flux	fluxerr
1.600000E+03	2.117447E-17	1.379422E-17
1.640000E+03	2.133369E-17	1.348439E-17
1.680000E+03	2.149430E-17	1.316756E-17
1.720000E+03	2.166386E-17	1.285233E-17
1.760000E+03	2.183321E-17	1.253788E-17
1.800000E+03	2.200575E-17	1.223180E-17
1.840000E+03	2.218080E-17	1.193971E-17
1.880000E+03	2.236648E-17	1.167209E-17
1.920000E+03	2.254960E-17	1.142789E-17
1.960000E+03	2.274330E-17	1.121889E-17
2.000000E+03	2.294391E-17	1.104651E-17
2.040000E+03	2.315273E-17	1.091241E-17
2.080000E+03	2.337627E-17	1.081779E-17
2.120000E+03	2.361311E-17	1.075713E-17
2.160000E+03	2.387611E-17	1.072875E-17
2.200000E+03	2.416574E-17	1.072334E-17
2.240000E+03	2.448778E-17	1.073309E-17
2.280000E+03	2.485340E-17	1.075268E-17
2.320000E+03	2.526995E-17	1.077616E-17
2.360000E+03	2.574532E-17	1.079967E-17
2.400000E+03	2.629250E-17	1.082372E-17
2.440000E+03	2.691543E-17	1.084748E-17
2.480000E+03	2.763229E-17	1.087822E-17
2.520000E+03	2.845194E-17	1.092108E-17
2.560000E+03	2.937808E-17	1.098021E-17
2.600000E+03	3.042869E-17	1.106485E-17
2.640000E+03	3.161153E-17	1.117844E-17
2.680000E+03	3.293858E-17	1.132269E-17
2.720000E+03	3.442078E-17	1.149448E-17
2.760000E+03	3.606189E-17	1.168347E-17
2.800000E+03	3.786821E-17	1.187577E-17
2.840000E+03	3.985418E-17	1.205642E-17
2.880000E+03	4.200669E-17	1.219999E-17
2.920000E+03	4.432995E-17	1.228663E-17
2.960000E+03	4.680941E-17	1.229369E-17
3.000000E+03	4.943510E-17	1.220550E-17
3.010000E+03	5.010940E-17	1.216656E-17
3.020000E+03	5.079483E-17	1.212181E-17
3.030000E+03	5.148419E-17	1.206959E-17
3.040000E+03	5.217674E-17	1.200987E-17
3.050000E+03	5.287844E-17	1.194422E-17
3.060000E+03	5.358865E-17	1.187265E-17
3.070000E+03	5.430676E-17	1.179524E-17
3.080000E+03	5.502538E-17	1.171067E-17
3.090000E+03	5.574384E-17	1.161918E-17
3.100000E+03	5.647523E-17	1.152386E-17
3.110000E+03	5.720544E-17	1.142216E-17
3.120000E+03	5.794096E-17	1.131581E-17
3.130000E+03	5.868845E-17	1.120645E-17
3.140000E+03	5.943403E-17	1.109179E-17
3.150000E+03	6.018469E-17	1.097354E-17
3.160000E+03	6.094070E-17	1.085207E-17
3.170000E+03	6.170957E-17	1.072898E-17
3.180000E+03	6.248510E-17	1.060334E-17
3.190000E+03	6.326832E-17	1.047547E-17
3.200000E+03	6.406054E-17	1.034565E-17
3.210000E+03	6.487040E-17	1.021519E-17
3.220000E+03	6.569984E-17	1.008418E-17
3.230000E+03	6.654399E-17	9.951578E-18
3.240000E+03	6.740525E-17	9.817396E-18
3.250000E+03	6.830048E-17	9.683596E-18
3.260000E+03	6.921833E-17	9.547944E-18
3.270000E+03	7.016886E-17	9.411220E-18
3.280000E+03	7.115511E-17	9.273130E-18
3.290000E+03	7.218726E-17	9.134264E-18
3.300000E+03	7.325394E-17	8.992469E-18
3.310000E+03	7.437226E-17	8.849260E-18
3.320000E+03	7.553757E-17	8.703535E-18
3.330000E+03	7.675930E-17	8.556037E-18
3.340000E+03	7.803201E-17	8.406046E-18
3.350000E+03	7.935695E-17	8.253970E-18
3.360000E+03	8.074952E-17	8.102057E-18
3.370000E+03	8.219522E-17	7.949987E-18
3.380000E+03	8.370826E-17	7.800978E-18
3.390000E+03	8.527264E-17	7.656114E-18
3.400000E+03	8.690124E-17	7.520071E-18
3.410000E+03	8.858395E-17	7.396406E-18
3.420000E+03	9.031733E-17	7.290327E-18
3.430000E+03	9.210482E-17	7.208528E-18
3.440000E+03	9.393412E-17	7.157163E-18
3.450000E+03	9.581517E-17	7.144409E-18
3.460000E+03	9.772689E-17	7.175708E-18
3.470000E+03	9.967067E-17	7.256877E-18
3.480000E+03	1.016476E-16	7.391161E-18
3.490000E+03	1.036426E-16	7.577276E-18
3.500000E+03	1.056483E-16	7.811376E-18
3.510000E+03	1.076650E-16	8.088001E-18
3.520000E+03	1.096857E-16	8.399820E-18
3.530000E+03	1.116959E-16	8.738289E-18
3.540000E+03	1.137053E-16	9.096646E-18
3.550000E+03	1.157008E-16	9.466617E-18
3.560000E+03	1.176778E-16	9.841079E-18
3.570000E+03	1.196327E-16	1.021359E-17
3.580000E+03	1.215785E-16	1.057980E-17
3.590000E+03	1.234974E-16	1.093342E-17
3.600000E+03	1.253961E-16	1.127090E-17
3.610000E+03	1.272745E-16	1.158871E-17
3.620000E+03	1.291410E-16	1.188469E-17
3.630000E+03	1.309818E-16	1.215517E-17
3.640000E+03	1.328227E-16	1.240065E-17
3.650000E+03	1.346520E-16	1.261858E-17
3.660000E+03	1.364898E-16	1.280987E-17
3.670000E+03	1.383266E-16	1.297300E-17
3.680000E+03	1.401850E-16	1.310985E-17
3.690000E+03	1.420656E-16	1.322060E-17
3.700000E+03	1.439861E-16	1.330726E-17
3.710000E+03	1.459574E-16	1.337155E-17
3.720000E+03	1.479920E-16	1.341553E-17
3.730000E+03	1.500964E-16	1.344090E-17
3.740000E+03	1.523081E-16	1.345231E-17
3.750000E+03	1.546211E-16	1.345063E-17
3.760000E+03	1.570746E-16	1.344082E-17
3.770000E+03	1.596716E-16	1.342467E-17
3.780000E+03	1.624370E-16	1.340594E-17
3.790000E+03	1.653957E-16	1.338826E-17
3.800000E+03	1.685569E-16	1.337389E-17
3.810000E+03	1.719362E-16	1.336537E-17
3.820000E+03	1.755552E-16	1.336529E-17
3.830000E+03	1.794266E-16	1.337504E-17
3.840000E+03	1.835599E-16	1.339531E-17
3.850000E+03	1.879529E-16	1.342562E-17
3.860000E+03	1.926194E-16	1.346648E-17
3.870000E+03	1.975517E-16	1.351679E-17
3.880000E+03	2.027261E-16	1.357455E-17
3.890000E+03	2.081177E-16	1.363794E-17
3.900000E+03	2.137073E-16	1.370589E-17
3.910000E+03	2.194369E-16	1.377523E-17
3.920000E+03	2.252625E-16	1.384421E-17
3.930000E+03	2.311260E-16	1.391057E-17
3.940000E+03	2.369648E-16	1.397211E-17
3.950000E+03	2.427138E-16	1.402660E-17
3.960000E+03	2.483158E-16	1.407223E-17
3.970000E+03	2.537001E-16	1.410623E-17
3.980000E+03	2.588075E-16	1.412623E-17
3.990000E+03	2.635836E-16	1.413003E-17
4.000000E+03	2.679874E-16	1.411627E-17
4.010000E+03	2.719609E-16	1.408299E-17
4.020000E+03	2.754846E-16	1.403066E-17
4.030000E+03	2.785325E-16	1.395973E-17
4.040000E+03	2.810737E-16	1.387063E-17
4.050000E+03	2.831122E-16	1.376557E-17
4.060000E+03	2.846644E-16	1.364715E-17
4.070000E+03	2.857369E-16	1.351711E-17
4.080000E+03	2.863631E-16	1.337792E-17
4.090000E+03	2.865927E-16	1.323209E-17
4.100000E+03	2.864746E-16	1.308129E-17
4.110000E+03	2.860469E-16	1.292608E-17
4.120000E+03	2.853678E-16	1.276740E-17
4.130000E+03	2.844783E-16	1.260518E-17
4.140000E+03	2.834272E-16	1.243971E-17
4.150000E+03	2.822382E-16	1.227056E-17
4.160000E+03	2.809475E-16	1.209845E-17
4.170000E+03	2.795735E-16	1.192408E-17
4.180000E+03	2.781297E-16	1.174877E-17
4.190000E+03	2.766371E-16	1.157477E-17
4.200000E+03	2.750958E-16	1.140377E-17
4.210000E+03	2.735151E-16	1.123767E-17
4.220000E+03	2.718966E-16	1.107758E-17
4.230000E+03	2.702474E-16	1.092417E-17
4.240000E+03	2.685696E-16	1.077735E-17
4.250000E+03	2.668673E-16	1.063670E-17
4.260000E+03	2.651507E-16	1.050190E-17
4.270000E+03	2.634213E-16	1.037248E-17
4.280000E+03	2.616858E-16	1.024846E-17
4.290000E+03	2.599558E-16	1.013029E-17
4.300000E+03	2.582387E-16	1.001834E-17
4.310000E+03	2.565344E-16	9.912581E-18
4.320000E+03	2.548631E-16	9.813633E-18
4.330000E+03	2.532309E-16	9.721496E-18
4.340000E+03	2.516571E-16	9.636693E-18
4.350000E+03	2.501647E-16	9.560150E-18
4.360000E+03	2.487718E-16	9.493066E-18
4.370000E+03	2.475061E-16	9.437480E-18
4.380000E+03	2.463927E-16	9.395512E-18
4.390000E+03	2.454561E-16	9.368632E-18
4.400000E+03	2.447157E-16	9.356332E-18
4.410000E+03	2.441921E-16	9.356496E-18
4.420000E+03	2.439028E-16	9.366494E-18
4.430000E+03	2.438619E-16	9.384080E-18
4.440000E+03	2.440763E-16	9.407638E-18
4.450000E+03	2.445554E-16	9.436621E-18
4.460000E+03	2.453015E-16	9.470949E-18
4.470000E+03	2.463227E-16	9.511189E-18
4.480000E+03	2.476197E-16	9.557610E-18
4.490000E+03	2.491924E-16	9.610151E-18
4.500000E+03	2.510349E-16	9.668311E-18
4.510000E+03	2.531332E-16	9.731326E-18
4.520000E+03	2.554608E-16	9.798217E-18
4.530000E+03	2.579869E-16	9.868296E-18
4.540000E+03	2.606704E-16	9.940931E-18
4.550000E+03	2.634532E-16	1.001522E-17
4.560000E+03	2.662758E-16	1.009048E-17
4.570000E+03	2.690662E-16	1.016563E-17
4.580000E+03	2.717567E-16	1.023965E-17
4.590000E+03	2.742742E-16	1.031108E-17
4.600000E+03	2.765611E-16	1.037873E-17
4.610000E+03	2.785548E-16	1.044075E-17
4.620000E+03	2.802175E-16	1.049575E-17
4.630000E+03	2.815103E-16	1.054179E-17
4.640000E+03	2.824201E-16	1.057756E-17
4.650000E+03	2.829337E-16	1.060167E-17
4.660000E+03	2.830517E-16	1.061353E-17
4.670000E+03	2.827714E-16	1.061289E-17
4.680000E+03	2.820963E-16	1.060024E-17
4.690000E+03	2.810353E-16	1.057653E-17
4.700000E+03	2.795927E-16	1.054254E-17
4.710000E+03	2.777836E-16	1.049921E-17
4.720000E+03	2.756186E-16	1.044686E-17
4.730000E+03	2.731255E-16	1.038592E-17
4.740000E+03	2.703363E-16	1.031661E-17
4.750000E+03	2.672867E-16	1.023912E-17
4.760000E+03	2.640168E-16	1.015387E-17
4.770000E+03	2.605856E-16	1.006222E-17
4.780000E+03	2.570431E-16	9.965488E-18
4.790000E+03	2.534576E-16	9.865926E-18
4.800000E+03	2.498970E-16	9.765835E-18
4.810000E+03	2.464347E-16	9.667561E-18
4.820000E+03	2.431544E-16	9.573498E-18
4.830000E+03	2.401343E-16	9.485450E-18
4.840000E+03	2.374568E-16	9.405066E-18
4.850000E+03	2.352032E-16	9.333745E-18
4.860000E+03	2.334538E-16	9.272816E-18
4.870000E+03	2.322765E-16	9.223273E-18
4.880000E+03	2.317319E-16	9.186136E-18
4.890000E+03	2.318687E-16	9.162402E-18
4.900000E+03	2.327215E-16	9.153043E-18
4.910000E+03	2.343028E-16	9.158734E-18
4.920000E+03	2.366169E-16	9.180380E-18
4.930000E+03	2.396360E-16	9.218128E-18
4.940000E+03	2.433155E-16	9.271943E-18
4.950000E+03	2.475817E-16	9.341169E-18
4.960000E+03	2.523268E-16	9.424417E-18
4.970000E+03	2.574232E-16	9.520107E-18
4.980000E+03	2.627192E-16	9.626277E-18
4.990000E+03	2.680339E-16	9.740239E-18
5.000000E+03	2.731967E-16	9.859674E-18
5.010000E+03	2.780233E-16	9.981387E-18
5.020000E+03	2.823626E-16	1.010247E-17
5.030000E+03	2.860848E-16	1.021939E-17
5.040000E+03	2.891032E-16	1.032842E-17
5.050000E+03	2.913761E-16	1.042567E-17
5.060000E+03	2.929082E-16	1.050715E-17
5.070000E+03	2.937463E-16	1.056907E-17
5.080000E+03	2.939714E-16	1.060813E-17
5.090000E+03	2.936885E-16	1.062179E-17
5.100000E+03	2.930144E-16	1.060865E-17
5.110000E+03	2.920634E-16	1.056853E-17
5.120000E+03	2.909503E-16	1.050306E-17
5.130000E+03	2.897625E-16	1.041478E-17
5.140000E+03	2.885821E-16	1.030788E-17
5.150000E+03	2.874607E-16	1.018699E-17
5.160000E+03	2.864439E-16	1.005769E-17
5.170000E+03	2.855661E-16	9.925785E-18
5.180000E+03	2.848457E-16	9.796608E-18
5.190000E+03	2.843089E-16	9.675345E-18
5.200000E+03	2.839677E-16	9.565821E-18
5.210000E+03	2.838448E-16	9.471035E-18
5.220000E+03	2.839515E-16	9.392400E-18
5.230000E+03	2.842984E-16	9.330192E-18
5.240000E+03	2.848905E-16	9.283510E-18
5.250000E+03	2.857261E-16	9.250488E-18
5.260000E+03	2.867952E-16	9.228479E-18
5.270000E+03	2.880819E-16	9.214374E-18
5.280000E+03	2.895558E-16	9.204711E-18
5.290000E+03	2.911817E-16	9.196368E-18
5.300000E+03	2.929210E-16	9.186844E-18
5.310000E+03	2.947252E-16	9.174209E-18
5.320000E+03	2.965481E-16	9.157425E-18
5.330000E+03	2.983467E-16	9.136060E-18
5.340000E+03	3.000843E-16	9.110042E-18
5.350000E+03	3.017375E-16	9.079342E-18
5.360000E+03	3.032885E-16	9.043284E-18
5.370000E+03	3.047338E-16	9.000665E-18
5.380000E+03	3.060798E-16	8.949637E-18
5.390000E+03	3.073406E-16	8.887902E-18
5.400000E+03	3.085420E-16	8.813391E-18
5.410000E+03	3.097094E-16	8.724553E-18
5.420000E+03	3.108885E-16	8.621433E-18
5.430000E+03	3.121361E-16	8.505897E-18
5.440000E+03	3.135103E-16	8.381888E-18
5.450000E+03	3.150859E-16	8.256818E-18
5.460000E+03	3.169292E-16	8.142702E-18
5.470000E+03	3.190996E-16	8.057844E-18
5.480000E+03	3.216236E-16	8.025798E-18
5.490000E+03	3.244886E-16	8.069825E-18
5.500000E+03	3.276180E-16	8.200129E-18
5.510000E+03	3.308611E-16	8.405807E-18
5.520000E+03	3.340117E-16	8.662525E-18
5.530000E+03	3.368393E-16	8.943132E-18
5.540000E+03	3.390997E-16	9.222330E-18
5.550000E+03	3.405813E-16	9.479035E-18
5.560000E+03	3.411063E-16	9.696214E-18
5.570000E+03	3.405503E-16	9.860970E-18
5.580000E+03	3.388595E-16	9.965101E-18
5.590000E+03	3.360397E-16	1.000511E-17
5.600000E+03	3.321562E-16	9.982391E-18
5.610000E+03	3.273125E-16	9.902712E-18
5.620000E+03	3.216477E-16	9.775784E-18
5.630000E+03	3.153198E-16	9.614057E-18
5.640000E+03	3.085003E-16	9.431454E-18
5.650000E+03	3.013614E-16	9.241658E-18
5.660000E+03	2.940720E-16	9.056752E-18
5.670000E+03	2.868211E-16	8.887152E-18
5.680000E+03	2.797904E-16	8.740282E-18
5.690000E+03	2.731876E-16	8.621538E-18
5.700000E+03	2.672237E-16	8.534115E-18
5.710000E+03	2.621114E-16	8.479675E-18
5.720000E+03	2.580636E-16	8.459008E-18
5.730000E+03	2.552836E-16	8.472432E-18
5.740000E+03	2.539603E-16	8.520168E-18
5.750000E+03	2.542538E-16	8.602117E-18
5.760000E+03	2.563104E-16	8.718533E-18
5.770000E+03	2.602440E-16	8.869504E-18
5.780000E+03	2.661303E-16	9.054679E-18
5.790000E+03	2.740092E-16	9.273283E-18
5.800000E+03	2.838572E-16	9.523121E-18
5.810000E+03	2.955822E-16	9.800601E-18
5.820000E+03	3.089896E-16	1.010014E-17
5.830000E+03	3.237760E-16	1.041467E-17
5.840000E+03	3.395236E-16	1.073618E-17
5.850000E+03	3.557068E-16	1.105640E-17
5.860000E+03	3.717097E-16	1.136709E-17
5.870000E+03	3.868618E-16	1.166015E-17
5.880000E+03	4.005155E-16	1.192818E-17
5.890000E+03	4.120843E-16	1.216319E-17
5.900000E+03	4.211117E-16	1.235665E-17
5.910000E+03	4.273230E-16	1.250028E-17
5.920000E+03	4.306122E-16	1.258607E-17
5.930000E+03	4.310596E-16	1.260811E-17
5.940000E+03	4.289020E-16	1.256365E-17
5.950000E+03	4.244813E-16	1.245341E-17
5.960000E+03	4.182096E-16	1.228173E-17
5.970000E+03	4.105407E-16	1.205648E-17
5.980000E+03	4.019068E-16	1.178736E-17
5.990000E+03	3.927168E-16	1.148578E-17
6.000000E+03	3.833367E-16	1.116429E-17
6.010000E+03	3.740662E-16	1.083568E-17
6.020000E+03	3.651597E-16	1.051280E-17
6.030000E+03	3.568132E-16	1.020708E-17
6.040000E+03	3.491687E-16	9.927336E-18
6.050000E+03	3.423241E-16	9.679151E-18
6.060000E+03	3.363453E-16	9.465272E-18
6.070000E+03	3.312597E-16	9.285770E-18
6.080000E+03	3.270712E-16	9.138851E-18
6.090000E+03	3.237595E-16	9.021235E-18
6.100000E+03	3.212902E-16	8.928596E-18
6.110000E+03	3.196154E-16	8.855320E-18
6.120000E+03	3.186697E-16	8.794074E-18
6.130000E+03	3.183847E-16	8.735776E-18
6.140000E+03	3.186855E-16	8.669249E-18
6.150000E+03	3.194878E-16	8.581550E-18
6.160000E+03	3.207110E-16	8.459266E-18
6.170000E+03	3.222765E-16	8.290066E-18
6.180000E+03	3.241025E-16	8.065258E-18
6.190000E+03	3.261082E-16	7.783609E-18
6.200000E+03	3.282118E-16	7.456030E-18
6.210000E+03	3.303090E-16	7.110939E-18
6.220000E+03	3.322753E-16	6.799544E-18
6.230000E+03	3.339716E-16	6.593836E-18
6.240000E+03	3.352525E-16	6.563421E-18
6.250000E+03	3.359972E-16	6.730723E-18
6.260000E+03	3.361230E-16	7.054890E-18
6.270000E+03	3.355919E-16	7.467632E-18
6.280000E+03	3.344068E-16	7.907774E-18
6.290000E+03	3.326113E-16	8.332699E-18
6.300000E+03	3.302922E-16	8.717594E-18
6.310000E+03	3.275822E-16	9.051248E-18
6.320000E+03	3.246348E-16	9.331093E-18
6.330000E+03	3.216305E-16	9.560071E-18
6.340000E+03	3.187508E-16	9.743599E-18
6.350000E+03	3.161840E-16	9.888286E-18
6.360000E+03	3.140792E-16	9.999960E-18
6.370000E+03	3.125700E-16	1.008438E-17
6.380000E+03	3.117330E-16	1.014614E-17
6.390000E+03	3.115957E-16	1.018932E-17
6.400000E+03	3.121450E-16	1.021821E-17
6.410000E+03	3.133133E-16	1.023708E-17
6.420000E+03	3.149867E-16	1.025036E-17
6.430000E+03	3.170338E-16	1.026319E-17
6.440000E+03	3.192925E-16	1.028025E-17
6.450000E+03	3.216081E-16	1.030631E-17
6.460000E+03	3.238242E-16	1.034504E-17
6.470000E+03	3.258072E-16	1.039902E-17
6.480000E+03	3.274530E-16	1.046962E-17
6.490000E+03	3.286904E-16	1.055696E-17
6.500000E+03	3.295003E-16	1.066052E-17
6.510000E+03	3.298977E-16	1.077875E-17
6.520000E+03	3.299445E-16	1.090968E-17
6.530000E+03	3.297444E-16	1.105098E-17
6.540000E+03	3.294254E-16	1.119974E-17
6.550000E+03	3.291286E-16	1.135253E-17
6.560000E+03	3.289917E-16	1.150531E-17
6.570000E+03	3.291393E-16	1.165373E-17
6.580000E+03	3.296462E-16	1.179258E-17
6.590000E+03	3.305579E-16	1.191720E-17
6.600000E+03	3.318513E-16	1.202275E-17
6.610000E+03	3.334643E-16	1.210597E-17
6.620000E+03	3.352859E-16	1.216515E-17
6.630000E+03	3.371722E-16	1.220075E-17
6.640000E+03	3.389467E-16	1.221490E-17
6.650000E+03	3.404323E-16	1.221172E-17
6.660000E+03	3.414358E-16	1.219553E-17
6.670000E+03	3.418038E-16	1.217137E-17
6.680000E+03	3.413976E-16	1.214263E-17
6.690000E+03	3.401214E-16	1.211107E-17
6.700000E+03	3.379234E-16	1.207638E-17
6.710000E+03	3.347975E-16	1.203620E-17
6.720000E+03	3.307812E-16	1.198671E-17
6.730000E+03	3.259542E-16	1.192355E-17
6.740000E+03	3.204173E-16	1.184221E-17
6.750000E+03	3.143095E-16	1.173997E-17
6.760000E+03	3.077742E-16	1.161565E-17
6.770000E+03	3.009659E-16	1.147050E-17
6.780000E+03	2.940399E-16	1.130794E-17
6.790000E+03	2.871463E-16	1.113319E-17
6.800000E+03	2.804265E-16	1.095268E-17
6.810000E+03	2.740141E-16	1.077355E-17
6.820000E+03	2.680239E-16	1.060274E-17
6.830000E+03	2.625622E-16	1.044694E-17
6.840000E+03	2.577242E-16	1.031220E-17
6.850000E+03	2.535949E-16	1.020381E-17
6.860000E+03	2.502506E-16	1.012620E-17
6.870000E+03	2.477588E-16	1.008301E-17
6.880000E+03	2.461789E-16	1.007703E-17
6.890000E+03	2.455639E-16	1.011033E-17
6.900000E+03	2.459491E-16	1.018376E-17
6.910000E+03	2.473699E-16	1.029777E-17
6.920000E+03	2.498367E-16	1.045134E-17
6.930000E+03	2.533547E-16	1.064295E-17
6.940000E+03	2.578978E-16	1.086964E-17
6.950000E+03	2.634145E-16	1.112745E-17
6.960000E+03	2.698191E-16	1.141131E-17
6.970000E+03	2.769853E-16	1.171510E-17
6.980000E+03	2.847424E-16	1.203173E-17
6.990000E+03	2.928753E-16	1.235334E-17
7.000000E+03	3.011293E-16	1.267154E-17
7.010000E+03	3.092208E-16	1.297773E-17
7.020000E+03	3.168521E-16	1.326348E-17
7.030000E+03	3.237319E-16	1.352088E-17
7.040000E+03	3.295971E-16	1.374299E-17
7.050000E+03	3.342364E-16	1.392435E-17
7.060000E+03	3.374913E-16	1.406063E-17
7.070000E+03	3.392908E-16	1.414990E-17
7.080000E+03	3.396430E-16	1.419232E-17
7.090000E+03	3.386227E-16	1.418986E-17
7.100000E+03	3.363697E-16	1.414647E-17
7.110000E+03	3.330873E-16	1.406839E-17
7.120000E+03	3.289996E-16	1.396264E-17
7.130000E+03	3.243509E-16	1.383725E-17
7.140000E+03	3.193857E-16	1.370056E-17
7.150000E+03	3.143341E-16	1.356071E-17
7.160000E+03	3.094011E-16	1.342520E-17
7.170000E+03	3.047626E-16	1.330071E-17
7.180000E+03	3.005451E-16	1.319211E-17
7.190000E+03	2.968500E-16	1.310349E-17
7.200000E+03	2.937277E-16	1.303690E-17
7.210000E+03	2.911989E-16	1.299323E-17
7.220000E+03	2.892426E-16	1.297168E-17
7.230000E+03	2.878135E-16	1.297053E-17
7.240000E+03	2.868436E-16	1.298733E-17
7.250000E+03	2.862520E-16	1.301943E-17
7.260000E+03	2.859406E-16	1.306380E-17
7.270000E+03	2.858141E-16	1.311807E-17
7.280000E+03	2.857750E-16	1.318023E-17
7.290000E+03	2.857251E-16	1.324859E-17
7.300000E+03	2.855962E-16	1.332311E-17
7.310000E+03	2.853203E-16	1.340375E-17
7.320000E+03	2.848471E-16	1.349110E-17
7.330000E+03	2.841526E-16	1.358654E-17
7.340000E+03	2.832277E-16	1.369134E-17
7.350000E+03	2.820774E-16	1.380638E-17
7.360000E+03	2.807325E-16	1.393238E-17
7.370000E+03	2.792254E-16	1.406842E-17
7.380000E+03	2.776008E-16	1.421236E-17
7.390000E+03	2.759123E-16	1.436058E-17
7.400000E+03	2.742047E-16	1.450711E-17
7.410000E+03	2.725323E-16	1.464479E-17
7.420000E+03	2.709454E-16	1.476488E-17
7.430000E+03	2.694810E-16	1.485700E-17
7.440000E+03	2.681733E-16	1.491028E-17
7.450000E+03	2.670527E-16	1.491392E-17
7.460000E+03	2.661321E-16	1.485686E-17
7.470000E+03	2.654279E-16	1.472923E-17
7.480000E+03	2.649497E-16	1.452185E-17
7.490000E+03	2.646893E-16	1.422566E-17
7.500000E+03	2.646423E-16	1.383302E-17
7.510000E+03	2.647939E-16	1.333706E-17
7.520000E+03	2.651189E-16	1.273205E-17
7.530000E+03	2.655895E-16	1.201434E-17
7.540000E+03	2.661757E-16	1.118333E-17
7.550000E+03	2.668358E-16	1.024267E-17
7.560000E+03	2.675286E-16	9.203766E-18
7.570000E+03	2.682117E-16	8.091121E-18
7.580000E+03	2.688437E-16	6.953282E-18
7.590000E+03	2.693860E-16	5.884139E-18
7.600000E+03	2.698048E-16	5.055842E-18
7.610000E+03	2.700692E-16	4.717433E-18
7.620000E+03	2.701667E-16	5.033234E-18
7.630000E+03	2.700927E-16	5.896579E-18
7.640000E+03	2.698614E-16	7.070588E-18
7.650000E+03	2.694896E-16	8.375208E-18
7.660000E+03	2.689938E-16	9.707976E-18
7.670000E+03	2.683961E-16	1.101382E-17
7.680000E+03	2.677220E-16	1.226298E-17
7.690000E+03	2.669868E-16	1.343889E-17
7.700000E+03	2.662053E-16	1.453277E-17
7.710000E+03	2.653903E-16	1.554055E-17
7.720000E+03	2.645414E-16	1.646049E-17
7.730000E+03	2.636595E-16	1.729297E-17
7.740000E+03	2.627328E-16	1.803896E-17
7.750000E+03	2.617491E-16	1.870035E-17
7.760000E+03	2.606967E-16	1.927975E-17
