#wls	flux	fluxerr
1.600000E+03	1.651345E-17	1.241064E-17
1.640000E+03	1.678320E-17	1.241945E-17
1.680000E+03	1.706413E-17	1.243175E-17
1.720000E+03	1.736285E-17	1.245328E-17
1.760000E+03	1.767696E-17	1.248321E-17
1.800000E+03	1.800722E-17	1.252300E-17
1.840000E+03	1.835775E-17	1.257633E-17
1.880000E+03	1.872978E-17	1.264460E-17
1.920000E+03	1.912479E-17	1.272905E-17
1.960000E+03	1.954454E-17	1.283069E-17
2.000000E+03	1.999109E-17	1.295025E-17
2.040000E+03	2.047038E-17	1.309027E-17
2.080000E+03	2.098898E-17	1.325293E-17
2.120000E+03	2.154335E-17	1.343331E-17
2.160000E+03	2.214459E-17	1.363497E-17
2.200000E+03	2.279735E-17	1.385668E-17
2.240000E+03	2.350677E-17	1.409683E-17
2.280000E+03	2.427849E-17	1.435351E-17
2.320000E+03	2.512647E-17	1.462910E-17
2.360000E+03	2.605357E-17	1.491874E-17
2.400000E+03	2.707085E-17	1.522174E-17
2.440000E+03	2.818988E-17	1.553678E-17
2.480000E+03	2.941382E-17	1.585694E-17
2.520000E+03	3.076296E-17	1.618338E-17
2.560000E+03	3.223519E-17	1.650373E-17
2.600000E+03	3.384987E-17	1.681512E-17
2.640000E+03	3.560648E-17	1.710227E-17
2.680000E+03	3.752128E-17	1.735584E-17
2.720000E+03	3.958755E-17	1.755299E-17
2.760000E+03	4.180863E-17	1.767350E-17
2.800000E+03	4.417642E-17	1.769027E-17
2.840000E+03	4.667406E-17	1.757219E-17
2.880000E+03	4.927343E-17	1.728526E-17
2.920000E+03	5.194422E-17	1.679883E-17
2.960000E+03	5.462177E-17	1.607886E-17
3.000000E+03	5.723946E-17	1.510522E-17
3.010000E+03	5.787195E-17	1.482039E-17
3.020000E+03	5.849572E-17	1.451993E-17
3.030000E+03	5.910259E-17	1.420244E-17
3.040000E+03	5.969670E-17	1.386976E-17
3.050000E+03	6.027591E-17	1.352226E-17
3.060000E+03	6.083173E-17	1.315914E-17
3.070000E+03	6.136808E-17	1.278255E-17
3.080000E+03	6.188256E-17	1.239339E-17
3.090000E+03	6.237273E-17	1.199277E-17
3.100000E+03	6.282985E-17	1.158085E-17
3.110000E+03	6.325760E-17	1.116044E-17
3.120000E+03	6.365961E-17	1.073439E-17
3.130000E+03	6.402095E-17	1.030264E-17
3.140000E+03	6.434530E-17	9.868625E-18
3.150000E+03	6.463029E-17	9.434949E-18
3.160000E+03	6.487974E-17	9.005323E-18
3.170000E+03	6.507959E-17	8.581112E-18
3.180000E+03	6.524047E-17	8.167211E-18
3.190000E+03	6.535554E-17	7.766117E-18
3.200000E+03	6.542506E-17	7.381110E-18
3.210000E+03	6.545058E-17	7.015239E-18
3.220000E+03	6.544107E-17	6.671727E-18
3.230000E+03	6.540133E-17	6.352528E-18
3.240000E+03	6.532677E-17	6.057873E-18
3.250000E+03	6.524259E-17	5.789927E-18
3.260000E+03	6.514153E-17	5.546982E-18
3.270000E+03	6.505029E-17	5.329602E-18
3.280000E+03	6.496825E-17	5.135399E-18
3.290000E+03	6.491089E-17	4.962946E-18
3.300000E+03	6.488763E-17	4.810095E-18
3.310000E+03	6.490193E-17	4.674232E-18
3.320000E+03	6.497186E-17	4.553911E-18
3.330000E+03	6.509396E-17	4.446342E-18
3.340000E+03	6.528427E-17	4.350389E-18
3.350000E+03	6.553784E-17	4.263801E-18
3.360000E+03	6.586909E-17	4.185964E-18
3.370000E+03	6.627683E-17	4.115596E-18
3.380000E+03	6.676914E-17	4.052382E-18
3.390000E+03	6.733866E-17	3.995459E-18
3.400000E+03	6.800136E-17	3.945791E-18
3.410000E+03	6.874260E-17	3.902982E-18
3.420000E+03	6.957503E-17	3.868699E-18
3.430000E+03	7.048001E-17	3.843315E-18
3.440000E+03	7.146551E-17	3.829136E-18
3.450000E+03	7.251765E-17	3.827601E-18
3.460000E+03	7.362019E-17	3.840179E-18
3.470000E+03	7.476438E-17	3.868506E-18
3.480000E+03	7.593908E-17	3.913300E-18
3.490000E+03	7.711636E-17	3.973180E-18
3.500000E+03	7.828780E-17	4.046648E-18
3.510000E+03	7.943274E-17	4.130849E-18
3.520000E+03	8.053946E-17	4.222988E-18
3.530000E+03	8.160586E-17	4.320618E-18
3.540000E+03	8.262425E-17	4.421035E-18
3.550000E+03	8.360005E-17	4.522406E-18
3.560000E+03	8.453539E-17	4.623000E-18
3.570000E+03	8.542741E-17	4.721157E-18
3.580000E+03	8.628628E-17	4.816306E-18
3.590000E+03	8.709998E-17	4.907037E-18
3.600000E+03	8.787292E-17	4.993223E-18
3.610000E+03	8.858752E-17	5.073827E-18
3.620000E+03	8.924371E-17	5.149087E-18
3.630000E+03	8.982641E-17	5.218598E-18
3.640000E+03	9.033061E-17	5.282682E-18
3.650000E+03	9.074352E-17	5.341277E-18
3.660000E+03	9.106402E-17	5.394991E-18
3.670000E+03	9.128450E-17	5.443963E-18
3.680000E+03	9.141393E-17	5.489163E-18
3.690000E+03	9.144626E-17	5.530456E-18
3.700000E+03	9.139208E-17	5.568472E-18
3.710000E+03	9.126501E-17	5.603806E-18
3.720000E+03	9.106949E-17	5.636300E-18
3.730000E+03	9.083103E-17	5.666948E-18
3.740000E+03	9.057113E-17	5.696413E-18
3.750000E+03	9.030841E-17	5.725105E-18
3.760000E+03	9.008678E-17	5.754979E-18
3.770000E+03	8.993517E-17	5.786997E-18
3.780000E+03	8.989844E-17	5.823094E-18
3.790000E+03	9.001667E-17	5.864862E-18
3.800000E+03	9.034242E-17	5.914687E-18
3.810000E+03	9.091311E-17	5.973973E-18
3.820000E+03	9.177905E-17	6.044978E-18
3.830000E+03	9.297633E-17	6.129045E-18
3.840000E+03	9.454027E-17	6.227458E-18
3.850000E+03	9.650416E-17	6.341338E-18
3.860000E+03	9.888724E-17	6.470829E-18
3.870000E+03	1.017042E-16	6.615728E-18
3.880000E+03	1.049641E-16	6.775433E-18
3.890000E+03	1.086611E-16	6.948444E-18
3.900000E+03	1.127734E-16	7.132372E-18
3.910000E+03	1.172729E-16	7.324746E-18
3.920000E+03	1.221142E-16	7.522388E-18
3.930000E+03	1.272335E-16	7.721553E-18
3.940000E+03	1.325679E-16	7.919123E-18
3.950000E+03	1.380285E-16	8.111000E-18
3.960000E+03	1.435339E-16	8.294073E-18
3.970000E+03	1.489973E-16	8.465372E-18
3.980000E+03	1.543348E-16	8.622492E-18
3.990000E+03	1.594678E-16	8.763752E-18
4.000000E+03	1.643250E-16	8.888303E-18
4.010000E+03	1.688383E-16	8.995858E-18
4.020000E+03	1.729630E-16	9.087589E-18
4.030000E+03	1.766451E-16	9.163996E-18
4.040000E+03	1.798569E-16	9.226388E-18
4.050000E+03	1.825794E-16	9.275505E-18
4.060000E+03	1.848040E-16	9.311300E-18
4.070000E+03	1.865481E-16	9.333605E-18
4.080000E+03	1.878390E-16	9.341416E-18
4.090000E+03	1.887067E-16	9.332830E-18
4.100000E+03	1.892094E-16	9.306730E-18
4.110000E+03	1.893908E-16	9.261101E-18
4.120000E+03	1.893144E-16	9.195171E-18
4.130000E+03	1.890233E-16	9.107779E-18
4.140000E+03	1.885707E-16	8.999186E-18
4.150000E+03	1.879968E-16	8.870095E-18
4.160000E+03	1.873375E-16	8.722169E-18
4.170000E+03	1.866376E-16	8.558534E-18
4.180000E+03	1.859205E-16	8.382123E-18
4.190000E+03	1.852146E-16	8.196523E-18
4.200000E+03	1.845446E-16	8.005091E-18
4.210000E+03	1.839281E-16	7.810368E-18
4.220000E+03	1.833885E-16	7.614351E-18
4.230000E+03	1.829368E-16	7.417627E-18
4.240000E+03	1.825971E-16	7.220489E-18
4.250000E+03	1.823833E-16	7.022107E-18
4.260000E+03	1.823253E-16	6.821576E-18
4.270000E+03	1.824327E-16	6.616385E-18
4.280000E+03	1.827240E-16	6.403272E-18
4.290000E+03	1.831999E-16	6.176911E-18
4.300000E+03	1.838466E-16	5.929977E-18
4.310000E+03	1.846403E-16	5.653811E-18
4.320000E+03	1.855310E-16	5.339316E-18
4.330000E+03	1.864626E-16	4.980152E-18
4.340000E+03	1.873701E-16	4.576467E-18
4.350000E+03	1.881800E-16	4.140593E-18
4.360000E+03	1.888175E-16	3.705431E-18
4.370000E+03	1.892148E-16	3.333974E-18
4.380000E+03	1.893154E-16	3.117863E-18
4.390000E+03	1.890849E-16	3.135749E-18
4.400000E+03	1.885486E-16	3.383945E-18
4.410000E+03	1.877736E-16	3.779870E-18
4.420000E+03	1.868525E-16	4.232290E-18
4.430000E+03	1.858897E-16	4.678937E-18
4.440000E+03	1.849869E-16	5.086397E-18
4.450000E+03	1.842464E-16	5.441324E-18
4.460000E+03	1.837657E-16	5.743009E-18
4.470000E+03	1.836338E-16	5.998362E-18
4.480000E+03	1.839354E-16	6.218731E-18
4.490000E+03	1.847448E-16	6.417320E-18
4.500000E+03	1.861163E-16	6.607006E-18
4.510000E+03	1.880953E-16	6.799385E-18
4.520000E+03	1.906915E-16	7.003014E-18
4.530000E+03	1.938792E-16	7.223041E-18
4.540000E+03	1.976093E-16	7.461731E-18
4.550000E+03	2.017766E-16	7.717559E-18
4.560000E+03	2.062520E-16	7.986862E-18
4.570000E+03	2.108760E-16	8.264080E-18
4.580000E+03	2.154698E-16	8.542587E-18
4.590000E+03	2.198615E-16	8.815920E-18
4.600000E+03	2.238765E-16	9.077345E-18
4.610000E+03	2.273817E-16	9.321328E-18
4.620000E+03	2.302739E-16	9.542647E-18
4.630000E+03	2.324849E-16	9.736225E-18
4.640000E+03	2.340002E-16	9.897902E-18
4.650000E+03	2.348328E-16	1.002387E-17
4.660000E+03	2.350129E-16	1.011107E-17
4.670000E+03	2.345953E-16	1.015839E-17
4.680000E+03	2.336273E-16	1.016584E-17
4.690000E+03	2.321576E-16	1.013521E-17
4.700000E+03	2.302182E-16	1.006899E-17
4.710000E+03	2.278500E-16	9.971163E-18
4.720000E+03	2.250725E-16	9.845379E-18
4.730000E+03	2.219242E-16	9.696482E-18
4.740000E+03	2.184330E-16	9.529145E-18
4.750000E+03	2.146415E-16	9.349025E-18
4.760000E+03	2.105957E-16	9.162215E-18
4.770000E+03	2.063468E-16	8.975070E-18
4.780000E+03	2.019502E-16	8.793713E-18
4.790000E+03	1.974665E-16	8.623585E-18
4.800000E+03	1.929568E-16	8.468749E-18
4.810000E+03	1.884835E-16	8.331582E-18
4.820000E+03	1.841207E-16	8.213084E-18
4.830000E+03	1.799400E-16	8.112350E-18
4.840000E+03	1.760219E-16	8.027446E-18
4.850000E+03	1.724476E-16	7.955655E-18
4.860000E+03	1.692994E-16	7.894255E-18
4.870000E+03	1.666606E-16	7.841295E-18
4.880000E+03	1.646073E-16	7.795813E-18
4.890000E+03	1.632186E-16	7.758609E-18
4.900000E+03	1.625626E-16	7.731741E-18
4.910000E+03	1.627061E-16	7.718872E-18
4.920000E+03	1.637072E-16	7.724781E-18
4.930000E+03	1.656051E-16	7.754599E-18
4.940000E+03	1.684274E-16	7.813889E-18
4.950000E+03	1.721594E-16	7.906862E-18
4.960000E+03	1.767518E-16	8.036353E-18
4.970000E+03	1.820967E-16	8.202439E-18
4.980000E+03	1.880392E-16	8.402662E-18
4.990000E+03	1.943674E-16	8.631376E-18
5.000000E+03	2.008463E-16	8.881062E-18
5.010000E+03	2.072121E-16	9.141931E-18
5.020000E+03	2.132248E-16	9.404129E-18
5.030000E+03	2.186675E-16	9.657635E-18
5.040000E+03	2.233776E-16	9.893620E-18
5.050000E+03	2.272591E-16	1.010497E-17
5.060000E+03	2.302773E-16	1.028610E-17
5.070000E+03	2.324667E-16	1.043341E-17
5.080000E+03	2.338991E-16	1.054411E-17
5.090000E+03	2.346884E-16	1.061694E-17
5.100000E+03	2.349542E-16	1.065118E-17
5.110000E+03	2.348170E-16	1.064727E-17
5.120000E+03	2.343865E-16	1.060699E-17
5.130000E+03	2.337505E-16	1.053344E-17
5.140000E+03	2.329731E-16	1.043124E-17
5.150000E+03	2.321053E-16	1.030676E-17
5.160000E+03	2.311812E-16	1.016734E-17
5.170000E+03	2.302227E-16	1.002065E-17
5.180000E+03	2.292528E-16	9.874203E-18
5.190000E+03	2.282904E-16	9.734196E-18
5.200000E+03	2.273556E-16	9.604983E-18
5.210000E+03	2.264669E-16	9.488646E-18
5.220000E+03	2.256485E-16	9.385390E-18
5.230000E+03	2.249169E-16	9.293454E-18
5.240000E+03	2.242900E-16	9.210057E-18
5.250000E+03	2.237745E-16	9.131500E-18
5.260000E+03	2.233724E-16	9.053970E-18
5.270000E+03	2.230777E-16	8.973817E-18
5.280000E+03	2.228761E-16	8.887831E-18
5.290000E+03	2.227416E-16	8.793332E-18
5.300000E+03	2.226437E-16	8.688430E-18
5.310000E+03	2.225483E-16	8.571960E-18
5.320000E+03	2.224135E-16	8.442939E-18
5.330000E+03	2.221990E-16	8.300359E-18
5.340000E+03	2.218718E-16	8.142746E-18
5.350000E+03	2.214098E-16	7.967642E-18
5.360000E+03	2.207951E-16	7.771039E-18
5.370000E+03	2.200184E-16	7.547642E-18
5.380000E+03	2.190799E-16	7.291333E-18
5.390000E+03	2.179869E-16	6.995649E-18
5.400000E+03	2.167570E-16	6.654467E-18
5.410000E+03	2.154109E-16	6.262212E-18
5.420000E+03	2.139994E-16	5.815054E-18
5.430000E+03	2.125884E-16	5.310946E-18
5.440000E+03	2.112703E-16	4.751154E-18
5.450000E+03	2.101581E-16	4.143138E-18
5.460000E+03	2.093719E-16	3.507714E-18
5.470000E+03	2.090288E-16	2.896207E-18
5.480000E+03	2.092097E-16	2.423400E-18
5.490000E+03	2.099421E-16	2.276660E-18
5.500000E+03	2.111736E-16	2.554171E-18
5.510000E+03	2.127798E-16	3.122649E-18
5.520000E+03	2.145564E-16	3.803414E-18
5.530000E+03	2.162621E-16	4.490018E-18
5.540000E+03	2.176434E-16	5.128149E-18
5.550000E+03	2.184713E-16	5.689371E-18
5.560000E+03	2.185736E-16	6.159230E-18
5.570000E+03	2.178392E-16	6.532039E-18
5.580000E+03	2.162457E-16	6.809162E-18
5.590000E+03	2.138376E-16	6.996976E-18
5.600000E+03	2.107226E-16	7.105743E-18
5.610000E+03	2.070400E-16	7.147863E-18
5.620000E+03	2.029412E-16	7.136676E-18
5.630000E+03	1.985536E-16	7.084815E-18
5.640000E+03	1.939834E-16	7.003996E-18
5.650000E+03	1.893056E-16	6.904419E-18
5.660000E+03	1.845733E-16	6.794824E-18
5.670000E+03	1.798280E-16	6.682607E-18
5.680000E+03	1.751347E-16	6.574831E-18
5.690000E+03	1.705852E-16	6.478195E-18
5.700000E+03	1.663108E-16	6.399450E-18
5.710000E+03	1.624804E-16	6.345419E-18
5.720000E+03	1.592913E-16	6.322833E-18
5.730000E+03	1.569500E-16	6.337820E-18
5.740000E+03	1.556557E-16	6.395523E-18
5.750000E+03	1.555953E-16	6.500139E-18
5.760000E+03	1.569259E-16	6.654380E-18
5.770000E+03	1.597790E-16	6.859751E-18
5.780000E+03	1.642587E-16	7.116511E-18
5.790000E+03	1.704320E-16	7.423314E-18
5.800000E+03	1.783276E-16	7.777298E-18
5.810000E+03	1.879162E-16	8.173547E-18
5.820000E+03	1.990906E-16	8.604758E-18
5.830000E+03	2.116493E-16	9.061276E-18
5.840000E+03	2.252698E-16	9.530725E-18
5.850000E+03	2.394998E-16	9.998220E-18
5.860000E+03	2.537613E-16	1.044662E-17
5.870000E+03	2.673905E-16	1.085753E-17
5.880000E+03	2.796864E-16	1.121186E-17
5.890000E+03	2.899858E-16	1.149118E-17
5.900000E+03	2.977520E-16	1.167985E-17
5.910000E+03	3.026257E-16	1.176654E-17
5.920000E+03	3.044737E-16	1.174655E-17
5.930000E+03	3.033763E-16	1.162229E-17
5.940000E+03	2.996041E-16	1.140325E-17
5.950000E+03	2.935785E-16	1.110500E-17
5.960000E+03	2.857910E-16	1.074621E-17
5.970000E+03	2.767577E-16	1.034671E-17
5.980000E+03	2.669797E-16	9.925725E-18
5.990000E+03	2.568976E-16	9.499848E-18
6.000000E+03	2.468840E-16	9.082646E-18
6.010000E+03	2.372334E-16	8.684224E-18
6.020000E+03	2.281641E-16	8.311276E-18
6.030000E+03	2.198228E-16	7.967279E-18
6.040000E+03	2.123019E-16	7.653198E-18
6.050000E+03	2.056415E-16	7.367632E-18
6.060000E+03	1.998509E-16	7.107804E-18
6.070000E+03	1.949081E-16	6.869745E-18
6.080000E+03	1.907832E-16	6.649311E-18
6.090000E+03	1.874328E-16	6.442132E-18
6.100000E+03	1.848139E-16	6.244092E-18
6.110000E+03	1.828779E-16	6.050979E-18
6.120000E+03	1.815795E-16	5.858456E-18
6.130000E+03	1.808796E-16	5.661638E-18
6.140000E+03	1.807403E-16	5.454301E-18
6.150000E+03	1.811393E-16	5.228717E-18
6.160000E+03	1.820727E-16	4.975269E-18
6.170000E+03	1.835397E-16	4.682036E-18
6.180000E+03	1.855612E-16	4.336162E-18
6.190000E+03	1.881451E-16	3.925046E-18
6.200000E+03	1.912980E-16	3.440982E-18
6.210000E+03	1.949940E-16	2.890020E-18
6.220000E+03	1.991704E-16	2.315976E-18
6.230000E+03	2.037173E-16	1.860242E-18
6.240000E+03	2.084772E-16	1.805811E-18
6.250000E+03	2.132858E-16	2.267333E-18
6.260000E+03	2.179897E-16	3.009781E-18
6.270000E+03	2.224313E-16	3.829395E-18
6.280000E+03	2.264444E-16	4.633414E-18
6.290000E+03	2.298738E-16	5.381398E-18
6.300000E+03	2.325883E-16	6.055296E-18
6.310000E+03	2.345082E-16	6.648033E-18
6.320000E+03	2.356166E-16	7.158471E-18
6.330000E+03	2.359529E-16	7.588650E-18
6.340000E+03	2.356134E-16	7.942730E-18
6.350000E+03	2.347368E-16	8.226381E-18
6.360000E+03	2.334801E-16	8.446295E-18
6.370000E+03	2.320004E-16	8.610035E-18
6.380000E+03	2.304476E-16	8.726227E-18
6.390000E+03	2.289448E-16	8.804085E-18
6.400000E+03	2.275809E-16	8.853090E-18
6.410000E+03	2.264186E-16	8.882917E-18
6.420000E+03	2.254772E-16	8.902098E-18
6.430000E+03	2.247457E-16	8.917705E-18
6.440000E+03	2.241835E-16	8.934610E-18
6.450000E+03	2.237254E-16	8.955140E-18
6.460000E+03	2.232910E-16	8.979216E-18
6.470000E+03	2.227874E-16	9.004582E-18
6.480000E+03	2.221198E-16	9.027628E-18
6.490000E+03	2.212101E-16	9.044735E-18
6.500000E+03	2.199996E-16	9.052882E-18
6.510000E+03	2.184633E-16	9.050543E-18
6.520000E+03	2.166045E-16	9.037522E-18
6.530000E+03	2.144757E-16	9.015665E-18
6.540000E+03	2.121573E-16	8.987763E-18
6.550000E+03	2.097544E-16	8.957179E-18
6.560000E+03	2.073840E-16	8.927175E-18
6.570000E+03	2.051589E-16	8.900304E-18
6.580000E+03	2.031730E-16	8.877924E-18
6.590000E+03	2.014909E-16	8.860014E-18
6.600000E+03	2.001332E-16	8.844853E-18
6.610000E+03	1.990760E-16	8.829256E-18
6.620000E+03	1.982509E-16	8.808892E-18
6.630000E+03	1.975540E-16	8.778889E-18
6.640000E+03	1.968509E-16	8.734182E-18
6.650000E+03	1.959892E-16	8.670083E-18
6.660000E+03	1.948239E-16	8.583207E-18
6.670000E+03	1.932166E-16	8.471111E-18
6.680000E+03	1.910614E-16	8.333043E-18
6.690000E+03	1.882857E-16	8.169539E-18
6.700000E+03	1.848693E-16	7.982888E-18
6.710000E+03	1.808282E-16	7.776188E-18
6.720000E+03	1.762323E-16	7.553938E-18
6.730000E+03	1.711803E-16	7.320972E-18
6.740000E+03	1.658018E-16	7.082634E-18
6.750000E+03	1.602382E-16	6.844160E-18
6.760000E+03	1.546334E-16	6.610513E-18
6.770000E+03	1.491240E-16	6.386203E-18
6.780000E+03	1.438347E-16	6.175288E-18
6.790000E+03	1.388690E-16	5.981119E-18
6.800000E+03	1.343145E-16	5.806691E-18
6.810000E+03	1.302450E-16	5.654770E-18
6.820000E+03	1.267201E-16	5.527904E-18
6.830000E+03	1.237889E-16	5.428594E-18
6.840000E+03	1.215009E-16	5.359745E-18
6.850000E+03	1.198971E-16	5.324228E-18
6.860000E+03	1.190251E-16	5.325510E-18
6.870000E+03	1.189298E-16	5.367087E-18
6.880000E+03	1.196598E-16	5.452644E-18
6.890000E+03	1.212677E-16	5.585840E-18
6.900000E+03	1.238038E-16	5.769777E-18
6.910000E+03	1.273192E-16	6.006853E-18
6.920000E+03	1.318624E-16	6.298353E-18
6.930000E+03	1.374695E-16	6.643771E-18
6.940000E+03	1.441642E-16	7.040636E-18
6.950000E+03	1.519503E-16	7.484162E-18
6.960000E+03	1.607991E-16	7.966779E-18
6.970000E+03	1.706374E-16	8.477873E-18
6.980000E+03	1.813537E-16	9.004721E-18
6.990000E+03	1.927637E-16	9.531610E-18
7.000000E+03	2.046321E-16	1.004194E-17
7.010000E+03	2.166550E-16	1.051848E-17
7.020000E+03	2.284664E-16	1.094458E-17
7.030000E+03	2.396736E-16	1.130654E-17
7.040000E+03	2.498626E-16	1.159370E-17
7.050000E+03	2.586452E-16	1.179985E-17
7.060000E+03	2.656943E-16	1.192326E-17
7.070000E+03	2.707800E-16	1.196644E-17
7.080000E+03	2.737979E-16	1.193551E-17
7.090000E+03	2.747823E-16	1.183948E-17
7.100000E+03	2.738995E-16	1.168942E-17
7.110000E+03	2.714364E-16	1.149825E-17
7.120000E+03	2.677693E-16	1.128018E-17
7.130000E+03	2.633142E-16	1.104959E-17
7.140000E+03	2.585013E-16	1.082087E-17
7.150000E+03	2.537379E-16	1.060742E-17
7.160000E+03	2.493830E-16	1.042100E-17
7.170000E+03	2.457269E-16	1.027097E-17
7.180000E+03	2.429934E-16	1.016435E-17
7.190000E+03	2.413216E-16	1.010508E-17
7.200000E+03	2.407787E-16	1.009451E-17
7.210000E+03	2.413555E-16	1.013115E-17
7.220000E+03	2.429806E-16	1.021113E-17
7.230000E+03	2.455148E-16	1.032780E-17
7.240000E+03	2.487560E-16	1.047167E-17
7.250000E+03	2.524499E-16	1.063074E-17
7.260000E+03	2.563125E-16	1.079151E-17
7.270000E+03	2.600157E-16	1.093856E-17
7.280000E+03	2.632440E-16	1.105725E-17
7.290000E+03	2.656870E-16	1.113378E-17
7.300000E+03	2.670782E-16	1.115698E-17
7.310000E+03	2.672094E-16	1.111910E-17
7.320000E+03	2.659598E-16	1.101689E-17
7.330000E+03	2.632864E-16	1.085098E-17
7.340000E+03	2.592526E-16	1.062655E-17
7.350000E+03	2.539890E-16	1.035116E-17
7.360000E+03	2.477039E-16	1.003479E-17
7.370000E+03	2.406427E-16	9.687888E-18
7.380000E+03	2.330743E-16	9.321084E-18
7.390000E+03	2.252641E-16	8.944367E-18
7.400000E+03	2.174543E-16	8.566684E-18
7.410000E+03	2.098495E-16	8.195638E-18
7.420000E+03	2.026062E-16	7.837154E-18
7.430000E+03	1.958402E-16	7.495670E-18
7.440000E+03	1.896210E-16	7.173682E-18
7.450000E+03	1.839793E-16	6.871748E-18
7.460000E+03	1.789258E-16	6.588865E-18
7.470000E+03	1.744509E-16	6.322217E-18
7.480000E+03	1.705452E-16	6.067781E-18
7.490000E+03	1.671994E-16	5.820276E-18
7.500000E+03	1.644105E-16	5.573563E-18
7.510000E+03	1.621801E-16	5.320803E-18
7.520000E+03	1.605187E-16	5.054798E-18
7.530000E+03	1.594328E-16	4.767640E-18
7.540000E+03	1.589189E-16	4.450622E-18
7.550000E+03	1.589560E-16	4.094316E-18
7.560000E+03	1.594873E-16	3.689087E-18
7.570000E+03	1.604168E-16	3.227572E-18
7.580000E+03	1.616039E-16	2.710420E-18
7.590000E+03	1.628616E-16	2.160548E-18
7.600000E+03	1.639775E-16	1.660829E-18
7.610000E+03	1.647578E-16	1.420848E-18
7.620000E+03	1.650943E-16	1.642476E-18
7.630000E+03	1.650205E-16	2.178388E-18
7.640000E+03	1.646656E-16	2.808150E-18
7.650000E+03	1.641877E-16	3.432034E-18
7.660000E+03	1.637312E-16	4.014986E-18
7.670000E+03	1.634041E-16	4.546786E-18
7.680000E+03	1.632641E-16	5.026533E-18
7.690000E+03	1.633331E-16	5.456782E-18
7.700000E+03	1.635867E-16	5.840380E-18
7.710000E+03	1.639784E-16	6.179963E-18
7.720000E+03	1.644344E-16	6.477303E-18
7.730000E+03	1.648724E-16	6.733851E-18
7.740000E+03	1.651914E-16	6.950261E-18
7.750000E+03	1.652951E-16	7.127283E-18
7.760000E+03	1.650898E-16	7.265554E-18
