#wls	flux	fluxerr
1.600000E+03	9.843569E-18	8.403170E-18
1.640000E+03	1.003411E-17	8.504016E-18
1.680000E+03	1.023296E-17	8.609062E-18
1.720000E+03	1.044417E-17	8.721559E-18
1.760000E+03	1.066659E-17	8.840328E-18
1.800000E+03	1.090271E-17	8.967150E-18
1.840000E+03	1.115144E-17	9.100754E-18
1.880000E+03	1.141351E-17	9.241301E-18
1.920000E+03	1.169167E-17	9.390454E-18
1.960000E+03	1.198687E-17	9.548262E-18
2.000000E+03	1.229806E-17	9.713053E-18
2.040000E+03	1.262822E-17	9.886203E-18
2.080000E+03	1.298055E-17	1.006900E-17
2.120000E+03	1.335189E-17	1.025761E-17
2.160000E+03	1.374535E-17	1.045289E-17
2.200000E+03	1.416419E-17	1.065551E-17
2.240000E+03	1.460709E-17	1.086244E-17
2.280000E+03	1.507477E-17	1.107197E-17
2.320000E+03	1.557013E-17	1.128375E-17
2.360000E+03	1.609098E-17	1.149346E-17
2.400000E+03	1.663959E-17	1.169978E-17
2.440000E+03	1.721532E-17	1.189907E-17
2.480000E+03	1.781680E-17	1.208702E-17
2.520000E+03	1.844187E-17	1.225864E-17
2.560000E+03	1.909017E-17	1.241013E-17
2.600000E+03	1.975172E-17	1.253145E-17
2.640000E+03	2.042957E-17	1.262123E-17
2.680000E+03	2.110785E-17	1.266656E-17
2.720000E+03	2.178699E-17	1.266536E-17
2.760000E+03	2.245405E-17	1.260827E-17
2.800000E+03	2.309446E-17	1.248656E-17
2.840000E+03	2.370221E-17	1.229776E-17
2.880000E+03	2.426461E-17	1.203732E-17
2.920000E+03	2.476271E-17	1.169970E-17
2.960000E+03	2.519557E-17	1.129001E-17
3.000000E+03	2.554880E-17	1.080842E-17
3.010000E+03	2.562541E-17	1.067801E-17
3.020000E+03	2.569599E-17	1.054327E-17
3.030000E+03	2.576059E-17	1.040438E-17
3.040000E+03	2.582256E-17	1.026280E-17
3.050000E+03	2.587870E-17	1.011737E-17
3.060000E+03	2.593242E-17	9.969536E-18
3.070000E+03	2.597730E-17	9.816948E-18
3.080000E+03	2.602010E-17	9.662316E-18
3.090000E+03	2.606103E-17	9.505780E-18
3.100000E+03	2.609382E-17	9.345156E-18
3.110000E+03	2.612529E-17	9.183024E-18
3.120000E+03	2.615574E-17	9.019539E-18
3.130000E+03	2.617909E-17	8.852678E-18
3.140000E+03	2.620219E-17	8.684882E-18
3.150000E+03	2.622546E-17	8.516314E-18
3.160000E+03	2.624616E-17	8.346121E-18
3.170000E+03	2.626481E-17	8.174542E-18
3.180000E+03	2.628195E-17	8.001818E-18
3.190000E+03	2.630133E-17	7.829129E-18
3.200000E+03	2.632038E-17	7.655726E-18
3.210000E+03	2.633975E-17	7.481853E-18
3.220000E+03	2.636322E-17	7.308620E-18
3.230000E+03	2.638834E-17	7.135362E-18
3.240000E+03	2.641893E-17	6.963151E-18
3.250000E+03	2.644951E-17	6.790590E-18
3.260000E+03	2.649012E-17	6.620340E-18
3.270000E+03	2.653223E-17	6.450304E-18
3.280000E+03	2.658280E-17	6.282315E-18
3.290000E+03	2.663954E-17	6.115939E-18
3.300000E+03	2.670630E-17	5.952227E-18
3.310000E+03	2.678082E-17	5.790866E-18
3.320000E+03	2.686391E-17	5.632316E-18
3.330000E+03	2.695944E-17	5.477718E-18
3.340000E+03	2.706517E-17	5.327004E-18
3.350000E+03	2.718192E-17	5.180849E-18
3.360000E+03	2.731353E-17	5.040586E-18
3.370000E+03	2.745779E-17	4.906492E-18
3.380000E+03	2.761852E-17	4.780088E-18
3.390000E+03	2.779349E-17	4.661931E-18
3.400000E+03	2.798348E-17	4.553261E-18
3.410000E+03	2.819232E-17	4.455919E-18
3.420000E+03	2.841773E-17	4.370849E-18
3.430000E+03	2.866043E-17	4.299571E-18
3.440000E+03	2.892427E-17	4.244071E-18
3.450000E+03	2.920687E-17	4.205348E-18
3.460000E+03	2.950891E-17	4.184713E-18
3.470000E+03	2.983424E-17	4.183629E-18
3.480000E+03	3.018357E-17	4.202643E-18
3.490000E+03	3.055122E-17	4.240831E-18
3.500000E+03	3.094423E-17	4.298503E-18
3.510000E+03	3.136006E-17	4.374239E-18
3.520000E+03	3.180266E-17	4.467244E-18
3.530000E+03	3.226942E-17	4.575633E-18
3.540000E+03	3.276437E-17	4.698350E-18
3.550000E+03	3.328148E-17	4.832868E-18
3.560000E+03	3.383162E-17	4.979105E-18
3.570000E+03	3.440533E-17	5.134066E-18
3.580000E+03	3.501024E-17	5.297330E-18
3.590000E+03	3.564371E-17	5.467024E-18
3.600000E+03	3.631015E-17	5.642425E-18
3.610000E+03	3.700692E-17	5.821799E-18
3.620000E+03	3.773493E-17	6.004024E-18
3.630000E+03	3.849889E-17	6.188649E-18
3.640000E+03	3.929615E-17	6.374107E-18
3.650000E+03	4.012776E-17	6.559461E-18
3.660000E+03	4.099873E-17	6.744470E-18
3.670000E+03	4.190637E-17	6.927661E-18
3.680000E+03	4.285180E-17	7.108216E-18
3.690000E+03	4.384032E-17	7.286035E-18
3.700000E+03	4.486904E-17	7.459685E-18
3.710000E+03	4.593906E-17	7.628421E-18
3.720000E+03	4.705581E-17	7.792244E-18
3.730000E+03	4.821601E-17	7.949741E-18
3.740000E+03	4.942049E-17	8.100229E-18
3.750000E+03	5.067460E-17	8.243811E-18
3.760000E+03	5.197431E-17	8.379126E-18
3.770000E+03	5.331983E-17	8.505598E-18
3.780000E+03	5.471109E-17	8.622714E-18
3.790000E+03	5.615268E-17	8.730826E-18
3.800000E+03	5.764404E-17	8.829612E-18
3.810000E+03	5.917355E-17	8.917267E-18
3.820000E+03	6.074976E-17	8.995307E-18
3.830000E+03	6.236493E-17	9.063034E-18
3.840000E+03	6.401585E-17	9.120736E-18
3.850000E+03	6.570433E-17	9.169719E-18
3.860000E+03	6.741424E-17	9.209092E-18
3.870000E+03	6.915174E-17	9.241396E-18
3.880000E+03	7.091093E-17	9.267740E-18
3.890000E+03	7.267269E-17	9.287775E-18
3.900000E+03	7.444175E-17	9.304417E-18
3.910000E+03	7.620379E-17	9.318164E-18
3.920000E+03	7.795021E-17	9.330196E-18
3.930000E+03	7.967887E-17	9.342271E-18
3.940000E+03	8.137438E-17	9.354277E-18
3.950000E+03	8.302786E-17	9.366550E-18
3.960000E+03	8.463069E-17	9.379047E-18
3.970000E+03	8.617459E-17	9.391357E-18
3.980000E+03	8.765172E-17	9.402735E-18
3.990000E+03	8.906208E-17	9.412933E-18
4.000000E+03	9.039189E-17	9.419978E-18
4.010000E+03	9.163528E-17	9.422576E-18
4.020000E+03	9.278726E-17	9.419439E-18
4.030000E+03	9.384390E-17	9.409365E-18
4.040000E+03	9.481007E-17	9.392054E-18
4.050000E+03	9.566931E-17	9.365153E-18
4.060000E+03	9.643687E-17	9.329528E-18
4.070000E+03	9.710676E-17	9.284023E-18
4.080000E+03	9.768197E-17	9.228436E-18
4.090000E+03	9.816682E-17	9.162729E-18
4.100000E+03	9.856670E-17	9.086982E-18
4.110000E+03	9.888780E-17	9.001341E-18
4.120000E+03	9.913685E-17	8.905957E-18
4.130000E+03	9.932839E-17	8.801609E-18
4.140000E+03	9.945417E-17	8.686956E-18
4.150000E+03	9.952857E-17	8.562571E-18
4.160000E+03	9.956559E-17	8.428823E-18
4.170000E+03	9.955635E-17	8.284003E-18
4.180000E+03	9.952158E-17	8.128769E-18
4.190000E+03	9.945186E-17	7.961141E-18
4.200000E+03	9.935977E-17	7.780845E-18
4.210000E+03	9.925744E-17	7.587421E-18
4.220000E+03	9.913479E-17	7.378611E-18
4.230000E+03	9.901068E-17	7.154303E-18
4.240000E+03	9.887473E-17	6.912152E-18
4.250000E+03	9.873812E-17	6.651369E-18
4.260000E+03	9.860456E-17	6.370601E-18
4.270000E+03	9.847764E-17	6.068519E-18
4.280000E+03	9.836078E-17	5.743898E-18
4.290000E+03	9.825729E-17	5.395733E-18
4.300000E+03	9.817030E-17	5.023434E-18
4.310000E+03	9.810288E-17	4.627125E-18
4.320000E+03	9.805108E-17	4.207845E-18
4.330000E+03	9.803153E-17	3.769598E-18
4.340000E+03	9.803331E-17	3.318786E-18
4.350000E+03	9.806601E-17	2.869101E-18
4.360000E+03	9.813222E-17	2.445764E-18
4.370000E+03	9.823436E-17	2.094418E-18
4.380000E+03	9.837449E-17	1.885716E-18
4.390000E+03	9.854732E-17	1.886196E-18
4.400000E+03	9.875999E-17	2.094236E-18
4.410000E+03	9.901186E-17	2.441364E-18
4.420000E+03	9.930151E-17	2.857100E-18
4.430000E+03	9.962030E-17	3.296168E-18
4.440000E+03	9.997914E-17	3.734219E-18
4.450000E+03	1.003618E-16	4.157693E-18
4.460000E+03	1.007650E-16	4.559756E-18
4.470000E+03	1.011983E-16	4.937752E-18
4.480000E+03	1.016445E-16	5.289838E-18
4.490000E+03	1.021057E-16	5.616309E-18
4.500000E+03	1.025773E-16	5.917897E-18
4.510000E+03	1.030479E-16	6.195381E-18
4.520000E+03	1.035189E-16	6.450579E-18
4.530000E+03	1.039850E-16	6.685071E-18
4.540000E+03	1.044339E-16	6.900020E-18
4.550000E+03	1.048665E-16	7.097407E-18
4.560000E+03	1.052767E-16	7.278691E-18
4.570000E+03	1.056521E-16	7.444716E-18
4.580000E+03	1.059937E-16	7.597094E-18
4.590000E+03	1.062893E-16	7.736328E-18
4.600000E+03	1.065410E-16	7.863724E-18
4.610000E+03	1.067448E-16	7.979975E-18
4.620000E+03	1.068908E-16	8.085163E-18
4.630000E+03	1.069836E-16	8.180297E-18
4.640000E+03	1.070218E-16	8.265846E-18
4.650000E+03	1.069988E-16	8.341747E-18
4.660000E+03	1.069216E-16	8.408953E-18
4.670000E+03	1.067854E-16	8.467380E-18
4.680000E+03	1.065989E-16	8.517963E-18
4.690000E+03	1.063590E-16	8.560561E-18
4.700000E+03	1.060760E-16	8.596027E-18
4.710000E+03	1.057546E-16	8.624636E-18
4.720000E+03	1.053937E-16	8.646090E-18
4.730000E+03	1.049993E-16	8.660600E-18
4.740000E+03	1.045910E-16	8.669460E-18
4.750000E+03	1.041570E-16	8.671456E-18
4.760000E+03	1.037181E-16	8.668158E-18
4.770000E+03	1.032828E-16	8.660311E-18
4.780000E+03	1.028545E-16	8.648403E-18
4.790000E+03	1.024493E-16	8.634212E-18
4.800000E+03	1.020720E-16	8.618726E-18
4.810000E+03	1.017400E-16	8.604140E-18
4.820000E+03	1.014590E-16	8.591732E-18
4.830000E+03	1.012465E-16	8.583792E-18
4.840000E+03	1.011078E-16	8.581476E-18
4.850000E+03	1.010590E-16	8.586693E-18
4.860000E+03	1.011026E-16	8.599976E-18
4.870000E+03	1.012511E-16	8.622400E-18
4.880000E+03	1.015029E-16	8.653539E-18
4.890000E+03	1.018597E-16	8.692979E-18
4.900000E+03	1.023267E-16	8.740390E-18
4.910000E+03	1.029012E-16	8.794626E-18
4.920000E+03	1.035719E-16	8.853838E-18
4.930000E+03	1.043375E-16	8.917114E-18
4.940000E+03	1.051826E-16	8.982556E-18
4.950000E+03	1.060956E-16	9.048888E-18
4.960000E+03	1.070688E-16	9.115524E-18
4.970000E+03	1.080807E-16	9.181058E-18
4.980000E+03	1.091202E-16	9.245336E-18
4.990000E+03	1.101691E-16	9.307892E-18
5.000000E+03	1.111965E-16	9.367371E-18
5.010000E+03	1.122033E-16	9.425167E-18
5.020000E+03	1.131546E-16	9.479541E-18
5.030000E+03	1.140500E-16	9.531376E-18
5.040000E+03	1.148800E-16	9.580392E-18
5.050000E+03	1.156327E-16	9.625628E-18
5.060000E+03	1.163133E-16	9.667030E-18
5.070000E+03	1.169176E-16	9.703317E-18
5.080000E+03	1.174508E-16	9.733624E-18
5.090000E+03	1.179263E-16	9.757543E-18
5.100000E+03	1.183449E-16	9.773533E-18
5.110000E+03	1.187204E-16	9.781115E-18
5.120000E+03	1.190587E-16	9.779265E-18
5.130000E+03	1.193575E-16	9.766452E-18
5.140000E+03	1.196196E-16	9.741767E-18
5.150000E+03	1.198525E-16	9.704971E-18
5.160000E+03	1.200491E-16	9.654948E-18
5.170000E+03	1.202082E-16	9.591384E-18
5.180000E+03	1.203404E-16	9.515329E-18
5.190000E+03	1.204235E-16	9.425562E-18
5.200000E+03	1.204675E-16	9.323850E-18
5.210000E+03	1.204695E-16	9.211256E-18
5.220000E+03	1.204203E-16	9.088645E-18
5.230000E+03	1.203244E-16	8.958100E-18
5.240000E+03	1.201741E-16	8.820787E-18
5.250000E+03	1.199693E-16	8.678282E-18
5.260000E+03	1.197181E-16	8.532332E-18
5.270000E+03	1.194235E-16	8.383719E-18
5.280000E+03	1.190838E-16	8.232133E-18
5.290000E+03	1.187050E-16	8.077007E-18
5.300000E+03	1.183008E-16	7.917464E-18
5.310000E+03	1.178790E-16	7.751517E-18
5.320000E+03	1.174418E-16	7.576278E-18
5.330000E+03	1.169978E-16	7.389009E-18
5.340000E+03	1.165619E-16	7.187289E-18
5.350000E+03	1.161423E-16	6.968401E-18
5.360000E+03	1.157404E-16	6.729554E-18
5.370000E+03	1.153693E-16	6.469129E-18
5.380000E+03	1.150288E-16	6.185309E-18
5.390000E+03	1.147299E-16	5.877597E-18
5.400000E+03	1.144700E-16	5.545581E-18
5.410000E+03	1.142513E-16	5.190164E-18
5.420000E+03	1.140863E-16	4.814124E-18
5.430000E+03	1.139616E-16	4.421182E-18
5.440000E+03	1.138743E-16	4.018926E-18
5.450000E+03	1.138258E-16	3.620426E-18
5.460000E+03	1.138033E-16	3.246612E-18
5.470000E+03	1.138048E-16	2.930483E-18
5.480000E+03	1.138204E-16	2.716485E-18
5.490000E+03	1.138322E-16	2.648043E-18
5.500000E+03	1.138330E-16	2.740291E-18
5.510000E+03	1.138016E-16	2.965585E-18
5.520000E+03	1.137287E-16	3.275479E-18
5.530000E+03	1.135937E-16	3.625685E-18
5.540000E+03	1.133905E-16	3.985349E-18
5.550000E+03	1.131100E-16	4.335068E-18
5.560000E+03	1.127411E-16	4.663316E-18
5.570000E+03	1.122894E-16	4.964358E-18
5.580000E+03	1.117529E-16	5.235432E-18
5.590000E+03	1.111461E-16	5.476581E-18
5.600000E+03	1.104812E-16	5.689097E-18
5.610000E+03	1.097673E-16	5.874941E-18
5.620000E+03	1.090270E-16	6.037290E-18
5.630000E+03	1.082718E-16	6.179055E-18
5.640000E+03	1.075248E-16	6.303946E-18
5.650000E+03	1.068021E-16	6.415370E-18
5.660000E+03	1.061135E-16	6.516291E-18
5.670000E+03	1.054788E-16	6.610174E-18
5.680000E+03	1.049112E-16	6.699905E-18
5.690000E+03	1.044178E-16	6.787712E-18
5.700000E+03	1.040163E-16	6.876188E-18
5.710000E+03	1.037186E-16	6.967179E-18
5.720000E+03	1.035307E-16	7.061720E-18
5.730000E+03	1.034690E-16	7.161108E-18
5.740000E+03	1.035380E-16	7.265409E-18
5.750000E+03	1.037564E-16	7.375365E-18
5.760000E+03	1.041133E-16	7.489361E-18
5.770000E+03	1.046272E-16	7.607767E-18
5.780000E+03	1.052848E-16	7.728688E-18
5.790000E+03	1.060845E-16	7.851189E-18
5.800000E+03	1.070136E-16	7.973726E-18
5.810000E+03	1.080479E-16	8.094122E-18
5.820000E+03	1.091682E-16	8.210824E-18
5.830000E+03	1.103444E-16	8.321618E-18
5.840000E+03	1.115354E-16	8.423576E-18
5.850000E+03	1.127080E-16	8.514397E-18
5.860000E+03	1.138208E-16	8.591140E-18
5.870000E+03	1.148323E-16	8.650778E-18
5.880000E+03	1.156959E-16	8.689922E-18
5.890000E+03	1.163810E-16	8.706434E-18
5.900000E+03	1.168561E-16	8.698288E-18
5.910000E+03	1.170967E-16	8.664236E-18
5.920000E+03	1.170803E-16	8.603494E-18
5.930000E+03	1.168059E-16	8.517155E-18
5.940000E+03	1.162761E-16	8.406757E-18
5.950000E+03	1.154965E-16	8.274150E-18
5.960000E+03	1.144942E-16	8.122617E-18
5.970000E+03	1.132973E-16	7.955293E-18
5.980000E+03	1.119401E-16	7.775384E-18
5.990000E+03	1.104606E-16	7.585987E-18
6.000000E+03	1.088934E-16	7.389560E-18
6.010000E+03	1.072847E-16	7.189034E-18
6.020000E+03	1.056735E-16	6.986538E-18
6.030000E+03	1.040958E-16	6.783757E-18
6.040000E+03	1.025790E-16	6.581546E-18
6.050000E+03	1.011627E-16	6.381306E-18
6.060000E+03	9.986044E-17	6.182491E-18
6.070000E+03	9.869824E-17	5.985057E-18
6.080000E+03	9.768782E-17	5.787787E-18
6.090000E+03	9.685348E-17	5.589937E-18
6.100000E+03	9.619614E-17	5.389127E-18
6.110000E+03	9.573030E-17	5.183551E-18
6.120000E+03	9.546373E-17	4.970812E-18
6.130000E+03	9.540299E-17	4.748281E-18
6.140000E+03	9.555366E-17	4.513175E-18
6.150000E+03	9.591528E-17	4.262451E-18
6.160000E+03	9.650167E-17	3.993959E-18
6.170000E+03	9.730476E-17	3.705245E-18
6.180000E+03	9.833008E-17	3.395876E-18
6.190000E+03	9.957551E-17	3.067939E-18
6.200000E+03	1.010303E-16	2.728762E-18
6.210000E+03	1.026957E-16	2.396481E-18
6.220000E+03	1.045463E-16	2.107277E-18
6.230000E+03	1.065724E-16	1.923872E-18
6.240000E+03	1.087322E-16	1.918147E-18
6.250000E+03	1.109844E-16	2.114520E-18
6.260000E+03	1.132650E-16	2.466398E-18
6.270000E+03	1.154945E-16	2.906630E-18
6.280000E+03	1.176116E-16	3.384977E-18
6.290000E+03	1.195417E-16	3.869392E-18
6.300000E+03	1.212200E-16	4.339803E-18
6.310000E+03	1.226079E-16	4.783822E-18
6.320000E+03	1.236766E-16	5.193545E-18
6.330000E+03	1.244206E-16	5.564721E-18
6.340000E+03	1.248244E-16	5.894516E-18
6.350000E+03	1.249274E-16	6.184020E-18
6.360000E+03	1.247542E-16	6.434790E-18
6.370000E+03	1.243451E-16	6.649910E-18
6.380000E+03	1.237459E-16	6.833240E-18
6.390000E+03	1.229970E-16	6.988631E-18
6.400000E+03	1.221576E-16	7.121098E-18
6.410000E+03	1.212557E-16	7.233922E-18
6.420000E+03	1.203330E-16	7.331173E-18
6.430000E+03	1.194171E-16	7.416114E-18
6.440000E+03	1.185340E-16	7.491965E-18
6.450000E+03	1.176826E-16	7.560281E-18
6.460000E+03	1.168745E-16	7.623386E-18
6.470000E+03	1.161089E-16	7.682754E-18
6.480000E+03	1.153812E-16	7.739408E-18
6.490000E+03	1.146776E-16	7.793498E-18
6.500000E+03	1.140025E-16	7.846036E-18
6.510000E+03	1.133411E-16	7.896397E-18
6.520000E+03	1.126859E-16	7.944090E-18
6.530000E+03	1.120246E-16	7.987966E-18
6.540000E+03	1.113643E-16	8.028050E-18
6.550000E+03	1.106887E-16	8.062532E-18
6.560000E+03	1.100063E-16	8.091332E-18
6.570000E+03	1.093016E-16	8.112612E-18
6.580000E+03	1.085830E-16	8.126371E-18
6.590000E+03	1.078347E-16	8.130932E-18
6.600000E+03	1.070642E-16	8.126566E-18
6.610000E+03	1.062549E-16	8.111952E-18
6.620000E+03	1.054071E-16	8.087336E-18
6.630000E+03	1.045206E-16	8.053172E-18
6.640000E+03	1.035771E-16	8.008766E-18
6.650000E+03	1.025756E-16	7.954902E-18
6.660000E+03	1.015093E-16	7.892017E-18
6.670000E+03	1.003721E-16	7.820616E-18
6.680000E+03	9.916483E-17	7.741677E-18
6.690000E+03	9.787379E-17	7.654931E-18
6.700000E+03	9.650492E-17	7.561451E-18
6.710000E+03	9.506198E-17	7.461938E-18
6.720000E+03	9.355252E-17	7.357173E-18
6.730000E+03	9.198785E-17	7.248034E-18
6.740000E+03	9.038280E-17	7.135511E-18
6.750000E+03	8.875517E-17	7.020720E-18
6.760000E+03	8.712503E-17	6.904906E-18
6.770000E+03	8.551391E-17	6.789440E-18
6.780000E+03	8.394403E-17	6.675804E-18
6.790000E+03	8.243756E-17	6.565570E-18
6.800000E+03	8.102050E-17	6.460744E-18
6.810000E+03	7.970411E-17	6.362287E-18
6.820000E+03	7.850759E-17	6.271933E-18
6.830000E+03	7.745734E-17	6.192100E-18
6.840000E+03	7.656504E-17	6.124101E-18
6.850000E+03	7.584553E-17	6.069516E-18
6.860000E+03	7.531254E-17	6.029783E-18
6.870000E+03	7.497875E-17	6.006151E-18
6.880000E+03	7.485587E-17	5.999636E-18
6.890000E+03	7.495448E-17	6.011000E-18
6.900000E+03	7.528373E-17	6.040746E-18
6.910000E+03	7.585097E-17	6.089118E-18
6.920000E+03	7.666108E-17	6.156104E-18
6.930000E+03	7.771566E-17	6.241410E-18
6.940000E+03	7.901215E-17	6.344435E-18
6.950000E+03	8.053811E-17	6.463841E-18
6.960000E+03	8.228835E-17	6.598959E-18
6.970000E+03	8.423672E-17	6.747552E-18
6.980000E+03	8.635337E-17	6.907218E-18
6.990000E+03	8.859984E-17	7.075026E-18
7.000000E+03	9.092945E-17	7.247544E-18
7.010000E+03	9.328308E-17	7.420494E-18
7.020000E+03	9.561240E-17	7.590567E-18
7.030000E+03	9.785140E-17	7.753101E-18
7.040000E+03	9.993525E-17	7.903506E-18
7.050000E+03	1.018219E-16	8.038899E-18
7.060000E+03	1.034622E-16	8.155674E-18
7.070000E+03	1.048197E-16	8.251047E-18
7.080000E+03	1.058914E-16	8.324696E-18
7.090000E+03	1.066671E-16	8.375593E-18
7.100000E+03	1.071771E-16	8.405827E-18
7.110000E+03	1.074422E-16	8.416723E-18
7.120000E+03	1.075196E-16	8.412510E-18
7.130000E+03	1.074512E-16	8.396214E-18
7.140000E+03	1.073019E-16	8.372718E-18
7.150000E+03	1.071382E-16	8.346977E-18
7.160000E+03	1.070052E-16	8.322234E-18
7.170000E+03	1.069609E-16	8.302616E-18
7.180000E+03	1.070481E-16	8.290957E-18
7.190000E+03	1.072987E-16	8.289092E-18
7.200000E+03	1.077321E-16	8.297749E-18
7.210000E+03	1.083532E-16	8.316488E-18
7.220000E+03	1.091529E-16	8.343725E-18
7.230000E+03	1.101074E-16	8.376809E-18
7.240000E+03	1.111789E-16	8.412167E-18
7.250000E+03	1.123109E-16	8.445014E-18
7.260000E+03	1.134563E-16	8.471571E-18
7.270000E+03	1.145413E-16	8.486416E-18
7.280000E+03	1.154891E-16	8.484273E-18
7.290000E+03	1.162374E-16	8.461325E-18
7.300000E+03	1.167309E-16	8.414521E-18
7.310000E+03	1.169050E-16	8.340355E-18
7.320000E+03	1.167306E-16	8.237983E-18
7.330000E+03	1.161897E-16	8.107331E-18
7.340000E+03	1.152833E-16	7.949537E-18
7.350000E+03	1.140308E-16	7.766814E-18
7.360000E+03	1.124615E-16	7.561771E-18
7.370000E+03	1.106370E-16	7.338929E-18
7.380000E+03	1.086081E-16	7.101728E-18
7.390000E+03	1.064297E-16	6.853670E-18
7.400000E+03	1.041699E-16	6.598882E-18
7.410000E+03	1.018863E-16	6.340678E-18
7.420000E+03	9.962978E-17	6.081872E-18
7.430000E+03	9.744319E-17	5.824700E-18
7.440000E+03	9.536011E-17	5.570766E-18
7.450000E+03	9.340534E-17	5.321014E-18
7.460000E+03	9.159026E-17	5.075412E-18
7.470000E+03	8.993602E-17	4.834173E-18
7.480000E+03	8.843680E-17	4.595652E-18
7.490000E+03	8.709909E-17	4.358495E-18
7.500000E+03	8.592092E-17	4.120528E-18
7.510000E+03	8.489800E-17	3.879204E-18
7.520000E+03	8.401885E-17	3.631578E-18
7.530000E+03	8.328504E-17	3.375466E-18
7.540000E+03	8.267577E-17	3.108299E-18
7.550000E+03	8.218274E-17	2.829191E-18
7.560000E+03	8.178984E-17	2.539001E-18
7.570000E+03	8.147790E-17	2.242149E-18
7.580000E+03	8.122477E-17	1.949492E-18
7.590000E+03	8.100558E-17	1.683225E-18
7.600000E+03	8.078924E-17	1.482481E-18
7.610000E+03	8.055691E-17	1.398874E-18
7.620000E+03	8.029620E-17	1.461547E-18
7.630000E+03	8.001278E-17	1.645127E-18
7.640000E+03	7.972396E-17	1.897375E-18
7.650000E+03	7.944402E-17	2.176566E-18
7.660000E+03	7.919865E-17	2.458925E-18
7.670000E+03	7.898939E-17	2.732077E-18
7.680000E+03	7.882660E-17	2.990712E-18
7.690000E+03	7.870521E-17	3.232675E-18
7.700000E+03	7.862891E-17	3.458125E-18
7.710000E+03	7.857716E-17	3.667217E-18
7.720000E+03	7.853978E-17	3.860974E-18
7.730000E+03	7.849902E-17	4.040214E-18
7.740000E+03	7.843589E-17	4.205612E-18
7.750000E+03	7.833169E-17	4.357657E-18
7.760000E+03	7.816479E-17	4.496374E-18
