#wls	flux	fluxerr
1.600000E+03	7.178980E-17	1.955966E-18
1.640000E+03	7.103207E-17	1.931127E-18
1.680000E+03	7.031506E-17	1.907373E-18
1.720000E+03	6.966873E-17	1.885510E-18
1.760000E+03	6.907432E-17	1.865019E-18
1.800000E+03	6.854981E-17	1.846375E-18
1.840000E+03	6.808943E-17	1.829409E-18
1.880000E+03	6.772291E-17	1.814906E-18
1.920000E+03	6.743341E-17	1.802394E-18
1.960000E+03	6.723951E-17	1.792354E-18
2.000000E+03	6.714852E-17	1.784956E-18
2.040000E+03	6.716838E-17	1.780387E-18
2.080000E+03	6.729643E-17	1.778549E-18
2.120000E+03	6.756492E-17	1.780263E-18
2.160000E+03	6.797325E-17	1.785476E-18
2.200000E+03	6.853351E-17	1.794466E-18
2.240000E+03	6.925944E-17	1.807547E-18
2.280000E+03	7.016675E-17	1.825079E-18
2.320000E+03	7.127345E-17	1.847472E-18
2.360000E+03	7.260022E-17	1.875199E-18
2.400000E+03	7.418294E-17	1.909111E-18
2.440000E+03	7.603742E-17	1.949528E-18
2.480000E+03	7.819531E-17	1.997166E-18
2.520000E+03	8.069298E-17	2.052843E-18
2.560000E+03	8.358544E-17	2.117832E-18
2.600000E+03	8.690799E-17	2.192878E-18
2.640000E+03	9.071527E-17	2.279193E-18
2.680000E+03	9.508418E-17	2.378515E-18
2.720000E+03	1.000714E-16	2.492036E-18
2.760000E+03	1.057724E-16	2.621874E-18
2.800000E+03	1.122609E-16	2.769560E-18
2.840000E+03	1.196529E-16	2.937612E-18
2.880000E+03	1.280393E-16	3.127868E-18
2.920000E+03	1.375558E-16	3.343199E-18
2.960000E+03	1.483065E-16	3.585615E-18
3.000000E+03	1.604406E-16	3.858156E-18
3.010000E+03	1.636982E-16	3.931113E-18
3.020000E+03	1.670736E-16	4.006656E-18
3.030000E+03	1.705202E-16	4.083652E-18
3.040000E+03	1.740893E-16	4.163320E-18
3.050000E+03	1.777321E-16	4.244481E-18
3.060000E+03	1.815019E-16	4.328397E-18
3.070000E+03	1.853748E-16	4.414484E-18
3.080000E+03	1.893525E-16	4.502770E-18
3.090000E+03	1.934365E-16	4.593278E-18
3.100000E+03	1.976285E-16	4.686033E-18
3.110000E+03	2.019297E-16	4.781055E-18
3.120000E+03	2.063415E-16	4.878360E-18
3.130000E+03	2.108956E-16	4.978683E-18
3.140000E+03	2.155329E-16	5.080616E-18
3.150000E+03	2.203158E-16	5.185615E-18
3.160000E+03	2.251828E-16	5.292215E-18
3.170000E+03	2.301986E-16	5.401927E-18
3.180000E+03	2.353323E-16	5.514004E-18
3.190000E+03	2.405845E-16	5.628449E-18
3.200000E+03	2.459558E-16	5.745258E-18
3.210000E+03	2.514466E-16	5.864425E-18
3.220000E+03	2.570571E-16	5.985940E-18
3.230000E+03	2.628247E-16	6.110655E-18
3.240000E+03	2.686757E-16	6.236844E-18
3.250000E+03	2.746853E-16	6.366231E-18
3.260000E+03	2.807768E-16	6.497023E-18
3.270000E+03	2.870278E-16	6.631002E-18
3.280000E+03	2.933993E-16	6.767248E-18
3.290000E+03	2.998912E-16	6.905738E-18
3.300000E+03	3.065026E-16	7.046440E-18
3.310000E+03	3.132332E-16	7.189328E-18
3.320000E+03	3.200823E-16	7.334367E-18
3.330000E+03	3.270494E-16	7.481529E-18
3.340000E+03	3.341796E-16	7.631830E-18
3.350000E+03	3.413814E-16	7.783160E-18
3.360000E+03	3.487470E-16	7.937605E-18
3.370000E+03	3.561814E-16	8.092984E-18
3.380000E+03	3.637806E-16	8.251463E-18
3.390000E+03	3.714967E-16	8.411935E-18
3.400000E+03	3.793297E-16	8.574380E-18
3.410000E+03	3.872794E-16	8.738781E-18
3.420000E+03	3.953467E-16	8.905133E-18
3.430000E+03	4.035319E-16	9.073432E-18
3.440000E+03	4.118361E-16	9.243682E-18
3.450000E+03	4.202607E-16	9.415895E-18
3.460000E+03	4.288649E-16	9.591375E-18
3.470000E+03	4.375369E-16	9.767606E-18
3.480000E+03	4.463955E-16	9.947217E-18
3.490000E+03	4.553865E-16	1.012898E-17
3.500000E+03	4.644522E-16	1.031159E-17
3.510000E+03	4.737188E-16	1.049783E-17
3.520000E+03	4.831314E-16	1.068645E-17
3.530000E+03	4.926956E-16	1.087757E-17
3.540000E+03	5.024179E-16	1.107129E-17
3.550000E+03	5.123056E-16	1.126777E-17
3.560000E+03	5.223670E-16	1.146714E-17
3.570000E+03	5.326805E-16	1.167110E-17
3.580000E+03	5.431182E-16	1.187682E-17
3.590000E+03	5.537592E-16	1.208601E-17
3.600000E+03	5.646882E-16	1.230048E-17
3.610000E+03	5.757729E-16	1.251731E-17
3.620000E+03	5.871743E-16	1.273997E-17
3.630000E+03	5.988340E-16	1.296715E-17
3.640000E+03	6.106893E-16	1.319745E-17
3.650000E+03	6.229116E-16	1.343455E-17
3.660000E+03	6.354418E-16	1.367711E-17
3.670000E+03	6.482981E-16	1.392548E-17
3.680000E+03	6.614998E-16	1.418003E-17
3.690000E+03	6.750670E-16	1.444114E-17
3.700000E+03	6.890207E-16	1.470920E-17
3.710000E+03	7.033827E-16	1.498461E-17
3.720000E+03	7.181753E-16	1.526779E-17
3.730000E+03	7.335134E-16	1.556112E-17
3.740000E+03	7.492381E-16	1.586115E-17
3.750000E+03	7.654637E-16	1.617024E-17
3.760000E+03	7.823110E-16	1.649085E-17
3.770000E+03	7.996109E-16	1.681935E-17
3.780000E+03	8.175830E-16	1.716027E-17
3.790000E+03	8.360492E-16	1.750979E-17
3.800000E+03	8.552345E-16	1.787252E-17
3.810000E+03	8.749485E-16	1.824440E-17
3.820000E+03	8.954194E-16	1.863010E-17
3.830000E+03	9.165522E-16	1.902752E-17
3.840000E+03	9.383513E-16	1.943666E-17
3.850000E+03	9.606959E-16	1.985492E-17
3.860000E+03	9.838025E-16	2.028668E-17
3.870000E+03	1.007528E-15	2.072889E-17
3.880000E+03	1.031825E-15	2.118047E-17
3.890000E+03	1.056628E-15	2.163999E-17
3.900000E+03	1.081843E-15	2.210547E-17
3.910000E+03	1.107352E-15	2.257440E-17
3.920000E+03	1.133007E-15	2.304376E-17
3.930000E+03	1.158634E-15	2.350997E-17
3.940000E+03	1.184033E-15	2.396897E-17
3.950000E+03	1.208986E-15	2.441639E-17
3.960000E+03	1.233261E-15	2.484761E-17
3.970000E+03	1.256630E-15	2.525813E-17
3.980000E+03	1.278867E-15	2.564356E-17
3.990000E+03	1.299766E-15	2.599994E-17
4.000000E+03	1.319150E-15	2.632390E-17
4.010000E+03	1.336873E-15	2.661276E-17
4.020000E+03	1.352833E-15	2.686473E-17
4.030000E+03	1.366968E-15	2.707885E-17
4.040000E+03	1.379267E-15	2.725514E-17
4.050000E+03	1.389762E-15	2.739453E-17
4.060000E+03	1.398532E-15	2.749882E-17
4.070000E+03	1.405695E-15	2.757058E-17
4.080000E+03	1.411403E-15	2.761301E-17
4.090000E+03	1.415838E-15	2.762990E-17
4.100000E+03	1.419201E-15	2.762533E-17
4.110000E+03	1.421708E-15	2.760367E-17
4.120000E+03	1.423577E-15	2.756926E-17
4.130000E+03	1.425028E-15	2.752648E-17
4.140000E+03	1.426278E-15	2.747952E-17
4.150000E+03	1.427532E-15	2.743239E-17
4.160000E+03	1.428985E-15	2.738881E-17
4.170000E+03	1.430817E-15	2.735224E-17
4.180000E+03	1.433197E-15	2.732577E-17
4.190000E+03	1.436274E-15	2.731223E-17
4.200000E+03	1.440021E-15	2.731096E-17
4.210000E+03	1.444874E-15	2.733013E-17
4.220000E+03	1.450767E-15	2.736830E-17
4.230000E+03	1.457607E-15	2.742360E-17
4.240000E+03	1.465761E-15	2.750277E-17
4.250000E+03	1.475084E-15	2.760289E-17
4.260000E+03	1.485401E-15	2.772049E-17
4.270000E+03	1.496994E-15	2.786072E-17
4.280000E+03	1.509459E-15	2.801587E-17
4.290000E+03	1.522860E-15	2.818699E-17
4.300000E+03	1.537236E-15	2.837465E-17
4.310000E+03	1.552103E-15	2.856981E-17
4.320000E+03	1.567459E-15	2.877234E-17
4.330000E+03	1.583123E-15	2.897887E-17
4.340000E+03	1.598905E-15	2.918591E-17
4.350000E+03	1.614616E-15	2.938995E-17
4.360000E+03	1.630064E-15	2.958757E-17
4.370000E+03	1.645085E-15	2.977581E-17
4.380000E+03	1.659554E-15	2.995251E-17
4.390000E+03	1.673441E-15	3.011721E-17
4.400000E+03	1.686664E-15	3.026851E-17
4.410000E+03	1.699808E-15	3.041703E-17
4.420000E+03	1.712813E-15	3.056168E-17
4.430000E+03	1.726368E-15	3.071476E-17
4.440000E+03	1.740416E-15	3.087519E-17
4.450000E+03	1.755417E-15	3.105101E-17
4.460000E+03	1.771780E-15	3.124930E-17
4.470000E+03	1.789292E-15	3.146612E-17
4.480000E+03	1.808235E-15	3.170622E-17
4.490000E+03	1.828620E-15	3.196960E-17
4.500000E+03	1.850187E-15	3.225147E-17
4.510000E+03	1.873168E-15	3.255572E-17
4.520000E+03	1.897126E-15	3.287452E-17
4.530000E+03	1.921523E-15	3.319844E-17
4.540000E+03	1.946345E-15	3.352717E-17
4.550000E+03	1.970704E-15	3.384540E-17
4.560000E+03	1.994266E-15	3.414748E-17
4.570000E+03	2.016477E-15	3.442408E-17
4.580000E+03	2.036784E-15	3.466598E-17
4.590000E+03	2.054670E-15	3.486472E-17
4.600000E+03	2.069684E-15	3.501306E-17
4.610000E+03	2.081464E-15	3.510529E-17
4.620000E+03	2.089536E-15	3.513399E-17
4.630000E+03	2.094196E-15	3.510467E-17
4.640000E+03	2.094993E-15	3.501033E-17
4.650000E+03	2.092238E-15	3.485674E-17
4.660000E+03	2.086333E-15	3.465115E-17
4.670000E+03	2.077116E-15	3.439134E-17
4.680000E+03	2.064911E-15	3.408317E-17
4.690000E+03	2.050495E-15	3.373990E-17
4.700000E+03	2.034016E-15	3.336431E-17
4.710000E+03	2.015633E-15	3.295929E-17
4.720000E+03	1.996100E-15	3.253747E-17
4.730000E+03	1.975336E-15	3.209767E-17
4.740000E+03	1.953849E-15	3.164833E-17
4.750000E+03	1.931922E-15	3.119413E-17
4.760000E+03	1.909821E-15	3.073943E-17
4.770000E+03	1.887805E-15	3.028840E-17
4.780000E+03	1.865945E-15	2.984217E-17
4.790000E+03	1.844891E-15	2.941108E-17
4.800000E+03	1.824563E-15	2.899376E-17
4.810000E+03	1.805656E-15	2.860106E-17
4.820000E+03	1.788171E-15	2.823284E-17
4.830000E+03	1.772704E-15	2.789822E-17
4.840000E+03	1.759536E-15	2.760131E-17
4.850000E+03	1.749508E-15	2.735492E-17
4.860000E+03	1.742959E-15	2.716386E-17
4.870000E+03	1.740231E-15	2.703290E-17
4.880000E+03	1.741990E-15	2.697180E-17
4.890000E+03	1.748843E-15	2.698923E-17
4.900000E+03	1.760793E-15	2.708448E-17
4.910000E+03	1.778053E-15	2.726003E-17
4.920000E+03	1.801020E-15	2.752118E-17
4.930000E+03	1.829367E-15	2.786208E-17
4.940000E+03	1.862516E-15	2.827315E-17
4.950000E+03	1.899993E-15	2.874653E-17
4.960000E+03	1.941080E-15	2.927072E-17
4.970000E+03	1.984248E-15	2.982224E-17
4.980000E+03	2.028152E-15	3.038066E-17
4.990000E+03	2.071749E-15	3.093030E-17
5.000000E+03	2.113421E-15	3.144715E-17
5.010000E+03	2.151661E-15	3.190920E-17
5.020000E+03	2.185639E-15	3.230468E-17
5.030000E+03	2.214893E-15	3.262748E-17
5.040000E+03	2.238738E-15	3.286823E-17
5.050000E+03	2.257337E-15	3.303015E-17
5.060000E+03	2.271690E-15	3.312862E-17
5.070000E+03	2.282435E-15	3.317357E-17
5.080000E+03	2.290391E-15	3.317737E-17
5.090000E+03	2.296870E-15	3.315942E-17
5.100000E+03	2.303120E-15	3.313791E-17
5.110000E+03	2.309551E-15	3.311877E-17
5.120000E+03	2.316787E-15	3.311088E-17
5.130000E+03	2.325626E-15	3.312553E-17
5.140000E+03	2.335926E-15	3.316049E-17
5.150000E+03	2.347293E-15	3.321001E-17
5.160000E+03	2.359581E-15	3.327189E-17
5.170000E+03	2.372273E-15	3.333873E-17
5.180000E+03	2.384764E-15	3.340207E-17
5.190000E+03	2.396428E-15	3.345318E-17
5.200000E+03	2.406663E-15	3.348386E-17
5.210000E+03	2.414704E-15	3.348371E-17
5.220000E+03	2.420572E-15	3.345336E-17
5.230000E+03	2.423474E-15	3.338219E-17
5.240000E+03	2.423423E-15	3.327082E-17
5.250000E+03	2.420307E-15	3.311814E-17
5.260000E+03	2.414112E-15	3.292439E-17
5.270000E+03	2.404908E-15	3.269096E-17
5.280000E+03	2.392615E-15	3.241717E-17
5.290000E+03	2.377898E-15	3.211243E-17
5.300000E+03	2.360561E-15	3.177445E-17
5.310000E+03	2.341141E-15	3.141074E-17
5.320000E+03	2.319980E-15	3.102618E-17
5.330000E+03	2.297452E-15	3.062599E-17
5.340000E+03	2.273736E-15	3.021269E-17
5.350000E+03	2.249677E-15	2.979765E-17
5.360000E+03	2.225268E-15	2.938079E-17
5.370000E+03	2.201356E-15	2.897333E-17
5.380000E+03	2.177947E-15	2.857525E-17
5.390000E+03	2.155677E-15	2.819481E-17
5.400000E+03	2.134977E-15	2.783749E-17
5.410000E+03	2.116279E-15	2.750870E-17
5.420000E+03	2.099820E-15	2.721126E-17
5.430000E+03	2.086434E-15	2.695571E-17
5.440000E+03	2.076150E-15	2.674202E-17
5.450000E+03	2.069556E-15	2.657741E-17
5.460000E+03	2.066979E-15	2.646566E-17
5.470000E+03	2.068629E-15	2.640897E-17
5.480000E+03	2.074514E-15	2.640698E-17
5.490000E+03	2.084310E-15	2.645509E-17
5.500000E+03	2.097020E-15	2.654025E-17
5.510000E+03	2.111704E-15	2.665028E-17
5.520000E+03	2.126233E-15	2.675819E-17
5.530000E+03	2.138884E-15	2.684237E-17
5.540000E+03	2.147742E-15	2.687905E-17
5.550000E+03	2.151068E-15	2.684695E-17
5.560000E+03	2.147427E-15	2.672873E-17
5.570000E+03	2.135775E-15	2.651212E-17
5.580000E+03	2.115507E-15	2.619045E-17
5.590000E+03	2.086271E-15	2.576015E-17
5.600000E+03	2.048526E-15	2.522774E-17
5.610000E+03	2.003075E-15	2.460385E-17
5.620000E+03	1.950435E-15	2.389549E-17
5.630000E+03	1.891905E-15	2.311915E-17
5.640000E+03	1.828742E-15	2.229064E-17
5.650000E+03	1.762136E-15	2.142477E-17
5.660000E+03	1.693839E-15	2.054306E-17
5.670000E+03	1.625133E-15	1.966108E-17
5.680000E+03	1.557336E-15	1.879469E-17
5.690000E+03	1.492043E-15	1.796293E-17
5.700000E+03	1.430635E-15	1.718212E-17
5.710000E+03	1.374525E-15	1.646879E-17
5.720000E+03	1.324606E-15	1.583308E-17
5.730000E+03	1.281883E-15	1.528640E-17
5.740000E+03	1.247410E-15	1.484065E-17
5.750000E+03	1.221688E-15	1.450105E-17
5.760000E+03	1.205035E-15	1.427061E-17
5.770000E+03	1.197918E-15	1.415409E-17
5.780000E+03	1.200161E-15	1.414866E-17
5.790000E+03	1.211837E-15	1.425440E-17
5.800000E+03	1.232345E-15	1.446353E-17
5.810000E+03	1.261169E-15	1.476933E-17
5.820000E+03	1.297399E-15	1.516054E-17
5.830000E+03	1.339811E-15	1.562237E-17
5.840000E+03	1.386727E-15	1.613484E-17
5.850000E+03	1.436547E-15	1.667907E-17
5.860000E+03	1.487034E-15	1.722899E-17
5.870000E+03	1.535777E-15	1.775669E-17
5.880000E+03	1.580614E-15	1.823742E-17
5.890000E+03	1.619533E-15	1.864829E-17
5.900000E+03	1.650367E-15	1.896487E-17
5.910000E+03	1.671840E-15	1.917312E-17
5.920000E+03	1.683091E-15	1.926385E-17
5.930000E+03	1.683873E-15	1.923493E-17
5.940000E+03	1.674569E-15	1.909145E-17
5.950000E+03	1.656123E-15	1.884481E-17
5.960000E+03	1.629793E-15	1.850990E-17
5.970000E+03	1.597629E-15	1.811044E-17
5.980000E+03	1.561400E-15	1.766679E-17
5.990000E+03	1.522929E-15	1.719979E-17
6.000000E+03	1.484258E-15	1.673256E-17
6.010000E+03	1.447246E-15	1.628598E-17
6.020000E+03	1.413123E-15	1.587378E-17
6.030000E+03	1.383290E-15	1.551145E-17
6.040000E+03	1.358769E-15	1.521016E-17
6.050000E+03	1.340367E-15	1.497859E-17
6.060000E+03	1.328710E-15	1.482338E-17
6.070000E+03	1.324286E-15	1.474957E-17
6.080000E+03	1.327488E-15	1.476114E-17
6.090000E+03	1.338533E-15	1.486008E-17
6.100000E+03	1.357988E-15	1.505230E-17
6.110000E+03	1.385938E-15	1.533828E-17
6.120000E+03	1.423009E-15	1.572458E-17
6.130000E+03	1.469360E-15	1.621252E-17
6.140000E+03	1.525736E-15	1.680990E-17
6.150000E+03	1.592365E-15	1.751882E-17
6.160000E+03	1.669898E-15	1.834603E-17
6.170000E+03	1.758802E-15	1.929623E-17
6.180000E+03	1.859418E-15	2.037277E-17
6.190000E+03	1.971873E-15	2.157665E-17
6.200000E+03	2.095966E-15	2.290530E-17
6.210000E+03	2.231048E-15	2.435130E-17
6.220000E+03	2.375900E-15	2.590112E-17
6.230000E+03	2.528646E-15	2.753413E-17
6.240000E+03	2.686681E-15	2.922192E-17
6.250000E+03	2.846408E-15	3.092543E-17
6.260000E+03	3.004366E-15	3.260727E-17
6.270000E+03	3.155533E-15	3.421329E-17
6.280000E+03	3.295768E-15	3.569909E-17
6.290000E+03	3.419817E-15	3.700840E-17
6.300000E+03	3.524088E-15	3.810306E-17
6.310000E+03	3.604475E-15	3.893946E-17
6.320000E+03	3.658920E-15	3.949622E-17
6.330000E+03	3.686663E-15	3.976590E-17
6.340000E+03	3.687239E-15	3.974423E-17
6.350000E+03	3.662495E-15	3.945176E-17
6.360000E+03	3.615008E-15	3.891675E-17
6.370000E+03	3.548129E-15	3.817568E-17
6.380000E+03	3.465648E-15	3.726957E-17
6.390000E+03	3.371441E-15	3.624025E-17
6.400000E+03	3.269172E-15	3.512711E-17
6.410000E+03	3.162061E-15	3.396471E-17
6.420000E+03	3.052754E-15	3.278134E-17
6.430000E+03	2.942983E-15	3.159548E-17
6.440000E+03	2.834725E-15	3.042815E-17
6.450000E+03	2.728577E-15	2.928560E-17
6.460000E+03	2.624775E-15	2.817017E-17
6.470000E+03	2.524035E-15	2.708938E-17
6.480000E+03	2.425943E-15	2.603859E-17
6.490000E+03	2.331009E-15	2.502315E-17
6.500000E+03	2.238879E-15	2.403906E-17
6.510000E+03	2.150150E-15	2.309260E-17
6.520000E+03	2.064623E-15	2.218151E-17
6.530000E+03	1.982901E-15	2.131210E-17
6.540000E+03	1.904743E-15	2.048165E-17
6.550000E+03	1.830402E-15	1.969274E-17
6.560000E+03	1.759854E-15	1.894500E-17
6.570000E+03	1.693174E-15	1.823912E-17
6.580000E+03	1.629902E-15	1.757010E-17
6.590000E+03	1.570019E-15	1.693763E-17
6.600000E+03	1.513277E-15	1.633902E-17
6.610000E+03	1.459364E-15	1.577082E-17
6.620000E+03	1.407920E-15	1.522912E-17
6.630000E+03	1.358549E-15	1.470959E-17
6.640000E+03	1.310855E-15	1.420790E-17
6.650000E+03	1.264469E-15	1.372002E-17
6.660000E+03	1.219078E-15	1.324248E-17
6.670000E+03	1.174335E-15	1.277145E-17
6.680000E+03	1.130326E-15	1.230783E-17
6.690000E+03	1.086896E-15	1.184988E-17
6.700000E+03	1.044103E-15	1.139815E-17
6.710000E+03	1.002000E-15	1.095321E-17
6.720000E+03	9.610048E-16	1.051956E-17
6.730000E+03	9.212944E-16	1.009915E-17
6.740000E+03	8.830957E-16	9.694454E-18
6.750000E+03	8.469038E-16	9.310933E-18
6.760000E+03	8.129502E-16	8.951180E-18
6.770000E+03	7.814600E-16	8.617742E-18
6.780000E+03	7.527838E-16	8.314573E-18
6.790000E+03	7.272277E-16	8.045165E-18
6.800000E+03	7.048538E-16	7.810338E-18
6.810000E+03	6.859735E-16	7.613689E-18
6.820000E+03	6.706072E-16	7.455613E-18
6.830000E+03	6.589636E-16	7.338608E-18
6.840000E+03	6.512445E-16	7.265115E-18
6.850000E+03	6.474715E-16	7.235591E-18
6.860000E+03	6.478694E-16	7.252771E-18
6.870000E+03	6.526193E-16	7.318922E-18
6.880000E+03	6.619854E-16	7.437271E-18
6.890000E+03	6.760608E-16	7.609142E-18
6.900000E+03	6.951356E-16	7.838093E-18
6.910000E+03	7.194351E-16	8.126984E-18
6.920000E+03	7.491649E-16	8.478469E-18
6.930000E+03	7.844902E-16	8.894771E-18
6.940000E+03	8.255100E-16	9.377380E-18
6.950000E+03	8.722317E-16	9.926750E-18
6.960000E+03	9.245437E-16	1.054199E-17
6.970000E+03	9.821934E-16	1.122059E-17
6.980000E+03	1.044673E-15	1.195709E-17
6.990000E+03	1.111611E-15	1.274756E-17
7.000000E+03	1.182204E-15	1.358310E-17
7.010000E+03	1.255628E-15	1.445444E-17
7.020000E+03	1.330993E-15	1.535154E-17
7.030000E+03	1.407267E-15	1.626261E-17
7.040000E+03	1.483877E-15	1.718107E-17
7.050000E+03	1.559982E-15	1.809722E-17
7.060000E+03	1.634903E-15	1.900312E-17
7.070000E+03	1.708653E-15	1.989885E-17
7.080000E+03	1.780878E-15	2.078021E-17
7.090000E+03	1.852155E-15	2.165384E-17
7.100000E+03	1.922626E-15	2.252132E-17
7.110000E+03	1.993384E-15	2.339545E-17
7.120000E+03	2.064965E-15	2.428255E-17
7.130000E+03	2.138608E-15	2.519726E-17
7.140000E+03	2.215651E-15	2.615550E-17
7.150000E+03	2.296792E-15	2.716579E-17
7.160000E+03	2.383280E-15	2.824318E-17
7.170000E+03	2.475979E-15	2.939831E-17
7.180000E+03	2.575480E-15	3.063860E-17
7.190000E+03	2.682254E-15	3.197016E-17
7.200000E+03	2.795509E-15	3.338403E-17
7.210000E+03	2.914616E-15	3.487310E-17
7.220000E+03	3.038005E-15	3.641895E-17
7.230000E+03	3.163357E-15	3.799404E-17
7.240000E+03	3.287589E-15	3.956137E-17
7.250000E+03	3.406907E-15	4.107513E-17
7.260000E+03	3.516608E-15	4.247816E-17
7.270000E+03	3.612668E-15	4.372113E-17
7.280000E+03	3.690023E-15	4.474167E-17
7.290000E+03	3.744289E-15	4.548523E-17
7.300000E+03	3.771439E-15	4.590124E-17
7.310000E+03	3.769646E-15	4.596555E-17
7.320000E+03	3.737327E-15	4.565685E-17
7.330000E+03	3.674395E-15	4.497198E-17
7.340000E+03	3.583316E-15	4.393909E-17
7.350000E+03	3.466417E-15	4.258483E-17
7.360000E+03	3.328424E-15	4.096561E-17
7.370000E+03	3.173343E-15	3.912940E-17
7.380000E+03	3.006443E-15	3.714011E-17
7.390000E+03	2.832831E-15	3.506014E-17
7.400000E+03	2.656376E-15	3.293701E-17
7.410000E+03	2.481242E-15	3.082226E-17
7.420000E+03	2.310619E-15	2.875566E-17
7.430000E+03	2.146982E-15	2.676838E-17
7.440000E+03	1.992139E-15	2.488351E-17
7.450000E+03	1.847298E-15	2.311674E-17
7.460000E+03	1.713168E-15	2.147765E-17
7.470000E+03	1.590059E-15	1.997087E-17
7.480000E+03	1.477978E-15	1.859725E-17
7.490000E+03	1.376719E-15	1.735493E-17
7.500000E+03	1.285927E-15	1.624018E-17
7.510000E+03	1.205041E-15	1.524662E-17
7.520000E+03	1.133816E-15	1.437184E-17
7.530000E+03	1.071619E-15	1.360845E-17
7.540000E+03	1.017846E-15	1.294940E-17
7.550000E+03	9.722242E-16	1.239180E-17
7.560000E+03	9.341010E-16	1.192789E-17
7.570000E+03	9.031554E-16	1.155409E-17
7.580000E+03	8.790860E-16	1.126703E-17
7.590000E+03	8.613568E-16	1.106033E-17
7.600000E+03	8.497251E-16	1.093132E-17
7.610000E+03	8.438756E-16	1.087636E-17
7.620000E+03	8.435004E-16	1.089192E-17
7.630000E+03	8.483719E-16	1.097544E-17
7.640000E+03	8.579875E-16	1.112080E-17
7.650000E+03	8.719752E-16	1.132354E-17
7.660000E+03	8.900858E-16	1.158073E-17
7.670000E+03	9.117411E-16	1.188518E-17
7.680000E+03	9.363658E-16	1.222964E-17
7.690000E+03	9.632925E-16	1.260562E-17
7.700000E+03	9.916599E-16	1.300204E-17
7.710000E+03	1.020819E-15	1.341049E-17
7.720000E+03	1.049657E-15	1.381642E-17
7.730000E+03	1.077441E-15	1.421016E-17
7.740000E+03	1.103029E-15	1.457657E-17
7.750000E+03	1.125788E-15	1.490712E-17
7.760000E+03	1.144774E-15	1.518907E-17
