#wls	flux	fluxerr
1.600000E+03	5.864136E-17	1.642057E-18
1.640000E+03	5.815218E-17	1.625246E-18
1.680000E+03	5.769975E-17	1.609434E-18
1.720000E+03	5.729861E-17	1.595019E-18
1.760000E+03	5.694332E-17	1.581841E-18
1.800000E+03	5.664867E-17	1.570302E-18
1.840000E+03	5.640982E-17	1.560257E-18
1.880000E+03	5.624196E-17	1.552114E-18
1.920000E+03	5.614095E-17	1.545746E-18
1.960000E+03	5.611292E-17	1.541307E-18
2.000000E+03	5.617410E-17	1.539226E-18
2.040000E+03	5.633154E-17	1.539675E-18
2.080000E+03	5.658328E-17	1.542578E-18
2.120000E+03	5.694759E-17	1.548411E-18
2.160000E+03	5.742415E-17	1.557136E-18
2.200000E+03	5.803333E-17	1.569275E-18
2.240000E+03	5.878706E-17	1.585114E-18
2.280000E+03	5.968875E-17	1.604706E-18
2.320000E+03	6.075320E-17	1.628407E-18
2.360000E+03	6.201804E-17	1.657173E-18
2.400000E+03	6.348203E-17	1.690913E-18
2.440000E+03	6.516667E-17	1.730138E-18
2.480000E+03	6.711856E-17	1.776011E-18
2.520000E+03	6.934396E-17	1.828613E-18
2.560000E+03	7.187389E-17	1.888669E-18
2.600000E+03	7.475555E-17	1.957313E-18
2.640000E+03	7.802943E-17	2.035483E-18
2.680000E+03	8.174094E-17	2.124220E-18
2.720000E+03	8.592673E-17	2.224319E-18
2.760000E+03	9.067032E-17	2.337761E-18
2.800000E+03	9.598924E-17	2.464791E-18
2.840000E+03	1.019951E-16	2.608043E-18
2.880000E+03	1.087289E-16	2.768299E-18
2.920000E+03	1.162841E-16	2.947641E-18
2.960000E+03	1.247234E-16	3.147320E-18
3.000000E+03	1.341713E-16	3.370104E-18
3.010000E+03	1.366840E-16	3.429190E-18
3.020000E+03	1.392858E-16	3.490339E-18
3.030000E+03	1.419341E-16	3.552478E-18
3.040000E+03	1.446747E-16	3.616747E-18
3.050000E+03	1.474639E-16	3.682044E-18
3.060000E+03	1.503488E-16	3.749537E-18
3.070000E+03	1.533080E-16	3.818687E-18
3.080000E+03	1.563183E-16	3.888903E-18
3.090000E+03	1.594296E-16	3.961425E-18
3.100000E+03	1.626190E-16	4.035671E-18
3.110000E+03	1.658879E-16	4.111666E-18
3.120000E+03	1.692376E-16	4.189435E-18
3.130000E+03	1.726692E-16	4.268995E-18
3.140000E+03	1.761841E-16	4.350373E-18
3.150000E+03	1.797834E-16	4.433586E-18
3.160000E+03	1.834683E-16	4.518654E-18
3.170000E+03	1.872402E-16	4.605601E-18
3.180000E+03	1.911001E-16	4.694442E-18
3.190000E+03	1.950492E-16	4.785196E-18
3.200000E+03	1.990886E-16	4.877882E-18
3.210000E+03	2.032510E-16	4.973287E-18
3.220000E+03	2.074753E-16	5.069905E-18
3.230000E+03	2.117935E-16	5.168509E-18
3.240000E+03	2.162399E-16	5.269923E-18
3.250000E+03	2.207499E-16	5.372564E-18
3.260000E+03	2.253573E-16	5.477240E-18
3.270000E+03	2.300985E-16	5.584824E-18
3.280000E+03	2.349050E-16	5.693642E-18
3.290000E+03	2.398491E-16	5.805436E-18
3.300000E+03	2.448970E-16	5.919371E-18
3.310000E+03	2.500121E-16	6.034550E-18
3.320000E+03	2.552711E-16	6.152815E-18
3.330000E+03	2.606381E-16	6.273285E-18
3.340000E+03	2.660745E-16	6.395018E-18
3.350000E+03	2.716618E-16	6.519962E-18
3.360000E+03	2.773622E-16	6.647190E-18
3.370000E+03	2.831777E-16	6.776738E-18
3.380000E+03	2.891103E-16	6.908639E-18
3.390000E+03	2.951176E-16	7.041867E-18
3.400000E+03	3.012902E-16	7.178568E-18
3.410000E+03	3.075868E-16	7.317742E-18
3.420000E+03	3.140102E-16	7.459439E-18
3.430000E+03	3.205634E-16	7.603714E-18
3.440000E+03	3.272495E-16	7.750621E-18
3.450000E+03	3.341216E-16	7.901405E-18
3.460000E+03	3.410849E-16	8.053798E-18
3.470000E+03	3.481920E-16	8.209032E-18
3.480000E+03	3.554473E-16	8.367189E-18
3.490000E+03	3.628553E-16	8.528356E-18
3.500000E+03	3.704209E-16	8.692629E-18
3.510000E+03	3.782052E-16	8.861422E-18
3.520000E+03	3.861031E-16	9.032243E-18
3.530000E+03	3.941752E-16	9.206499E-18
3.540000E+03	4.024875E-16	9.385700E-18
3.550000E+03	4.109290E-16	9.567234E-18
3.560000E+03	4.195653E-16	9.752608E-18
3.570000E+03	4.284666E-16	9.943426E-18
3.580000E+03	4.375164E-16	1.013696E-17
3.590000E+03	4.468503E-16	1.033631E-17
3.600000E+03	4.563473E-16	1.053867E-17
3.610000E+03	4.661489E-16	1.074726E-17
3.620000E+03	4.761298E-16	1.095917E-17
3.630000E+03	4.864374E-16	1.117775E-17
3.640000E+03	4.969416E-16	1.139998E-17
3.650000E+03	5.077959E-16	1.162936E-17
3.660000E+03	5.188650E-16	1.186274E-17
3.670000E+03	5.303086E-16	1.210373E-17
3.680000E+03	5.420636E-16	1.235086E-17
3.690000E+03	5.540607E-16	1.260250E-17
3.700000E+03	5.664686E-16	1.286246E-17
3.710000E+03	5.792191E-16	1.312912E-17
3.720000E+03	5.922362E-16	1.340074E-17
3.730000E+03	6.056970E-16	1.368127E-17
3.740000E+03	6.195254E-16	1.396894E-17
3.750000E+03	6.337273E-16	1.426383E-17
3.760000E+03	6.482140E-16	1.456390E-17
3.770000E+03	6.631708E-16	1.487327E-17
3.780000E+03	6.785059E-16	1.518982E-17
3.790000E+03	6.942153E-16	1.551341E-17
3.800000E+03	7.101897E-16	1.584155E-17
3.810000E+03	7.266165E-16	1.617838E-17
3.820000E+03	7.433792E-16	1.652124E-17
3.830000E+03	7.604543E-16	1.686957E-17
3.840000E+03	7.778120E-16	1.722266E-17
3.850000E+03	7.954152E-16	1.757966E-17
3.860000E+03	8.131047E-16	1.793702E-17
3.870000E+03	8.310552E-16	1.829856E-17
3.880000E+03	8.490939E-16	1.866045E-17
3.890000E+03	8.671520E-16	1.902117E-17
3.900000E+03	8.851537E-16	1.937905E-17
3.910000E+03	9.030161E-16	1.973227E-17
3.920000E+03	9.205225E-16	2.007613E-17
3.930000E+03	9.378361E-16	2.041422E-17
3.940000E+03	9.547366E-16	2.074177E-17
3.950000E+03	9.711312E-16	2.105682E-17
3.960000E+03	9.869303E-16	2.135749E-17
3.970000E+03	1.002050E-15	2.164204E-17
3.980000E+03	1.016418E-15	2.190899E-17
3.990000E+03	1.029828E-15	2.215400E-17
4.000000E+03	1.042517E-15	2.238227E-17
4.010000E+03	1.054312E-15	2.259019E-17
4.020000E+03	1.065199E-15	2.277758E-17
4.030000E+03	1.075185E-15	2.294471E-17
4.040000E+03	1.084146E-15	2.308904E-17
4.050000E+03	1.092421E-15	2.321791E-17
4.060000E+03	1.099926E-15	2.332963E-17
4.070000E+03	1.106737E-15	2.342591E-17
4.080000E+03	1.112794E-15	2.350556E-17
4.090000E+03	1.118503E-15	2.357726E-17
4.100000E+03	1.123828E-15	2.364028E-17
4.110000E+03	1.128887E-15	2.369713E-17
4.120000E+03	1.133647E-15	2.374721E-17
4.130000E+03	1.138540E-15	2.379956E-17
4.140000E+03	1.143537E-15	2.385354E-17
4.150000E+03	1.148597E-15	2.390833E-17
4.160000E+03	1.154146E-15	2.397271E-17
4.170000E+03	1.159972E-15	2.404229E-17
4.180000E+03	1.166485E-15	2.412545E-17
4.190000E+03	1.173609E-15	2.422057E-17
4.200000E+03	1.181256E-15	2.432575E-17
4.210000E+03	1.189800E-15	2.444859E-17
4.220000E+03	1.198963E-15	2.458329E-17
4.230000E+03	1.209096E-15	2.473695E-17
4.240000E+03	1.219886E-15	2.490303E-17
4.250000E+03	1.231495E-15	2.508477E-17
4.260000E+03	1.244070E-15	2.528503E-17
4.270000E+03	1.257251E-15	2.549638E-17
4.280000E+03	1.271329E-15	2.572464E-17
4.290000E+03	1.285909E-15	2.596170E-17
4.300000E+03	1.301096E-15	2.620963E-17
4.310000E+03	1.316816E-15	2.646681E-17
4.320000E+03	1.333166E-15	2.673518E-17
4.330000E+03	1.349715E-15	2.700601E-17
4.340000E+03	1.366560E-15	2.728118E-17
4.350000E+03	1.383628E-15	2.755924E-17
4.360000E+03	1.400857E-15	2.783889E-17
4.370000E+03	1.418198E-15	2.811917E-17
4.380000E+03	1.435617E-15	2.839938E-17
4.390000E+03	1.453090E-15	2.867906E-17
4.400000E+03	1.470598E-15	2.895780E-17
4.410000E+03	1.488119E-15	2.923517E-17
4.420000E+03	1.505635E-15	2.951085E-17
4.430000E+03	1.523135E-15	2.978458E-17
4.440000E+03	1.540407E-15	3.005227E-17
4.450000E+03	1.557835E-15	3.032142E-17
4.460000E+03	1.575191E-15	3.058759E-17
4.470000E+03	1.592431E-15	3.084992E-17
4.480000E+03	1.609276E-15	3.110305E-17
4.490000E+03	1.626053E-15	3.135332E-17
4.500000E+03	1.642219E-15	3.159033E-17
4.510000E+03	1.658055E-15	3.181952E-17
4.520000E+03	1.672964E-15	3.202952E-17
4.530000E+03	1.687191E-15	3.222512E-17
4.540000E+03	1.700099E-15	3.239429E-17
4.550000E+03	1.711699E-15	3.253743E-17
4.560000E+03	1.722012E-15	3.265509E-17
4.570000E+03	1.730406E-15	3.273550E-17
4.580000E+03	1.736933E-15	3.277990E-17
4.590000E+03	1.741454E-15	3.278593E-17
4.600000E+03	1.743870E-15	3.275202E-17
4.610000E+03	1.744123E-15	3.267732E-17
4.620000E+03	1.742201E-15	3.256197E-17
4.630000E+03	1.738142E-15	3.240693E-17
4.640000E+03	1.732027E-15	3.221402E-17
4.650000E+03	1.723985E-15	3.198589E-17
4.660000E+03	1.713961E-15	3.172181E-17
4.670000E+03	1.702593E-15	3.143381E-17
4.680000E+03	1.689884E-15	3.112216E-17
4.690000E+03	1.675862E-15	3.078752E-17
4.700000E+03	1.661208E-15	3.044259E-17
4.710000E+03	1.645754E-15	3.008436E-17
4.720000E+03	1.630178E-15	2.972531E-17
4.730000E+03	1.614313E-15	2.936242E-17
4.740000E+03	1.598610E-15	2.900391E-17
4.750000E+03	1.583498E-15	2.865751E-17
4.760000E+03	1.568790E-15	2.831982E-17
4.770000E+03	1.554894E-15	2.799806E-17
4.780000E+03	1.542001E-15	2.769559E-17
4.790000E+03	1.530289E-15	2.741546E-17
4.800000E+03	1.519926E-15	2.716052E-17
4.810000E+03	1.511070E-15	2.693337E-17
4.820000E+03	1.503866E-15	2.673643E-17
4.830000E+03	1.498450E-15	2.657186E-17
4.840000E+03	1.494762E-15	2.643836E-17
4.850000E+03	1.493290E-15	2.634429E-17
4.860000E+03	1.493946E-15	2.628782E-17
4.870000E+03	1.496624E-15	2.626681E-17
4.880000E+03	1.501764E-15	2.628865E-17
4.890000E+03	1.509029E-15	2.634716E-17
4.900000E+03	1.518617E-15	2.644551E-17
4.910000E+03	1.530705E-15	2.658642E-17
4.920000E+03	1.544858E-15	2.676204E-17
4.930000E+03	1.561179E-15	2.697386E-17
4.940000E+03	1.579541E-15	2.721941E-17
4.950000E+03	1.599783E-15	2.749565E-17
4.960000E+03	1.621707E-15	2.779895E-17
4.970000E+03	1.645088E-15	2.812520E-17
4.980000E+03	1.669672E-15	2.846992E-17
4.990000E+03	1.695194E-15	2.882842E-17
5.000000E+03	1.721381E-15	2.919596E-17
5.010000E+03	1.747747E-15	2.956424E-17
5.020000E+03	1.774470E-15	2.993624E-17
5.030000E+03	1.801102E-15	3.030437E-17
5.040000E+03	1.827212E-15	3.066145E-17
5.050000E+03	1.852850E-15	3.100837E-17
5.060000E+03	1.878106E-15	3.134672E-17
5.070000E+03	1.902407E-15	3.166703E-17
5.080000E+03	1.925893E-15	3.197174E-17
5.090000E+03	1.948729E-15	3.226372E-17
5.100000E+03	1.970366E-15	3.253400E-17
5.110000E+03	1.990966E-15	3.278540E-17
5.120000E+03	2.010442E-15	3.301668E-17
5.130000E+03	2.028686E-15	3.322620E-17
5.140000E+03	2.045314E-15	3.340789E-17
5.150000E+03	2.060676E-15	3.356767E-17
5.160000E+03	2.074347E-15	3.369879E-17
5.170000E+03	2.086137E-15	3.379846E-17
5.180000E+03	2.095595E-15	3.385959E-17
5.190000E+03	2.103039E-15	3.388767E-17
5.200000E+03	2.107779E-15	3.387189E-17
5.210000E+03	2.110180E-15	3.381843E-17
5.220000E+03	2.109612E-15	3.371757E-17
5.230000E+03	2.106267E-15	3.357274E-17
5.240000E+03	2.100132E-15	3.338413E-17
5.250000E+03	2.091252E-15	3.315279E-17
5.260000E+03	2.079986E-15	3.288480E-17
5.270000E+03	2.065986E-15	3.257496E-17
5.280000E+03	2.049728E-15	3.223110E-17
5.290000E+03	2.031229E-15	3.185382E-17
5.300000E+03	2.011299E-15	3.145603E-17
5.310000E+03	1.990027E-15	3.103932E-17
5.320000E+03	1.967774E-15	3.060949E-17
5.330000E+03	1.944676E-15	3.016875E-17
5.340000E+03	1.921584E-15	2.973038E-17
5.350000E+03	1.898388E-15	2.929268E-17
5.360000E+03	1.875895E-15	2.886808E-17
5.370000E+03	1.853960E-15	2.845427E-17
5.380000E+03	1.833311E-15	2.806232E-17
5.390000E+03	1.813728E-15	2.768870E-17
5.400000E+03	1.795617E-15	2.733947E-17
5.410000E+03	1.779095E-15	2.701623E-17
5.420000E+03	1.764219E-15	2.671965E-17
5.430000E+03	1.750978E-15	2.644935E-17
5.440000E+03	1.739287E-15	2.620388E-17
5.450000E+03	1.728989E-15	2.598069E-17
5.460000E+03	1.719850E-15	2.577611E-17
5.470000E+03	1.711569E-15	2.558549E-17
5.480000E+03	1.703779E-15	2.540325E-17
5.490000E+03	1.695868E-15	2.522022E-17
5.500000E+03	1.687822E-15	2.503619E-17
5.510000E+03	1.678812E-15	2.483892E-17
5.520000E+03	1.668840E-15	2.462851E-17
5.530000E+03	1.657112E-15	2.439340E-17
5.540000E+03	1.643678E-15	2.413448E-17
5.550000E+03	1.627833E-15	2.384163E-17
5.560000E+03	1.609544E-15	2.351461E-17
5.570000E+03	1.588859E-15	2.315435E-17
5.580000E+03	1.565344E-15	2.275482E-17
5.590000E+03	1.539255E-15	2.231999E-17
5.600000E+03	1.510757E-15	2.185253E-17
5.610000E+03	1.480121E-15	2.135659E-17
5.620000E+03	1.447704E-15	2.083750E-17
5.630000E+03	1.413943E-15	2.030170E-17
5.640000E+03	1.379158E-15	1.975391E-17
5.650000E+03	1.344214E-15	1.920656E-17
5.660000E+03	1.309482E-15	1.866494E-17
5.670000E+03	1.275499E-15	1.813662E-17
5.680000E+03	1.242631E-15	1.762672E-17
5.690000E+03	1.211663E-15	1.714619E-17
5.700000E+03	1.182734E-15	1.669679E-17
5.710000E+03	1.156507E-15	1.628764E-17
5.720000E+03	1.133014E-15	1.591888E-17
5.730000E+03	1.112645E-15	1.559570E-17
5.740000E+03	1.095704E-15	1.532203E-17
5.750000E+03	1.082035E-15	1.509535E-17
5.760000E+03	1.071803E-15	1.491759E-17
5.770000E+03	1.064968E-15	1.478790E-17
5.780000E+03	1.061418E-15	1.470435E-17
5.790000E+03	1.060964E-15	1.466405E-17
5.800000E+03	1.063347E-15	1.466309E-17
5.810000E+03	1.068229E-15	1.469659E-17
5.820000E+03	1.075207E-15	1.475874E-17
5.830000E+03	1.083808E-15	1.484292E-17
5.840000E+03	1.093508E-15	1.494179E-17
5.850000E+03	1.103740E-15	1.504754E-17
5.860000E+03	1.113781E-15	1.515028E-17
5.870000E+03	1.123313E-15	1.524572E-17
5.880000E+03	1.131646E-15	1.532458E-17
5.890000E+03	1.138146E-15	1.537843E-17
5.900000E+03	1.142679E-15	1.540560E-17
5.910000E+03	1.144675E-15	1.539861E-17
5.920000E+03	1.144246E-15	1.535921E-17
5.930000E+03	1.141099E-15	1.528367E-17
5.940000E+03	1.135500E-15	1.517582E-17
5.950000E+03	1.127855E-15	1.504125E-17
5.960000E+03	1.118285E-15	1.488175E-17
5.970000E+03	1.107421E-15	1.470589E-17
5.980000E+03	1.095839E-15	1.452138E-17
5.990000E+03	1.084295E-15	1.433828E-17
6.000000E+03	1.073180E-15	1.416174E-17
6.010000E+03	1.063283E-15	1.400212E-17
6.020000E+03	1.055250E-15	1.386782E-17
6.030000E+03	1.049707E-15	1.376686E-17
6.040000E+03	1.047251E-15	1.370688E-17
6.050000E+03	1.048323E-15	1.369340E-17
6.060000E+03	1.053719E-15	1.373652E-17
6.070000E+03	1.063835E-15	1.384107E-17
6.080000E+03	1.079182E-15	1.401331E-17
6.090000E+03	1.100260E-15	1.425938E-17
6.100000E+03	1.127435E-15	1.458358E-17
6.110000E+03	1.161471E-15	1.499538E-17
6.120000E+03	1.202736E-15	1.549902E-17
6.130000E+03	1.251566E-15	1.609836E-17
6.140000E+03	1.308719E-15	1.680264E-17
6.150000E+03	1.374304E-15	1.761275E-17
6.160000E+03	1.448985E-15	1.853665E-17
6.170000E+03	1.532652E-15	1.957242E-17
6.180000E+03	1.625731E-15	2.072495E-17
6.190000E+03	1.727692E-15	2.198701E-17
6.200000E+03	1.838299E-15	2.335513E-17
6.210000E+03	1.957032E-15	2.482229E-17
6.220000E+03	2.082298E-15	2.636796E-17
6.230000E+03	2.212761E-15	2.797501E-17
6.240000E+03	2.346428E-15	2.961812E-17
6.250000E+03	2.481184E-15	3.127065E-17
6.260000E+03	2.613668E-15	3.289041E-17
6.270000E+03	2.741108E-15	3.444290E-17
6.280000E+03	2.860306E-15	3.588847E-17
6.290000E+03	2.968090E-15	3.718799E-17
6.300000E+03	3.061488E-15	3.830507E-17
6.310000E+03	3.137920E-15	3.920839E-17
6.320000E+03	3.195359E-15	3.987363E-17
6.330000E+03	3.232457E-15	4.028504E-17
6.340000E+03	3.248628E-15	4.043641E-17
6.350000E+03	3.244055E-15	4.033101E-17
6.360000E+03	3.219650E-15	3.998115E-17
6.370000E+03	3.176573E-15	3.940203E-17
6.380000E+03	3.117628E-15	3.862917E-17
6.390000E+03	3.044791E-15	3.768759E-17
6.400000E+03	2.960593E-15	3.660904E-17
6.410000E+03	2.867237E-15	3.542104E-17
6.420000E+03	2.767863E-15	3.416254E-17
6.430000E+03	2.664345E-15	3.285670E-17
6.440000E+03	2.558332E-15	3.152382E-17
6.450000E+03	2.452109E-15	3.019196E-17
6.460000E+03	2.346421E-15	2.887011E-17
6.470000E+03	2.242902E-15	2.757817E-17
6.480000E+03	2.141795E-15	2.631892E-17
6.490000E+03	2.044207E-15	2.510572E-17
6.500000E+03	1.950037E-15	2.393708E-17
6.510000E+03	1.860037E-15	2.282201E-17
6.520000E+03	1.773908E-15	2.175662E-17
6.530000E+03	1.692132E-15	2.074658E-17
6.540000E+03	1.614163E-15	1.978500E-17
6.550000E+03	1.539956E-15	1.887109E-17
6.560000E+03	1.469393E-15	1.800322E-17
6.570000E+03	1.401845E-15	1.717350E-17
6.580000E+03	1.337275E-15	1.638131E-17
6.590000E+03	1.275491E-15	1.562416E-17
6.600000E+03	1.216333E-15	1.489995E-17
6.610000E+03	1.159808E-15	1.420864E-17
6.620000E+03	1.105514E-15	1.354520E-17
6.630000E+03	1.053509E-15	1.291025E-17
6.640000E+03	1.003723E-15	1.230285E-17
6.650000E+03	9.561102E-16	1.172233E-17
6.660000E+03	9.106414E-16	1.116829E-17
6.670000E+03	8.673083E-16	1.064056E-17
6.680000E+03	8.261184E-16	1.013918E-17
6.690000E+03	7.870928E-16	9.664374E-18
6.700000E+03	7.502625E-16	9.216484E-18
6.710000E+03	7.156652E-16	8.795950E-18
6.720000E+03	6.833416E-16	8.403257E-18
6.730000E+03	6.533320E-16	8.038893E-18
6.740000E+03	6.256741E-16	7.703326E-18
6.750000E+03	6.004011E-16	7.396975E-18
6.760000E+03	5.774705E-16	7.119334E-18
6.770000E+03	5.570471E-16	6.872460E-18
6.780000E+03	5.390751E-16	6.655700E-18
6.790000E+03	5.235682E-16	6.469264E-18
6.800000E+03	5.105385E-16	6.313350E-18
6.810000E+03	4.999378E-16	6.187415E-18
6.820000E+03	4.919046E-16	6.093233E-18
6.830000E+03	4.863980E-16	6.030367E-18
6.840000E+03	4.833882E-16	5.998517E-18
6.850000E+03	4.830312E-16	5.999700E-18
6.860000E+03	4.853175E-16	6.033884E-18
6.870000E+03	4.902482E-16	6.101175E-18
6.880000E+03	4.980156E-16	6.204064E-18
6.890000E+03	5.085831E-16	6.342203E-18
6.900000E+03	5.221680E-16	6.518416E-18
6.910000E+03	5.387471E-16	6.732536E-18
6.920000E+03	5.585579E-16	6.987661E-18
6.930000E+03	5.815757E-16	7.283625E-18
6.940000E+03	6.080472E-16	7.623660E-18
6.950000E+03	6.379275E-16	8.007364E-18
6.960000E+03	6.713766E-16	8.436906E-18
6.970000E+03	7.085553E-16	8.914478E-18
6.980000E+03	7.493517E-16	9.438853E-18
6.990000E+03	7.939820E-16	1.001294E-17
7.000000E+03	8.422749E-16	1.063475E-17
7.010000E+03	8.943217E-16	1.130565E-17
7.020000E+03	9.501078E-16	1.202563E-17
7.030000E+03	1.009734E-15	1.279617E-17
7.040000E+03	1.072936E-15	1.361412E-17
7.050000E+03	1.139812E-15	1.448092E-17
7.060000E+03	1.210356E-15	1.539670E-17
7.070000E+03	1.284585E-15	1.636185E-17
7.080000E+03	1.362535E-15	1.737706E-17
7.090000E+03	1.444448E-15	1.844561E-17
7.100000E+03	1.530056E-15	1.956432E-17
7.110000E+03	1.619618E-15	2.073667E-17
7.120000E+03	1.713212E-15	2.196393E-17
7.130000E+03	1.810886E-15	2.324692E-17
7.140000E+03	1.912627E-15	2.458571E-17
7.150000E+03	2.018318E-15	2.597901E-17
7.160000E+03	2.127700E-15	2.742374E-17
7.170000E+03	2.240328E-15	2.891436E-17
7.180000E+03	2.355518E-15	3.044223E-17
7.190000E+03	2.471999E-15	3.199104E-17
7.200000E+03	2.589082E-15	3.355198E-17
7.210000E+03	2.704850E-15	3.510022E-17
7.220000E+03	2.817333E-15	3.661011E-17
7.230000E+03	2.924232E-15	3.805160E-17
7.240000E+03	3.022609E-15	3.938610E-17
7.250000E+03	3.110455E-15	4.058697E-17
7.260000E+03	3.184601E-15	4.161225E-17
7.270000E+03	3.242335E-15	4.242572E-17
7.280000E+03	3.280803E-15	4.298909E-17
7.290000E+03	3.298799E-15	4.328550E-17
7.300000E+03	3.294507E-15	4.328996E-17
7.310000E+03	3.266832E-15	4.298682E-17
7.320000E+03	3.216708E-15	4.238708E-17
7.330000E+03	3.144282E-15	4.149143E-17
7.340000E+03	3.052073E-15	4.033189E-17
7.350000E+03	2.941728E-15	3.892911E-17
7.360000E+03	2.816930E-15	3.733088E-17
7.370000E+03	2.680258E-15	3.557056E-17
7.380000E+03	2.535829E-15	3.370217E-17
7.390000E+03	2.386400E-15	3.176192E-17
7.400000E+03	2.235508E-15	2.979664E-17
7.410000E+03	2.086288E-15	2.784805E-17
7.420000E+03	1.940667E-15	2.594199E-17
7.430000E+03	1.800927E-15	2.410916E-17
7.440000E+03	1.668813E-15	2.237328E-17
7.450000E+03	1.544986E-15	2.074364E-17
7.460000E+03	1.430361E-15	1.923299E-17
7.470000E+03	1.325282E-15	1.784649E-17
7.480000E+03	1.229810E-15	1.658549E-17
7.490000E+03	1.143928E-15	1.545033E-17
7.500000E+03	1.067017E-15	1.443318E-17
7.510000E+03	9.987957E-16	1.353075E-17
7.520000E+03	9.387598E-16	1.273671E-17
7.530000E+03	8.863704E-16	1.204423E-17
7.540000E+03	8.410807E-16	1.144632E-17
7.550000E+03	8.023550E-16	1.093610E-17
7.560000E+03	7.696817E-16	1.050700E-17
7.570000E+03	7.425810E-16	1.015283E-17
7.580000E+03	7.206086E-16	9.867837E-18
7.590000E+03	7.032675E-16	9.645544E-18
7.600000E+03	6.903605E-16	9.483533E-18
7.610000E+03	6.814515E-16	9.376087E-18
7.620000E+03	6.762184E-16	9.319034E-18
7.630000E+03	6.743573E-16	9.308420E-18
7.640000E+03	6.754901E-16	9.339251E-18
7.650000E+03	6.794991E-16	9.410101E-18
7.660000E+03	6.860113E-16	9.515999E-18
7.670000E+03	6.946468E-16	9.651850E-18
7.680000E+03	7.052793E-16	9.816052E-18
7.690000E+03	7.175151E-16	1.000327E-17
7.700000E+03	7.309485E-16	1.020796E-17
7.710000E+03	7.454482E-16	1.042840E-17
7.720000E+03	7.605204E-16	1.065774E-17
7.730000E+03	7.760645E-16	1.089465E-17
7.740000E+03	7.916243E-16	1.113276E-17
7.750000E+03	8.070742E-16	1.137032E-17
7.760000E+03	8.223502E-16	1.160643E-17
