#wls	flux	fluxerr
1.600000E+03	1.351585E-17	1.535214E-17
1.640000E+03	1.389605E-17	1.576449E-17
1.680000E+03	1.430342E-17	1.620378E-17
1.720000E+03	1.473860E-17	1.666997E-17
1.760000E+03	1.520347E-17	1.716434E-17
1.800000E+03	1.569845E-17	1.768633E-17
1.840000E+03	1.622655E-17	1.823813E-17
1.880000E+03	1.678927E-17	1.882000E-17
1.920000E+03	1.738666E-17	1.943036E-17
1.960000E+03	1.801865E-17	2.006717E-17
2.000000E+03	1.868499E-17	2.072798E-17
2.040000E+03	1.938659E-17	2.141121E-17
2.080000E+03	2.011773E-17	2.210762E-17
2.120000E+03	2.087646E-17	2.281179E-17
2.160000E+03	2.165814E-17	2.351497E-17
2.200000E+03	2.245299E-17	2.420251E-17
2.240000E+03	2.325755E-17	2.486632E-17
2.280000E+03	2.406578E-17	2.549516E-17
2.320000E+03	2.487774E-17	2.608393E-17
2.360000E+03	2.569571E-17	2.662925E-17
2.400000E+03	2.652400E-17	2.712914E-17
2.440000E+03	2.737002E-17	2.758383E-17
2.480000E+03	2.823576E-17	2.798698E-17
2.520000E+03	2.912612E-17	2.833417E-17
2.560000E+03	3.004409E-17	2.861788E-17
2.600000E+03	3.098841E-17	2.882548E-17
2.640000E+03	3.195826E-17	2.894390E-17
2.680000E+03	3.294978E-17	2.895662E-17
2.720000E+03	3.395950E-17	2.884705E-17
2.760000E+03	3.498094E-17	2.859602E-17
2.800000E+03	3.600697E-17	2.818438E-17
2.840000E+03	3.702878E-17	2.759293E-17
2.880000E+03	3.804122E-17	2.680716E-17
2.920000E+03	3.903769E-17	2.581407E-17
2.960000E+03	4.001175E-17	2.460451E-17
3.000000E+03	4.096280E-17	2.317783E-17
3.010000E+03	4.119730E-17	2.278792E-17
3.020000E+03	4.143014E-17	2.238478E-17
3.030000E+03	4.166131E-17	2.196858E-17
3.040000E+03	4.189170E-17	2.154005E-17
3.050000E+03	4.212136E-17	2.109942E-17
3.060000E+03	4.235034E-17	2.064700E-17
3.070000E+03	4.257876E-17	2.018318E-17
3.080000E+03	4.280681E-17	1.970840E-17
3.090000E+03	4.303474E-17	1.922319E-17
3.100000E+03	4.326379E-17	1.872854E-17
3.110000E+03	4.349438E-17	1.822508E-17
3.120000E+03	4.372620E-17	1.771319E-17
3.130000E+03	4.396167E-17	1.719443E-17
3.140000E+03	4.419995E-17	1.666901E-17
3.150000E+03	4.444295E-17	1.613832E-17
3.160000E+03	4.469282E-17	1.560377E-17
3.170000E+03	4.495029E-17	1.506627E-17
3.180000E+03	4.521808E-17	1.452742E-17
3.190000E+03	4.549764E-17	1.398838E-17
3.200000E+03	4.579253E-17	1.345093E-17
3.210000E+03	4.610601E-17	1.291671E-17
3.220000E+03	4.644110E-17	1.238722E-17
3.230000E+03	4.680319E-17	1.186455E-17
3.240000E+03	4.719764E-17	1.135065E-17
3.250000E+03	4.763069E-17	1.084757E-17
3.260000E+03	4.810953E-17	1.035749E-17
3.270000E+03	4.864239E-17	9.882711E-18
3.280000E+03	4.923852E-17	9.425680E-18
3.290000E+03	4.990727E-17	8.988851E-18
3.300000E+03	5.066114E-17	8.575286E-18
3.310000E+03	5.150962E-17	8.187620E-18
3.320000E+03	5.246415E-17	7.829012E-18
3.330000E+03	5.353294E-17	7.502336E-18
3.340000E+03	5.472274E-17	7.210487E-18
3.350000E+03	5.603457E-17	6.955723E-18
3.360000E+03	5.746089E-17	6.739235E-18
3.370000E+03	5.898881E-17	6.561374E-18
3.380000E+03	6.059225E-17	6.420536E-18
3.390000E+03	6.223774E-17	6.313737E-18
3.400000E+03	6.388222E-17	6.236292E-18
3.410000E+03	6.547410E-17	6.181992E-18
3.420000E+03	6.696132E-17	6.144026E-18
3.430000E+03	6.828742E-17	6.114762E-18
3.440000E+03	6.940032E-17	6.086742E-18
3.450000E+03	7.025377E-17	6.052927E-18
3.460000E+03	7.080918E-17	6.006982E-18
3.470000E+03	7.104031E-17	5.943838E-18
3.480000E+03	7.092970E-17	5.859615E-18
3.490000E+03	7.047322E-17	5.752258E-18
3.500000E+03	6.967659E-17	5.621408E-18
3.510000E+03	6.855675E-17	5.468533E-18
3.520000E+03	6.713605E-17	5.296304E-18
3.530000E+03	6.544426E-17	5.108453E-18
3.540000E+03	6.351769E-17	4.909323E-18
3.550000E+03	6.139306E-17	4.703025E-18
3.560000E+03	5.911122E-17	4.493486E-18
3.570000E+03	5.671274E-17	4.284020E-18
3.580000E+03	5.423469E-17	4.077124E-18
3.590000E+03	5.171148E-17	3.874682E-18
3.600000E+03	4.917125E-17	3.677852E-18
3.610000E+03	4.663761E-17	3.487312E-18
3.620000E+03	4.413058E-17	3.303360E-18
3.630000E+03	4.166688E-17	3.125905E-18
3.640000E+03	3.926591E-17	2.954914E-18
3.650000E+03	3.694898E-17	2.790417E-18
3.660000E+03	3.474281E-17	2.632955E-18
3.670000E+03	3.267917E-17	2.483747E-18
3.680000E+03	3.079492E-17	2.344846E-18
3.690000E+03	2.912896E-17	2.218953E-18
3.700000E+03	2.771994E-17	2.109184E-18
3.710000E+03	2.660511E-17	2.018859E-18
3.720000E+03	2.581844E-17	1.951184E-18
3.730000E+03	2.539099E-17	1.909121E-18
3.740000E+03	2.535389E-17	1.895465E-18
3.750000E+03	2.573857E-17	1.912735E-18
3.760000E+03	2.658175E-17	1.963433E-18
3.770000E+03	2.792751E-17	2.050127E-18
3.780000E+03	2.982791E-17	2.175479E-18
3.790000E+03	3.234587E-17	2.342484E-18
3.800000E+03	3.555094E-17	2.554209E-18
3.810000E+03	3.951646E-17	2.813639E-18
3.820000E+03	4.430928E-17	3.123053E-18
3.830000E+03	4.997625E-17	3.483259E-18
3.840000E+03	5.652765E-17	3.892763E-18
3.850000E+03	6.391849E-17	4.346903E-18
3.860000E+03	7.203027E-17	4.837032E-18
3.870000E+03	8.066443E-17	5.350370E-18
3.880000E+03	8.954454E-17	5.870178E-18
3.890000E+03	9.833987E-17	6.377165E-18
3.900000E+03	1.066985E-16	6.851483E-18
3.910000E+03	1.142903E-16	7.275343E-18
3.920000E+03	1.208462E-16	7.635226E-18
3.930000E+03	1.261812E-16	7.922708E-18
3.940000E+03	1.302052E-16	8.134416E-18
3.950000E+03	1.329131E-16	8.270878E-18
3.960000E+03	1.343653E-16	8.335365E-18
3.970000E+03	1.346767E-16	8.333795E-18
3.980000E+03	1.339889E-16	8.273527E-18
3.990000E+03	1.324605E-16	8.163256E-18
4.000000E+03	1.302575E-16	8.012532E-18
4.010000E+03	1.275415E-16	7.831122E-18
4.020000E+03	1.244715E-16	7.629070E-18
4.030000E+03	1.211940E-16	7.416006E-18
4.040000E+03	1.178421E-16	7.200814E-18
4.050000E+03	1.145313E-16	6.991021E-18
4.060000E+03	1.113606E-16	6.792486E-18
4.070000E+03	1.084057E-16	6.608804E-18
4.080000E+03	1.057211E-16	6.441583E-18
4.090000E+03	1.033404E-16	6.290868E-18
4.100000E+03	1.012783E-16	6.155709E-18
4.110000E+03	9.953373E-17	6.034886E-18
4.120000E+03	9.808990E-17	5.927263E-18
4.130000E+03	9.691884E-17	5.832091E-18
4.140000E+03	9.598016E-17	5.748532E-18
4.150000E+03	9.522358E-17	5.675216E-18
4.160000E+03	9.459245E-17	5.610015E-18
4.170000E+03	9.402979E-17	5.550329E-18
4.180000E+03	9.348638E-17	5.493674E-18
4.190000E+03	9.292406E-17	5.438000E-18
4.200000E+03	9.232433E-17	5.382269E-18
4.210000E+03	9.168579E-17	5.326275E-18
4.220000E+03	9.101723E-17	5.270208E-18
4.230000E+03	9.033383E-17	5.214528E-18
4.240000E+03	8.964305E-17	5.159256E-18
4.250000E+03	8.893870E-17	5.103699E-18
4.260000E+03	8.819272E-17	5.046030E-18
4.270000E+03	8.735757E-17	4.983395E-18
4.280000E+03	8.637636E-17	4.912407E-18
4.290000E+03	8.519125E-17	4.829605E-18
4.300000E+03	8.376847E-17	4.732840E-18
4.310000E+03	8.210786E-17	4.621824E-18
4.320000E+03	8.025436E-17	4.498877E-18
4.330000E+03	7.829557E-17	4.368897E-18
4.340000E+03	7.635357E-17	4.238950E-18
4.350000E+03	7.456634E-17	4.117331E-18
4.360000E+03	7.307046E-17	4.012716E-18
4.370000E+03	7.199089E-17	3.933751E-18
4.380000E+03	7.143022E-17	3.888488E-18
4.390000E+03	7.147712E-17	3.884168E-18
4.400000E+03	7.221444E-17	3.926099E-18
4.410000E+03	7.371934E-17	4.017540E-18
4.420000E+03	7.604389E-17	4.159906E-18
4.430000E+03	7.920732E-17	4.352936E-18
4.440000E+03	8.318471E-17	4.594166E-18
4.450000E+03	8.790556E-17	4.878734E-18
4.460000E+03	9.325643E-17	5.199345E-18
4.470000E+03	9.908088E-17	5.546160E-18
4.480000E+03	1.051920E-16	5.907463E-18
4.490000E+03	1.113859E-16	6.270392E-18
4.500000E+03	1.174568E-16	6.621961E-18
4.510000E+03	1.232110E-16	6.950048E-18
4.520000E+03	1.284818E-16	7.244521E-18
4.530000E+03	1.331333E-16	7.497850E-18
4.540000E+03	1.370634E-16	7.705534E-18
4.550000E+03	1.402043E-16	7.866130E-18
4.560000E+03	1.425240E-16	7.980931E-18
4.570000E+03	1.440191E-16	8.052910E-18
4.580000E+03	1.447107E-16	8.085759E-18
4.590000E+03	1.446472E-16	8.083749E-18
4.600000E+03	1.438868E-16	8.050559E-18
4.610000E+03	1.425026E-16	7.989526E-18
4.620000E+03	1.405687E-16	7.903072E-18
4.630000E+03	1.381525E-16	7.792603E-18
4.640000E+03	1.353130E-16	7.658681E-18
4.650000E+03	1.320941E-16	7.501192E-18
4.660000E+03	1.285339E-16	7.320340E-18
4.670000E+03	1.246586E-16	7.116546E-18
4.680000E+03	1.205013E-16	6.891594E-18
4.690000E+03	1.161038E-16	6.648566E-18
4.700000E+03	1.115275E-16	6.392185E-18
4.710000E+03	1.068547E-16	6.128557E-18
4.720000E+03	1.021909E-16	5.865047E-18
4.730000E+03	9.765404E-17	5.609423E-18
4.740000E+03	9.336697E-17	5.369430E-18
4.750000E+03	8.943793E-17	5.151631E-18
4.760000E+03	8.595545E-17	4.961136E-18
4.770000E+03	8.297747E-17	4.801038E-18
4.780000E+03	8.052970E-17	4.672341E-18
4.790000E+03	7.861229E-17	4.574368E-18
4.800000E+03	7.720559E-17	4.505194E-18
4.810000E+03	7.628328E-17	4.462530E-18
4.820000E+03	7.582038E-17	4.444253E-18
4.830000E+03	7.579784E-17	4.448745E-18
4.840000E+03	7.620124E-17	4.474851E-18
4.850000E+03	7.701792E-17	4.521718E-18
4.860000E+03	7.822068E-17	4.587891E-18
4.870000E+03	7.976335E-17	4.671078E-18
4.880000E+03	8.156508E-17	4.767189E-18
4.890000E+03	8.351087E-17	4.870303E-18
4.900000E+03	8.545315E-17	4.972619E-18
4.910000E+03	8.723178E-17	5.065497E-18
4.920000E+03	8.869422E-17	5.140646E-18
4.930000E+03	8.972268E-17	5.191740E-18
4.940000E+03	9.026060E-17	5.215939E-18
4.950000E+03	9.032179E-17	5.214375E-18
4.960000E+03	8.999206E-17	5.192130E-18
4.970000E+03	8.940919E-17	5.156954E-18
4.980000E+03	8.874425E-17	5.118218E-18
4.990000E+03	8.816648E-17	5.084955E-18
5.000000E+03	8.782535E-17	5.064886E-18
5.010000E+03	8.782891E-17	5.063326E-18
5.020000E+03	8.823814E-17	5.082971E-18
5.030000E+03	8.906307E-17	5.123749E-18
5.040000E+03	9.026805E-17	5.183217E-18
5.050000E+03	9.178842E-17	5.257595E-18
5.060000E+03	9.354254E-17	5.342506E-18
5.070000E+03	9.544960E-17	5.434043E-18
5.080000E+03	9.744319E-17	5.529479E-18
5.090000E+03	9.948780E-17	5.627953E-18
5.100000E+03	1.015761E-16	5.729979E-18
5.110000E+03	1.037235E-16	5.836690E-18
5.120000E+03	1.059680E-16	5.949598E-18
5.130000E+03	1.083485E-16	6.069570E-18
5.140000E+03	1.109007E-16	6.197121E-18
5.150000E+03	1.136460E-16	6.332251E-18
5.160000E+03	1.165838E-16	6.474411E-18
5.170000E+03	1.196914E-16	6.622678E-18
5.180000E+03	1.229196E-16	6.775388E-18
5.190000E+03	1.261994E-16	6.930188E-18
5.200000E+03	1.294478E-16	7.083787E-18
5.210000E+03	1.325733E-16	7.231848E-18
5.220000E+03	1.354929E-16	7.369931E-18
5.230000E+03	1.381308E-16	7.493661E-18
5.240000E+03	1.404274E-16	7.599453E-18
5.250000E+03	1.423435E-16	7.684942E-18
5.260000E+03	1.438583E-16	7.748931E-18
5.270000E+03	1.449668E-16	7.791122E-18
5.280000E+03	1.456828E-16	7.812220E-18
5.290000E+03	1.460308E-16	7.813348E-18
5.300000E+03	1.460536E-16	7.796323E-18
5.310000E+03	1.458008E-16	7.763193E-18
5.320000E+03	1.453336E-16	7.716617E-18
5.330000E+03	1.447112E-16	7.659182E-18
5.340000E+03	1.439867E-16	7.593297E-18
5.350000E+03	1.431977E-16	7.520632E-18
5.360000E+03	1.423572E-16	7.441510E-18
5.370000E+03	1.414578E-16	7.355122E-18
5.380000E+03	1.404663E-16	7.259093E-18
5.390000E+03	1.393323E-16	7.149821E-18
5.400000E+03	1.379920E-16	7.022716E-18
5.410000E+03	1.363853E-16	6.873200E-18
5.420000E+03	1.344540E-16	6.696812E-18
5.430000E+03	1.321621E-16	6.490954E-18
5.440000E+03	1.295011E-16	6.256141E-18
5.450000E+03	1.264924E-16	5.997420E-18
5.460000E+03	1.232005E-16	5.726637E-18
5.470000E+03	1.197341E-16	5.463493E-18
5.480000E+03	1.162448E-16	5.234303E-18
5.490000E+03	1.128809E-16	5.063860E-18
5.500000E+03	1.097184E-16	4.959386E-18
5.510000E+03	1.067318E-16	4.903183E-18
5.520000E+03	1.038635E-16	4.869682E-18
5.530000E+03	1.010793E-16	4.839356E-18
5.540000E+03	9.838735E-17	4.802166E-18
5.550000E+03	9.582345E-17	4.755644E-18
5.560000E+03	9.344393E-17	4.702404E-18
5.570000E+03	9.131451E-17	4.647719E-18
5.580000E+03	8.949650E-17	4.597585E-18
5.590000E+03	8.804519E-17	4.557819E-18
5.600000E+03	8.700363E-17	4.533267E-18
5.610000E+03	8.639881E-17	4.527449E-18
5.620000E+03	8.624098E-17	4.542448E-18
5.630000E+03	8.652027E-17	4.578714E-18
5.640000E+03	8.720746E-17	4.635261E-18
5.650000E+03	8.825667E-17	4.709965E-18
5.660000E+03	8.960647E-17	4.799712E-18
5.670000E+03	9.119165E-17	4.901162E-18
5.680000E+03	9.294318E-17	5.010795E-18
5.690000E+03	9.480466E-17	5.125737E-18
5.700000E+03	9.673262E-17	5.243730E-18
5.710000E+03	9.870035E-17	5.363212E-18
5.720000E+03	1.007015E-16	5.483439E-18
5.730000E+03	1.027404E-16	5.604121E-18
5.740000E+03	1.048310E-16	5.725651E-18
5.750000E+03	1.069882E-16	5.848781E-18
5.760000E+03	1.092251E-16	5.974604E-18
5.770000E+03	1.115458E-16	6.104145E-18
5.780000E+03	1.139488E-16	6.238411E-18
5.790000E+03	1.164166E-16	6.377724E-18
5.800000E+03	1.189220E-16	6.521920E-18
5.810000E+03	1.214236E-16	6.669923E-18
5.820000E+03	1.238643E-16	6.819652E-18
5.830000E+03	1.261746E-16	6.968031E-18
5.840000E+03	1.282818E-16	7.111224E-18
5.850000E+03	1.301178E-16	7.244672E-18
5.860000E+03	1.316250E-16	7.363060E-18
5.870000E+03	1.327728E-16	7.461126E-18
5.880000E+03	1.335557E-16	7.534219E-18
5.890000E+03	1.339862E-16	7.578977E-18
5.900000E+03	1.340997E-16	7.594529E-18
5.910000E+03	1.339395E-16	7.582204E-18
5.920000E+03	1.335521E-16	7.545295E-18
5.930000E+03	1.329909E-16	7.488930E-18
5.940000E+03	1.323086E-16	7.419104E-18
5.950000E+03	1.315504E-16	7.341568E-18
5.960000E+03	1.307580E-16	7.261514E-18
5.970000E+03	1.299582E-16	7.182658E-18
5.980000E+03	1.291580E-16	7.106815E-18
5.990000E+03	1.283454E-16	7.033983E-18
6.000000E+03	1.274916E-16	6.962733E-18
6.010000E+03	1.265556E-16	6.890773E-18
6.020000E+03	1.254972E-16	6.815755E-18
6.030000E+03	1.242777E-16	6.735425E-18
6.040000E+03	1.228687E-16	6.648039E-18
6.050000E+03	1.212478E-16	6.552045E-18
6.060000E+03	1.194055E-16	6.446485E-18
6.070000E+03	1.173292E-16	6.330191E-18
6.080000E+03	1.150170E-16	6.202564E-18
6.090000E+03	1.124685E-16	6.063170E-18
6.100000E+03	1.097053E-16	5.912915E-18
6.110000E+03	1.067648E-16	5.753619E-18
6.120000E+03	1.037161E-16	5.588845E-18
6.130000E+03	1.006521E-16	5.423348E-18
6.140000E+03	9.768021E-17	5.262554E-18
6.150000E+03	9.491027E-17	5.112004E-18
6.160000E+03	9.244072E-17	4.976755E-18
6.170000E+03	9.034278E-17	4.860581E-18
6.180000E+03	8.865481E-17	4.765739E-18
6.190000E+03	8.738084E-17	4.692874E-18
6.200000E+03	8.649594E-17	4.641218E-18
6.210000E+03	8.594995E-17	4.608695E-18
6.220000E+03	8.567448E-17	4.592119E-18
6.230000E+03	8.559961E-17	4.587904E-18
6.240000E+03	8.565406E-17	4.592029E-18
6.250000E+03	8.577538E-17	4.600564E-18
6.260000E+03	8.591444E-17	4.609914E-18
6.270000E+03	8.603112E-17	4.616821E-18
6.280000E+03	8.609558E-17	4.618721E-18
6.290000E+03	8.608345E-17	4.613716E-18
6.300000E+03	8.597532E-17	4.600736E-18
6.310000E+03	8.576010E-17	4.579771E-18
6.320000E+03	8.542683E-17	4.551289E-18
6.330000E+03	8.497687E-17	4.516622E-18
6.340000E+03	8.441759E-17	4.477235E-18
6.350000E+03	8.377022E-17	4.434838E-18
6.360000E+03	8.306226E-17	4.390968E-18
6.370000E+03	8.233080E-17	4.347209E-18
6.380000E+03	8.161592E-17	4.304899E-18
6.390000E+03	8.095208E-17	4.264851E-18
6.400000E+03	8.037060E-17	4.227623E-18
6.410000E+03	7.988806E-17	4.192954E-18
6.420000E+03	7.950604E-17	4.159812E-18
6.430000E+03	7.921271E-17	4.126466E-18
6.440000E+03	7.898521E-17	4.090545E-18
6.450000E+03	7.879575E-17	4.049367E-18
6.460000E+03	7.861771E-17	4.000325E-18
6.470000E+03	7.843290E-17	3.941558E-18
6.480000E+03	7.823581E-17	3.872952E-18
6.490000E+03	7.802894E-17	3.797057E-18
6.500000E+03	7.782937E-17	3.720683E-18
6.510000E+03	7.765904E-17	3.655288E-18
6.520000E+03	7.754376E-17	3.615925E-18
6.530000E+03	7.750675E-17	3.615936E-18
6.540000E+03	7.755427E-17	3.657563E-18
6.550000E+03	7.767298E-17	3.730071E-18
6.560000E+03	7.783916E-17	3.818469E-18
6.570000E+03	7.802993E-17	3.910274E-18
6.580000E+03	7.822068E-17	3.997077E-18
6.590000E+03	7.838568E-17	4.073940E-18
6.600000E+03	7.850304E-17	4.138518E-18
6.610000E+03	7.855271E-17	4.189963E-18
6.620000E+03	7.851949E-17	4.228373E-18
6.630000E+03	7.839400E-17	4.254466E-18
6.640000E+03	7.817269E-17	4.269361E-18
6.650000E+03	7.785702E-17	4.274377E-18
6.660000E+03	7.745101E-17	4.270836E-18
6.670000E+03	7.696434E-17	4.260168E-18
6.680000E+03	7.640681E-17	4.243575E-18
6.690000E+03	7.579384E-17	4.222413E-18
6.700000E+03	7.514288E-17	4.198082E-18
6.710000E+03	7.447324E-17	4.172035E-18
6.720000E+03	7.380737E-17	4.145856E-18
6.730000E+03	7.316884E-17	4.121120E-18
6.740000E+03	7.257499E-17	4.098965E-18
6.750000E+03	7.204407E-17	4.080620E-18
6.760000E+03	7.158507E-17	4.066981E-18
6.770000E+03	7.120133E-17	4.058881E-18
6.780000E+03	7.089347E-17	4.057271E-18
6.790000E+03	7.065655E-17	4.062934E-18
6.800000E+03	7.048132E-17	4.076286E-18
6.810000E+03	7.035954E-17	4.097355E-18
6.820000E+03	7.028048E-17	4.125191E-18
6.830000E+03	7.023744E-17	4.157964E-18
6.840000E+03	7.022247E-17	4.192684E-18
6.850000E+03	7.023591E-17	4.226118E-18
6.860000E+03	7.027572E-17	4.254728E-18
6.870000E+03	7.034651E-17	4.276003E-18
6.880000E+03	7.044738E-17	4.288471E-18
6.890000E+03	7.057958E-17	4.292539E-18
6.900000E+03	7.073922E-17	4.289869E-18
6.910000E+03	7.092259E-17	4.283107E-18
6.920000E+03	7.112129E-17	4.274878E-18
6.930000E+03	7.132836E-17	4.267555E-18
6.940000E+03	7.153229E-17	4.262473E-18
6.950000E+03	7.172724E-17	4.260379E-18
6.960000E+03	7.190398E-17	4.261029E-18
6.970000E+03	7.205448E-17	4.263723E-18
6.980000E+03	7.217662E-17	4.267816E-18
6.990000E+03	7.226506E-17	4.272377E-18
7.000000E+03	7.232129E-17	4.276882E-18
7.010000E+03	7.234649E-17	4.280825E-18
7.020000E+03	7.234655E-17	4.284058E-18
7.030000E+03	7.232538E-17	4.286428E-18
7.040000E+03	7.228954E-17	4.288065E-18
7.050000E+03	7.224037E-17	4.288962E-18
7.060000E+03	7.218353E-17	4.289560E-18
7.070000E+03	7.211735E-17	4.290031E-18
7.080000E+03	7.204439E-17	4.290930E-18
7.090000E+03	7.196024E-17	4.292453E-18
7.100000E+03	7.186429E-17	4.294982E-18
7.110000E+03	7.175355E-17	4.298669E-18
7.120000E+03	7.162970E-17	4.303805E-18
7.130000E+03	7.149582E-17	4.310592E-18
7.140000E+03	7.135544E-17	4.319114E-18
7.150000E+03	7.122083E-17	4.329839E-18
7.160000E+03	7.110290E-17	4.342950E-18
7.170000E+03	7.100872E-17	4.358124E-18
7.180000E+03	7.094622E-17	4.374739E-18
7.190000E+03	7.091696E-17	4.391442E-18
7.200000E+03	7.091633E-17	4.406361E-18
7.210000E+03	7.094101E-17	4.417866E-18
7.220000E+03	7.098105E-17	4.424371E-18
7.230000E+03	7.103067E-17	4.425226E-18
7.240000E+03	7.108817E-17	4.420787E-18
7.250000E+03	7.115032E-17	4.411976E-18
7.260000E+03	7.122167E-17	4.400623E-18
7.270000E+03	7.130261E-17	4.388402E-18
7.280000E+03	7.139358E-17	4.376814E-18
7.290000E+03	7.149102E-17	4.366787E-18
7.300000E+03	7.158983E-17	4.358763E-18
7.310000E+03	7.168357E-17	4.352715E-18
7.320000E+03	7.176058E-17	4.347992E-18
7.330000E+03	7.180792E-17	4.343643E-18
7.340000E+03	7.181389E-17	4.338618E-18
7.350000E+03	7.176747E-17	4.331795E-18
7.360000E+03	7.165911E-17	4.322076E-18
7.370000E+03	7.147993E-17	4.308371E-18
7.380000E+03	7.122368E-17	4.289807E-18
7.390000E+03	7.088859E-17	4.265924E-18
7.400000E+03	7.047293E-17	4.236458E-18
7.410000E+03	6.998371E-17	4.201915E-18
7.420000E+03	6.942258E-17	4.162696E-18
7.430000E+03	6.879676E-17	4.119687E-18
7.440000E+03	6.811460E-17	4.073904E-18
7.450000E+03	6.738277E-17	4.026202E-18
7.460000E+03	6.660264E-17	3.976957E-18
7.470000E+03	6.577779E-17	3.926481E-18
7.480000E+03	6.490789E-17	3.874649E-18
7.490000E+03	6.399644E-17	3.821377E-18
7.500000E+03	6.304595E-17	3.766401E-18
7.510000E+03	6.206852E-17	3.709984E-18
7.520000E+03	6.107983E-17	3.652606E-18
7.530000E+03	6.010173E-17	3.595191E-18
7.540000E+03	5.916188E-17	3.539122E-18
7.550000E+03	5.828714E-17	3.485851E-18
7.560000E+03	5.750696E-17	3.437124E-18
7.570000E+03	5.684269E-17	3.394326E-18
7.580000E+03	5.631063E-17	3.358637E-18
7.590000E+03	5.592084E-17	3.330932E-18
7.600000E+03	5.567427E-17	3.311565E-18
7.610000E+03	5.556438E-17	3.300387E-18
7.620000E+03	5.557645E-17	3.296668E-18
7.630000E+03	5.569354E-17	3.299389E-18
7.640000E+03	5.588906E-17	3.306769E-18
7.650000E+03	5.613868E-17	3.317030E-18
7.660000E+03	5.641230E-17	3.328003E-18
7.670000E+03	5.668633E-17	3.337940E-18
7.680000E+03	5.693516E-17	3.345117E-18
7.690000E+03	5.714303E-17	3.348600E-18
7.700000E+03	5.729571E-17	3.347753E-18
7.710000E+03	5.738621E-17	3.342525E-18
7.720000E+03	5.741203E-17	3.333181E-18
7.730000E+03	5.737984E-17	3.320487E-18
7.740000E+03	5.729617E-17	3.305126E-18
7.750000E+03	5.717091E-17	3.287894E-18
7.760000E+03	5.701244E-17	3.269414E-18
