#wls	flux	fluxerr
1.600000E+03	1.875389E-16	2.128729E-16
1.640000E+03	1.876972E-16	2.127672E-16
1.680000E+03	1.879224E-16	2.126969E-16
1.720000E+03	1.882884E-16	2.127399E-16
1.760000E+03	1.887308E-16	2.128166E-16
1.800000E+03	1.893250E-16	2.130047E-16
1.840000E+03	1.900779E-16	2.133028E-16
1.880000E+03	1.909973E-16	2.137095E-16
1.920000E+03	1.921626E-16	2.143015E-16
1.960000E+03	1.935139E-16	2.149982E-16
2.000000E+03	1.951695E-16	2.159150E-16
2.040000E+03	1.971442E-16	2.170487E-16
2.080000E+03	1.994193E-16	2.183565E-16
2.120000E+03	2.021220E-16	2.199516E-16
2.160000E+03	2.052403E-16	2.217896E-16
2.200000E+03	2.088380E-16	2.239030E-16
2.240000E+03	2.129479E-16	2.262840E-16
2.280000E+03	2.175709E-16	2.288840E-16
2.320000E+03	2.228254E-16	2.317693E-16
2.360000E+03	2.286885E-16	2.348477E-16
2.400000E+03	2.352579E-16	2.381405E-16
2.440000E+03	2.425655E-16	2.415871E-16
2.480000E+03	2.506922E-16	2.451610E-16
2.520000E+03	2.596926E-16	2.487903E-16
2.560000E+03	2.697160E-16	2.524724E-16
2.600000E+03	2.808915E-16	2.561552E-16
2.640000E+03	2.933275E-16	2.597357E-16
2.680000E+03	3.072410E-16	2.631702E-16
2.720000E+03	3.227921E-16	2.663183E-16
2.760000E+03	3.402148E-16	2.690516E-16
2.800000E+03	3.597788E-16	2.712089E-16
2.840000E+03	3.817915E-16	2.725890E-16
2.880000E+03	4.064942E-16	2.728733E-16
2.920000E+03	4.343042E-16	2.717960E-16
2.960000E+03	4.656053E-16	2.689948E-16
3.000000E+03	5.008827E-16	2.641109E-16
3.010000E+03	5.103715E-16	2.625140E-16
3.020000E+03	5.201669E-16	2.607666E-16
3.030000E+03	5.302729E-16	2.588601E-16
3.040000E+03	5.406298E-16	2.567562E-16
3.050000E+03	5.512369E-16	2.544478E-16
3.060000E+03	5.622216E-16	2.519861E-16
3.070000E+03	5.734543E-16	2.493047E-16
3.080000E+03	5.850625E-16	2.464537E-16
3.090000E+03	5.969093E-16	2.433697E-16
3.100000E+03	6.090529E-16	2.400751E-16
3.110000E+03	6.214829E-16	2.365646E-16
3.120000E+03	6.341863E-16	2.328341E-16
3.130000E+03	6.471459E-16	2.288811E-16
3.140000E+03	6.604132E-16	2.247289E-16
3.150000E+03	6.738196E-16	2.203287E-16
3.160000E+03	6.874803E-16	2.157318E-16
3.170000E+03	7.013628E-16	2.109417E-16
3.180000E+03	7.153531E-16	2.059423E-16
3.190000E+03	7.294815E-16	2.007657E-16
3.200000E+03	7.436196E-16	1.954029E-16
3.210000E+03	7.578658E-16	1.899103E-16
3.220000E+03	7.720002E-16	1.842651E-16
3.230000E+03	7.860313E-16	1.785079E-16
3.240000E+03	7.998835E-16	1.726609E-16
3.250000E+03	8.135574E-16	1.667647E-16
3.260000E+03	8.268855E-16	1.608257E-16
3.270000E+03	8.397759E-16	1.548683E-16
3.280000E+03	8.522160E-16	1.489302E-16
3.290000E+03	8.641061E-16	1.430303E-16
3.300000E+03	8.753416E-16	1.371841E-16
3.310000E+03	8.858124E-16	1.314038E-16
3.320000E+03	8.954866E-16	1.257095E-16
3.330000E+03	9.041553E-16	1.200927E-16
3.340000E+03	9.116846E-16	1.145560E-16
3.350000E+03	9.180156E-16	1.091106E-16
3.360000E+03	9.230774E-16	1.037663E-16
3.370000E+03	9.265381E-16	9.850612E-17
3.380000E+03	9.283976E-16	9.335467E-17
3.390000E+03	9.284106E-16	8.831366E-17
3.400000E+03	9.265992E-16	8.341355E-17
3.410000E+03	9.227021E-16	7.865767E-17
3.420000E+03	9.168501E-16	7.408037E-17
3.430000E+03	9.090326E-16	6.969361E-17
3.440000E+03	8.995186E-16	6.551748E-17
3.450000E+03	8.886384E-16	6.155821E-17
3.460000E+03	8.768653E-16	5.781446E-17
3.470000E+03	8.648682E-16	5.428393E-17
3.480000E+03	8.532675E-16	5.095476E-17
3.490000E+03	8.428647E-16	4.782932E-17
3.500000E+03	8.343775E-16	4.491523E-17
3.510000E+03	8.285139E-16	4.223246E-17
3.520000E+03	8.257268E-16	3.979653E-17
3.530000E+03	8.264180E-16	3.762636E-17
3.540000E+03	8.307183E-16	3.573293E-17
3.550000E+03	8.385124E-16	3.410676E-17
3.560000E+03	8.494554E-16	3.271108E-17
3.570000E+03	8.627831E-16	3.151590E-17
3.580000E+03	8.775274E-16	3.054734E-17
3.590000E+03	8.922579E-16	2.988983E-17
3.600000E+03	9.057343E-16	2.965937E-17
3.610000E+03	9.178069E-16	2.980759E-17
3.620000E+03	9.287728E-16	3.017715E-17
3.630000E+03	9.388765E-16	3.063044E-17
3.640000E+03	9.483331E-16	3.107729E-17
3.650000E+03	9.570382E-16	3.143256E-17
3.660000E+03	9.647135E-16	3.165303E-17
3.670000E+03	9.706606E-16	3.173080E-17
3.680000E+03	9.731466E-16	3.163739E-17
3.690000E+03	9.702211E-16	3.137374E-17
3.700000E+03	9.601586E-16	3.096233E-17
3.710000E+03	9.414293E-16	3.039028E-17
3.720000E+03	9.137946E-16	2.966962E-17
3.730000E+03	8.785319E-16	2.882958E-17
3.740000E+03	8.384767E-16	2.788086E-17
3.750000E+03	7.973555E-16	2.685603E-17
3.760000E+03	7.590164E-16	2.581091E-17
3.770000E+03	7.267444E-16	2.478253E-17
3.780000E+03	7.033375E-16	2.382148E-17
3.790000E+03	6.910668E-16	2.299782E-17
3.800000E+03	6.919182E-16	2.238841E-17
3.810000E+03	7.077652E-16	2.208166E-17
3.820000E+03	7.407493E-16	2.216571E-17
3.830000E+03	7.934264E-16	2.270466E-17
3.840000E+03	8.688412E-16	2.377957E-17
3.850000E+03	9.703319E-16	2.547595E-17
3.860000E+03	1.100959E-15	2.781092E-17
3.870000E+03	1.262949E-15	3.078651E-17
3.880000E+03	1.456326E-15	3.438813E-17
3.890000E+03	1.678051E-15	3.850475E-17
3.900000E+03	1.920485E-15	4.301297E-17
3.910000E+03	2.171668E-15	4.777756E-17
3.920000E+03	2.417348E-15	5.247992E-17
3.930000E+03	2.642364E-15	5.681371E-17
3.940000E+03	2.834796E-15	6.059529E-17
3.950000E+03	2.989214E-15	6.355765E-17
3.960000E+03	3.107191E-15	6.563848E-17
3.970000E+03	3.195570E-15	6.701485E-17
3.980000E+03	3.265020E-15	6.781033E-17
3.990000E+03	3.326829E-15	6.832823E-17
4.000000E+03	3.388662E-15	6.888148E-17
4.010000E+03	3.452499E-15	6.935315E-17
4.020000E+03	3.514768E-15	6.963855E-17
4.030000E+03	3.567429E-15	6.972286E-17
4.040000E+03	3.599689E-15	6.933183E-17
4.050000E+03	3.599753E-15	6.839485E-17
4.060000E+03	3.559097E-15	6.704138E-17
4.070000E+03	3.476035E-15	6.515587E-17
4.080000E+03	3.354510E-15	6.289039E-17
4.090000E+03	3.202205E-15	6.055261E-17
4.100000E+03	3.029755E-15	5.804152E-17
4.110000E+03	2.848412E-15	5.536468E-17
4.120000E+03	2.668178E-15	5.266766E-17
4.130000E+03	2.497256E-15	4.983363E-17
4.140000E+03	2.341398E-15	4.683112E-17
4.150000E+03	2.204009E-15	4.379373E-17
4.160000E+03	2.086572E-15	4.081676E-17
4.170000E+03	1.989107E-15	3.812090E-17
4.180000E+03	1.911120E-15	3.591377E-17
4.190000E+03	1.851877E-15	3.416671E-17
4.200000E+03	1.810707E-15	3.296936E-17
4.210000E+03	1.786847E-15	3.242862E-17
4.220000E+03	1.779670E-15	3.230830E-17
4.230000E+03	1.788013E-15	3.241675E-17
4.240000E+03	1.809283E-15	3.268921E-17
4.250000E+03	1.838339E-15	3.288642E-17
4.260000E+03	1.868918E-15	3.288100E-17
4.270000E+03	1.895539E-15	3.268787E-17
4.280000E+03	1.915000E-15	3.222297E-17
4.290000E+03	1.926996E-15	3.163818E-17
4.300000E+03	1.934399E-15	3.118309E-17
4.310000E+03	1.943494E-15	3.078945E-17
4.320000E+03	1.962350E-15	3.059109E-17
4.330000E+03	1.997665E-15	3.076981E-17
4.340000E+03	2.052610E-15	3.091236E-17
4.350000E+03	2.127209E-15	3.066177E-17
4.360000E+03	2.216466E-15	2.979759E-17
4.370000E+03	2.306615E-15	2.780041E-17
4.380000E+03	2.374441E-15	2.536529E-17
4.390000E+03	2.386571E-15	2.525757E-17
4.400000E+03	2.338381E-15	2.705082E-17
4.410000E+03	2.257425E-15	2.843965E-17
4.420000E+03	2.166751E-15	2.914614E-17
4.430000E+03	2.082058E-15	2.906584E-17
4.440000E+03	2.014162E-15	2.853717E-17
4.450000E+03	1.971738E-15	2.813213E-17
4.460000E+03	1.962568E-15	2.787635E-17
4.470000E+03	1.993805E-15	2.801238E-17
4.480000E+03	2.070166E-15	2.893283E-17
4.490000E+03	2.191708E-15	3.036958E-17
4.500000E+03	2.355000E-15	3.228646E-17
4.510000E+03	2.553492E-15	3.493902E-17
4.520000E+03	2.776946E-15	3.779785E-17
4.530000E+03	3.012319E-15	4.059639E-17
4.540000E+03	3.247619E-15	4.355743E-17
4.550000E+03	3.476488E-15	4.615996E-17
4.560000E+03	3.698471E-15	4.853386E-17
4.570000E+03	3.915661E-15	5.140108E-17
4.580000E+03	4.129081E-15	5.415672E-17
4.590000E+03	4.338087E-15	5.687992E-17
4.600000E+03	4.536850E-15	6.041251E-17
4.610000E+03	4.710324E-15	6.373066E-17
4.620000E+03	4.838373E-15	6.607960E-17
4.630000E+03	4.905121E-15	6.770173E-17
4.640000E+03	4.903852E-15	6.781720E-17
4.650000E+03	4.837950E-15	6.636226E-17
4.660000E+03	4.719447E-15	6.405978E-17
4.670000E+03	4.566733E-15	6.067746E-17
4.680000E+03	4.400433E-15	5.686492E-17
4.690000E+03	4.237379E-15	5.350578E-17
4.700000E+03	4.087572E-15	4.981974E-17
4.710000E+03	3.957474E-15	4.634790E-17
4.720000E+03	3.853695E-15	4.518690E-17
4.730000E+03	3.778300E-15	4.603793E-17
4.740000E+03	3.722446E-15	4.717340E-17
4.750000E+03	3.675363E-15	4.830883E-17
4.760000E+03	3.624963E-15	4.863422E-17
4.770000E+03	3.559785E-15	4.813840E-17
4.780000E+03	3.472218E-15	4.748186E-17
4.790000E+03	3.360506E-15	4.646890E-17
4.800000E+03	3.229233E-15	4.582075E-17
4.810000E+03	3.090113E-15	4.672824E-17
4.820000E+03	2.961084E-15	4.866431E-17
4.830000E+03	2.859440E-15	5.094098E-17
4.840000E+03	2.795174E-15	5.349124E-17
4.850000E+03	2.768530E-15	5.598619E-17
4.860000E+03	2.773899E-15	5.795260E-17
4.870000E+03	2.803588E-15	5.905749E-17
4.880000E+03	2.849387E-15	5.907843E-17
4.890000E+03	2.904381E-15	5.807691E-17
4.900000E+03	2.965616E-15	5.635007E-17
4.910000E+03	3.035896E-15	5.427814E-17
4.920000E+03	3.122147E-15	5.260350E-17
4.930000E+03	3.232429E-15	5.196712E-17
4.940000E+03	3.373668E-15	5.224005E-17
4.950000E+03	3.549285E-15	5.358487E-17
4.960000E+03	3.754645E-15	5.630962E-17
4.970000E+03	3.971836E-15	5.953885E-17
4.980000E+03	4.171229E-15	6.251584E-17
4.990000E+03	4.318717E-15	6.500509E-17
5.000000E+03	4.384527E-15	6.613039E-17
5.010000E+03	4.350896E-15	6.573526E-17
5.020000E+03	4.219924E-15	6.439362E-17
5.030000E+03	4.016039E-15	6.192866E-17
5.040000E+03	3.775258E-15	5.870015E-17
5.050000E+03	3.533313E-15	5.553813E-17
5.060000E+03	3.320217E-15	5.252766E-17
5.070000E+03	3.156619E-15	4.994374E-17
5.080000E+03	3.052306E-15	4.821584E-17
5.090000E+03	3.007317E-15	4.717568E-17
5.100000E+03	3.016046E-15	4.688985E-17
5.110000E+03	3.069513E-15	4.755286E-17
5.120000E+03	3.155548E-15	4.867147E-17
5.130000E+03	3.259269E-15	5.000076E-17
5.140000E+03	3.365822E-15	5.161538E-17
5.150000E+03	3.463088E-15	5.298512E-17
5.160000E+03	3.541916E-15	5.394654E-17
5.170000E+03	3.596926E-15	5.475854E-17
5.180000E+03	3.628319E-15	5.507990E-17
5.190000E+03	3.640106E-15	5.499548E-17
5.200000E+03	3.638652E-15	5.496522E-17
5.210000E+03	3.632458E-15	5.471881E-17
5.220000E+03	3.629941E-15	5.437073E-17
5.230000E+03	3.637543E-15	5.437527E-17
5.240000E+03	3.659160E-15	5.439819E-17
5.250000E+03	3.696473E-15	5.448855E-17
5.260000E+03	3.749077E-15	5.504570E-17
5.270000E+03	3.814891E-15	5.562711E-17
5.280000E+03	3.890785E-15	5.622639E-17
5.290000E+03	3.973356E-15	5.724994E-17
5.300000E+03	4.059858E-15	5.816688E-17
5.310000E+03	4.147238E-15	5.893061E-17
5.320000E+03	4.230938E-15	5.996637E-17
5.330000E+03	4.304432E-15	6.062379E-17
5.340000E+03	4.359381E-15	6.075983E-17
5.350000E+03	4.386858E-15	6.075397E-17
5.360000E+03	4.379752E-15	5.993295E-17
5.370000E+03	4.333778E-15	5.839010E-17
5.380000E+03	4.251074E-15	5.679106E-17
5.390000E+03	4.142825E-15	5.458064E-17
5.400000E+03	4.025111E-15	5.210578E-17
5.410000E+03	3.914727E-15	5.026124E-17
5.420000E+03	3.827559E-15	4.846890E-17
5.430000E+03	3.775134E-15	4.694074E-17
5.440000E+03	3.759758E-15	4.631212E-17
5.450000E+03	3.772362E-15	4.526984E-17
5.460000E+03	3.797059E-15	4.289151E-17
5.470000E+03	3.822801E-15	3.914915E-17
5.480000E+03	3.854297E-15	3.366072E-17
5.490000E+03	3.915326E-15	3.082921E-17
5.500000E+03	4.024317E-15	3.673504E-17
5.510000E+03	4.130469E-15	4.379364E-17
5.520000E+03	4.194401E-15	4.830295E-17
5.530000E+03	4.200604E-15	5.066341E-17
5.540000E+03	4.159121E-15	5.084404E-17
5.550000E+03	4.093789E-15	5.000628E-17
5.560000E+03	4.027721E-15	4.978981E-17
5.570000E+03	3.975528E-15	4.962781E-17
5.580000E+03	3.943468E-15	4.950037E-17
5.590000E+03	3.929222E-15	5.019277E-17
5.600000E+03	3.921718E-15	5.099287E-17
5.610000E+03	3.904707E-15	5.184469E-17
5.620000E+03	3.862570E-15	5.355501E-17
5.630000E+03	3.784863E-15	5.558664E-17
5.640000E+03	3.669419E-15	5.777157E-17
5.650000E+03	3.523960E-15	6.070081E-17
5.660000E+03	3.365090E-15	6.395206E-17
5.670000E+03	3.212070E-15	6.673415E-17
5.680000E+03	3.080046E-15	6.868798E-17
5.690000E+03	2.976887E-15	6.962063E-17
5.700000E+03	2.904865E-15	6.946978E-17
5.710000E+03	2.862757E-15	6.830905E-17
5.720000E+03	2.846367E-15	6.625462E-17
5.730000E+03	2.850387E-15	6.356046E-17
5.740000E+03	2.869945E-15	6.055235E-17
5.750000E+03	2.901645E-15	5.752968E-17
5.760000E+03	2.943622E-15	5.495553E-17
5.770000E+03	2.995534E-15	5.316604E-17
5.780000E+03	3.058605E-15	5.201180E-17
5.790000E+03	3.134311E-15	5.151039E-17
5.800000E+03	3.222654E-15	5.176221E-17
5.810000E+03	3.320602E-15	5.232211E-17
5.820000E+03	3.422442E-15	5.306762E-17
5.830000E+03	3.521069E-15	5.419061E-17
5.840000E+03	3.609027E-15	5.533015E-17
5.850000E+03	3.680099E-15	5.659888E-17
5.860000E+03	3.731972E-15	5.847738E-17
5.870000E+03	3.768552E-15	6.045973E-17
5.880000E+03	3.797515E-15	6.208530E-17
5.890000E+03	3.825985E-15	6.338296E-17
5.900000E+03	3.857822E-15	6.403896E-17
5.910000E+03	3.893837E-15	6.396207E-17
5.920000E+03	3.932081E-15	6.336140E-17
5.930000E+03	3.967726E-15	6.220435E-17
5.940000E+03	3.994131E-15	6.093048E-17
5.950000E+03	4.005034E-15	6.000130E-17
5.960000E+03	3.996736E-15	5.891116E-17
5.970000E+03	3.967353E-15	5.762006E-17
5.980000E+03	3.917127E-15	5.650630E-17
5.990000E+03	3.848844E-15	5.510622E-17
6.000000E+03	3.767291E-15	5.355163E-17
6.010000E+03	3.679055E-15	5.241234E-17
6.020000E+03	3.592639E-15	5.125829E-17
6.030000E+03	3.516131E-15	5.006925E-17
6.040000E+03	3.454374E-15	4.926095E-17
6.050000E+03	3.407397E-15	4.839815E-17
6.060000E+03	3.371872E-15	4.740733E-17
6.070000E+03	3.342428E-15	4.655501E-17
6.080000E+03	3.312332E-15	4.538298E-17
6.090000E+03	3.275519E-15	4.399050E-17
6.100000E+03	3.230667E-15	4.282038E-17
6.110000E+03	3.183477E-15	4.142956E-17
6.120000E+03	3.143379E-15	4.004192E-17
6.130000E+03	3.119607E-15	3.925257E-17
6.140000E+03	3.119415E-15	3.849574E-17
6.150000E+03	3.146686E-15	3.785912E-17
6.160000E+03	3.199069E-15	3.782075E-17
6.170000E+03	3.265310E-15	3.729509E-17
6.180000E+03	3.328157E-15	3.614431E-17
6.190000E+03	3.371352E-15	3.631624E-17
6.200000E+03	3.386243E-15	3.754414E-17
6.210000E+03	3.371309E-15	3.748775E-17
6.220000E+03	3.329927E-15	3.564949E-17
6.230000E+03	3.269689E-15	3.239137E-17
6.240000E+03	3.198341E-15	3.117198E-17
6.250000E+03	3.124581E-15	3.404220E-17
6.260000E+03	3.058700E-15	3.710014E-17
6.270000E+03	3.005062E-15	3.886178E-17
6.280000E+03	2.964004E-15	3.970142E-17
6.290000E+03	2.933837E-15	3.963589E-17
6.300000E+03	2.911777E-15	3.897890E-17
6.310000E+03	2.895641E-15	3.822348E-17
6.320000E+03	2.885010E-15	3.715848E-17
6.330000E+03	2.880283E-15	3.617694E-17
6.340000E+03	2.882268E-15	3.587343E-17
6.350000E+03	2.891921E-15	3.558526E-17
6.360000E+03	2.909152E-15	3.532627E-17
6.370000E+03	2.932238E-15	3.569452E-17
6.380000E+03	2.958060E-15	3.600827E-17
6.390000E+03	2.981444E-15	3.621888E-17
6.400000E+03	2.995837E-15	3.698963E-17
6.410000E+03	2.995468E-15	3.768555E-17
6.420000E+03	2.976155E-15	3.818119E-17
6.430000E+03	2.938396E-15	3.912517E-17
6.440000E+03	2.890017E-15	4.006604E-17
6.450000E+03	2.842296E-15	4.065080E-17
6.460000E+03	2.805579E-15	4.107456E-17
6.470000E+03	2.787980E-15	4.109819E-17
6.480000E+03	2.794432E-15	4.059156E-17
6.490000E+03	2.825882E-15	3.943887E-17
6.500000E+03	2.878971E-15	3.683674E-17
6.510000E+03	2.947173E-15	3.241676E-17
6.520000E+03	3.024211E-15	2.753989E-17
6.530000E+03	3.107288E-15	2.701251E-17
6.540000E+03	3.190877E-15	3.278955E-17
6.550000E+03	3.264916E-15	3.933629E-17
6.560000E+03	3.324994E-15	4.397049E-17
6.570000E+03	3.370448E-15	4.679799E-17
6.580000E+03	3.402167E-15	4.886885E-17
6.590000E+03	3.422455E-15	5.027949E-17
6.600000E+03	3.433503E-15	5.121002E-17
6.610000E+03	3.436346E-15	5.212093E-17
6.620000E+03	3.431125E-15	5.265779E-17
6.630000E+03	3.417082E-15	5.269916E-17
6.640000E+03	3.393484E-15	5.253448E-17
6.650000E+03	3.361309E-15	5.199703E-17
6.660000E+03	3.322086E-15	5.132105E-17
6.670000E+03	3.277822E-15	5.096335E-17
6.680000E+03	3.231397E-15	5.062727E-17
6.690000E+03	3.185901E-15	5.024249E-17
6.700000E+03	3.144045E-15	5.008195E-17
6.710000E+03	3.107721E-15	4.994067E-17
6.720000E+03	3.078048E-15	4.985127E-17
6.730000E+03	3.054906E-15	5.006622E-17
6.740000E+03	3.036839E-15	5.031280E-17
6.750000E+03	3.021124E-15	5.047458E-17
6.760000E+03	3.004439E-15	5.068294E-17
6.770000E+03	2.983538E-15	5.070887E-17
6.780000E+03	2.955578E-15	5.054138E-17
6.790000E+03	2.918952E-15	5.039445E-17
6.800000E+03	2.873824E-15	5.012651E-17
6.810000E+03	2.821968E-15	4.978837E-17
6.820000E+03	2.766432E-15	4.961328E-17
6.830000E+03	2.710858E-15	4.946268E-17
6.840000E+03	2.659103E-15	4.930746E-17
6.850000E+03	2.613851E-15	4.925792E-17
6.860000E+03	2.576136E-15	4.913792E-17
6.870000E+03	2.545681E-15	4.886069E-17
6.880000E+03	2.521847E-15	4.849133E-17
6.890000E+03	2.503467E-15	4.793543E-17
6.900000E+03	2.489467E-15	4.726197E-17
6.910000E+03	2.479155E-15	4.665697E-17
6.920000E+03	2.472366E-15	4.607629E-17
6.930000E+03	2.469330E-15	4.561117E-17
6.940000E+03	2.470060E-15	4.543678E-17
6.950000E+03	2.474301E-15	4.541577E-17
6.960000E+03	2.481451E-15	4.550535E-17
6.970000E+03	2.490682E-15	4.577999E-17
6.980000E+03	2.501018E-15	4.604181E-17
6.990000E+03	2.511415E-15	4.621623E-17
7.000000E+03	2.521017E-15	4.638853E-17
7.010000E+03	2.529214E-15	4.643447E-17
7.020000E+03	2.535654E-15	4.639265E-17
7.030000E+03	2.540143E-15	4.642338E-17
7.040000E+03	2.542679E-15	4.639221E-17
7.050000E+03	2.543398E-15	4.628629E-17
7.060000E+03	2.542362E-15	4.622732E-17
7.070000E+03	2.539532E-15	4.607188E-17
7.080000E+03	2.534737E-15	4.581934E-17
7.090000E+03	2.527562E-15	4.560356E-17
7.100000E+03	2.517230E-15	4.528754E-17
7.110000E+03	2.502865E-15	4.488792E-17
7.120000E+03	2.483939E-15	4.455401E-17
7.130000E+03	2.460634E-15	4.415219E-17
7.140000E+03	2.433811E-15	4.370836E-17
7.150000E+03	2.405465E-15	4.339019E-17
7.160000E+03	2.378979E-15	4.307789E-17
7.170000E+03	2.358429E-15	4.279083E-17
7.180000E+03	2.346761E-15	4.268177E-17
7.190000E+03	2.345356E-15	4.262628E-17
7.200000E+03	2.354345E-15	4.257868E-17
7.210000E+03	2.372659E-15	4.260836E-17
7.220000E+03	2.397690E-15	4.256671E-17
7.230000E+03	2.425972E-15	4.241889E-17
7.240000E+03	2.454102E-15	4.222918E-17
7.250000E+03	2.479240E-15	4.183927E-17
7.260000E+03	2.499133E-15	4.131147E-17
7.270000E+03	2.512282E-15	4.082538E-17
7.280000E+03	2.517948E-15	4.018949E-17
7.290000E+03	2.516374E-15	3.947840E-17
7.300000E+03	2.508436E-15	3.893704E-17
7.310000E+03	2.495346E-15	3.833417E-17
7.320000E+03	2.478805E-15	3.770550E-17
7.330000E+03	2.460901E-15	3.728587E-17
7.340000E+03	2.443484E-15	3.678973E-17
7.350000E+03	2.428256E-15	3.622117E-17
7.360000E+03	2.416817E-15	3.580915E-17
7.370000E+03	2.410296E-15	3.526225E-17
7.380000E+03	2.409323E-15	3.467793E-17
7.390000E+03	2.414061E-15	3.438167E-17
7.400000E+03	2.424124E-15	3.400483E-17
7.410000E+03	2.438508E-15	3.360957E-17
7.420000E+03	2.455902E-15	3.356392E-17
7.430000E+03	2.474650E-15	3.339465E-17
7.440000E+03	2.492643E-15	3.309134E-17
7.450000E+03	2.507144E-15	3.298877E-17
7.460000E+03	2.515069E-15	3.244933E-17
7.470000E+03	2.512640E-15	3.139955E-17
7.480000E+03	2.495815E-15	3.016832E-17
7.490000E+03	2.461298E-15	2.797229E-17
7.500000E+03	2.408403E-15	2.536809E-17
7.510000E+03	2.344549E-15	2.537748E-17
7.520000E+03	2.277712E-15	2.813487E-17
7.530000E+03	2.207252E-15	3.095167E-17
7.540000E+03	2.136858E-15	3.307305E-17
7.550000E+03	2.076592E-15	3.435534E-17
7.560000E+03	2.038154E-15	3.491182E-17
7.570000E+03	2.027802E-15	3.479846E-17
7.580000E+03	2.041879E-15	3.348319E-17
7.590000E+03	2.067417E-15	3.037470E-17
7.600000E+03	2.081240E-15	2.578203E-17
7.610000E+03	2.051993E-15	2.222710E-17
7.620000E+03	1.961325E-15	2.289014E-17
7.630000E+03	1.842376E-15	2.455299E-17
7.640000E+03	1.735109E-15	2.503743E-17
7.650000E+03	1.666648E-15	2.498727E-17
7.660000E+03	1.648713E-15	2.532100E-17
7.670000E+03	1.676917E-15	2.602849E-17
7.680000E+03	1.738869E-15	2.707105E-17
7.690000E+03	1.821421E-15	2.857806E-17
7.700000E+03	1.913143E-15	3.014816E-17
7.710000E+03	2.004258E-15	3.150578E-17
7.720000E+03	2.087238E-15	3.270633E-17
7.730000E+03	2.158497E-15	3.351098E-17
7.740000E+03	2.217622E-15	3.397942E-17
7.750000E+03	2.265844E-15	3.441842E-17
7.760000E+03	2.305473E-15	3.459396E-17
