#wls	flux	fluxerr
1.600000E+03	5.988903E-17	6.802585E-17
1.640000E+03	6.036839E-17	6.848642E-17
1.680000E+03	6.088622E-17	6.897763E-17
1.720000E+03	6.146732E-17	6.952557E-17
1.760000E+03	6.210421E-17	7.011941E-17
1.800000E+03	6.280066E-17	7.076068E-17
1.840000E+03	6.357198E-17	7.146352E-17
1.880000E+03	6.442304E-17	7.222971E-17
1.920000E+03	6.535926E-17	7.306105E-17
1.960000E+03	6.638665E-17	7.395935E-17
2.000000E+03	6.751191E-17	7.492634E-17
2.040000E+03	6.875415E-17	7.597660E-17
2.080000E+03	7.013385E-17	7.712481E-17
2.120000E+03	7.163713E-17	7.834657E-17
2.160000E+03	7.329849E-17	7.966903E-17
2.200000E+03	7.513032E-17	8.109306E-17
2.240000E+03	7.714633E-17	8.261879E-17
2.280000E+03	7.936171E-17	8.424538E-17
2.320000E+03	8.181904E-17	8.599780E-17
2.360000E+03	8.452499E-17	8.785908E-17
2.400000E+03	8.751396E-17	8.983707E-17
2.440000E+03	9.082331E-17	9.193704E-17
2.480000E+03	9.446548E-17	9.413281E-17
2.520000E+03	9.851094E-17	9.644907E-17
2.560000E+03	1.029622E-16	9.883442E-17
2.600000E+03	1.078958E-16	1.012999E-16
2.640000E+03	1.133312E-16	1.037899E-16
2.680000E+03	1.193496E-16	1.062937E-16
2.720000E+03	1.259699E-16	1.087280E-16
2.760000E+03	1.332556E-16	1.110340E-16
2.800000E+03	1.412494E-16	1.131169E-16
2.840000E+03	1.499851E-16	1.148572E-16
2.880000E+03	1.594828E-16	1.161081E-16
2.920000E+03	1.697820E-16	1.167218E-16
2.960000E+03	1.808407E-16	1.164819E-16
3.000000E+03	1.926444E-16	1.151901E-16
3.010000E+03	1.956975E-16	1.146726E-16
3.020000E+03	1.988001E-16	1.140768E-16
3.030000E+03	2.019287E-16	1.133867E-16
3.040000E+03	2.051020E-16	1.126106E-16
3.050000E+03	2.083175E-16	1.117446E-16
3.060000E+03	2.115508E-16	1.107737E-16
3.070000E+03	2.148205E-16	1.097060E-16
3.080000E+03	2.181235E-16	1.085383E-16
3.090000E+03	2.214567E-16	1.072673E-16
3.100000E+03	2.247944E-16	1.058799E-16
3.110000E+03	2.281551E-16	1.043846E-16
3.120000E+03	2.315574E-16	1.027893E-16
3.130000E+03	2.349529E-16	1.010724E-16
3.140000E+03	2.383598E-16	9.924295E-17
3.150000E+03	2.417741E-16	9.730063E-17
3.160000E+03	2.452145E-16	9.525455E-17
3.170000E+03	2.486311E-16	9.308768E-17
3.180000E+03	2.520654E-16	9.081936E-17
3.190000E+03	2.554903E-16	8.844350E-17
3.200000E+03	2.589014E-16	8.596396E-17
3.210000E+03	2.622943E-16	8.338579E-17
3.220000E+03	2.656883E-16	8.072243E-17
3.230000E+03	2.690791E-16	7.798081E-17
3.240000E+03	2.724163E-16	7.515654E-17
3.250000E+03	2.757659E-16	7.228030E-17
3.260000E+03	2.790542E-16	6.934605E-17
3.270000E+03	2.823480E-16	6.638677E-17
3.280000E+03	2.855972E-16	6.340800E-17
3.290000E+03	2.888224E-16	6.043482E-17
3.300000E+03	2.920209E-16	5.748875E-17
3.310000E+03	2.951667E-16	5.458886E-17
3.320000E+03	2.983046E-16	5.176868E-17
3.330000E+03	3.013854E-16	4.904442E-17
3.340000E+03	3.044536E-16	4.644733E-17
3.350000E+03	3.074597E-16	4.399075E-17
3.360000E+03	3.104471E-16	4.169841E-17
3.370000E+03	3.133879E-16	3.957857E-17
3.380000E+03	3.162990E-16	3.763979E-17
3.390000E+03	3.191249E-16	3.587549E-17
3.400000E+03	3.219218E-16	3.428554E-17
3.410000E+03	3.246025E-16	3.284771E-17
3.420000E+03	3.272126E-16	3.154916E-17
3.430000E+03	3.296562E-16	3.035963E-17
3.440000E+03	3.319730E-16	2.926032E-17
3.450000E+03	3.341159E-16	2.822339E-17
3.460000E+03	3.360492E-16	2.722210E-17
3.470000E+03	3.377998E-16	2.623467E-17
3.480000E+03	3.394174E-16	2.524043E-17
3.490000E+03	3.409119E-16	2.421540E-17
3.500000E+03	3.424061E-16	2.314406E-17
3.510000E+03	3.439782E-16	2.200879E-17
3.520000E+03	3.457418E-16	2.079774E-17
3.530000E+03	3.478351E-16	1.950718E-17
3.540000E+03	3.503474E-16	1.814267E-17
3.550000E+03	3.533921E-16	1.673213E-17
3.560000E+03	3.570309E-16	1.533495E-17
3.570000E+03	3.612621E-16	1.406009E-17
3.580000E+03	3.660916E-16	1.308457E-17
3.590000E+03	3.713786E-16	1.263389E-17
3.600000E+03	3.770139E-16	1.288475E-17
3.610000E+03	3.828507E-16	1.374414E-17
3.620000E+03	3.888208E-16	1.497921E-17
3.630000E+03	3.947633E-16	1.637264E-17
3.640000E+03	4.005430E-16	1.776960E-17
3.650000E+03	4.059781E-16	1.907028E-17
3.660000E+03	4.109277E-16	2.021749E-17
3.670000E+03	4.152098E-16	2.117912E-17
3.680000E+03	4.187048E-16	2.194399E-17
3.690000E+03	4.212180E-16	2.250902E-17
3.700000E+03	4.226364E-16	2.288340E-17
3.710000E+03	4.228877E-16	2.308325E-17
3.720000E+03	4.219072E-16	2.312656E-17
3.730000E+03	4.198002E-16	2.303875E-17
3.740000E+03	4.167353E-16	2.284444E-17
3.750000E+03	4.129458E-16	2.256625E-17
3.760000E+03	4.088421E-16	2.223091E-17
3.770000E+03	4.048022E-16	2.185917E-17
3.780000E+03	4.012864E-16	2.147458E-17
3.790000E+03	3.987212E-16	2.109943E-17
3.793340E+03	4.575791E-16	1.739841E-16
3.794810E+03	4.489442E-16	1.475135E-16
3.796280E+03	4.390672E-16	1.325658E-16
3.797750E+03	4.347267E-16	1.281137E-16
3.799220E+03	4.337840E-16	1.276267E-16
3.800690E+03	4.281669E-16	1.286318E-16
3.802160E+03	4.245505E-16	1.167797E-16
3.803630E+03	4.246253E-16	1.090324E-16
3.805100E+03	4.247692E-16	1.113847E-16
3.806570E+03	4.265173E-16	1.158308E-16
3.808040E+03	4.296627E-16	1.121282E-16
3.809510E+03	4.331359E-16	1.119365E-16
3.810980E+03	4.296918E-16	1.111284E-16
3.812450E+03	4.304223E-16	1.082712E-16
3.813920E+03	4.290136E-16	1.068775E-16
3.815390E+03	4.270875E-16	1.056582E-16
3.816860E+03	4.350290E-16	1.068192E-16
3.818330E+03	4.383301E-16	1.067203E-16
3.819800E+03	4.416313E-16	1.085473E-16
3.821270E+03	4.447083E-16	1.096936E-16
3.822740E+03	4.427132E-16	1.059829E-16
3.824210E+03	4.457731E-16	1.057084E-16
3.825680E+03	4.513520E-16	1.065899E-16
3.827150E+03	4.474246E-16	1.062719E-16
3.828620E+03	4.502603E-16	1.065534E-16
3.830090E+03	4.532170E-16	1.068731E-16
3.831560E+03	4.577265E-16	1.057977E-16
3.833030E+03	4.638581E-16	1.087246E-16
3.834500E+03	4.652104E-16	1.088760E-16
3.835970E+03	4.695996E-16	1.099888E-16
3.837440E+03	4.769222E-16	1.099620E-16
3.838910E+03	4.793273E-16	1.121615E-16
3.840380E+03	4.817325E-16	1.118376E-16
3.841850E+03	4.753719E-16	1.121210E-16
3.843320E+03	4.682347E-16	1.090046E-16
3.844790E+03	4.607349E-16	1.075591E-16
3.846260E+03	4.473506E-16	1.030366E-16
3.847730E+03	4.364162E-16	1.066307E-16
3.849200E+03	4.225307E-16	1.036758E-16
3.850670E+03	4.146847E-16	1.045694E-16
3.852140E+03	4.101001E-16	1.049383E-16
3.853610E+03	4.093121E-16	1.018568E-16
3.855080E+03	4.052623E-16	9.654037E-17
3.856550E+03	4.015575E-16	9.465721E-17
3.858020E+03	4.000790E-16	9.167904E-17
3.859490E+03	3.976684E-16	8.866856E-17
3.860960E+03	3.979329E-16	8.928649E-17
3.862430E+03	3.999060E-16	8.916084E-17
3.863900E+03	3.999807E-16	8.926822E-17
3.865370E+03	3.967071E-16	8.916415E-17
3.866840E+03	3.949177E-16	8.954083E-17
3.868310E+03	3.920927E-16	9.072997E-17
3.869780E+03	3.893884E-16	9.338420E-17
3.871250E+03	3.879095E-16	9.711651E-17
3.872720E+03	3.871555E-16	9.923478E-17
3.874190E+03	3.909239E-16	9.647918E-17
3.875660E+03	3.914990E-16	9.645365E-17
3.877130E+03	3.962514E-16	9.612660E-17
3.878600E+03	4.030754E-16	9.985620E-17
3.880070E+03	4.080871E-16	9.604309E-17
3.881540E+03	4.129608E-16	9.394143E-17
3.883010E+03	4.126904E-16	9.377326E-17
3.884480E+03	4.163905E-16	9.486769E-17
3.885950E+03	4.214199E-16	9.404710E-17
3.887420E+03	4.296777E-16	9.087199E-17
3.888890E+03	4.395757E-16	9.934088E-17
3.890360E+03	4.465219E-16	9.929757E-17
3.891830E+03	4.553500E-16	9.916222E-17
3.893300E+03	4.617960E-16	9.981404E-17
3.894770E+03	4.642887E-16	9.989228E-17
3.896240E+03	4.684388E-16	9.546096E-17
3.897710E+03	4.799956E-16	9.573167E-17
3.899180E+03	4.886178E-16	9.494913E-17
3.900650E+03	4.934072E-16	9.668740E-17
3.902120E+03	5.029103E-16	9.718911E-17
3.903590E+03	5.144856E-16	9.671298E-17
3.905060E+03	5.261821E-16	9.652611E-17
3.906530E+03	5.333033E-16	9.941525E-17
3.908000E+03	5.435500E-16	1.006313E-16
3.909470E+03	5.540733E-16	1.008962E-16
3.910940E+03	5.640098E-16	1.026552E-16
3.912410E+03	5.752762E-16	1.027732E-16
3.913880E+03	5.837973E-16	1.068230E-16
3.915350E+03	5.922669E-16	1.051026E-16
3.916820E+03	6.020146E-16	1.054315E-16
3.918290E+03	6.090169E-16	1.036645E-16
3.919760E+03	6.207510E-16	9.622074E-17
3.921230E+03	6.324854E-16	9.416427E-17
3.922700E+03	6.348604E-16	9.394080E-17
3.924170E+03	6.377535E-16	9.413424E-17
3.925640E+03	6.471919E-16	9.417507E-17
3.927110E+03	6.529348E-16	9.081336E-17
3.928580E+03	6.580216E-16	9.082625E-17
3.930050E+03	6.636785E-16	9.335881E-17
3.931520E+03	6.661923E-16	9.698797E-17
3.932990E+03	6.747683E-16	9.573493E-17
3.934460E+03	6.824291E-16	9.596732E-17
3.935930E+03	6.900902E-16	9.547599E-17
3.937400E+03	6.947462E-16	8.763262E-17
3.938870E+03	6.978652E-16	8.794634E-17
3.940340E+03	6.995680E-16	9.036593E-17
3.941810E+03	6.993363E-16	8.894040E-17
3.943280E+03	7.023174E-16	9.216971E-17
3.944750E+03	7.077685E-16	9.183153E-17
3.946220E+03	7.137380E-16	9.311634E-17
3.947690E+03	7.183085E-16	9.173226E-17
3.949160E+03	7.232419E-16	8.865992E-17
3.950630E+03	7.287455E-16	9.072532E-17
3.952100E+03	7.370476E-16	9.615855E-17
3.953570E+03	7.417052E-16	1.031122E-16
3.955040E+03	7.466219E-16	1.044426E-16
3.956510E+03	7.513316E-16	1.038578E-16
3.957980E+03	7.596173E-16	1.061279E-16
3.959450E+03	7.658993E-16	1.048548E-16
3.960920E+03	7.698839E-16	1.048554E-16
3.962390E+03	7.749051E-16	1.000943E-16
3.963860E+03	7.808249E-16	1.007737E-16
3.965330E+03	7.873494E-16	1.002362E-16
3.966800E+03	7.953427E-16	1.000194E-16
3.968270E+03	8.015740E-16	1.002653E-16
3.969740E+03	8.055768E-16	1.005308E-16
3.971210E+03	8.067289E-16	1.057991E-16
3.972680E+03	8.088659E-16	1.122865E-16
3.974150E+03	8.128862E-16	1.122511E-16
3.975620E+03	8.173559E-16	1.119865E-16
3.977090E+03	8.217393E-16	1.133786E-16
3.978560E+03	8.303388E-16	1.114141E-16
3.980030E+03	8.343425E-16	1.081400E-16
3.981500E+03	8.374477E-16	1.076502E-16
3.982970E+03	8.385141E-16	1.074027E-16
3.984440E+03	8.392003E-16	1.076622E-16
3.985910E+03	8.432907E-16	1.060062E-16
3.987380E+03	8.451694E-16	1.053713E-16
3.988850E+03	8.427972E-16	1.036792E-16
3.990320E+03	8.426368E-16	1.044416E-16
3.991790E+03	8.441009E-16	1.003773E-16
3.993260E+03	8.452366E-16	1.028736E-16
3.994730E+03	8.461132E-16	1.032424E-16
3.996200E+03	8.470762E-16	1.032367E-16
3.997670E+03	8.482639E-16	1.032523E-16
3.999140E+03	8.458569E-16	1.081144E-16
4.000610E+03	8.473730E-16	1.039469E-16
4.002080E+03	8.475238E-16	9.898470E-17
4.003550E+03	8.474327E-16	9.486340E-17
4.005020E+03	8.462009E-16	9.570792E-17
4.006490E+03	8.492208E-16	9.272486E-17
4.007960E+03	8.527247E-16	9.360847E-17
4.009430E+03	8.521151E-16	9.373273E-17
4.010900E+03	8.545821E-16	9.310438E-17
4.012370E+03	8.539553E-16	9.165477E-17
4.013840E+03	8.523778E-16	9.210782E-17
4.015310E+03	8.525633E-16	9.247269E-17
4.016780E+03	8.546157E-16	9.284470E-17
4.018250E+03	8.577225E-16	9.307977E-17
4.019720E+03	8.619012E-16	8.778459E-17
4.021190E+03	8.624499E-16	7.797063E-17
4.022660E+03	8.603538E-16	7.783998E-17
4.024130E+03	8.603321E-16	7.739697E-17
4.025600E+03	8.601548E-16	7.422462E-17
4.027070E+03	8.634694E-16	7.577870E-17
4.028540E+03	8.666459E-16	7.647828E-17
4.030010E+03	8.656908E-16	8.075352E-17
4.031480E+03	8.642342E-16	8.104121E-17
4.032950E+03	8.625529E-16	8.074046E-17
4.034420E+03	8.630672E-16	8.101315E-17
4.035890E+03	8.652758E-16	8.072247E-17
4.037360E+03	8.687984E-16	8.052707E-17
4.038830E+03	8.698833E-16	7.867328E-17
4.040300E+03	8.708300E-16	7.871307E-17
4.041770E+03	8.713963E-16	7.607482E-17
4.043240E+03	8.685911E-16	7.424883E-17
4.044710E+03	8.682065E-16	7.464710E-17
4.046180E+03	8.687901E-16	7.583744E-17
4.047650E+03	8.673681E-16	6.575302E-17
4.049120E+03	8.673465E-16	6.523381E-17
4.050590E+03	8.686564E-16	6.212588E-17
4.052060E+03	8.721451E-16	5.905746E-17
4.053530E+03	8.772419E-16	5.874303E-17
4.055000E+03	8.824082E-16	5.766005E-17
4.056470E+03	8.853611E-16	5.714362E-17
4.057940E+03	8.915998E-16	5.608712E-17
4.059410E+03	8.941898E-16	5.605117E-17
4.060880E+03	8.968146E-16	5.639429E-17
4.062350E+03	9.001311E-16	5.693716E-17
4.063820E+03	9.002658E-16	5.813158E-17
4.065290E+03	9.030291E-16	5.755189E-17
4.066760E+03	9.063632E-16	5.801324E-17
4.068230E+03	9.080544E-16	5.726482E-17
4.069700E+03	9.096592E-16	5.954857E-17
4.071170E+03	9.090331E-16	7.084371E-17
4.072640E+03	9.049306E-16	7.210029E-17
4.074110E+03	9.038547E-16	7.417098E-17
4.075580E+03	9.042835E-16	7.463118E-17
4.077050E+03	9.013569E-16	7.565570E-17
4.078520E+03	8.989318E-16	7.139432E-17
4.079990E+03	8.970948E-16	7.183924E-17
4.081460E+03	8.952230E-16	7.123648E-17
4.082930E+03	8.932475E-16	7.028998E-17
4.084400E+03	8.909778E-16	7.146679E-17
4.085870E+03	8.882757E-16	7.276597E-17
4.087340E+03	8.842242E-16	7.253178E-17
4.088810E+03	8.774742E-16	7.256728E-17
4.090280E+03	8.710007E-16	7.217915E-17
4.091750E+03	8.674677E-16	7.327112E-17
4.093220E+03	8.647477E-16	7.312081E-17
4.094690E+03	8.605053E-16	7.176241E-17
4.096160E+03	8.561936E-16	7.045987E-17
4.097630E+03	8.519510E-16	7.011076E-17
4.099100E+03	8.512201E-16	7.175380E-17
4.100570E+03	8.471330E-16	7.179099E-17
4.102040E+03	8.402431E-16	7.184450E-17
4.103510E+03	8.327301E-16	7.166143E-17
4.104980E+03	8.290405E-16	7.095280E-17
4.106450E+03	8.249009E-16	7.110660E-17
4.107920E+03	8.209515E-16	7.129017E-17
4.109390E+03	8.142164E-16	7.110098E-17
4.110860E+03	8.084846E-16	7.220257E-17
4.112330E+03	8.028564E-16	7.062249E-17
4.113800E+03	7.989411E-16	7.176292E-17
4.115270E+03	7.946968E-16	7.092963E-17
4.116740E+03	7.889471E-16	7.094651E-17
4.118210E+03	7.842181E-16	6.888360E-17
4.119680E+03	7.793852E-16	5.545597E-17
4.121150E+03	7.737561E-16	5.272735E-17
4.122620E+03	7.683691E-16	5.278045E-17
4.124090E+03	7.632761E-16	5.148266E-17
4.125560E+03	7.601211E-16	4.934396E-17
4.127030E+03	7.545260E-16	4.937256E-17
4.128500E+03	7.489654E-16	4.865254E-17
4.129970E+03	7.412414E-16	4.852371E-17
4.131440E+03	7.345036E-16	4.885783E-17
4.132910E+03	7.298077E-16	4.730688E-17
4.134380E+03	7.261327E-16	4.505342E-17
4.135850E+03	7.228730E-16	4.648628E-17
4.137320E+03	7.165672E-16	4.720254E-17
4.138790E+03	7.099842E-16	4.730806E-17
4.140260E+03	7.037300E-16	4.886318E-17
4.141730E+03	6.982197E-16	4.827327E-17
4.143200E+03	6.917228E-16	4.887996E-17
4.144670E+03	6.877872E-16	4.862456E-17
4.146140E+03	6.831938E-16	4.990260E-17
4.147610E+03	6.751386E-16	4.729108E-17
4.149080E+03	6.685543E-16	4.769877E-17
4.150550E+03	6.619353E-16	4.642961E-17
4.152020E+03	6.555237E-16	4.679011E-17
4.153490E+03	6.492158E-16	4.667313E-17
4.154960E+03	6.422154E-16	4.623901E-17
4.156430E+03	6.376035E-16	4.584199E-17
4.157900E+03	6.347398E-16	4.548216E-17
4.159370E+03	6.306816E-16	4.201906E-17
4.160840E+03	6.262425E-16	4.223255E-17
4.162310E+03	6.223745E-16	4.023981E-17
4.163780E+03	6.200644E-16	4.035767E-17
4.165250E+03	6.171137E-16	4.057834E-17
4.166720E+03	6.129164E-16	4.040289E-17
4.168190E+03	6.095847E-16	4.317529E-17
4.169660E+03	6.051448E-16	4.459393E-17
4.171130E+03	5.969133E-16	4.271490E-17
4.172600E+03	5.900319E-16	4.285327E-17
4.174070E+03	5.872883E-16	4.314298E-17
4.175540E+03	5.859123E-16	4.325218E-17
4.177010E+03	5.848653E-16	4.288598E-17
4.178480E+03	5.808401E-16	4.288873E-17
4.179950E+03	5.779923E-16	4.248873E-17
4.181420E+03	5.764603E-16	4.219219E-17
4.182890E+03	5.736123E-16	4.228604E-17
4.184360E+03	5.730498E-16	4.009919E-17
4.185830E+03	5.732839E-16	3.853669E-17
4.187300E+03	5.726867E-16	4.165847E-17
4.188770E+03	5.721242E-16	3.837798E-17
4.190240E+03	5.704708E-16	3.839448E-17
4.191710E+03	5.679515E-16	3.717347E-17
4.193180E+03	5.670945E-16	3.911026E-17
4.194650E+03	5.648694E-16	3.804493E-17
4.196120E+03	5.615187E-16	4.190290E-17
4.197590E+03	5.598303E-16	4.172283E-17
4.199060E+03	5.606703E-16	4.173228E-17
4.200530E+03	5.589473E-16	4.208376E-17
4.202000E+03	5.584884E-16	4.209394E-17
4.203470E+03	5.578390E-16	4.196228E-17
4.204940E+03	5.575014E-16	4.230374E-17
4.206410E+03	5.558821E-16	4.604525E-17
4.207880E+03	5.528945E-16	4.642037E-17
4.209350E+03	5.514310E-16	4.818062E-17
4.210820E+03	5.526694E-16	5.048722E-17
4.212290E+03	5.514656E-16	4.994787E-17
4.213760E+03	5.487549E-16	5.019138E-17
4.215230E+03	5.484517E-16	5.025407E-17
4.216700E+03	5.460354E-16	4.761237E-17
4.218170E+03	5.431512E-16	4.565509E-17
4.219640E+03	5.406827E-16	4.544148E-17
4.221110E+03	5.378331E-16	4.496612E-17
4.222580E+03	5.339787E-16	4.514917E-17
4.224050E+03	5.309383E-16	4.751683E-17
4.225520E+03	5.287293E-16	4.921145E-17
4.226990E+03	5.265895E-16	4.919294E-17
4.228460E+03	5.243284E-16	4.929466E-17
4.229930E+03	5.231760E-16	5.294125E-17
4.231400E+03	5.226818E-16	5.271266E-17
4.232870E+03	5.214601E-16	5.267585E-17
4.234340E+03	5.190255E-16	5.279009E-17
4.235810E+03	5.151703E-16	5.048617E-17
4.237280E+03	5.118693E-16	5.047280E-17
4.238750E+03	5.099023E-16	5.044871E-17
4.240220E+03	5.115216E-16	5.051510E-17
4.241690E+03	5.114777E-16	4.959032E-17
4.243160E+03	5.099611E-16	4.910828E-17
4.244630E+03	5.096746E-16	4.724533E-17
4.246100E+03	5.114153E-16	4.666862E-17
4.247570E+03	5.121511E-16	4.740440E-17
4.249040E+03	5.127656E-16	4.576290E-17
4.250510E+03	5.136228E-16	4.631522E-17
4.251980E+03	5.139774E-16	4.596134E-17
4.253450E+03	5.146960E-16	4.603808E-17
4.254920E+03	5.165410E-16	4.382949E-17
4.256390E+03	5.171037E-16	4.489460E-17
4.257860E+03	5.192780E-16	4.239638E-17
4.259330E+03	5.228213E-16	3.859248E-17
4.260800E+03	5.264515E-16	4.007543E-17
4.262270E+03	5.287300E-16	4.241557E-17
4.263740E+03	5.316671E-16	4.285226E-17
4.265210E+03	5.330273E-16	4.340431E-17
4.266680E+03	5.350461E-16	4.557355E-17
4.268150E+03	5.406871E-16	4.587397E-17
4.269620E+03	5.451498E-16	4.584142E-17
4.271090E+03	5.465969E-16	4.526089E-17
4.272560E+03	5.501413E-16	4.264519E-17
4.274030E+03	5.546736E-16	4.089971E-17
4.275500E+03	5.603154E-16	4.180780E-17
4.276970E+03	5.643454E-16	4.174873E-17
4.278440E+03	5.680116E-16	3.709193E-17
4.279910E+03	5.716605E-16	3.740865E-17
4.281380E+03	5.748243E-16	3.837533E-17
4.282850E+03	5.799295E-16	3.851062E-17
4.284320E+03	5.842028E-16	3.816663E-17
4.285790E+03	5.870029E-16	4.018783E-17
4.287260E+03	5.902711E-16	4.312104E-17
4.288730E+03	5.952902E-16	4.467242E-17
4.290200E+03	6.002055E-16	4.438798E-17
4.291670E+03	6.041502E-16	4.430824E-17
4.293140E+03	6.063094E-16	4.298659E-17
4.294610E+03	6.093008E-16	4.333617E-17
4.296080E+03	6.102640E-16	4.183603E-17
4.297550E+03	6.123367E-16	4.179427E-17
4.299020E+03	6.145656E-16	4.122820E-17
4.300490E+03	6.147314E-16	4.199382E-17
4.301960E+03	6.140130E-16	4.221032E-17
4.303430E+03	6.118556E-16	4.343843E-17
4.304900E+03	6.103050E-16	4.343718E-17
4.306370E+03	6.103321E-16	4.305524E-17
4.307840E+03	6.090588E-16	4.336743E-17
4.309310E+03	6.072653E-16	4.256960E-17
4.310780E+03	6.055238E-16	4.148116E-17
4.312250E+03	6.047532E-16	4.210332E-17
4.313720E+03	6.045548E-16	4.165042E-17
4.315190E+03	6.044604E-16	3.945288E-17
4.316660E+03	6.036551E-16	3.931762E-17
4.318130E+03	6.016706E-16	3.934864E-17
4.319600E+03	5.990271E-16	4.162284E-17
4.321070E+03	5.963489E-16	4.156620E-17
4.322540E+03	5.935838E-16	4.307677E-17
4.324010E+03	5.915470E-16	4.278286E-17
4.325480E+03	5.902732E-16	4.280171E-17
4.326950E+03	5.878548E-16	4.338305E-17
4.328420E+03	5.867370E-16	4.306091E-17
4.329890E+03	5.873880E-16	4.193738E-17
4.331360E+03	5.865997E-16	4.066681E-17
4.332830E+03	5.862275E-16	4.200283E-17
4.334300E+03	5.866358E-16	4.095032E-17
4.335770E+03	5.864024E-16	3.942100E-17
4.337240E+03	5.861690E-16	4.116297E-17
4.338710E+03	5.856407E-16	4.092631E-17
4.340180E+03	5.861357E-16	4.132729E-17
4.341650E+03	5.875327E-16	4.205356E-17
4.343120E+03	5.881492E-16	4.185185E-17
4.344590E+03	5.889392E-16	4.186446E-17
4.346060E+03	5.910995E-16	4.250354E-17
4.347530E+03	5.933465E-16	4.299522E-17
4.349000E+03	5.938938E-16	4.420645E-17
4.350470E+03	5.941288E-16	4.695664E-17
4.351940E+03	5.966363E-16	4.742421E-17
4.353410E+03	5.989183E-16	4.667282E-17
4.354880E+03	6.007494E-16	4.711728E-17
4.356350E+03	6.025805E-16	4.813057E-17
4.357820E+03	6.070659E-16	5.010725E-17
4.359290E+03	6.116555E-16	5.314363E-17
4.360760E+03	6.141288E-16	5.242293E-17
4.362230E+03	6.153010E-16	5.254722E-17
4.363700E+03	6.170978E-16	5.255821E-17
4.365170E+03	6.189121E-16	5.252511E-17
4.366640E+03	6.191302E-16	5.358907E-17
4.368110E+03	6.200944E-16	5.438265E-17
4.369580E+03	6.216138E-16	5.466642E-17
4.371050E+03	6.232894E-16	5.329471E-17
4.372520E+03	6.256938E-16	5.290862E-17
4.373990E+03	6.282718E-16	5.333343E-17
4.375460E+03	6.308152E-16	5.435640E-17
