#wls	flux	fluxerr
1.600000E+03	5.208497E-17	5.918642E-17
1.640000E+03	5.255018E-17	5.964600E-17
1.680000E+03	5.306845E-17	6.015500E-17
1.720000E+03	5.362399E-17	6.069381E-17
1.760000E+03	5.423822E-17	6.128477E-17
1.800000E+03	5.490509E-17	6.191873E-17
1.840000E+03	5.562810E-17	6.259708E-17
1.880000E+03	5.642065E-17	6.333187E-17
1.920000E+03	5.727754E-17	6.411378E-17
1.960000E+03	5.822286E-17	6.496574E-17
2.000000E+03	5.924257E-17	6.586736E-17
2.040000E+03	6.036211E-17	6.684154E-17
2.080000E+03	6.157816E-17	6.787825E-17
2.120000E+03	6.290790E-17	6.898911E-17
2.160000E+03	6.435932E-17	7.017433E-17
2.200000E+03	6.594112E-17	7.143348E-17
2.240000E+03	6.766272E-17	7.276529E-17
2.280000E+03	6.955581E-17	7.419042E-17
2.320000E+03	7.161037E-17	7.568241E-17
2.360000E+03	7.386031E-17	7.725911E-17
2.400000E+03	7.630759E-17	7.890146E-17
2.440000E+03	7.898880E-17	8.062287E-17
2.480000E+03	8.190713E-17	8.239807E-17
2.520000E+03	8.508923E-17	8.422126E-17
2.560000E+03	8.856257E-17	8.608174E-17
2.600000E+03	9.232958E-17	8.793846E-17
2.640000E+03	9.642928E-17	8.977942E-17
2.680000E+03	1.008742E-16	9.155981E-17
2.720000E+03	1.056874E-16	9.323722E-17
2.760000E+03	1.108745E-16	9.474615E-17
2.800000E+03	1.164643E-16	9.603365E-17
2.840000E+03	1.224212E-16	9.698668E-17
2.880000E+03	1.287892E-16	9.755292E-17
2.920000E+03	1.355289E-16	9.761114E-17
2.960000E+03	1.426201E-16	9.705896E-17
3.000000E+03	1.500484E-16	9.580578E-17
3.010000E+03	1.519602E-16	9.537579E-17
3.020000E+03	1.538719E-16	9.488360E-17
3.030000E+03	1.558160E-16	9.434873E-17
3.040000E+03	1.577579E-16	9.374947E-17
3.050000E+03	1.597303E-16	9.310508E-17
3.060000E+03	1.617152E-16	9.240449E-17
3.070000E+03	1.637117E-16	9.164703E-17
3.080000E+03	1.657187E-16	9.083221E-17
3.090000E+03	1.677351E-16	8.995980E-17
3.100000E+03	1.697773E-16	8.903893E-17
3.110000E+03	1.718094E-16	8.805139E-17
3.120000E+03	1.738655E-16	8.701586E-17
3.130000E+03	1.759449E-16	8.593266E-17
3.140000E+03	1.780114E-16	8.478548E-17
3.150000E+03	1.800996E-16	8.359292E-17
3.160000E+03	1.821911E-16	8.234821E-17
3.170000E+03	1.842853E-16	8.105356E-17
3.180000E+03	1.863996E-16	7.971929E-17
3.190000E+03	1.885157E-16	7.834031E-17
3.200000E+03	1.906333E-16	7.691998E-17
3.210000E+03	1.927705E-16	7.546917E-17
3.220000E+03	1.949092E-16	7.398445E-17
3.230000E+03	1.970678E-16	7.247695E-17
3.240000E+03	1.992285E-16	7.094424E-17
3.250000E+03	2.014101E-16	6.939752E-17
3.260000E+03	2.035951E-16	6.783508E-17
3.270000E+03	2.058029E-16	6.626792E-17
3.280000E+03	2.080345E-16	6.470039E-17
3.290000E+03	2.102729E-16	6.313110E-17
3.300000E+03	2.125197E-16	6.156441E-17
3.310000E+03	2.148136E-16	6.001452E-17
3.320000E+03	2.171009E-16	5.846844E-17
3.330000E+03	2.194397E-16	5.694350E-17
3.340000E+03	2.217953E-16	5.543059E-17
3.350000E+03	2.242078E-16	5.393888E-17
3.360000E+03	2.266244E-16	5.245330E-17
3.370000E+03	2.291049E-16	5.098453E-17
3.380000E+03	2.316350E-16	4.952397E-17
3.390000E+03	2.342010E-16	4.806240E-17
3.400000E+03	2.368277E-16	4.659747E-17
3.410000E+03	2.395227E-16	4.512155E-17
3.420000E+03	2.422948E-16	4.362610E-17
3.430000E+03	2.451549E-16	4.210181E-17
3.440000E+03	2.481159E-16	4.053874E-17
3.450000E+03	2.511932E-16	3.892656E-17
3.460000E+03	2.544050E-16	3.725473E-17
3.470000E+03	2.577718E-16	3.551274E-17
3.480000E+03	2.613364E-16	3.369291E-17
3.490000E+03	2.650864E-16	3.178069E-17
3.500000E+03	2.690687E-16	2.977077E-17
3.510000E+03	2.733325E-16	2.765973E-17
3.520000E+03	2.778885E-16	2.544426E-17
3.530000E+03	2.827666E-16	2.313109E-17
3.540000E+03	2.879950E-16	2.074056E-17
3.550000E+03	2.935990E-16	1.831733E-17
3.560000E+03	2.996198E-16	1.595137E-17
3.570000E+03	3.060513E-16	1.380908E-17
3.580000E+03	3.129185E-16	1.218307E-17
3.590000E+03	3.201917E-16	1.147927E-17
3.600000E+03	3.278373E-16	1.199653E-17
3.610000E+03	3.357777E-16	1.356901E-17
3.620000E+03	3.438515E-16	1.577698E-17
3.630000E+03	3.519010E-16	1.826181E-17
3.640000E+03	3.597814E-16	2.078868E-17
3.650000E+03	3.673259E-16	2.321119E-17
3.660000E+03	3.743526E-16	2.543620E-17
3.670000E+03	3.807414E-16	2.740817E-17
3.680000E+03	3.863493E-16	2.909285E-17
3.690000E+03	3.910863E-16	3.047623E-17
3.700000E+03	3.949437E-16	3.156356E-17
3.710000E+03	3.978605E-16	3.236570E-17
3.720000E+03	3.998886E-16	3.290932E-17
3.730000E+03	4.010804E-16	3.322522E-17
3.740000E+03	4.015812E-16	3.335309E-17
3.750000E+03	4.015590E-16	3.333343E-17
3.760000E+03	4.012017E-16	3.320533E-17
3.770000E+03	4.007765E-16	3.301017E-17
3.780000E+03	4.005538E-16	3.278474E-17
3.790000E+03	4.007989E-16	3.256045E-17
3.800000E+03	4.018462E-16	3.236966E-17
3.810000E+03	4.039427E-16	3.223316E-17
3.820000E+03	4.073682E-16	3.217023E-17
3.830000E+03	4.124283E-16	3.219821E-17
3.840000E+03	4.193239E-16	3.232269E-17
3.850000E+03	4.282908E-16	3.254905E-17
3.860000E+03	4.395076E-16	3.287603E-17
3.870000E+03	4.530832E-16	3.329595E-17
3.880000E+03	4.691068E-16	3.379966E-17
3.890000E+03	4.875668E-16	3.437196E-17
3.900000E+03	5.083546E-16	3.499350E-17
3.910000E+03	5.312248E-16	3.563988E-17
3.920000E+03	5.558563E-16	3.628794E-17
3.930000E+03	5.817808E-16	3.691309E-17
3.940000E+03	6.083876E-16	3.749175E-17
3.950000E+03	6.350228E-16	3.800823E-17
3.960000E+03	6.609399E-16	3.844957E-17
3.970000E+03	6.853310E-16	3.880300E-17
3.980000E+03	7.074228E-16	3.905646E-17
3.990000E+03	7.265227E-16	3.919747E-17
4.000000E+03	7.419985E-16	3.921025E-17
4.010000E+03	7.533125E-16	3.907762E-17
4.020000E+03	7.601134E-16	3.878742E-17
4.030000E+03	7.622588E-16	3.833557E-17
4.040000E+03	7.597322E-16	3.772347E-17
4.050000E+03	7.527323E-16	3.696394E-17
4.060000E+03	7.416522E-16	3.607975E-17
4.070000E+03	7.269363E-16	3.509563E-17
4.080000E+03	7.092532E-16	3.404700E-17
4.090000E+03	6.892570E-16	3.296782E-17
4.100000E+03	6.676378E-16	3.189073E-17
4.110000E+03	6.451564E-16	3.084607E-17
4.120000E+03	6.224352E-16	2.984943E-17
4.130000E+03	6.001084E-16	2.890877E-17
4.140000E+03	5.787138E-16	2.802291E-17
4.150000E+03	5.586967E-16	2.718633E-17
4.160000E+03	5.404716E-16	2.639553E-17
4.170000E+03	5.243423E-16	2.564741E-17
4.180000E+03	5.105831E-16	2.494401E-17
4.190000E+03	4.993697E-16	2.428911E-17
4.200000E+03	4.908433E-16	2.369123E-17
4.210000E+03	4.850824E-16	2.316169E-17
4.220000E+03	4.821744E-16	2.271660E-17
4.230000E+03	4.821187E-16	2.237050E-17
4.240000E+03	4.848739E-16	2.213612E-17
4.250000E+03	4.903999E-16	2.202345E-17
4.260000E+03	4.985282E-16	2.203130E-17
4.270000E+03	5.091149E-16	2.215067E-17
4.280000E+03	5.219266E-16	2.235552E-17
4.290000E+03	5.366376E-16	2.259968E-17
4.300000E+03	5.529262E-16	2.281781E-17
4.310000E+03	5.703327E-16	2.291872E-17
4.320000E+03	5.883717E-16	2.279712E-17
4.330000E+03	6.063661E-16	2.234138E-17
4.340000E+03	6.235406E-16	2.145950E-17
4.350000E+03	6.389209E-16	2.011069E-17
4.360000E+03	6.514163E-16	1.836597E-17
4.370000E+03	6.597923E-16	1.649821E-17
4.380000E+03	6.628321E-16	1.508769E-17
4.390000E+03	6.594247E-16	1.489882E-17
4.400000E+03	6.501411E-16	1.590928E-17
4.410000E+03	6.369926E-16	1.737188E-17
4.420000E+03	6.219620E-16	1.877051E-17
4.430000E+03	6.068025E-16	1.990246E-17
4.440000E+03	5.930260E-16	2.075044E-17
4.450000E+03	5.818438E-16	2.137272E-17
4.460000E+03	5.741777E-16	2.184170E-17
4.470000E+03	5.707950E-16	2.222335E-17
4.480000E+03	5.722404E-16	2.256766E-17
4.490000E+03	5.789252E-16	2.291134E-17
4.500000E+03	5.911046E-16	2.327944E-17
4.510000E+03	6.089244E-16	2.369050E-17
4.520000E+03	6.322851E-16	2.415418E-17
4.530000E+03	6.609118E-16	2.467573E-17
4.540000E+03	6.942381E-16	2.525087E-17
4.550000E+03	7.314475E-16	2.586581E-17
4.560000E+03	7.714158E-16	2.649477E-17
4.570000E+03	8.128339E-16	2.710257E-17
4.580000E+03	8.542068E-16	2.764559E-17
4.590000E+03	8.939609E-16	2.808586E-17
4.600000E+03	9.305841E-16	2.840624E-17
4.610000E+03	9.625689E-16	2.861112E-17
4.620000E+03	9.885578E-16	2.872123E-17
4.630000E+03	1.007384E-15	2.874771E-17
4.640000E+03	1.018160E-15	2.867486E-17
4.650000E+03	1.020385E-15	2.847662E-17
4.660000E+03	1.014032E-15	2.813938E-17
4.670000E+03	9.996582E-16	2.767428E-17
4.680000E+03	9.782952E-16	2.711796E-17
4.690000E+03	9.513435E-16	2.651974E-17
4.700000E+03	9.204819E-16	2.592550E-17
4.710000E+03	8.874219E-16	2.537144E-17
4.720000E+03	8.537707E-16	2.488048E-17
4.730000E+03	8.208982E-16	2.445644E-17
4.740000E+03	7.899052E-16	2.409120E-17
4.750000E+03	7.616064E-16	2.377033E-17
4.760000E+03	7.364212E-16	2.347139E-17
4.770000E+03	7.146061E-16	2.317908E-17
4.780000E+03	6.961296E-16	2.288869E-17
4.790000E+03	6.808537E-16	2.261085E-17
4.800000E+03	6.685833E-16	2.236678E-17
4.810000E+03	6.590947E-16	2.217870E-17
4.820000E+03	6.521670E-16	2.206105E-17
4.830000E+03	6.476248E-16	2.201753E-17
4.840000E+03	6.452782E-16	2.203644E-17
4.850000E+03	6.449025E-16	2.209108E-17
4.860000E+03	6.462633E-16	2.215007E-17
4.870000E+03	6.490839E-16	2.218595E-17
4.880000E+03	6.530977E-16	2.218194E-17
4.890000E+03	6.582033E-16	2.213948E-17
4.900000E+03	6.644808E-16	2.207773E-17
4.910000E+03	6.723346E-16	2.203532E-17
4.920000E+03	6.824578E-16	2.206714E-17
4.930000E+03	6.956341E-16	2.223384E-17
4.940000E+03	7.125704E-16	2.259108E-17
4.950000E+03	7.336306E-16	2.317692E-17
4.960000E+03	7.584656E-16	2.399389E-17
4.970000E+03	7.857069E-16	2.499726E-17
4.980000E+03	8.130384E-16	2.610692E-17
4.990000E+03	8.373046E-16	2.721829E-17
5.000000E+03	8.551271E-16	2.821719E-17
5.010000E+03	8.634869E-16	2.898658E-17
5.020000E+03	8.605494E-16	2.941793E-17
5.030000E+03	8.461665E-16	2.942387E-17
5.040000E+03	8.219222E-16	2.896208E-17
5.050000E+03	7.907563E-16	2.805514E-17
5.060000E+03	7.562824E-16	2.678937E-17
5.070000E+03	7.221839E-16	2.530101E-17
5.080000E+03	6.916244E-16	2.374627E-17
5.090000E+03	6.670826E-16	2.227639E-17
5.100000E+03	6.501111E-16	2.101061E-17
5.110000E+03	6.415057E-16	2.002830E-17
5.120000E+03	6.412995E-16	1.936467E-17
5.130000E+03	6.488991E-16	1.901978E-17
5.140000E+03	6.632144E-16	1.896543E-17
5.150000E+03	6.827460E-16	1.915116E-17
5.160000E+03	7.056935E-16	1.951614E-17
5.170000E+03	7.301657E-16	1.999699E-17
5.180000E+03	7.544530E-16	2.053236E-17
5.190000E+03	7.772592E-16	2.107283E-17
5.200000E+03	7.977556E-16	2.158071E-17
5.210000E+03	8.158005E-16	2.203106E-17
5.220000E+03	8.316688E-16	2.241316E-17
5.230000E+03	8.459600E-16	2.273777E-17
5.240000E+03	8.593031E-16	2.303105E-17
5.250000E+03	8.722711E-16	2.333316E-17
5.260000E+03	8.852470E-16	2.368483E-17
5.270000E+03	8.983937E-16	2.411080E-17
5.280000E+03	9.117562E-16	2.461563E-17
5.290000E+03	9.251911E-16	2.517205E-17
5.300000E+03	9.386126E-16	2.572067E-17
5.310000E+03	9.518067E-16	2.618343E-17
5.320000E+03	9.645478E-16	2.649355E-17
5.330000E+03	9.764723E-16	2.661062E-17
5.340000E+03	9.871328E-16	2.653702E-17
5.350000E+03	9.958359E-16	2.631710E-17
5.360000E+03	1.001742E-15	2.602803E-17
5.370000E+03	1.003887E-15	2.575059E-17
5.380000E+03	1.001160E-15	2.551491E-17
5.390000E+03	9.926395E-16	2.527502E-17
5.400000E+03	9.778775E-16	2.493690E-17
5.410000E+03	9.572678E-16	2.439648E-17
5.420000E+03	9.323063E-16	2.355761E-17
5.430000E+03	9.053765E-16	2.234249E-17
5.440000E+03	8.796038E-16	2.069606E-17
5.450000E+03	8.584011E-16	1.857096E-17
5.460000E+03	8.451698E-16	1.592869E-17
5.470000E+03	8.429187E-16	1.278693E-17
5.480000E+03	8.543021E-16	9.523711E-18
5.490000E+03	8.816243E-16	8.141884E-18
5.500000E+03	9.255195E-16	1.103799E-17
5.510000E+03	9.816385E-16	1.562151E-17
5.520000E+03	1.043647E-15	2.019229E-17
5.530000E+03	1.104110E-15	2.418686E-17
5.540000E+03	1.155646E-15	2.735031E-17
5.550000E+03	1.192320E-15	2.958202E-17
5.560000E+03	1.210919E-15	3.091218E-17
5.570000E+03	1.211560E-15	3.147098E-17
5.580000E+03	1.197260E-15	3.144684E-17
5.590000E+03	1.172752E-15	3.103372E-17
5.600000E+03	1.143038E-15	3.038655E-17
5.610000E+03	1.112428E-15	2.962002E-17
5.620000E+03	1.083692E-15	2.881096E-17
5.630000E+03	1.057891E-15	2.800562E-17
5.640000E+03	1.034349E-15	2.722615E-17
5.650000E+03	1.011065E-15	2.647574E-17
5.660000E+03	9.850761E-16	2.573905E-17
5.670000E+03	9.532807E-16	2.499960E-17
5.680000E+03	9.134086E-16	2.424110E-17
5.690000E+03	8.647750E-16	2.343867E-17
5.700000E+03	8.085570E-16	2.256875E-17
5.710000E+03	7.476737E-16	2.162034E-17
5.720000E+03	6.860433E-16	2.059513E-17
5.730000E+03	6.276263E-16	1.951723E-17
5.740000E+03	5.756780E-16	1.843672E-17
5.750000E+03	5.323643E-16	1.741516E-17
5.760000E+03	4.988717E-16	1.651264E-17
5.770000E+03	4.755808E-16	1.577573E-17
5.780000E+03	4.624250E-16	1.523706E-17
5.790000E+03	4.590887E-16	1.491807E-17
5.800000E+03	4.651952E-16	1.483587E-17
5.810000E+03	4.802873E-16	1.500566E-17
5.820000E+03	5.038013E-16	1.544395E-17
5.830000E+03	5.349922E-16	1.616410E-17
5.840000E+03	5.727511E-16	1.716387E-17
5.850000E+03	6.156155E-16	1.841928E-17
5.860000E+03	6.617852E-16	1.987406E-17
5.870000E+03	7.092118E-16	2.143177E-17
5.880000E+03	7.558615E-16	2.297070E-17
5.890000E+03	7.998216E-16	2.436643E-17
5.900000E+03	8.395138E-16	2.551732E-17
5.910000E+03	8.738531E-16	2.636572E-17
5.920000E+03	9.021698E-16	2.690180E-17
5.930000E+03	9.242081E-16	2.715877E-17
5.940000E+03	9.399869E-16	2.719903E-17
5.950000E+03	9.496743E-16	2.709296E-17
5.960000E+03	9.534133E-16	2.689794E-17
5.970000E+03	9.514298E-16	2.665783E-17
5.980000E+03	9.439491E-16	2.639544E-17
5.990000E+03	9.313397E-16	2.611096E-17
6.000000E+03	9.141783E-16	2.579001E-17
6.010000E+03	8.932105E-16	2.540705E-17
6.020000E+03	8.694408E-16	2.493351E-17
6.030000E+03	8.439056E-16	2.435223E-17
6.040000E+03	8.176382E-16	2.367491E-17
6.050000E+03	7.915031E-16	2.293913E-17
6.060000E+03	7.662870E-16	2.220145E-17
6.070000E+03	7.426063E-16	2.151616E-17
6.080000E+03	7.209992E-16	2.092235E-17
6.090000E+03	7.019519E-16	2.044210E-17
6.100000E+03	6.858659E-16	2.007911E-17
6.110000E+03	6.731710E-16	1.982308E-17
6.120000E+03	6.642349E-16	1.965670E-17
6.130000E+03	6.594378E-16	1.956591E-17
6.140000E+03	6.591406E-16	1.954132E-17
6.150000E+03	6.637643E-16	1.958335E-17
6.160000E+03	6.738177E-16	1.970242E-17
6.170000E+03	6.899081E-16	1.991577E-17
6.180000E+03	7.127117E-16	2.024473E-17
6.190000E+03	7.428405E-16	2.070580E-17
6.200000E+03	7.807728E-16	2.130596E-17
6.210000E+03	8.266294E-16	2.204866E-17
6.220000E+03	8.801195E-16	2.295280E-17
6.230000E+03	9.403372E-16	2.407139E-17
6.240000E+03	1.005767E-15	2.551116E-17
6.250000E+03	1.073939E-15	2.729835E-17
6.260000E+03	1.140980E-15	2.924474E-17
6.270000E+03	1.202914E-15	3.114838E-17
6.280000E+03	1.256149E-15	3.285184E-17
6.290000E+03	1.297958E-15	3.425200E-17
6.300000E+03	1.326663E-15	3.529682E-17
6.310000E+03	1.341517E-15	3.596373E-17
6.320000E+03	1.342694E-15	3.624046E-17
6.330000E+03	1.331088E-15	3.612708E-17
6.340000E+03	1.308362E-15	3.564961E-17
6.350000E+03	1.276737E-15	3.485835E-17
6.360000E+03	1.238896E-15	3.383138E-17
6.370000E+03	1.197730E-15	3.266329E-17
6.380000E+03	1.155998E-15	3.144595E-17
6.390000E+03	1.116019E-15	3.026081E-17
6.400000E+03	1.079507E-15	2.917092E-17
6.410000E+03	1.047405E-15	2.821181E-17
6.420000E+03	1.020074E-15	2.740372E-17
6.430000E+03	9.972827E-16	2.675084E-17
6.440000E+03	9.785930E-16	2.624403E-17
6.450000E+03	9.632721E-16	2.585649E-17
6.460000E+03	9.505769E-16	2.554456E-17
6.470000E+03	9.397675E-16	2.524487E-17
6.480000E+03	9.302072E-16	2.489629E-17
6.490000E+03	9.214453E-16	2.446671E-17
6.500000E+03	9.132662E-16	2.397319E-17
6.510000E+03	9.058026E-16	2.350099E-17
6.520000E+03	8.994035E-16	2.319447E-17
6.530000E+03	8.946716E-16	2.322169E-17
6.540000E+03	8.916416E-16	2.363399E-17
6.550000E+03	8.894092E-16	2.431417E-17
6.560000E+03	8.870289E-16	2.513443E-17
6.570000E+03	8.836637E-16	2.599530E-17
6.580000E+03	8.784876E-16	2.681669E-17
6.590000E+03	8.708077E-16	2.751872E-17
6.600000E+03	8.601277E-16	2.801562E-17
6.610000E+03	8.461566E-16	2.822449E-17
6.620000E+03	8.289063E-16	2.808374E-17
6.630000E+03	8.086896E-16	2.757338E-17
6.640000E+03	7.860239E-16	2.672842E-17
6.650000E+03	7.616055E-16	2.563881E-17
6.660000E+03	7.362067E-16	2.442619E-17
6.670000E+03	7.105300E-16	2.320678E-17
6.680000E+03	6.852112E-16	2.206925E-17
6.690000E+03	6.607509E-16	2.107104E-17
6.700000E+03	6.375222E-16	2.024376E-17
6.710000E+03	6.158208E-16	1.959789E-17
6.720000E+03	5.958135E-16	1.912376E-17
6.730000E+03	5.775945E-16	1.879241E-17
6.740000E+03	5.611525E-16	1.855611E-17
6.750000E+03	5.463866E-16	1.836065E-17
6.760000E+03	5.331723E-16	1.816043E-17
6.770000E+03	5.212977E-16	1.792284E-17
6.780000E+03	5.105682E-16	1.763417E-17
6.790000E+03	5.007787E-16	1.729705E-17
6.800000E+03	4.917266E-16	1.692641E-17
6.810000E+03	4.832576E-16	1.654570E-17
6.820000E+03	4.751885E-16	1.617648E-17
6.830000E+03	4.673882E-16	1.583407E-17
6.840000E+03	4.597498E-16	1.552507E-17
6.850000E+03	4.522317E-16	1.524909E-17
6.860000E+03	4.448346E-16	1.499924E-17
6.870000E+03	4.376702E-16	1.476879E-17
6.880000E+03	4.309183E-16	1.455380E-17
6.890000E+03	4.248252E-16	1.435529E-17
6.900000E+03	4.196804E-16	1.418069E-17
6.910000E+03	4.157786E-16	1.404264E-17
6.920000E+03	4.134299E-16	1.395790E-17
6.930000E+03	4.128825E-16	1.394401E-17
6.940000E+03	4.143406E-16	1.401724E-17
6.950000E+03	4.179335E-16	1.418748E-17
6.960000E+03	4.236818E-16	1.445492E-17
6.970000E+03	4.315104E-16	1.480858E-17
6.980000E+03	4.411791E-16	1.522334E-17
6.990000E+03	4.523154E-16	1.566539E-17
7.000000E+03	4.644601E-16	1.610021E-17
7.010000E+03	4.770860E-16	1.649848E-17
7.020000E+03	4.896129E-16	1.683992E-17
7.030000E+03	5.015214E-16	1.711636E-17
7.040000E+03	5.123535E-16	1.732828E-17
7.050000E+03	5.217342E-16	1.748359E-17
7.060000E+03	5.294259E-16	1.759647E-17
7.070000E+03	5.352481E-16	1.767993E-17
7.080000E+03	5.391619E-16	1.774583E-17
7.090000E+03	5.412263E-16	1.780012E-17
7.100000E+03	5.416013E-16	1.784129E-17
7.110000E+03	5.405848E-16	1.786587E-17
7.120000E+03	5.385691E-16	1.787225E-17
7.130000E+03	5.360230E-16	1.786335E-17
7.140000E+03	5.334972E-16	1.785027E-17
7.150000E+03	5.315381E-16	1.784960E-17
7.160000E+03	5.307046E-16	1.788136E-17
7.170000E+03	5.315056E-16	1.796509E-17
7.180000E+03	5.343719E-16	1.811593E-17
7.190000E+03	5.397230E-16	1.834412E-17
7.200000E+03	5.478972E-16	1.865426E-17
7.210000E+03	5.591658E-16	1.904813E-17
7.220000E+03	5.737534E-16	1.952689E-17
7.230000E+03	5.918099E-16	2.009294E-17
7.240000E+03	6.133923E-16	2.075000E-17
7.250000E+03	6.383555E-16	2.149783E-17
7.260000E+03	6.663776E-16	2.233320E-17
7.270000E+03	6.967819E-16	2.324288E-17
7.280000E+03	7.285430E-16	2.420215E-17
7.290000E+03	7.602890E-16	2.517683E-17
7.300000E+03	7.904008E-16	2.612665E-17
7.310000E+03	8.171738E-16	2.700666E-17
7.320000E+03	8.391325E-16	2.777323E-17
7.330000E+03	8.551685E-16	2.838151E-17
7.340000E+03	8.647672E-16	2.878843E-17
7.350000E+03	8.680786E-16	2.896356E-17
7.360000E+03	8.657535E-16	2.889770E-17
7.370000E+03	8.587606E-16	2.861002E-17
7.380000E+03	8.482607E-16	2.815721E-17
7.390000E+03	8.352863E-16	2.762823E-17
7.400000E+03	8.207498E-16	2.713664E-17
7.410000E+03	8.053807E-16	2.679710E-17
7.420000E+03	7.896964E-16	2.668883E-17
7.430000E+03	7.740319E-16	2.682556E-17
7.440000E+03	7.586262E-16	2.715630E-17
7.450000E+03	7.435731E-16	2.758650E-17
7.460000E+03	7.288921E-16	2.801110E-17
7.470000E+03	7.145394E-16	2.833975E-17
7.480000E+03	7.003839E-16	2.850443E-17
7.490000E+03	6.862013E-16	2.845677E-17
7.500000E+03	6.717816E-16	2.816872E-17
7.510000E+03	6.568436E-16	2.762312E-17
7.520000E+03	6.410655E-16	2.680932E-17
7.530000E+03	6.242250E-16	2.572850E-17
7.540000E+03	6.061490E-16	2.439138E-17
7.550000E+03	5.868342E-16	2.282370E-17
7.560000E+03	5.664110E-16	2.107005E-17
7.570000E+03	5.451744E-16	1.920121E-17
7.580000E+03	5.235913E-16	1.732110E-17
7.590000E+03	5.021655E-16	1.557225E-17
7.600000E+03	4.813664E-16	1.413488E-17
7.610000E+03	4.616410E-16	1.319626E-17
7.620000E+03	4.435445E-16	1.285315E-17
7.630000E+03	4.283505E-16	1.299038E-17
7.640000E+03	4.172891E-16	1.344422E-17
7.650000E+03	4.112562E-16	1.410773E-17
7.660000E+03	4.108285E-16	1.493506E-17
7.670000E+03	4.162918E-16	1.591762E-17
7.680000E+03	4.276933E-16	1.706304E-17
7.690000E+03	4.448719E-16	1.837961E-17
7.700000E+03	4.674446E-16	1.986604E-17
7.710000E+03	4.947775E-16	2.150904E-17
7.720000E+03	5.259689E-16	2.328389E-17
7.730000E+03	5.598489E-16	2.515504E-17
7.740000E+03	5.950197E-16	2.707805E-17
7.750000E+03	6.299716E-16	2.900070E-17
7.760000E+03	6.631535E-16	3.085984E-17
