#wls	flux	fluxerr
1.600000E+03	1.589352E-17	1.811479E-17
1.640000E+03	1.600318E-17	1.822690E-17
1.680000E+03	1.612317E-17	1.834884E-17
1.720000E+03	1.625114E-17	1.847768E-17
1.760000E+03	1.638765E-17	1.861374E-17
1.800000E+03	1.653327E-17	1.875730E-17
1.840000E+03	1.668863E-17	1.890867E-17
1.880000E+03	1.685739E-17	1.907151E-17
1.920000E+03	1.703427E-17	1.923934E-17
1.960000E+03	1.722607E-17	1.941921E-17
2.000000E+03	1.743058E-17	1.960796E-17
2.040000E+03	1.764870E-17	1.980578E-17
2.080000E+03	1.788134E-17	2.001283E-17
2.120000E+03	1.812951E-17	2.022921E-17
2.160000E+03	1.839754E-17	2.045860E-17
2.200000E+03	1.868017E-17	2.069379E-17
2.240000E+03	1.898523E-17	2.094198E-17
2.280000E+03	1.931087E-17	2.119940E-17
2.320000E+03	1.965866E-17	2.146580E-17
2.360000E+03	2.003031E-17	2.174083E-17
2.400000E+03	2.043132E-17	2.202790E-17
2.440000E+03	2.085673E-17	2.231872E-17
2.480000E+03	2.131620E-17	2.262034E-17
2.520000E+03	2.180892E-17	2.292802E-17
2.560000E+03	2.233802E-17	2.324069E-17
2.600000E+03	2.290714E-17	2.355710E-17
2.640000E+03	2.352457E-17	2.387993E-17
2.680000E+03	2.418709E-17	2.419917E-17
2.720000E+03	2.490874E-17	2.452116E-17
2.760000E+03	2.569214E-17	2.483932E-17
2.800000E+03	2.654522E-17	2.515078E-17
2.840000E+03	2.747737E-17	2.545209E-17
2.880000E+03	2.849967E-17	2.573904E-17
2.920000E+03	2.963043E-17	2.601089E-17
2.960000E+03	3.087527E-17	2.625220E-17
3.000000E+03	3.226327E-17	2.646365E-17
3.010000E+03	3.263294E-17	2.650882E-17
3.020000E+03	3.301296E-17	2.655100E-17
3.030000E+03	3.340946E-17	2.659455E-17
3.040000E+03	3.381144E-17	2.663010E-17
3.050000E+03	3.422502E-17	2.666200E-17
3.060000E+03	3.465064E-17	2.668999E-17
3.070000E+03	3.509481E-17	2.671838E-17
3.080000E+03	3.554603E-17	2.673772E-17
3.090000E+03	3.601079E-17	2.675228E-17
3.100000E+03	3.648960E-17	2.676174E-17
3.110000E+03	3.698935E-17	2.677031E-17
3.120000E+03	3.749805E-17	2.676846E-17
3.130000E+03	3.802255E-17	2.676036E-17
3.140000E+03	3.857007E-17	2.675017E-17
3.150000E+03	3.912816E-17	2.672824E-17
3.160000E+03	3.970401E-17	2.669869E-17
3.170000E+03	4.029831E-17	2.666096E-17
3.180000E+03	4.091879E-17	2.661904E-17
3.190000E+03	4.155234E-17	2.656322E-17
3.200000E+03	4.220662E-17	2.649741E-17
3.210000E+03	4.288977E-17	2.642541E-17
3.220000E+03	4.358811E-17	2.633746E-17
3.230000E+03	4.431728E-17	2.624175E-17
3.240000E+03	4.506320E-17	2.612847E-17
3.250000E+03	4.583422E-17	2.600122E-17
3.260000E+03	4.663925E-17	2.586341E-17
3.270000E+03	4.746354E-17	2.570520E-17
3.280000E+03	4.831591E-17	2.552990E-17
3.290000E+03	4.920579E-17	2.534066E-17
3.300000E+03	5.011765E-17	2.512758E-17
3.310000E+03	5.106951E-17	2.489789E-17
3.320000E+03	5.204530E-17	2.464170E-17
3.330000E+03	5.305469E-17	2.436176E-17
3.340000E+03	5.410802E-17	2.406058E-17
3.350000E+03	5.518832E-17	2.372825E-17
3.360000E+03	5.631534E-17	2.337110E-17
3.370000E+03	5.747139E-17	2.297924E-17
3.380000E+03	5.867702E-17	2.255855E-17
3.390000E+03	5.991377E-17	2.209922E-17
3.400000E+03	6.120298E-17	2.160664E-17
3.410000E+03	6.252538E-17	2.107112E-17
3.420000E+03	6.390313E-17	2.049752E-17
3.430000E+03	6.531605E-17	1.987637E-17
3.440000E+03	6.677588E-17	1.920875E-17
3.450000E+03	6.829530E-17	1.849529E-17
3.460000E+03	6.985256E-17	1.772712E-17
3.470000E+03	7.147204E-17	1.690800E-17
3.480000E+03	7.313087E-17	1.602990E-17
3.490000E+03	7.485434E-17	1.509661E-17
3.500000E+03	7.661830E-17	1.410177E-17
3.510000E+03	7.844900E-17	1.305033E-17
3.520000E+03	8.032092E-17	1.193967E-17
3.530000E+03	8.226128E-17	1.077923E-17
3.540000E+03	8.424304E-17	9.576316E-18
3.550000E+03	8.629446E-17	8.356370E-18
3.560000E+03	8.838690E-17	7.159403E-18
3.570000E+03	9.054968E-17	6.072006E-18
3.580000E+03	9.275249E-17	5.248184E-18
3.590000E+03	9.502581E-17	4.922971E-18
3.600000E+03	9.733766E-17	5.271240E-18
3.610000E+03	9.971988E-17	6.235560E-18
3.620000E+03	1.021560E-16	7.615315E-18
3.630000E+03	1.046279E-16	9.242946E-18
3.640000E+03	1.071697E-16	1.102245E-17
3.650000E+03	1.097453E-16	1.289512E-17
3.660000E+03	1.123902E-16	1.483288E-17
3.670000E+03	1.150668E-16	1.681127E-17
3.680000E+03	1.178125E-16	1.882249E-17
3.690000E+03	1.205879E-16	2.085140E-17
3.700000E+03	1.234323E-16	2.289780E-17
3.710000E+03	1.263047E-16	2.494914E-17
3.720000E+03	1.292465E-16	2.700919E-17
3.730000E+03	1.322151E-16	2.906581E-17
3.740000E+03	1.352539E-16	3.112547E-17
3.750000E+03	1.383415E-16	3.318113E-17
3.760000E+03	1.414544E-16	3.522473E-17
3.770000E+03	1.446392E-16	3.726570E-17
3.780000E+03	1.478480E-16	3.929010E-17
3.790000E+03	1.511295E-16	4.130892E-17
3.800000E+03	1.544331E-16	4.330696E-17
3.810000E+03	1.578087E-16	4.529645E-17
3.820000E+03	1.612028E-16	4.726063E-17
3.830000E+03	1.646664E-16	4.921269E-17
3.840000E+03	1.681422E-16	5.113406E-17
3.850000E+03	1.716819E-16	5.303855E-17
3.860000E+03	1.752241E-16	5.490559E-17
3.870000E+03	1.788207E-16	5.674937E-17
3.880000E+03	1.824060E-16	5.854712E-17
3.890000E+03	1.860319E-16	6.031324E-17
3.900000E+03	1.896594E-16	6.203303E-17
3.910000E+03	1.932464E-16	6.369019E-17
3.920000E+03	1.968451E-16	6.529931E-17
3.930000E+03	2.003789E-16	6.683241E-17
3.940000E+03	2.039009E-16	6.830440E-17
3.950000E+03	2.073311E-16	6.968573E-17
3.960000E+03	2.107242E-16	7.099190E-17
3.970000E+03	2.139981E-16	7.219235E-17
3.980000E+03	2.172101E-16	7.330356E-17
3.990000E+03	2.202773E-16	7.429459E-17
4.000000E+03	2.232611E-16	7.518329E-17
4.010000E+03	2.260786E-16	7.593902E-17
4.020000E+03	2.287964E-16	7.658137E-17
4.030000E+03	2.313335E-16	7.708056E-17
4.040000E+03	2.337619E-16	7.745809E-17
4.050000E+03	2.360033E-16	7.768546E-17
4.060000E+03	2.381357E-16	7.778604E-17
4.070000E+03	2.400839E-16	7.773283E-17
4.080000E+03	2.418917E-16	7.753800E-17
4.090000E+03	2.436065E-16	7.721427E-17
4.100000E+03	2.451570E-16	7.673675E-17
4.110000E+03	2.466342E-16	7.613166E-17
4.120000E+03	2.479688E-16	7.537514E-17
4.130000E+03	2.492547E-16	7.449339E-17
4.140000E+03	2.504236E-16	7.346315E-17
4.150000E+03	2.515710E-16	7.230985E-17
4.160000E+03	2.526280E-16	7.101043E-17
4.170000E+03	2.536487E-16	6.957742E-17
4.180000E+03	2.546874E-16	6.802194E-17
4.190000E+03	2.556722E-16	6.632081E-17
4.200000E+03	2.566969E-16	6.449480E-17
4.210000E+03	2.576867E-16	6.252067E-17
4.220000E+03	2.586910E-16	6.040693E-17
4.230000E+03	2.597583E-16	5.816026E-17
4.240000E+03	2.608081E-16	5.575807E-17
4.250000E+03	2.618858E-16	5.320692E-17
4.260000E+03	2.630358E-16	5.051180E-17
4.270000E+03	2.641727E-16	4.765290E-17
4.280000E+03	2.653382E-16	4.463694E-17
4.290000E+03	2.665741E-16	4.147018E-17
4.300000E+03	2.677910E-16	3.814044E-17
4.310000E+03	2.690296E-16	3.466082E-17
4.320000E+03	2.703308E-16	3.104857E-17
4.330000E+03	2.716039E-16	2.731616E-17
4.340000E+03	2.728903E-16	2.351262E-17
4.350000E+03	2.742327E-16	1.972429E-17
4.360000E+03	2.755408E-16	1.611151E-17
4.370000E+03	2.768583E-16	1.302754E-17
4.380000E+03	2.781850E-16	1.114313E-17
4.390000E+03	2.795658E-16	1.124876E-17
4.400000E+03	2.809086E-16	1.334679E-17
4.410000E+03	2.822565E-16	1.667816E-17
4.420000E+03	2.836066E-16	2.060020E-17
4.430000E+03	2.850022E-16	2.477954E-17
4.440000E+03	2.863476E-16	2.904359E-17
4.450000E+03	2.876856E-16	3.331030E-17
4.460000E+03	2.890123E-16	3.753201E-17
4.470000E+03	2.903231E-16	4.168017E-17
4.480000E+03	2.916127E-16	4.573656E-17
4.490000E+03	2.929221E-16	4.969685E-17
4.500000E+03	2.941490E-16	5.353668E-17
4.510000E+03	2.953316E-16	5.725664E-17
4.520000E+03	2.964598E-16	6.085114E-17
4.530000E+03	2.975222E-16	6.431530E-17
4.540000E+03	2.985062E-16	6.764462E-17
4.550000E+03	2.993988E-16	7.083481E-17
4.560000E+03	3.001862E-16	7.388174E-17
4.570000E+03	3.008550E-16	7.678139E-17
4.580000E+03	3.013918E-16	7.952993E-17
4.590000E+03	3.017844E-16	8.212388E-17
4.600000E+03	3.020708E-16	8.457385E-17
4.610000E+03	3.021444E-16	8.685047E-17
4.620000E+03	3.020474E-16	8.896539E-17
4.630000E+03	3.017757E-16	9.091793E-17
4.640000E+03	3.013282E-16	9.270851E-17
4.650000E+03	3.007069E-16	9.433873E-17
4.660000E+03	2.998686E-16	9.579605E-17
4.670000E+03	2.989183E-16	9.711532E-17
4.680000E+03	2.978189E-16	9.828681E-17
4.690000E+03	2.965841E-16	9.931720E-17
4.700000E+03	2.952302E-16	1.002143E-16
4.710000E+03	2.937753E-16	1.009868E-16
4.720000E+03	2.922392E-16	1.016444E-16
4.730000E+03	2.906424E-16	1.021971E-16
4.740000E+03	2.890060E-16	1.026555E-16
4.750000E+03	2.873512E-16	1.030303E-16
4.760000E+03	2.856527E-16	1.033155E-16
4.770000E+03	2.840222E-16	1.035545E-16
4.780000E+03	2.824319E-16	1.037409E-16
4.790000E+03	2.808984E-16	1.038837E-16
4.800000E+03	2.794365E-16	1.039916E-16
4.810000E+03	2.780142E-16	1.040554E-16
4.820000E+03	2.767312E-16	1.041151E-16
4.830000E+03	2.755505E-16	1.041595E-16
4.840000E+03	2.744776E-16	1.041931E-16
4.850000E+03	2.734717E-16	1.042025E-16
4.860000E+03	2.726212E-16	1.042232E-16
4.870000E+03	2.718806E-16	1.042397E-16
4.880000E+03	2.712462E-16	1.042521E-16
4.890000E+03	2.706695E-16	1.042430E-16
4.900000E+03	2.702299E-16	1.042441E-16
4.910000E+03	2.698759E-16	1.042363E-16
4.920000E+03	2.695548E-16	1.042000E-16
4.930000E+03	2.693431E-16	1.041653E-16
4.940000E+03	2.691441E-16	1.040951E-16
4.950000E+03	2.690337E-16	1.040189E-16
4.960000E+03	2.689589E-16	1.039162E-16
4.970000E+03	2.688676E-16	1.037668E-16
4.980000E+03	2.688375E-16	1.036005E-16
4.990000E+03	2.687759E-16	1.033811E-16
5.000000E+03	2.687632E-16	1.031390E-16
5.010000E+03	2.687097E-16	1.028394E-16
5.020000E+03	2.686990E-16	1.025134E-16
5.030000E+03	2.686450E-16	1.021273E-16
5.040000E+03	2.686342E-16	1.017132E-16
5.050000E+03	2.685835E-16	1.012383E-16
5.060000E+03	2.685820E-16	1.007352E-16
5.070000E+03	2.685484E-16	1.001719E-16
5.080000E+03	2.685303E-16	9.956478E-17
5.090000E+03	2.685754E-16	9.892975E-17
5.100000E+03	2.686029E-16	9.823505E-17
5.110000E+03	2.687023E-16	9.751148E-17
5.120000E+03	2.687912E-16	9.672679E-17
5.130000E+03	2.689143E-16	9.589489E-17
5.140000E+03	2.691150E-16	9.502849E-17
5.150000E+03	2.693067E-16	9.409408E-17
5.160000E+03	2.695295E-16	9.310307E-17
5.170000E+03	2.697793E-16	9.205096E-17
5.180000E+03	2.700932E-16	9.094704E-17
5.190000E+03	2.703785E-16	8.975658E-17
5.200000E+03	2.706697E-16	8.848816E-17
5.210000E+03	2.709580E-16	8.713545E-17
5.220000E+03	2.712766E-16	8.570562E-17
5.230000E+03	2.715297E-16	8.416479E-17
5.240000E+03	2.717506E-16	8.252058E-17
5.250000E+03	2.719300E-16	8.076706E-17
5.260000E+03	2.720594E-16	7.889876E-17
5.270000E+03	2.721314E-16	7.691075E-17
5.280000E+03	2.721831E-16	7.481061E-17
5.290000E+03	2.721237E-16	7.257065E-17
5.300000E+03	2.719936E-16	7.020019E-17
5.310000E+03	2.717918E-16	6.769708E-17
5.320000E+03	2.715194E-16	6.505985E-17
5.330000E+03	2.711790E-16	6.228767E-17
5.340000E+03	2.707752E-16	5.938032E-17
5.350000E+03	2.703140E-16	5.633801E-17
5.360000E+03	2.698026E-16	5.316139E-17
5.370000E+03	2.692496E-16	4.985142E-17
5.380000E+03	2.686636E-16	4.640930E-17
5.390000E+03	2.680540E-16	4.283649E-17
5.400000E+03	2.674296E-16	3.913480E-17
5.410000E+03	2.667986E-16	3.530662E-17
5.420000E+03	2.661679E-16	3.135549E-17
5.430000E+03	2.655429E-16	2.728729E-17
5.440000E+03	2.649270E-16	2.311279E-17
5.450000E+03	2.643210E-16	1.885366E-17
5.460000E+03	2.636814E-16	1.455644E-17
5.470000E+03	2.630875E-16	1.035633E-17
5.480000E+03	2.624903E-16	6.692987E-18
5.490000E+03	2.618810E-16	5.195666E-18
5.500000E+03	2.612495E-16	7.366738E-18
5.510000E+03	2.605855E-16	1.115166E-17
5.520000E+03	2.598371E-16	1.527074E-17
5.530000E+03	2.590749E-16	1.939650E-17
5.540000E+03	2.582453E-16	2.342222E-17
5.550000E+03	2.573358E-16	2.730488E-17
5.560000E+03	2.562937E-16	3.101829E-17
5.570000E+03	2.551894E-16	3.455954E-17
5.580000E+03	2.539730E-16	3.791680E-17
5.590000E+03	2.526381E-16	4.108528E-17
5.600000E+03	2.511414E-16	4.405529E-17
5.610000E+03	2.495625E-16	4.683937E-17
5.620000E+03	2.478655E-16	4.943184E-17
5.630000E+03	2.460194E-16	5.182713E-17
5.640000E+03	2.441141E-16	5.404572E-17
5.650000E+03	2.420877E-16	5.607723E-17
5.660000E+03	2.400362E-16	5.794717E-17
5.670000E+03	2.379430E-16	5.965680E-17
5.680000E+03	2.357954E-16	6.120781E-17
5.690000E+03	2.336942E-16	6.263192E-17
5.700000E+03	2.315925E-16	6.392333E-17
5.710000E+03	2.295911E-16	6.511645E-17
5.720000E+03	2.276441E-16	6.620580E-17
5.730000E+03	2.258494E-16	6.722703E-17
5.740000E+03	2.241594E-16	6.817379E-17
5.750000E+03	2.226666E-16	6.908155E-17
5.760000E+03	2.213193E-16	6.994194E-17
5.770000E+03	2.202031E-16	7.078900E-17
5.780000E+03	2.192602E-16	7.161136E-17
5.790000E+03	2.185682E-16	7.244074E-17
5.800000E+03	2.180625E-16	7.326207E-17
5.810000E+03	2.177782E-16	7.409253E-17
5.820000E+03	2.177463E-16	7.494805E-17
5.830000E+03	2.178915E-16	7.580750E-17
5.840000E+03	2.182722E-16	7.669526E-17
5.850000E+03	2.188067E-16	7.758635E-17
5.860000E+03	2.195134E-16	7.849025E-17
5.870000E+03	2.204094E-16	7.941576E-17
5.880000E+03	2.214059E-16	8.033324E-17
5.890000E+03	2.225174E-16	8.124949E-17
5.900000E+03	2.237586E-16	8.217140E-17
5.910000E+03	2.250394E-16	8.306694E-17
5.920000E+03	2.263760E-16	8.394277E-17
5.930000E+03	2.277516E-16	8.479313E-17
5.940000E+03	2.291878E-16	8.562644E-17
5.950000E+03	2.306015E-16	8.641175E-17
5.960000E+03	2.320207E-16	8.715944E-17
5.970000E+03	2.334415E-16	8.786785E-17
5.980000E+03	2.349008E-16	8.855070E-17
5.990000E+03	2.363292E-16	8.918136E-17
6.000000E+03	2.377715E-16	8.977627E-17
6.010000E+03	2.392398E-16	9.033932E-17
6.020000E+03	2.407493E-16	9.087556E-17
6.030000E+03	2.423184E-16	9.139096E-17
6.040000E+03	2.440060E-16	9.190667E-17
6.050000E+03	2.457580E-16	9.240091E-17
6.060000E+03	2.476359E-16	9.289523E-17
6.070000E+03	2.496633E-16	9.339658E-17
6.080000E+03	2.518635E-16	9.391135E-17
6.090000E+03	2.542584E-16	9.444501E-17
6.100000E+03	2.568680E-16	9.500181E-17
6.110000E+03	2.597093E-16	9.558445E-17
6.120000E+03	2.627961E-16	9.619375E-17
6.130000E+03	2.661374E-16	9.682836E-17
6.140000E+03	2.697374E-16	9.748452E-17
6.150000E+03	2.735943E-16	9.815575E-17
6.160000E+03	2.776999E-16	9.883271E-17
6.170000E+03	2.820385E-16	9.950302E-17
6.180000E+03	2.865868E-16	1.001512E-16
6.190000E+03	2.913134E-16	1.007585E-16
6.200000E+03	2.961781E-16	1.013034E-16
6.210000E+03	3.011325E-16	1.017613E-16
6.220000E+03	3.061199E-16	1.021053E-16
6.230000E+03	3.110757E-16	1.023064E-16
6.240000E+03	3.159288E-16	1.023345E-16
6.250000E+03	3.206024E-16	1.021586E-16
6.260000E+03	3.250161E-16	1.017483E-16
6.270000E+03	3.290877E-16	1.010744E-16
6.280000E+03	3.327356E-16	1.001102E-16
6.290000E+03	3.358285E-16	9.881670E-17
6.300000E+03	3.383989E-16	9.720655E-17
6.310000E+03	3.403300E-16	9.525038E-17
6.320000E+03	3.415680E-16	9.294068E-17
6.330000E+03	3.420720E-16	9.027640E-17
6.340000E+03	3.418150E-16	8.726316E-17
6.350000E+03	3.407318E-16	8.389996E-17
6.360000E+03	3.389338E-16	8.023221E-17
6.370000E+03	3.363863E-16	7.627010E-17
6.380000E+03	3.331225E-16	7.204228E-17
6.390000E+03	3.291883E-16	6.758098E-17
6.400000E+03	3.245891E-16	6.291106E-17
6.410000E+03	3.194931E-16	5.808919E-17
6.420000E+03	3.139192E-16	5.314108E-17
6.430000E+03	3.079413E-16	4.810231E-17
6.440000E+03	3.015870E-16	4.300016E-17
6.450000E+03	2.950257E-16	3.788097E-17
6.460000E+03	2.882791E-16	3.276695E-17
6.470000E+03	2.813679E-16	2.768181E-17
6.480000E+03	2.744409E-16	2.266308E-17
6.490000E+03	2.675043E-16	1.773805E-17
6.500000E+03	2.605615E-16	1.295481E-17
6.510000E+03	2.537327E-16	8.436192E-18
6.520000E+03	2.470054E-16	4.654593E-18
6.530000E+03	2.403658E-16	3.897759E-18
6.540000E+03	2.339096E-16	6.761407E-18
6.550000E+03	2.276130E-16	1.028035E-17
6.560000E+03	2.214519E-16	1.369124E-17
6.570000E+03	2.155037E-16	1.686308E-17
6.580000E+03	2.097355E-16	1.976718E-17
6.590000E+03	2.041150E-16	2.240116E-17
6.600000E+03	1.987053E-16	2.478228E-17
6.610000E+03	1.934392E-16	2.691709E-17
6.620000E+03	1.883741E-16	2.882880E-17
6.630000E+03	1.834451E-16	3.052384E-17
6.640000E+03	1.787061E-16	3.202651E-17
6.650000E+03	1.740961E-16	3.334151E-17
6.660000E+03	1.696674E-16	3.449323E-17
6.670000E+03	1.653890E-16	3.549022E-17
6.680000E+03	1.612341E-16	3.633992E-17
6.690000E+03	1.572532E-16	3.706643E-17
6.700000E+03	1.533959E-16	3.767056E-17
6.710000E+03	1.497119E-16	3.817604E-17
6.720000E+03	1.461543E-16	3.858246E-17
6.730000E+03	1.427489E-16	3.890690E-17
6.740000E+03	1.395193E-16	3.916623E-17
6.750000E+03	1.364228E-16	3.935831E-17
6.760000E+03	1.335050E-16	3.950525E-17
6.770000E+03	1.307250E-16	3.960378E-17
6.780000E+03	1.281263E-16	3.967507E-17
6.790000E+03	1.256694E-16	3.971473E-17
6.800000E+03	1.233958E-16	3.974290E-17
6.810000E+03	1.212671E-16	3.975410E-17
6.820000E+03	1.193036E-16	3.976113E-17
6.830000E+03	1.175244E-16	3.977631E-17
6.840000E+03	1.158921E-16	3.979255E-17
6.850000E+03	1.144252E-16	3.982117E-17
6.860000E+03	1.131412E-16	3.987299E-17
6.870000E+03	1.120031E-16	3.993950E-17
6.880000E+03	1.110457E-16	4.003696E-17
6.890000E+03	1.102322E-16	4.015595E-17
6.900000E+03	1.095787E-16	4.030561E-17
6.910000E+03	1.091006E-16	4.049475E-17
6.920000E+03	1.087611E-16	4.071267E-17
6.930000E+03	1.085753E-16	4.096745E-17
6.940000E+03	1.085574E-16	4.126696E-17
6.950000E+03	1.086704E-16	4.159924E-17
6.960000E+03	1.089280E-16	4.197149E-17
6.970000E+03	1.093268E-16	4.238412E-17
6.980000E+03	1.098804E-16	4.284401E-17
6.990000E+03	1.105501E-16	4.333755E-17
7.000000E+03	1.113488E-16	4.387101E-17
7.010000E+03	1.122719E-16	4.444371E-17
7.020000E+03	1.133326E-16	4.506188E-17
7.030000E+03	1.144902E-16	4.571024E-17
7.040000E+03	1.157570E-16	4.639446E-17
7.050000E+03	1.171276E-16	4.711303E-17
7.060000E+03	1.186151E-16	4.787181E-17
7.070000E+03	1.201763E-16	4.865385E-17
7.080000E+03	1.218236E-16	4.946456E-17
7.090000E+03	1.235505E-16	5.030168E-17
7.100000E+03	1.253506E-16	5.116277E-17
7.110000E+03	1.272167E-16	5.204519E-17
7.120000E+03	1.291621E-16	5.295445E-17
7.130000E+03	1.311381E-16	5.387077E-17
7.140000E+03	1.331563E-16	5.479895E-17
7.150000E+03	1.352077E-16	5.573518E-17
7.160000E+03	1.372819E-16	5.667524E-17
7.170000E+03	1.393679E-16	5.761444E-17
7.180000E+03	1.414534E-16	5.854758E-17
7.190000E+03	1.435475E-16	5.947835E-17
7.200000E+03	1.455901E-16	6.038167E-17
7.210000E+03	1.475873E-16	6.125987E-17
7.220000E+03	1.495215E-16	6.210540E-17
7.230000E+03	1.513736E-16	6.291017E-17
7.240000E+03	1.531235E-16	6.366561E-17
7.250000E+03	1.547502E-16	6.436276E-17
7.260000E+03	1.562321E-16	6.499248E-17
7.270000E+03	1.575478E-16	6.554561E-17
7.280000E+03	1.586759E-16	6.601316E-17
7.290000E+03	1.595962E-16	6.638663E-17
7.300000E+03	1.602903E-16	6.665822E-17
7.310000E+03	1.607419E-16	6.682116E-17
7.320000E+03	1.609377E-16	6.686991E-17
7.330000E+03	1.608679E-16	6.680048E-17
7.340000E+03	1.605266E-16	6.661057E-17
7.350000E+03	1.599125E-16	6.629978E-17
7.360000E+03	1.590286E-16	6.586965E-17
7.370000E+03	1.578829E-16	6.532373E-17
7.380000E+03	1.564878E-16	6.466751E-17
7.390000E+03	1.548602E-16	6.390830E-17
7.400000E+03	1.530206E-16	6.305506E-17
7.410000E+03	1.509934E-16	6.211815E-17
7.420000E+03	1.488053E-16	6.110909E-17
7.430000E+03	1.464855E-16	6.004021E-17
7.440000E+03	1.440645E-16	5.892437E-17
7.450000E+03	1.415732E-16	5.777466E-17
7.460000E+03	1.390430E-16	5.660408E-17
7.470000E+03	1.364827E-16	5.541645E-17
7.480000E+03	1.339656E-16	5.424174E-17
7.490000E+03	1.314975E-16	5.308227E-17
7.500000E+03	1.291045E-16	5.194847E-17
7.510000E+03	1.268107E-16	5.084977E-17
7.520000E+03	1.246376E-16	4.979452E-17
7.530000E+03	1.226048E-16	4.878995E-17
7.540000E+03	1.207291E-16	4.784216E-17
7.550000E+03	1.190063E-16	4.694864E-17
7.560000E+03	1.174871E-16	4.612840E-17
7.570000E+03	1.161626E-16	4.537668E-17
7.580000E+03	1.150410E-16	4.469530E-17
7.590000E+03	1.141289E-16	4.408517E-17
7.600000E+03	1.134126E-16	4.353931E-17
7.610000E+03	1.129315E-16	4.307081E-17
7.620000E+03	1.126687E-16	4.267090E-17
7.630000E+03	1.126240E-16	4.233701E-17
7.640000E+03	1.127777E-16	4.205909E-17
7.650000E+03	1.131626E-16	4.184650E-17
7.660000E+03	1.137562E-16	4.168758E-17
7.670000E+03	1.145525E-16	4.157671E-17
7.680000E+03	1.155253E-16	4.150087E-17
7.690000E+03	1.167027E-16	4.146625E-17
7.700000E+03	1.180558E-16	4.145844E-17
7.710000E+03	1.195729E-16	4.146899E-17
7.720000E+03	1.212215E-16	4.148224E-17
7.730000E+03	1.230256E-16	4.150189E-17
7.740000E+03	1.249506E-16	4.151130E-17
7.750000E+03	1.269594E-16	4.149341E-17
7.760000E+03	1.290749E-16	4.145091E-17
