#wls	flux	fluxerr
1.600000E+03	1.189692E-17	1.356704E-17
1.640000E+03	1.197859E-17	1.365155E-17
1.680000E+03	1.206834E-17	1.374397E-17
1.720000E+03	1.216446E-17	1.384218E-17
1.760000E+03	1.226742E-17	1.394647E-17
1.800000E+03	1.237771E-17	1.405718E-17
1.840000E+03	1.249587E-17	1.417462E-17
1.880000E+03	1.262249E-17	1.429913E-17
1.920000E+03	1.275819E-17	1.443106E-17
1.960000E+03	1.290365E-17	1.457075E-17
2.000000E+03	1.305961E-17	1.471855E-17
2.040000E+03	1.322925E-17	1.487747E-17
2.080000E+03	1.340872E-17	1.504256E-17
2.120000E+03	1.360132E-17	1.521679E-17
2.160000E+03	1.381057E-17	1.540326E-17
2.200000E+03	1.403270E-17	1.559680E-17
2.240000E+03	1.427397E-17	1.580326E-17
2.280000E+03	1.453071E-17	1.601730E-17
2.320000E+03	1.480961E-17	1.624486E-17
2.360000E+03	1.510985E-17	1.648332E-17
2.400000E+03	1.543334E-17	1.673282E-17
2.440000E+03	1.578223E-17	1.699347E-17
2.480000E+03	1.615606E-17	1.726216E-17
2.520000E+03	1.656321E-17	1.754492E-17
2.560000E+03	1.700394E-17	1.783845E-17
2.600000E+03	1.748481E-17	1.814557E-17
2.640000E+03	1.800363E-17	1.845926E-17
2.680000E+03	1.856788E-17	1.878176E-17
2.720000E+03	1.918266E-17	1.911181E-17
2.760000E+03	1.985381E-17	1.944770E-17
2.800000E+03	2.059163E-17	1.979063E-17
2.840000E+03	2.139660E-17	2.013059E-17
2.880000E+03	2.228493E-17	2.047064E-17
2.920000E+03	2.325892E-17	2.079836E-17
2.960000E+03	2.433817E-17	2.111421E-17
3.000000E+03	2.552741E-17	2.140195E-17
3.010000E+03	2.584542E-17	2.146974E-17
3.020000E+03	2.617176E-17	2.153510E-17
3.030000E+03	2.650671E-17	2.159781E-17
3.040000E+03	2.685055E-17	2.165764E-17
3.050000E+03	2.720354E-17	2.171432E-17
3.060000E+03	2.756598E-17	2.176761E-17
3.070000E+03	2.793818E-17	2.181720E-17
3.080000E+03	2.832043E-17	2.186280E-17
3.090000E+03	2.871307E-17	2.190409E-17
3.100000E+03	2.911641E-17	2.194072E-17
3.110000E+03	2.952559E-17	2.196846E-17
3.120000E+03	2.995129E-17	2.199466E-17
3.130000E+03	3.038875E-17	2.201504E-17
3.140000E+03	3.083833E-17	2.202918E-17
3.150000E+03	3.130041E-17	2.203659E-17
3.160000E+03	3.177538E-17	2.203681E-17
3.170000E+03	3.226364E-17	2.202929E-17
3.180000E+03	3.276561E-17	2.201350E-17
3.190000E+03	3.328171E-17	2.198884E-17
3.200000E+03	3.381237E-17	2.195470E-17
3.210000E+03	3.435804E-17	2.191042E-17
3.220000E+03	3.491917E-17	2.185530E-17
3.230000E+03	3.549623E-17	2.178862E-17
3.240000E+03	3.608970E-17	2.170958E-17
3.250000E+03	3.670007E-17	2.161738E-17
3.260000E+03	3.732783E-17	2.151115E-17
3.270000E+03	3.797349E-17	2.138996E-17
3.280000E+03	3.863757E-17	2.125287E-17
3.290000E+03	3.932060E-17	2.109884E-17
3.300000E+03	4.002311E-17	2.092682E-17
3.310000E+03	4.074564E-17	2.073568E-17
3.320000E+03	4.148876E-17	2.052423E-17
3.330000E+03	4.225301E-17	2.029124E-17
3.340000E+03	4.303141E-17	2.003188E-17
3.350000E+03	4.383950E-17	1.975188E-17
3.360000E+03	4.467045E-17	1.944627E-17
3.370000E+03	4.552482E-17	1.911355E-17
3.380000E+03	4.640321E-17	1.875218E-17
3.390000E+03	4.730620E-17	1.836056E-17
3.400000E+03	4.823438E-17	1.793704E-17
3.410000E+03	4.918833E-17	1.747990E-17
3.420000E+03	5.016864E-17	1.698741E-17
3.430000E+03	5.117589E-17	1.645777E-17
3.440000E+03	5.221067E-17	1.588922E-17
3.450000E+03	5.327353E-17	1.527997E-17
3.460000E+03	5.436504E-17	1.462832E-17
3.470000E+03	5.548577E-17	1.393264E-17
3.480000E+03	5.663623E-17	1.319156E-17
3.490000E+03	5.781697E-17	1.240400E-17
3.500000E+03	5.902848E-17	1.156947E-17
3.510000E+03	6.027126E-17	1.068840E-17
3.520000E+03	6.154576E-17	9.762768E-18
3.530000E+03	6.285240E-17	8.797195E-18
3.540000E+03	6.419159E-17	7.801008E-18
3.550000E+03	6.556367E-17	6.792253E-18
3.560000E+03	6.696896E-17	5.805846E-18
3.570000E+03	6.840770E-17	4.909769E-18
3.580000E+03	6.988011E-17	4.230895E-18
3.590000E+03	7.138635E-17	3.959748E-18
3.600000E+03	7.292657E-17	4.241767E-18
3.610000E+03	7.450096E-17	5.028813E-18
3.620000E+03	7.610973E-17	6.157659E-18
3.630000E+03	7.775305E-17	7.493829E-18
3.640000E+03	7.943106E-17	8.958199E-18
3.650000E+03	8.114383E-17	1.050708E-17
3.660000E+03	8.289139E-17	1.211550E-17
3.670000E+03	8.467368E-17	1.376826E-17
3.680000E+03	8.649060E-17	1.545543E-17
3.690000E+03	8.834200E-17	1.717002E-17
3.700000E+03	9.022763E-17	1.890681E-17
3.710000E+03	9.214720E-17	2.066162E-17
3.720000E+03	9.410035E-17	2.243092E-17
3.730000E+03	9.608664E-17	2.421157E-17
3.740000E+03	9.810556E-17	2.600067E-17
3.750000E+03	1.001565E-16	2.779549E-17
3.760000E+03	1.022388E-16	2.959332E-17
3.770000E+03	1.043517E-16	3.139151E-17
3.780000E+03	1.064943E-16	3.318737E-17
3.790000E+03	1.086656E-16	3.497817E-17
3.800000E+03	1.108645E-16	3.676110E-17
3.810000E+03	1.130898E-16	3.853330E-17
3.820000E+03	1.153401E-16	4.029179E-17
3.830000E+03	1.176141E-16	4.203347E-17
3.840000E+03	1.199100E-16	4.375516E-17
3.850000E+03	1.222262E-16	4.545355E-17
3.860000E+03	1.245607E-16	4.712518E-17
3.870000E+03	1.269116E-16	4.876651E-17
3.880000E+03	1.292767E-16	5.037384E-17
3.890000E+03	1.316538E-16	5.194337E-17
3.900000E+03	1.340406E-16	5.347118E-17
3.910000E+03	1.364345E-16	5.495326E-17
3.920000E+03	1.388331E-16	5.638547E-17
3.930000E+03	1.412338E-16	5.776362E-17
3.940000E+03	1.436339E-16	5.908344E-17
3.950000E+03	1.460308E-16	6.034059E-17
3.960000E+03	1.484218E-16	6.153072E-17
3.970000E+03	1.508044E-16	6.264945E-17
3.980000E+03	1.531760E-16	6.369238E-17
3.990000E+03	1.555340E-16	6.465516E-17
4.000000E+03	1.578762E-16	6.553345E-17
4.010000E+03	1.602003E-16	6.632298E-17
4.020000E+03	1.625041E-16	6.701954E-17
4.030000E+03	1.647858E-16	6.761898E-17
4.040000E+03	1.670435E-16	6.811729E-17
4.050000E+03	1.692758E-16	6.851053E-17
4.060000E+03	1.714811E-16	6.879487E-17
4.070000E+03	1.736583E-16	6.896661E-17
4.080000E+03	1.758064E-16	6.902216E-17
4.090000E+03	1.779245E-16	6.895805E-17
4.100000E+03	1.800120E-16	6.877093E-17
4.110000E+03	1.820682E-16	6.845756E-17
4.120000E+03	1.840928E-16	6.801481E-17
4.130000E+03	1.860855E-16	6.743967E-17
4.140000E+03	1.880133E-16	6.671767E-17
4.150000E+03	1.899409E-16	6.586927E-17
4.160000E+03	1.918358E-16	6.488010E-17
4.170000E+03	1.936978E-16	6.374759E-17
4.180000E+03	1.955266E-16	6.246927E-17
4.190000E+03	1.973217E-16	6.104286E-17
4.200000E+03	1.990827E-16	5.946621E-17
4.210000E+03	2.008089E-16	5.773739E-17
4.220000E+03	2.024997E-16	5.585474E-17
4.230000E+03	2.041542E-16	5.381689E-17
4.240000E+03	2.057714E-16	5.162289E-17
4.250000E+03	2.073501E-16	4.927229E-17
4.260000E+03	2.088891E-16	4.676533E-17
4.270000E+03	2.103872E-16	4.410315E-17
4.280000E+03	2.118064E-16	4.128096E-17
4.290000E+03	2.132184E-16	3.831765E-17
4.300000E+03	2.145859E-16	3.521218E-17
4.310000E+03	2.159078E-16	3.197498E-17
4.320000E+03	2.171836E-16	2.862262E-17
4.330000E+03	2.184131E-16	2.518209E-17
4.340000E+03	2.195968E-16	2.169935E-17
4.350000E+03	2.207357E-16	1.825724E-17
4.360000E+03	2.218315E-16	1.501477E-17
4.370000E+03	2.228865E-16	1.228831E-17
4.380000E+03	2.238647E-16	1.064867E-17
4.390000E+03	2.248445E-16	1.073752E-17
4.400000E+03	2.257860E-16	1.256260E-17
4.410000E+03	2.266849E-16	1.551309E-17
4.420000E+03	2.275358E-16	1.903991E-17
4.430000E+03	2.283333E-16	2.283740E-17
4.440000E+03	2.290727E-16	2.674923E-17
4.450000E+03	2.297501E-16	3.069159E-17
4.460000E+03	2.303223E-16	3.460994E-17
4.470000E+03	2.308662E-16	3.848514E-17
4.480000E+03	2.313401E-16	4.229149E-17
4.490000E+03	2.317427E-16	4.601453E-17
4.500000E+03	2.320728E-16	4.964351E-17
4.510000E+03	2.323301E-16	5.317023E-17
4.520000E+03	2.324741E-16	5.657846E-17
4.530000E+03	2.325853E-16	5.988204E-17
4.540000E+03	2.326240E-16	6.306774E-17
4.550000E+03	2.325910E-16	6.613236E-17
4.560000E+03	2.324874E-16	6.907347E-17
4.570000E+03	2.322744E-16	7.187689E-17
4.580000E+03	2.320337E-16	7.456576E-17
4.590000E+03	2.317272E-16	7.712754E-17
4.600000E+03	2.313571E-16	7.956214E-17
4.610000E+03	2.309257E-16	8.186994E-17
4.620000E+03	2.303963E-16	8.403734E-17
4.630000E+03	2.298512E-16	8.609424E-17
4.640000E+03	2.292539E-16	8.802826E-17
4.650000E+03	2.286082E-16	8.984152E-17
4.660000E+03	2.279177E-16	9.153654E-17
4.670000E+03	2.271474E-16	9.310013E-17
4.680000E+03	2.263798E-16	9.456722E-17
4.690000E+03	2.255802E-16	9.592549E-17
4.700000E+03	2.247530E-16	9.717862E-17
4.710000E+03	2.238644E-16	9.831355E-17
4.720000E+03	2.229962E-16	9.936796E-17
4.730000E+03	2.221144E-16	1.003293E-16
4.740000E+03	2.212237E-16	1.012017E-16
4.750000E+03	2.202908E-16	1.019720E-16
4.760000E+03	2.193960E-16	1.026793E-16
4.770000E+03	2.185056E-16	1.033104E-16
4.780000E+03	2.176235E-16	1.038694E-16
4.790000E+03	2.167166E-16	1.043424E-16
4.800000E+03	2.158628E-16	1.047690E-16
4.810000E+03	2.150282E-16	1.051349E-16
4.820000E+03	2.141789E-16	1.054254E-16
4.830000E+03	2.133914E-16	1.056799E-16
4.840000E+03	2.126309E-16	1.058833E-16
4.850000E+03	2.118632E-16	1.060200E-16
4.860000E+03	2.111628E-16	1.061287E-16
4.870000E+03	2.104945E-16	1.061933E-16
4.880000E+03	2.098594E-16	1.062158E-16
4.890000E+03	2.092223E-16	1.061794E-16
4.900000E+03	2.086555E-16	1.061217E-16
4.910000E+03	2.081233E-16	1.060257E-16
4.920000E+03	2.075901E-16	1.058739E-16
4.930000E+03	2.071269E-16	1.057031E-16
4.940000E+03	2.066621E-16	1.054774E-16
4.950000E+03	2.062663E-16	1.052331E-16
4.960000E+03	2.059031E-16	1.049519E-16
4.970000E+03	2.055366E-16	1.046156E-16
4.980000E+03	2.052364E-16	1.042597E-16
4.990000E+03	2.049662E-16	1.038655E-16
5.000000E+03	2.046901E-16	1.034146E-16
5.010000E+03	2.044772E-16	1.029416E-16
5.020000E+03	2.042562E-16	1.024101E-16
5.030000E+03	2.040963E-16	1.018542E-16
5.040000E+03	2.039612E-16	1.012550E-16
5.050000E+03	2.038149E-16	1.005940E-16
5.060000E+03	2.037261E-16	9.990409E-17
5.070000E+03	2.036239E-16	9.914953E-17
5.080000E+03	2.035767E-16	9.836270E-17
5.090000E+03	2.035485E-16	9.752470E-17
5.100000E+03	2.035030E-16	9.661711E-17
5.110000E+03	2.035087E-16	9.567118E-17
5.120000E+03	2.034942E-16	9.465193E-17
5.130000E+03	2.035278E-16	9.358978E-17
5.140000E+03	2.035382E-16	9.245027E-17
5.150000E+03	2.035933E-16	9.126292E-17
5.160000E+03	2.036215E-16	8.999391E-17
5.170000E+03	2.036906E-16	8.867182E-17
5.180000E+03	2.037290E-16	8.726363E-17
5.190000E+03	2.038042E-16	8.579695E-17
5.200000E+03	2.038444E-16	8.423969E-17
5.210000E+03	2.039170E-16	8.261847E-17
5.220000E+03	2.039500E-16	8.090235E-17
5.230000E+03	2.040110E-16	7.911695E-17
5.240000E+03	2.040277E-16	7.723264E-17
5.250000E+03	2.040677E-16	7.527400E-17
5.260000E+03	2.040589E-16	7.321296E-17
5.270000E+03	2.040688E-16	7.107305E-17
5.280000E+03	2.040255E-16	6.882792E-17
5.290000E+03	2.039965E-16	6.650001E-17
5.300000E+03	2.039101E-16	6.406494E-17
5.310000E+03	2.038341E-16	6.154398E-17
5.320000E+03	2.036968E-16	5.891493E-17
5.330000E+03	2.035663E-16	5.619785E-17
5.340000E+03	2.033715E-16	5.337289E-17
5.350000E+03	2.031457E-16	5.045026E-17
5.360000E+03	2.029224E-16	4.743856E-17
5.370000E+03	2.026313E-16	4.432194E-17
5.380000E+03	2.023408E-16	4.111739E-17
5.390000E+03	2.019816E-16	3.781217E-17
5.400000E+03	2.016224E-16	3.442236E-17
5.410000E+03	2.011949E-16	3.093918E-17
5.420000E+03	2.007343E-16	2.737420E-17
5.430000E+03	2.002761E-16	2.373907E-17
5.440000E+03	1.997539E-16	2.003735E-17
5.450000E+03	1.992046E-16	1.629583E-17
5.460000E+03	1.986649E-16	1.256265E-17
5.470000E+03	1.980705E-16	8.949694E-18
5.480000E+03	1.974926E-16	5.845944E-18
5.490000E+03	1.968666E-16	4.597398E-18
5.500000E+03	1.962277E-16	6.399026E-18
5.510000E+03	1.956081E-16	9.598050E-18
5.520000E+03	1.949385E-16	1.312108E-17
5.530000E+03	1.942498E-16	1.668108E-17
5.540000E+03	1.935728E-16	2.019033E-17
5.550000E+03	1.928399E-16	2.360624E-17
5.560000E+03	1.920836E-16	2.691483E-17
5.570000E+03	1.913365E-16	3.011281E-17
5.580000E+03	1.905343E-16	3.318620E-17
5.590000E+03	1.897116E-16	3.613772E-17
5.600000E+03	1.889029E-16	3.897367E-17
5.610000E+03	1.880469E-16	4.168193E-17
5.620000E+03	1.871796E-16	4.427017E-17
5.630000E+03	1.863051E-16	4.674060E-17
5.640000E+03	1.854596E-16	4.910434E-17
5.650000E+03	1.845845E-16	5.134826E-17
5.660000E+03	1.837166E-16	5.348401E-17
5.670000E+03	1.828924E-16	5.552509E-17
5.680000E+03	1.820546E-16	5.745724E-17
5.690000E+03	1.812400E-16	5.929419E-17
5.700000E+03	1.804537E-16	6.104074E-17
5.710000E+03	1.797316E-16	6.271253E-17
5.720000E+03	1.790174E-16	6.429350E-17
5.730000E+03	1.783466E-16	6.579914E-17
5.740000E+03	1.777238E-16	6.723449E-17
5.750000E+03	1.771531E-16	6.860455E-17
5.760000E+03	1.766686E-16	6.992611E-17
5.770000E+03	1.762136E-16	7.118024E-17
5.780000E+03	1.758213E-16	7.238313E-17
5.790000E+03	1.754946E-16	7.353905E-17
5.800000E+03	1.752357E-16	7.465200E-17
5.810000E+03	1.750765E-16	7.573857E-17
5.820000E+03	1.749588E-16	7.677652E-17
5.830000E+03	1.749135E-16	7.778165E-17
5.840000E+03	1.749416E-16	7.875671E-17
5.850000E+03	1.750435E-16	7.970412E-17
5.860000E+03	1.752492E-16	8.063973E-17
5.870000E+03	1.754991E-16	8.153800E-17
5.880000E+03	1.758226E-16	8.241401E-17
5.890000E+03	1.762193E-16	8.326898E-17
5.900000E+03	1.766886E-16	8.410387E-17
5.910000E+03	1.772298E-16	8.491937E-17
5.920000E+03	1.778725E-16	8.573057E-17
5.930000E+03	1.785553E-16	8.650867E-17
5.940000E+03	1.793078E-16	8.726821E-17
5.950000E+03	1.801291E-16	8.800909E-17
5.960000E+03	1.810185E-16	8.873101E-17
5.970000E+03	1.819753E-16	8.943352E-17
5.980000E+03	1.829989E-16	9.011601E-17
5.990000E+03	1.840886E-16	9.077766E-17
6.000000E+03	1.852438E-16	9.141748E-17
6.010000E+03	1.864957E-16	9.204996E-17
6.020000E+03	1.877801E-16	9.264240E-17
6.030000E+03	1.891277E-16	9.320870E-17
6.040000E+03	1.905374E-16	9.374689E-17
6.050000E+03	1.920079E-16	9.425467E-17
6.060000E+03	1.935375E-16	9.472941E-17
6.070000E+03	1.951241E-16	9.516807E-17
6.080000E+03	1.967649E-16	9.556720E-17
6.090000E+03	1.984569E-16	9.592287E-17
6.100000E+03	2.001961E-16	9.623069E-17
6.110000E+03	2.019778E-16	9.648576E-17
6.120000E+03	2.037965E-16	9.668264E-17
6.130000E+03	2.056458E-16	9.681539E-17
6.140000E+03	2.075183E-16	9.687755E-17
6.150000E+03	2.094057E-16	9.686215E-17
6.160000E+03	2.112986E-16	9.676178E-17
6.170000E+03	2.131865E-16	9.656862E-17
6.180000E+03	2.150581E-16	9.627451E-17
6.190000E+03	2.169378E-16	9.588736E-17
6.200000E+03	2.187390E-16	9.536586E-17
6.210000E+03	2.204840E-16	9.471781E-17
6.220000E+03	2.221583E-16	9.393473E-17
6.230000E+03	2.237465E-16	9.300837E-17
6.240000E+03	2.252330E-16	9.193088E-17
6.250000E+03	2.266021E-16	9.069499E-17
6.260000E+03	2.277993E-16	8.927894E-17
6.270000E+03	2.288867E-16	8.770777E-17
6.280000E+03	2.298107E-16	8.596141E-17
6.290000E+03	2.305574E-16	8.403644E-17
6.300000E+03	2.311137E-16	8.193076E-17
6.310000E+03	2.314678E-16	7.964366E-17
6.320000E+03	2.316093E-16	7.717597E-17
6.330000E+03	2.315295E-16	7.453004E-17
6.340000E+03	2.312216E-16	7.170978E-17
6.350000E+03	2.306804E-16	6.872069E-17
6.360000E+03	2.299030E-16	6.556975E-17
6.370000E+03	2.288886E-16	6.226543E-17
6.380000E+03	2.276382E-16	5.881750E-17
6.390000E+03	2.261551E-16	5.523698E-17
6.400000E+03	2.244445E-16	5.153597E-17
6.410000E+03	2.225136E-16	4.772749E-17
6.420000E+03	2.203713E-16	4.382536E-17
6.430000E+03	2.180284E-16	3.984403E-17
6.440000E+03	2.154602E-16	3.579241E-17
6.450000E+03	2.127543E-16	3.169887E-17
6.460000E+03	2.098882E-16	2.757274E-17
6.470000E+03	2.068777E-16	2.343121E-17
6.480000E+03	2.037394E-16	1.929379E-17
6.490000E+03	2.004900E-16	1.518571E-17
6.500000E+03	1.971467E-16	1.114842E-17
6.510000E+03	1.937260E-16	7.280765E-18
6.520000E+03	1.902440E-16	3.987084E-18
6.530000E+03	1.866840E-16	3.340136E-18
6.540000E+03	1.831244E-16	5.967750E-18
6.550000E+03	1.795458E-16	9.212552E-18
6.560000E+03	1.759601E-16	1.241617E-17
6.570000E+03	1.723783E-16	1.545756E-17
6.580000E+03	1.688107E-16	1.830537E-17
6.590000E+03	1.652666E-16	2.095232E-17
6.600000E+03	1.617276E-16	2.339599E-17
6.610000E+03	1.582580E-16	2.564949E-17
6.620000E+03	1.548375E-16	2.771680E-17
6.630000E+03	1.514736E-16	2.960659E-17
6.640000E+03	1.481735E-16	3.132818E-17
6.650000E+03	1.449434E-16	3.289130E-17
6.660000E+03	1.417650E-16	3.429997E-17
6.670000E+03	1.386924E-16	3.557561E-17
6.680000E+03	1.357054E-16	3.672248E-17
6.690000E+03	1.328080E-16	3.775032E-17
6.700000E+03	1.300038E-16	3.866865E-17
6.710000E+03	1.272739E-16	3.947998E-17
6.720000E+03	1.246646E-16	4.020663E-17
6.730000E+03	1.221556E-16	4.085060E-17
6.740000E+03	1.197486E-16	4.142016E-17
6.750000E+03	1.174445E-16	4.192319E-17
6.760000E+03	1.152245E-16	4.235996E-17
6.770000E+03	1.131286E-16	4.275192E-17
6.780000E+03	1.111370E-16	4.309861E-17
6.790000E+03	1.092494E-16	4.340632E-17
6.800000E+03	1.074655E-16	4.368093E-17
6.810000E+03	1.057665E-16	4.392043E-17
6.820000E+03	1.041879E-16	4.414486E-17
6.830000E+03	1.027103E-16	4.435150E-17
6.840000E+03	1.013327E-16	4.454471E-17
6.850000E+03	1.000365E-16	4.472085E-17
6.860000E+03	9.885462E-17	4.489880E-17
6.870000E+03	9.776813E-17	4.507429E-17
6.880000E+03	9.677534E-17	4.525033E-17
6.890000E+03	9.585807E-17	4.542187E-17
6.900000E+03	9.504722E-17	4.560677E-17
6.910000E+03	9.432430E-17	4.579944E-17
6.920000E+03	9.367122E-17	4.599389E-17
6.930000E+03	9.311785E-17	4.620736E-17
6.940000E+03	9.264583E-17	4.643340E-17
6.950000E+03	9.225283E-17	4.667310E-17
6.960000E+03	9.192072E-17	4.691934E-17
6.970000E+03	9.167840E-17	4.718873E-17
6.980000E+03	9.150752E-17	4.747374E-17
6.990000E+03	9.138978E-17	4.776647E-17
7.000000E+03	9.135361E-17	4.808319E-17
7.010000E+03	9.138047E-17	4.841563E-17
7.020000E+03	9.146738E-17	4.876343E-17
7.030000E+03	9.159560E-17	4.911768E-17
7.040000E+03	9.179312E-17	4.949434E-17
7.050000E+03	9.204099E-17	4.988420E-17
7.060000E+03	9.231998E-17	5.027760E-17
7.070000E+03	9.265795E-17	5.069038E-17
7.080000E+03	9.303545E-17	5.111263E-17
7.090000E+03	9.343265E-17	5.153397E-17
7.100000E+03	9.387740E-17	5.197020E-17
7.110000E+03	9.434965E-17	5.241072E-17
7.120000E+03	9.482896E-17	5.284449E-17
7.130000E+03	9.534324E-17	5.328733E-17
7.140000E+03	9.587186E-17	5.372801E-17
7.150000E+03	9.639377E-17	5.415491E-17
7.160000E+03	9.693712E-17	5.458397E-17
7.170000E+03	9.746412E-17	5.499405E-17
7.180000E+03	9.800319E-17	5.540125E-17
7.190000E+03	9.853299E-17	5.579358E-17
7.200000E+03	9.903180E-17	5.615876E-17
7.210000E+03	9.952869E-17	5.651325E-17
7.220000E+03	1.000022E-16	5.684488E-17
7.230000E+03	1.004307E-16	5.714132E-17
7.240000E+03	1.008442E-16	5.741957E-17
7.250000E+03	1.012044E-16	5.765774E-17
7.260000E+03	1.015420E-16	5.787333E-17
7.270000E+03	1.018365E-16	5.805456E-17
7.280000E+03	1.020675E-16	5.818976E-17
7.290000E+03	1.022673E-16	5.829732E-17
7.300000E+03	1.023993E-16	5.835618E-17
7.310000E+03	1.024968E-16	5.838544E-17
7.320000E+03	1.025416E-16	5.837460E-17
7.330000E+03	1.025159E-16	5.831354E-17
7.340000E+03	1.024553E-16	5.822243E-17
7.350000E+03	1.023257E-16	5.808191E-17
7.360000E+03	1.021639E-16	5.791282E-17
7.370000E+03	1.019545E-16	5.770650E-17
7.380000E+03	1.016832E-16	5.745473E-17
7.390000E+03	1.013882E-16	5.717919E-17
7.400000E+03	1.010388E-16	5.686248E-17
7.410000E+03	1.006741E-16	5.652661E-17
7.420000E+03	1.002645E-16	5.615489E-17
7.430000E+03	9.984952E-17	5.576947E-17
7.440000E+03	9.940058E-17	5.535420E-17
7.450000E+03	9.895749E-17	5.493117E-17
7.460000E+03	9.850905E-17	5.449396E-17
7.470000E+03	9.804448E-17	5.403641E-17
7.480000E+03	9.760341E-17	5.358014E-17
7.490000E+03	9.715827E-17	5.310968E-17
7.500000E+03	9.674826E-17	5.264608E-17
7.510000E+03	9.634580E-17	5.217387E-17
7.520000E+03	9.598941E-17	5.171338E-17
7.530000E+03	9.565131E-17	5.124900E-17
7.540000E+03	9.536917E-17	5.080023E-17
7.550000E+03	9.511479E-17	5.035119E-17
7.560000E+03	9.492492E-17	4.992047E-17
7.570000E+03	9.477075E-17	4.949184E-17
7.580000E+03	9.468810E-17	4.908291E-17
7.590000E+03	9.464738E-17	4.867702E-17
7.600000E+03	9.468347E-17	4.829078E-17
7.610000E+03	9.476587E-17	4.790708E-17
7.620000E+03	9.492855E-17	4.754151E-17
7.630000E+03	9.514000E-17	4.717645E-17
7.640000E+03	9.543332E-17	4.682652E-17
7.650000E+03	9.577588E-17	4.647359E-17
7.660000E+03	9.619999E-17	4.613129E-17
7.670000E+03	9.667176E-17	4.578103E-17
7.680000E+03	9.722281E-17	4.543549E-17
7.690000E+03	9.781790E-17	4.507564E-17
7.700000E+03	9.848800E-17	4.471329E-17
7.710000E+03	9.919648E-17	4.432903E-17
7.720000E+03	9.995660E-17	4.392632E-17
7.730000E+03	1.007817E-16	4.350810E-17
7.740000E+03	1.016328E-16	4.305466E-17
7.750000E+03	1.025397E-16	4.257592E-17
7.760000E+03	1.034620E-16	4.205215E-17
