#wls	flux	fluxerr
1.586515E+03	2.397682E-17	4.624196E-19
1.626177E+03	2.455166E-17	4.734985E-19
1.665840E+03	2.510779E-17	4.842160E-19
1.705503E+03	2.563996E-17	4.944710E-19
1.745166E+03	2.614728E-17	5.042462E-19
1.784829E+03	2.661942E-17	5.133423E-19
1.824492E+03	2.704182E-17	5.214788E-19
1.864155E+03	2.740039E-17	5.283837E-19
1.903818E+03	2.767635E-17	5.336953E-19
1.943480E+03	2.785137E-17	5.370599E-19
1.983143E+03	2.791840E-17	5.383418E-19
2.022806E+03	2.789849E-17	5.379471E-19
2.062469E+03	2.785479E-17	5.370935E-19
2.102132E+03	2.789947E-17	5.379436E-19
2.141795E+03	2.816783E-17	5.431061E-19
2.181458E+03	2.875112E-17	5.543403E-19
2.221120E+03	2.965399E-17	5.717353E-19
2.260783E+03	3.080106E-17	5.938373E-19
2.300446E+03	3.209115E-17	6.186953E-19
2.340109E+03	3.343758E-17	6.446381E-19
2.379772E+03	3.478715E-17	6.706395E-19
2.419435E+03	3.611179E-17	6.961588E-19
2.459098E+03	3.740614E-17	7.210926E-19
2.498761E+03	3.867222E-17	7.454796E-19
2.538423E+03	3.992015E-17	7.695152E-19
2.578086E+03	4.116017E-17	7.933964E-19
2.617749E+03	4.240543E-17	8.173769E-19
2.657412E+03	4.366849E-17	8.416986E-19
2.697075E+03	4.496355E-17	8.666353E-19
2.736738E+03	4.630491E-17	8.924622E-19
2.776401E+03	4.770949E-17	9.195056E-19
2.816063E+03	4.919592E-17	9.481242E-19
2.855726E+03	5.078433E-17	9.787058E-19
2.895389E+03	5.249889E-17	1.011716E-18
2.935052E+03	5.436600E-17	1.047663E-18
2.974715E+03	5.642366E-17	1.087279E-18
2.984631E+03	5.697282E-17	1.097852E-18
2.994546E+03	5.753673E-17	1.108709E-18
3.004462E+03	5.811732E-17	1.119887E-18
3.014378E+03	5.871444E-17	1.131384E-18
3.024294E+03	5.933006E-17	1.143237E-18
3.034209E+03	5.996506E-17	1.155463E-18
3.044125E+03	6.061892E-17	1.168052E-18
3.054041E+03	6.129788E-17	1.181124E-18
3.063956E+03	6.200085E-17	1.194659E-18
3.073872E+03	6.273049E-17	1.208707E-18
3.083788E+03	6.348582E-17	1.223250E-18
3.093704E+03	6.426969E-17	1.238343E-18
3.103619E+03	6.508129E-17	1.253970E-18
3.113535E+03	6.592261E-17	1.270169E-18
3.123451E+03	6.679392E-17	1.286945E-18
3.133366E+03	6.769734E-17	1.304340E-18
3.143282E+03	6.863318E-17	1.322359E-18
3.153198E+03	6.960375E-17	1.341047E-18
3.163114E+03	7.060924E-17	1.360408E-18
3.173029E+03	7.165003E-17	1.380448E-18
3.182945E+03	7.272936E-17	1.401230E-18
3.192861E+03	7.384638E-17	1.422737E-18
3.202776E+03	7.500325E-17	1.445012E-18
3.212692E+03	7.620095E-17	1.468074E-18
3.222608E+03	7.743825E-17	1.491898E-18
3.232524E+03	7.871786E-17	1.516536E-18
3.242439E+03	8.003912E-17	1.541976E-18
3.252355E+03	8.140108E-17	1.568200E-18
3.262271E+03	8.280552E-17	1.595241E-18
3.272186E+03	8.424857E-17	1.623026E-18
3.282102E+03	8.573126E-17	1.651574E-18
3.292018E+03	8.725084E-17	1.680832E-18
3.301934E+03	8.880515E-17	1.710758E-18
3.311849E+03	9.039148E-17	1.741301E-18
3.321765E+03	9.200547E-17	1.772376E-18
3.331681E+03	9.364453E-17	1.803933E-18
3.341596E+03	9.530213E-17	1.835846E-18
3.351512E+03	9.697607E-17	1.868074E-18
3.361428E+03	9.865923E-17	1.900478E-18
3.371344E+03	1.003467E-16	1.932965E-18
3.381259E+03	1.020348E-16	1.965463E-18
3.391175E+03	1.037165E-16	1.997838E-18
3.401091E+03	1.053901E-16	2.030055E-18
3.411006E+03	1.070483E-16	2.061976E-18
3.420922E+03	1.086908E-16	2.093591E-18
3.430838E+03	1.103142E-16	2.124841E-18
3.440754E+03	1.119178E-16	2.155707E-18
3.450669E+03	1.134992E-16	2.186145E-18
3.460585E+03	1.150633E-16	2.216250E-18
3.470501E+03	1.166089E-16	2.245995E-18
3.480416E+03	1.181391E-16	2.275447E-18
3.490332E+03	1.196598E-16	2.304712E-18
3.500248E+03	1.211746E-16	2.333864E-18
3.510164E+03	1.226895E-16	2.363017E-18
3.520079E+03	1.242106E-16	2.392288E-18
3.529995E+03	1.257431E-16	2.421780E-18
3.539911E+03	1.272937E-16	2.451618E-18
3.549826E+03	1.288675E-16	2.481903E-18
3.559742E+03	1.304734E-16	2.512806E-18
3.569658E+03	1.321133E-16	2.544361E-18
3.579574E+03	1.337949E-16	2.576721E-18
3.589489E+03	1.355204E-16	2.609924E-18
3.599405E+03	1.372949E-16	2.644071E-18
3.609321E+03	1.391204E-16	2.679197E-18
3.619236E+03	1.409991E-16	2.715348E-18
3.629152E+03	1.429328E-16	2.752558E-18
3.639068E+03	1.449225E-16	2.790845E-18
3.648984E+03	1.469685E-16	2.830215E-18
3.658899E+03	1.490692E-16	2.870638E-18
3.668815E+03	1.512236E-16	2.912095E-18
3.678731E+03	1.534321E-16	2.954592E-18
3.688647E+03	1.556900E-16	2.998039E-18
3.698562E+03	1.579967E-16	3.042423E-18
3.708478E+03	1.603496E-16	3.087699E-18
3.718394E+03	1.627447E-16	3.133784E-18
3.728309E+03	1.651786E-16	3.180616E-18
3.738225E+03	1.676493E-16	3.228155E-18
3.748141E+03	1.701499E-16	3.276269E-18
3.758057E+03	1.726774E-16	3.324900E-18
3.767972E+03	1.752272E-16	3.373958E-18
3.777888E+03	1.777922E-16	3.423309E-18
3.787804E+03	1.803682E-16	3.472871E-18
3.797719E+03	1.829475E-16	3.522493E-18
3.807635E+03	1.855231E-16	3.572045E-18
3.817551E+03	1.880881E-16	3.621390E-18
3.827467E+03	1.906349E-16	3.670385E-18
3.837382E+03	1.931543E-16	3.718850E-18
3.847298E+03	1.956402E-16	3.766670E-18
3.857214E+03	1.980833E-16	3.813664E-18
3.867129E+03	2.004778E-16	3.859721E-18
3.877045E+03	2.028149E-16	3.904671E-18
3.886961E+03	2.050877E-16	3.948385E-18
3.896877E+03	2.072903E-16	3.990744E-18
3.906792E+03	2.094172E-16	4.031644E-18
3.916708E+03	2.114636E-16	4.070995E-18
3.926624E+03	2.134258E-16	4.108722E-18
3.936539E+03	2.152988E-16	4.144733E-18
3.946455E+03	2.170823E-16	4.179019E-18
3.956371E+03	2.187731E-16	4.211521E-18
3.966287E+03	2.203724E-16	4.242260E-18
3.976202E+03	2.218787E-16	4.271206E-18
3.986118E+03	2.232926E-16	4.298375E-18
3.996034E+03	2.246175E-16	4.323829E-18
4.005949E+03	2.258534E-16	4.347571E-18
4.015865E+03	2.270028E-16	4.369644E-18
4.025781E+03	2.280682E-16	4.390103E-18
4.035697E+03	2.290527E-16	4.409002E-18
4.045612E+03	2.299612E-16	4.426439E-18
4.055528E+03	2.307932E-16	4.442401E-18
4.065444E+03	2.315536E-16	4.456987E-18
4.075359E+03	2.322478E-16	4.470295E-18
4.085275E+03	2.328750E-16	4.482317E-18
4.095191E+03	2.334424E-16	4.493185E-18
4.105107E+03	2.339493E-16	4.502889E-18
4.115022E+03	2.344008E-16	4.511527E-18
4.124938E+03	2.348023E-16	4.519201E-18
4.134854E+03	2.351534E-16	4.525905E-18
4.144769E+03	2.354615E-16	4.531783E-18
4.154685E+03	2.357289E-16	4.536876E-18
4.164601E+03	2.359597E-16	4.541265E-18
4.174517E+03	2.361586E-16	4.545039E-18
4.184432E+03	2.363304E-16	4.548293E-18
4.194348E+03	2.364824E-16	4.551164E-18
4.204264E+03	2.366181E-16	4.553722E-18
4.214179E+03	2.367433E-16	4.556078E-18
4.224095E+03	2.368676E-16	4.558417E-18
4.234011E+03	2.369912E-16	4.560742E-18
4.243927E+03	2.371256E-16	4.563276E-18
4.253842E+03	2.372729E-16	4.566056E-18
4.263758E+03	2.374401E-16	4.569221E-18
4.273674E+03	2.376327E-16	4.572873E-18
4.283589E+03	2.378552E-16	4.577101E-18
4.293505E+03	2.381140E-16	4.582029E-18
4.303421E+03	2.384112E-16	4.587693E-18
4.313337E+03	2.387521E-16	4.594199E-18
4.323252E+03	2.391378E-16	4.601567E-18
4.333168E+03	2.395728E-16	4.609884E-18
4.343084E+03	2.400593E-16	4.619192E-18
4.353000E+03	2.406010E-16	4.629561E-18
4.362915E+03	2.411975E-16	4.640984E-18
4.372831E+03	2.418498E-16	4.653480E-18
4.382747E+03	2.425606E-16	4.667104E-18
4.392662E+03	2.433328E-16	4.681907E-18
4.402578E+03	2.441629E-16	4.697824E-18
4.412494E+03	2.450551E-16	4.714936E-18
4.422410E+03	2.460099E-16	4.733251E-18
4.432325E+03	2.470255E-16	4.752737E-18
4.442241E+03	2.481063E-16	4.773478E-18
4.452157E+03	2.492506E-16	4.795439E-18
4.462072E+03	2.504588E-16	4.818627E-18
4.471988E+03	2.517331E-16	4.843088E-18
4.481904E+03	2.530757E-16	4.868863E-18
4.491820E+03	2.544827E-16	4.895876E-18
4.501735E+03	2.559600E-16	4.924241E-18
4.511651E+03	2.575010E-16	4.953830E-18
4.521567E+03	2.591108E-16	4.984745E-18
4.531482E+03	2.607862E-16	5.016919E-18
4.541398E+03	2.625272E-16	5.050355E-18
4.551314E+03	2.643291E-16	5.084961E-18
4.561230E+03	2.661907E-16	5.120715E-18
4.571145E+03	2.681079E-16	5.157539E-18
4.581061E+03	2.700783E-16	5.195386E-18
4.590977E+03	2.720943E-16	5.234108E-18
4.600892E+03	2.741496E-16	5.273587E-18
4.610808E+03	2.762422E-16	5.313781E-18
4.620724E+03	2.783624E-16	5.354507E-18
4.630640E+03	2.805026E-16	5.395615E-18
4.640555E+03	2.826542E-16	5.436944E-18
4.650471E+03	2.848135E-16	5.478419E-18
4.660387E+03	2.869667E-16	5.519775E-18
4.670302E+03	2.891067E-16	5.560878E-18
4.680218E+03	2.912238E-16	5.601540E-18
4.690134E+03	2.933106E-16	5.641618E-18
4.700050E+03	2.953543E-16	5.680867E-18
4.709965E+03	2.973444E-16	5.719083E-18
4.719881E+03	2.992724E-16	5.756106E-18
4.729797E+03	3.011272E-16	5.791721E-18
4.739712E+03	3.028949E-16	5.825659E-18
4.749628E+03	3.045689E-16	5.857793E-18
4.759544E+03	3.061318E-16	5.887793E-18
4.769460E+03	3.075741E-16	5.915471E-18
4.779375E+03	3.088832E-16	5.940588E-18
4.789291E+03	3.100465E-16	5.962901E-18
4.799207E+03	3.110541E-16	5.982219E-18
4.809122E+03	3.118882E-16	5.998200E-18
4.819038E+03	3.125420E-16	6.010714E-18
4.828954E+03	3.130011E-16	6.019484E-18
4.838870E+03	3.132547E-16	6.024302E-18
4.848785E+03	3.132955E-16	6.025027E-18
4.858701E+03	3.131119E-16	6.021438E-18
4.868617E+03	3.126992E-16	6.013444E-18
4.878532E+03	3.120489E-16	6.000882E-18
4.888448E+03	3.111571E-16	5.983674E-18
4.898364E+03	3.100243E-16	5.961834E-18
4.908280E+03	3.086478E-16	5.935309E-18
4.918195E+03	3.070325E-16	5.904193E-18
4.928111E+03	3.051828E-16	5.868570E-18
4.938027E+03	3.031024E-16	5.828511E-18
4.947942E+03	3.008025E-16	5.784233E-18
4.957858E+03	2.982909E-16	5.735887E-18
4.967774E+03	2.955853E-16	5.683810E-18
4.977690E+03	2.926915E-16	5.628115E-18
4.987605E+03	2.896325E-16	5.569247E-18
4.997521E+03	2.864193E-16	5.507415E-18
5.007437E+03	2.830689E-16	5.442946E-18
5.017353E+03	2.796038E-16	5.376273E-18
5.027268E+03	2.760364E-16	5.307634E-18
5.037184E+03	2.723866E-16	5.237414E-18
5.047100E+03	2.686690E-16	5.165890E-18
5.057015E+03	2.649046E-16	5.093470E-18
5.066931E+03	2.611041E-16	5.020355E-18
5.076847E+03	2.572817E-16	4.946824E-18
5.086763E+03	2.534555E-16	4.873219E-18
5.096678E+03	2.496324E-16	4.799676E-18
5.106594E+03	2.458254E-16	4.726443E-18
5.116510E+03	2.420412E-16	4.653651E-18
5.126425E+03	2.382922E-16	4.581538E-18
5.136341E+03	2.345803E-16	4.510140E-18
5.146257E+03	2.309112E-16	4.439565E-18
5.156173E+03	2.272932E-16	4.369976E-18
5.166088E+03	2.237255E-16	4.301354E-18
5.176004E+03	2.202126E-16	4.233787E-18
5.185920E+03	2.167544E-16	4.167272E-18
5.195835E+03	2.133560E-16	4.101910E-18
5.205751E+03	2.100143E-16	4.037640E-18
5.215667E+03	2.067299E-16	3.974471E-18
5.225583E+03	2.035071E-16	3.912489E-18
5.235498E+03	2.003424E-16	3.851624E-18
5.245414E+03	1.972382E-16	3.791925E-18
5.255330E+03	1.941953E-16	3.733405E-18
5.265245E+03	1.912129E-16	3.676048E-18
5.275161E+03	1.882963E-16	3.619958E-18
5.285077E+03	1.854439E-16	3.565103E-18
5.294993E+03	1.826586E-16	3.511539E-18
5.304908E+03	1.799475E-16	3.459404E-18
5.314824E+03	1.773115E-16	3.408712E-18
5.324740E+03	1.747592E-16	3.359631E-18
5.334655E+03	1.722933E-16	3.312212E-18
5.344571E+03	1.699228E-16	3.266628E-18
5.354487E+03	1.676556E-16	3.223029E-18
5.364403E+03	1.655006E-16	3.181590E-18
5.374318E+03	1.634676E-16	3.142497E-18
5.384234E+03	1.615674E-16	3.105956E-18
5.394150E+03	1.598096E-16	3.072154E-18
5.404065E+03	1.582096E-16	3.041387E-18
5.413981E+03	1.567768E-16	3.013835E-18
5.423897E+03	1.555277E-16	2.989814E-18
5.433813E+03	1.544727E-16	2.969526E-18
5.443728E+03	1.536278E-16	2.953276E-18
5.453644E+03	1.530000E-16	2.941202E-18
5.463560E+03	1.525834E-16	2.933186E-18
5.473475E+03	1.523681E-16	2.929043E-18
5.483391E+03	1.523439E-16	2.928572E-18
5.493307E+03	1.525029E-16	2.931625E-18
5.503223E+03	1.528400E-16	2.938101E-18
5.513138E+03	1.533476E-16	2.947854E-18
5.523054E+03	1.540222E-16	2.960819E-18
5.532970E+03	1.548564E-16	2.976854E-18
5.542885E+03	1.558502E-16	2.995956E-18
5.552801E+03	1.569992E-16	3.018041E-18
5.562717E+03	1.583015E-16	3.043075E-18
5.572633E+03	1.597557E-16	3.071027E-18
5.582548E+03	1.613607E-16	3.101881E-18
5.592464E+03	1.631178E-16	3.135657E-18
5.602380E+03	1.650231E-16	3.172284E-18
5.612295E+03	1.670782E-16	3.211792E-18
5.622211E+03	1.692832E-16	3.254181E-18
5.632127E+03	1.716381E-16	3.299453E-18
5.642043E+03	1.741430E-16	3.347607E-18
5.651958E+03	1.767977E-16	3.398643E-18
5.661874E+03	1.796022E-16	3.452558E-18
5.671790E+03	1.825560E-16	3.509344E-18
5.681706E+03	1.856566E-16	3.568952E-18
5.691621E+03	1.889067E-16	3.631436E-18
5.701537E+03	1.923009E-16	3.696690E-18
5.711453E+03	1.958409E-16	3.764749E-18
5.721368E+03	1.995196E-16	3.835473E-18
5.731284E+03	2.033347E-16	3.908821E-18
5.741200E+03	2.072806E-16	3.984685E-18
5.751116E+03	2.113500E-16	4.062923E-18
5.761031E+03	2.155335E-16	4.143355E-18
5.770947E+03	2.198189E-16	4.225749E-18
5.780863E+03	2.241914E-16	4.309817E-18
5.790778E+03	2.286298E-16	4.395152E-18
5.800694E+03	2.331166E-16	4.481420E-18
5.810610E+03	2.376195E-16	4.567997E-18
5.820526E+03	2.421117E-16	4.654373E-18
5.830441E+03	2.465506E-16	4.739722E-18
5.840357E+03	2.508959E-16	4.823274E-18
5.850273E+03	2.550994E-16	4.904102E-18
5.860188E+03	2.591107E-16	4.981234E-18
5.870104E+03	2.628659E-16	5.053445E-18
5.880020E+03	2.663069E-16	5.119618E-18
5.889936E+03	2.693707E-16	5.178540E-18
5.899851E+03	2.719945E-16	5.229006E-18
5.909767E+03	2.741180E-16	5.269853E-18
5.919683E+03	2.756889E-16	5.300078E-18
5.929598E+03	2.766529E-16	5.318635E-18
5.939514E+03	2.769749E-16	5.324852E-18
5.949430E+03	2.766286E-16	5.318221E-18
5.959346E+03	2.756038E-16	5.298547E-18
5.969261E+03	2.738943E-16	5.265708E-18
5.979177E+03	2.715201E-16	5.220092E-18
5.989093E+03	2.685038E-16	5.162132E-18
5.999008E+03	2.648820E-16	5.092529E-18
6.008924E+03	2.606998E-16	5.012151E-18
6.018840E+03	2.560086E-16	4.921989E-18
6.028756E+03	2.508671E-16	4.823169E-18
6.038671E+03	2.453268E-16	4.716679E-18
6.048587E+03	2.394517E-16	4.603752E-18
6.058503E+03	2.332954E-16	4.485419E-18
6.068418E+03	2.269155E-16	4.362785E-18
6.078334E+03	2.203609E-16	4.236791E-18
6.088250E+03	2.136800E-16	4.108368E-18
6.098166E+03	2.069181E-16	3.978386E-18
6.108081E+03	2.001193E-16	3.847693E-18
6.117997E+03	1.933192E-16	3.716974E-18
6.127913E+03	1.865551E-16	3.586945E-18
6.137828E+03	1.798560E-16	3.458166E-18
6.147744E+03	1.732528E-16	3.331229E-18
6.157660E+03	1.667686E-16	3.206576E-18
6.167576E+03	1.604276E-16	3.084677E-18
6.177491E+03	1.542489E-16	2.965898E-18
6.187407E+03	1.482467E-16	2.850509E-18
6.197323E+03	1.424358E-16	2.738798E-18
6.207238E+03	1.368262E-16	2.630956E-18
6.217154E+03	1.314249E-16	2.527118E-18
6.227070E+03	1.262361E-16	2.427366E-18
6.236986E+03	1.212618E-16	2.331736E-18
6.246901E+03	1.165016E-16	2.240220E-18
6.256817E+03	1.119531E-16	2.152775E-18
6.266733E+03	1.076127E-16	2.069330E-18
6.276648E+03	1.034754E-16	1.989790E-18
6.286564E+03	9.953698E-17	1.914073E-18
6.296480E+03	9.578951E-17	1.842026E-18
6.306396E+03	9.222762E-17	1.773547E-18
6.316311E+03	8.884296E-17	1.708475E-18
6.326227E+03	8.562967E-17	1.646698E-18
6.336143E+03	8.257934E-17	1.588053E-18
6.346059E+03	7.968600E-17	1.532427E-18
6.355974E+03	7.694125E-17	1.479657E-18
6.365890E+03	7.434021E-17	1.429650E-18
6.375806E+03	7.187369E-17	1.382229E-18
6.385721E+03	6.953577E-17	1.337280E-18
6.395637E+03	6.731875E-17	1.294656E-18
6.405553E+03	6.521793E-17	1.254266E-18
6.415469E+03	6.322498E-17	1.215950E-18
6.425384E+03	6.133561E-17	1.179625E-18
6.435300E+03	5.954211E-17	1.145143E-18
6.445216E+03	5.784067E-17	1.112431E-18
6.455131E+03	5.622448E-17	1.081359E-18
6.465047E+03	5.469054E-17	1.051867E-18
6.474963E+03	5.323297E-17	1.023844E-18
6.484879E+03	5.184929E-17	9.972415E-19
6.494794E+03	5.053450E-17	9.719636E-19
6.504710E+03	4.928466E-17	9.479345E-19
6.514626E+03	4.809622E-17	9.250859E-19
6.524541E+03	4.696641E-17	9.033645E-19
6.534457E+03	4.589109E-17	8.826907E-19
6.544373E+03	4.486680E-17	8.629982E-19
6.554289E+03	4.389095E-17	8.442370E-19
6.564204E+03	4.295879E-17	8.263158E-19
6.574120E+03	4.206845E-17	8.091988E-19
6.584036E+03	4.121682E-17	7.928259E-19
6.593951E+03	4.040016E-17	7.771256E-19
6.603867E+03	3.961565E-17	7.620432E-19
6.613783E+03	3.886115E-17	7.475378E-19
6.623699E+03	3.813338E-17	7.335463E-19
6.633614E+03	3.742974E-17	7.200188E-19
6.643530E+03	3.674831E-17	7.069181E-19
6.653446E+03	3.608669E-17	6.941985E-19
6.663361E+03	3.544203E-17	6.818047E-19
6.673277E+03	3.481225E-17	6.696969E-19
6.683193E+03	3.419617E-17	6.578525E-19
6.693109E+03	3.359233E-17	6.462433E-19
6.703024E+03	3.299913E-17	6.348386E-19
6.712940E+03	3.241651E-17	6.236372E-19
6.722856E+03	3.184368E-17	6.126237E-19
6.732771E+03	3.128129E-17	6.018110E-19
6.742687E+03	3.072917E-17	5.911957E-19
6.752603E+03	3.018839E-17	5.807981E-19
6.762519E+03	2.965901E-17	5.706200E-19
6.772434E+03	2.914218E-17	5.606828E-19
6.782350E+03	2.863842E-17	5.509970E-19
6.792266E+03	2.814774E-17	5.415626E-19
6.802181E+03	2.767111E-17	5.323983E-19
6.812097E+03	2.720901E-17	5.235134E-19
6.822013E+03	2.676156E-17	5.149102E-19
6.831929E+03	2.632999E-17	5.066124E-19
6.841844E+03	2.591530E-17	4.986391E-19
6.851760E+03	2.551829E-17	4.910059E-19
6.861676E+03	2.514055E-17	4.837433E-19
6.871591E+03	2.478488E-17	4.769050E-19
6.881507E+03	2.445245E-17	4.705141E-19
6.891423E+03	2.414604E-17	4.646234E-19
6.901339E+03	2.386753E-17	4.592697E-19
6.911254E+03	2.361973E-17	4.545065E-19
6.921170E+03	2.340480E-17	4.503760E-19
6.931086E+03	2.322423E-17	4.469064E-19
6.941001E+03	2.308002E-17	4.441366E-19
6.950917E+03	2.297334E-17	4.420890E-19
6.960833E+03	2.290491E-17	4.407771E-19
6.970749E+03	2.287452E-17	4.401976E-19
6.980664E+03	2.288201E-17	4.403468E-19
6.990580E+03	2.292771E-17	4.412314E-19
7.000496E+03	2.300984E-17	4.428171E-19
7.010412E+03	2.312771E-17	4.450907E-19
7.020327E+03	2.327953E-17	4.480176E-19
7.030243E+03	2.346427E-17	4.515782E-19
7.040159E+03	2.368032E-17	4.557416E-19
7.050074E+03	2.392601E-17	4.604753E-19
7.059990E+03	2.419907E-17	4.657361E-19
7.069906E+03	2.449813E-17	4.714972E-19
7.079822E+03	2.482073E-17	4.777117E-19
7.089737E+03	2.516538E-17	4.843507E-19
7.099653E+03	2.553002E-17	4.913744E-19
7.109569E+03	2.591203E-17	4.987327E-19
7.119484E+03	2.631040E-17	5.064062E-19
7.129400E+03	2.672148E-17	5.143243E-19
7.139316E+03	2.714497E-17	5.224815E-19
7.149232E+03	2.757794E-17	5.308215E-19
7.159147E+03	2.801932E-17	5.393235E-19
7.169063E+03	2.846709E-17	5.479486E-19
7.178979E+03	2.892065E-17	5.566853E-19
7.188894E+03	2.937908E-17	5.655161E-19
7.198810E+03	2.984115E-17	5.744170E-19
7.208726E+03	3.030716E-17	5.833942E-19
7.218642E+03	3.077649E-17	5.924352E-19
7.228557E+03	3.125008E-17	6.015586E-19
7.238473E+03	3.172852E-17	6.107756E-19
7.248389E+03	3.221261E-17	6.201015E-19
7.258304E+03	3.270255E-17	6.295402E-19
7.268220E+03	3.319927E-17	6.391096E-19
7.278136E+03	3.370443E-17	6.488416E-19
7.288052E+03	3.421886E-17	6.587525E-19
7.297967E+03	3.474329E-17	6.688559E-19
7.307883E+03	3.527747E-17	6.791473E-19
7.317799E+03	3.582179E-17	6.896342E-19
7.327714E+03	3.637735E-17	7.003377E-19
7.337630E+03	3.694446E-17	7.112638E-19
7.347546E+03	3.752261E-17	7.224026E-19
7.357462E+03	3.811300E-17	7.337774E-19
7.367377E+03	3.871617E-17	7.453984E-19
7.377293E+03	3.933174E-17	7.572586E-19
7.387209E+03	3.996019E-17	7.693668E-19
7.397124E+03	4.060288E-17	7.817496E-19
7.407040E+03	4.126010E-17	7.944122E-19
7.416956E+03	4.193086E-17	8.073360E-19
7.426872E+03	4.261571E-17	8.205312E-19
7.436787E+03	4.331398E-17	8.339851E-19
7.446703E+03	4.402332E-17	8.476523E-19
7.456619E+03	4.474206E-17	8.615009E-19
7.466534E+03	4.546914E-17	8.755105E-19
7.476450E+03	4.620203E-17	8.896321E-19
7.486366E+03	4.693673E-17	9.037890E-19
7.496282E+03	4.767104E-17	9.179385E-19
7.506197E+03	4.840004E-17	9.319862E-19
7.516113E+03	4.912077E-17	9.458747E-19
7.526029E+03	4.982879E-17	9.595189E-19
7.535944E+03	5.051812E-17	9.728035E-19
7.545860E+03	5.118371E-17	9.856311E-19
7.555776E+03	5.182292E-17	9.979509E-19
7.565692E+03	5.242691E-17	1.009593E-18
7.575607E+03	5.299337E-17	1.020512E-18
7.585523E+03	5.351796E-17	1.030626E-18
7.595439E+03	5.399677E-17	1.039857E-18
7.605354E+03	5.442390E-17	1.048094E-18
7.615270E+03	5.480105E-17	1.055369E-18
7.625186E+03	5.512401E-17	1.061599E-18
7.635102E+03	5.539205E-17	1.066773E-18
7.645017E+03	5.560673E-17	1.070919E-18
7.654933E+03	5.576756E-17	1.074027E-18
7.664849E+03	5.587750E-17	1.076156E-18
7.674765E+03	5.593871E-17	1.077346E-18
7.684680E+03	5.595210E-17	1.077615E-18
7.694596E+03	5.592038E-17	1.077015E-18
