#wls	flux	fluxerr
1.586515E+03	3.163612E-17	5.051306E-20
1.626177E+03	3.263426E-17	5.210677E-20
1.665840E+03	3.362955E-17	5.369593E-20
1.705503E+03	3.462575E-17	5.528655E-20
1.745166E+03	3.562203E-17	5.687730E-20
1.784829E+03	3.659775E-17	5.843521E-20
1.824492E+03	3.754127E-17	5.994172E-20
1.864155E+03	3.843180E-17	6.136362E-20
1.903818E+03	3.923234E-17	6.264182E-20
1.943480E+03	3.992222E-17	6.374335E-20
1.983143E+03	4.048604E-17	6.464359E-20
2.022806E+03	4.094906E-17	6.538288E-20
2.062469E+03	4.139936E-17	6.610187E-20
2.102132E+03	4.200467E-17	6.706835E-20
2.141795E+03	4.297965E-17	6.862507E-20
2.181458E+03	4.447034E-17	7.100524E-20
2.221120E+03	4.651132E-17	7.426405E-20
2.260783E+03	4.900317E-17	7.824274E-20
2.300446E+03	5.179097E-17	8.269399E-20
2.340109E+03	5.475152E-17	8.742105E-20
2.379772E+03	5.778859E-17	9.227029E-20
2.419435E+03	6.085911E-17	9.717294E-20
2.459098E+03	6.393437E-17	1.020832E-19
2.498761E+03	6.701839E-17	1.070074E-19
2.538423E+03	7.010340E-17	1.119332E-19
2.578086E+03	7.319648E-17	1.168718E-19
2.617749E+03	7.629360E-17	1.218169E-19
2.657412E+03	7.939660E-17	1.267714E-19
2.697075E+03	8.249344E-17	1.317161E-19
2.736738E+03	8.557606E-17	1.366381E-19
2.776401E+03	8.862560E-17	1.415072E-19
2.816063E+03	9.161580E-17	1.462816E-19
2.855726E+03	9.451209E-17	1.509061E-19
2.895389E+03	9.727577E-17	1.553188E-19
2.935052E+03	9.984743E-17	1.594249E-19
2.974715E+03	1.021707E-16	1.631345E-19
2.984631E+03	1.027052E-16	1.639879E-19
2.994546E+03	1.032179E-16	1.648065E-19
3.004462E+03	1.037024E-16	1.655801E-19
3.014378E+03	1.041670E-16	1.663219E-19
3.024294E+03	1.046052E-16	1.670215E-19
3.034209E+03	1.050166E-16	1.676784E-19
3.044125E+03	1.054019E-16	1.682935E-19
3.054041E+03	1.057569E-16	1.688604E-19
3.063956E+03	1.060885E-16	1.693898E-19
3.073872E+03	1.063894E-16	1.698704E-19
3.083788E+03	1.066571E-16	1.702977E-19
3.093704E+03	1.068889E-16	1.706679E-19
3.103619E+03	1.070869E-16	1.709840E-19
3.113535E+03	1.072441E-16	1.712350E-19
3.123451E+03	1.073579E-16	1.714167E-19
3.133366E+03	1.074304E-16	1.715325E-19
3.143282E+03	1.074546E-16	1.715711E-19
3.153198E+03	1.074326E-16	1.715359E-19
3.163114E+03	1.073575E-16	1.714160E-19
3.173029E+03	1.072315E-16	1.712148E-19
3.176152E+03	1.008782E-16	1.610706E-19
3.179884E+03	1.018919E-16	1.626892E-19
3.183616E+03	1.044675E-16	1.668016E-19
3.187348E+03	1.062503E-16	1.696481E-19
3.191080E+03	1.064364E-16	1.699452E-19
3.194812E+03	1.050403E-16	1.677162E-19
3.198544E+03	1.052959E-16	1.681243E-19
3.202276E+03	1.039332E-16	1.659484E-19
3.206008E+03	1.024230E-16	1.635371E-19
3.209740E+03	1.018566E-16	1.626328E-19
3.213472E+03	1.005852E-16	1.606028E-19
3.217205E+03	9.816923E-17	1.567452E-19
3.220936E+03	9.676772E-17	1.545075E-19
3.224668E+03	9.677777E-17	1.545235E-19
3.228401E+03	9.759845E-17	1.558339E-19
3.232133E+03	9.970278E-17	1.591938E-19
3.235864E+03	9.972914E-17	1.592359E-19
3.239596E+03	9.970363E-17	1.591952E-19
3.243329E+03	1.019699E-16	1.628137E-19
3.247061E+03	1.061716E-16	1.695224E-19
3.250793E+03	1.090085E-16	1.740522E-19
3.254525E+03	1.131871E-16	1.807240E-19
3.258257E+03	1.143821E-16	1.826320E-19
3.261989E+03	1.126265E-16	1.798288E-19
3.265721E+03	1.115850E-16	1.781659E-19
3.269453E+03	1.090538E-16	1.741245E-19
3.273185E+03	1.094365E-16	1.747354E-19
3.276917E+03	1.090456E-16	1.741113E-19
3.280649E+03	1.063853E-16	1.698636E-19
3.284381E+03	1.030937E-16	1.646080E-19
3.288113E+03	1.018086E-16	1.625561E-19
3.291845E+03	9.997172E-17	1.596232E-19
3.295578E+03	9.779003E-17	1.561397E-19
3.299310E+03	9.426486E-17	1.505111E-19
3.303041E+03	9.066389E-17	1.447615E-19
3.306773E+03	8.890836E-17	1.419585E-19
3.310506E+03	8.821890E-17	1.408577E-19
3.314238E+03	8.786736E-17	1.402964E-19
3.317970E+03	8.552720E-17	1.365599E-19
3.321702E+03	8.446682E-17	1.348668E-19
3.325434E+03	8.363789E-17	1.335432E-19
3.329166E+03	8.312270E-17	1.327206E-19
3.332898E+03	8.297333E-17	1.324821E-19
3.336630E+03	8.321464E-17	1.328674E-19
3.340362E+03	8.383606E-17	1.338596E-19
3.344094E+03	8.479400E-17	1.353892E-19
3.347826E+03	8.602312E-17	1.373517E-19
3.351558E+03	8.742216E-17	1.395855E-19
3.355290E+03	8.886277E-17	1.418857E-19
3.359022E+03	9.003274E-17	1.437538E-19
3.362755E+03	9.122762E-17	1.456616E-19
3.366487E+03	9.318703E-17	1.487902E-19
3.370218E+03	9.574995E-17	1.528823E-19
3.373950E+03	9.705578E-17	1.549673E-19
3.377683E+03	9.870461E-17	1.576000E-19
3.381415E+03	9.977260E-17	1.593052E-19
3.385146E+03	9.858120E-17	1.574029E-19
3.388879E+03	9.739724E-17	1.555125E-19
3.392611E+03	9.724418E-17	1.552681E-19
3.396343E+03	9.652277E-17	1.541163E-19
3.400075E+03	9.614121E-17	1.535071E-19
3.403807E+03	9.602016E-17	1.533138E-19
3.407539E+03	9.486096E-17	1.514629E-19
3.411271E+03	9.299809E-17	1.484885E-19
3.415003E+03	9.149969E-17	1.460960E-19
3.418735E+03	8.950877E-17	1.429171E-19
3.422467E+03	8.897044E-17	1.420576E-19
3.426199E+03	8.903638E-17	1.421629E-19
3.429932E+03	8.814834E-17	1.407450E-19
3.433663E+03	8.875271E-17	1.417099E-19
3.437395E+03	9.043497E-17	1.443960E-19
3.441127E+03	9.097636E-17	1.452604E-19
3.444860E+03	9.107772E-17	1.454222E-19
3.448592E+03	9.055440E-17	1.445867E-19
3.452323E+03	9.057568E-17	1.446206E-19
3.456056E+03	9.228374E-17	1.473479E-19
3.459788E+03	9.370611E-17	1.496189E-19
3.463520E+03	9.496633E-17	1.516311E-19
3.467251E+03	9.632871E-17	1.538064E-19
3.470984E+03	9.728934E-17	1.553402E-19
3.474716E+03	9.843198E-17	1.571646E-19
3.478448E+03	9.953903E-17	1.589323E-19
3.482179E+03	9.995476E-17	1.595960E-19
3.485912E+03	1.006709E-16	1.607395E-19
3.489644E+03	1.010729E-16	1.613813E-19
3.493376E+03	1.005074E-16	1.604784E-19
3.497109E+03	9.988915E-17	1.594913E-19
3.500840E+03	9.908310E-17	1.582043E-19
3.504572E+03	9.778851E-17	1.561372E-19
3.508304E+03	9.678866E-17	1.545408E-19
3.512037E+03	9.585176E-17	1.530448E-19
3.515768E+03	9.506082E-17	1.517820E-19
3.519500E+03	9.485725E-17	1.514569E-19
3.523233E+03	9.429757E-17	1.505633E-19
3.526965E+03	9.448025E-17	1.508550E-19
3.530696E+03	9.477326E-17	1.513228E-19
3.534428E+03	9.530104E-17	1.521655E-19
3.538161E+03	9.681208E-17	1.545782E-19
3.541893E+03	9.807214E-17	1.565901E-19
3.545625E+03	9.817504E-17	1.567544E-19
3.549356E+03	9.949908E-17	1.588684E-19
3.553089E+03	1.003482E-16	1.602242E-19
3.556821E+03	9.984600E-17	1.594224E-19
3.560553E+03	1.001148E-16	1.598516E-19
3.564285E+03	1.003809E-16	1.602765E-19
3.568017E+03	1.010646E-16	1.613680E-19
3.571749E+03	1.024839E-16	1.636343E-19
3.575481E+03	1.041774E-16	1.663383E-19
3.579214E+03	1.056557E-16	1.686986E-19
3.582945E+03	1.072062E-16	1.711743E-19
3.586677E+03	1.089232E-16	1.739158E-19
3.590410E+03	1.096666E-16	1.751027E-19
3.594142E+03	1.113428E-16	1.777791E-19
3.597874E+03	1.131857E-16	1.807215E-19
3.601605E+03	1.149791E-16	1.835851E-19
3.605338E+03	1.163992E-16	1.858526E-19
3.609070E+03	1.166511E-16	1.862547E-19
3.612801E+03	1.178198E-16	1.881208E-19
3.616533E+03	1.193434E-16	1.905535E-19
3.620266E+03	1.208508E-16	1.929603E-19
3.623998E+03	1.230347E-16	1.964473E-19
3.627730E+03	1.252774E-16	2.000283E-19
3.631462E+03	1.273656E-16	2.033624E-19
3.635194E+03	1.302859E-16	2.080253E-19
3.638926E+03	1.324502E-16	2.114809E-19
3.642658E+03	1.339802E-16	2.139238E-19
3.646391E+03	1.364784E-16	2.179127E-19
3.650122E+03	1.391938E-16	2.222482E-19
3.653854E+03	1.406866E-16	2.246318E-19
3.657587E+03	1.412753E-16	2.255717E-19
3.661319E+03	1.398192E-16	2.232469E-19
3.665050E+03	1.388623E-16	2.217189E-19
3.668782E+03	1.394650E-16	2.226812E-19
3.672515E+03	1.402594E-16	2.239497E-19
3.676247E+03	1.428172E-16	2.280336E-19
3.679978E+03	1.467196E-16	2.342646E-19
3.683710E+03	1.524895E-16	2.434772E-19
3.687443E+03	1.586139E-16	2.532559E-19
3.691175E+03	1.636260E-16	2.612588E-19
3.694907E+03	1.693204E-16	2.703509E-19
3.698639E+03	1.758474E-16	2.807724E-19
3.702371E+03	1.815287E-16	2.898436E-19
3.706103E+03	1.854022E-16	2.960283E-19
3.709835E+03	1.898884E-16	3.031913E-19
3.713567E+03	1.945763E-16	3.106764E-19
3.717299E+03	1.983367E-16	3.166807E-19
3.721031E+03	2.018204E-16	3.222429E-19
3.724764E+03	2.046847E-16	3.268164E-19
3.728496E+03	2.063426E-16	3.294635E-19
3.732227E+03	2.068909E-16	3.303390E-19
3.735959E+03	2.075870E-16	3.314504E-19
3.739692E+03	2.066607E-16	3.299714E-19
3.743424E+03	2.053362E-16	3.278565E-19
3.747155E+03	2.032345E-16	3.245009E-19
3.750887E+03	1.998542E-16	3.191036E-19
3.754620E+03	1.962391E-16	3.133314E-19
3.758352E+03	1.920798E-16	3.066903E-19
3.762083E+03	1.879388E-16	3.000785E-19
3.765816E+03	1.843818E-16	2.943991E-19
3.769548E+03	1.821252E-16	2.907961E-19
3.773280E+03	1.799656E-16	2.873477E-19
3.777012E+03	1.790263E-16	2.858480E-19
3.780744E+03	1.785245E-16	2.850468E-19
3.784476E+03	1.795759E-16	2.867256E-19
3.788208E+03	1.814141E-16	2.896606E-19
3.791941E+03	1.845780E-16	2.947124E-19
3.795672E+03	1.889231E-16	3.016501E-19
3.799404E+03	1.930130E-16	3.081804E-19
3.803136E+03	1.952206E-16	3.117051E-19
3.806869E+03	1.968792E-16	3.143533E-19
3.810600E+03	1.982118E-16	3.164811E-19
3.814332E+03	1.999750E-16	3.192964E-19
3.818064E+03	2.020962E-16	3.226834E-19
3.821797E+03	2.042603E-16	3.261386E-19
3.825529E+03	2.067296E-16	3.300814E-19
3.829260E+03	2.090881E-16	3.338472E-19
3.832993E+03	2.126520E-16	3.395375E-19
3.836725E+03	2.157783E-16	3.445292E-19
3.840457E+03	2.185424E-16	3.489426E-19
3.844189E+03	2.216068E-16	3.538354E-19
3.847921E+03	2.248680E-16	3.590425E-19
3.851653E+03	2.274565E-16	3.631756E-19
3.855385E+03	2.296293E-16	3.666448E-19
3.859118E+03	2.336185E-16	3.730144E-19
3.862849E+03	2.379760E-16	3.799718E-19
3.866581E+03	2.421503E-16	3.866368E-19
3.870313E+03	2.467208E-16	3.939346E-19
3.874046E+03	2.507108E-16	4.003053E-19
3.877777E+03	2.553241E-16	4.076712E-19
3.881509E+03	2.598102E-16	4.148340E-19
3.885241E+03	2.644465E-16	4.222369E-19
3.888974E+03	2.681434E-16	4.281396E-19
3.892706E+03	2.709087E-16	4.325548E-19
3.896437E+03	2.750203E-16	4.391198E-19
3.900170E+03	2.778554E-16	4.436466E-19
3.903902E+03	2.799657E-16	4.470159E-19
3.907634E+03	2.820235E-16	4.503017E-19
3.911365E+03	2.842058E-16	4.537861E-19
3.915098E+03	2.865853E-16	4.575854E-19
3.918830E+03	2.890782E-16	4.615658E-19
3.922562E+03	2.904216E-16	4.637108E-19
3.926294E+03	2.932814E-16	4.682769E-19
3.930026E+03	2.942896E-16	4.698867E-19
3.933758E+03	2.954389E-16	4.717217E-19
3.937490E+03	2.967011E-16	4.737370E-19
3.941223E+03	2.974865E-16	4.749910E-19
3.944954E+03	2.982162E-16	4.761561E-19
3.948686E+03	2.991429E-16	4.776359E-19
3.952418E+03	2.995083E-16	4.782193E-19
3.956151E+03	3.007453E-16	4.801943E-19
3.959882E+03	3.023765E-16	4.827988E-19
3.963614E+03	3.028276E-16	4.835192E-19
3.967347E+03	3.033353E-16	4.843298E-19
3.971079E+03	3.041247E-16	4.855902E-19
3.974811E+03	3.035923E-16	4.847401E-19
3.978542E+03	3.036508E-16	4.848335E-19
3.982275E+03	3.044695E-16	4.861407E-19
3.986007E+03	3.043878E-16	4.860102E-19
3.989739E+03	3.041655E-16	4.856552E-19
3.993471E+03	3.038024E-16	4.850756E-19
3.997203E+03	3.032424E-16	4.841814E-19
4.000935E+03	3.014990E-16	4.813978E-19
4.004667E+03	2.994733E-16	4.781633E-19
4.008399E+03	2.991380E-16	4.776280E-19
4.012131E+03	2.986054E-16	4.767776E-19
4.015863E+03	2.969451E-16	4.741266E-19
4.019595E+03	2.948330E-16	4.707543E-19
4.023328E+03	2.928895E-16	4.676511E-19
4.027059E+03	2.911710E-16	4.649072E-19
4.030791E+03	2.888313E-16	4.611714E-19
4.034524E+03	2.871964E-16	4.585610E-19
4.038256E+03	2.852504E-16	4.554539E-19
4.041987E+03	2.825979E-16	4.512186E-19
4.045719E+03	2.816586E-16	4.497190E-19
4.049452E+03	2.799594E-16	4.470058E-19
4.053184E+03	2.780958E-16	4.440302E-19
4.056915E+03	2.775426E-16	4.431469E-19
4.060647E+03	2.779758E-16	4.438386E-19
4.064380E+03	2.773040E-16	4.427660E-19
4.068112E+03	2.770024E-16	4.422845E-19
4.071844E+03	2.774390E-16	4.429815E-19
4.075576E+03	2.784586E-16	4.446095E-19
4.079308E+03	2.784659E-16	4.446212E-19
4.083040E+03	2.782894E-16	4.443394E-19
4.086772E+03	2.784300E-16	4.445638E-19
4.090505E+03	2.786330E-16	4.448880E-19
4.094236E+03	2.786550E-16	4.449231E-19
4.097968E+03	2.783968E-16	4.445109E-19
4.101701E+03	2.776117E-16	4.432573E-19
4.105433E+03	2.773166E-16	4.427861E-19
4.109164E+03	2.771292E-16	4.424868E-19
4.112896E+03	2.760375E-16	4.407437E-19
4.116629E+03	2.753538E-16	4.396520E-19
4.120361E+03	2.747606E-16	4.387050E-19
4.124093E+03	2.734497E-16	4.366118E-19
4.127824E+03	2.728902E-16	4.357185E-19
4.131557E+03	2.719162E-16	4.341633E-19
4.135289E+03	2.708652E-16	4.324853E-19
4.139021E+03	2.707082E-16	4.322346E-19
4.142753E+03	2.704774E-16	4.318661E-19
4.146485E+03	2.697780E-16	4.307494E-19
4.150217E+03	2.692886E-16	4.299678E-19
4.153949E+03	2.693844E-16	4.301208E-19
4.157681E+03	2.699294E-16	4.309910E-19
4.161413E+03	2.699261E-16	4.309857E-19
4.165145E+03	2.701873E-16	4.314028E-19
4.168878E+03	2.709776E-16	4.326647E-19
4.172610E+03	2.716660E-16	4.337639E-19
4.176341E+03	2.719850E-16	4.342731E-19
4.180073E+03	2.720850E-16	4.344328E-19
4.183806E+03	2.718920E-16	4.341246E-19
4.187538E+03	2.715680E-16	4.336073E-19
4.191269E+03	2.706231E-16	4.320986E-19
4.195001E+03	2.698716E-16	4.308987E-19
4.198734E+03	2.690315E-16	4.295574E-19
4.202466E+03	2.680145E-16	4.279335E-19
4.206197E+03	2.674530E-16	4.270370E-19
4.209930E+03	2.669713E-16	4.262678E-19
4.213662E+03	2.646415E-16	4.225480E-19
4.217394E+03	2.630724E-16	4.200426E-19
4.221126E+03	2.622529E-16	4.187341E-19
4.224858E+03	2.611221E-16	4.169285E-19
4.228590E+03	2.609411E-16	4.166396E-19
4.232322E+03	2.605890E-16	4.160774E-19
4.236055E+03	2.603880E-16	4.157565E-19
4.239786E+03	2.605841E-16	4.160695E-19
4.243518E+03	2.602002E-16	4.154566E-19
4.247250E+03	2.602364E-16	4.155144E-19
4.250983E+03	2.604212E-16	4.158094E-19
4.254715E+03	2.606947E-16	4.162462E-19
4.258446E+03	2.611629E-16	4.169937E-19
4.262178E+03	2.615627E-16	4.176320E-19
4.265911E+03	2.619112E-16	4.181885E-19
4.269643E+03	2.629695E-16	4.198782E-19
4.273374E+03	2.640397E-16	4.215870E-19
4.277107E+03	2.650103E-16	4.231368E-19
4.280839E+03	2.654603E-16	4.238552E-19
4.284571E+03	2.663029E-16	4.252006E-19
4.288302E+03	2.674523E-16	4.270359E-19
4.292035E+03	2.687456E-16	4.291008E-19
4.295767E+03	2.703577E-16	4.316747E-19
4.299499E+03	2.716580E-16	4.337510E-19
4.303232E+03	2.723253E-16	4.348164E-19
4.306963E+03	2.731277E-16	4.360977E-19
4.310695E+03	2.749805E-16	4.390559E-19
4.314427E+03	2.769918E-16	4.422674E-19
4.318160E+03	2.786282E-16	4.448801E-19
4.321891E+03	2.808508E-16	4.484290E-19
4.325623E+03	2.829770E-16	4.518238E-19
4.329355E+03	2.842196E-16	4.538078E-19
4.333088E+03	2.857701E-16	4.562835E-19
4.336819E+03	2.880540E-16	4.599301E-19
4.340551E+03	2.891263E-16	4.616422E-19
4.344284E+03	2.899115E-16	4.628960E-19
4.348016E+03	2.916460E-16	4.656654E-19
4.351748E+03	2.927486E-16	4.674260E-19
4.355479E+03	2.937654E-16	4.690494E-19
4.359212E+03	2.951279E-16	4.712249E-19
4.362944E+03	2.960882E-16	4.727582E-19
4.366676E+03	2.970201E-16	4.742462E-19
4.370408E+03	2.973479E-16	4.747695E-19
4.374140E+03	2.977334E-16	4.753850E-19
4.377872E+03	2.992712E-16	4.778403E-19
4.381604E+03	3.010401E-16	4.806648E-19
4.385337E+03	3.027523E-16	4.833986E-19
4.389068E+03	3.045805E-16	4.863176E-19
4.392800E+03	3.067555E-16	4.897904E-19
4.396532E+03	3.088739E-16	4.931728E-19
4.400265E+03	3.113393E-16	4.971093E-19
4.403996E+03	3.144694E-16	5.021070E-19
4.407728E+03	3.177740E-16	5.073835E-19
4.411461E+03	3.209070E-16	5.123859E-19
4.415193E+03	3.247055E-16	5.184508E-19
4.418924E+03	3.286788E-16	5.247950E-19
4.422656E+03	3.321053E-16	5.302658E-19
4.426389E+03	3.356198E-16	5.358775E-19
4.430121E+03	3.388182E-16	5.409843E-19
4.433853E+03	3.429140E-16	5.475239E-19
4.437585E+03	3.474164E-16	5.547128E-19
4.441317E+03	3.519497E-16	5.619511E-19
4.445049E+03	3.563115E-16	5.689155E-19
4.448781E+03	3.598075E-16	5.744975E-19
4.452513E+03	3.634785E-16	5.803589E-19
4.456245E+03	3.672381E-16	5.863617E-19
4.459977E+03	3.707966E-16	5.920436E-19
4.463709E+03	3.749069E-16	5.986064E-19
4.467442E+03	3.793956E-16	6.057734E-19
4.471173E+03	3.844947E-16	6.139150E-19
4.474905E+03	3.883210E-16	6.200245E-19
4.478638E+03	3.918592E-16	6.256738E-19
4.482370E+03	3.959208E-16	6.321588E-19
4.486101E+03	3.998681E-16	6.384614E-19
4.489833E+03	4.035562E-16	6.443502E-19
4.493566E+03	4.074200E-16	6.505193E-19
4.497298E+03	4.115756E-16	6.571545E-19
4.501029E+03	4.139625E-16	6.609657E-19
4.504762E+03	4.174537E-16	6.665400E-19
4.508494E+03	4.217884E-16	6.734611E-19
4.512226E+03	4.252827E-16	6.790404E-19
4.515958E+03	4.272969E-16	6.822565E-19
4.519690E+03	4.289924E-16	6.849636E-19
4.523422E+03	4.312989E-16	6.886463E-19
4.527154E+03	4.330540E-16	6.914487E-19
4.530886E+03	4.345481E-16	6.938342E-19
4.534619E+03	4.354902E-16	6.953385E-19
4.538350E+03	4.359090E-16	6.960071E-19
4.542082E+03	4.358623E-16	6.959326E-19
4.545815E+03	4.354954E-16	6.953468E-19
4.549547E+03	4.357976E-16	6.958294E-19
4.553278E+03	4.353139E-16	6.950569E-19
4.557010E+03	4.343637E-16	6.935398E-19
4.560743E+03	4.334422E-16	6.920685E-19
4.564475E+03	4.321996E-16	6.900845E-19
4.568206E+03	4.301695E-16	6.868431E-19
4.571939E+03	4.277304E-16	6.829485E-19
4.575671E+03	4.253482E-16	6.791450E-19
4.579403E+03	4.230233E-16	6.754328E-19
4.583135E+03	4.209888E-16	6.721844E-19
4.586867E+03	4.179905E-16	6.673970E-19
4.590599E+03	4.140570E-16	6.611165E-19
4.594331E+03	4.101507E-16	6.548793E-19
4.598063E+03	4.061550E-16	6.484996E-19
4.601795E+03	4.024786E-16	6.426295E-19
4.605527E+03	3.977489E-16	6.350777E-19
4.609259E+03	3.933092E-16	6.279889E-19
4.612992E+03	3.897147E-16	6.222496E-19
4.616724E+03	3.846280E-16	6.141278E-19
4.620455E+03	3.803573E-16	6.073089E-19
4.624187E+03	3.751491E-16	5.989930E-19
4.627920E+03	3.702016E-16	5.910934E-19
4.631652E+03	3.657198E-16	5.839374E-19
4.635383E+03	3.620552E-16	5.780862E-19
4.639116E+03	3.590034E-16	5.732135E-19
4.642848E+03	3.553940E-16	5.674504E-19
4.646580E+03	3.516364E-16	5.614508E-19
4.650312E+03	3.474965E-16	5.548407E-19
4.654044E+03	3.442626E-16	5.496771E-19
4.657776E+03	3.414373E-16	5.451661E-19
4.661508E+03	3.383177E-16	5.401850E-19
4.665240E+03	3.351672E-16	5.351547E-19
4.668972E+03	3.324843E-16	5.308710E-19
4.672704E+03	3.301814E-16	5.271940E-19
4.676436E+03	3.273493E-16	5.226721E-19
4.680169E+03	3.245746E-16	5.182418E-19
4.683900E+03	3.209770E-16	5.124975E-19
4.687632E+03	3.175538E-16	5.070318E-19
4.691364E+03	3.145693E-16	5.022665E-19
4.695097E+03	3.125817E-16	4.990930E-19
4.698829E+03	3.114448E-16	4.972777E-19
4.702560E+03	3.097492E-16	4.945703E-19
4.706293E+03	3.081408E-16	4.920023E-19
4.710025E+03	3.067962E-16	4.898554E-19
4.713757E+03	3.059212E-16	4.884582E-19
4.717488E+03	3.056630E-16	4.880459E-19
4.721221E+03	3.044636E-16	4.861309E-19
4.724953E+03	3.038812E-16	4.852010E-19
4.728685E+03	3.040927E-16	4.855388E-19
4.732416E+03	3.039216E-16	4.852656E-19
4.736149E+03	3.031618E-16	4.840524E-19
4.739881E+03	3.031080E-16	4.839665E-19
4.743613E+03	3.038491E-16	4.851498E-19
4.747346E+03	3.052676E-16	4.874147E-19
4.751077E+03	3.062448E-16	4.889749E-19
4.754809E+03	3.069866E-16	4.901593E-19
4.758541E+03	3.080232E-16	4.918145E-19
4.762274E+03	3.090011E-16	4.933759E-19
4.766005E+03	3.097436E-16	4.945614E-19
4.769737E+03	3.115182E-16	4.973948E-19
4.773470E+03	3.126740E-16	4.992403E-19
4.777202E+03	3.147742E-16	5.025936E-19
4.780934E+03	3.166981E-16	5.056654E-19
4.784665E+03	3.186521E-16	5.087854E-19
4.788398E+03	3.197803E-16	5.105868E-19
4.792130E+03	3.199347E-16	5.108332E-19
4.795862E+03	3.201480E-16	5.111739E-19
4.799593E+03	3.206566E-16	5.119859E-19
4.803326E+03	3.214016E-16	5.131754E-19
4.807058E+03	3.229445E-16	5.156390E-19
4.810790E+03	3.246356E-16	5.183392E-19
4.814522E+03	3.265047E-16	5.213235E-19
4.818254E+03	3.287292E-16	5.248753E-19
4.821986E+03	3.315162E-16	5.293253E-19
4.825718E+03	3.336831E-16	5.327852E-19
4.829451E+03	3.345196E-16	5.341207E-19
4.833182E+03	3.347644E-16	5.345116E-19
4.836914E+03	3.361337E-16	5.366980E-19
4.840647E+03	3.378292E-16	5.394051E-19
4.844379E+03	3.393474E-16	5.418293E-19
4.848110E+03	3.410438E-16	5.445378E-19
4.851842E+03	3.423261E-16	5.465852E-19
4.855575E+03	3.434902E-16	5.484440E-19
4.859307E+03	3.445065E-16	5.500667E-19
4.863038E+03	3.458194E-16	5.521629E-19
4.866770E+03	3.469844E-16	5.540231E-19
4.870503E+03	3.476458E-16	5.550791E-19
4.874235E+03	3.489300E-16	5.571295E-19
