#wls	flux	fluxerr
1.600000E+03	9.311307E-15	1.127210E-16
1.640000E+03	9.924907E-15	1.197246E-16
1.680000E+03	1.056538E-14	1.269873E-16
1.720000E+03	1.123063E-14	1.344782E-16
1.760000E+03	1.191777E-14	1.421567E-16
1.800000E+03	1.262284E-14	1.499704E-16
1.840000E+03	1.334065E-14	1.578526E-16
1.880000E+03	1.406448E-14	1.657192E-16
1.920000E+03	1.478584E-14	1.734669E-16
1.960000E+03	1.549397E-14	1.809673E-16
2.000000E+03	1.617545E-14	1.880634E-16
2.040000E+03	1.681342E-14	1.945614E-16
2.080000E+03	1.738715E-14	2.002268E-16
2.120000E+03	1.787506E-14	2.048203E-16
2.160000E+03	1.825362E-14	2.080861E-16
2.200000E+03	1.849416E-14	2.097162E-16
2.240000E+03	1.856425E-14	2.093685E-16
2.280000E+03	1.844214E-14	2.068297E-16
2.320000E+03	1.815736E-14	2.024654E-16
2.360000E+03	1.775015E-14	1.967538E-16
2.400000E+03	1.725750E-14	1.901282E-16
2.440000E+03	1.671255E-14	1.829706E-16
2.480000E+03	1.614394E-14	1.756054E-16
2.520000E+03	1.557551E-14	1.682976E-16
2.560000E+03	1.502418E-14	1.612309E-16
2.600000E+03	1.449755E-14	1.544850E-16
2.640000E+03	1.399624E-14	1.480631E-16
2.680000E+03	1.351789E-14	1.419367E-16
2.720000E+03	1.305921E-14	1.360681E-16
2.760000E+03	1.261702E-14	1.304220E-16
2.800000E+03	1.218853E-14	1.249675E-16
2.840000E+03	1.177135E-14	1.196792E-16
2.880000E+03	1.136346E-14	1.145354E-16
2.920000E+03	1.096316E-14	1.095188E-16
2.960000E+03	1.056899E-14	1.046150E-16
3.000000E+03	1.017967E-14	9.981170E-17
3.010000E+03	1.008298E-14	9.862551E-17
3.020000E+03	9.986519E-15	9.744491E-17
3.030000E+03	9.890274E-15	9.626982E-17
3.040000E+03	9.794230E-15	9.510011E-17
3.050000E+03	9.698362E-15	9.393554E-17
3.060000E+03	9.602681E-15	9.277624E-17
3.070000E+03	9.507148E-15	9.162187E-17
3.080000E+03	9.411797E-15	9.047274E-17
3.090000E+03	9.316587E-15	8.932852E-17
3.100000E+03	9.221531E-15	8.818932E-17
3.110000E+03	9.126614E-15	8.705504E-17
3.120000E+03	9.031824E-15	8.592558E-17
3.130000E+03	8.937174E-15	8.480108E-17
3.140000E+03	8.842674E-15	8.368167E-17
3.150000E+03	8.748292E-15	8.256705E-17
3.160000E+03	8.654042E-15	8.145740E-17
3.170000E+03	8.559913E-15	8.035262E-17
3.180000E+03	8.465922E-15	7.925290E-17
3.190000E+03	8.372082E-15	7.815838E-17
3.200000E+03	8.278387E-15	7.706903E-17
3.210000E+03	8.184852E-15	7.598501E-17
3.220000E+03	8.091472E-15	7.490629E-17
3.230000E+03	7.998264E-15	7.383305E-17
3.240000E+03	7.905225E-15	7.276529E-17
3.250000E+03	7.812394E-15	7.170338E-17
3.260000E+03	7.719747E-15	7.064712E-17
3.270000E+03	7.627324E-15	6.959688E-17
3.280000E+03	7.535146E-15	6.855289E-17
3.290000E+03	7.443211E-15	6.751513E-17
3.300000E+03	7.351520E-15	6.648363E-17
3.310000E+03	7.260137E-15	6.545897E-17
3.320000E+03	7.169042E-15	6.444098E-17
3.330000E+03	7.078259E-15	6.342990E-17
3.340000E+03	6.987813E-15	6.242594E-17
3.350000E+03	6.897726E-15	6.142932E-17
3.360000E+03	6.808008E-15	6.044013E-17
3.370000E+03	6.718702E-15	5.945874E-17
3.380000E+03	6.629801E-15	5.848509E-17
3.390000E+03	6.541352E-15	5.751960E-17
3.400000E+03	6.453349E-15	5.656221E-17
3.410000E+03	6.365827E-15	5.561322E-17
3.420000E+03	6.278803E-15	5.467277E-17
3.430000E+03	6.192296E-15	5.374101E-17
3.440000E+03	6.106330E-15	5.281814E-17
3.450000E+03	6.020967E-15	5.190467E-17
3.460000E+03	5.936237E-15	5.100085E-17
3.470000E+03	5.852189E-15	5.010707E-17
3.480000E+03	5.768859E-15	4.922362E-17
3.490000E+03	5.686322E-15	4.835110E-17
3.500000E+03	5.604625E-15	4.748986E-17
3.510000E+03	5.523813E-15	4.664024E-17
3.520000E+03	5.443942E-15	4.580267E-17
3.530000E+03	5.365053E-15	4.497744E-17
3.540000E+03	5.287241E-15	4.416528E-17
3.550000E+03	5.210572E-15	4.336667E-17
3.560000E+03	5.135083E-15	4.258184E-17
3.570000E+03	5.060865E-15	4.181147E-17
3.580000E+03	4.988007E-15	4.105621E-17
3.590000E+03	4.916572E-15	4.031647E-17
3.600000E+03	4.846638E-15	3.959278E-17
3.610000E+03	4.778298E-15	3.888579E-17
3.620000E+03	4.711614E-15	3.819588E-17
3.630000E+03	4.646676E-15	3.752365E-17
3.640000E+03	4.583558E-15	3.686955E-17
3.650000E+03	4.522330E-15	3.623400E-17
3.660000E+03	4.463071E-15	3.561747E-17
3.670000E+03	4.405855E-15	3.502039E-17
3.680000E+03	4.350741E-15	3.444305E-17
3.690000E+03	4.297775E-15	3.388563E-17
3.700000E+03	4.247016E-15	3.334840E-17
3.710000E+03	4.198510E-15	3.283155E-17
3.720000E+03	4.152287E-15	3.233509E-17
3.730000E+03	4.108407E-15	3.185930E-17
3.740000E+03	4.066851E-15	3.140381E-17
3.750000E+03	4.027663E-15	3.096874E-17
3.760000E+03	3.990844E-15	3.055389E-17
3.770000E+03	3.956359E-15	3.015879E-17
3.780000E+03	3.924217E-15	2.978325E-17
3.790000E+03	3.894383E-15	2.942682E-17
3.800000E+03	3.866811E-15	2.908892E-17
3.810000E+03	3.841426E-15	2.876877E-17
3.820000E+03	3.818178E-15	2.846580E-17
3.830000E+03	3.796961E-15	2.817900E-17
3.840000E+03	3.777679E-15	2.790748E-17
3.850000E+03	3.760205E-15	2.765011E-17
3.860000E+03	3.744412E-15	2.740578E-17
3.870000E+03	3.730125E-15	2.717306E-17
3.880000E+03	3.717183E-15	2.695062E-17
3.890000E+03	3.705415E-15	2.673711E-17
3.900000E+03	3.694618E-15	2.653094E-17
3.910000E+03	3.684600E-15	2.633065E-17
3.920000E+03	3.675128E-15	2.613452E-17
3.930000E+03	3.666001E-15	2.594105E-17
3.940000E+03	3.657028E-15	2.574889E-17
3.950000E+03	3.647968E-15	2.555632E-17
3.960000E+03	3.638644E-15	2.536213E-17
3.970000E+03	3.628877E-15	2.516511E-17
3.980000E+03	3.618472E-15	2.496397E-17
3.990000E+03	3.607281E-15	2.475777E-17
4.000000E+03	3.595175E-15	2.454572E-17
4.010000E+03	3.582031E-15	2.432708E-17
4.020000E+03	3.567745E-15	2.410128E-17
4.030000E+03	3.552250E-15	2.386799E-17
4.040000E+03	3.535503E-15	2.362707E-17
4.050000E+03	3.517465E-15	2.337840E-17
4.060000E+03	3.498121E-15	2.312204E-17
4.070000E+03	3.477496E-15	2.285829E-17
4.080000E+03	3.455603E-15	2.258740E-17
4.090000E+03	3.432544E-15	2.231018E-17
4.100000E+03	3.408366E-15	2.202706E-17
4.110000E+03	3.383184E-15	2.173894E-17
4.120000E+03	3.357135E-15	2.144679E-17
4.130000E+03	3.330361E-15	2.115163E-17
4.140000E+03	3.303004E-15	2.085446E-17
4.150000E+03	3.275247E-15	2.055649E-17
4.160000E+03	3.247282E-15	2.025899E-17
4.170000E+03	3.219258E-15	1.996290E-17
4.180000E+03	3.191377E-15	1.966949E-17
4.190000E+03	3.163773E-15	1.937959E-17
4.200000E+03	3.136608E-15	1.909416E-17
4.210000E+03	3.109978E-15	1.881373E-17
4.220000E+03	3.083995E-15	1.853893E-17
4.230000E+03	3.058709E-15	1.827000E-17
4.240000E+03	3.034130E-15	1.800693E-17
4.250000E+03	3.010242E-15	1.774954E-17
4.260000E+03	2.986988E-15	1.749745E-17
4.270000E+03	2.964314E-15	1.725027E-17
4.280000E+03	2.942072E-15	1.700709E-17
4.290000E+03	2.920178E-15	1.676738E-17
4.300000E+03	2.898459E-15	1.653012E-17
4.310000E+03	2.876801E-15	1.629467E-17
4.320000E+03	2.855102E-15	1.606045E-17
4.330000E+03	2.833289E-15	1.582707E-17
4.340000E+03	2.811516E-15	1.559539E-17
4.350000E+03	2.789960E-15	1.536640E-17
4.360000E+03	2.768908E-15	1.514165E-17
4.370000E+03	2.748672E-15	1.492276E-17
4.380000E+03	2.729593E-15	1.471148E-17
4.390000E+03	2.711941E-15	1.450912E-17
4.400000E+03	2.695791E-15	1.431591E-17
4.410000E+03	2.681035E-15	1.413110E-17
4.420000E+03	2.667477E-15	1.395350E-17
4.430000E+03	2.654958E-15	1.378215E-17
4.440000E+03	2.643361E-15	1.361632E-17
4.450000E+03	2.632575E-15	1.345532E-17
4.460000E+03	2.622536E-15	1.329874E-17
4.470000E+03	2.613197E-15	1.314626E-17
4.480000E+03	2.604507E-15	1.299753E-17
4.490000E+03	2.596423E-15	1.285226E-17
4.500000E+03	2.588913E-15	1.271023E-17
4.510000E+03	2.581917E-15	1.257107E-17
4.520000E+03	2.575371E-15	1.243440E-17
4.530000E+03	2.569237E-15	1.230000E-17
4.540000E+03	2.563452E-15	1.216752E-17
4.550000E+03	2.557923E-15	1.203647E-17
4.560000E+03	2.552628E-15	1.190672E-17
4.570000E+03	2.547500E-15	1.177794E-17
4.580000E+03	2.542501E-15	1.164992E-17
4.590000E+03	2.537653E-15	1.152276E-17
4.600000E+03	2.532916E-15	1.139626E-17
4.610000E+03	2.528330E-15	1.127059E-17
4.620000E+03	2.523977E-15	1.114608E-17
4.630000E+03	2.519912E-15	1.102296E-17
4.640000E+03	2.516281E-15	1.090183E-17
4.650000E+03	2.513279E-15	1.078345E-17
4.660000E+03	2.511129E-15	1.066872E-17
4.670000E+03	2.510057E-15	1.055847E-17
4.680000E+03	2.510271E-15	1.045343E-17
4.690000E+03	2.511961E-15	1.035424E-17
4.700000E+03	2.515278E-15	1.026132E-17
4.710000E+03	2.520375E-15	1.017507E-17
4.720000E+03	2.527307E-15	1.009551E-17
4.730000E+03	2.536099E-15	1.002250E-17
4.740000E+03	2.546719E-15	9.955675E-18
4.750000E+03	2.559034E-15	9.894288E-18
4.760000E+03	2.572883E-15	9.837512E-18
4.770000E+03	2.588023E-15	9.784234E-18
4.780000E+03	2.604148E-15	9.733144E-18
4.790000E+03	2.620897E-15	9.682787E-18
4.800000E+03	2.637844E-15	9.631533E-18
4.810000E+03	2.654548E-15	9.577769E-18
4.820000E+03	2.670555E-15	9.519916E-18
4.830000E+03	2.685387E-15	9.456386E-18
4.840000E+03	2.698628E-15	9.385896E-18
4.850000E+03	2.709832E-15	9.307132E-18
4.860000E+03	2.718668E-15	9.219244E-18
4.870000E+03	2.724803E-15	9.121443E-18
4.880000E+03	2.728062E-15	9.013518E-18
4.890000E+03	2.728241E-15	8.895191E-18
4.900000E+03	2.725296E-15	8.766746E-18
4.910000E+03	2.719219E-15	8.628579E-18
4.920000E+03	2.710092E-15	8.481379E-18
4.930000E+03	2.698058E-15	8.326007E-18
4.940000E+03	2.683268E-15	8.163325E-18
4.950000E+03	2.666002E-15	7.994553E-18
4.960000E+03	2.646461E-15	7.820634E-18
4.970000E+03	2.624973E-15	7.642843E-18
4.980000E+03	2.601789E-15	7.462180E-18
4.990000E+03	2.577203E-15	7.279723E-18
5.000000E+03	2.551503E-15	7.096481E-18
5.010000E+03	2.524964E-15	6.913377E-18
5.020000E+03	2.497798E-15	6.731119E-18
5.030000E+03	2.470259E-15	6.550490E-18
5.040000E+03	2.442558E-15	6.372115E-18
5.050000E+03	2.414834E-15	6.196403E-18
5.060000E+03	2.387265E-15	6.023835E-18
5.070000E+03	2.359983E-15	5.854747E-18
5.080000E+03	2.333052E-15	5.689293E-18
5.090000E+03	2.306597E-15	5.527759E-18
5.100000E+03	2.280620E-15	5.370125E-18
5.110000E+03	2.255204E-15	5.216557E-18
5.120000E+03	2.230360E-15	5.067047E-18
5.130000E+03	2.206082E-15	4.921550E-18
5.140000E+03	2.182375E-15	4.780048E-18
5.150000E+03	2.159237E-15	4.642509E-18
5.160000E+03	2.136638E-15	4.508848E-18
5.170000E+03	2.114604E-15	4.379099E-18
5.180000E+03	2.093063E-15	4.253099E-18
5.190000E+03	2.072018E-15	4.130848E-18
5.200000E+03	2.051432E-15	4.012272E-18
5.210000E+03	2.031310E-15	3.897385E-18
5.220000E+03	2.011619E-15	3.786134E-18
5.230000E+03	1.992349E-15	3.678517E-18
5.240000E+03	1.973492E-15	3.574538E-18
5.250000E+03	1.955025E-15	3.474183E-18
5.260000E+03	1.936946E-15	3.377480E-18
5.270000E+03	1.919277E-15	3.284499E-18
5.280000E+03	1.901988E-15	3.195227E-18
5.290000E+03	1.885106E-15	3.109753E-18
5.300000E+03	1.868664E-15	3.028170E-18
5.310000E+03	1.852624E-15	2.950461E-18
5.320000E+03	1.837060E-15	2.876790E-18
5.330000E+03	1.821959E-15	2.807180E-18
5.340000E+03	1.807344E-15	2.741712E-18
5.350000E+03	1.793258E-15	2.680492E-18
5.360000E+03	1.779725E-15	2.623597E-18
5.370000E+03	1.766749E-15	2.571069E-18
5.380000E+03	1.754368E-15	2.522998E-18
5.390000E+03	1.742580E-15	2.479405E-18
5.400000E+03	1.731407E-15	2.440351E-18
5.410000E+03	1.720902E-15	2.405921E-18
5.420000E+03	1.711066E-15	2.376126E-18
5.430000E+03	1.701992E-15	2.351092E-18
5.440000E+03	1.693499E-15	2.330533E-18
5.450000E+03	1.685423E-15	2.314091E-18
5.460000E+03	1.677578E-15	2.301361E-18
5.470000E+03	1.669829E-15	2.291997E-18
5.480000E+03	1.661970E-15	2.285552E-18
5.490000E+03	1.653783E-15	2.281545E-18
5.500000E+03	1.645182E-15	2.279669E-18
5.510000E+03	1.636322E-15	2.279939E-18
5.520000E+03	1.627390E-15	2.282423E-18
5.530000E+03	1.618552E-15	2.287157E-18
5.540000E+03	1.609924E-15	2.294120E-18
5.550000E+03	1.601577E-15	2.303235E-18
5.560000E+03	1.593544E-15	2.314381E-18
5.570000E+03	1.585895E-15	2.327501E-18
5.580000E+03	1.578656E-15	2.342487E-18
5.590000E+03	1.571831E-15	2.359208E-18
5.600000E+03	1.565466E-15	2.377606E-18
5.610000E+03	1.559552E-15	2.397555E-18
5.620000E+03	1.554098E-15	2.418962E-18
5.630000E+03	1.549140E-15	2.441789E-18
5.640000E+03	1.544664E-15	2.465931E-18
5.650000E+03	1.540689E-15	2.491341E-18
5.660000E+03	1.537211E-15	2.517948E-18
5.670000E+03	1.534247E-15	2.545720E-18
5.680000E+03	1.531758E-15	2.574540E-18
5.690000E+03	1.529787E-15	2.604438E-18
5.700000E+03	1.528305E-15	2.635326E-18
5.710000E+03	1.527297E-15	2.667145E-18
5.720000E+03	1.526759E-15	2.699858E-18
5.730000E+03	1.526666E-15	2.733397E-18
5.740000E+03	1.526984E-15	2.767679E-18
5.750000E+03	1.527678E-15	2.802618E-18
5.760000E+03	1.528734E-15	2.838174E-18
5.770000E+03	1.530067E-15	2.874168E-18
5.780000E+03	1.531656E-15	2.910542E-18
5.790000E+03	1.533417E-15	2.947120E-18
5.800000E+03	1.535301E-15	2.983787E-18
5.810000E+03	1.537236E-15	3.020380E-18
5.820000E+03	1.539149E-15	3.056732E-18
5.830000E+03	1.540982E-15	3.092701E-18
5.840000E+03	1.542664E-15	3.128121E-18
5.850000E+03	1.544106E-15	3.162777E-18
5.860000E+03	1.545280E-15	3.196585E-18
5.870000E+03	1.546113E-15	3.229358E-18
5.880000E+03	1.546571E-15	3.260994E-18
5.890000E+03	1.546617E-15	3.291381E-18
5.900000E+03	1.546201E-15	3.320378E-18
5.910000E+03	1.545341E-15	3.347994E-18
5.920000E+03	1.544028E-15	3.374177E-18
5.930000E+03	1.542243E-15	3.398859E-18
5.940000E+03	1.539992E-15	3.422027E-18
5.950000E+03	1.537331E-15	3.443780E-18
5.960000E+03	1.534263E-15	3.464106E-18
5.970000E+03	1.530794E-15	3.483002E-18
5.980000E+03	1.527012E-15	3.500653E-18
5.990000E+03	1.522890E-15	3.516991E-18
6.000000E+03	1.518500E-15	3.532168E-18
6.010000E+03	1.513850E-15	3.546204E-18
6.020000E+03	1.508989E-15	3.559210E-18
6.030000E+03	1.503921E-15	3.571196E-18
6.040000E+03	1.498686E-15	3.582261E-18
6.050000E+03	1.493257E-15	3.592347E-18
6.060000E+03	1.487688E-15	3.601585E-18
6.070000E+03	1.481943E-15	3.609900E-18
6.080000E+03	1.476044E-15	3.617352E-18
6.090000E+03	1.469949E-15	3.623847E-18
6.100000E+03	1.463656E-15	3.629385E-18
6.110000E+03	1.457179E-15	3.634014E-18
6.120000E+03	1.450455E-15	3.637582E-18
6.130000E+03	1.443480E-15	3.640088E-18
6.140000E+03	1.436253E-15	3.641539E-18
6.150000E+03	1.428783E-15	3.641963E-18
6.160000E+03	1.421038E-15	3.641289E-18
6.170000E+03	1.413056E-15	3.639626E-18
6.180000E+03	1.404845E-15	3.637000E-18
6.190000E+03	1.396459E-15	3.633562E-18
6.200000E+03	1.387903E-15	3.629342E-18
6.210000E+03	1.379272E-15	3.624601E-18
6.220000E+03	1.370632E-15	3.619531E-18
6.230000E+03	1.362057E-15	3.614343E-18
6.240000E+03	1.353630E-15	3.609286E-18
6.250000E+03	1.345445E-15	3.604632E-18
6.260000E+03	1.337619E-15	3.600728E-18
6.270000E+03	1.330278E-15	3.597945E-18
6.280000E+03	1.323494E-15	3.596515E-18
6.290000E+03	1.317399E-15	3.596838E-18
6.300000E+03	1.312127E-15	3.599328E-18
6.310000E+03	1.307793E-15	3.604349E-18
6.320000E+03	1.304485E-15	3.612203E-18
6.330000E+03	1.302306E-15	3.623230E-18
6.340000E+03	1.301390E-15	3.637868E-18
6.350000E+03	1.301773E-15	3.656285E-18
6.360000E+03	1.303529E-15	3.678766E-18
6.370000E+03	1.306692E-15	3.705476E-18
6.380000E+03	1.311243E-15	3.736440E-18
6.390000E+03	1.317190E-15	3.771760E-18
6.400000E+03	1.324449E-15	3.811269E-18
6.410000E+03	1.332917E-15	3.854724E-18
6.420000E+03	1.342489E-15	3.901865E-18
6.430000E+03	1.353015E-15	3.952293E-18
6.440000E+03	1.364341E-15	4.005589E-18
6.450000E+03	1.376339E-15	4.061409E-18
6.460000E+03	1.388867E-15	4.119347E-18
6.470000E+03	1.401883E-15	4.179294E-18
6.480000E+03	1.415300E-15	4.241009E-18
6.490000E+03	1.429166E-15	4.304638E-18
6.500000E+03	1.443457E-15	4.370123E-18
6.510000E+03	1.458118E-15	4.437307E-18
6.520000E+03	1.472977E-15	4.505671E-18
6.530000E+03	1.487711E-15	4.574217E-18
6.540000E+03	1.502087E-15	4.642212E-18
6.550000E+03	1.516126E-15	4.709688E-18
6.560000E+03	1.529737E-15	4.776332E-18
6.570000E+03	1.542649E-15	4.841266E-18
6.580000E+03	1.554462E-15	4.903173E-18
6.590000E+03	1.564789E-15	4.960769E-18
6.600000E+03	1.573272E-15	5.012819E-18
6.610000E+03	1.579490E-15	5.057882E-18
6.620000E+03	1.583270E-15	5.095270E-18
6.630000E+03	1.584401E-15	5.124174E-18
6.640000E+03	1.582756E-15	5.144040E-18
6.650000E+03	1.578338E-15	5.154732E-18
6.660000E+03	1.571167E-15	5.156170E-18
6.670000E+03	1.561406E-15	5.148755E-18
6.680000E+03	1.549128E-15	5.132589E-18
6.690000E+03	1.534614E-15	5.108484E-18
6.700000E+03	1.518037E-15	5.076903E-18
6.710000E+03	1.499644E-15	5.038575E-18
6.720000E+03	1.479721E-15	4.994373E-18
6.730000E+03	1.458501E-15	4.945012E-18
6.740000E+03	1.436268E-15	4.891400E-18
6.750000E+03	1.413215E-15	4.834145E-18
6.760000E+03	1.389628E-15	4.774195E-18
6.770000E+03	1.365699E-15	4.712184E-18
6.780000E+03	1.341647E-15	4.648861E-18
6.790000E+03	1.317597E-15	4.584657E-18
6.800000E+03	1.293731E-15	4.520209E-18
6.810000E+03	1.270181E-15	4.455992E-18
6.820000E+03	1.247059E-15	4.392420E-18
6.830000E+03	1.224459E-15	4.329844E-18
6.840000E+03	1.202454E-15	4.268555E-18
6.850000E+03	1.181079E-15	4.208704E-18
6.860000E+03	1.160399E-15	4.150560E-18
6.870000E+03	1.140422E-15	4.094178E-18
6.880000E+03	1.121187E-15	4.039737E-18
6.890000E+03	1.102701E-15	3.987295E-18
6.900000E+03	1.084916E-15	3.936719E-18
6.910000E+03	1.067891E-15	3.888249E-18
6.920000E+03	1.051544E-15	3.841624E-18
6.930000E+03	1.035897E-15	3.796960E-18
6.940000E+03	1.020885E-15	3.754043E-18
6.950000E+03	1.006522E-15	3.712958E-18
6.960000E+03	9.927584E-16	3.673546E-18
6.970000E+03	9.795626E-16	3.635722E-18
6.980000E+03	9.668830E-16	3.599316E-18
6.990000E+03	9.547285E-16	3.564386E-18
7.000000E+03	9.430279E-16	3.530687E-18
7.010000E+03	9.317706E-16	3.498201E-18
7.020000E+03	9.209274E-16	3.466838E-18
7.030000E+03	9.104516E-16	3.436440E-18
7.040000E+03	9.003180E-16	3.406929E-18
7.050000E+03	8.905224E-16	3.378304E-18
7.060000E+03	8.810441E-16	3.350503E-18
7.070000E+03	8.718454E-16	3.323396E-18
7.080000E+03	8.629105E-16	3.296938E-18
7.090000E+03	8.542263E-16	3.271090E-18
7.100000E+03	8.457817E-16	3.245822E-18
7.110000E+03	8.375682E-16	3.221114E-18
7.120000E+03	8.295974E-16	3.197021E-18
7.130000E+03	8.218276E-16	3.173395E-18
7.140000E+03	8.142738E-16	3.150305E-18
7.150000E+03	8.069518E-16	3.127821E-18
7.160000E+03	7.998065E-16	3.105742E-18
7.170000E+03	7.928908E-16	3.084282E-18
7.180000E+03	7.861686E-16	3.063311E-18
7.190000E+03	7.796572E-16	3.042907E-18
7.200000E+03	7.733384E-16	3.023008E-18
7.210000E+03	7.672285E-16	3.003688E-18
7.220000E+03	7.613082E-16	2.984880E-18
7.230000E+03	7.555750E-16	2.966583E-18
7.240000E+03	7.500427E-16	2.948860E-18
7.250000E+03	7.446899E-16	2.931637E-18
7.260000E+03	7.395114E-16	2.914900E-18
7.270000E+03	7.345186E-16	2.898704E-18
7.280000E+03	7.296710E-16	2.882896E-18
7.290000E+03	7.249791E-16	2.867526E-18
7.300000E+03	7.204355E-16	2.852572E-18
7.310000E+03	7.160337E-16	2.838015E-18
7.320000E+03	7.117670E-16	2.823837E-18
7.330000E+03	7.076293E-16	2.810020E-18
7.340000E+03	7.035990E-16	2.796486E-18
7.350000E+03	6.996723E-16	2.783226E-18
7.360000E+03	6.958631E-16	2.770302E-18
7.370000E+03	6.921702E-16	2.757717E-18
7.380000E+03	6.885609E-16	2.745346E-18
7.390000E+03	6.850704E-16	2.733337E-18
7.400000E+03	6.816857E-16	2.721645E-18
7.410000E+03	6.784119E-16	2.710296E-18
7.420000E+03	6.752390E-16	2.699258E-18
7.430000E+03	6.722074E-16	2.688698E-18
7.440000E+03	6.692932E-16	2.678528E-18
7.450000E+03	6.665221E-16	2.668858E-18
7.460000E+03	6.639043E-16	2.659734E-18
7.470000E+03	6.614335E-16	2.651140E-18
7.480000E+03	6.591532E-16	2.643256E-18
7.490000E+03	6.570408E-16	2.635999E-18
7.500000E+03	6.551390E-16	2.629547E-18
7.510000E+03	6.534408E-16	2.623880E-18
7.520000E+03	6.519550E-16	2.619040E-18
7.530000E+03	6.507059E-16	2.615132E-18
7.540000E+03	6.496839E-16	2.612126E-18
7.550000E+03	6.489118E-16	2.610121E-18
7.560000E+03	6.483946E-16	2.609145E-18
7.570000E+03	6.481366E-16	2.609223E-18
7.580000E+03	6.481408E-16	2.610377E-18
7.590000E+03	6.483925E-16	2.612554E-18
7.600000E+03	6.489267E-16	2.615905E-18
7.610000E+03	6.497262E-16	2.620370E-18
7.620000E+03	6.508073E-16	2.626024E-18
7.630000E+03	6.521330E-16	2.632726E-18
7.640000E+03	6.537340E-16	2.640612E-18
7.650000E+03	6.555877E-16	2.649599E-18
7.660000E+03	6.577050E-16	2.659743E-18
7.670000E+03	6.600598E-16	2.670949E-18
7.680000E+03	6.626601E-16	2.683261E-18
7.690000E+03	6.654764E-16	2.696570E-18
7.700000E+03	6.684956E-16	2.710837E-18
7.710000E+03	6.717212E-16	2.726087E-18
7.720000E+03	6.751378E-16	2.742272E-18
7.730000E+03	6.787101E-16	2.759261E-18
7.740000E+03	6.824392E-16	2.777073E-18
7.750000E+03	6.862880E-16	2.795569E-18
7.760000E+03	6.902568E-16	2.814765E-18
