#wls	flux	fluxerr
1.600000E+03	1.948105E-17	3.257783E-18
1.640000E+03	1.944783E-17	3.232555E-18
1.680000E+03	1.943018E-17	3.209506E-18
1.720000E+03	1.941943E-17	3.187157E-18
1.760000E+03	1.943263E-17	3.168259E-18
1.800000E+03	1.946110E-17	3.151320E-18
1.840000E+03	1.950480E-17	3.136271E-18
1.880000E+03	1.957201E-17	3.124374E-18
1.920000E+03	1.965440E-17	3.114213E-18
1.960000E+03	1.976023E-17	3.107017E-18
2.000000E+03	1.988951E-17	3.102688E-18
2.040000E+03	2.004232E-17	3.101132E-18
2.080000E+03	2.021883E-17	3.102266E-18
2.120000E+03	2.042723E-17	3.107222E-18
2.160000E+03	2.066774E-17	3.115880E-18
2.200000E+03	2.094076E-17	3.128142E-18
2.240000E+03	2.124681E-17	3.143920E-18
2.280000E+03	2.158664E-17	3.163150E-18
2.320000E+03	2.196884E-17	3.186894E-18
2.360000E+03	2.238686E-17	3.213984E-18
2.400000E+03	2.284971E-17	3.245495E-18
2.440000E+03	2.335153E-17	3.280347E-18
2.480000E+03	2.390191E-17	3.319640E-18
2.520000E+03	2.450329E-17	3.363416E-18
2.560000E+03	2.515852E-17	3.411753E-18
2.600000E+03	2.587098E-17	3.464769E-18
2.640000E+03	2.665960E-17	3.524602E-18
2.680000E+03	2.752153E-17	3.590409E-18
2.720000E+03	2.846220E-17	3.662417E-18
2.760000E+03	2.950297E-17	3.742819E-18
2.800000E+03	3.065135E-17	3.831906E-18
2.840000E+03	3.191611E-17	3.930049E-18
2.880000E+03	3.331510E-17	4.038628E-18
2.920000E+03	3.486030E-17	4.158169E-18
2.960000E+03	3.658122E-17	4.291131E-18
3.000000E+03	3.848659E-17	4.437313E-18
3.010000E+03	3.899540E-17	4.476192E-18
3.020000E+03	3.952023E-17	4.516306E-18
3.030000E+03	4.006144E-17	4.557669E-18
3.040000E+03	4.061943E-17	4.600296E-18
3.050000E+03	4.118651E-17	4.643293E-18
3.060000E+03	4.177112E-17	4.687588E-18
3.070000E+03	4.237367E-17	4.733199E-18
3.080000E+03	4.299460E-17	4.780141E-18
3.090000E+03	4.363437E-17	4.828433E-18
3.100000E+03	4.429347E-17	4.878097E-18
3.110000E+03	4.496411E-17	4.928243E-18
3.120000E+03	4.566332E-17	4.980709E-18
3.130000E+03	4.637504E-17	5.033700E-18
3.140000E+03	4.711651E-17	5.089055E-18
3.150000E+03	4.787999E-17	5.145892E-18
3.160000E+03	4.865757E-17	5.203323E-18
3.170000E+03	4.946684E-17	5.263194E-18
3.180000E+03	5.029998E-17	5.324623E-18
3.190000E+03	5.115768E-17	5.387637E-18
3.200000E+03	5.204935E-17	5.453177E-18
3.210000E+03	5.296712E-17	5.520364E-18
3.220000E+03	5.391174E-17	5.589228E-18
3.230000E+03	5.488402E-17	5.659802E-18
3.240000E+03	5.589374E-17	5.733039E-18
3.250000E+03	5.694194E-17	5.808977E-18
3.260000E+03	5.802064E-17	5.886739E-18
3.270000E+03	5.913081E-17	5.966364E-18
3.280000E+03	6.028263E-17	6.048816E-18
3.290000E+03	6.148663E-17	6.135070E-18
3.300000E+03	6.271628E-17	6.222400E-18
3.310000E+03	6.400080E-17	6.313638E-18
3.320000E+03	6.533233E-17	6.407913E-18
3.330000E+03	6.671238E-17	6.505287E-18
3.340000E+03	6.814250E-17	6.605820E-18
3.350000E+03	6.962443E-17	6.709587E-18
3.360000E+03	7.115983E-17	6.816651E-18
3.370000E+03	7.276049E-17	6.928035E-18
3.380000E+03	7.441861E-17	7.042880E-18
3.390000E+03	7.614634E-17	7.162221E-18
3.400000E+03	7.793584E-17	7.285196E-18
3.410000E+03	7.981004E-17	7.413820E-18
3.420000E+03	8.175115E-17	7.546292E-18
3.430000E+03	8.377219E-17	7.683682E-18
3.440000E+03	8.587613E-17	7.826109E-18
3.450000E+03	8.806609E-17	7.973702E-18
3.460000E+03	9.034544E-17	8.126600E-18
3.470000E+03	9.272866E-17	8.285929E-18
3.480000E+03	9.520862E-17	8.450862E-18
3.490000E+03	9.780050E-17	8.622553E-18
3.500000E+03	1.005086E-16	8.801170E-18
3.510000E+03	1.033379E-16	8.986914E-18
3.520000E+03	1.062813E-16	9.178960E-18
3.530000E+03	1.093672E-16	9.379523E-18
3.540000E+03	1.125896E-16	9.587807E-18
3.550000E+03	1.159659E-16	9.805039E-18
3.560000E+03	1.194902E-16	1.003042E-17
3.570000E+03	1.231807E-16	1.026520E-17
3.580000E+03	1.270443E-16	1.050961E-17
3.590000E+03	1.310877E-16	1.076389E-17
3.600000E+03	1.353178E-16	1.102825E-17
3.610000E+03	1.397552E-16	1.130399E-17
3.620000E+03	1.443946E-16	1.159029E-17
3.630000E+03	1.492435E-16	1.188736E-17
3.640000E+03	1.543373E-16	1.219761E-17
3.650000E+03	1.596575E-16	1.251910E-17
3.660000E+03	1.652261E-16	1.285311E-17
3.670000E+03	1.710521E-16	1.319986E-17
3.680000E+03	1.771590E-16	1.356063E-17
3.690000E+03	1.835415E-16	1.393450E-17
3.700000E+03	1.902238E-16	1.432273E-17
3.710000E+03	1.972153E-16	1.472548E-17
3.720000E+03	2.045100E-16	1.514166E-17
3.730000E+03	2.121482E-16	1.557367E-17
3.740000E+03	2.201074E-16	1.601919E-17
3.750000E+03	2.284449E-16	1.648173E-17
3.760000E+03	2.371206E-16	1.695769E-17
3.770000E+03	2.461923E-16	1.745050E-17
3.780000E+03	2.556343E-16	1.795757E-17
3.790000E+03	2.654705E-16	1.847987E-17
3.800000E+03	2.757252E-16	1.901828E-17
3.810000E+03	2.863861E-16	1.957116E-17
3.820000E+03	2.974575E-16	2.013798E-17
3.830000E+03	3.089607E-16	2.071939E-17
3.840000E+03	3.208978E-16	2.131466E-17
3.850000E+03	3.332691E-16	2.192299E-17
3.860000E+03	3.460531E-16	2.254210E-17
3.870000E+03	3.593058E-16	2.317481E-17
3.880000E+03	3.729616E-16	2.381602E-17
3.890000E+03	3.870531E-16	2.446698E-17
3.900000E+03	4.015704E-16	2.512623E-17
3.910000E+03	4.165011E-16	2.579218E-17
3.920000E+03	4.318301E-16	2.646308E-17
3.930000E+03	4.475394E-16	2.713708E-17
3.940000E+03	4.636307E-16	2.781353E-17
3.950000E+03	4.800362E-16	2.848768E-17
3.960000E+03	4.967978E-16	2.916137E-17
3.970000E+03	5.138419E-16	2.982966E-17
3.980000E+03	5.311610E-16	3.049157E-17
3.990000E+03	5.487229E-16	3.114474E-17
4.000000E+03	5.664929E-16	3.178679E-17
4.010000E+03	5.844352E-16	3.241535E-17
4.020000E+03	6.025128E-16	3.302806E-17
4.030000E+03	6.207121E-16	3.362397E-17
4.040000E+03	6.389707E-16	3.419954E-17
4.050000E+03	6.572751E-16	3.475397E-17
4.060000E+03	6.755630E-16	3.528396E-17
4.070000E+03	6.938229E-16	3.578901E-17
4.080000E+03	7.119945E-16	3.626615E-17
4.090000E+03	7.300700E-16	3.671522E-17
4.100000E+03	7.480186E-16	3.713495E-17
4.110000E+03	7.657869E-16	3.752303E-17
4.120000E+03	7.833752E-16	3.787992E-17
4.130000E+03	8.007618E-16	3.820500E-17
4.140000E+03	8.179030E-16	3.849671E-17
4.150000E+03	8.348099E-16	3.875612E-17
4.160000E+03	8.514462E-16	3.898213E-17
4.170000E+03	8.678305E-16	3.917621E-17
4.180000E+03	8.839343E-16	3.933770E-17
4.190000E+03	8.997584E-16	3.946729E-17
4.200000E+03	9.153065E-16	3.956581E-17
4.210000E+03	9.306132E-16	3.963540E-17
4.220000E+03	9.456127E-16	3.967390E-17
4.230000E+03	9.603964E-16	3.968583E-17
4.240000E+03	9.749308E-16	3.967040E-17
4.250000E+03	9.892373E-16	3.962911E-17
4.260000E+03	1.003341E-15	3.956354E-17
4.270000E+03	1.017243E-15	3.947436E-17
4.280000E+03	1.030999E-15	3.936419E-17
4.290000E+03	1.044618E-15	3.923389E-17
4.300000E+03	1.058115E-15	3.908446E-17
4.310000E+03	1.071553E-15	3.891870E-17
4.320000E+03	1.084956E-15	3.873776E-17
4.330000E+03	1.098373E-15	3.854368E-17
4.340000E+03	1.111836E-15	3.833781E-17
4.350000E+03	1.125403E-15	3.812232E-17
4.360000E+03	1.139138E-15	3.789943E-17
4.370000E+03	1.153061E-15	3.766979E-17
4.380000E+03	1.167279E-15	3.743681E-17
4.390000E+03	1.181780E-15	3.719999E-17
4.400000E+03	1.196635E-15	3.696130E-17
4.410000E+03	1.211878E-15	3.672157E-17
4.420000E+03	1.227487E-15	3.647992E-17
4.430000E+03	1.243506E-15	3.623737E-17
4.440000E+03	1.259904E-15	3.599282E-17
4.450000E+03	1.276716E-15	3.574710E-17
4.460000E+03	1.293930E-15	3.549972E-17
4.470000E+03	1.311555E-15	3.525074E-17
4.480000E+03	1.329547E-15	3.499899E-17
4.490000E+03	1.347931E-15	3.474507E-17
4.500000E+03	1.366677E-15	3.448830E-17
4.510000E+03	1.385773E-15	3.422847E-17
4.520000E+03	1.405156E-15	3.396425E-17
4.530000E+03	1.424819E-15	3.369585E-17
4.540000E+03	1.444684E-15	3.342182E-17
4.550000E+03	1.464708E-15	3.314151E-17
4.560000E+03	1.484817E-15	3.285347E-17
4.570000E+03	1.504955E-15	3.255680E-17
4.580000E+03	1.525037E-15	3.225017E-17
4.590000E+03	1.544976E-15	3.193235E-17
4.600000E+03	1.564681E-15	3.160224E-17
4.610000E+03	1.584105E-15	3.125981E-17
4.620000E+03	1.603115E-15	3.090350E-17
4.630000E+03	1.621667E-15	3.053366E-17
4.640000E+03	1.639680E-15	3.015017E-17
4.650000E+03	1.657057E-15	2.975272E-17
4.660000E+03	1.673775E-15	2.934255E-17
4.670000E+03	1.689757E-15	2.892006E-17
4.680000E+03	1.705005E-15	2.848714E-17
4.690000E+03	1.719445E-15	2.804449E-17
4.700000E+03	1.733127E-15	2.759503E-17
4.710000E+03	1.746013E-15	2.714019E-17
4.720000E+03	1.758165E-15	2.668313E-17
4.730000E+03	1.769621E-15	2.622663E-17
4.740000E+03	1.780437E-15	2.577372E-17
4.750000E+03	1.790729E-15	2.532835E-17
4.760000E+03	1.800580E-15	2.489389E-17
4.770000E+03	1.810082E-15	2.447387E-17
4.780000E+03	1.819378E-15	2.407245E-17
4.790000E+03	1.828521E-15	2.369258E-17
4.800000E+03	1.837570E-15	2.333731E-17
4.810000E+03	1.846511E-15	2.300883E-17
4.820000E+03	1.855342E-15	2.270951E-17
4.830000E+03	1.864053E-15	2.244167E-17
4.840000E+03	1.872593E-15	2.220716E-17
4.850000E+03	1.880955E-15	2.200832E-17
4.860000E+03	1.889157E-15	2.184769E-17
4.870000E+03	1.897133E-15	2.172665E-17
4.880000E+03	1.904919E-15	2.164759E-17
4.890000E+03	1.912492E-15	2.161197E-17
4.900000E+03	1.919851E-15	2.162069E-17
4.910000E+03	1.926995E-15	2.167233E-17
4.920000E+03	1.933920E-15	2.176453E-17
4.930000E+03	1.940642E-15	2.189488E-17
4.940000E+03	1.947153E-15	2.206046E-17
4.950000E+03	1.953423E-15	2.225797E-17
4.960000E+03	1.959480E-15	2.248464E-17
4.970000E+03	1.965292E-15	2.273699E-17
4.980000E+03	1.970886E-15	2.301221E-17
4.990000E+03	1.976210E-15	2.330660E-17
5.000000E+03	1.981313E-15	2.361778E-17
5.010000E+03	1.986165E-15	2.394250E-17
5.020000E+03	1.990774E-15	2.427812E-17
5.030000E+03	1.995136E-15	2.462198E-17
5.040000E+03	1.999242E-15	2.497155E-17
5.050000E+03	2.003129E-15	2.532500E-17
5.060000E+03	2.006776E-15	2.567995E-17
5.070000E+03	2.010201E-15	2.603470E-17
5.080000E+03	2.013425E-15	2.638773E-17
5.090000E+03	2.016449E-15	2.673743E-17
5.100000E+03	2.019295E-15	2.708266E-17
5.110000E+03	2.021947E-15	2.742183E-17
5.120000E+03	2.024444E-15	2.775433E-17
5.130000E+03	2.026789E-15	2.807913E-17
5.140000E+03	2.029002E-15	2.839562E-17
5.150000E+03	2.031079E-15	2.870294E-17
5.160000E+03	2.033040E-15	2.900066E-17
5.170000E+03	2.034855E-15	2.928781E-17
5.180000E+03	2.036558E-15	2.956437E-17
5.190000E+03	2.038158E-15	2.983010E-17
5.200000E+03	2.039619E-15	3.008416E-17
5.210000E+03	2.040946E-15	3.032643E-17
5.220000E+03	2.042119E-15	3.055642E-17
5.230000E+03	2.043156E-15	3.077439E-17
5.240000E+03	2.044035E-15	3.097995E-17
5.250000E+03	2.044727E-15	3.117280E-17
5.260000E+03	2.045208E-15	3.135265E-17
5.270000E+03	2.045469E-15	3.151958E-17
5.280000E+03	2.045523E-15	3.167405E-17
5.290000E+03	2.045302E-15	3.181529E-17
5.300000E+03	2.044820E-15	3.194391E-17
5.310000E+03	2.044031E-15	3.205960E-17
5.320000E+03	2.042975E-15	3.216346E-17
5.330000E+03	2.041589E-15	3.225501E-17
5.340000E+03	2.039899E-15	3.233522E-17
5.350000E+03	2.037870E-15	3.240416E-17
5.360000E+03	2.035535E-15	3.246298E-17
5.370000E+03	2.032867E-15	3.251194E-17
5.380000E+03	2.029904E-15	3.255238E-17
5.390000E+03	2.026629E-15	3.258474E-17
5.400000E+03	2.023068E-15	3.261021E-17
5.410000E+03	2.019229E-15	3.262969E-17
5.420000E+03	2.015121E-15	3.264416E-17
5.430000E+03	2.010798E-15	3.265526E-17
5.440000E+03	2.006250E-15	3.266365E-17
5.450000E+03	2.001494E-15	3.267038E-17
5.460000E+03	1.996539E-15	3.267640E-17
5.470000E+03	1.991438E-15	3.268333E-17
5.480000E+03	1.986184E-15	3.269181E-17
5.490000E+03	1.980792E-15	3.270226E-17
5.500000E+03	1.975300E-15	3.271460E-17
5.510000E+03	1.969710E-15	3.272804E-17
5.520000E+03	1.964088E-15	3.274284E-17
5.530000E+03	1.958404E-15	3.275764E-17
5.540000E+03	1.952741E-15	3.277303E-17
5.550000E+03	1.947083E-15	3.278792E-17
5.560000E+03	1.941450E-15	3.280186E-17
5.570000E+03	1.935860E-15	3.281436E-17
5.580000E+03	1.930347E-15	3.282528E-17
5.590000E+03	1.924907E-15	3.283378E-17
5.600000E+03	1.919549E-15	3.283935E-17
5.610000E+03	1.914270E-15	3.284124E-17
5.620000E+03	1.909101E-15	3.283933E-17
5.630000E+03	1.904034E-15	3.283289E-17
5.640000E+03	1.899084E-15	3.282159E-17
5.650000E+03	1.894267E-15	3.280514E-17
5.660000E+03	1.889582E-15	3.278297E-17
5.670000E+03	1.885027E-15	3.275460E-17
5.680000E+03	1.880660E-15	3.272054E-17
5.690000E+03	1.876466E-15	3.268010E-17
5.700000E+03	1.872449E-15	3.263295E-17
5.710000E+03	1.868670E-15	3.257975E-17
5.720000E+03	1.865098E-15	3.251964E-17
5.730000E+03	1.861793E-15	3.245333E-17
5.740000E+03	1.858745E-15	3.238031E-17
5.750000E+03	1.855977E-15	3.230074E-17
5.760000E+03	1.853493E-15	3.221441E-17
5.770000E+03	1.851332E-15	3.212174E-17
5.780000E+03	1.849495E-15	3.202256E-17
5.790000E+03	1.847980E-15	3.191659E-17
5.800000E+03	1.846782E-15	3.180359E-17
5.810000E+03	1.845948E-15	3.168418E-17
5.820000E+03	1.845428E-15	3.155738E-17
5.830000E+03	1.845245E-15	3.142342E-17
5.840000E+03	1.845381E-15	3.128187E-17
5.850000E+03	1.845811E-15	3.113227E-17
5.860000E+03	1.846548E-15	3.097474E-17
5.870000E+03	1.847560E-15	3.080869E-17
5.880000E+03	1.848817E-15	3.063366E-17
5.890000E+03	1.850283E-15	3.044905E-17
5.900000E+03	1.851957E-15	3.025493E-17
5.910000E+03	1.853799E-15	3.005076E-17
5.920000E+03	1.855786E-15	2.983631E-17
5.930000E+03	1.857859E-15	2.961085E-17
5.940000E+03	1.860010E-15	2.937452E-17
5.950000E+03	1.862212E-15	2.912724E-17
5.960000E+03	1.864404E-15	2.886843E-17
5.970000E+03	1.866576E-15	2.859841E-17
5.980000E+03	1.868684E-15	2.831706E-17
5.990000E+03	1.870680E-15	2.802428E-17
6.000000E+03	1.872572E-15	2.772091E-17
6.010000E+03	1.874279E-15	2.740653E-17
6.020000E+03	1.875786E-15	2.708186E-17
6.030000E+03	1.877048E-15	2.674723E-17
6.040000E+03	1.878029E-15	2.640328E-17
6.050000E+03	1.878714E-15	2.605101E-17
6.060000E+03	1.879031E-15	2.569077E-17
6.070000E+03	1.878962E-15	2.532380E-17
6.080000E+03	1.878468E-15	2.495116E-17
6.090000E+03	1.877476E-15	2.457359E-17
6.100000E+03	1.875981E-15	2.419290E-17
6.110000E+03	1.873910E-15	2.381010E-17
6.120000E+03	1.871263E-15	2.342729E-17
6.130000E+03	1.867969E-15	2.304578E-17
6.140000E+03	1.864023E-15	2.266779E-17
6.150000E+03	1.859404E-15	2.229543E-17
6.160000E+03	1.854101E-15	2.193102E-17
6.170000E+03	1.848102E-15	2.157681E-17
6.180000E+03	1.841445E-15	2.123572E-17
6.190000E+03	1.834148E-15	2.091034E-17
6.200000E+03	1.826288E-15	2.060385E-17
6.210000E+03	1.817941E-15	2.031932E-17
6.220000E+03	1.809187E-15	2.005964E-17
6.230000E+03	1.800160E-15	1.982754E-17
6.240000E+03	1.790948E-15	1.962357E-17
6.250000E+03	1.781619E-15	1.944761E-17
6.260000E+03	1.772233E-15	1.929940E-17
6.270000E+03	1.762837E-15	1.917843E-17
6.280000E+03	1.753470E-15	1.908402E-17
6.290000E+03	1.744213E-15	1.901595E-17
6.300000E+03	1.735103E-15	1.897348E-17
6.310000E+03	1.726269E-15	1.895694E-17
6.320000E+03	1.717808E-15	1.896630E-17
6.330000E+03	1.709803E-15	1.900148E-17
6.340000E+03	1.702394E-15	1.906314E-17
6.350000E+03	1.695688E-15	1.915167E-17
6.360000E+03	1.689805E-15	1.926773E-17
6.370000E+03	1.684807E-15	1.941150E-17
6.380000E+03	1.680832E-15	1.958419E-17
6.390000E+03	1.677938E-15	1.978620E-17
6.400000E+03	1.676203E-15	2.001839E-17
6.410000E+03	1.675656E-15	2.028111E-17
6.420000E+03	1.676338E-15	2.057507E-17
6.430000E+03	1.678277E-15	2.090090E-17
6.440000E+03	1.681427E-15	2.125844E-17
6.450000E+03	1.685773E-15	2.164796E-17
6.460000E+03	1.691287E-15	2.206907E-17
6.470000E+03	1.697890E-15	2.252005E-17
6.480000E+03	1.705520E-15	2.299936E-17
6.490000E+03	1.714098E-15	2.350523E-17
6.500000E+03	1.723503E-15	2.403534E-17
6.510000E+03	1.733641E-15	2.458761E-17
6.520000E+03	1.744360E-15	2.515915E-17
6.530000E+03	1.755503E-15	2.574688E-17
6.540000E+03	1.766875E-15	2.634703E-17
6.550000E+03	1.778273E-15	2.695556E-17
6.560000E+03	1.789466E-15	2.756781E-17
6.570000E+03	1.800254E-15	2.817946E-17
6.580000E+03	1.810386E-15	2.878516E-17
6.590000E+03	1.819661E-15	2.938019E-17
6.600000E+03	1.827873E-15	2.995957E-17
6.610000E+03	1.834856E-15	3.051887E-17
6.620000E+03	1.840450E-15	3.105358E-17
6.630000E+03	1.844522E-15	3.155961E-17
6.640000E+03	1.846966E-15	3.203328E-17
6.650000E+03	1.847730E-15	3.247178E-17
6.660000E+03	1.846753E-15	3.287221E-17
6.670000E+03	1.844045E-15	3.323295E-17
6.680000E+03	1.839627E-15	3.355269E-17
6.690000E+03	1.833526E-15	3.383032E-17
6.700000E+03	1.825860E-15	3.406656E-17
6.710000E+03	1.816684E-15	3.426112E-17
6.720000E+03	1.806157E-15	3.441581E-17
6.730000E+03	1.794370E-15	3.453135E-17
6.740000E+03	1.781489E-15	3.461007E-17
6.750000E+03	1.767665E-15	3.465419E-17
6.760000E+03	1.753053E-15	3.466622E-17
6.770000E+03	1.737791E-15	3.464844E-17
6.780000E+03	1.722051E-15	3.460405E-17
6.790000E+03	1.705984E-15	3.453592E-17
6.800000E+03	1.689709E-15	3.444642E-17
6.810000E+03	1.673382E-15	3.433876E-17
6.820000E+03	1.657082E-15	3.421471E-17
6.830000E+03	1.640960E-15	3.407761E-17
6.840000E+03	1.625098E-15	3.392938E-17
6.850000E+03	1.609582E-15	3.377212E-17
6.860000E+03	1.594486E-15	3.360775E-17
6.870000E+03	1.579855E-15	3.343751E-17
6.880000E+03	1.565760E-15	3.326329E-17
6.890000E+03	1.552225E-15	3.308597E-17
6.900000E+03	1.539301E-15	3.290694E-17
6.910000E+03	1.526992E-15	3.272669E-17
6.920000E+03	1.515293E-15	3.254541E-17
6.930000E+03	1.504250E-15	3.236443E-17
6.940000E+03	1.493828E-15	3.218326E-17
6.950000E+03	1.484059E-15	3.200288E-17
6.960000E+03	1.474878E-15	3.182213E-17
6.970000E+03	1.466309E-15	3.164177E-17
6.980000E+03	1.458316E-15	3.146122E-17
6.990000E+03	1.450900E-15	3.128071E-17
7.000000E+03	1.444000E-15	3.109913E-17
7.010000E+03	1.437614E-15	3.091651E-17
7.020000E+03	1.431715E-15	3.073249E-17
7.030000E+03	1.426261E-15	3.054625E-17
7.040000E+03	1.421243E-15	3.035776E-17
7.050000E+03	1.416618E-15	3.016618E-17
7.060000E+03	1.412359E-15	2.997108E-17
7.070000E+03	1.408443E-15	2.977201E-17
7.080000E+03	1.404840E-15	2.956853E-17
7.090000E+03	1.401527E-15	2.936021E-17
7.100000E+03	1.398481E-15	2.914667E-17
7.110000E+03	1.395656E-15	2.892711E-17
7.120000E+03	1.393029E-15	2.870118E-17
7.130000E+03	1.390595E-15	2.846889E-17
7.140000E+03	1.388314E-15	2.822956E-17
7.150000E+03	1.386160E-15	2.798290E-17
7.160000E+03	1.384095E-15	2.772827E-17
7.170000E+03	1.382131E-15	2.746617E-17
7.180000E+03	1.380212E-15	2.719567E-17
7.190000E+03	1.378333E-15	2.691697E-17
7.200000E+03	1.376453E-15	2.662956E-17
7.210000E+03	1.374573E-15	2.633374E-17
7.220000E+03	1.372653E-15	2.602911E-17
7.230000E+03	1.370672E-15	2.571565E-17
7.240000E+03	1.368611E-15	2.539344E-17
7.250000E+03	1.366435E-15	2.506229E-17
7.260000E+03	1.364162E-15	2.472300E-17
7.270000E+03	1.361758E-15	2.437551E-17
7.280000E+03	1.359190E-15	2.401976E-17
7.290000E+03	1.356442E-15	2.365616E-17
7.300000E+03	1.353541E-15	2.328579E-17
7.310000E+03	1.350420E-15	2.290821E-17
7.320000E+03	1.347106E-15	2.252464E-17
7.330000E+03	1.343574E-15	2.213546E-17
7.340000E+03	1.339835E-15	2.174168E-17
7.350000E+03	1.335849E-15	2.134353E-17
7.360000E+03	1.331652E-15	2.094250E-17
7.370000E+03	1.327205E-15	2.053895E-17
7.380000E+03	1.322545E-15	2.013449E-17
7.390000E+03	1.317640E-15	1.972964E-17
7.400000E+03	1.312512E-15	1.932584E-17
7.410000E+03	1.307169E-15	1.892432E-17
7.420000E+03	1.301598E-15	1.852604E-17
7.430000E+03	1.295848E-15	1.813289E-17
7.440000E+03	1.289893E-15	1.774570E-17
7.450000E+03	1.283744E-15	1.736587E-17
7.460000E+03	1.277455E-15	1.699536E-17
7.470000E+03	1.271005E-15	1.663513E-17
7.480000E+03	1.264431E-15	1.628692E-17
7.490000E+03	1.257736E-15	1.595199E-17
7.500000E+03	1.250981E-15	1.563232E-17
7.510000E+03	1.244155E-15	1.532892E-17
7.520000E+03	1.237306E-15	1.504354E-17
7.530000E+03	1.230486E-15	1.477780E-17
7.540000E+03	1.223696E-15	1.453270E-17
7.550000E+03	1.217014E-15	1.430999E-17
7.560000E+03	1.210486E-15	1.411081E-17
7.570000E+03	1.204144E-15	1.393485E-17
7.580000E+03	1.198056E-15	1.378163E-17
7.590000E+03	1.192260E-15	1.365028E-17
7.600000E+03	1.186846E-15	1.354045E-17
7.610000E+03	1.181836E-15	1.345105E-17
7.620000E+03	1.177257E-15	1.338101E-17
7.630000E+03	1.173127E-15	1.332922E-17
7.640000E+03	1.169408E-15	1.329398E-17
7.650000E+03	1.166090E-15	1.327393E-17
7.660000E+03	1.163139E-15	1.326755E-17
7.670000E+03	1.160527E-15	1.327341E-17
7.680000E+03	1.158210E-15	1.328998E-17
7.690000E+03	1.156200E-15	1.331648E-17
7.700000E+03	1.154478E-15	1.335181E-17
7.710000E+03	1.153008E-15	1.339477E-17
7.720000E+03	1.151774E-15	1.344449E-17
7.730000E+03	1.150780E-15	1.350038E-17
7.740000E+03	1.150009E-15	1.356172E-17
7.750000E+03	1.149446E-15	1.362789E-17
7.760000E+03	1.149077E-15	1.369832E-17
