#wls	flux	fluxerr
1.600000E+03	2.047722E-17	5.055887E-18
1.640000E+03	2.047286E-17	5.025255E-18
1.680000E+03	2.046758E-17	4.993728E-18
1.720000E+03	2.046120E-17	4.961256E-18
1.760000E+03	2.046156E-17	4.929723E-18
1.800000E+03	2.046825E-17	4.898987E-18
1.840000E+03	2.048090E-17	4.868916E-18
1.880000E+03	2.049149E-17	4.837581E-18
1.920000E+03	2.051516E-17	4.808523E-18
1.960000E+03	2.053644E-17	4.778067E-18
2.000000E+03	2.056283E-17	4.747939E-18
2.040000E+03	2.060144E-17	4.719727E-18
2.080000E+03	2.063763E-17	4.690026E-18
2.120000E+03	2.068582E-17	4.662083E-18
2.160000E+03	2.073893E-17	4.634229E-18
2.200000E+03	2.080400E-17	4.607982E-18
2.240000E+03	2.088111E-17	4.583267E-18
2.280000E+03	2.096384E-17	4.558598E-18
2.320000E+03	2.105285E-17	4.534066E-18
2.360000E+03	2.115541E-17	4.511155E-18
2.400000E+03	2.127858E-17	4.491251E-18
2.440000E+03	2.141062E-17	4.471739E-18
2.480000E+03	2.155302E-17	4.452846E-18
2.520000E+03	2.171973E-17	4.437322E-18
2.560000E+03	2.190041E-17	4.422883E-18
2.600000E+03	2.210937E-17	4.412255E-18
2.640000E+03	2.233745E-17	4.403394E-18
2.680000E+03	2.259962E-17	4.399036E-18
2.720000E+03	2.288808E-17	4.397390E-18
2.760000E+03	2.321881E-17	4.401241E-18
2.800000E+03	2.359697E-17	4.411177E-18
2.840000E+03	2.402313E-17	4.426877E-18
2.880000E+03	2.451576E-17	4.451250E-18
2.920000E+03	2.508350E-17	4.485229E-18
2.960000E+03	2.573666E-17	4.529933E-18
3.000000E+03	2.649877E-17	4.588626E-18
3.010000E+03	2.670749E-17	4.605567E-18
3.020000E+03	2.692177E-17	4.623086E-18
3.030000E+03	2.714746E-17	4.642166E-18
3.040000E+03	2.738486E-17	4.662836E-18
3.050000E+03	2.762869E-17	4.684173E-18
3.060000E+03	2.787926E-17	4.706210E-18
3.070000E+03	2.814252E-17	4.729931E-18
3.080000E+03	2.841884E-17	4.755371E-18
3.090000E+03	2.870862E-17	4.782562E-18
3.100000E+03	2.900094E-17	4.809662E-18
3.110000E+03	2.931320E-17	4.839535E-18
3.120000E+03	2.963450E-17	4.870345E-18
3.130000E+03	2.997675E-17	4.904013E-18
3.140000E+03	3.032325E-17	4.937772E-18
3.150000E+03	3.069176E-17	4.974488E-18
3.160000E+03	3.107131E-17	5.012339E-18
3.170000E+03	3.147411E-17	5.053255E-18
3.180000E+03	3.188912E-17	5.095418E-18
3.190000E+03	3.232286E-17	5.139831E-18
3.200000E+03	3.277602E-17	5.186560E-18
3.210000E+03	3.324937E-17	5.235674E-18
3.220000E+03	3.374370E-17	5.287246E-18
3.230000E+03	3.425983E-17	5.341354E-18
3.240000E+03	3.479865E-17	5.398081E-18
3.250000E+03	3.536724E-17	5.458458E-18
3.260000E+03	3.595436E-17	5.520688E-18
3.270000E+03	3.657335E-17	5.586760E-18
3.280000E+03	3.721919E-17	5.655831E-18
3.290000E+03	3.789305E-17	5.728007E-18
3.300000E+03	3.860253E-17	5.804361E-18
3.310000E+03	3.934267E-17	5.884059E-18
3.320000E+03	4.012134E-17	5.968193E-18
3.330000E+03	4.093362E-17	6.055934E-18
3.340000E+03	4.178768E-17	6.148399E-18
3.350000E+03	4.267862E-17	6.244764E-18
3.360000E+03	4.361496E-17	6.346170E-18
3.370000E+03	4.459875E-17	6.452796E-18
3.380000E+03	4.563214E-17	6.564828E-18
3.390000E+03	4.671033E-17	6.681451E-18
3.400000E+03	4.784980E-17	6.804887E-18
3.410000E+03	4.903883E-17	6.933323E-18
3.420000E+03	5.029453E-17	7.069029E-18
3.430000E+03	5.161258E-17	7.211227E-18
3.440000E+03	5.299595E-17	7.360165E-18
3.450000E+03	5.444780E-17	7.516107E-18
3.460000E+03	5.597924E-17	7.680392E-18
3.470000E+03	5.758622E-17	7.852259E-18
3.480000E+03	5.928048E-17	8.033096E-18
3.490000E+03	6.105812E-17	8.222144E-18
3.500000E+03	6.293156E-17	8.420842E-18
3.510000E+03	6.490555E-17	8.629563E-18
3.520000E+03	6.698506E-17	8.848695E-18
3.530000E+03	6.916652E-17	9.077485E-18
3.540000E+03	7.147289E-17	9.318649E-18
3.550000E+03	7.390126E-17	9.571474E-18
3.560000E+03	7.645767E-17	9.836406E-18
3.570000E+03	7.915794E-17	1.011512E-17
3.580000E+03	8.199951E-17	1.040690E-17
3.590000E+03	8.498924E-17	1.071222E-17
3.600000E+03	8.814451E-17	1.103285E-17
3.610000E+03	9.147329E-17	1.136934E-17
3.620000E+03	9.498411E-17	1.172225E-17
3.630000E+03	9.868561E-17	1.209215E-17
3.640000E+03	1.025871E-16	1.247965E-17
3.650000E+03	1.066977E-16	1.288530E-17
3.660000E+03	1.110272E-16	1.330969E-17
3.670000E+03	1.155975E-16	1.375483E-17
3.680000E+03	1.204074E-16	1.421989E-17
3.690000E+03	1.254797E-16	1.470691E-17
3.700000E+03	1.308261E-16	1.521649E-17
3.710000E+03	1.364449E-16	1.574769E-17
3.720000E+03	1.423740E-16	1.630410E-17
3.730000E+03	1.486123E-16	1.688471E-17
3.740000E+03	1.551720E-16	1.749004E-17
3.750000E+03	1.620648E-16	1.812049E-17
3.760000E+03	1.693173E-16	1.877809E-17
3.770000E+03	1.769422E-16	1.946321E-17
3.780000E+03	1.849359E-16	2.017444E-17
3.790000E+03	1.933253E-16	2.091362E-17
3.800000E+03	2.021382E-16	2.168263E-17
3.810000E+03	2.113694E-16	2.247972E-17
3.820000E+03	2.210284E-16	2.330472E-17
3.830000E+03	2.311416E-16	2.415917E-17
3.840000E+03	2.416993E-16	2.504077E-17
3.850000E+03	2.527257E-16	2.595076E-17
3.860000E+03	2.642262E-16	2.688835E-17
3.870000E+03	2.762238E-16	2.785452E-17
3.880000E+03	2.887006E-16	2.884606E-17
3.890000E+03	3.016549E-16	2.986145E-17
3.900000E+03	3.151036E-16	3.090097E-17
3.910000E+03	3.290403E-16	3.196259E-17
3.920000E+03	3.434553E-16	3.304400E-17
3.930000E+03	3.583349E-16	3.414252E-17
3.940000E+03	3.736616E-16	3.525517E-17
3.950000E+03	3.894605E-16	3.638302E-17
3.960000E+03	4.056356E-16	3.751584E-17
3.970000E+03	4.222281E-16	3.865631E-17
3.980000E+03	4.391803E-16	3.979803E-17
3.990000E+03	4.564551E-16	4.093662E-17
4.000000E+03	4.740133E-16	4.206771E-17
4.010000E+03	4.918679E-16	4.319159E-17
4.020000E+03	5.099273E-16	4.429950E-17
4.030000E+03	5.281770E-16	4.538959E-17
4.040000E+03	5.465742E-16	4.645768E-17
4.050000E+03	5.651018E-16	4.750193E-17
4.060000E+03	5.836840E-16	4.851567E-17
4.070000E+03	6.022979E-16	4.949689E-17
4.080000E+03	6.208898E-16	5.044114E-17
4.090000E+03	6.394038E-16	5.134404E-17
4.100000E+03	6.578121E-16	5.220361E-17
4.110000E+03	6.760298E-16	5.301355E-17
4.120000E+03	6.940329E-16	5.377256E-17
4.130000E+03	7.117443E-16	5.447541E-17
4.140000E+03	7.291829E-16	5.512440E-17
4.150000E+03	7.462901E-16	5.571599E-17
4.160000E+03	7.630482E-16	5.624988E-17
4.170000E+03	7.794800E-16	5.672879E-17
4.180000E+03	7.955569E-16	5.715167E-17
4.190000E+03	8.113144E-16	5.752213E-17
4.200000E+03	8.267620E-16	5.784183E-17
4.210000E+03	8.419406E-16	5.811458E-17
4.220000E+03	8.568054E-16	5.833819E-17
4.230000E+03	8.714287E-16	5.851853E-17
4.240000E+03	8.858254E-16	5.865738E-17
4.250000E+03	8.999812E-16	5.875459E-17
4.260000E+03	9.139118E-16	5.881199E-17
4.270000E+03	9.276616E-16	5.883318E-17
4.280000E+03	9.412474E-16	5.881990E-17
4.290000E+03	9.546879E-16	5.877390E-17
4.300000E+03	9.679760E-16	5.869537E-17
4.310000E+03	9.811625E-16	5.858794E-17
4.320000E+03	9.942729E-16	5.845362E-17
4.330000E+03	1.007337E-15	5.829453E-17
4.340000E+03	1.020359E-15	5.811132E-17
4.350000E+03	1.033405E-15	5.790805E-17
4.360000E+03	1.046494E-15	5.768591E-17
4.370000E+03	1.059677E-15	5.744790E-17
4.380000E+03	1.073017E-15	5.719733E-17
4.390000E+03	1.086584E-15	5.693780E-17
4.400000E+03	1.100433E-15	5.667186E-17
4.410000E+03	1.114684E-15	5.640516E-17
4.420000E+03	1.129362E-15	5.613821E-17
4.430000E+03	1.144621E-15	5.587787E-17
4.440000E+03	1.160549E-15	5.562717E-17
4.450000E+03	1.177237E-15	5.538907E-17
4.460000E+03	1.194780E-15	5.516651E-17
4.470000E+03	1.213274E-15	5.496214E-17
4.480000E+03	1.232824E-15	5.477866E-17
4.490000E+03	1.253547E-15	5.461918E-17
4.500000E+03	1.275535E-15	5.448518E-17
4.510000E+03	1.298806E-15	5.437501E-17
4.520000E+03	1.323401E-15	5.428792E-17
4.530000E+03	1.349344E-15	5.422242E-17
4.540000E+03	1.376596E-15	5.417460E-17
4.550000E+03	1.405093E-15	5.413978E-17
4.560000E+03	1.434718E-15	5.411170E-17
4.570000E+03	1.465331E-15	5.408336E-17
4.580000E+03	1.496712E-15	5.404553E-17
4.590000E+03	1.528597E-15	5.398811E-17
4.600000E+03	1.560684E-15	5.390068E-17
4.610000E+03	1.592641E-15	5.377285E-17
4.620000E+03	1.624087E-15	5.359373E-17
4.630000E+03	1.654673E-15	5.335468E-17
4.640000E+03	1.683966E-15	5.304556E-17
4.650000E+03	1.711563E-15	5.265846E-17
4.660000E+03	1.737153E-15	5.218944E-17
4.670000E+03	1.760333E-15	5.163280E-17
4.680000E+03	1.780787E-15	5.098650E-17
4.690000E+03	1.798311E-15	5.025235E-17
4.700000E+03	1.812656E-15	4.943157E-17
4.710000E+03	1.823763E-15	4.853089E-17
4.720000E+03	1.831577E-15	4.755732E-17
4.730000E+03	1.836258E-15	4.652320E-17
4.740000E+03	1.838094E-15	4.544357E-17
4.750000E+03	1.837522E-15	4.433615E-17
4.760000E+03	1.835155E-15	4.322168E-17
4.770000E+03	1.831712E-15	4.212179E-17
4.780000E+03	1.827797E-15	4.105393E-17
4.790000E+03	1.824019E-15	4.003432E-17
4.800000E+03	1.820763E-15	3.907324E-17
4.810000E+03	1.818288E-15	3.817775E-17
4.820000E+03	1.816726E-15	3.735190E-17
4.830000E+03	1.816169E-15	3.659890E-17
4.840000E+03	1.816601E-15	3.591986E-17
4.850000E+03	1.818000E-15	3.531588E-17
4.860000E+03	1.820284E-15	3.478707E-17
4.870000E+03	1.823366E-15	3.433361E-17
4.880000E+03	1.827145E-15	3.395541E-17
4.890000E+03	1.831502E-15	3.365215E-17
4.900000E+03	1.836275E-15	3.342256E-17
4.910000E+03	1.841381E-15	3.326582E-17
4.920000E+03	1.846649E-15	3.317675E-17
4.930000E+03	1.851999E-15	3.315097E-17
4.940000E+03	1.857269E-15	3.318234E-17
4.950000E+03	1.862373E-15	3.326578E-17
4.960000E+03	1.867240E-15	3.339625E-17
4.970000E+03	1.871755E-15	3.356767E-17
4.980000E+03	1.875880E-15	3.377525E-17
4.990000E+03	1.879589E-15	3.401427E-17
5.000000E+03	1.882816E-15	3.427935E-17
5.010000E+03	1.885549E-15	3.456600E-17
5.020000E+03	1.887756E-15	3.486952E-17
5.030000E+03	1.889412E-15	3.518545E-17
5.040000E+03	1.890528E-15	3.551008E-17
5.050000E+03	1.891113E-15	3.583994E-17
5.060000E+03	1.891203E-15	3.617223E-17
5.070000E+03	1.890880E-15	3.650530E-17
5.080000E+03	1.890235E-15	3.683798E-17
5.090000E+03	1.889405E-15	3.717025E-17
5.100000E+03	1.888526E-15	3.750246E-17
5.110000E+03	1.887765E-15	3.783585E-17
5.120000E+03	1.887276E-15	3.817178E-17
5.130000E+03	1.887227E-15	3.851216E-17
5.140000E+03	1.887781E-15	3.885913E-17
5.150000E+03	1.889081E-15	3.921473E-17
5.160000E+03	1.891216E-15	3.958004E-17
5.170000E+03	1.894309E-15	3.995713E-17
5.180000E+03	1.898413E-15	4.034674E-17
5.190000E+03	1.903572E-15	4.074954E-17
5.200000E+03	1.909798E-15	4.116571E-17
5.210000E+03	1.917077E-15	4.159485E-17
5.220000E+03	1.925350E-15	4.203570E-17
5.230000E+03	1.934581E-15	4.248755E-17
5.240000E+03	1.944663E-15	4.294817E-17
5.250000E+03	1.955539E-15	4.341644E-17
5.260000E+03	1.967094E-15	4.388998E-17
5.270000E+03	1.979239E-15	4.436702E-17
5.280000E+03	1.991805E-15	4.484402E-17
5.290000E+03	2.004665E-15	4.531845E-17
5.300000E+03	2.017663E-15	4.578707E-17
5.310000E+03	2.030629E-15	4.624641E-17
5.320000E+03	2.043342E-15	4.669183E-17
5.330000E+03	2.055635E-15	4.711998E-17
5.340000E+03	2.067319E-15	4.752702E-17
5.350000E+03	2.078185E-15	4.790876E-17
5.360000E+03	2.088065E-15	4.826189E-17
5.370000E+03	2.096810E-15	4.858370E-17
5.380000E+03	2.104286E-15	4.887180E-17
5.390000E+03	2.110439E-15	4.912575E-17
5.400000E+03	2.115188E-15	4.934453E-17
5.410000E+03	2.118523E-15	4.952881E-17
5.420000E+03	2.120481E-15	4.968042E-17
5.430000E+03	2.121057E-15	4.980020E-17
5.440000E+03	2.120337E-15	4.989118E-17
5.450000E+03	2.118374E-15	4.995560E-17
5.460000E+03	2.115316E-15	4.999798E-17
5.470000E+03	2.111283E-15	5.002213E-17
5.480000E+03	2.106485E-15	5.003397E-17
5.490000E+03	2.101058E-15	5.003668E-17
5.500000E+03	2.095154E-15	5.003265E-17
5.510000E+03	2.088834E-15	5.002195E-17
5.520000E+03	2.082051E-15	5.000213E-17
5.530000E+03	2.074763E-15	4.997079E-17
5.540000E+03	2.066839E-15	4.992343E-17
5.550000E+03	2.058255E-15	4.985807E-17
5.560000E+03	2.048887E-15	4.977039E-17
5.570000E+03	2.038682E-15	4.965772E-17
5.580000E+03	2.027652E-15	4.951907E-17
5.590000E+03	2.015767E-15	4.935249E-17
5.600000E+03	2.003070E-15	4.915785E-17
5.610000E+03	1.989649E-15	4.893618E-17
5.620000E+03	1.975554E-15	4.868772E-17
5.630000E+03	1.960843E-15	4.841300E-17
5.640000E+03	1.945541E-15	4.811177E-17
5.650000E+03	1.929694E-15	4.778444E-17
5.660000E+03	1.913293E-15	4.743011E-17
5.670000E+03	1.896320E-15	4.704778E-17
5.680000E+03	1.878789E-15	4.663729E-17
5.690000E+03	1.860664E-15	4.619736E-17
5.700000E+03	1.841973E-15	4.572842E-17
5.710000E+03	1.822741E-15	4.523082E-17
5.720000E+03	1.803048E-15	4.470647E-17
5.730000E+03	1.782986E-15	4.415760E-17
5.740000E+03	1.762757E-15	4.358928E-17
5.750000E+03	1.742590E-15	4.300722E-17
5.760000E+03	1.722779E-15	4.241884E-17
5.770000E+03	1.703640E-15	4.183199E-17
5.780000E+03	1.685515E-15	4.125512E-17
5.790000E+03	1.668770E-15	4.069721E-17
5.800000E+03	1.653745E-15	4.016637E-17
5.810000E+03	1.640776E-15	3.967045E-17
5.820000E+03	1.630145E-15	3.921580E-17
5.830000E+03	1.622082E-15	3.880725E-17
5.840000E+03	1.616772E-15	3.844832E-17
5.850000E+03	1.614239E-15	3.813852E-17
5.860000E+03	1.614435E-15	3.787544E-17
5.870000E+03	1.617128E-15	3.765238E-17
5.880000E+03	1.621984E-15	3.746022E-17
5.890000E+03	1.628556E-15	3.728744E-17
5.900000E+03	1.636386E-15	3.712258E-17
5.910000E+03	1.644994E-15	3.695396E-17
5.920000E+03	1.653934E-15	3.677112E-17
5.930000E+03	1.662803E-15	3.656503E-17
5.940000E+03	1.671216E-15	3.632742E-17
5.950000E+03	1.678942E-15	3.605385E-17
5.960000E+03	1.685757E-15	3.574040E-17
5.970000E+03	1.691583E-15	3.538653E-17
5.980000E+03	1.696379E-15	3.499275E-17
5.990000E+03	1.700161E-15	3.456086E-17
6.000000E+03	1.702984E-15	3.409361E-17
6.010000E+03	1.704959E-15	3.359495E-17
6.020000E+03	1.706163E-15	3.306811E-17
6.030000E+03	1.706706E-15	3.251709E-17
6.040000E+03	1.706686E-15	3.194558E-17
6.050000E+03	1.706211E-15	3.135753E-17
6.060000E+03	1.705355E-15	3.075628E-17
6.070000E+03	1.704230E-15	3.014587E-17
6.080000E+03	1.702905E-15	2.952963E-17
6.090000E+03	1.701453E-15	2.891103E-17
6.100000E+03	1.699898E-15	2.829280E-17
6.110000E+03	1.698276E-15	2.767803E-17
6.120000E+03	1.696605E-15	2.706967E-17
6.130000E+03	1.694859E-15	2.647016E-17
6.140000E+03	1.693050E-15	2.588280E-17
6.150000E+03	1.691152E-15	2.531051E-17
6.160000E+03	1.689124E-15	2.475622E-17
6.170000E+03	1.686960E-15	2.422364E-17
6.180000E+03	1.684659E-15	2.371672E-17
6.190000E+03	1.682215E-15	2.323946E-17
6.200000E+03	1.679612E-15	2.279586E-17
6.210000E+03	1.676885E-15	2.239060E-17
6.220000E+03	1.674005E-15	2.202744E-17
6.230000E+03	1.671001E-15	2.171077E-17
6.240000E+03	1.667815E-15	2.144355E-17
6.250000E+03	1.664396E-15	2.122703E-17
6.260000E+03	1.660659E-15	2.105897E-17
6.270000E+03	1.656563E-15	2.093703E-17
6.280000E+03	1.652014E-15	2.085779E-17
6.290000E+03	1.646981E-15	2.081839E-17
6.300000E+03	1.641504E-15	2.081661E-17
6.310000E+03	1.635631E-15	2.085016E-17
6.320000E+03	1.629508E-15	2.091796E-17
6.330000E+03	1.623366E-15	2.102006E-17
6.340000E+03	1.617440E-15	2.115678E-17
6.350000E+03	1.612068E-15	2.133006E-17
6.360000E+03	1.607537E-15	2.154154E-17
6.370000E+03	1.604187E-15	2.179410E-17
6.380000E+03	1.602373E-15	2.209136E-17
6.390000E+03	1.602385E-15	2.243663E-17
6.400000E+03	1.604566E-15	2.283457E-17
6.410000E+03	1.609217E-15	2.328989E-17
6.420000E+03	1.616632E-15	2.380788E-17
6.430000E+03	1.627074E-15	2.439395E-17
6.440000E+03	1.640836E-15	2.505465E-17
6.450000E+03	1.658118E-15	2.579572E-17
6.460000E+03	1.679116E-15	2.662338E-17
6.470000E+03	1.703946E-15	2.754316E-17
6.480000E+03	1.732608E-15	2.855885E-17
6.490000E+03	1.765031E-15	2.967183E-17
6.500000E+03	1.800985E-15	3.088036E-17
6.510000E+03	1.840069E-15	3.217941E-17
6.520000E+03	1.881737E-15	3.356092E-17
6.530000E+03	1.925223E-15	3.501207E-17
6.540000E+03	1.969516E-15	3.651434E-17
6.550000E+03	2.013421E-15	3.804432E-17
6.560000E+03	2.055634E-15	3.957473E-17
6.570000E+03	2.094767E-15	4.107465E-17
6.580000E+03	2.129555E-15	4.251372E-17
6.590000E+03	2.158951E-15	4.386413E-17
6.600000E+03	2.182124E-15	4.510118E-17
6.610000E+03	2.198492E-15	4.620429E-17
6.620000E+03	2.207755E-15	4.715828E-17
6.630000E+03	2.209962E-15	4.795536E-17
6.640000E+03	2.205351E-15	4.859226E-17
6.650000E+03	2.194413E-15	4.907194E-17
6.660000E+03	2.177820E-15	4.940245E-17
6.670000E+03	2.156358E-15	4.959565E-17
6.680000E+03	2.130884E-15	4.966630E-17
6.690000E+03	2.102238E-15	4.963020E-17
6.700000E+03	2.071282E-15	4.950491E-17
6.710000E+03	2.038791E-15	4.930703E-17
6.720000E+03	2.005462E-15	4.905245E-17
6.730000E+03	1.971901E-15	4.875566E-17
6.740000E+03	1.938601E-15	4.842907E-17
6.750000E+03	1.906007E-15	4.808451E-17
6.760000E+03	1.874441E-15	4.773108E-17
6.770000E+03	1.844183E-15	4.737722E-17
6.780000E+03	1.815430E-15	4.702934E-17
6.790000E+03	1.788308E-15	4.669225E-17
6.800000E+03	1.762854E-15	4.636837E-17
6.810000E+03	1.739155E-15	4.606151E-17
6.820000E+03	1.717146E-15	4.577132E-17
6.830000E+03	1.696831E-15	4.549923E-17
6.840000E+03	1.678155E-15	4.524501E-17
6.850000E+03	1.661013E-15	4.500695E-17
6.860000E+03	1.645371E-15	4.478509E-17
6.870000E+03	1.631112E-15	4.457717E-17
6.880000E+03	1.618197E-15	4.438287E-17
6.890000E+03	1.606527E-15	4.420022E-17
6.900000E+03	1.596004E-15	4.402708E-17
6.910000E+03	1.586567E-15	4.386228E-17
6.920000E+03	1.578139E-15	4.370411E-17
6.930000E+03	1.570619E-15	4.355016E-17
6.940000E+03	1.563949E-15	4.339910E-17
6.950000E+03	1.558033E-15	4.324846E-17
6.960000E+03	1.552789E-15	4.309625E-17
6.970000E+03	1.548160E-15	4.294095E-17
6.980000E+03	1.544043E-15	4.277989E-17
6.990000E+03	1.540339E-15	4.261043E-17
7.000000E+03	1.537006E-15	4.243149E-17
7.010000E+03	1.533929E-15	4.224000E-17
7.020000E+03	1.531058E-15	4.203470E-17
7.030000E+03	1.528334E-15	4.181411E-17
7.040000E+03	1.525694E-15	4.157662E-17
7.050000E+03	1.523108E-15	4.132162E-17
7.060000E+03	1.520584E-15	4.104951E-17
7.070000E+03	1.518110E-15	4.076017E-17
7.080000E+03	1.515709E-15	4.045443E-17
7.090000E+03	1.513413E-15	4.013340E-17
7.100000E+03	1.511250E-15	3.979799E-17
7.110000E+03	1.509304E-15	3.945065E-17
7.120000E+03	1.507589E-15	3.909193E-17
7.130000E+03	1.506179E-15	3.872393E-17
7.140000E+03	1.505106E-15	3.834753E-17
7.150000E+03	1.504414E-15	3.796405E-17
7.160000E+03	1.504158E-15	3.757489E-17
7.170000E+03	1.504339E-15	3.718018E-17
7.180000E+03	1.504958E-15	3.677996E-17
7.190000E+03	1.505992E-15	3.637377E-17
7.200000E+03	1.507394E-15	3.596055E-17
7.210000E+03	1.509069E-15	3.553825E-17
7.220000E+03	1.510961E-15	3.510582E-17
7.230000E+03	1.512898E-15	3.465967E-17
7.240000E+03	1.514796E-15	3.419847E-17
7.250000E+03	1.516524E-15	3.372005E-17
7.260000E+03	1.517912E-15	3.322157E-17
7.270000E+03	1.518869E-15	3.270227E-17
7.280000E+03	1.519245E-15	3.216030E-17
7.290000E+03	1.518913E-15	3.159463E-17
7.300000E+03	1.517727E-15	3.100416E-17
7.310000E+03	1.515591E-15	3.038908E-17
7.320000E+03	1.512382E-15	2.974929E-17
7.330000E+03	1.508043E-15	2.908632E-17
7.340000E+03	1.502509E-15	2.840172E-17
7.350000E+03	1.495783E-15	2.769849E-17
7.360000E+03	1.487912E-15	2.698058E-17
7.370000E+03	1.478978E-15	2.625253E-17
7.380000E+03	1.469140E-15	2.552023E-17
7.390000E+03	1.458517E-15	2.478868E-17
7.400000E+03	1.447316E-15	2.406428E-17
7.410000E+03	1.435656E-15	2.335173E-17
7.420000E+03	1.423698E-15	2.265631E-17
7.430000E+03	1.411534E-15	2.198206E-17
7.440000E+03	1.399229E-15	2.133248E-17
7.450000E+03	1.386821E-15	2.071064E-17
7.460000E+03	1.374326E-15	2.011924E-17
7.470000E+03	1.361675E-15	1.955970E-17
7.480000E+03	1.348843E-15	1.903403E-17
7.490000E+03	1.335786E-15	1.854389E-17
7.500000E+03	1.322489E-15	1.809116E-17
7.510000E+03	1.308937E-15	1.767746E-17
7.520000E+03	1.295142E-15	1.730438E-17
7.530000E+03	1.281174E-15	1.697371E-17
7.540000E+03	1.267075E-15	1.668423E-17
7.550000E+03	1.252947E-15	1.643382E-17
7.560000E+03	1.238892E-15	1.622014E-17
7.570000E+03	1.225028E-15	1.604093E-17
7.580000E+03	1.211515E-15	1.589447E-17
7.590000E+03	1.198459E-15	1.577845E-17
7.600000E+03	1.185973E-15	1.569080E-17
7.610000E+03	1.174152E-15	1.562946E-17
7.620000E+03	1.163098E-15	1.559273E-17
7.630000E+03	1.152815E-15	1.557788E-17
7.640000E+03	1.143346E-15	1.558304E-17
7.650000E+03	1.134668E-15	1.560568E-17
7.660000E+03	1.126774E-15	1.564378E-17
7.670000E+03	1.119615E-15	1.569498E-17
7.680000E+03	1.113170E-15	1.575756E-17
7.690000E+03	1.107397E-15	1.582968E-17
7.700000E+03	1.102256E-15	1.590974E-17
7.710000E+03	1.097706E-15	1.599629E-17
7.720000E+03	1.093721E-15	1.608827E-17
7.730000E+03	1.090237E-15	1.618421E-17
7.740000E+03	1.087207E-15	1.628297E-17
7.750000E+03	1.084588E-15	1.638366E-17
7.760000E+03	1.082319E-15	1.648517E-17
