#wls	flux	fluxerr
1.600000E+03	2.534689E-17	6.895745E-18
1.640000E+03	2.545262E-17	6.876720E-18
1.680000E+03	2.556177E-17	6.857139E-18
1.720000E+03	2.565856E-17	6.832752E-18
1.760000E+03	2.574985E-17	6.805414E-18
1.800000E+03	2.584206E-17	6.776815E-18
1.840000E+03	2.592016E-17	6.743013E-18
1.880000E+03	2.599079E-17	6.705777E-18
1.920000E+03	2.606020E-17	6.666734E-18
1.960000E+03	2.611415E-17	6.622255E-18
2.000000E+03	2.616571E-17	6.575705E-18
2.040000E+03	2.620771E-17	6.525291E-18
2.080000E+03	2.623985E-17	6.470989E-18
2.120000E+03	2.626195E-17	6.412803E-18
2.160000E+03	2.628000E-17	6.352240E-18
2.200000E+03	2.628768E-17	6.287800E-18
2.240000E+03	2.628509E-17	6.219572E-18
2.280000E+03	2.627247E-17	6.147682E-18
2.320000E+03	2.625020E-17	6.072284E-18
2.360000E+03	2.622430E-17	5.994826E-18
2.400000E+03	2.618969E-17	5.914185E-18
2.440000E+03	2.615245E-17	5.831788E-18
2.480000E+03	2.610292E-17	5.745525E-18
2.520000E+03	2.605272E-17	5.658029E-18
2.560000E+03	2.600286E-17	5.569525E-18
2.600000E+03	2.594979E-17	5.479262E-18
2.640000E+03	2.589533E-17	5.387651E-18
2.680000E+03	2.585072E-17	5.297019E-18
2.720000E+03	2.580868E-17	5.205811E-18
2.760000E+03	2.577624E-17	5.115401E-18
2.800000E+03	2.576038E-17	5.027067E-18
2.840000E+03	2.575965E-17	4.940374E-18
2.880000E+03	2.578583E-17	4.857393E-18
2.920000E+03	2.584243E-17	4.778500E-18
2.960000E+03	2.593360E-17	4.704137E-18
3.000000E+03	2.607209E-17	4.636200E-18
3.010000E+03	2.611630E-17	4.620549E-18
3.020000E+03	2.616218E-17	4.605029E-18
3.030000E+03	2.621373E-17	4.590335E-18
3.040000E+03	2.626717E-17	4.575795E-18
3.050000E+03	2.632647E-17	4.562088E-18
3.060000E+03	2.638790E-17	4.548558E-18
3.070000E+03	2.645540E-17	4.535873E-18
3.080000E+03	2.652908E-17	4.524035E-18
3.090000E+03	2.660527E-17	4.512405E-18
3.100000E+03	2.668790E-17	4.501637E-18
3.110000E+03	2.677711E-17	4.491737E-18
3.120000E+03	2.686928E-17	4.482081E-18
3.130000E+03	2.696832E-17	4.473311E-18
3.140000E+03	2.707440E-17	4.465435E-18
3.150000E+03	2.718767E-17	4.458456E-18
3.160000E+03	2.730462E-17	4.451780E-18
3.170000E+03	2.743286E-17	4.446630E-18
3.180000E+03	2.756517E-17	4.441812E-18
3.190000E+03	2.770918E-17	4.438533E-18
3.200000E+03	2.785771E-17	4.435618E-18
3.210000E+03	2.801473E-17	4.433677E-18
3.220000E+03	2.818047E-17	4.432726E-18
3.230000E+03	2.835889E-17	4.433357E-18
3.240000E+03	2.854294E-17	4.434434E-18
3.250000E+03	2.874026E-17	4.437122E-18
3.260000E+03	2.894752E-17	4.440868E-18
3.270000E+03	2.916508E-17	4.445699E-18
3.280000E+03	2.939331E-17	4.451637E-18
3.290000E+03	2.963627E-17	4.459262E-18
3.300000E+03	2.989073E-17	4.468048E-18
3.310000E+03	3.015714E-17	4.478023E-18
3.320000E+03	3.043967E-17	4.489767E-18
3.330000E+03	3.073886E-17	4.503308E-18
3.340000E+03	3.104786E-17	4.517602E-18
3.350000E+03	3.137838E-17	4.534305E-18
3.360000E+03	3.172365E-17	4.552383E-18
3.370000E+03	3.208435E-17	4.571886E-18
3.380000E+03	3.246865E-17	4.593919E-18
3.390000E+03	3.286990E-17	4.617477E-18
3.400000E+03	3.329267E-17	4.643145E-18
3.410000E+03	3.373789E-17	4.670981E-18
3.420000E+03	3.420272E-17	4.700527E-18
3.430000E+03	3.469581E-17	4.732898E-18
3.440000E+03	3.521447E-17	4.767644E-18
3.450000E+03	3.575992E-17	4.804847E-18
3.460000E+03	3.632958E-17	4.844077E-18
3.470000E+03	3.693251E-17	4.886456E-18
3.480000E+03	3.757027E-17	4.932085E-18
3.490000E+03	3.823659E-17	4.980035E-18
3.500000E+03	3.894101E-17	5.031448E-18
3.510000E+03	3.968541E-17	5.086443E-18
3.520000E+03	4.046774E-17	5.144632E-18
3.530000E+03	4.129000E-17	5.206147E-18
3.540000E+03	4.215850E-17	5.271647E-18
3.550000E+03	4.307563E-17	5.341281E-18
3.560000E+03	4.403976E-17	5.414694E-18
3.570000E+03	4.505776E-17	5.492570E-18
3.580000E+03	4.613254E-17	5.575089E-18
3.590000E+03	4.726722E-17	5.662441E-18
3.600000E+03	4.846510E-17	5.754827E-18
3.610000E+03	4.972972E-17	5.852458E-18
3.620000E+03	5.106483E-17	5.955556E-18
3.630000E+03	5.247443E-17	6.064357E-18
3.640000E+03	5.396276E-17	6.179106E-18
3.650000E+03	5.553911E-17	6.300600E-18
3.660000E+03	5.720358E-17	6.428570E-18
3.670000E+03	5.896623E-17	6.563846E-18
3.680000E+03	6.082765E-17	6.706179E-18
3.690000E+03	6.279871E-17	6.856435E-18
3.700000E+03	6.488580E-17	7.014949E-18
3.710000E+03	6.709036E-17	7.181500E-18
3.720000E+03	6.942472E-17	7.357014E-18
3.730000E+03	7.189652E-17	7.541871E-18
3.740000E+03	7.451389E-17	7.736470E-18
3.750000E+03	7.728541E-17	7.941223E-18
3.760000E+03	8.022619E-17	8.157166E-18
3.770000E+03	8.333412E-17	8.383537E-18
3.780000E+03	8.663155E-17	8.622020E-18
3.790000E+03	9.012340E-17	8.872487E-18
3.800000E+03	9.382776E-17	9.136068E-18
3.810000E+03	9.775051E-17	9.412643E-18
3.820000E+03	1.019114E-16	9.703387E-18
3.830000E+03	1.063174E-16	1.000818E-17
3.840000E+03	1.109898E-16	1.032823E-17
3.850000E+03	1.159440E-16	1.066408E-17
3.860000E+03	1.211961E-16	1.101629E-17
3.870000E+03	1.267628E-16	1.138540E-17
3.880000E+03	1.326609E-16	1.177188E-17
3.890000E+03	1.389167E-16	1.217699E-17
3.900000E+03	1.455312E-16	1.259967E-17
3.910000E+03	1.525401E-16	1.304180E-17
3.920000E+03	1.599529E-16	1.350294E-17
3.930000E+03	1.677979E-16	1.398416E-17
3.940000E+03	1.760840E-16	1.448482E-17
3.950000E+03	1.848396E-16	1.500581E-17
3.960000E+03	1.940727E-16	1.554629E-17
3.970000E+03	2.038224E-16	1.610787E-17
3.980000E+03	2.140849E-16	1.668859E-17
3.990000E+03	2.248879E-16	1.728898E-17
4.000000E+03	2.362477E-16	1.790861E-17
4.010000E+03	2.481797E-16	1.854687E-17
4.020000E+03	2.606987E-16	1.920308E-17
4.030000E+03	2.738178E-16	1.987640E-17
4.040000E+03	2.875495E-16	2.056587E-17
4.050000E+03	3.019191E-16	2.127139E-17
4.060000E+03	3.169221E-16	2.199074E-17
4.070000E+03	3.325670E-16	2.272258E-17
4.080000E+03	3.488754E-16	2.346644E-17
4.090000E+03	3.658375E-16	2.421971E-17
4.100000E+03	3.834727E-16	2.498174E-17
4.110000E+03	4.017668E-16	2.574965E-17
4.120000E+03	4.207371E-16	2.652265E-17
4.130000E+03	4.403649E-16	2.729766E-17
4.140000E+03	4.606655E-16	2.807376E-17
4.150000E+03	4.816159E-16	2.884773E-17
4.160000E+03	5.032293E-16	2.961859E-17
4.170000E+03	5.254989E-16	3.038417E-17
4.180000E+03	5.483945E-16	3.114105E-17
4.190000E+03	5.719253E-16	3.188816E-17
4.200000E+03	5.960775E-16	3.262318E-17
4.210000E+03	6.208119E-16	3.334251E-17
4.220000E+03	6.461305E-16	3.404492E-17
4.230000E+03	6.719853E-16	3.472666E-17
4.240000E+03	6.983709E-16	3.538636E-17
4.250000E+03	7.252284E-16	3.602007E-17
4.260000E+03	7.525420E-16	3.662622E-17
4.270000E+03	7.802394E-16	3.720067E-17
4.280000E+03	8.082646E-16	3.774040E-17
4.290000E+03	8.365803E-16	3.824349E-17
4.300000E+03	8.650875E-16	3.870551E-17
4.310000E+03	8.937025E-16	3.912310E-17
4.320000E+03	9.223311E-16	3.949289E-17
4.330000E+03	9.508674E-16	3.981141E-17
4.340000E+03	9.791934E-16	4.007515E-17
4.350000E+03	1.007148E-15	4.027944E-17
4.360000E+03	1.034616E-15	4.042197E-17
4.370000E+03	1.061438E-15	4.049929E-17
4.380000E+03	1.087378E-15	4.050574E-17
4.390000E+03	1.112315E-15	4.044068E-17
4.400000E+03	1.136174E-15	4.030561E-17
4.410000E+03	1.159057E-15	4.010844E-17
4.420000E+03	1.181081E-15	3.985716E-17
4.430000E+03	1.202331E-15	3.955851E-17
4.440000E+03	1.222934E-15	3.922016E-17
4.450000E+03	1.243010E-15	3.884931E-17
4.460000E+03	1.262711E-15	3.845380E-17
4.470000E+03	1.282090E-15	3.803803E-17
4.480000E+03	1.301287E-15	3.760890E-17
4.490000E+03	1.320369E-15	3.717096E-17
4.500000E+03	1.339424E-15	3.672920E-17
4.510000E+03	1.358524E-15	3.628805E-17
4.520000E+03	1.377695E-15	3.585065E-17
4.530000E+03	1.397006E-15	3.542136E-17
4.540000E+03	1.416445E-15	3.500239E-17
4.550000E+03	1.436041E-15	3.459724E-17
4.560000E+03	1.455677E-15	3.420589E-17
4.570000E+03	1.475373E-15	3.383193E-17
4.580000E+03	1.495037E-15	3.347645E-17
4.590000E+03	1.514623E-15	3.314174E-17
4.600000E+03	1.533945E-15	3.282686E-17
4.610000E+03	1.552967E-15	3.253226E-17
4.620000E+03	1.571552E-15	3.225570E-17
4.630000E+03	1.589591E-15	3.199550E-17
4.640000E+03	1.606975E-15	3.174992E-17
4.650000E+03	1.623539E-15	3.151603E-17
4.660000E+03	1.639251E-15	3.129351E-17
4.670000E+03	1.653967E-15	3.107971E-17
4.680000E+03	1.667652E-15	3.087401E-17
4.690000E+03	1.680230E-15	3.067493E-17
4.700000E+03	1.691677E-15	3.048182E-17
4.710000E+03	1.701963E-15	3.029387E-17
4.720000E+03	1.711145E-15	3.011177E-17
4.730000E+03	1.719272E-15	2.993597E-17
4.740000E+03	1.726359E-15	2.976626E-17
4.750000E+03	1.732497E-15	2.960383E-17
4.760000E+03	1.737826E-15	2.945061E-17
4.770000E+03	1.742461E-15	2.930820E-17
4.780000E+03	1.746464E-15	2.917728E-17
4.790000E+03	1.749985E-15	2.906017E-17
4.800000E+03	1.753146E-15	2.895872E-17
4.810000E+03	1.756034E-15	2.887436E-17
4.820000E+03	1.758742E-15	2.880873E-17
4.830000E+03	1.761350E-15	2.876339E-17
4.840000E+03	1.763918E-15	2.873966E-17
4.850000E+03	1.766489E-15	2.873873E-17
4.860000E+03	1.769061E-15	2.876117E-17
4.870000E+03	1.771675E-15	2.880831E-17
4.880000E+03	1.774303E-15	2.888047E-17
4.890000E+03	1.776938E-15	2.897831E-17
4.900000E+03	1.779559E-15	2.910229E-17
4.910000E+03	1.782146E-15	2.925278E-17
4.920000E+03	1.784646E-15	2.942775E-17
4.930000E+03	1.787084E-15	2.962454E-17
4.940000E+03	1.789379E-15	2.983866E-17
4.950000E+03	1.791533E-15	3.006694E-17
4.960000E+03	1.793518E-15	3.030582E-17
4.970000E+03	1.795291E-15	3.055148E-17
4.980000E+03	1.796858E-15	3.080104E-17
4.990000E+03	1.798205E-15	3.105139E-17
5.000000E+03	1.799299E-15	3.129921E-17
5.010000E+03	1.800162E-15	3.154229E-17
5.020000E+03	1.800769E-15	3.177774E-17
5.030000E+03	1.801154E-15	3.200386E-17
5.040000E+03	1.801329E-15	3.221876E-17
5.050000E+03	1.801317E-15	3.242086E-17
5.060000E+03	1.801142E-15	3.260888E-17
5.070000E+03	1.800812E-15	3.278129E-17
5.080000E+03	1.800413E-15	3.293826E-17
5.090000E+03	1.799963E-15	3.307885E-17
5.100000E+03	1.799508E-15	3.320278E-17
5.110000E+03	1.799118E-15	3.331040E-17
5.120000E+03	1.798841E-15	3.340177E-17
5.130000E+03	1.798698E-15	3.347664E-17
5.140000E+03	1.798733E-15	3.353526E-17
5.150000E+03	1.799027E-15	3.357874E-17
5.160000E+03	1.799587E-15	3.360692E-17
5.170000E+03	1.800458E-15	3.362043E-17
5.180000E+03	1.801628E-15	3.361898E-17
5.190000E+03	1.803101E-15	3.360269E-17
5.200000E+03	1.804918E-15	3.357242E-17
5.210000E+03	1.807013E-15	3.352725E-17
5.220000E+03	1.809409E-15	3.346792E-17
5.230000E+03	1.812048E-15	3.339388E-17
5.240000E+03	1.814891E-15	3.330503E-17
5.250000E+03	1.817935E-15	3.320209E-17
5.260000E+03	1.821079E-15	3.308416E-17
5.270000E+03	1.824313E-15	3.295212E-17
5.280000E+03	1.827549E-15	3.280570E-17
5.290000E+03	1.830743E-15	3.264558E-17
5.300000E+03	1.833804E-15	3.247183E-17
5.310000E+03	1.836686E-15	3.228554E-17
5.320000E+03	1.839340E-15	3.208797E-17
5.330000E+03	1.841650E-15	3.187950E-17
5.340000E+03	1.843619E-15	3.166274E-17
5.350000E+03	1.845113E-15	3.143823E-17
5.360000E+03	1.846141E-15	3.120919E-17
5.370000E+03	1.846628E-15	3.097761E-17
5.380000E+03	1.846531E-15	3.074621E-17
5.390000E+03	1.845815E-15	3.051802E-17
5.400000E+03	1.844480E-15	3.029678E-17
5.410000E+03	1.842518E-15	3.008615E-17
5.420000E+03	1.839916E-15	2.988974E-17
5.430000E+03	1.836719E-15	2.971208E-17
5.440000E+03	1.832972E-15	2.955761E-17
5.450000E+03	1.828760E-15	2.943124E-17
5.460000E+03	1.824126E-15	2.933702E-17
5.470000E+03	1.819225E-15	2.928044E-17
5.480000E+03	1.814185E-15	2.926630E-17
5.490000E+03	1.809139E-15	2.929773E-17
5.500000E+03	1.804186E-15	2.937366E-17
5.510000E+03	1.799246E-15	2.948942E-17
5.520000E+03	1.794202E-15	2.963950E-17
5.530000E+03	1.788956E-15	2.981849E-17
5.540000E+03	1.783407E-15	3.002082E-17
5.550000E+03	1.777508E-15	3.024177E-17
5.560000E+03	1.771211E-15	3.047652E-17
5.570000E+03	1.764457E-15	3.072017E-17
5.580000E+03	1.757246E-15	3.096885E-17
5.590000E+03	1.749563E-15	3.121860E-17
5.600000E+03	1.741411E-15	3.146587E-17
5.610000E+03	1.732779E-15	3.170709E-17
5.620000E+03	1.723686E-15	3.193942E-17
5.630000E+03	1.714178E-15	3.216071E-17
5.640000E+03	1.704272E-15	3.236853E-17
5.650000E+03	1.694026E-15	3.256146E-17
5.660000E+03	1.683450E-15	3.273741E-17
5.670000E+03	1.672633E-15	3.289604E-17
5.680000E+03	1.661600E-15	3.303601E-17
5.690000E+03	1.650422E-15	3.315709E-17
5.700000E+03	1.639208E-15	3.326009E-17
5.710000E+03	1.627994E-15	3.334454E-17
5.720000E+03	1.616909E-15	3.341211E-17
5.730000E+03	1.606027E-15	3.346351E-17
5.740000E+03	1.595483E-15	3.350089E-17
5.750000E+03	1.585400E-15	3.352640E-17
5.760000E+03	1.575896E-15	3.354216E-17
5.770000E+03	1.567090E-15	3.355049E-17
5.780000E+03	1.559153E-15	3.355493E-17
5.790000E+03	1.552170E-15	3.355724E-17
5.800000E+03	1.546315E-15	3.356117E-17
5.810000E+03	1.541655E-15	3.356817E-17
5.820000E+03	1.538284E-15	3.358028E-17
5.830000E+03	1.536290E-15	3.359942E-17
5.840000E+03	1.535705E-15	3.362616E-17
5.850000E+03	1.536542E-15	3.366067E-17
5.860000E+03	1.538771E-15	3.370203E-17
5.870000E+03	1.542340E-15	3.374884E-17
5.880000E+03	1.547185E-15	3.379930E-17
5.890000E+03	1.553148E-15	3.384957E-17
5.900000E+03	1.560142E-15	3.389731E-17
5.910000E+03	1.567953E-15	3.393738E-17
5.920000E+03	1.576464E-15	3.396676E-17
5.930000E+03	1.585474E-15	3.398075E-17
5.940000E+03	1.594815E-15	3.397537E-17
5.950000E+03	1.604324E-15	3.394693E-17
5.960000E+03	1.613839E-15	3.389184E-17
5.970000E+03	1.623224E-15	3.380726E-17
5.980000E+03	1.632366E-15	3.369099E-17
5.990000E+03	1.641169E-15	3.354137E-17
6.000000E+03	1.649543E-15	3.335704E-17
6.010000E+03	1.657429E-15	3.313751E-17
6.020000E+03	1.664792E-15	3.288284E-17
6.030000E+03	1.671591E-15	3.259328E-17
6.040000E+03	1.677833E-15	3.227011E-17
6.050000E+03	1.683503E-15	3.191439E-17
6.060000E+03	1.688610E-15	3.152775E-17
6.070000E+03	1.693154E-15	3.111186E-17
6.080000E+03	1.697189E-15	3.066952E-17
6.090000E+03	1.700687E-15	3.020219E-17
6.100000E+03	1.703706E-15	2.971305E-17
6.110000E+03	1.706251E-15	2.920447E-17
6.120000E+03	1.708363E-15	2.867962E-17
6.130000E+03	1.710026E-15	2.814093E-17
6.140000E+03	1.711278E-15	2.759184E-17
6.150000E+03	1.712131E-15	2.703562E-17
6.160000E+03	1.712600E-15	2.647573E-17
6.170000E+03	1.712695E-15	2.591579E-17
6.180000E+03	1.712407E-15	2.535934E-17
6.190000E+03	1.711754E-15	2.481052E-17
6.200000E+03	1.710752E-15	2.427359E-17
6.210000E+03	1.709359E-15	2.375219E-17
6.220000E+03	1.707573E-15	2.325065E-17
6.230000E+03	1.705385E-15	2.277331E-17
6.240000E+03	1.702721E-15	2.232368E-17
6.250000E+03	1.699637E-15	2.190693E-17
6.260000E+03	1.696264E-15	2.152796E-17
6.270000E+03	1.692706E-15	2.118783E-17
6.280000E+03	1.689093E-15	2.088693E-17
6.290000E+03	1.685549E-15	2.062538E-17
6.300000E+03	1.682140E-15	2.040255E-17
6.310000E+03	1.678996E-15	2.021861E-17
6.320000E+03	1.676216E-15	2.007336E-17
6.330000E+03	1.673896E-15	1.996674E-17
6.340000E+03	1.672134E-15	1.989890E-17
6.350000E+03	1.671043E-15	1.987041E-17
6.360000E+03	1.670721E-15	1.988192E-17
6.370000E+03	1.671245E-15	1.993418E-17
6.380000E+03	1.672737E-15	2.002878E-17
6.390000E+03	1.675280E-15	2.016721E-17
6.400000E+03	1.678949E-15	2.035124E-17
6.410000E+03	1.683805E-15	2.058282E-17
6.420000E+03	1.689916E-15	2.086430E-17
6.430000E+03	1.697318E-15	2.119800E-17
6.440000E+03	1.706025E-15	2.158624E-17
6.450000E+03	1.716050E-15	2.203164E-17
6.460000E+03	1.727351E-15	2.253627E-17
6.470000E+03	1.739911E-15	2.310270E-17
6.480000E+03	1.753638E-15	2.373260E-17
6.490000E+03	1.768458E-15	2.442703E-17
6.500000E+03	1.784275E-15	2.518342E-17
6.510000E+03	1.800914E-15	2.599721E-17
6.520000E+03	1.818268E-15	2.686452E-17
6.530000E+03	1.836120E-15	2.777968E-17
6.540000E+03	1.854246E-15	2.873670E-17
6.550000E+03	1.872260E-15	2.972666E-17
6.560000E+03	1.889805E-15	3.074059E-17
6.570000E+03	1.906507E-15	3.176874E-17
6.580000E+03	1.922024E-15	3.280137E-17
6.590000E+03	1.936003E-15	3.382805E-17
6.600000E+03	1.948165E-15	3.483917E-17
6.610000E+03	1.958254E-15	3.582522E-17
6.620000E+03	1.966072E-15	3.677740E-17
6.630000E+03	1.971499E-15	3.768826E-17
6.640000E+03	1.974435E-15	3.855070E-17
6.650000E+03	1.974888E-15	3.935974E-17
6.660000E+03	1.972902E-15	4.011135E-17
6.670000E+03	1.968599E-15	4.080341E-17
6.680000E+03	1.962106E-15	4.143427E-17
6.690000E+03	1.953608E-15	4.200399E-17
6.700000E+03	1.943340E-15	4.251417E-17
6.710000E+03	1.931537E-15	4.296694E-17
6.720000E+03	1.918439E-15	4.336518E-17
6.730000E+03	1.904291E-15	4.371235E-17
6.740000E+03	1.889327E-15	4.401216E-17
6.750000E+03	1.873795E-15	4.426914E-17
6.760000E+03	1.857861E-15	4.448634E-17
6.770000E+03	1.841775E-15	4.466912E-17
6.780000E+03	1.825667E-15	4.482033E-17
6.790000E+03	1.809680E-15	4.494342E-17
6.800000E+03	1.793962E-15	4.504214E-17
6.810000E+03	1.778617E-15	4.511933E-17
6.820000E+03	1.763731E-15	4.517756E-17
6.830000E+03	1.749370E-15	4.521895E-17
6.840000E+03	1.735588E-15	4.524539E-17
6.850000E+03	1.722420E-15	4.525833E-17
6.860000E+03	1.709873E-15	4.525852E-17
6.870000E+03	1.698001E-15	4.524791E-17
6.880000E+03	1.686789E-15	4.522668E-17
6.890000E+03	1.676235E-15	4.519530E-17
6.900000E+03	1.666312E-15	4.515355E-17
6.910000E+03	1.657045E-15	4.510254E-17
6.920000E+03	1.648416E-15	4.504225E-17
6.930000E+03	1.640364E-15	4.497145E-17
6.940000E+03	1.632885E-15	4.489039E-17
6.950000E+03	1.625950E-15	4.479861E-17
6.960000E+03	1.619552E-15	4.469625E-17
6.970000E+03	1.613621E-15	4.458167E-17
6.980000E+03	1.608164E-15	4.445534E-17
6.990000E+03	1.603114E-15	4.431561E-17
7.000000E+03	1.598476E-15	4.416289E-17
7.010000E+03	1.594184E-15	4.399555E-17
7.020000E+03	1.590242E-15	4.381396E-17
7.030000E+03	1.586588E-15	4.361656E-17
7.040000E+03	1.583213E-15	4.340335E-17
7.050000E+03	1.580093E-15	4.317387E-17
7.060000E+03	1.577204E-15	4.292769E-17
7.070000E+03	1.574510E-15	4.266404E-17
7.080000E+03	1.572011E-15	4.238319E-17
7.090000E+03	1.569689E-15	4.208490E-17
7.100000E+03	1.567531E-15	4.176911E-17
7.110000E+03	1.565483E-15	4.143467E-17
7.120000E+03	1.563586E-15	4.108304E-17
7.130000E+03	1.561788E-15	4.071314E-17
7.140000E+03	1.560070E-15	4.032490E-17
7.150000E+03	1.558431E-15	3.991876E-17
7.160000E+03	1.556828E-15	3.949405E-17
7.170000E+03	1.555233E-15	3.905061E-17
7.180000E+03	1.553635E-15	3.858875E-17
7.190000E+03	1.551958E-15	3.810726E-17
7.200000E+03	1.550201E-15	3.760684E-17
7.210000E+03	1.548301E-15	3.708682E-17
7.220000E+03	1.546207E-15	3.654692E-17
7.230000E+03	1.543870E-15	3.598702E-17
7.240000E+03	1.541215E-15	3.540658E-17
7.250000E+03	1.538229E-15	3.480661E-17
7.260000E+03	1.534818E-15	3.418642E-17
7.270000E+03	1.530969E-15	3.354734E-17
7.280000E+03	1.526592E-15	3.288912E-17
7.290000E+03	1.521644E-15	3.221279E-17
7.300000E+03	1.516105E-15	3.151999E-17
7.310000E+03	1.509944E-15	3.081225E-17
7.320000E+03	1.503141E-15	3.009150E-17
7.330000E+03	1.495645E-15	2.935922E-17
7.340000E+03	1.487513E-15	2.861913E-17
7.350000E+03	1.478720E-15	2.787341E-17
7.360000E+03	1.469287E-15	2.712524E-17
7.370000E+03	1.459267E-15	2.637843E-17
7.380000E+03	1.448685E-15	2.563630E-17
7.390000E+03	1.437589E-15	2.490260E-17
7.400000E+03	1.426051E-15	2.418152E-17
7.410000E+03	1.414106E-15	2.347652E-17
7.420000E+03	1.401808E-15	2.279140E-17
7.430000E+03	1.389204E-15	2.212977E-17
7.440000E+03	1.376356E-15	2.149535E-17
7.450000E+03	1.363280E-15	2.089109E-17
7.460000E+03	1.350005E-15	2.031997E-17
7.470000E+03	1.336569E-15	1.978492E-17
7.480000E+03	1.322951E-15	1.928781E-17
7.490000E+03	1.309204E-15	1.883128E-17
7.500000E+03	1.295325E-15	1.841677E-17
7.510000E+03	1.281348E-15	1.804576E-17
7.520000E+03	1.267264E-15	1.771635E-17
7.530000E+03	1.253138E-15	1.742554E-17
7.540000E+03	1.238991E-15	1.716951E-17
7.550000E+03	1.224868E-15	1.694465E-17
7.560000E+03	1.210820E-15	1.674745E-17
7.570000E+03	1.196913E-15	1.657471E-17
7.580000E+03	1.183178E-15	1.642289E-17
7.590000E+03	1.169648E-15	1.628871E-17
7.600000E+03	1.156365E-15	1.616924E-17
7.610000E+03	1.143313E-15	1.606107E-17
7.620000E+03	1.130504E-15	1.596143E-17
7.630000E+03	1.118082E-15	1.586979E-17
7.640000E+03	1.106173E-15	1.578563E-17
7.650000E+03	1.094875E-15	1.570844E-17
7.660000E+03	1.084278E-15	1.563782E-17
7.670000E+03	1.074401E-15	1.557270E-17
7.680000E+03	1.065274E-15	1.551237E-17
7.690000E+03	1.056877E-15	1.545561E-17
7.700000E+03	1.049198E-15	1.540153E-17
7.710000E+03	1.042190E-15	1.534887E-17
7.720000E+03	1.035818E-15	1.529673E-17
7.730000E+03	1.030019E-15	1.524393E-17
7.740000E+03	1.024752E-15	1.518975E-17
7.750000E+03	1.019959E-15	1.513332E-17
7.760000E+03	1.015563E-15	1.507370E-17
