#wls	flux	fluxerr
1.600000E+03	8.713850E-18	5.499990E-19
1.640000E+03	8.919949E-18	5.601910E-19
1.680000E+03	9.136978E-18	5.708652E-19
1.720000E+03	9.369785E-18	5.823059E-19
1.760000E+03	9.611371E-18	5.940579E-19
1.800000E+03	9.870820E-18	6.066632E-19
1.840000E+03	1.014948E-17	6.201778E-19
1.880000E+03	1.044017E-17	6.341360E-19
1.920000E+03	1.075279E-17	6.491143E-19
1.960000E+03	1.108456E-17	6.649102E-19
2.000000E+03	1.144172E-17	6.818644E-19
2.040000E+03	1.182159E-17	6.997765E-19
2.080000E+03	1.222610E-17	7.187205E-19
2.120000E+03	1.265735E-17	7.387755E-19
2.160000E+03	1.312280E-17	7.603267E-19
2.200000E+03	1.362012E-17	7.831798E-19
2.240000E+03	1.415206E-17	8.074335E-19
2.280000E+03	1.472165E-17	8.331955E-19
2.320000E+03	1.533808E-17	8.609096E-19
2.360000E+03	1.599949E-17	8.903860E-19
2.400000E+03	1.671613E-17	9.221032E-19
2.440000E+03	1.748652E-17	9.558730E-19
2.480000E+03	1.831535E-17	9.918437E-19
2.520000E+03	1.920779E-17	1.030172E-18
2.560000E+03	2.017670E-17	1.071410E-18
2.600000E+03	2.122130E-17	1.115362E-18
2.640000E+03	2.234802E-17	1.162199E-18
2.680000E+03	2.357210E-17	1.212527E-18
2.720000E+03	2.489316E-17	1.266120E-18
2.760000E+03	2.631886E-17	1.323143E-18
2.800000E+03	2.786682E-17	1.384236E-18
2.840000E+03	2.953647E-17	1.449092E-18
2.880000E+03	3.133605E-17	1.517826E-18
2.920000E+03	3.328499E-17	1.591055E-18
2.960000E+03	3.538093E-17	1.668310E-18
3.000000E+03	3.763105E-17	1.749561E-18
3.010000E+03	3.822796E-17	1.770930E-18
3.020000E+03	3.882234E-17	1.791952E-18
3.030000E+03	3.943988E-17	1.813810E-18
3.040000E+03	4.005469E-17	1.835304E-18
3.050000E+03	4.067972E-17	1.857026E-18
3.060000E+03	4.132864E-17	1.879589E-18
3.070000E+03	4.197445E-17	1.901758E-18
3.080000E+03	4.264459E-17	1.924771E-18
3.090000E+03	4.332550E-17	1.948004E-18
3.100000E+03	4.400281E-17	1.970805E-18
3.110000E+03	4.470508E-17	1.994451E-18
3.120000E+03	4.540336E-17	2.017639E-18
3.130000E+03	4.612698E-17	2.041668E-18
3.140000E+03	4.686134E-17	2.065879E-18
3.150000E+03	4.759100E-17	2.089588E-18
3.160000E+03	4.834648E-17	2.114129E-18
3.170000E+03	4.911250E-17	2.138822E-18
3.180000E+03	4.987299E-17	2.162962E-18
3.190000E+03	5.065964E-17	2.187919E-18
3.200000E+03	5.145653E-17	2.212992E-18
3.210000E+03	5.226352E-17	2.238168E-18
3.220000E+03	5.306355E-17	2.262713E-18
3.230000E+03	5.389000E-17	2.288044E-18
3.240000E+03	5.472601E-17	2.313434E-18
3.250000E+03	5.557134E-17	2.338865E-18
3.260000E+03	5.642577E-17	2.364320E-18
3.270000E+03	5.728901E-17	2.389781E-18
3.280000E+03	5.816078E-17	2.415229E-18
3.290000E+03	5.904077E-17	2.440644E-18
3.300000E+03	5.990989E-17	2.465235E-18
3.310000E+03	6.080504E-17	2.490516E-18
3.320000E+03	6.170731E-17	2.515701E-18
3.330000E+03	6.261631E-17	2.540766E-18
3.340000E+03	6.353158E-17	2.565689E-18
3.350000E+03	6.447262E-17	2.591247E-18
3.360000E+03	6.539930E-17	2.615817E-18
3.370000E+03	6.633080E-17	2.640171E-18
3.380000E+03	6.726658E-17	2.664280E-18
3.390000E+03	6.820607E-17	2.688120E-18
3.400000E+03	6.914871E-17	2.711662E-18
3.410000E+03	7.009386E-17	2.734880E-18
3.420000E+03	7.104090E-17	2.757744E-18
3.430000E+03	7.201106E-17	2.781073E-18
3.440000E+03	7.296014E-17	2.803150E-18
3.450000E+03	7.390906E-17	2.824789E-18
3.460000E+03	7.485712E-17	2.845959E-18
3.470000E+03	7.580358E-17	2.866632E-18
3.480000E+03	7.677078E-17	2.887646E-18
3.490000E+03	7.771201E-17	2.907240E-18
3.500000E+03	7.864935E-17	2.926250E-18
3.510000E+03	7.960579E-17	2.945526E-18
3.520000E+03	8.053320E-17	2.963285E-18
3.530000E+03	8.145433E-17	2.980374E-18
3.540000E+03	8.239283E-17	2.997657E-18
3.550000E+03	8.329918E-17	3.013329E-18
3.560000E+03	8.422176E-17	3.029149E-18
3.570000E+03	8.511026E-17	3.043307E-18
3.580000E+03	8.598842E-17	3.056666E-18
3.590000E+03	8.688107E-17	3.070108E-18
3.600000E+03	8.773661E-17	3.081812E-18
3.610000E+03	8.860554E-17	3.093560E-18
3.620000E+03	8.943550E-17	3.103529E-18
3.630000E+03	9.027788E-17	3.113511E-18
3.640000E+03	9.107957E-17	3.121680E-18
3.650000E+03	9.189268E-17	3.129834E-18
3.660000E+03	9.266370E-17	3.136154E-18
3.670000E+03	9.344532E-17	3.142438E-18
3.680000E+03	9.421055E-17	3.147777E-18
3.690000E+03	9.493166E-17	3.151259E-18
3.700000E+03	9.566258E-17	3.154692E-18
3.710000E+03	9.634842E-17	3.156269E-18
3.720000E+03	9.704388E-17	3.157800E-18
3.730000E+03	9.772124E-17	3.158382E-18
3.740000E+03	9.835260E-17	3.157130E-18
3.750000E+03	9.899368E-17	3.155852E-18
3.760000E+03	9.961664E-17	3.153659E-18
3.770000E+03	1.001932E-16	3.149675E-18
3.780000E+03	1.007804E-16	3.145705E-18
3.790000E+03	1.013500E-16	3.140875E-18
3.800000E+03	1.019025E-16	3.135210E-18
3.810000E+03	1.024099E-16	3.127861E-18
3.820000E+03	1.029298E-16	3.120611E-18
3.830000E+03	1.034344E-16	3.112613E-18
3.840000E+03	1.039246E-16	3.103903E-18
3.850000E+03	1.044012E-16	3.094514E-18
3.860000E+03	1.048361E-16	3.083635E-18
3.870000E+03	1.052884E-16	3.073016E-18
3.880000E+03	1.057306E-16	3.061846E-18
3.890000E+03	1.061638E-16	3.050171E-18
3.900000E+03	1.065894E-16	3.038034E-18
3.910000E+03	1.070092E-16	3.025489E-18
3.920000E+03	1.073953E-16	3.011764E-18
3.930000E+03	1.078081E-16	2.998561E-18
3.940000E+03	1.082203E-16	2.985109E-18
3.950000E+03	1.086339E-16	2.971463E-18
3.960000E+03	1.090509E-16	2.957680E-18
3.970000E+03	1.094735E-16	2.943817E-18
3.980000E+03	1.099040E-16	2.929933E-18
3.990000E+03	1.103448E-16	2.916088E-18
4.000000E+03	1.107984E-16	2.902339E-18
4.010000E+03	1.112674E-16	2.888748E-18
4.020000E+03	1.117543E-16	2.875372E-18
4.030000E+03	1.122620E-16	2.862270E-18
4.040000E+03	1.127931E-16	2.849497E-18
4.050000E+03	1.133203E-16	2.836357E-18
4.060000E+03	1.139067E-16	2.824416E-18
4.070000E+03	1.145251E-16	2.812970E-18
4.080000E+03	1.151782E-16	2.802063E-18
4.090000E+03	1.158693E-16	2.791750E-18
4.100000E+03	1.166010E-16	2.782072E-18
4.110000E+03	1.173765E-16	2.773079E-18
4.120000E+03	1.181988E-16	2.764810E-18
4.130000E+03	1.190708E-16	2.757305E-18
4.140000E+03	1.199958E-16	2.750606E-18
4.150000E+03	1.210083E-16	2.745464E-18
4.160000E+03	1.220488E-16	2.740483E-18
4.170000E+03	1.231518E-16	2.736416E-18
4.180000E+03	1.243207E-16	2.733296E-18
4.190000E+03	1.255589E-16	2.731154E-18
4.200000E+03	1.268698E-16	2.730023E-18
4.210000E+03	1.282568E-16	2.729927E-18
4.220000E+03	1.297235E-16	2.730894E-18
4.230000E+03	1.312730E-16	2.732941E-18
4.240000E+03	1.329090E-16	2.736088E-18
4.250000E+03	1.346343E-16	2.740344E-18
4.260000E+03	1.364523E-16	2.745718E-18
4.270000E+03	1.383654E-16	2.752205E-18
4.280000E+03	1.403763E-16	2.759799E-18
4.290000E+03	1.424871E-16	2.768483E-18
4.300000E+03	1.446996E-16	2.778231E-18
4.310000E+03	1.470149E-16	2.789006E-18
4.320000E+03	1.494337E-16	2.800764E-18
4.330000E+03	1.519561E-16	2.813447E-18
4.340000E+03	1.545815E-16	2.826990E-18
4.350000E+03	1.573089E-16	2.841315E-18
4.360000E+03	1.601359E-16	2.856331E-18
4.370000E+03	1.630601E-16	2.871944E-18
4.380000E+03	1.661188E-16	2.888757E-18
4.390000E+03	1.692259E-16	2.905221E-18
4.400000E+03	1.724213E-16	2.922004E-18
4.410000E+03	1.757079E-16	2.939118E-18
4.420000E+03	1.790885E-16	2.956574E-18
4.430000E+03	1.825652E-16	2.974375E-18
4.440000E+03	1.861400E-16	2.992516E-18
4.450000E+03	1.898139E-16	3.010983E-18
4.460000E+03	1.935874E-16	3.029753E-18
4.470000E+03	1.974604E-16	3.048797E-18
4.480000E+03	2.014317E-16	3.068073E-18
4.490000E+03	2.054997E-16	3.087535E-18
4.500000E+03	2.096613E-16	3.107122E-18
4.510000E+03	2.139129E-16	3.126769E-18
4.520000E+03	2.182494E-16	3.146401E-18
4.530000E+03	2.226646E-16	3.165929E-18
4.540000E+03	2.270960E-16	3.184488E-18
4.550000E+03	2.316430E-16	3.203497E-18
4.560000E+03	2.362412E-16	3.222066E-18
4.570000E+03	2.408789E-16	3.240062E-18
4.580000E+03	2.455431E-16	3.257350E-18
4.590000E+03	2.502199E-16	3.273793E-18
4.600000E+03	2.548944E-16	3.289255E-18
4.610000E+03	2.595512E-16	3.303610E-18
4.620000E+03	2.641745E-16	3.316737E-18
4.630000E+03	2.687487E-16	3.328532E-18
4.640000E+03	2.731939E-16	3.338118E-18
4.650000E+03	2.776235E-16	3.347005E-18
4.660000E+03	2.819606E-16	3.354365E-18
4.670000E+03	2.861931E-16	3.360183E-18
4.680000E+03	2.903110E-16	3.364477E-18
4.690000E+03	2.943064E-16	3.367296E-18
4.700000E+03	2.981041E-16	3.367934E-18
4.710000E+03	3.018397E-16	3.368079E-18
4.720000E+03	3.054443E-16	3.367093E-18
4.730000E+03	3.089202E-16	3.365146E-18
4.740000E+03	3.122003E-16	3.361661E-18
4.750000E+03	3.154355E-16	3.358418E-18
4.760000E+03	3.185631E-16	3.354869E-18
4.770000E+03	3.215190E-16	3.350483E-18
4.780000E+03	3.244615E-16	3.347050E-18
4.790000E+03	3.273252E-16	3.344004E-18
4.800000E+03	3.300330E-16	3.340693E-18
4.810000E+03	3.327324E-16	3.338737E-18
4.820000E+03	3.352668E-16	3.336681E-18
4.830000E+03	3.377833E-16	3.336116E-18
4.840000E+03	3.401991E-16	3.336330E-18
4.850000E+03	3.424287E-16	3.336607E-18
4.860000E+03	3.446197E-16	3.338498E-18
4.870000E+03	3.466079E-16	3.340516E-18
4.880000E+03	3.485420E-16	3.344196E-18
4.890000E+03	3.502570E-16	3.348044E-18
4.900000E+03	3.518246E-16	3.352834E-18
4.910000E+03	3.533189E-16	3.359344E-18
4.920000E+03	3.545774E-16	3.366059E-18
4.930000E+03	3.557572E-16	3.374439E-18
4.940000E+03	3.566977E-16	3.382914E-18
4.950000E+03	3.574791E-16	3.392181E-18
4.960000E+03	3.581833E-16	3.402947E-18
4.970000E+03	3.586534E-16	3.413639E-18
4.980000E+03	3.589733E-16	3.424968E-18
4.990000E+03	3.591488E-16	3.436887E-18
5.000000E+03	3.592662E-16	3.450124E-18
5.010000E+03	3.591735E-16	3.463116E-18
5.020000E+03	3.589595E-16	3.476601E-18
5.030000E+03	3.586336E-16	3.490558E-18
5.040000E+03	3.582066E-16	3.504980E-18
5.050000E+03	3.576902E-16	3.519869E-18
5.060000E+03	3.570970E-16	3.535238E-18
5.070000E+03	3.564405E-16	3.551114E-18
5.080000E+03	3.557353E-16	3.567537E-18
5.090000E+03	3.549965E-16	3.584559E-18
5.100000E+03	3.542398E-16	3.602248E-18
5.110000E+03	3.534814E-16	3.620679E-18
5.120000E+03	3.527374E-16	3.639938E-18
5.130000E+03	3.520238E-16	3.660117E-18
5.140000E+03	3.513558E-16	3.681308E-18
5.150000E+03	3.507477E-16	3.703604E-18
5.160000E+03	3.501366E-16	3.726282E-18
5.170000E+03	3.496857E-16	3.751029E-18
5.180000E+03	3.493276E-16	3.777098E-18
5.190000E+03	3.490695E-16	3.804535E-18
5.200000E+03	3.488404E-16	3.832532E-18
5.210000E+03	3.487926E-16	3.862734E-18
5.220000E+03	3.488501E-16	3.894293E-18
5.230000E+03	3.489356E-16	3.926324E-18
5.240000E+03	3.491938E-16	3.960431E-18
5.250000E+03	3.494688E-16	3.994843E-18
5.260000E+03	3.499026E-16	4.031159E-18
5.270000E+03	3.503375E-16	4.067558E-18
5.280000E+03	3.509137E-16	4.105646E-18
5.290000E+03	3.514727E-16	4.143563E-18
5.300000E+03	3.520802E-16	4.182052E-18
5.310000E+03	3.528016E-16	4.221884E-18
5.320000E+03	3.534786E-16	4.261151E-18
5.330000E+03	3.541775E-16	4.300625E-18
5.340000E+03	3.548902E-16	4.340187E-18
5.350000E+03	3.556841E-16	4.380649E-18
5.360000E+03	3.564022E-16	4.420064E-18
5.370000E+03	3.571131E-16	4.459250E-18
5.380000E+03	3.578110E-16	4.498113E-18
5.390000E+03	3.584908E-16	4.536570E-18
5.400000E+03	3.591483E-16	4.574547E-18
5.410000E+03	3.597804E-16	4.611984E-18
5.420000E+03	3.603847E-16	4.648830E-18
5.430000E+03	3.609602E-16	4.685052E-18
5.440000E+03	3.615066E-16	4.720629E-18
5.450000E+03	3.619501E-16	4.754575E-18
5.460000E+03	3.624436E-16	4.788877E-18
5.470000E+03	3.629159E-16	4.822591E-18
5.480000E+03	3.633722E-16	4.855774E-18
5.490000E+03	3.637433E-16	4.887488E-18
5.500000E+03	3.641837E-16	4.919794E-18
5.510000E+03	3.645343E-16	4.950539E-18
5.520000E+03	3.649361E-16	4.981612E-18
5.530000E+03	3.652293E-16	5.010817E-18
5.540000E+03	3.655577E-16	5.040098E-18
5.550000E+03	3.657649E-16	5.067281E-18
5.560000E+03	3.659974E-16	5.094368E-18
5.570000E+03	3.661021E-16	5.119211E-18
5.580000E+03	3.661537E-16	5.142824E-18
5.590000E+03	3.662284E-16	5.166258E-18
5.600000E+03	3.661785E-16	5.187418E-18
5.610000E+03	3.660835E-16	5.207401E-18
5.620000E+03	3.659488E-16	5.226271E-18
5.630000E+03	3.657813E-16	5.244111E-18
5.640000E+03	3.655884E-16	5.261016E-18
5.650000E+03	3.653781E-16	5.277093E-18
5.660000E+03	3.651587E-16	5.292454E-18
5.670000E+03	3.649388E-16	5.307218E-18
5.680000E+03	3.647265E-16	5.321500E-18
5.690000E+03	3.645295E-16	5.335413E-18
5.700000E+03	3.643554E-16	5.349063E-18
5.710000E+03	3.641370E-16	5.361469E-18
5.720000E+03	3.640282E-16	5.374892E-18
5.730000E+03	3.639604E-16	5.388330E-18
5.740000E+03	3.638649E-16	5.400768E-18
5.750000E+03	3.638925E-16	5.414449E-18
5.760000E+03	3.638995E-16	5.427241E-18
5.770000E+03	3.640344E-16	5.441365E-18
5.780000E+03	3.641518E-16	5.454655E-18
5.790000E+03	3.643981E-16	5.469311E-18
5.800000E+03	3.646256E-16	5.483125E-18
5.810000E+03	3.649051E-16	5.497164E-18
5.820000E+03	3.653064E-16	5.512488E-18
5.830000E+03	3.656776E-16	5.526817E-18
5.840000E+03	3.660862E-16	5.541171E-18
5.850000E+03	3.665245E-16	5.555443E-18
5.860000E+03	3.669844E-16	5.569516E-18
5.870000E+03	3.674564E-16	5.583254E-18
5.880000E+03	3.679307E-16	5.596513E-18
5.890000E+03	3.683969E-16	5.609145E-18
5.900000E+03	3.688446E-16	5.620998E-18
5.910000E+03	3.692641E-16	5.631933E-18
5.920000E+03	3.696463E-16	5.641818E-18
5.930000E+03	3.699100E-16	5.649423E-18
5.940000E+03	3.701961E-16	5.656911E-18
5.950000E+03	3.704272E-16	5.663113E-18
5.960000E+03	3.705286E-16	5.666896E-18
5.970000E+03	3.706482E-16	5.670537E-18
5.980000E+03	3.706428E-16	5.671861E-18
5.990000E+03	3.706654E-16	5.673224E-18
6.000000E+03	3.705774E-16	5.672525E-18
6.010000E+03	3.704625E-16	5.671060E-18
6.020000E+03	3.704049E-16	5.670141E-18
6.030000E+03	3.702709E-16	5.667739E-18
6.040000E+03	3.701460E-16	5.665185E-18
6.050000E+03	3.700429E-16	5.662696E-18
6.060000E+03	3.699740E-16	5.660484E-18
6.070000E+03	3.700236E-16	5.659863E-18
6.080000E+03	3.700568E-16	5.658790E-18
6.090000E+03	3.700834E-16	5.657442E-18
6.100000E+03	3.702573E-16	5.658199E-18
6.110000E+03	3.705130E-16	5.660081E-18
6.120000E+03	3.708564E-16	5.663207E-18
6.130000E+03	3.712919E-16	5.667671E-18
6.140000E+03	3.718231E-16	5.673554E-18
6.150000E+03	3.723787E-16	5.679798E-18
6.160000E+03	3.731057E-16	5.688676E-18
6.170000E+03	3.738574E-16	5.697982E-18
6.180000E+03	3.747790E-16	5.709960E-18
6.190000E+03	3.757217E-16	5.722375E-18
6.200000E+03	3.768292E-16	5.737453E-18
6.210000E+03	3.779505E-16	5.752931E-18
6.220000E+03	3.791545E-16	5.769892E-18
6.230000E+03	3.805104E-16	5.789432E-18
6.240000E+03	3.818641E-16	5.809245E-18
6.250000E+03	3.832839E-16	5.830415E-18
6.260000E+03	3.847633E-16	5.852884E-18
6.270000E+03	3.862962E-16	5.876608E-18
6.280000E+03	3.878762E-16	5.901534E-18
6.290000E+03	3.894974E-16	5.927624E-18
6.300000E+03	3.911546E-16	5.954847E-18
6.310000E+03	3.928432E-16	5.983185E-18
6.320000E+03	3.945599E-16	6.012643E-18
6.330000E+03	3.962253E-16	6.042063E-18
6.340000E+03	3.979929E-16	6.073840E-18
6.350000E+03	3.997864E-16	6.106870E-18
6.360000E+03	4.015300E-16	6.140052E-18
6.370000E+03	4.033827E-16	6.175874E-18
6.380000E+03	4.051924E-16	6.212070E-18
6.390000E+03	4.071209E-16	6.251184E-18
6.400000E+03	4.090154E-16	6.290931E-18
6.410000E+03	4.110387E-16	6.333881E-18
6.420000E+03	4.130354E-16	6.377709E-18
6.430000E+03	4.150867E-16	6.423733E-18
6.440000E+03	4.171932E-16	6.472027E-18
6.450000E+03	4.193526E-16	6.522632E-18
6.460000E+03	4.215599E-16	6.575538E-18
6.470000E+03	4.238895E-16	6.631983E-18
6.480000E+03	4.261664E-16	6.689302E-18
6.490000E+03	4.283750E-16	6.747310E-18
6.500000E+03	4.306635E-16	6.808399E-18
6.510000E+03	4.329290E-16	6.870992E-18
6.520000E+03	4.351495E-16	6.934732E-18
6.530000E+03	4.373006E-16	6.999221E-18
6.540000E+03	4.392500E-16	7.062309E-18
6.550000E+03	4.410870E-16	7.125388E-18
6.560000E+03	4.426458E-16	7.185729E-18
6.570000E+03	4.437624E-16	7.240573E-18
6.580000E+03	4.445365E-16	7.291426E-18
6.590000E+03	4.447323E-16	7.334286E-18
6.600000E+03	4.443830E-16	7.369515E-18
6.610000E+03	4.435339E-16	7.397684E-18
6.620000E+03	4.419873E-16	7.415290E-18
6.630000E+03	4.398187E-16	7.423353E-18
6.640000E+03	4.370334E-16	7.421725E-18
6.650000E+03	4.337358E-16	7.411936E-18
6.660000E+03	4.297912E-16	7.391451E-18
6.670000E+03	4.253302E-16	7.362250E-18
6.680000E+03	4.204082E-16	7.325058E-18
6.690000E+03	4.150868E-16	7.280732E-18
6.700000E+03	4.093528E-16	7.228829E-18
6.710000E+03	4.034336E-16	7.173173E-18
6.720000E+03	3.973162E-16	7.113395E-18
6.730000E+03	3.910659E-16	7.050530E-18
6.740000E+03	3.847446E-16	6.985582E-18
6.750000E+03	3.783367E-16	6.918176E-18
6.760000E+03	3.720425E-16	6.851903E-18
6.770000E+03	3.657644E-16	6.784935E-18
6.780000E+03	3.596871E-16	6.720671E-18
6.790000E+03	3.537072E-16	6.657190E-18
6.800000E+03	3.479947E-16	6.597704E-18
6.810000E+03	3.424409E-16	6.540195E-18
6.820000E+03	3.371372E-16	6.486441E-18
6.830000E+03	3.321027E-16	6.436876E-18
6.840000E+03	3.274160E-16	6.393108E-18
6.850000E+03	3.229621E-16	6.352985E-18
6.860000E+03	3.188150E-16	6.318040E-18
6.870000E+03	3.149819E-16	6.288519E-18
6.880000E+03	3.114682E-16	6.264637E-18
6.890000E+03	3.082770E-16	6.246572E-18
6.900000E+03	3.054098E-16	6.234473E-18
6.910000E+03	3.028668E-16	6.228468E-18
6.920000E+03	3.006465E-16	6.228647E-18
6.930000E+03	2.986882E-16	6.233873E-18
6.940000E+03	2.971041E-16	6.246607E-18
6.950000E+03	2.958308E-16	6.265661E-18
6.960000E+03	2.948048E-16	6.289810E-18
6.970000E+03	2.941336E-16	6.321461E-18
6.980000E+03	2.936945E-16	6.358116E-18
6.990000E+03	2.935931E-16	6.402170E-18
7.000000E+03	2.937054E-16	6.451050E-18
7.010000E+03	2.941353E-16	6.507143E-18
7.020000E+03	2.947578E-16	6.567808E-18
7.030000E+03	2.956185E-16	6.634146E-18
7.040000E+03	2.967634E-16	6.707306E-18
7.050000E+03	2.980653E-16	6.784520E-18
7.060000E+03	2.995695E-16	6.866893E-18
7.070000E+03	3.012636E-16	6.954226E-18
7.080000E+03	3.031352E-16	7.046320E-18
7.090000E+03	3.051719E-16	7.142961E-18
7.100000E+03	3.073613E-16	7.243930E-18
7.110000E+03	3.096911E-16	7.349002E-18
7.120000E+03	3.121491E-16	7.457950E-18
7.130000E+03	3.147229E-16	7.570530E-18
7.140000E+03	3.174005E-16	7.686501E-18
7.150000E+03	3.201693E-16	7.805601E-18
7.160000E+03	3.229536E-16	7.926010E-18
7.170000E+03	3.258662E-16	8.050518E-18
7.180000E+03	3.288311E-16	8.177288E-18
7.190000E+03	3.317692E-16	8.304366E-18
7.200000E+03	3.347953E-16	8.434621E-18
7.210000E+03	3.377637E-16	8.564395E-18
7.220000E+03	3.407901E-16	8.696610E-18
7.230000E+03	3.437249E-16	8.827446E-18
7.240000E+03	3.466853E-16	8.959879E-18
7.250000E+03	3.495181E-16	9.089935E-18
7.260000E+03	3.522729E-16	9.218843E-18
7.270000E+03	3.549321E-16	9.346096E-18
7.280000E+03	3.575482E-16	9.473035E-18
7.290000E+03	3.599641E-16	9.595443E-18
7.300000E+03	3.622332E-16	9.714655E-18
7.310000E+03	3.643405E-16	9.830186E-18
7.320000E+03	3.662721E-16	9.941578E-18
7.330000E+03	3.680160E-16	1.004841E-17
7.340000E+03	3.695619E-16	1.015032E-17
7.350000E+03	3.709019E-16	1.024696E-17
7.360000E+03	3.720299E-16	1.033809E-17
7.370000E+03	3.729421E-16	1.042348E-17
7.380000E+03	3.735630E-16	1.050090E-17
7.390000E+03	3.740407E-16	1.057440E-17
7.400000E+03	3.743034E-16	1.064187E-17
7.410000E+03	3.743552E-16	1.070331E-17
7.420000E+03	3.741269E-16	1.075664E-17
7.430000E+03	3.737736E-16	1.080620E-17
7.440000E+03	3.731540E-16	1.084783E-17
7.450000E+03	3.724251E-16	1.088599E-17
7.460000E+03	3.714472E-16	1.091651E-17
7.470000E+03	3.703777E-16	1.094394E-17
7.480000E+03	3.690784E-16	1.096411E-17
7.490000E+03	3.677064E-16	1.098162E-17
7.500000E+03	3.661245E-16	1.099232E-17
7.510000E+03	3.644164E-16	1.099862E-17
7.520000E+03	3.625918E-16	1.100076E-17
7.530000E+03	3.607324E-16	1.100119E-17
7.540000E+03	3.587035E-16	1.099576E-17
7.550000E+03	3.565867E-16	1.098690E-17
7.560000E+03	3.543912E-16	1.097486E-17
7.570000E+03	3.521260E-16	1.095989E-17
7.580000E+03	3.497997E-16	1.094222E-17
7.590000E+03	3.474206E-16	1.092209E-17
7.600000E+03	3.449966E-16	1.089972E-17
7.610000E+03	3.425355E-16	1.087536E-17
7.620000E+03	3.400444E-16	1.084919E-17
7.630000E+03	3.375302E-16	1.082145E-17
7.640000E+03	3.349995E-16	1.079233E-17
7.650000E+03	3.323911E-16	1.075985E-17
7.660000E+03	3.298455E-16	1.072854E-17
7.670000E+03	3.273004E-16	1.069639E-17
7.680000E+03	3.247607E-16	1.066359E-17
7.690000E+03	3.221656E-16	1.062811E-17
7.700000E+03	3.196504E-16	1.059443E-17
7.710000E+03	3.170887E-16	1.055838E-17
7.720000E+03	3.146130E-16	1.052437E-17
7.730000E+03	3.121619E-16	1.049038E-17
7.740000E+03	3.096749E-16	1.045438E-17
7.750000E+03	3.072810E-16	1.042073E-17
7.760000E+03	3.048569E-16	1.038528E-17
