#wls	flux	fluxerr
1.600000E+03	7.910564E-18	5.550894E-19
1.640000E+03	8.104366E-18	5.658419E-19
1.680000E+03	8.312680E-18	5.773943E-19
1.720000E+03	8.532757E-18	5.895339E-19
1.760000E+03	8.769377E-18	6.025693E-19
1.800000E+03	9.015848E-18	6.160161E-19
1.840000E+03	9.281108E-18	6.304620E-19
1.880000E+03	9.562447E-18	6.456924E-19
1.920000E+03	9.861146E-18	6.617641E-19
1.960000E+03	1.017860E-17	6.787382E-19
2.000000E+03	1.052084E-17	6.969781E-19
2.040000E+03	1.088525E-17	7.162691E-19
2.080000E+03	1.127369E-17	7.366877E-19
2.120000E+03	1.168811E-17	7.583154E-19
2.160000E+03	1.213071E-17	7.812405E-19
2.200000E+03	1.260902E-17	8.058894E-19
2.240000E+03	1.312075E-17	8.320456E-19
2.280000E+03	1.366870E-17	8.598158E-19
2.320000E+03	1.425591E-17	8.893142E-19
2.360000E+03	1.489167E-17	9.210308E-19
2.400000E+03	1.557401E-17	9.547424E-19
2.440000E+03	1.630681E-17	9.905821E-19
2.480000E+03	1.709423E-17	1.028688E-18
2.520000E+03	1.794075E-17	1.069201E-18
2.560000E+03	1.885845E-17	1.112698E-18
2.600000E+03	1.984571E-17	1.158922E-18
2.640000E+03	2.090792E-17	1.208015E-18
2.680000E+03	2.205912E-17	1.260600E-18
2.720000E+03	2.328874E-17	1.315863E-18
2.760000E+03	2.462004E-17	1.374901E-18
2.800000E+03	2.605075E-17	1.437333E-18
2.840000E+03	2.759716E-17	1.503787E-18
2.880000E+03	2.924524E-17	1.573209E-18
2.920000E+03	3.102150E-17	1.646723E-18
2.960000E+03	3.292073E-17	1.723709E-18
3.000000E+03	3.495956E-17	1.804680E-18
3.010000E+03	3.548650E-17	1.825265E-18
3.020000E+03	3.602162E-17	1.846041E-18
3.030000E+03	3.656492E-17	1.867003E-18
3.040000E+03	3.711643E-17	1.888147E-18
3.050000E+03	3.767615E-17	1.909466E-18
3.060000E+03	3.824409E-17	1.930955E-18
3.070000E+03	3.883401E-17	1.953300E-18
3.080000E+03	3.941854E-17	1.975115E-18
3.090000E+03	4.001124E-17	1.997079E-18
3.100000E+03	4.061209E-17	2.019184E-18
3.110000E+03	4.122104E-17	2.041422E-18
3.120000E+03	4.185275E-17	2.064509E-18
3.130000E+03	4.247793E-17	2.086991E-18
3.140000E+03	4.311101E-17	2.109578E-18
3.150000E+03	4.376722E-17	2.133004E-18
3.160000E+03	4.441606E-17	2.155774E-18
3.170000E+03	4.507252E-17	2.178615E-18
3.180000E+03	4.573646E-17	2.201515E-18
3.190000E+03	4.642387E-17	2.225233E-18
3.200000E+03	4.710258E-17	2.248218E-18
3.210000E+03	4.780485E-17	2.272007E-18
3.220000E+03	4.849766E-17	2.295021E-18
3.230000E+03	4.919714E-17	2.318024E-18
3.240000E+03	4.992023E-17	2.341806E-18
3.250000E+03	5.063260E-17	2.364745E-18
3.260000E+03	5.136855E-17	2.388443E-18
3.270000E+03	5.209285E-17	2.411251E-18
3.280000E+03	5.282260E-17	2.433964E-18
3.290000E+03	5.357577E-17	2.457400E-18
3.300000E+03	5.431576E-17	2.479872E-18
3.310000E+03	5.507899E-17	2.503041E-18
3.320000E+03	5.582793E-17	2.525193E-18
3.330000E+03	5.659985E-17	2.548013E-18
3.340000E+03	5.735632E-17	2.569764E-18
3.350000E+03	5.813546E-17	2.592152E-18
3.360000E+03	5.891772E-17	2.614294E-18
3.370000E+03	5.968265E-17	2.635282E-18
3.380000E+03	6.046966E-17	2.656859E-18
3.390000E+03	6.123800E-17	2.677227E-18
3.400000E+03	6.202796E-17	2.698147E-18
3.410000E+03	6.281880E-17	2.718708E-18
3.420000E+03	6.358887E-17	2.737974E-18
3.430000E+03	6.437977E-17	2.757738E-18
3.440000E+03	6.514846E-17	2.776153E-18
3.450000E+03	6.593737E-17	2.795029E-18
3.460000E+03	6.672460E-17	2.813427E-18
3.470000E+03	6.748738E-17	2.830393E-18
3.480000E+03	6.826942E-17	2.847765E-18
3.490000E+03	6.904817E-17	2.864591E-18
3.500000E+03	6.980019E-17	2.879906E-18
3.510000E+03	7.057047E-17	2.895573E-18
3.520000E+03	7.133578E-17	2.910630E-18
3.530000E+03	7.209561E-17	2.925057E-18
3.540000E+03	7.282569E-17	2.937878E-18
3.550000E+03	7.357268E-17	2.950984E-18
3.560000E+03	7.431256E-17	2.963405E-18
3.570000E+03	7.504482E-17	2.975122E-18
3.580000E+03	7.576894E-17	2.986121E-18
3.590000E+03	7.645982E-17	2.995422E-18
3.600000E+03	7.716604E-17	3.004939E-18
3.610000E+03	7.786282E-17	3.013701E-18
3.620000E+03	7.854959E-17	3.021692E-18
3.630000E+03	7.922596E-17	3.028903E-18
3.640000E+03	7.986623E-17	3.034364E-18
3.650000E+03	8.052073E-17	3.039999E-18
3.660000E+03	8.116395E-17	3.044843E-18
3.670000E+03	8.179550E-17	3.048885E-18
3.680000E+03	8.241524E-17	3.052131E-18
3.690000E+03	8.302300E-17	3.054580E-18
3.700000E+03	8.361864E-17	3.056237E-18
3.710000E+03	8.420206E-17	3.057105E-18
3.720000E+03	8.474660E-17	3.056232E-18
3.730000E+03	8.530546E-17	3.055552E-18
3.740000E+03	8.585220E-17	3.054112E-18
3.750000E+03	8.638693E-17	3.051926E-18
3.760000E+03	8.690983E-17	3.049009E-18
3.770000E+03	8.742128E-17	3.045381E-18
3.780000E+03	8.792153E-17	3.041062E-18
3.790000E+03	8.841094E-17	3.036070E-18
3.800000E+03	8.889010E-17	3.030436E-18
3.810000E+03	8.935947E-17	3.024181E-18
3.820000E+03	8.981972E-17	3.017335E-18
3.830000E+03	9.027153E-17	3.009930E-18
3.840000E+03	9.071569E-17	3.001997E-18
3.850000E+03	9.115306E-17	2.993572E-18
3.860000E+03	9.158450E-17	2.984686E-18
3.870000E+03	9.201113E-17	2.975384E-18
3.880000E+03	9.243400E-17	2.965700E-18
3.890000E+03	9.285432E-17	2.955680E-18
3.900000E+03	9.327334E-17	2.945363E-18
3.910000E+03	9.369236E-17	2.934793E-18
3.920000E+03	9.411298E-17	2.924021E-18
3.930000E+03	9.453654E-17	2.913087E-18
3.940000E+03	9.496474E-17	2.902043E-18
3.950000E+03	9.539920E-17	2.890935E-18
3.960000E+03	9.584181E-17	2.879816E-18
3.970000E+03	9.629424E-17	2.868731E-18
3.980000E+03	9.675866E-17	2.857739E-18
3.990000E+03	9.723686E-17	2.846882E-18
4.000000E+03	9.773098E-17	2.836216E-18
4.010000E+03	9.827250E-17	2.826634E-18
4.020000E+03	9.880520E-17	2.816499E-18
4.030000E+03	9.936054E-17	2.806709E-18
4.040000E+03	9.994094E-17	2.797315E-18
4.050000E+03	1.005486E-16	2.788363E-18
4.060000E+03	1.011864E-16	2.779908E-18
4.070000E+03	1.018565E-16	2.771994E-18
4.080000E+03	1.025618E-16	2.764673E-18
4.090000E+03	1.033048E-16	2.757988E-18
4.100000E+03	1.040883E-16	2.751985E-18
4.110000E+03	1.049149E-16	2.746706E-18
4.120000E+03	1.057877E-16	2.742198E-18
4.130000E+03	1.067403E-16	2.739296E-18
4.140000E+03	1.077138E-16	2.736441E-18
4.150000E+03	1.087419E-16	2.734467E-18
4.160000E+03	1.098275E-16	2.733411E-18
4.170000E+03	1.109733E-16	2.733301E-18
4.180000E+03	1.121825E-16	2.734167E-18
4.190000E+03	1.134577E-16	2.736033E-18
4.200000E+03	1.148018E-16	2.738921E-18
4.210000E+03	1.162174E-16	2.742845E-18
4.220000E+03	1.177073E-16	2.747821E-18
4.230000E+03	1.193081E-16	2.754643E-18
4.240000E+03	1.209541E-16	2.761736E-18
4.250000E+03	1.226814E-16	2.769887E-18
4.260000E+03	1.244919E-16	2.779084E-18
4.270000E+03	1.263875E-16	2.789314E-18
4.280000E+03	1.283695E-16	2.800552E-18
4.290000E+03	1.304390E-16	2.812768E-18
4.300000E+03	1.325972E-16	2.825930E-18
4.310000E+03	1.348445E-16	2.839995E-18
4.320000E+03	1.371813E-16	2.854915E-18
4.330000E+03	1.396077E-16	2.870641E-18
4.340000E+03	1.421235E-16	2.887118E-18
4.350000E+03	1.447692E-16	2.905110E-18
4.360000E+03	1.474640E-16	2.922936E-18
4.370000E+03	1.502479E-16	2.941362E-18
4.380000E+03	1.531208E-16	2.960345E-18
4.390000E+03	1.560834E-16	2.979853E-18
4.400000E+03	1.591358E-16	2.999849E-18
4.410000E+03	1.622776E-16	3.020286E-18
4.420000E+03	1.655089E-16	3.041129E-18
4.430000E+03	1.688299E-16	3.062349E-18
4.440000E+03	1.722411E-16	3.083923E-18
4.450000E+03	1.757429E-16	3.105829E-18
4.460000E+03	1.793359E-16	3.128054E-18
4.470000E+03	1.830202E-16	3.150571E-18
4.480000E+03	1.867957E-16	3.173360E-18
4.490000E+03	1.906618E-16	3.196396E-18
4.500000E+03	1.946173E-16	3.219641E-18
4.510000E+03	1.986604E-16	3.243059E-18
4.520000E+03	2.027884E-16	3.266603E-18
4.530000E+03	2.069977E-16	3.290219E-18
4.540000E+03	2.112840E-16	3.313844E-18
4.550000E+03	2.156412E-16	3.337402E-18
4.560000E+03	2.200629E-16	3.360813E-18
4.570000E+03	2.245411E-16	3.383976E-18
4.580000E+03	2.290670E-16	3.406789E-18
4.590000E+03	2.335680E-16	3.428220E-18
4.600000E+03	2.381588E-16	3.450010E-18
4.610000E+03	2.427662E-16	3.471132E-18
4.620000E+03	2.473790E-16	3.491487E-18
4.630000E+03	2.519849E-16	3.510979E-18
4.640000E+03	2.565719E-16	3.529521E-18
4.650000E+03	2.611276E-16	3.547034E-18
4.660000E+03	2.656398E-16	3.563455E-18
4.670000E+03	2.700247E-16	3.577781E-18
4.680000E+03	2.744138E-16	3.591882E-18
4.690000E+03	2.787259E-16	3.604796E-18
4.700000E+03	2.829516E-16	3.616529E-18
4.710000E+03	2.870826E-16	3.627113E-18
4.720000E+03	2.910359E-16	3.635646E-18
4.730000E+03	2.949600E-16	3.644135E-18
4.740000E+03	2.987769E-16	3.651739E-18
4.750000E+03	3.024872E-16	3.658606E-18
4.760000E+03	3.060143E-16	3.663961E-18
4.770000E+03	3.095254E-16	3.669955E-18
4.780000E+03	3.129516E-16	3.675886E-18
4.790000E+03	3.162987E-16	3.681951E-18
4.800000E+03	3.194665E-16	3.687124E-18
4.810000E+03	3.226030E-16	3.693253E-18
4.820000E+03	3.256091E-16	3.699322E-18
4.830000E+03	3.283858E-16	3.704348E-18
4.840000E+03	3.310915E-16	3.710257E-18
4.850000E+03	3.335453E-16	3.715144E-18
4.860000E+03	3.359121E-16	3.720975E-18
4.870000E+03	3.380995E-16	3.726832E-18
4.880000E+03	3.400153E-16	3.731810E-18
4.890000E+03	3.418313E-16	3.737898E-18
4.900000E+03	3.433702E-16	3.743243E-18
4.910000E+03	3.448085E-16	3.749847E-18
4.920000E+03	3.459713E-16	3.755861E-18
4.930000E+03	3.470396E-16	3.763237E-18
4.940000E+03	3.478407E-16	3.770049E-18
4.950000E+03	3.485584E-16	3.778233E-18
4.960000E+03	3.490211E-16	3.785856E-18
4.970000E+03	3.493258E-16	3.793889E-18
4.980000E+03	3.495695E-16	3.803298E-18
4.990000E+03	3.495832E-16	3.812152E-18
5.000000E+03	3.495545E-16	3.822393E-18
5.010000E+03	3.493156E-16	3.832085E-18
5.020000E+03	3.489662E-16	3.842211E-18
5.030000E+03	3.485171E-16	3.852778E-18
5.040000E+03	3.480677E-16	3.864782E-18
5.050000E+03	3.474534E-16	3.876291E-18
5.060000E+03	3.467736E-16	3.888299E-18
5.070000E+03	3.460402E-16	3.900837E-18
5.080000E+03	3.453513E-16	3.914914E-18
5.090000E+03	3.445444E-16	3.928601E-18
5.100000E+03	3.437176E-16	3.942911E-18
5.110000E+03	3.428814E-16	3.957878E-18
5.120000E+03	3.420459E-16	3.973539E-18
5.130000E+03	3.412208E-16	3.989929E-18
5.140000E+03	3.404145E-16	4.007077E-18
5.150000E+03	3.396351E-16	4.025013E-18
5.160000E+03	3.388900E-16	4.043764E-18
5.170000E+03	3.381849E-16	4.063345E-18
5.180000E+03	3.375253E-16	4.083772E-18
5.190000E+03	3.369152E-16	4.105049E-18
5.200000E+03	3.363579E-16	4.127175E-18
5.210000E+03	3.358554E-16	4.150139E-18
5.220000E+03	3.354089E-16	4.173920E-18
5.230000E+03	3.350186E-16	4.198491E-18
5.240000E+03	3.346838E-16	4.223818E-18
5.250000E+03	3.344027E-16	4.249852E-18
5.260000E+03	3.340913E-16	4.275493E-18
5.270000E+03	3.339109E-16	4.302778E-18
5.280000E+03	3.337757E-16	4.330595E-18
5.290000E+03	3.336819E-16	4.358876E-18
5.300000E+03	3.335435E-16	4.386472E-18
5.310000E+03	3.335195E-16	4.415449E-18
5.320000E+03	3.335235E-16	4.444659E-18
5.330000E+03	3.334695E-16	4.472934E-18
5.340000E+03	3.335160E-16	4.502376E-18
5.350000E+03	3.334958E-16	4.530718E-18
5.360000E+03	3.335674E-16	4.560090E-18
5.370000E+03	3.335649E-16	4.588217E-18
5.380000E+03	3.336468E-16	4.617257E-18
5.390000E+03	3.336488E-16	4.644928E-18
5.400000E+03	3.337301E-16	4.673426E-18
5.410000E+03	3.337279E-16	4.700465E-18
5.420000E+03	3.338023E-16	4.728281E-18
5.430000E+03	3.337921E-16	4.754585E-18
5.440000E+03	3.337781E-16	4.780504E-18
5.450000E+03	3.338419E-16	4.807205E-18
5.460000E+03	3.338241E-16	4.832390E-18
5.470000E+03	3.338075E-16	4.857239E-18
5.480000E+03	3.337947E-16	4.881784E-18
5.490000E+03	3.337889E-16	4.906068E-18
5.500000E+03	3.338714E-16	4.931287E-18
5.510000E+03	3.338776E-16	4.955004E-18
5.520000E+03	3.338821E-16	4.978295E-18
5.530000E+03	3.338797E-16	5.001069E-18
5.540000E+03	3.338662E-16	5.023242E-18
5.550000E+03	3.338377E-16	5.044741E-18
5.560000E+03	3.337913E-16	5.065502E-18
5.570000E+03	3.337248E-16	5.085476E-18
5.580000E+03	3.336369E-16	5.104627E-18
5.590000E+03	3.335269E-16	5.122928E-18
5.600000E+03	3.333162E-16	5.139152E-18
5.610000E+03	3.331639E-16	5.155734E-18
5.620000E+03	3.329928E-16	5.171475E-18
5.630000E+03	3.328052E-16	5.186400E-18
5.640000E+03	3.326041E-16	5.200544E-18
5.650000E+03	3.323145E-16	5.212722E-18
5.660000E+03	3.320973E-16	5.225446E-18
5.670000E+03	3.318778E-16	5.237543E-18
5.680000E+03	3.315823E-16	5.247841E-18
5.690000E+03	3.313712E-16	5.258870E-18
5.700000E+03	3.310928E-16	5.268225E-18
5.710000E+03	3.309069E-16	5.278445E-18
5.720000E+03	3.306620E-16	5.287113E-18
5.730000E+03	3.305168E-16	5.296769E-18
5.740000E+03	3.303196E-16	5.304981E-18
5.750000E+03	3.301509E-16	5.313043E-18
5.760000E+03	3.300903E-16	5.322238E-18
5.770000E+03	3.299852E-16	5.330116E-18
5.780000E+03	3.299143E-16	5.337944E-18
5.790000E+03	3.299558E-16	5.346995E-18
5.800000E+03	3.299559E-16	5.354782E-18
5.810000E+03	3.299915E-16	5.362557E-18
5.820000E+03	3.300622E-16	5.370318E-18
5.830000E+03	3.301669E-16	5.378053E-18
5.840000E+03	3.303044E-16	5.385748E-18
5.850000E+03	3.304730E-16	5.393382E-18
5.860000E+03	3.306705E-16	5.400927E-18
5.870000E+03	3.308951E-16	5.408360E-18
5.880000E+03	3.311442E-16	5.415646E-18
5.890000E+03	3.314161E-16	5.422764E-18
5.900000E+03	3.317085E-16	5.429687E-18
5.910000E+03	3.320194E-16	5.436391E-18
5.920000E+03	3.323474E-16	5.442863E-18
5.930000E+03	3.326915E-16	5.449093E-18
5.940000E+03	3.329738E-16	5.453821E-18
5.950000E+03	3.333481E-16	5.459576E-18
5.960000E+03	3.337380E-16	5.465120E-18
5.970000E+03	3.340673E-16	5.469218E-18
5.980000E+03	3.344919E-16	5.474437E-18
5.990000E+03	3.348598E-16	5.478303E-18
6.000000E+03	3.353279E-16	5.483400E-18
6.010000E+03	3.357452E-16	5.487275E-18
6.020000E+03	3.362698E-16	5.492528E-18
6.030000E+03	3.367511E-16	5.496720E-18
6.040000E+03	3.373482E-16	5.502462E-18
6.050000E+03	3.379105E-16	5.507321E-18
6.060000E+03	3.385197E-16	5.512649E-18
6.070000E+03	3.392580E-16	5.519804E-18
6.080000E+03	3.399743E-16	5.526347E-18
6.090000E+03	3.407500E-16	5.533628E-18
6.100000E+03	3.415889E-16	5.541731E-18
6.110000E+03	3.424940E-16	5.550727E-18
6.120000E+03	3.434680E-16	5.560689E-18
6.130000E+03	3.445131E-16	5.571674E-18
6.140000E+03	3.456309E-16	5.583741E-18
6.150000E+03	3.468225E-16	5.596931E-18
6.160000E+03	3.480883E-16	5.611283E-18
6.170000E+03	3.494277E-16	5.626820E-18
6.180000E+03	3.508402E-16	5.643563E-18
6.190000E+03	3.523240E-16	5.661524E-18
6.200000E+03	3.538771E-16	5.680703E-18
6.210000E+03	3.554967E-16	5.701095E-18
6.220000E+03	3.570979E-16	5.721384E-18
6.230000E+03	3.588398E-16	5.744157E-18
6.240000E+03	3.606364E-16	5.768087E-18
6.250000E+03	3.624010E-16	5.791830E-18
6.260000E+03	3.642929E-16	5.817985E-18
6.270000E+03	3.661410E-16	5.843871E-18
6.280000E+03	3.681057E-16	5.872104E-18
6.290000E+03	3.700144E-16	5.899982E-18
6.300000E+03	3.720283E-16	5.930139E-18
6.310000E+03	3.739725E-16	5.959846E-18
6.320000E+03	3.760101E-16	5.991764E-18
6.330000E+03	3.779643E-16	6.023139E-18
6.340000E+03	3.799132E-16	6.055284E-18
6.350000E+03	3.818503E-16	6.088158E-18
6.360000E+03	3.838557E-16	6.123110E-18
6.370000E+03	3.857489E-16	6.157328E-18
6.380000E+03	3.876096E-16	6.192152E-18
6.390000E+03	3.894303E-16	6.227533E-18
6.400000E+03	3.912037E-16	6.263420E-18
6.410000E+03	3.929217E-16	6.299757E-18
6.420000E+03	3.945766E-16	6.336481E-18
6.430000E+03	3.961594E-16	6.373519E-18
6.440000E+03	3.976611E-16	6.410787E-18
6.450000E+03	3.990725E-16	6.448197E-18
6.460000E+03	4.003831E-16	6.485639E-18
6.470000E+03	4.015824E-16	6.522996E-18
6.480000E+03	4.025682E-16	6.558651E-18
6.490000E+03	4.035103E-16	6.595410E-18
6.500000E+03	4.043055E-16	6.631633E-18
6.510000E+03	4.048493E-16	6.665614E-18
6.520000E+03	4.053116E-16	6.700104E-18
6.530000E+03	4.055873E-16	6.733318E-18
6.540000E+03	4.055667E-16	6.763360E-18
6.550000E+03	4.054082E-16	6.792782E-18
6.560000E+03	4.049045E-16	6.818026E-18
6.570000E+03	4.041253E-16	6.840142E-18
6.580000E+03	4.031421E-16	6.860231E-18
6.590000E+03	4.017567E-16	6.874796E-18
6.600000E+03	4.001393E-16	6.886597E-18
6.610000E+03	3.981015E-16	6.892250E-18
6.620000E+03	3.957319E-16	6.893108E-18
6.630000E+03	3.930341E-16	6.889065E-18
6.640000E+03	3.901047E-16	6.881651E-18
6.650000E+03	3.867804E-16	6.867820E-18
6.660000E+03	3.831683E-16	6.849281E-18
6.670000E+03	3.792914E-16	6.826272E-18
6.680000E+03	3.751759E-16	6.799101E-18
6.690000E+03	3.708515E-16	6.768145E-18
6.700000E+03	3.663502E-16	6.733844E-18
6.710000E+03	3.617057E-16	6.696677E-18
6.720000E+03	3.569526E-16	6.657160E-18
6.730000E+03	3.520461E-16	6.614342E-18
6.740000E+03	3.471810E-16	6.571775E-18
6.750000E+03	3.423105E-16	6.528519E-18
6.760000E+03	3.374668E-16	6.485126E-18
6.770000E+03	3.326058E-16	6.440694E-18
6.780000E+03	3.279074E-16	6.398667E-18
6.790000E+03	3.233219E-16	6.358084E-18
6.800000E+03	3.188018E-16	6.318001E-18
6.810000E+03	3.145138E-16	6.281729E-18
6.820000E+03	3.103345E-16	6.246842E-18
6.830000E+03	3.064222E-16	6.216559E-18
6.840000E+03	3.026524E-16	6.188420E-18
6.850000E+03	2.991753E-16	6.165547E-18
6.860000E+03	2.958655E-16	6.145443E-18
6.870000E+03	2.928664E-16	6.131156E-18
6.880000E+03	2.900515E-16	6.120138E-18
6.890000E+03	2.874932E-16	6.113988E-18
6.900000E+03	2.851948E-16	6.112883E-18
6.910000E+03	2.832226E-16	6.118358E-18
6.920000E+03	2.814491E-16	6.127778E-18
6.930000E+03	2.799385E-16	6.142632E-18
6.940000E+03	2.786897E-16	6.163010E-18
6.950000E+03	2.777002E-16	6.188972E-18
6.960000E+03	2.769670E-16	6.220566E-18
6.970000E+03	2.764859E-16	6.257817E-18
6.980000E+03	2.762521E-16	6.300732E-18
6.990000E+03	2.762604E-16	6.349306E-18
7.000000E+03	2.765043E-16	6.403504E-18
7.010000E+03	2.769771E-16	6.463281E-18
7.020000E+03	2.776716E-16	6.528579E-18
7.030000E+03	2.785164E-16	6.597814E-18
7.040000E+03	2.796294E-16	6.673866E-18
7.050000E+03	2.809383E-16	6.755135E-18
7.060000E+03	2.823697E-16	6.839937E-18
7.070000E+03	2.840414E-16	6.931201E-18
7.080000E+03	2.858791E-16	7.027226E-18
7.090000E+03	2.878062E-16	7.126195E-18
7.100000E+03	2.899419E-16	7.231120E-18
7.110000E+03	2.921428E-16	7.338503E-18
7.120000E+03	2.945288E-16	7.451410E-18
7.130000E+03	2.969538E-16	7.566206E-18
7.140000E+03	2.995390E-16	7.686018E-18
7.150000E+03	3.021351E-16	7.807065E-18
7.160000E+03	3.048649E-16	7.932546E-18
7.170000E+03	3.075757E-16	8.058524E-18
7.180000E+03	3.103219E-16	8.186415E-18
7.190000E+03	3.130883E-16	8.315829E-18
7.200000E+03	3.159315E-16	8.448286E-18
7.210000E+03	3.186928E-16	8.579547E-18
7.220000E+03	3.214280E-16	8.711076E-18
7.230000E+03	3.241217E-16	8.842431E-18
7.240000E+03	3.267584E-16	8.973159E-18
7.250000E+03	3.293229E-16	9.102801E-18
7.260000E+03	3.318003E-16	9.230901E-18
7.270000E+03	3.341762E-16	9.357001E-18
7.280000E+03	3.364366E-16	9.480648E-18
7.290000E+03	3.385686E-16	9.601409E-18
7.300000E+03	3.405598E-16	9.718856E-18
7.310000E+03	3.423989E-16	9.832583E-18
7.320000E+03	3.440755E-16	9.942207E-18
7.330000E+03	3.455809E-16	1.004738E-17
7.340000E+03	3.468274E-16	1.014545E-17
7.350000E+03	3.479678E-16	1.024075E-17
7.360000E+03	3.489174E-16	1.033074E-17
7.370000E+03	3.496730E-16	1.041521E-17
7.380000E+03	3.501517E-16	1.049156E-17
7.390000E+03	3.505136E-16	1.056448E-17
7.400000E+03	3.506789E-16	1.063148E-17
7.410000E+03	3.505686E-16	1.069004E-17
7.420000E+03	3.503476E-16	1.074509E-17
7.430000E+03	3.498584E-16	1.079169E-17
7.440000E+03	3.492677E-16	1.083488E-17
7.450000E+03	3.484207E-16	1.086978E-17
7.460000E+03	3.474852E-16	1.090152E-17
7.470000E+03	3.463084E-16	1.092522E-17
7.480000E+03	3.449790E-16	1.094359E-17
7.490000E+03	3.435854E-16	1.095935E-17
7.500000E+03	3.419775E-16	1.096767E-17
7.510000E+03	3.402443E-16	1.097130E-17
7.520000E+03	3.383955E-16	1.097049E-17
7.530000E+03	3.365191E-16	1.096806E-17
7.540000E+03	3.344678E-16	1.095916E-17
7.550000E+03	3.323298E-16	1.094661E-17
7.560000E+03	3.301144E-16	1.093069E-17
7.570000E+03	3.278310E-16	1.091165E-17
7.580000E+03	3.254885E-16	1.088978E-17
7.590000E+03	3.230952E-16	1.086532E-17
7.600000E+03	3.207348E-16	1.084108E-17
7.610000E+03	3.182646E-16	1.081222E-17
7.620000E+03	3.156940E-16	1.077903E-17
7.630000E+03	3.131781E-16	1.074677E-17
7.640000E+03	3.106495E-16	1.071315E-17
7.650000E+03	3.081144E-16	1.067838E-17
7.660000E+03	3.055788E-16	1.064267E-17
7.670000E+03	3.030482E-16	1.060622E-17
7.680000E+03	3.005275E-16	1.056921E-17
7.690000E+03	2.980217E-16	1.053181E-17
7.700000E+03	2.954654E-16	1.049173E-17
7.710000E+03	2.930021E-16	1.045405E-17
7.720000E+03	2.905652E-16	1.041645E-17
7.730000E+03	2.881579E-16	1.037905E-17
7.740000E+03	2.857159E-16	1.033955E-17
7.750000E+03	2.833766E-16	1.030293E-17
7.760000E+03	2.810083E-16	1.026442E-17
