#wls	flux	fluxerr
1.600000E+03	4.757156E-17	4.440567E-17
1.640000E+03	4.777912E-17	4.454338E-17
1.680000E+03	4.803017E-17	4.471375E-17
1.720000E+03	4.830705E-17	4.489922E-17
1.760000E+03	4.861068E-17	4.509943E-17
1.800000E+03	4.896110E-17	4.533156E-17
1.840000E+03	4.935966E-17	4.559522E-17
1.880000E+03	4.979808E-17	4.588090E-17
1.920000E+03	5.027757E-17	4.618772E-17
1.960000E+03	5.081909E-17	4.653259E-17
2.000000E+03	5.141445E-17	4.690532E-17
2.040000E+03	5.207519E-17	4.731346E-17
2.080000E+03	5.279301E-17	4.774608E-17
2.120000E+03	5.358986E-17	4.821925E-17
2.160000E+03	5.444719E-17	4.871201E-17
2.200000E+03	5.538729E-17	4.923962E-17
2.240000E+03	5.641215E-17	4.979846E-17
2.280000E+03	5.752367E-17	5.038424E-17
2.320000E+03	5.871283E-17	5.098260E-17
2.360000E+03	5.999170E-17	5.159702E-17
2.400000E+03	6.137257E-17	5.223023E-17
2.440000E+03	6.285675E-17	5.287463E-17
2.480000E+03	6.442253E-17	5.350283E-17
2.520000E+03	6.610376E-17	5.413327E-17
2.560000E+03	6.788895E-17	5.474573E-17
2.600000E+03	6.978876E-17	5.533746E-17
2.640000E+03	7.178976E-17	5.588582E-17
2.680000E+03	7.391286E-17	5.639458E-17
2.720000E+03	7.614243E-17	5.683833E-17
2.760000E+03	7.849765E-17	5.721739E-17
2.800000E+03	8.097227E-17	5.751183E-17
2.840000E+03	8.357062E-17	5.770847E-17
2.880000E+03	8.629523E-17	5.779117E-17
2.920000E+03	8.915923E-17	5.774861E-17
2.960000E+03	9.216056E-17	5.755634E-17
3.000000E+03	9.530678E-17	5.719262E-17
3.010000E+03	9.612645E-17	5.707761E-17
3.020000E+03	9.695344E-17	5.694830E-17
3.030000E+03	9.777430E-17	5.679637E-17
3.040000E+03	9.861463E-17	5.663624E-17
3.050000E+03	9.947400E-17	5.646689E-17
3.060000E+03	1.003389E-16	5.627991E-17
3.070000E+03	1.012088E-16	5.607445E-17
3.080000E+03	1.020963E-16	5.585682E-17
3.090000E+03	1.029876E-16	5.561877E-17
3.100000E+03	1.038954E-16	5.536639E-17
3.110000E+03	1.048059E-16	5.509157E-17
3.120000E+03	1.057316E-16	5.480016E-17
3.130000E+03	1.066718E-16	5.449090E-17
3.140000E+03	1.076126E-16	5.415589E-17
3.150000E+03	1.085796E-16	5.380715E-17
3.160000E+03	1.095457E-16	5.343023E-17
3.170000E+03	1.105232E-16	5.303040E-17
3.180000E+03	1.115245E-16	5.261247E-17
3.190000E+03	1.125222E-16	5.216259E-17
3.200000E+03	1.135419E-16	5.169162E-17
3.210000E+03	1.145692E-16	5.119199E-17
3.220000E+03	1.156033E-16	5.066229E-17
3.230000E+03	1.166562E-16	5.010673E-17
3.240000E+03	1.177136E-16	4.951806E-17
3.250000E+03	1.187874E-16	4.890028E-17
3.260000E+03	1.198635E-16	4.824640E-17
3.270000E+03	1.209537E-16	4.756019E-17
3.280000E+03	1.220566E-16	4.683996E-17
3.290000E+03	1.231709E-16	4.608405E-17
3.300000E+03	1.242953E-16	4.529082E-17
3.310000E+03	1.254284E-16	4.445872E-17
3.320000E+03	1.265689E-16	4.358623E-17
3.330000E+03	1.277280E-16	4.267621E-17
3.340000E+03	1.288917E-16	4.172275E-17
3.350000E+03	1.300583E-16	4.072462E-17
3.360000E+03	1.312392E-16	3.968456E-17
3.370000E+03	1.324330E-16	3.860117E-17
3.380000E+03	1.336381E-16	3.747321E-17
3.390000E+03	1.348406E-16	3.629627E-17
3.400000E+03	1.360644E-16	3.507647E-17
3.410000E+03	1.372955E-16	3.380977E-17
3.420000E+03	1.385454E-16	3.249892E-17
3.430000E+03	1.397884E-16	3.113823E-17
3.440000E+03	1.410608E-16	2.973673E-17
3.450000E+03	1.423378E-16	2.829008E-17
3.460000E+03	1.436317E-16	2.680283E-17
3.470000E+03	1.449432E-16	2.527789E-17
3.480000E+03	1.462740E-16	2.371959E-17
3.490000E+03	1.476265E-16	2.213420E-17
3.500000E+03	1.490165E-16	2.053224E-17
3.510000E+03	1.504491E-16	1.892587E-17
3.520000E+03	1.519197E-16	1.733119E-17
3.530000E+03	1.534492E-16	1.577487E-17
3.540000E+03	1.550491E-16	1.429289E-17
3.550000E+03	1.567330E-16	1.293632E-17
3.560000E+03	1.585279E-16	1.177611E-17
3.570000E+03	1.604391E-16	1.089987E-17
3.580000E+03	1.624834E-16	1.040219E-17
3.590000E+03	1.646994E-16	1.035494E-17
3.600000E+03	1.670784E-16	1.076962E-17
3.610000E+03	1.696545E-16	1.159650E-17
3.620000E+03	1.724259E-16	1.274652E-17
3.630000E+03	1.754012E-16	1.412774E-17
3.640000E+03	1.785999E-16	1.566416E-17
3.650000E+03	1.820312E-16	1.729794E-17
3.660000E+03	1.857059E-16	1.898741E-17
3.670000E+03	1.896364E-16	2.070295E-17
3.680000E+03	1.938374E-16	2.242352E-17
3.690000E+03	1.983363E-16	2.413537E-17
3.700000E+03	2.031511E-16	2.582770E-17
3.710000E+03	2.082892E-16	2.749102E-17
3.720000E+03	2.137933E-16	2.912225E-17
3.730000E+03	2.196605E-16	3.071355E-17
3.740000E+03	2.259340E-16	3.226419E-17
3.750000E+03	2.326335E-16	3.377087E-17
3.760000E+03	2.397655E-16	3.522872E-17
3.770000E+03	2.473588E-16	3.663635E-17
3.780000E+03	2.554281E-16	3.799054E-17
3.790000E+03	2.639974E-16	3.928973E-17
3.800000E+03	2.730501E-16	4.052655E-17
3.810000E+03	2.826148E-16	4.170075E-17
3.820000E+03	2.926901E-16	4.280816E-17
3.830000E+03	3.032683E-16	4.384438E-17
3.840000E+03	3.143213E-16	4.480298E-17
3.850000E+03	3.258524E-16	4.568327E-17
3.860000E+03	3.378165E-16	4.647905E-17
3.870000E+03	3.501711E-16	4.718641E-17
3.880000E+03	3.628635E-16	4.780216E-17
3.890000E+03	3.758437E-16	4.832594E-17
3.900000E+03	3.890366E-16	4.875683E-17
3.910000E+03	4.023403E-16	4.909372E-17
3.920000E+03	4.156863E-16	4.934298E-17
3.930000E+03	4.289363E-16	4.950593E-17
3.940000E+03	4.419882E-16	4.959152E-17
3.950000E+03	4.547182E-16	4.960897E-17
3.960000E+03	4.670144E-16	4.957069E-17
3.970000E+03	4.787186E-16	4.948498E-17
3.980000E+03	4.897235E-16	4.936517E-17
3.990000E+03	4.999317E-16	4.922365E-17
4.000000E+03	5.092141E-16	4.906668E-17
4.010000E+03	5.175240E-16	4.890472E-17
4.020000E+03	5.247921E-16	4.874139E-17
4.030000E+03	5.309756E-16	4.857815E-17
4.040000E+03	5.360900E-16	4.841713E-17
4.050000E+03	5.401620E-16	4.825701E-17
4.060000E+03	5.432421E-16	4.809489E-17
4.070000E+03	5.453867E-16	4.792559E-17
4.080000E+03	5.466828E-16	4.774491E-17
4.090000E+03	5.472273E-16	4.754897E-17
4.100000E+03	5.471081E-16	4.733357E-17
4.110000E+03	5.464405E-16	4.709816E-17
4.120000E+03	5.453214E-16	4.684218E-17
4.130000E+03	5.438015E-16	4.656282E-17
4.140000E+03	5.420011E-16	4.626471E-17
4.150000E+03	5.399532E-16	4.594596E-17
4.160000E+03	5.377319E-16	4.560863E-17
4.170000E+03	5.353778E-16	4.525168E-17
4.180000E+03	5.329251E-16	4.487296E-17
4.190000E+03	5.304149E-16	4.447023E-17
4.200000E+03	5.278736E-16	4.403965E-17
4.210000E+03	5.253382E-16	4.357842E-17
4.220000E+03	5.228356E-16	4.308363E-17
4.230000E+03	5.203957E-16	4.255382E-17
4.240000E+03	5.180625E-16	4.199008E-17
4.250000E+03	5.158641E-16	4.139370E-17
4.260000E+03	5.138442E-16	4.076864E-17
4.270000E+03	5.120701E-16	4.012198E-17
4.280000E+03	5.105743E-16	3.945926E-17
4.290000E+03	5.094209E-16	3.878969E-17
4.300000E+03	5.086656E-16	3.812324E-17
4.310000E+03	5.083542E-16	3.747114E-17
4.320000E+03	5.085561E-16	3.684903E-17
4.330000E+03	5.093008E-16	3.627308E-17
4.340000E+03	5.106293E-16	3.576435E-17
4.350000E+03	5.125930E-16	3.534847E-17
4.360000E+03	5.151948E-16	3.505062E-17
4.370000E+03	5.184749E-16	3.489925E-17
4.380000E+03	5.224521E-16	3.491839E-17
4.390000E+03	5.271334E-16	3.512352E-17
4.400000E+03	5.325374E-16	3.551879E-17
4.410000E+03	5.386630E-16	3.609382E-17
4.420000E+03	5.455142E-16	3.682806E-17
4.430000E+03	5.530928E-16	3.769415E-17
4.440000E+03	5.613972E-16	3.866148E-17
4.450000E+03	5.704284E-16	3.969962E-17
4.460000E+03	5.801712E-16	4.077911E-17
4.470000E+03	5.905994E-16	4.187316E-17
4.480000E+03	6.016894E-16	4.295926E-17
4.490000E+03	6.133847E-16	4.401667E-17
4.500000E+03	6.256276E-16	4.502836E-17
4.510000E+03	6.383152E-16	4.597712E-17
4.520000E+03	6.513590E-16	4.684901E-17
4.530000E+03	6.646156E-16	4.762732E-17
4.540000E+03	6.779481E-16	4.829608E-17
4.550000E+03	6.911918E-16	4.883689E-17
4.560000E+03	7.041630E-16	4.922933E-17
4.570000E+03	7.166688E-16	4.945185E-17
4.580000E+03	7.284896E-16	4.948104E-17
4.590000E+03	7.393975E-16	4.929371E-17
4.600000E+03	7.491301E-16	4.886606E-17
4.610000E+03	7.574413E-16	4.817834E-17
4.620000E+03	7.640593E-16	4.721365E-17
4.630000E+03	7.687244E-16	4.596274E-17
4.640000E+03	7.711825E-16	4.442687E-17
4.650000E+03	7.712306E-16	4.262498E-17
4.660000E+03	7.686867E-16	4.059764E-17
4.670000E+03	7.634778E-16	3.841821E-17
4.680000E+03	7.555903E-16	3.619585E-17
4.690000E+03	7.451238E-16	3.408015E-17
4.700000E+03	7.322890E-16	3.225178E-17
4.710000E+03	7.174072E-16	3.089177E-17
4.720000E+03	7.008984E-16	3.012392E-17
4.730000E+03	6.832611E-16	2.995642E-17
4.740000E+03	6.650560E-16	3.027899E-17
4.750000E+03	6.468626E-16	3.092380E-17
4.760000E+03	6.292633E-16	3.173352E-17
4.770000E+03	6.128178E-16	3.259507E-17
4.780000E+03	5.980423E-16	3.344364E-17
4.790000E+03	5.853733E-16	3.425199E-17
4.800000E+03	5.752073E-16	3.502076E-17
4.810000E+03	5.678393E-16	3.576424E-17
4.820000E+03	5.635030E-16	3.650439E-17
4.830000E+03	5.623624E-16	3.726457E-17
4.840000E+03	5.644850E-16	3.806391E-17
4.850000E+03	5.698849E-16	3.891794E-17
4.860000E+03	5.784573E-16	3.983316E-17
4.870000E+03	5.900437E-16	4.081132E-17
4.880000E+03	6.043488E-16	4.184435E-17
4.890000E+03	6.209861E-16	4.291856E-17
4.900000E+03	6.394405E-16	4.401312E-17
4.910000E+03	6.591026E-16	4.510336E-17
4.920000E+03	6.792579E-16	4.616032E-17
4.930000E+03	6.991580E-16	4.715496E-17
4.940000E+03	7.180137E-16	4.805620E-17
4.950000E+03	7.351071E-16	4.883630E-17
4.960000E+03	7.498117E-16	4.946996E-17
4.970000E+03	7.616866E-16	4.993904E-17
4.980000E+03	7.704632E-16	5.023128E-17
4.990000E+03	7.760846E-16	5.034377E-17
5.000000E+03	7.787229E-16	5.028578E-17
5.010000E+03	7.786974E-16	5.007529E-17
5.020000E+03	7.764723E-16	4.974039E-17
5.030000E+03	7.725605E-16	4.931392E-17
5.040000E+03	7.675307E-16	4.883394E-17
5.050000E+03	7.619011E-16	4.833623E-17
5.060000E+03	7.561465E-16	4.785363E-17
5.070000E+03	7.506427E-16	4.741132E-17
5.080000E+03	7.456911E-16	4.702742E-17
5.090000E+03	7.414950E-16	4.671116E-17
5.100000E+03	7.381708E-16	4.646375E-17
5.110000E+03	7.357792E-16	4.628094E-17
5.120000E+03	7.343428E-16	4.615474E-17
5.130000E+03	7.338473E-16	4.607387E-17
5.140000E+03	7.342650E-16	4.602564E-17
5.150000E+03	7.355588E-16	4.599658E-17
5.160000E+03	7.377150E-16	4.597529E-17
5.170000E+03	7.407230E-16	4.595220E-17
5.180000E+03	7.445764E-16	4.592072E-17
5.190000E+03	7.493011E-16	4.587998E-17
5.200000E+03	7.548935E-16	4.583125E-17
5.210000E+03	7.613595E-16	4.577969E-17
5.220000E+03	7.687052E-16	4.573221E-17
5.230000E+03	7.768786E-16	4.569185E-17
5.240000E+03	7.858176E-16	4.565907E-17
5.250000E+03	7.954031E-16	4.562865E-17
5.260000E+03	8.054892E-16	4.559274E-17
5.270000E+03	8.158797E-16	4.554223E-17
5.280000E+03	8.263420E-16	4.547103E-17
5.290000E+03	8.366089E-16	4.537869E-17
5.300000E+03	8.464119E-16	4.527211E-17
5.310000E+03	8.555026E-16	4.516279E-17
5.320000E+03	8.636495E-16	4.505977E-17
5.330000E+03	8.706971E-16	4.496461E-17
5.340000E+03	8.765494E-16	4.486377E-17
5.350000E+03	8.812092E-16	4.472701E-17
5.360000E+03	8.847794E-16	4.450852E-17
5.370000E+03	8.874166E-16	4.415012E-17
5.380000E+03	8.893747E-16	4.359181E-17
5.390000E+03	8.909162E-16	4.277565E-17
5.400000E+03	8.923130E-16	4.165276E-17
5.410000E+03	8.938476E-16	4.018898E-17
5.420000E+03	8.957276E-16	3.836657E-17
5.430000E+03	8.981297E-16	3.619404E-17
5.440000E+03	9.011463E-16	3.371630E-17
5.450000E+03	9.047791E-16	3.103486E-17
5.460000E+03	9.089167E-16	2.833906E-17
5.470000E+03	9.133613E-16	2.594566E-17
5.480000E+03	9.177625E-16	2.430220E-17
5.490000E+03	9.216876E-16	2.385958E-17
5.500000E+03	9.245939E-16	2.478164E-17
5.510000E+03	9.258972E-16	2.679668E-17
5.520000E+03	9.249817E-16	2.940499E-17
5.530000E+03	9.212947E-16	3.214883E-17
5.540000E+03	9.143697E-16	3.470988E-17
5.550000E+03	9.039210E-16	3.690049E-17
5.560000E+03	8.898725E-16	3.863146E-17
5.570000E+03	8.723636E-16	3.988519E-17
5.580000E+03	8.518106E-16	4.069902E-17
5.590000E+03	8.288549E-16	4.114684E-17
5.600000E+03	8.043412E-16	4.132255E-17
5.610000E+03	7.792284E-16	4.132129E-17
5.620000E+03	7.545787E-16	4.122869E-17
5.630000E+03	7.314256E-16	4.111104E-17
5.640000E+03	7.107731E-16	4.101921E-17
5.650000E+03	6.934910E-16	4.099054E-17
5.660000E+03	6.803479E-16	4.105762E-17
5.670000E+03	6.719580E-16	4.124905E-17
5.680000E+03	6.688115E-16	4.159194E-17
5.690000E+03	6.713033E-16	4.211239E-17
5.700000E+03	6.797332E-16	4.283352E-17
5.710000E+03	6.942938E-16	4.377290E-17
5.720000E+03	7.151058E-16	4.494369E-17
5.730000E+03	7.421711E-16	4.635152E-17
5.740000E+03	7.753840E-16	4.799594E-17
5.750000E+03	8.144520E-16	4.986717E-17
5.760000E+03	8.589093E-16	5.194932E-17
5.770000E+03	9.080893E-16	5.422137E-17
5.780000E+03	9.610988E-16	5.665777E-17
5.790000E+03	1.016815E-15	5.922932E-17
5.800000E+03	1.073973E-15	6.190698E-17
5.810000E+03	1.131150E-15	6.465710E-17
5.820000E+03	1.186874E-15	6.744079E-17
5.830000E+03	1.239696E-15	7.020930E-17
5.840000E+03	1.288251E-15	7.289941E-17
5.850000E+03	1.331373E-15	7.543375E-17
5.860000E+03	1.368094E-15	7.772029E-17
5.870000E+03	1.397735E-15	7.966232E-17
5.880000E+03	1.419867E-15	8.116700E-17
5.890000E+03	1.434331E-15	8.216028E-17
5.900000E+03	1.441251E-15	8.260025E-17
5.910000E+03	1.440958E-15	8.248176E-17
5.920000E+03	1.433959E-15	8.183687E-17
5.930000E+03	1.420924E-15	8.073057E-17
5.940000E+03	1.402649E-15	7.924996E-17
5.950000E+03	1.379951E-15	7.748731E-17
5.960000E+03	1.353775E-15	7.553537E-17
5.970000E+03	1.325000E-15	7.346924E-17
5.980000E+03	1.294556E-15	7.134968E-17
5.990000E+03	1.263289E-15	6.921640E-17
6.000000E+03	1.232019E-15	6.709629E-17
6.010000E+03	1.201467E-15	6.500488E-17
6.020000E+03	1.172273E-15	6.295279E-17
6.030000E+03	1.144971E-15	6.094766E-17
6.040000E+03	1.119971E-15	5.899360E-17
6.050000E+03	1.097585E-15	5.709031E-17
6.060000E+03	1.077986E-15	5.522647E-17
6.070000E+03	1.061228E-15	5.337665E-17
6.080000E+03	1.047278E-15	5.149987E-17
6.090000E+03	1.035993E-15	4.953879E-17
6.100000E+03	1.027136E-15	4.742384E-17
6.110000E+03	1.020412E-15	4.508131E-17
6.120000E+03	1.015471E-15	4.244341E-17
6.130000E+03	1.011926E-15	3.946345E-17
6.140000E+03	1.009372E-15	3.613844E-17
6.150000E+03	1.007386E-15	3.254434E-17
6.160000E+03	1.005573E-15	2.889343E-17
6.170000E+03	1.003550E-15	2.560915E-17
6.180000E+03	1.000985E-15	2.335777E-17
6.190000E+03	9.976520E-16	2.282307E-17
6.200000E+03	9.934666E-16	2.416831E-17
6.210000E+03	9.884743E-16	2.686755E-17
6.220000E+03	9.828373E-16	3.019577E-17
6.230000E+03	9.767720E-16	3.362065E-17
6.240000E+03	9.705252E-16	3.684490E-17
6.250000E+03	9.643569E-16	3.972971E-17
6.260000E+03	9.584983E-16	4.222531E-17
6.270000E+03	9.531280E-16	4.432822E-17
6.280000E+03	9.483983E-16	4.605934E-17
6.290000E+03	9.443225E-16	4.744622E-17
6.300000E+03	9.408762E-16	4.852120E-17
6.310000E+03	9.378985E-16	4.931363E-17
6.320000E+03	9.351544E-16	4.985167E-17
6.330000E+03	9.323139E-16	5.016114E-17
6.340000E+03	9.290365E-16	5.026984E-17
6.350000E+03	9.249245E-16	5.020413E-17
6.360000E+03	9.196529E-16	4.999393E-17
6.370000E+03	9.129615E-16	4.966911E-17
6.380000E+03	9.047192E-16	4.925931E-17
6.390000E+03	8.949784E-16	4.879363E-17
6.400000E+03	8.839478E-16	4.829698E-17
6.410000E+03	8.720457E-16	4.779276E-17
6.420000E+03	8.598383E-16	4.730150E-17
6.430000E+03	8.479983E-16	4.684219E-17
6.440000E+03	8.372610E-16	4.643446E-17
6.450000E+03	8.283942E-16	4.610124E-17
6.460000E+03	8.220867E-16	4.586563E-17
6.470000E+03	8.189663E-16	4.575288E-17
6.480000E+03	8.195157E-16	4.578490E-17
6.490000E+03	8.241010E-16	4.598024E-17
6.500000E+03	8.329024E-16	4.634938E-17
6.510000E+03	8.459457E-16	4.689701E-17
6.520000E+03	8.630479E-16	4.762069E-17
6.530000E+03	8.838734E-16	4.851572E-17
6.540000E+03	9.078715E-16	4.957226E-17
6.550000E+03	9.343149E-16	5.077578E-17
6.560000E+03	9.623296E-16	5.210465E-17
6.570000E+03	9.909683E-16	5.352799E-17
6.580000E+03	1.019236E-15	5.500116E-17
6.590000E+03	1.046194E-15	5.646814E-17
6.600000E+03	1.071001E-15	5.786551E-17
6.610000E+03	1.092978E-15	5.913179E-17
6.620000E+03	1.111629E-15	6.021512E-17
6.630000E+03	1.126640E-15	6.107867E-17
6.640000E+03	1.137864E-15	6.170222E-17
6.650000E+03	1.145295E-15	6.208016E-17
6.660000E+03	1.149020E-15	6.221754E-17
6.670000E+03	1.149178E-15	6.212585E-17
6.680000E+03	1.145908E-15	6.181937E-17
6.690000E+03	1.139360E-15	6.131623E-17
6.700000E+03	1.129657E-15	6.063759E-17
6.710000E+03	1.116884E-15	5.980733E-17
6.720000E+03	1.101141E-15	5.885379E-17
6.730000E+03	1.082622E-15	5.781059E-17
6.740000E+03	1.061592E-15	5.671056E-17
6.750000E+03	1.038434E-15	5.558294E-17
6.760000E+03	1.013692E-15	5.445200E-17
6.770000E+03	9.880618E-16	5.333676E-17
6.780000E+03	9.623270E-16	5.225162E-17
6.790000E+03	9.373749E-16	5.121329E-17
6.800000E+03	9.140664E-16	5.023967E-17
6.810000E+03	8.932637E-16	4.935520E-17
6.820000E+03	8.757540E-16	4.858816E-17
6.830000E+03	8.621884E-16	4.796672E-17
6.840000E+03	8.531190E-16	4.751933E-17
6.850000E+03	8.489527E-16	4.726990E-17
6.860000E+03	8.499206E-16	4.723386E-17
6.870000E+03	8.560965E-16	4.741729E-17
6.880000E+03	8.673766E-16	4.781414E-17
6.890000E+03	8.834778E-16	4.840532E-17
6.900000E+03	9.038991E-16	4.915647E-17
6.910000E+03	9.279492E-16	5.002083E-17
6.920000E+03	9.547590E-16	5.094284E-17
6.930000E+03	9.832776E-16	5.186242E-17
6.940000E+03	1.012368E-15	5.272514E-17
6.950000E+03	1.040833E-15	5.348744E-17
6.960000E+03	1.067541E-15	5.412410E-17
6.970000E+03	1.091521E-15	5.463109E-17
6.980000E+03	1.112015E-15	5.502407E-17
6.990000E+03	1.128525E-15	5.533460E-17
7.000000E+03	1.140919E-15	5.560845E-17
7.010000E+03	1.149272E-15	5.588888E-17
7.020000E+03	1.153967E-15	5.621253E-17
7.030000E+03	1.155537E-15	5.659445E-17
7.040000E+03	1.154590E-15	5.702380E-17
7.050000E+03	1.151830E-15	5.747298E-17
7.060000E+03	1.147909E-15	5.790457E-17
7.070000E+03	1.143461E-15	5.828778E-17
7.080000E+03	1.139019E-15	5.860500E-17
7.090000E+03	1.135047E-15	5.885745E-17
7.100000E+03	1.131920E-15	5.906163E-17
7.110000E+03	1.129917E-15	5.924190E-17
7.120000E+03	1.129223E-15	5.942141E-17
7.130000E+03	1.129941E-15	5.961630E-17
7.140000E+03	1.132041E-15	5.983065E-17
7.150000E+03	1.135455E-15	6.006344E-17
7.160000E+03	1.139979E-15	6.030634E-17
7.170000E+03	1.145369E-15	6.055251E-17
7.180000E+03	1.151313E-15	6.079702E-17
7.190000E+03	1.157397E-15	6.103620E-17
7.200000E+03	1.163211E-15	6.127274E-17
7.210000E+03	1.168313E-15	6.151203E-17
7.220000E+03	1.172275E-15	6.176065E-17
7.230000E+03	1.174697E-15	6.202214E-17
7.240000E+03	1.175304E-15	6.229642E-17
7.250000E+03	1.173869E-15	6.257222E-17
7.260000E+03	1.170332E-15	6.283322E-17
7.270000E+03	1.164735E-15	6.305728E-17
7.280000E+03	1.157282E-15	6.322470E-17
7.290000E+03	1.148210E-15	6.331670E-17
7.300000E+03	1.137864E-15	6.332311E-17
7.310000E+03	1.126597E-15	6.323859E-17
7.320000E+03	1.114741E-15	6.305958E-17
7.330000E+03	1.102639E-15	6.278328E-17
7.340000E+03	1.090513E-15	6.239755E-17
7.350000E+03	1.078605E-15	6.188775E-17
7.360000E+03	1.067034E-15	6.122834E-17
7.370000E+03	1.055849E-15	6.038657E-17
7.380000E+03	1.045067E-15	5.932468E-17
7.390000E+03	1.034619E-15	5.799769E-17
7.400000E+03	1.024423E-15	5.635777E-17
7.410000E+03	1.014355E-15	5.435452E-17
7.420000E+03	1.004251E-15	5.193868E-17
7.430000E+03	9.940034E-16	4.907298E-17
7.440000E+03	9.834698E-16	4.573634E-17
7.450000E+03	9.725745E-16	4.194244E-17
7.460000E+03	9.612664E-16	3.775738E-17
7.470000E+03	9.495491E-16	3.333306E-17
7.480000E+03	9.374455E-16	2.895842E-17
7.490000E+03	9.250360E-16	2.513470E-17
7.500000E+03	9.124592E-16	2.260023E-17
7.510000E+03	8.998806E-16	2.206699E-17
7.520000E+03	8.875311E-16	2.363219E-17
7.530000E+03	8.756940E-16	2.667317E-17
7.540000E+03	8.646406E-16	3.042960E-17
7.550000E+03	8.546492E-16	3.438237E-17
7.560000E+03	8.459303E-16	3.825514E-17
7.570000E+03	8.386964E-16	4.192678E-17
7.580000E+03	8.330799E-16	4.535879E-17
7.590000E+03	8.291777E-16	4.855652E-17
7.600000E+03	8.270416E-16	5.154619E-17
7.610000E+03	8.266796E-16	5.436212E-17
7.620000E+03	8.280583E-16	5.703936E-17
7.630000E+03	8.310935E-16	5.960820E-17
7.640000E+03	8.356961E-16	6.209444E-17
7.650000E+03	8.417087E-16	6.451288E-17
7.660000E+03	8.489417E-16	6.686856E-17
7.670000E+03	8.572005E-16	6.915830E-17
7.680000E+03	8.662571E-16	7.136860E-17
7.690000E+03	8.758679E-16	7.347771E-17
7.700000E+03	8.857811E-16	7.545769E-17
7.710000E+03	8.957326E-16	7.727620E-17
7.720000E+03	9.054901E-16	7.890273E-17
7.730000E+03	9.148263E-16	8.030868E-17
7.740000E+03	9.235382E-16	8.147067E-17
7.750000E+03	9.314541E-16	8.237207E-17
7.760000E+03	9.384263E-16	8.300245E-17
