#wls	flux	fluxerr
1.600000E+03	1.277688E-14	1.042930E-14
1.640000E+03	1.352103E-14	1.101920E-14
1.680000E+03	1.429492E-14	1.162880E-14
1.720000E+03	1.509702E-14	1.225595E-14
1.760000E+03	1.592509E-14	1.289779E-14
1.800000E+03	1.677623E-14	1.355078E-14
1.840000E+03	1.764651E-14	1.421038E-14
1.880000E+03	1.853135E-14	1.487134E-14
1.920000E+03	1.942485E-14	1.552720E-14
1.960000E+03	2.032025E-14	1.617061E-14
2.000000E+03	2.120966E-14	1.679318E-14
2.040000E+03	2.208463E-14	1.738596E-14
2.080000E+03	2.293587E-14	1.793918E-14
2.120000E+03	2.375219E-14	1.844155E-14
2.160000E+03	2.451269E-14	1.887435E-14
2.200000E+03	2.518896E-14	1.921346E-14
2.240000E+03	2.575537E-14	1.943770E-14
2.280000E+03	2.619744E-14	1.953517E-14
2.320000E+03	2.651567E-14	1.950583E-14
2.360000E+03	2.672353E-14	1.935951E-14
2.400000E+03	2.684324E-14	1.911215E-14
2.440000E+03	2.690012E-14	1.878126E-14
2.480000E+03	2.691942E-14	1.838326E-14
2.520000E+03	2.692392E-14	1.793169E-14
2.560000E+03	2.693242E-14	1.743606E-14
2.600000E+03	2.695636E-14	1.689986E-14
2.640000E+03	2.699449E-14	1.631785E-14
2.680000E+03	2.703630E-14	1.567946E-14
2.720000E+03	2.706915E-14	1.497405E-14
2.760000E+03	2.707950E-14	1.419231E-14
2.800000E+03	2.705239E-14	1.332656E-14
2.840000E+03	2.697155E-14	1.237163E-14
2.880000E+03	2.681898E-14	1.132565E-14
2.920000E+03	2.657497E-14	1.019113E-14
2.960000E+03	2.621846E-14	8.976336E-15
3.000000E+03	2.572834E-14	7.696880E-15
3.010000E+03	2.558252E-14	7.369542E-15
3.020000E+03	2.542685E-14	7.040116E-15
3.030000E+03	2.526112E-14	6.709124E-15
3.040000E+03	2.508497E-14	6.377088E-15
3.050000E+03	2.489824E-14	6.044613E-15
3.060000E+03	2.470080E-14	5.712344E-15
3.070000E+03	2.449247E-14	5.380948E-15
3.080000E+03	2.427311E-14	5.051134E-15
3.090000E+03	2.404271E-14	4.723669E-15
3.100000E+03	2.380130E-14	4.399361E-15
3.110000E+03	2.354881E-14	4.079028E-15
3.120000E+03	2.328540E-14	3.763563E-15
3.130000E+03	2.301119E-14	3.453889E-15
3.140000E+03	2.272652E-14	3.151001E-15
3.150000E+03	2.243151E-14	2.855906E-15
3.160000E+03	2.212670E-14	2.569726E-15
3.170000E+03	2.181235E-14	2.293623E-15
3.180000E+03	2.148904E-14	2.028901E-15
3.190000E+03	2.115729E-14	1.776998E-15
3.200000E+03	2.081764E-14	1.539567E-15
3.210000E+03	2.047074E-14	1.318565E-15
3.220000E+03	2.011727E-14	1.116353E-15
3.230000E+03	1.975802E-14	9.357666E-16
3.240000E+03	1.939468E-14	7.799259E-16
3.250000E+03	1.903126E-14	6.513886E-16
3.260000E+03	1.867493E-14	5.511228E-16
3.270000E+03	1.833402E-14	4.780773E-16
3.280000E+03	1.801564E-14	4.284122E-16
3.290000E+03	1.772533E-14	3.956550E-16
3.300000E+03	1.746526E-14	3.732895E-16
3.310000E+03	1.723282E-14	3.565158E-16
3.320000E+03	1.702106E-14	3.423325E-16
3.330000E+03	1.682051E-14	3.296632E-16
3.340000E+03	1.662398E-14	3.183310E-16
3.350000E+03	1.643027E-14	3.077972E-16
3.360000E+03	1.624162E-14	2.977409E-16
3.370000E+03	1.606111E-14	2.879946E-16
3.380000E+03	1.589282E-14	2.778945E-16
3.390000E+03	1.573896E-14	2.671923E-16
3.400000E+03	1.559756E-14	2.561799E-16
3.410000E+03	1.546200E-14	2.451357E-16
3.420000E+03	1.532218E-14	2.350655E-16
3.430000E+03	1.516816E-14	2.268560E-16
3.440000E+03	1.499378E-14	2.201225E-16
3.450000E+03	1.479643E-14	2.150469E-16
3.460000E+03	1.457983E-14	2.120468E-16
3.470000E+03	1.435744E-14	2.100447E-16
3.480000E+03	1.414611E-14	2.083560E-16
3.490000E+03	1.396013E-14	2.070844E-16
3.500000E+03	1.380986E-14	2.056721E-16
3.510000E+03	1.370054E-14	2.039660E-16
3.520000E+03	1.363191E-14	2.022474E-16
3.530000E+03	1.359885E-14	2.000611E-16
3.540000E+03	1.359198E-14	1.972571E-16
3.550000E+03	1.359980E-14	1.938167E-16
3.560000E+03	1.361053E-14	1.886875E-16
3.570000E+03	1.361196E-14	1.814956E-16
3.580000E+03	1.359214E-14	1.735870E-16
3.590000E+03	1.354107E-14	1.676993E-16
3.600000E+03	1.345230E-14	1.675862E-16
3.610000E+03	1.333617E-14	1.713353E-16
3.620000E+03	1.320894E-14	1.752864E-16
3.630000E+03	1.308478E-14	1.786511E-16
3.640000E+03	1.297617E-14	1.820740E-16
3.650000E+03	1.289436E-14	1.851076E-16
3.660000E+03	1.284760E-14	1.873584E-16
3.670000E+03	1.283886E-14	1.890043E-16
3.680000E+03	1.286534E-14	1.898581E-16
3.690000E+03	1.291856E-14	1.901114E-16
3.700000E+03	1.298600E-14	1.901190E-16
3.710000E+03	1.305241E-14	1.893563E-16
3.720000E+03	1.309993E-14	1.876118E-16
3.730000E+03	1.310925E-14	1.852442E-16
3.740000E+03	1.306291E-14	1.824115E-16
3.750000E+03	1.294731E-14	1.801233E-16
3.760000E+03	1.276057E-14	1.793529E-16
3.770000E+03	1.251838E-14	1.791595E-16
3.780000E+03	1.224574E-14	1.785317E-16
3.790000E+03	1.196762E-14	1.773157E-16
3.800000E+03	1.170537E-14	1.752700E-16
3.810000E+03	1.147500E-14	1.726556E-16
3.820000E+03	1.128436E-14	1.700233E-16
3.830000E+03	1.113270E-14	1.673056E-16
3.840000E+03	1.101350E-14	1.645779E-16
3.850000E+03	1.091850E-14	1.620529E-16
3.860000E+03	1.083976E-14	1.593757E-16
3.870000E+03	1.077018E-14	1.564771E-16
3.880000E+03	1.070384E-14	1.535921E-16
3.890000E+03	1.063698E-14	1.506066E-16
3.900000E+03	1.056740E-14	1.479285E-16
3.910000E+03	1.049463E-14	1.461409E-16
3.920000E+03	1.042098E-14	1.448956E-16
3.930000E+03	1.034940E-14	1.440109E-16
3.940000E+03	1.028229E-14	1.435300E-16
3.950000E+03	1.022175E-14	1.426988E-16
3.960000E+03	1.016852E-14	1.409786E-16
3.970000E+03	1.012183E-14	1.383727E-16
3.980000E+03	1.007969E-14	1.347938E-16
3.990000E+03	1.003961E-14	1.308204E-16
4.000000E+03	1.000075E-14	1.272352E-16
4.010000E+03	9.965413E-15	1.240490E-16
4.020000E+03	9.937352E-15	1.219179E-16
4.030000E+03	9.920012E-15	1.216268E-16
4.040000E+03	9.916682E-15	1.224190E-16
4.050000E+03	9.928077E-15	1.238319E-16
4.060000E+03	9.950001E-15	1.260360E-16
4.070000E+03	9.972739E-15	1.283512E-16
4.080000E+03	9.982771E-15	1.304476E-16
4.090000E+03	9.967710E-15	1.323097E-16
4.100000E+03	9.920134E-15	1.328512E-16
4.110000E+03	9.836713E-15	1.312415E-16
4.120000E+03	9.717966E-15	1.275759E-16
4.130000E+03	9.569471E-15	1.221830E-16
4.140000E+03	9.399931E-15	1.161286E-16
4.150000E+03	9.219699E-15	1.104928E-16
4.160000E+03	9.040734E-15	1.052378E-16
4.170000E+03	8.873956E-15	1.006806E-16
4.180000E+03	8.726158E-15	9.732356E-17
4.190000E+03	8.599264E-15	9.460007E-17
4.200000E+03	8.491639E-15	9.257948E-17
4.210000E+03	8.400567E-15	9.177356E-17
4.220000E+03	8.324181E-15	9.143670E-17
4.230000E+03	8.261283E-15	9.119587E-17
4.240000E+03	8.212257E-15	9.128722E-17
4.250000E+03	8.179298E-15	9.114468E-17
4.260000E+03	8.166053E-15	9.067823E-17
4.270000E+03	8.176263E-15	9.042844E-17
4.280000E+03	8.212983E-15	9.048606E-17
4.290000E+03	8.277316E-15	9.166872E-17
4.300000E+03	8.365344E-15	9.477524E-17
4.310000E+03	8.465047E-15	9.853283E-17
4.320000E+03	8.558031E-15	1.013704E-16
4.330000E+03	8.622163E-15	1.024006E-16
4.340000E+03	8.633537E-15	1.005321E-16
4.350000E+03	8.573466E-15	9.532868E-17
4.360000E+03	8.440607E-15	8.703725E-17
4.370000E+03	8.257413E-15	7.623968E-17
4.380000E+03	8.061053E-15	6.678776E-17
4.390000E+03	7.897131E-15	6.656648E-17
4.400000E+03	7.788858E-15	7.448133E-17
4.410000E+03	7.730974E-15	8.339773E-17
4.420000E+03	7.713140E-15	9.082606E-17
4.430000E+03	7.721802E-15	9.617566E-17
4.440000E+03	7.742687E-15	9.977912E-17
4.450000E+03	7.762624E-15	1.022141E-16
4.460000E+03	7.771044E-15	1.033083E-16
4.470000E+03	7.760882E-15	1.029288E-16
4.480000E+03	7.729316E-15	1.013228E-16
4.490000E+03	7.678693E-15	9.869468E-17
4.500000E+03	7.614364E-15	9.578747E-17
4.510000E+03	7.542080E-15	9.336950E-17
4.520000E+03	7.466628E-15	9.125619E-17
4.530000E+03	7.392018E-15	8.946092E-17
4.540000E+03	7.322499E-15	8.826308E-17
4.550000E+03	7.263155E-15	8.731554E-17
4.560000E+03	7.218738E-15	8.672568E-17
4.570000E+03	7.192476E-15	8.702137E-17
4.580000E+03	7.185618E-15	8.814397E-17
4.590000E+03	7.197173E-15	9.043261E-17
4.600000E+03	7.223744E-15	9.442367E-17
4.610000E+03	7.260064E-15	9.948587E-17
4.620000E+03	7.299174E-15	1.046747E-16
4.630000E+03	7.333159E-15	1.093260E-16
4.640000E+03	7.353866E-15	1.125696E-16
4.650000E+03	7.353713E-15	1.137654E-16
4.660000E+03	7.327292E-15	1.128250E-16
4.670000E+03	7.272140E-15	1.100066E-16
4.680000E+03	7.188887E-15	1.060173E-16
4.690000E+03	7.080844E-15	1.015273E-16
4.700000E+03	6.953901E-15	9.665502E-17
4.710000E+03	6.814826E-15	9.176415E-17
4.720000E+03	6.668587E-15	8.775441E-17
4.730000E+03	6.521597E-15	8.504307E-17
4.740000E+03	6.385490E-15	8.341151E-17
4.750000E+03	6.268787E-15	8.274777E-17
4.760000E+03	6.175678E-15	8.247304E-17
4.770000E+03	6.107244E-15	8.227082E-17
4.780000E+03	6.062944E-15	8.220503E-17
4.790000E+03	6.040774E-15	8.213947E-17
4.800000E+03	6.037840E-15	8.222084E-17
4.810000E+03	6.050268E-15	8.280938E-17
4.820000E+03	6.073251E-15	8.389339E-17
4.830000E+03	6.101200E-15	8.558339E-17
4.840000E+03	6.127671E-15	8.791704E-17
4.850000E+03	6.146070E-15	9.013162E-17
4.860000E+03	6.150225E-15	9.138296E-17
4.870000E+03	6.135896E-15	9.123160E-17
4.880000E+03	6.102428E-15	8.941745E-17
4.890000E+03	6.051851E-15	8.613730E-17
4.900000E+03	5.987817E-15	8.192682E-17
4.910000E+03	5.915260E-15	7.730600E-17
4.920000E+03	5.839275E-15	7.312698E-17
4.930000E+03	5.763957E-15	6.999369E-17
4.940000E+03	5.691894E-15	6.757002E-17
4.950000E+03	5.624366E-15	6.577863E-17
4.960000E+03	5.562000E-15	6.477910E-17
4.970000E+03	5.505452E-15	6.401776E-17
4.980000E+03	5.455063E-15	6.324313E-17
4.990000E+03	5.410498E-15	6.260196E-17
5.000000E+03	5.370794E-15	6.177532E-17
5.010000E+03	5.334549E-15	6.077655E-17
5.020000E+03	5.300184E-15	5.988758E-17
5.030000E+03	5.266139E-15	5.885433E-17
5.040000E+03	5.231123E-15	5.781103E-17
5.050000E+03	5.194610E-15	5.710729E-17
5.060000E+03	5.157277E-15	5.633605E-17
5.070000E+03	5.120463E-15	5.543741E-17
5.080000E+03	5.085698E-15	5.470751E-17
5.090000E+03	5.054373E-15	5.385413E-17
5.100000E+03	5.027727E-15	5.306665E-17
5.110000E+03	5.006189E-15	5.279597E-17
5.120000E+03	4.989286E-15	5.257761E-17
5.130000E+03	4.975734E-15	5.231533E-17
5.140000E+03	4.963525E-15	5.235535E-17
5.150000E+03	4.950264E-15	5.229881E-17
5.160000E+03	4.933495E-15	5.209009E-17
5.170000E+03	4.911818E-15	5.207954E-17
5.180000E+03	4.885612E-15	5.191085E-17
5.190000E+03	4.856351E-15	5.152094E-17
5.200000E+03	4.826202E-15	5.122448E-17
5.210000E+03	4.797316E-15	5.076141E-17
5.220000E+03	4.771535E-15	5.021224E-17
5.230000E+03	4.749815E-15	4.991152E-17
5.240000E+03	4.731939E-15	4.950744E-17
5.250000E+03	4.716955E-15	4.900625E-17
5.260000E+03	4.703745E-15	4.870285E-17
5.270000E+03	4.691426E-15	4.817769E-17
5.280000E+03	4.679421E-15	4.742751E-17
5.290000E+03	4.667338E-15	4.684587E-17
5.300000E+03	4.654774E-15	4.615256E-17
5.310000E+03	4.641537E-15	4.552404E-17
5.320000E+03	4.627841E-15	4.544948E-17
5.330000E+03	4.614235E-15	4.545977E-17
5.340000E+03	4.601441E-15	4.538655E-17
5.350000E+03	4.589908E-15	4.552481E-17
5.360000E+03	4.579675E-15	4.555201E-17
5.370000E+03	4.570295E-15	4.554644E-17
5.380000E+03	4.560767E-15	4.590751E-17
5.390000E+03	4.549352E-15	4.620811E-17
5.400000E+03	4.534016E-15	4.624697E-17
5.410000E+03	4.513037E-15	4.622194E-17
5.420000E+03	4.484771E-15	4.579372E-17
5.430000E+03	4.448170E-15	4.487775E-17
5.440000E+03	4.402344E-15	4.363101E-17
5.450000E+03	4.346788E-15	4.162629E-17
5.460000E+03	4.282662E-15	3.872421E-17
5.470000E+03	4.215242E-15	3.508857E-17
5.480000E+03	4.154328E-15	3.089092E-17
5.490000E+03	4.114467E-15	2.877306E-17
5.500000E+03	4.105497E-15	3.151226E-17
5.510000E+03	4.111886E-15	3.528446E-17
5.520000E+03	4.120513E-15	3.778656E-17
5.530000E+03	4.123290E-15	3.895223E-17
5.540000E+03	4.117168E-15	3.897515E-17
5.550000E+03	4.102872E-15	3.862808E-17
5.560000E+03	4.082265E-15	3.866597E-17
5.570000E+03	4.057144E-15	3.868961E-17
5.580000E+03	4.029367E-15	3.861499E-17
5.590000E+03	4.001084E-15	3.878887E-17
5.600000E+03	3.973919E-15	3.879429E-17
5.610000E+03	3.949873E-15	3.853238E-17
5.620000E+03	3.931639E-15	3.833362E-17
5.630000E+03	3.922549E-15	3.807206E-17
5.640000E+03	3.925688E-15	3.821696E-17
5.650000E+03	3.942243E-15	3.949956E-17
5.660000E+03	3.969805E-15	4.141679E-17
5.670000E+03	4.003559E-15	4.343223E-17
5.680000E+03	4.037685E-15	4.551704E-17
5.690000E+03	4.066040E-15	4.722937E-17
5.700000E+03	4.082995E-15	4.815484E-17
5.710000E+03	4.084561E-15	4.820965E-17
5.720000E+03	4.069402E-15	4.730381E-17
5.730000E+03	4.038840E-15	4.567839E-17
5.740000E+03	3.996490E-15	4.373513E-17
5.750000E+03	3.948560E-15	4.165196E-17
5.760000E+03	3.901851E-15	4.005585E-17
5.770000E+03	3.861592E-15	3.948177E-17
5.780000E+03	3.829934E-15	3.936754E-17
5.790000E+03	3.806916E-15	3.934451E-17
5.800000E+03	3.790939E-15	3.952173E-17
5.810000E+03	3.779445E-15	3.966161E-17
5.820000E+03	3.769420E-15	3.990728E-17
5.830000E+03	3.758175E-15	4.059037E-17
5.840000E+03	3.744528E-15	4.140622E-17
5.850000E+03	3.728083E-15	4.243052E-17
5.860000E+03	3.709174E-15	4.395916E-17
5.870000E+03	3.688542E-15	4.535984E-17
5.880000E+03	3.667166E-15	4.595921E-17
5.890000E+03	3.645572E-15	4.561188E-17
5.900000E+03	3.623709E-15	4.432842E-17
5.910000E+03	3.601138E-15	4.254146E-17
5.920000E+03	3.577330E-15	4.078887E-17
5.930000E+03	3.551937E-15	3.911021E-17
5.940000E+03	3.524941E-15	3.779114E-17
5.950000E+03	3.496400E-15	3.722161E-17
5.960000E+03	3.466578E-15	3.701283E-17
5.970000E+03	3.435928E-15	3.685622E-17
5.980000E+03	3.405019E-15	3.676330E-17
5.990000E+03	3.374451E-15	3.640558E-17
6.000000E+03	3.344603E-15	3.566052E-17
6.010000E+03	3.315803E-15	3.468919E-17
6.020000E+03	3.287726E-15	3.350867E-17
6.030000E+03	3.259942E-15	3.257916E-17
6.040000E+03	3.232319E-15	3.235930E-17
6.050000E+03	3.205008E-15	3.238301E-17
6.060000E+03	3.178559E-15	3.234275E-17
6.070000E+03	3.153142E-15	3.234634E-17
6.080000E+03	3.128814E-15	3.217061E-17
6.090000E+03	3.105270E-15	3.183277E-17
6.100000E+03	3.082241E-15	3.156279E-17
6.110000E+03	3.059279E-15	3.119551E-17
6.120000E+03	3.036164E-15	3.087401E-17
6.130000E+03	3.012677E-15	3.088902E-17
6.140000E+03	2.988615E-15	3.084008E-17
6.150000E+03	2.964090E-15	3.040142E-17
6.160000E+03	2.939564E-15	2.957352E-17
6.170000E+03	2.916223E-15	2.822493E-17
6.180000E+03	2.896119E-15	2.678451E-17
6.190000E+03	2.882003E-15	2.635466E-17
6.200000E+03	2.874820E-15	2.703051E-17
6.210000E+03	2.871541E-15	2.793833E-17
6.220000E+03	2.869456E-15	2.879572E-17
6.230000E+03	2.866694E-15	2.931680E-17
6.240000E+03	2.862168E-15	2.961776E-17
6.250000E+03	2.855397E-15	3.003189E-17
6.260000E+03	2.846973E-15	3.039194E-17
6.270000E+03	2.838065E-15	3.065020E-17
6.280000E+03	2.829698E-15	3.096779E-17
6.290000E+03	2.822548E-15	3.113751E-17
6.300000E+03	2.816855E-15	3.105537E-17
6.310000E+03	2.812618E-15	3.083419E-17
6.320000E+03	2.809321E-15	3.041585E-17
6.330000E+03	2.806236E-15	2.998486E-17
6.340000E+03	2.802745E-15	2.982150E-17
6.350000E+03	2.798406E-15	2.974484E-17
6.360000E+03	2.792929E-15	2.970899E-17
6.370000E+03	2.786250E-15	2.984793E-17
6.380000E+03	2.778588E-15	2.993372E-17
6.390000E+03	2.770495E-15	2.989495E-17
6.400000E+03	2.762425E-15	2.987287E-17
6.410000E+03	2.755085E-15	2.979888E-17
6.420000E+03	2.748985E-15	2.986551E-17
6.430000E+03	2.744390E-15	3.035929E-17
6.440000E+03	2.740758E-15	3.099388E-17
6.450000E+03	2.737253E-15	3.148527E-17
6.460000E+03	2.733044E-15	3.181005E-17
6.470000E+03	2.727259E-15	3.182825E-17
6.480000E+03	2.719734E-15	3.154962E-17
6.490000E+03	2.711510E-15	3.109450E-17
6.500000E+03	2.705067E-15	3.040417E-17
6.510000E+03	2.703931E-15	2.977382E-17
6.520000E+03	2.711933E-15	3.003441E-17
6.530000E+03	2.731440E-15	3.204480E-17
6.540000E+03	2.760307E-15	3.581074E-17
6.550000E+03	2.792495E-15	4.021290E-17
6.560000E+03	2.820566E-15	4.410295E-17
6.570000E+03	2.837724E-15	4.665581E-17
6.580000E+03	2.838843E-15	4.750012E-17
6.590000E+03	2.821815E-15	4.668650E-17
6.600000E+03	2.787388E-15	4.464275E-17
6.610000E+03	2.739811E-15	4.194946E-17
6.620000E+03	2.686062E-15	3.910515E-17
6.630000E+03	2.634107E-15	3.662556E-17
6.640000E+03	2.589852E-15	3.483632E-17
6.650000E+03	2.555622E-15	3.365210E-17
6.660000E+03	2.531122E-15	3.302341E-17
6.670000E+03	2.514736E-15	3.293336E-17
6.680000E+03	2.503799E-15	3.304797E-17
6.690000E+03	2.495162E-15	3.309869E-17
6.700000E+03	2.486096E-15	3.303089E-17
6.710000E+03	2.474371E-15	3.276201E-17
6.720000E+03	2.458634E-15	3.236884E-17
6.730000E+03	2.438369E-15	3.200293E-17
6.740000E+03	2.414000E-15	3.160653E-17
6.750000E+03	2.386701E-15	3.119513E-17
6.760000E+03	2.357799E-15	3.087246E-17
6.770000E+03	2.328670E-15	3.059198E-17
6.780000E+03	2.300592E-15	3.040984E-17
6.790000E+03	2.274385E-15	3.043345E-17
6.800000E+03	2.250447E-15	3.053468E-17
6.810000E+03	2.228743E-15	3.062312E-17
6.820000E+03	2.209297E-15	3.071961E-17
6.830000E+03	2.191906E-15	3.074660E-17
6.840000E+03	2.176489E-15	3.070882E-17
6.850000E+03	2.162931E-15	3.067510E-17
6.860000E+03	2.150870E-15	3.058064E-17
6.870000E+03	2.139962E-15	3.042958E-17
6.880000E+03	2.129818E-15	3.029999E-17
6.890000E+03	2.119869E-15	3.016490E-17
6.900000E+03	2.109570E-15	3.009148E-17
6.910000E+03	2.098537E-15	3.018642E-17
6.920000E+03	2.086852E-15	3.034228E-17
6.930000E+03	2.074771E-15	3.045485E-17
6.940000E+03	2.062595E-15	3.051550E-17
6.950000E+03	2.050796E-15	3.046835E-17
6.960000E+03	2.039672E-15	3.032332E-17
6.970000E+03	2.029625E-15	3.014299E-17
6.980000E+03	2.020775E-15	2.989091E-17
6.990000E+03	2.013298E-15	2.958124E-17
7.000000E+03	2.007126E-15	2.927828E-17
7.010000E+03	2.002179E-15	2.897082E-17
7.020000E+03	1.998326E-15	2.872082E-17
7.030000E+03	1.995287E-15	2.862480E-17
7.040000E+03	1.992636E-15	2.864614E-17
7.050000E+03	1.989928E-15	2.879702E-17
7.060000E+03	1.986792E-15	2.910405E-17
7.070000E+03	1.982903E-15	2.939895E-17
7.080000E+03	1.978095E-15	2.953252E-17
7.090000E+03	1.972530E-15	2.948244E-17
7.100000E+03	1.966446E-15	2.924122E-17
7.110000E+03	1.960412E-15	2.890977E-17
7.120000E+03	1.954884E-15	2.861732E-17
7.130000E+03	1.950311E-15	2.835485E-17
7.140000E+03	1.946982E-15	2.814755E-17
7.150000E+03	1.944771E-15	2.805937E-17
7.160000E+03	1.942966E-15	2.804148E-17
7.170000E+03	1.940694E-15	2.811285E-17
7.180000E+03	1.937086E-15	2.833020E-17
7.190000E+03	1.931747E-15	2.859134E-17
7.200000E+03	1.924541E-15	2.881898E-17
7.210000E+03	1.915427E-15	2.901044E-17
7.220000E+03	1.904630E-15	2.909416E-17
7.230000E+03	1.892397E-15	2.905056E-17
7.240000E+03	1.878875E-15	2.892732E-17
7.250000E+03	1.864410E-15	2.872273E-17
7.260000E+03	1.849098E-15	2.848114E-17
7.270000E+03	1.833180E-15	2.827044E-17
7.280000E+03	1.816924E-15	2.804581E-17
7.290000E+03	1.800472E-15	2.778363E-17
7.300000E+03	1.784000E-15	2.750989E-17
7.310000E+03	1.767669E-15	2.719544E-17
7.320000E+03	1.751556E-15	2.686685E-17
7.330000E+03	1.735643E-15	2.658375E-17
7.340000E+03	1.720055E-15	2.631299E-17
7.350000E+03	1.704789E-15	2.605024E-17
7.360000E+03	1.689821E-15	2.583158E-17
7.370000E+03	1.675200E-15	2.562301E-17
7.380000E+03	1.660979E-15	2.542488E-17
7.390000E+03	1.647207E-15	2.526813E-17
7.400000E+03	1.633968E-15	2.510738E-17
7.410000E+03	1.621342E-15	2.492265E-17
7.420000E+03	1.609316E-15	2.472632E-17
7.430000E+03	1.597678E-15	2.446796E-17
7.440000E+03	1.586023E-15	2.412248E-17
7.450000E+03	1.574127E-15	2.368105E-17
7.460000E+03	1.561629E-15	2.304793E-17
7.470000E+03	1.548523E-15	2.216088E-17
7.480000E+03	1.535227E-15	2.103872E-17
7.490000E+03	1.522697E-15	1.976960E-17
7.500000E+03	1.512621E-15	1.870426E-17
7.510000E+03	1.507457E-15	1.847770E-17
7.520000E+03	1.508029E-15	1.922900E-17
7.530000E+03	1.512659E-15	2.047719E-17
7.540000E+03	1.519771E-15	2.197025E-17
7.550000E+03	1.528276E-15	2.361138E-17
7.560000E+03	1.537265E-15	2.540950E-17
7.570000E+03	1.545928E-15	2.734542E-17
7.580000E+03	1.553381E-15	2.918841E-17
7.590000E+03	1.558895E-15	3.060990E-17
7.600000E+03	1.561725E-15	3.134725E-17
7.610000E+03	1.561440E-15	3.126425E-17
7.620000E+03	1.557830E-15	3.038385E-17
7.630000E+03	1.551039E-15	2.889546E-17
7.640000E+03	1.541524E-15	2.713030E-17
7.650000E+03	1.530017E-15	2.550682E-17
7.660000E+03	1.517550E-15	2.431661E-17
7.670000E+03	1.505239E-15	2.355217E-17
7.680000E+03	1.494160E-15	2.309367E-17
7.690000E+03	1.485112E-15	2.284561E-17
7.700000E+03	1.478278E-15	2.271339E-17
7.710000E+03	1.473605E-15	2.269235E-17
7.720000E+03	1.470718E-15	2.281481E-17
7.730000E+03	1.469016E-15	2.301794E-17
7.740000E+03	1.467894E-15	2.323180E-17
7.750000E+03	1.466676E-15	2.340167E-17
7.760000E+03	1.464859E-15	2.342130E-17
