#wls	flux	fluxerr
1.600000E+03	3.770134E-17	3.083643E-17
1.640000E+03	3.810422E-17	3.112697E-17
1.680000E+03	3.856264E-17	3.145673E-17
1.720000E+03	3.909578E-17	3.184031E-17
1.760000E+03	3.967361E-17	3.225202E-17
1.800000E+03	4.033257E-17	3.272013E-17
1.840000E+03	4.107665E-17	3.324615E-17
1.880000E+03	4.189310E-17	3.381779E-17
1.920000E+03	4.280353E-17	3.445027E-17
1.960000E+03	4.383071E-17	3.515917E-17
2.000000E+03	4.494557E-17	3.591798E-17
2.040000E+03	4.618966E-17	3.675630E-17
2.080000E+03	4.757051E-17	3.767567E-17
2.120000E+03	4.909631E-17	3.867740E-17
2.160000E+03	5.075713E-17	3.974772E-17
2.200000E+03	5.259967E-17	4.091628E-17
2.240000E+03	5.459611E-17	4.215323E-17
2.280000E+03	5.681524E-17	4.350227E-17
2.320000E+03	5.922993E-17	4.493125E-17
2.360000E+03	6.185144E-17	4.643616E-17
2.400000E+03	6.471188E-17	4.802661E-17
2.440000E+03	6.782341E-17	4.969464E-17
2.480000E+03	7.119744E-17	5.142938E-17
2.520000E+03	7.484412E-17	5.321643E-17
2.560000E+03	7.879451E-17	5.505330E-17
2.600000E+03	8.305559E-17	5.691701E-17
2.640000E+03	8.765462E-17	5.879527E-17
2.680000E+03	9.259186E-17	6.065391E-17
2.720000E+03	9.788694E-17	6.246853E-17
2.760000E+03	1.035293E-16	6.419231E-17
2.800000E+03	1.095538E-16	6.580423E-17
2.840000E+03	1.159381E-16	6.724587E-17
2.880000E+03	1.226810E-16	6.847088E-17
2.920000E+03	1.297786E-16	6.943123E-17
2.960000E+03	1.372568E-16	7.009466E-17
3.000000E+03	1.450938E-16	7.040395E-17
3.010000E+03	1.471097E-16	7.042107E-17
3.020000E+03	1.491513E-16	7.041418E-17
3.030000E+03	1.512480E-16	7.039621E-17
3.040000E+03	1.533420E-16	7.033945E-17
3.050000E+03	1.554922E-16	7.027032E-17
3.060000E+03	1.576411E-16	7.016185E-17
3.070000E+03	1.598480E-16	7.003995E-17
3.080000E+03	1.620848E-16	6.989117E-17
3.090000E+03	1.643530E-16	6.971529E-17
3.100000E+03	1.666837E-16	6.952454E-17
3.110000E+03	1.690493E-16	6.930615E-17
3.120000E+03	1.714519E-16	6.906010E-17
3.130000E+03	1.739238E-16	6.879825E-17
3.140000E+03	1.764379E-16	6.850850E-17
3.150000E+03	1.790271E-16	6.820242E-17
3.160000E+03	1.816651E-16	6.786837E-17
3.170000E+03	1.843854E-16	6.751758E-17
3.180000E+03	1.871622E-16	6.713879E-17
3.190000E+03	1.900298E-16	6.674287E-17
3.200000E+03	1.929933E-16	6.632939E-17
3.210000E+03	1.960272E-16	6.588763E-17
3.220000E+03	1.991674E-16	6.542771E-17
3.230000E+03	2.024503E-16	6.495888E-17
3.240000E+03	2.058205E-16	6.446049E-17
3.250000E+03	2.093149E-16	6.394174E-17
3.260000E+03	2.129398E-16	6.340158E-17
3.270000E+03	2.167019E-16	6.283876E-17
3.280000E+03	2.206074E-16	6.225178E-17
3.290000E+03	2.246945E-16	6.164746E-17
3.300000E+03	2.289381E-16	6.101463E-17
3.310000E+03	2.333442E-16	6.035073E-17
3.320000E+03	2.379503E-16	5.966078E-17
3.330000E+03	2.427296E-16	5.893283E-17
3.340000E+03	2.477184E-16	5.817038E-17
3.350000E+03	2.529203E-16	5.736804E-17
3.360000E+03	2.583044E-16	5.651254E-17
3.370000E+03	2.639367E-16	5.561155E-17
3.380000E+03	2.697496E-16	5.464321E-17
3.390000E+03	2.757719E-16	5.360608E-17
3.400000E+03	2.820300E-16	5.249689E-17
3.410000E+03	2.884803E-16	5.129844E-17
3.420000E+03	2.951083E-16	4.999933E-17
3.430000E+03	3.019290E-16	4.859288E-17
3.440000E+03	3.088842E-16	4.706009E-17
3.450000E+03	3.159785E-16	4.539248E-17
3.460000E+03	3.231761E-16	4.357547E-17
3.470000E+03	3.303991E-16	4.159006E-17
3.480000E+03	3.376684E-16	3.943144E-17
3.490000E+03	3.448927E-16	3.708202E-17
3.500000E+03	3.520455E-16	3.453439E-17
3.510000E+03	3.590249E-16	3.177642E-17
3.520000E+03	3.657984E-16	2.880723E-17
3.530000E+03	3.722644E-16	2.562573E-17
3.540000E+03	3.784020E-16	2.224564E-17
3.550000E+03	3.842078E-16	1.869438E-17
3.560000E+03	3.896350E-16	1.502496E-17
3.570000E+03	3.947155E-16	1.136645E-17
3.580000E+03	3.995732E-16	8.078072E-18
3.590000E+03	4.043267E-16	6.238493E-18
3.600000E+03	4.092186E-16	7.333789E-18
3.610000E+03	4.140889E-16	1.039685E-17
3.620000E+03	4.188398E-16	1.403853E-17
3.630000E+03	4.233242E-16	1.774471E-17
3.640000E+03	4.275168E-16	2.133233E-17
3.650000E+03	4.313688E-16	2.471692E-17
3.660000E+03	4.349317E-16	2.785628E-17
3.670000E+03	4.382455E-16	3.072581E-17
3.680000E+03	4.413632E-16	3.331219E-17
3.690000E+03	4.443757E-16	3.561215E-17
3.700000E+03	4.473103E-16	3.762284E-17
3.710000E+03	4.502240E-16	3.934753E-17
3.720000E+03	4.532296E-16	4.079781E-17
3.730000E+03	4.563095E-16	4.197648E-17
3.740000E+03	4.595607E-16	4.289887E-17
3.750000E+03	4.629525E-16	4.357073E-17
3.760000E+03	4.665660E-16	4.401037E-17
3.770000E+03	4.704156E-16	4.423234E-17
3.780000E+03	4.745104E-16	4.425346E-17
3.790000E+03	4.788276E-16	4.409096E-17
3.800000E+03	4.834248E-16	4.377354E-17
3.810000E+03	4.882738E-16	4.332654E-17
3.820000E+03	4.933742E-16	4.278293E-17
3.830000E+03	4.987537E-16	4.218275E-17
3.840000E+03	5.043915E-16	4.156471E-17
3.850000E+03	5.103564E-16	4.097422E-17
3.860000E+03	5.166277E-16	4.044482E-17
3.870000E+03	5.233090E-16	4.001326E-17
3.880000E+03	5.304768E-16	3.970440E-17
3.890000E+03	5.381849E-16	3.952958E-17
3.900000E+03	5.466292E-16	3.950006E-17
3.910000E+03	5.558738E-16	3.960892E-17
3.920000E+03	5.660368E-16	3.984700E-17
3.930000E+03	5.771846E-16	4.019962E-17
3.940000E+03	5.893786E-16	4.065461E-17
3.950000E+03	6.025960E-16	4.120009E-17
3.960000E+03	6.168043E-16	4.183199E-17
3.970000E+03	6.319609E-16	4.255471E-17
3.980000E+03	6.479617E-16	4.337641E-17
3.990000E+03	6.646417E-16	4.430625E-17
4.000000E+03	6.818526E-16	4.535331E-17
4.010000E+03	6.993907E-16	4.651563E-17
4.020000E+03	7.170288E-16	4.778082E-17
4.030000E+03	7.345279E-16	4.912620E-17
4.040000E+03	7.516483E-16	5.051900E-17
4.050000E+03	7.681540E-16	5.192053E-17
4.060000E+03	7.838163E-16	5.329140E-17
4.070000E+03	7.984463E-16	5.459696E-17
4.080000E+03	8.118035E-16	5.580349E-17
4.090000E+03	8.237889E-16	5.689207E-17
4.100000E+03	8.342586E-16	5.784492E-17
4.110000E+03	8.432323E-16	5.865910E-17
4.120000E+03	8.507033E-16	5.933123E-17
4.130000E+03	8.568148E-16	5.986740E-17
4.140000E+03	8.617447E-16	6.027582E-17
4.150000E+03	8.656813E-16	6.056584E-17
4.160000E+03	8.688521E-16	6.074961E-17
4.170000E+03	8.715113E-16	6.084185E-17
4.180000E+03	8.738410E-16	6.085271E-17
4.190000E+03	8.761023E-16	6.079675E-17
4.200000E+03	8.784291E-16	6.067785E-17
4.210000E+03	8.810400E-16	6.050178E-17
4.220000E+03	8.840578E-16	6.026092E-17
4.230000E+03	8.875764E-16	5.993799E-17
4.240000E+03	8.916809E-16	5.950557E-17
4.250000E+03	8.964071E-16	5.892238E-17
4.260000E+03	9.018035E-16	5.814161E-17
4.270000E+03	9.078534E-16	5.711143E-17
4.280000E+03	9.145154E-16	5.578205E-17
4.290000E+03	9.217356E-16	5.411133E-17
4.300000E+03	9.293990E-16	5.206684E-17
4.310000E+03	9.373390E-16	4.963185E-17
4.320000E+03	9.453540E-16	4.681325E-17
4.330000E+03	9.531654E-16	4.364880E-17
4.340000E+03	9.604659E-16	4.022499E-17
4.350000E+03	9.669187E-16	3.670300E-17
4.360000E+03	9.723034E-16	3.335943E-17
4.370000E+03	9.765303E-16	3.061892E-17
4.380000E+03	9.797154E-16	2.904139E-17
4.390000E+03	9.822032E-16	2.915148E-17
4.400000E+03	9.838965E-16	3.089943E-17
4.410000E+03	9.844128E-16	3.370490E-17
4.420000E+03	9.835227E-16	3.698844E-17
4.430000E+03	9.812718E-16	4.032700E-17
4.440000E+03	9.778270E-16	4.345354E-17
4.450000E+03	9.735030E-16	4.622165E-17
4.460000E+03	9.686908E-16	4.856852E-17
4.470000E+03	9.638671E-16	5.049224E-17
4.480000E+03	9.595196E-16	5.203198E-17
4.490000E+03	9.561415E-16	5.325442E-17
4.500000E+03	9.542163E-16	5.424144E-17
4.510000E+03	9.542203E-16	5.507833E-17
4.520000E+03	9.565818E-16	5.584223E-17
4.530000E+03	9.617009E-16	5.660027E-17
4.540000E+03	9.698436E-16	5.740086E-17
4.550000E+03	9.811807E-16	5.827260E-17
4.560000E+03	9.957565E-16	5.922179E-17
4.570000E+03	1.013496E-15	6.023077E-17
4.580000E+03	1.034143E-15	6.125209E-17
4.590000E+03	1.057381E-15	6.222029E-17
4.600000E+03	1.082751E-15	6.305334E-17
4.610000E+03	1.109841E-15	6.366873E-17
4.620000E+03	1.138138E-15	6.398253E-17
4.630000E+03	1.167147E-15	6.392368E-17
4.640000E+03	1.196389E-15	6.344140E-17
4.650000E+03	1.225363E-15	6.251292E-17
4.660000E+03	1.253611E-15	6.115729E-17
4.670000E+03	1.280691E-15	5.944403E-17
4.680000E+03	1.306203E-15	5.750659E-17
4.690000E+03	1.329812E-15	5.555043E-17
4.700000E+03	1.351301E-15	5.385005E-17
4.710000E+03	1.370572E-15	5.272415E-17
4.720000E+03	1.387665E-15	5.247492E-17
4.730000E+03	1.402703E-15	5.323105E-17
4.740000E+03	1.415673E-15	5.483589E-17
4.750000E+03	1.426594E-15	5.704007E-17
4.760000E+03	1.435654E-15	5.959136E-17
4.770000E+03	1.443049E-15	6.227446E-17
4.780000E+03	1.449083E-15	6.493108E-17
4.790000E+03	1.454090E-15	6.745310E-17
4.800000E+03	1.458426E-15	6.977553E-17
4.810000E+03	1.462520E-15	7.186706E-17
4.820000E+03	1.466767E-15	7.371203E-17
4.830000E+03	1.471584E-15	7.530904E-17
4.840000E+03	1.477373E-15	7.666537E-17
4.850000E+03	1.484454E-15	7.778749E-17
4.860000E+03	1.493054E-15	7.867880E-17
4.870000E+03	1.503269E-15	7.933431E-17
4.880000E+03	1.515032E-15	7.973611E-17
4.890000E+03	1.528153E-15	7.986192E-17
4.900000E+03	1.542270E-15	7.969068E-17
4.910000E+03	1.556900E-15	7.921294E-17
4.920000E+03	1.571444E-15	7.844284E-17
4.930000E+03	1.585261E-15	7.743241E-17
4.940000E+03	1.597723E-15	7.627505E-17
4.950000E+03	1.608237E-15	7.509488E-17
4.960000E+03	1.616396E-15	7.402365E-17
4.970000E+03	1.622090E-15	7.317340E-17
4.980000E+03	1.625354E-15	7.261146E-17
4.990000E+03	1.626240E-15	7.233645E-17
5.000000E+03	1.624847E-15	7.227552E-17
5.010000E+03	1.621121E-15	7.231430E-17
5.020000E+03	1.614971E-15	7.235041E-17
5.030000E+03	1.606274E-15	7.231741E-17
5.040000E+03	1.594864E-15	7.218289E-17
5.050000E+03	1.580628E-15	7.193114E-17
5.060000E+03	1.563591E-15	7.154726E-17
5.070000E+03	1.543942E-15	7.102092E-17
5.080000E+03	1.521977E-15	7.034968E-17
5.090000E+03	1.498108E-15	6.954055E-17
5.100000E+03	1.472879E-15	6.861551E-17
5.110000E+03	1.446897E-15	6.760820E-17
5.120000E+03	1.420775E-15	6.655769E-17
5.130000E+03	1.395181E-15	6.551347E-17
5.140000E+03	1.370724E-15	6.452966E-17
5.150000E+03	1.347994E-15	6.366317E-17
5.160000E+03	1.327543E-15	6.297481E-17
5.170000E+03	1.309774E-15	6.252172E-17
5.180000E+03	1.295000E-15	6.235289E-17
5.190000E+03	1.283352E-15	6.249970E-17
5.200000E+03	1.274884E-15	6.297060E-17
5.210000E+03	1.269499E-15	6.373859E-17
5.220000E+03	1.267014E-15	6.475144E-17
5.230000E+03	1.267231E-15	6.594388E-17
5.240000E+03	1.269947E-15	6.724237E-17
5.250000E+03	1.274925E-15	6.857019E-17
5.260000E+03	1.281969E-15	6.985672E-17
5.270000E+03	1.290858E-15	7.103487E-17
5.280000E+03	1.301328E-15	7.204392E-17
5.290000E+03	1.313130E-15	7.283526E-17
5.300000E+03	1.325993E-15	7.337031E-17
5.310000E+03	1.339653E-15	7.362266E-17
5.320000E+03	1.353815E-15	7.357401E-17
5.330000E+03	1.368228E-15	7.321492E-17
5.340000E+03	1.382619E-15	7.254071E-17
5.350000E+03	1.396713E-15	7.154960E-17
5.360000E+03	1.410290E-15	7.024082E-17
5.370000E+03	1.423180E-15	6.861243E-17
5.380000E+03	1.435280E-15	6.665712E-17
5.390000E+03	1.446577E-15	6.435913E-17
5.400000E+03	1.457180E-15	6.170369E-17
5.410000E+03	1.467123E-15	5.867729E-17
5.420000E+03	1.476498E-15	5.528251E-17
5.430000E+03	1.485293E-15	5.154773E-17
5.440000E+03	1.493556E-15	4.754955E-17
5.450000E+03	1.501336E-15	4.343102E-17
5.460000E+03	1.508774E-15	3.943992E-17
5.470000E+03	1.516260E-15	3.596749E-17
5.480000E+03	1.524417E-15	3.356860E-17
5.490000E+03	1.534054E-15	3.290119E-17
5.500000E+03	1.545717E-15	3.420963E-17
5.510000E+03	1.559207E-15	3.673093E-17
5.520000E+03	1.574076E-15	3.961560E-17
5.530000E+03	1.589650E-15	4.229030E-17
5.540000E+03	1.605090E-15	4.445424E-17
5.550000E+03	1.619512E-15	4.602260E-17
5.560000E+03	1.632035E-15	4.707237E-17
5.570000E+03	1.641964E-15	4.779741E-17
5.580000E+03	1.648842E-15	4.844906E-17
5.590000E+03	1.652665E-15	4.924283E-17
5.600000E+03	1.653945E-15	5.028222E-17
5.610000E+03	1.653541E-15	5.156313E-17
5.620000E+03	1.652479E-15	5.299284E-17
5.630000E+03	1.651658E-15	5.439792E-17
5.640000E+03	1.651833E-15	5.558313E-17
5.650000E+03	1.653563E-15	5.639274E-17
5.660000E+03	1.657039E-15	5.673224E-17
5.670000E+03	1.662203E-15	5.658028E-17
5.680000E+03	1.668676E-15	5.597990E-17
5.690000E+03	1.675890E-15	5.502853E-17
5.700000E+03	1.683062E-15	5.385673E-17
5.710000E+03	1.689522E-15	5.259932E-17
5.720000E+03	1.694685E-15	5.136368E-17
5.730000E+03	1.698187E-15	5.024238E-17
5.740000E+03	1.699801E-15	4.931192E-17
5.750000E+03	1.699466E-15	4.863163E-17
5.760000E+03	1.697297E-15	4.826732E-17
5.770000E+03	1.693462E-15	4.827957E-17
5.780000E+03	1.688265E-15	4.870312E-17
5.790000E+03	1.682028E-15	4.956672E-17
5.800000E+03	1.675113E-15	5.089216E-17
5.810000E+03	1.667883E-15	5.265654E-17
5.820000E+03	1.660653E-15	5.478792E-17
5.830000E+03	1.653746E-15	5.716329E-17
5.840000E+03	1.647454E-15	5.959657E-17
5.850000E+03	1.641977E-15	6.186981E-17
5.860000E+03	1.637395E-15	6.377971E-17
5.870000E+03	1.633731E-15	6.516466E-17
5.880000E+03	1.630837E-15	6.591488E-17
5.890000E+03	1.628511E-15	6.598537E-17
5.900000E+03	1.626466E-15	6.539566E-17
5.910000E+03	1.624402E-15	6.422821E-17
5.920000E+03	1.621972E-15	6.261445E-17
5.930000E+03	1.618849E-15	6.071880E-17
5.940000E+03	1.614791E-15	5.871534E-17
5.950000E+03	1.609772E-15	5.674968E-17
5.960000E+03	1.603898E-15	5.490577E-17
5.970000E+03	1.597460E-15	5.322143E-17
5.980000E+03	1.590707E-15	5.170002E-17
5.990000E+03	1.583752E-15	5.032390E-17
6.000000E+03	1.576650E-15	4.909189E-17
6.010000E+03	1.569388E-15	4.803734E-17
6.020000E+03	1.561911E-15	4.722447E-17
6.030000E+03	1.554222E-15	4.673988E-17
6.040000E+03	1.546425E-15	4.664617E-17
6.050000E+03	1.538685E-15	4.693529E-17
6.060000E+03	1.531268E-15	4.754619E-17
6.070000E+03	1.524372E-15	4.837889E-17
6.080000E+03	1.518184E-15	4.929414E-17
6.090000E+03	1.512750E-15	5.012897E-17
6.100000E+03	1.508150E-15	5.071941E-17
6.110000E+03	1.504370E-15	5.090181E-17
6.120000E+03	1.501393E-15	5.054023E-17
6.130000E+03	1.499084E-15	4.955411E-17
6.140000E+03	1.497215E-15	4.794191E-17
6.150000E+03	1.495453E-15	4.580462E-17
6.160000E+03	1.493412E-15	4.337277E-17
6.170000E+03	1.490663E-15	4.102499E-17
6.180000E+03	1.486852E-15	3.927760E-17
6.190000E+03	1.481666E-15	3.867255E-17
6.200000E+03	1.475170E-15	3.935119E-17
6.210000E+03	1.467801E-15	4.086367E-17
6.220000E+03	1.459950E-15	4.268715E-17
6.230000E+03	1.451983E-15	4.439877E-17
6.240000E+03	1.444103E-15	4.571751E-17
6.250000E+03	1.436485E-15	4.650326E-17
6.260000E+03	1.429191E-15	4.672968E-17
6.270000E+03	1.422263E-15	4.646062E-17
6.280000E+03	1.415694E-15	4.581829E-17
6.290000E+03	1.409518E-15	4.495842E-17
6.300000E+03	1.403726E-15	4.404707E-17
6.310000E+03	1.398323E-15	4.322857E-17
6.320000E+03	1.393343E-15	4.259973E-17
6.330000E+03	1.388754E-15	4.221534E-17
6.340000E+03	1.384483E-15	4.208884E-17
6.350000E+03	1.380464E-15	4.219070E-17
6.360000E+03	1.376544E-15	4.247657E-17
6.370000E+03	1.372653E-15	4.291468E-17
6.380000E+03	1.368786E-15	4.348657E-17
6.390000E+03	1.365030E-15	4.420017E-17
6.400000E+03	1.361524E-15	4.508700E-17
6.410000E+03	1.358448E-15	4.618200E-17
6.420000E+03	1.356043E-15	4.751284E-17
6.430000E+03	1.354469E-15	4.907369E-17
6.440000E+03	1.353868E-15	5.080695E-17
6.450000E+03	1.354259E-15	5.261795E-17
6.460000E+03	1.355663E-15	5.440896E-17
6.470000E+03	1.358043E-15	5.609266E-17
6.480000E+03	1.361299E-15	5.760314E-17
6.490000E+03	1.365289E-15	5.890256E-17
6.500000E+03	1.369844E-15	5.997854E-17
6.510000E+03	1.374730E-15	6.083780E-17
6.520000E+03	1.379655E-15	6.149765E-17
6.530000E+03	1.384302E-15	6.197495E-17
6.540000E+03	1.388285E-15	6.223991E-17
6.550000E+03	1.391338E-15	6.220971E-17
6.560000E+03	1.393149E-15	6.180270E-17
6.570000E+03	1.393494E-15	6.096315E-17
6.580000E+03	1.392177E-15	5.966952E-17
6.590000E+03	1.389157E-15	5.794735E-17
6.600000E+03	1.384502E-15	5.587150E-17
6.610000E+03	1.378411E-15	5.356398E-17
6.620000E+03	1.371228E-15	5.118416E-17
6.630000E+03	1.363423E-15	4.890969E-17
6.640000E+03	1.355379E-15	4.689449E-17
6.650000E+03	1.347442E-15	4.524095E-17
6.660000E+03	1.339821E-15	4.398774E-17
6.670000E+03	1.332636E-15	4.309652E-17
6.680000E+03	1.325917E-15	4.245311E-17
6.690000E+03	1.319577E-15	4.192104E-17
6.700000E+03	1.313499E-15	4.139961E-17
6.710000E+03	1.307541E-15	4.084580E-17
6.720000E+03	1.301554E-15	4.027613E-17
6.730000E+03	1.295489E-15	3.974563E-17
6.740000E+03	1.289306E-15	3.931425E-17
6.750000E+03	1.283069E-15	3.903552E-17
6.760000E+03	1.276831E-15	3.892616E-17
6.770000E+03	1.270672E-15	3.894568E-17
6.780000E+03	1.264639E-15	3.902015E-17
6.790000E+03	1.258725E-15	3.907032E-17
6.800000E+03	1.252896E-15	3.902297E-17
6.810000E+03	1.247100E-15	3.882888E-17
6.820000E+03	1.241225E-15	3.847004E-17
6.830000E+03	1.235241E-15	3.796098E-17
6.840000E+03	1.229043E-15	3.734680E-17
6.850000E+03	1.222630E-15	3.670004E-17
6.860000E+03	1.216036E-15	3.610320E-17
6.870000E+03	1.209355E-15	3.564271E-17
6.880000E+03	1.202651E-15	3.538161E-17
6.890000E+03	1.196029E-15	3.533968E-17
6.900000E+03	1.189608E-15	3.551298E-17
6.910000E+03	1.183407E-15	3.588418E-17
6.920000E+03	1.177446E-15	3.641911E-17
6.930000E+03	1.171704E-15	3.707350E-17
6.940000E+03	1.166162E-15	3.779255E-17
6.950000E+03	1.160851E-15	3.850111E-17
6.960000E+03	1.155827E-15	3.911503E-17
6.970000E+03	1.151156E-15	3.955603E-17
6.980000E+03	1.146855E-15	3.975556E-17
6.990000E+03	1.142928E-15	3.967074E-17
7.000000E+03	1.139352E-15	3.929721E-17
7.010000E+03	1.136077E-15	3.867459E-17
7.020000E+03	1.133034E-15	3.789009E-17
7.030000E+03	1.130141E-15	3.707161E-17
7.040000E+03	1.127305E-15	3.636977E-17
7.050000E+03	1.124487E-15	3.593136E-17
7.060000E+03	1.121672E-15	3.584433E-17
7.070000E+03	1.118938E-15	3.610298E-17
7.080000E+03	1.116369E-15	3.663369E-17
7.090000E+03	1.114065E-15	3.733862E-17
7.100000E+03	1.112034E-15	3.811509E-17
7.110000E+03	1.110301E-15	3.888194E-17
7.120000E+03	1.108817E-15	3.958908E-17
7.130000E+03	1.107536E-15	4.021648E-17
7.140000E+03	1.106406E-15	4.076693E-17
7.150000E+03	1.105370E-15	4.124989E-17
7.160000E+03	1.104416E-15	4.166669E-17
7.170000E+03	1.103536E-15	4.200716E-17
7.180000E+03	1.102733E-15	4.224927E-17
7.190000E+03	1.101987E-15	4.235693E-17
7.200000E+03	1.101358E-15	4.229782E-17
7.210000E+03	1.100799E-15	4.205145E-17
7.220000E+03	1.100327E-15	4.162132E-17
7.230000E+03	1.099893E-15	4.103106E-17
7.240000E+03	1.099523E-15	4.032174E-17
7.250000E+03	1.099226E-15	3.953701E-17
7.260000E+03	1.099039E-15	3.871972E-17
7.270000E+03	1.098982E-15	3.789912E-17
7.280000E+03	1.099078E-15	3.708523E-17
7.290000E+03	1.099272E-15	3.628198E-17
7.300000E+03	1.099372E-15	3.550100E-17
7.310000E+03	1.099079E-15	3.476757E-17
7.320000E+03	1.097984E-15	3.412265E-17
7.330000E+03	1.095718E-15	3.361058E-17
7.340000E+03	1.092017E-15	3.325857E-17
7.350000E+03	1.086772E-15	3.307333E-17
7.360000E+03	1.079990E-15	3.302386E-17
7.370000E+03	1.071907E-15	3.303128E-17
7.380000E+03	1.062867E-15	3.299542E-17
7.390000E+03	1.053273E-15	3.282791E-17
7.400000E+03	1.043522E-15	3.246368E-17
7.410000E+03	1.034007E-15	3.187126E-17
7.420000E+03	1.025014E-15	3.105013E-17
7.430000E+03	1.016719E-15	3.002430E-17
7.440000E+03	1.009237E-15	2.884274E-17
7.450000E+03	1.002509E-15	2.756909E-17
7.460000E+03	9.964336E-16	2.627909E-17
7.470000E+03	9.908794E-16	2.507044E-17
7.480000E+03	9.858638E-16	2.406457E-17
7.490000E+03	9.816404E-16	2.339902E-17
7.500000E+03	9.786673E-16	2.323536E-17
7.510000E+03	9.776520E-16	2.373872E-17
7.520000E+03	9.786628E-16	2.488895E-17
7.530000E+03	9.808680E-16	2.643605E-17
7.540000E+03	9.835651E-16	2.813099E-17
7.550000E+03	9.862270E-16	2.976788E-17
7.560000E+03	9.884276E-16	3.119233E-17
7.570000E+03	9.899223E-16	3.230357E-17
7.580000E+03	9.905395E-16	3.304530E-17
7.590000E+03	9.901798E-16	3.340623E-17
7.600000E+03	9.888705E-16	3.342132E-17
7.610000E+03	9.866565E-16	3.316206E-17
7.620000E+03	9.837060E-16	3.273096E-17
7.630000E+03	9.802688E-16	3.224045E-17
7.640000E+03	9.766527E-16	3.179348E-17
7.650000E+03	9.731718E-16	3.147625E-17
7.660000E+03	9.701023E-16	3.134375E-17
7.670000E+03	9.676444E-16	3.140963E-17
7.680000E+03	9.658302E-16	3.166306E-17
7.690000E+03	9.645743E-16	3.208724E-17
7.700000E+03	9.636636E-16	3.266154E-17
7.710000E+03	9.628256E-16	3.337098E-17
7.720000E+03	9.618446E-16	3.420761E-17
7.730000E+03	9.605782E-16	3.515980E-17
7.740000E+03	9.590160E-16	3.621492E-17
7.750000E+03	9.572048E-16	3.735515E-17
7.760000E+03	9.552409E-16	3.855100E-17
