#wls	flux	fluxerr
1.600000E+03	1.673864E-17	1.376980E-17
1.640000E+03	1.670023E-17	1.373212E-17
1.680000E+03	1.664255E-17	1.367779E-17
1.720000E+03	1.657037E-17	1.361063E-17
1.760000E+03	1.647684E-17	1.352493E-17
1.800000E+03	1.636658E-17	1.342438E-17
1.840000E+03	1.624386E-17	1.331237E-17
1.880000E+03	1.609659E-17	1.317890E-17
1.920000E+03	1.592405E-17	1.302326E-17
1.960000E+03	1.573579E-17	1.285315E-17
2.000000E+03	1.552067E-17	1.265938E-17
2.040000E+03	1.528799E-17	1.244942E-17
2.080000E+03	1.502743E-17	1.221476E-17
2.120000E+03	1.474810E-17	1.196273E-17
2.160000E+03	1.444061E-17	1.168565E-17
2.200000E+03	1.410973E-17	1.138732E-17
2.240000E+03	1.375985E-17	1.107128E-17
2.280000E+03	1.338330E-17	1.073135E-17
2.320000E+03	1.298896E-17	1.037471E-17
2.360000E+03	1.257042E-17	9.996326E-18
2.400000E+03	1.213654E-17	9.603401E-18
2.440000E+03	1.168545E-17	9.194627E-18
2.480000E+03	1.121934E-17	8.771983E-18
2.520000E+03	1.074358E-17	8.339971E-18
2.560000E+03	1.025769E-17	7.898575E-18
2.600000E+03	9.764695E-18	7.450544E-18
2.640000E+03	9.267781E-18	6.998813E-18
2.680000E+03	8.772526E-18	6.548109E-18
2.720000E+03	8.281899E-18	6.101157E-18
2.760000E+03	7.795086E-18	5.657921E-18
2.800000E+03	7.321307E-18	5.225679E-18
2.840000E+03	6.859800E-18	4.804351E-18
2.880000E+03	6.413782E-18	4.396694E-18
2.920000E+03	5.987647E-18	4.006112E-18
2.960000E+03	5.583800E-18	3.634438E-18
3.000000E+03	5.203235E-18	3.282412E-18
3.010000E+03	5.112677E-18	3.198067E-18
3.020000E+03	5.023645E-18	3.114984E-18
3.030000E+03	4.936176E-18	3.033181E-18
3.040000E+03	4.850304E-18	2.952676E-18
3.050000E+03	4.766062E-18	2.873485E-18
3.060000E+03	4.683482E-18	2.795620E-18
3.070000E+03	4.602595E-18	2.719092E-18
3.080000E+03	4.524414E-18	2.644486E-18
3.090000E+03	4.446979E-18	2.570639E-18
3.100000E+03	4.372265E-18	2.498690E-18
3.110000E+03	4.298393E-18	2.427545E-18
3.120000E+03	4.227256E-18	2.358268E-18
3.130000E+03	4.157937E-18	2.290317E-18
3.140000E+03	4.090462E-18	2.223692E-18
3.150000E+03	4.025706E-18	2.158844E-18
3.160000E+03	3.961974E-18	2.094839E-18
3.170000E+03	3.900159E-18	2.032139E-18
3.180000E+03	3.841086E-18	1.971148E-18
3.190000E+03	3.783159E-18	1.911013E-18
3.200000E+03	3.727991E-18	1.852531E-18
3.210000E+03	3.674807E-18	1.795274E-18
3.220000E+03	3.623630E-18	1.739226E-18
3.230000E+03	3.574487E-18	1.684365E-18
3.240000E+03	3.528123E-18	1.631004E-18
3.250000E+03	3.483116E-18	1.578442E-18
3.260000E+03	3.440225E-18	1.526997E-18
3.270000E+03	3.400167E-18	1.476939E-18
3.280000E+03	3.362266E-18	1.427920E-18
3.290000E+03	3.326557E-18	1.379908E-18
3.300000E+03	3.293079E-18	1.332871E-18
3.310000E+03	3.261870E-18	1.286773E-18
3.320000E+03	3.232973E-18	1.241578E-18
3.330000E+03	3.206433E-18	1.197247E-18
3.340000E+03	3.182924E-18	1.153964E-18
3.350000E+03	3.161246E-18	1.111225E-18
3.360000E+03	3.142696E-18	1.069430E-18
3.370000E+03	3.126717E-18	1.028305E-18
3.380000E+03	3.113377E-18	9.878043E-19
3.390000E+03	3.102753E-18	9.478779E-19
3.400000E+03	3.094928E-18	9.084767E-19
3.410000E+03	3.090577E-18	8.697158E-19
3.420000E+03	3.088621E-18	8.312076E-19
3.430000E+03	3.090339E-18	7.932272E-19
3.440000E+03	3.095261E-18	7.555661E-19
3.450000E+03	3.102936E-18	7.180528E-19
3.460000E+03	3.114660E-18	6.809352E-19
3.470000E+03	3.130006E-18	6.440588E-19
3.480000E+03	3.149716E-18	6.075451E-19
3.490000E+03	3.172811E-18	5.712061E-19
3.500000E+03	3.200646E-18	5.353504E-19
3.510000E+03	3.232265E-18	4.999395E-19
3.520000E+03	3.269068E-18	4.654318E-19
3.530000E+03	3.310717E-18	4.321527E-19
3.540000E+03	3.357478E-18	4.007441E-19
3.550000E+03	3.409634E-18	3.721495E-19
3.560000E+03	3.467488E-18	3.476974E-19
3.570000E+03	3.531991E-18	3.291957E-19
3.580000E+03	3.602239E-18	3.185890E-19
3.590000E+03	3.679853E-18	3.180239E-19
3.600000E+03	3.764585E-18	3.288637E-19
3.610000E+03	3.856145E-18	3.512311E-19
3.620000E+03	3.956262E-18	3.844320E-19
3.630000E+03	4.065392E-18	4.272383E-19
3.640000E+03	4.182584E-18	4.782671E-19
3.650000E+03	4.308980E-18	5.365725E-19
3.660000E+03	4.445821E-18	6.015346E-19
3.670000E+03	4.592903E-18	6.726155E-19
3.680000E+03	4.749966E-18	7.494447E-19
3.690000E+03	4.919170E-18	8.321801E-19
3.700000E+03	5.100347E-18	9.207479E-19
3.710000E+03	5.294144E-18	1.015281E-18
3.720000E+03	5.502161E-18	1.116167E-18
3.730000E+03	5.723330E-18	1.223314E-18
3.740000E+03	5.960281E-18	1.337415E-18
3.750000E+03	6.211898E-18	1.458391E-18
3.760000E+03	6.481037E-18	1.587076E-18
3.770000E+03	6.767623E-18	1.723654E-18
3.780000E+03	7.072607E-18	1.868553E-18
3.790000E+03	7.396987E-18	2.022222E-18
3.800000E+03	7.743052E-18	2.185478E-18
3.810000E+03	8.109468E-18	2.358131E-18
3.820000E+03	8.499923E-18	2.541410E-18
3.830000E+03	8.912970E-18	2.735046E-18
3.840000E+03	9.352622E-18	2.940403E-18
3.850000E+03	9.818834E-18	3.157609E-18
3.860000E+03	1.031296E-17	3.387208E-18
3.870000E+03	1.083641E-17	3.629744E-18
3.880000E+03	1.139239E-17	3.886365E-18
3.890000E+03	1.197896E-17	4.156452E-18
3.900000E+03	1.259935E-17	4.441107E-18
3.910000E+03	1.325718E-17	4.741588E-18
3.920000E+03	1.395222E-17	5.057779E-18
3.930000E+03	1.468617E-17	5.390190E-18
3.940000E+03	1.546074E-17	5.739313E-18
3.950000E+03	1.627766E-17	6.105614E-18
3.960000E+03	1.713870E-17	6.489534E-18
3.970000E+03	1.804564E-17	6.891479E-18
3.980000E+03	1.900310E-17	7.312904E-18
3.990000E+03	2.000739E-17	7.752030E-18
4.000000E+03	2.106609E-17	8.211373E-18
4.010000E+03	2.217820E-17	8.690089E-18
4.020000E+03	2.334553E-17	9.188362E-18
4.030000E+03	2.456984E-17	9.706320E-18
4.040000E+03	2.585289E-17	1.024403E-17
4.050000E+03	2.719636E-17	1.080148E-17
4.060000E+03	2.860191E-17	1.137861E-17
4.070000E+03	3.007540E-17	1.197698E-17
4.080000E+03	3.160997E-17	1.259306E-17
4.090000E+03	3.321583E-17	1.323004E-17
4.100000E+03	3.489003E-17	1.388588E-17
4.110000E+03	3.663381E-17	1.456016E-17
4.120000E+03	3.844294E-17	1.525026E-17
4.130000E+03	4.033449E-17	1.596201E-17
4.140000E+03	4.229322E-17	1.668842E-17
4.150000E+03	4.432520E-17	1.743097E-17
4.160000E+03	4.643098E-17	1.818894E-17
4.170000E+03	4.861756E-17	1.896421E-17
4.180000E+03	5.087215E-17	1.975092E-17
4.190000E+03	5.320834E-17	2.055362E-17
4.200000E+03	5.561188E-17	2.136606E-17
4.210000E+03	5.809711E-17	2.219320E-17
4.220000E+03	6.065632E-17	2.303157E-17
4.230000E+03	6.328882E-17	2.388054E-17
4.240000E+03	6.599372E-17	2.473957E-17
4.250000E+03	6.876995E-17	2.560820E-17
4.260000E+03	7.161628E-17	2.648610E-17
4.270000E+03	7.454102E-17	2.737664E-17
4.280000E+03	7.752349E-17	2.827272E-17
4.290000E+03	8.057136E-17	2.917790E-17
4.300000E+03	8.369359E-17	3.009635E-17
4.310000E+03	8.686698E-17	3.102086E-17
4.320000E+03	9.011142E-17	3.195993E-17
4.330000E+03	9.341396E-17	3.291047E-17
4.340000E+03	9.676009E-17	3.386915E-17
4.350000E+03	1.001717E-16	3.484557E-17
4.360000E+03	1.036344E-16	3.583672E-17
4.370000E+03	1.071459E-16	3.684386E-17
4.380000E+03	1.107037E-16	3.786827E-17
4.390000E+03	1.143051E-16	3.891116E-17
4.400000E+03	1.179473E-16	3.997326E-17
4.410000E+03	1.216419E-16	4.105987E-17
4.420000E+03	1.253560E-16	4.216096E-17
4.430000E+03	1.291007E-16	4.328123E-17
4.440000E+03	1.328889E-16	4.442568E-17
4.450000E+03	1.366849E-16	4.558300E-17
4.460000E+03	1.405011E-16	4.675774E-17
4.470000E+03	1.443516E-16	4.795483E-17
4.480000E+03	1.481987E-16	4.916196E-17
4.490000E+03	1.520744E-16	5.038988E-17
4.500000E+03	1.559585E-16	5.163191E-17
4.510000E+03	1.598292E-16	5.288097E-17
4.520000E+03	1.637214E-16	5.414873E-17
4.530000E+03	1.676144E-16	5.542849E-17
4.540000E+03	1.714861E-16	5.671320E-17
4.550000E+03	1.753745E-16	5.801585E-17
4.560000E+03	1.792585E-16	5.933001E-17
4.570000E+03	1.831370E-16	6.065604E-17
4.580000E+03	1.870092E-16	6.199461E-17
4.590000E+03	1.908748E-16	6.334672E-17
4.600000E+03	1.947113E-16	6.470628E-17
4.610000E+03	1.985633E-16	6.608962E-17
4.620000E+03	2.024095E-16	6.749148E-17
4.630000E+03	2.062508E-16	6.891418E-17
4.640000E+03	2.100886E-16	7.036031E-17
4.650000E+03	2.139244E-16	7.183279E-17
4.660000E+03	2.177603E-16	7.333469E-17
4.670000E+03	2.215984E-16	7.486931E-17
4.680000E+03	2.254412E-16	7.644002E-17
4.690000E+03	2.292915E-16	7.805018E-17
4.700000E+03	2.331522E-16	7.970311E-17
4.710000E+03	2.370262E-16	8.140191E-17
4.720000E+03	2.409166E-16	8.314939E-17
4.730000E+03	2.447997E-16	8.493830E-17
4.740000E+03	2.487307E-16	8.678752E-17
4.750000E+03	2.526852E-16	8.868789E-17
4.760000E+03	2.566653E-16	9.063878E-17
4.770000E+03	2.606731E-16	9.263909E-17
4.780000E+03	2.647104E-16	9.468724E-17
4.790000E+03	2.687507E-16	9.677096E-17
4.800000E+03	2.728527E-16	9.890836E-17
4.810000E+03	2.769902E-16	1.010867E-16
4.820000E+03	2.811354E-16	1.032922E-16
4.830000E+03	2.853495E-16	1.055432E-16
4.840000E+03	2.896050E-16	1.078259E-16
4.850000E+03	2.938736E-16	1.101253E-16
4.860000E+03	2.982182E-16	1.124603E-16
4.870000E+03	3.025793E-16	1.148042E-16
4.880000E+03	3.070216E-16	1.171767E-16
4.890000E+03	3.114841E-16	1.195497E-16
4.900000E+03	3.160006E-16	1.219312E-16
4.910000E+03	3.206059E-16	1.243297E-16
4.920000E+03	3.252373E-16	1.267158E-16
4.930000E+03	3.299295E-16	1.290979E-16
4.940000E+03	3.346847E-16	1.314716E-16
4.950000E+03	3.395052E-16	1.338326E-16
4.960000E+03	3.443934E-16	1.361764E-16
4.970000E+03	3.493516E-16	1.384988E-16
4.980000E+03	3.543819E-16	1.407951E-16
4.990000E+03	3.594509E-16	1.430465E-16
5.000000E+03	3.646318E-16	1.452768E-16
5.010000E+03	3.698915E-16	1.474673E-16
5.020000E+03	3.751949E-16	1.495984E-16
5.030000E+03	3.805803E-16	1.516798E-16
5.040000E+03	3.860872E-16	1.537217E-16
5.050000E+03	3.916423E-16	1.556894E-16
5.060000E+03	3.972846E-16	1.575927E-16
5.070000E+03	4.030155E-16	1.594266E-16
5.080000E+03	4.088366E-16	1.611861E-16
5.090000E+03	4.147488E-16	1.628661E-16
5.100000E+03	4.207533E-16	1.644615E-16
5.110000E+03	4.268100E-16	1.659513E-16
5.120000E+03	4.330007E-16	1.673619E-16
5.130000E+03	4.392436E-16	1.686566E-16
5.140000E+03	4.455796E-16	1.698459E-16
5.150000E+03	4.520512E-16	1.709413E-16
5.160000E+03	4.585729E-16	1.719056E-16
5.170000E+03	4.651862E-16	1.727500E-16
5.180000E+03	4.718456E-16	1.734540E-16
5.190000E+03	4.786376E-16	1.740458E-16
5.200000E+03	4.855164E-16	1.745053E-16
5.210000E+03	4.924341E-16	1.748128E-16
5.220000E+03	4.994326E-16	1.749815E-16
5.230000E+03	5.065555E-16	1.750254E-16
5.240000E+03	5.137060E-16	1.749104E-16
5.250000E+03	5.209264E-16	1.746520E-16
5.260000E+03	5.281634E-16	1.742345E-16
5.270000E+03	5.355085E-16	1.736913E-16
5.280000E+03	5.428583E-16	1.729933E-16
5.290000E+03	5.503055E-16	1.721764E-16
5.300000E+03	5.577435E-16	1.712152E-16
5.310000E+03	5.652149E-16	1.701334E-16
5.320000E+03	5.727118E-16	1.689414E-16
5.330000E+03	5.802261E-16	1.676517E-16
5.340000E+03	5.876963E-16	1.662647E-16
5.350000E+03	5.952183E-16	1.648287E-16
5.360000E+03	6.026765E-16	1.633356E-16
5.370000E+03	6.101138E-16	1.618250E-16
5.380000E+03	6.175199E-16	1.603250E-16
5.390000E+03	6.248844E-16	1.588675E-16
5.400000E+03	6.321406E-16	1.574733E-16
5.410000E+03	6.393892E-16	1.562087E-16
5.420000E+03	6.465070E-16	1.550863E-16
5.430000E+03	6.535391E-16	1.541626E-16
5.440000E+03	6.604751E-16	1.534807E-16
5.450000E+03	6.673048E-16	1.530833E-16
5.460000E+03	6.739596E-16	1.529978E-16
5.470000E+03	6.805473E-16	1.532877E-16
5.480000E+03	6.869415E-16	1.539581E-16
5.490000E+03	6.931933E-16	1.550467E-16
5.500000E+03	6.992959E-16	1.565683E-16
5.510000E+03	7.051835E-16	1.585105E-16
5.520000E+03	7.109733E-16	1.608923E-16
5.530000E+03	7.165405E-16	1.636694E-16
5.540000E+03	7.219438E-16	1.668314E-16
5.550000E+03	7.271824E-16	1.703486E-16
5.560000E+03	7.321936E-16	1.741719E-16
5.570000E+03	7.371029E-16	1.782937E-16
5.580000E+03	7.417865E-16	1.826453E-16
5.590000E+03	7.463093E-16	1.872024E-16
5.600000E+03	7.506740E-16	1.919261E-16
5.610000E+03	7.548205E-16	1.967622E-16
5.620000E+03	7.588798E-16	2.017074E-16
5.630000E+03	7.627287E-16	2.066939E-16
5.640000E+03	7.664357E-16	2.117064E-16
5.650000E+03	7.700059E-16	2.167152E-16
5.660000E+03	7.733800E-16	2.216745E-16
5.670000E+03	7.766926E-16	2.265959E-16
5.680000E+03	7.798198E-16	2.314191E-16
5.690000E+03	7.828323E-16	2.361422E-16
5.700000E+03	7.856705E-16	2.407265E-16
5.710000E+03	7.884708E-16	2.451951E-16
5.720000E+03	7.911083E-16	2.494928E-16
5.730000E+03	7.936540E-16	2.536266E-16
5.740000E+03	7.961138E-16	2.575848E-16
5.750000E+03	7.984931E-16	2.613574E-16
5.760000E+03	8.007317E-16	2.649140E-16
5.770000E+03	8.029006E-16	2.682682E-16
5.780000E+03	8.050048E-16	2.714139E-16
5.790000E+03	8.070492E-16	2.743458E-16
5.800000E+03	8.089727E-16	2.770370E-16
5.810000E+03	8.108457E-16	2.795066E-16
5.820000E+03	8.126724E-16	2.817522E-16
5.830000E+03	8.144570E-16	2.837722E-16
5.840000E+03	8.161370E-16	2.855427E-16
5.850000E+03	8.178483E-16	2.871099E-16
5.860000E+03	8.194619E-16	2.884278E-16
5.870000E+03	8.209806E-16	2.894977E-16
5.880000E+03	8.225399E-16	2.903682E-16
5.890000E+03	8.240096E-16	2.909950E-16
5.900000E+03	8.254583E-16	2.914048E-16
5.910000E+03	8.268879E-16	2.916013E-16
5.920000E+03	8.283003E-16	2.915888E-16
5.930000E+03	8.296303E-16	2.913490E-16
5.940000E+03	8.309457E-16	2.909107E-16
5.950000E+03	8.322474E-16	2.902801E-16
5.960000E+03	8.335361E-16	2.894638E-16
5.970000E+03	8.347458E-16	2.884460E-16
5.980000E+03	8.359431E-16	2.872578E-16
5.990000E+03	8.371280E-16	2.859076E-16
6.000000E+03	8.382337E-16	2.843818E-16
6.010000E+03	8.393930E-16	2.827352E-16
6.020000E+03	8.404719E-16	2.809330E-16
6.030000E+03	8.415361E-16	2.790085E-16
6.040000E+03	8.425179E-16	2.769510E-16
6.050000E+03	8.435493E-16	2.748162E-16
6.060000E+03	8.444956E-16	2.725726E-16
6.070000E+03	8.454217E-16	2.702549E-16
6.080000E+03	8.462591E-16	2.678548E-16
6.090000E+03	8.471392E-16	2.654279E-16
6.100000E+03	8.479266E-16	2.629454E-16
6.110000E+03	8.486856E-16	2.604417E-16
6.120000E+03	8.493471E-16	2.579096E-16
6.130000E+03	8.500420E-16	2.554024E-16
6.140000E+03	8.506342E-16	2.528919E-16
6.150000E+03	8.511211E-16	2.503897E-16
6.160000E+03	8.516331E-16	2.479452E-16
6.170000E+03	8.520340E-16	2.455274E-16
6.180000E+03	8.523875E-16	2.431624E-16
6.190000E+03	8.526904E-16	2.408542E-16
6.200000E+03	8.529398E-16	2.386022E-16
6.210000E+03	8.530664E-16	2.363815E-16
6.220000E+03	8.531339E-16	2.342019E-16
6.230000E+03	8.531394E-16	2.320529E-16
6.240000E+03	8.530797E-16	2.299224E-16
6.250000E+03	8.528855E-16	2.277800E-16
6.260000E+03	8.526198E-16	2.256311E-16
6.270000E+03	8.522789E-16	2.234630E-16
6.280000E+03	8.517930E-16	2.212466E-16
6.290000E+03	8.512905E-16	2.190056E-16
6.300000E+03	8.506349E-16	2.166966E-16
6.310000E+03	8.498223E-16	2.143127E-16
6.320000E+03	8.489795E-16	2.118820E-16
6.330000E+03	8.479700E-16	2.093688E-16
6.340000E+03	8.468547E-16	2.067897E-16
6.350000E+03	8.456278E-16	2.041476E-16
6.360000E+03	8.442187E-16	2.014333E-16
6.370000E+03	8.427518E-16	1.986878E-16
6.380000E+03	8.410909E-16	1.958936E-16
6.390000E+03	8.392949E-16	1.930833E-16
6.400000E+03	8.372928E-16	1.902634E-16
6.410000E+03	8.351433E-16	1.874735E-16
6.420000E+03	8.328398E-16	1.847421E-16
6.430000E+03	8.303762E-16	1.821012E-16
6.440000E+03	8.277464E-16	1.795857E-16
6.450000E+03	8.248811E-16	1.772191E-16
6.460000E+03	8.218390E-16	1.750546E-16
6.470000E+03	8.186154E-16	1.731316E-16
6.480000E+03	8.151435E-16	1.714756E-16
6.490000E+03	8.115460E-16	1.701497E-16
6.500000E+03	8.076959E-16	1.691604E-16
6.510000E+03	8.035932E-16	1.685351E-16
6.520000E+03	7.993627E-16	1.683198E-16
6.530000E+03	7.948832E-16	1.685007E-16
6.540000E+03	7.902212E-16	1.690908E-16
6.550000E+03	7.853843E-16	1.700772E-16
6.560000E+03	7.803814E-16	1.714391E-16
6.570000E+03	7.751629E-16	1.731356E-16
6.580000E+03	7.698004E-16	1.751468E-16
6.590000E+03	7.643054E-16	1.774366E-16
6.600000E+03	7.586904E-16	1.799666E-16
6.610000E+03	7.529098E-16	1.826839E-16
6.620000E+03	7.470353E-16	1.855636E-16
6.630000E+03	7.410793E-16	1.885686E-16
6.640000E+03	7.350543E-16	1.916637E-16
6.650000E+03	7.289724E-16	1.948162E-16
6.660000E+03	7.227897E-16	1.979808E-16
6.670000E+03	7.165741E-16	2.011450E-16
6.680000E+03	7.103364E-16	2.042846E-16
6.690000E+03	7.040324E-16	2.073618E-16
6.700000E+03	6.977808E-16	2.103896E-16
6.710000E+03	6.914825E-16	2.133192E-16
6.720000E+03	6.851475E-16	2.161359E-16
6.730000E+03	6.788895E-16	2.188608E-16
6.740000E+03	6.726624E-16	2.214675E-16
6.750000E+03	6.664215E-16	2.239303E-16
6.760000E+03	6.602252E-16	2.262595E-16
6.770000E+03	6.540283E-16	2.284322E-16
6.780000E+03	6.479372E-16	2.304794E-16
6.790000E+03	6.418560E-16	2.323628E-16
6.800000E+03	6.358389E-16	2.340980E-16
6.810000E+03	6.298895E-16	2.356839E-16
6.820000E+03	6.240107E-16	2.371202E-16
6.830000E+03	6.181576E-16	2.383887E-16
6.840000E+03	6.124284E-16	2.395269E-16
6.850000E+03	6.067298E-16	2.404992E-16
6.860000E+03	6.010647E-16	2.413069E-16
6.870000E+03	5.955278E-16	2.419896E-16
6.880000E+03	5.900274E-16	2.425120E-16
6.890000E+03	5.846563E-16	2.429142E-16
6.900000E+03	5.792787E-16	2.431426E-16
6.910000E+03	5.740310E-16	2.432565E-16
6.920000E+03	5.688679E-16	2.432402E-16
6.930000E+03	5.637455E-16	2.430779E-16
6.940000E+03	5.587078E-16	2.427917E-16
6.950000E+03	5.537545E-16	2.423849E-16
6.960000E+03	5.488849E-16	2.418609E-16
6.970000E+03	5.440559E-16	2.412041E-16
6.980000E+03	5.393516E-16	2.404556E-16
6.990000E+03	5.346865E-16	2.395813E-16
7.000000E+03	5.301021E-16	2.386032E-16
7.010000E+03	5.255970E-16	2.375248E-16
7.020000E+03	5.211291E-16	2.363308E-16
7.030000E+03	5.167791E-16	2.350618E-16
7.040000E+03	5.124641E-16	2.336840E-16
7.050000E+03	5.082235E-16	2.322194E-16
7.060000E+03	5.040162E-16	2.306531E-16
7.070000E+03	4.999199E-16	2.290248E-16
7.080000E+03	4.958932E-16	2.273194E-16
7.090000E+03	4.918958E-16	2.255225E-16
7.100000E+03	4.879652E-16	2.236554E-16
7.110000E+03	4.840997E-16	2.217214E-16
7.120000E+03	4.802597E-16	2.197064E-16
7.130000E+03	4.765196E-16	2.176486E-16
7.140000E+03	4.728020E-16	2.155168E-16
7.150000E+03	4.691431E-16	2.133317E-16
7.160000E+03	4.655413E-16	2.110968E-16
7.170000E+03	4.619947E-16	2.088155E-16
7.180000E+03	4.585018E-16	2.064914E-16
7.190000E+03	4.550246E-16	2.041118E-16
7.200000E+03	4.515982E-16	2.016971E-16
7.210000E+03	4.482210E-16	1.992508E-16
7.220000E+03	4.448914E-16	1.967769E-16
7.230000E+03	4.416078E-16	1.942793E-16
7.240000E+03	4.383687E-16	1.917620E-16
7.250000E+03	4.351381E-16	1.892141E-16
7.260000E+03	4.319496E-16	1.866552E-16
7.270000E+03	4.288020E-16	1.840898E-16
7.280000E+03	4.256940E-16	1.815223E-16
7.290000E+03	4.226244E-16	1.789572E-16
7.300000E+03	4.195921E-16	1.763993E-16
7.310000E+03	4.165626E-16	1.738394E-16
7.320000E+03	4.135689E-16	1.712968E-16
7.330000E+03	4.106431E-16	1.687900E-16
7.340000E+03	4.077182E-16	1.662966E-16
7.350000E+03	4.047939E-16	1.638225E-16
7.360000E+03	4.019354E-16	1.613994E-16
7.370000E+03	3.991092E-16	1.590191E-16
7.380000E+03	3.962828E-16	1.566741E-16
7.390000E+03	3.934883E-16	1.543825E-16
7.400000E+03	3.907257E-16	1.521493E-16
7.410000E+03	3.879947E-16	1.499796E-16
7.420000E+03	3.852952E-16	1.478779E-16
7.430000E+03	3.826273E-16	1.458487E-16
7.440000E+03	3.799599E-16	1.438845E-16
7.450000E+03	3.773247E-16	1.420009E-16
7.460000E+03	3.747523E-16	1.402128E-16
7.470000E+03	3.721813E-16	1.384997E-16
7.480000E+03	3.696425E-16	1.368753E-16
7.490000E+03	3.671057E-16	1.353297E-16
7.500000E+03	3.646313E-16	1.338856E-16
7.510000E+03	3.621885E-16	1.325312E-16
7.520000E+03	3.597464E-16	1.312534E-16
7.530000E+03	3.573330E-16	1.300586E-16
7.540000E+03	3.549460E-16	1.289415E-16
7.550000E+03	3.525830E-16	1.278959E-16
7.560000E+03	3.502416E-16	1.269155E-16
7.570000E+03	3.479195E-16	1.259934E-16
7.580000E+03	3.455857E-16	1.251122E-16
7.590000E+03	3.432955E-16	1.242857E-16
7.600000E+03	3.409896E-16	1.234860E-16
7.610000E+03	3.386947E-16	1.227168E-16
7.620000E+03	3.364091E-16	1.219712E-16
7.630000E+03	3.341311E-16	1.212431E-16
7.640000E+03	3.318592E-16	1.205263E-16
7.650000E+03	3.295921E-16	1.198153E-16
7.660000E+03	3.273287E-16	1.191048E-16
7.670000E+03	3.250404E-16	1.183801E-16
7.680000E+03	3.227816E-16	1.176571E-16
7.690000E+03	3.204967E-16	1.169121E-16
7.700000E+03	3.182127E-16	1.161518E-16
7.710000E+03	3.159293E-16	1.153735E-16
7.720000E+03	3.136462E-16	1.145752E-16
7.730000E+03	3.113633E-16	1.137552E-16
7.740000E+03	3.090543E-16	1.129027E-16
7.750000E+03	3.067724E-16	1.120363E-16
7.760000E+03	3.044651E-16	1.111369E-16
