#wls	flux	fluxerr
1.600000E+03	7.086532E-18	5.831690E-18
1.640000E+03	7.052977E-18	5.801782E-18
1.680000E+03	7.012219E-18	5.765646E-18
1.720000E+03	6.966661E-18	5.725229E-18
1.760000E+03	6.913214E-18	5.677955E-18
1.800000E+03	6.851600E-18	5.623561E-18
1.840000E+03	6.784144E-18	5.563918E-18
1.880000E+03	6.710477E-18	5.498682E-18
1.920000E+03	6.627784E-18	5.425502E-18
1.960000E+03	6.535921E-18	5.344222E-18
2.000000E+03	6.437154E-18	5.256656E-18
2.040000E+03	6.328980E-18	5.160715E-18
2.080000E+03	6.213666E-18	5.058211E-18
2.120000E+03	6.088961E-18	4.947277E-18
2.160000E+03	5.957158E-18	4.829742E-18
2.200000E+03	5.818330E-18	4.705637E-18
2.240000E+03	5.670676E-18	4.573484E-18
2.280000E+03	5.514664E-18	4.433658E-18
2.320000E+03	5.352680E-18	4.288083E-18
2.360000E+03	5.185177E-18	4.137125E-18
2.400000E+03	5.011038E-18	3.979921E-18
2.440000E+03	4.832729E-18	3.818473E-18
2.480000E+03	4.649477E-18	3.652225E-18
2.520000E+03	4.463774E-18	3.483215E-18
2.560000E+03	4.276527E-18	3.312227E-18
2.600000E+03	4.087419E-18	3.139116E-18
2.640000E+03	3.898910E-18	2.965894E-18
2.680000E+03	3.710916E-18	2.792618E-18
2.720000E+03	3.525807E-18	2.621207E-18
2.760000E+03	3.344666E-18	2.452581E-18
2.800000E+03	3.167619E-18	2.286949E-18
2.840000E+03	2.996785E-18	2.125951E-18
2.880000E+03	2.833164E-18	1.970358E-18
2.920000E+03	2.676930E-18	1.820327E-18
2.960000E+03	2.530579E-18	1.677537E-18
3.000000E+03	2.392765E-18	1.541003E-18
3.010000E+03	2.360040E-18	1.508091E-18
3.020000E+03	2.327962E-18	1.475632E-18
3.030000E+03	2.297188E-18	1.444035E-18
3.040000E+03	2.266434E-18	1.412486E-18
3.050000E+03	2.236366E-18	1.381403E-18
3.060000E+03	2.206997E-18	1.350789E-18
3.070000E+03	2.178944E-18	1.321012E-18
3.080000E+03	2.151003E-18	1.291334E-18
3.090000E+03	2.123799E-18	1.262130E-18
3.100000E+03	2.097921E-18	1.233740E-18
3.110000E+03	2.072221E-18	1.205477E-18
3.120000E+03	2.047854E-18	1.178011E-18
3.130000E+03	2.023708E-18	1.150687E-18
3.140000E+03	2.000905E-18	1.124139E-18
3.150000E+03	1.978900E-18	1.098044E-18
3.160000E+03	1.957177E-18	1.072108E-18
3.170000E+03	1.936817E-18	1.046915E-18
3.180000E+03	1.917296E-18	1.022163E-18
3.190000E+03	1.898629E-18	9.978474E-19
3.200000E+03	1.880833E-18	9.739628E-19
3.210000E+03	1.863426E-18	9.502499E-19
3.220000E+03	1.847423E-18	9.272147E-19
3.230000E+03	1.832339E-18	9.045899E-19
3.240000E+03	1.818673E-18	8.826003E-19
3.250000E+03	1.805478E-18	8.607652E-19
3.260000E+03	1.793260E-18	8.393149E-19
3.270000E+03	1.782040E-18	8.182397E-19
3.280000E+03	1.771839E-18	7.975295E-19
3.290000E+03	1.762683E-18	7.771737E-19
3.300000E+03	1.755052E-18	7.573575E-19
3.310000E+03	1.748058E-18	7.376715E-19
3.320000E+03	1.742640E-18	7.184912E-19
3.330000E+03	1.737928E-18	6.994295E-19
3.340000E+03	1.734406E-18	6.806653E-19
3.350000E+03	1.732553E-18	6.623568E-19
3.360000E+03	1.731962E-18	6.443136E-19
3.370000E+03	1.732235E-18	6.263670E-19
3.380000E+03	1.734298E-18	6.088318E-19
3.390000E+03	1.737760E-18	5.915371E-19
3.400000E+03	1.742235E-18	5.743340E-19
3.410000E+03	1.748656E-18	5.575153E-19
3.420000E+03	1.756646E-18	5.409346E-19
3.430000E+03	1.766271E-18	5.246007E-19
3.440000E+03	1.777604E-18	5.085291E-19
3.450000E+03	1.790720E-18	4.927449E-19
3.460000E+03	1.805704E-18	4.772848E-19
3.470000E+03	1.822645E-18	4.622000E-19
3.480000E+03	1.841640E-18	4.475610E-19
3.490000E+03	1.862793E-18	4.334610E-19
3.500000E+03	1.886217E-18	4.200221E-19
3.510000E+03	1.912034E-18	4.074010E-19
3.520000E+03	1.940845E-18	3.958910E-19
3.530000E+03	1.971853E-18	3.855411E-19
3.540000E+03	2.005674E-18	3.767452E-19
3.550000E+03	2.042958E-18	3.699386E-19
3.560000E+03	2.082899E-18	3.653343E-19
3.570000E+03	2.126162E-18	3.634489E-19
3.580000E+03	2.173454E-18	3.648043E-19
3.590000E+03	2.223948E-18	3.696337E-19
3.600000E+03	2.278902E-18	3.784432E-19
3.610000E+03	2.338021E-18	3.913612E-19
3.620000E+03	2.400972E-18	4.083891E-19
3.630000E+03	2.469119E-18	4.297226E-19
3.640000E+03	2.542167E-18	4.552207E-19
3.650000E+03	2.620387E-18	4.848066E-19
3.660000E+03	2.703438E-18	5.182780E-19
3.670000E+03	2.792863E-18	5.557983E-19
3.680000E+03	2.888373E-18	5.972074E-19
3.690000E+03	2.990308E-18	6.424874E-19
3.700000E+03	3.099032E-18	6.916514E-19
3.710000E+03	3.214929E-18	7.447439E-19
3.720000E+03	3.338407E-18	8.018389E-19
3.730000E+03	3.469900E-18	8.630387E-19
3.740000E+03	3.609868E-18	9.284709E-19
3.750000E+03	3.758798E-18	9.982869E-19
3.760000E+03	3.918092E-18	1.072902E-18
3.770000E+03	4.086561E-18	1.152040E-18
3.780000E+03	4.265634E-18	1.236138E-18
3.790000E+03	4.455923E-18	1.325422E-18
3.800000E+03	4.659113E-18	1.420451E-18
3.810000E+03	4.873848E-18	1.520868E-18
3.820000E+03	5.102974E-18	1.627599E-18
3.830000E+03	5.345031E-18	1.740225E-18
3.840000E+03	5.601896E-18	1.859375E-18
3.850000E+03	5.875696E-18	1.985785E-18
3.860000E+03	6.166128E-18	2.119381E-18
3.870000E+03	6.472702E-18	2.259988E-18
3.880000E+03	6.799149E-18	2.408887E-18
3.890000E+03	7.143574E-18	2.565383E-18
3.900000E+03	7.510062E-18	2.730888E-18
3.910000E+03	7.898227E-18	2.905207E-18
3.920000E+03	8.307419E-18	3.088004E-18
3.930000E+03	8.742315E-18	3.280896E-18
3.940000E+03	9.202433E-18	3.483576E-18
3.950000E+03	9.689039E-18	3.696355E-18
3.960000E+03	1.020344E-17	3.919533E-18
3.970000E+03	1.074698E-17	4.153400E-18
3.980000E+03	1.132103E-17	4.398224E-18
3.990000E+03	1.192450E-17	4.653275E-18
4.000000E+03	1.256373E-17	4.920694E-18
4.010000E+03	1.323778E-17	5.199751E-18
4.020000E+03	1.394815E-17	5.490620E-18
4.030000E+03	1.469632E-17	5.793441E-18
4.040000E+03	1.548703E-17	6.109591E-18
4.050000E+03	1.631551E-17	6.436656E-18
4.060000E+03	1.718631E-17	6.775870E-18
4.070000E+03	1.810093E-17	7.127212E-18
4.080000E+03	1.906082E-17	7.490613E-18
4.090000E+03	2.006740E-17	7.865956E-18
4.100000E+03	2.112635E-17	8.254760E-18
4.110000E+03	2.223058E-17	8.653506E-18
4.120000E+03	2.338543E-17	9.063535E-18
4.130000E+03	2.459204E-17	9.484525E-18
4.140000E+03	2.585669E-17	9.918109E-18
4.150000E+03	2.717010E-17	1.035994E-17
4.160000E+03	2.853805E-17	1.081149E-17
4.170000E+03	2.996718E-17	1.127450E-17
4.180000E+03	3.144622E-17	1.174403E-17
4.190000E+03	3.298118E-17	1.222169E-17
4.200000E+03	3.457902E-17	1.270945E-17
4.210000E+03	3.622616E-17	1.320178E-17
4.220000E+03	3.793627E-17	1.370327E-17
4.230000E+03	3.969408E-17	1.420806E-17
4.240000E+03	4.151400E-17	1.472117E-17
4.250000E+03	4.337892E-17	1.523647E-17
4.260000E+03	4.530403E-17	1.575946E-17
4.270000E+03	4.727025E-17	1.628379E-17
4.280000E+03	4.929363E-17	1.681551E-17
4.290000E+03	5.135304E-17	1.734809E-17
4.300000E+03	5.346541E-17	1.788821E-17
4.310000E+03	5.561829E-17	1.843273E-17
4.320000E+03	5.779742E-17	1.897831E-17
4.330000E+03	6.002123E-17	1.953253E-17
4.340000E+03	6.226350E-17	2.008851E-17
4.350000E+03	6.454381E-17	2.065444E-17
4.360000E+03	6.684669E-17	2.122724E-17
4.370000E+03	6.915500E-17	2.180348E-17
4.380000E+03	7.149038E-17	2.239195E-17
4.390000E+03	7.383601E-17	2.298916E-17
4.400000E+03	7.617354E-17	2.359101E-17
4.410000E+03	7.852721E-17	2.420632E-17
4.420000E+03	8.087931E-17	2.483059E-17
4.430000E+03	8.321069E-17	2.545871E-17
4.440000E+03	8.554849E-17	2.609951E-17
4.450000E+03	8.787432E-17	2.674765E-17
4.460000E+03	9.016848E-17	2.739727E-17
4.470000E+03	9.246107E-17	2.805750E-17
4.480000E+03	9.473323E-17	2.872242E-17
4.490000E+03	9.696485E-17	2.938569E-17
4.500000E+03	9.918902E-17	3.005705E-17
4.510000E+03	1.013865E-16	3.073031E-17
4.520000E+03	1.035369E-16	3.139899E-17
4.530000E+03	1.056763E-16	3.207371E-17
4.540000E+03	1.077850E-16	3.274838E-17
4.550000E+03	1.098425E-16	3.341662E-17
4.560000E+03	1.118874E-16	3.409026E-17
4.570000E+03	1.139000E-16	3.476347E-17
4.580000E+03	1.158594E-16	3.543024E-17
4.590000E+03	1.178067E-16	3.610374E-17
4.600000E+03	1.197006E-16	3.677200E-17
4.610000E+03	1.215838E-16	3.744909E-17
4.620000E+03	1.234359E-16	3.812987E-17
4.630000E+03	1.252355E-16	3.880902E-17
4.640000E+03	1.270277E-16	3.950187E-17
4.650000E+03	1.287689E-16	4.019650E-17
4.660000E+03	1.305055E-16	4.090896E-17
4.670000E+03	1.321931E-16	4.162711E-17
4.680000E+03	1.338793E-16	4.236753E-17
4.690000E+03	1.355190E-16	4.311767E-17
4.700000E+03	1.371609E-16	4.389439E-17
4.710000E+03	1.387592E-16	4.468437E-17
4.720000E+03	1.403636E-16	4.550440E-17
4.730000E+03	1.419276E-16	4.633985E-17
4.740000E+03	1.435019E-16	4.720696E-17
4.750000E+03	1.450394E-16	4.808954E-17
4.760000E+03	1.465916E-16	4.900346E-17
4.770000E+03	1.481106E-16	4.993129E-17
4.780000E+03	1.496234E-16	5.088020E-17
4.790000E+03	1.511579E-16	5.185771E-17
4.800000E+03	1.526650E-16	5.284490E-17
4.810000E+03	1.541723E-16	5.384883E-17
4.820000E+03	1.556819E-16	5.486780E-17
4.830000E+03	1.572225E-16	5.590941E-17
4.840000E+03	1.587436E-16	5.695319E-17
4.850000E+03	1.602733E-16	5.800649E-17
4.860000E+03	1.618139E-16	5.906742E-17
4.870000E+03	1.633674E-16	6.013406E-17
4.880000E+03	1.649359E-16	6.120452E-17
4.890000E+03	1.665213E-16	6.227691E-17
4.900000E+03	1.681256E-16	6.334936E-17
4.910000E+03	1.697508E-16	6.442001E-17
4.920000E+03	1.713988E-16	6.548706E-17
4.930000E+03	1.730713E-16	6.654870E-17
4.940000E+03	1.747702E-16	6.760316E-17
4.950000E+03	1.764973E-16	6.864872E-17
4.960000E+03	1.782542E-16	6.968364E-17
4.970000E+03	1.800134E-16	7.069474E-17
4.980000E+03	1.818346E-16	7.170319E-17
4.990000E+03	1.836904E-16	7.269597E-17
5.000000E+03	1.855522E-16	7.365954E-17
5.010000E+03	1.874812E-16	7.461592E-17
5.020000E+03	1.894489E-16	7.555171E-17
5.030000E+03	1.914258E-16	7.645301E-17
5.040000E+03	1.934742E-16	7.734263E-17
5.050000E+03	1.955335E-16	7.819427E-17
5.060000E+03	1.976354E-16	7.901862E-17
5.070000E+03	1.998125E-16	7.982676E-17
5.080000E+03	2.020022E-16	8.059179E-17
5.090000E+03	2.042368E-16	8.132470E-17
5.100000E+03	2.065167E-16	8.202393E-17
5.110000E+03	2.088754E-16	8.270095E-17
5.120000E+03	2.112475E-16	8.332819E-17
5.130000E+03	2.136657E-16	8.391713E-17
5.140000E+03	2.161302E-16	8.446630E-17
5.150000E+03	2.186408E-16	8.497429E-17
5.160000E+03	2.211972E-16	8.543977E-17
5.170000E+03	2.237989E-16	8.586151E-17
5.180000E+03	2.264100E-16	8.622496E-17
5.190000E+03	2.290999E-16	8.655594E-17
5.200000E+03	2.318328E-16	8.684024E-17
5.210000E+03	2.345710E-16	8.706374E-17
5.220000E+03	2.373855E-16	8.725298E-17
5.230000E+03	2.402386E-16	8.739433E-17
5.240000E+03	2.430913E-16	8.747450E-17
5.250000E+03	2.459781E-16	8.750746E-17
5.260000E+03	2.489349E-16	8.750754E-17
5.270000E+03	2.518832E-16	8.744922E-17
5.280000E+03	2.548583E-16	8.734777E-17
5.290000E+03	2.578570E-16	8.720557E-17
5.300000E+03	2.609159E-16	8.703883E-17
5.310000E+03	2.639527E-16	8.682465E-17
5.320000E+03	2.670031E-16	8.658065E-17
5.330000E+03	2.700223E-16	8.629887E-17
5.340000E+03	2.730877E-16	8.601137E-17
5.350000E+03	2.761546E-16	8.571175E-17
5.360000E+03	2.792187E-16	8.540755E-17
5.370000E+03	2.822331E-16	8.509440E-17
5.380000E+03	2.852774E-16	8.480716E-17
5.390000E+03	2.883051E-16	8.454298E-17
5.400000E+03	2.912678E-16	8.429996E-17
5.410000E+03	2.942035E-16	8.410205E-17
5.420000E+03	2.971515E-16	8.397341E-17
5.430000E+03	3.000191E-16	8.390082E-17
5.440000E+03	3.028455E-16	8.390860E-17
5.450000E+03	3.056261E-16	8.400814E-17
5.460000E+03	3.083567E-16	8.421015E-17
5.470000E+03	3.110334E-16	8.452421E-17
5.480000E+03	3.136524E-16	8.495841E-17
5.490000E+03	3.162107E-16	8.551880E-17
5.500000E+03	3.186591E-16	8.619621E-17
5.510000E+03	3.210892E-16	8.701662E-17
5.520000E+03	3.234537E-16	8.796547E-17
5.530000E+03	3.257045E-16	8.902551E-17
5.540000E+03	3.279368E-16	9.021648E-17
5.550000E+03	3.300557E-16	9.150441E-17
5.560000E+03	3.321101E-16	9.289326E-17
5.570000E+03	3.341012E-16	9.437301E-17
5.580000E+03	3.360309E-16	9.593297E-17
5.590000E+03	3.379502E-16	9.757617E-17
5.600000E+03	3.397146E-16	9.924888E-17
5.610000E+03	3.414735E-16	1.009823E-16
5.620000E+03	3.431808E-16	1.027511E-16
5.630000E+03	3.448394E-16	1.045447E-16
5.640000E+03	3.464026E-16	1.063372E-16
5.650000E+03	3.479732E-16	1.081493E-16
5.660000E+03	3.494546E-16	1.099407E-16
5.670000E+03	3.509503E-16	1.117341E-16
5.680000E+03	3.523633E-16	1.134896E-16
5.690000E+03	3.537473E-16	1.152153E-16
5.700000E+03	3.551055E-16	1.169043E-16
5.710000E+03	3.564414E-16	1.185504E-16
5.720000E+03	3.577583E-16	1.201478E-16
5.730000E+03	3.590594E-16	1.216911E-16
5.740000E+03	3.603480E-16	1.231757E-16
5.750000E+03	3.616270E-16	1.245973E-16
5.760000E+03	3.628481E-16	1.259343E-16
5.770000E+03	3.641167E-16	1.272189E-16
5.780000E+03	3.653327E-16	1.284122E-16
5.790000E+03	3.665498E-16	1.295297E-16
5.800000E+03	3.678225E-16	1.305874E-16
5.810000E+03	3.690492E-16	1.315468E-16
5.820000E+03	3.702837E-16	1.324246E-16
5.830000E+03	3.715278E-16	1.332196E-16
5.840000E+03	3.727833E-16	1.339308E-16
5.850000E+03	3.739989E-16	1.345386E-16
5.860000E+03	3.752809E-16	1.350802E-16
5.870000E+03	3.765779E-16	1.355366E-16
5.880000E+03	3.778377E-16	1.358889E-16
5.890000E+03	3.791666E-16	1.361752E-16
5.900000E+03	3.804590E-16	1.363581E-16
5.910000E+03	3.817680E-16	1.364575E-16
5.920000E+03	3.830933E-16	1.364744E-16
5.930000E+03	3.844346E-16	1.364100E-16
5.940000E+03	3.857913E-16	1.362661E-16
5.950000E+03	3.871625E-16	1.360445E-16
5.960000E+03	3.885472E-16	1.357473E-16
5.970000E+03	3.898898E-16	1.353582E-16
5.980000E+03	3.912967E-16	1.349178E-16
5.990000E+03	3.926579E-16	1.343916E-16
6.000000E+03	3.940798E-16	1.338205E-16
6.010000E+03	3.954512E-16	1.331713E-16
6.020000E+03	3.968239E-16	1.324668E-16
6.030000E+03	3.981950E-16	1.317117E-16
6.040000E+03	3.995615E-16	1.309109E-16
6.050000E+03	4.009201E-16	1.300700E-16
6.060000E+03	4.022674E-16	1.291945E-16
6.070000E+03	4.035998E-16	1.282908E-16
6.080000E+03	4.048578E-16	1.273476E-16
6.090000E+03	4.061485E-16	1.264068E-16
6.100000E+03	4.073565E-16	1.254406E-16
6.110000E+03	4.085332E-16	1.244733E-16
6.120000E+03	4.097304E-16	1.235291E-16
6.130000E+03	4.108316E-16	1.225808E-16
6.140000E+03	4.118885E-16	1.216525E-16
6.150000E+03	4.128967E-16	1.207503E-16
6.160000E+03	4.137955E-16	1.198639E-16
6.170000E+03	4.146935E-16	1.190310E-16
6.180000E+03	4.155304E-16	1.182392E-16
6.190000E+03	4.162456E-16	1.174747E-16
6.200000E+03	4.169495E-16	1.167701E-16
6.210000E+03	4.175255E-16	1.160920E-16
6.220000E+03	4.180281E-16	1.154530E-16
6.230000E+03	4.184551E-16	1.148488E-16
6.240000E+03	4.188046E-16	1.142739E-16
6.250000E+03	4.190746E-16	1.137225E-16
6.260000E+03	4.192635E-16	1.131884E-16
6.270000E+03	4.193696E-16	1.126656E-16
6.280000E+03	4.193344E-16	1.121327E-16
6.290000E+03	4.192702E-16	1.116147E-16
6.300000E+03	4.190617E-16	1.110763E-16
6.310000E+03	4.187642E-16	1.105282E-16
6.320000E+03	4.184331E-16	1.099821E-16
6.330000E+03	4.179533E-16	1.094054E-16
6.340000E+03	4.173801E-16	1.088118E-16
6.350000E+03	4.167119E-16	1.082011E-16
6.360000E+03	4.158911E-16	1.075597E-16
6.370000E+03	4.150288E-16	1.069190E-16
6.380000E+03	4.140671E-16	1.062677E-16
6.390000E+03	4.129490E-16	1.055964E-16
6.400000E+03	4.117847E-16	1.049394E-16
6.410000E+03	4.104619E-16	1.042754E-16
6.420000E+03	4.090351E-16	1.036267E-16
6.430000E+03	4.075036E-16	1.030020E-16
6.440000E+03	4.058667E-16	1.024109E-16
6.450000E+03	4.041240E-16	1.018635E-16
6.460000E+03	4.022754E-16	1.013700E-16
6.470000E+03	4.003210E-16	1.009407E-16
6.480000E+03	3.982078E-16	1.005719E-16
6.490000E+03	3.960442E-16	1.002999E-16
6.500000E+03	3.937248E-16	1.001058E-16
6.510000E+03	3.913579E-16	1.000232E-16
6.520000E+03	3.888401E-16	1.000301E-16
6.530000E+03	3.862279E-16	1.001422E-16
6.540000E+03	3.835251E-16	1.003595E-16
6.550000E+03	3.807369E-16	1.006789E-16
6.560000E+03	3.778686E-16	1.010951E-16
6.570000E+03	3.748759E-16	1.015875E-16
6.580000E+03	3.718664E-16	1.021749E-16
6.590000E+03	3.687958E-16	1.028346E-16
6.600000E+03	3.656219E-16	1.035427E-16
6.610000E+03	3.624014E-16	1.043031E-16
6.620000E+03	3.591898E-16	1.051196E-16
6.630000E+03	3.558967E-16	1.059540E-16
6.640000E+03	3.525779E-16	1.068109E-16
6.650000E+03	3.492401E-16	1.076810E-16
6.660000E+03	3.458900E-16	1.085558E-16
6.670000E+03	3.424879E-16	1.094126E-16
6.680000E+03	3.391325E-16	1.102735E-16
6.690000E+03	3.357834E-16	1.111174E-16
6.700000E+03	3.324016E-16	1.119234E-16
6.710000E+03	3.290824E-16	1.127164E-16
6.720000E+03	3.257420E-16	1.134617E-16
6.730000E+03	3.224298E-16	1.141707E-16
6.740000E+03	3.191505E-16	1.148401E-16
6.750000E+03	3.159083E-16	1.154673E-16
6.760000E+03	3.127072E-16	1.160503E-16
6.770000E+03	3.095507E-16	1.165874E-16
6.780000E+03	3.064422E-16	1.170774E-16
6.790000E+03	3.033438E-16	1.175036E-16
6.800000E+03	3.003405E-16	1.178973E-16
6.810000E+03	2.973534E-16	1.182265E-16
6.820000E+03	2.944651E-16	1.185231E-16
6.830000E+03	2.915980E-16	1.187556E-16
6.840000E+03	2.887937E-16	1.189404E-16
6.850000E+03	2.860537E-16	1.190782E-16
6.860000E+03	2.833793E-16	1.191699E-16
6.870000E+03	2.807715E-16	1.192162E-16
6.880000E+03	2.782311E-16	1.192183E-16
6.890000E+03	2.757216E-16	1.191611E-16
6.900000E+03	2.733182E-16	1.190779E-16
6.910000E+03	2.709838E-16	1.189537E-16
6.920000E+03	2.686821E-16	1.187738E-16
6.930000E+03	2.664500E-16	1.185552E-16
6.940000E+03	2.643233E-16	1.183153E-16
6.950000E+03	2.622299E-16	1.180231E-16
6.960000E+03	2.602055E-16	1.176957E-16
6.970000E+03	2.582495E-16	1.173343E-16
6.980000E+03	2.563614E-16	1.169399E-16
6.990000E+03	2.545407E-16	1.165136E-16
7.000000E+03	2.527521E-16	1.160405E-16
7.010000E+03	2.510637E-16	1.155533E-16
7.020000E+03	2.494402E-16	1.150368E-16
7.030000E+03	2.478467E-16	1.144765E-16
7.040000E+03	2.463499E-16	1.139043E-16
7.050000E+03	2.448813E-16	1.132900E-16
7.060000E+03	2.434736E-16	1.126498E-16
7.070000E+03	2.421255E-16	1.119844E-16
7.080000E+03	2.408356E-16	1.112945E-16
7.090000E+03	2.396025E-16	1.105806E-16
7.100000E+03	2.384248E-16	1.098435E-16
7.110000E+03	2.373011E-16	1.090836E-16
7.120000E+03	2.362298E-16	1.083016E-16
7.130000E+03	2.351772E-16	1.074833E-16
7.140000E+03	2.342060E-16	1.066587E-16
7.150000E+03	2.332503E-16	1.057992E-16
7.160000E+03	2.323723E-16	1.049343E-16
7.170000E+03	2.315064E-16	1.040358E-16
7.180000E+03	2.306828E-16	1.031189E-16
7.190000E+03	2.299308E-16	1.021981E-16
7.200000E+03	2.291854E-16	1.012461E-16
7.210000E+03	2.284762E-16	1.002779E-16
7.220000E+03	2.278010E-16	9.929410E-17
7.230000E+03	2.271263E-16	9.828230E-17
7.240000E+03	2.265125E-16	9.727062E-17
7.250000E+03	2.259259E-16	9.624655E-17
7.260000E+03	2.253641E-16	9.521132E-17
7.270000E+03	2.247937E-16	9.415331E-17
7.280000E+03	2.242743E-16	9.310011E-17
7.290000E+03	2.237413E-16	9.202753E-17
7.300000E+03	2.232231E-16	9.095034E-17
7.310000E+03	2.227479E-16	8.988293E-17
7.320000E+03	2.222513E-16	8.880240E-17
7.330000E+03	2.217613E-16	8.772360E-17
7.340000E+03	2.212752E-16	8.664898E-17
7.350000E+03	2.207903E-16	8.558113E-17
7.360000E+03	2.203036E-16	8.452282E-17
7.370000E+03	2.197819E-16	8.346535E-17
7.380000E+03	2.192834E-16	8.243508E-17
7.390000E+03	2.187747E-16	8.142341E-17
7.400000E+03	2.182229E-16	8.042234E-17
7.410000E+03	2.176859E-16	7.945765E-17
7.420000E+03	2.171005E-16	7.851027E-17
7.430000E+03	2.165249E-16	7.760543E-17
7.440000E+03	2.158960E-16	7.672436E-17
7.450000E+03	2.152421E-16	7.588090E-17
7.460000E+03	2.145609E-16	7.507765E-17
7.470000E+03	2.138807E-16	7.432730E-17
7.480000E+03	2.131396E-16	7.361074E-17
7.490000E+03	2.123665E-16	7.293981E-17
7.500000E+03	2.115303E-16	7.230499E-17
7.510000E+03	2.106899E-16	7.172652E-17
7.520000E+03	2.098151E-16	7.119304E-17
7.530000E+03	2.089056E-16	7.070244E-17
7.540000E+03	2.079326E-16	7.024190E-17
7.550000E+03	2.069552E-16	6.982781E-17
7.560000E+03	2.059157E-16	6.943644E-17
7.570000E+03	2.048734E-16	6.908326E-17
7.580000E+03	2.037712E-16	6.874420E-17
7.590000E+03	2.026682E-16	6.843430E-17
7.600000E+03	2.015080E-16	6.812954E-17
7.610000E+03	2.003210E-16	6.783521E-17
7.620000E+03	1.991086E-16	6.754698E-17
7.630000E+03	1.978722E-16	6.726071E-17
7.640000E+03	1.966132E-16	6.697249E-17
7.650000E+03	1.953330E-16	6.667869E-17
7.660000E+03	1.940332E-16	6.637599E-17
7.670000E+03	1.927150E-16	6.606136E-17
7.680000E+03	1.913797E-16	6.573213E-17
7.690000E+03	1.900013E-16	6.537658E-17
7.700000E+03	1.886357E-16	6.501154E-17
7.710000E+03	1.872565E-16	6.462595E-17
7.720000E+03	1.858380E-16	6.420924E-17
7.730000E+03	1.844347E-16	6.377904E-17
7.740000E+03	1.829942E-16	6.331624E-17
7.750000E+03	1.815439E-16	6.282983E-17
7.760000E+03	1.801106E-16	6.232885E-17
