#wls	flux	fluxerr
1.600000E+03	5.818616E-18	4.788762E-18
1.640000E+03	5.786562E-18	4.760563E-18
1.680000E+03	5.751232E-18	4.729431E-18
1.720000E+03	5.712296E-18	4.695069E-18
1.760000E+03	5.667170E-18	4.655323E-18
1.800000E+03	5.615647E-18	4.609996E-18
1.840000E+03	5.557543E-18	4.558908E-18
1.880000E+03	5.494838E-18	4.503652E-18
1.920000E+03	5.427273E-18	4.443981E-18
1.960000E+03	5.350521E-18	4.376316E-18
2.000000E+03	5.268668E-18	4.303971E-18
2.040000E+03	5.181560E-18	4.226783E-18
2.080000E+03	5.087189E-18	4.143079E-18
2.120000E+03	4.985654E-18	4.052915E-18
2.160000E+03	4.878908E-18	3.957850E-18
2.200000E+03	4.765283E-18	3.856505E-18
2.240000E+03	4.646754E-18	3.750463E-18
2.280000E+03	4.521907E-18	3.638566E-18
2.320000E+03	4.392748E-18	3.522426E-18
2.360000E+03	4.258133E-18	3.401126E-18
2.400000E+03	4.118668E-18	3.275169E-18
2.440000E+03	3.976403E-18	3.146213E-18
2.480000E+03	3.831903E-18	3.014728E-18
2.520000E+03	3.684553E-18	2.880273E-18
2.560000E+03	3.535226E-18	2.743594E-18
2.600000E+03	3.385962E-18	2.606344E-18
2.640000E+03	3.237535E-18	2.469179E-18
2.680000E+03	3.089747E-18	2.332023E-18
2.720000E+03	2.943592E-18	2.195717E-18
2.760000E+03	2.800952E-18	2.061749E-18
2.800000E+03	2.662645E-18	1.930775E-18
2.840000E+03	2.528683E-18	1.802855E-18
2.880000E+03	2.400733E-18	1.679212E-18
2.920000E+03	2.278841E-18	1.559875E-18
2.960000E+03	2.163847E-18	1.445396E-18
3.000000E+03	2.057775E-18	1.337026E-18
3.010000E+03	2.032070E-18	1.310490E-18
3.020000E+03	2.007506E-18	1.284699E-18
3.030000E+03	1.983480E-18	1.259259E-18
3.040000E+03	1.959422E-18	1.233805E-18
3.050000E+03	1.936514E-18	1.209082E-18
3.060000E+03	1.914178E-18	1.184718E-18
3.070000E+03	1.892427E-18	1.160716E-18
3.080000E+03	1.871270E-18	1.137078E-18
3.090000E+03	1.850179E-18	1.113478E-18
3.100000E+03	1.830255E-18	1.090578E-18
3.110000E+03	1.810961E-18	1.068044E-18
3.120000E+03	1.792309E-18	1.045877E-18
3.130000E+03	1.774310E-18	1.024076E-18
3.140000E+03	1.757486E-18	1.002930E-18
3.150000E+03	1.740827E-18	9.818514E-19
3.160000E+03	1.724860E-18	9.611357E-19
3.170000E+03	1.709599E-18	9.407804E-19
3.180000E+03	1.695056E-18	9.207832E-19
3.190000E+03	1.681246E-18	9.011412E-19
3.200000E+03	1.668658E-18	8.821018E-19
3.210000E+03	1.656354E-18	8.631539E-19
3.220000E+03	1.644830E-18	8.445504E-19
3.230000E+03	1.634562E-18	8.265201E-19
3.240000E+03	1.624644E-18	8.085866E-19
3.250000E+03	1.616011E-18	7.912058E-19
3.260000E+03	1.607773E-18	7.739235E-19
3.270000E+03	1.600409E-18	7.569619E-19
3.280000E+03	1.594383E-18	7.405219E-19
3.290000E+03	1.589271E-18	7.243820E-19
3.300000E+03	1.584659E-18	7.083413E-19
3.310000E+03	1.581453E-18	6.927922E-19
3.320000E+03	1.579243E-18	6.775294E-19
3.330000E+03	1.577626E-18	6.623672E-19
3.340000E+03	1.577503E-18	6.476710E-19
3.350000E+03	1.578475E-18	6.332520E-19
3.360000E+03	1.580579E-18	6.191096E-19
3.370000E+03	1.583426E-18	6.050801E-19
3.380000E+03	1.587922E-18	5.914993E-19
3.390000E+03	1.593680E-18	5.782042E-19
3.400000E+03	1.600753E-18	5.652034E-19
3.410000E+03	1.609195E-18	5.525097E-19
3.420000E+03	1.619062E-18	5.401405E-19
3.430000E+03	1.630418E-18	5.281196E-19
3.440000E+03	1.643329E-18	5.164776E-19
3.450000E+03	1.657867E-18	5.052540E-19
3.460000E+03	1.674109E-18	4.944986E-19
3.470000E+03	1.692139E-18	4.842733E-19
3.480000E+03	1.712495E-18	4.747797E-19
3.490000E+03	1.734375E-18	4.658574E-19
3.500000E+03	1.758328E-18	4.577458E-19
3.510000E+03	1.784463E-18	4.505768E-19
3.520000E+03	1.813369E-18	4.446203E-19
3.530000E+03	1.844231E-18	4.398191E-19
3.540000E+03	1.877648E-18	4.364890E-19
3.550000E+03	1.914257E-18	4.349599E-19
3.560000E+03	1.953224E-18	4.352374E-19
3.570000E+03	1.995710E-18	4.377853E-19
3.580000E+03	2.040865E-18	4.426145E-19
3.590000E+03	2.089908E-18	4.501748E-19
3.600000E+03	2.141968E-18	4.604373E-19
3.610000E+03	2.198329E-18	4.738056E-19
3.620000E+03	2.258095E-18	4.901785E-19
3.630000E+03	2.322626E-18	5.099066E-19
3.640000E+03	2.391600E-18	5.329480E-19
3.650000E+03	2.464650E-18	5.592205E-19
3.660000E+03	2.543268E-18	5.890448E-19
3.670000E+03	2.627134E-18	6.223279E-19
3.680000E+03	2.716547E-18	6.591131E-19
3.690000E+03	2.811127E-18	6.992766E-19
3.700000E+03	2.912589E-18	7.432183E-19
3.710000E+03	3.020615E-18	7.908487E-19
3.720000E+03	3.135583E-18	8.422587E-19
3.730000E+03	3.257898E-18	8.975550E-19
3.740000E+03	3.387987E-18	9.568611E-19
3.750000E+03	3.526304E-18	1.020317E-18
3.760000E+03	3.673329E-18	1.088078E-18
3.770000E+03	3.829571E-18	1.160315E-18
3.780000E+03	3.995567E-18	1.237215E-18
3.790000E+03	4.171887E-18	1.318977E-18
3.800000E+03	4.359133E-18	1.405815E-18
3.810000E+03	4.557940E-18	1.497955E-18
3.820000E+03	4.768977E-18	1.595635E-18
3.830000E+03	4.992952E-18	1.699103E-18
3.840000E+03	5.231860E-18	1.809052E-18
3.850000E+03	5.484036E-18	1.924909E-18
3.860000E+03	5.751501E-18	2.047358E-18
3.870000E+03	6.035120E-18	2.176682E-18
3.880000E+03	6.337297E-18	2.313716E-18
3.890000E+03	6.656052E-18	2.457691E-18
3.900000E+03	6.993808E-18	2.609417E-18
3.910000E+03	7.353328E-18	2.769844E-18
3.920000E+03	7.732321E-18	2.938002E-18
3.930000E+03	8.133558E-18	3.114799E-18
3.940000E+03	8.560202E-18	3.301295E-18
3.950000E+03	9.009572E-18	3.496274E-18
3.960000E+03	9.487020E-18	3.701596E-18
3.970000E+03	9.989554E-18	3.915851E-18
3.980000E+03	1.052303E-17	4.141054E-18
3.990000E+03	1.108408E-17	4.375572E-18
4.000000E+03	1.167910E-17	4.621580E-18
4.010000E+03	1.230430E-17	4.877195E-18
4.020000E+03	1.296665E-17	5.144753E-18
4.030000E+03	1.366186E-17	5.422092E-18
4.040000E+03	1.439752E-17	5.711715E-18
4.050000E+03	1.516875E-17	6.011147E-18
4.060000E+03	1.598378E-17	6.323065E-18
4.070000E+03	1.684086E-17	6.646147E-18
4.080000E+03	1.773752E-17	6.978757E-18
4.090000E+03	1.868300E-17	7.323839E-18
4.100000E+03	1.967494E-17	7.679727E-18
4.110000E+03	2.071012E-17	8.044408E-18
4.120000E+03	2.179885E-17	8.421117E-18
4.130000E+03	2.293798E-17	8.807812E-18
4.140000E+03	2.412865E-17	9.204117E-18
4.150000E+03	2.536627E-17	9.607489E-18
4.160000E+03	2.666266E-17	1.002161E-17
4.170000E+03	2.801320E-17	1.044394E-17
4.180000E+03	2.941846E-17	1.087392E-17
4.190000E+03	3.087878E-17	1.131100E-17
4.200000E+03	3.238726E-17	1.175202E-17
4.210000E+03	3.395756E-17	1.220143E-17
4.220000E+03	3.558260E-17	1.265616E-17
4.230000E+03	3.726173E-17	1.311566E-17
4.240000E+03	3.899399E-17	1.357941E-17
4.250000E+03	4.077814E-17	1.404693E-17
4.260000E+03	4.260344E-17	1.451470E-17
4.270000E+03	4.448584E-17	1.498855E-17
4.280000E+03	4.641429E-17	1.546523E-17
4.290000E+03	4.838615E-17	1.594466E-17
4.300000E+03	5.039842E-17	1.642686E-17
4.310000E+03	5.244777E-17	1.691198E-17
4.320000E+03	5.453052E-17	1.740032E-17
4.330000E+03	5.664270E-17	1.789231E-17
4.340000E+03	5.878007E-17	1.838847E-17
4.350000E+03	6.093814E-17	1.888946E-17
4.360000E+03	6.311226E-17	1.939597E-17
4.370000E+03	6.528403E-17	1.990458E-17
4.380000E+03	6.747542E-17	2.042422E-17
4.390000E+03	6.966842E-17	2.095148E-17
4.400000E+03	7.185843E-17	2.148670E-17
4.410000E+03	7.404122E-17	2.202992E-17
4.420000E+03	7.621275E-17	2.258093E-17
4.430000E+03	7.836925E-17	2.313935E-17
4.440000E+03	8.050720E-17	2.370461E-17
4.450000E+03	8.262339E-17	2.427597E-17
4.460000E+03	8.471488E-17	2.485256E-17
4.470000E+03	8.677906E-17	2.543342E-17
4.480000E+03	8.881361E-17	2.601752E-17
4.490000E+03	9.081651E-17	2.660381E-17
4.500000E+03	9.276729E-17	2.718576E-17
4.510000E+03	9.470167E-17	2.777329E-17
4.520000E+03	9.660008E-17	2.836013E-17
4.530000E+03	9.846164E-17	2.894553E-17
4.540000E+03	1.002857E-16	2.952892E-17
4.550000E+03	1.020718E-16	3.010991E-17
4.560000E+03	1.038199E-16	3.068832E-17
4.570000E+03	1.055299E-16	3.126419E-17
4.580000E+03	1.072020E-16	3.183783E-17
4.590000E+03	1.088151E-16	3.240338E-17
4.600000E+03	1.104124E-16	3.297436E-17
4.610000E+03	1.119735E-16	3.354551E-17
4.620000E+03	1.134992E-16	3.411811E-17
4.630000E+03	1.149904E-16	3.469367E-17
4.640000E+03	1.164252E-16	3.526698E-17
4.650000E+03	1.178503E-16	3.585359E-17
4.660000E+03	1.192443E-16	3.644867E-17
4.670000E+03	1.206084E-16	3.705426E-17
4.680000E+03	1.219441E-16	3.767241E-17
4.690000E+03	1.232290E-16	3.829772E-17
4.700000E+03	1.245121E-16	3.894678E-17
4.710000E+03	1.257713E-16	3.961400E-17
4.720000E+03	1.269839E-16	4.029312E-17
4.730000E+03	1.282004E-16	4.100040E-17
4.740000E+03	1.293985E-16	4.172839E-17
4.750000E+03	1.305554E-16	4.246872E-17
4.760000E+03	1.317229E-16	4.323689E-17
4.770000E+03	1.328531E-16	4.401572E-17
4.780000E+03	1.339986E-16	4.482070E-17
4.790000E+03	1.351364E-16	4.564231E-17
4.800000E+03	1.362432E-16	4.647035E-17
4.810000E+03	1.373724E-16	4.732066E-17
4.820000E+03	1.384746E-16	4.817394E-17
4.830000E+03	1.395778E-16	4.903724E-17
4.840000E+03	1.407104E-16	4.991817E-17
4.850000E+03	1.418220E-16	5.079648E-17
4.860000E+03	1.429677E-16	5.168925E-17
4.870000E+03	1.440962E-16	5.257567E-17
4.880000E+03	1.452362E-16	5.346353E-17
4.890000E+03	1.464166E-16	5.436123E-17
4.900000E+03	1.475853E-16	5.524720E-17
4.910000E+03	1.487712E-16	5.612979E-17
4.920000E+03	1.499760E-16	5.700746E-17
4.930000E+03	1.512293E-16	5.788936E-17
4.940000E+03	1.524773E-16	5.875293E-17
4.950000E+03	1.537494E-16	5.960725E-17
4.960000E+03	1.550471E-16	6.045095E-17
4.970000E+03	1.563718E-16	6.128269E-17
4.980000E+03	1.577251E-16	6.210115E-17
4.990000E+03	1.591083E-16	6.290504E-17
5.000000E+03	1.605228E-16	6.369310E-17
5.010000E+03	1.619697E-16	6.446405E-17
5.020000E+03	1.634502E-16	6.521665E-17
5.030000E+03	1.649655E-16	6.594967E-17
5.040000E+03	1.665166E-16	6.666188E-17
5.050000E+03	1.680742E-16	6.733997E-17
5.060000E+03	1.696993E-16	6.800676E-17
5.070000E+03	1.713627E-16	6.864907E-17
5.080000E+03	1.730343E-16	6.925333E-17
5.090000E+03	1.747760E-16	6.984292E-17
5.100000E+03	1.765579E-16	7.040440E-17
5.110000E+03	1.783487E-16	7.092398E-17
5.120000E+03	1.802115E-16	7.142557E-17
5.130000E+03	1.820832E-16	7.188283E-17
5.140000E+03	1.840277E-16	7.231995E-17
5.150000E+03	1.859804E-16	7.271044E-17
5.160000E+03	1.879732E-16	7.306599E-17
5.170000E+03	1.900390E-16	7.339850E-17
5.180000E+03	1.921111E-16	7.368145E-17
5.190000E+03	1.942218E-16	7.392691E-17
5.200000E+03	1.963703E-16	7.413427E-17
5.210000E+03	1.985902E-16	7.431596E-17
5.220000E+03	2.008115E-16	7.444586E-17
5.230000E+03	2.030671E-16	7.453680E-17
5.240000E+03	2.053556E-16	7.458891E-17
5.250000E+03	2.076752E-16	7.460264E-17
5.260000E+03	2.100241E-16	7.457871E-17
5.270000E+03	2.123636E-16	7.450540E-17
5.280000E+03	2.147642E-16	7.440987E-17
5.290000E+03	2.171873E-16	7.428121E-17
5.300000E+03	2.196300E-16	7.412182E-17
5.310000E+03	2.220516E-16	7.392201E-17
5.320000E+03	2.245246E-16	7.371064E-17
5.330000E+03	2.269693E-16	7.346664E-17
5.340000E+03	2.294594E-16	7.321992E-17
5.350000E+03	2.319133E-16	7.295097E-17
5.360000E+03	2.344059E-16	7.269084E-17
5.370000E+03	2.368539E-16	7.242169E-17
5.380000E+03	2.392926E-16	7.216347E-17
5.390000E+03	2.417587E-16	7.193657E-17
5.400000E+03	2.441667E-16	7.172541E-17
5.410000E+03	2.465526E-16	7.155148E-17
5.420000E+03	2.489122E-16	7.142440E-17
5.430000E+03	2.512413E-16	7.135395E-17
5.440000E+03	2.535356E-16	7.134987E-17
5.450000E+03	2.557911E-16	7.142158E-17
5.460000E+03	2.580040E-16	7.157796E-17
5.470000E+03	2.601273E-16	7.181498E-17
5.480000E+03	2.622443E-16	7.216336E-17
5.490000E+03	2.643091E-16	7.261644E-17
5.500000E+03	2.662754E-16	7.316526E-17
5.510000E+03	2.682302E-16	7.383413E-17
5.520000E+03	2.700843E-16	7.459668E-17
5.530000E+03	2.719272E-16	7.547379E-17
5.540000E+03	2.736695E-16	7.643538E-17
5.550000E+03	2.753569E-16	7.748725E-17
5.560000E+03	2.770365E-16	7.863478E-17
5.570000E+03	2.786189E-16	7.984386E-17
5.580000E+03	2.801514E-16	8.111839E-17
5.590000E+03	2.816364E-16	8.244916E-17
5.600000E+03	2.830762E-16	8.382683E-17
5.610000E+03	2.844736E-16	8.524211E-17
5.620000E+03	2.858313E-16	8.668589E-17
5.630000E+03	2.871054E-16	8.813497E-17
5.640000E+03	2.883926E-16	8.960943E-17
5.650000E+03	2.896491E-16	9.108708E-17
5.660000E+03	2.908308E-16	9.254531E-17
5.670000E+03	2.920354E-16	9.400693E-17
5.680000E+03	2.931713E-16	9.543505E-17
5.690000E+03	2.943366E-16	9.685435E-17
5.700000E+03	2.954391E-16	9.822807E-17
5.710000E+03	2.965294E-16	9.956661E-17
5.720000E+03	2.976106E-16	1.008653E-16
5.730000E+03	2.987337E-16	1.021365E-16
5.740000E+03	2.998052E-16	1.033436E-16
5.750000E+03	3.008758E-16	1.044994E-16
5.760000E+03	3.018997E-16	1.055840E-16
5.770000E+03	3.029761E-16	1.066285E-16
5.780000E+03	3.040590E-16	1.076136E-16
5.790000E+03	3.051505E-16	1.085372E-16
5.800000E+03	3.062036E-16	1.093801E-16
5.810000E+03	3.073180E-16	1.101754E-16
5.820000E+03	3.083972E-16	1.108868E-16
5.830000E+03	3.095412E-16	1.115485E-16
5.840000E+03	3.106527E-16	1.121241E-16
5.850000E+03	3.117819E-16	1.126306E-16
5.860000E+03	3.129796E-16	1.130855E-16
5.870000E+03	3.141472E-16	1.134526E-16
5.880000E+03	3.153348E-16	1.137498E-16
5.890000E+03	3.165428E-16	1.139771E-16
5.900000E+03	3.177712E-16	1.141347E-16
5.910000E+03	3.189696E-16	1.142052E-16
5.920000E+03	3.202383E-16	1.142253E-16
5.930000E+03	3.215266E-16	1.141778E-16
5.940000E+03	3.227827E-16	1.140459E-16
5.950000E+03	3.241074E-16	1.138670E-16
5.960000E+03	3.253972E-16	1.136068E-16
5.970000E+03	3.267532E-16	1.133030E-16
5.980000E+03	3.280708E-16	1.129220E-16
5.990000E+03	3.293993E-16	1.124844E-16
6.000000E+03	3.307366E-16	1.119928E-16
6.010000E+03	3.320800E-16	1.114506E-16
6.020000E+03	3.334270E-16	1.108612E-16
6.030000E+03	3.347745E-16	1.102285E-16
6.040000E+03	3.361194E-16	1.095568E-16
6.050000E+03	3.374582E-16	1.088508E-16
6.060000E+03	3.387873E-16	1.081154E-16
6.070000E+03	3.400497E-16	1.073392E-16
6.080000E+03	3.413476E-16	1.065617E-16
6.090000E+03	3.425703E-16	1.057554E-16
6.100000E+03	3.437667E-16	1.049433E-16
6.110000E+03	3.449861E-16	1.041481E-16
6.120000E+03	3.461167E-16	1.033437E-16
6.130000E+03	3.472077E-16	1.025528E-16
6.140000E+03	3.482544E-16	1.017818E-16
6.150000E+03	3.492524E-16	1.010366E-16
6.160000E+03	3.501976E-16	1.003227E-16
6.170000E+03	3.510855E-16	9.964487E-17
6.180000E+03	3.519124E-16	9.900691E-17
6.190000E+03	3.526199E-16	9.839642E-17
6.200000E+03	3.533141E-16	9.784477E-17
6.210000E+03	3.538832E-16	9.731967E-17
6.220000E+03	3.544348E-16	9.684821E-17
6.230000E+03	3.548576E-16	9.639624E-17
6.240000E+03	3.552048E-16	9.597398E-17
6.250000E+03	3.555301E-16	9.559083E-17
6.260000E+03	3.557225E-16	9.521149E-17
6.270000E+03	3.558361E-16	9.484506E-17
6.280000E+03	3.558698E-16	9.448592E-17
6.290000E+03	3.558228E-16	9.412877E-17
6.300000E+03	3.556394E-16	9.375430E-17
6.310000E+03	3.554287E-16	9.338732E-17
6.320000E+03	3.551348E-16	9.300986E-17
6.330000E+03	3.547023E-16	9.260505E-17
6.340000E+03	3.542397E-16	9.219986E-17
6.350000E+03	3.536370E-16	9.176520E-17
6.360000E+03	3.530021E-16	9.132980E-17
6.370000E+03	3.522255E-16	9.086701E-17
6.380000E+03	3.513605E-16	9.039354E-17
6.390000E+03	3.504065E-16	8.991305E-17
6.400000E+03	3.493623E-16	8.943024E-17
6.410000E+03	3.482272E-16	8.895077E-17
6.420000E+03	3.470005E-16	8.848119E-17
6.430000E+03	3.456815E-16	8.802876E-17
6.440000E+03	3.442169E-16	8.758796E-17
6.450000E+03	3.427123E-16	8.719404E-17
6.460000E+03	3.410621E-16	8.682870E-17
6.470000E+03	3.393716E-16	8.652714E-17
6.480000E+03	3.375369E-16	8.627093E-17
6.490000E+03	3.356627E-16	8.609420E-17
6.500000E+03	3.336471E-16	8.597722E-17
6.510000E+03	3.315437E-16	8.593875E-17
6.520000E+03	3.293547E-16	8.598290E-17
6.530000E+03	3.270830E-16	8.611212E-17
6.540000E+03	3.247324E-16	8.632622E-17
6.550000E+03	3.223075E-16	8.662202E-17
6.560000E+03	3.197645E-16	8.698144E-17
6.570000E+03	3.172074E-16	8.742502E-17
6.580000E+03	3.145927E-16	8.793247E-17
6.590000E+03	3.118788E-16	8.848251E-17
6.600000E+03	3.091678E-16	8.909398E-17
6.610000E+03	3.063710E-16	8.973132E-17
6.620000E+03	3.035426E-16	9.039971E-17
6.630000E+03	3.007350E-16	9.110492E-17
6.640000E+03	2.978618E-16	9.181133E-17
6.650000E+03	2.949759E-16	9.252536E-17
6.660000E+03	2.920831E-16	9.324013E-17
6.670000E+03	2.891892E-16	9.394931E-17
6.680000E+03	2.862561E-16	9.463268E-17
6.690000E+03	2.833770E-16	9.531400E-17
6.700000E+03	2.805129E-16	9.597436E-17
6.710000E+03	2.776260E-16	9.659506E-17
6.720000E+03	2.748064E-16	9.720220E-17
6.730000E+03	2.719737E-16	9.776330E-17
6.740000E+03	2.692156E-16	9.830588E-17
6.750000E+03	2.664529E-16	9.879805E-17
6.760000E+03	2.637306E-16	9.925333E-17
6.770000E+03	2.610519E-16	9.967067E-17
6.780000E+03	2.584593E-16	1.000647E-16
6.790000E+03	2.558757E-16	1.004044E-16
6.800000E+03	2.533047E-16	1.006893E-16
6.810000E+03	2.508263E-16	1.009506E-16
6.820000E+03	2.484034E-16	1.011729E-16
6.830000E+03	2.460375E-16	1.013569E-16
6.840000E+03	2.436926E-16	1.014874E-16
6.850000E+03	2.414452E-16	1.015964E-16
6.860000E+03	2.392219E-16	1.016535E-16
6.870000E+03	2.370972E-16	1.016907E-16
6.880000E+03	2.349989E-16	1.016778E-16
6.890000E+03	2.329641E-16	1.016313E-16
6.900000E+03	2.310287E-16	1.015679E-16
6.910000E+03	2.291217E-16	1.014573E-16
6.920000E+03	2.272791E-16	1.013162E-16
6.930000E+03	2.255009E-16	1.011455E-16
6.940000E+03	2.237869E-16	1.009463E-16
6.950000E+03	2.221029E-16	1.007039E-16
6.960000E+03	2.205170E-16	1.004503E-16
6.970000E+03	2.189946E-16	1.001709E-16
6.980000E+03	2.175015E-16	9.985108E-17
6.990000E+03	2.161046E-16	9.952245E-17
7.000000E+03	2.147364E-16	9.915505E-17
7.010000E+03	2.134626E-16	9.878019E-17
7.020000E+03	2.122164E-16	9.836799E-17
7.030000E+03	2.110301E-16	9.793434E-17
7.040000E+03	2.099352E-16	9.749486E-17
7.050000E+03	2.088658E-16	9.701988E-17
7.060000E+03	2.078535E-16	9.652497E-17
7.070000E+03	2.068971E-16	9.601057E-17
7.080000E+03	2.059957E-16	9.547704E-17
7.090000E+03	2.051480E-16	9.492474E-17
7.100000E+03	2.043211E-16	9.433937E-17
7.110000E+03	2.035773E-16	9.375053E-17
7.120000E+03	2.028833E-16	9.314380E-17
7.130000E+03	2.022065E-16	9.250507E-17
7.140000E+03	2.016082E-16	9.186338E-17
7.150000E+03	2.010243E-16	9.119037E-17
7.160000E+03	2.005156E-16	9.051470E-17
7.170000E+03	2.000182E-16	8.980843E-17
7.180000E+03	1.995616E-16	8.908598E-17
7.190000E+03	1.991749E-16	8.836144E-17
7.200000E+03	1.987943E-16	8.760756E-17
7.210000E+03	1.984489E-16	8.683859E-17
7.220000E+03	1.981365E-16	8.605501E-17
7.230000E+03	1.978553E-16	8.525736E-17
7.240000E+03	1.976029E-16	8.444627E-17
7.250000E+03	1.973462E-16	8.360940E-17
7.260000E+03	1.971446E-16	8.277384E-17
7.270000E+03	1.969647E-16	8.192736E-17
7.280000E+03	1.967732E-16	8.105835E-17
7.290000E+03	1.966290E-16	8.019356E-17
7.300000E+03	1.964678E-16	7.930913E-17
7.310000E+03	1.963484E-16	7.843162E-17
7.320000E+03	1.962061E-16	7.753803E-17
7.330000E+03	1.960997E-16	7.665476E-17
7.340000E+03	1.959644E-16	7.575971E-17
7.350000E+03	1.958278E-16	7.486734E-17
7.360000E+03	1.956867E-16	7.398013E-17
7.370000E+03	1.955378E-16	7.310076E-17
7.380000E+03	1.953778E-16	7.223204E-17
7.390000E+03	1.952033E-16	7.137694E-17
7.400000E+03	1.950111E-16	7.053855E-17
7.410000E+03	1.947977E-16	6.972005E-17
7.420000E+03	1.945599E-16	6.892463E-17
7.430000E+03	1.942944E-16	6.815551E-17
7.440000E+03	1.939676E-16	6.740511E-17
7.450000E+03	1.936378E-16	6.669788E-17
7.460000E+03	1.932410E-16	6.601529E-17
7.470000E+03	1.928360E-16	6.538082E-17
7.480000E+03	1.923591E-16	6.477561E-17
7.490000E+03	1.918698E-16	6.422186E-17
7.500000E+03	1.913054E-16	6.369997E-17
7.510000E+03	1.906952E-16	6.322046E-17
7.520000E+03	1.900692E-16	6.279251E-17
7.530000E+03	1.893671E-16	6.239390E-17
7.540000E+03	1.886198E-16	6.203193E-17
7.550000E+03	1.878286E-16	6.170327E-17
7.560000E+03	1.869949E-16	6.140418E-17
7.570000E+03	1.861203E-16	6.113059E-17
7.580000E+03	1.852066E-16	6.087821E-17
7.590000E+03	1.842557E-16	6.064266E-17
7.600000E+03	1.832403E-16	6.040980E-17
7.610000E+03	1.822215E-16	6.019475E-17
7.620000E+03	1.811719E-16	5.998356E-17
7.630000E+03	1.800935E-16	5.977221E-17
7.640000E+03	1.789596E-16	5.954730E-17
7.650000E+03	1.778302E-16	5.932458E-17
7.660000E+03	1.766495E-16	5.908165E-17
7.670000E+03	1.754767E-16	5.883477E-17
7.680000E+03	1.742566E-16	5.856230E-17
7.690000E+03	1.730193E-16	5.827157E-17
7.700000E+03	1.717943E-16	5.797015E-17
7.710000E+03	1.705270E-16	5.763761E-17
7.720000E+03	1.692466E-16	5.728221E-17
7.730000E+03	1.679543E-16	5.690307E-17
7.740000E+03	1.666510E-16	5.649962E-17
7.750000E+03	1.653374E-16	5.607160E-17
7.760000E+03	1.640143E-16	5.561906E-17
