#wls	flux	fluxerr
1.587349E+03	1.853307E-04	6.065953E-06
1.627033E+03	1.798839E-04	5.831804E-06
1.666716E+03	1.747524E-04	5.609996E-06
1.706400E+03	1.700074E-04	5.402587E-06
1.746084E+03	1.656884E-04	5.210520E-06
1.785767E+03	1.618679E-04	5.035708E-06
1.825451E+03	1.585603E-04	4.878156E-06
1.865135E+03	1.558724E-04	4.740640E-06
1.904819E+03	1.538234E-04	4.623136E-06
1.944502E+03	1.525204E-04	4.528165E-06
1.984186E+03	1.520099E-04	4.456296E-06
2.023870E+03	1.523331E-04	4.407837E-06
2.063553E+03	1.535479E-04	4.383481E-06
2.103237E+03	1.556684E-04	4.382557E-06
2.142921E+03	1.587168E-04	4.404564E-06
2.182605E+03	1.626944E-04	4.448347E-06
2.222288E+03	1.674928E-04	4.509766E-06
2.261972E+03	1.731230E-04	4.587987E-06
2.301656E+03	1.793899E-04	4.676753E-06
2.341340E+03	1.862095E-04	4.772965E-06
2.381023E+03	1.933585E-04	4.870144E-06
2.420707E+03	2.005491E-04	4.960604E-06
2.460391E+03	2.075186E-04	5.037789E-06
2.500074E+03	2.137715E-04	5.090101E-06
2.539758E+03	2.189460E-04	5.110016E-06
2.579442E+03	2.226670E-04	5.090442E-06
2.619126E+03	2.246621E-04	5.027360E-06
2.658809E+03	2.250522E-04	4.925959E-06
2.698493E+03	2.241092E-04	4.794495E-06
2.738177E+03	2.222992E-04	4.644798E-06
2.777860E+03	2.201089E-04	4.488232E-06
2.817544E+03	2.180365E-04	4.335433E-06
2.857228E+03	2.165607E-04	4.195670E-06
2.896912E+03	2.160318E-04	4.074823E-06
2.936595E+03	2.168921E-04	3.979757E-06
2.976279E+03	2.195843E-04	3.916458E-06
2.986200E+03	2.205920E-04	3.906155E-06
2.996121E+03	2.217342E-04	3.897976E-06
3.006042E+03	2.230720E-04	3.892944E-06
3.015963E+03	2.245595E-04	3.890192E-06
3.025884E+03	2.262318E-04	3.890274E-06
3.035805E+03	2.280978E-04	3.893276E-06
3.045726E+03	2.301396E-04	3.898825E-06
3.055646E+03	2.324210E-04	3.907938E-06
3.065567E+03	2.348980E-04	3.919796E-06
3.075488E+03	2.376361E-04	3.935415E-06
3.085409E+03	2.405921E-04	3.953998E-06
3.095330E+03	2.438333E-04	3.976568E-06
3.105251E+03	2.473455E-04	4.002801E-06
3.115172E+03	2.511423E-04	4.032822E-06
3.125093E+03	2.552384E-04	4.066773E-06
3.135014E+03	2.596782E-04	4.105257E-06
3.144935E+03	2.644788E-04	4.148430E-06
3.154856E+03	2.696291E-04	4.196001E-06
3.164777E+03	2.751472E-04	4.248142E-06
3.174698E+03	2.811128E-04	4.305956E-06
3.184619E+03	2.874870E-04	4.368710E-06
3.194540E+03	2.943222E-04	4.437070E-06
3.204460E+03	3.016413E-04	4.511239E-06
3.214381E+03	3.095009E-04	4.591914E-06
3.224302E+03	3.178950E-04	4.678841E-06
3.234223E+03	3.268492E-04	4.772245E-06
3.244144E+03	3.363901E-04	4.872350E-06
3.254065E+03	3.466140E-04	4.980381E-06
3.263986E+03	3.574811E-04	5.095576E-06
3.273907E+03	3.690546E-04	5.218665E-06
3.283828E+03	3.813636E-04	5.349869E-06
3.293749E+03	3.944747E-04	5.489934E-06
3.303670E+03	4.083788E-04	5.638533E-06
3.313591E+03	4.231017E-04	5.795834E-06
3.323512E+03	4.387088E-04	5.962543E-06
3.333433E+03	4.552248E-04	6.138797E-06
3.343353E+03	4.727151E-04	6.325285E-06
3.353274E+03	4.911118E-04	6.520906E-06
3.363195E+03	5.105176E-04	6.726852E-06
3.373116E+03	5.309456E-04	6.943117E-06
3.383037E+03	5.523547E-04	7.169000E-06
3.392958E+03	5.748423E-04	7.405622E-06
3.402879E+03	5.983550E-04	7.652152E-06
3.412800E+03	6.228785E-04	7.908294E-06
3.422721E+03	6.484966E-04	8.175020E-06
3.432642E+03	6.750696E-04	8.450488E-06
3.442563E+03	7.026032E-04	8.734736E-06
3.452484E+03	7.310315E-04	9.026940E-06
3.462405E+03	7.603259E-04	9.326773E-06
3.472326E+03	7.903728E-04	9.632907E-06
3.482246E+03	8.210228E-04	9.943635E-06
3.492167E+03	8.520819E-04	1.025678E-05
3.502088E+03	8.833039E-04	1.056961E-05
3.512009E+03	9.144501E-04	1.087958E-05
3.521930E+03	9.450877E-04	1.118190E-05
3.531851E+03	9.749323E-04	1.147367E-05
3.541772E+03	1.003396E-03	1.174849E-05
3.551693E+03	1.030186E-03	1.200354E-05
3.561614E+03	1.054909E-03	1.223484E-05
3.571535E+03	1.077512E-03	1.244244E-05
3.581456E+03	1.098049E-03	1.262760E-05
3.591377E+03	1.116931E-03	1.279558E-05
3.601298E+03	1.134625E-03	1.295220E-05
3.611219E+03	1.151665E-03	1.310395E-05
3.621140E+03	1.168672E-03	1.325819E-05
3.631060E+03	1.186049E-03	1.341974E-05
3.640981E+03	1.204466E-03	1.359640E-05
3.650902E+03	1.224354E-03	1.379322E-05
3.660823E+03	1.246271E-03	1.401665E-05
3.670744E+03	1.270614E-03	1.427130E-05
3.680665E+03	1.297842E-03	1.456244E-05
3.690586E+03	1.328479E-03	1.489609E-05
3.700507E+03	1.362978E-03	1.527752E-05
3.710428E+03	1.401796E-03	1.571209E-05
3.720349E+03	1.445322E-03	1.620449E-05
3.730270E+03	1.494020E-03	1.676034E-05
3.740191E+03	1.548430E-03	1.738620E-05
3.750112E+03	1.609015E-03	1.808789E-05
3.760033E+03	1.676231E-03	1.887129E-05
3.769953E+03	1.750355E-03	1.974036E-05
3.779874E+03	1.832014E-03	2.070318E-05
3.789795E+03	1.921307E-03	2.176200E-05
3.799716E+03	2.018660E-03	2.292289E-05
3.809637E+03	2.124237E-03	2.418911E-05
3.819558E+03	2.237895E-03	2.556056E-05
3.829479E+03	2.359596E-03	2.703838E-05
3.839400E+03	2.489128E-03	2.862182E-05
3.849321E+03	2.625786E-03	3.030452E-05
3.859242E+03	2.768826E-03	3.207952E-05
3.869163E+03	2.917475E-03	3.393957E-05
3.879084E+03	3.070210E-03	3.586846E-05
3.889005E+03	3.225811E-03	3.785327E-05
3.898926E+03	3.382541E-03	3.987475E-05
3.908846E+03	3.538615E-03	4.191266E-05
3.918767E+03	3.692024E-03	4.394366E-05
3.928688E+03	3.840958E-03	4.594626E-05
3.938609E+03	3.983384E-03	4.789575E-05
3.948530E+03	4.117616E-03	4.977102E-05
3.958451E+03	4.241736E-03	5.154762E-05
3.968372E+03	4.354297E-03	5.320617E-05
3.978293E+03	4.454245E-03	5.473167E-05
3.988214E+03	4.540559E-03	5.610905E-05
3.998135E+03	4.612666E-03	5.732842E-05
4.008056E+03	4.670313E-03	5.838356E-05
4.017977E+03	4.713431E-03	5.927040E-05
4.027898E+03	4.742505E-03	5.999172E-05
4.037819E+03	4.757903E-03	6.054887E-05
4.047740E+03	4.760488E-03	6.094954E-05
4.057660E+03	4.751436E-03	6.120563E-05
4.067581E+03	4.731947E-03	6.132970E-05
4.077502E+03	4.703095E-03	6.133293E-05
4.087423E+03	4.666272E-03	6.123102E-05
4.097344E+03	4.623006E-03	6.104189E-05
4.107265E+03	4.574596E-03	6.078086E-05
4.117186E+03	4.522310E-03	6.046331E-05
4.127107E+03	4.467569E-03	6.010703E-05
4.137028E+03	4.411591E-03	5.972763E-05
4.146949E+03	4.355293E-03	5.933697E-05
4.156870E+03	4.299772E-03	5.894973E-05
4.166791E+03	4.245889E-03	5.857773E-05
4.176712E+03	4.194186E-03	5.822867E-05
4.186633E+03	4.145427E-03	5.791360E-05
4.196553E+03	4.099966E-03	5.763801E-05
4.206474E+03	4.058027E-03	5.740579E-05
4.216395E+03	4.019882E-03	5.722153E-05
4.226316E+03	3.985449E-03	5.708491E-05
4.236237E+03	3.954870E-03	5.699881E-05
4.246158E+03	3.927904E-03	5.696063E-05
4.256079E+03	3.904416E-03	5.696925E-05
4.266000E+03	3.884320E-03	5.702421E-05
4.275921E+03	3.867379E-03	5.712282E-05
4.285842E+03	3.853459E-03	5.726382E-05
4.295763E+03	3.842473E-03	5.744664E-05
4.305684E+03	3.834330E-03	5.767064E-05
4.315605E+03	3.829098E-03	5.793750E-05
4.325526E+03	3.826930E-03	5.825027E-05
4.335446E+03	3.828127E-03	5.861432E-05
4.345367E+03	3.832797E-03	5.903216E-05
4.355288E+03	3.841503E-03	5.951337E-05
4.365209E+03	3.854535E-03	6.006352E-05
4.375130E+03	3.872287E-03	6.068990E-05
4.385051E+03	3.895347E-03	6.140299E-05
4.394972E+03	3.924031E-03	6.220915E-05
4.404893E+03	3.958802E-03	6.311728E-05
4.414814E+03	4.000013E-03	6.413458E-05
4.424735E+03	4.047868E-03	6.526604E-05
4.434656E+03	4.102479E-03	6.651516E-05
4.444577E+03	4.164019E-03	6.788654E-05
4.454498E+03	4.232271E-03	6.937837E-05
4.464419E+03	4.306986E-03	7.098827E-05
4.474340E+03	4.387817E-03	7.271215E-05
4.484260E+03	4.474050E-03	7.453964E-05
4.494181E+03	4.565070E-03	7.646179E-05
4.504102E+03	4.659777E-03	7.846124E-05
4.514023E+03	4.757326E-03	8.052457E-05
4.523944E+03	4.856355E-03	8.262926E-05
4.533865E+03	4.955690E-03	8.475549E-05
4.543786E+03	5.053965E-03	8.687974E-05
4.553707E+03	5.149943E-03	8.898029E-05
4.563628E+03	5.242358E-03	9.103437E-05
4.573549E+03	5.329870E-03	9.301761E-05
4.583470E+03	5.411476E-03	9.491100E-05
4.593391E+03	5.486186E-03	9.669546E-05
4.603312E+03	5.553341E-03	9.835744E-05
4.613233E+03	5.612280E-03	9.988314E-05
4.623153E+03	5.662859E-03	1.012678E-04
4.633074E+03	5.704874E-03	1.025055E-04
4.642995E+03	5.738491E-03	1.035970E-04
4.652916E+03	5.764162E-03	1.045482E-04
4.662837E+03	5.782377E-03	1.053662E-04
4.672758E+03	5.793861E-03	1.060622E-04
4.682679E+03	5.799479E-03	1.066504E-04
4.692600E+03	5.800227E-03	1.071477E-04
4.702521E+03	5.797123E-03	1.075717E-04
4.712442E+03	5.791417E-03	1.079449E-04
4.722363E+03	5.784163E-03	1.082863E-04
4.732284E+03	5.776239E-03	1.086119E-04
4.742205E+03	5.768531E-03	1.089385E-04
4.752126E+03	5.761702E-03	1.092785E-04
4.762046E+03	5.756261E-03	1.096420E-04
4.771967E+03	5.752560E-03	1.100359E-04
4.781888E+03	5.750812E-03	1.104649E-04
4.791809E+03	5.751174E-03	1.109324E-04
4.801730E+03	5.753488E-03	1.114359E-04
4.811651E+03	5.757652E-03	1.119738E-04
4.821572E+03	5.763622E-03	1.125458E-04
4.831493E+03	5.771035E-03	1.131450E-04
4.841414E+03	5.779618E-03	1.137666E-04
4.851335E+03	5.789201E-03	1.144073E-04
4.861256E+03	5.799389E-03	1.150596E-04
4.871177E+03	5.809840E-03	1.157167E-04
4.881098E+03	5.820266E-03	1.163730E-04
4.891019E+03	5.830252E-03	1.170200E-04
4.900940E+03	5.839533E-03	1.176523E-04
4.910860E+03	5.847876E-03	1.182650E-04
4.920781E+03	5.854972E-03	1.188516E-04
4.930702E+03	5.860719E-03	1.194097E-04
4.940623E+03	5.864977E-03	1.199363E-04
4.950544E+03	5.867921E-03	1.204344E-04
4.960465E+03	5.869714E-03	1.209071E-04
4.970386E+03	5.870581E-03	1.213589E-04
4.980307E+03	5.870999E-03	1.217995E-04
4.990228E+03	5.871545E-03	1.222406E-04
5.000149E+03	5.872683E-03	1.226922E-04
5.010070E+03	5.875248E-03	1.231718E-04
5.019991E+03	5.879772E-03	1.236908E-04
5.029912E+03	5.886958E-03	1.242647E-04
5.039833E+03	5.897406E-03	1.249065E-04
5.049753E+03	5.911639E-03	1.256282E-04
5.059674E+03	5.930153E-03	1.264412E-04
5.069595E+03	5.953222E-03	1.273521E-04
5.079516E+03	5.981145E-03	1.283683E-04
5.089437E+03	6.014055E-03	1.294938E-04
5.099358E+03	6.051933E-03	1.307291E-04
5.109279E+03	6.094874E-03	1.320773E-04
5.119200E+03	6.142716E-03	1.335358E-04
5.129121E+03	6.195311E-03	1.351025E-04
5.139042E+03	6.252469E-03	1.367740E-04
5.148963E+03	6.314036E-03	1.385479E-04
5.158884E+03	6.379637E-03	1.404169E-04
5.168805E+03	6.449212E-03	1.423803E-04
5.178726E+03	6.522344E-03	1.444296E-04
5.188646E+03	6.598735E-03	1.465589E-04
5.198567E+03	6.678129E-03	1.487631E-04
5.208488E+03	6.760182E-03	1.510350E-04
5.218409E+03	6.844449E-03	1.533652E-04
5.228330E+03	6.930595E-03	1.557464E-04
5.238251E+03	7.018115E-03	1.581677E-04
5.248172E+03	7.106688E-03	1.606219E-04
5.258093E+03	7.195682E-03	1.630948E-04
5.268014E+03	7.284584E-03	1.655750E-04
5.277935E+03	7.373022E-03	1.680537E-04
5.287856E+03	7.460317E-03	1.705154E-04
5.297777E+03	7.546026E-03	1.729496E-04
5.307698E+03	7.629565E-03	1.753425E-04
5.317619E+03	7.710531E-03	1.776845E-04
5.327540E+03	7.788555E-03	1.799664E-04
5.337460E+03	7.862991E-03	1.821729E-04
5.347381E+03	7.933707E-03	1.842999E-04
5.357302E+03	8.000209E-03	1.863355E-04
5.367223E+03	8.062351E-03	1.882753E-04
5.377144E+03	8.119603E-03	1.901062E-04
5.387065E+03	8.171920E-03	1.918262E-04
5.396986E+03	8.218918E-03	1.934253E-04
5.406907E+03	8.260185E-03	1.948928E-04
5.416828E+03	8.295446E-03	1.962212E-04
5.426749E+03	8.324336E-03	1.974006E-04
5.436670E+03	8.346444E-03	1.984203E-04
5.446591E+03	8.361634E-03	1.992756E-04
5.456512E+03	8.369880E-03	1.999647E-04
5.466433E+03	8.371373E-03	2.004910E-04
5.476353E+03	8.366570E-03	2.008642E-04
5.486274E+03	8.355781E-03	2.010908E-04
5.496195E+03	8.339687E-03	2.011860E-04
5.506116E+03	8.318798E-03	2.011614E-04
5.516037E+03	8.293436E-03	2.010239E-04
5.525958E+03	8.264235E-03	2.007881E-04
5.535879E+03	8.231566E-03	2.004626E-04
5.545800E+03	8.195879E-03	2.000576E-04
5.555721E+03	8.157638E-03	1.995841E-04
5.565642E+03	8.117398E-03	1.990553E-04
5.575563E+03	8.075585E-03	1.984813E-04
5.585484E+03	8.032814E-03	1.978771E-04
5.595405E+03	7.989583E-03	1.972548E-04
5.605326E+03	7.946582E-03	1.966315E-04
5.615246E+03	7.904398E-03	1.960218E-04
5.625167E+03	7.863731E-03	1.954432E-04
5.635088E+03	7.825402E-03	1.949167E-04
5.645009E+03	7.790193E-03	1.944619E-04
5.654930E+03	7.758754E-03	1.940958E-04
5.664851E+03	7.732052E-03	1.938433E-04
5.674772E+03	7.710819E-03	1.937235E-04
5.684693E+03	7.695915E-03	1.937589E-04
5.694614E+03	7.687916E-03	1.939653E-04
5.704535E+03	7.687634E-03	1.943641E-04
5.714456E+03	7.695549E-03	1.949688E-04
5.724377E+03	7.712110E-03	1.957921E-04
5.734298E+03	7.737550E-03	1.968413E-04
5.744219E+03	7.772189E-03	1.981260E-04
5.754140E+03	7.815899E-03	1.996442E-04
5.764060E+03	7.868626E-03	2.013960E-04
5.773981E+03	7.930032E-03	2.033741E-04
5.783902E+03	7.999803E-03	2.055717E-04
5.793823E+03	8.077362E-03	2.079754E-04
5.803744E+03	8.162200E-03	2.105729E-04
5.813665E+03	8.253510E-03	2.133447E-04
5.823586E+03	8.350761E-03	2.162778E-04
5.833507E+03	8.453082E-03	2.193506E-04
5.843428E+03	8.559854E-03	2.225477E-04
5.853349E+03	8.670400E-03	2.258520E-04
5.863270E+03	8.784000E-03	2.292452E-04
5.873191E+03	8.900155E-03	2.327149E-04
5.883112E+03	9.018167E-03	2.362429E-04
5.893033E+03	9.137744E-03	2.398219E-04
5.902953E+03	9.258302E-03	2.434367E-04
5.912874E+03	9.379567E-03	2.470803E-04
5.922795E+03	9.501120E-03	2.507415E-04
5.932716E+03	9.622642E-03	2.544120E-04
5.942637E+03	9.743804E-03	2.580831E-04
5.952558E+03	9.864232E-03	2.617447E-04
5.962479E+03	9.983378E-03	2.653821E-04
5.972400E+03	1.010068E-02	2.689802E-04
5.982321E+03	1.021541E-02	2.725194E-04
5.992242E+03	1.032667E-02	2.759749E-04
6.002163E+03	1.043320E-02	2.793130E-04
6.012084E+03	1.053361E-02	2.824954E-04
6.022005E+03	1.062620E-02	2.854756E-04
6.031926E+03	1.070889E-02	2.881968E-04
6.041846E+03	1.077944E-02	2.905969E-04
6.051767E+03	1.083524E-02	2.926040E-04
6.061688E+03	1.087377E-02	2.941475E-04
6.071609E+03	1.089209E-02	2.951459E-04
6.081530E+03	1.088780E-02	2.955308E-04
6.091451E+03	1.085829E-02	2.952286E-04
6.101372E+03	1.080171E-02	2.941851E-04
6.111293E+03	1.071665E-02	2.923586E-04
6.121214E+03	1.060244E-02	2.897267E-04
6.131135E+03	1.045943E-02	2.862949E-04
6.141056E+03	1.028867E-02	2.820885E-04
6.150977E+03	1.009210E-02	2.771568E-04
6.160898E+03	9.872799E-03	2.715812E-04
6.170819E+03	9.634714E-03	2.654674E-04
6.180740E+03	9.382226E-03	2.589339E-04
6.190660E+03	9.120132E-03	2.521114E-04
6.200581E+03	8.853450E-03	2.451375E-04
6.210502E+03	8.586948E-03	2.381439E-04
6.220423E+03	8.325406E-03	2.312634E-04
6.230344E+03	8.072955E-03	2.246118E-04
6.240265E+03	7.833388E-03	2.182959E-04
6.250186E+03	7.609928E-03	2.124076E-04
6.260107E+03	7.405133E-03	2.070204E-04
6.270028E+03	7.221045E-03	2.021943E-04
6.279949E+03	7.059005E-03	1.979695E-04
6.289870E+03	6.920127E-03	1.943802E-04
6.299791E+03	6.804691E-03	1.914376E-04
6.309712E+03	6.712905E-03	1.891506E-04
6.319633E+03	6.644255E-03	1.875077E-04
6.329553E+03	6.598094E-03	1.864938E-04
6.339474E+03	6.573531E-03	1.860866E-04
6.349395E+03	6.569209E-03	1.862505E-04
6.359316E+03	6.583660E-03	1.869464E-04
6.369237E+03	6.615139E-03	1.881271E-04
6.379158E+03	6.661795E-03	1.897422E-04
6.389079E+03	6.721571E-03	1.917348E-04
6.399000E+03	6.792389E-03	1.940473E-04
6.408921E+03	6.871982E-03	1.966163E-04
6.418842E+03	6.958232E-03	1.993821E-04
6.428763E+03	7.049005E-03	2.022843E-04
6.438684E+03	7.142199E-03	2.052631E-04
6.448605E+03	7.236079E-03	2.082688E-04
6.458526E+03	7.328864E-03	2.112501E-04
6.468446E+03	7.419204E-03	2.141679E-04
6.478367E+03	7.505724E-03	2.169821E-04
6.488288E+03	7.587414E-03	2.196629E-04
6.498209E+03	7.663374E-03	2.221836E-04
6.508130E+03	7.732885E-03	2.245226E-04
6.518051E+03	7.795458E-03	2.266648E-04
6.527972E+03	7.850659E-03	2.285967E-04
6.537893E+03	7.898070E-03	2.303052E-04
6.547814E+03	7.937536E-03	2.317847E-04
6.557735E+03	7.968982E-03	2.330321E-04
6.567656E+03	7.992138E-03	2.340385E-04
6.577577E+03	8.007147E-03	2.348070E-04
6.587498E+03	8.014038E-03	2.353374E-04
6.597419E+03	8.012899E-03	2.356314E-04
6.607340E+03	8.003874E-03	2.356922E-04
6.617260E+03	7.987168E-03	2.355250E-04
6.627181E+03	7.963049E-03	2.351365E-04
6.637102E+03	7.931925E-03	2.345382E-04
6.647023E+03	7.894170E-03	2.337402E-04
6.656944E+03	7.850124E-03	2.327518E-04
6.666865E+03	7.800436E-03	2.315915E-04
6.676786E+03	7.745536E-03	2.302715E-04
6.686707E+03	7.685977E-03	2.288076E-04
6.696628E+03	7.622437E-03	2.272195E-04
6.706549E+03	7.555535E-03	2.255252E-04
6.716470E+03	7.485833E-03	2.237412E-04
6.726391E+03	7.414083E-03	2.218897E-04
6.736312E+03	7.340971E-03	2.199909E-04
6.746233E+03	7.267193E-03	2.180657E-04
6.756153E+03	7.193537E-03	2.161376E-04
6.766074E+03	7.120614E-03	2.142252E-04
6.775995E+03	7.049118E-03	2.123494E-04
6.785916E+03	6.979723E-03	2.105308E-04
6.795837E+03	6.913159E-03	2.087917E-04
6.805758E+03	6.850038E-03	2.071509E-04
6.815679E+03	6.790851E-03	2.056237E-04
6.825600E+03	6.736197E-03	2.042289E-04
6.835521E+03	6.686533E-03	2.029807E-04
6.845442E+03	6.642166E-03	2.018892E-04
6.855363E+03	6.603486E-03	2.009669E-04
6.865284E+03	6.570723E-03	2.002213E-04
6.875205E+03	6.543934E-03	1.996551E-04
6.885126E+03	6.523250E-03	1.992728E-04
6.895046E+03	6.508634E-03	1.990741E-04
6.904967E+03	6.499963E-03	1.990559E-04
6.914888E+03	6.497035E-03	1.992127E-04
6.924809E+03	6.499505E-03	1.995346E-04
6.934730E+03	6.507053E-03	2.000124E-04
6.944651E+03	6.519477E-03	2.006404E-04
6.954572E+03	6.536233E-03	2.014025E-04
6.964493E+03	6.556936E-03	2.022872E-04
6.974414E+03	6.581207E-03	2.032834E-04
6.984335E+03	6.608774E-03	2.043830E-04
6.994256E+03	6.639245E-03	2.055743E-04
7.004177E+03	6.672355E-03	2.068495E-04
7.014098E+03	6.707901E-03	2.082024E-04
7.024019E+03	6.745741E-03	2.096290E-04
7.033940E+03	6.785794E-03	2.111271E-04
7.043860E+03	6.827963E-03	2.126939E-04
7.053781E+03	6.872290E-03	2.143309E-04
7.063702E+03	6.918956E-03	2.160441E-04
7.073623E+03	6.967929E-03	2.178327E-04
7.083544E+03	7.019552E-03	2.197078E-04
7.093465E+03	7.073843E-03	2.216702E-04
7.103386E+03	7.131004E-03	2.237266E-04
7.113307E+03	7.191223E-03	2.258832E-04
7.123228E+03	7.254764E-03	2.281488E-04
7.133149E+03	7.321584E-03	2.305222E-04
7.143070E+03	7.391781E-03	2.330071E-04
7.152991E+03	7.465386E-03	2.356048E-04
7.162912E+03	7.542373E-03	2.383149E-04
7.172833E+03	7.622549E-03	2.411316E-04
7.182753E+03	7.705733E-03	2.440497E-04
7.192674E+03	7.791665E-03	2.470612E-04
7.202595E+03	7.879999E-03	2.501555E-04
7.212516E+03	7.970111E-03	2.533132E-04
7.222437E+03	8.061483E-03	2.565178E-04
7.232358E+03	8.153620E-03	2.597539E-04
7.242279E+03	8.245648E-03	2.629938E-04
7.252200E+03	8.336833E-03	2.662138E-04
7.262121E+03	8.426379E-03	2.693887E-04
7.272042E+03	8.513452E-03	2.724915E-04
7.281963E+03	8.596970E-03	2.754874E-04
7.291884E+03	8.676059E-03	2.783479E-04
7.301805E+03	8.749849E-03	2.810447E-04
7.311726E+03	8.817506E-03	2.835503E-04
7.321646E+03	8.878133E-03	2.858353E-04
7.331567E+03	8.930904E-03	2.878723E-04
7.341488E+03	8.975196E-03	2.896403E-04
7.351409E+03	9.010495E-03	2.911219E-04
7.361330E+03	9.036418E-03	2.923036E-04
7.371251E+03	9.052602E-03	2.931726E-04
7.381172E+03	9.058840E-03	2.937212E-04
7.391093E+03	9.055422E-03	2.939577E-04
7.401014E+03	9.042455E-03	2.938845E-04
7.410935E+03	9.020439E-03	2.935167E-04
7.420856E+03	8.989891E-03	2.928703E-04
7.430777E+03	8.951432E-03	2.919645E-04
7.440698E+03	8.905860E-03	2.908244E-04
7.450619E+03	8.853886E-03	2.894726E-04
7.460540E+03	8.796253E-03	2.879326E-04
7.470460E+03	8.733837E-03	2.862323E-04
7.480381E+03	8.667370E-03	2.843955E-04
7.490302E+03	8.597663E-03	2.824481E-04
7.500223E+03	8.525270E-03	2.804081E-04
7.510144E+03	8.451056E-03	2.783036E-04
7.520065E+03	8.375524E-03	2.761509E-04
7.529986E+03	8.299357E-03	2.739723E-04
7.539907E+03	8.223071E-03	2.717849E-04
7.549828E+03	8.147229E-03	2.696071E-04
7.559749E+03	8.072107E-03	2.674480E-04
7.569670E+03	7.998010E-03	2.653179E-04
7.579591E+03	7.925379E-03	2.632314E-04
7.589512E+03	7.854269E-03	2.611904E-04
7.599433E+03	7.784870E-03	2.592016E-04
7.609353E+03	7.717010E-03	2.572592E-04
7.619274E+03	7.650966E-03	2.553726E-04
7.629195E+03	7.586461E-03	2.535329E-04
7.639116E+03	7.523479E-03	2.517395E-04
7.649037E+03	7.461867E-03	2.499876E-04
7.658958E+03	7.401345E-03	2.482678E-04
7.668879E+03	7.341905E-03	2.465800E-04
7.678800E+03	7.283129E-03	2.449102E-04
7.688721E+03	7.224977E-03	2.432571E-04
7.698642E+03	7.167012E-03	2.416060E-04
