#wls	flux	fluxerr
1.587349E+03	-2.047108E-05	-7.082387E-07
1.627033E+03	-2.056211E-05	-7.053272E-07
1.666716E+03	-2.061428E-05	-7.009054E-07
1.706400E+03	-2.062996E-05	-6.950850E-07
1.746084E+03	-2.061125E-05	-6.879683E-07
1.785767E+03	-2.056370E-05	-6.797693E-07
1.825451E+03	-2.048478E-05	-6.704332E-07
1.865135E+03	-2.037893E-05	-6.601341E-07
1.904819E+03	-2.024606E-05	-6.488974E-07
1.944502E+03	-2.008528E-05	-6.367241E-07
1.984186E+03	-1.989485E-05	-6.235914E-07
2.023870E+03	-1.967563E-05	-6.095602E-07
2.063553E+03	-1.942393E-05	-5.945533E-07
2.103237E+03	-1.913529E-05	-5.784761E-07
2.142921E+03	-1.880785E-05	-5.613216E-07
2.182605E+03	-1.843278E-05	-5.428805E-07
2.222288E+03	-1.801073E-05	-5.232364E-07
2.261972E+03	-1.753312E-05	-5.022091E-07
2.301656E+03	-1.699836E-05	-4.798323E-07
2.341340E+03	-1.640580E-05	-4.561713E-07
2.381023E+03	-1.575365E-05	-4.312640E-07
2.420707E+03	-1.504254E-05	-4.052188E-07
2.460391E+03	-1.427805E-05	-3.782780E-07
2.500074E+03	-1.346802E-05	-3.507345E-07
2.539758E+03	-1.262055E-05	-3.228752E-07
2.579442E+03	-1.174957E-05	-2.951214E-07
2.619126E+03	-1.086640E-05	-2.678047E-07
2.658809E+03	-9.984851E-06	-2.412953E-07
2.698493E+03	-9.118323E-06	-2.159280E-07
2.738177E+03	-8.280181E-06	-1.920092E-07
2.777860E+03	-7.480497E-06	-1.697432E-07
2.817544E+03	-6.726324E-06	-1.492453E-07
2.857228E+03	-6.025064E-06	-1.306223E-07
2.896912E+03	-5.380262E-06	-1.138815E-07
2.936595E+03	-4.793012E-06	-9.897023E-08
2.976279E+03	-4.261850E-06	-8.577960E-08
2.986200E+03	-4.137462E-06	-8.273434E-08
2.996121E+03	-4.016543E-06	-7.978975E-08
3.006042E+03	-3.899003E-06	-7.694285E-08
3.015963E+03	-3.784756E-06	-7.419071E-08
3.025884E+03	-3.673315E-06	-7.152262E-08
3.035805E+03	-3.565389E-06	-6.895134E-08
3.045726E+03	-3.460118E-06	-6.645898E-08
3.055646E+03	-3.357799E-06	-6.405031E-08
3.065567E+03	-3.258670E-06	-6.172869E-08
3.075488E+03	-3.161951E-06	-5.947830E-08
3.085409E+03	-3.068206E-06	-5.730876E-08
3.095330E+03	-2.977000E-06	-5.521093E-08
3.105251E+03	-2.888239E-06	-5.318206E-08
3.115172E+03	-2.801818E-06	-5.121937E-08
3.125093E+03	-2.717905E-06	-4.932503E-08
3.135014E+03	-2.636113E-06	-4.749110E-08
3.144935E+03	-2.556339E-06	-4.571493E-08
3.154856E+03	-2.478712E-06	-4.399807E-08
3.164777E+03	-2.403096E-06	-4.233731E-08
3.174698E+03	-2.329140E-06	-4.072573E-08
3.184619E+03	-2.256941E-06	-3.916439E-08
3.194540E+03	-2.186357E-06	-3.765017E-08
3.204460E+03	-2.117244E-06	-3.617999E-08
3.214381E+03	-2.049274E-06	-3.474773E-08
3.224302E+03	-1.982491E-06	-3.335368E-08
3.234223E+03	-1.916901E-06	-3.199749E-08
3.244144E+03	-1.852001E-06	-3.067037E-08
3.254065E+03	-1.787935E-06	-2.937442E-08
3.263986E+03	-1.724356E-06	-2.810363E-08
3.273907E+03	-1.661200E-06	-2.685678E-08
3.283828E+03	-1.597975E-06	-2.562582E-08
3.293749E+03	-1.534838E-06	-2.441323E-08
3.303670E+03	-1.471147E-06	-2.320886E-08
3.313591E+03	-1.406972E-06	-2.201398E-08
3.323512E+03	-1.341763E-06	-2.082021E-08
3.333433E+03	-1.275275E-06	-1.962414E-08
3.343353E+03	-1.207106E-06	-1.842009E-08
3.353274E+03	-1.136807E-06	-1.720187E-08
3.363195E+03	-1.063875E-06	-1.596265E-08
3.373116E+03	-9.878086E-07	-1.469593E-08
3.383037E+03	-9.078104E-07	-1.339103E-08
3.392958E+03	-8.232757E-07	-1.204050E-08
3.402879E+03	-7.333338E-07	-1.063330E-08
3.412800E+03	-6.369429E-07	-9.156339E-09
3.422721E+03	-5.330094E-07	-7.596262E-09
3.432642E+03	-4.201725E-07	-5.936443E-09
3.442563E+03	-2.969469E-07	-4.159126E-09
3.452484E+03	-1.614785E-07	-2.242100E-09
3.462405E+03	-1.168037E-08	-1.607709E-10
3.472326E+03	1.549562E-07	2.114296E-09
3.482246E+03	3.413703E-07	4.617268E-09
3.492167E+03	5.510792E-07	7.388804E-09
3.502088E+03	7.882709E-07	1.047699E-08
3.512009E+03	1.057889E-06	1.393810E-08
3.521930E+03	1.365969E-06	1.784063E-08
3.531851E+03	1.719735E-06	2.226602E-08
3.541772E+03	2.127908E-06	2.731199E-08
3.551693E+03	2.601024E-06	3.309590E-08
3.561614E+03	3.151979E-06	3.976073E-08
3.571535E+03	3.795750E-06	4.747059E-08
3.581456E+03	4.549780E-06	5.641445E-08
3.591377E+03	5.435029E-06	6.681814E-08
3.601298E+03	6.475032E-06	7.893130E-08
3.611219E+03	7.698220E-06	9.305459E-08
3.621140E+03	9.138075E-06	1.095394E-07
3.631060E+03	1.083243E-05	1.287777E-07
3.640981E+03	1.282745E-05	1.512477E-07
3.650902E+03	1.517611E-05	1.774926E-07
3.660823E+03	1.793932E-05	2.081316E-07
3.670744E+03	2.119025E-05	2.439071E-07
3.680665E+03	2.501007E-05	2.856325E-07
3.690586E+03	2.949531E-05	3.342731E-07
3.700507E+03	3.475601E-05	3.909215E-07
3.710428E+03	4.091981E-05	4.568391E-07
3.720349E+03	4.812895E-05	5.334196E-07
3.730270E+03	5.654846E-05	6.222760E-07
3.740191E+03	6.636260E-05	7.251969E-07
3.750112E+03	7.777471E-05	8.441427E-07
3.760033E+03	9.102002E-05	9.813816E-07
3.769953E+03	1.063490E-04	1.139306E-06
3.779874E+03	1.240370E-04	1.320538E-06
3.789795E+03	1.443796E-04	1.527879E-06
3.799716E+03	1.676971E-04	1.764357E-06
3.809637E+03	1.943146E-04	2.033022E-06
3.819558E+03	2.245788E-04	2.337134E-06
3.829479E+03	2.588434E-04	2.679996E-06
3.839400E+03	2.974296E-04	3.064558E-06
3.849321E+03	3.406647E-04	3.493826E-06
3.859242E+03	3.888361E-04	3.970400E-06
3.869163E+03	4.421815E-04	4.496390E-06
3.879084E+03	5.008863E-04	5.073405E-06
3.889005E+03	5.650152E-04	5.701871E-06
3.898926E+03	6.345260E-04	6.381199E-06
3.908846E+03	7.092421E-04	7.109516E-06
3.918767E+03	7.887640E-04	7.882805E-06
3.928688E+03	8.725531E-04	8.695757E-06
3.938609E+03	9.599296E-04	9.541759E-06
3.948530E+03	1.050130E-03	1.041347E-05
3.958451E+03	1.142415E-03	1.130387E-05
3.968372E+03	1.235936E-03	1.220494E-05
3.978293E+03	1.329836E-03	1.310862E-05
3.988214E+03	1.423111E-03	1.400547E-05
3.998135E+03	1.514525E-03	1.488379E-05
4.008056E+03	1.602674E-03	1.573028E-05
4.017977E+03	1.685899E-03	1.652913E-05
4.027898E+03	1.762840E-03	1.726749E-05
4.037819E+03	1.832215E-03	1.793325E-05
4.047740E+03	1.893340E-03	1.852009E-05
4.057660E+03	1.945755E-03	1.902380E-05
4.067581E+03	1.989562E-03	1.944562E-05
4.077502E+03	2.024986E-03	1.978788E-05
4.087423E+03	2.052504E-03	2.005532E-05
4.097344E+03	2.072700E-03	2.025365E-05
4.107265E+03	2.086050E-03	2.038747E-05
4.117186E+03	2.093225E-03	2.046324E-05
4.127107E+03	2.094746E-03	2.048591E-05
4.137028E+03	2.091276E-03	2.046182E-05
4.146949E+03	2.083830E-03	2.040071E-05
4.156870E+03	2.073551E-03	2.031359E-05
4.166791E+03	2.061928E-03	2.021489E-05
4.176712E+03	2.050641E-03	2.012095E-05
4.186633E+03	2.041465E-03	2.004908E-05
4.196553E+03	2.036160E-03	2.001656E-05
4.206474E+03	2.036137E-03	2.003727E-05
4.216395E+03	2.042327E-03	2.012048E-05
4.226316E+03	2.055247E-03	2.027144E-05
4.236237E+03	2.074995E-03	2.049128E-05
4.246158E+03	2.101174E-03	2.077633E-05
4.256079E+03	2.133147E-03	2.112046E-05
4.266000E+03	2.170093E-03	2.151578E-05
4.275921E+03	2.210964E-03	2.195207E-05
4.285842E+03	2.254699E-03	2.241894E-05
4.295763E+03	2.299886E-03	2.290246E-05
4.305684E+03	2.344896E-03	2.338647E-05
4.315605E+03	2.387850E-03	2.385216E-05
4.325526E+03	2.426923E-03	2.428121E-05
4.335446E+03	2.460459E-03	2.465684E-05
4.345367E+03	2.487237E-03	2.496651E-05
4.355288E+03	2.506326E-03	2.520051E-05
4.365209E+03	2.519164E-03	2.537293E-05
4.375130E+03	2.529082E-03	2.551705E-05
4.385051E+03	2.539323E-03	2.566545E-05
4.394972E+03	2.552513E-03	2.584477E-05
4.404893E+03	2.570840E-03	2.607734E-05
4.414814E+03	2.595928E-03	2.637994E-05
4.424735E+03	2.628968E-03	2.676509E-05
4.434656E+03	2.670781E-03	2.724164E-05
4.444577E+03	2.721951E-03	2.781608E-05
4.454498E+03	2.782937E-03	2.849371E-05
4.464419E+03	2.854072E-03	2.927856E-05
4.474340E+03	2.935858E-03	3.017647E-05
4.484260E+03	3.028784E-03	3.119318E-05
4.494181E+03	3.133325E-03	3.233437E-05
4.504102E+03	3.249447E-03	3.360045E-05
4.514023E+03	3.376246E-03	3.498283E-05
4.523944E+03	3.511788E-03	3.646214E-05
4.533865E+03	3.652777E-03	3.800469E-05
4.543786E+03	3.794352E-03	3.956021E-05
4.553707E+03	3.930287E-03	4.106374E-05
4.563628E+03	4.053382E-03	4.243954E-05
4.573549E+03	4.156142E-03	4.360815E-05
4.583470E+03	4.232122E-03	4.450048E-05
4.593391E+03	4.277403E-03	4.507342E-05
4.603312E+03	4.291893E-03	4.532392E-05
4.613233E+03	4.278715E-03	4.528290E-05
4.623153E+03	4.242861E-03	4.500139E-05
4.633074E+03	4.190105E-03	4.453915E-05
4.642995E+03	4.126211E-03	4.395639E-05
4.652916E+03	4.056635E-03	4.331054E-05
4.662837E+03	3.985995E-03	4.265057E-05
4.672758E+03	3.917855E-03	4.201461E-05
4.682679E+03	3.854998E-03	4.143273E-05
4.692600E+03	3.799617E-03	4.092889E-05
4.702521E+03	3.754499E-03	4.053373E-05
4.712442E+03	3.721132E-03	4.026407E-05
4.722363E+03	3.699315E-03	4.011858E-05
4.732284E+03	3.687606E-03	4.008248E-05
4.742205E+03	3.683535E-03	4.012959E-05
4.752126E+03	3.683993E-03	4.022655E-05
4.762046E+03	3.685558E-03	4.033629E-05
4.771967E+03	3.685138E-03	4.042500E-05
4.781888E+03	3.680395E-03	4.046684E-05
4.791809E+03	3.669999E-03	4.044685E-05
4.801730E+03	3.653697E-03	4.036184E-05
4.811651E+03	3.632537E-03	4.022297E-05
4.821572E+03	3.608463E-03	4.005146E-05
4.831493E+03	3.583780E-03	3.987274E-05
4.841414E+03	3.560994E-03	3.971474E-05
4.851335E+03	3.542573E-03	3.960520E-05
4.861256E+03	3.531096E-03	3.957333E-05
4.871177E+03	3.529113E-03	3.964825E-05
4.881098E+03	3.539187E-03	3.985956E-05
4.891019E+03	3.563750E-03	4.023567E-05
4.900940E+03	3.604824E-03	4.080061E-05
4.910860E+03	3.663939E-03	4.157310E-05
4.920781E+03	3.741508E-03	4.255933E-05
4.930702E+03	3.836384E-03	4.374777E-05
4.940623E+03	3.945909E-03	4.510947E-05
4.950544E+03	4.066104E-03	4.660004E-05
4.960465E+03	4.191592E-03	4.815863E-05
4.970386E+03	4.315852E-03	4.971051E-05
4.980307E+03	4.431714E-03	5.117277E-05
4.990228E+03	4.531782E-03	5.245902E-05
5.000149E+03	4.609718E-03	5.349429E-05
5.010070E+03	4.661233E-03	5.422671E-05
5.019991E+03	4.685372E-03	5.464281E-05
5.029912E+03	4.684181E-03	5.476410E-05
5.039833E+03	4.661664E-03	5.463523E-05
5.049753E+03	4.623277E-03	5.431845E-05
5.059674E+03	4.575019E-03	5.388299E-05
5.069595E+03	4.522760E-03	5.339727E-05
5.079516E+03	4.471603E-03	5.292132E-05
5.089437E+03	4.425783E-03	5.250545E-05
5.099358E+03	4.388146E-03	5.218393E-05
5.109279E+03	4.360124E-03	5.197454E-05
5.119200E+03	4.341838E-03	5.187949E-05
5.129121E+03	4.332384E-03	5.188880E-05
5.139042E+03	4.330034E-03	5.198243E-05
5.148963E+03	4.332515E-03	5.213362E-05
5.158884E+03	4.337934E-03	5.231991E-05
5.168805E+03	4.344797E-03	5.252352E-05
5.178726E+03	4.352304E-03	5.273481E-05
5.188646E+03	4.359890E-03	5.294699E-05
5.198567E+03	4.367137E-03	5.315497E-05
5.208488E+03	4.374004E-03	5.335821E-05
5.218409E+03	4.380545E-03	5.355733E-05
5.228330E+03	4.387099E-03	5.375647E-05
5.238251E+03	4.394198E-03	5.396215E-05
5.248172E+03	4.402244E-03	5.417937E-05
5.258093E+03	4.411654E-03	5.441335E-05
5.268014E+03	4.422606E-03	5.466643E-05
5.277935E+03	4.434695E-03	5.493369E-05
5.287856E+03	4.447242E-03	5.520682E-05
5.297777E+03	4.458903E-03	5.546914E-05
5.307698E+03	4.468152E-03	5.570157E-05
5.317619E+03	4.473245E-03	5.588215E-05
5.327540E+03	4.472404E-03	5.598831E-05
5.337460E+03	4.464447E-03	5.600478E-05
5.347381E+03	4.448766E-03	5.592330E-05
5.357302E+03	4.425312E-03	5.574261E-05
5.367223E+03	4.394893E-03	5.547224E-05
5.377144E+03	4.358734E-03	5.512711E-05
5.387065E+03	4.318794E-03	5.473158E-05
5.396986E+03	4.277686E-03	5.431850E-05
5.406907E+03	4.238716E-03	5.392980E-05
5.416828E+03	4.205755E-03	5.361499E-05
5.426749E+03	4.183184E-03	5.343043E-05
5.436670E+03	4.175967E-03	5.344038E-05
5.446591E+03	4.189152E-03	5.371066E-05
5.456512E+03	4.225738E-03	5.428123E-05
5.466433E+03	4.282287E-03	5.510946E-05
5.476353E+03	4.353821E-03	5.613253E-05
5.486274E+03	4.434161E-03	5.727161E-05
5.496195E+03	4.516308E-03	5.843664E-05
5.506116E+03	4.592607E-03	5.952842E-05
5.516037E+03	4.655350E-03	6.044641E-05
5.525958E+03	4.697901E-03	6.110329E-05
5.535879E+03	4.714986E-03	6.142893E-05
5.545800E+03	4.703357E-03	6.137924E-05
5.555721E+03	4.662163E-03	6.094123E-05
5.565642E+03	4.592944E-03	6.013317E-05
5.575563E+03	4.498771E-03	5.899362E-05
5.585484E+03	4.383993E-03	5.757821E-05
5.595405E+03	4.253298E-03	5.594743E-05
5.605326E+03	4.111086E-03	5.415841E-05
5.615246E+03	3.960897E-03	5.225728E-05
5.625167E+03	3.805721E-03	5.028323E-05
5.635088E+03	3.648170E-03	4.827065E-05
5.645009E+03	3.490853E-03	4.625415E-05
5.654930E+03	3.336230E-03	4.426652E-05
5.664851E+03	3.186997E-03	4.234387E-05
5.674772E+03	3.045871E-03	4.052278E-05
5.684693E+03	2.915729E-03	3.884216E-05
5.694614E+03	2.799329E-03	3.733948E-05
5.704535E+03	2.699441E-03	3.605256E-05
5.714456E+03	2.618601E-03	3.501624E-05
5.724377E+03	2.559028E-03	3.426128E-05
5.734298E+03	2.522613E-03	3.381411E-05
5.744219E+03	2.510938E-03	3.369711E-05
5.754140E+03	2.525337E-03	3.392941E-05
5.764060E+03	2.566744E-03	3.452479E-05
5.773981E+03	2.635793E-03	3.549300E-05
5.783902E+03	2.732819E-03	3.683979E-05
5.793823E+03	2.857481E-03	3.856173E-05
5.803744E+03	3.008507E-03	4.064279E-05
5.813665E+03	3.183311E-03	4.304906E-05
5.823586E+03	3.377501E-03	4.572202E-05
5.833507E+03	3.584599E-03	4.857460E-05
5.843428E+03	3.796681E-03	5.149978E-05
5.853349E+03	4.004981E-03	5.437868E-05
5.863270E+03	4.200454E-03	5.708815E-05
5.873191E+03	4.375009E-03	5.951762E-05
5.883112E+03	4.522381E-03	6.158091E-05
5.893033E+03	4.638466E-03	6.322104E-05
5.902953E+03	4.720443E-03	6.439836E-05
5.912874E+03	4.766584E-03	6.508803E-05
5.922795E+03	4.776100E-03	6.527796E-05
5.932716E+03	4.749398E-03	6.497241E-05
5.942637E+03	4.688064E-03	6.419183E-05
5.952558E+03	4.595313E-03	6.297903E-05
5.962479E+03	4.476164E-03	6.140182E-05
5.972400E+03	4.337714E-03	5.955668E-05
5.982321E+03	4.187985E-03	5.755324E-05
5.992242E+03	4.035009E-03	5.550158E-05
6.002163E+03	3.886047E-03	5.350162E-05
6.012084E+03	3.747168E-03	5.163717E-05
6.022005E+03	3.622572E-03	4.996658E-05
6.031926E+03	3.514597E-03	4.852271E-05
6.041846E+03	3.424307E-03	4.732093E-05
6.051767E+03	3.352013E-03	4.636627E-05
6.061688E+03	3.297647E-03	4.565851E-05
6.071609E+03	3.260892E-03	4.519403E-05
6.081530E+03	3.241131E-03	4.496505E-05
6.091451E+03	3.237527E-03	4.496066E-05
6.101372E+03	3.248810E-03	4.516400E-05
6.111293E+03	3.272975E-03	4.554786E-05
6.121214E+03	3.307115E-03	4.607242E-05
6.131135E+03	3.347132E-03	4.668103E-05
6.141056E+03	3.387436E-03	4.729607E-05
6.150977E+03	3.425064E-03	4.787622E-05
6.160898E+03	3.462469E-03	4.845581E-05
6.170819E+03	3.501062E-03	4.905469E-05
6.180740E+03	3.540196E-03	4.966398E-05
6.190660E+03	3.577344E-03	5.024821E-05
6.200581E+03	3.608158E-03	5.074610E-05
6.210502E+03	3.626633E-03	5.107273E-05
6.220423E+03	3.625962E-03	5.113135E-05
6.230344E+03	3.599944E-03	5.083330E-05
6.240265E+03	3.544260E-03	5.011591E-05
6.250186E+03	3.457624E-03	4.895918E-05
6.260107E+03	3.343330E-03	4.740779E-05
6.270028E+03	3.209373E-03	4.557349E-05
6.279949E+03	3.066673E-03	4.361018E-05
6.289870E+03	2.926625E-03	4.167947E-05
6.299791E+03	2.799876E-03	3.993319E-05
6.309712E+03	2.695263E-03	3.849834E-05
6.319633E+03	2.619085E-03	3.746627E-05
6.329553E+03	2.575049E-03	3.689186E-05
6.339474E+03	2.565378E-03	3.680900E-05
6.349395E+03	2.591295E-03	3.723747E-05
6.359316E+03	2.653277E-03	3.818644E-05
6.369237E+03	2.751075E-03	3.965466E-05
6.379158E+03	2.883218E-03	4.162326E-05
6.389079E+03	3.046200E-03	4.404382E-05
6.399000E+03	3.234030E-03	4.683163E-05
6.408921E+03	3.438105E-03	4.986356E-05
6.418842E+03	3.647172E-03	5.297721E-05
6.428763E+03	3.847816E-03	5.597773E-05
6.438684E+03	4.026165E-03	5.866239E-05
6.448605E+03	4.169817E-03	6.084867E-05
6.458526E+03	4.269282E-03	6.239547E-05
6.468446E+03	4.318811E-03	6.321566E-05
6.478367E+03	4.317380E-03	6.329079E-05
6.488288E+03	4.269286E-03	6.268054E-05
6.498209E+03	4.183834E-03	6.151856E-05
6.508130E+03	4.074947E-03	6.000738E-05
6.518051E+03	3.958386E-03	5.837790E-05
6.527972E+03	3.849285E-03	5.685310E-05
6.537893E+03	3.760554E-03	5.562445E-05
6.547814E+03	3.701976E-03	5.483820E-05
6.557735E+03	3.679172E-03	5.457969E-05
6.567656E+03	3.693005E-03	5.486402E-05
6.577577E+03	3.740673E-03	5.565185E-05
6.587498E+03	3.816459E-03	5.686011E-05
6.597419E+03	3.911872E-03	5.836385E-05
6.607340E+03	4.016142E-03	6.000337E-05
6.617260E+03	4.117734E-03	6.160654E-05
6.627181E+03	4.205409E-03	6.300478E-05
6.637102E+03	4.269745E-03	6.405583E-05
6.647023E+03	4.304879E-03	6.467011E-05
6.656944E+03	4.309595E-03	6.482757E-05
6.666865E+03	4.286588E-03	6.456694E-05
6.676786E+03	4.239725E-03	6.394491E-05
6.686707E+03	4.172946E-03	6.301955E-05
6.696628E+03	4.089588E-03	6.184023E-05
6.706549E+03	3.992118E-03	6.044335E-05
6.716470E+03	3.882265E-03	5.885438E-05
6.726391E+03	3.761404E-03	5.709352E-05
6.736312E+03	3.631014E-03	5.518269E-05
6.746233E+03	3.492820E-03	5.314768E-05
6.756153E+03	3.349060E-03	5.102221E-05
6.766074E+03	3.202313E-03	4.884542E-05
6.775995E+03	3.055378E-03	4.665993E-05
6.785916E+03	2.911200E-03	4.451086E-05
6.795837E+03	2.772729E-03	4.244357E-05
6.805758E+03	2.642738E-03	4.050094E-05
6.815679E+03	2.523829E-03	3.872343E-05
6.825600E+03	2.418076E-03	3.714355E-05
6.835521E+03	2.327373E-03	3.579114E-05
6.845442E+03	2.253209E-03	3.469000E-05
6.855363E+03	2.196886E-03	3.386108E-05
6.865284E+03	2.159678E-03	3.332502E-05
6.875205E+03	2.142888E-03	3.310297E-05
6.885126E+03	2.147973E-03	3.321854E-05
6.895046E+03	2.176473E-03	3.369674E-05
6.904967E+03	2.230124E-03	3.456573E-05
6.914888E+03	2.310475E-03	3.585081E-05
6.924809E+03	2.418486E-03	3.756837E-05
6.934730E+03	2.554228E-03	3.972094E-05
6.944651E+03	2.716202E-03	4.228668E-05
6.954572E+03	2.900548E-03	4.520685E-05
6.964493E+03	3.100331E-03	4.837447E-05
6.974414E+03	3.305472E-03	5.163302E-05
6.984335E+03	3.503194E-03	5.478308E-05
6.994256E+03	3.679743E-03	5.760908E-05
7.004177E+03	3.824258E-03	5.993976E-05
7.014098E+03	3.932180E-03	6.170203E-05
7.024019E+03	4.004997E-03	6.291742E-05
7.033940E+03	4.047982E-03	6.366705E-05
7.043860E+03	4.068187E-03	6.406045E-05
7.053781E+03	4.072981E-03	6.421261E-05
7.063702E+03	4.068854E-03	6.422520E-05
7.073623E+03	4.060932E-03	6.417881E-05
7.083544E+03	4.052320E-03	6.412243E-05
7.093465E+03	4.043956E-03	6.407096E-05
7.103386E+03	4.034518E-03	6.400354E-05
7.113307E+03	4.021689E-03	6.388337E-05
7.123228E+03	4.004089E-03	6.368838E-05
7.133149E+03	3.982413E-03	6.342941E-05
7.143070E+03	3.959359E-03	6.314932E-05
7.152991E+03	3.939070E-03	6.291421E-05
7.162912E+03	3.926574E-03	6.280482E-05
7.172833E+03	3.926874E-03	6.290187E-05
7.182753E+03	3.944030E-03	6.327150E-05
7.192674E+03	3.980281E-03	6.395106E-05
7.202595E+03	4.036380E-03	6.495423E-05
7.212516E+03	4.111986E-03	6.627723E-05
7.222437E+03	4.205906E-03	6.790257E-05
7.232358E+03	4.316219E-03	6.980097E-05
7.242279E+03	4.440092E-03	7.192819E-05
7.252200E+03	4.573999E-03	7.422859E-05
7.262121E+03	4.713437E-03	7.663021E-05
7.272042E+03	4.852770E-03	7.904223E-05
7.281963E+03	4.985526E-03	8.135948E-05
7.291884E+03	5.103959E-03	8.345520E-05
7.301805E+03	5.199626E-03	8.519012E-05
7.311726E+03	5.263654E-03	8.641674E-05
7.321646E+03	5.288002E-03	8.699989E-05
7.331567E+03	5.266759E-03	8.683822E-05
7.341488E+03	5.197814E-03	8.589205E-05
7.351409E+03	5.083518E-03	8.419500E-05
7.361330E+03	4.930737E-03	8.185573E-05
7.371251E+03	4.750576E-03	7.905420E-05
7.381172E+03	4.555702E-03	7.599800E-05
7.391093E+03	4.357311E-03	7.287201E-05
7.401014E+03	4.163672E-03	6.981390E-05
7.410935E+03	3.980516E-03	6.692005E-05
7.420856E+03	3.812193E-03	6.426462E-05
7.430777E+03	3.662435E-03	6.191225E-05
7.440698E+03	3.535449E-03	5.993636E-05
7.450619E+03	3.437056E-03	5.843887E-05
7.460540E+03	3.366989E-03	5.741915E-05
7.470460E+03	3.315475E-03	5.671419E-05
7.480381E+03	3.274746E-03	5.619345E-05
7.490302E+03	3.239159E-03	5.576142E-05
7.500223E+03	3.204790E-03	5.535097E-05
7.510144E+03	3.169083E-03	5.491779E-05
7.520065E+03	3.131140E-03	5.444581E-05
7.529986E+03	3.091020E-03	5.393546E-05
7.539907E+03	3.049465E-03	5.339907E-05
7.549828E+03	3.007507E-03	5.285433E-05
7.559749E+03	2.966350E-03	5.232214E-05
7.569670E+03	2.927208E-03	5.182392E-05
7.579591E+03	2.891437E-03	5.138399E-05
7.589512E+03	2.860322E-03	5.102568E-05
7.599433E+03	2.835335E-03	5.077620E-05
7.609353E+03	2.817985E-03	5.066375E-05
7.619274E+03	2.809974E-03	5.072054E-05
7.629195E+03	2.812785E-03	5.097537E-05
7.639116E+03	2.827572E-03	5.145153E-05
7.649037E+03	2.855140E-03	5.216634E-05
7.658958E+03	2.895524E-03	5.312333E-05
