#wls	flux	fluxerr
1.587349E+03	-1.832573E-05	-9.732069E-07
1.627033E+03	-1.837455E-05	-9.667441E-07
1.666716E+03	-1.837801E-05	-9.576593E-07
1.706400E+03	-1.833691E-05	-9.460601E-07
1.746084E+03	-1.825515E-05	-9.322128E-07
1.785767E+03	-1.812990E-05	-9.160383E-07
1.825451E+03	-1.796136E-05	-8.976192E-07
1.865135E+03	-1.775569E-05	-8.773344E-07
1.904819E+03	-1.750617E-05	-8.549234E-07
1.944502E+03	-1.721518E-05	-8.305844E-07
1.984186E+03	-1.688464E-05	-8.044900E-07
2.023870E+03	-1.651317E-05	-7.766571E-07
2.063553E+03	-1.609934E-05	-7.471069E-07
2.103237E+03	-1.564180E-05	-7.158725E-07
2.142921E+03	-1.513956E-05	-6.830078E-07
2.182605E+03	-1.459448E-05	-6.487028E-07
2.222288E+03	-1.400653E-05	-6.130611E-07
2.261972E+03	-1.337876E-05	-5.763244E-07
2.301656E+03	-1.271295E-05	-5.386751E-07
2.341340E+03	-1.201412E-05	-5.004290E-07
2.381023E+03	-1.128478E-05	-4.617882E-07
2.420707E+03	-1.053426E-05	-4.232236E-07
2.460391E+03	-9.767841E-06	-3.850209E-07
2.500074E+03	-8.997762E-06	-3.477207E-07
2.539758E+03	-8.229619E-06	-3.115745E-07
2.579442E+03	-7.475763E-06	-2.770667E-07
2.619126E+03	-6.743328E-06	-2.444523E-07
2.658809E+03	-6.041936E-06	-2.140494E-07
2.698493E+03	-5.378085E-06	-1.860341E-07
2.738177E+03	-4.758361E-06	-1.605606E-07
2.777860E+03	-4.186775E-06	-1.376725E-07
2.817544E+03	-3.665654E-06	-1.173418E-07
2.857228E+03	-3.195738E-06	-9.947901E-08
2.896912E+03	-2.776340E-06	-8.394471E-08
2.936595E+03	-2.406137E-06	-7.057941E-08
2.976279E+03	-2.082080E-06	-5.917563E-08
2.986200E+03	-2.008011E-06	-5.661017E-08
2.996121E+03	-1.936435E-06	-5.414742E-08
3.006042E+03	-1.867299E-06	-5.178437E-08
3.015963E+03	-1.800740E-06	-4.952313E-08
3.025884E+03	-1.736676E-06	-4.735989E-08
3.035805E+03	-1.674859E-06	-4.528629E-08
3.045726E+03	-1.615397E-06	-4.330380E-08
3.055646E+03	-1.558215E-06	-4.140883E-08
3.065567E+03	-1.503085E-06	-3.959395E-08
3.075488E+03	-1.450239E-06	-3.786386E-08
3.085409E+03	-1.399311E-06	-3.620753E-08
3.095330E+03	-1.350376E-06	-3.462567E-08
3.105251E+03	-1.303362E-06	-3.311514E-08
3.115172E+03	-1.258199E-06	-3.167285E-08
3.125093E+03	-1.214703E-06	-3.029299E-08
3.135014E+03	-1.173038E-06	-2.897852E-08
3.144935E+03	-1.133017E-06	-2.772362E-08
3.154856E+03	-1.094574E-06	-2.652557E-08
3.164777E+03	-1.057738E-06	-2.538402E-08
3.174698E+03	-1.022248E-06	-2.429169E-08
3.184619E+03	-9.882281E-07	-2.325055E-08
3.194540E+03	-9.555175E-07	-2.225589E-08
3.204460E+03	-9.240531E-07	-2.130535E-08
3.214381E+03	-8.938480E-07	-2.039839E-08
3.224302E+03	-8.647546E-07	-1.953081E-08
3.234223E+03	-8.367789E-07	-1.870198E-08
3.244144E+03	-8.097794E-07	-1.790800E-08
3.254065E+03	-7.837538E-07	-1.714817E-08
3.263986E+03	-7.586253E-07	-1.642015E-08
3.273907E+03	-7.342562E-07	-1.572037E-08
3.283828E+03	-7.106291E-07	-1.504795E-08
3.293749E+03	-6.876587E-07	-1.440058E-08
3.303670E+03	-6.652033E-07	-1.377488E-08
3.313591E+03	-6.432733E-07	-1.317072E-08
3.323512E+03	-6.217113E-07	-1.258453E-08
3.333433E+03	-6.004060E-07	-1.201384E-08
3.343353E+03	-5.791915E-07	-1.145519E-08
3.353274E+03	-5.580615E-07	-1.090838E-08
3.363195E+03	-5.367351E-07	-1.036791E-08
3.373116E+03	-5.151214E-07	-9.832191E-09
3.383037E+03	-4.929852E-07	-9.296948E-09
3.392958E+03	-4.701039E-07	-8.758378E-09
3.402879E+03	-4.462519E-07	-8.212804E-09
3.412800E+03	-4.211250E-07	-7.655319E-09
3.422721E+03	-3.943423E-07	-7.079898E-09
3.432642E+03	-3.655194E-07	-6.480779E-09
3.442563E+03	-3.341671E-07	-5.850689E-09
3.452484E+03	-2.997063E-07	-5.181207E-09
3.462405E+03	-2.614323E-07	-4.462238E-09
3.472326E+03	-2.185610E-07	-3.682932E-09
3.482246E+03	-1.700923E-07	-2.829467E-09
3.492167E+03	-1.148529E-07	-1.885968E-09
3.502088E+03	-5.143764E-08	-8.337256E-10
3.512009E+03	2.183423E-08	3.493085E-10
3.521930E+03	1.069732E-07	1.689114E-09
3.531851E+03	2.063542E-07	3.215857E-09
3.541772E+03	3.228096E-07	4.965009E-09
3.551693E+03	4.595979E-07	6.976495E-09
3.561614E+03	6.205445E-07	9.296468E-09
3.571535E+03	8.102833E-07	1.198044E-08
3.581456E+03	1.034274E-06	1.509292E-08
3.591377E+03	1.299350E-06	1.871468E-08
3.601298E+03	1.613499E-06	2.293860E-08
3.611219E+03	1.986599E-06	2.787920E-08
3.621140E+03	2.430178E-06	3.366802E-08
3.631060E+03	2.958025E-06	4.046091E-08
3.640981E+03	3.586672E-06	4.844328E-08
3.650902E+03	4.335368E-06	5.782801E-08
3.660823E+03	5.227236E-06	6.886940E-08
3.670744E+03	6.289356E-06	8.186227E-08
3.680665E+03	7.553555E-06	9.715025E-08
3.690586E+03	9.056713E-06	1.151278E-07
3.700507E+03	1.084316E-05	1.362687E-07
3.710428E+03	1.296265E-05	1.610978E-07
3.720349E+03	1.547501E-05	1.902472E-07
3.730270E+03	1.844750E-05	2.244220E-07
3.740191E+03	2.195793E-05	2.644360E-07
3.750112E+03	2.609510E-05	3.112168E-07
3.760033E+03	3.096236E-05	3.658462E-07
3.769953E+03	3.667004E-05	4.294717E-07
3.779874E+03	4.334808E-05	5.034567E-07
3.789795E+03	5.113755E-05	5.892827E-07
3.799716E+03	6.019277E-05	6.885790E-07
3.809637E+03	7.068110E-05	8.031260E-07
3.819558E+03	8.277847E-05	9.348124E-07
3.829479E+03	9.667979E-05	1.085763E-06
3.839400E+03	1.125742E-04	1.258062E-06
3.849321E+03	1.306687E-04	1.454018E-06
3.859242E+03	1.511569E-04	1.675829E-06
3.869163E+03	1.742286E-04	1.925701E-06
3.879084E+03	2.000585E-04	2.205741E-06
3.889005E+03	2.287990E-04	2.517871E-06
3.898926E+03	2.605800E-04	2.863846E-06
3.908846E+03	2.954765E-04	3.244895E-06
3.918767E+03	3.335339E-04	3.662002E-06
3.928688E+03	3.747234E-04	4.115409E-06
3.938609E+03	4.189644E-04	4.604859E-06
3.948530E+03	4.661114E-04	5.129434E-06
3.958451E+03	5.159675E-04	5.687690E-06
3.968372E+03	5.682378E-04	6.277119E-06
3.978293E+03	6.225914E-04	6.894811E-06
3.988214E+03	6.786008E-04	7.536751E-06
3.998135E+03	7.357991E-04	8.198424E-06
4.008056E+03	7.936750E-04	8.874737E-06
4.017977E+03	8.516913E-04	9.560186E-06
4.027898E+03	9.093288E-04	1.024934E-05
4.037819E+03	9.660119E-04	1.093598E-05
4.047740E+03	1.021275E-03	1.161495E-05
4.057660E+03	1.074688E-03	1.228138E-05
4.067581E+03	1.125869E-03	1.293075E-05
4.077502E+03	1.174578E-03	1.356004E-05
4.087423E+03	1.220614E-03	1.416658E-05
4.097344E+03	1.263902E-03	1.474903E-05
4.107265E+03	1.304435E-03	1.530681E-05
4.117186E+03	1.342400E-03	1.584156E-05
4.127107E+03	1.377951E-03	1.635453E-05
4.137028E+03	1.411399E-03	1.684887E-05
4.146949E+03	1.443136E-03	1.732877E-05
4.156870E+03	1.473631E-03	1.779942E-05
4.166791E+03	1.503375E-03	1.826639E-05
4.176712E+03	1.532929E-03	1.873627E-05
4.186633E+03	1.562867E-03	1.921595E-05
4.196553E+03	1.593711E-03	1.971182E-05
4.206474E+03	1.625974E-03	2.023033E-05
4.216395E+03	1.660094E-03	2.077717E-05
4.226316E+03	1.696419E-03	2.135695E-05
4.236237E+03	1.735107E-03	2.197205E-05
4.246158E+03	1.776261E-03	2.262417E-05
4.256079E+03	1.819883E-03	2.331372E-05
4.266000E+03	1.865729E-03	2.403797E-05
4.275921E+03	1.913489E-03	2.479323E-05
4.285842E+03	1.962721E-03	2.557402E-05
4.295763E+03	2.012827E-03	2.637268E-05
4.305684E+03	2.063152E-03	2.718060E-05
4.315605E+03	2.112942E-03	2.798768E-05
4.325526E+03	2.161435E-03	2.878352E-05
4.335446E+03	2.208059E-03	2.956002E-05
4.345367E+03	2.252226E-03	3.030873E-05
4.355288E+03	2.293764E-03	3.102667E-05
4.365209E+03	2.332895E-03	3.171621E-05
4.375130E+03	2.370233E-03	3.238508E-05
4.385051E+03	2.406639E-03	3.304467E-05
4.394972E+03	2.443125E-03	3.370862E-05
4.404893E+03	2.480809E-03	3.439237E-05
4.414814E+03	2.520670E-03	3.510969E-05
4.424735E+03	2.563556E-03	3.587278E-05
4.434656E+03	2.610200E-03	3.669247E-05
4.444577E+03	2.661150E-03	3.757711E-05
4.454498E+03	2.716721E-03	3.853190E-05
4.464419E+03	2.777070E-03	3.955984E-05
4.474340E+03	2.842174E-03	4.066143E-05
4.484260E+03	2.911635E-03	4.183170E-05
4.494181E+03	2.984856E-03	4.306276E-05
4.504102E+03	3.060990E-03	4.434294E-05
4.514023E+03	3.138781E-03	4.565438E-05
4.523944E+03	3.216662E-03	4.697443E-05
4.533865E+03	3.292892E-03	4.827747E-05
4.543786E+03	3.365493E-03	4.953396E-05
4.553707E+03	3.432364E-03	5.071207E-05
4.563628E+03	3.491577E-03	5.178212E-05
4.573549E+03	3.541307E-03	5.271554E-05
4.583470E+03	3.580347E-03	5.349263E-05
4.593391E+03	3.607892E-03	5.409950E-05
4.603312E+03	3.623811E-03	5.453227E-05
4.613233E+03	3.628606E-03	5.479665E-05
4.623153E+03	3.623389E-03	5.490771E-05
4.633074E+03	3.609541E-03	5.488493E-05
4.642995E+03	3.588857E-03	5.475441E-05
4.652916E+03	3.563155E-03	5.454298E-05
4.662837E+03	3.534199E-03	5.427706E-05
4.672758E+03	3.503404E-03	5.397806E-05
4.682679E+03	3.472179E-03	5.366757E-05
4.692600E+03	3.441709E-03	5.336401E-05
4.702521E+03	3.413210E-03	5.308649E-05
4.712442E+03	3.387562E-03	5.284913E-05
4.722363E+03	3.365340E-03	5.266144E-05
4.732284E+03	3.346678E-03	5.252611E-05
4.742205E+03	3.331340E-03	5.244001E-05
4.752126E+03	3.319005E-03	5.239864E-05
4.762046E+03	3.309110E-03	5.239359E-05
4.771967E+03	3.301129E-03	5.241695E-05
4.781888E+03	3.294712E-03	5.246346E-05
4.791809E+03	3.289495E-03	5.252764E-05
4.801730E+03	3.285441E-03	5.260916E-05
4.811651E+03	3.282745E-03	5.271138E-05
4.821572E+03	3.281770E-03	5.284045E-05
4.831493E+03	3.283028E-03	5.300496E-05
4.841414E+03	3.287297E-03	5.321789E-05
4.851335E+03	3.295316E-03	5.349172E-05
4.861256E+03	3.307925E-03	5.384074E-05
4.871177E+03	3.325834E-03	5.427713E-05
4.881098E+03	3.349805E-03	5.481400E-05
4.891019E+03	3.380155E-03	5.545734E-05
4.900940E+03	3.417202E-03	5.621316E-05
4.910860E+03	3.460737E-03	5.707885E-05
4.920781E+03	3.510351E-03	5.804849E-05
4.930702E+03	3.565164E-03	5.910821E-05
4.940623E+03	3.623856E-03	6.023673E-05
4.950544E+03	3.684882E-03	6.140877E-05
4.960465E+03	3.746237E-03	6.259111E-05
4.970386E+03	3.805973E-03	6.375111E-05
4.980307E+03	3.861892E-03	6.485164E-05
4.990228E+03	3.912079E-03	6.586000E-05
5.000149E+03	3.954889E-03	6.674763E-05
5.010070E+03	3.989130E-03	6.749346E-05
5.019991E+03	4.014215E-03	6.808644E-05
5.029912E+03	4.030093E-03	6.852455E-05
5.039833E+03	4.037221E-03	6.881446E-05
5.049753E+03	4.036670E-03	6.897335E-05
5.059674E+03	4.029646E-03	6.902099E-05
5.069595E+03	4.017690E-03	6.898306E-05
5.079516E+03	4.002375E-03	6.888601E-05
5.089437E+03	3.985074E-03	6.875321E-05
5.099358E+03	3.967022E-03	6.860576E-05
5.109279E+03	3.949188E-03	6.846045E-05
5.119200E+03	3.932309E-03	6.833014E-05
5.129121E+03	3.916797E-03	6.822217E-05
5.139042E+03	3.902723E-03	6.813802E-05
5.148963E+03	3.890159E-03	6.807918E-05
5.158884E+03	3.878943E-03	6.804305E-05
5.168805E+03	3.868736E-03	6.802387E-05
5.178726E+03	3.859351E-03	6.801858E-05
5.188646E+03	3.850457E-03	6.802144E-05
5.198567E+03	3.841793E-03	6.802800E-05
5.208488E+03	3.833124E-03	6.803417E-05
5.218409E+03	3.824250E-03	6.803646E-05
5.228330E+03	3.814944E-03	6.803086E-05
5.238251E+03	3.805077E-03	6.801508E-05
5.248172E+03	3.794422E-03	6.798508E-05
5.258093E+03	3.782776E-03	6.793715E-05
5.268014E+03	3.769948E-03	6.786782E-05
5.277935E+03	3.755580E-03	6.777053E-05
5.287856E+03	3.739378E-03	6.763985E-05
5.297777E+03	3.721095E-03	6.747112E-05
5.307698E+03	3.700425E-03	6.725861E-05
5.317619E+03	3.677181E-03	6.699861E-05
5.327540E+03	3.651290E-03	6.668947E-05
5.337460E+03	3.622795E-03	6.633153E-05
5.347381E+03	3.591978E-03	6.592948E-05
5.357302E+03	3.559382E-03	6.549284E-05
5.367223E+03	3.525663E-03	6.503335E-05
5.377144E+03	3.491836E-03	6.456951E-05
5.387065E+03	3.459082E-03	6.412309E-05
5.396986E+03	3.428718E-03	6.371856E-05
5.406907E+03	3.402238E-03	6.338404E-05
5.416828E+03	3.381030E-03	6.314584E-05
5.426749E+03	3.366505E-03	6.303105E-05
5.436670E+03	3.359683E-03	6.305963E-05
5.446591E+03	3.360980E-03	6.324041E-05
5.456512E+03	3.370271E-03	6.357211E-05
5.466433E+03	3.386544E-03	6.403658E-05
5.476353E+03	3.408147E-03	6.460344E-05
5.486274E+03	3.432797E-03	6.522995E-05
5.496195E+03	3.457950E-03	6.586800E-05
5.506116E+03	3.480893E-03	6.646578E-05
5.516037E+03	3.498976E-03	6.697218E-05
5.525958E+03	3.509796E-03	6.734035E-05
5.535879E+03	3.511382E-03	6.753132E-05
5.545800E+03	3.502243E-03	6.751500E-05
5.555721E+03	3.481474E-03	6.727242E-05
5.565642E+03	3.448828E-03	6.679714E-05
5.575563E+03	3.404568E-03	6.609263E-05
5.585484E+03	3.349559E-03	6.517418E-05
5.595405E+03	3.285059E-03	6.406485E-05
5.605326E+03	3.212684E-03	6.279498E-05
5.615246E+03	3.134230E-03	6.139875E-05
5.625167E+03	3.051586E-03	5.991245E-05
5.635088E+03	2.966797E-03	5.837588E-05
5.645009E+03	2.881831E-03	5.682757E-05
5.654930E+03	2.798570E-03	5.530478E-05
5.664851E+03	2.718914E-03	5.384539E-05
5.674772E+03	2.644520E-03	5.248282E-05
5.684693E+03	2.577041E-03	5.125069E-05
5.694614E+03	2.517891E-03	5.017808E-05
5.704535E+03	2.468383E-03	4.929228E-05
5.714456E+03	2.429630E-03	4.861682E-05
5.724377E+03	2.402568E-03	4.817178E-05
5.734298E+03	2.387945E-03	4.797366E-05
5.744219E+03	2.386316E-03	4.803511E-05
5.754140E+03	2.398055E-03	4.836523E-05
5.764060E+03	2.423216E-03	4.896669E-05
5.773981E+03	2.461698E-03	4.983896E-05
5.783902E+03	2.513010E-03	5.097361E-05
5.793823E+03	2.576360E-03	5.235598E-05
5.803744E+03	2.650495E-03	5.396187E-05
5.813665E+03	2.733789E-03	5.575931E-05
5.823586E+03	2.824076E-03	5.770497E-05
5.833507E+03	2.918934E-03	5.975003E-05
5.843428E+03	3.015390E-03	6.183395E-05
5.853349E+03	3.110406E-03	6.389445E-05
5.863270E+03	3.200751E-03	6.586488E-05
5.873191E+03	3.283277E-03	6.767982E-05
5.883112E+03	3.355226E-03	6.928145E-05
5.893033E+03	3.414156E-03	7.061815E-05
5.902953E+03	3.458236E-03	7.165065E-05
5.912874E+03	3.486271E-03	7.235261E-05
5.922795E+03	3.497882E-03	7.271451E-05
5.932716E+03	3.493345E-03	7.274049E-05
5.942637E+03	3.473735E-03	7.245132E-05
5.952558E+03	3.440627E-03	7.187848E-05
5.962479E+03	3.396282E-03	7.106794E-05
5.972400E+03	3.343156E-03	7.007014E-05
5.982321E+03	3.284072E-03	6.894350E-05
5.992242E+03	3.221719E-03	6.774404E-05
6.002163E+03	3.158749E-03	6.652738E-05
6.012084E+03	3.097568E-03	6.534426E-05
6.022005E+03	3.040284E-03	6.423945E-05
6.031926E+03	2.988545E-03	6.324836E-05
6.041846E+03	2.943594E-03	6.239791E-05
6.051767E+03	2.906340E-03	6.170819E-05
6.061688E+03	2.877263E-03	6.119025E-05
6.071609E+03	2.856459E-03	6.084704E-05
6.081530E+03	2.843585E-03	6.067218E-05
6.091451E+03	2.838061E-03	6.065418E-05
6.101372E+03	2.838841E-03	6.077151E-05
6.111293E+03	2.844571E-03	6.099585E-05
6.121214E+03	2.853608E-03	6.129257E-05
6.131135E+03	2.864168E-03	6.162368E-05
6.141056E+03	2.874535E-03	6.195253E-05
6.150977E+03	2.883324E-03	6.224925E-05
6.160898E+03	2.889522E-03	6.249184E-05
6.170819E+03	2.892440E-03	6.266522E-05
6.180740E+03	2.891420E-03	6.275477E-05
6.190660E+03	2.885735E-03	6.274434E-05
6.200581E+03	2.874698E-03	6.261831E-05
6.210502E+03	2.857647E-03	6.236152E-05
6.220423E+03	2.834085E-03	6.196229E-05
6.230344E+03	2.803946E-03	6.141826E-05
6.240265E+03	2.767589E-03	6.073639E-05
6.250186E+03	2.726049E-03	5.993855E-05
6.260107E+03	2.680816E-03	5.905678E-05
6.270028E+03	2.633951E-03	5.813601E-05
6.279949E+03	2.587955E-03	5.723121E-05
6.289870E+03	2.545372E-03	5.639877E-05
6.299791E+03	2.508869E-03	5.569821E-05
6.309712E+03	2.480792E-03	5.518245E-05
6.319633E+03	2.463289E-03	5.490032E-05
6.329553E+03	2.457956E-03	5.488887E-05
6.339474E+03	2.466030E-03	5.517720E-05
6.349395E+03	2.488121E-03	5.578077E-05
6.359316E+03	2.524305E-03	5.670305E-05
6.369237E+03	2.574093E-03	5.793483E-05
6.379158E+03	2.636291E-03	5.945097E-05
6.389079E+03	2.709123E-03	6.121290E-05
6.399000E+03	2.790134E-03	6.316641E-05
6.408921E+03	2.876252E-03	6.524282E-05
6.418842E+03	2.964032E-03	6.736446E-05
6.428763E+03	3.049804E-03	6.944792E-05
6.438684E+03	3.129837E-03	7.140768E-05
6.448605E+03	3.200934E-03	7.316988E-05
6.458526E+03	3.260531E-03	7.467454E-05
6.468446E+03	3.306995E-03	7.588258E-05
6.478367E+03	3.339921E-03	7.678293E-05
6.488288E+03	3.360037E-03	7.739052E-05
6.498209E+03	3.369130E-03	7.774485E-05
6.508130E+03	3.369805E-03	7.790470E-05
6.518051E+03	3.365195E-03	7.794150E-05
6.527972E+03	3.358461E-03	7.792789E-05
6.537893E+03	3.352627E-03	7.793383E-05
6.547814E+03	3.350138E-03	7.801637E-05
6.557735E+03	3.352744E-03	7.821671E-05
6.567656E+03	3.361238E-03	7.855403E-05
6.577577E+03	3.375561E-03	7.902758E-05
6.587498E+03	3.394841E-03	7.961765E-05
6.597419E+03	3.417435E-03	8.028617E-05
6.607340E+03	3.441143E-03	8.098173E-05
6.617260E+03	3.463439E-03	8.164492E-05
6.627181E+03	3.481764E-03	8.221509E-05
6.637102E+03	3.493675E-03	8.263395E-05
6.647023E+03	3.497044E-03	8.285033E-05
6.656944E+03	3.490400E-03	8.282827E-05
6.666865E+03	3.472658E-03	8.254089E-05
6.676786E+03	3.443510E-03	8.197952E-05
6.686707E+03	3.403077E-03	8.114581E-05
6.696628E+03	3.351877E-03	8.005089E-05
6.706549E+03	3.290828E-03	7.871556E-05
6.716470E+03	3.221206E-03	7.716934E-05
6.726391E+03	3.144350E-03	7.544350E-05
6.736312E+03	3.061747E-03	7.357307E-05
6.746233E+03	2.975122E-03	7.159899E-05
6.756153E+03	2.886177E-03	6.956194E-05
6.766074E+03	2.796605E-03	6.750266E-05
6.775995E+03	2.708140E-03	6.546310E-05
6.785916E+03	2.622513E-03	6.348533E-05
6.795837E+03	2.541342E-03	6.160898E-05
6.805758E+03	2.466102E-03	5.987044E-05
6.815679E+03	2.398221E-03	5.830510E-05
6.825600E+03	2.338950E-03	5.694424E-05
6.835521E+03	2.289433E-03	5.581671E-05
6.845442E+03	2.250574E-03	5.494566E-05
6.855363E+03	2.223243E-03	5.435346E-05
6.865284E+03	2.208148E-03	5.405869E-05
6.875205E+03	2.205859E-03	5.407663E-05
6.885126E+03	2.216803E-03	5.441903E-05
6.895046E+03	2.241227E-03	5.509336E-05
6.904967E+03	2.279183E-03	5.610228E-05
6.914888E+03	2.330338E-03	5.743900E-05
6.924809E+03	2.394092E-03	5.909005E-05
6.934730E+03	2.469410E-03	6.103119E-05
6.944651E+03	2.554647E-03	6.322290E-05
6.954572E+03	2.647749E-03	6.561535E-05
6.964493E+03	2.746138E-03	6.814546E-05
6.974414E+03	2.846869E-03	7.074065E-05
6.984335E+03	2.946816E-03	7.332353E-05
6.994256E+03	3.042872E-03	7.581669E-05
7.004177E+03	3.132346E-03	7.815278E-05
7.014098E+03	3.213073E-03	8.027711E-05
7.024019E+03	3.283552E-03	8.215145E-05
7.033940E+03	3.343098E-03	8.375771E-05
7.043860E+03	3.391744E-03	8.509573E-05
7.053781E+03	3.430151E-03	8.618111E-05
7.063702E+03	3.459242E-03	8.703616E-05
7.073623E+03	3.480372E-03	8.769418E-05
7.083544E+03	3.494789E-03	8.818589E-05
7.093465E+03	3.503891E-03	8.854608E-05
7.103386E+03	3.508933E-03	8.880606E-05
7.113307E+03	3.511186E-03	8.899764E-05
7.123228E+03	3.511894E-03	8.915231E-05
7.133149E+03	3.512363E-03	8.930316E-05
7.143070E+03	3.513739E-03	8.947952E-05
7.152991E+03	3.517251E-03	8.971298E-05
7.162912E+03	3.524105E-03	9.003476E-05
7.172833E+03	3.535304E-03	9.047108E-05
7.182753E+03	3.551514E-03	9.103977E-05
7.192674E+03	3.573256E-03	9.175503E-05
7.202595E+03	3.600577E-03	9.261899E-05
7.212516E+03	3.633218E-03	9.362596E-05
7.222437E+03	3.670371E-03	9.475610E-05
7.232358E+03	3.710841E-03	9.597938E-05
7.242279E+03	3.752999E-03	9.725436E-05
7.252200E+03	3.794822E-03	9.852907E-05
7.262121E+03	3.833896E-03	9.974094E-05
7.272042E+03	3.867631E-03	1.008223E-04
7.281963E+03	3.893329E-03	1.017023E-04
7.291884E+03	3.908356E-03	1.023107E-04
7.301805E+03	3.910348E-03	1.025841E-04
7.311726E+03	3.897409E-03	1.024706E-04
7.321646E+03	3.868263E-03	1.019341E-04
7.331567E+03	3.822526E-03	1.009616E-04
7.341488E+03	3.760790E-03	9.956571E-05
7.351409E+03	3.684394E-03	9.777882E-05
7.361330E+03	3.595706E-03	9.566094E-05
7.371251E+03	3.497552E-03	9.328475E-05
7.381172E+03	3.393145E-03	9.073393E-05
7.391093E+03	3.285992E-03	8.810080E-05
7.401014E+03	3.179298E-03	8.547051E-05
7.410935E+03	3.076163E-03	8.292635E-05
7.420856E+03	2.979036E-03	8.053481E-05
7.430777E+03	2.889880E-03	7.835009E-05
7.440698E+03	2.809916E-03	7.640685E-05
7.450619E+03	2.739505E-03	7.471682E-05
7.460540E+03	2.678577E-03	7.328012E-05
7.470460E+03	2.626613E-03	7.208458E-05
7.480381E+03	2.582612E-03	7.110473E-05
7.490302E+03	2.545353E-03	7.030863E-05
7.500223E+03	2.513612E-03	6.966383E-05
7.510144E+03	2.486211E-03	6.913886E-05
7.520065E+03	2.462279E-03	6.871036E-05
7.529986E+03	2.441127E-03	6.835984E-05
7.539907E+03	2.422449E-03	6.807927E-05
7.549828E+03	2.406013E-03	6.786272E-05
7.559749E+03	2.391906E-03	6.771312E-05
7.569670E+03	2.380324E-03	6.763662E-05
7.579591E+03	2.371573E-03	6.764261E-05
7.589512E+03	2.366058E-03	6.774344E-05
7.599433E+03	2.364131E-03	6.795019E-05
7.609353E+03	2.366156E-03	6.827446E-05
7.619274E+03	2.372429E-03	6.872606E-05
7.629195E+03	2.383170E-03	6.931283E-05
7.639116E+03	2.398416E-03	7.003733E-05
7.649037E+03	2.417940E-03	7.089449E-05
