#wls	flux	fluxerr
1.587349E+03	-1.241068E-05	-4.002767E-07
1.627033E+03	-1.230619E-05	-3.936935E-07
1.666716E+03	-1.215283E-05	-3.855424E-07
1.706400E+03	-1.195116E-05	-3.758818E-07
1.746084E+03	-1.170211E-05	-3.647833E-07
1.785767E+03	-1.140898E-05	-3.523917E-07
1.825451E+03	-1.106960E-05	-3.386835E-07
1.865135E+03	-1.069008E-05	-3.238893E-07
1.904819E+03	-1.027299E-05	-3.081288E-07
1.944502E+03	-9.819760E-06	-2.914863E-07
1.984186E+03	-9.334277E-06	-2.741176E-07
2.023870E+03	-8.822420E-06	-2.562331E-07
2.063553E+03	-8.287476E-06	-2.379623E-07
2.103237E+03	-7.737383E-06	-2.195637E-07
2.142921E+03	-7.175009E-06	-2.011435E-07
2.182605E+03	-6.607509E-06	-1.829235E-07
2.222288E+03	-6.040853E-06	-1.650833E-07
2.261972E+03	-5.481039E-06	-1.477951E-07
2.301656E+03	-4.933931E-06	-1.312186E-07
2.341340E+03	-4.405117E-06	-1.154971E-07
2.381023E+03	-3.900317E-06	-1.007685E-07
2.420707E+03	-3.423266E-06	-8.711022E-08
2.460391E+03	-2.977717E-06	-7.459351E-08
2.500074E+03	-2.566955E-06	-6.327075E-08
2.539758E+03	-2.192757E-06	-5.315116E-08
2.579442E+03	-1.855705E-06	-4.421109E-08
2.619126E+03	-1.556132E-06	-3.641861E-08
2.658809E+03	-1.293340E-06	-2.971600E-08
2.698493E+03	-1.065293E-06	-2.401516E-08
2.738177E+03	-8.700024E-07	-1.923114E-08
2.777860E+03	-7.048973E-07	-1.526860E-08
2.817544E+03	-5.668690E-07	-1.202423E-08
2.857228E+03	-4.528157E-07	-9.399420E-09
2.896912E+03	-3.596746E-07	-7.301125E-09
2.936595E+03	-2.844034E-07	-5.641604E-09
2.976279E+03	-2.241362E-07	-4.341577E-09
2.986200E+03	-2.111095E-07	-4.064521E-09
2.996121E+03	-1.988175E-07	-3.804537E-09
3.006042E+03	-1.872500E-07	-3.561179E-09
3.015963E+03	-1.763451E-07	-3.333032E-09
3.025884E+03	-1.660701E-07	-3.119256E-09
3.035805E+03	-1.563936E-07	-2.919045E-09
3.045726E+03	-1.473043E-07	-2.731987E-09
3.055646E+03	-1.387512E-07	-2.556940E-09
3.065567E+03	-1.307064E-07	-2.393204E-09
3.075488E+03	-1.231427E-07	-2.240112E-09
3.085409E+03	-1.160494E-07	-2.097300E-09
3.095330E+03	-1.093706E-07	-1.963604E-09
3.105251E+03	-1.031250E-07	-1.839210E-09
3.115172E+03	-9.724776E-08	-1.722819E-09
3.125093E+03	-9.173126E-08	-1.614168E-09
3.135014E+03	-8.656588E-08	-1.512962E-09
3.144935E+03	-8.171961E-08	-1.418522E-09
3.154856E+03	-7.718354E-08	-1.330582E-09
3.164777E+03	-7.291986E-08	-1.248384E-09
3.174698E+03	-6.893063E-08	-1.171869E-09
3.184619E+03	-6.519014E-08	-1.100503E-09
3.194540E+03	-6.169084E-08	-1.034074E-09
3.204460E+03	-5.840253E-08	-9.719924E-10
3.214381E+03	-5.532642E-08	-9.142035E-10
3.224302E+03	-5.244188E-08	-8.602932E-10
3.234223E+03	-4.974267E-08	-8.100918E-10
3.244144E+03	-4.720452E-08	-7.631410E-10
3.254065E+03	-4.482819E-08	-7.193955E-10
3.263986E+03	-4.260214E-08	-6.786136E-10
3.273907E+03	-4.050567E-08	-6.404145E-10
3.283828E+03	-3.853916E-08	-6.047580E-10
3.293749E+03	-3.668823E-08	-5.713734E-10
3.303670E+03	-3.494391E-08	-5.400809E-10
3.313591E+03	-3.329757E-08	-5.107102E-10
3.323512E+03	-3.174449E-08	-4.831541E-10
3.333433E+03	-3.027227E-08	-4.571919E-10
3.343353E+03	-2.887608E-08	-4.327226E-10
3.353274E+03	-2.754079E-08	-4.094935E-10
3.363195E+03	-2.626472E-08	-3.874583E-10
3.373116E+03	-2.503599E-08	-3.664214E-10
3.383037E+03	-2.384574E-08	-3.462374E-10
3.392958E+03	-2.268730E-08	-3.267957E-10
3.402879E+03	-2.154781E-08	-3.079009E-10
3.412800E+03	-2.041646E-08	-2.893924E-10
3.422721E+03	-1.928137E-08	-2.710993E-10
3.432642E+03	-1.813133E-08	-2.528657E-10
3.442563E+03	-1.694905E-08	-2.344562E-10
3.452484E+03	-1.571748E-08	-2.156465E-10
3.462405E+03	-1.441698E-08	-1.961846E-10
3.472326E+03	-1.302627E-08	-1.758046E-10
3.482246E+03	-1.151707E-08	-1.541563E-10
3.492167E+03	-9.858401E-09	-1.308655E-10
3.502088E+03	-8.014892E-09	-1.055133E-10
3.512009E+03	-5.942206E-09	-7.757832E-11
3.521930E+03	-3.592556E-09	-4.651283E-11
3.531851E+03	-9.081639E-10	-1.166016E-11
3.541772E+03	2.176670E-09	2.771401E-11
3.551693E+03	5.735923E-09	7.242251E-11
3.561614E+03	9.853260E-09	1.233706E-10
3.571535E+03	1.462545E-08	1.815943E-10
3.581456E+03	2.016872E-08	2.483323E-10
3.591377E+03	2.662778E-08	3.251279E-10
3.601298E+03	3.417397E-08	4.137928E-10
3.611219E+03	4.301607E-08	5.165256E-10
3.621140E+03	5.340485E-08	6.359495E-10
3.631060E+03	6.564745E-08	7.752637E-10
3.640981E+03	8.009893E-08	9.381204E-10
3.650902E+03	9.718872E-08	1.128913E-09
3.660823E+03	1.174293E-07	1.352846E-09
3.670744E+03	1.414322E-07	1.616084E-09
3.680665E+03	1.699435E-07	1.926116E-09
3.690586E+03	2.038220E-07	2.291458E-09
3.700507E+03	2.441048E-07	2.722343E-09
3.710428E+03	2.920270E-07	3.230876E-09
3.720349E+03	3.490936E-07	3.831750E-09
3.730270E+03	4.170305E-07	4.541622E-09
3.740191E+03	4.979181E-07	5.380480E-09
3.750112E+03	5.942249E-07	6.371894E-09
3.760033E+03	7.088787E-07	7.543646E-09
3.769953E+03	8.454288E-07	8.929306E-09
3.779874E+03	1.007821E-06	1.056569E-08
3.789795E+03	1.201061E-06	1.249964E-08
3.799716E+03	1.430738E-06	1.478286E-08
3.809637E+03	1.703518E-06	1.747677E-08
3.819558E+03	2.027411E-06	2.065498E-08
3.829479E+03	2.411208E-06	2.439729E-08
3.839400E+03	2.866022E-06	2.880505E-08
3.849321E+03	3.404120E-06	3.398886E-08
3.859242E+03	4.039978E-06	4.007885E-08
3.869163E+03	4.790373E-06	4.722491E-08
3.879084E+03	5.674699E-06	5.559944E-08
3.889005E+03	6.715937E-06	6.540623E-08
3.898926E+03	7.938639E-06	7.686019E-08
3.908846E+03	9.373655E-06	9.023268E-08
3.918767E+03	1.105406E-05	1.058111E-07
3.928688E+03	1.301822E-05	1.239281E-07
3.938609E+03	1.530971E-05	1.449593E-07
3.948530E+03	1.797778E-05	1.693270E-07
3.958451E+03	2.107792E-05	1.975049E-07
3.968372E+03	2.467464E-05	2.300425E-07
3.978293E+03	2.883351E-05	2.674895E-07
3.988214E+03	3.363695E-05	3.105425E-07
3.998135E+03	3.916538E-05	3.598677E-07
4.008056E+03	4.552023E-05	4.163131E-07
4.017977E+03	5.280287E-05	4.807121E-07
4.027898E+03	6.112193E-05	5.539508E-07
4.037819E+03	7.061131E-05	6.371290E-07
4.047740E+03	8.140031E-05	7.312880E-07
4.057660E+03	9.363286E-05	8.375832E-07
4.067581E+03	1.074626E-04	9.572378E-07
4.077502E+03	1.230525E-04	1.091539E-06
4.087423E+03	1.405740E-04	1.241827E-06
4.097344E+03	1.602063E-04	1.409489E-06
4.107265E+03	1.821346E-04	1.595942E-06
4.117186E+03	2.065488E-04	1.802620E-06
4.127107E+03	2.336416E-04	2.030954E-06
4.137028E+03	2.636056E-04	2.282351E-06
4.146949E+03	2.966311E-04	2.558173E-06
4.156870E+03	3.329025E-04	2.859700E-06
4.166791E+03	3.725947E-04	3.188110E-06
4.176712E+03	4.158698E-04	3.544440E-06
4.186633E+03	4.628720E-04	3.929553E-06
4.196553E+03	5.137237E-04	4.344103E-06
4.206474E+03	5.685202E-04	4.788493E-06
4.216395E+03	6.273252E-04	5.262840E-06
4.226316E+03	6.901096E-04	5.766468E-06
4.236237E+03	7.569648E-04	6.299701E-06
4.246158E+03	8.277110E-04	6.860589E-06
4.256079E+03	9.023619E-04	7.448792E-06
4.266000E+03	9.806073E-04	8.061296E-06
4.275921E+03	1.062282E-03	8.696300E-06
4.285842E+03	1.147180E-03	9.351684E-06
4.295763E+03	1.234765E-03	1.002265E-05
4.305684E+03	1.324584E-03	1.070515E-05
4.315605E+03	1.416341E-03	1.139646E-05
4.325526E+03	1.509385E-03	1.209100E-05
4.335446E+03	1.602990E-03	1.278272E-05
4.345367E+03	1.696775E-03	1.346839E-05
4.355288E+03	1.789856E-03	1.414085E-05
4.365209E+03	1.881741E-03	1.479616E-05
4.375130E+03	1.971833E-03	1.542962E-05
4.385051E+03	2.059426E-03	1.603577E-05
4.394972E+03	2.144334E-03	1.661332E-05
4.404893E+03	2.225786E-03	1.715648E-05
4.414814E+03	2.303545E-03	1.766368E-05
4.424735E+03	2.377251E-03	1.813248E-05
4.434656E+03	2.446598E-03	1.856091E-05
4.444577E+03	2.511126E-03	1.894591E-05
4.454498E+03	2.570796E-03	1.928767E-05
4.464419E+03	2.625630E-03	1.958685E-05
4.474340E+03	2.674913E-03	1.983868E-05
4.484260E+03	2.719151E-03	2.004751E-05
4.494181E+03	2.757911E-03	2.021076E-05
4.504102E+03	2.791401E-03	2.033062E-05
4.514023E+03	2.819676E-03	2.040814E-05
4.523944E+03	2.842826E-03	2.044465E-05
4.533865E+03	2.860774E-03	2.044028E-05
4.543786E+03	2.873894E-03	2.039840E-05
4.553707E+03	2.882389E-03	2.032114E-05
4.563628E+03	2.886496E-03	2.021083E-05
4.573549E+03	2.886269E-03	2.006850E-05
4.583470E+03	2.882205E-03	1.989824E-05
4.593391E+03	2.874406E-03	1.970135E-05
4.603312E+03	2.863611E-03	1.948348E-05
4.613233E+03	2.849756E-03	1.924469E-05
4.623153E+03	2.833208E-03	1.898797E-05
4.633074E+03	2.814750E-03	1.871901E-05
4.642995E+03	2.794376E-03	1.843813E-05
4.652916E+03	2.772692E-03	1.814969E-05
4.662837E+03	2.749913E-03	1.785537E-05
4.672758E+03	2.726624E-03	1.755920E-05
4.682679E+03	2.703155E-03	1.726344E-05
4.692600E+03	2.679713E-03	1.696954E-05
4.702521E+03	2.656178E-03	1.667682E-05
4.712442E+03	2.632730E-03	1.638653E-05
4.722363E+03	2.609146E-03	1.609735E-05
4.732284E+03	2.585576E-03	1.581034E-05
4.742205E+03	2.562003E-03	1.552549E-05
4.752126E+03	2.538424E-03	1.524286E-05
4.762046E+03	2.514675E-03	1.496159E-05
4.771967E+03	2.490788E-03	1.468199E-05
4.781888E+03	2.467137E-03	1.440638E-05
4.791809E+03	2.443415E-03	1.413302E-05
4.801730E+03	2.419670E-03	1.386231E-05
4.811651E+03	2.396270E-03	1.359644E-05
4.821572E+03	2.372926E-03	1.333382E-05
4.831493E+03	2.349680E-03	1.307476E-05
4.841414E+03	2.326735E-03	1.282035E-05
4.851335E+03	2.304141E-03	1.257075E-05
4.861256E+03	2.281796E-03	1.232531E-05
4.871177E+03	2.259901E-03	1.208502E-05
4.881098E+03	2.238497E-03	1.184997E-05
4.891019E+03	2.217468E-03	1.161946E-05
4.900940E+03	2.196995E-03	1.139431E-05
4.910860E+03	2.177099E-03	1.117454E-05
4.920781E+03	2.157660E-03	1.095943E-05
4.930702E+03	2.138835E-03	1.074968E-05
4.940623E+03	2.120495E-03	1.054457E-05
4.950544E+03	2.102792E-03	1.034476E-05
4.960465E+03	2.085590E-03	1.014950E-05
4.970386E+03	2.069165E-03	9.960073E-06
4.980307E+03	2.053108E-03	9.774441E-06
4.990228E+03	2.037825E-03	9.594494E-06
5.000149E+03	2.023039E-03	9.418869E-06
5.010070E+03	2.008747E-03	9.247536E-06
5.019991E+03	1.995203E-03	9.081644E-06
5.029912E+03	1.982006E-03	8.919352E-06
5.039833E+03	1.969536E-03	8.762380E-06
5.049753E+03	1.957523E-03	8.609533E-06
5.059674E+03	1.946085E-03	8.461362E-06
5.069595E+03	1.935079E-03	8.317297E-06
5.079516E+03	1.924621E-03	8.177893E-06
5.089437E+03	1.914572E-03	8.042638E-06
5.099358E+03	1.905167E-03	7.912602E-06
5.109279E+03	1.896019E-03	7.786280E-06
5.119200E+03	1.887485E-03	7.665269E-06
5.129121E+03	1.879302E-03	7.548627E-06
5.139042E+03	1.871457E-03	7.436465E-06
5.148963E+03	1.864056E-03	7.329382E-06
5.158884E+03	1.857080E-03	7.227484E-06
5.168805E+03	1.850515E-03	7.130910E-06
5.178726E+03	1.844223E-03	7.039351E-06
5.188646E+03	1.838305E-03	6.953422E-06
5.198567E+03	1.832629E-03	6.872865E-06
5.208488E+03	1.827290E-03	6.798296E-06
5.218409E+03	1.822154E-03	6.729480E-06
5.228330E+03	1.817435E-03	6.667469E-06
5.238251E+03	1.812765E-03	6.611188E-06
5.248172E+03	1.808468E-03	6.562092E-06
5.258093E+03	1.804295E-03	6.519540E-06
5.268014E+03	1.800339E-03	6.484132E-06
5.277935E+03	1.796463E-03	6.455628E-06
5.287856E+03	1.792758E-03	6.434583E-06
5.297777E+03	1.789202E-03	6.421136E-06
5.307698E+03	1.785659E-03	6.414992E-06
5.317619E+03	1.782216E-03	6.416583E-06
5.327540E+03	1.778849E-03	6.425623E-06
5.337460E+03	1.775415E-03	6.441268E-06
5.347381E+03	1.771991E-03	6.463439E-06
5.357302E+03	1.768424E-03	6.491206E-06
5.367223E+03	1.764893E-03	6.524835E-06
5.377144E+03	1.761127E-03	6.562932E-06
5.387065E+03	1.757085E-03	6.604918E-06
5.396986E+03	1.752835E-03	6.650630E-06
5.406907E+03	1.748338E-03	6.699499E-06
5.416828E+03	1.743560E-03	6.750977E-06
5.426749E+03	1.738363E-03	6.804099E-06
5.436670E+03	1.732831E-03	6.858783E-06
5.446591E+03	1.726844E-03	6.914134E-06
5.456512E+03	1.720613E-03	6.970599E-06
5.466433E+03	1.713931E-03	7.026967E-06
5.476353E+03	1.706817E-03	7.082931E-06
5.486274E+03	1.699405E-03	7.138694E-06
5.496195E+03	1.691725E-03	7.194051E-06
5.506116E+03	1.683812E-03	7.248854E-06
5.516037E+03	1.675598E-03	7.302517E-06
5.525958E+03	1.667332E-03	7.355867E-06
5.535879E+03	1.658743E-03	7.407468E-06
5.545800E+03	1.650182E-03	7.458665E-06
5.555721E+03	1.641486E-03	7.508534E-06
5.565642E+03	1.632797E-03	7.557547E-06
5.575563E+03	1.624053E-03	7.605275E-06
5.585484E+03	1.615497E-03	7.652712E-06
5.595405E+03	1.606963E-03	7.698982E-06
5.605326E+03	1.598588E-03	7.744639E-06
5.615246E+03	1.590308E-03	7.789297E-06
5.625167E+03	1.582254E-03	7.833540E-06
5.635088E+03	1.574455E-03	7.877467E-06
5.645009E+03	1.566939E-03	7.921197E-06
5.654930E+03	1.559635E-03	7.964351E-06
5.664851E+03	1.552661E-03	8.007526E-06
5.674772E+03	1.546037E-03	8.050833E-06
5.684693E+03	1.539784E-03	8.094392E-06
5.694614E+03	1.533819E-03	8.137802E-06
5.704535E+03	1.528249E-03	8.181653E-06
5.714456E+03	1.523088E-03	8.226054E-06
5.724377E+03	1.518342E-03	8.271086E-06
5.734298E+03	1.513921E-03	8.316312E-06
5.744219E+03	1.510018E-03	8.362835E-06
5.754140E+03	1.506350E-03	8.409157E-06
5.764060E+03	1.503198E-03	8.456886E-06
5.773981E+03	1.500464E-03	8.505548E-06
5.783902E+03	1.498050E-03	8.554642E-06
5.793823E+03	1.496041E-03	8.604722E-06
5.803744E+03	1.494426E-03	8.655788E-06
5.813665E+03	1.493103E-03	8.707319E-06
5.823586E+03	1.492242E-03	8.760368E-06
5.833507E+03	1.491644E-03	8.813849E-06
5.843428E+03	1.491387E-03	8.868276E-06
5.853349E+03	1.491451E-03	8.923607E-06
5.863270E+03	1.491726E-03	8.979247E-06
5.873191E+03	1.492284E-03	9.035702E-06
5.883112E+03	1.493198E-03	9.093477E-06
5.893033E+03	1.494258E-03	9.151380E-06
5.902953E+03	1.495442E-03	9.209330E-06
5.912874E+03	1.496912E-03	9.268394E-06
5.922795E+03	1.498457E-03	9.327343E-06
5.932716E+03	1.500238E-03	9.387242E-06
5.942637E+03	1.502044E-03	9.446842E-06
5.952558E+03	1.503938E-03	9.506616E-06
5.962479E+03	1.505802E-03	9.565874E-06
5.972400E+03	1.507794E-03	9.625693E-06
5.982321E+03	1.509701E-03	9.684785E-06
5.992242E+03	1.511585E-03	9.743616E-06
6.002163E+03	1.513423E-03	9.802097E-06
6.012084E+03	1.515185E-03	9.860111E-06
6.022005E+03	1.516844E-03	9.917550E-06
6.031926E+03	1.518374E-03	9.974307E-06
6.041846E+03	1.519656E-03	1.002968E-05
6.051767E+03	1.520761E-03	1.008417E-05
6.061688E+03	1.521760E-03	1.013834E-05
6.071609E+03	1.522444E-03	1.019085E-05
6.081530E+03	1.522883E-03	1.024224E-05
6.091451E+03	1.522960E-03	1.029176E-05
6.101372E+03	1.522836E-03	1.034055E-05
6.111293E+03	1.522282E-03	1.038713E-05
6.121214E+03	1.521436E-03	1.043248E-05
6.131135E+03	1.520048E-03	1.047492E-05
6.141056E+03	1.518158E-03	1.051475E-05
6.150977E+03	1.515760E-03	1.055197E-05
6.160898E+03	1.512903E-03	1.058691E-05
6.170819E+03	1.509659E-03	1.062006E-05
6.180740E+03	1.505997E-03	1.065110E-05
6.190660E+03	1.502156E-03	1.068159E-05
6.200581E+03	1.497985E-03	1.071039E-05
6.210502E+03	1.493702E-03	1.073894E-05
6.220423E+03	1.489147E-03	1.076600E-05
6.230344E+03	1.484439E-03	1.079234E-05
6.240265E+03	1.479600E-03	1.081803E-05
6.250186E+03	1.474658E-03	1.084318E-05
6.260107E+03	1.469632E-03	1.086787E-05
6.270028E+03	1.464456E-03	1.089151E-05
6.279949E+03	1.459337E-03	1.091557E-05
6.289870E+03	1.454203E-03	1.093945E-05
6.299791E+03	1.448984E-03	1.096256E-05
6.309712E+03	1.443883E-03	1.098636E-05
6.319633E+03	1.438735E-03	1.100956E-05
6.329553E+03	1.433647E-03	1.103290E-05
6.339474E+03	1.428634E-03	1.105646E-05
6.349395E+03	1.423709E-03	1.108029E-05
6.359316E+03	1.418883E-03	1.110444E-05
6.369237E+03	1.414164E-03	1.112892E-05
6.379158E+03	1.409562E-03	1.115379E-05
6.389079E+03	1.405080E-03	1.117904E-05
6.399000E+03	1.400727E-03	1.120470E-05
6.408921E+03	1.396503E-03	1.123076E-05
6.418842E+03	1.392323E-03	1.125650E-05
6.428763E+03	1.388368E-03	1.128334E-05
6.438684E+03	1.384459E-03	1.130984E-05
6.448605E+03	1.380773E-03	1.133739E-05
6.458526E+03	1.377134E-03	1.136455E-05
6.468446E+03	1.373715E-03	1.139273E-05
6.478367E+03	1.370341E-03	1.142046E-05
6.488288E+03	1.367097E-03	1.144842E-05
6.498209E+03	1.363983E-03	1.147661E-05
6.508130E+03	1.361083E-03	1.150572E-05
6.518051E+03	1.358222E-03	1.153427E-05
6.527972E+03	1.355487E-03	1.156298E-05
6.537893E+03	1.352876E-03	1.159182E-05
6.547814E+03	1.350389E-03	1.162079E-05
6.557735E+03	1.348027E-03	1.164989E-05
6.567656E+03	1.345791E-03	1.167913E-05
6.577577E+03	1.343682E-03	1.170851E-05
6.587498E+03	1.341703E-03	1.173805E-05
6.597419E+03	1.339771E-03	1.176703E-05
6.607340E+03	1.338063E-03	1.179699E-05
6.617260E+03	1.336496E-03	1.182722E-05
6.627181E+03	1.335077E-03	1.185778E-05
6.637102E+03	1.333726E-03	1.188795E-05
6.647023E+03	1.332622E-03	1.191935E-05
6.656944E+03	1.331687E-03	1.195128E-05
6.666865E+03	1.330843E-03	1.198306E-05
6.676786E+03	1.330272E-03	1.201633E-05
6.686707E+03	1.329811E-03	1.204963E-05
6.696628E+03	1.329644E-03	1.208464E-05
6.706549E+03	1.329608E-03	1.211990E-05
6.716470E+03	1.329887E-03	1.215709E-05
6.726391E+03	1.330319E-03	1.219477E-05
6.736312E+03	1.331090E-03	1.223464E-05
6.746233E+03	1.332037E-03	1.227525E-05
6.756153E+03	1.333259E-03	1.231750E-05
6.766074E+03	1.334852E-03	1.236233E-05
6.775995E+03	1.336656E-03	1.240826E-05
6.785916E+03	1.338766E-03	1.245620E-05
6.795837E+03	1.341281E-03	1.250711E-05
6.805758E+03	1.344034E-03	1.255945E-05
6.815679E+03	1.347121E-03	1.261415E-05
6.825600E+03	1.350549E-03	1.267130E-05
6.835521E+03	1.354325E-03	1.273100E-05
6.845442E+03	1.358544E-03	1.279415E-05
6.855363E+03	1.363031E-03	1.285917E-05
6.865284E+03	1.367878E-03	1.292693E-05
6.875205E+03	1.373086E-03	1.299749E-05
6.885126E+03	1.378655E-03	1.307087E-05
6.895046E+03	1.384584E-03	1.314710E-05
6.904967E+03	1.390870E-03	1.322617E-05
6.914888E+03	1.397506E-03	1.330809E-05
6.924809E+03	1.404489E-03	1.339282E-05
6.934730E+03	1.411715E-03	1.347944E-05
6.944651E+03	1.419361E-03	1.356967E-05
6.954572E+03	1.427323E-03	1.366255E-05
6.964493E+03	1.435589E-03	1.375800E-05
6.974414E+03	1.444144E-03	1.385593E-05
6.984335E+03	1.452875E-03	1.395531E-05
6.994256E+03	1.461956E-03	1.405785E-05
7.004177E+03	1.471273E-03	1.416250E-05
7.014098E+03	1.480707E-03	1.426817E-05
7.024019E+03	1.490431E-03	1.437658E-05
7.033940E+03	1.500225E-03	1.448565E-05
7.043860E+03	1.510263E-03	1.459714E-05
7.053781E+03	1.520318E-03	1.470891E-05
7.063702E+03	1.530564E-03	1.482270E-05
7.073623E+03	1.540771E-03	1.493636E-05
7.083544E+03	1.551009E-03	1.505063E-05
7.093465E+03	1.561248E-03	1.516529E-05
7.103386E+03	1.571560E-03	1.528112E-05
7.113307E+03	1.581705E-03	1.539587E-05
7.123228E+03	1.591755E-03	1.551030E-05
7.133149E+03	1.601671E-03	1.562414E-05
7.143070E+03	1.611421E-03	1.573715E-05
7.152991E+03	1.620969E-03	1.584906E-05
7.162912E+03	1.630277E-03	1.595960E-05
7.172833E+03	1.639200E-03	1.606744E-05
7.182753E+03	1.647918E-03	1.617442E-05
7.192674E+03	1.656282E-03	1.627920E-05
7.202595E+03	1.664146E-03	1.638042E-05
7.212516E+03	1.671689E-03	1.647994E-05
7.222437E+03	1.678653E-03	1.657531E-05
7.232358E+03	1.685219E-03	1.666842E-05
7.242279E+03	1.691126E-03	1.675675E-05
7.252200E+03	1.696446E-03	1.684113E-05
7.262121E+03	1.701142E-03	1.692126E-05
7.272042E+03	1.705174E-03	1.699683E-05
7.281963E+03	1.708508E-03	1.706757E-05
7.291884E+03	1.711106E-03	1.713318E-05
7.301805E+03	1.712934E-03	1.719337E-05
7.311726E+03	1.713961E-03	1.724790E-05
7.321646E+03	1.714038E-03	1.729529E-05
7.331567E+03	1.713373E-03	1.733769E-05
7.341488E+03	1.711708E-03	1.737251E-05
7.351409E+03	1.709253E-03	1.740189E-05
7.361330E+03	1.705762E-03	1.742334E-05
7.371251E+03	1.701333E-03	1.743785E-05
7.381172E+03	1.695961E-03	1.744533E-05
7.391093E+03	1.689634E-03	1.744563E-05
7.401014E+03	1.682344E-03	1.743862E-05
7.410935E+03	1.674068E-03	1.742399E-05
7.420856E+03	1.664772E-03	1.740129E-05
7.430777E+03	1.654277E-03	1.736855E-05
7.440698E+03	1.642723E-03	1.732711E-05
7.450619E+03	1.629821E-03	1.727374E-05
7.460540E+03	1.615715E-03	1.720972E-05
7.470460E+03	1.600536E-03	1.713611E-05
7.480381E+03	1.584447E-03	1.705436E-05
7.490302E+03	1.567588E-03	1.696565E-05
7.500223E+03	1.550065E-03	1.687086E-05
7.510144E+03	1.531853E-03	1.676942E-05
7.520065E+03	1.513233E-03	1.666412E-05
7.529986E+03	1.494053E-03	1.655304E-05
7.539907E+03	1.474577E-03	1.643885E-05
7.549828E+03	1.454653E-03	1.631961E-05
7.559749E+03	1.434436E-03	1.619680E-05
7.569670E+03	1.413878E-03	1.606965E-05
7.579591E+03	1.393228E-03	1.594076E-05
7.589512E+03	1.372430E-03	1.580933E-05
7.599433E+03	1.351437E-03	1.567458E-05
7.609353E+03	1.330387E-03	1.553794E-05
7.619274E+03	1.309410E-03	1.540077E-05
7.629195E+03	1.288359E-03	1.526119E-05
7.639116E+03	1.267271E-03	1.511948E-05
7.649037E+03	1.246356E-03	1.497800E-05
