#wls	flux	fluxerr
1.568627E+03	6.179279E-04	1.112591E-05
1.607843E+03	6.316014E-04	1.136018E-05
1.647059E+03	6.462934E-04	1.161196E-05
1.686275E+03	6.619645E-04	1.188045E-05
1.725490E+03	6.788251E-04	1.216935E-05
1.764706E+03	6.968288E-04	1.247773E-05
1.803922E+03	7.160521E-04	1.280685E-05
1.843137E+03	7.366890E-04	1.316008E-05
1.882353E+03	7.586833E-04	1.353629E-05
1.921569E+03	7.821588E-04	1.393755E-05
1.960784E+03	8.071144E-04	1.436372E-05
2.000000E+03	8.336671E-04	1.481673E-05
2.039216E+03	8.616927E-04	1.529422E-05
2.078431E+03	8.911318E-04	1.579499E-05
2.117647E+03	9.218698E-04	1.631686E-05
2.156863E+03	9.535163E-04	1.685279E-05
2.196078E+03	9.856412E-04	1.739506E-05
2.235294E+03	1.018060E-03	1.794035E-05
2.274510E+03	1.050821E-03	1.848941E-05
2.313725E+03	1.084576E-03	1.905361E-05
2.352941E+03	1.119845E-03	1.964197E-05
2.392157E+03	1.157089E-03	2.026235E-05
2.431373E+03	1.196861E-03	2.092420E-05
2.470588E+03	1.239391E-03	2.163127E-05
2.509804E+03	1.285018E-03	2.238915E-05
2.549020E+03	1.333985E-03	2.320171E-05
2.588235E+03	1.386591E-03	2.407378E-05
2.627451E+03	1.443000E-03	2.500778E-05
2.666667E+03	1.503395E-03	2.600644E-05
2.705882E+03	1.567933E-03	2.707202E-05
2.745098E+03	1.636750E-03	2.820636E-05
2.784314E+03	1.710011E-03	2.941179E-05
2.823529E+03	1.788003E-03	3.069269E-05
2.862745E+03	1.871134E-03	3.205551E-05
2.901961E+03	1.960017E-03	3.351007E-05
2.941176E+03	2.055412E-03	3.506864E-05
2.950980E+03	2.080431E-03	3.547706E-05
2.960784E+03	2.105878E-03	3.589225E-05
2.970588E+03	2.131847E-03	3.631585E-05
2.980392E+03	2.158294E-03	3.674706E-05
2.990196E+03	2.185268E-03	3.718670E-05
3.000000E+03	2.212818E-03	3.763560E-05
3.009804E+03	2.240850E-03	3.809214E-05
3.019608E+03	2.269507E-03	3.855874E-05
3.029412E+03	2.298695E-03	3.903378E-05
3.039216E+03	2.328508E-03	3.951882E-05
3.049020E+03	2.358897E-03	4.001306E-05
3.058824E+03	2.389862E-03	4.051643E-05
3.068627E+03	2.421495E-03	4.103051E-05
3.078431E+03	2.453698E-03	4.155359E-05
3.088235E+03	2.486608E-03	4.208799E-05
3.098039E+03	2.520080E-03	4.263124E-05
3.107843E+03	2.554248E-03	4.318558E-05
3.117647E+03	2.589011E-03	4.374926E-05
3.127451E+03	2.624454E-03	4.432374E-05
3.137255E+03	2.660520E-03	4.490802E-05
3.147059E+03	2.697243E-03	4.550264E-05
3.156863E+03	2.734610E-03	4.610738E-05
3.166667E+03	2.772605E-03	4.672193E-05
3.176471E+03	2.811163E-03	4.734520E-05
3.186275E+03	2.850358E-03	4.797841E-05
3.196078E+03	2.890119E-03	4.862036E-05
3.205882E+03	2.930471E-03	4.927141E-05
3.215686E+03	2.971339E-03	4.993031E-05
3.225490E+03	3.012692E-03	5.059653E-05
3.235294E+03	3.054546E-03	5.127032E-05
3.245098E+03	3.096819E-03	5.195027E-05
3.254902E+03	3.139520E-03	5.263653E-05
3.264706E+03	3.182610E-03	5.332845E-05
3.274510E+03	3.225957E-03	5.402379E-05
3.284314E+03	3.269611E-03	5.472338E-05
3.294118E+03	3.313483E-03	5.542573E-05
3.303922E+03	3.357534E-03	5.613014E-05
3.313725E+03	3.401719E-03	5.683592E-05
3.323529E+03	3.445911E-03	5.754090E-05
3.333333E+03	3.490167E-03	5.824603E-05
3.343137E+03	3.534415E-03	5.895013E-05
3.352941E+03	3.578589E-03	5.965210E-05
3.362745E+03	3.622682E-03	6.035179E-05
3.372549E+03	3.666699E-03	6.104931E-05
3.382353E+03	3.710571E-03	6.174354E-05
3.392157E+03	3.754390E-03	6.243596E-05
3.401961E+03	3.798129E-03	6.312617E-05
3.411765E+03	3.841889E-03	6.381581E-05
3.421569E+03	3.885748E-03	6.450621E-05
3.431373E+03	3.929825E-03	6.519933E-05
3.441176E+03	3.974276E-03	6.589774E-05
3.450980E+03	4.019290E-03	6.660458E-05
3.460784E+03	4.065051E-03	6.732287E-05
3.470588E+03	4.111771E-03	6.805609E-05
3.480392E+03	4.159729E-03	6.880885E-05
3.490196E+03	4.209169E-03	6.958513E-05
3.500000E+03	4.260368E-03	7.038949E-05
3.509804E+03	4.313489E-03	7.122453E-05
3.519608E+03	4.368733E-03	7.209356E-05
3.529412E+03	4.426199E-03	7.299811E-05
3.539216E+03	4.486004E-03	7.394005E-05
3.549020E+03	4.548065E-03	7.491797E-05
3.558824E+03	4.612334E-03	7.593101E-05
3.568627E+03	4.678586E-03	7.697538E-05
3.578431E+03	4.746707E-03	7.804917E-05
3.588235E+03	4.816530E-03	7.914958E-05
3.598039E+03	4.887894E-03	8.027393E-05
3.607843E+03	4.960706E-03	8.142062E-05
3.617647E+03	5.034891E-03	8.258842E-05
3.627451E+03	5.110366E-03	8.377590E-05
3.637255E+03	5.187168E-03	8.498365E-05
3.647059E+03	5.265281E-03	8.621136E-05
3.656863E+03	5.344860E-03	8.746155E-05
3.666667E+03	5.426004E-03	8.873579E-05
3.676471E+03	5.508841E-03	9.003614E-05
3.686275E+03	5.593580E-03	9.136594E-05
3.696078E+03	5.680502E-03	9.272976E-05
3.705882E+03	5.769818E-03	9.413098E-05
3.715686E+03	5.861853E-03	9.557482E-05
3.725490E+03	5.956850E-03	9.706517E-05
3.735294E+03	6.055103E-03	9.860676E-05
3.745098E+03	6.156958E-03	1.002051E-04
3.754902E+03	6.262743E-03	1.018655E-04
3.764706E+03	6.372651E-03	1.035908E-04
3.774510E+03	6.486976E-03	1.053859E-04
3.784314E+03	6.605715E-03	1.072506E-04
3.794118E+03	6.729022E-03	1.091871E-04
3.803922E+03	6.856622E-03	1.111909E-04
3.813725E+03	6.988328E-03	1.132590E-04
3.823529E+03	7.123501E-03	1.153808E-04
3.833333E+03	7.261350E-03	1.175434E-04
3.843137E+03	7.400738E-03	1.197285E-04
3.852941E+03	7.540286E-03	1.219136E-04
3.862745E+03	7.678256E-03	1.240706E-04
3.872549E+03	7.812764E-03	1.261693E-04
3.882353E+03	7.941523E-03	1.281729E-04
3.892157E+03	8.062229E-03	1.300443E-04
3.901961E+03	8.172467E-03	1.317448E-04
3.911765E+03	8.270061E-03	1.332398E-04
3.921569E+03	8.352905E-03	1.344956E-04
3.931373E+03	8.419259E-03	1.354848E-04
3.941176E+03	8.467828E-03	1.361870E-04
3.950980E+03	8.498027E-03	1.365932E-04
3.960784E+03	8.509651E-03	1.367008E-04
3.970588E+03	8.503287E-03	1.365196E-04
3.980392E+03	8.479869E-03	1.360652E-04
3.990196E+03	8.440912E-03	1.353623E-04
4.000000E+03	8.388288E-03	1.344415E-04
4.009804E+03	8.324022E-03	1.333354E-04
4.019608E+03	8.250272E-03	1.320790E-04
4.029412E+03	8.169234E-03	1.307076E-04
4.039216E+03	8.083155E-03	1.292574E-04
4.049020E+03	7.993950E-03	1.277592E-04
4.058824E+03	7.903497E-03	1.262430E-04
4.068627E+03	7.813340E-03	1.247334E-04
4.078431E+03	7.724916E-03	1.232535E-04
4.088235E+03	7.639441E-03	1.218225E-04
4.098039E+03	7.557786E-03	1.204543E-04
4.107843E+03	7.480737E-03	1.191612E-04
4.117647E+03	7.408768E-03	1.179507E-04
4.127451E+03	7.342288E-03	1.168292E-04
4.137255E+03	7.281433E-03	1.157987E-04
4.147059E+03	7.226307E-03	1.148606E-04
4.156863E+03	7.176769E-03	1.140127E-04
4.166667E+03	7.132626E-03	1.132516E-04
4.176471E+03	7.093527E-03	1.125718E-04
4.186275E+03	7.059153E-03	1.119679E-04
4.196078E+03	7.029007E-03	1.114321E-04
4.205882E+03	7.002593E-03	1.109564E-04
4.215686E+03	6.979317E-03	1.105312E-04
4.225490E+03	6.958561E-03	1.101467E-04
4.235294E+03	6.939743E-03	1.097937E-04
4.245098E+03	6.922284E-03	1.094629E-04
4.254902E+03	6.905572E-03	1.091446E-04
4.264706E+03	6.889096E-03	1.088309E-04
4.274510E+03	6.872390E-03	1.085142E-04
4.284314E+03	6.855278E-03	1.081919E-04
4.294118E+03	6.837862E-03	1.078656E-04
4.303922E+03	6.820800E-03	1.075455E-04
4.313725E+03	6.804387E-03	1.072364E-04
4.323529E+03	6.788861E-03	1.069421E-04
4.333333E+03	6.774749E-03	1.066707E-04
4.343137E+03	6.762923E-03	1.064360E-04
4.352941E+03	6.754161E-03	1.062501E-04
4.362745E+03	6.749253E-03	1.061254E-04
4.372549E+03	6.748949E-03	1.060737E-04
4.382353E+03	6.753803E-03	1.061035E-04
4.392157E+03	6.764204E-03	1.062208E-04
4.401961E+03	6.780292E-03	1.064277E-04
4.411765E+03	6.802119E-03	1.067250E-04
4.421569E+03	6.829398E-03	1.071080E-04
4.431373E+03	6.861673E-03	1.075694E-04
4.441176E+03	6.898247E-03	1.080983E-04
4.450980E+03	6.938078E-03	1.086783E-04
4.460784E+03	6.980075E-03	1.092921E-04
4.470588E+03	7.022831E-03	1.099179E-04
4.480392E+03	7.064834E-03	1.105319E-04
4.490196E+03	7.104335E-03	1.111067E-04
4.500000E+03	7.139708E-03	1.116171E-04
4.509804E+03	7.169153E-03	1.120349E-04
4.519608E+03	7.191145E-03	1.123366E-04
4.529412E+03	7.204138E-03	1.124980E-04
4.539216E+03	7.206953E-03	1.125009E-04
4.549020E+03	7.198663E-03	1.123310E-04
4.558824E+03	7.178832E-03	1.119818E-04
4.568627E+03	7.147240E-03	1.114499E-04
4.578431E+03	7.104273E-03	1.107417E-04
4.588235E+03	7.050605E-03	1.098677E-04
4.598039E+03	6.987308E-03	1.088448E-04
4.607843E+03	6.915938E-03	1.076974E-04
4.617647E+03	6.838184E-03	1.064519E-04
4.627451E+03	6.756031E-03	1.051393E-04
4.637255E+03	6.670814E-03	1.037804E-04
4.647059E+03	6.583033E-03	1.023829E-04
4.656863E+03	6.492949E-03	1.009511E-04
4.666667E+03	6.401235E-03	9.949520E-05
4.676471E+03	6.308655E-03	9.802725E-05
4.686275E+03	6.216248E-03	9.656334E-05
4.696078E+03	6.125035E-03	9.511927E-05
4.705882E+03	6.036128E-03	9.371229E-05
4.715686E+03	5.950617E-03	9.235926E-05
4.725490E+03	5.869517E-03	9.107586E-05
4.735294E+03	5.793726E-03	8.987594E-05
4.745098E+03	5.723945E-03	8.877029E-05
4.754902E+03	5.660824E-03	8.776892E-05
4.764706E+03	5.604789E-03	8.687832E-05
4.774510E+03	5.556051E-03	8.610164E-05
4.784314E+03	5.514711E-03	8.544039E-05
4.794118E+03	5.480777E-03	8.489458E-05
4.803922E+03	5.453964E-03	8.445970E-05
4.813725E+03	5.434070E-03	8.413256E-05
4.823529E+03	5.420631E-03	8.390587E-05
4.833333E+03	5.413086E-03	8.377091E-05
4.843137E+03	5.410902E-03	8.371935E-05
4.852941E+03	5.413437E-03	8.374121E-05
4.862745E+03	5.419959E-03	8.382513E-05
4.872549E+03	5.429835E-03	8.396128E-05
4.882353E+03	5.442293E-03	8.413770E-05
4.892157E+03	5.456827E-03	8.434654E-05
4.901961E+03	5.472858E-03	8.457883E-05
4.911765E+03	5.489922E-03	8.482742E-05
4.921569E+03	5.507805E-03	8.508898E-05
4.931373E+03	5.526333E-03	8.536081E-05
4.941176E+03	5.545540E-03	8.564345E-05
4.950980E+03	5.565598E-03	8.593956E-05
4.960784E+03	5.586793E-03	8.625353E-05
4.970588E+03	5.609444E-03	8.659031E-05
4.980392E+03	5.634033E-03	8.695731E-05
4.990196E+03	5.660954E-03	8.736063E-05
5.000000E+03	5.690651E-03	8.780708E-05
5.009804E+03	5.723481E-03	8.830218E-05
5.019608E+03	5.759855E-03	8.885225E-05
5.029412E+03	5.799949E-03	8.945999E-05
5.039216E+03	5.844076E-03	9.013023E-05
5.049020E+03	5.892234E-03	9.086293E-05
5.058824E+03	5.944495E-03	9.165917E-05
5.068627E+03	6.000717E-03	9.251676E-05
5.078431E+03	6.060657E-03	9.343197E-05
5.088235E+03	6.124091E-03	9.440133E-05
5.098039E+03	6.190565E-03	9.541784E-05
5.107843E+03	6.259573E-03	9.647371E-05
5.117647E+03	6.330483E-03	9.755920E-05
5.127451E+03	6.402467E-03	9.866158E-05
5.137255E+03	6.474613E-03	9.976680E-05
5.147059E+03	6.545799E-03	1.008576E-04
5.156863E+03	6.614889E-03	1.019165E-04
5.166667E+03	6.680485E-03	1.029219E-04
5.176471E+03	6.741148E-03	1.038518E-04
5.186275E+03	6.795368E-03	1.046829E-04
5.196078E+03	6.841553E-03	1.053907E-04
5.205882E+03	6.878221E-03	1.059524E-04
5.215686E+03	6.904011E-03	1.063471E-04
5.225490E+03	6.917755E-03	1.065567E-04
5.235294E+03	6.918491E-03	1.065665E-04
5.245098E+03	6.905730E-03	1.063690E-04
5.254902E+03	6.879306E-03	1.059616E-04
5.264706E+03	6.839471E-03	1.053482E-04
5.274510E+03	6.786838E-03	1.045382E-04
5.284314E+03	6.722629E-03	1.035505E-04
5.294118E+03	6.648236E-03	1.024064E-04
5.303922E+03	6.565570E-03	1.011353E-04
5.313725E+03	6.476590E-03	9.976741E-05
5.323529E+03	6.383566E-03	9.833764E-05
5.333333E+03	6.288803E-03	9.688149E-05
5.343137E+03	6.194761E-03	9.543678E-05
5.352941E+03	6.103675E-03	9.403795E-05
5.362745E+03	6.017712E-03	9.271838E-05
5.372549E+03	5.938892E-03	9.150915E-05
5.382353E+03	5.869182E-03	9.044059E-05
5.392157E+03	5.809355E-03	8.952460E-05
5.401961E+03	5.758188E-03	8.874237E-05
5.411765E+03	5.713874E-03	8.806603E-05
5.421569E+03	5.674651E-03	8.746845E-05
5.431373E+03	5.638846E-03	8.692384E-05
5.441176E+03	5.604935E-03	8.640872E-05
5.450980E+03	5.571462E-03	8.590062E-05
5.460784E+03	5.537236E-03	8.538118E-05
5.470588E+03	5.501096E-03	8.483246E-05
5.480392E+03	5.462326E-03	8.424342E-05
5.490196E+03	5.420239E-03	8.360344E-05
5.500000E+03	5.374576E-03	8.290848E-05
5.509804E+03	5.325343E-03	8.215861E-05
5.519608E+03	5.272636E-03	8.135527E-05
5.529412E+03	5.217060E-03	8.050779E-05
5.539216E+03	5.159215E-03	7.962537E-05
5.549020E+03	5.099881E-03	7.872003E-05
5.558824E+03	5.040185E-03	7.780916E-05
5.568627E+03	4.981098E-03	7.690771E-05
5.578431E+03	4.923804E-03	7.603399E-05
5.588235E+03	4.869509E-03	7.520660E-05
5.598039E+03	4.819352E-03	7.444313E-05
5.607843E+03	4.774415E-03	7.376034E-05
5.617647E+03	4.735697E-03	7.317369E-05
5.627451E+03	4.704129E-03	7.269760E-05
5.637255E+03	4.680499E-03	7.234428E-05
5.647059E+03	4.665282E-03	7.212116E-05
5.656863E+03	4.659015E-03	7.203657E-05
5.666667E+03	4.661794E-03	7.209208E-05
5.676471E+03	4.673713E-03	7.228920E-05
5.686275E+03	4.694511E-03	7.262399E-05
5.696078E+03	4.723836E-03	7.309105E-05
5.705882E+03	4.761099E-03	7.368136E-05
5.715686E+03	4.805593E-03	7.438407E-05
5.725490E+03	4.856357E-03	7.518432E-05
5.735294E+03	4.912348E-03	7.606605E-05
5.745098E+03	4.972460E-03	7.701218E-05
5.754902E+03	5.035502E-03	7.800430E-05
5.764706E+03	5.100042E-03	7.902027E-05
5.774510E+03	5.164827E-03	8.004069E-05
5.784314E+03	5.228417E-03	8.104322E-05
5.794118E+03	5.289500E-03	8.200757E-05
5.803922E+03	5.346760E-03	8.291324E-05
5.813725E+03	5.398908E-03	8.374028E-05
5.823529E+03	5.444902E-03	8.447244E-05
5.833333E+03	5.483805E-03	8.509511E-05
5.843137E+03	5.514802E-03	8.559559E-05
5.852941E+03	5.537467E-03	8.596719E-05
5.862745E+03	5.551330E-03	8.620251E-05
5.872549E+03	5.556307E-03	8.630015E-05
5.882353E+03	5.552433E-03	8.626056E-05
5.892157E+03	5.539843E-03	8.608573E-05
5.901961E+03	5.518939E-03	8.578182E-05
5.911765E+03	5.490046E-03	8.535379E-05
5.921569E+03	5.453843E-03	8.481208E-05
5.931373E+03	5.410821E-03	8.416424E-05
5.941176E+03	5.361710E-03	8.342156E-05
5.950980E+03	5.307144E-03	8.259381E-05
5.960784E+03	5.247828E-03	8.169191E-05
5.970588E+03	5.184401E-03	8.072574E-05
5.980392E+03	5.117487E-03	7.970494E-05
5.990196E+03	5.047809E-03	7.864074E-05
6.000000E+03	4.975823E-03	7.754020E-05
6.009804E+03	4.902212E-03	7.641393E-05
6.019608E+03	4.827478E-03	7.526971E-05
6.029412E+03	4.752259E-03	7.411749E-05
6.039216E+03	4.677012E-03	7.296438E-05
6.049020E+03	4.602577E-03	7.182346E-05
6.058824E+03	4.529693E-03	7.070628E-05
6.068627E+03	4.459302E-03	6.962756E-05
6.078431E+03	4.391890E-03	6.859492E-05
6.088235E+03	4.327574E-03	6.761020E-05
6.098039E+03	4.266589E-03	6.667713E-05
6.107843E+03	4.209373E-03	6.580256E-05
6.117647E+03	4.156515E-03	6.499578E-05
6.127451E+03	4.108539E-03	6.426501E-05
6.137255E+03	4.066272E-03	6.362326E-05
6.147059E+03	4.030203E-03	6.307827E-05
6.156863E+03	4.000971E-03	6.264009E-05
6.166667E+03	3.979048E-03	6.231624E-05
6.176471E+03	3.964603E-03	6.210947E-05
6.186275E+03	3.957790E-03	6.202227E-05
6.196078E+03	3.958512E-03	6.205325E-05
6.205882E+03	3.966475E-03	6.219791E-05
6.215686E+03	3.981078E-03	6.244693E-05
6.225490E+03	4.001644E-03	6.278977E-05
6.235294E+03	4.027281E-03	6.321254E-05
6.245098E+03	4.056959E-03	6.369912E-05
6.254902E+03	4.089488E-03	6.423091E-05
6.264706E+03	4.123612E-03	6.478819E-05
6.274510E+03	4.158047E-03	6.535085E-05
6.284314E+03	4.191593E-03	6.589998E-05
6.294118E+03	4.223064E-03	6.641692E-05
6.303922E+03	4.251271E-03	6.688296E-05
6.313725E+03	4.275571E-03	6.728791E-05
6.323529E+03	4.295360E-03	6.762220E-05
6.333333E+03	4.310348E-03	6.788120E-05
6.343137E+03	4.320584E-03	6.806560E-05
6.352941E+03	4.326188E-03	6.817720E-05
6.362745E+03	4.327717E-03	6.822471E-05
6.372549E+03	4.325800E-03	6.821798E-05
6.382353E+03	4.321276E-03	6.817020E-05
6.392157E+03	4.314870E-03	6.809275E-05
6.401961E+03	4.307657E-03	6.800259E-05
6.411765E+03	4.300336E-03	6.791070E-05
6.421569E+03	4.293709E-03	6.782979E-05
6.431373E+03	4.288374E-03	6.776930E-05
6.441176E+03	4.284682E-03	6.773481E-05
6.450980E+03	4.282929E-03	6.773099E-05
6.460784E+03	4.283138E-03	6.775829E-05
6.470588E+03	4.285062E-03	6.781279E-05
6.480392E+03	4.288334E-03	6.788873E-05
6.490196E+03	4.292425E-03	6.797774E-05
6.500000E+03	4.296746E-03	6.807050E-05
6.509804E+03	4.300406E-03	6.815291E-05
6.519608E+03	4.302691E-03	6.821363E-05
6.529412E+03	4.302829E-03	6.824039E-05
6.539216E+03	4.300051E-03	6.822094E-05
6.549020E+03	4.293850E-03	6.814720E-05
6.558824E+03	4.283738E-03	6.801135E-05
6.568627E+03	4.269556E-03	6.781080E-05
6.578431E+03	4.251117E-03	6.754251E-05
6.588235E+03	4.228635E-03	6.720982E-05
6.598039E+03	4.202485E-03	6.681858E-05
6.607843E+03	4.172941E-03	6.637311E-05
6.617647E+03	4.140581E-03	6.588255E-05
6.627451E+03	4.105880E-03	6.535441E-05
6.637255E+03	4.069464E-03	6.479859E-05
6.647059E+03	4.031779E-03	6.422220E-05
6.656863E+03	3.993298E-03	6.363271E-05
6.666667E+03	3.954490E-03	6.303761E-05
6.676471E+03	3.915545E-03	6.243991E-05
6.686275E+03	3.876872E-03	6.184614E-05
6.696078E+03	3.838548E-03	6.125752E-05
6.705882E+03	3.800895E-03	6.067922E-05
6.715686E+03	3.763939E-03	6.011164E-05
6.725490E+03	3.727840E-03	5.955735E-05
6.735294E+03	3.692824E-03	5.901998E-05
6.745098E+03	3.659055E-03	5.850217E-05
6.754902E+03	3.626562E-03	5.800441E-05
6.764706E+03	3.595646E-03	5.753153E-05
6.774510E+03	3.566398E-03	5.708503E-05
6.784314E+03	3.539032E-03	5.666834E-05
6.794118E+03	3.513542E-03	5.628141E-05
6.803922E+03	3.490100E-03	5.592704E-05
6.813725E+03	3.468789E-03	5.560659E-05
6.823529E+03	3.449599E-03	5.531993E-05
6.833333E+03	3.432629E-03	5.506869E-05
6.843137E+03	3.417888E-03	5.485306E-05
6.852941E+03	3.405296E-03	5.467180E-05
6.862745E+03	3.394818E-03	5.452437E-05
6.872549E+03	3.386396E-03	5.440989E-05
6.882353E+03	3.380015E-03	5.432815E-05
6.892157E+03	3.375436E-03	5.427537E-05
6.901961E+03	3.372662E-03	5.425159E-05
6.911765E+03	3.371407E-03	5.425228E-05
6.921569E+03	3.371568E-03	5.427577E-05
6.931373E+03	3.372892E-03	5.431805E-05
6.941176E+03	3.375258E-03	5.437718E-05
6.950980E+03	3.378478E-03	5.445015E-05
6.960784E+03	3.382306E-03	5.453300E-05
6.970588E+03	3.386507E-03	5.462198E-05
6.980392E+03	3.391070E-03	5.471689E-05
6.990196E+03	3.395795E-03	5.481453E-05
7.000000E+03	3.400568E-03	5.491305E-05
7.009804E+03	3.405283E-03	5.501075E-05
7.019608E+03	3.409771E-03	5.510488E-05
7.029412E+03	3.413993E-03	5.519485E-05
7.039216E+03	3.417765E-03	5.527762E-05
7.049020E+03	3.420949E-03	5.535100E-05
7.058824E+03	3.423459E-03	5.541355E-05
7.068627E+03	3.425044E-03	5.546124E-05
7.078431E+03	3.425580E-03	5.549199E-05
7.088235E+03	3.424710E-03	5.550004E-05
7.098039E+03	3.422293E-03	5.548305E-05
7.107843E+03	3.418116E-03	5.543756E-05
7.117647E+03	3.411982E-03	5.536031E-05
7.127451E+03	3.403714E-03	5.524841E-05
7.137255E+03	3.393164E-03	5.509943E-05
7.147059E+03	3.380151E-03	5.491036E-05
7.156863E+03	3.364678E-03	5.468119E-05
7.166667E+03	3.346720E-03	5.441150E-05
7.176471E+03	3.326301E-03	5.410163E-05
7.186275E+03	3.303421E-03	5.375149E-05
7.196078E+03	3.278268E-03	5.336413E-05
7.205882E+03	3.251072E-03	5.294324E-05
7.215686E+03	3.221886E-03	5.248964E-05
7.225490E+03	3.191007E-03	5.200812E-05
7.235294E+03	3.158688E-03	5.150278E-05
7.245098E+03	3.125271E-03	5.097917E-05
7.254902E+03	3.090971E-03	5.044079E-05
7.264706E+03	3.056165E-03	4.989374E-05
7.274510E+03	3.021238E-03	4.934432E-05
7.284314E+03	2.986462E-03	4.879696E-05
7.294118E+03	2.952335E-03	4.825982E-05
7.303922E+03	2.919125E-03	4.773727E-05
7.313725E+03	2.887338E-03	4.723763E-05
7.323529E+03	2.857407E-03	4.676799E-05
7.333333E+03	2.829956E-03	4.633863E-05
7.343137E+03	2.805495E-03	4.595795E-05
7.352941E+03	2.784817E-03	4.563899E-05
7.362745E+03	2.768634E-03	4.539353E-05
7.372549E+03	2.756966E-03	4.522199E-05
7.382353E+03	2.749241E-03	4.511506E-05
7.392157E+03	2.744561E-03	4.505811E-05
7.401961E+03	2.742341E-03	4.504159E-05
7.411765E+03	2.741985E-03	4.505575E-05
7.421569E+03	2.743128E-03	4.509463E-05
7.431373E+03	2.745366E-03	4.515163E-05
7.441176E+03	2.748503E-03	4.522355E-05
7.450980E+03	2.752282E-03	4.530618E-05
7.460784E+03	2.756569E-03	4.539730E-05
7.470588E+03	2.761339E-03	4.549653E-05
7.480392E+03	2.766471E-03	4.560188E-05
7.490196E+03	2.771940E-03	4.571296E-05
7.500000E+03	2.777808E-03	4.583077E-05
7.509804E+03	2.784020E-03	4.595442E-05
7.519608E+03	2.790667E-03	4.608542E-05
7.529412E+03	2.797643E-03	4.622204E-05
7.539216E+03	2.805124E-03	4.636719E-05
7.549020E+03	2.813149E-03	4.652150E-05
7.558824E+03	2.821688E-03	4.668452E-05
7.568627E+03	2.830846E-03	4.685797E-05
7.578431E+03	2.840578E-03	4.704114E-05
7.588235E+03	2.850901E-03	4.723431E-05
7.598039E+03	2.861888E-03	4.743870E-05
7.607843E+03	2.873525E-03	4.765410E-05
