#wls	flux	fluxerr
1.568627E+03	5.341320E-04	1.614037E-05
1.607843E+03	5.316962E-04	1.600249E-05
1.647059E+03	5.293520E-04	1.586642E-05
1.686275E+03	5.272055E-04	1.573528E-05
1.725490E+03	5.252594E-04	1.560906E-05
1.764706E+03	5.235169E-04	1.548778E-05
1.803922E+03	5.220835E-04	1.537445E-05
1.843137E+03	5.207597E-04	1.526308E-05
1.882353E+03	5.198548E-04	1.516264E-05
1.921569E+03	5.192717E-04	1.507011E-05
1.960784E+03	5.190164E-04	1.498551E-05
2.000000E+03	5.190959E-04	1.490886E-05
2.039216E+03	5.196174E-04	1.484305E-05
2.078431E+03	5.205894E-04	1.478809E-05
2.117647E+03	5.220218E-04	1.474401E-05
2.156863E+03	5.239262E-04	1.471087E-05
2.196078E+03	5.264144E-04	1.469150E-05
2.235294E+03	5.294033E-04	1.468326E-05
2.274510E+03	5.331064E-04	1.469173E-05
2.313725E+03	5.373486E-04	1.471165E-05
2.352941E+03	5.423479E-04	1.474861E-05
2.392157E+03	5.480336E-04	1.480019E-05
2.431373E+03	5.546304E-04	1.487195E-05
2.470588E+03	5.619785E-04	1.495902E-05
2.509804E+03	5.703112E-04	1.506702E-05
2.549020E+03	5.796733E-04	1.519642E-05
2.588235E+03	5.901152E-04	1.534778E-05
2.627451E+03	6.017912E-04	1.552427E-05
2.666667E+03	6.147662E-04	1.572661E-05
2.705882E+03	6.293086E-04	1.596061E-05
2.745098E+03	6.455022E-04	1.622716E-05
2.784314E+03	6.635396E-04	1.652976E-05
2.823529E+03	6.837266E-04	1.687447E-05
2.862745E+03	7.061864E-04	1.726258E-05
2.901961E+03	7.313616E-04	1.770292E-05
2.941176E+03	7.595191E-04	1.819963E-05
2.950980E+03	7.671582E-04	1.833553E-05
2.960784E+03	7.749940E-04	1.847498E-05
2.970588E+03	7.830280E-04	1.861798E-05
2.980392E+03	7.912640E-04	1.876459E-05
2.990196E+03	7.998109E-04	1.891732E-05
3.000000E+03	8.085676E-04	1.907373E-05
3.009804E+03	8.176436E-04	1.923636E-05
3.019608E+03	8.269392E-04	1.940279E-05
3.029412E+03	8.365627E-04	1.957551E-05
3.039216E+03	8.465209E-04	1.975462E-05
3.049020E+03	8.567139E-04	1.993771E-05
3.058824E+03	8.672524E-04	2.012730E-05
3.068627E+03	8.781439E-04	2.032350E-05
3.078431E+03	8.892878E-04	2.052390E-05
3.088235E+03	9.009044E-04	2.073353E-05
3.098039E+03	9.128961E-04	2.095003E-05
3.107843E+03	9.251622E-04	2.117102E-05
3.117647E+03	9.379284E-04	2.140160E-05
3.127451E+03	9.510955E-04	2.163939E-05
3.137255E+03	9.647838E-04	2.188705E-05
3.147059E+03	9.787867E-04	2.213978E-05
3.156863E+03	9.933335E-04	2.240268E-05
3.166667E+03	1.008439E-03	2.267597E-05
3.176471E+03	1.024009E-03	2.295740E-05
3.186275E+03	1.040168E-03	2.324968E-05
3.196078E+03	1.056823E-03	2.355057E-05
3.205882E+03	1.074103E-03	2.386287E-05
3.215686E+03	1.092143E-03	2.418941E-05
3.225490E+03	1.110740E-03	2.452553E-05
3.235294E+03	1.130030E-03	2.487410E-05
3.245098E+03	1.150040E-03	2.523558E-05
3.254902E+03	1.170914E-03	2.561294E-05
3.264706E+03	1.192569E-03	2.600419E-05
3.274510E+03	1.215156E-03	2.641242E-05
3.284314E+03	1.238595E-03	2.683570E-05
3.294118E+03	1.262923E-03	2.727464E-05
3.303922E+03	1.288424E-03	2.773515E-05
3.313725E+03	1.314905E-03	2.821283E-05
3.323529E+03	1.342655E-03	2.871365E-05
3.333333E+03	1.371488E-03	2.923332E-05
3.343137E+03	1.401702E-03	2.977798E-05
3.352941E+03	1.433234E-03	3.034594E-05
3.362745E+03	1.466270E-03	3.094084E-05
3.372549E+03	1.500748E-03	3.156104E-05
3.382353E+03	1.536858E-03	3.221020E-05
3.392157E+03	1.574664E-03	3.288928E-05
3.401961E+03	1.614229E-03	3.359919E-05
3.411765E+03	1.655611E-03	3.434076E-05
3.421569E+03	1.698995E-03	3.511737E-05
3.431373E+03	1.744157E-03	3.592395E-05
3.441176E+03	1.791532E-03	3.676905E-05
3.450980E+03	1.840867E-03	3.764693E-05
3.460784E+03	1.892295E-03	3.855990E-05
3.470588E+03	1.945793E-03	3.950698E-05
3.480392E+03	2.001312E-03	4.048669E-05
3.490196E+03	2.058772E-03	4.149696E-05
3.500000E+03	2.118214E-03	4.253814E-05
3.509804E+03	2.179505E-03	4.360712E-05
3.519608E+03	2.242335E-03	4.469726E-05
3.529412E+03	2.306922E-03	4.581253E-05
3.539216E+03	2.373105E-03	4.694932E-05
3.549020E+03	2.441363E-03	4.811668E-05
3.558824E+03	2.511723E-03	4.931464E-05
3.568627E+03	2.584520E-03	5.054926E-05
3.578431E+03	2.659932E-03	5.182341E-05
3.588235E+03	2.738127E-03	5.313975E-05
3.598039E+03	2.819097E-03	5.449745E-05
3.607843E+03	2.903472E-03	5.590796E-05
3.617647E+03	2.990883E-03	5.736344E-05
3.627451E+03	3.081934E-03	5.887465E-05
3.637255E+03	3.176378E-03	6.043603E-05
3.647059E+03	3.274448E-03	6.205120E-05
3.656863E+03	3.376369E-03	6.372346E-05
3.666667E+03	3.481993E-03	6.544917E-05
3.676471E+03	3.591325E-03	6.722747E-05
3.686275E+03	3.704705E-03	6.906382E-05
3.696078E+03	3.821739E-03	7.094991E-05
3.705882E+03	3.942543E-03	7.288695E-05
3.715686E+03	4.067029E-03	7.487244E-05
3.725490E+03	4.195272E-03	7.690679E-05
3.735294E+03	4.327133E-03	7.898656E-05
3.745098E+03	4.462251E-03	8.110429E-05
3.754902E+03	4.600613E-03	8.325891E-05
3.764706E+03	4.741985E-03	8.544536E-05
3.774510E+03	4.886092E-03	8.765798E-05
3.784314E+03	5.032624E-03	8.989048E-05
3.794118E+03	5.181431E-03	9.213960E-05
3.803922E+03	5.332124E-03	9.439782E-05
3.813725E+03	5.484062E-03	9.665336E-05
3.823529E+03	5.636971E-03	9.890104E-05
3.833333E+03	5.790535E-03	1.011351E-04
3.843137E+03	5.943772E-03	1.033381E-04
3.852941E+03	6.096277E-03	1.055032E-04
3.862745E+03	6.247401E-03	1.076194E-04
3.872549E+03	6.396672E-03	1.096787E-04
3.882353E+03	6.543163E-03	1.116657E-04
3.892157E+03	6.686144E-03	1.135687E-04
3.901961E+03	6.825083E-03	1.153795E-04
3.911765E+03	6.959023E-03	1.170830E-04
3.921569E+03	7.087240E-03	1.186680E-04
3.931373E+03	7.209248E-03	1.201280E-04
3.941176E+03	7.324188E-03	1.214501E-04
3.950980E+03	7.431473E-03	1.226264E-04
3.960784E+03	7.530808E-03	1.236538E-04
3.970588E+03	7.621383E-03	1.245211E-04
3.980392E+03	7.703312E-03	1.252321E-04
3.990196E+03	7.776023E-03	1.257799E-04
4.000000E+03	7.839710E-03	1.261696E-04
4.009804E+03	7.894296E-03	1.264024E-04
4.019608E+03	7.940268E-03	1.264882E-04
4.029412E+03	7.977647E-03	1.264295E-04
4.039216E+03	8.007229E-03	1.262409E-04
4.049020E+03	8.029520E-03	1.259324E-04
4.058824E+03	8.045350E-03	1.255187E-04
4.068627E+03	8.055655E-03	1.250159E-04
4.078431E+03	8.061067E-03	1.244352E-04
4.088235E+03	8.062815E-03	1.237967E-04
4.098039E+03	8.061631E-03	1.231126E-04
4.107843E+03	8.058756E-03	1.224024E-04
4.117647E+03	8.055028E-03	1.216792E-04
4.127451E+03	8.051260E-03	1.209556E-04
4.137255E+03	8.048007E-03	1.202398E-04
4.147059E+03	8.046200E-03	1.195456E-04
4.156863E+03	8.046312E-03	1.188797E-04
4.166667E+03	8.048537E-03	1.182444E-04
4.176471E+03	8.053075E-03	1.176423E-04
4.186275E+03	8.060128E-03	1.170757E-04
4.196078E+03	8.069434E-03	1.165402E-04
4.205882E+03	8.080747E-03	1.160319E-04
4.215686E+03	8.093681E-03	1.155446E-04
4.225490E+03	8.107752E-03	1.150713E-04
4.235294E+03	8.122381E-03	1.146035E-04
4.245098E+03	8.136669E-03	1.141285E-04
4.254902E+03	8.150103E-03	1.136393E-04
4.264706E+03	8.161917E-03	1.131256E-04
4.274510E+03	8.171534E-03	1.125798E-04
4.284314E+03	8.178567E-03	1.119972E-04
4.294118E+03	8.182367E-03	1.113698E-04
4.303922E+03	8.182780E-03	1.106963E-04
4.313725E+03	8.180223E-03	1.099833E-04
4.323529E+03	8.175861E-03	1.092470E-04
4.333333E+03	8.170758E-03	1.085022E-04
4.343137E+03	8.166525E-03	1.077703E-04
4.352941E+03	8.164478E-03	1.070684E-04
4.362745E+03	8.166042E-03	1.064147E-04
4.372549E+03	8.172438E-03	1.058239E-04
4.382353E+03	8.185022E-03	1.053125E-04
4.392157E+03	8.204869E-03	1.048924E-04
4.401961E+03	8.232885E-03	1.045736E-04
4.411765E+03	8.270157E-03	1.043677E-04
4.421569E+03	8.317359E-03	1.042808E-04
4.431373E+03	8.374910E-03	1.043158E-04
4.441176E+03	8.443223E-03	1.044753E-04
4.450980E+03	8.522216E-03	1.047556E-04
4.460784E+03	8.611760E-03	1.051526E-04
4.470588E+03	8.711440E-03	1.056587E-04
4.480392E+03	8.820343E-03	1.062604E-04
4.490196E+03	8.937653E-03	1.069459E-04
4.500000E+03	9.062165E-03	1.076987E-04
4.509804E+03	9.192366E-03	1.084993E-04
4.519608E+03	9.326655E-03	1.093276E-04
4.529412E+03	9.463271E-03	1.101623E-04
4.539216E+03	9.600345E-03	1.109812E-04
4.549020E+03	9.736067E-03	1.117635E-04
4.558824E+03	9.868358E-03	1.124859E-04
4.568627E+03	9.995374E-03	1.131285E-04
4.578431E+03	1.011507E-02	1.136698E-04
4.588235E+03	1.022573E-02	1.140924E-04
4.598039E+03	1.032558E-02	1.143789E-04
4.607843E+03	1.041292E-02	1.145135E-04
4.617647E+03	1.048632E-02	1.144834E-04
4.627451E+03	1.054427E-02	1.142761E-04
4.637255E+03	1.058601E-02	1.138869E-04
4.647059E+03	1.061269E-02	1.133321E-04
4.656863E+03	1.062539E-02	1.126270E-04
4.666667E+03	1.062555E-02	1.117901E-04
4.676471E+03	1.061443E-02	1.108376E-04
4.686275E+03	1.059355E-02	1.097882E-04
4.696078E+03	1.056425E-02	1.086577E-04
4.705882E+03	1.052830E-02	1.074667E-04
4.715686E+03	1.048695E-02	1.062292E-04
4.725490E+03	1.044222E-02	1.049672E-04
4.735294E+03	1.039547E-02	1.036948E-04
4.745098E+03	1.034852E-02	1.024307E-04
4.754902E+03	1.030305E-02	1.011916E-04
4.764706E+03	1.026070E-02	9.999318E-05
4.774510E+03	1.022286E-02	9.884825E-05
4.784314E+03	1.019107E-02	9.777045E-05
4.794118E+03	1.016641E-02	9.676903E-05
4.803922E+03	1.014993E-02	9.585222E-05
4.813725E+03	1.014251E-02	9.502670E-05
4.823529E+03	1.014447E-02	9.429342E-05
4.833333E+03	1.015620E-02	9.365407E-05
4.843137E+03	1.017765E-02	9.310636E-05
4.852941E+03	1.020854E-02	9.264566E-05
4.862745E+03	1.024815E-02	9.226368E-05
4.872549E+03	1.029572E-02	9.195216E-05
4.882353E+03	1.035015E-02	9.169975E-05
4.892157E+03	1.040996E-02	9.149234E-05
4.901961E+03	1.047375E-02	9.131685E-05
4.911765E+03	1.053971E-02	9.115732E-05
4.921569E+03	1.060612E-02	9.099870E-05
4.931373E+03	1.067131E-02	9.082726E-05
4.941176E+03	1.073359E-02	9.062934E-05
4.950980E+03	1.079116E-02	9.039085E-05
4.960784E+03	1.084287E-02	9.010369E-05
4.970588E+03	1.088762E-02	8.976039E-05
4.980392E+03	1.092440E-02	8.935453E-05
4.990196E+03	1.095301E-02	8.888644E-05
5.000000E+03	1.097338E-02	8.835765E-05
5.009804E+03	1.098560E-02	8.777082E-05
5.019608E+03	1.099064E-02	8.713576E-05
5.029412E+03	1.098912E-02	8.645895E-05
5.039216E+03	1.098247E-02	8.575332E-05
5.049020E+03	1.097198E-02	8.503006E-05
5.058824E+03	1.095926E-02	8.430289E-05
5.068627E+03	1.094577E-02	8.358359E-05
5.078431E+03	1.093318E-02	8.288554E-05
5.088235E+03	1.092289E-02	8.221951E-05
5.098039E+03	1.091629E-02	8.159598E-05
5.107843E+03	1.091473E-02	8.102498E-05
5.117647E+03	1.091916E-02	8.051321E-05
5.127451E+03	1.093057E-02	8.006768E-05
5.137255E+03	1.094950E-02	7.969178E-05
5.147059E+03	1.097638E-02	7.938837E-05
5.156863E+03	1.101156E-02	7.915943E-05
5.166667E+03	1.105502E-02	7.900464E-05
5.176471E+03	1.110634E-02	7.892061E-05
5.186275E+03	1.116534E-02	7.890611E-05
5.196078E+03	1.123134E-02	7.895629E-05
5.205882E+03	1.130373E-02	7.906709E-05
5.215686E+03	1.138155E-02	7.923218E-05
5.225490E+03	1.146389E-02	7.944569E-05
5.235294E+03	1.154980E-02	7.970177E-05
5.245098E+03	1.163835E-02	7.999485E-05
5.254902E+03	1.172870E-02	8.032009E-05
5.264706E+03	1.182012E-02	8.067348E-05
5.274510E+03	1.191209E-02	8.105254E-05
5.284314E+03	1.200417E-02	8.145547E-05
5.294118E+03	1.209656E-02	8.188473E-05
5.303922E+03	1.218925E-02	8.234140E-05
5.313725E+03	1.228274E-02	8.282996E-05
5.323529E+03	1.237791E-02	8.335737E-05
5.333333E+03	1.247561E-02	8.392949E-05
5.343137E+03	1.257691E-02	8.455377E-05
5.352941E+03	1.268315E-02	8.523900E-05
5.362745E+03	1.279533E-02	8.599200E-05
5.372549E+03	1.291449E-02	8.681981E-05
5.382353E+03	1.304162E-02	8.772904E-05
5.392157E+03	1.317677E-02	8.872023E-05
5.401961E+03	1.331894E-02	8.978681E-05
5.411765E+03	1.346608E-02	9.091514E-05
5.421569E+03	1.361619E-02	9.209170E-05
5.431373E+03	1.376644E-02	9.329755E-05
5.441176E+03	1.391370E-02	9.451130E-05
5.450980E+03	1.405478E-02	9.571093E-05
5.460784E+03	1.418639E-02	9.687340E-05
5.470588E+03	1.430529E-02	9.797579E-05
5.480392E+03	1.440846E-02	9.899617E-05
5.490196E+03	1.449311E-02	9.991380E-05
5.500000E+03	1.455740E-02	1.007141E-04
5.509804E+03	1.459949E-02	1.013821E-04
5.519608E+03	1.461872E-02	1.019109E-04
5.529412E+03	1.461520E-02	1.022985E-04
5.539216E+03	1.458932E-02	1.025448E-04
5.549020E+03	1.454267E-02	1.026583E-04
5.558824E+03	1.447731E-02	1.026505E-04
5.568627E+03	1.439590E-02	1.025377E-04
5.578431E+03	1.430150E-02	1.023393E-04
5.588235E+03	1.419766E-02	1.020784E-04
5.598039E+03	1.408767E-02	1.017770E-04
5.607843E+03	1.397535E-02	1.014611E-04
5.617647E+03	1.386429E-02	1.011558E-04
5.627451E+03	1.375797E-02	1.008860E-04
5.637255E+03	1.365964E-02	1.006751E-04
5.647059E+03	1.357228E-02	1.005454E-04
5.656863E+03	1.349838E-02	1.005161E-04
5.666667E+03	1.344034E-02	1.006059E-04
5.676471E+03	1.340006E-02	1.008305E-04
5.686275E+03	1.337887E-02	1.012014E-04
5.696078E+03	1.337799E-02	1.017296E-04
5.705882E+03	1.339793E-02	1.024211E-04
5.715686E+03	1.343895E-02	1.032798E-04
5.725490E+03	1.350090E-02	1.043070E-04
5.735294E+03	1.358322E-02	1.055004E-04
5.745098E+03	1.368496E-02	1.068547E-04
5.754902E+03	1.380476E-02	1.083614E-04
5.764706E+03	1.394081E-02	1.100081E-04
5.774510E+03	1.409113E-02	1.117809E-04
5.784314E+03	1.425306E-02	1.136600E-04
5.794118E+03	1.442415E-02	1.156270E-04
5.803922E+03	1.460113E-02	1.176565E-04
5.813725E+03	1.478098E-02	1.197244E-04
5.823529E+03	1.496020E-02	1.218024E-04
5.833333E+03	1.513542E-02	1.238625E-04
5.843137E+03	1.530325E-02	1.258761E-04
5.852941E+03	1.546027E-02	1.278137E-04
5.862745E+03	1.560341E-02	1.296485E-04
5.872549E+03	1.573006E-02	1.313563E-04
5.882353E+03	1.583737E-02	1.329114E-04
5.892157E+03	1.592374E-02	1.342973E-04
5.901961E+03	1.598762E-02	1.354982E-04
5.911765E+03	1.602820E-02	1.365043E-04
5.921569E+03	1.604497E-02	1.373082E-04
5.931373E+03	1.603849E-02	1.379117E-04
5.941176E+03	1.600975E-02	1.383202E-04
5.950980E+03	1.596015E-02	1.385432E-04
5.960784E+03	1.589155E-02	1.385943E-04
5.970588E+03	1.580657E-02	1.384941E-04
5.980392E+03	1.570781E-02	1.382634E-04
5.990196E+03	1.559828E-02	1.379273E-04
6.000000E+03	1.548109E-02	1.375120E-04
6.009804E+03	1.535940E-02	1.370448E-04
6.019608E+03	1.523616E-02	1.365519E-04
6.029412E+03	1.511467E-02	1.360624E-04
6.039216E+03	1.499771E-02	1.356022E-04
6.049020E+03	1.488775E-02	1.351940E-04
6.058824E+03	1.478729E-02	1.348616E-04
6.068627E+03	1.469860E-02	1.346269E-04
6.078431E+03	1.462236E-02	1.344978E-04
6.088235E+03	1.455818E-02	1.344720E-04
6.098039E+03	1.450511E-02	1.345423E-04
6.107843E+03	1.446172E-02	1.346967E-04
6.117647E+03	1.442692E-02	1.349260E-04
6.127451E+03	1.439934E-02	1.352179E-04
6.137255E+03	1.437751E-02	1.355593E-04
6.147059E+03	1.436006E-02	1.359378E-04
6.156863E+03	1.434547E-02	1.363390E-04
6.166667E+03	1.433209E-02	1.367476E-04
6.176471E+03	1.431894E-02	1.371538E-04
6.186275E+03	1.430440E-02	1.375420E-04
6.196078E+03	1.428760E-02	1.379036E-04
6.205882E+03	1.426742E-02	1.382272E-04
6.215686E+03	1.424353E-02	1.385089E-04
6.225490E+03	1.421509E-02	1.387402E-04
6.235294E+03	1.418207E-02	1.389202E-04
6.245098E+03	1.414441E-02	1.390474E-04
6.254902E+03	1.410240E-02	1.391243E-04
6.264706E+03	1.405623E-02	1.391522E-04
6.274510E+03	1.400687E-02	1.391401E-04
6.284314E+03	1.395499E-02	1.390942E-04
6.294118E+03	1.390124E-02	1.390209E-04
6.303922E+03	1.384678E-02	1.389315E-04
6.313725E+03	1.379267E-02	1.388365E-04
6.323529E+03	1.373987E-02	1.387454E-04
6.333333E+03	1.368946E-02	1.386695E-04
6.343137E+03	1.364234E-02	1.386181E-04
6.352941E+03	1.359966E-02	1.386030E-04
6.362745E+03	1.356222E-02	1.386329E-04
6.372549E+03	1.353072E-02	1.387154E-04
6.382353E+03	1.350577E-02	1.388572E-04
6.392157E+03	1.348787E-02	1.390640E-04
6.401961E+03	1.347724E-02	1.393387E-04
6.411765E+03	1.347411E-02	1.396842E-04
6.421569E+03	1.347841E-02	1.401002E-04
6.431373E+03	1.349020E-02	1.405881E-04
6.441176E+03	1.350890E-02	1.411424E-04
6.450980E+03	1.353421E-02	1.417602E-04
6.460784E+03	1.356549E-02	1.424354E-04
6.470588E+03	1.360175E-02	1.431578E-04
6.480392E+03	1.364197E-02	1.439171E-04
6.490196E+03	1.368494E-02	1.447007E-04
6.500000E+03	1.372919E-02	1.454930E-04
6.509804E+03	1.377354E-02	1.462816E-04
6.519608E+03	1.381628E-02	1.470481E-04
6.529412E+03	1.385581E-02	1.477754E-04
6.539216E+03	1.389036E-02	1.484441E-04
6.549020E+03	1.391866E-02	1.490405E-04
6.558824E+03	1.393894E-02	1.495450E-04
6.568627E+03	1.395012E-02	1.499455E-04
6.578431E+03	1.395073E-02	1.502256E-04
6.588235E+03	1.394008E-02	1.503774E-04
6.598039E+03	1.391729E-02	1.503906E-04
6.607843E+03	1.388198E-02	1.502607E-04
6.617647E+03	1.383375E-02	1.499826E-04
6.627451E+03	1.377260E-02	1.495557E-04
6.637255E+03	1.369890E-02	1.489837E-04
6.647059E+03	1.361296E-02	1.482695E-04
6.656863E+03	1.351561E-02	1.474214E-04
6.666667E+03	1.340766E-02	1.464483E-04
6.676471E+03	1.329012E-02	1.453608E-04
6.686275E+03	1.316393E-02	1.441691E-04
6.696078E+03	1.303045E-02	1.428880E-04
6.705882E+03	1.289096E-02	1.415314E-04
6.715686E+03	1.274693E-02	1.401156E-04
6.725490E+03	1.259939E-02	1.386520E-04
6.735294E+03	1.244983E-02	1.371572E-04
6.745098E+03	1.229955E-02	1.356458E-04
6.754902E+03	1.214983E-02	1.341321E-04
6.764706E+03	1.200189E-02	1.326299E-04
6.774510E+03	1.185699E-02	1.311535E-04
6.784314E+03	1.171604E-02	1.297135E-04
6.794118E+03	1.157987E-02	1.283192E-04
6.803922E+03	1.144956E-02	1.269834E-04
6.813725E+03	1.132572E-02	1.257130E-04
6.823529E+03	1.120907E-02	1.245164E-04
6.833333E+03	1.109981E-02	1.233965E-04
6.843137E+03	1.099854E-02	1.223603E-04
6.852941E+03	1.090524E-02	1.214079E-04
6.862745E+03	1.082027E-02	1.205439E-04
6.872549E+03	1.074360E-02	1.197683E-04
6.882353E+03	1.067489E-02	1.190778E-04
6.892157E+03	1.061420E-02	1.184732E-04
6.901961E+03	1.056100E-02	1.179492E-04
6.911765E+03	1.051524E-02	1.175056E-04
6.921569E+03	1.047643E-02	1.171370E-04
6.931373E+03	1.044416E-02	1.168395E-04
6.941176E+03	1.041805E-02	1.166089E-04
6.950980E+03	1.039782E-02	1.164424E-04
6.960784E+03	1.038282E-02	1.163331E-04
6.970588E+03	1.037295E-02	1.162803E-04
6.980392E+03	1.036763E-02	1.162775E-04
6.990196E+03	1.036681E-02	1.163246E-04
7.000000E+03	1.037012E-02	1.164176E-04
7.009804E+03	1.037734E-02	1.165545E-04
7.019608E+03	1.038830E-02	1.167336E-04
7.029412E+03	1.040285E-02	1.169534E-04
7.039216E+03	1.042091E-02	1.172132E-04
7.049020E+03	1.044236E-02	1.175124E-04
7.058824E+03	1.046727E-02	1.178516E-04
7.068627E+03	1.049528E-02	1.182273E-04
7.078431E+03	1.052659E-02	1.186421E-04
7.088235E+03	1.056081E-02	1.190917E-04
7.098039E+03	1.059804E-02	1.195778E-04
7.107843E+03	1.063798E-02	1.200973E-04
7.117647E+03	1.068038E-02	1.206476E-04
7.127451E+03	1.072494E-02	1.212258E-04
7.137255E+03	1.077143E-02	1.218295E-04
7.147059E+03	1.081916E-02	1.224516E-04
7.156863E+03	1.086792E-02	1.230898E-04
7.166667E+03	1.091708E-02	1.237374E-04
7.176471E+03	1.096606E-02	1.243883E-04
7.186275E+03	1.101445E-02	1.250380E-04
7.196078E+03	1.106152E-02	1.256787E-04
7.205882E+03	1.110675E-02	1.263047E-04
7.215686E+03	1.114962E-02	1.269107E-04
7.225490E+03	1.118985E-02	1.274935E-04
7.235294E+03	1.122682E-02	1.280465E-04
7.245098E+03	1.126057E-02	1.285706E-04
7.254902E+03	1.129101E-02	1.290646E-04
7.264706E+03	1.131782E-02	1.295256E-04
7.274510E+03	1.134129E-02	1.299568E-04
7.284314E+03	1.136161E-02	1.303608E-04
7.294118E+03	1.137924E-02	1.307430E-04
7.303922E+03	1.139418E-02	1.311039E-04
7.313725E+03	1.140691E-02	1.314490E-04
7.323529E+03	1.141770E-02	1.317819E-04
7.333333E+03	1.142673E-02	1.321047E-04
7.343137E+03	1.143404E-02	1.324184E-04
7.352941E+03	1.143953E-02	1.327219E-04
7.362745E+03	1.144292E-02	1.330123E-04
7.372549E+03	1.144400E-02	1.332874E-04
7.382353E+03	1.144267E-02	1.335459E-04
7.392157E+03	1.143913E-02	1.337907E-04
7.401961E+03	1.143286E-02	1.340157E-04
7.411765E+03	1.142373E-02	1.342194E-04
7.421569E+03	1.141140E-02	1.343979E-04
7.431373E+03	1.139541E-02	1.345459E-04
7.441176E+03	1.137554E-02	1.346605E-04
7.450980E+03	1.135196E-02	1.347437E-04
7.460784E+03	1.132440E-02	1.347921E-04
7.470588E+03	1.129304E-02	1.348078E-04
7.480392E+03	1.125825E-02	1.347949E-04
7.490196E+03	1.122075E-02	1.347616E-04
7.500000E+03	1.118126E-02	1.347157E-04
7.509804E+03	1.114034E-02	1.346636E-04
7.519608E+03	1.109928E-02	1.346204E-04
7.529412E+03	1.105901E-02	1.345969E-04
7.539216E+03	1.102064E-02	1.346066E-04
7.549020E+03	1.098545E-02	1.346650E-04
7.558824E+03	1.095440E-02	1.347838E-04
7.568627E+03	1.092850E-02	1.349760E-04
7.578431E+03	1.090868E-02	1.352533E-04
7.588235E+03	1.089586E-02	1.356280E-04
7.598039E+03	1.089055E-02	1.361068E-04
7.607843E+03	1.089317E-02	1.366964E-04
