#wls	flux	fluxerr
1.568627E+03	4.107238E-04	1.103092E-05
1.607843E+03	4.101767E-04	1.096878E-05
1.647059E+03	4.097823E-04	1.090971E-05
1.686275E+03	4.094653E-04	1.085166E-05
1.725490E+03	4.093050E-04	1.079668E-05
1.764706E+03	4.093800E-04	1.074674E-05
1.803922E+03	4.096160E-04	1.069981E-05
1.843137E+03	4.100922E-04	1.065786E-05
1.882353E+03	4.108113E-04	1.062083E-05
1.921569E+03	4.117766E-04	1.058869E-05
1.960784E+03	4.129919E-04	1.056140E-05
2.000000E+03	4.144616E-04	1.053895E-05
2.039216E+03	4.163410E-04	1.052512E-05
2.078431E+03	4.184848E-04	1.051603E-05
2.117647E+03	4.210492E-04	1.051543E-05
2.156863E+03	4.239658E-04	1.052138E-05
2.196078E+03	4.273171E-04	1.053572E-05
2.235294E+03	4.311859E-04	1.056019E-05
2.274510E+03	4.355074E-04	1.059293E-05
2.313725E+03	4.404411E-04	1.063748E-05
2.352941E+03	4.459250E-04	1.069200E-05
2.392157E+03	4.520472E-04	1.075820E-05
2.431373E+03	4.588978E-04	1.083780E-05
2.470588E+03	4.664950E-04	1.093075E-05
2.509804E+03	4.749336E-04	1.103873E-05
2.549020E+03	4.843116E-04	1.116343E-05
2.588235E+03	4.947311E-04	1.130652E-05
2.627451E+03	5.062244E-04	1.146801E-05
2.666667E+03	5.189784E-04	1.165131E-05
2.705882E+03	5.331127E-04	1.185816E-05
2.745098E+03	5.487560E-04	1.209038E-05
2.784314E+03	5.660482E-04	1.234990E-05
2.823529E+03	5.852190E-04	1.264042E-05
2.862745E+03	6.065174E-04	1.296584E-05
2.901961E+03	6.302944E-04	1.333192E-05
2.941176E+03	6.567044E-04	1.373998E-05
2.950980E+03	6.637512E-04	1.384899E-05
2.960784E+03	6.710994E-04	1.396331E-05
2.970588E+03	6.785196E-04	1.407811E-05
2.980392E+03	6.862492E-04	1.419830E-05
2.990196E+03	6.942138E-04	1.432227E-05
3.000000E+03	7.023404E-04	1.444848E-05
3.009804E+03	7.107120E-04	1.457860E-05
3.019608E+03	7.194116E-04	1.471427E-05
3.029412E+03	7.282887E-04	1.485237E-05
3.039216E+03	7.374265E-04	1.499454E-05
3.049020E+03	7.469106E-04	1.514248E-05
3.058824E+03	7.565899E-04	1.529305E-05
3.068627E+03	7.666291E-04	1.544953E-05
3.078431E+03	7.770359E-04	1.561202E-05
3.088235E+03	7.876596E-04	1.577742E-05
3.098039E+03	7.986666E-04	1.594899E-05
3.107843E+03	8.099875E-04	1.612530E-05
3.117647E+03	8.217106E-04	1.630802E-05
3.127451E+03	8.338471E-04	1.649729E-05
3.137255E+03	8.463270E-04	1.669165E-05
3.147059E+03	8.592415E-04	1.689282E-05
3.156863E+03	8.726036E-04	1.710097E-05
3.166667E+03	8.864256E-04	1.731624E-05
3.176471E+03	9.006379E-04	1.753719E-05
3.186275E+03	9.154206E-04	1.776723E-05
3.196078E+03	9.306224E-04	1.800332E-05
3.205882E+03	9.464248E-04	1.824887E-05
3.215686E+03	9.627606E-04	1.850246E-05
3.225490E+03	9.796479E-04	1.876433E-05
3.235294E+03	9.971873E-04	1.903629E-05
3.245098E+03	1.015315E-03	1.931698E-05
3.254902E+03	1.034134E-03	1.960824E-05
3.264706E+03	1.053666E-03	1.991033E-05
3.274510E+03	1.073845E-03	2.022187E-05
3.284314E+03	1.094781E-03	2.054477E-05
3.294118E+03	1.116496E-03	2.087929E-05
3.303922E+03	1.139013E-03	2.122570E-05
3.313725E+03	1.162357E-03	2.158429E-05
3.323529E+03	1.186642E-03	2.195699E-05
3.333333E+03	1.211805E-03	2.234246E-05
3.343137E+03	1.237872E-03	2.274097E-05
3.352941E+03	1.264961E-03	2.315450E-05
3.362745E+03	1.293008E-03	2.358167E-05
3.372549E+03	1.322134E-03	2.402446E-05
3.382353E+03	1.352370E-03	2.448321E-05
3.392157E+03	1.383746E-03	2.495822E-05
3.401961E+03	1.416295E-03	2.544983E-05
3.411765E+03	1.450146E-03	2.596012E-05
3.421569E+03	1.485143E-03	2.648602E-05
3.431373E+03	1.521514E-03	2.703135E-05
3.441176E+03	1.559303E-03	2.759654E-05
3.450980E+03	1.598452E-03	2.818034E-05
3.460784E+03	1.639209E-03	2.878675E-05
3.470588E+03	1.681424E-03	2.941280E-05
3.480392E+03	1.725250E-03	3.006089E-05
3.490196E+03	1.770850E-03	3.073345E-05
3.500000E+03	1.818075E-03	3.142756E-05
3.509804E+03	1.867301E-03	3.214932E-05
3.519608E+03	1.918375E-03	3.289566E-05
3.529412E+03	1.971447E-03	3.366877E-05
3.539216E+03	2.026442E-03	3.446692E-05
3.549020E+03	2.083596E-03	3.529371E-05
3.558824E+03	2.142814E-03	3.614704E-05
3.568627E+03	2.204100E-03	3.702655E-05
3.578431E+03	2.267456E-03	3.793180E-05
3.588235E+03	2.333109E-03	3.886615E-05
3.598039E+03	2.400828E-03	3.982523E-05
3.607843E+03	2.470602E-03	4.080843E-05
3.617647E+03	2.542655E-03	4.181896E-05
3.627451E+03	2.616855E-03	4.285417E-05
3.637255E+03	2.693178E-03	4.391318E-05
3.647059E+03	2.771719E-03	4.499707E-05
3.656863E+03	2.852320E-03	4.610279E-05
3.666667E+03	2.935062E-03	4.723117E-05
3.676471E+03	3.019763E-03	4.837884E-05
3.686275E+03	3.106618E-03	4.954843E-05
3.696078E+03	3.195424E-03	5.073626E-05
3.705882E+03	3.285961E-03	5.193840E-05
3.715686E+03	3.378391E-03	5.315703E-05
3.725490E+03	3.472603E-03	5.438994E-05
3.735294E+03	3.568333E-03	5.563267E-05
3.745098E+03	3.665438E-03	5.688258E-05
3.754902E+03	3.764031E-03	5.814117E-05
3.764706E+03	3.863662E-03	5.940114E-05
3.774510E+03	3.964138E-03	6.065930E-05
3.784314E+03	4.065533E-03	6.191660E-05
3.794118E+03	4.167485E-03	6.316731E-05
3.803922E+03	4.269758E-03	6.440774E-05
3.813725E+03	4.372099E-03	6.563403E-05
3.823529E+03	4.474244E-03	6.684220E-05
3.833333E+03	4.575918E-03	6.802819E-05
3.843137E+03	4.676834E-03	6.918787E-05
3.852941E+03	4.776846E-03	7.031921E-05
3.862745E+03	4.875360E-03	7.141376E-05
3.872549E+03	4.972369E-03	7.247170E-05
3.882353E+03	5.067422E-03	7.348684E-05
3.892157E+03	5.160220E-03	7.445530E-05
3.901961E+03	5.250322E-03	7.537125E-05
3.911765E+03	5.337743E-03	7.623549E-05
3.921569E+03	5.421920E-03	7.704064E-05
3.931373E+03	5.502756E-03	7.778604E-05
3.941176E+03	5.579882E-03	7.846726E-05
3.950980E+03	5.653253E-03	7.908450E-05
3.960784E+03	5.722570E-03	7.963443E-05
3.970588E+03	5.787713E-03	8.011633E-05
3.980392E+03	5.848467E-03	8.052817E-05
3.990196E+03	5.904945E-03	8.087249E-05
4.000000E+03	5.956881E-03	8.114664E-05
4.009804E+03	6.004620E-03	8.135632E-05
4.019608E+03	6.048127E-03	8.150202E-05
4.029412E+03	6.087280E-03	8.158307E-05
4.039216E+03	6.122412E-03	8.160489E-05
4.049020E+03	6.153752E-03	8.157144E-05
4.058824E+03	6.181432E-03	8.148536E-05
4.068627E+03	6.205751E-03	8.135138E-05
4.078431E+03	6.226904E-03	8.117282E-05
4.088235E+03	6.245114E-03	8.095334E-05
4.098039E+03	6.260877E-03	8.070000E-05
4.107843E+03	6.274450E-03	8.041666E-05
4.117647E+03	6.286105E-03	8.010733E-05
4.127451E+03	6.296240E-03	7.977751E-05
4.137255E+03	6.305138E-03	7.943114E-05
4.147059E+03	6.313196E-03	7.907353E-05
4.156863E+03	6.320690E-03	7.870831E-05
4.166667E+03	6.327998E-03	7.834038E-05
4.176471E+03	6.335373E-03	7.797290E-05
4.186275E+03	6.343053E-03	7.760883E-05
4.196078E+03	6.351472E-03	7.725345E-05
4.205882E+03	6.360820E-03	7.690893E-05
4.215686E+03	6.371258E-03	7.657708E-05
4.225490E+03	6.382915E-03	7.625924E-05
4.235294E+03	6.396088E-03	7.595875E-05
4.245098E+03	6.410812E-03	7.567575E-05
4.254902E+03	6.427061E-03	7.540967E-05
4.264706E+03	6.444943E-03	7.516150E-05
4.274510E+03	6.464183E-03	7.492779E-05
4.284314E+03	6.484739E-03	7.470781E-05
4.294118E+03	6.506347E-03	7.449835E-05
4.303922E+03	6.528952E-03	7.429862E-05
4.313725E+03	6.552753E-03	7.411076E-05
4.323529E+03	6.578102E-03	7.393854E-05
4.333333E+03	6.605749E-03	7.379009E-05
4.343137E+03	6.636043E-03	7.366889E-05
4.352941E+03	6.669453E-03	7.357967E-05
4.362745E+03	6.706463E-03	7.352717E-05
4.372549E+03	6.747199E-03	7.351200E-05
4.382353E+03	6.791997E-03	7.353706E-05
4.392157E+03	6.840946E-03	7.360242E-05
4.401961E+03	6.894168E-03	7.370857E-05
4.411765E+03	6.951544E-03	7.385335E-05
4.421569E+03	7.013178E-03	7.403700E-05
4.431373E+03	7.079023E-03	7.425818E-05
4.441176E+03	7.148790E-03	7.451303E-05
4.450980E+03	7.222309E-03	7.479901E-05
4.460784E+03	7.299438E-03	7.511390E-05
4.470588E+03	7.379684E-03	7.545196E-05
4.480392E+03	7.462763E-03	7.580970E-05
4.490196E+03	7.548209E-03	7.618187E-05
4.500000E+03	7.635300E-03	7.656076E-05
4.509804E+03	7.723632E-03	7.694205E-05
4.519608E+03	7.812315E-03	7.731671E-05
4.529412E+03	7.900732E-03	7.767861E-05
4.539216E+03	7.988089E-03	7.802008E-05
4.549020E+03	8.073590E-03	7.833361E-05
4.558824E+03	8.156398E-03	7.861153E-05
4.568627E+03	8.235625E-03	7.884588E-05
4.578431E+03	8.310688E-03	7.903182E-05
4.588235E+03	8.380677E-03	7.916159E-05
4.598039E+03	8.445167E-03	7.923221E-05
4.607843E+03	8.503421E-03	7.923789E-05
4.617647E+03	8.555146E-03	7.917712E-05
4.627451E+03	8.600089E-03	7.904888E-05
4.637255E+03	8.637923E-03	7.885148E-05
4.647059E+03	8.668688E-03	7.858669E-05
4.656863E+03	8.692456E-03	7.825651E-05
4.666667E+03	8.709436E-03	7.786417E-05
4.676471E+03	8.719874E-03	7.741319E-05
4.686275E+03	8.724292E-03	7.690942E-05
4.696078E+03	8.723025E-03	7.635698E-05
4.705882E+03	8.717132E-03	7.576617E-05
4.715686E+03	8.707234E-03	7.514329E-05
4.725490E+03	8.694286E-03	7.449729E-05
4.735294E+03	8.679129E-03	7.383598E-05
4.745098E+03	8.662802E-03	7.316860E-05
4.754902E+03	8.645827E-03	7.249983E-05
4.764706E+03	8.629198E-03	7.183814E-05
4.774510E+03	8.613566E-03	7.118893E-05
4.784314E+03	8.599640E-03	7.055794E-05
4.794118E+03	8.587977E-03	6.994953E-05
4.803922E+03	8.579169E-03	6.936818E-05
4.813725E+03	8.573540E-03	6.881612E-05
4.823529E+03	8.571639E-03	6.829730E-05
4.833333E+03	8.573725E-03	6.781327E-05
4.843137E+03	8.579987E-03	6.736498E-05
4.852941E+03	8.590516E-03	6.695259E-05
4.862745E+03	8.605299E-03	6.657549E-05
4.872549E+03	8.624311E-03	6.623296E-05
4.882353E+03	8.647332E-03	6.592282E-05
4.892157E+03	8.674132E-03	6.564293E-05
4.901961E+03	8.704106E-03	6.538839E-05
4.911765E+03	8.737031E-03	6.515728E-05
4.921569E+03	8.772126E-03	6.494367E-05
4.931373E+03	8.808781E-03	6.474305E-05
4.941176E+03	8.846601E-03	6.455264E-05
4.950980E+03	8.884657E-03	6.436590E-05
4.960784E+03	8.922488E-03	6.417986E-05
4.970588E+03	8.959432E-03	6.399026E-05
4.980392E+03	8.995086E-03	6.379478E-05
4.990196E+03	9.029052E-03	6.359126E-05
5.000000E+03	9.061072E-03	6.337860E-05
5.009804E+03	9.091021E-03	6.315669E-05
5.019608E+03	9.118913E-03	6.292640E-05
5.029412E+03	9.144995E-03	6.269020E-05
5.039216E+03	9.169408E-03	6.244980E-05
5.049020E+03	9.192517E-03	6.220842E-05
5.058824E+03	9.214790E-03	6.196991E-05
5.068627E+03	9.236681E-03	6.173794E-05
5.078431E+03	9.258528E-03	6.151536E-05
5.088235E+03	9.280946E-03	6.130682E-05
5.098039E+03	9.304155E-03	6.111428E-05
5.107843E+03	9.328626E-03	6.094133E-05
5.117647E+03	9.354770E-03	6.079113E-05
5.127451E+03	9.382773E-03	6.066535E-05
5.137255E+03	9.412868E-03	6.056596E-05
5.147059E+03	9.445226E-03	6.049454E-05
5.156863E+03	9.480167E-03	6.045364E-05
5.166667E+03	9.517497E-03	6.044253E-05
5.176471E+03	9.557537E-03	6.046379E-05
5.186275E+03	9.600092E-03	6.051675E-05
5.196078E+03	9.645332E-03	6.060310E-05
5.205882E+03	9.692990E-03	6.072180E-05
5.215686E+03	9.743178E-03	6.087422E-05
5.225490E+03	9.795789E-03	6.106041E-05
5.235294E+03	9.850616E-03	6.127981E-05
5.245098E+03	9.907643E-03	6.153309E-05
5.254902E+03	9.966785E-03	6.182053E-05
5.264706E+03	1.002807E-02	6.214308E-05
5.274510E+03	1.009134E-02	6.250069E-05
5.284314E+03	1.015672E-02	6.289485E-05
5.294118E+03	1.022436E-02	6.332748E-05
5.303922E+03	1.029418E-02	6.379891E-05
5.313725E+03	1.036656E-02	6.431236E-05
5.323529E+03	1.044173E-02	6.486983E-05
5.333333E+03	1.051987E-02	6.547257E-05
5.343137E+03	1.060150E-02	6.612399E-05
5.352941E+03	1.068681E-02	6.682542E-05
5.362745E+03	1.077606E-02	6.757856E-05
5.372549E+03	1.086950E-02	6.838528E-05
5.382353E+03	1.096710E-02	6.924545E-05
5.392157E+03	1.106844E-02	7.015677E-05
5.401961E+03	1.117295E-02	7.111567E-05
5.411765E+03	1.127986E-02	7.211742E-05
5.421569E+03	1.138799E-02	7.315460E-05
5.431373E+03	1.149588E-02	7.421760E-05
5.441176E+03	1.160195E-02	7.529605E-05
5.450980E+03	1.170449E-02	7.637839E-05
5.460784E+03	1.180176E-02	7.745249E-05
5.470588E+03	1.189194E-02	7.850544E-05
5.480392E+03	1.197319E-02	7.952378E-05
5.490196E+03	1.204388E-02	8.049518E-05
5.500000E+03	1.210272E-02	8.140907E-05
5.509804E+03	1.214830E-02	8.225392E-05
5.519608E+03	1.217981E-02	8.302173E-05
5.529412E+03	1.219692E-02	8.370778E-05
5.539216E+03	1.219944E-02	8.430802E-05
5.549020E+03	1.218771E-02	8.482193E-05
5.558824E+03	1.216241E-02	8.525154E-05
5.568627E+03	1.212445E-02	8.560037E-05
5.578431E+03	1.207510E-02	8.587477E-05
5.588235E+03	1.201584E-02	8.608278E-05
5.598039E+03	1.194841E-02	8.623472E-05
5.607843E+03	1.187431E-02	8.633931E-05
5.617647E+03	1.179530E-02	8.640757E-05
5.627451E+03	1.171323E-02	8.645178E-05
5.637255E+03	1.162972E-02	8.648263E-05
5.647059E+03	1.154641E-02	8.651158E-05
5.656863E+03	1.146496E-02	8.655053E-05
5.666667E+03	1.138659E-02	8.660842E-05
5.676471E+03	1.131258E-02	8.669510E-05
5.686275E+03	1.124432E-02	8.682137E-05
5.696078E+03	1.118245E-02	8.699282E-05
5.705882E+03	1.112799E-02	8.721808E-05
5.715686E+03	1.108159E-02	8.750299E-05
5.725490E+03	1.104345E-02	8.785030E-05
5.735294E+03	1.101396E-02	8.826410E-05
5.745098E+03	1.099329E-02	8.874690E-05
5.754902E+03	1.098113E-02	8.929750E-05
5.764706E+03	1.097724E-02	8.991495E-05
5.774510E+03	1.098143E-02	9.059887E-05
5.784314E+03	1.099288E-02	9.134354E-05
5.794118E+03	1.101115E-02	9.214636E-05
5.803922E+03	1.103554E-02	9.300225E-05
5.813725E+03	1.106505E-02	9.390358E-05
5.823529E+03	1.109904E-02	9.484552E-05
5.833333E+03	1.113654E-02	9.582017E-05
5.843137E+03	1.117653E-02	9.681909E-05
5.852941E+03	1.121837E-02	9.783683E-05
5.862745E+03	1.126108E-02	9.886484E-05
5.872549E+03	1.130386E-02	9.989610E-05
5.882353E+03	1.134602E-02	1.009240E-04
5.892157E+03	1.138692E-02	1.019427E-04
5.901961E+03	1.142607E-02	1.029472E-04
5.911765E+03	1.146324E-02	1.039348E-04
5.921569E+03	1.149794E-02	1.049007E-04
5.931373E+03	1.153045E-02	1.058466E-04
5.941176E+03	1.156055E-02	1.067700E-04
5.950980E+03	1.158865E-02	1.076742E-04
5.960784E+03	1.161478E-02	1.085588E-04
5.970588E+03	1.163968E-02	1.094303E-04
5.980392E+03	1.166356E-02	1.102903E-04
5.990196E+03	1.168732E-02	1.111470E-04
6.000000E+03	1.171127E-02	1.120033E-04
6.009804E+03	1.173626E-02	1.128670E-04
6.019608E+03	1.176276E-02	1.137429E-04
6.029412E+03	1.179149E-02	1.146380E-04
6.039216E+03	1.182299E-02	1.155577E-04
6.049020E+03	1.185742E-02	1.165040E-04
6.058824E+03	1.189531E-02	1.174823E-04
6.068627E+03	1.193689E-02	1.184952E-04
6.078431E+03	1.198275E-02	1.195492E-04
6.088235E+03	1.203289E-02	1.206447E-04
6.098039E+03	1.208746E-02	1.217835E-04
6.107843E+03	1.214608E-02	1.229625E-04
6.117647E+03	1.220863E-02	1.241807E-04
6.127451E+03	1.227458E-02	1.254333E-04
6.137255E+03	1.234332E-02	1.267141E-04
6.147059E+03	1.241434E-02	1.280182E-04
6.156863E+03	1.248668E-02	1.293358E-04
6.166667E+03	1.255980E-02	1.306612E-04
6.176471E+03	1.263245E-02	1.319813E-04
6.186275E+03	1.270387E-02	1.332880E-04
6.196078E+03	1.277328E-02	1.345725E-04
6.205882E+03	1.283966E-02	1.358239E-04
6.215686E+03	1.290203E-02	1.370311E-04
6.225490E+03	1.295985E-02	1.381875E-04
6.235294E+03	1.301228E-02	1.392837E-04
6.245098E+03	1.305869E-02	1.403120E-04
6.254902E+03	1.309857E-02	1.412661E-04
6.264706E+03	1.313167E-02	1.421423E-04
6.274510E+03	1.315758E-02	1.429355E-04
6.284314E+03	1.317643E-02	1.436460E-04
6.294118E+03	1.318789E-02	1.442694E-04
6.303922E+03	1.319231E-02	1.448087E-04
6.313725E+03	1.318984E-02	1.452647E-04
6.323529E+03	1.318053E-02	1.456372E-04
6.333333E+03	1.316491E-02	1.459313E-04
6.343137E+03	1.314323E-02	1.461494E-04
6.352941E+03	1.311562E-02	1.462920E-04
6.362745E+03	1.308259E-02	1.463646E-04
6.372549E+03	1.304422E-02	1.463672E-04
6.382353E+03	1.300092E-02	1.463043E-04
6.392157E+03	1.295238E-02	1.461719E-04
6.401961E+03	1.289907E-02	1.459750E-04
6.411765E+03	1.284070E-02	1.457099E-04
6.421569E+03	1.277736E-02	1.453772E-04
6.431373E+03	1.270870E-02	1.449727E-04
6.441176E+03	1.263501E-02	1.444995E-04
6.450980E+03	1.255578E-02	1.439511E-04
6.460784E+03	1.247116E-02	1.433294E-04
6.470588E+03	1.238108E-02	1.426330E-04
6.480392E+03	1.228534E-02	1.418594E-04
6.490196E+03	1.218394E-02	1.410083E-04
6.500000E+03	1.207704E-02	1.400815E-04
6.509804E+03	1.196477E-02	1.390802E-04
6.519608E+03	1.184727E-02	1.380057E-04
6.529412E+03	1.172462E-02	1.368592E-04
6.539216E+03	1.159737E-02	1.356466E-04
6.549020E+03	1.146569E-02	1.343701E-04
6.558824E+03	1.132996E-02	1.330339E-04
6.568627E+03	1.119057E-02	1.316426E-04
6.578431E+03	1.104805E-02	1.302028E-04
6.588235E+03	1.090287E-02	1.287197E-04
6.598039E+03	1.075545E-02	1.271988E-04
6.607843E+03	1.060627E-02	1.256456E-04
6.617647E+03	1.045591E-02	1.240674E-04
6.627451E+03	1.030471E-02	1.224682E-04
6.637255E+03	1.015314E-02	1.208540E-04
6.647059E+03	1.000174E-02	1.192315E-04
6.656863E+03	9.850955E-03	1.176064E-04
6.666667E+03	9.701219E-03	1.159840E-04
6.676471E+03	9.552926E-03	1.143695E-04
6.686275E+03	9.406598E-03	1.127694E-04
6.696078E+03	9.262498E-03	1.111873E-04
6.705882E+03	9.121116E-03	1.096294E-04
6.715686E+03	8.982706E-03	1.080991E-04
6.725490E+03	8.847715E-03	1.066023E-04
6.735294E+03	8.716478E-03	1.051434E-04
6.745098E+03	8.589303E-03	1.037264E-04
6.754902E+03	8.466500E-03	1.023556E-04
6.764706E+03	8.348424E-03	1.010355E-04
6.774510E+03	8.235144E-03	9.976754E-05
6.784314E+03	8.127063E-03	9.855684E-05
6.794118E+03	8.024296E-03	9.740524E-05
6.803922E+03	7.927087E-03	9.631607E-05
6.813725E+03	7.835483E-03	9.529029E-05
6.823529E+03	7.749682E-03	9.433065E-05
6.833333E+03	7.669670E-03	9.343734E-05
6.843137E+03	7.595591E-03	9.261246E-05
6.852941E+03	7.527474E-03	9.185669E-05
6.862745E+03	7.465234E-03	9.116932E-05
6.872549E+03	7.408860E-03	9.055053E-05
6.882353E+03	7.358505E-03	9.000247E-05
6.892157E+03	7.313938E-03	8.952264E-05
6.901961E+03	7.275188E-03	8.911164E-05
6.911765E+03	7.242087E-03	8.876770E-05
6.921569E+03	7.214631E-03	8.849102E-05
6.931373E+03	7.192621E-03	8.827941E-05
6.941176E+03	7.176025E-03	8.813274E-05
6.950980E+03	7.164707E-03	8.804955E-05
6.960784E+03	7.158432E-03	8.802719E-05
6.970588E+03	7.157132E-03	8.806503E-05
6.980392E+03	7.160550E-03	8.816015E-05
6.990196E+03	7.168513E-03	8.831061E-05
7.000000E+03	7.180934E-03	8.851554E-05
7.009804E+03	7.197537E-03	8.877174E-05
7.019608E+03	7.218138E-03	8.907715E-05
7.029412E+03	7.242642E-03	8.943077E-05
7.039216E+03	7.270676E-03	8.982822E-05
7.049020E+03	7.302237E-03	9.026963E-05
7.058824E+03	7.337047E-03	9.075176E-05
7.068627E+03	7.374919E-03	9.127248E-05
7.078431E+03	7.415667E-03	9.182970E-05
7.088235E+03	7.459108E-03	9.242133E-05
7.098039E+03	7.504962E-03	9.304409E-05
7.107843E+03	7.553242E-03	9.369835E-05
7.117647E+03	7.603673E-03	9.438090E-05
7.127451E+03	7.656080E-03	9.508976E-05
7.137255E+03	7.710291E-03	9.582300E-05
7.147059E+03	7.766137E-03	9.657872E-05
7.156863E+03	7.823451E-03	9.735507E-05
7.166667E+03	7.882071E-03	9.815023E-05
7.176471E+03	7.941830E-03	9.896234E-05
7.186275E+03	8.002683E-03	9.979107E-05
7.196078E+03	8.064472E-03	1.006347E-04
7.205882E+03	8.127047E-03	1.014915E-04
7.215686E+03	8.190264E-03	1.023600E-04
7.225490E+03	8.254078E-03	1.032398E-04
7.235294E+03	8.318368E-03	1.041296E-04
7.245098E+03	8.383089E-03	1.050292E-04
7.254902E+03	8.448121E-03	1.059373E-04
7.264706E+03	8.513316E-03	1.068523E-04
7.274510E+03	8.578752E-03	1.077754E-04
7.284314E+03	8.644147E-03	1.087034E-04
7.294118E+03	8.709174E-03	1.096323E-04
7.303922E+03	8.773566E-03	1.105591E-04
7.313725E+03	8.836897E-03	1.114786E-04
7.323529E+03	8.898761E-03	1.123860E-04
7.333333E+03	8.958544E-03	1.132737E-04
7.343137E+03	9.015586E-03	1.141335E-04
7.352941E+03	9.069315E-03	1.149584E-04
7.362745E+03	9.119306E-03	1.157430E-04
7.372549E+03	9.165223E-03	1.164832E-04
7.382353E+03	9.207585E-03	1.171857E-04
7.392157E+03	9.246646E-03	1.178537E-04
7.401961E+03	9.282925E-03	1.184940E-04
7.411765E+03	9.317039E-03	1.191146E-04
7.421569E+03	9.349172E-03	1.197179E-04
7.431373E+03	9.379924E-03	1.203118E-04
7.441176E+03	9.409328E-03	1.208969E-04
7.450980E+03	9.437876E-03	1.214796E-04
7.460784E+03	9.465523E-03	1.220595E-04
7.470588E+03	9.492556E-03	1.226407E-04
7.480392E+03	9.519110E-03	1.232249E-04
7.490196E+03	9.545308E-03	1.238141E-04
7.500000E+03	9.571253E-03	1.244098E-04
7.509804E+03	9.597030E-03	1.250132E-04
7.519608E+03	9.622601E-03	1.256242E-04
7.529412E+03	9.648292E-03	1.262469E-04
7.539216E+03	9.673886E-03	1.268786E-04
7.549020E+03	9.699715E-03	1.275234E-04
7.558824E+03	9.725533E-03	1.281782E-04
7.568627E+03	9.751632E-03	1.288468E-04
7.578431E+03	9.777904E-03	1.295277E-04
7.588235E+03	9.804335E-03	1.302206E-04
7.598039E+03	9.831038E-03	1.309270E-04
7.607843E+03	9.857845E-03	1.316447E-04
