#wls	flux	fluxerr
1.568627E+03	4.198492E-04	1.123946E-05
1.607843E+03	4.190682E-04	1.117015E-05
1.647059E+03	4.184439E-04	1.110404E-05
1.686275E+03	4.178988E-04	1.103902E-05
1.725490E+03	4.175932E-04	1.097927E-05
1.764706E+03	4.173716E-04	1.092060E-05
1.803922E+03	4.173942E-04	1.086714E-05
1.843137E+03	4.176633E-04	1.081884E-05
1.882353E+03	4.181819E-04	1.077565E-05
1.921569E+03	4.188757E-04	1.073554E-05
1.960784E+03	4.199045E-04	1.070249E-05
2.000000E+03	4.211947E-04	1.067446E-05
2.039216E+03	4.228290E-04	1.065340E-05
2.078431E+03	4.248127E-04	1.063925E-05
2.117647E+03	4.271523E-04	1.063197E-05
2.156863E+03	4.299316E-04	1.063344E-05
2.196078E+03	4.331586E-04	1.064359E-05
2.235294E+03	4.367661E-04	1.066053E-05
2.274510E+03	4.409935E-04	1.068982E-05
2.313725E+03	4.456999E-04	1.072769E-05
2.352941E+03	4.510509E-04	1.077779E-05
2.392157E+03	4.570617E-04	1.084008E-05
2.431373E+03	4.637492E-04	1.091452E-05
2.470588E+03	4.712093E-04	1.100290E-05
2.509804E+03	4.795401E-04	1.110697E-05
2.549020E+03	4.887676E-04	1.122674E-05
2.588235E+03	4.990736E-04	1.136572E-05
2.627451E+03	5.104930E-04	1.152393E-05
2.666667E+03	5.231425E-04	1.170320E-05
2.705882E+03	5.372228E-04	1.190708E-05
2.745098E+03	5.527911E-04	1.213577E-05
2.784314E+03	5.700693E-04	1.239300E-05
2.823529E+03	5.892954E-04	1.268258E-05
2.862745E+03	6.106495E-04	1.300688E-05
2.901961E+03	6.344147E-04	1.337022E-05
2.941176E+03	6.610664E-04	1.378064E-05
2.950980E+03	6.681909E-04	1.389056E-05
2.960784E+03	6.755464E-04	1.400429E-05
2.970588E+03	6.830578E-04	1.412023E-05
2.980392E+03	6.908093E-04	1.424009E-05
2.990196E+03	6.988041E-04	1.436389E-05
3.000000E+03	7.070477E-04	1.449170E-05
3.009804E+03	7.155459E-04	1.462358E-05
3.019608E+03	7.242233E-04	1.475794E-05
3.029412E+03	7.332456E-04	1.489812E-05
3.039216E+03	7.425401E-04	1.504257E-05
3.049020E+03	7.521127E-04	1.519136E-05
3.058824E+03	7.619696E-04	1.534457E-05
3.068627E+03	7.721199E-04	1.550230E-05
3.078431E+03	7.825694E-04	1.566463E-05
3.088235E+03	7.934104E-04	1.583333E-05
3.098039E+03	8.045688E-04	1.600685E-05
3.107843E+03	8.161378E-04	1.618697E-05
3.117647E+03	8.280438E-04	1.637216E-05
3.127451E+03	8.403822E-04	1.656422E-05
3.137255E+03	8.530800E-04	1.676165E-05
3.147059E+03	8.662334E-04	1.696623E-05
3.156863E+03	8.798562E-04	1.717817E-05
3.166667E+03	8.939632E-04	1.739763E-05
3.176471E+03	9.084830E-04	1.762315E-05
3.186275E+03	9.236013E-04	1.785822E-05
3.196078E+03	9.391652E-04	1.809978E-05
3.205882E+03	9.553633E-04	1.835136E-05
3.215686E+03	9.721277E-04	1.861153E-05
3.225490E+03	9.894780E-04	1.888054E-05
3.235294E+03	1.007522E-03	1.916032E-05
3.245098E+03	1.026193E-03	1.944949E-05
3.254902E+03	1.045603E-03	1.974998E-05
3.264706E+03	1.065685E-03	2.006042E-05
3.274510E+03	1.086644E-03	2.038450E-05
3.284314E+03	1.108324E-03	2.071914E-05
3.294118E+03	1.130752E-03	2.106466E-05
3.303922E+03	1.154136E-03	2.142478E-05
3.313725E+03	1.178505E-03	2.179983E-05
3.323529E+03	1.203703E-03	2.218676E-05
3.333333E+03	1.229945E-03	2.258930E-05
3.343137E+03	1.257167E-03	2.300607E-05
3.352941E+03	1.285397E-03	2.343740E-05
3.362745E+03	1.314858E-03	2.388709E-05
3.372549E+03	1.345388E-03	2.435198E-05
3.382353E+03	1.377114E-03	2.483412E-05
3.392157E+03	1.410067E-03	2.533381E-05
3.401961E+03	1.444278E-03	2.585135E-05
3.411765E+03	1.479778E-03	2.638701E-05
3.421569E+03	1.516697E-03	2.694285E-05
3.431373E+03	1.554968E-03	2.751734E-05
3.441176E+03	1.594722E-03	2.811255E-05
3.450980E+03	1.635995E-03	2.872875E-05
3.460784E+03	1.678714E-03	2.936436E-05
3.470588E+03	1.723126E-03	3.002337E-05
3.480392E+03	1.769057E-03	3.070237E-05
3.490196E+03	1.816758E-03	3.140541E-05
3.500000E+03	1.866276E-03	3.213290E-05
3.509804E+03	1.917549E-03	3.288339E-05
3.519608E+03	1.970625E-03	3.365729E-05
3.529412E+03	2.025657E-03	3.445683E-05
3.539216E+03	2.082778E-03	3.528385E-05
3.549020E+03	2.141774E-03	3.613428E-05
3.558824E+03	2.202889E-03	3.701180E-05
3.568627E+03	2.266022E-03	3.791427E-05
3.578431E+03	2.331185E-03	3.884144E-05
3.588235E+03	2.398630E-03	3.979707E-05
3.598039E+03	2.468128E-03	4.077684E-05
3.607843E+03	2.539806E-03	4.178243E-05
3.617647E+03	2.613669E-03	4.281339E-05
3.627451E+03	2.689713E-03	4.386923E-05
3.637255E+03	2.768057E-03	4.495137E-05
3.647059E+03	2.848561E-03	4.605703E-05
3.656863E+03	2.931328E-03	4.718740E-05
3.666667E+03	3.016328E-03	4.834149E-05
3.676471E+03	3.103383E-03	4.951597E-05
3.686275E+03	3.192706E-03	5.071373E-05
3.696078E+03	3.284093E-03	5.193108E-05
3.705882E+03	3.377462E-03	5.316626E-05
3.715686E+03	3.472715E-03	5.441725E-05
3.725490E+03	3.569875E-03	5.568403E-05
3.735294E+03	3.668674E-03	5.696198E-05
3.745098E+03	3.769249E-03	5.825285E-05
3.754902E+03	3.871149E-03	5.954931E-05
3.764706E+03	3.974191E-03	6.084825E-05
3.774510E+03	4.078462E-03	6.215072E-05
3.784314E+03	4.183600E-03	6.345096E-05
3.794118E+03	4.289368E-03	6.474519E-05
3.803922E+03	4.395512E-03	6.602945E-05
3.813725E+03	4.501764E-03	6.729963E-05
3.823529E+03	4.607838E-03	6.855144E-05
3.833333E+03	4.713590E-03	6.978278E-05
3.843137E+03	4.818560E-03	7.098696E-05
3.852941E+03	4.922432E-03	7.215947E-05
3.862745E+03	5.024883E-03	7.329588E-05
3.872549E+03	5.125589E-03	7.439176E-05
3.882353E+03	5.224225E-03	7.544282E-05
3.892157E+03	5.320472E-03	7.644493E-05
3.901961E+03	5.414020E-03	7.739420E-05
3.911765E+03	5.504575E-03	7.828701E-05
3.921569E+03	5.591705E-03	7.911797E-05
3.931373E+03	5.675311E-03	7.988640E-05
3.941176E+03	5.755015E-03	8.058782E-05
3.950980E+03	5.830778E-03	8.122256E-05
3.960784E+03	5.902146E-03	8.178521E-05
3.970588E+03	5.969159E-03	8.227730E-05
3.980392E+03	6.031602E-03	8.269688E-05
3.990196E+03	6.089459E-03	8.304475E-05
4.000000E+03	6.142758E-03	8.332234E-05
4.009804E+03	6.191436E-03	8.352982E-05
4.019608E+03	6.235763E-03	8.367186E-05
4.029412E+03	6.275628E-03	8.374797E-05
4.039216E+03	6.311251E-03	8.376209E-05
4.049020E+03	6.343029E-03	8.372042E-05
4.058824E+03	6.370843E-03	8.362230E-05
4.068627E+03	6.395297E-03	8.347648E-05
4.078431E+03	6.416341E-03	8.328314E-05
4.088235E+03	6.434623E-03	8.305139E-05
4.098039E+03	6.450274E-03	8.278359E-05
4.107843E+03	6.463703E-03	8.248555E-05
4.117647E+03	6.475197E-03	8.216147E-05
4.127451E+03	6.485173E-03	8.181707E-05
4.137255E+03	6.493923E-03	8.145637E-05
4.147059E+03	6.501729E-03	8.108323E-05
4.156863E+03	6.509109E-03	8.070431E-05
4.166667E+03	6.516200E-03	8.032145E-05
4.176471E+03	6.523250E-03	7.993779E-05
4.186275E+03	6.530829E-03	7.956035E-05
4.196078E+03	6.538903E-03	7.918865E-05
4.205882E+03	6.547760E-03	7.882610E-05
4.215686E+03	6.557764E-03	7.847694E-05
4.225490E+03	6.569014E-03	7.814218E-05
4.235294E+03	6.581571E-03	7.782231E-05
4.245098E+03	6.595656E-03	7.751973E-05
4.254902E+03	6.611208E-03	7.723345E-05
4.264706E+03	6.628188E-03	7.696278E-05
4.274510E+03	6.646452E-03	7.670582E-05
4.284314E+03	6.665728E-03	7.645924E-05
4.294118E+03	6.685684E-03	7.621914E-05
4.303922E+03	6.705659E-03	7.597792E-05
4.313725E+03	6.725879E-03	7.573824E-05
4.323529E+03	6.747417E-03	7.551211E-05
4.333333E+03	6.771013E-03	7.530757E-05
4.343137E+03	6.797459E-03	7.513304E-05
4.352941E+03	6.827125E-03	7.499207E-05
4.362745E+03	6.860664E-03	7.489120E-05
4.372549E+03	6.898248E-03	7.483152E-05
4.382353E+03	6.940361E-03	7.481738E-05
4.392157E+03	6.987032E-03	7.484815E-05
4.401961E+03	7.038514E-03	7.492560E-05
4.411765E+03	7.094905E-03	7.504977E-05
4.421569E+03	7.156050E-03	7.521804E-05
4.431373E+03	7.221922E-03	7.542917E-05
4.441176E+03	7.292336E-03	7.568029E-05
4.450980E+03	7.367129E-03	7.596882E-05
4.460784E+03	7.446063E-03	7.629145E-05
4.470588E+03	7.528640E-03	7.664230E-05
4.480392E+03	7.614461E-03	7.701662E-05
4.490196E+03	7.703067E-03	7.740917E-05
4.500000E+03	7.793885E-03	7.781371E-05
4.509804E+03	7.886117E-03	7.822189E-05
4.519608E+03	7.979159E-03	7.862751E-05
4.529412E+03	8.072250E-03	7.902298E-05
4.539216E+03	8.164490E-03	7.939955E-05
4.549020E+03	8.255160E-03	7.975048E-05
4.558824E+03	8.343209E-03	8.006598E-05
4.568627E+03	8.428009E-03	8.034062E-05
4.578431E+03	8.508551E-03	8.056548E-05
4.588235E+03	8.584201E-03	8.073545E-05
4.598039E+03	8.654100E-03	8.084346E-05
4.607843E+03	8.717871E-03	8.088714E-05
4.617647E+03	8.774785E-03	8.086097E-05
4.627451E+03	8.824634E-03	8.076438E-05
4.637255E+03	8.867051E-03	8.059539E-05
4.647059E+03	8.901921E-03	8.035443E-05
4.656863E+03	8.929293E-03	8.004337E-05
4.666667E+03	8.949322E-03	7.966504E-05
4.676471E+03	8.962130E-03	7.922195E-05
4.686275E+03	8.968227E-03	7.871996E-05
4.696078E+03	8.968037E-03	7.816407E-05
4.705882E+03	8.962545E-03	7.756402E-05
4.715686E+03	8.952491E-03	7.692720E-05
4.725490E+03	8.938938E-03	7.626358E-05
4.735294E+03	8.922679E-03	7.558059E-05
4.745098E+03	8.904878E-03	7.488859E-05
4.754902E+03	8.886183E-03	7.419335E-05
4.764706E+03	8.867714E-03	7.350439E-05
4.774510E+03	8.850050E-03	7.282654E-05
4.784314E+03	8.833995E-03	7.216630E-05
4.794118E+03	8.820195E-03	7.152875E-05
4.803922E+03	8.809137E-03	7.091752E-05
4.813725E+03	8.801324E-03	7.033627E-05
4.823529E+03	8.797169E-03	6.978786E-05
4.833333E+03	8.796994E-03	6.927433E-05
4.843137E+03	8.800758E-03	6.879481E-05
4.852941E+03	8.808789E-03	6.835139E-05
4.862745E+03	8.820853E-03	6.794170E-05
4.872549E+03	8.837000E-03	6.756566E-05
4.882353E+03	8.856991E-03	6.722100E-05
4.892157E+03	8.880410E-03	6.690418E-05
4.901961E+03	8.907061E-03	6.661345E-05
4.911765E+03	8.936280E-03	6.634363E-05
4.921569E+03	8.967744E-03	6.609223E-05
4.931373E+03	9.000715E-03	6.585381E-05
4.941176E+03	9.034825E-03	6.562582E-05
4.950980E+03	9.069504E-03	6.540432E-05
4.960784E+03	9.104136E-03	6.518522E-05
4.970588E+03	9.138343E-03	6.496623E-05
4.980392E+03	9.171712E-03	6.474493E-05
4.990196E+03	9.203827E-03	6.451897E-05
5.000000E+03	9.234558E-03	6.428808E-05
5.009804E+03	9.263905E-03	6.405295E-05
5.019608E+03	9.291650E-03	6.381274E-05
5.029412E+03	9.317992E-03	6.356955E-05
5.039216E+03	9.343124E-03	6.332538E-05
5.049020E+03	9.367397E-03	6.308329E-05
5.058824E+03	9.391045E-03	6.284549E-05
5.068627E+03	9.414423E-03	6.261497E-05
5.078431E+03	9.438028E-03	6.239564E-05
5.088235E+03	9.462148E-03	6.218993E-05
5.098039E+03	9.487266E-03	6.200155E-05
5.107843E+03	9.513647E-03	6.183272E-05
5.117647E+03	9.541836E-03	6.168747E-05
5.127451E+03	9.571930E-03	6.156689E-05
5.137255E+03	9.604179E-03	6.147310E-05
5.147059E+03	9.639013E-03	6.140929E-05
5.156863E+03	9.676489E-03	6.137636E-05
5.166667E+03	9.716750E-03	6.137570E-05
5.176471E+03	9.759974E-03	6.140900E-05
5.186275E+03	9.806111E-03	6.147651E-05
5.196078E+03	9.855173E-03	6.157892E-05
5.205882E+03	9.907251E-03	6.171745E-05
5.215686E+03	9.962301E-03	6.189251E-05
5.225490E+03	1.002028E-02	6.210454E-05
5.235294E+03	1.008111E-02	6.235387E-05
5.245098E+03	1.014474E-02	6.264092E-05
5.254902E+03	1.021110E-02	6.296608E-05
5.264706E+03	1.028025E-02	6.333063E-05
5.274510E+03	1.035204E-02	6.373456E-05
5.284314E+03	1.042658E-02	6.417934E-05
5.294118E+03	1.050387E-02	6.466608E-05
5.303922E+03	1.058395E-02	6.519583E-05
5.313725E+03	1.066688E-02	6.576997E-05
5.323529E+03	1.075269E-02	6.638949E-05
5.333333E+03	1.084145E-02	6.705495E-05
5.343137E+03	1.093317E-02	6.776668E-05
5.352941E+03	1.102795E-02	6.852538E-05
5.362745E+03	1.112558E-02	6.932998E-05
5.372549E+03	1.122597E-02	7.018003E-05
5.382353E+03	1.132869E-02	7.107299E-05
5.392157E+03	1.143325E-02	7.200588E-05
5.401961E+03	1.153911E-02	7.297525E-05
5.411765E+03	1.164527E-02	7.397490E-05
5.421569E+03	1.175074E-02	7.499822E-05
5.431373E+03	1.185433E-02	7.603741E-05
5.441176E+03	1.195486E-02	7.708441E-05
5.450980E+03	1.205068E-02	7.812800E-05
5.460784E+03	1.214060E-02	7.915949E-05
5.470588E+03	1.222303E-02	8.016749E-05
5.480392E+03	1.229648E-02	8.114076E-05
5.490196E+03	1.235976E-02	8.207002E-05
5.500000E+03	1.241180E-02	8.294611E-05
5.509804E+03	1.245158E-02	8.376030E-05
5.519608E+03	1.247849E-02	8.450608E-05
5.529412E+03	1.249224E-02	8.517904E-05
5.539216E+03	1.249282E-02	8.577664E-05
5.549020E+03	1.248056E-02	8.629855E-05
5.558824E+03	1.245599E-02	8.674563E-05
5.568627E+03	1.242000E-02	8.712170E-05
5.578431E+03	1.237387E-02	8.743321E-05
5.588235E+03	1.231871E-02	8.768568E-05
5.598039E+03	1.225624E-02	8.788928E-05
5.607843E+03	1.218782E-02	8.805177E-05
5.617647E+03	1.211508E-02	8.818349E-05
5.627451E+03	1.203981E-02	8.829599E-05
5.637255E+03	1.196349E-02	8.839914E-05
5.647059E+03	1.188758E-02	8.850293E-05
5.656863E+03	1.181366E-02	8.861863E-05
5.666667E+03	1.174309E-02	8.875624E-05
5.676471E+03	1.167709E-02	8.892504E-05
5.686275E+03	1.161650E-02	8.913168E-05
5.696078E+03	1.156246E-02	8.938540E-05
5.705882E+03	1.151547E-02	8.969085E-05
5.715686E+03	1.147622E-02	9.005408E-05
5.725490E+03	1.144509E-02	9.047905E-05
5.735294E+03	1.142218E-02	9.096760E-05
5.745098E+03	1.140765E-02	9.152201E-05
5.754902E+03	1.140125E-02	9.214138E-05
5.764706E+03	1.140259E-02	9.282367E-05
5.774510E+03	1.141149E-02	9.356840E-05
5.784314E+03	1.142716E-02	9.437006E-05
5.794118E+03	1.144898E-02	9.522430E-05
5.803922E+03	1.147629E-02	9.612654E-05
5.813725E+03	1.150829E-02	9.707051E-05
5.823529E+03	1.154399E-02	9.804845E-05
5.833333E+03	1.158237E-02	9.905206E-05
5.843137E+03	1.162277E-02	1.000757E-04
5.852941E+03	1.166416E-02	1.011105E-04
5.862745E+03	1.170569E-02	1.021492E-04
5.872549E+03	1.174657E-02	1.031843E-04
5.882353E+03	1.178596E-02	1.042082E-04
5.892157E+03	1.182348E-02	1.052169E-04
5.901961E+03	1.185840E-02	1.062035E-04
5.911765E+03	1.189047E-02	1.071649E-04
5.921569E+03	1.191947E-02	1.080984E-04
5.931373E+03	1.194542E-02	1.090035E-04
5.941176E+03	1.196825E-02	1.098788E-04
5.950980E+03	1.198813E-02	1.107252E-04
5.960784E+03	1.200549E-02	1.115460E-04
5.970588E+03	1.202084E-02	1.123453E-04
5.980392E+03	1.203455E-02	1.131262E-04
5.990196E+03	1.204743E-02	1.138958E-04
6.000000E+03	1.206022E-02	1.146608E-04
6.009804E+03	1.207342E-02	1.154261E-04
6.019608E+03	1.208816E-02	1.162022E-04
6.029412E+03	1.210508E-02	1.169955E-04
6.039216E+03	1.212512E-02	1.178153E-04
6.049020E+03	1.214906E-02	1.186696E-04
6.058824E+03	1.217736E-02	1.195633E-04
6.068627E+03	1.221039E-02	1.205007E-04
6.078431E+03	1.224791E-02	1.214799E-04
6.088235E+03	1.229009E-02	1.225030E-04
6.098039E+03	1.233643E-02	1.235657E-04
6.107843E+03	1.238694E-02	1.246686E-04
6.117647E+03	1.244103E-02	1.258060E-04
6.127451E+03	1.249822E-02	1.269735E-04
6.137255E+03	1.255815E-02	1.281677E-04
6.147059E+03	1.262014E-02	1.293816E-04
6.156863E+03	1.268327E-02	1.306063E-04
6.166667E+03	1.274694E-02	1.318352E-04
6.176471E+03	1.281039E-02	1.330605E-04
6.186275E+03	1.287280E-02	1.342734E-04
6.196078E+03	1.293325E-02	1.354640E-04
6.205882E+03	1.299107E-02	1.366249E-04
6.215686E+03	1.304550E-02	1.377475E-04
6.225490E+03	1.309571E-02	1.388224E-04
6.235294E+03	1.314133E-02	1.398451E-04
6.245098E+03	1.318153E-02	1.408062E-04
6.254902E+03	1.321614E-02	1.417028E-04
6.264706E+03	1.324479E-02	1.425306E-04
6.274510E+03	1.326739E-02	1.432873E-04
6.284314E+03	1.328362E-02	1.439692E-04
6.294118E+03	1.329372E-02	1.445777E-04
6.303922E+03	1.329757E-02	1.451112E-04
6.313725E+03	1.329553E-02	1.455726E-04
6.323529E+03	1.328775E-02	1.459631E-04
6.333333E+03	1.327457E-02	1.462857E-04
6.343137E+03	1.325619E-02	1.465421E-04
6.352941E+03	1.323293E-02	1.467354E-04
6.362745E+03	1.320516E-02	1.468692E-04
6.372549E+03	1.317288E-02	1.469432E-04
6.382353E+03	1.313638E-02	1.469602E-04
6.392157E+03	1.309574E-02	1.469209E-04
6.401961E+03	1.305088E-02	1.468239E-04
6.411765E+03	1.300194E-02	1.466705E-04
6.421569E+03	1.294874E-02	1.464586E-04
6.431373E+03	1.289107E-02	1.461853E-04
6.441176E+03	1.282896E-02	1.458509E-04
6.450980E+03	1.276217E-02	1.454522E-04
6.460784E+03	1.269043E-02	1.449862E-04
6.470588E+03	1.261377E-02	1.444526E-04
6.480392E+03	1.253207E-02	1.438500E-04
6.490196E+03	1.244513E-02	1.431759E-04
6.500000E+03	1.235289E-02	1.424293E-04
6.509804E+03	1.225537E-02	1.416102E-04
6.519608E+03	1.215272E-02	1.407204E-04
6.529412E+03	1.204478E-02	1.397576E-04
6.539216E+03	1.193193E-02	1.387262E-04
6.549020E+03	1.181438E-02	1.376285E-04
6.558824E+03	1.169220E-02	1.364652E-04
6.568627E+03	1.156580E-02	1.352411E-04
6.578431E+03	1.143548E-02	1.339598E-04
6.588235E+03	1.130160E-02	1.326254E-04
6.598039E+03	1.116440E-02	1.312407E-04
6.607843E+03	1.102465E-02	1.298151E-04
6.617647E+03	1.088242E-02	1.283492E-04
6.627451E+03	1.073837E-02	1.268513E-04
6.637255E+03	1.059296E-02	1.253267E-04
6.647059E+03	1.044676E-02	1.237826E-04
6.656863E+03	1.030000E-02	1.222218E-04
6.666667E+03	1.015327E-02	1.206516E-04
6.676471E+03	1.000714E-02	1.190791E-04
6.686275E+03	9.861947E-03	1.175087E-04
6.696078E+03	9.718383E-03	1.159488E-04
6.705882E+03	9.576539E-03	1.144010E-04
6.715686E+03	9.437202E-03	1.128749E-04
6.725490E+03	9.300660E-03	1.113743E-04
6.735294E+03	9.167415E-03	1.099057E-04
6.745098E+03	9.037649E-03	1.084717E-04
6.754902E+03	8.911918E-03	1.070792E-04
6.764706E+03	8.790444E-03	1.057313E-04
6.774510E+03	8.673637E-03	1.044334E-04
6.784314E+03	8.561767E-03	1.031891E-04
6.794118E+03	8.454982E-03	1.020006E-04
6.803922E+03	8.353682E-03	1.008730E-04
6.813725E+03	8.257836E-03	9.980637E-05
6.823529E+03	8.167706E-03	9.880424E-05
6.833333E+03	8.083390E-03	9.786815E-05
6.843137E+03	8.004879E-03	9.699833E-05
6.852941E+03	7.932423E-03	9.619816E-05
6.862745E+03	7.866049E-03	9.546830E-05
6.872549E+03	7.805570E-03	9.480678E-05
6.882353E+03	7.751065E-03	9.421488E-05
6.892157E+03	7.702588E-03	9.369356E-05
6.901961E+03	7.659892E-03	9.324010E-05
6.911765E+03	7.623089E-03	9.285613E-05
6.921569E+03	7.592085E-03	9.254079E-05
6.931373E+03	7.566583E-03	9.229071E-05
6.941176E+03	7.546649E-03	9.210694E-05
6.950980E+03	7.532053E-03	9.198693E-05
6.960784E+03	7.522646E-03	9.192910E-05
6.970588E+03	7.518370E-03	9.193294E-05
6.980392E+03	7.518963E-03	9.199551E-05
6.990196E+03	7.524348E-03	9.211607E-05
7.000000E+03	7.534162E-03	9.229039E-05
7.009804E+03	7.548508E-03	9.251994E-05
7.019608E+03	7.566917E-03	9.279918E-05
7.029412E+03	7.589396E-03	9.312840E-05
7.039216E+03	7.615760E-03	9.350554E-05
7.049020E+03	7.645726E-03	9.392733E-05
7.058824E+03	7.679207E-03	9.439289E-05
7.068627E+03	7.715919E-03	9.489894E-05
7.078431E+03	7.755774E-03	9.544462E-05
7.088235E+03	7.798592E-03	9.602789E-05
7.098039E+03	7.844088E-03	9.664548E-05
7.107843E+03	7.892285E-03	9.729784E-05
7.117647E+03	7.942798E-03	9.798049E-05
7.127451E+03	7.995652E-03	9.869391E-05
7.137255E+03	8.050580E-03	9.943504E-05
7.147059E+03	8.107400E-03	1.002019E-04
7.156863E+03	8.166038E-03	1.009937E-04
7.166667E+03	8.226223E-03	1.018074E-04
7.176471E+03	8.287904E-03	1.026425E-04
7.186275E+03	8.350905E-03	1.034972E-04
7.196078E+03	8.414954E-03	1.043684E-04
7.205882E+03	8.480114E-03	1.052569E-04
7.215686E+03	8.545987E-03	1.061582E-04
7.225490E+03	8.612421E-03	1.070707E-04
7.235294E+03	8.679480E-03	1.079952E-04
7.245098E+03	8.746640E-03	1.089257E-04
7.254902E+03	8.813845E-03	1.098616E-04
7.264706E+03	8.880899E-03	1.108008E-04
7.274510E+03	8.947460E-03	1.117393E-04
7.284314E+03	9.013175E-03	1.126728E-04
7.294118E+03	9.077871E-03	1.135995E-04
7.303922E+03	9.141083E-03	1.145138E-04
7.313725E+03	9.202648E-03	1.154138E-04
7.323529E+03	9.261969E-03	1.162924E-04
7.333333E+03	9.318559E-03	1.171434E-04
7.343137E+03	9.371714E-03	1.179583E-04
7.352941E+03	9.420343E-03	1.187234E-04
7.362745E+03	9.463829E-03	1.194310E-04
7.372549E+03	9.501701E-03	1.200751E-04
7.382353E+03	9.534806E-03	1.206665E-04
7.392157E+03	9.563971E-03	1.212155E-04
7.401961E+03	9.589916E-03	1.217315E-04
7.411765E+03	9.613259E-03	1.222222E-04
7.421569E+03	9.634372E-03	1.226926E-04
7.431373E+03	9.653832E-03	1.231501E-04
7.441176E+03	9.671885E-03	1.235979E-04
7.450980E+03	9.688847E-03	1.240402E-04
7.460784E+03	9.704993E-03	1.244807E-04
7.470588E+03	9.720702E-03	1.249245E-04
7.480392E+03	9.735935E-03	1.253712E-04
7.490196E+03	9.750999E-03	1.258249E-04
7.500000E+03	9.765948E-03	1.262867E-04
7.509804E+03	9.781066E-03	1.267603E-04
7.519608E+03	9.796507E-03	1.272479E-04
7.529412E+03	9.812258E-03	1.277493E-04
7.539216E+03	9.828574E-03	1.282677E-04
7.549020E+03	9.845425E-03	1.288028E-04
7.558824E+03	9.863028E-03	1.293574E-04
7.568627E+03	9.881452E-03	1.299323E-04
7.578431E+03	9.900604E-03	1.305264E-04
7.588235E+03	9.920520E-03	1.311401E-04
7.598039E+03	9.941341E-03	1.317753E-04
7.607843E+03	9.963050E-03	1.324318E-04
