#wls	flux	fluxerr
1.568627E+03	3.960204E-04	9.854818E-06
1.607843E+03	3.958325E-04	9.809539E-06
1.647059E+03	3.957909E-04	9.766950E-06
1.686275E+03	3.958971E-04	9.727025E-06
1.725490E+03	3.961529E-04	9.689744E-06
1.764706E+03	3.966332E-04	9.656863E-06
1.803922E+03	3.972673E-04	9.626573E-06
1.843137E+03	3.981304E-04	9.600612E-06
1.882353E+03	3.992252E-04	9.578940E-06
1.921569E+03	4.005547E-04	9.561518E-06
1.960784E+03	4.021224E-04	9.548318E-06
2.000000E+03	4.040041E-04	9.541010E-06
2.039216E+03	4.062039E-04	9.539537E-06
2.078431E+03	4.087265E-04	9.543849E-06
2.117647E+03	4.116488E-04	9.555560E-06
2.156863E+03	4.149052E-04	9.572952E-06
2.196078E+03	4.186450E-04	9.599266E-06
2.235294E+03	4.227333E-04	9.631169E-06
2.274510E+03	4.273920E-04	9.673479E-06
2.313725E+03	4.326304E-04	9.726091E-06
2.352941E+03	4.383881E-04	9.787330E-06
2.392157E+03	4.448191E-04	9.860301E-06
2.431373E+03	4.518665E-04	9.943353E-06
2.470588E+03	4.597587E-04	1.004110E-05
2.509804E+03	4.684428E-04	1.015188E-05
2.549020E+03	4.780108E-04	1.027718E-05
2.588235E+03	4.885578E-04	1.041847E-05
2.627451E+03	5.001834E-04	1.057723E-05
2.666667E+03	5.130637E-04	1.075645E-05
2.705882E+03	5.272388E-04	1.095615E-05
2.745098E+03	5.428280E-04	1.117791E-05
2.784314E+03	5.600327E-04	1.142488E-05
2.823529E+03	5.791405E-04	1.170178E-05
2.862745E+03	6.001670E-04	1.200761E-05
2.901961E+03	6.235112E-04	1.234892E-05
2.941176E+03	6.494563E-04	1.272963E-05
2.950980E+03	6.563932E-04	1.283162E-05
2.960784E+03	6.635386E-04	1.293681E-05
2.970588E+03	6.708221E-04	1.304381E-05
2.980392E+03	6.783205E-04	1.315407E-05
2.990196E+03	6.860381E-04	1.326764E-05
3.000000E+03	6.939776E-04	1.338455E-05
3.009804E+03	7.021448E-04	1.350484E-05
3.019608E+03	7.105426E-04	1.362855E-05
3.029412E+03	7.191764E-04	1.375573E-05
3.039216E+03	7.280514E-04	1.388644E-05
3.049020E+03	7.371718E-04	1.402072E-05
3.058824E+03	7.465432E-04	1.415862E-05
3.068627E+03	7.561718E-04	1.430022E-05
3.078431E+03	7.661382E-04	1.444699E-05
3.088235E+03	7.764506E-04	1.459902E-05
3.098039E+03	7.869632E-04	1.475353E-05
3.107843E+03	7.978353E-04	1.491343E-05
3.117647E+03	8.090740E-04	1.507882E-05
3.127451E+03	8.206115E-04	1.524835E-05
3.137255E+03	8.325331E-04	1.542355E-05
3.147059E+03	8.447703E-04	1.560309E-05
3.156863E+03	8.574868E-04	1.578991E-05
3.166667E+03	8.705380E-04	1.598129E-05
3.176471E+03	8.840112E-04	1.617875E-05
3.186275E+03	8.979177E-04	1.638242E-05
3.196078E+03	9.122688E-04	1.659242E-05
3.205882E+03	9.271548E-04	1.681032E-05
3.215686E+03	9.424310E-04	1.703338E-05
3.225490E+03	9.582681E-04	1.726463E-05
3.235294E+03	9.746012E-04	1.750278E-05
3.245098E+03	9.915236E-04	1.774941E-05
3.254902E+03	1.008970E-03	1.800324E-05
3.264706E+03	1.027038E-03	1.826592E-05
3.274510E+03	1.045661E-03	1.853614E-05
3.284314E+03	1.064937E-03	1.881553E-05
3.294118E+03	1.084886E-03	1.910431E-05
3.303922E+03	1.105526E-03	1.940268E-05
3.313725E+03	1.126876E-03	1.971084E-05
3.323529E+03	1.149041E-03	2.003048E-05
3.333333E+03	1.171874E-03	2.035889E-05
3.343137E+03	1.195567E-03	2.069927E-05
3.352941E+03	1.220060E-03	2.105042E-05
3.362745E+03	1.245464E-03	2.141408E-05
3.372549E+03	1.271721E-03	2.178908E-05
3.382353E+03	1.298945E-03	2.217724E-05
3.392157E+03	1.327260E-03	2.258042E-05
3.401961E+03	1.356522E-03	2.299603E-05
3.411765E+03	1.386858E-03	2.342601E-05
3.421569E+03	1.418309E-03	2.387083E-05
3.431373E+03	1.451011E-03	2.433255E-05
3.441176E+03	1.484923E-03	2.481027E-05
3.450980E+03	1.520100E-03	2.530464E-05
3.460784E+03	1.556694E-03	2.581794E-05
3.470588E+03	1.594771E-03	2.635101E-05
3.480392E+03	1.634404E-03	2.690474E-05
3.490196E+03	1.675674E-03	2.748014E-05
3.500000E+03	1.718757E-03	2.807981E-05
3.509804E+03	1.763552E-03	2.870171E-05
3.519608E+03	1.810337E-03	2.935004E-05
3.529412E+03	1.859082E-03	3.002392E-05
3.539216E+03	1.909910E-03	3.072492E-05
3.549020E+03	1.962830E-03	3.145281E-05
3.558824E+03	2.017844E-03	3.220719E-05
3.568627E+03	2.074946E-03	3.298755E-05
3.578431E+03	2.134127E-03	3.379335E-05
3.588235E+03	2.195479E-03	3.462562E-05
3.598039E+03	2.258878E-03	3.548198E-05
3.607843E+03	2.324410E-03	3.636336E-05
3.617647E+03	2.391939E-03	3.726724E-05
3.627451E+03	2.461543E-03	3.819440E-05
3.637255E+03	2.533299E-03	3.914562E-05
3.647059E+03	2.606939E-03	4.011633E-05
3.656863E+03	2.682641E-03	4.110890E-05
3.666667E+03	2.760235E-03	4.212030E-05
3.676471E+03	2.839776E-03	4.315096E-05
3.686275E+03	2.921191E-03	4.419940E-05
3.696078E+03	3.004280E-03	4.526222E-05
3.705882E+03	3.089194E-03	4.634132E-05
3.715686E+03	3.175588E-03	4.743118E-05
3.725490E+03	3.263594E-03	4.853347E-05
3.735294E+03	3.352966E-03	4.964420E-05
3.745098E+03	3.443696E-03	5.076293E-05
3.754902E+03	3.535507E-03	5.188537E-05
3.764706E+03	3.628367E-03	5.301078E-05
3.774510E+03	3.721977E-03	5.413459E-05
3.784314E+03	3.816410E-03	5.525770E-05
3.794118E+03	3.911208E-03	5.637334E-05
3.803922E+03	4.006427E-03	5.748220E-05
3.813725E+03	4.101715E-03	5.857917E-05
3.823529E+03	4.196709E-03	5.965905E-05
3.833333E+03	4.291569E-03	6.072416E-05
3.843137E+03	4.385646E-03	6.176538E-05
3.852941E+03	4.478952E-03	6.278301E-05
3.862745E+03	4.571227E-03	6.377358E-05
3.872549E+03	4.661933E-03	6.472981E-05
3.882353E+03	4.751210E-03	6.565395E-05
3.892157E+03	4.838515E-03	6.653881E-05
3.901961E+03	4.923580E-03	6.738111E-05
3.911765E+03	5.006277E-03	6.817956E-05
3.921569E+03	5.086209E-03	6.892926E-05
3.931373E+03	5.163265E-03	6.962926E-05
3.941176E+03	5.237208E-03	7.027698E-05
3.950980E+03	5.307559E-03	7.086664E-05
3.960784E+03	5.374407E-03	7.140015E-05
3.970588E+03	5.437472E-03	7.187455E-05
3.980392E+03	5.496654E-03	7.228928E-05
3.990196E+03	5.551897E-03	7.264440E-05
4.000000E+03	5.603189E-03	7.294058E-05
4.009804E+03	5.650432E-03	7.317735E-05
4.019608E+03	5.693828E-03	7.335816E-05
4.029412E+03	5.733356E-03	7.348353E-05
4.039216E+03	5.769285E-03	7.355769E-05
4.049020E+03	5.801536E-03	7.358040E-05
4.058824E+03	5.830316E-03	7.355503E-05
4.068627E+03	5.855979E-03	7.348675E-05
4.078431E+03	5.878541E-03	7.337643E-05
4.088235E+03	5.898527E-03	7.323123E-05
4.098039E+03	5.915887E-03	7.305107E-05
4.107843E+03	5.931065E-03	7.284200E-05
4.117647E+03	5.944400E-03	7.260862E-05
4.127451E+03	5.956131E-03	7.235422E-05
4.137255E+03	5.966507E-03	7.208217E-05
4.147059E+03	5.975999E-03	7.179847E-05
4.156863E+03	5.984643E-03	7.150373E-05
4.166667E+03	5.993009E-03	7.120495E-05
4.176471E+03	6.001229E-03	7.090377E-05
4.186275E+03	6.009642E-03	7.060427E-05
4.196078E+03	6.018472E-03	7.030905E-05
4.205882E+03	6.027940E-03	7.002064E-05
4.215686E+03	6.038260E-03	6.974143E-05
4.225490E+03	6.049835E-03	6.947593E-05
4.235294E+03	6.062669E-03	6.922399E-05
4.245098E+03	6.077057E-03	6.898876E-05
4.254902E+03	6.093198E-03	6.877221E-05
4.264706E+03	6.111295E-03	6.857635E-05
4.274510E+03	6.131578E-03	6.840340E-05
4.284314E+03	6.154304E-03	6.825586E-05
4.294118E+03	6.179689E-03	6.813567E-05
4.303922E+03	6.208171E-03	6.804719E-05
4.313725E+03	6.239677E-03	6.798910E-05
4.323529E+03	6.274266E-03	6.796149E-05
4.333333E+03	6.311757E-03	6.796192E-05
4.343137E+03	6.352006E-03	6.798835E-05
4.352941E+03	6.394979E-03	6.803999E-05
4.362745E+03	6.440829E-03	6.811798E-05
4.372549E+03	6.489359E-03	6.821977E-05
4.382353E+03	6.540714E-03	6.834634E-05
4.392157E+03	6.594938E-03	6.849763E-05
4.401961E+03	6.652054E-03	6.867332E-05
4.411765E+03	6.711971E-03	6.887196E-05
4.421569E+03	6.774746E-03	6.909361E-05
4.431373E+03	6.840400E-03	6.933795E-05
4.441176E+03	6.908659E-03	6.960169E-05
4.450980E+03	6.979469E-03	6.988384E-05
4.460784E+03	7.052642E-03	7.018205E-05
4.470588E+03	7.128022E-03	7.049436E-05
4.480392E+03	7.205202E-03	7.081641E-05
4.490196E+03	7.283871E-03	7.114482E-05
4.500000E+03	7.363539E-03	7.147461E-05
4.509804E+03	7.443637E-03	7.180011E-05
4.519608E+03	7.523417E-03	7.211412E-05
4.529412E+03	7.602334E-03	7.241154E-05
4.539216E+03	7.679517E-03	7.268430E-05
4.549020E+03	7.754180E-03	7.292536E-05
4.558824E+03	7.825590E-03	7.312837E-05
4.568627E+03	7.892941E-03	7.328644E-05
4.578431E+03	7.955536E-03	7.339393E-05
4.588235E+03	8.012546E-03	7.344411E-05
4.598039E+03	8.063440E-03	7.343319E-05
4.607843E+03	8.107780E-03	7.335833E-05
4.617647E+03	8.145312E-03	7.321845E-05
4.627451E+03	8.175931E-03	7.301385E-05
4.637255E+03	8.199736E-03	7.274667E-05
4.647059E+03	8.217089E-03	7.242135E-05
4.656863E+03	8.228465E-03	7.204321E-05
4.666667E+03	8.234589E-03	7.161964E-05
4.676471E+03	8.236327E-03	7.115910E-05
4.686275E+03	8.234471E-03	7.066919E-05
4.696078E+03	8.229478E-03	7.015447E-05
4.705882E+03	8.221958E-03	6.962071E-05
4.715686E+03	8.212156E-03	6.907047E-05
4.725490E+03	8.200686E-03	6.850932E-05
4.735294E+03	8.188158E-03	6.794268E-05
4.745098E+03	8.174987E-03	6.737422E-05
4.754902E+03	8.161908E-03	6.681016E-05
4.764706E+03	8.149389E-03	6.625434E-05
4.774510E+03	8.138063E-03	6.571188E-05
4.784314E+03	8.128582E-03	6.518792E-05
4.794118E+03	8.121428E-03	6.468610E-05
4.803922E+03	8.117031E-03	6.420953E-05
4.813725E+03	8.116027E-03	6.376291E-05
4.823529E+03	8.118730E-03	6.334824E-05
4.833333E+03	8.125590E-03	6.296858E-05
4.843137E+03	8.136794E-03	6.262486E-05
4.852941E+03	8.152627E-03	6.231873E-05
4.862745E+03	8.173271E-03	6.205103E-05
4.872549E+03	8.198632E-03	6.182051E-05
4.882353E+03	8.228723E-03	6.162675E-05
4.892157E+03	8.263144E-03	6.146629E-05
4.901961E+03	8.301394E-03	6.133502E-05
4.911765E+03	8.342925E-03	6.122862E-05
4.921569E+03	8.387062E-03	6.114197E-05
4.931373E+03	8.432975E-03	6.106899E-05
4.941176E+03	8.479717E-03	6.100294E-05
4.950980E+03	8.526542E-03	6.093870E-05
4.960784E+03	8.572433E-03	6.086942E-05
4.970588E+03	8.616579E-03	6.078985E-05
4.980392E+03	8.658177E-03	6.069500E-05
4.990196E+03	8.696595E-03	6.058120E-05
5.000000E+03	8.731505E-03	6.044699E-05
5.009804E+03	8.762664E-03	6.029157E-05
5.019608E+03	8.790315E-03	6.011748E-05
5.029412E+03	8.814879E-03	5.992844E-05
5.039216E+03	8.836903E-03	5.972893E-05
5.049020E+03	8.857133E-03	5.952468E-05
5.058824E+03	8.876134E-03	5.932011E-05
5.068627E+03	8.894546E-03	5.912005E-05
5.078431E+03	8.913012E-03	5.892923E-05
5.088235E+03	8.932034E-03	5.875143E-05
5.098039E+03	8.951940E-03	5.858918E-05
5.107843E+03	8.973228E-03	5.844613E-05
5.117647E+03	8.995901E-03	5.832263E-05
5.127451E+03	9.020426E-03	5.822209E-05
5.137255E+03	9.046847E-03	5.814513E-05
5.147059E+03	9.075173E-03	5.809220E-05
5.156863E+03	9.105507E-03	5.806435E-05
5.166667E+03	9.137853E-03	5.806200E-05
5.176471E+03	9.172150E-03	5.808520E-05
5.186275E+03	9.208305E-03	5.813383E-05
5.196078E+03	9.246093E-03	5.820695E-05
5.205882E+03	9.285468E-03	5.830479E-05
5.215686E+03	9.326241E-03	5.842670E-05
5.225490E+03	9.368121E-03	5.857141E-05
5.235294E+03	9.411007E-03	5.873888E-05
5.245098E+03	9.454693E-03	5.892840E-05
5.254902E+03	9.498988E-03	5.913939E-05
5.264706E+03	9.543771E-03	5.937169E-05
5.274510E+03	9.588971E-03	5.962547E-05
5.284314E+03	9.634608E-03	5.990144E-05
5.294118E+03	9.680932E-03	6.020175E-05
5.303922E+03	9.728218E-03	6.052868E-05
5.313725E+03	9.776994E-03	6.088609E-05
5.323529E+03	9.827861E-03	6.127798E-05
5.333333E+03	9.881662E-03	6.170956E-05
5.343137E+03	9.939390E-03	6.218705E-05
5.352941E+03	1.000216E-02	6.271746E-05
5.362745E+03	1.007113E-02	6.330822E-05
5.372549E+03	1.014741E-02	6.396654E-05
5.382353E+03	1.023215E-02	6.469993E-05
5.392157E+03	1.032590E-02	6.551233E-05
5.401961E+03	1.042800E-02	6.640010E-05
5.411765E+03	1.053692E-02	6.735409E-05
5.421569E+03	1.065138E-02	6.836641E-05
5.431373E+03	1.076948E-02	6.942533E-05
5.441176E+03	1.088898E-02	7.051661E-05
5.450980E+03	1.100760E-02	7.162551E-05
5.460784E+03	1.112289E-02	7.273576E-05
5.470588E+03	1.123203E-02	7.382846E-05
5.480392E+03	1.133254E-02	7.488635E-05
5.490196E+03	1.142175E-02	7.589061E-05
5.500000E+03	1.149734E-02	7.682426E-05
5.509804E+03	1.155737E-02	7.767230E-05
5.519608E+03	1.160045E-02	7.842317E-05
5.529412E+03	1.162556E-02	7.906750E-05
5.539216E+03	1.163289E-02	7.960383E-05
5.549020E+03	1.162275E-02	8.003148E-05
5.558824E+03	1.159619E-02	8.035487E-05
5.568627E+03	1.155478E-02	8.058223E-05
5.578431E+03	1.150012E-02	8.072207E-05
5.588235E+03	1.143407E-02	8.078520E-05
5.598039E+03	1.135869E-02	8.078395E-05
5.607843E+03	1.127593E-02	8.073029E-05
5.617647E+03	1.118761E-02	8.063564E-05
5.627451E+03	1.109572E-02	8.051308E-05
5.637255E+03	1.100197E-02	8.037398E-05
5.647059E+03	1.090822E-02	8.023103E-05
5.656863E+03	1.081611E-02	8.009595E-05
5.666667E+03	1.072720E-02	7.997999E-05
5.676471E+03	1.064280E-02	7.989297E-05
5.686275E+03	1.056432E-02	7.984585E-05
5.696078E+03	1.049288E-02	7.984758E-05
5.705882E+03	1.042948E-02	7.990644E-05
5.715686E+03	1.037478E-02	8.002844E-05
5.725490E+03	1.032945E-02	8.021978E-05
5.735294E+03	1.029393E-02	8.048507E-05
5.745098E+03	1.026801E-02	8.082375E-05
5.754902E+03	1.025185E-02	8.123844E-05
5.764706E+03	1.024491E-02	8.172604E-05
5.774510E+03	1.024695E-02	8.228576E-05
5.784314E+03	1.025709E-02	8.291181E-05
5.794118E+03	1.027506E-02	8.360288E-05
5.803922E+03	1.029986E-02	8.435186E-05
5.813725E+03	1.033106E-02	8.515598E-05
5.823529E+03	1.036755E-02	8.600694E-05
5.833333E+03	1.040867E-02	8.689973E-05
5.843137E+03	1.045339E-02	8.782625E-05
5.852941E+03	1.050076E-02	8.877888E-05
5.862745E+03	1.054987E-02	8.974997E-05
5.872549E+03	1.059985E-02	9.073220E-05
5.882353E+03	1.064979E-02	9.171768E-05
5.892157E+03	1.069906E-02	9.270074E-05
5.901961E+03	1.074726E-02	9.367749E-05
5.911765E+03	1.079383E-02	9.464282E-05
5.921569E+03	1.083870E-02	9.559548E-05
5.931373E+03	1.088170E-02	9.653362E-05
5.941176E+03	1.092280E-02	9.745655E-05
5.950980E+03	1.096230E-02	9.836638E-05
5.960784E+03	1.100028E-02	9.926344E-05
5.970588E+03	1.103723E-02	1.001518E-04
5.980392E+03	1.107350E-02	1.010343E-04
5.990196E+03	1.110948E-02	1.019143E-04
6.000000E+03	1.114575E-02	1.027969E-04
6.009804E+03	1.118278E-02	1.036864E-04
6.019608E+03	1.122115E-02	1.045882E-04
6.029412E+03	1.126166E-02	1.055098E-04
6.039216E+03	1.130464E-02	1.064544E-04
6.049020E+03	1.135113E-02	1.074322E-04
6.058824E+03	1.140191E-02	1.084507E-04
6.068627E+03	1.145711E-02	1.095119E-04
6.078431E+03	1.151655E-02	1.106144E-04
6.088235E+03	1.158039E-02	1.117603E-04
6.098039E+03	1.164852E-02	1.129488E-04
6.107843E+03	1.172069E-02	1.141780E-04
6.117647E+03	1.179682E-02	1.154475E-04
6.127451E+03	1.187620E-02	1.167507E-04
6.137255E+03	1.195844E-02	1.180838E-04
6.147059E+03	1.204287E-02	1.194407E-04
6.156863E+03	1.212834E-02	1.208099E-04
6.166667E+03	1.221424E-02	1.221852E-04
6.176471E+03	1.229937E-02	1.235545E-04
6.186275E+03	1.238262E-02	1.249063E-04
6.196078E+03	1.246299E-02	1.262301E-04
6.205882E+03	1.253935E-02	1.275140E-04
6.215686E+03	1.261065E-02	1.287465E-04
6.225490E+03	1.267592E-02	1.299169E-04
6.235294E+03	1.273428E-02	1.310154E-04
6.245098E+03	1.278498E-02	1.320333E-04
6.254902E+03	1.282756E-02	1.329647E-04
6.264706E+03	1.286130E-02	1.338013E-04
6.274510E+03	1.288622E-02	1.345422E-04
6.284314E+03	1.290197E-02	1.351825E-04
6.294118E+03	1.290891E-02	1.357252E-04
6.303922E+03	1.290687E-02	1.361672E-04
6.313725E+03	1.289658E-02	1.365155E-04
6.323529E+03	1.287806E-02	1.367694E-04
6.333333E+03	1.285189E-02	1.369342E-04
6.343137E+03	1.281853E-02	1.370141E-04
6.352941E+03	1.277830E-02	1.370118E-04
6.362745E+03	1.273169E-02	1.369320E-04
6.372549E+03	1.267891E-02	1.367763E-04
6.382353E+03	1.262029E-02	1.365478E-04
6.392157E+03	1.255595E-02	1.362475E-04
6.401961E+03	1.248595E-02	1.358753E-04
6.411765E+03	1.241020E-02	1.354301E-04
6.421569E+03	1.232875E-02	1.349120E-04
6.431373E+03	1.224144E-02	1.343187E-04
6.441176E+03	1.214812E-02	1.336482E-04
6.450980E+03	1.204885E-02	1.329010E-04
6.460784E+03	1.194353E-02	1.320754E-04
6.470588E+03	1.183192E-02	1.311687E-04
6.480392E+03	1.171439E-02	1.301844E-04
6.490196E+03	1.159077E-02	1.291204E-04
6.500000E+03	1.146145E-02	1.279809E-04
6.509804E+03	1.132671E-02	1.267687E-04
6.519608E+03	1.118691E-02	1.254876E-04
6.529412E+03	1.104260E-02	1.241436E-04
6.539216E+03	1.089415E-02	1.227409E-04
6.549020E+03	1.074236E-02	1.212883E-04
6.558824E+03	1.058774E-02	1.197920E-04
6.568627E+03	1.043078E-02	1.182570E-04
6.578431E+03	1.027215E-02	1.166914E-04
6.588235E+03	1.011240E-02	1.151015E-04
6.598039E+03	9.952070E-03	1.134936E-04
6.607843E+03	9.791912E-03	1.118765E-04
6.617647E+03	9.632185E-03	1.102535E-04
6.627451E+03	9.473480E-03	1.086316E-04
6.637255E+03	9.316214E-03	1.070159E-04
6.647059E+03	9.160793E-03	1.054115E-04
6.656863E+03	9.007673E-03	1.038238E-04
6.666667E+03	8.857078E-03	1.022560E-04
6.676471E+03	8.709407E-03	1.007129E-04
6.686275E+03	8.564830E-03	9.919689E-05
6.696078E+03	8.423798E-03	9.771363E-05
6.705882E+03	8.286363E-03	9.626411E-05
6.715686E+03	8.152951E-03	9.485368E-05
6.725490E+03	8.023605E-03	9.348326E-05
6.735294E+03	7.898751E-03	9.215819E-05
6.745098E+03	7.778528E-03	9.088051E-05
6.754902E+03	7.663147E-03	8.965310E-05
6.764706E+03	7.552913E-03	8.847992E-05
6.774510E+03	7.447921E-03	8.736251E-05
6.784314E+03	7.348340E-03	8.630322E-05
6.794118E+03	7.254396E-03	8.530512E-05
6.803922E+03	7.166106E-03	8.436880E-05
6.813725E+03	7.083630E-03	8.349651E-05
6.823529E+03	7.006919E-03	8.268806E-05
6.833333E+03	6.936076E-03	8.194502E-05
6.843137E+03	6.871092E-03	8.126764E-05
6.852941E+03	6.811778E-03	8.065402E-05
6.862745E+03	6.758356E-03	8.010712E-05
6.872549E+03	6.710618E-03	7.962481E-05
6.882353E+03	6.668522E-03	7.920690E-05
6.892157E+03	6.632018E-03	7.885309E-05
6.901961E+03	6.601127E-03	7.856391E-05
6.911765E+03	6.575695E-03	7.833783E-05
6.921569E+03	6.555715E-03	7.817504E-05
6.931373E+03	6.541004E-03	7.807361E-05
6.941176E+03	6.531359E-03	7.803140E-05
6.950980E+03	6.526809E-03	7.804897E-05
6.960784E+03	6.527124E-03	7.812382E-05
6.970588E+03	6.532140E-03	7.825424E-05
6.980392E+03	6.541685E-03	7.843838E-05
6.990196E+03	6.555496E-03	7.867331E-05
7.000000E+03	6.573469E-03	7.895797E-05
7.009804E+03	6.595414E-03	7.929030E-05
7.019608E+03	6.621058E-03	7.966723E-05
7.029412E+03	6.650217E-03	8.008672E-05
7.039216E+03	6.682789E-03	8.054772E-05
7.049020E+03	6.718504E-03	8.104719E-05
7.058824E+03	6.757181E-03	8.158312E-05
7.068627E+03	6.798551E-03	8.215243E-05
7.078431E+03	6.842602E-03	8.275515E-05
7.088235E+03	6.888979E-03	8.338717E-05
7.098039E+03	6.937585E-03	8.404749E-05
7.107843E+03	6.988150E-03	8.473300E-05
7.117647E+03	7.040492E-03	8.544167E-05
7.127451E+03	7.094523E-03	8.617260E-05
7.137255E+03	7.149892E-03	8.692168E-05
7.147059E+03	7.206613E-03	8.768926E-05
7.156863E+03	7.264341E-03	8.847132E-05
7.166667E+03	7.323013E-03	8.926721E-05
7.176471E+03	7.382381E-03	9.007412E-05
7.186275E+03	7.442383E-03	9.089144E-05
7.196078E+03	7.502766E-03	9.171624E-05
7.205882E+03	7.563466E-03	9.254791E-05
7.215686E+03	7.624128E-03	9.338226E-05
7.225490E+03	7.684691E-03	9.421870E-05
7.235294E+03	7.745015E-03	9.505568E-05
7.245098E+03	7.804987E-03	9.589197E-05
7.254902E+03	7.864321E-03	9.672420E-05
7.264706E+03	7.923084E-03	9.755336E-05
7.274510E+03	7.981142E-03	9.837795E-05
7.284314E+03	8.038390E-03	9.919683E-05
7.294118E+03	8.094829E-03	1.000102E-04
7.303922E+03	8.150589E-03	1.008197E-04
7.313725E+03	8.205703E-03	1.016261E-04
7.323529E+03	8.260240E-03	1.024302E-04
7.333333E+03	8.314382E-03	1.032346E-04
7.343137E+03	8.368133E-03	1.040395E-04
7.352941E+03	8.421582E-03	1.048461E-04
7.362745E+03	8.474860E-03	1.056564E-04
7.372549E+03	8.527974E-03	1.064706E-04
7.382353E+03	8.580813E-03	1.072874E-04
7.392157E+03	8.633384E-03	1.081073E-04
7.401961E+03	8.685598E-03	1.089292E-04
7.411765E+03	8.737342E-03	1.097520E-04
7.421569E+03	8.788541E-03	1.105750E-04
7.431373E+03	8.839122E-03	1.113973E-04
7.441176E+03	8.889026E-03	1.122185E-04
7.450980E+03	8.938337E-03	1.130398E-04
7.460784E+03	8.986777E-03	1.138578E-04
7.470588E+03	9.034566E-03	1.146756E-04
7.480392E+03	9.081669E-03	1.154928E-04
7.490196E+03	9.127967E-03	1.163081E-04
7.500000E+03	9.173551E-03	1.171230E-04
7.509804E+03	9.218407E-03	1.179372E-04
7.519608E+03	9.262418E-03	1.187496E-04
7.529412E+03	9.305811E-03	1.195632E-04
7.539216E+03	9.348330E-03	1.203747E-04
7.549020E+03	9.390084E-03	1.211853E-04
7.558824E+03	9.431185E-03	1.219965E-04
7.568627E+03	9.471357E-03	1.228047E-04
7.578431E+03	9.510827E-03	1.236127E-04
7.588235E+03	9.549453E-03	1.244185E-04
7.598039E+03	9.587177E-03	1.252213E-04
7.607843E+03	9.623963E-03	1.260206E-04
