#wls	flux	fluxerr
1.568627E+03	2.603624E-04	9.282555E-06
1.607843E+03	2.615004E-04	9.283641E-06
1.647059E+03	2.627375E-04	9.286951E-06
1.686275E+03	2.640330E-04	9.290977E-06
1.725490E+03	2.654833E-04	9.299033E-06
1.764706E+03	2.670028E-04	9.308032E-06
1.803922E+03	2.686434E-04	9.319702E-06
1.843137E+03	2.704122E-04	9.334190E-06
1.882353E+03	2.723164E-04	9.351642E-06
1.921569E+03	2.743645E-04	9.372231E-06
1.960784E+03	2.765653E-04	9.396142E-06
2.000000E+03	2.789291E-04	9.423585E-06
2.039216E+03	2.814664E-04	9.454782E-06
2.078431E+03	2.841894E-04	9.489982E-06
2.117647E+03	2.871589E-04	9.531045E-06
2.156863E+03	2.902944E-04	9.575107E-06
2.196078E+03	2.937077E-04	9.625670E-06
2.235294E+03	2.973689E-04	9.681525E-06
2.274510E+03	3.013468E-04	9.744666E-06
2.313725E+03	3.056150E-04	9.813966E-06
2.352941E+03	3.101979E-04	9.889929E-06
2.392157E+03	3.151730E-04	9.974712E-06
2.431373E+03	3.205209E-04	1.006734E-05
2.470588E+03	3.262755E-04	1.016851E-05
2.509804E+03	3.325786E-04	1.028221E-05
2.549020E+03	3.393174E-04	1.040447E-05
2.588235E+03	3.466983E-04	1.054110E-05
2.627451E+03	3.546693E-04	1.068994E-05
2.666667E+03	3.633455E-04	1.085380E-05
2.705882E+03	3.727963E-04	1.103405E-05
2.745098E+03	3.830419E-04	1.123046E-05
2.784314E+03	3.942252E-04	1.144638E-05
2.823529E+03	4.064442E-04	1.168362E-05
2.862745E+03	4.198091E-04	1.194424E-05
2.901961E+03	4.344432E-04	1.223049E-05
2.941176E+03	4.504194E-04	1.254302E-05
2.950980E+03	4.547120E-04	1.262755E-05
2.960784E+03	4.590309E-04	1.271201E-05
2.970588E+03	4.635104E-04	1.280008E-05
2.980392E+03	4.680203E-04	1.288814E-05
2.990196E+03	4.726969E-04	1.297993E-05
3.000000E+03	4.774762E-04	1.307364E-05
3.009804E+03	4.823611E-04	1.316932E-05
3.019608E+03	4.873541E-04	1.326703E-05
3.029412E+03	4.924584E-04	1.336680E-05
3.039216E+03	4.976768E-04	1.346869E-05
3.049020E+03	5.030831E-04	1.357466E-05
3.058824E+03	5.085393E-04	1.368093E-05
3.068627E+03	5.141910E-04	1.379141E-05
3.078431E+03	5.199704E-04	1.390423E-05
3.088235E+03	5.258075E-04	1.401747E-05
3.098039E+03	5.318516E-04	1.413510E-05
3.107843E+03	5.381086E-04	1.425720E-05
3.117647E+03	5.444327E-04	1.437989E-05
3.127451E+03	5.509017E-04	1.450516E-05
3.137255E+03	5.575963E-04	1.463512E-05
3.147059E+03	5.643668E-04	1.476577E-05
3.156863E+03	5.713717E-04	1.490122E-05
3.166667E+03	5.785380E-04	1.503952E-05
3.176471E+03	5.858694E-04	1.518070E-05
3.186275E+03	5.933700E-04	1.532484E-05
3.196078E+03	6.010437E-04	1.547197E-05
3.205882E+03	6.089771E-04	1.562428E-05
3.215686E+03	6.170100E-04	1.577759E-05
3.225490E+03	6.253125E-04	1.593620E-05
3.235294E+03	6.338064E-04	1.609805E-05
3.245098E+03	6.424093E-04	1.626100E-05
3.254902E+03	6.512972E-04	1.642946E-05
3.264706E+03	6.603890E-04	1.660130E-05
3.274510E+03	6.697782E-04	1.677880E-05
3.284314E+03	6.792914E-04	1.695755E-05
3.294118E+03	6.890212E-04	1.713982E-05
3.303922E+03	6.990643E-04	1.732793E-05
3.313725E+03	7.092409E-04	1.751736E-05
3.323529E+03	7.197413E-04	1.771274E-05
3.333333E+03	7.304772E-04	1.791181E-05
3.343137E+03	7.414528E-04	1.811461E-05
3.352941E+03	7.526722E-04	1.832117E-05
3.362745E+03	7.641391E-04	1.853149E-05
3.372549E+03	7.759594E-04	1.874806E-05
3.382353E+03	7.879353E-04	1.896603E-05
3.392157E+03	8.001710E-04	1.918782E-05
3.401961E+03	8.127745E-04	1.941595E-05
3.411765E+03	8.256484E-04	1.964798E-05
3.421569E+03	8.387956E-04	1.988391E-05
3.431373E+03	8.522208E-04	2.012376E-05
3.441176E+03	8.659263E-04	2.036749E-05
3.450980E+03	8.799168E-04	2.061514E-05
3.460784E+03	8.941960E-04	2.086670E-05
3.470588E+03	9.087665E-04	2.112213E-05
3.480392E+03	9.237490E-04	2.138415E-05
3.490196E+03	9.389152E-04	2.164736E-05
3.500000E+03	9.545043E-04	2.191721E-05
3.509804E+03	9.704029E-04	2.219095E-05
3.519608E+03	9.864920E-04	2.246579E-05
3.529412E+03	1.003021E-03	2.274733E-05
3.539216E+03	1.019872E-03	2.303275E-05
3.549020E+03	1.037048E-03	2.332206E-05
3.558824E+03	1.054688E-03	2.361820E-05
3.568627E+03	1.072534E-03	2.391534E-05
3.578431E+03	1.090722E-03	2.421640E-05
3.588235E+03	1.109391E-03	2.452436E-05
3.598039E+03	1.128277E-03	2.483327E-05
3.607843E+03	1.147660E-03	2.514914E-05
3.617647E+03	1.167406E-03	2.546897E-05
3.627451E+03	1.187379E-03	2.578963E-05
3.637255E+03	1.207870E-03	2.611734E-05
3.647059E+03	1.228739E-03	2.644897E-05
3.656863E+03	1.249993E-03	2.678451E-05
3.666667E+03	1.271636E-03	2.712394E-05
3.676471E+03	1.293674E-03	2.746724E-05
3.686275E+03	1.316108E-03	2.781434E-05
3.696078E+03	1.339103E-03	2.816859E-05
3.705882E+03	1.362349E-03	2.852327E-05
3.715686E+03	1.386003E-03	2.888161E-05
3.725490E+03	1.410236E-03	2.924702E-05
3.735294E+03	1.434719E-03	2.961255E-05
3.745098E+03	1.459792E-03	2.998507E-05
3.754902E+03	1.485116E-03	3.035747E-05
3.764706E+03	1.511037E-03	3.073671E-05
3.774510E+03	1.537385E-03	3.111918E-05
3.784314E+03	1.564161E-03	3.150475E-05
3.794118E+03	1.591180E-03	3.188959E-05
3.803922E+03	1.618809E-03	3.228091E-05
3.813725E+03	1.646863E-03	3.267490E-05
3.823529E+03	1.675342E-03	3.307138E-05
3.833333E+03	1.704242E-03	3.347015E-05
3.843137E+03	1.733561E-03	3.387105E-05
3.852941E+03	1.763293E-03	3.427384E-05
3.862745E+03	1.793433E-03	3.467830E-05
3.872549E+03	1.823977E-03	3.508420E-05
3.882353E+03	1.854916E-03	3.549126E-05
3.892157E+03	1.886245E-03	3.589925E-05
3.901961E+03	1.918166E-03	3.631192E-05
3.911765E+03	1.950245E-03	3.672089E-05
3.921569E+03	1.982682E-03	3.712984E-05
3.931373E+03	2.015465E-03	3.753848E-05
3.941176E+03	2.048580E-03	3.794644E-05
3.950980E+03	2.082243E-03	3.835758E-05
3.960784E+03	2.115980E-03	3.876308E-05
3.970588E+03	2.150002E-03	3.916676E-05
3.980392E+03	2.184290E-03	3.956821E-05
3.990196E+03	2.218823E-03	3.996697E-05
4.000000E+03	2.253826E-03	4.036700E-05
4.009804E+03	2.288788E-03	4.075909E-05
4.019608E+03	2.323927E-03	4.114713E-05
4.029412E+03	2.359218E-03	4.153062E-05
4.039216E+03	2.394634E-03	4.190907E-05
4.049020E+03	2.430407E-03	4.228650E-05
4.058824E+03	2.465988E-03	4.265334E-05
4.068627E+03	2.501607E-03	4.301359E-05
4.078431E+03	2.537228E-03	4.336669E-05
4.088235E+03	2.572821E-03	4.371212E-05
4.098039E+03	2.608350E-03	4.404935E-05
4.107843E+03	2.643782E-03	4.437784E-05
4.117647E+03	2.679081E-03	4.469707E-05
4.127451E+03	2.714212E-03	4.500653E-05
4.137255E+03	2.749137E-03	4.530569E-05
4.147059E+03	2.783822E-03	4.559408E-05
4.156863E+03	2.817934E-03	4.586642E-05
4.166667E+03	2.852028E-03	4.613187E-05
4.176471E+03	2.885775E-03	4.638522E-05
4.186275E+03	2.918839E-03	4.662123E-05
4.196078E+03	2.951791E-03	4.684924E-05
4.205882E+03	2.983992E-03	4.705924E-05
4.215686E+03	3.016026E-03	4.726068E-05
4.225490E+03	3.047245E-03	4.744357E-05
4.235294E+03	3.078250E-03	4.761749E-05
4.245098E+03	3.108386E-03	4.777251E-05
4.254902E+03	3.137944E-03	4.791341E-05
4.264706E+03	3.166904E-03	4.804009E-05
4.274510E+03	3.195246E-03	4.815252E-05
4.284314E+03	3.222954E-03	4.825068E-05
4.294118E+03	3.250012E-03	4.833462E-05
4.303922E+03	3.276406E-03	4.840437E-05
4.313725E+03	3.301793E-03	4.845518E-05
4.323529E+03	3.326833E-03	4.849701E-05
4.333333E+03	3.350852E-03	4.852030E-05
4.343137E+03	3.374520E-03	4.853507E-05
4.352941E+03	3.397164E-03	4.853185E-05
4.362745E+03	3.419122E-03	4.851584E-05
4.372549E+03	3.440400E-03	4.848738E-05
4.382353E+03	3.461005E-03	4.844685E-05
4.392157E+03	3.480947E-03	4.839458E-05
4.401961E+03	3.500239E-03	4.833096E-05
4.411765E+03	3.518898E-03	4.825637E-05
4.421569E+03	3.536593E-03	4.816650E-05
4.431373E+03	3.554042E-03	4.807132E-05
4.441176E+03	3.570572E-03	4.796183E-05
4.450980E+03	3.586557E-03	4.784329E-05
4.460784E+03	3.602026E-03	4.771623E-05
4.470588E+03	3.617010E-03	4.758119E-05
4.480392E+03	3.631543E-03	4.743871E-05
4.490196E+03	3.645305E-03	4.728480E-05
4.500000E+03	3.659038E-03	4.712920E-05
4.509804E+03	3.672071E-03	4.696334E-05
4.519608E+03	3.685152E-03	4.679689E-05
4.529412E+03	3.697607E-03	4.662136E-05
4.539216E+03	3.709832E-03	4.644185E-05
4.549020E+03	3.721866E-03	4.625891E-05
4.558824E+03	3.733390E-03	4.606868E-05
4.568627E+03	3.745156E-03	4.588050E-05
4.578431E+03	3.756491E-03	4.568611E-05
4.588235E+03	3.768146E-03	4.549473E-05
4.598039E+03	3.779443E-03	4.529815E-05
4.607843E+03	3.790780E-03	4.510120E-05
4.617647E+03	3.802190E-03	4.490429E-05
4.627451E+03	3.813350E-03	4.470363E-05
4.637255E+03	3.825016E-03	4.450810E-05
4.647059E+03	3.836499E-03	4.430965E-05
4.656863E+03	3.848193E-03	4.411286E-05
4.666667E+03	3.860129E-03	4.391809E-05
4.676471E+03	3.872339E-03	4.372565E-05
4.686275E+03	3.884852E-03	4.353585E-05
4.696078E+03	3.897695E-03	4.334897E-05
4.705882E+03	3.910532E-03	4.316126E-05
4.715686E+03	3.923752E-03	4.297704E-05
4.725490E+03	3.937380E-03	4.279656E-05
4.735294E+03	3.951437E-03	4.262001E-05
4.745098E+03	3.965946E-03	4.244761E-05
4.754902E+03	3.980561E-03	4.227564E-05
4.764706E+03	3.996034E-03	4.211212E-05
4.774510E+03	4.011647E-03	4.194940E-05
4.784314E+03	4.027784E-03	4.179155E-05
4.794118E+03	4.044460E-03	4.163872E-05
4.803922E+03	4.061687E-03	4.149101E-05
4.813725E+03	4.079104E-03	4.134475E-05
4.823529E+03	4.097467E-03	4.120766E-05
4.833333E+03	4.116036E-03	4.107228E-05
4.843137E+03	4.135191E-03	4.094247E-05
4.852941E+03	4.154938E-03	4.081833E-05
4.862745E+03	4.174899E-03	4.069623E-05
4.872549E+03	4.195835E-03	4.058366E-05
4.882353E+03	4.216982E-03	4.047329E-05
4.892157E+03	4.238720E-03	4.036890E-05
4.901961E+03	4.261043E-03	4.027052E-05
4.911765E+03	4.283944E-03	4.017822E-05
4.921569E+03	4.307027E-03	4.008845E-05
4.931373E+03	4.331056E-03	4.000848E-05
4.941176E+03	4.355238E-03	3.993114E-05
4.950980E+03	4.379946E-03	3.986010E-05
4.960784E+03	4.405163E-03	3.979542E-05
4.970588E+03	4.430470E-03	3.973355E-05
4.980392E+03	4.456637E-03	3.968171E-05
4.990196E+03	4.482841E-03	3.963280E-05
5.000000E+03	4.509450E-03	3.959043E-05
5.009804E+03	4.536434E-03	3.955468E-05
5.019608E+03	4.563758E-03	3.952557E-05
5.029412E+03	4.591384E-03	3.950316E-05
5.039216E+03	4.618861E-03	3.948399E-05
5.049020E+03	4.646552E-03	3.947163E-05
5.058824E+03	4.674411E-03	3.946614E-05
5.068627E+03	4.702389E-03	3.946757E-05
5.078431E+03	4.730433E-03	3.947598E-05
5.088235E+03	4.758064E-03	3.948791E-05
5.098039E+03	4.786068E-03	3.951041E-05
5.107843E+03	4.813536E-03	3.953653E-05
5.117647E+03	4.840826E-03	3.956983E-05
5.127451E+03	4.867870E-03	3.961032E-05
5.137255E+03	4.894168E-03	3.965455E-05
5.147059E+03	4.920509E-03	3.970955E-05
5.156863E+03	4.945955E-03	3.976833E-05
5.166667E+03	4.970862E-03	3.983440E-05
5.176471E+03	4.995151E-03	3.990776E-05
5.186275E+03	5.018746E-03	3.998838E-05
5.196078E+03	5.041125E-03	4.007275E-05
5.205882E+03	5.063092E-03	4.016784E-05
5.215686E+03	5.083680E-03	4.026655E-05
5.225490E+03	5.103255E-03	4.037234E-05
5.235294E+03	5.121738E-03	4.048510E-05
5.245098E+03	5.139052E-03	4.060474E-05
5.254902E+03	5.154672E-03	4.072754E-05
5.264706E+03	5.169427E-03	4.086048E-05
5.274510E+03	5.182342E-03	4.099622E-05
5.284314E+03	5.193801E-03	4.113802E-05
5.294118E+03	5.203738E-03	4.128519E-05
5.303922E+03	5.211637E-03	4.143326E-05
5.313725E+03	5.218349E-03	4.158861E-05
5.323529E+03	5.222909E-03	4.174310E-05
5.333333E+03	5.226178E-03	4.190310E-05
5.343137E+03	5.227197E-03	4.206040E-05
5.352941E+03	5.225930E-03	4.221403E-05
5.362745E+03	5.223250E-03	4.237041E-05
5.372549E+03	5.218677E-03	4.252498E-05
5.382353E+03	5.211744E-03	4.267318E-05
5.392157E+03	5.202902E-03	4.281792E-05
5.401961E+03	5.192615E-03	4.296223E-05
5.411765E+03	5.180004E-03	4.309806E-05
5.421569E+03	5.165106E-03	4.322483E-05
5.431373E+03	5.148862E-03	4.334954E-05
5.441176E+03	5.130425E-03	4.346423E-05
5.450980E+03	5.110737E-03	4.357600E-05
5.460784E+03	5.088969E-03	4.367697E-05
5.470588E+03	5.065627E-03	4.377057E-05
5.480392E+03	5.040774E-03	4.385651E-05
5.490196E+03	5.014478E-03	4.393457E-05
5.500000E+03	4.986380E-03	4.400075E-05
5.509804E+03	4.957416E-03	4.406251E-05
5.519608E+03	4.926802E-03	4.411213E-05
5.529412E+03	4.895050E-03	4.415339E-05
5.539216E+03	4.862237E-03	4.418628E-05
5.549020E+03	4.828444E-03	4.421085E-05
5.558824E+03	4.793755E-03	4.422720E-05
5.568627E+03	4.758251E-03	4.423544E-05
5.578431E+03	4.721606E-03	4.423194E-05
5.588235E+03	4.684318E-03	4.422072E-05
5.598039E+03	4.646868E-03	4.420585E-05
5.607843E+03	4.608530E-03	4.417996E-05
5.617647E+03	4.569789E-03	4.414717E-05
5.627451E+03	4.530720E-03	4.410779E-05
5.637255E+03	4.491012E-03	4.405838E-05
5.647059E+03	4.451514E-03	4.400687E-05
5.656863E+03	4.411526E-03	4.394605E-05
5.666667E+03	4.371876E-03	4.388388E-05
5.676471E+03	4.331874E-03	4.381317E-05
5.686275E+03	4.291958E-03	4.373809E-05
5.696078E+03	4.252188E-03	4.365903E-05
5.705882E+03	4.212617E-03	4.357639E-05
5.715686E+03	4.173298E-03	4.349056E-05
5.725490E+03	4.133921E-03	4.339816E-05
5.735294E+03	4.095248E-03	4.330708E-05
5.745098E+03	4.056611E-03	4.321020E-05
5.754902E+03	4.018404E-03	4.311163E-05
5.764706E+03	3.981007E-03	4.301542E-05
5.774510E+03	3.943762E-03	4.291449E-05
5.784314E+03	3.907046E-03	4.281290E-05
5.794118E+03	3.870885E-03	4.271095E-05
5.803922E+03	3.834975E-03	4.260529E-05
5.813725E+03	3.799999E-03	4.250354E-05
5.823529E+03	3.765321E-03	4.239867E-05
5.833333E+03	3.731607E-03	4.229824E-05
5.843137E+03	3.698229E-03	4.219523E-05
5.852941E+03	3.665521E-03	4.209350E-05
5.862745E+03	3.633808E-03	4.199691E-05
5.872549E+03	3.602470E-03	4.189842E-05
5.882353E+03	3.571829E-03	4.180186E-05
5.892157E+03	3.541588E-03	4.170382E-05
5.901961E+03	3.512360E-03	4.161164E-05
5.911765E+03	3.483842E-03	4.152192E-05
5.921569E+03	3.455736E-03	4.143120E-05
5.931373E+03	3.428641E-03	4.134678E-05
5.941176E+03	3.401961E-03	4.126164E-05
5.950980E+03	3.376283E-03	4.118301E-05
5.960784E+03	3.351019E-03	4.110388E-05
5.970588E+03	3.326458E-03	4.102791E-05
5.980392E+03	3.302596E-03	4.095516E-05
5.990196E+03	3.279426E-03	4.088572E-05
6.000000E+03	3.256942E-03	4.081963E-05
6.009804E+03	3.235136E-03	4.075696E-05
6.019608E+03	3.214002E-03	4.069775E-05
6.029412E+03	3.193255E-03	4.063853E-05
6.039216E+03	3.173442E-03	4.058635E-05
6.049020E+03	3.154002E-03	4.053421E-05
6.058824E+03	3.135473E-03	4.048915E-05
6.068627E+03	3.117303E-03	4.044417E-05
6.078431E+03	3.099757E-03	4.040281E-05
6.088235E+03	3.083090E-03	4.036853E-05
6.098039E+03	3.066758E-03	4.033437E-05
6.107843E+03	3.051020E-03	4.030380E-05
6.117647E+03	3.035867E-03	4.027684E-05
6.127451E+03	3.021290E-03	4.025347E-05
6.137255E+03	3.007278E-03	4.023367E-05
6.147059E+03	2.993824E-03	4.021746E-05
6.156863E+03	2.980659E-03	4.020132E-05
6.166667E+03	2.968294E-03	4.019223E-05
6.176471E+03	2.956460E-03	4.018668E-05
6.186275E+03	2.944894E-03	4.018118E-05
6.196078E+03	2.934100E-03	4.018271E-05
6.205882E+03	2.923561E-03	4.018427E-05
6.215686E+03	2.913777E-03	4.019284E-05
6.225490E+03	2.904235E-03	4.020144E-05
6.235294E+03	2.895183E-03	4.021357E-05
6.245098E+03	2.886616E-03	4.022925E-05
6.254902E+03	2.878777E-03	4.025195E-05
6.264706E+03	2.871161E-03	4.027472E-05
6.274510E+03	2.864014E-03	4.030107E-05
6.284314E+03	2.857333E-03	4.033103E-05
6.294118E+03	2.851114E-03	4.036463E-05
6.303922E+03	2.845354E-03	4.040189E-05
6.313725E+03	2.840050E-03	4.044286E-05
6.323529E+03	2.834954E-03	4.048406E-05
6.333333E+03	2.830560E-03	4.053260E-05
6.343137E+03	2.826619E-03	4.058503E-05
6.352941E+03	2.823131E-03	4.064140E-05
6.362745E+03	2.819850E-03	4.069823E-05
6.372549E+03	2.817271E-03	4.076272E-05
6.382353E+03	2.814903E-03	4.082784E-05
6.392157E+03	2.813240E-03	4.090081E-05
6.401961E+03	2.811792E-03	4.097459E-05
6.411765E+03	2.811056E-03	4.105646E-05
6.421569E+03	2.810544E-03	4.113935E-05
6.431373E+03	2.810751E-03	4.123060E-05
6.441176E+03	2.811190E-03	4.132310E-05
6.450980E+03	2.812116E-03	4.142065E-05
6.460784E+03	2.813531E-03	4.152335E-05
6.470588E+03	2.815445E-03	4.163137E-05
6.480392E+03	2.818110E-03	4.174853E-05
6.490196E+03	2.821041E-03	4.186772E-05
6.500000E+03	2.824495E-03	4.199275E-05
6.509804E+03	2.828478E-03	4.212380E-05
6.519608E+03	2.833000E-03	4.226105E-05
6.529412E+03	2.838072E-03	4.240475E-05
6.539216E+03	2.843703E-03	4.255504E-05
6.549020E+03	2.849905E-03	4.271220E-05
6.558824E+03	2.856436E-03	4.287261E-05
6.568627E+03	2.863812E-03	4.304408E-05
6.578431E+03	2.871791E-03	4.322303E-05
6.588235E+03	2.880388E-03	4.340974E-05
6.598039E+03	2.889360E-03	4.360058E-05
6.607843E+03	2.899227E-03	4.380345E-05
6.617647E+03	2.909751E-03	4.401480E-05
6.627451E+03	2.920684E-03	4.423096E-05
6.637255E+03	2.932557E-03	4.445997E-05
6.647059E+03	2.945125E-03	4.469820E-05
6.656863E+03	2.958142E-03	4.494195E-05
6.666667E+03	2.972142E-03	4.519938E-05
6.676471E+03	2.986616E-03	4.546279E-05
6.686275E+03	3.001838E-03	4.573640E-05
6.696078E+03	3.018090E-03	4.602456E-05
6.705882E+03	3.034851E-03	4.631938E-05
6.715686E+03	3.052403E-03	4.662518E-05
6.725490E+03	3.071028E-03	4.694636E-05
6.735294E+03	3.090200E-03	4.727489E-05
6.745098E+03	3.110200E-03	4.761513E-05
6.754902E+03	3.131040E-03	4.796731E-05
6.764706E+03	3.152734E-03	4.833169E-05
6.774510E+03	3.175574E-03	4.871281E-05
6.784314E+03	3.199007E-03	4.910224E-05
6.794118E+03	3.223326E-03	4.950451E-05
6.803922E+03	3.248539E-03	4.991980E-05
6.813725E+03	3.274653E-03	5.034829E-05
6.823529E+03	3.301678E-03	5.079016E-05
6.833333E+03	3.329617E-03	5.124554E-05
6.843137E+03	3.358177E-03	5.170997E-05
6.852941E+03	3.387959E-03	5.219275E-05
6.862745E+03	3.418667E-03	5.268939E-05
6.872549E+03	3.450302E-03	5.319998E-05
6.882353E+03	3.482861E-03	5.372456E-05
6.892157E+03	3.516029E-03	5.425830E-05
6.901961E+03	3.550425E-03	5.481084E-05
6.911765E+03	3.585732E-03	5.537738E-05
6.921569E+03	3.621613E-03	5.595278E-05
6.931373E+03	3.658705E-03	5.654696E-05
6.941176E+03	3.696337E-03	5.714965E-05
6.950980E+03	3.735153E-03	5.777089E-05
6.960784E+03	3.774465E-03	5.840013E-05
6.970588E+03	3.814922E-03	5.904752E-05
6.980392E+03	3.855814E-03	5.970220E-05
6.990196E+03	3.897452E-03	6.036903E-05
7.000000E+03	3.940153E-03	6.105310E-05
7.009804E+03	3.983174E-03	6.174298E-05
7.019608E+03	4.026822E-03	6.244356E-05
7.029412E+03	4.071050E-03	6.315425E-05
7.039216E+03	4.115809E-03	6.387440E-05
7.049020E+03	4.161414E-03	6.460910E-05
7.058824E+03	4.207061E-03	6.534594E-05
7.068627E+03	4.253055E-03	6.608987E-05
7.078431E+03	4.299326E-03	6.683991E-05
7.088235E+03	4.345799E-03	6.759510E-05
7.098039E+03	4.391997E-03	6.834815E-05
7.107843E+03	4.438628E-03	6.911026E-05
7.117647E+03	4.485208E-03	6.987410E-05
7.127451E+03	4.531647E-03	7.063840E-05
7.137255E+03	4.577428E-03	7.139532E-05
7.147059E+03	4.623278E-03	7.215639E-05
7.156863E+03	4.668681E-03	7.291372E-05
7.166667E+03	4.713100E-03	7.365911E-05
7.176471E+03	4.757276E-03	7.440436E-05
7.186275E+03	4.800233E-03	7.513437E-05
7.196078E+03	4.842725E-03	7.586116E-05
7.205882E+03	4.883758E-03	7.656931E-05
7.215686E+03	4.923648E-03	7.726399E-05
7.225490E+03	4.962280E-03	7.794355E-05
7.235294E+03	4.999992E-03	7.861348E-05
7.245098E+03	5.035757E-03	7.925783E-05
7.254902E+03	5.069915E-03	7.988207E-05
7.264706E+03	5.102352E-03	8.048457E-05
7.274510E+03	5.132959E-03	8.106376E-05
7.284314E+03	5.161630E-03	8.161810E-05
7.294118E+03	5.188264E-03	8.214608E-05
7.303922E+03	5.212283E-03	8.263864E-05
7.313725E+03	5.234548E-03	8.310955E-05
7.323529E+03	5.254496E-03	8.354991E-05
7.333333E+03	5.271554E-03	8.395067E-05
7.343137E+03	5.286615E-03	8.432608E-05
7.352941E+03	5.298636E-03	8.465951E-05
7.362745E+03	5.308536E-03	8.496563E-05
7.372549E+03	5.315293E-03	8.522804E-05
7.382353E+03	5.319862E-03	8.546200E-05
7.392157E+03	5.321244E-03	8.565141E-05
7.401961E+03	5.319929E-03	8.580399E-05
7.411765E+03	5.315923E-03	8.591974E-05
7.421569E+03	5.309236E-03	8.599866E-05
7.431373E+03	5.299889E-03	8.604096E-05
7.441176E+03	5.287910E-03	8.604680E-05
7.450980E+03	5.273334E-03	8.601638E-05
7.460784E+03	5.256203E-03	8.594993E-05
7.470588E+03	5.236079E-03	8.583978E-05
7.480392E+03	5.213997E-03	8.570241E-05
7.490196E+03	5.189530E-03	8.553035E-05
7.500000E+03	5.162265E-03	8.531627E-05
7.509804E+03	5.133246E-03	8.507689E-05
7.519608E+03	5.101588E-03	8.479707E-05
7.529412E+03	5.067863E-03	8.448571E-05
7.539216E+03	5.032631E-03	8.415169E-05
7.549020E+03	4.995036E-03	8.378018E-05
7.558824E+03	4.955650E-03	8.338023E-05
7.568627E+03	4.914569E-03	8.295294E-05
7.578431E+03	4.871892E-03	8.249947E-05
7.588235E+03	4.827718E-03	8.202100E-05
7.598039E+03	4.781694E-03	8.151104E-05
7.607843E+03	4.734826E-03	8.098625E-05
