#wls	flux	fluxerr
1.600000E+03	2.333269E-14	1.227043E-16
1.640000E+03	2.517780E-14	1.316405E-16
1.680000E+03	2.714981E-14	1.411043E-16
1.720000E+03	2.925055E-14	1.510888E-16
1.760000E+03	3.147984E-14	1.615758E-16
1.800000E+03	3.383462E-14	1.725317E-16
1.840000E+03	3.630814E-14	1.839040E-16
1.880000E+03	3.888886E-14	1.956163E-16
1.920000E+03	4.155878E-14	2.075609E-16
1.960000E+03	4.429157E-14	2.195909E-16
2.000000E+03	4.704997E-14	2.315091E-16
2.040000E+03	4.978179E-14	2.430502E-16
2.080000E+03	5.241709E-14	2.538714E-16
2.120000E+03	5.487255E-14	2.635765E-16
2.160000E+03	5.704576E-14	2.716923E-16
2.200000E+03	5.880954E-14	2.776468E-16
2.240000E+03	6.002586E-14	2.808401E-16
2.280000E+03	6.060653E-14	2.809293E-16
2.320000E+03	6.058394E-14	2.781436E-16
2.360000E+03	6.005918E-14	2.730224E-16
2.400000E+03	5.914624E-14	2.661475E-16
2.440000E+03	5.795590E-14	2.580679E-16
2.480000E+03	5.659029E-14	2.492756E-16
2.520000E+03	5.513954E-14	2.401917E-16
2.560000E+03	5.367500E-14	2.311400E-16
2.600000E+03	5.222793E-14	2.222593E-16
2.640000E+03	5.080941E-14	2.135976E-16
2.680000E+03	4.942230E-14	2.051662E-16
2.720000E+03	4.806476E-14	1.969567E-16
2.760000E+03	4.673309E-14	1.889532E-16
2.800000E+03	4.542310E-14	1.811386E-16
2.840000E+03	4.413086E-14	1.734980E-16
2.880000E+03	4.285299E-14	1.660191E-16
2.920000E+03	4.158632E-14	1.586913E-16
2.960000E+03	4.032805E-14	1.515061E-16
3.000000E+03	3.907560E-14	1.444566E-16
3.010000E+03	3.876312E-14	1.427147E-16
3.020000E+03	3.845074E-14	1.409806E-16
3.030000E+03	3.813858E-14	1.392547E-16
3.040000E+03	3.782661E-14	1.375370E-16
3.050000E+03	3.751463E-14	1.358269E-16
3.060000E+03	3.720268E-14	1.341244E-16
3.070000E+03	3.689089E-14	1.324303E-16
3.080000E+03	3.657897E-14	1.307434E-16
3.090000E+03	3.626707E-14	1.290644E-16
3.100000E+03	3.595520E-14	1.273934E-16
3.110000E+03	3.564319E-14	1.257298E-16
3.120000E+03	3.533115E-14	1.240741E-16
3.130000E+03	3.501896E-14	1.224260E-16
3.140000E+03	3.470668E-14	1.207857E-16
3.150000E+03	3.439427E-14	1.191532E-16
3.160000E+03	3.408178E-14	1.175286E-16
3.170000E+03	3.376917E-14	1.159120E-16
3.180000E+03	3.345642E-14	1.143033E-16
3.190000E+03	3.314359E-14	1.127029E-16
3.200000E+03	3.283065E-14	1.111106E-16
3.210000E+03	3.251758E-14	1.095265E-16
3.220000E+03	3.220453E-14	1.079511E-16
3.230000E+03	3.189139E-14	1.063842E-16
3.240000E+03	3.157825E-14	1.048261E-16
3.250000E+03	3.126510E-14	1.032769E-16
3.260000E+03	3.095211E-14	1.017371E-16
3.270000E+03	3.063928E-14	1.002068E-16
3.280000E+03	3.032655E-14	9.868594E-17
3.290000E+03	3.001417E-14	9.717533E-17
3.300000E+03	2.970204E-14	9.567466E-17
3.310000E+03	2.939040E-14	9.418482E-17
3.320000E+03	2.907924E-14	9.270577E-17
3.330000E+03	2.876862E-14	9.123773E-17
3.340000E+03	2.845875E-14	8.978142E-17
3.350000E+03	2.814971E-14	8.833713E-17
3.360000E+03	2.784159E-14	8.690513E-17
3.370000E+03	2.753448E-14	8.548570E-17
3.380000E+03	2.722850E-14	8.407926E-17
3.390000E+03	2.692389E-14	8.268656E-17
3.400000E+03	2.662065E-14	8.130752E-17
3.410000E+03	2.631898E-14	7.994279E-17
3.420000E+03	2.601902E-14	7.859278E-17
3.430000E+03	2.572084E-14	7.725762E-17
3.440000E+03	2.542474E-14	7.593820E-17
3.450000E+03	2.513077E-14	7.463464E-17
3.460000E+03	2.483932E-14	7.334801E-17
3.470000E+03	2.455043E-14	7.207837E-17
3.480000E+03	2.426432E-14	7.082626E-17
3.490000E+03	2.398117E-14	6.959212E-17
3.500000E+03	2.370116E-14	6.837639E-17
3.510000E+03	2.342435E-14	6.717914E-17
3.520000E+03	2.315083E-14	6.600048E-17
3.530000E+03	2.288077E-14	6.484078E-17
3.540000E+03	2.261403E-14	6.369953E-17
3.550000E+03	2.235074E-14	6.257695E-17
3.560000E+03	2.209077E-14	6.147258E-17
3.570000E+03	2.183410E-14	6.038624E-17
3.580000E+03	2.158057E-14	5.931731E-17
3.590000E+03	2.133014E-14	5.826565E-17
3.600000E+03	2.108253E-14	5.723031E-17
3.610000E+03	2.083765E-14	5.621099E-17
3.620000E+03	2.059530E-14	5.520703E-17
3.630000E+03	2.035516E-14	5.421752E-17
3.640000E+03	2.011707E-14	5.324195E-17
3.650000E+03	1.988085E-14	5.227976E-17
3.660000E+03	1.964618E-14	5.133011E-17
3.670000E+03	1.941298E-14	5.039271E-17
3.680000E+03	1.918103E-14	4.946694E-17
3.690000E+03	1.895016E-14	4.855238E-17
3.700000E+03	1.872020E-14	4.764855E-17
3.710000E+03	1.849123E-14	4.675566E-17
3.720000E+03	1.826304E-14	4.587315E-17
3.730000E+03	1.803576E-14	4.500134E-17
3.740000E+03	1.780934E-14	4.414007E-17
3.750000E+03	1.758391E-14	4.328970E-17
3.760000E+03	1.735954E-14	4.245033E-17
3.770000E+03	1.713643E-14	4.162245E-17
3.780000E+03	1.691462E-14	4.080611E-17
3.790000E+03	1.669448E-14	4.000213E-17
3.800000E+03	1.647601E-14	3.921049E-17
3.810000E+03	1.625951E-14	3.843181E-17
3.820000E+03	1.604516E-14	3.766645E-17
3.830000E+03	1.583305E-14	3.691452E-17
3.840000E+03	1.562338E-14	3.617640E-17
3.850000E+03	1.541624E-14	3.545223E-17
3.860000E+03	1.521178E-14	3.474218E-17
3.870000E+03	1.500992E-14	3.404601E-17
3.880000E+03	1.481082E-14	3.336395E-17
3.890000E+03	1.461436E-14	3.269560E-17
3.900000E+03	1.442058E-14	3.204094E-17
3.910000E+03	1.422932E-14	3.139953E-17
3.920000E+03	1.404051E-14	3.077108E-17
3.930000E+03	1.385403E-14	3.015522E-17
3.940000E+03	1.366976E-14	2.955159E-17
3.950000E+03	1.348748E-14	2.895964E-17
3.960000E+03	1.330712E-14	2.837913E-17
3.970000E+03	1.312848E-14	2.780953E-17
3.980000E+03	1.295145E-14	2.725053E-17
3.990000E+03	1.277589E-14	2.670179E-17
4.000000E+03	1.260173E-14	2.616308E-17
4.010000E+03	1.242886E-14	2.563408E-17
4.020000E+03	1.225724E-14	2.511468E-17
4.030000E+03	1.208691E-14	2.460489E-17
4.040000E+03	1.191790E-14	2.410467E-17
4.050000E+03	1.175017E-14	2.361392E-17
4.060000E+03	1.158393E-14	2.313293E-17
4.070000E+03	1.141924E-14	2.266177E-17
4.080000E+03	1.125628E-14	2.220069E-17
4.090000E+03	1.109518E-14	2.174988E-17
4.100000E+03	1.093625E-14	2.130979E-17
4.110000E+03	1.077958E-14	2.088054E-17
4.120000E+03	1.062546E-14	2.046254E-17
4.130000E+03	1.047416E-14	2.005619E-17
4.140000E+03	1.032585E-14	1.966165E-17
4.150000E+03	1.018078E-14	1.927930E-17
4.160000E+03	1.003919E-14	1.890941E-17
4.170000E+03	9.901264E-15	1.855217E-17
4.180000E+03	9.767175E-15	1.820776E-17
4.190000E+03	9.637117E-15	1.787638E-17
4.200000E+03	9.511160E-15	1.755800E-17
4.210000E+03	9.389429E-15	1.725267E-17
4.220000E+03	9.272027E-15	1.696043E-17
4.230000E+03	9.158969E-15	1.668115E-17
4.240000E+03	9.050292E-15	1.641474E-17
4.250000E+03	8.945916E-15	1.616091E-17
4.260000E+03	8.845838E-15	1.591951E-17
4.270000E+03	8.750027E-15	1.569033E-17
4.280000E+03	8.658282E-15	1.547290E-17
4.290000E+03	8.570610E-15	1.526709E-17
4.300000E+03	8.486873E-15	1.507255E-17
4.310000E+03	8.407024E-15	1.488908E-17
4.320000E+03	8.331062E-15	1.471655E-17
4.330000E+03	8.258979E-15	1.455480E-17
4.340000E+03	8.190913E-15	1.440387E-17
4.350000E+03	8.127141E-15	1.426408E-17
4.360000E+03	8.068081E-15	1.413598E-17
4.370000E+03	8.014489E-15	1.402074E-17
4.380000E+03	7.967505E-15	1.392017E-17
4.390000E+03	7.928486E-15	1.383651E-17
4.400000E+03	7.897198E-15	1.376918E-17
4.410000E+03	7.872218E-15	1.371559E-17
4.420000E+03	7.852241E-15	1.367334E-17
4.430000E+03	7.836407E-15	1.364084E-17
4.440000E+03	7.824132E-15	1.361699E-17
4.450000E+03	7.814970E-15	1.360092E-17
4.460000E+03	7.808630E-15	1.359207E-17
4.470000E+03	7.804806E-15	1.358983E-17
4.480000E+03	7.803283E-15	1.359375E-17
4.490000E+03	7.803875E-15	1.360346E-17
4.500000E+03	7.806422E-15	1.361860E-17
4.510000E+03	7.810688E-15	1.363872E-17
4.520000E+03	7.816543E-15	1.366353E-17
4.530000E+03	7.823827E-15	1.369270E-17
4.540000E+03	7.832345E-15	1.372582E-17
4.550000E+03	7.842014E-15	1.376271E-17
4.560000E+03	7.852619E-15	1.380294E-17
4.570000E+03	7.864059E-15	1.384627E-17
4.580000E+03	7.876148E-15	1.389233E-17
4.590000E+03	7.888715E-15	1.394076E-17
4.600000E+03	7.901703E-15	1.399141E-17
4.610000E+03	7.914917E-15	1.404388E-17
4.620000E+03	7.928115E-15	1.409769E-17
4.630000E+03	7.941168E-15	1.415255E-17
4.640000E+03	7.954110E-15	1.420847E-17
4.650000E+03	7.966983E-15	1.426547E-17
4.660000E+03	7.979945E-15	1.432377E-17
4.670000E+03	7.993153E-15	1.438361E-17
4.680000E+03	8.006604E-15	1.444494E-17
4.690000E+03	8.020329E-15	1.450776E-17
4.700000E+03	8.034476E-15	1.457230E-17
4.710000E+03	8.048871E-15	1.463820E-17
4.720000E+03	8.063566E-15	1.470551E-17
4.730000E+03	8.078467E-15	1.477402E-17
4.740000E+03	8.093449E-15	1.484344E-17
4.750000E+03	8.108379E-15	1.491351E-17
4.760000E+03	8.123068E-15	1.498382E-17
4.770000E+03	8.137324E-15	1.505397E-17
4.780000E+03	8.150854E-15	1.512338E-17
4.790000E+03	8.163436E-15	1.519156E-17
4.800000E+03	8.174789E-15	1.525796E-17
4.810000E+03	8.184659E-15	1.532202E-17
4.820000E+03	8.192644E-15	1.538295E-17
4.830000E+03	8.198535E-15	1.544026E-17
4.840000E+03	8.202011E-15	1.549329E-17
4.850000E+03	8.202812E-15	1.554147E-17
4.860000E+03	8.200664E-15	1.558419E-17
4.870000E+03	8.195353E-15	1.562097E-17
4.880000E+03	8.186725E-15	1.565143E-17
4.890000E+03	8.174573E-15	1.567508E-17
4.900000E+03	8.158748E-15	1.569156E-17
4.910000E+03	8.139252E-15	1.570076E-17
4.920000E+03	8.115959E-15	1.570236E-17
4.930000E+03	8.088951E-15	1.569643E-17
4.940000E+03	8.058173E-15	1.568278E-17
4.950000E+03	8.023797E-15	1.566166E-17
4.960000E+03	7.985965E-15	1.563326E-17
4.970000E+03	7.944715E-15	1.559757E-17
4.980000E+03	7.900241E-15	1.555492E-17
4.990000E+03	7.852764E-15	1.550567E-17
5.000000E+03	7.802514E-15	1.545020E-17
5.010000E+03	7.749668E-15	1.538881E-17
5.020000E+03	7.694478E-15	1.532195E-17
5.030000E+03	7.637128E-15	1.524994E-17
5.040000E+03	7.577868E-15	1.517324E-17
5.050000E+03	7.517007E-15	1.509243E-17
5.060000E+03	7.454584E-15	1.500756E-17
5.070000E+03	7.390953E-15	1.491932E-17
5.080000E+03	7.326195E-15	1.482785E-17
5.090000E+03	7.260570E-15	1.473365E-17
5.100000E+03	7.194197E-15	1.463696E-17
5.110000E+03	7.127175E-15	1.453797E-17
5.120000E+03	7.059720E-15	1.443712E-17
5.130000E+03	6.991904E-15	1.433454E-17
5.140000E+03	6.923846E-15	1.423049E-17
5.150000E+03	6.855594E-15	1.412506E-17
5.160000E+03	6.787241E-15	1.401844E-17
5.170000E+03	6.718935E-15	1.391096E-17
5.180000E+03	6.650566E-15	1.380239E-17
5.190000E+03	6.582326E-15	1.369313E-17
5.200000E+03	6.514211E-15	1.358320E-17
5.210000E+03	6.446277E-15	1.347271E-17
5.220000E+03	6.378512E-15	1.336166E-17
5.230000E+03	6.310963E-15	1.325015E-17
5.240000E+03	6.243672E-15	1.313830E-17
5.250000E+03	6.176679E-15	1.302619E-17
5.260000E+03	6.109963E-15	1.291380E-17
5.270000E+03	6.043617E-15	1.280133E-17
5.280000E+03	5.977559E-15	1.268865E-17
5.290000E+03	5.911880E-15	1.257594E-17
5.300000E+03	5.846663E-15	1.246341E-17
5.310000E+03	5.781823E-15	1.235090E-17
5.320000E+03	5.717438E-15	1.223858E-17
5.330000E+03	5.653474E-15	1.212641E-17
5.340000E+03	5.590056E-15	1.201466E-17
5.350000E+03	5.527196E-15	1.190340E-17
5.360000E+03	5.464846E-15	1.179252E-17
5.370000E+03	5.403119E-15	1.168230E-17
5.380000E+03	5.342062E-15	1.157285E-17
5.390000E+03	5.281616E-15	1.146407E-17
5.400000E+03	5.221772E-15	1.135596E-17
5.410000E+03	5.162470E-15	1.124840E-17
5.420000E+03	5.103456E-15	1.114083E-17
5.430000E+03	5.044243E-15	1.103221E-17
5.440000E+03	4.984738E-15	1.092231E-17
5.450000E+03	4.925339E-15	1.081203E-17
5.460000E+03	4.866312E-15	1.070193E-17
5.470000E+03	4.807980E-15	1.059275E-17
5.480000E+03	4.750835E-15	1.048558E-17
5.490000E+03	4.695409E-15	1.038161E-17
5.500000E+03	4.642094E-15	1.028173E-17
5.510000E+03	4.590348E-15	1.018477E-17
5.520000E+03	4.539579E-15	1.008943E-17
5.530000E+03	4.489564E-15	9.995235E-18
5.540000E+03	4.440111E-15	9.901766E-18
5.550000E+03	4.391133E-15	9.808841E-18
5.560000E+03	4.342743E-15	9.716720E-18
5.570000E+03	4.294995E-15	9.625537E-18
5.580000E+03	4.247915E-15	9.535359E-18
5.590000E+03	4.201622E-15	9.446470E-18
5.600000E+03	4.156238E-15	9.359154E-18
5.610000E+03	4.111788E-15	9.273485E-18
5.620000E+03	4.068382E-15	9.189724E-18
5.630000E+03	4.026076E-15	9.108017E-18
5.640000E+03	3.984964E-15	9.028591E-18
5.650000E+03	3.945083E-15	8.951551E-18
5.660000E+03	3.906466E-15	8.876986E-18
5.670000E+03	3.869131E-15	8.804960E-18
5.680000E+03	3.833178E-15	8.735714E-18
5.690000E+03	3.798566E-15	8.669177E-18
5.700000E+03	3.765288E-15	8.605351E-18
5.710000E+03	3.733372E-15	8.544319E-18
5.720000E+03	3.702794E-15	8.486044E-18
5.730000E+03	3.673565E-15	8.430571E-18
5.740000E+03	3.645605E-15	8.377734E-18
5.750000E+03	3.618910E-15	8.327541E-18
5.760000E+03	3.593472E-15	8.279991E-18
5.770000E+03	3.569191E-15	8.234871E-18
5.780000E+03	3.546007E-15	8.192057E-18
5.790000E+03	3.523938E-15	8.151610E-18
5.800000E+03	3.502877E-15	8.113296E-18
5.810000E+03	3.482797E-15	8.077066E-18
5.820000E+03	3.463586E-15	8.042678E-18
5.830000E+03	3.445263E-15	8.010187E-18
5.840000E+03	3.427676E-15	7.979252E-18
5.850000E+03	3.410845E-15	7.949936E-18
5.860000E+03	3.394710E-15	7.922111E-18
5.870000E+03	3.379215E-15	7.895657E-18
5.880000E+03	3.364309E-15	7.870466E-18
5.890000E+03	3.349945E-15	7.846442E-18
5.900000E+03	3.336084E-15	7.823501E-18
5.910000E+03	3.322776E-15	7.801775E-18
5.920000E+03	3.309907E-15	7.781008E-18
5.930000E+03	3.297499E-15	7.761259E-18
5.940000E+03	3.285579E-15	7.742603E-18
5.950000E+03	3.274051E-15	7.724828E-18
5.960000E+03	3.263040E-15	7.708236E-18
5.970000E+03	3.252462E-15	7.692642E-18
5.980000E+03	3.242365E-15	7.678171E-18
5.990000E+03	3.232718E-15	7.664761E-18
6.000000E+03	3.223621E-15	7.652661E-18
6.010000E+03	3.215051E-15	7.641829E-18
6.020000E+03	3.207074E-15	7.632433E-18
6.030000E+03	3.199625E-15	7.624333E-18
6.040000E+03	3.192865E-15	7.617925E-18
6.050000E+03	3.186736E-15	7.613083E-18
6.060000E+03	3.181310E-15	7.609998E-18
6.070000E+03	3.176622E-15	7.608767E-18
6.080000E+03	3.172703E-15	7.609479E-18
6.090000E+03	3.169590E-15	7.612240E-18
6.100000E+03	3.167361E-15	7.617252E-18
6.110000E+03	3.166051E-15	7.624621E-18
6.120000E+03	3.165651E-15	7.634342E-18
6.130000E+03	3.166197E-15	7.646523E-18
6.140000E+03	3.167679E-15	7.661159E-18
6.150000E+03	3.170131E-15	7.678350E-18
6.160000E+03	3.173495E-15	7.697980E-18
6.170000E+03	3.177803E-15	7.720147E-18
6.180000E+03	3.183042E-15	7.744838E-18
6.190000E+03	3.189238E-15	7.772142E-18
6.200000E+03	3.196375E-15	7.802044E-18
6.210000E+03	3.204477E-15	7.834625E-18
6.220000E+03	3.213526E-15	7.869862E-18
6.230000E+03	3.223539E-15	7.907829E-18
6.240000E+03	3.234540E-15	7.948607E-18
6.250000E+03	3.246497E-15	7.992141E-18
6.260000E+03	3.259472E-15	8.038619E-18
6.270000E+03	3.273429E-15	8.087976E-18
6.280000E+03	3.288424E-15	8.140382E-18
6.290000E+03	3.304359E-15	8.195623E-18
6.300000E+03	3.321330E-15	8.253971E-18
6.310000E+03	3.339226E-15	8.315179E-18
6.320000E+03	3.358076E-15	8.379355E-18
6.330000E+03	3.377852E-15	8.446463E-18
6.340000E+03	3.398458E-15	8.516293E-18
6.350000E+03	3.419891E-15	8.588874E-18
6.360000E+03	3.442025E-15	8.663924E-18
6.370000E+03	3.464823E-15	8.741380E-18
6.380000E+03	3.488174E-15	8.820997E-18
6.390000E+03	3.511944E-15	8.902463E-18
6.400000E+03	3.535915E-15	8.985262E-18
6.410000E+03	3.560075E-15	9.069387E-18
6.420000E+03	3.584096E-15	9.154025E-18
6.430000E+03	3.607798E-15	9.238736E-18
6.440000E+03	3.630977E-15	9.323019E-18
6.450000E+03	3.653357E-15	9.406169E-18
6.460000E+03	3.674646E-15	9.487445E-18
6.470000E+03	3.694556E-15	9.566095E-18
6.480000E+03	3.712878E-15	9.641567E-18
6.490000E+03	3.729445E-15	9.713393E-18
6.500000E+03	3.743980E-15	9.780802E-18
6.510000E+03	3.756564E-15	9.843961E-18
6.520000E+03	3.767244E-15	9.902940E-18
6.530000E+03	3.776324E-15	9.958490E-18
6.540000E+03	3.783838E-15	1.001065E-17
6.550000E+03	3.789192E-15	1.005780E-17
6.560000E+03	3.792072E-15	1.009904E-17
6.570000E+03	3.792257E-15	1.013371E-17
6.580000E+03	3.789669E-15	1.016150E-17
6.590000E+03	3.784402E-15	1.018259E-17
6.600000E+03	3.776483E-15	1.019696E-17
6.610000E+03	3.766061E-15	1.020493E-17
6.620000E+03	3.753383E-15	1.020707E-17
6.630000E+03	3.738576E-15	1.020366E-17
6.640000E+03	3.721917E-15	1.019537E-17
6.650000E+03	3.703546E-15	1.018251E-17
6.660000E+03	3.683664E-15	1.016557E-17
6.670000E+03	3.662474E-15	1.014505E-17
6.680000E+03	3.640232E-15	1.012161E-17
6.690000E+03	3.617056E-15	1.009551E-17
6.700000E+03	3.593114E-15	1.006718E-17
6.710000E+03	3.568638E-15	1.003723E-17
6.720000E+03	3.543709E-15	1.000586E-17
6.730000E+03	3.518470E-15	9.973437E-18
6.740000E+03	3.493051E-15	9.940300E-18
6.750000E+03	3.467570E-15	9.906764E-18
6.760000E+03	3.442137E-15	9.873128E-18
6.770000E+03	3.416850E-15	9.839658E-18
6.780000E+03	3.391867E-15	9.806798E-18
6.790000E+03	3.367129E-15	9.774375E-18
6.800000E+03	3.342776E-15	9.742787E-18
6.810000E+03	3.318799E-15	9.712009E-18
6.820000E+03	3.295385E-15	9.682583E-18
6.830000E+03	3.272439E-15	9.654244E-18
6.840000E+03	3.250066E-15	9.627298E-18
6.850000E+03	3.228225E-15	9.601635E-18
6.860000E+03	3.207001E-15	9.577514E-18
6.870000E+03	3.186341E-15	9.554785E-18
6.880000E+03	3.166319E-15	9.533681E-18
6.890000E+03	3.146867E-15	9.514011E-18
6.900000E+03	3.128051E-15	9.495980E-18
6.910000E+03	3.109729E-15	9.479174E-18
6.920000E+03	3.092021E-15	9.463965E-18
6.930000E+03	3.074846E-15	9.450118E-18
6.940000E+03	3.058188E-15	9.437593E-18
6.950000E+03	3.042089E-15	9.426531E-18
6.960000E+03	3.026400E-15	9.416484E-18
6.970000E+03	3.011162E-15	9.407584E-18
6.980000E+03	2.996352E-15	9.399767E-18
6.990000E+03	2.981881E-15	9.392763E-18
7.000000E+03	2.967856E-15	9.386914E-18
7.010000E+03	2.954122E-15	9.381741E-18
7.020000E+03	2.940660E-15	9.377184E-18
7.030000E+03	2.927509E-15	9.373372E-18
7.040000E+03	2.914650E-15	9.370250E-18
7.050000E+03	2.902000E-15	9.367553E-18
7.060000E+03	2.889602E-15	9.365426E-18
7.070000E+03	2.877377E-15	9.363614E-18
7.080000E+03	2.865309E-15	9.362064E-18
7.090000E+03	2.853386E-15	9.360737E-18
7.100000E+03	2.841595E-15	9.359592E-18
7.110000E+03	2.829988E-15	9.358800E-18
7.120000E+03	2.818493E-15	9.358125E-18
7.130000E+03	2.807041E-15	9.357332E-18
7.140000E+03	2.795752E-15	9.356826E-18
7.150000E+03	2.784496E-15	9.356167E-18
7.160000E+03	2.773334E-15	9.355561E-18
7.170000E+03	2.762266E-15	9.355004E-18
7.180000E+03	2.751293E-15	9.354501E-18
7.190000E+03	2.740356E-15	9.353849E-18
7.200000E+03	2.729523E-15	9.353276E-18
7.210000E+03	2.718798E-15	9.352803E-18
7.220000E+03	2.708128E-15	9.352240E-18
7.230000E+03	2.697585E-15	9.351838E-18
7.240000E+03	2.687051E-15	9.351191E-18
7.250000E+03	2.676729E-15	9.351000E-18
7.260000E+03	2.666504E-15	9.350872E-18
7.270000E+03	2.656390E-15	9.350852E-18
7.280000E+03	2.646401E-15	9.350996E-18
7.290000E+03	2.636551E-15	9.351350E-18
7.300000E+03	2.626918E-15	9.352200E-18
7.310000E+03	2.617452E-15	9.353369E-18
7.320000E+03	2.608106E-15	9.354696E-18
7.330000E+03	2.599020E-15	9.356682E-18
7.340000E+03	2.590142E-15	9.359155E-18
7.350000E+03	2.581487E-15	9.362169E-18
7.360000E+03	2.573066E-15	9.365770E-18
7.370000E+03	2.564890E-15	9.370011E-18
7.380000E+03	2.556905E-15	9.374698E-18
7.390000E+03	2.549246E-15	9.380334E-18
7.400000E+03	2.541858E-15	9.386726E-18
7.410000E+03	2.534684E-15	9.393676E-18
7.420000E+03	2.527857E-15	9.401679E-18
7.430000E+03	2.521316E-15	9.410520E-18
7.440000E+03	2.515002E-15	9.419993E-18
7.450000E+03	2.509046E-15	9.430593E-18
7.460000E+03	2.503448E-15	9.442334E-18
7.470000E+03	2.498082E-15	9.454750E-18
7.480000E+03	2.493141E-15	9.468585E-18
7.490000E+03	2.488432E-15	9.483115E-18
7.500000E+03	2.484082E-15	9.498834E-18
7.510000E+03	2.479963E-15	9.515267E-18
7.520000E+03	2.476264E-15	9.533146E-18
7.530000E+03	2.472791E-15	9.551735E-18
7.540000E+03	2.469669E-15	9.571532E-18
7.550000E+03	2.466832E-15	9.592287E-18
7.560000E+03	2.464274E-15	9.613985E-18
7.570000E+03	2.461990E-15	9.636621E-18
7.580000E+03	2.460039E-15	9.660438E-18
7.590000E+03	2.458352E-15	9.685168E-18
7.600000E+03	2.456918E-15	9.710781E-18
7.610000E+03	2.455797E-15	9.737521E-18
7.620000E+03	2.454912E-15	9.765094E-18
7.630000E+03	2.454253E-15	9.793468E-18
7.640000E+03	2.453807E-15	9.822599E-18
7.650000E+03	2.453628E-15	9.852711E-18
7.660000E+03	2.453637E-15	9.883493E-18
7.670000E+03	2.453886E-15	9.915160E-18
7.680000E+03	2.454222E-15	9.947102E-18
7.690000E+03	2.454765E-15	9.979810E-18
7.700000E+03	2.455500E-15	1.001323E-17
7.710000E+03	2.456270E-15	1.004672E-17
7.720000E+03	2.457197E-15	1.008078E-17
7.730000E+03	2.458261E-15	1.011535E-17
7.740000E+03	2.459307E-15	1.014977E-17
7.750000E+03	2.460457E-15	1.018456E-17
7.760000E+03	2.461624E-15	1.021936E-17
