#wls	flux	fluxerr
1.600000E+03	8.474926E-15	1.444418E-16
1.640000E+03	8.854678E-15	1.505108E-16
1.680000E+03	9.243831E-15	1.566944E-16
1.720000E+03	9.641683E-15	1.629782E-16
1.760000E+03	1.004736E-14	1.693446E-16
1.800000E+03	1.046013E-14	1.757786E-16
1.840000E+03	1.087927E-14	1.822654E-16
1.880000E+03	1.130419E-14	1.887925E-16
1.920000E+03	1.173486E-14	1.953570E-16
1.960000E+03	1.217166E-14	2.019623E-16
2.000000E+03	1.261578E-14	2.086251E-16
2.040000E+03	1.306917E-14	2.153748E-16
2.080000E+03	1.353449E-14	2.222515E-16
2.120000E+03	1.401347E-14	2.292793E-16
2.160000E+03	1.450563E-14	2.364459E-16
2.200000E+03	1.500553E-14	2.436584E-16
2.240000E+03	1.550397E-14	2.507645E-16
2.280000E+03	1.599305E-14	2.576347E-16
2.320000E+03	1.646773E-14	2.641879E-16
2.360000E+03	1.692373E-14	2.703566E-16
2.400000E+03	1.735871E-14	2.761053E-16
2.440000E+03	1.777333E-14	2.814465E-16
2.480000E+03	1.816984E-14	2.864182E-16
2.520000E+03	1.855138E-14	2.910720E-16
2.560000E+03	1.892064E-14	2.954509E-16
2.600000E+03	1.927901E-14	2.995780E-16
2.640000E+03	1.962600E-14	3.034461E-16
2.680000E+03	1.995934E-14	3.070218E-16
2.720000E+03	2.027847E-14	3.102979E-16
2.760000E+03	2.058537E-14	3.133067E-16
2.800000E+03	2.088317E-14	3.160971E-16
2.840000E+03	2.117441E-14	3.187081E-16
2.880000E+03	2.146062E-14	3.211636E-16
2.920000E+03	2.174235E-14	3.234714E-16
2.960000E+03	2.201924E-14	3.256265E-16
3.000000E+03	2.228972E-14	3.276060E-16
3.010000E+03	2.235599E-14	3.280684E-16
3.020000E+03	2.242172E-14	3.285179E-16
3.030000E+03	2.248667E-14	3.289509E-16
3.040000E+03	2.255092E-14	3.293687E-16
3.050000E+03	2.261444E-14	3.297709E-16
3.060000E+03	2.267707E-14	3.301553E-16
3.070000E+03	2.273869E-14	3.305199E-16
3.080000E+03	2.279936E-14	3.308659E-16
3.090000E+03	2.285883E-14	3.311897E-16
3.100000E+03	2.291730E-14	3.314942E-16
3.110000E+03	2.297439E-14	3.317739E-16
3.120000E+03	2.303005E-14	3.320283E-16
3.130000E+03	2.308425E-14	3.322572E-16
3.140000E+03	2.313696E-14	3.324599E-16
3.150000E+03	2.318791E-14	3.326329E-16
3.160000E+03	2.323717E-14	3.327773E-16
3.170000E+03	2.328448E-14	3.328893E-16
3.180000E+03	2.332979E-14	3.329685E-16
3.190000E+03	2.337295E-14	3.330131E-16
3.200000E+03	2.341379E-14	3.330204E-16
3.210000E+03	2.345229E-14	3.329905E-16
3.220000E+03	2.348827E-14	3.329209E-16
3.230000E+03	2.352156E-14	3.328097E-16
3.240000E+03	2.355202E-14	3.326548E-16
3.250000E+03	2.357946E-14	3.324539E-16
3.260000E+03	2.360385E-14	3.322068E-16
3.270000E+03	2.362501E-14	3.319111E-16
3.280000E+03	2.364267E-14	3.315633E-16
3.290000E+03	2.365676E-14	3.311628E-16
3.300000E+03	2.366713E-14	3.307075E-16
3.310000E+03	2.367359E-14	3.301954E-16
3.320000E+03	2.367598E-14	3.296243E-16
3.330000E+03	2.367403E-14	3.289910E-16
3.340000E+03	2.366780E-14	3.282965E-16
3.350000E+03	2.365703E-14	3.275375E-16
3.360000E+03	2.364146E-14	3.267109E-16
3.370000E+03	2.362117E-14	3.258183E-16
3.380000E+03	2.359584E-14	3.248554E-16
3.390000E+03	2.356547E-14	3.238228E-16
3.400000E+03	2.353000E-14	3.227201E-16
3.410000E+03	2.348929E-14	3.215457E-16
3.420000E+03	2.344335E-14	3.203002E-16
3.430000E+03	2.339236E-14	3.189865E-16
3.440000E+03	2.333622E-14	3.176038E-16
3.450000E+03	2.327535E-14	3.161579E-16
3.460000E+03	2.320971E-14	3.146490E-16
3.470000E+03	2.313979E-14	3.130840E-16
3.480000E+03	2.306606E-14	3.114696E-16
3.490000E+03	2.298893E-14	3.098117E-16
3.500000E+03	2.290922E-14	3.081216E-16
3.510000E+03	2.282778E-14	3.064110E-16
3.520000E+03	2.274551E-14	3.046922E-16
3.530000E+03	2.266364E-14	3.029814E-16
3.540000E+03	2.258338E-14	3.012951E-16
3.550000E+03	2.250616E-14	2.996522E-16
3.560000E+03	2.243324E-14	2.980691E-16
3.570000E+03	2.236621E-14	2.965666E-16
3.580000E+03	2.230610E-14	2.951579E-16
3.590000E+03	2.225388E-14	2.938553E-16
3.600000E+03	2.220988E-14	2.926623E-16
3.610000E+03	2.217374E-14	2.915737E-16
3.620000E+03	2.214446E-14	2.905757E-16
3.630000E+03	2.212057E-14	2.896483E-16
3.640000E+03	2.209988E-14	2.887626E-16
3.650000E+03	2.208017E-14	2.878894E-16
3.660000E+03	2.205862E-14	2.869918E-16
3.670000E+03	2.203248E-14	2.860343E-16
3.680000E+03	2.199862E-14	2.849767E-16
3.690000E+03	2.195420E-14	2.837830E-16
3.700000E+03	2.189639E-14	2.824176E-16
3.710000E+03	2.182279E-14	2.808507E-16
3.720000E+03	2.173143E-14	2.790584E-16
3.730000E+03	2.162115E-14	2.770272E-16
3.740000E+03	2.149149E-14	2.747531E-16
3.750000E+03	2.134314E-14	2.722464E-16
3.760000E+03	2.117755E-14	2.695272E-16
3.770000E+03	2.099716E-14	2.666281E-16
3.780000E+03	2.080514E-14	2.635904E-16
3.790000E+03	2.060539E-14	2.604646E-16
3.800000E+03	2.040227E-14	2.573063E-16
3.810000E+03	2.020020E-14	2.541716E-16
3.820000E+03	2.000378E-14	2.511179E-16
3.830000E+03	1.981710E-14	2.481963E-16
3.840000E+03	1.964378E-14	2.454511E-16
3.850000E+03	1.948684E-14	2.429186E-16
3.860000E+03	1.934854E-14	2.406258E-16
3.870000E+03	1.923025E-14	2.385880E-16
3.880000E+03	1.913239E-14	2.368086E-16
3.890000E+03	1.905456E-14	2.352808E-16
3.900000E+03	1.899547E-14	2.339870E-16
3.910000E+03	1.895318E-14	2.329019E-16
3.920000E+03	1.892515E-14	2.319925E-16
3.930000E+03	1.890825E-14	2.312196E-16
3.940000E+03	1.889911E-14	2.305409E-16
3.950000E+03	1.889417E-14	2.299125E-16
3.960000E+03	1.888963E-14	2.292879E-16
3.970000E+03	1.888208E-14	2.286256E-16
3.980000E+03	1.886809E-14	2.278846E-16
3.990000E+03	1.884465E-14	2.270293E-16
4.000000E+03	1.880904E-14	2.260277E-16
4.010000E+03	1.875905E-14	2.248545E-16
4.020000E+03	1.869293E-14	2.234902E-16
4.030000E+03	1.860925E-14	2.219192E-16
4.040000E+03	1.850734E-14	2.201350E-16
4.050000E+03	1.838679E-14	2.181347E-16
4.060000E+03	1.824780E-14	2.159223E-16
4.070000E+03	1.809090E-14	2.135059E-16
4.080000E+03	1.791730E-14	2.109012E-16
4.090000E+03	1.772821E-14	2.081244E-16
4.100000E+03	1.752581E-14	2.052021E-16
4.110000E+03	1.731232E-14	2.021619E-16
4.120000E+03	1.709042E-14	1.990358E-16
4.130000E+03	1.686321E-14	1.958607E-16
4.140000E+03	1.663388E-14	1.926743E-16
4.150000E+03	1.640577E-14	1.895153E-16
4.160000E+03	1.618246E-14	1.864248E-16
4.170000E+03	1.596732E-14	1.834413E-16
4.180000E+03	1.576337E-14	1.805987E-16
4.190000E+03	1.557375E-14	1.779316E-16
4.200000E+03	1.540057E-14	1.754630E-16
4.210000E+03	1.524579E-14	1.732134E-16
4.220000E+03	1.511072E-14	1.711961E-16
4.230000E+03	1.499582E-14	1.694145E-16
4.240000E+03	1.490095E-14	1.678650E-16
4.250000E+03	1.482541E-14	1.665378E-16
4.260000E+03	1.476776E-14	1.654151E-16
4.270000E+03	1.472598E-14	1.644725E-16
4.280000E+03	1.469774E-14	1.636826E-16
4.290000E+03	1.468038E-14	1.630146E-16
4.300000E+03	1.467101E-14	1.624353E-16
4.310000E+03	1.466680E-14	1.619130E-16
4.320000E+03	1.466511E-14	1.614179E-16
4.330000E+03	1.466374E-14	1.609258E-16
4.340000E+03	1.466057E-14	1.604134E-16
4.350000E+03	1.465454E-14	1.598693E-16
4.360000E+03	1.464481E-14	1.592848E-16
4.370000E+03	1.463150E-14	1.586614E-16
4.380000E+03	1.461501E-14	1.580039E-16
4.390000E+03	1.459617E-14	1.573215E-16
4.400000E+03	1.457643E-14	1.566300E-16
4.410000E+03	1.455687E-14	1.559412E-16
4.420000E+03	1.453900E-14	1.552712E-16
4.430000E+03	1.452404E-14	1.546327E-16
4.440000E+03	1.451324E-14	1.540387E-16
4.450000E+03	1.450719E-14	1.534951E-16
4.460000E+03	1.450638E-14	1.530067E-16
4.470000E+03	1.451093E-14	1.525742E-16
4.480000E+03	1.452017E-14	1.521899E-16
4.490000E+03	1.453315E-14	1.518437E-16
4.500000E+03	1.454840E-14	1.515198E-16
4.510000E+03	1.456436E-14	1.512017E-16
4.520000E+03	1.457877E-14	1.508660E-16
4.530000E+03	1.458967E-14	1.504928E-16
4.540000E+03	1.459488E-14	1.500598E-16
4.550000E+03	1.459239E-14	1.495472E-16
4.560000E+03	1.458033E-14	1.489367E-16
4.570000E+03	1.455753E-14	1.482172E-16
4.580000E+03	1.452293E-14	1.473792E-16
4.590000E+03	1.447597E-14	1.464181E-16
4.600000E+03	1.441686E-14	1.453374E-16
4.610000E+03	1.434628E-14	1.441453E-16
4.620000E+03	1.426540E-14	1.428544E-16
4.630000E+03	1.417599E-14	1.414836E-16
4.640000E+03	1.408037E-14	1.400568E-16
4.650000E+03	1.398112E-14	1.386005E-16
4.660000E+03	1.388142E-14	1.371461E-16
4.670000E+03	1.378430E-14	1.357238E-16
4.680000E+03	1.369342E-14	1.343692E-16
4.690000E+03	1.361198E-14	1.331130E-16
4.700000E+03	1.354318E-14	1.319855E-16
4.710000E+03	1.348979E-14	1.310124E-16
4.720000E+03	1.345423E-14	1.302153E-16
4.730000E+03	1.343823E-14	1.296097E-16
4.740000E+03	1.344261E-14	1.292010E-16
4.750000E+03	1.346781E-14	1.289916E-16
4.760000E+03	1.351293E-14	1.289710E-16
4.770000E+03	1.357649E-14	1.291230E-16
4.780000E+03	1.365616E-14	1.294238E-16
4.790000E+03	1.374862E-14	1.298404E-16
4.800000E+03	1.384998E-14	1.303349E-16
4.810000E+03	1.395586E-14	1.308657E-16
4.820000E+03	1.406181E-14	1.313905E-16
4.830000E+03	1.416291E-14	1.318637E-16
4.840000E+03	1.425462E-14	1.322437E-16
4.850000E+03	1.433303E-14	1.324955E-16
4.860000E+03	1.439442E-14	1.325860E-16
4.870000E+03	1.443625E-14	1.324937E-16
4.880000E+03	1.445637E-14	1.322011E-16
4.890000E+03	1.445388E-14	1.317021E-16
4.900000E+03	1.442868E-14	1.309980E-16
4.910000E+03	1.438124E-14	1.300955E-16
4.920000E+03	1.431276E-14	1.290077E-16
4.930000E+03	1.422501E-14	1.277524E-16
4.940000E+03	1.412022E-14	1.263518E-16
4.950000E+03	1.400067E-14	1.248276E-16
4.960000E+03	1.386900E-14	1.232048E-16
4.970000E+03	1.372765E-14	1.215063E-16
4.980000E+03	1.357926E-14	1.197565E-16
4.990000E+03	1.342615E-14	1.179762E-16
5.000000E+03	1.327072E-14	1.161869E-16
5.010000E+03	1.311506E-14	1.144073E-16
5.020000E+03	1.296105E-14	1.126536E-16
5.030000E+03	1.281024E-14	1.109391E-16
5.040000E+03	1.266424E-14	1.092774E-16
5.050000E+03	1.252394E-14	1.076758E-16
5.060000E+03	1.239034E-14	1.061422E-16
5.070000E+03	1.226411E-14	1.046818E-16
5.080000E+03	1.214538E-14	1.032951E-16
5.090000E+03	1.203447E-14	1.019839E-16
5.100000E+03	1.193102E-14	1.007448E-16
5.110000E+03	1.183497E-14	9.957633E-17
5.120000E+03	1.174586E-14	9.847420E-17
5.130000E+03	1.166291E-14	9.743120E-17
5.140000E+03	1.158568E-14	9.644315E-17
5.150000E+03	1.151347E-14	9.550376E-17
5.160000E+03	1.144533E-14	9.460478E-17
5.170000E+03	1.138083E-14	9.374237E-17
5.180000E+03	1.131892E-14	9.290761E-17
5.190000E+03	1.125921E-14	9.209721E-17
5.200000E+03	1.120083E-14	9.130375E-17
5.210000E+03	1.114316E-14	9.052224E-17
5.220000E+03	1.108575E-14	8.974903E-17
5.230000E+03	1.102813E-14	8.898026E-17
5.240000E+03	1.096977E-14	8.821180E-17
5.250000E+03	1.091047E-14	8.744216E-17
5.260000E+03	1.084989E-14	8.666863E-17
5.270000E+03	1.078811E-14	8.589209E-17
5.280000E+03	1.072478E-14	8.510980E-17
5.290000E+03	1.066015E-14	8.432396E-17
5.300000E+03	1.059436E-14	8.353571E-17
5.310000E+03	1.052749E-14	8.274580E-17
5.320000E+03	1.045990E-14	8.195723E-17
5.330000E+03	1.039177E-14	8.117138E-17
5.340000E+03	1.032350E-14	8.039147E-17
5.350000E+03	1.025516E-14	7.961808E-17
5.360000E+03	1.018721E-14	7.885470E-17
5.370000E+03	1.011966E-14	7.810146E-17
5.380000E+03	1.005283E-14	7.736079E-17
5.390000E+03	9.986489E-15	7.663086E-17
5.400000E+03	9.920796E-15	7.591283E-17
5.410000E+03	9.855633E-15	7.520577E-17
5.420000E+03	9.790614E-15	7.450670E-17
5.430000E+03	9.725451E-15	7.381340E-17
5.440000E+03	9.660027E-15	7.312488E-17
5.450000E+03	9.593792E-15	7.243685E-17
5.460000E+03	9.526489E-15	7.174728E-17
5.470000E+03	9.457507E-15	7.105150E-17
5.480000E+03	9.386788E-15	7.034901E-17
5.490000E+03	9.313986E-15	6.963720E-17
5.500000E+03	9.239087E-15	6.891592E-17
5.510000E+03	9.162303E-15	6.818670E-17
5.520000E+03	9.083684E-15	6.744988E-17
5.530000E+03	9.003555E-15	6.670781E-17
5.540000E+03	8.922288E-15	6.596316E-17
5.550000E+03	8.840278E-15	6.521876E-17
5.560000E+03	8.757919E-15	6.447740E-17
5.570000E+03	8.675418E-15	6.374047E-17
5.580000E+03	8.593235E-15	6.301123E-17
5.590000E+03	8.511639E-15	6.229148E-17
5.600000E+03	8.431067E-15	6.158425E-17
5.610000E+03	8.351689E-15	6.089062E-17
5.620000E+03	8.273950E-15	6.021365E-17
5.630000E+03	8.198226E-15	5.955588E-17
5.640000E+03	8.124748E-15	5.891878E-17
5.650000E+03	8.054035E-15	5.830593E-17
5.660000E+03	7.986555E-15	5.772048E-17
5.670000E+03	7.922798E-15	5.716576E-17
5.680000E+03	7.863102E-15	5.664396E-17
5.690000E+03	7.808133E-15	5.615964E-17
5.700000E+03	7.758198E-15	5.571476E-17
5.710000E+03	7.713791E-15	5.531262E-17
5.720000E+03	7.675161E-15	5.495474E-17
5.730000E+03	7.642522E-15	5.464239E-17
5.740000E+03	7.616033E-15	5.437648E-17
5.750000E+03	7.595452E-15	5.415502E-17
5.760000E+03	7.580616E-15	5.397665E-17
5.770000E+03	7.571115E-15	5.383822E-17
5.780000E+03	7.566300E-15	5.373494E-17
5.790000E+03	7.565472E-15	5.366169E-17
5.800000E+03	7.567826E-15	5.361262E-17
5.810000E+03	7.572407E-15	5.358086E-17
5.820000E+03	7.578480E-15	5.356115E-17
5.830000E+03	7.584912E-15	5.354540E-17
5.840000E+03	7.591034E-15	5.352888E-17
5.850000E+03	7.596014E-15	5.350571E-17
5.860000E+03	7.599217E-15	5.347143E-17
5.870000E+03	7.600128E-15	5.342242E-17
5.880000E+03	7.598282E-15	5.335547E-17
5.890000E+03	7.593426E-15	5.326882E-17
5.900000E+03	7.585512E-15	5.316217E-17
5.910000E+03	7.574428E-15	5.303479E-17
5.920000E+03	7.560147E-15	5.288652E-17
5.930000E+03	7.542884E-15	5.271891E-17
5.940000E+03	7.522739E-15	5.253267E-17
5.950000E+03	7.500020E-15	5.233000E-17
5.960000E+03	7.474806E-15	5.211146E-17
5.970000E+03	7.447537E-15	5.188013E-17
5.980000E+03	7.418401E-15	5.163734E-17
5.990000E+03	7.387596E-15	5.138446E-17
6.000000E+03	7.355483E-15	5.112402E-17
6.010000E+03	7.322332E-15	5.085787E-17
6.020000E+03	7.288397E-15	5.058780E-17
6.030000E+03	7.253833E-15	5.031485E-17
6.040000E+03	7.218941E-15	5.004110E-17
6.050000E+03	7.183908E-15	4.976784E-17
6.060000E+03	7.148982E-15	4.949677E-17
6.070000E+03	7.114120E-15	4.922757E-17
6.080000E+03	7.079681E-15	4.896271E-17
6.090000E+03	7.045659E-15	4.870213E-17
6.100000E+03	7.012111E-15	4.844622E-17
6.110000E+03	6.979258E-15	4.819648E-17
6.120000E+03	6.947061E-15	4.795262E-17
6.130000E+03	6.915744E-15	4.771617E-17
6.140000E+03	6.885372E-15	4.748758E-17
6.150000E+03	6.856117E-15	4.726801E-17
6.160000E+03	6.828084E-15	4.705818E-17
6.170000E+03	6.801571E-15	4.686013E-17
6.180000E+03	6.776635E-15	4.667424E-17
6.190000E+03	6.753421E-15	4.650149E-17
6.200000E+03	6.731985E-15	4.634227E-17
6.210000E+03	6.712451E-15	4.619742E-17
6.220000E+03	6.694993E-15	4.606815E-17
6.230000E+03	6.679571E-15	4.595417E-17
6.240000E+03	6.666177E-15	4.585543E-17
6.250000E+03	6.654836E-15	4.577210E-17
6.260000E+03	6.645436E-15	4.570343E-17
6.270000E+03	6.637829E-15	4.564841E-17
6.280000E+03	6.632034E-15	4.560719E-17
6.290000E+03	6.627728E-15	4.557755E-17
6.300000E+03	6.625090E-15	4.556075E-17
6.310000E+03	6.624020E-15	4.555613E-17
6.320000E+03	6.624721E-15	4.556510E-17
6.330000E+03	6.627527E-15	4.558999E-17
6.340000E+03	6.632829E-15	4.563353E-17
6.350000E+03	6.641237E-15	4.569993E-17
6.360000E+03	6.653468E-15	4.579420E-17
6.370000E+03	6.670195E-15	4.592100E-17
6.380000E+03	6.692184E-15	4.608568E-17
6.390000E+03	6.720021E-15	4.629234E-17
6.400000E+03	6.754238E-15	4.654474E-17
6.410000E+03	6.795153E-15	4.684517E-17
6.420000E+03	6.842617E-15	4.719271E-17
6.430000E+03	6.896391E-15	4.758583E-17
6.440000E+03	6.955745E-15	4.801953E-17
6.450000E+03	7.019798E-15	4.848777E-17
6.460000E+03	7.087592E-15	4.898397E-17
6.470000E+03	7.157874E-15	4.949950E-17
6.480000E+03	7.229527E-15	5.002663E-17
6.490000E+03	7.301690E-15	5.055943E-17
6.500000E+03	7.373377E-15	5.109103E-17
6.510000E+03	7.444244E-15	5.161903E-17
6.520000E+03	7.513657E-15	5.213899E-17
6.530000E+03	7.580865E-15	5.264566E-17
6.540000E+03	7.644656E-15	5.313054E-17
6.550000E+03	7.703301E-15	5.358153E-17
6.560000E+03	7.754782E-15	5.398445E-17
6.570000E+03	7.797116E-15	5.432533E-17
6.580000E+03	7.828509E-15	5.459144E-17
6.590000E+03	7.847879E-15	5.477501E-17
6.600000E+03	7.854412E-15	5.487005E-17
6.610000E+03	7.847921E-15	5.487497E-17
6.620000E+03	7.828786E-15	5.479211E-17
6.630000E+03	7.797370E-15	5.462372E-17
6.640000E+03	7.754833E-15	5.437761E-17
6.650000E+03	7.702026E-15	5.405948E-17
6.660000E+03	7.640189E-15	5.367776E-17
6.670000E+03	7.570762E-15	5.324233E-17
6.680000E+03	7.494945E-15	5.276141E-17
6.690000E+03	7.414173E-15	5.224493E-17
6.700000E+03	7.329444E-15	5.169977E-17
6.710000E+03	7.242067E-15	5.113501E-17
6.720000E+03	7.153124E-15	5.055821E-17
6.730000E+03	7.063601E-15	4.997625E-17
6.740000E+03	6.974256E-15	4.939444E-17
6.750000E+03	6.885867E-15	4.881826E-17
6.760000E+03	6.799223E-15	4.825330E-17
6.770000E+03	6.714665E-15	4.770195E-17
6.780000E+03	6.632908E-15	4.716933E-17
6.790000E+03	6.554113E-15	4.665660E-17
6.800000E+03	6.478709E-15	4.616688E-17
6.810000E+03	6.406935E-15	4.570188E-17
6.820000E+03	6.338842E-15	4.526205E-17
6.830000E+03	6.274650E-15	4.484901E-17
6.840000E+03	6.214176E-15	4.446150E-17
6.850000E+03	6.157629E-15	4.410110E-17
6.860000E+03	6.104833E-15	4.376660E-17
6.870000E+03	6.055671E-15	4.345723E-17
6.880000E+03	6.009877E-15	4.317114E-17
6.890000E+03	5.967363E-15	4.290776E-17
6.900000E+03	5.927896E-15	4.266547E-17
6.910000E+03	5.891115E-15	4.244171E-17
6.920000E+03	5.856852E-15	4.223533E-17
6.930000E+03	5.824612E-15	4.204279E-17
6.940000E+03	5.794324E-15	4.186363E-17
6.950000E+03	5.765607E-15	4.169509E-17
6.960000E+03	5.738197E-15	4.153532E-17
6.970000E+03	5.711855E-15	4.138258E-17
6.980000E+03	5.686255E-15	4.123455E-17
6.990000E+03	5.661313E-15	4.109062E-17
7.000000E+03	5.636869E-15	4.094965E-17
7.010000E+03	5.612579E-15	4.080912E-17
7.020000E+03	5.588649E-15	4.067056E-17
7.030000E+03	5.564688E-15	4.053112E-17
7.040000E+03	5.540739E-15	4.039112E-17
7.050000E+03	5.516869E-15	4.025103E-17
7.060000E+03	5.492845E-15	4.010919E-17
7.070000E+03	5.468655E-15	3.996549E-17
7.080000E+03	5.444502E-15	3.982142E-17
7.090000E+03	5.420176E-15	3.967546E-17
7.100000E+03	5.395676E-15	3.952760E-17
7.110000E+03	5.371100E-15	3.937857E-17
7.120000E+03	5.346233E-15	3.922681E-17
7.130000E+03	5.321260E-15	3.907366E-17
7.140000E+03	5.295954E-15	3.891749E-17
7.150000E+03	5.270488E-15	3.875955E-17
7.160000E+03	5.244625E-15	3.859813E-17
7.170000E+03	5.218330E-15	3.843297E-17
7.180000E+03	5.191675E-15	3.826461E-17
7.190000E+03	5.164530E-15	3.809211E-17
7.200000E+03	5.136882E-15	3.791537E-17
7.210000E+03	5.108725E-15	3.773435E-17
7.220000E+03	5.080070E-15	3.754916E-17
7.230000E+03	5.050846E-15	3.735928E-17
7.240000E+03	5.021196E-15	3.716578E-17
7.250000E+03	4.991181E-15	3.696912E-17
7.260000E+03	4.960686E-15	3.676846E-17
7.270000E+03	4.930003E-15	3.656598E-17
7.280000E+03	4.899145E-15	3.636181E-17
7.290000E+03	4.868137E-15	3.615613E-17
7.300000E+03	4.837205E-15	3.595066E-17
7.310000E+03	4.806482E-15	3.574641E-17
7.320000E+03	4.776000E-15	3.554364E-17
7.330000E+03	4.745881E-15	3.534327E-17
7.340000E+03	4.716229E-15	3.514613E-17
7.350000E+03	4.687132E-15	3.495290E-17
7.360000E+03	4.658651E-15	3.476406E-17
7.370000E+03	4.630823E-15	3.457993E-17
7.380000E+03	4.603563E-15	3.439989E-17
7.390000E+03	4.576854E-15	3.422386E-17
7.400000E+03	4.550750E-15	3.405228E-17
7.410000E+03	4.525003E-15	3.388332E-17
7.420000E+03	4.499633E-15	3.371716E-17
7.430000E+03	4.474466E-15	3.355253E-17
7.440000E+03	4.449324E-15	3.338812E-17
7.450000E+03	4.424311E-15	3.322474E-17
7.460000E+03	4.399168E-15	3.306047E-17
7.470000E+03	4.373928E-15	3.289557E-17
7.480000E+03	4.348635E-15	3.273042E-17
7.490000E+03	4.323264E-15	3.256483E-17
7.500000E+03	4.297712E-15	3.239806E-17
7.510000E+03	4.272177E-15	3.223163E-17
7.520000E+03	4.246689E-15	3.206577E-17
7.530000E+03	4.221296E-15	3.190089E-17
7.540000E+03	4.196064E-15	3.173751E-17
7.550000E+03	4.171160E-15	3.157691E-17
7.560000E+03	4.146577E-15	3.141908E-17
7.570000E+03	4.122501E-15	3.126546E-17
7.580000E+03	4.099016E-15	3.111671E-17
7.590000E+03	4.076302E-15	3.097425E-17
7.600000E+03	4.054338E-15	3.083795E-17
7.610000E+03	4.033273E-15	3.070899E-17
7.620000E+03	4.013144E-15	3.058769E-17
7.630000E+03	3.994062E-15	3.047495E-17
7.640000E+03	3.975830E-15	3.036932E-17
7.650000E+03	3.958694E-15	3.027271E-17
7.660000E+03	3.942411E-15	3.018332E-17
7.670000E+03	3.926993E-15	3.010131E-17
7.680000E+03	3.912342E-15	3.002595E-17
7.690000E+03	3.898437E-15	2.995714E-17
7.700000E+03	3.885053E-15	2.989320E-17
7.710000E+03	3.872151E-15	2.983386E-17
7.720000E+03	3.859587E-15	2.977806E-17
7.730000E+03	3.847219E-15	2.972473E-17
7.740000E+03	3.835001E-15	2.967356E-17
7.750000E+03	3.822607E-15	2.962206E-17
7.760000E+03	3.810196E-15	2.957146E-17
