#wls	flux	fluxerr
1.600000E+03	7.979077E-16	2.460483E-17
1.640000E+03	8.042213E-16	2.471366E-17
1.680000E+03	8.109651E-16	2.483221E-17
1.720000E+03	8.183328E-16	2.496616E-17
1.760000E+03	8.264654E-16	2.511950E-17
1.800000E+03	8.354470E-16	2.529438E-17
1.840000E+03	8.455489E-16	2.549860E-17
1.880000E+03	8.569908E-16	2.573821E-17
1.920000E+03	8.698707E-16	2.601551E-17
1.960000E+03	8.844814E-16	2.633854E-17
2.000000E+03	9.010585E-16	2.671343E-17
2.040000E+03	9.198422E-16	2.714630E-17
2.080000E+03	9.411463E-16	2.764528E-17
2.120000E+03	9.651503E-16	2.821432E-17
2.160000E+03	9.922508E-16	2.886356E-17
2.200000E+03	1.022712E-15	2.959900E-17
2.240000E+03	1.056804E-15	3.042662E-17
2.280000E+03	1.094808E-15	3.135241E-17
2.320000E+03	1.137251E-15	3.238917E-17
2.360000E+03	1.184118E-15	3.353397E-17
2.400000E+03	1.235794E-15	3.479493E-17
2.440000E+03	1.292246E-15	3.616823E-17
2.480000E+03	1.353844E-15	3.766115E-17
2.520000E+03	1.420603E-15	3.927076E-17
2.560000E+03	1.492768E-15	4.100033E-17
2.600000E+03	1.570461E-15	4.284957E-17
2.640000E+03	1.653852E-15	4.481913E-17
2.680000E+03	1.743244E-15	4.691311E-17
2.720000E+03	1.838790E-15	4.913120E-17
2.760000E+03	1.940660E-15	5.147330E-17
2.800000E+03	2.049129E-15	5.394178E-17
2.840000E+03	2.164468E-15	5.653860E-17
2.880000E+03	2.286735E-15	5.925974E-17
2.920000E+03	2.416132E-15	6.210481E-17
2.960000E+03	2.552514E-15	6.506413E-17
3.000000E+03	2.695841E-15	6.813080E-17
3.010000E+03	2.732656E-15	6.891094E-17
3.020000E+03	2.769819E-15	6.969517E-17
3.030000E+03	2.807406E-15	7.048529E-17
3.040000E+03	2.845294E-15	7.127816E-17
3.050000E+03	2.883556E-15	7.207550E-17
3.060000E+03	2.922071E-15	7.287419E-17
3.070000E+03	2.960908E-15	7.367591E-17
3.080000E+03	3.000039E-15	7.447990E-17
3.090000E+03	3.039343E-15	7.528302E-17
3.100000E+03	3.078788E-15	7.608449E-17
3.110000E+03	3.118444E-15	7.688597E-17
3.120000E+03	3.158280E-15	7.768662E-17
3.130000E+03	3.198172E-15	7.848335E-17
3.140000E+03	3.238184E-15	7.927770E-17
3.150000E+03	3.278191E-15	8.006655E-17
3.160000E+03	3.318162E-15	8.084916E-17
3.170000E+03	3.358162E-15	8.162705E-17
3.180000E+03	3.398066E-15	8.239717E-17
3.190000E+03	3.437844E-15	8.315879E-17
3.200000E+03	3.477464E-15	8.391116E-17
3.210000E+03	3.516900E-15	8.465361E-17
3.220000E+03	3.556122E-15	8.538547E-17
3.230000E+03	3.595102E-15	8.610606E-17
3.240000E+03	3.633721E-15	8.681257E-17
3.250000E+03	3.672047E-15	8.750668E-17
3.260000E+03	3.709874E-15	8.818350E-17
3.270000E+03	3.747455E-15	8.884912E-17
3.280000E+03	3.784499E-15	8.949665E-17
3.290000E+03	3.820992E-15	9.012586E-17
3.300000E+03	3.857102E-15	9.074077E-17
3.310000E+03	3.892641E-15	9.133705E-17
3.320000E+03	3.927695E-15	9.191676E-17
3.330000E+03	3.962089E-15	9.247593E-17
3.340000E+03	3.996007E-15	9.301892E-17
3.350000E+03	4.029288E-15	9.354206E-17
3.360000E+03	4.062040E-15	9.404798E-17
3.370000E+03	4.094207E-15	9.453545E-17
3.380000E+03	4.125912E-15	9.500740E-17
3.390000E+03	4.157117E-15	9.546306E-17
3.400000E+03	4.187879E-15	9.590377E-17
3.410000E+03	4.218185E-15	9.632933E-17
3.420000E+03	4.248282E-15	9.674543E-17
3.430000E+03	4.278009E-15	9.714848E-17
3.440000E+03	4.307722E-15	9.754653E-17
3.450000E+03	4.337285E-15	9.793658E-17
3.460000E+03	4.366993E-15	9.832523E-17
3.470000E+03	4.396817E-15	9.871184E-17
3.480000E+03	4.427068E-15	9.910329E-17
3.490000E+03	4.457819E-15	9.950114E-17
3.500000E+03	4.489151E-15	9.990708E-17
3.510000E+03	4.521309E-15	1.003265E-16
3.520000E+03	4.554537E-15	1.007645E-16
3.530000E+03	4.588840E-15	1.012210E-16
3.540000E+03	4.624370E-15	1.016991E-16
3.550000E+03	4.661420E-15	1.022051E-16
3.560000E+03	4.699951E-15	1.027378E-16
3.570000E+03	4.740049E-15	1.032986E-16
3.580000E+03	4.781828E-15	1.038899E-16
3.590000E+03	4.825204E-15	1.045093E-16
3.600000E+03	4.870131E-15	1.051556E-16
3.610000E+03	4.916707E-15	1.058306E-16
3.620000E+03	4.964885E-15	1.065329E-16
3.630000E+03	5.014838E-15	1.072659E-16
3.640000E+03	5.066424E-15	1.080261E-16
3.650000E+03	5.119333E-15	1.088067E-16
3.660000E+03	5.173476E-15	1.096055E-16
3.670000E+03	5.228462E-15	1.104139E-16
3.680000E+03	5.283841E-15	1.112223E-16
3.690000E+03	5.339286E-15	1.120237E-16
3.700000E+03	5.394246E-15	1.128066E-16
3.710000E+03	5.448432E-15	1.135649E-16
3.720000E+03	5.501480E-15	1.142914E-16
3.730000E+03	5.553222E-15	1.149826E-16
3.740000E+03	5.603715E-15	1.156402E-16
3.750000E+03	5.652898E-15	1.162629E-16
3.760000E+03	5.701285E-15	1.168617E-16
3.770000E+03	5.749367E-15	1.174468E-16
3.780000E+03	5.797909E-15	1.180337E-16
3.790000E+03	5.847774E-15	1.186398E-16
3.800000E+03	5.900032E-15	1.192865E-16
3.810000E+03	5.955916E-15	1.199981E-16
3.820000E+03	6.016466E-15	1.207948E-16
3.830000E+03	6.082915E-15	1.217001E-16
3.840000E+03	6.156258E-15	1.227327E-16
3.850000E+03	6.237407E-15	1.239092E-16
3.860000E+03	6.327142E-15	1.252433E-16
3.870000E+03	6.425759E-15	1.267391E-16
3.880000E+03	6.533403E-15	1.283975E-16
3.890000E+03	6.649964E-15	1.302143E-16
3.900000E+03	6.774822E-15	1.321756E-16
3.910000E+03	6.907151E-15	1.342635E-16
3.920000E+03	7.045452E-15	1.364473E-16
3.930000E+03	7.188359E-15	1.386993E-16
3.940000E+03	7.333800E-15	1.409787E-16
3.950000E+03	7.479602E-15	1.432434E-16
3.960000E+03	7.623399E-15	1.454479E-16
3.970000E+03	7.762780E-15	1.475471E-16
3.980000E+03	7.895047E-15	1.494905E-16
3.990000E+03	8.017795E-15	1.512346E-16
4.000000E+03	8.128588E-15	1.527354E-16
4.010000E+03	8.225294E-15	1.539558E-16
4.020000E+03	8.306167E-15	1.548662E-16
4.030000E+03	8.369649E-15	1.554411E-16
4.040000E+03	8.414689E-15	1.556649E-16
4.050000E+03	8.440690E-15	1.555307E-16
4.060000E+03	8.447438E-15	1.550387E-16
4.070000E+03	8.435372E-15	1.542012E-16
4.080000E+03	8.405307E-15	1.530371E-16
4.090000E+03	8.358412E-15	1.515717E-16
4.100000E+03	8.296340E-15	1.498385E-16
4.110000E+03	8.221178E-15	1.478785E-16
4.120000E+03	8.135133E-15	1.457341E-16
4.130000E+03	8.040719E-15	1.434526E-16
4.140000E+03	7.940596E-15	1.410831E-16
4.150000E+03	7.837490E-15	1.386753E-16
4.160000E+03	7.734192E-15	1.362790E-16
4.170000E+03	7.633165E-15	1.339374E-16
4.180000E+03	7.536934E-15	1.316943E-16
4.190000E+03	7.447703E-15	1.295870E-16
4.200000E+03	7.367446E-15	1.276482E-16
4.210000E+03	7.297579E-15	1.259003E-16
4.220000E+03	7.239424E-15	1.243639E-16
4.230000E+03	7.193625E-15	1.230473E-16
4.240000E+03	7.160704E-15	1.219569E-16
4.250000E+03	7.140596E-15	1.210886E-16
4.260000E+03	7.132939E-15	1.204336E-16
4.270000E+03	7.137117E-15	1.199788E-16
4.280000E+03	7.152043E-15	1.197034E-16
4.290000E+03	7.176751E-15	1.195891E-16
4.300000E+03	7.209797E-15	1.196097E-16
4.310000E+03	7.249872E-15	1.197418E-16
4.320000E+03	7.295542E-15	1.199603E-16
4.330000E+03	7.345589E-15	1.202442E-16
4.340000E+03	7.398820E-15	1.205731E-16
4.350000E+03	7.454385E-15	1.209325E-16
4.360000E+03	7.511617E-15	1.213112E-16
4.370000E+03	7.569987E-15	1.217004E-16
4.380000E+03	7.629494E-15	1.221000E-16
4.390000E+03	7.690250E-15	1.225114E-16
4.400000E+03	7.752916E-15	1.229450E-16
4.410000E+03	7.819011E-15	1.234244E-16
4.420000E+03	7.889878E-15	1.239699E-16
4.430000E+03	7.966896E-15	1.246021E-16
4.440000E+03	8.051169E-15	1.253368E-16
4.450000E+03	8.143477E-15	1.261845E-16
4.460000E+03	8.244120E-15	1.271481E-16
4.470000E+03	8.353042E-15	1.282249E-16
4.480000E+03	8.469573E-15	1.294029E-16
4.490000E+03	8.592391E-15	1.306603E-16
4.500000E+03	8.719668E-15	1.319682E-16
4.510000E+03	8.848965E-15	1.332888E-16
4.520000E+03	8.977519E-15	1.345802E-16
4.530000E+03	9.102052E-15	1.357938E-16
4.540000E+03	9.219058E-15	1.368784E-16
4.550000E+03	9.324961E-15	1.377827E-16
4.560000E+03	9.416466E-15	1.384607E-16
4.570000E+03	9.490434E-15	1.388695E-16
4.580000E+03	9.544138E-15	1.389732E-16
4.590000E+03	9.575676E-15	1.387486E-16
4.600000E+03	9.583943E-15	1.381845E-16
4.610000E+03	9.568641E-15	1.372815E-16
4.620000E+03	9.530317E-15	1.360526E-16
4.630000E+03	9.470503E-15	1.345244E-16
4.640000E+03	9.391644E-15	1.327360E-16
4.650000E+03	9.296811E-15	1.307347E-16
4.660000E+03	9.189547E-15	1.285734E-16
4.670000E+03	9.073834E-15	1.263102E-16
4.680000E+03	8.953892E-15	1.240054E-16
4.690000E+03	8.833684E-15	1.217144E-16
4.700000E+03	8.717183E-15	1.194917E-16
4.710000E+03	8.607917E-15	1.173846E-16
4.720000E+03	8.508985E-15	1.154338E-16
4.730000E+03	8.422879E-15	1.136705E-16
4.740000E+03	8.351426E-15	1.121166E-16
4.750000E+03	8.295956E-15	1.107868E-16
4.760000E+03	8.256863E-15	1.096829E-16
4.770000E+03	8.234050E-15	1.088002E-16
4.780000E+03	8.226537E-15	1.081224E-16
4.790000E+03	8.232932E-15	1.076282E-16
4.800000E+03	8.251097E-15	1.072867E-16
4.810000E+03	8.278651E-15	1.070649E-16
4.820000E+03	8.312594E-15	1.069221E-16
4.830000E+03	8.349996E-15	1.068196E-16
4.840000E+03	8.387709E-15	1.067168E-16
4.850000E+03	8.422507E-15	1.065727E-16
4.860000E+03	8.451650E-15	1.063535E-16
4.870000E+03	8.472505E-15	1.060276E-16
4.880000E+03	8.482936E-15	1.055702E-16
4.890000E+03	8.481310E-15	1.049633E-16
4.900000E+03	8.466464E-15	1.041951E-16
4.910000E+03	8.437862E-15	1.032619E-16
4.920000E+03	8.395443E-15	1.021658E-16
4.930000E+03	8.339722E-15	1.009160E-16
4.940000E+03	8.271658E-15	9.952685E-17
4.950000E+03	8.192452E-15	9.801523E-17
4.960000E+03	8.103897E-15	9.640481E-17
4.970000E+03	8.007664E-15	9.471732E-17
4.980000E+03	7.905804E-15	9.297843E-17
4.990000E+03	7.800462E-15	9.121442E-17
5.000000E+03	7.693817E-15	8.945133E-17
5.010000E+03	7.587817E-15	8.771196E-17
5.020000E+03	7.484674E-15	8.602163E-17
5.030000E+03	7.386204E-15	8.440053E-17
5.040000E+03	7.294125E-15	8.286727E-17
5.050000E+03	7.210083E-15	8.143921E-17
5.060000E+03	7.135228E-15	8.012769E-17
5.070000E+03	7.070722E-15	7.894394E-17
5.080000E+03	7.017328E-15	7.789445E-17
5.090000E+03	6.975473E-15	7.698185E-17
5.100000E+03	6.945574E-15	7.620854E-17
5.110000E+03	6.927399E-15	7.556981E-17
5.120000E+03	6.920854E-15	7.506251E-17
5.130000E+03	6.925362E-15	7.467833E-17
5.140000E+03	6.940202E-15	7.440762E-17
5.150000E+03	6.964535E-15	7.423967E-17
5.160000E+03	6.997304E-15	7.416169E-17
5.170000E+03	7.037324E-15	7.415986E-17
5.180000E+03	7.083313E-15	7.421963E-17
5.190000E+03	7.133986E-15	7.432678E-17
5.200000E+03	7.187953E-15	7.446632E-17
5.210000E+03	7.243814E-15	7.462352E-17
5.220000E+03	7.300191E-15	7.478417E-17
5.230000E+03	7.355815E-15	7.493557E-17
5.240000E+03	7.409357E-15	7.506465E-17
5.250000E+03	7.459720E-15	7.516102E-17
5.260000E+03	7.505931E-15	7.521575E-17
5.270000E+03	7.546933E-15	7.521927E-17
5.280000E+03	7.582111E-15	7.516662E-17
5.290000E+03	7.610793E-15	7.505238E-17
5.300000E+03	7.632621E-15	7.487432E-17
5.310000E+03	7.647327E-15	7.463117E-17
5.320000E+03	7.654812E-15	7.432325E-17
5.330000E+03	7.655130E-15	7.395242E-17
5.340000E+03	7.648482E-15	7.352186E-17
5.350000E+03	7.635201E-15	7.303593E-17
5.360000E+03	7.615808E-15	7.250070E-17
5.370000E+03	7.590768E-15	7.192157E-17
5.380000E+03	7.560700E-15	7.130527E-17
5.390000E+03	7.526353E-15	7.065957E-17
5.400000E+03	7.488367E-15	6.999113E-17
5.410000E+03	7.447473E-15	6.930725E-17
5.420000E+03	7.404412E-15	6.861523E-17
5.430000E+03	7.359913E-15	6.792208E-17
5.440000E+03	7.314762E-15	6.723522E-17
5.450000E+03	7.269566E-15	6.656029E-17
5.460000E+03	7.224969E-15	6.590320E-17
5.470000E+03	7.181574E-15	6.526933E-17
5.480000E+03	7.139862E-15	6.466266E-17
5.490000E+03	7.100340E-15	6.408724E-17
5.500000E+03	7.063272E-15	6.354491E-17
5.510000E+03	7.028613E-15	6.303468E-17
5.520000E+03	6.996214E-15	6.255472E-17
5.530000E+03	6.965880E-15	6.210277E-17
5.540000E+03	6.937305E-15	6.167564E-17
5.550000E+03	6.910213E-15	6.127045E-17
5.560000E+03	6.884365E-15	6.088468E-17
5.570000E+03	6.859279E-15	6.051371E-17
5.580000E+03	6.834604E-15	6.015411E-17
5.590000E+03	6.809981E-15	5.980242E-17
5.600000E+03	6.785004E-15	5.945480E-17
5.610000E+03	6.759441E-15	5.910897E-17
5.620000E+03	6.732985E-15	5.876199E-17
5.630000E+03	6.705409E-15	5.841169E-17
5.640000E+03	6.676730E-15	5.805798E-17
5.650000E+03	6.646872E-15	5.770000E-17
5.660000E+03	6.616091E-15	5.733975E-17
5.670000E+03	6.584624E-15	5.697906E-17
5.680000E+03	6.552888E-15	5.662130E-17
5.690000E+03	6.521392E-15	5.627064E-17
5.700000E+03	6.490573E-15	5.593059E-17
5.710000E+03	6.461164E-15	5.560720E-17
5.720000E+03	6.433626E-15	5.530416E-17
5.730000E+03	6.408514E-15	5.502596E-17
5.740000E+03	6.386309E-15	5.477648E-17
5.750000E+03	6.367328E-15	5.455813E-17
5.760000E+03	6.351837E-15	5.437294E-17
5.770000E+03	6.339974E-15	5.422184E-17
5.780000E+03	6.331684E-15	5.410410E-17
5.790000E+03	6.326857E-15	5.401857E-17
5.800000E+03	6.325278E-15	5.396318E-17
5.810000E+03	6.326644E-15	5.393518E-17
5.820000E+03	6.330465E-15	5.393020E-17
5.830000E+03	6.336409E-15	5.394527E-17
5.840000E+03	6.344002E-15	5.397620E-17
5.850000E+03	6.352915E-15	5.402008E-17
5.860000E+03	6.362650E-15	5.407256E-17
5.870000E+03	6.372944E-15	5.413130E-17
5.880000E+03	6.383448E-15	5.419325E-17
5.890000E+03	6.393928E-15	5.425635E-17
5.900000E+03	6.404185E-15	5.431884E-17
5.910000E+03	6.413993E-15	5.437874E-17
5.920000E+03	6.423215E-15	5.443481E-17
5.930000E+03	6.431796E-15	5.448656E-17
5.940000E+03	6.439487E-15	5.453182E-17
5.950000E+03	6.446170E-15	5.456957E-17
5.960000E+03	6.451790E-15	5.459930E-17
5.970000E+03	6.456147E-15	5.461930E-17
5.980000E+03	6.459091E-15	5.462827E-17
5.990000E+03	6.460392E-15	5.462425E-17
6.000000E+03	6.460011E-15	5.460691E-17
6.010000E+03	6.457624E-15	5.457350E-17
6.020000E+03	6.453099E-15	5.452292E-17
6.030000E+03	6.446230E-15	5.445342E-17
6.040000E+03	6.436667E-15	5.436208E-17
6.050000E+03	6.424407E-15	5.424886E-17
6.060000E+03	6.409102E-15	5.411086E-17
6.070000E+03	6.390623E-15	5.394702E-17
6.080000E+03	6.368778E-15	5.375573E-17
6.090000E+03	6.343398E-15	5.353562E-17
6.100000E+03	6.314335E-15	5.328545E-17
6.110000E+03	6.281535E-15	5.300482E-17
6.120000E+03	6.244845E-15	5.269245E-17
6.130000E+03	6.204284E-15	5.234854E-17
6.140000E+03	6.159916E-15	5.197369E-17
6.150000E+03	6.111786E-15	5.156827E-17
6.160000E+03	6.059983E-15	5.113310E-17
6.170000E+03	6.004721E-15	5.066999E-17
6.180000E+03	5.946187E-15	5.018055E-17
6.190000E+03	5.884614E-15	4.966678E-17
6.200000E+03	5.820340E-15	4.913154E-17
6.210000E+03	5.753595E-15	4.857680E-17
6.220000E+03	5.684769E-15	4.800586E-17
6.230000E+03	5.614265E-15	4.742214E-17
6.240000E+03	5.542433E-15	4.682860E-17
6.250000E+03	5.469703E-15	4.622888E-17
6.260000E+03	5.396399E-15	4.562575E-17
6.270000E+03	5.323072E-15	4.502385E-17
6.280000E+03	5.250133E-15	4.442668E-17
6.290000E+03	5.178192E-15	4.383941E-17
6.300000E+03	5.107888E-15	4.326748E-17
6.310000E+03	5.039970E-15	4.271725E-17
6.320000E+03	4.975434E-15	4.219721E-17
6.330000E+03	4.915156E-15	4.171485E-17
6.340000E+03	4.860370E-15	4.128075E-17
6.350000E+03	4.812347E-15	4.090580E-17
6.360000E+03	4.772239E-15	4.059996E-17
6.370000E+03	4.741460E-15	4.037549E-17
6.380000E+03	4.721336E-15	4.024393E-17
6.390000E+03	4.712934E-15	4.021472E-17
6.400000E+03	4.717421E-15	4.029822E-17
6.410000E+03	4.735608E-15	4.050181E-17
6.420000E+03	4.768191E-15	4.083200E-17
6.430000E+03	4.815547E-15	4.129262E-17
6.440000E+03	4.877701E-15	4.188441E-17
6.450000E+03	4.954567E-15	4.260712E-17
6.460000E+03	5.045574E-15	4.345639E-17
6.470000E+03	5.150001E-15	4.442655E-17
6.480000E+03	5.266972E-15	4.551057E-17
6.490000E+03	5.395162E-15	4.669756E-17
6.500000E+03	5.533512E-15	4.797882E-17
6.510000E+03	5.680622E-15	4.934264E-17
6.520000E+03	5.835526E-15	5.078105E-17
6.530000E+03	5.997269E-15	5.228608E-17
6.540000E+03	6.163521E-15	5.383768E-17
6.550000E+03	6.329341E-15	5.539279E-17
6.560000E+03	6.489658E-15	5.690689E-17
6.570000E+03	6.639899E-15	5.833942E-17
6.580000E+03	6.775876E-15	5.965290E-17
6.590000E+03	6.894032E-15	6.081507E-17
6.600000E+03	6.991548E-15	6.179992E-17
6.610000E+03	7.066324E-15	6.258760E-17
6.620000E+03	7.117305E-15	6.316732E-17
6.630000E+03	7.144166E-15	6.353473E-17
6.640000E+03	7.147354E-15	6.369232E-17
6.650000E+03	7.127879E-15	6.364763E-17
6.660000E+03	7.087516E-15	6.341511E-17
6.670000E+03	7.028254E-15	6.301131E-17
6.680000E+03	6.952477E-15	6.245644E-17
6.690000E+03	6.862831E-15	6.177328E-17
6.700000E+03	6.761709E-15	6.098253E-17
6.710000E+03	6.651861E-15	6.010832E-17
6.720000E+03	6.535609E-15	5.917110E-17
6.730000E+03	6.415099E-15	5.818994E-17
6.740000E+03	6.292550E-15	5.718470E-17
6.750000E+03	6.169559E-15	5.616976E-17
6.760000E+03	6.047670E-15	5.515915E-17
6.770000E+03	5.928282E-15	5.416569E-17
6.780000E+03	5.812377E-15	5.319847E-17
6.790000E+03	5.700828E-15	5.226564E-17
6.800000E+03	5.594317E-15	5.137368E-17
6.810000E+03	5.493356E-15	5.052755E-17
6.820000E+03	5.398315E-15	4.973089E-17
6.830000E+03	5.309350E-15	4.898543E-17
6.840000E+03	5.226670E-15	4.829338E-17
6.850000E+03	5.150223E-15	4.765452E-17
6.860000E+03	5.080027E-15	4.706929E-17
6.870000E+03	5.015862E-15	4.653589E-17
6.880000E+03	4.957439E-15	4.605189E-17
6.890000E+03	4.904639E-15	4.561641E-17
6.900000E+03	4.856974E-15	4.522509E-17
6.910000E+03	4.814139E-15	4.487526E-17
6.920000E+03	4.775637E-15	4.456246E-17
6.930000E+03	4.741094E-15	4.428331E-17
6.940000E+03	4.709960E-15	4.403278E-17
6.950000E+03	4.681752E-15	4.380646E-17
6.960000E+03	4.655992E-15	4.359992E-17
6.970000E+03	4.632210E-15	4.340883E-17
6.980000E+03	4.609883E-15	4.322832E-17
6.990000E+03	4.588671E-15	4.305523E-17
7.000000E+03	4.568196E-15	4.288604E-17
7.010000E+03	4.548127E-15	4.271764E-17
7.020000E+03	4.528029E-15	4.254598E-17
7.030000E+03	4.507825E-15	4.237033E-17
7.040000E+03	4.487263E-15	4.218835E-17
7.050000E+03	4.466224E-15	4.199892E-17
7.060000E+03	4.444639E-15	4.180142E-17
7.070000E+03	4.422490E-15	4.159571E-17
7.080000E+03	4.399734E-15	4.138140E-17
7.090000E+03	4.376513E-15	4.115987E-17
7.100000E+03	4.352936E-15	4.093219E-17
7.110000E+03	4.329062E-15	4.069894E-17
7.120000E+03	4.305053E-15	4.046171E-17
7.130000E+03	4.281158E-15	4.022287E-17
7.140000E+03	4.257487E-15	3.998353E-17
7.150000E+03	4.234230E-15	3.974549E-17
7.160000E+03	4.211643E-15	3.951123E-17
7.170000E+03	4.189756E-15	3.928105E-17
7.180000E+03	4.168873E-15	3.905787E-17
7.190000E+03	4.148990E-15	3.884167E-17
7.200000E+03	4.130297E-15	3.863427E-17
7.210000E+03	4.112957E-15	3.843723E-17
7.220000E+03	4.096891E-15	3.824982E-17
7.230000E+03	4.082131E-15	3.807239E-17
7.240000E+03	4.068829E-15	3.790636E-17
7.250000E+03	4.056816E-15	3.775016E-17
7.260000E+03	4.046111E-15	3.760400E-17
7.270000E+03	4.036638E-15	3.746719E-17
7.280000E+03	4.028292E-15	3.733875E-17
7.290000E+03	4.020875E-15	3.721689E-17
7.300000E+03	4.014311E-15	3.710094E-17
7.310000E+03	4.008438E-15	3.698940E-17
7.320000E+03	4.003008E-15	3.688003E-17
7.330000E+03	3.997905E-15	3.677184E-17
7.340000E+03	3.993009E-15	3.666375E-17
7.350000E+03	3.987978E-15	3.655271E-17
7.360000E+03	3.982691E-15	3.643769E-17
7.370000E+03	3.976958E-15	3.631704E-17
7.380000E+03	3.970598E-15	3.618923E-17
7.390000E+03	3.963442E-15	3.605284E-17
7.400000E+03	3.955409E-15	3.590727E-17
7.410000E+03	3.946292E-15	3.575079E-17
7.420000E+03	3.935975E-15	3.558251E-17
7.430000E+03	3.924446E-15	3.540250E-17
7.440000E+03	3.911641E-15	3.521036E-17
7.450000E+03	3.897452E-15	3.500531E-17
7.460000E+03	3.882025E-15	3.478886E-17
7.470000E+03	3.865241E-15	3.456015E-17
7.480000E+03	3.847313E-15	3.432126E-17
7.490000E+03	3.828185E-15	3.407193E-17
7.500000E+03	3.807991E-15	3.381351E-17
7.510000E+03	3.787039E-15	3.354895E-17
7.520000E+03	3.765374E-15	3.327882E-17
7.530000E+03	3.743215E-15	3.300523E-17
7.540000E+03	3.720874E-15	3.273111E-17
7.550000E+03	3.698537E-15	3.245821E-17
7.560000E+03	3.676540E-15	3.218964E-17
7.570000E+03	3.655081E-15	3.192722E-17
7.580000E+03	3.634417E-15	3.167332E-17
7.590000E+03	3.614864E-15	3.143078E-17
7.600000E+03	3.596497E-15	3.120031E-17
7.610000E+03	3.579715E-15	3.098545E-17
7.620000E+03	3.564443E-15	3.078562E-17
7.630000E+03	3.550924E-15	3.060296E-17
7.640000E+03	3.539126E-15	3.043726E-17
7.650000E+03	3.529116E-15	3.028916E-17
7.660000E+03	3.520829E-15	3.015818E-17
7.670000E+03	3.514085E-15	3.004285E-17
7.680000E+03	3.508725E-15	2.994192E-17
7.690000E+03	3.504627E-15	2.985446E-17
7.700000E+03	3.501565E-15	2.977867E-17
7.710000E+03	3.499292E-15	2.971260E-17
7.720000E+03	3.497544E-15	2.965418E-17
7.730000E+03	3.496053E-15	2.960131E-17
7.740000E+03	3.494480E-15	2.955131E-17
7.750000E+03	3.492712E-15	2.950344E-17
7.760000E+03	3.490432E-15	2.945522E-17
