#wls	flux	fluxerr
1.600000E+03	2.058191E-16	1.631573E-18
1.640000E+03	2.067716E-16	1.639123E-18
1.680000E+03	2.079880E-16	1.648766E-18
1.720000E+03	2.095169E-16	1.660886E-18
1.760000E+03	2.113254E-16	1.675222E-18
1.800000E+03	2.135053E-16	1.692503E-18
1.840000E+03	2.160670E-16	1.712810E-18
1.880000E+03	2.190211E-16	1.736228E-18
1.920000E+03	2.224666E-16	1.763541E-18
1.960000E+03	2.264176E-16	1.794862E-18
2.000000E+03	2.308881E-16	1.830300E-18
2.040000E+03	2.359848E-16	1.870703E-18
2.080000E+03	2.417255E-16	1.916211E-18
2.120000E+03	2.481273E-16	1.966959E-18
2.160000E+03	2.553054E-16	2.023861E-18
2.200000E+03	2.632806E-16	2.087082E-18
2.240000E+03	2.721752E-16	2.157592E-18
2.280000E+03	2.819615E-16	2.235170E-18
2.320000E+03	2.927659E-16	2.320819E-18
2.360000E+03	3.046124E-16	2.414728E-18
2.400000E+03	3.176326E-16	2.517942E-18
2.440000E+03	3.318504E-16	2.630649E-18
2.480000E+03	3.474576E-16	2.754372E-18
2.520000E+03	3.643604E-16	2.888364E-18
2.560000E+03	3.828660E-16	3.035061E-18
2.600000E+03	4.029296E-16	3.194110E-18
2.640000E+03	4.246757E-16	3.366496E-18
2.680000E+03	4.482858E-16	3.553658E-18
2.720000E+03	4.738720E-16	3.756485E-18
2.760000E+03	5.015344E-16	3.975772E-18
2.800000E+03	5.313561E-16	4.212174E-18
2.840000E+03	5.635317E-16	4.467237E-18
2.880000E+03	5.981036E-16	4.741296E-18
2.920000E+03	6.352199E-16	5.035525E-18
2.960000E+03	6.750016E-16	5.350883E-18
3.000000E+03	7.174717E-16	5.687553E-18
3.010000E+03	7.285423E-16	5.775312E-18
3.020000E+03	7.397601E-16	5.864238E-18
3.030000E+03	7.511211E-16	5.954299E-18
3.040000E+03	7.626897E-16	6.046005E-18
3.050000E+03	7.744619E-16	6.139326E-18
3.060000E+03	7.863657E-16	6.233690E-18
3.070000E+03	7.985334E-16	6.330146E-18
3.080000E+03	8.107564E-16	6.427041E-18
3.090000E+03	8.232351E-16	6.525962E-18
3.100000E+03	8.358971E-16	6.626337E-18
3.110000E+03	8.487385E-16	6.728133E-18
3.120000E+03	8.616867E-16	6.830776E-18
3.130000E+03	8.748741E-16	6.935316E-18
3.140000E+03	8.882287E-16	7.041181E-18
3.150000E+03	9.018145E-16	7.148878E-18
3.160000E+03	9.155598E-16	7.257840E-18
3.170000E+03	9.294609E-16	7.368037E-18
3.180000E+03	9.435827E-16	7.479983E-18
3.190000E+03	9.578539E-16	7.593114E-18
3.200000E+03	9.723397E-16	7.707946E-18
3.210000E+03	9.869701E-16	7.823924E-18
3.220000E+03	1.001878E-15	7.942104E-18
3.230000E+03	1.016927E-15	8.061401E-18
3.240000E+03	1.032183E-15	8.182339E-18
3.250000E+03	1.047647E-15	8.304923E-18
3.260000E+03	1.063318E-15	8.429152E-18
3.270000E+03	1.079263E-15	8.555553E-18
3.280000E+03	1.095352E-15	8.683090E-18
3.290000E+03	1.111720E-15	8.812846E-18
3.300000E+03	1.128370E-15	8.944836E-18
3.310000E+03	1.145174E-15	9.078042E-18
3.320000E+03	1.162337E-15	9.214095E-18
3.330000E+03	1.179731E-15	9.351985E-18
3.340000E+03	1.197368E-15	9.491791E-18
3.350000E+03	1.215386E-15	9.634627E-18
3.360000E+03	1.233664E-15	9.779521E-18
3.370000E+03	1.252281E-15	9.927104E-18
3.380000E+03	1.271318E-15	1.007801E-17
3.390000E+03	1.290655E-15	1.023130E-17
3.400000E+03	1.310379E-15	1.038765E-17
3.410000E+03	1.330571E-15	1.054772E-17
3.420000E+03	1.351189E-15	1.071116E-17
3.430000E+03	1.372319E-15	1.087866E-17
3.440000E+03	1.393920E-15	1.104990E-17
3.450000E+03	1.416020E-15	1.122510E-17
3.460000E+03	1.438775E-15	1.140548E-17
3.470000E+03	1.462083E-15	1.159025E-17
3.480000E+03	1.486037E-15	1.178013E-17
3.490000E+03	1.510597E-15	1.197483E-17
3.498130E+03	1.838168E-15	1.457155E-17
3.500860E+03	1.799367E-15	1.426397E-17
3.503590E+03	1.772668E-15	1.405232E-17
3.506310E+03	1.748062E-15	1.385727E-17
3.509040E+03	1.736988E-15	1.376948E-17
3.511760E+03	1.742083E-15	1.380987E-17
3.514490E+03	1.740138E-15	1.379445E-17
3.517220E+03	1.740063E-15	1.379385E-17
3.519940E+03	1.753955E-15	1.390398E-17
3.522670E+03	1.777193E-15	1.408819E-17
3.525390E+03	1.798779E-15	1.425931E-17
3.528120E+03	1.818494E-15	1.441559E-17
3.530840E+03	1.851402E-15	1.467646E-17
3.533570E+03	1.891563E-15	1.499483E-17
3.536300E+03	1.925782E-15	1.526609E-17
3.539020E+03	1.949225E-15	1.545193E-17
3.541750E+03	1.975413E-15	1.565953E-17
3.544470E+03	2.002587E-15	1.587494E-17
3.547200E+03	2.020195E-15	1.601452E-17
3.549930E+03	2.041758E-15	1.618546E-17
3.552650E+03	2.063978E-15	1.636160E-17
3.555380E+03	2.083228E-15	1.651420E-17
3.558100E+03	2.094782E-15	1.660579E-17
3.560830E+03	2.089629E-15	1.656494E-17
3.563550E+03	2.071288E-15	1.641955E-17
3.566280E+03	2.048992E-15	1.624280E-17
3.569010E+03	2.033620E-15	1.612094E-17
3.571730E+03	2.012426E-15	1.595293E-17
3.574460E+03	1.977279E-15	1.567431E-17
3.577180E+03	1.921918E-15	1.523546E-17
3.579910E+03	1.873043E-15	1.484802E-17
3.582640E+03	1.821427E-15	1.443884E-17
3.585360E+03	1.780362E-15	1.411331E-17
3.588090E+03	1.747429E-15	1.385225E-17
3.590810E+03	1.718454E-15	1.362255E-17
3.593540E+03	1.701344E-15	1.348692E-17
3.596260E+03	1.683247E-15	1.334346E-17
3.598990E+03	1.663064E-15	1.318346E-17
3.601720E+03	1.656831E-15	1.313406E-17
3.604440E+03	1.651807E-15	1.309423E-17
3.607170E+03	1.649747E-15	1.307790E-17
3.609890E+03	1.664049E-15	1.319127E-17
3.612620E+03	1.676152E-15	1.328722E-17
3.615350E+03	1.672553E-15	1.325869E-17
3.618070E+03	1.665880E-15	1.320579E-17
3.620800E+03	1.678091E-15	1.330259E-17
3.623520E+03	1.696118E-15	1.344550E-17
3.626250E+03	1.716229E-15	1.360492E-17
3.628980E+03	1.731507E-15	1.372603E-17
3.631700E+03	1.737344E-15	1.377230E-17
3.634430E+03	1.729021E-15	1.370632E-17
3.637150E+03	1.720370E-15	1.363774E-17
3.639880E+03	1.713694E-15	1.358482E-17
3.642600E+03	1.698019E-15	1.346056E-17
3.645330E+03	1.679054E-15	1.331022E-17
3.648060E+03	1.662066E-15	1.317555E-17
3.650780E+03	1.651882E-15	1.309482E-17
3.653510E+03	1.633250E-15	1.294712E-17
3.656230E+03	1.616485E-15	1.281423E-17
3.658960E+03	1.601697E-15	1.269699E-17
3.661690E+03	1.577475E-15	1.250498E-17
3.664410E+03	1.560166E-15	1.236777E-17
3.667140E+03	1.555582E-15	1.233144E-17
3.669860E+03	1.548038E-15	1.227163E-17
3.672590E+03	1.545867E-15	1.225442E-17
3.675310E+03	1.555870E-15	1.233372E-17
3.678040E+03	1.584405E-15	1.255992E-17
3.680770E+03	1.610194E-15	1.276436E-17
3.683490E+03	1.633787E-15	1.295138E-17
3.686220E+03	1.666478E-15	1.321053E-17
3.688940E+03	1.719776E-15	1.363303E-17
3.691670E+03	1.778220E-15	1.409633E-17
3.694400E+03	1.838082E-15	1.457087E-17
3.697120E+03	1.914709E-15	1.517831E-17
3.699850E+03	1.984311E-15	1.573006E-17
3.702570E+03	2.047656E-15	1.623221E-17
3.705300E+03	2.114502E-15	1.676211E-17
3.708020E+03	2.178380E-15	1.726848E-17
3.710750E+03	2.244550E-15	1.779303E-17
3.713480E+03	2.323971E-15	1.842262E-17
3.716200E+03	2.417627E-15	1.916505E-17
3.718930E+03	2.506012E-15	1.986570E-17
3.721650E+03	2.593838E-15	2.056191E-17
3.724380E+03	2.686254E-15	2.129451E-17
3.727110E+03	2.787421E-15	2.209649E-17
3.729830E+03	2.888138E-15	2.289489E-17
3.732560E+03	2.992566E-15	2.372271E-17
3.735280E+03	3.087013E-15	2.447142E-17
3.738010E+03	3.171153E-15	2.513841E-17
3.740730E+03	3.250354E-15	2.576625E-17
3.743460E+03	3.322206E-15	2.633584E-17
3.746190E+03	3.386822E-15	2.684806E-17
3.748910E+03	3.449348E-15	2.734373E-17
3.751640E+03	3.509347E-15	2.781935E-17
3.754360E+03	3.565288E-15	2.826280E-17
3.757090E+03	3.609179E-15	2.861073E-17
3.759820E+03	3.640145E-15	2.885621E-17
3.762540E+03	3.668152E-15	2.907823E-17
3.765270E+03	3.702174E-15	2.934793E-17
3.767990E+03	3.741773E-15	2.966184E-17
3.770720E+03	3.778190E-15	2.995053E-17
3.773450E+03	3.809787E-15	3.020100E-17
3.776170E+03	3.827155E-15	3.033868E-17
3.778900E+03	3.836313E-15	3.041128E-17
3.781620E+03	3.840108E-15	3.044136E-17
3.784350E+03	3.846745E-15	3.049398E-17
3.787070E+03	3.854913E-15	3.055872E-17
3.789800E+03	3.851045E-15	3.052806E-17
3.792530E+03	3.835364E-15	3.040375E-17
3.795250E+03	3.812138E-15	3.021964E-17
3.797980E+03	3.783555E-15	2.999305E-17
3.800700E+03	3.739556E-15	2.964426E-17
3.803430E+03	3.684735E-15	2.920969E-17
3.806160E+03	3.629484E-15	2.877170E-17
3.808880E+03	3.561666E-15	2.823409E-17
3.811610E+03	3.481174E-15	2.759602E-17
3.814330E+03	3.398179E-15	2.693809E-17
3.817060E+03	3.309509E-15	2.623519E-17
3.819780E+03	3.219650E-15	2.552286E-17
3.822510E+03	3.123025E-15	2.475689E-17
3.825240E+03	3.028379E-15	2.400661E-17
3.827960E+03	2.934184E-15	2.325991E-17
3.830690E+03	2.846230E-15	2.256267E-17
3.833410E+03	2.762221E-15	2.189672E-17
3.836140E+03	2.681064E-15	2.125337E-17
3.838870E+03	2.598278E-15	2.059711E-17
3.841590E+03	2.516597E-15	1.994961E-17
3.844320E+03	2.433070E-15	1.928747E-17
3.847040E+03	2.341909E-15	1.856482E-17
3.849770E+03	2.255783E-15	1.788208E-17
3.852490E+03	2.181793E-15	1.729554E-17
3.855220E+03	2.107485E-15	1.670648E-17
3.857950E+03	2.037772E-15	1.615386E-17
3.860670E+03	1.984776E-15	1.573375E-17
3.863400E+03	1.943469E-15	1.540629E-17
3.866120E+03	1.914175E-15	1.517408E-17
3.868850E+03	1.901915E-15	1.507689E-17
3.871580E+03	1.902863E-15	1.508441E-17
3.874300E+03	1.914071E-15	1.517325E-17
3.877030E+03	1.932043E-15	1.531572E-17
3.879750E+03	1.955359E-15	1.550055E-17
3.882480E+03	1.974633E-15	1.565334E-17
3.885200E+03	1.992486E-15	1.579486E-17
3.887930E+03	2.009025E-15	1.592597E-17
3.890660E+03	2.025125E-15	1.605360E-17
3.893380E+03	2.048422E-15	1.623828E-17
3.896110E+03	2.081641E-15	1.650161E-17
3.898830E+03	2.126960E-15	1.686087E-17
3.901560E+03	2.178816E-15	1.727194E-17
3.904290E+03	2.235242E-15	1.771924E-17
3.907010E+03	2.311506E-15	1.832381E-17
3.909740E+03	2.398006E-15	1.900951E-17
3.912460E+03	2.489943E-15	1.973831E-17
3.915190E+03	2.589060E-15	2.052403E-17
3.917920E+03	2.690993E-15	2.133208E-17
3.920640E+03	2.790949E-15	2.212445E-17
3.923370E+03	2.884674E-15	2.286743E-17
3.926090E+03	2.983724E-15	2.365262E-17
3.928820E+03	3.089295E-15	2.448950E-17
3.931540E+03	3.201387E-15	2.537808E-17
3.934270E+03	3.326642E-15	2.637101E-17
3.937000E+03	3.455471E-15	2.739226E-17
3.939720E+03	3.585912E-15	2.842630E-17
3.942450E+03	3.717420E-15	2.946879E-17
3.945170E+03	3.854897E-15	3.055860E-17
3.947900E+03	3.985486E-15	3.159380E-17
3.950630E+03	4.103964E-15	3.253301E-17
3.953350E+03	4.221987E-15	3.346860E-17
3.956080E+03	4.328883E-15	3.431599E-17
3.958800E+03	4.426287E-15	3.508813E-17
3.961530E+03	4.514093E-15	3.578418E-17
3.964250E+03	4.596658E-15	3.643869E-17
3.966980E+03	4.676921E-15	3.707496E-17
3.969710E+03	4.754883E-15	3.769298E-17
3.972430E+03	4.834247E-15	3.832211E-17
3.975160E+03	4.908479E-15	3.891056E-17
3.977880E+03	4.981719E-15	3.949115E-17
3.980610E+03	5.053638E-15	4.006127E-17
3.983340E+03	5.124781E-15	4.062524E-17
3.986060E+03	5.196783E-15	4.119601E-17
3.988790E+03	5.266918E-15	4.175199E-17
3.991510E+03	5.330190E-15	4.225356E-17
3.994240E+03	5.391056E-15	4.273606E-17
3.996960E+03	5.449517E-15	4.319949E-17
3.999690E+03	5.504377E-15	4.363438E-17
4.002420E+03	5.560422E-15	4.407866E-17
4.005140E+03	5.623848E-15	4.458145E-17
4.007870E+03	5.689326E-15	4.510051E-17
4.010590E+03	5.754139E-15	4.561430E-17
4.013320E+03	5.815894E-15	4.610384E-17
4.016050E+03	5.879266E-15	4.660620E-17
4.018770E+03	5.943496E-15	4.711537E-17
4.021500E+03	6.007167E-15	4.762010E-17
4.024220E+03	6.066371E-15	4.808943E-17
4.026950E+03	6.115676E-15	4.848028E-17
4.029670E+03	6.149113E-15	4.874534E-17
4.032400E+03	6.168528E-15	4.889924E-17
4.035130E+03	6.181094E-15	4.899886E-17
4.037850E+03	6.190728E-15	4.907523E-17
4.040580E+03	6.193514E-15	4.909731E-17
4.043300E+03	6.187940E-15	4.905313E-17
4.046030E+03	6.176826E-15	4.896502E-17
4.048760E+03	6.157136E-15	4.880894E-17
4.051480E+03	6.130612E-15	4.859868E-17
4.054210E+03	6.100291E-15	4.835831E-17
4.056930E+03	6.060968E-15	4.804659E-17
4.059660E+03	6.013835E-15	4.767296E-17
4.062390E+03	5.959223E-15	4.724004E-17
4.065110E+03	5.893773E-15	4.672120E-17
4.067840E+03	5.819870E-15	4.613536E-17
4.070560E+03	5.729927E-15	4.542236E-17
4.073290E+03	5.636636E-15	4.468282E-17
4.076010E+03	5.547918E-15	4.397954E-17
4.078740E+03	5.462466E-15	4.330214E-17
4.081470E+03	5.387440E-15	4.270739E-17
4.084190E+03	5.319365E-15	4.216775E-17
4.086920E+03	5.256831E-15	4.167203E-17
4.089640E+03	5.203414E-15	4.124858E-17
4.092370E+03	5.153471E-15	4.085267E-17
4.095100E+03	5.098661E-15	4.041818E-17
4.097820E+03	5.048629E-15	4.002156E-17
4.100550E+03	5.008247E-15	3.970145E-17
4.103270E+03	4.969607E-15	3.939514E-17
4.106000E+03	4.932597E-15	3.910175E-17
4.108720E+03	4.898734E-15	3.883332E-17
4.111450E+03	4.874299E-15	3.863961E-17
4.114180E+03	4.857014E-15	3.850260E-17
4.116900E+03	4.841249E-15	3.837762E-17
4.119630E+03	4.832413E-15	3.830758E-17
4.122350E+03	4.832674E-15	3.830964E-17
4.125080E+03	4.841159E-15	3.837690E-17
4.127810E+03	4.855700E-15	3.849218E-17
4.130530E+03	4.878790E-15	3.867522E-17
4.133260E+03	4.908364E-15	3.890966E-17
4.135980E+03	4.937609E-15	3.914148E-17
4.138710E+03	4.967707E-15	3.938008E-17
4.141430E+03	4.995205E-15	3.959807E-17
4.144160E+03	5.015337E-15	3.975765E-17
4.146890E+03	5.032218E-15	3.989147E-17
4.149610E+03	5.049527E-15	4.002869E-17
4.152340E+03	5.061099E-15	4.012042E-17
4.155060E+03	5.060234E-15	4.011356E-17
4.157790E+03	5.049094E-15	4.002525E-17
4.160520E+03	5.024225E-15	3.982811E-17
4.163240E+03	4.995038E-15	3.959674E-17
4.165970E+03	4.960883E-15	3.932598E-17
4.168690E+03	4.918305E-15	3.898846E-17
4.171420E+03	4.864279E-15	3.856019E-17
4.174140E+03	4.805079E-15	3.809089E-17
4.176870E+03	4.738110E-15	3.756001E-17
4.179600E+03	4.664025E-15	3.697273E-17
4.182320E+03	4.582827E-15	3.632905E-17
4.185050E+03	4.494193E-15	3.562643E-17
4.187770E+03	4.397911E-15	3.486319E-17
4.190500E+03	4.296140E-15	3.405643E-17
4.193230E+03	4.189534E-15	3.321133E-17
4.195950E+03	4.079172E-15	3.233647E-17
4.198680E+03	3.969048E-15	3.146350E-17
4.201400E+03	3.859920E-15	3.059841E-17
4.204130E+03	3.752757E-15	2.974891E-17
4.206860E+03	3.645832E-15	2.890129E-17
4.209580E+03	3.542492E-15	2.808210E-17
4.212310E+03	3.443813E-15	2.729984E-17
4.215030E+03	3.344508E-15	2.651263E-17
4.217760E+03	3.243390E-15	2.571105E-17
4.220480E+03	3.150491E-15	2.497461E-17
4.223210E+03	3.065482E-15	2.430073E-17
4.225940E+03	2.987715E-15	2.368426E-17
4.228660E+03	2.917405E-15	2.312690E-17
4.231390E+03	2.857242E-15	2.264997E-17
4.234110E+03	2.809701E-15	2.227311E-17
4.236840E+03	2.775749E-15	2.200396E-17
4.239570E+03	2.750531E-15	2.180405E-17
4.242290E+03	2.734045E-15	2.167336E-17
4.245020E+03	2.724563E-15	2.159820E-17
4.247740E+03	2.720039E-15	2.156233E-17
4.250470E+03	2.725422E-15	2.160501E-17
4.253190E+03	2.730696E-15	2.164681E-17
4.255920E+03	2.736935E-15	2.169627E-17
4.258650E+03	2.746724E-15	2.177387E-17
4.261370E+03	2.756297E-15	2.184976E-17
4.264100E+03	2.768771E-15	2.194864E-17
4.266820E+03	2.786084E-15	2.208589E-17
4.269550E+03	2.808987E-15	2.226744E-17
4.272280E+03	2.834250E-15	2.246771E-17
4.275000E+03	2.864134E-15	2.270460E-17
4.277730E+03	2.899493E-15	2.298491E-17
4.280450E+03	2.936564E-15	2.327877E-17
4.283180E+03	2.978679E-15	2.361263E-17
4.285900E+03	3.024654E-15	2.397708E-17
4.288630E+03	3.064594E-15	2.429370E-17
4.291360E+03	3.100869E-15	2.458125E-17
4.294080E+03	3.147130E-15	2.494798E-17
4.296810E+03	3.197355E-15	2.534612E-17
4.299530E+03	3.245847E-15	2.573053E-17
4.302260E+03	3.291637E-15	2.609352E-17
4.304990E+03	3.333978E-15	2.642916E-17
4.307710E+03	3.375556E-15	2.675875E-17
4.310440E+03	3.416475E-15	2.708313E-17
4.313160E+03	3.453304E-15	2.737508E-17
4.315890E+03	3.484322E-15	2.762097E-17
4.318610E+03	3.513184E-15	2.784976E-17
4.321340E+03	3.545579E-15	2.810656E-17
4.324070E+03	3.576461E-15	2.835137E-17
4.326790E+03	3.606907E-15	2.859272E-17
4.329520E+03	3.636697E-15	2.882887E-17
4.332240E+03	3.664870E-15	2.905221E-17
4.334970E+03	3.690458E-15	2.925505E-17
4.337700E+03	3.712069E-15	2.942637E-17
4.340420E+03	3.731743E-15	2.958233E-17
4.343150E+03	3.751839E-15	2.974163E-17
4.345870E+03	3.771178E-15	2.989494E-17
4.348600E+03	3.788687E-15	3.003374E-17
4.351330E+03	3.804366E-15	3.015803E-17
4.354050E+03	3.816613E-15	3.025511E-17
4.356780E+03	3.823923E-15	3.031306E-17
4.359500E+03	3.829516E-15	3.035740E-17
4.362230E+03	3.835213E-15	3.040255E-17
4.364950E+03	3.840800E-15	3.044685E-17
4.367680E+03	3.847882E-15	3.050298E-17
4.370410E+03	3.853997E-15	3.055146E-17
4.373130E+03	3.858396E-15	3.058634E-17
4.375860E+03	3.866003E-15	3.064664E-17
4.378580E+03	3.880782E-15	3.076379E-17
4.381310E+03	3.900368E-15	3.091905E-17
4.384040E+03	3.919734E-15	3.107257E-17
4.386760E+03	3.940164E-15	3.123453E-17
4.389490E+03	3.961228E-15	3.140150E-17
4.392210E+03	3.983354E-15	3.157691E-17
4.394940E+03	4.008681E-15	3.177767E-17
4.397660E+03	4.036246E-15	3.199619E-17
4.400390E+03	4.056636E-15	3.215782E-17
4.403120E+03	4.073275E-15	3.228972E-17
4.405840E+03	4.087024E-15	3.239872E-17
4.408570E+03	4.096597E-15	3.247460E-17
4.411290E+03	4.103923E-15	3.253268E-17
4.414020E+03	4.110816E-15	3.258732E-17
4.416750E+03	4.115140E-15	3.262160E-17
4.419470E+03	4.112200E-15	3.259829E-17
4.422200E+03	4.100605E-15	3.250638E-17
4.424920E+03	4.083888E-15	3.237385E-17
4.427650E+03	4.065463E-15	3.222780E-17
4.430370E+03	4.043307E-15	3.205216E-17
4.433100E+03	4.013896E-15	3.181901E-17
4.435830E+03	3.978086E-15	3.153514E-17
4.438550E+03	3.939406E-15	3.122852E-17
4.441280E+03	3.906069E-15	3.096425E-17
4.444000E+03	3.868795E-15	3.066877E-17
4.446730E+03	3.824701E-15	3.031922E-17
4.449460E+03	3.777845E-15	2.994779E-17
4.452180E+03	3.731324E-15	2.957901E-17
4.454910E+03	3.689717E-15	2.924917E-17
4.457630E+03	3.648229E-15	2.892030E-17
4.460360E+03	3.604406E-15	2.857290E-17
4.463090E+03	3.564750E-15	2.825854E-17
4.465810E+03	3.530222E-15	2.798483E-17
4.468540E+03	3.500176E-15	2.774664E-17
4.471260E+03	3.475571E-15	2.755160E-17
4.473990E+03	3.457361E-15	2.740725E-17
4.476710E+03	3.448103E-15	2.733385E-17
4.479440E+03	3.443422E-15	2.729675E-17
4.482170E+03	3.441403E-15	2.728074E-17
4.484890E+03	3.445984E-15	2.731706E-17
4.487620E+03	3.462800E-15	2.745036E-17
4.490340E+03	3.486953E-15	2.764182E-17
4.493070E+03	3.521097E-15	2.791249E-17
4.495800E+03	3.569056E-15	2.829268E-17
4.498520E+03	3.625618E-15	2.874105E-17
4.501250E+03	3.688432E-15	2.923899E-17
4.503970E+03	3.763880E-15	2.983709E-17
4.506700E+03	3.858012E-15	3.058329E-17
4.509420E+03	3.967101E-15	3.144806E-17
4.512150E+03	4.083487E-15	3.237067E-17
4.514880E+03	4.211416E-15	3.338479E-17
4.517600E+03	4.349504E-15	3.447945E-17
4.520330E+03	4.493387E-15	3.562004E-17
4.523050E+03	4.641050E-15	3.679060E-17
4.525780E+03	4.795456E-15	3.801461E-17
4.528510E+03	4.954801E-15	3.927777E-17
4.531230E+03	5.114522E-15	4.054392E-17
4.533960E+03	5.275778E-15	4.182222E-17
4.536680E+03	5.438470E-15	4.311192E-17
4.539410E+03	5.599405E-15	4.438769E-17
4.542130E+03	5.756683E-15	4.563446E-17
4.544860E+03	5.909344E-15	4.684463E-17
4.547590E+03	6.055271E-15	4.800143E-17
4.550310E+03	6.193517E-15	4.909734E-17
4.553040E+03	6.325139E-15	5.014073E-17
4.555760E+03	6.449300E-15	5.112498E-17
4.558490E+03	6.568008E-15	5.206601E-17
4.561220E+03	6.681905E-15	5.296890E-17
4.563940E+03	6.785808E-15	5.379255E-17
4.566670E+03	6.877700E-15	5.452100E-17
4.569390E+03	6.960984E-15	5.518121E-17
4.572120E+03	7.042962E-15	5.583107E-17
4.574840E+03	7.120256E-15	5.644380E-17
4.577570E+03	7.192119E-15	5.701347E-17
4.580300E+03	7.256864E-15	5.752672E-17
4.583020E+03	7.314075E-15	5.798024E-17
4.585750E+03	7.363007E-15	5.836814E-17
4.588470E+03	7.405894E-15	5.870811E-17
4.591200E+03	7.444317E-15	5.901269E-17
4.593930E+03	7.479869E-15	5.929453E-17
4.596650E+03	7.512240E-15	5.955113E-17
4.599380E+03	7.542055E-15	5.978748E-17
4.602100E+03	7.574081E-15	6.004137E-17
4.604830E+03	7.604927E-15	6.028589E-17
4.607560E+03	7.633330E-15	6.051104E-17
4.610280E+03	7.663416E-15	6.074954E-17
4.613010E+03	7.694117E-15	6.099292E-17
4.615730E+03	7.723650E-15	6.122703E-17
4.618460E+03	7.749996E-15	6.143588E-17
4.621180E+03	7.774542E-15	6.163046E-17
4.623910E+03	7.797277E-15	6.181068E-17
4.626640E+03	7.812825E-15	6.193394E-17
4.629360E+03	7.821933E-15	6.200614E-17
4.632090E+03	7.827232E-15	6.204815E-17
4.634810E+03	7.828629E-15	6.205922E-17
4.637540E+03	7.822951E-15	6.201421E-17
4.640270E+03	7.812001E-15	6.192741E-17
4.642990E+03	7.793993E-15	6.178465E-17
4.645720E+03	7.763650E-15	6.154412E-17
4.648440E+03	7.724888E-15	6.123685E-17
4.651170E+03	7.680759E-15	6.088702E-17
4.653890E+03	7.628113E-15	6.046969E-17
4.656620E+03	7.564522E-15	5.996559E-17
4.659350E+03	7.490525E-15	5.937900E-17
