#wls	flux	fluxerr
1.600000E+03	9.597664E-17	6.698143E-18
1.640000E+03	9.672415E-17	6.735064E-18
1.680000E+03	9.762662E-17	6.782134E-18
1.720000E+03	9.868917E-17	6.839616E-18
1.760000E+03	9.994628E-17	6.909792E-18
1.800000E+03	1.013753E-16	6.990975E-18
1.840000E+03	1.029818E-16	7.083438E-18
1.880000E+03	1.048332E-16	7.191676E-18
1.920000E+03	1.069074E-16	7.314009E-18
1.960000E+03	1.092438E-16	7.452966E-18
2.000000E+03	1.118520E-16	7.609010E-18
2.040000E+03	1.147422E-16	7.782624E-18
2.080000E+03	1.179578E-16	7.976526E-18
2.120000E+03	1.215452E-16	8.193573E-18
2.160000E+03	1.254497E-16	8.429805E-18
2.200000E+03	1.297527E-16	8.690397E-18
2.240000E+03	1.345053E-16	8.978413E-18
2.280000E+03	1.396884E-16	9.292200E-18
2.320000E+03	1.453551E-16	9.634874E-18
2.360000E+03	1.515233E-16	1.000718E-17
2.400000E+03	1.582500E-16	1.041238E-17
2.440000E+03	1.655556E-16	1.085127E-17
2.480000E+03	1.735410E-16	1.132987E-17
2.520000E+03	1.822312E-16	1.184911E-17
2.560000E+03	1.916922E-16	1.241255E-17
2.600000E+03	2.019929E-16	1.302381E-17
2.640000E+03	2.132481E-16	1.368935E-17
2.680000E+03	2.255333E-16	1.441297E-17
2.720000E+03	2.389252E-16	1.519840E-17
2.760000E+03	2.535015E-16	1.604930E-17
2.800000E+03	2.694826E-16	1.697819E-17
2.840000E+03	2.869061E-16	1.798578E-17
2.880000E+03	3.059529E-16	1.908162E-17
2.920000E+03	3.267597E-16	2.027223E-17
2.960000E+03	3.495172E-16	2.156716E-17
3.000000E+03	3.743701E-16	2.297285E-17
3.010000E+03	3.809030E-16	2.334079E-17
3.020000E+03	3.876222E-16	2.371883E-17
3.030000E+03	3.945289E-16	2.410698E-17
3.040000E+03	4.015721E-16	2.450207E-17
3.050000E+03	4.087524E-16	2.490409E-17
3.060000E+03	4.160705E-16	2.531305E-17
3.070000E+03	4.235802E-16	2.573215E-17
3.080000E+03	4.312827E-16	2.616142E-17
3.090000E+03	4.391793E-16	2.660086E-17
3.100000E+03	4.472179E-16	2.704727E-17
3.110000E+03	4.554531E-16	2.750388E-17
3.120000E+03	4.638863E-16	2.797072E-17
3.130000E+03	4.724647E-16	2.844455E-17
3.140000E+03	4.812981E-16	2.893191E-17
3.150000E+03	4.903341E-16	2.942956E-17
3.160000E+03	4.995743E-16	2.993755E-17
3.170000E+03	5.090204E-16	3.045590E-17
3.180000E+03	5.186743E-16	3.098465E-17
3.190000E+03	5.285932E-16	3.152713E-17
3.200000E+03	5.387241E-16	3.208012E-17
3.210000E+03	5.490692E-16	3.264365E-17
3.220000E+03	5.597421E-16	3.322440E-17
3.230000E+03	5.705786E-16	3.381253E-17
3.240000E+03	5.817490E-16	3.441805E-17
3.250000E+03	5.931443E-16	3.503440E-17
3.260000E+03	6.048238E-16	3.566500E-17
3.270000E+03	6.167909E-16	3.630995E-17
3.280000E+03	6.290493E-16	3.696936E-17
3.290000E+03	6.416026E-16	3.764335E-17
3.300000E+03	6.545118E-16	3.833537E-17
3.310000E+03	6.677243E-16	3.904223E-17
3.320000E+03	6.812441E-16	3.976405E-17
3.330000E+03	6.950755E-16	4.050096E-17
3.340000E+03	7.092807E-16	4.125647E-17
3.350000E+03	7.238645E-16	4.203073E-17
3.360000E+03	7.387737E-16	4.282050E-17
3.370000E+03	7.541294E-16	4.363268E-17
3.380000E+03	7.698200E-16	4.446066E-17
3.390000E+03	7.859082E-16	4.530791E-17
3.400000E+03	8.023985E-16	4.617457E-17
3.410000E+03	8.193542E-16	4.706411E-17
3.420000E+03	8.366611E-16	4.796980E-17
3.430000E+03	8.545004E-16	4.890189E-17
3.440000E+03	8.726967E-16	4.985015E-17
3.450000E+03	8.913714E-16	5.082137E-17
3.460000E+03	9.105263E-16	5.181546E-17
3.470000E+03	9.301018E-16	5.282887E-17
3.480000E+03	9.502185E-16	5.386825E-17
3.490000E+03	9.707549E-16	5.492653E-17
3.500000E+03	9.917680E-16	5.600676E-17
3.510000E+03	1.013256E-15	5.710867E-17
3.520000E+03	1.035276E-15	5.823521E-17
3.530000E+03	1.057761E-15	5.938249E-17
3.540000E+03	1.080706E-15	6.054999E-17
3.550000E+03	1.104102E-15	6.173708E-17
3.560000E+03	1.128066E-15	6.295003E-17
3.570000E+03	1.152403E-15	6.417775E-17
3.580000E+03	1.177284E-15	6.542967E-17
3.590000E+03	1.202572E-15	6.669787E-17
3.600000E+03	1.228307E-15	6.798446E-17
3.610000E+03	1.254530E-15	6.929144E-17
3.620000E+03	1.281083E-15	7.060997E-17
3.630000E+03	1.307991E-15	7.194119E-17
3.640000E+03	1.335269E-15	7.328585E-17
3.650000E+03	1.362862E-15	7.464067E-17
3.660000E+03	1.390578E-15	7.599507E-17
3.670000E+03	1.418531E-15	7.735518E-17
3.680000E+03	1.446510E-15	7.870939E-17
3.690000E+03	1.474430E-15	8.005297E-17
3.700000E+03	1.502324E-15	8.138780E-17
3.710000E+03	1.529982E-15	8.270241E-17
3.720000E+03	1.557458E-15	8.399975E-17
3.730000E+03	1.584636E-15	8.527364E-17
3.740000E+03	1.611429E-15	8.651952E-17
3.750000E+03	1.638055E-15	8.774904E-17
3.760000E+03	1.664395E-15	8.895597E-17
3.770000E+03	1.690715E-15	9.015456E-17
3.780000E+03	1.717160E-15	9.135245E-17
3.790000E+03	1.744073E-15	9.256772E-17
3.800000E+03	1.771741E-15	9.381544E-17
3.810000E+03	1.800643E-15	9.512059E-17
3.820000E+03	1.831192E-15	9.650434E-17
3.830000E+03	1.864028E-15	9.799972E-17
3.840000E+03	1.899566E-15	9.962760E-17
3.850000E+03	1.938350E-15	1.014154E-16
3.860000E+03	1.980965E-15	1.033922E-16
3.870000E+03	2.027884E-15	1.055813E-16
3.880000E+03	2.079508E-15	1.080016E-16
3.890000E+03	2.136129E-15	1.106666E-16
3.900000E+03	2.197845E-15	1.135791E-16
3.910000E+03	2.264712E-15	1.167400E-16
3.920000E+03	2.336471E-15	1.201339E-16
3.930000E+03	2.412780E-15	1.237413E-16
3.940000E+03	2.493005E-15	1.275277E-16
3.950000E+03	2.576212E-15	1.314439E-16
3.960000E+03	2.661300E-15	1.354326E-16
3.970000E+03	2.747030E-15	1.394300E-16
3.980000E+03	2.831842E-15	1.433567E-16
3.990000E+03	2.914109E-15	1.471308E-16
4.000000E+03	2.992130E-15	1.506677E-16
4.010000E+03	3.064198E-15	1.538831E-16
4.020000E+03	3.128602E-15	1.566938E-16
4.030000E+03	3.183933E-15	1.590322E-16
4.040000E+03	3.228926E-15	1.608392E-16
4.050000E+03	3.262454E-15	1.620628E-16
4.060000E+03	3.284018E-15	1.626830E-16
4.070000E+03	3.293176E-15	1.626828E-16
4.080000E+03	3.290056E-15	1.620737E-16
4.090000E+03	3.274981E-15	1.608767E-16
4.100000E+03	3.248639E-15	1.591305E-16
4.110000E+03	3.211975E-15	1.568860E-16
4.120000E+03	3.166065E-15	1.541999E-16
4.130000E+03	3.112209E-15	1.511393E-16
4.140000E+03	3.051869E-15	1.477786E-16
4.150000E+03	2.986395E-15	1.441856E-16
4.160000E+03	2.917293E-15	1.404352E-16
4.170000E+03	2.846060E-15	1.366009E-16
4.180000E+03	2.774101E-15	1.327508E-16
4.190000E+03	2.702853E-15	1.289541E-16
4.200000E+03	2.633488E-15	1.252662E-16
4.210000E+03	2.567142E-15	1.217403E-16
4.220000E+03	2.504835E-15	1.184233E-16
4.230000E+03	2.447266E-15	1.153467E-16
4.240000E+03	2.395008E-15	1.125353E-16
4.250000E+03	2.348571E-15	1.100108E-16
4.260000E+03	2.308134E-15	1.077790E-16
4.270000E+03	2.273765E-15	1.058406E-16
4.280000E+03	2.245470E-15	1.041932E-16
4.290000E+03	2.223065E-15	1.028257E-16
4.300000E+03	2.206314E-15	1.017245E-16
4.310000E+03	2.194838E-15	1.008699E-16
4.320000E+03	2.188353E-15	1.002464E-16
4.330000E+03	2.186419E-15	9.983185E-17
4.340000E+03	2.188708E-15	9.960924E-17
4.350000E+03	2.194863E-15	9.956041E-17
4.360000E+03	2.204662E-15	9.967370E-17
4.370000E+03	2.217922E-15	9.993915E-17
4.380000E+03	2.234653E-15	1.003557E-16
4.390000E+03	2.254964E-15	1.009266E-16
4.400000E+03	2.279243E-15	1.016676E-16
4.410000E+03	2.308007E-15	1.025998E-16
4.420000E+03	2.341988E-15	1.037535E-16
4.430000E+03	2.382072E-15	1.051655E-16
4.440000E+03	2.429268E-15	1.068774E-16
4.450000E+03	2.484650E-15	1.089329E-16
4.460000E+03	2.549255E-15	1.113736E-16
4.470000E+03	2.624043E-15	1.142368E-16
4.480000E+03	2.709763E-15	1.175505E-16
4.490000E+03	2.806863E-15	1.213288E-16
4.500000E+03	2.915503E-15	1.255733E-16
4.510000E+03	3.035289E-15	1.302615E-16
4.520000E+03	3.165363E-15	1.353516E-16
4.530000E+03	3.304250E-15	1.407758E-16
4.540000E+03	3.449898E-15	1.464428E-16
4.550000E+03	3.599663E-15	1.522375E-16
4.560000E+03	3.750326E-15	1.580223E-16
4.570000E+03	3.898314E-15	1.636467E-16
4.580000E+03	4.039827E-15	1.689528E-16
4.590000E+03	4.171026E-15	1.737839E-16
4.600000E+03	4.288477E-15	1.780020E-16
4.610000E+03	4.389114E-15	1.814869E-16
4.620000E+03	4.470658E-15	1.841527E-16
4.630000E+03	4.531791E-15	1.859543E-16
4.640000E+03	4.572151E-15	1.868865E-16
4.650000E+03	4.592442E-15	1.869880E-16
4.660000E+03	4.594256E-15	1.863328E-16
4.670000E+03	4.579977E-15	1.850261E-16
4.680000E+03	4.552682E-15	1.831995E-16
4.690000E+03	4.515763E-15	1.809952E-16
4.700000E+03	4.472708E-15	1.785570E-16
4.710000E+03	4.427036E-15	1.760279E-16
4.720000E+03	4.382042E-15	1.735397E-16
4.730000E+03	4.340620E-15	1.712063E-16
4.740000E+03	4.305232E-15	1.691227E-16
4.750000E+03	4.277954E-15	1.673674E-16
4.760000E+03	4.260360E-15	1.659977E-16
4.770000E+03	4.253391E-15	1.650458E-16
4.780000E+03	4.257582E-15	1.645271E-16
4.790000E+03	4.272937E-15	1.644365E-16
4.800000E+03	4.298940E-15	1.647489E-16
4.810000E+03	4.334620E-15	1.654223E-16
4.820000E+03	4.378617E-15	1.664003E-16
4.830000E+03	4.429098E-15	1.676096E-16
4.840000E+03	4.484037E-15	1.689709E-16
4.850000E+03	4.541086E-15	1.703940E-16
4.860000E+03	4.597764E-15	1.717852E-16
4.870000E+03	4.651670E-15	1.730554E-16
4.880000E+03	4.700520E-15	1.741215E-16
4.890000E+03	4.742117E-15	1.749050E-16
4.900000E+03	4.774738E-15	1.753461E-16
4.910000E+03	4.797052E-15	1.754005E-16
4.920000E+03	4.808113E-15	1.750388E-16
4.930000E+03	4.807392E-15	1.742474E-16
4.940000E+03	4.794791E-15	1.730283E-16
4.950000E+03	4.770497E-15	1.713941E-16
4.960000E+03	4.735021E-15	1.693687E-16
4.970000E+03	4.689063E-15	1.669823E-16
4.980000E+03	4.633632E-15	1.642758E-16
4.990000E+03	4.569821E-15	1.612923E-16
5.000000E+03	4.499004E-15	1.580840E-16
5.010000E+03	4.422893E-15	1.547143E-16
5.020000E+03	4.343403E-15	1.512522E-16
5.030000E+03	4.262585E-15	1.477705E-16
5.040000E+03	4.182703E-15	1.443480E-16
5.050000E+03	4.106226E-15	1.410689E-16
5.060000E+03	4.035439E-15	1.380100E-16
5.070000E+03	3.972554E-15	1.352438E-16
5.080000E+03	3.919633E-15	1.328365E-16
5.090000E+03	3.878315E-15	1.308389E-16
5.100000E+03	3.849927E-15	1.292901E-16
5.110000E+03	3.835368E-15	1.282143E-16
5.120000E+03	3.835026E-15	1.276182E-16
5.130000E+03	3.848805E-15	1.274921E-16
5.140000E+03	3.876207E-15	1.278133E-16
5.150000E+03	3.916167E-15	1.285409E-16
5.160000E+03	3.967296E-15	1.296238E-16
5.170000E+03	4.027846E-15	1.310005E-16
5.180000E+03	4.095843E-15	1.326030E-16
5.190000E+03	4.169294E-15	1.343641E-16
5.200000E+03	4.246106E-15	1.362145E-16
5.210000E+03	4.324454E-15	1.380946E-16
5.220000E+03	4.402578E-15	1.399482E-16
5.230000E+03	4.479197E-15	1.417351E-16
5.240000E+03	4.553264E-15	1.434233E-16
5.250000E+03	4.624051E-15	1.449915E-16
5.260000E+03	4.691129E-15	1.464279E-16
5.270000E+03	4.754225E-15	1.477260E-16
5.280000E+03	4.813180E-15	1.488828E-16
5.290000E+03	4.867932E-15	1.498986E-16
5.300000E+03	4.918374E-15	1.507720E-16
5.310000E+03	4.964309E-15	1.514993E-16
5.320000E+03	5.005697E-15	1.520813E-16
5.330000E+03	5.042219E-15	1.525105E-16
5.340000E+03	5.073654E-15	1.527825E-16
5.350000E+03	5.099985E-15	1.528991E-16
5.360000E+03	5.120988E-15	1.528559E-16
5.370000E+03	5.136846E-15	1.526607E-16
5.380000E+03	5.147816E-15	1.523234E-16
5.390000E+03	5.154345E-15	1.518591E-16
5.400000E+03	5.157037E-15	1.512875E-16
5.410000E+03	5.156639E-15	1.506320E-16
5.420000E+03	5.153800E-15	1.499129E-16
5.430000E+03	5.149176E-15	1.491502E-16
5.440000E+03	5.143181E-15	1.483567E-16
5.450000E+03	5.135931E-15	1.475362E-16
5.460000E+03	5.127434E-15	1.466897E-16
5.470000E+03	5.117274E-15	1.458058E-16
5.480000E+03	5.105117E-15	1.448758E-16
5.490000E+03	5.090437E-15	1.438855E-16
5.500000E+03	5.072898E-15	1.428264E-16
5.510000E+03	5.052107E-15	1.416886E-16
5.520000E+03	5.027816E-15	1.404657E-16
5.530000E+03	5.000526E-15	1.391728E-16
5.540000E+03	4.970911E-15	1.378292E-16
5.550000E+03	4.940072E-15	1.364657E-16
5.560000E+03	4.909301E-15	1.351180E-16
5.570000E+03	4.879900E-15	1.338215E-16
5.580000E+03	4.853025E-15	1.326071E-16
5.590000E+03	4.829482E-15	1.314958E-16
5.600000E+03	4.809735E-15	1.304990E-16
5.610000E+03	4.793855E-15	1.296172E-16
5.620000E+03	4.781345E-15	1.288358E-16
5.630000E+03	4.771488E-15	1.281345E-16
5.640000E+03	4.763228E-15	1.274840E-16
5.650000E+03	4.755433E-15	1.268536E-16
5.660000E+03	4.747011E-15	1.262139E-16
5.670000E+03	4.736983E-15	1.255391E-16
5.680000E+03	4.724739E-15	1.248133E-16
5.690000E+03	4.709917E-15	1.240272E-16
5.700000E+03	4.692519E-15	1.231816E-16
5.710000E+03	4.672931E-15	1.222868E-16
5.720000E+03	4.651867E-15	1.213620E-16
5.730000E+03	4.630087E-15	1.204270E-16
5.740000E+03	4.608598E-15	1.195079E-16
5.750000E+03	4.588315E-15	1.186281E-16
5.760000E+03	4.570139E-15	1.178105E-16
5.770000E+03	4.554806E-15	1.170733E-16
5.780000E+03	4.542988E-15	1.164329E-16
5.790000E+03	4.535056E-15	1.158980E-16
5.800000E+03	4.531389E-15	1.154771E-16
5.810000E+03	4.531975E-15	1.151690E-16
5.820000E+03	4.536872E-15	1.149740E-16
5.830000E+03	4.545812E-15	1.148846E-16
5.840000E+03	4.558541E-15	1.148933E-16
5.850000E+03	4.574552E-15	1.149866E-16
5.860000E+03	4.593434E-15	1.151534E-16
5.870000E+03	4.614518E-15	1.153764E-16
5.880000E+03	4.637228E-15	1.156409E-16
5.890000E+03	4.660820E-15	1.159279E-16
5.900000E+03	4.684689E-15	1.162222E-16
5.910000E+03	4.708155E-15	1.165070E-16
5.920000E+03	4.730626E-15	1.167677E-16
5.930000E+03	4.751617E-15	1.169926E-16
5.940000E+03	4.770531E-15	1.171671E-16
5.950000E+03	4.787089E-15	1.172849E-16
5.960000E+03	4.800964E-15	1.173384E-16
5.970000E+03	4.811969E-15	1.173235E-16
5.980000E+03	4.819949E-15	1.172368E-16
5.990000E+03	4.824925E-15	1.170795E-16
6.000000E+03	4.826837E-15	1.168505E-16
6.010000E+03	4.825866E-15	1.165546E-16
6.020000E+03	4.822040E-15	1.161931E-16
6.030000E+03	4.815508E-15	1.157700E-16
6.040000E+03	4.806488E-15	1.152908E-16
6.050000E+03	4.795063E-15	1.147580E-16
6.060000E+03	4.781529E-15	1.141790E-16
6.070000E+03	4.766052E-15	1.135580E-16
6.080000E+03	4.748872E-15	1.129010E-16
6.090000E+03	4.730218E-15	1.122137E-16
6.100000E+03	4.710452E-15	1.115048E-16
6.110000E+03	4.689933E-15	1.107829E-16
6.120000E+03	4.669100E-15	1.100585E-16
6.130000E+03	4.648264E-15	1.093389E-16
6.140000E+03	4.627916E-15	1.086356E-16
6.150000E+03	4.608407E-15	1.079568E-16
6.160000E+03	4.590043E-15	1.073094E-16
6.170000E+03	4.572962E-15	1.066965E-16
6.180000E+03	4.557199E-15	1.061187E-16
6.190000E+03	4.542571E-15	1.055717E-16
6.200000E+03	4.528828E-15	1.050494E-16
6.210000E+03	4.515521E-15	1.045413E-16
6.220000E+03	4.501990E-15	1.040322E-16
6.230000E+03	4.487595E-15	1.035073E-16
6.240000E+03	4.471579E-15	1.029493E-16
6.250000E+03	4.453262E-15	1.023428E-16
6.260000E+03	4.432001E-15	1.016735E-16
6.270000E+03	4.407388E-15	1.009321E-16
6.280000E+03	4.379097E-15	1.001119E-16
6.290000E+03	4.347129E-15	9.921305E-17
6.300000E+03	4.311649E-15	9.823990E-17
6.310000E+03	4.273210E-15	9.720538E-17
6.320000E+03	4.232685E-15	9.612958E-17
6.330000E+03	4.191130E-15	9.503669E-17
6.340000E+03	4.150154E-15	9.396317E-17
6.350000E+03	4.111478E-15	9.294783E-17
6.360000E+03	4.077115E-15	9.203589E-17
6.370000E+03	4.049361E-15	9.127860E-17
6.380000E+03	4.030434E-15	9.072526E-17
6.390000E+03	4.022802E-15	9.043055E-17
6.400000E+03	4.028688E-15	9.044336E-17
6.410000E+03	4.050212E-15	9.081011E-17
6.420000E+03	4.089304E-15	9.157281E-17
6.430000E+03	4.147586E-15	9.276644E-17
6.440000E+03	4.226141E-15	9.441387E-17
6.450000E+03	4.325743E-15	9.653112E-17
6.460000E+03	4.446487E-15	9.911905E-17
6.470000E+03	4.587770E-15	1.021632E-16
6.480000E+03	4.748267E-15	1.056330E-16
6.490000E+03	4.925846E-15	1.094800E-16
6.500000E+03	5.117472E-15	1.136359E-16
6.510000E+03	5.319560E-15	1.180207E-16
6.520000E+03	5.528039E-15	1.225437E-16
6.530000E+03	5.738772E-15	1.271132E-16
6.540000E+03	5.945883E-15	1.315990E-16
6.550000E+03	6.141349E-15	1.358241E-16
6.560000E+03	6.317315E-15	1.396155E-16
6.570000E+03	6.467059E-15	1.428256E-16
6.580000E+03	6.585322E-15	1.453394E-16
6.590000E+03	6.668666E-15	1.470825E-16
6.600000E+03	6.715412E-15	1.480190E-16
6.610000E+03	6.725663E-15	1.481525E-16
6.620000E+03	6.701016E-15	1.475194E-16
6.630000E+03	6.644603E-15	1.461896E-16
6.640000E+03	6.560157E-15	1.442461E-16
6.650000E+03	6.452249E-15	1.417901E-16
6.660000E+03	6.325708E-15	1.389282E-16
6.670000E+03	6.185188E-15	1.357630E-16
6.680000E+03	6.035198E-15	1.323936E-16
6.690000E+03	5.879871E-15	1.289108E-16
6.700000E+03	5.722849E-15	1.253943E-16
6.710000E+03	5.567304E-15	1.219135E-16
6.720000E+03	5.415625E-15	1.185203E-16
6.730000E+03	5.269929E-15	1.152609E-16
6.740000E+03	5.131601E-15	1.121651E-16
6.750000E+03	5.001625E-15	1.092541E-16
6.760000E+03	4.880585E-15	1.065401E-16
6.770000E+03	4.768730E-15	1.040281E-16
6.780000E+03	4.666055E-15	1.017177E-16
6.790000E+03	4.572373E-15	9.960411E-17
6.800000E+03	4.487380E-15	9.768045E-17
6.810000E+03	4.410719E-15	9.593844E-17
6.820000E+03	4.342023E-15	9.436969E-17
6.830000E+03	4.280896E-15	9.296513E-17
6.840000E+03	4.227107E-15	9.171936E-17
6.850000E+03	4.180424E-15	9.062685E-17
6.860000E+03	4.140598E-15	8.968183E-17
6.870000E+03	4.107525E-15	8.888159E-17
6.880000E+03	4.080979E-15	8.822076E-17
6.890000E+03	4.060745E-15	8.769428E-17
6.900000E+03	4.046582E-15	8.729643E-17
6.910000E+03	4.037964E-15	8.701541E-17
6.920000E+03	4.034441E-15	8.684109E-17
6.930000E+03	4.035244E-15	8.675645E-17
6.940000E+03	4.039510E-15	8.674255E-17
6.950000E+03	4.046198E-15	8.677671E-17
6.960000E+03	4.054356E-15	8.683824E-17
6.970000E+03	4.062779E-15	8.690111E-17
6.980000E+03	4.070411E-15	8.694270E-17
6.990000E+03	4.076348E-15	8.694368E-17
7.000000E+03	4.079776E-15	8.688683E-17
7.010000E+03	4.080012E-15	8.675774E-17
7.020000E+03	4.076640E-15	8.654787E-17
7.030000E+03	4.069468E-15	8.625349E-17
7.040000E+03	4.058526E-15	8.587559E-17
7.050000E+03	4.044100E-15	8.542065E-17
7.060000E+03	4.026471E-15	8.489497E-17
7.070000E+03	4.006231E-15	8.431141E-17
7.080000E+03	3.984000E-15	8.368331E-17
7.090000E+03	3.960378E-15	8.302362E-17
7.100000E+03	3.936084E-15	8.234754E-17
7.110000E+03	3.911730E-15	8.166806E-17
7.120000E+03	3.887798E-15	8.099527E-17
7.130000E+03	3.864734E-15	8.033849E-17
7.140000E+03	3.842941E-15	7.970603E-17
7.150000E+03	3.822611E-15	7.910178E-17
7.160000E+03	3.803918E-15	7.852919E-17
7.170000E+03	3.786973E-15	7.799042E-17
7.180000E+03	3.771913E-15	7.748806E-17
7.190000E+03	3.758680E-15	7.702077E-17
7.200000E+03	3.747382E-15	7.659055E-17
7.210000E+03	3.738004E-15	7.619683E-17
7.220000E+03	3.730683E-15	7.584218E-17
7.230000E+03	3.725292E-15	7.552377E-17
7.240000E+03	3.721819E-15	7.524112E-17
7.250000E+03	3.720118E-15	7.499104E-17
7.260000E+03	3.719892E-15	7.476732E-17
7.270000E+03	3.720805E-15	7.456303E-17
7.280000E+03	3.722480E-15	7.437058E-17
7.290000E+03	3.724409E-15	7.417975E-17
7.300000E+03	3.725911E-15	7.397710E-17
7.310000E+03	3.726520E-15	7.375358E-17
7.320000E+03	3.725610E-15	7.349712E-17
7.330000E+03	3.722665E-15	7.319800E-17
7.340000E+03	3.717315E-15	7.284950E-17
7.350000E+03	3.709181E-15	7.244486E-17
7.360000E+03	3.698013E-15	7.197989E-17
7.370000E+03	3.683872E-15	7.145655E-17
7.380000E+03	3.666774E-15	7.087600E-17
7.390000E+03	3.646867E-15	7.024182E-17
7.400000E+03	3.624583E-15	6.956311E-17
7.410000E+03	3.600217E-15	6.884622E-17
7.420000E+03	3.574313E-15	6.810212E-17
7.430000E+03	3.547400E-15	6.734147E-17
7.440000E+03	3.520035E-15	6.657518E-17
7.450000E+03	3.492702E-15	6.581272E-17
7.460000E+03	3.465966E-15	6.506491E-17
7.470000E+03	3.440209E-15	6.433903E-17
7.480000E+03	3.415841E-15	6.364270E-17
7.490000E+03	3.393109E-15	6.298049E-17
7.500000E+03	3.372090E-15	6.235369E-17
7.510000E+03	3.352807E-15	6.176261E-17
7.520000E+03	3.335285E-15	6.120762E-17
7.530000E+03	3.319242E-15	6.068342E-17
7.540000E+03	3.304548E-15	6.018761E-17
7.550000E+03	3.290864E-15	5.971402E-17
7.560000E+03	3.277830E-15	5.925621E-17
7.570000E+03	3.265252E-15	5.881083E-17
7.580000E+03	3.252847E-15	5.837299E-17
7.590000E+03	3.240316E-15	5.793759E-17
7.600000E+03	3.227466E-15	5.750153E-17
7.610000E+03	3.214220E-15	5.706377E-17
7.620000E+03	3.200458E-15	5.662260E-17
7.630000E+03	3.186245E-15	5.617950E-17
7.640000E+03	3.171654E-15	5.573620E-17
7.650000E+03	3.156773E-15	5.529456E-17
7.660000E+03	3.141900E-15	5.486015E-17
7.670000E+03	3.127153E-15	5.443531E-17
7.680000E+03	3.112821E-15	5.402535E-17
7.690000E+03	3.099182E-15	5.363531E-17
7.700000E+03	3.086318E-15	5.326683E-17
7.710000E+03	3.074473E-15	5.292428E-17
7.720000E+03	3.063608E-15	5.260721E-17
7.730000E+03	3.053834E-15	5.231769E-17
7.740000E+03	3.045033E-15	5.205392E-17
7.750000E+03	3.037144E-15	5.181508E-17
7.760000E+03	3.029965E-15	5.159799E-17
