#wls	flux	fluxerr
1.600000E+03	4.611438E-17	3.079493E-18
1.640000E+03	4.636186E-17	3.086716E-18
1.680000E+03	4.666263E-17	3.097186E-18
1.720000E+03	4.701738E-17	3.110912E-18
1.760000E+03	4.740709E-17	3.126600E-18
1.800000E+03	4.785288E-17	3.145610E-18
1.840000E+03	4.835601E-17	3.167985E-18
1.880000E+03	4.889813E-17	3.192481E-18
1.920000E+03	4.952075E-17	3.221767E-18
1.960000E+03	5.020607E-17	3.254626E-18
2.000000E+03	5.095645E-17	3.291161E-18
2.040000E+03	5.179454E-17	3.332773E-18
2.080000E+03	5.270366E-17	3.378323E-18
2.120000E+03	5.370744E-17	3.429258E-18
2.160000E+03	5.481023E-17	3.485776E-18
2.200000E+03	5.603709E-17	3.549379E-18
2.240000E+03	5.735377E-17	3.617801E-18
2.280000E+03	5.882738E-17	3.695177E-18
2.320000E+03	6.042547E-17	3.779343E-18
2.360000E+03	6.217734E-17	3.872013E-18
2.400000E+03	6.411413E-17	3.974981E-18
2.440000E+03	6.622755E-17	4.087573E-18
2.480000E+03	6.851038E-17	4.209186E-18
2.520000E+03	7.104148E-17	4.344492E-18
2.560000E+03	7.377571E-17	4.490521E-18
2.600000E+03	7.677635E-17	4.650924E-18
2.640000E+03	8.004547E-17	4.825588E-18
2.680000E+03	8.363205E-17	5.017213E-18
2.720000E+03	8.756718E-17	5.227373E-18
2.760000E+03	9.188643E-17	5.457872E-18
2.800000E+03	9.665359E-17	5.712145E-18
2.840000E+03	1.018669E-16	5.989696E-18
2.880000E+03	1.076507E-16	6.297420E-18
2.920000E+03	1.140667E-16	6.638418E-18
2.960000E+03	1.211577E-16	7.014629E-18
3.000000E+03	1.290536E-16	7.432983E-18
3.010000E+03	1.311498E-16	7.543872E-18
3.020000E+03	1.333171E-16	7.658538E-18
3.030000E+03	1.355572E-16	7.777065E-18
3.040000E+03	1.378439E-16	7.897938E-18
3.050000E+03	1.402069E-16	8.022841E-18
3.060000E+03	1.426195E-16	8.150242E-18
3.070000E+03	1.451122E-16	8.281861E-18
3.080000E+03	1.476869E-16	8.417799E-18
3.090000E+03	1.503163E-16	8.556487E-18
3.100000E+03	1.530319E-16	8.699694E-18
3.110000E+03	1.558057E-16	8.845826E-18
3.120000E+03	1.587001E-16	8.998397E-18
3.130000E+03	1.616570E-16	9.154106E-18
3.140000E+03	1.647089E-16	9.314774E-18
3.150000E+03	1.678274E-16	9.478774E-18
3.160000E+03	1.710771E-16	9.649742E-18
3.170000E+03	1.743979E-16	9.824268E-18
3.180000E+03	1.778561E-16	1.000607E-17
3.190000E+03	1.813904E-16	1.019167E-17
3.200000E+03	1.850356E-16	1.038301E-17
3.210000E+03	1.887946E-16	1.058024E-17
3.220000E+03	1.927042E-16	1.078539E-17
3.230000E+03	1.967005E-16	1.099486E-17
3.240000E+03	2.008547E-16	1.121261E-17
3.250000E+03	2.051360E-16	1.143691E-17
3.260000E+03	2.095482E-16	1.166792E-17
3.270000E+03	2.140945E-16	1.190581E-17
3.280000E+03	2.188146E-16	1.215277E-17
3.290000E+03	2.236769E-16	1.240700E-17
3.300000E+03	2.286853E-16	1.266869E-17
3.310000E+03	2.338807E-16	1.294010E-17
3.320000E+03	2.392686E-16	1.322148E-17
3.330000E+03	2.448162E-16	1.351100E-17
3.340000E+03	2.505662E-16	1.381098E-17
3.350000E+03	2.565245E-16	1.412171E-17
3.360000E+03	2.626970E-16	1.444349E-17
3.370000E+03	2.690496E-16	1.477439E-17
3.380000E+03	2.756275E-16	1.511689E-17
3.390000E+03	2.824786E-16	1.547355E-17
3.400000E+03	2.895275E-16	1.584021E-17
3.410000E+03	2.968640E-16	1.622176E-17
3.420000E+03	3.044539E-16	1.661627E-17
3.430000E+03	3.123478E-16	1.702647E-17
3.440000E+03	3.205112E-16	1.745043E-17
3.450000E+03	3.289518E-16	1.788852E-17
3.460000E+03	3.377228E-16	1.834361E-17
3.470000E+03	3.468343E-16	1.881618E-17
3.480000E+03	3.562504E-16	1.930424E-17
3.490000E+03	3.660271E-16	1.981078E-17
3.500000E+03	3.762228E-16	2.033890E-17
3.510000E+03	3.867547E-16	2.088408E-17
3.520000E+03	3.977300E-16	2.145205E-17
3.530000E+03	4.091131E-16	2.204083E-17
3.540000E+03	4.209158E-16	2.265101E-17
3.550000E+03	4.332013E-16	2.328591E-17
3.560000E+03	4.459315E-16	2.394344E-17
3.570000E+03	4.591698E-16	2.462694E-17
3.580000E+03	4.729287E-16	2.533701E-17
3.590000E+03	4.872187E-16	2.607416E-17
3.600000E+03	5.020482E-16	2.683876E-17
3.610000E+03	5.174227E-16	2.763105E-17
3.620000E+03	5.334008E-16	2.845410E-17
3.630000E+03	5.498699E-16	2.930182E-17
3.640000E+03	5.669968E-16	3.018307E-17
3.650000E+03	5.846620E-16	3.109140E-17
3.660000E+03	6.028549E-16	3.202620E-17
3.670000E+03	6.216823E-16	3.299311E-17
3.680000E+03	6.410711E-16	3.398818E-17
3.690000E+03	6.609411E-16	3.500712E-17
3.700000E+03	6.813937E-16	3.605527E-17
3.710000E+03	7.024056E-16	3.713135E-17
3.720000E+03	7.238852E-16	3.823049E-17
3.730000E+03	7.458635E-16	3.935429E-17
3.740000E+03	7.682386E-16	4.049735E-17
3.750000E+03	7.910339E-16	4.166087E-17
3.760000E+03	8.142708E-16	4.284595E-17
3.770000E+03	8.378334E-16	4.404647E-17
3.780000E+03	8.616645E-16	4.525941E-17
3.790000E+03	8.857048E-16	4.648167E-17
3.800000E+03	9.100265E-16	4.771703E-17
3.810000E+03	9.344199E-16	4.895450E-17
3.820000E+03	9.588802E-16	5.019384E-17
3.830000E+03	9.833967E-16	5.143452E-17
3.840000E+03	1.007742E-15	5.266467E-17
3.850000E+03	1.031965E-15	5.388691E-17
3.860000E+03	1.055971E-15	5.509634E-17
3.870000E+03	1.079589E-15	5.628405E-17
3.880000E+03	1.102854E-15	5.745201E-17
3.890000E+03	1.125516E-15	5.858721E-17
3.900000E+03	1.147604E-15	5.969130E-17
3.910000E+03	1.168932E-15	6.075465E-17
3.920000E+03	1.189454E-15	6.177501E-17
3.930000E+03	1.208982E-15	6.274269E-17
3.940000E+03	1.227538E-15	6.365903E-17
3.950000E+03	1.244866E-15	6.451081E-17
3.960000E+03	1.260993E-15	6.529961E-17
3.970000E+03	1.275741E-15	6.601635E-17
3.980000E+03	1.289079E-15	6.665957E-17
3.990000E+03	1.300845E-15	6.722108E-17
4.000000E+03	1.311027E-15	6.770039E-17
4.010000E+03	1.319557E-15	6.809418E-17
4.020000E+03	1.326381E-15	6.839984E-17
4.030000E+03	1.331527E-15	6.861899E-17
4.040000E+03	1.334913E-15	6.874755E-17
4.050000E+03	1.336605E-15	6.878909E-17
4.060000E+03	1.336564E-15	6.874179E-17
4.070000E+03	1.334897E-15	6.861126E-17
4.080000E+03	1.331669E-15	6.840101E-17
4.090000E+03	1.326967E-15	6.811568E-17
4.100000E+03	1.320898E-15	6.776086E-17
4.110000E+03	1.313640E-15	6.734577E-17
4.120000E+03	1.305281E-15	6.687500E-17
4.130000E+03	1.296025E-15	6.635918E-17
4.140000E+03	1.285991E-15	6.580437E-17
4.150000E+03	1.275353E-15	6.521958E-17
4.160000E+03	1.264387E-15	6.461890E-17
4.170000E+03	1.253182E-15	6.400693E-17
4.180000E+03	1.241967E-15	6.339537E-17
4.190000E+03	1.230883E-15	6.279135E-17
4.200000E+03	1.220190E-15	6.220813E-17
4.210000E+03	1.210018E-15	6.165231E-17
4.220000E+03	1.200493E-15	6.113016E-17
4.230000E+03	1.191813E-15	6.065174E-17
4.240000E+03	1.184161E-15	6.022625E-17
4.250000E+03	1.177605E-15	5.985706E-17
4.260000E+03	1.172277E-15	5.955075E-17
4.270000E+03	1.168371E-15	5.931703E-17
4.280000E+03	1.165933E-15	5.915810E-17
4.290000E+03	1.165106E-15	5.908111E-17
4.300000E+03	1.165962E-15	5.908948E-17
4.310000E+03	1.168630E-15	5.918966E-17
4.320000E+03	1.173175E-15	5.938471E-17
4.330000E+03	1.179690E-15	5.967914E-17
4.340000E+03	1.188294E-15	6.007884E-17
4.350000E+03	1.199019E-15	6.058519E-17
4.360000E+03	1.211983E-15	6.120400E-17
4.370000E+03	1.227276E-15	6.193953E-17
4.380000E+03	1.244957E-15	6.279459E-17
4.390000E+03	1.265146E-15	6.377500E-17
4.400000E+03	1.287903E-15	6.488349E-17
4.410000E+03	1.313287E-15	6.612283E-17
4.420000E+03	1.341436E-15	6.749976E-17
4.430000E+03	1.372377E-15	6.901527E-17
4.440000E+03	1.406177E-15	7.067256E-17
4.450000E+03	1.442901E-15	7.247455E-17
4.460000E+03	1.482594E-15	7.442327E-17
4.470000E+03	1.525261E-15	7.651863E-17
4.480000E+03	1.570909E-15	7.876073E-17
4.490000E+03	1.619495E-15	8.114708E-17
4.500000E+03	1.670943E-15	8.367363E-17
4.510000E+03	1.725145E-15	8.633466E-17
4.520000E+03	1.781954E-15	8.912253E-17
4.530000E+03	1.841153E-15	9.202613E-17
4.540000E+03	1.902612E-15	9.503867E-17
4.550000E+03	1.966030E-15	9.814497E-17
4.560000E+03	2.031171E-15	1.013330E-16
4.570000E+03	2.097659E-15	1.045837E-16
4.580000E+03	2.165225E-15	1.078837E-16
4.590000E+03	2.233441E-15	1.112114E-16
4.600000E+03	2.301890E-15	1.145460E-16
4.610000E+03	2.370224E-15	1.178702E-16
4.620000E+03	2.437988E-15	1.211611E-16
4.630000E+03	2.504769E-15	1.243985E-16
4.640000E+03	2.570216E-15	1.275649E-16
4.650000E+03	2.633971E-15	1.306426E-16
4.660000E+03	2.695715E-15	1.336160E-16
4.670000E+03	2.755169E-15	1.364713E-16
4.680000E+03	2.812109E-15	1.391977E-16
4.690000E+03	2.866355E-15	1.417866E-16
4.700000E+03	2.917824E-15	1.442339E-16
4.710000E+03	2.966396E-15	1.465340E-16
4.720000E+03	3.012078E-15	1.486876E-16
4.730000E+03	3.054835E-15	1.506932E-16
4.740000E+03	3.094740E-15	1.525546E-16
4.750000E+03	3.131889E-15	1.542767E-16
4.760000E+03	3.166273E-15	1.558595E-16
4.770000E+03	3.198048E-15	1.573110E-16
4.780000E+03	3.227209E-15	1.586310E-16
4.790000E+03	3.253942E-15	1.598289E-16
4.800000E+03	3.278223E-15	1.609038E-16
4.810000E+03	3.300089E-15	1.618579E-16
4.820000E+03	3.319561E-15	1.626922E-16
4.830000E+03	3.336639E-15	1.634072E-16
4.840000E+03	3.351347E-15	1.640042E-16
4.850000E+03	3.363657E-15	1.644820E-16
4.860000E+03	3.373605E-15	1.648428E-16
4.870000E+03	3.381183E-15	1.650863E-16
4.880000E+03	3.386346E-15	1.652106E-16
4.890000E+03	3.389096E-15	1.652161E-16
4.900000E+03	3.389482E-15	1.651056E-16
4.910000E+03	3.387462E-15	1.648770E-16
4.920000E+03	3.383167E-15	1.645372E-16
4.930000E+03	3.376612E-15	1.640871E-16
4.940000E+03	3.367988E-15	1.635362E-16
4.950000E+03	3.357380E-15	1.628890E-16
4.960000E+03	3.345017E-15	1.621567E-16
4.970000E+03	3.331128E-15	1.613508E-16
4.980000E+03	3.315948E-15	1.604827E-16
4.990000E+03	3.299845E-15	1.595704E-16
5.000000E+03	3.283118E-15	1.586285E-16
5.010000E+03	3.266121E-15	1.576742E-16
5.020000E+03	3.249268E-15	1.567274E-16
5.030000E+03	3.232919E-15	1.558056E-16
5.040000E+03	3.217575E-15	1.549328E-16
5.050000E+03	3.203537E-15	1.541234E-16
5.060000E+03	3.191302E-15	1.534011E-16
5.070000E+03	3.181253E-15	1.527841E-16
5.080000E+03	3.173715E-15	1.522877E-16
5.090000E+03	3.169088E-15	1.519308E-16
5.100000E+03	3.167636E-15	1.517258E-16
5.110000E+03	3.169712E-15	1.516890E-16
5.120000E+03	3.175460E-15	1.518269E-16
5.130000E+03	3.185103E-15	1.521497E-16
5.140000E+03	3.198777E-15	1.526634E-16
5.150000E+03	3.216499E-15	1.533683E-16
5.160000E+03	3.238324E-15	1.542664E-16
5.170000E+03	3.264191E-15	1.553543E-16
5.180000E+03	3.294013E-15	1.566274E-16
5.190000E+03	3.327656E-15	1.580786E-16
5.200000E+03	3.364902E-15	1.596973E-16
5.210000E+03	3.405524E-15	1.614720E-16
5.220000E+03	3.449259E-15	1.633899E-16
5.230000E+03	3.495740E-15	1.654332E-16
5.240000E+03	3.544710E-15	1.675894E-16
5.250000E+03	3.595788E-15	1.698400E-16
5.260000E+03	3.648574E-15	1.721659E-16
5.270000E+03	3.702688E-15	1.745490E-16
5.280000E+03	3.757748E-15	1.769711E-16
5.290000E+03	3.813327E-15	1.794120E-16
5.300000E+03	3.869079E-15	1.818552E-16
5.310000E+03	3.924547E-15	1.842793E-16
5.320000E+03	3.979400E-15	1.866689E-16
5.330000E+03	4.033243E-15	1.890055E-16
5.340000E+03	4.085703E-15	1.912717E-16
5.350000E+03	4.136508E-15	1.934551E-16
5.360000E+03	4.185335E-15	1.955407E-16
5.370000E+03	4.231892E-15	1.975154E-16
5.380000E+03	4.275968E-15	1.993694E-16
5.390000E+03	4.317389E-15	2.010952E-16
5.400000E+03	4.355981E-15	2.026849E-16
5.410000E+03	4.391698E-15	2.041369E-16
5.420000E+03	4.424366E-15	2.054436E-16
5.430000E+03	4.454024E-15	2.066070E-16
5.440000E+03	4.480705E-15	2.076294E-16
5.450000E+03	4.504436E-15	2.085123E-16
5.460000E+03	4.525316E-15	2.092608E-16
5.470000E+03	4.543424E-15	2.098790E-16
5.480000E+03	4.558950E-15	2.103761E-16
5.490000E+03	4.572004E-15	2.107575E-16
5.500000E+03	4.582704E-15	2.110291E-16
5.510000E+03	4.591173E-15	2.111968E-16
5.520000E+03	4.597583E-15	2.112690E-16
5.530000E+03	4.602069E-15	2.112521E-16
5.540000E+03	4.604820E-15	2.111551E-16
5.550000E+03	4.605987E-15	2.109852E-16
5.560000E+03	4.605638E-15	2.107456E-16
5.570000E+03	4.604023E-15	2.104480E-16
5.580000E+03	4.601254E-15	2.100976E-16
5.590000E+03	4.597481E-15	2.097014E-16
5.600000E+03	4.592794E-15	2.092636E-16
5.610000E+03	4.587357E-15	2.087918E-16
5.620000E+03	4.581223E-15	2.082884E-16
5.630000E+03	4.574475E-15	2.077574E-16
5.640000E+03	4.567130E-15	2.071996E-16
5.650000E+03	4.559288E-15	2.066195E-16
5.660000E+03	4.550912E-15	2.060155E-16
5.670000E+03	4.542147E-15	2.053942E-16
5.680000E+03	4.532975E-15	2.047549E-16
5.690000E+03	4.523448E-15	2.041000E-16
5.700000E+03	4.513736E-15	2.034370E-16
5.710000E+03	4.503954E-15	2.027712E-16
5.720000E+03	4.494298E-15	2.021115E-16
5.730000E+03	4.484951E-15	2.014659E-16
5.740000E+03	4.476125E-15	2.008440E-16
5.750000E+03	4.468138E-15	2.002599E-16
5.760000E+03	4.461185E-15	1.997221E-16
5.770000E+03	4.455543E-15	1.992429E-16
5.780000E+03	4.451427E-15	1.988317E-16
5.790000E+03	4.449106E-15	1.985002E-16
5.800000E+03	4.448676E-15	1.982524E-16
5.810000E+03	4.450223E-15	1.980919E-16
5.820000E+03	4.453853E-15	1.980228E-16
5.830000E+03	4.459472E-15	1.980410E-16
5.840000E+03	4.467005E-15	1.981425E-16
5.850000E+03	4.476257E-15	1.983185E-16
5.860000E+03	4.487010E-15	1.985590E-16
5.870000E+03	4.498943E-15	1.988496E-16
5.880000E+03	4.511684E-15	1.991736E-16
5.890000E+03	4.524824E-15	1.995128E-16
5.900000E+03	4.537970E-15	1.998500E-16
5.910000E+03	4.550721E-15	2.001673E-16
5.920000E+03	4.562599E-15	2.004439E-16
5.930000E+03	4.573233E-15	2.006635E-16
5.940000E+03	4.582245E-15	2.008099E-16
5.950000E+03	4.589306E-15	2.008687E-16
5.960000E+03	4.594184E-15	2.008304E-16
5.970000E+03	4.596667E-15	2.006857E-16
5.980000E+03	4.596610E-15	2.004290E-16
5.990000E+03	4.593976E-15	2.000589E-16
6.000000E+03	4.588744E-15	1.995750E-16
6.010000E+03	4.580953E-15	1.989793E-16
6.020000E+03	4.570729E-15	1.982779E-16
6.030000E+03	4.558201E-15	1.974766E-16
6.040000E+03	4.543526E-15	1.965827E-16
6.050000E+03	4.526923E-15	1.956061E-16
6.060000E+03	4.508588E-15	1.945554E-16
6.070000E+03	4.488755E-15	1.934412E-16
6.080000E+03	4.467619E-15	1.922720E-16
6.090000E+03	4.445403E-15	1.910577E-16
6.100000E+03	4.422277E-15	1.898058E-16
6.110000E+03	4.398392E-15	1.885230E-16
6.120000E+03	4.373958E-15	1.872183E-16
6.130000E+03	4.349082E-15	1.858965E-16
6.140000E+03	4.323884E-15	1.845628E-16
6.150000E+03	4.298423E-15	1.832198E-16
6.160000E+03	4.272812E-15	1.818723E-16
6.170000E+03	4.247063E-15	1.805210E-16
6.180000E+03	4.221243E-15	1.791687E-16
6.190000E+03	4.195286E-15	1.778127E-16
6.200000E+03	4.169306E-15	1.764578E-16
6.210000E+03	4.143212E-15	1.751003E-16
6.220000E+03	4.117024E-15	1.737410E-16
6.230000E+03	4.090765E-15	1.723809E-16
6.240000E+03	4.064469E-15	1.710214E-16
6.250000E+03	4.038147E-15	1.696632E-16
6.260000E+03	4.011872E-15	1.683094E-16
6.270000E+03	3.985757E-15	1.669645E-16
6.280000E+03	3.959989E-15	1.656365E-16
6.290000E+03	3.934763E-15	1.643336E-16
6.300000E+03	3.910291E-15	1.630643E-16
6.310000E+03	3.886910E-15	1.618427E-16
6.320000E+03	3.865011E-15	1.606849E-16
6.330000E+03	3.844923E-15	1.596042E-16
6.340000E+03	3.827205E-15	1.586236E-16
6.350000E+03	3.812267E-15	1.577594E-16
6.360000E+03	3.800654E-15	1.570338E-16
6.370000E+03	3.792855E-15	1.564663E-16
6.380000E+03	3.789468E-15	1.560808E-16
6.390000E+03	3.790968E-15	1.558960E-16
6.400000E+03	3.797835E-15	1.559307E-16
6.410000E+03	3.810467E-15	1.562001E-16
6.420000E+03	3.829275E-15	1.567200E-16
6.430000E+03	3.854514E-15	1.574995E-16
6.440000E+03	3.886346E-15	1.585441E-16
6.450000E+03	3.924856E-15	1.598559E-16
6.460000E+03	3.969962E-15	1.614302E-16
6.470000E+03	4.021443E-15	1.632567E-16
6.480000E+03	4.078917E-15	1.653186E-16
6.490000E+03	4.141923E-15	1.675960E-16
6.500000E+03	4.209704E-15	1.700572E-16
6.510000E+03	4.281502E-15	1.726705E-16
6.520000E+03	4.356212E-15	1.753906E-16
6.530000E+03	4.432658E-15	1.781696E-16
6.540000E+03	4.509523E-15	1.809541E-16
6.550000E+03	4.585337E-15	1.836853E-16
6.560000E+03	4.658572E-15	1.863020E-16
6.570000E+03	4.727750E-15	1.887456E-16
6.580000E+03	4.791408E-15	1.909588E-16
6.590000E+03	4.848159E-15	1.928873E-16
6.600000E+03	4.896899E-15	1.944887E-16
6.610000E+03	4.936709E-15	1.957281E-16
6.620000E+03	4.966874E-15	1.965790E-16
6.630000E+03	4.987076E-15	1.970309E-16
6.640000E+03	4.997167E-15	1.970799E-16
6.650000E+03	4.997333E-15	1.967354E-16
6.660000E+03	4.988058E-15	1.960187E-16
6.670000E+03	4.969877E-15	1.949525E-16
6.680000E+03	4.943713E-15	1.935750E-16
6.690000E+03	4.910332E-15	1.919178E-16
6.700000E+03	4.870914E-15	1.900285E-16
6.710000E+03	4.826338E-15	1.879426E-16
6.720000E+03	4.777697E-15	1.857038E-16
6.730000E+03	4.726048E-15	1.833540E-16
6.740000E+03	4.672221E-15	1.809260E-16
6.750000E+03	4.617073E-15	1.784534E-16
6.760000E+03	4.561418E-15	1.759681E-16
6.770000E+03	4.505923E-15	1.734957E-16
6.780000E+03	4.451044E-15	1.710539E-16
6.790000E+03	4.397302E-15	1.686626E-16
6.800000E+03	4.345070E-15	1.663358E-16
6.810000E+03	4.294591E-15	1.640826E-16
6.820000E+03	4.246134E-15	1.619127E-16
6.830000E+03	4.199848E-15	1.598316E-16
6.840000E+03	4.155732E-15	1.578387E-16
6.850000E+03	4.113936E-15	1.559393E-16
6.860000E+03	4.074367E-15	1.541293E-16
6.870000E+03	4.037051E-15	1.524094E-16
6.880000E+03	4.001937E-15	1.507770E-16
6.890000E+03	3.968898E-15	1.492269E-16
6.900000E+03	3.937885E-15	1.477570E-16
6.910000E+03	3.908735E-15	1.463606E-16
6.920000E+03	3.881319E-15	1.450325E-16
6.930000E+03	3.855496E-15	1.437671E-16
6.940000E+03	3.831066E-15	1.425567E-16
6.950000E+03	3.807963E-15	1.413985E-16
6.960000E+03	3.785930E-15	1.402827E-16
6.970000E+03	3.764806E-15	1.392031E-16
6.980000E+03	3.744476E-15	1.381554E-16
6.990000E+03	3.724745E-15	1.371322E-16
7.000000E+03	3.705472E-15	1.361283E-16
7.010000E+03	3.686537E-15	1.351391E-16
7.020000E+03	3.667834E-15	1.341608E-16
7.030000E+03	3.649286E-15	1.331905E-16
7.040000E+03	3.630793E-15	1.322247E-16
7.050000E+03	3.612322E-15	1.312620E-16
7.060000E+03	3.593915E-15	1.303043E-16
7.070000E+03	3.575546E-15	1.293504E-16
7.080000E+03	3.557257E-15	1.284020E-16
7.090000E+03	3.539106E-15	1.274612E-16
7.100000E+03	3.521165E-15	1.265306E-16
7.110000E+03	3.503519E-15	1.256132E-16
7.120000E+03	3.486212E-15	1.247107E-16
7.130000E+03	3.469335E-15	1.238262E-16
7.140000E+03	3.453019E-15	1.229643E-16
7.150000E+03	3.437298E-15	1.221263E-16
7.160000E+03	3.422242E-15	1.213144E-16
7.170000E+03	3.407952E-15	1.205322E-16
7.180000E+03	3.394335E-15	1.197763E-16
7.190000E+03	3.381548E-15	1.190520E-16
7.200000E+03	3.369509E-15	1.183564E-16
7.210000E+03	3.358256E-15	1.176906E-16
7.220000E+03	3.347715E-15	1.170520E-16
7.230000E+03	3.337890E-15	1.164407E-16
7.240000E+03	3.328681E-15	1.158529E-16
7.250000E+03	3.319978E-15	1.152849E-16
7.260000E+03	3.311785E-15	1.147367E-16
7.270000E+03	3.303974E-15	1.142038E-16
7.280000E+03	3.296406E-15	1.136815E-16
7.290000E+03	3.289068E-15	1.131693E-16
7.300000E+03	3.281772E-15	1.126607E-16
7.310000E+03	3.274417E-15	1.121525E-16
7.320000E+03	3.266992E-15	1.116443E-16
7.330000E+03	3.259317E-15	1.111301E-16
7.340000E+03	3.251306E-15	1.106071E-16
7.350000E+03	3.242930E-15	1.100744E-16
7.360000E+03	3.234080E-15	1.095287E-16
7.370000E+03	3.224751E-15	1.089698E-16
7.380000E+03	3.214866E-15	1.083954E-16
7.390000E+03	3.204404E-15	1.078050E-16
7.400000E+03	3.193407E-15	1.072003E-16
7.410000E+03	3.181890E-15	1.065819E-16
7.420000E+03	3.169836E-15	1.059494E-16
7.430000E+03	3.157334E-15	1.053061E-16
7.440000E+03	3.144438E-15	1.046539E-16
7.450000E+03	3.131175E-15	1.039939E-16
7.460000E+03	3.117661E-15	1.033301E-16
7.470000E+03	3.103982E-15	1.026655E-16
7.480000E+03	3.090267E-15	1.020044E-16
7.490000E+03	3.076518E-15	1.013471E-16
7.500000E+03	3.062865E-15	1.006978E-16
7.510000E+03	3.049393E-15	1.000594E-16
7.520000E+03	3.036177E-15	9.943453E-17
7.530000E+03	3.023332E-15	9.882686E-17
7.540000E+03	3.010831E-15	9.823560E-17
7.550000E+03	2.998810E-15	9.766513E-17
7.560000E+03	2.987262E-15	9.711530E-17
7.570000E+03	2.976212E-15	9.658687E-17
7.580000E+03	2.965714E-15	9.608163E-17
7.590000E+03	2.955723E-15	9.559811E-17
7.600000E+03	2.946265E-15	9.513719E-17
7.610000E+03	2.937314E-15	9.469800E-17
7.620000E+03	2.928828E-15	9.427926E-17
7.630000E+03	2.920801E-15	9.388077E-17
7.640000E+03	2.913085E-15	9.349787E-17
7.650000E+03	2.905702E-15	9.313126E-17
7.660000E+03	2.898532E-15	9.277721E-17
7.670000E+03	2.891544E-15	9.243480E-17
7.680000E+03	2.884659E-15	9.210155E-17
7.690000E+03	2.877795E-15	9.177501E-17
7.700000E+03	2.870880E-15	9.145293E-17
7.710000E+03	2.863838E-15	9.113302E-17
7.720000E+03	2.856643E-15	9.081462E-17
7.730000E+03	2.849235E-15	9.049588E-17
7.740000E+03	2.841517E-15	9.017385E-17
7.750000E+03	2.833528E-15	8.984992E-17
7.760000E+03	2.825188E-15	8.952164E-17
