#wls	flux	fluxerr
1.600000E+03	3.806415E-17	2.150488E-18
1.640000E+03	3.849018E-17	2.172060E-18
1.680000E+03	3.893752E-17	2.194719E-18
1.720000E+03	3.940630E-17	2.218467E-18
1.760000E+03	3.988525E-17	2.242662E-18
1.800000E+03	4.039764E-17	2.268606E-18
1.840000E+03	4.093226E-17	2.295659E-18
1.880000E+03	4.150082E-17	2.324470E-18
1.920000E+03	4.208116E-17	2.353788E-18
1.960000E+03	4.268523E-17	2.384274E-18
2.000000E+03	4.332485E-17	2.416578E-18
2.040000E+03	4.397852E-17	2.449490E-18
2.080000E+03	4.466940E-17	2.484292E-18
2.120000E+03	4.538747E-17	2.520411E-18
2.160000E+03	4.614494E-17	2.558515E-18
2.200000E+03	4.692131E-17	2.597454E-18
2.240000E+03	4.774012E-17	2.638519E-18
2.280000E+03	4.859233E-17	2.681195E-18
2.320000E+03	4.948010E-17	2.725587E-18
2.360000E+03	5.040593E-17	2.771817E-18
2.400000E+03	5.137262E-17	2.820022E-18
2.440000E+03	5.238343E-17	2.870363E-18
2.480000E+03	5.344201E-17	2.923022E-18
2.520000E+03	5.456338E-17	2.978797E-18
2.560000E+03	5.573079E-17	3.036750E-18
2.600000E+03	5.696052E-17	3.097746E-18
2.640000E+03	5.825891E-17	3.162102E-18
2.680000E+03	5.963324E-17	3.230183E-18
2.720000E+03	6.109186E-17	3.302407E-18
2.760000E+03	6.264445E-17	3.379262E-18
2.800000E+03	6.431318E-17	3.461901E-18
2.840000E+03	6.608901E-17	3.549788E-18
2.880000E+03	6.800914E-17	3.644871E-18
2.920000E+03	7.009135E-17	3.748041E-18
2.960000E+03	7.236792E-17	3.860949E-18
3.000000E+03	7.487529E-17	3.985455E-18
3.010000E+03	7.554120E-17	4.018541E-18
3.020000E+03	7.622022E-17	4.052275E-18
3.030000E+03	7.692459E-17	4.087304E-18
3.040000E+03	7.764317E-17	4.123036E-18
3.050000E+03	7.838832E-17	4.160124E-18
3.060000E+03	7.914892E-17	4.197975E-18
3.070000E+03	7.992547E-17	4.236615E-18
3.080000E+03	8.074258E-17	4.277345E-18
3.090000E+03	8.156513E-17	4.318302E-18
3.100000E+03	8.242990E-17	4.361432E-18
3.110000E+03	8.330150E-17	4.404858E-18
3.120000E+03	8.421706E-17	4.450542E-18
3.130000E+03	8.515320E-17	4.497244E-18
3.140000E+03	8.612311E-17	4.545659E-18
3.150000E+03	8.712777E-17	4.595834E-18
3.160000E+03	8.815574E-17	4.647163E-18
3.170000E+03	8.922062E-17	4.700360E-18
3.180000E+03	9.032356E-17	4.755481E-18
3.190000E+03	9.146581E-17	4.812588E-18
3.200000E+03	9.264853E-17	4.871737E-18
3.210000E+03	9.387329E-17	4.933008E-18
3.220000E+03	9.514134E-17	4.996460E-18
3.230000E+03	9.645433E-17	5.062177E-18
3.240000E+03	9.781367E-17	5.130226E-18
3.250000E+03	9.922103E-17	5.200691E-18
3.260000E+03	1.006781E-16	5.273653E-18
3.270000E+03	1.022001E-16	5.349910E-18
3.280000E+03	1.037622E-16	5.428148E-18
3.290000E+03	1.054070E-16	5.510589E-18
3.300000E+03	1.070957E-16	5.595203E-18
3.310000E+03	1.088580E-16	5.683538E-18
3.320000E+03	1.106825E-16	5.774983E-18
3.330000E+03	1.125858E-16	5.870397E-18
3.340000E+03	1.145704E-16	5.969912E-18
3.350000E+03	1.166251E-16	6.072925E-18
3.360000E+03	1.187671E-16	6.180325E-18
3.370000E+03	1.209848E-16	6.291503E-18
3.380000E+03	1.233110E-16	6.408153E-18
3.390000E+03	1.257195E-16	6.528901E-18
3.400000E+03	1.282286E-16	6.654689E-18
3.410000E+03	1.308576E-16	6.786510E-18
3.420000E+03	1.335798E-16	6.922960E-18
3.430000E+03	1.364145E-16	7.065032E-18
3.440000E+03	1.393819E-16	7.213758E-18
3.450000E+03	1.424708E-16	7.368548E-18
3.460000E+03	1.456858E-16	7.529617E-18
3.470000E+03	1.490316E-16	7.697204E-18
3.480000E+03	1.525299E-16	7.872402E-18
3.490000E+03	1.561862E-16	8.055491E-18
3.500000E+03	1.599892E-16	8.245861E-18
3.510000E+03	1.639616E-16	8.444666E-18
3.520000E+03	1.680916E-16	8.651284E-18
3.530000E+03	1.724027E-16	8.866900E-18
3.540000E+03	1.769193E-16	9.092751E-18
3.550000E+03	1.816113E-16	9.327271E-18
3.560000E+03	1.865033E-16	9.571692E-18
3.570000E+03	1.916013E-16	9.826304E-18
3.580000E+03	1.969308E-16	1.009239E-17
3.590000E+03	2.024791E-16	1.036928E-17
3.600000E+03	2.082521E-16	1.065724E-17
3.610000E+03	2.142545E-16	1.095649E-17
3.620000E+03	2.205111E-16	1.126827E-17
3.630000E+03	2.270270E-16	1.159281E-17
3.640000E+03	2.338061E-16	1.193028E-17
3.650000E+03	2.408306E-16	1.227974E-17
3.660000E+03	2.481246E-16	1.264238E-17
3.670000E+03	2.556904E-16	1.301831E-17
3.680000E+03	2.635296E-16	1.340756E-17
3.690000E+03	2.716664E-16	1.381134E-17
3.700000E+03	2.800547E-16	1.422725E-17
3.710000E+03	2.887401E-16	1.465761E-17
3.720000E+03	2.976975E-16	1.510108E-17
3.730000E+03	3.069485E-16	1.555874E-17
3.740000E+03	3.164900E-16	1.603039E-17
3.750000E+03	3.262920E-16	1.651448E-17
3.760000E+03	3.363738E-16	1.701195E-17
3.770000E+03	3.467282E-16	1.752241E-17
3.780000E+03	3.573471E-16	1.804540E-17
3.790000E+03	3.682205E-16	1.858040E-17
3.800000E+03	3.793373E-16	1.912681E-17
3.810000E+03	3.907126E-16	1.968536E-17
3.820000E+03	4.023050E-16	2.025393E-17
3.830000E+03	4.140988E-16	2.083170E-17
3.840000E+03	4.261348E-16	2.142071E-17
3.850000E+03	4.383375E-16	2.201712E-17
3.860000E+03	4.507166E-16	2.262139E-17
3.870000E+03	4.632517E-16	2.323248E-17
3.880000E+03	4.759210E-16	2.384928E-17
3.890000E+03	4.887014E-16	2.447061E-17
3.900000E+03	5.015692E-16	2.509527E-17
3.910000E+03	5.145306E-16	2.572354E-17
3.920000E+03	5.275292E-16	2.635260E-17
3.930000E+03	5.406023E-16	2.698430E-17
3.940000E+03	5.536292E-16	2.761261E-17
3.950000E+03	5.666789E-16	2.824096E-17
3.960000E+03	5.796939E-16	2.886649E-17
3.970000E+03	5.926164E-16	2.948631E-17
3.980000E+03	6.054863E-16	3.010243E-17
3.990000E+03	6.182476E-16	3.071205E-17
4.000000E+03	6.309104E-16	3.131569E-17
4.010000E+03	6.434211E-16	3.191069E-17
4.020000E+03	6.557608E-16	3.249614E-17
4.030000E+03	6.679780E-16	3.307444E-17
4.040000E+03	6.799924E-16	3.364165E-17
4.050000E+03	6.918251E-16	3.419881E-17
4.060000E+03	7.034668E-16	3.474549E-17
4.070000E+03	7.149113E-16	3.528140E-17
4.080000E+03	7.261558E-16	3.580642E-17
4.090000E+03	7.372007E-16	3.632059E-17
4.100000E+03	7.480821E-16	3.682571E-17
4.110000E+03	7.587749E-16	3.732055E-17
4.120000E+03	7.692898E-16	3.780567E-17
4.130000E+03	7.796733E-16	3.828336E-17
4.140000E+03	7.899427E-16	3.875449E-17
4.150000E+03	8.000873E-16	3.921853E-17
4.160000E+03	8.101630E-16	3.967824E-17
4.170000E+03	8.201655E-16	4.013341E-17
4.180000E+03	8.301876E-16	4.058859E-17
4.190000E+03	8.401997E-16	4.104231E-17
4.200000E+03	8.502387E-16	4.149638E-17
4.210000E+03	8.604025E-16	4.195556E-17
4.220000E+03	8.706696E-16	4.241879E-17
4.230000E+03	8.811135E-16	4.288962E-17
4.240000E+03	8.917761E-16	4.337006E-17
4.250000E+03	9.027034E-16	4.386232E-17
4.260000E+03	9.139105E-16	4.436708E-17
4.270000E+03	9.254733E-16	4.488800E-17
4.280000E+03	9.374113E-16	4.542595E-17
4.290000E+03	9.498009E-16	4.598458E-17
4.300000E+03	9.626602E-16	4.656471E-17
4.310000E+03	9.760665E-16	4.717000E-17
4.320000E+03	9.900375E-16	4.780123E-17
4.330000E+03	1.004620E-15	4.846059E-17
4.340000E+03	1.019861E-15	4.915020E-17
4.350000E+03	1.035774E-15	4.987066E-17
4.360000E+03	1.052459E-15	5.062667E-17
4.370000E+03	1.069897E-15	5.141726E-17
4.380000E+03	1.088129E-15	5.224418E-17
4.390000E+03	1.107185E-15	5.310884E-17
4.400000E+03	1.127098E-15	5.401266E-17
4.410000E+03	1.147893E-15	5.495672E-17
4.420000E+03	1.169561E-15	5.594050E-17
4.430000E+03	1.192148E-15	5.696598E-17
4.440000E+03	1.215605E-15	5.803074E-17
4.450000E+03	1.239962E-15	5.913612E-17
4.460000E+03	1.265187E-15	6.028034E-17
4.470000E+03	1.291295E-15	6.146408E-17
4.480000E+03	1.318206E-15	6.268338E-17
4.490000E+03	1.345890E-15	6.393668E-17
4.500000E+03	1.374338E-15	6.522340E-17
4.510000E+03	1.403442E-15	6.653839E-17
4.520000E+03	1.433175E-15	6.788019E-17
4.530000E+03	1.463443E-15	6.924423E-17
4.540000E+03	1.494141E-15	7.062549E-17
4.550000E+03	1.525190E-15	7.202019E-17
4.560000E+03	1.556533E-15	7.342557E-17
4.570000E+03	1.588021E-15	7.483449E-17
4.580000E+03	1.619557E-15	7.624243E-17
4.590000E+03	1.651017E-15	7.764349E-17
4.600000E+03	1.682337E-15	7.903470E-17
4.610000E+03	1.713364E-15	8.040879E-17
4.620000E+03	1.744040E-15	8.176321E-17
4.630000E+03	1.774256E-15	8.309277E-17
4.640000E+03	1.803906E-15	8.439263E-17
4.650000E+03	1.832929E-15	8.566002E-17
4.660000E+03	1.861273E-15	8.689252E-17
4.670000E+03	1.888869E-15	8.808708E-17
4.680000E+03	1.915692E-15	8.924260E-17
4.690000E+03	1.941698E-15	9.035712E-17
4.700000E+03	1.966889E-15	9.143089E-17
4.710000E+03	1.991280E-15	9.246469E-17
4.720000E+03	2.014833E-15	9.345690E-17
4.730000E+03	2.037618E-15	9.441083E-17
4.740000E+03	2.059682E-15	9.532876E-17
4.750000E+03	2.081014E-15	9.621038E-17
4.760000E+03	2.101706E-15	9.705993E-17
4.770000E+03	2.121788E-15	9.787892E-17
4.780000E+03	2.141323E-15	9.867032E-17
4.790000E+03	2.160339E-15	9.943558E-17
4.800000E+03	2.178927E-15	1.001789E-16
4.810000E+03	2.197076E-15	1.008998E-16
4.820000E+03	2.214861E-15	1.016018E-16
4.830000E+03	2.232289E-15	1.022853E-16
4.840000E+03	2.249382E-15	1.029514E-16
4.850000E+03	2.266157E-15	1.036008E-16
4.860000E+03	2.282585E-15	1.042324E-16
4.870000E+03	2.298689E-15	1.048471E-16
4.880000E+03	2.314419E-15	1.054428E-16
4.890000E+03	2.329745E-15	1.060181E-16
4.900000E+03	2.344629E-15	1.065714E-16
4.910000E+03	2.359026E-15	1.071008E-16
4.920000E+03	2.372853E-15	1.076024E-16
4.930000E+03	2.386089E-15	1.080755E-16
4.940000E+03	2.398649E-15	1.085164E-16
4.950000E+03	2.410513E-15	1.089241E-16
4.960000E+03	2.421636E-15	1.092969E-16
4.970000E+03	2.431951E-15	1.096317E-16
4.980000E+03	2.441431E-15	1.099275E-16
4.990000E+03	2.450097E-15	1.101854E-16
5.000000E+03	2.457951E-15	1.104056E-16
5.010000E+03	2.464984E-15	1.105879E-16
5.020000E+03	2.471299E-15	1.107369E-16
5.030000E+03	2.476894E-15	1.108528E-16
5.040000E+03	2.481913E-15	1.109420E-16
5.050000E+03	2.486390E-15	1.110063E-16
5.060000E+03	2.490535E-15	1.110549E-16
5.070000E+03	2.494418E-15	1.110912E-16
5.080000E+03	2.498214E-15	1.111230E-16
5.090000E+03	2.502075E-15	1.111569E-16
5.100000E+03	2.506161E-15	1.112002E-16
5.110000E+03	2.510661E-15	1.112612E-16
5.120000E+03	2.515731E-15	1.113466E-16
5.130000E+03	2.521550E-15	1.114644E-16
5.140000E+03	2.528201E-15	1.116181E-16
5.150000E+03	2.535896E-15	1.118168E-16
5.160000E+03	2.544714E-15	1.120639E-16
5.170000E+03	2.554742E-15	1.123630E-16
5.180000E+03	2.566108E-15	1.127196E-16
5.190000E+03	2.578796E-15	1.131328E-16
5.200000E+03	2.592886E-15	1.136057E-16
5.210000E+03	2.608375E-15	1.141381E-16
5.220000E+03	2.625237E-15	1.147286E-16
5.230000E+03	2.643453E-15	1.153762E-16
5.240000E+03	2.662951E-15	1.160774E-16
5.250000E+03	2.683640E-15	1.168281E-16
5.260000E+03	2.705439E-15	1.176246E-16
5.270000E+03	2.728251E-15	1.184624E-16
5.280000E+03	2.751900E-15	1.193339E-16
5.290000E+03	2.776228E-15	1.202319E-16
5.300000E+03	2.801124E-15	1.211517E-16
5.310000E+03	2.826410E-15	1.220853E-16
5.320000E+03	2.851894E-15	1.230246E-16
5.330000E+03	2.877384E-15	1.239610E-16
5.340000E+03	2.902711E-15	1.248876E-16
5.350000E+03	2.927710E-15	1.257970E-16
5.360000E+03	2.952120E-15	1.266783E-16
5.370000E+03	2.975848E-15	1.275275E-16
5.380000E+03	2.998647E-15	1.283342E-16
5.390000E+03	3.020414E-15	1.290941E-16
5.400000E+03	3.040991E-15	1.298008E-16
5.410000E+03	3.060245E-15	1.304487E-16
5.420000E+03	3.078057E-15	1.310329E-16
5.430000E+03	3.094366E-15	1.315513E-16
5.440000E+03	3.109101E-15	1.320010E-16
5.450000E+03	3.122181E-15	1.323789E-16
5.460000E+03	3.133649E-15	1.326870E-16
5.470000E+03	3.143502E-15	1.329256E-16
5.480000E+03	3.151729E-15	1.330945E-16
5.490000E+03	3.158402E-15	1.331970E-16
5.500000E+03	3.163565E-15	1.332352E-16
5.510000E+03	3.167266E-15	1.332114E-16
5.520000E+03	3.169464E-15	1.331241E-16
5.530000E+03	3.170259E-15	1.329779E-16
5.540000E+03	3.169698E-15	1.327749E-16
5.550000E+03	3.167774E-15	1.325150E-16
5.560000E+03	3.164652E-15	1.322053E-16
5.570000E+03	3.160338E-15	1.318464E-16
5.580000E+03	3.154917E-15	1.314419E-16
5.590000E+03	3.148507E-15	1.309970E-16
5.600000E+03	3.141169E-15	1.305142E-16
5.610000E+03	3.133030E-15	1.299991E-16
5.620000E+03	3.124129E-15	1.294534E-16
5.630000E+03	3.114634E-15	1.288841E-16
5.640000E+03	3.104624E-15	1.282946E-16
5.650000E+03	3.094215E-15	1.276898E-16
5.660000E+03	3.083502E-15	1.270737E-16
5.670000E+03	3.072651E-15	1.264531E-16
5.680000E+03	3.061780E-15	1.258329E-16
5.690000E+03	3.051020E-15	1.252185E-16
5.700000E+03	3.040607E-15	1.246195E-16
5.710000E+03	3.030647E-15	1.240401E-16
5.720000E+03	3.021405E-15	1.234913E-16
5.730000E+03	3.013041E-15	1.229793E-16
5.740000E+03	3.005817E-15	1.225146E-16
5.750000E+03	2.999908E-15	1.221042E-16
5.760000E+03	2.995603E-15	1.217597E-16
5.770000E+03	2.993041E-15	1.214863E-16
5.780000E+03	2.992458E-15	1.212934E-16
5.790000E+03	2.994010E-15	1.211869E-16
5.800000E+03	2.997846E-15	1.211725E-16
5.810000E+03	3.004048E-15	1.212531E-16
5.820000E+03	3.012680E-15	1.214309E-16
5.830000E+03	3.023748E-15	1.217056E-16
5.840000E+03	3.037148E-15	1.220727E-16
5.850000E+03	3.052768E-15	1.225274E-16
5.860000E+03	3.070438E-15	1.230623E-16
5.870000E+03	3.089926E-15	1.236680E-16
5.880000E+03	3.110891E-15	1.243303E-16
5.890000E+03	3.133003E-15	1.250359E-16
5.900000E+03	3.155859E-15	1.257686E-16
5.910000E+03	3.179096E-15	1.265138E-16
5.920000E+03	3.202216E-15	1.272515E-16
5.930000E+03	3.224869E-15	1.279680E-16
5.940000E+03	3.246602E-15	1.286453E-16
5.950000E+03	3.267023E-15	1.292682E-16
5.960000E+03	3.285805E-15	1.298238E-16
5.970000E+03	3.302673E-15	1.303017E-16
5.980000E+03	3.317380E-15	1.306924E-16
5.990000E+03	3.329771E-15	1.309902E-16
6.000000E+03	3.339692E-15	1.311895E-16
6.010000E+03	3.347113E-15	1.312894E-16
6.020000E+03	3.352058E-15	1.312915E-16
6.030000E+03	3.354608E-15	1.311991E-16
6.040000E+03	3.354852E-15	1.310164E-16
6.050000E+03	3.352916E-15	1.307485E-16
6.060000E+03	3.348979E-15	1.304028E-16
6.070000E+03	3.343209E-15	1.299862E-16
6.080000E+03	3.335840E-15	1.295081E-16
6.090000E+03	3.327044E-15	1.289754E-16
6.100000E+03	3.317018E-15	1.283961E-16
6.110000E+03	3.305887E-15	1.277751E-16
6.120000E+03	3.293877E-15	1.271214E-16
6.130000E+03	3.281111E-15	1.264399E-16
6.140000E+03	3.267715E-15	1.257355E-16
6.150000E+03	3.253773E-15	1.250117E-16
6.160000E+03	3.239375E-15	1.242719E-16
6.170000E+03	3.224624E-15	1.235202E-16
6.180000E+03	3.209577E-15	1.227589E-16
6.190000E+03	3.194249E-15	1.219885E-16
6.200000E+03	3.178706E-15	1.212117E-16
6.210000E+03	3.162944E-15	1.204284E-16
6.220000E+03	3.147019E-15	1.196406E-16
6.230000E+03	3.130982E-15	1.188504E-16
6.240000E+03	3.114833E-15	1.180578E-16
6.250000E+03	3.098608E-15	1.172642E-16
6.260000E+03	3.082386E-15	1.164726E-16
6.270000E+03	3.066257E-15	1.156865E-16
6.280000E+03	3.050281E-15	1.149080E-16
6.290000E+03	3.034620E-15	1.141433E-16
6.300000E+03	3.019381E-15	1.133962E-16
6.310000E+03	3.004783E-15	1.126750E-16
6.320000E+03	2.990990E-15	1.119858E-16
6.330000E+03	2.978250E-15	1.113375E-16
6.340000E+03	2.966811E-15	1.107394E-16
6.350000E+03	2.957025E-15	1.102043E-16
6.360000E+03	2.949134E-15	1.097410E-16
6.370000E+03	2.943470E-15	1.093615E-16
6.380000E+03	2.940404E-15	1.090791E-16
6.390000E+03	2.940227E-15	1.089042E-16
6.400000E+03	2.943301E-15	1.088498E-16
6.410000E+03	2.949893E-15	1.089251E-16
6.420000E+03	2.960349E-15	1.091423E-16
6.430000E+03	2.974841E-15	1.095070E-16
6.440000E+03	2.993603E-15	1.100274E-16
6.450000E+03	3.016785E-15	1.107080E-16
6.460000E+03	3.044405E-15	1.115488E-16
6.470000E+03	3.076486E-15	1.125500E-16
6.480000E+03	3.112932E-15	1.137072E-16
6.490000E+03	3.153459E-15	1.150095E-16
6.500000E+03	3.197820E-15	1.164472E-16
6.510000E+03	3.245570E-15	1.180034E-16
6.520000E+03	3.296152E-15	1.196573E-16
6.530000E+03	3.348898E-15	1.213842E-16
6.540000E+03	3.403026E-15	1.231556E-16
6.550000E+03	3.457600E-15	1.249373E-16
6.560000E+03	3.511544E-15	1.266905E-16
6.570000E+03	3.563842E-15	1.283786E-16
6.580000E+03	3.613369E-15	1.299616E-16
6.590000E+03	3.659130E-15	1.314040E-16
6.600000E+03	3.700056E-15	1.326683E-16
6.610000E+03	3.735324E-15	1.337258E-16
6.620000E+03	3.764171E-15	1.345501E-16
6.630000E+03	3.785961E-15	1.351197E-16
6.640000E+03	3.800347E-15	1.354233E-16
6.650000E+03	3.807105E-15	1.354541E-16
6.660000E+03	3.806163E-15	1.352110E-16
6.670000E+03	3.797707E-15	1.347017E-16
6.680000E+03	3.782060E-15	1.339390E-16
6.690000E+03	3.759693E-15	1.329406E-16
6.700000E+03	3.731233E-15	1.317298E-16
6.710000E+03	3.697328E-15	1.303305E-16
6.720000E+03	3.658725E-15	1.287697E-16
6.730000E+03	3.616241E-15	1.270771E-16
6.740000E+03	3.570669E-15	1.252810E-16
6.750000E+03	3.522781E-15	1.234090E-16
6.760000E+03	3.473320E-15	1.214875E-16
6.770000E+03	3.422941E-15	1.195395E-16
6.780000E+03	3.372351E-15	1.175899E-16
6.790000E+03	3.322047E-15	1.156560E-16
6.800000E+03	3.272598E-15	1.137576E-16
6.810000E+03	3.224360E-15	1.119068E-16
6.820000E+03	3.177765E-15	1.101184E-16
6.830000E+03	3.133073E-15	1.084011E-16
6.840000E+03	3.090482E-15	1.067614E-16
6.850000E+03	3.050242E-15	1.052078E-16
6.860000E+03	3.012447E-15	1.037429E-16
6.870000E+03	2.977184E-15	1.023694E-16
6.880000E+03	2.944468E-15	1.010874E-16
6.890000E+03	2.914378E-15	9.989922E-17
6.900000E+03	2.886838E-15	9.880182E-17
6.910000E+03	2.861840E-15	9.779455E-17
6.920000E+03	2.839357E-15	9.687606E-17
6.930000E+03	2.819218E-15	9.604016E-17
6.940000E+03	2.801427E-15	9.528655E-17
6.950000E+03	2.785815E-15	9.460922E-17
6.960000E+03	2.772272E-15	9.400402E-17
6.970000E+03	2.760702E-15	9.346747E-17
6.980000E+03	2.750979E-15	9.299494E-17
6.990000E+03	2.742910E-15	9.257965E-17
7.000000E+03	2.736419E-15	9.221882E-17
7.010000E+03	2.731374E-15	9.190777E-17
7.020000E+03	2.727581E-15	9.163976E-17
7.030000E+03	2.724944E-15	9.141141E-17
7.040000E+03	2.723341E-15	9.121848E-17
7.050000E+03	2.722661E-15	9.105710E-17
7.060000E+03	2.722803E-15	9.092374E-17
7.070000E+03	2.723641E-15	9.081417E-17
7.080000E+03	2.725127E-15	9.072664E-17
7.090000E+03	2.727189E-15	9.065876E-17
7.100000E+03	2.729738E-15	9.060744E-17
7.110000E+03	2.732723E-15	9.057098E-17
7.120000E+03	2.736102E-15	9.054790E-17
7.130000E+03	2.739835E-15	9.053694E-17
7.140000E+03	2.743924E-15	9.053807E-17
7.150000E+03	2.748270E-15	9.054805E-17
7.160000E+03	2.752873E-15	9.056685E-17
7.170000E+03	2.757695E-15	9.059321E-17
7.180000E+03	2.762695E-15	9.062579E-17
7.190000E+03	2.767790E-15	9.066192E-17
7.200000E+03	2.772925E-15	9.069974E-17
7.210000E+03	2.778065E-15	9.073824E-17
7.220000E+03	2.783104E-15	9.077393E-17
7.230000E+03	2.787960E-15	9.080421E-17
7.240000E+03	2.792543E-15	9.082622E-17
7.250000E+03	2.796757E-15	9.083691E-17
7.260000E+03	2.800502E-15	9.083314E-17
7.270000E+03	2.803676E-15	9.081171E-17
7.280000E+03	2.806141E-15	9.076825E-17
7.290000E+03	2.807862E-15	9.070182E-17
7.300000E+03	2.808643E-15	9.060616E-17
7.310000E+03	2.808461E-15	9.048073E-17
7.320000E+03	2.807234E-15	9.032311E-17
7.330000E+03	2.804862E-15	9.013015E-17
7.340000E+03	2.801289E-15	8.990029E-17
7.350000E+03	2.796478E-15	8.963253E-17
7.360000E+03	2.790441E-15	8.932746E-17
7.370000E+03	2.783110E-15	8.898301E-17
7.380000E+03	2.774569E-15	8.860215E-17
7.390000E+03	2.764785E-15	8.818395E-17
7.400000E+03	2.753849E-15	8.773143E-17
7.410000E+03	2.741865E-15	8.724813E-17
7.420000E+03	2.728852E-15	8.673478E-17
7.430000E+03	2.714946E-15	8.619581E-17
7.440000E+03	2.700257E-15	8.563483E-17
7.450000E+03	2.684908E-15	8.505587E-17
7.460000E+03	2.668992E-15	8.446190E-17
7.470000E+03	2.652709E-15	8.385934E-17
7.480000E+03	2.636124E-15	8.325030E-17
7.490000E+03	2.619404E-15	8.264007E-17
7.500000E+03	2.602676E-15	8.203273E-17
7.510000E+03	2.586031E-15	8.143108E-17
7.520000E+03	2.569653E-15	8.084095E-17
7.530000E+03	2.553613E-15	8.026456E-17
7.540000E+03	2.537973E-15	7.970383E-17
7.550000E+03	2.522883E-15	7.916343E-17
7.560000E+03	2.508343E-15	7.864338E-17
7.570000E+03	2.494474E-15	7.814737E-17
7.580000E+03	2.481246E-15	7.767447E-17
7.590000E+03	2.468747E-15	7.722739E-17
7.600000E+03	2.456948E-15	7.680519E-17
7.610000E+03	2.445870E-15	7.640849E-17
7.620000E+03	2.435453E-15	7.603538E-17
7.630000E+03	2.425652E-15	7.568444E-17
7.640000E+03	2.416443E-15	7.535494E-17
7.650000E+03	2.407722E-15	7.504361E-17
7.660000E+03	2.399443E-15	7.474902E-17
7.670000E+03	2.391483E-15	7.446732E-17
7.680000E+03	2.383780E-15	7.419662E-17
7.690000E+03	2.376235E-15	7.393383E-17
7.700000E+03	2.368752E-15	7.367600E-17
7.710000E+03	2.361233E-15	7.342013E-17
7.720000E+03	2.353591E-15	7.316347E-17
7.730000E+03	2.345710E-15	7.290252E-17
7.740000E+03	2.337586E-15	7.263713E-17
7.750000E+03	2.329127E-15	7.236447E-17
7.760000E+03	2.320289E-15	7.208325E-17
