#wls	flux	fluxerr
1.600000E+03	1.474481E-17	2.236312E-18
1.640000E+03	1.498857E-17	2.269042E-18
1.680000E+03	1.524024E-17	2.302714E-18
1.720000E+03	1.551421E-17	2.339484E-18
1.760000E+03	1.579770E-17	2.377399E-18
1.800000E+03	1.610074E-17	2.417948E-18
1.840000E+03	1.642436E-17	2.461256E-18
1.880000E+03	1.676510E-17	2.506779E-18
1.920000E+03	1.712879E-17	2.555355E-18
1.960000E+03	1.751681E-17	2.607157E-18
2.000000E+03	1.792597E-17	2.661672E-18
2.040000E+03	1.836257E-17	2.719798E-18
2.080000E+03	1.883319E-17	2.782463E-18
2.120000E+03	1.933030E-17	2.848506E-18
2.160000E+03	1.986085E-17	2.918897E-18
2.200000E+03	2.042722E-17	2.993931E-18
2.240000E+03	2.103701E-17	3.074659E-18
2.280000E+03	2.168323E-17	3.159984E-18
2.320000E+03	2.238417E-17	3.252501E-18
2.360000E+03	2.312822E-17	3.350431E-18
2.400000E+03	2.393476E-17	3.456492E-18
2.440000E+03	2.479781E-17	3.569714E-18
2.480000E+03	2.572747E-17	3.691436E-18
2.520000E+03	2.672913E-17	3.822305E-18
2.560000E+03	2.780873E-17	3.963032E-18
2.600000E+03	2.897857E-17	4.115211E-18
2.640000E+03	3.024027E-17	4.278895E-18
2.680000E+03	3.160775E-17	4.455865E-18
2.720000E+03	3.309006E-17	4.647180E-18
2.760000E+03	3.469709E-17	4.853990E-18
2.800000E+03	3.644623E-17	5.078460E-18
2.840000E+03	3.834309E-17	5.321076E-18
2.880000E+03	4.040741E-17	5.584251E-18
2.920000E+03	4.265369E-17	5.869620E-18
2.960000E+03	4.510491E-17	6.179942E-18
3.000000E+03	4.777082E-17	6.516094E-18
3.010000E+03	4.848037E-17	6.605410E-18
3.020000E+03	4.919463E-17	6.695115E-18
3.030000E+03	4.993718E-17	6.788412E-18
3.040000E+03	5.068490E-17	6.882143E-18
3.050000E+03	5.145377E-17	6.978477E-18
3.060000E+03	5.223621E-17	7.076371E-18
3.070000E+03	5.304054E-17	7.176946E-18
3.080000E+03	5.385903E-17	7.279142E-18
3.090000E+03	5.470018E-17	7.384102E-18
3.100000E+03	5.555608E-17	7.490744E-18
3.110000E+03	5.642697E-17	7.599091E-18
3.120000E+03	5.732158E-17	7.710311E-18
3.130000E+03	5.823177E-17	7.823296E-18
3.140000E+03	5.916645E-17	7.939232E-18
3.150000E+03	6.011731E-17	8.056991E-18
3.160000E+03	6.109342E-17	8.177778E-18
3.170000E+03	6.208627E-17	8.300442E-18
3.180000E+03	6.310511E-17	8.426205E-18
3.190000E+03	6.414125E-17	8.553894E-18
3.200000E+03	6.520408E-17	8.684752E-18
3.210000E+03	6.628473E-17	8.817581E-18
3.220000E+03	6.738334E-17	8.952390E-18
3.230000E+03	6.850955E-17	9.090444E-18
3.240000E+03	6.966374E-17	9.231781E-18
3.250000E+03	7.083663E-17	9.375154E-18
3.260000E+03	7.203807E-17	9.521854E-18
3.270000E+03	7.325852E-17	9.670604E-18
3.280000E+03	7.450799E-17	9.822713E-18
3.290000E+03	7.577669E-17	9.976874E-18
3.300000E+03	7.707477E-17	1.013441E-17
3.310000E+03	7.839219E-17	1.029398E-17
3.320000E+03	7.973922E-17	1.045693E-17
3.330000E+03	8.111604E-17	1.062325E-17
3.340000E+03	8.251213E-17	1.079156E-17
3.350000E+03	8.393799E-17	1.096321E-17
3.360000E+03	8.538278E-17	1.113677E-17
3.370000E+03	8.685709E-17	1.131360E-17
3.380000E+03	8.834977E-17	1.149225E-17
3.390000E+03	8.988265E-17	1.167552E-17
3.400000E+03	9.142195E-17	1.185903E-17
3.410000E+03	9.300090E-17	1.204705E-17
3.420000E+03	9.459638E-17	1.223659E-17
3.430000E+03	9.620756E-17	1.242751E-17
3.440000E+03	9.785698E-17	1.262272E-17
3.450000E+03	9.950870E-17	1.281756E-17
3.460000E+03	1.011971E-16	1.301646E-17
3.470000E+03	1.028975E-16	1.321621E-17
3.480000E+03	1.046207E-16	1.341818E-17
3.490000E+03	1.063654E-16	1.362222E-17
3.500000E+03	1.081180E-16	1.382655E-17
3.510000E+03	1.098892E-16	1.403253E-17
3.520000E+03	1.116774E-16	1.423996E-17
3.530000E+03	1.134682E-16	1.444699E-17
3.540000E+03	1.152724E-16	1.465497E-17
3.550000E+03	1.170882E-16	1.486367E-17
3.560000E+03	1.189006E-16	1.507118E-17
3.570000E+03	1.207205E-16	1.527889E-17
3.580000E+03	1.225461E-16	1.548655E-17
3.590000E+03	1.243755E-16	1.569393E-17
3.600000E+03	1.262072E-16	1.590082E-17
3.610000E+03	1.280263E-16	1.610534E-17
3.620000E+03	1.298445E-16	1.630898E-17
3.630000E+03	1.316471E-16	1.650989E-17
3.640000E+03	1.334604E-16	1.671136E-17
3.650000E+03	1.352561E-16	1.690985E-17
3.660000E+03	1.370470E-16	1.710696E-17
3.670000E+03	1.388322E-16	1.730260E-17
3.680000E+03	1.406111E-16	1.749666E-17
3.690000E+03	1.423688E-16	1.768731E-17
3.700000E+03	1.441187E-16	1.787621E-17
3.710000E+03	1.458599E-16	1.806325E-17
3.720000E+03	1.475915E-16	1.824835E-17
3.730000E+03	1.493132E-16	1.843143E-17
3.740000E+03	1.510093E-16	1.861058E-17
3.750000E+03	1.527080E-16	1.878928E-17
3.760000E+03	1.543795E-16	1.896386E-17
3.770000E+03	1.560374E-16	1.913601E-17
3.780000E+03	1.576664E-16	1.930384E-17
3.790000E+03	1.592946E-16	1.947081E-17
3.800000E+03	1.609065E-16	1.963504E-17
3.810000E+03	1.624868E-16	1.979465E-17
3.820000E+03	1.640490E-16	1.995131E-17
3.830000E+03	1.655924E-16	2.010493E-17
3.840000E+03	1.671162E-16	2.025542E-17
3.850000E+03	1.686195E-16	2.040270E-17
3.860000E+03	1.701016E-16	2.054667E-17
3.870000E+03	1.715467E-16	2.068545E-17
3.880000E+03	1.729840E-16	2.082257E-17
3.890000E+03	1.743832E-16	2.095439E-17
3.900000E+03	1.757584E-16	2.108262E-17
3.910000E+03	1.771091E-16	2.120720E-17
3.920000E+03	1.784350E-16	2.132814E-17
3.930000E+03	1.797355E-16	2.144534E-17
3.940000E+03	1.809957E-16	2.155706E-17
3.950000E+03	1.822450E-16	2.166682E-17
3.960000E+03	1.834537E-16	2.177108E-17
3.970000E+03	1.846514E-16	2.187339E-17
3.980000E+03	1.858088E-16	2.197028E-17
3.990000E+03	1.869410E-16	2.206356E-17
4.000000E+03	1.880485E-16	2.215328E-17
4.010000E+03	1.891320E-16	2.223957E-17
4.020000E+03	1.901924E-16	2.232252E-17
4.030000E+03	1.912161E-16	2.240057E-17
4.040000E+03	1.922338E-16	2.247732E-17
4.050000E+03	1.932182E-16	2.254958E-17
4.060000E+03	1.942000E-16	2.262094E-17
4.070000E+03	1.951528E-16	2.268835E-17
4.080000E+03	1.960933E-16	2.275376E-17
4.090000E+03	1.970249E-16	2.281755E-17
4.100000E+03	1.979506E-16	2.288010E-17
4.110000E+03	1.988603E-16	2.294021E-17
4.120000E+03	1.997860E-16	2.300161E-17
4.130000E+03	2.007043E-16	2.306158E-17
4.140000E+03	2.016340E-16	2.312226E-17
4.150000E+03	2.025801E-16	2.318425E-17
4.160000E+03	2.035481E-16	2.324813E-17
4.170000E+03	2.045435E-16	2.331453E-17
4.180000E+03	2.055722E-16	2.338409E-17
4.190000E+03	2.066262E-16	2.345588E-17
4.200000E+03	2.077389E-16	2.353366E-17
4.210000E+03	2.088884E-16	2.361490E-17
4.220000E+03	2.100943E-16	2.370181E-17
4.230000E+03	2.113483E-16	2.379340E-17
4.240000E+03	2.126831E-16	2.389329E-17
4.250000E+03	2.140763E-16	2.399893E-17
4.260000E+03	2.155464E-16	2.411234E-17
4.270000E+03	2.170977E-16	2.423392E-17
4.280000E+03	2.187342E-16	2.436409E-17
4.290000E+03	2.204460E-16	2.450166E-17
4.300000E+03	2.222501E-16	2.464845E-17
4.310000E+03	2.241492E-16	2.480471E-17
4.320000E+03	2.261460E-16	2.497065E-17
4.330000E+03	2.282293E-16	2.514497E-17
4.340000E+03	2.304145E-16	2.532929E-17
4.350000E+03	2.327037E-16	2.552376E-17
4.360000E+03	2.350985E-16	2.572847E-17
4.370000E+03	2.375864E-16	2.594198E-17
4.380000E+03	2.401826E-16	2.616587E-17
4.390000E+03	2.428743E-16	2.639865E-17
4.400000E+03	2.456764E-16	2.664187E-17
4.410000E+03	2.485898E-16	2.689554E-17
4.420000E+03	2.516013E-16	2.715815E-17
4.430000E+03	2.547251E-16	2.743114E-17
4.440000E+03	2.579618E-16	2.771447E-17
4.450000E+03	2.612971E-16	2.800655E-17
4.460000E+03	2.647447E-16	2.830874E-17
4.470000E+03	2.682897E-16	2.861936E-17
4.480000E+03	2.719451E-16	2.893971E-17
4.490000E+03	2.756943E-16	2.926794E-17
4.500000E+03	2.795490E-16	2.960522E-17
4.510000E+03	2.835056E-16	2.995107E-17
4.520000E+03	2.875444E-16	3.030333E-17
4.530000E+03	2.916589E-16	3.066125E-17
4.540000E+03	2.958565E-16	3.102552E-17
4.550000E+03	3.001132E-16	3.139359E-17
4.560000E+03	3.044340E-16	3.176590E-17
4.570000E+03	3.087926E-16	3.213967E-17
4.580000E+03	3.131767E-16	3.251360E-17
4.590000E+03	3.175898E-16	3.288800E-17
4.600000E+03	3.220041E-16	3.325998E-17
4.610000E+03	3.264238E-16	3.362996E-17
4.620000E+03	3.308223E-16	3.399520E-17
4.630000E+03	3.351901E-16	3.435475E-17
4.640000E+03	3.395358E-16	3.470950E-17
4.650000E+03	3.438212E-16	3.505555E-17
4.660000E+03	3.480910E-16	3.539752E-17
4.670000E+03	3.522950E-16	3.573031E-17
4.680000E+03	3.564499E-16	3.605566E-17
4.690000E+03	3.605752E-16	3.637557E-17
4.700000E+03	3.646591E-16	3.668889E-17
4.710000E+03	3.687087E-16	3.699635E-17
4.720000E+03	3.727490E-16	3.730047E-17
4.730000E+03	3.767566E-16	3.759895E-17
4.740000E+03	3.807762E-16	3.789622E-17
4.750000E+03	3.847854E-16	3.819008E-17
4.760000E+03	3.888297E-16	3.848504E-17
4.770000E+03	3.929036E-16	3.878052E-17
4.780000E+03	3.970177E-16	3.907753E-17
4.790000E+03	4.011813E-16	3.937697E-17
4.800000E+03	4.054022E-16	3.967954E-17
4.810000E+03	4.096860E-16	3.998577E-17
4.820000E+03	4.140190E-16	4.029425E-17
4.830000E+03	4.184369E-16	4.060841E-17
4.840000E+03	4.229209E-16	4.092638E-17
4.850000E+03	4.274674E-16	4.124774E-17
4.860000E+03	4.320703E-16	4.157187E-17
4.870000E+03	4.367040E-16	4.189625E-17
4.880000E+03	4.413941E-16	4.222333E-17
4.890000E+03	4.460945E-16	4.254866E-17
4.900000E+03	4.508111E-16	4.287281E-17
4.910000E+03	4.555323E-16	4.319465E-17
4.920000E+03	4.602461E-16	4.351305E-17
4.930000E+03	4.649410E-16	4.382696E-17
4.940000E+03	4.695882E-16	4.413369E-17
4.950000E+03	4.741962E-16	4.443408E-17
4.960000E+03	4.787571E-16	4.472742E-17
4.970000E+03	4.832642E-16	4.501316E-17
4.980000E+03	4.876945E-16	4.528922E-17
4.990000E+03	4.920643E-16	4.555716E-17
5.000000E+03	4.963545E-16	4.581530E-17
5.010000E+03	5.006049E-16	4.606738E-17
5.020000E+03	5.047835E-16	4.631050E-17
5.030000E+03	5.088985E-16	4.654548E-17
5.040000E+03	5.129803E-16	4.677519E-17
5.050000E+03	5.170442E-16	4.700104E-17
5.060000E+03	5.211092E-16	4.722477E-17
5.070000E+03	5.251784E-16	4.744672E-17
5.080000E+03	5.292777E-16	4.766919E-17
5.090000E+03	5.334543E-16	4.789644E-17
5.100000E+03	5.377196E-16	4.812942E-17
5.110000E+03	5.421244E-16	4.837264E-17
5.120000E+03	5.467001E-16	4.862878E-17
5.130000E+03	5.514585E-16	4.889876E-17
5.140000E+03	5.564273E-16	4.918491E-17
5.150000E+03	5.616509E-16	4.949097E-17
5.160000E+03	5.671295E-16	4.981681E-17
5.170000E+03	5.728976E-16	5.016523E-17
5.180000E+03	5.789437E-16	5.053503E-17
5.190000E+03	5.852899E-16	5.092793E-17
5.200000E+03	5.919120E-16	5.134161E-17
5.210000E+03	5.987998E-16	5.177500E-17
5.220000E+03	6.059380E-16	5.222660E-17
5.230000E+03	6.133275E-16	5.269631E-17
5.240000E+03	6.209251E-16	5.318027E-17
5.250000E+03	6.287261E-16	5.367795E-17
5.260000E+03	6.366830E-16	5.418518E-17
5.270000E+03	6.447679E-16	5.469951E-17
5.280000E+03	6.529522E-16	5.521846E-17
5.290000E+03	6.612294E-16	5.574146E-17
5.300000E+03	6.695284E-16	5.626251E-17
5.310000E+03	6.778653E-16	5.678298E-17
5.320000E+03	6.862133E-16	5.730067E-17
5.330000E+03	6.945014E-16	5.780971E-17
5.340000E+03	7.027476E-16	5.831169E-17
5.350000E+03	7.108796E-16	5.880074E-17
5.360000E+03	7.189148E-16	5.927842E-17
5.370000E+03	7.268234E-16	5.974243E-17
5.380000E+03	7.345277E-16	6.018656E-17
5.390000E+03	7.420150E-16	6.061000E-17
5.400000E+03	7.492700E-16	6.101172E-17
5.410000E+03	7.562032E-16	6.138471E-17
5.420000E+03	7.628151E-16	6.172930E-17
5.430000E+03	7.690327E-16	6.203993E-17
5.440000E+03	7.748039E-16	6.231277E-17
5.450000E+03	7.800757E-16	6.254394E-17
5.460000E+03	7.847953E-16	6.272968E-17
5.470000E+03	7.889122E-16	6.286641E-17
5.480000E+03	7.923798E-16	6.295093E-17
5.490000E+03	7.951566E-16	6.298050E-17
5.500000E+03	7.972101E-16	6.295308E-17
5.510000E+03	7.985202E-16	6.286767E-17
5.520000E+03	7.990782E-16	6.272414E-17
5.530000E+03	7.988865E-16	6.252326E-17
5.540000E+03	7.979602E-16	6.226676E-17
5.550000E+03	7.963271E-16	6.195733E-17
5.560000E+03	7.940286E-16	6.159862E-17
5.570000E+03	7.911184E-16	6.119519E-17
5.580000E+03	7.876612E-16	6.075242E-17
5.590000E+03	7.837305E-16	6.027627E-17
5.600000E+03	7.794068E-16	5.977319E-17
5.610000E+03	7.747506E-16	5.924802E-17
5.620000E+03	7.698921E-16	5.871085E-17
5.630000E+03	7.648688E-16	5.816462E-17
5.640000E+03	7.597823E-16	5.761708E-17
5.650000E+03	7.547067E-16	5.707385E-17
5.660000E+03	7.497110E-16	5.654006E-17
5.670000E+03	7.448595E-16	5.602044E-17
5.680000E+03	7.402123E-16	5.551939E-17
5.690000E+03	7.358061E-16	5.503947E-17
5.700000E+03	7.317398E-16	5.458787E-17
5.710000E+03	7.280287E-16	5.416549E-17
5.720000E+03	7.247524E-16	5.377799E-17
5.730000E+03	7.219716E-16	5.342956E-17
5.740000E+03	7.197286E-16	5.312302E-17
5.750000E+03	7.181282E-16	5.286571E-17
5.760000E+03	7.171934E-16	5.265894E-17
5.770000E+03	7.170056E-16	5.250826E-17
5.780000E+03	7.176205E-16	5.241730E-17
5.790000E+03	7.190661E-16	5.238763E-17
5.800000E+03	7.213980E-16	5.242281E-17
5.810000E+03	7.246366E-16	5.252381E-17
5.820000E+03	7.287836E-16	5.269025E-17
5.830000E+03	7.338182E-16	5.292014E-17
5.840000E+03	7.396748E-16	5.320827E-17
5.850000E+03	7.463021E-16	5.355053E-17
5.860000E+03	7.535815E-16	5.393801E-17
5.870000E+03	7.614309E-16	5.436452E-17
5.880000E+03	7.696626E-16	5.481641E-17
5.890000E+03	7.781322E-16	5.528324E-17
5.900000E+03	7.866409E-16	5.575080E-17
5.910000E+03	7.950253E-16	5.620755E-17
5.920000E+03	8.031024E-16	5.664066E-17
5.930000E+03	8.106969E-16	5.703798E-17
5.940000E+03	8.176264E-16	5.738696E-17
5.950000E+03	8.237735E-16	5.767973E-17
5.960000E+03	8.290239E-16	5.790873E-17
5.970000E+03	8.332688E-16	5.806683E-17
5.980000E+03	8.364746E-16	5.815220E-17
5.990000E+03	8.386152E-16	5.816356E-17
6.000000E+03	8.396712E-16	5.810008E-17
6.010000E+03	8.396957E-16	5.796595E-17
6.020000E+03	8.387432E-16	5.776544E-17
6.030000E+03	8.368674E-16	5.750268E-17
6.040000E+03	8.341836E-16	5.718602E-17
6.050000E+03	8.307971E-16	5.682305E-17
6.060000E+03	8.267991E-16	5.642029E-17
6.070000E+03	8.223292E-16	5.598753E-17
6.080000E+03	8.175031E-16	5.553283E-17
6.090000E+03	8.124105E-16	5.506244E-17
6.100000E+03	8.071764E-16	5.458488E-17
6.110000E+03	8.018928E-16	5.410645E-17
6.120000E+03	7.966183E-16	5.363108E-17
6.130000E+03	7.914404E-16	5.316464E-17
6.140000E+03	7.863918E-16	5.270926E-17
6.150000E+03	7.815551E-16	5.227040E-17
6.160000E+03	7.768987E-16	5.184585E-17
6.170000E+03	7.725067E-16	5.144112E-17
6.180000E+03	7.683537E-16	5.105440E-17
6.190000E+03	7.644712E-16	5.068767E-17
6.200000E+03	7.608673E-16	5.034133E-17
6.210000E+03	7.575279E-16	5.001436E-17
6.220000E+03	7.544781E-16	4.970828E-17
6.230000E+03	7.517222E-16	4.942325E-17
6.240000E+03	7.492450E-16	4.915816E-17
6.250000E+03	7.470717E-16	4.891455E-17
6.260000E+03	7.452092E-16	4.869274E-17
6.270000E+03	7.436490E-16	4.849207E-17
6.280000E+03	7.424253E-16	4.831464E-17
6.290000E+03	7.415598E-16	4.816174E-17
6.300000E+03	7.410813E-16	4.803511E-17
6.310000E+03	7.410082E-16	4.793580E-17
6.320000E+03	7.414069E-16	4.786796E-17
6.330000E+03	7.423347E-16	4.783510E-17
6.340000E+03	7.438390E-16	4.784012E-17
6.350000E+03	7.460353E-16	4.789023E-17
6.360000E+03	7.489695E-16	4.798814E-17
6.370000E+03	7.527331E-16	4.813946E-17
6.380000E+03	7.574613E-16	4.835257E-17
6.390000E+03	7.632132E-16	4.863092E-17
6.400000E+03	7.701053E-16	4.898162E-17
6.410000E+03	7.782296E-16	4.941015E-17
6.420000E+03	7.876691E-16	4.992142E-17
6.430000E+03	7.984928E-16	5.051942E-17
6.440000E+03	8.107298E-16	5.120559E-17
6.450000E+03	8.244272E-16	5.198253E-17
6.460000E+03	8.395815E-16	5.284963E-17
6.470000E+03	8.561548E-16	5.380415E-17
6.480000E+03	8.740698E-16	5.484091E-17
6.490000E+03	8.931816E-16	5.595048E-17
6.500000E+03	9.133690E-16	5.712495E-17
6.510000E+03	9.343687E-16	5.834760E-17
6.520000E+03	9.559415E-16	5.960329E-17
6.530000E+03	9.777801E-16	6.087274E-17
6.540000E+03	9.995494E-16	6.213506E-17
6.550000E+03	1.020754E-15	6.335951E-17
6.560000E+03	1.041033E-15	6.452387E-17
6.570000E+03	1.059911E-15	6.559901E-17
6.580000E+03	1.076949E-15	6.655812E-17
6.590000E+03	1.091734E-15	6.737609E-17
6.600000E+03	1.103892E-15	6.803058E-17
6.610000E+03	1.113083E-15	6.850113E-17
6.620000E+03	1.119121E-15	6.877712E-17
6.630000E+03	1.121815E-15	6.884754E-17
6.640000E+03	1.121092E-15	6.870868E-17
6.650000E+03	1.116932E-15	6.836007E-17
6.660000E+03	1.109488E-15	6.781190E-17
6.670000E+03	1.098903E-15	6.707364E-17
6.680000E+03	1.085417E-15	6.616053E-17
6.690000E+03	1.069320E-15	6.509090E-17
6.700000E+03	1.050943E-15	6.388551E-17
6.710000E+03	1.030645E-15	6.256657E-17
6.720000E+03	1.008823E-15	6.115854E-17
6.730000E+03	9.857922E-16	5.968083E-17
6.740000E+03	9.619645E-16	5.815863E-17
6.750000E+03	9.376528E-16	5.661095E-17
6.760000E+03	9.131463E-16	5.505532E-17
6.770000E+03	8.887771E-16	5.351173E-17
6.780000E+03	8.647920E-16	5.199497E-17
6.790000E+03	8.413581E-16	5.051496E-17
6.800000E+03	8.187002E-16	4.908501E-17
6.810000E+03	7.969196E-16	4.771099E-17
6.820000E+03	7.761953E-16	4.640338E-17
6.830000E+03	7.565502E-16	4.516324E-17
6.840000E+03	7.380677E-16	4.399529E-17
6.850000E+03	7.208082E-16	4.290283E-17
6.860000E+03	7.047747E-16	4.188569E-17
6.870000E+03	6.899752E-16	4.094405E-17
6.880000E+03	6.764246E-16	4.007846E-17
6.890000E+03	6.640900E-16	3.928664E-17
6.900000E+03	6.529500E-16	3.856700E-17
6.910000E+03	6.429766E-16	3.791756E-17
6.920000E+03	6.341539E-16	3.733707E-17
6.930000E+03	6.264268E-16	3.682196E-17
6.940000E+03	6.197715E-16	3.637053E-17
6.950000E+03	6.141276E-16	3.597893E-17
6.960000E+03	6.094495E-16	3.564419E-17
6.970000E+03	6.056901E-16	3.536327E-17
6.980000E+03	6.028181E-16	3.513408E-17
6.990000E+03	6.007847E-16	3.495348E-17
7.000000E+03	5.995089E-16	3.481652E-17
7.010000E+03	5.989927E-16	3.472305E-17
7.020000E+03	5.991404E-16	3.466731E-17
7.030000E+03	5.999413E-16	3.464843E-17
7.040000E+03	6.013541E-16	3.466381E-17
7.050000E+03	6.033067E-16	3.470909E-17
7.060000E+03	6.058139E-16	3.478493E-17
7.070000E+03	6.088096E-16	3.488732E-17
7.080000E+03	6.122643E-16	3.501439E-17
7.090000E+03	6.161678E-16	3.516540E-17
7.100000E+03	6.204779E-16	3.533775E-17
7.110000E+03	6.251883E-16	3.553091E-17
7.120000E+03	6.302579E-16	3.574241E-17
7.130000E+03	6.356800E-16	3.597170E-17
7.140000E+03	6.414102E-16	3.621613E-17
7.150000E+03	6.474364E-16	3.647488E-17
7.160000E+03	6.537050E-16	3.674481E-17
7.170000E+03	6.601922E-16	3.702446E-17
7.180000E+03	6.668295E-16	3.730991E-17
7.190000E+03	6.735761E-16	3.759880E-17
7.200000E+03	6.803630E-16	3.788723E-17
7.210000E+03	6.870910E-16	3.816965E-17
7.220000E+03	6.936887E-16	3.844214E-17
7.230000E+03	7.000366E-16	3.869812E-17
7.240000E+03	7.060458E-16	3.893279E-17
7.250000E+03	7.115817E-16	3.913889E-17
7.260000E+03	7.165461E-16	3.931122E-17
7.270000E+03	7.208204E-16	3.944357E-17
7.280000E+03	7.242684E-16	3.952878E-17
7.290000E+03	7.268025E-16	3.956248E-17
7.300000E+03	7.283256E-16	3.953981E-17
7.310000E+03	7.287345E-16	3.945565E-17
7.320000E+03	7.279874E-16	3.930826E-17
7.330000E+03	7.260215E-16	3.909483E-17
7.340000E+03	7.228404E-16	3.881613E-17
7.350000E+03	7.184517E-16	3.847314E-17
7.360000E+03	7.128660E-16	3.806706E-17
7.370000E+03	7.061805E-16	3.760363E-17
7.380000E+03	6.984088E-16	3.708416E-17
7.390000E+03	6.897073E-16	3.651747E-17
7.400000E+03	6.801434E-16	3.590760E-17
7.410000E+03	6.698568E-16	3.526238E-17
7.420000E+03	6.589540E-16	3.458779E-17
7.430000E+03	6.475852E-16	3.389204E-17
7.440000E+03	6.358811E-16	3.318222E-17
7.450000E+03	6.239708E-16	3.246527E-17
7.460000E+03	6.119615E-16	3.174691E-17
7.470000E+03	5.999924E-16	3.103442E-17
7.480000E+03	5.881777E-16	3.033375E-17
7.490000E+03	5.766070E-16	2.964947E-17
7.500000E+03	5.653981E-16	2.898758E-17
7.510000E+03	5.546428E-16	2.835263E-17
7.520000E+03	5.444252E-16	2.774875E-17
7.530000E+03	5.348049E-16	2.717879E-17
7.540000E+03	5.258667E-16	2.664680E-17
7.550000E+03	5.176705E-16	2.615555E-17
7.560000E+03	5.102523E-16	2.570658E-17
7.570000E+03	5.036871E-16	2.530334E-17
7.580000E+03	4.979786E-16	2.494571E-17
7.590000E+03	4.931530E-16	2.463466E-17
7.600000E+03	4.892571E-16	2.437222E-17
7.610000E+03	4.862665E-16	2.415683E-17
7.620000E+03	4.841913E-16	2.398868E-17
7.630000E+03	4.830139E-16	2.386660E-17
7.640000E+03	4.827041E-16	2.378882E-17
7.650000E+03	4.832022E-16	2.375214E-17
7.660000E+03	4.844645E-16	2.375422E-17
7.670000E+03	4.864181E-16	2.379129E-17
7.680000E+03	4.889764E-16	2.385899E-17
7.690000E+03	4.920254E-16	2.395167E-17
7.700000E+03	4.954881E-16	2.406555E-17
7.710000E+03	4.992184E-16	2.419354E-17
7.720000E+03	5.031137E-16	2.433075E-17
7.730000E+03	5.070399E-16	2.447080E-17
7.740000E+03	5.109150E-16	2.460987E-17
7.750000E+03	5.145990E-16	2.474142E-17
7.760000E+03	5.180097E-16	2.486171E-17
