#wls	flux	fluxerr
1.600000E+03	1.696724E-18	3.726526E-19
1.640000E+03	1.746142E-18	3.821008E-19
1.680000E+03	1.798550E-18	3.920894E-19
1.720000E+03	1.854910E-18	4.028168E-19
1.760000E+03	1.914795E-18	4.141767E-19
1.800000E+03	1.978493E-18	4.262186E-19
1.840000E+03	2.047098E-18	4.391625E-19
1.880000E+03	2.121016E-18	4.530775E-19
1.920000E+03	2.199878E-18	4.678653E-19
1.960000E+03	2.284105E-18	4.835961E-19
2.000000E+03	2.375033E-18	5.005298E-19
2.040000E+03	2.472356E-18	5.185760E-19
2.080000E+03	2.577564E-18	5.380203E-19
2.120000E+03	2.690414E-18	5.587802E-19
2.160000E+03	2.812588E-18	5.811709E-19
2.200000E+03	2.944951E-18	6.053319E-19
2.240000E+03	3.087393E-18	6.311976E-19
2.280000E+03	3.240847E-18	6.589136E-19
2.320000E+03	3.407497E-18	6.888719E-19
2.360000E+03	3.588617E-18	7.212707E-19
2.400000E+03	3.784364E-18	7.560756E-19
2.440000E+03	3.997444E-18	7.937562E-19
2.480000E+03	4.228195E-18	8.342984E-19
2.520000E+03	4.479758E-18	8.782330E-19
2.560000E+03	4.754213E-18	9.258649E-19
2.600000E+03	5.052267E-18	9.772191E-19
2.640000E+03	5.377874E-18	1.032936E-18
2.680000E+03	5.732040E-18	1.093069E-18
2.720000E+03	6.119393E-18	1.158345E-18
2.760000E+03	6.543269E-18	1.229217E-18
2.800000E+03	7.005232E-18	1.305785E-18
2.840000E+03	7.511136E-18	1.388921E-18
2.880000E+03	8.065340E-18	1.479186E-18
2.920000E+03	8.670093E-18	1.576718E-18
2.960000E+03	9.335440E-18	1.683040E-18
3.000000E+03	1.005897E-17	1.797374E-18
3.010000E+03	1.025070E-17	1.827481E-18
3.020000E+03	1.044667E-17	1.858170E-18
3.030000E+03	1.064998E-17	1.889980E-18
3.040000E+03	1.085478E-17	1.921869E-18
3.050000E+03	1.106412E-17	1.954370E-18
3.060000E+03	1.127808E-17	1.987492E-18
3.070000E+03	1.149996E-17	2.021808E-18
3.080000E+03	1.172354E-17	2.056214E-18
3.090000E+03	1.195205E-17	2.091274E-18
3.100000E+03	1.218895E-17	2.127584E-18
3.110000E+03	1.242770E-17	2.163992E-18
3.120000E+03	1.267516E-17	2.201688E-18
3.130000E+03	1.292459E-17	2.239488E-18
3.140000E+03	1.318307E-17	2.278616E-18
3.150000E+03	1.344726E-17	2.318480E-18
3.160000E+03	1.371358E-17	2.358456E-18
3.170000E+03	1.398949E-17	2.399819E-18
3.180000E+03	1.427148E-17	2.441954E-18
3.190000E+03	1.455966E-17	2.484872E-18
3.200000E+03	1.485417E-17	2.528586E-18
3.210000E+03	1.515110E-17	2.572421E-18
3.220000E+03	1.545857E-17	2.617749E-18
3.230000E+03	1.577277E-17	2.663908E-18
3.240000E+03	1.609806E-17	2.711624E-18
3.250000E+03	1.642617E-17	2.759489E-18
3.260000E+03	1.676142E-17	2.808220E-18
3.270000E+03	1.710393E-17	2.857829E-18
3.280000E+03	1.745386E-17	2.908329E-18
3.290000E+03	1.781135E-17	2.959729E-18
3.300000E+03	1.818126E-17	3.012825E-18
3.310000E+03	1.855440E-17	3.066076E-18
3.320000E+03	1.894044E-17	3.121071E-18
3.330000E+03	1.932985E-17	3.176221E-18
3.340000E+03	1.972758E-17	3.232334E-18
3.350000E+03	2.013894E-17	3.290260E-18
3.360000E+03	2.055913E-17	3.349195E-18
3.370000E+03	2.098297E-17	3.408286E-18
3.380000E+03	2.142121E-17	3.469263E-18
3.390000E+03	2.186877E-17	3.531284E-18
3.400000E+03	2.232022E-17	3.593457E-18
3.410000E+03	2.278685E-17	3.657588E-18
3.420000E+03	2.326333E-17	3.722796E-18
3.430000E+03	2.374981E-17	3.789091E-18
3.440000E+03	2.424648E-17	3.856485E-18
3.450000E+03	2.475351E-17	3.924986E-18
3.460000E+03	2.527108E-17	3.994604E-18
3.470000E+03	2.579935E-17	4.065345E-18
3.480000E+03	2.633849E-17	4.137218E-18
3.490000E+03	2.688868E-17	4.210230E-18
3.500000E+03	2.745007E-17	4.284386E-18
3.510000E+03	2.802283E-17	4.359691E-18
3.520000E+03	2.861406E-17	4.437227E-18
3.530000E+03	2.921014E-17	4.514854E-18
3.540000E+03	2.981804E-17	4.593638E-18
3.550000E+03	3.044522E-17	4.674701E-18
3.560000E+03	3.107728E-17	4.755805E-18
3.570000E+03	3.172154E-17	4.838056E-18
3.580000E+03	3.238582E-17	4.922620E-18
3.590000E+03	3.305488E-17	5.007153E-18
3.600000E+03	3.374438E-17	5.094007E-18
3.610000E+03	3.444665E-17	5.181993E-18
3.620000E+03	3.515342E-17	5.269845E-18
3.630000E+03	3.588112E-17	5.360006E-18
3.640000E+03	3.662159E-17	5.451224E-18
3.650000E+03	3.737476E-17	5.543466E-18
3.660000E+03	3.813169E-17	5.635383E-18
3.670000E+03	3.890989E-17	5.729544E-18
3.680000E+03	3.970051E-17	5.824610E-18
3.690000E+03	4.050338E-17	5.920533E-18
3.700000E+03	4.131833E-17	6.017262E-18
3.710000E+03	4.214516E-17	6.114743E-18
3.720000E+03	4.298362E-17	6.212916E-18
3.730000E+03	4.383343E-17	6.311717E-18
3.740000E+03	4.469432E-17	6.411082E-18
3.750000E+03	4.556594E-17	6.510937E-18
3.760000E+03	4.645845E-17	6.612706E-18
3.770000E+03	4.735063E-17	6.713337E-18
3.780000E+03	4.825238E-17	6.814226E-18
3.790000E+03	4.916326E-17	6.915289E-18
3.800000E+03	5.009398E-17	7.018004E-18
3.810000E+03	5.102182E-17	7.119162E-18
3.820000E+03	5.196881E-17	7.221823E-18
3.830000E+03	5.291146E-17	7.322698E-18
3.840000E+03	5.386055E-17	7.423273E-18
3.850000E+03	5.482751E-17	7.525102E-18
3.860000E+03	5.580000E-17	7.626459E-18
3.870000E+03	5.676491E-17	7.725545E-18
3.880000E+03	5.774621E-17	7.825615E-18
3.890000E+03	5.871817E-17	7.923163E-18
3.900000E+03	5.970540E-17	8.021505E-18
3.910000E+03	6.069464E-17	8.118835E-18
3.920000E+03	6.167172E-17	8.213254E-18
3.930000E+03	6.266231E-17	8.308183E-18
3.940000E+03	6.365253E-17	8.401759E-18
3.950000E+03	6.464162E-17	8.493876E-18
3.960000E+03	6.562878E-17	8.584427E-18
3.970000E+03	6.661318E-17	8.673298E-18
3.980000E+03	6.759414E-17	8.760401E-18
3.990000E+03	6.855638E-17	8.843766E-18
4.000000E+03	6.952792E-17	8.927019E-18
4.010000E+03	7.049382E-17	9.008226E-18
4.020000E+03	7.145336E-17	9.087301E-18
4.030000E+03	7.240584E-17	9.164160E-18
4.040000E+03	7.336597E-17	9.240664E-18
4.050000E+03	7.430279E-17	9.312912E-18
4.060000E+03	7.523085E-17	9.382755E-18
4.070000E+03	7.614963E-17	9.450142E-18
4.080000E+03	7.705884E-17	9.515046E-18
4.090000E+03	7.795789E-17	9.577409E-18
4.100000E+03	7.886278E-17	9.639199E-18
4.110000E+03	7.974102E-17	9.696450E-18
4.120000E+03	8.060838E-17	9.751113E-18
4.130000E+03	8.146475E-17	9.803192E-18
4.140000E+03	8.232660E-17	9.854675E-18
4.150000E+03	8.316092E-17	9.901613E-18
4.160000E+03	8.398404E-17	9.945993E-18
4.170000E+03	8.481321E-17	9.989859E-18
4.180000E+03	8.561463E-17	1.002924E-17
4.190000E+03	8.640535E-17	1.006616E-17
4.200000E+03	8.720305E-17	1.010270E-17
4.210000E+03	8.797337E-17	1.013488E-17
4.220000E+03	8.875143E-17	1.016676E-17
4.230000E+03	8.950280E-17	1.019441E-17
4.240000E+03	9.026287E-17	1.022188E-17
4.250000E+03	9.099690E-17	1.024525E-17
4.260000E+03	9.174082E-17	1.026858E-17
4.270000E+03	9.245955E-17	1.028794E-17
4.280000E+03	9.318950E-17	1.030741E-17
4.290000E+03	9.389521E-17	1.032306E-17
4.300000E+03	9.461343E-17	1.033897E-17
4.310000E+03	9.532678E-17	1.035320E-17
4.320000E+03	9.601737E-17	1.036383E-17
4.330000E+03	9.672258E-17	1.037493E-17
4.340000E+03	9.740616E-17	1.038258E-17
4.350000E+03	9.810567E-17	1.039082E-17
4.360000E+03	9.880331E-17	1.039773E-17
4.370000E+03	9.948080E-17	1.040140E-17
4.380000E+03	1.001762E-16	1.040583E-17
4.390000E+03	1.008713E-16	1.040909E-17
4.400000E+03	1.015475E-16	1.040929E-17
4.410000E+03	1.022434E-16	1.041037E-17
4.420000E+03	1.029403E-16	1.041042E-17
4.430000E+03	1.036193E-16	1.040753E-17
4.440000E+03	1.043192E-16	1.040561E-17
4.450000E+03	1.050211E-16	1.040273E-17
4.460000E+03	1.057056E-16	1.039699E-17
4.470000E+03	1.064119E-16	1.039224E-17
4.480000E+03	1.071205E-16	1.038656E-17
4.490000E+03	1.078119E-16	1.037805E-17
4.500000E+03	1.085253E-16	1.037050E-17
4.510000E+03	1.092409E-16	1.036198E-17
4.520000E+03	1.099387E-16	1.035060E-17
4.530000E+03	1.106583E-16	1.034011E-17
4.540000E+03	1.113796E-16	1.032858E-17
4.550000E+03	1.120819E-16	1.031412E-17
4.560000E+03	1.128052E-16	1.030041E-17
4.570000E+03	1.135289E-16	1.028554E-17
4.580000E+03	1.142321E-16	1.026763E-17
4.590000E+03	1.149549E-16	1.025032E-17
4.600000E+03	1.156561E-16	1.022989E-17
4.610000E+03	1.163758E-16	1.020993E-17
4.620000E+03	1.170930E-16	1.018857E-17
4.630000E+03	1.177861E-16	1.016394E-17
4.640000E+03	1.184960E-16	1.013961E-17
4.650000E+03	1.191802E-16	1.011193E-17
4.660000E+03	1.198798E-16	1.008442E-17
4.670000E+03	1.205521E-16	1.005348E-17
4.680000E+03	1.212383E-16	1.002259E-17
4.690000E+03	1.218954E-16	9.988182E-18
4.700000E+03	1.225649E-16	9.953714E-18
4.710000E+03	1.232037E-16	9.915676E-18
4.720000E+03	1.238535E-16	9.877468E-18
4.730000E+03	1.244707E-16	9.835636E-18
4.740000E+03	1.250975E-16	9.793546E-18
4.750000E+03	1.256903E-16	9.747806E-18
4.760000E+03	1.262913E-16	9.701737E-18
4.770000E+03	1.268567E-16	9.651998E-18
4.780000E+03	1.274074E-16	9.600243E-18
4.790000E+03	1.279647E-16	9.548100E-18
4.800000E+03	1.284845E-16	9.492304E-18
4.810000E+03	1.289880E-16	9.434503E-18
4.820000E+03	1.294750E-16	9.374710E-18
4.830000E+03	1.299668E-16	9.314512E-18
4.840000E+03	1.304196E-16	9.250796E-18
4.850000E+03	1.308553E-16	9.185182E-18
4.860000E+03	1.312734E-16	9.117705E-18
4.870000E+03	1.316744E-16	9.048427E-18
4.880000E+03	1.320584E-16	8.977411E-18
4.890000E+03	1.324256E-16	8.904724E-18
4.900000E+03	1.327765E-16	8.830446E-18
4.910000E+03	1.331118E-16	8.754663E-18
4.920000E+03	1.334321E-16	8.677469E-18
4.930000E+03	1.337385E-16	8.598972E-18
4.940000E+03	1.340317E-16	8.519276E-18
4.950000E+03	1.343130E-16	8.438491E-18
4.960000E+03	1.345838E-16	8.356751E-18
4.970000E+03	1.348234E-16	8.272826E-18
4.980000E+03	1.350771E-16	8.189549E-18
4.990000E+03	1.353249E-16	8.105701E-18
5.000000E+03	1.355464E-16	8.020108E-18
5.010000E+03	1.357874E-16	7.935522E-18
5.020000E+03	1.360277E-16	7.850753E-18
5.030000E+03	1.362473E-16	7.764684E-18
5.040000E+03	1.364920E-16	7.679962E-18
5.050000E+03	1.367199E-16	7.594223E-18
5.060000E+03	1.369548E-16	7.508829E-18
5.070000E+03	1.372205E-16	7.425078E-18
5.080000E+03	1.374752E-16	7.340693E-18
5.090000E+03	1.377422E-16	7.256962E-18
5.100000E+03	1.380233E-16	7.173969E-18
5.110000E+03	1.383418E-16	7.092909E-18
5.120000E+03	1.386553E-16	7.011599E-18
5.130000E+03	1.389870E-16	6.931224E-18
5.140000E+03	1.393378E-16	6.851835E-18
5.150000E+03	1.397086E-16	6.773461E-18
5.160000E+03	1.401000E-16	6.696132E-18
5.170000E+03	1.405123E-16	6.619864E-18
5.180000E+03	1.409239E-16	6.543645E-18
5.190000E+03	1.413787E-16	6.469529E-18
5.200000E+03	1.418544E-16	6.396471E-18
5.210000E+03	1.423288E-16	6.323487E-18
5.220000E+03	1.428449E-16	6.252523E-18
5.230000E+03	1.433801E-16	6.182566E-18
5.240000E+03	1.439112E-16	6.112655E-18
5.250000E+03	1.444590E-16	6.043722E-18
5.260000E+03	1.450444E-16	5.976665E-18
5.270000E+03	1.456212E-16	5.909603E-18
5.280000E+03	1.462102E-16	5.843445E-18
5.290000E+03	1.468094E-16	5.778171E-18
5.300000E+03	1.474391E-16	5.714622E-18
5.310000E+03	1.480527E-16	5.651042E-18
5.320000E+03	1.486703E-16	5.588299E-18
5.330000E+03	1.492672E-16	5.525557E-18
5.340000E+03	1.498861E-16	5.464494E-18
5.350000E+03	1.505023E-16	5.404284E-18
5.360000E+03	1.511134E-16	5.344938E-18
5.370000E+03	1.516943E-16	5.285692E-18
5.380000E+03	1.522883E-16	5.228181E-18
5.390000E+03	1.528704E-16	5.171643E-18
5.400000E+03	1.534158E-16	5.115372E-18
5.410000E+03	1.539453E-16	5.060216E-18
5.420000E+03	1.544800E-16	5.006994E-18
5.430000E+03	1.549725E-16	4.954288E-18
5.440000E+03	1.554443E-16	4.902949E-18
5.450000E+03	1.558944E-16	4.853080E-18
5.460000E+03	1.563220E-16	4.804796E-18
5.470000E+03	1.567266E-16	4.758215E-18
5.480000E+03	1.571081E-16	4.713462E-18
5.490000E+03	1.574664E-16	4.670669E-18
5.500000E+03	1.577785E-16	4.629278E-18
5.510000E+03	1.580911E-16	4.590787E-18
5.520000E+03	1.583816E-16	4.554631E-18
5.530000E+03	1.586274E-16	4.520268E-18
5.540000E+03	1.588761E-16	4.489152E-18
5.550000E+03	1.590831E-16	4.460074E-18
5.560000E+03	1.592734E-16	4.433700E-18
5.570000E+03	1.594496E-16	4.410011E-18
5.580000E+03	1.596145E-16	4.388979E-18
5.590000E+03	1.597947E-16	4.371221E-18
5.600000E+03	1.599243E-16	4.354814E-18
5.610000E+03	1.600767E-16	4.341639E-18
5.620000E+03	1.602327E-16	4.331033E-18
5.630000E+03	1.603967E-16	4.322981E-18
5.640000E+03	1.605500E-16	4.316834E-18
5.650000E+03	1.607432E-16	4.313814E-18
5.660000E+03	1.609345E-16	4.312650E-18
5.670000E+03	1.611744E-16	4.314554E-18
5.680000E+03	1.614210E-16	4.318256E-18
5.690000E+03	1.617016E-16	4.324346E-18
5.700000E+03	1.620196E-16	4.332780E-18
5.710000E+03	1.623788E-16	4.343520E-18
5.720000E+03	1.627824E-16	4.356519E-18
5.730000E+03	1.632332E-16	4.371723E-18
5.740000E+03	1.637337E-16	4.389076E-18
5.750000E+03	1.642861E-16	4.408515E-18
5.760000E+03	1.648682E-16	4.429332E-18
5.770000E+03	1.655283E-16	4.452703E-18
5.780000E+03	1.662200E-16	4.477279E-18
5.790000E+03	1.669670E-16	4.503587E-18
5.800000E+03	1.677923E-16	4.532152E-18
5.810000E+03	1.686480E-16	4.561578E-18
5.820000E+03	1.695565E-16	4.592375E-18
5.830000E+03	1.705158E-16	4.624394E-18
5.840000E+03	1.715237E-16	4.657488E-18
5.850000E+03	1.725535E-16	4.690836E-18
5.860000E+03	1.736506E-16	4.725591E-18
5.870000E+03	1.747875E-16	4.760919E-18
5.880000E+03	1.759364E-16	4.795974E-18
5.890000E+03	1.771427E-16	4.831916E-18
5.900000E+03	1.783532E-16	4.867216E-18
5.910000E+03	1.795891E-16	4.902370E-18
5.920000E+03	1.808467E-16	4.937202E-18
5.930000E+03	1.821224E-16	4.971540E-18
5.940000E+03	1.834130E-16	5.005225E-18
5.950000E+03	1.847155E-16	5.038107E-18
5.960000E+03	1.860274E-16	5.070046E-18
5.970000E+03	1.873204E-16	5.100210E-18
5.980000E+03	1.886443E-16	5.129896E-18
5.990000E+03	1.899457E-16	5.157592E-18
6.000000E+03	1.912759E-16	5.184633E-18
6.010000E+03	1.925818E-16	5.209529E-18
6.020000E+03	1.938895E-16	5.232942E-18
6.030000E+03	1.951995E-16	5.254836E-18
6.040000E+03	1.965123E-16	5.275183E-18
6.050000E+03	1.978292E-16	5.293979E-18
6.060000E+03	1.991517E-16	5.311228E-18
6.070000E+03	2.004814E-16	5.326939E-18
6.080000E+03	2.017925E-16	5.340399E-18
6.090000E+03	2.031427E-16	5.353110E-18
6.100000E+03	2.044784E-16	5.363634E-18
6.110000E+03	2.058299E-16	5.372752E-18
6.120000E+03	2.072279E-16	5.381242E-18
6.130000E+03	2.086186E-16	5.387686E-18
6.140000E+03	2.100323E-16	5.392867E-18
6.150000E+03	2.114715E-16	5.396841E-18
6.160000E+03	2.129095E-16	5.398920E-18
6.170000E+03	2.144065E-16	5.400640E-18
6.180000E+03	2.159356E-16	5.401314E-18
6.190000E+03	2.174690E-16	5.400258E-18
6.200000E+03	2.190678E-16	5.399008E-18
6.210000E+03	2.206738E-16	5.396141E-18
6.220000E+03	2.223179E-16	5.392449E-18
6.230000E+03	2.240015E-16	5.387995E-18
6.240000E+03	2.257251E-16	5.382828E-18
6.250000E+03	2.274896E-16	5.377019E-18
6.260000E+03	2.292950E-16	5.370620E-18
6.270000E+03	2.311415E-16	5.363702E-18
6.280000E+03	2.329971E-16	5.355607E-18
6.290000E+03	2.349238E-16	5.347854E-18
6.300000E+03	2.368574E-16	5.339077E-18
6.310000E+03	2.388276E-16	5.330079E-18
6.320000E+03	2.408649E-16	5.321666E-18
6.330000E+03	2.429019E-16	5.312493E-18
6.340000E+03	2.449676E-16	5.303378E-18
6.350000E+03	2.470582E-16	5.294427E-18
6.360000E+03	2.491355E-16	5.285041E-18
6.370000E+03	2.512614E-16	5.276773E-18
6.380000E+03	2.533966E-16	5.269038E-18
6.390000E+03	2.554996E-16	5.261263E-18
6.400000E+03	2.576321E-16	5.255026E-18
6.410000E+03	2.597165E-16	5.249067E-18
6.420000E+03	2.617781E-16	5.244261E-18
6.430000E+03	2.638077E-16	5.240795E-18
6.440000E+03	2.657953E-16	5.238860E-18
6.450000E+03	2.677299E-16	5.238654E-18
6.460000E+03	2.696011E-16	5.240392E-18
6.470000E+03	2.713976E-16	5.244289E-18
6.480000E+03	2.730716E-16	5.249860E-18
6.490000E+03	2.746856E-16	5.258749E-18
6.500000E+03	2.761552E-16	5.269761E-18
6.510000E+03	2.775446E-16	5.284534E-18
6.520000E+03	2.787688E-16	5.301840E-18
6.530000E+03	2.798551E-16	5.322561E-18
6.540000E+03	2.807930E-16	5.346819E-18
6.550000E+03	2.815725E-16	5.374675E-18
6.560000E+03	2.821838E-16	5.405909E-18
6.570000E+03	2.825800E-16	5.439403E-18
6.580000E+03	2.828303E-16	5.476208E-18
6.590000E+03	2.828916E-16	5.515177E-18
6.600000E+03	2.827229E-16	5.555141E-18
6.610000E+03	2.823613E-16	5.596414E-18
6.620000E+03	2.818461E-16	5.639350E-18
6.630000E+03	2.811045E-16	5.682045E-18
6.640000E+03	2.801803E-16	5.724896E-18
6.650000E+03	2.790803E-16	5.767565E-18
6.660000E+03	2.778141E-16	5.809763E-18
6.670000E+03	2.763550E-16	5.850447E-18
6.680000E+03	2.747894E-16	5.890967E-18
6.690000E+03	2.730934E-16	5.930378E-18
6.700000E+03	2.712445E-16	5.967747E-18
6.710000E+03	2.693311E-16	6.004596E-18
6.720000E+03	2.672959E-16	6.039275E-18
6.730000E+03	2.651911E-16	6.072587E-18
6.740000E+03	2.630330E-16	6.104575E-18
6.750000E+03	2.608371E-16	6.135310E-18
6.760000E+03	2.586192E-16	6.164896E-18
6.770000E+03	2.563944E-16	6.193465E-18
6.780000E+03	2.541773E-16	6.221165E-18
6.790000E+03	2.519480E-16	6.247329E-18
6.800000E+03	2.497876E-16	6.273814E-18
6.810000E+03	2.476411E-16	6.299132E-18
6.820000E+03	2.455866E-16	6.325168E-18
6.830000E+03	2.435682E-16	6.350423E-18
6.840000E+03	2.416285E-16	6.375940E-18
6.850000E+03	2.397760E-16	6.401911E-18
6.860000E+03	2.380180E-16	6.428523E-18
6.870000E+03	2.363608E-16	6.455941E-18
6.880000E+03	2.348099E-16	6.484334E-18
6.890000E+03	2.333382E-16	6.512964E-18
6.900000E+03	2.320123E-16	6.543713E-18
6.910000E+03	2.308035E-16	6.575828E-18
6.920000E+03	2.296823E-16	6.608500E-18
6.930000E+03	2.286814E-16	6.642696E-18
6.940000E+03	2.278317E-16	6.679376E-18
6.950000E+03	2.270712E-16	6.716772E-18
6.960000E+03	2.264294E-16	6.755792E-18
6.970000E+03	2.259051E-16	6.796442E-18
6.980000E+03	2.254957E-16	6.838687E-18
6.990000E+03	2.251986E-16	6.882485E-18
7.000000E+03	2.249796E-16	6.926823E-18
7.010000E+03	2.248961E-16	6.973487E-18
7.020000E+03	2.249129E-16	7.021427E-18
7.030000E+03	2.249946E-16	7.069551E-18
7.040000E+03	2.251968E-16	7.119613E-18
7.050000E+03	2.254527E-16	7.169512E-18
7.060000E+03	2.257863E-16	7.220002E-18
7.070000E+03	2.261907E-16	7.270861E-18
7.080000E+03	2.266587E-16	7.321847E-18
7.090000E+03	2.271823E-16	7.372683E-18
7.100000E+03	2.277533E-16	7.423088E-18
7.110000E+03	2.283630E-16	7.472746E-18
7.120000E+03	2.290021E-16	7.521323E-18
7.130000E+03	2.296298E-16	7.567441E-18
7.140000E+03	2.302984E-16	7.612783E-18
7.150000E+03	2.309347E-16	7.654890E-18
7.160000E+03	2.315909E-16	7.695451E-18
7.170000E+03	2.321929E-16	7.731954E-18
7.180000E+03	2.327610E-16	7.765032E-18
7.190000E+03	2.333157E-16	7.795328E-18
7.200000E+03	2.337820E-16	7.820289E-18
7.210000E+03	2.341804E-16	7.840571E-18
7.220000E+03	2.345002E-16	7.855771E-18
7.230000E+03	2.346983E-16	7.864422E-18
7.240000E+03	2.348292E-16	7.868328E-18
7.250000E+03	2.348514E-16	7.866077E-18
7.260000E+03	2.347563E-16	7.857379E-18
7.270000E+03	2.345043E-16	7.840906E-18
7.280000E+03	2.341533E-16	7.818613E-18
7.290000E+03	2.336339E-16	7.788195E-18
7.300000E+03	2.329743E-16	7.750639E-18
7.310000E+03	2.322048E-16	7.706985E-18
7.320000E+03	2.312602E-16	7.655123E-18
7.330000E+03	2.301733E-16	7.596212E-18
7.340000E+03	2.289466E-16	7.530409E-18
7.350000E+03	2.275839E-16	7.457923E-18
7.360000E+03	2.260908E-16	7.379030E-18
7.370000E+03	2.244424E-16	7.293026E-18
7.380000E+03	2.227098E-16	7.202326E-18
7.390000E+03	2.208705E-16	7.106314E-18
7.400000E+03	2.189041E-16	7.004453E-18
7.410000E+03	2.168830E-16	6.899179E-18
7.420000E+03	2.147579E-16	6.789039E-18
7.430000E+03	2.126012E-16	6.676446E-18
7.440000E+03	2.103654E-16	6.560019E-18
7.450000E+03	2.080930E-16	6.441207E-18
7.460000E+03	2.057962E-16	6.320497E-18
7.470000E+03	2.035155E-16	6.199231E-18
7.480000E+03	2.012053E-16	6.076101E-18
7.490000E+03	1.989052E-16	5.952410E-18
7.500000E+03	1.965981E-16	5.827731E-18
7.510000E+03	1.943489E-16	5.704071E-18
7.520000E+03	1.921386E-16	5.580914E-18
7.530000E+03	1.899747E-16	5.458538E-18
7.540000E+03	1.878376E-16	5.336430E-18
7.550000E+03	1.857864E-16	5.216317E-18
7.560000E+03	1.837728E-16	5.096868E-18
7.570000E+03	1.818528E-16	4.979670E-18
7.580000E+03	1.799776E-16	4.863394E-18
7.590000E+03	1.782000E-16	4.749498E-18
7.600000E+03	1.764700E-16	4.636648E-18
7.610000E+03	1.748130E-16	4.525545E-18
7.620000E+03	1.732283E-16	4.416181E-18
7.630000E+03	1.717142E-16	4.308526E-18
7.640000E+03	1.702684E-16	4.202539E-18
7.650000E+03	1.688883E-16	4.098173E-18
7.660000E+03	1.675705E-16	3.995376E-18
7.670000E+03	1.663113E-16	3.894090E-18
7.680000E+03	1.651070E-16	3.794269E-18
7.690000E+03	1.639298E-16	3.695343E-18
7.700000E+03	1.628226E-16	3.598353E-18
7.710000E+03	1.617577E-16	3.502745E-18
7.720000E+03	1.607078E-16	3.408030E-18
7.730000E+03	1.597151E-16	3.315228E-18
7.740000E+03	1.587295E-16	3.223418E-18
7.750000E+03	1.577708E-16	3.133168E-18
7.760000E+03	1.568580E-16	3.045021E-18
