#wls	flux	fluxerr
1.600000E+03	1.591810E-18	3.496741E-19
1.640000E+03	1.637659E-18	3.584470E-19
1.680000E+03	1.686973E-18	3.678735E-19
1.720000E+03	1.740019E-18	3.779998E-19
1.760000E+03	1.796371E-18	3.887214E-19
1.800000E+03	1.856295E-18	4.000833E-19
1.840000E+03	1.920081E-18	4.121345E-19
1.880000E+03	1.988819E-18	4.250936E-19
1.920000E+03	2.062920E-18	4.390300E-19
1.960000E+03	2.141198E-18	4.536724E-19
2.000000E+03	2.225689E-18	4.694331E-19
2.040000E+03	2.316930E-18	4.864011E-19
2.080000E+03	2.414614E-18	5.044859E-19
2.120000E+03	2.519301E-18	5.237772E-19
2.160000E+03	2.632569E-18	5.445726E-19
2.200000E+03	2.754196E-18	5.667914E-19
2.240000E+03	2.885967E-18	5.907628E-19
2.280000E+03	3.027742E-18	6.164153E-19
2.320000E+03	3.181549E-18	6.441155E-19
2.360000E+03	3.347352E-18	6.738031E-19
2.400000E+03	3.526248E-18	7.056432E-19
2.440000E+03	3.720720E-18	7.400693E-19
2.480000E+03	3.932268E-18	7.773057E-19
2.520000E+03	4.161138E-18	8.173210E-19
2.560000E+03	4.408945E-18	8.603460E-19
2.600000E+03	4.679002E-18	9.069302E-19
2.640000E+03	4.973479E-18	9.573814E-19
2.680000E+03	5.293054E-18	1.011707E-18
2.720000E+03	5.640066E-18	1.070221E-18
2.760000E+03	6.018996E-18	1.133623E-18
2.800000E+03	6.432956E-18	1.202328E-18
2.840000E+03	6.883218E-18	1.276384E-18
2.880000E+03	7.375424E-18	1.356628E-18
2.920000E+03	7.911213E-18	1.443128E-18
2.960000E+03	8.494591E-18	1.536360E-18
3.000000E+03	9.135351E-18	1.637805E-18
3.010000E+03	9.302218E-18	1.664002E-18
3.020000E+03	9.475505E-18	1.691194E-18
3.030000E+03	9.652549E-18	1.718898E-18
3.040000E+03	9.830522E-18	1.746606E-18
3.050000E+03	1.001529E-17	1.775355E-18
3.060000E+03	1.020407E-17	1.804645E-18
3.070000E+03	1.039695E-17	1.834485E-18
3.080000E+03	1.059402E-17	1.864883E-18
3.090000E+03	1.079221E-17	1.895296E-18
3.100000E+03	1.099788E-17	1.926834E-18
3.110000E+03	1.120802E-17	1.958960E-18
3.120000E+03	1.142271E-17	1.991684E-18
3.130000E+03	1.164207E-17	2.025017E-18
3.140000E+03	1.186962E-17	2.059562E-18
3.150000E+03	1.209866E-17	2.094151E-18
3.160000E+03	1.233267E-17	2.129379E-18
3.170000E+03	1.257177E-17	2.165257E-18
3.180000E+03	1.281604E-17	2.201796E-18
3.190000E+03	1.306561E-17	2.239007E-18
3.200000E+03	1.332439E-17	2.277549E-18
3.210000E+03	1.358496E-17	2.316146E-18
3.220000E+03	1.385118E-17	2.355448E-18
3.230000E+03	1.412714E-17	2.396143E-18
3.240000E+03	1.440508E-17	2.436899E-18
3.250000E+03	1.469316E-17	2.479091E-18
3.260000E+03	1.498332E-17	2.521349E-18
3.270000E+03	1.527976E-17	2.564372E-18
3.280000E+03	1.558695E-17	2.608896E-18
3.290000E+03	1.590082E-17	2.654228E-18
3.300000E+03	1.621704E-17	2.699633E-18
3.310000E+03	1.654464E-17	2.746609E-18
3.320000E+03	1.687937E-17	2.794432E-18
3.330000E+03	1.721664E-17	2.842334E-18
3.340000E+03	1.756597E-17	2.891876E-18
3.350000E+03	1.792288E-17	2.942303E-18
3.360000E+03	1.828753E-17	2.993628E-18
3.370000E+03	1.865499E-17	3.045036E-18
3.380000E+03	1.903549E-17	3.098183E-18
3.390000E+03	1.942420E-17	3.152265E-18
3.400000E+03	1.982128E-17	3.207296E-18
3.410000E+03	2.022691E-17	3.263287E-18
3.420000E+03	2.064124E-17	3.320252E-18
3.430000E+03	2.106446E-17	3.378201E-18
3.440000E+03	2.149673E-17	3.437148E-18
3.450000E+03	2.193822E-17	3.497103E-18
3.460000E+03	2.238909E-17	3.558077E-18
3.470000E+03	2.284953E-17	3.620081E-18
3.480000E+03	2.332585E-17	3.684096E-18
3.490000E+03	2.380603E-17	3.748202E-18
3.500000E+03	2.429628E-17	3.813367E-18
3.510000E+03	2.479676E-17	3.879597E-18
3.520000E+03	2.531423E-17	3.947929E-18
3.530000E+03	2.583577E-17	4.016324E-18
3.540000E+03	2.636801E-17	4.085801E-18
3.550000E+03	2.691807E-17	4.157440E-18
3.560000E+03	2.747228E-17	4.229107E-18
3.570000E+03	2.804483E-17	4.302968E-18
3.580000E+03	2.862153E-17	4.376822E-18
3.590000E+03	2.921705E-17	4.452896E-18
3.600000E+03	2.981667E-17	4.528921E-18
3.610000E+03	3.043557E-17	4.607182E-18
3.620000E+03	3.105842E-17	4.685338E-18
3.630000E+03	3.170094E-17	4.765737E-18
3.640000E+03	3.235538E-17	4.847186E-18
3.650000E+03	3.301343E-17	4.928421E-18
3.660000E+03	3.369158E-17	5.011887E-18
3.670000E+03	3.438163E-17	5.096329E-18
3.680000E+03	3.508353E-17	5.181719E-18
3.690000E+03	3.578828E-17	5.266708E-18
3.700000E+03	3.651349E-17	5.353870E-18
3.710000E+03	3.725026E-17	5.441867E-18
3.720000E+03	3.799847E-17	5.530658E-18
3.730000E+03	3.875795E-17	5.620196E-18
3.740000E+03	3.952852E-17	5.710431E-18
3.750000E+03	4.030998E-17	5.801312E-18
3.760000E+03	4.110210E-17	5.892781E-18
3.770000E+03	4.190462E-17	5.984783E-18
3.780000E+03	4.271728E-17	6.077254E-18
3.790000E+03	4.353977E-17	6.170131E-18
3.800000E+03	4.437178E-17	6.263346E-18
3.810000E+03	4.521294E-17	6.356829E-18
3.820000E+03	4.606291E-17	6.450510E-18
3.830000E+03	4.692127E-17	6.544311E-18
3.840000E+03	4.779908E-17	6.639747E-18
3.850000E+03	4.867318E-17	6.733578E-18
3.860000E+03	4.955439E-17	6.827295E-18
3.870000E+03	5.044224E-17	6.920814E-18
3.880000E+03	5.134840E-17	7.015714E-18
3.890000E+03	5.224822E-17	7.108605E-18
3.900000E+03	5.315317E-17	7.201044E-18
3.910000E+03	5.407540E-17	7.294658E-18
3.920000E+03	5.498917E-17	7.385952E-18
3.930000E+03	5.590643E-17	7.476533E-18
3.940000E+03	5.683988E-17	7.568081E-18
3.950000E+03	5.776262E-17	7.656998E-18
3.960000E+03	5.870080E-17	7.746744E-18
3.970000E+03	5.962676E-17	7.833655E-18
3.980000E+03	6.056739E-17	7.921262E-18
3.990000E+03	6.149430E-17	8.005840E-18
4.000000E+03	6.243514E-17	8.090988E-18
4.010000E+03	6.336081E-17	8.172923E-18
4.020000E+03	6.429967E-17	8.255307E-18
4.030000E+03	6.522203E-17	8.334318E-18
4.040000E+03	6.615686E-17	8.413664E-18
4.050000E+03	6.707385E-17	8.489481E-18
4.060000E+03	6.800278E-17	8.565546E-18
4.070000E+03	6.892820E-17	8.639896E-18
4.080000E+03	6.983393E-17	8.710513E-18
4.090000E+03	7.075091E-17	8.781269E-18
4.100000E+03	7.166317E-17	8.850166E-18
4.110000E+03	7.255431E-17	8.915192E-18
4.120000E+03	7.345624E-17	8.980283E-18
4.130000E+03	7.435262E-17	9.043423E-18
4.140000E+03	7.524332E-17	9.104607E-18
4.150000E+03	7.611130E-17	9.161786E-18
4.160000E+03	7.698989E-17	9.218989E-18
4.170000E+03	7.786231E-17	9.274194E-18
4.180000E+03	7.872851E-17	9.327403E-18
4.190000E+03	7.958844E-17	9.378615E-18
4.200000E+03	8.042461E-17	9.425788E-18
4.210000E+03	8.127187E-17	9.473027E-18
4.220000E+03	8.211301E-17	9.518311E-18
4.230000E+03	8.294800E-17	9.561641E-18
4.240000E+03	8.377702E-17	9.603050E-18
4.250000E+03	8.460015E-17	9.642552E-18
4.260000E+03	8.539928E-17	9.678105E-18
4.270000E+03	8.621113E-17	9.713885E-18
4.280000E+03	8.701769E-17	9.747849E-18
4.290000E+03	8.781912E-17	9.780021E-18
4.300000E+03	8.861575E-17	9.810444E-18
4.310000E+03	8.940774E-17	9.839141E-18
4.320000E+03	9.019535E-17	9.866148E-18
4.330000E+03	9.097893E-17	9.891508E-18
4.340000E+03	9.175858E-17	9.915235E-18
4.350000E+03	9.253464E-17	9.937373E-18
4.360000E+03	9.330740E-17	9.957956E-18
4.370000E+03	9.405743E-17	9.974927E-18
4.380000E+03	9.482404E-17	9.992472E-18
4.390000E+03	9.558804E-17	1.000855E-17
4.400000E+03	9.634961E-17	1.002317E-17
4.410000E+03	9.710891E-17	1.003636E-17
4.420000E+03	9.786606E-17	1.004814E-17
4.430000E+03	9.862128E-17	1.005853E-17
4.440000E+03	9.937464E-17	1.006753E-17
4.450000E+03	1.001262E-16	1.007517E-17
4.460000E+03	1.008761E-16	1.008144E-17
4.470000E+03	1.016243E-16	1.008635E-17
4.480000E+03	1.023708E-16	1.008991E-17
4.490000E+03	1.031155E-16	1.009210E-17
4.500000E+03	1.038374E-16	1.009089E-17
4.510000E+03	1.045783E-16	1.009036E-17
4.520000E+03	1.053171E-16	1.008844E-17
4.530000E+03	1.060537E-16	1.008513E-17
4.540000E+03	1.067879E-16	1.008041E-17
4.550000E+03	1.075193E-16	1.007426E-17
4.560000E+03	1.082476E-16	1.006665E-17
4.570000E+03	1.089727E-16	1.005757E-17
4.580000E+03	1.096941E-16	1.004700E-17
4.590000E+03	1.103897E-16	1.003292E-17
4.600000E+03	1.111026E-16	1.001928E-17
4.610000E+03	1.118107E-16	1.000407E-17
4.620000E+03	1.125135E-16	9.987255E-18
4.630000E+03	1.132105E-16	9.968804E-18
4.640000E+03	1.138791E-16	9.946759E-18
4.650000E+03	1.145631E-16	9.924975E-18
4.660000E+03	1.152399E-16	9.901483E-18
4.670000E+03	1.159090E-16	9.876251E-18
4.680000E+03	1.165699E-16	9.849262E-18
4.690000E+03	1.171994E-16	9.818589E-18
4.700000E+03	1.178423E-16	9.788027E-18
4.710000E+03	1.184755E-16	9.755643E-18
4.720000E+03	1.190755E-16	9.719558E-18
4.730000E+03	1.196877E-16	9.683507E-18
4.740000E+03	1.202888E-16	9.645605E-18
4.750000E+03	1.208553E-16	9.604011E-18
4.760000E+03	1.214328E-16	9.562404E-18
4.770000E+03	1.219749E-16	9.517135E-18
4.780000E+03	1.225274E-16	9.471841E-18
4.790000E+03	1.230671E-16	9.424711E-18
4.800000E+03	1.235703E-16	9.373997E-18
4.810000E+03	1.240834E-16	9.323265E-18
4.820000E+03	1.245597E-16	9.269028E-18
4.830000E+03	1.250223E-16	9.213077E-18
4.840000E+03	1.254948E-16	9.157171E-18
4.850000E+03	1.259303E-16	9.097908E-18
4.860000E+03	1.263759E-16	9.038749E-18
4.870000E+03	1.267847E-16	8.976361E-18
4.880000E+03	1.271805E-16	8.912502E-18
4.890000E+03	1.275874E-16	8.848874E-18
4.900000E+03	1.279584E-16	8.782255E-18
4.910000E+03	1.283176E-16	8.714361E-18
4.920000E+03	1.286656E-16	8.645275E-18
4.930000E+03	1.290268E-16	8.576646E-18
4.940000E+03	1.293544E-16	8.505393E-18
4.950000E+03	1.296730E-16	8.433195E-18
4.960000E+03	1.299832E-16	8.360135E-18
4.970000E+03	1.302861E-16	8.286306E-18
4.980000E+03	1.305826E-16	8.211798E-18
4.990000E+03	1.308737E-16	8.136700E-18
5.000000E+03	1.311603E-16	8.061105E-18
5.010000E+03	1.314435E-16	7.985105E-18
5.020000E+03	1.317245E-16	7.908795E-18
5.030000E+03	1.320043E-16	7.832259E-18
5.040000E+03	1.322839E-16	7.755580E-18
5.050000E+03	1.325409E-16	7.677478E-18
5.060000E+03	1.328236E-16	7.600792E-18
5.070000E+03	1.331095E-16	7.524213E-18
5.080000E+03	1.333757E-16	7.446489E-18
5.090000E+03	1.336707E-16	7.370351E-18
5.100000E+03	1.339718E-16	7.294534E-18
5.110000E+03	1.342560E-16	7.217812E-18
5.120000E+03	1.345715E-16	7.142816E-18
5.130000E+03	1.348716E-16	7.067052E-18
5.140000E+03	1.352044E-16	6.993079E-18
5.150000E+03	1.355229E-16	6.918459E-18
5.160000E+03	1.358511E-16	6.844467E-18
5.170000E+03	1.362133E-16	6.772330E-18
5.180000E+03	1.365620E-16	6.699677E-18
5.190000E+03	1.369210E-16	6.627738E-18
5.200000E+03	1.372904E-16	6.556529E-18
5.210000E+03	1.376938E-16	6.487191E-18
5.220000E+03	1.380832E-16	6.417462E-18
5.230000E+03	1.384820E-16	6.348498E-18
5.240000E+03	1.388898E-16	6.280304E-18
5.250000E+03	1.393058E-16	6.212884E-18
5.260000E+03	1.397294E-16	6.146246E-18
5.270000E+03	1.401355E-16	6.079337E-18
5.280000E+03	1.405712E-16	6.014268E-18
5.290000E+03	1.410116E-16	5.949989E-18
5.300000E+03	1.414552E-16	5.886496E-18
5.310000E+03	1.418766E-16	5.822801E-18
5.320000E+03	1.423230E-16	5.760917E-18
5.330000E+03	1.427441E-16	5.698866E-18
5.340000E+03	1.431872E-16	5.638618E-18
5.350000E+03	1.436021E-16	5.578258E-18
5.360000E+03	1.440357E-16	5.519711E-18
5.370000E+03	1.444377E-16	5.461110E-18
5.380000E+03	1.448307E-16	5.403430E-18
5.390000E+03	1.452376E-16	5.347606E-18
5.400000E+03	1.456078E-16	5.291859E-18
5.410000E+03	1.459642E-16	5.237138E-18
5.420000E+03	1.463054E-16	5.183499E-18
5.430000E+03	1.466300E-16	5.130992E-18
5.440000E+03	1.469370E-16	5.079684E-18
5.450000E+03	1.472255E-16	5.029646E-18
5.460000E+03	1.474949E-16	4.980962E-18
5.470000E+03	1.477203E-16	4.932900E-18
5.480000E+03	1.479511E-16	4.887211E-18
5.490000E+03	1.481632E-16	4.843179E-18
5.500000E+03	1.483327E-16	4.800113E-18
5.510000E+03	1.485096E-16	4.759731E-18
5.520000E+03	1.486463E-16	4.720569E-18
5.530000E+03	1.487933E-16	4.684309E-18
5.540000E+03	1.489036E-16	4.649530E-18
5.550000E+03	1.490040E-16	4.617087E-18
5.560000E+03	1.491216E-16	4.587753E-18
5.570000E+03	1.492102E-16	4.560017E-18
5.580000E+03	1.492975E-16	4.534641E-18
5.590000E+03	1.493866E-16	4.511624E-18
5.600000E+03	1.494808E-16	4.490966E-18
5.610000E+03	1.495836E-16	4.472661E-18
5.620000E+03	1.496983E-16	4.456697E-18
5.630000E+03	1.498036E-16	4.442334E-18
5.640000E+03	1.499519E-16	4.431010E-18
5.650000E+03	1.501219E-16	4.421975E-18
5.660000E+03	1.502923E-16	4.414484E-18
5.670000E+03	1.505147E-16	4.409944E-18
5.680000E+03	1.507433E-16	4.406884E-18
5.690000E+03	1.510293E-16	4.406698E-18
5.700000E+03	1.513265E-16	4.407915E-18
5.710000E+03	1.516613E-16	4.411200E-18
5.720000E+03	1.520357E-16	4.416496E-18
5.730000E+03	1.524759E-16	4.424461E-18
5.740000E+03	1.529343E-16	4.433603E-18
5.750000E+03	1.534365E-16	4.444566E-18
5.760000E+03	1.539586E-16	4.456557E-18
5.770000E+03	1.545507E-16	4.470930E-18
5.780000E+03	1.551885E-16	4.486884E-18
5.790000E+03	1.558719E-16	4.504322E-18
5.800000E+03	1.565754E-16	4.522423E-18
5.810000E+03	1.573490E-16	4.542535E-18
5.820000E+03	1.581413E-16	4.563094E-18
5.830000E+03	1.590018E-16	4.585441E-18
5.840000E+03	1.598787E-16	4.607998E-18
5.850000E+03	1.607959E-16	4.631375E-18
5.860000E+03	1.617774E-16	4.656181E-18
5.870000E+03	1.627703E-16	4.680819E-18
5.880000E+03	1.637983E-16	4.705890E-18
5.890000E+03	1.648593E-16	4.731265E-18
5.900000E+03	1.659515E-16	4.756817E-18
5.910000E+03	1.670466E-16	4.781662E-18
5.920000E+03	1.681953E-16	4.807182E-18
5.930000E+03	1.693692E-16	4.832499E-18
5.940000E+03	1.705400E-16	4.856735E-18
5.950000E+03	1.717595E-16	4.881304E-18
5.960000E+03	1.729720E-16	4.904560E-18
5.970000E+03	1.742308E-16	4.927952E-18
5.980000E+03	1.754799E-16	4.949838E-18
5.990000E+03	1.767457E-16	4.970907E-18
6.000000E+03	1.780275E-16	4.991088E-18
6.010000E+03	1.793248E-16	5.010309E-18
6.020000E+03	1.806374E-16	5.028519E-18
6.030000E+03	1.819654E-16	5.045668E-18
6.040000E+03	1.833091E-16	5.061720E-18
6.050000E+03	1.846689E-16	5.076642E-18
6.060000E+03	1.860455E-16	5.090415E-18
6.070000E+03	1.874107E-16	5.102224E-18
6.080000E+03	1.888238E-16	5.113658E-18
6.090000E+03	1.902274E-16	5.123118E-18
6.100000E+03	1.916521E-16	5.131411E-18
6.110000E+03	1.931296E-16	5.139344E-18
6.120000E+03	1.946015E-16	5.145336E-18
6.130000E+03	1.960994E-16	5.150205E-18
6.140000E+03	1.976248E-16	5.153968E-18
6.150000E+03	1.991795E-16	5.156657E-18
6.160000E+03	2.007651E-16	5.158294E-18
6.170000E+03	2.023831E-16	5.158908E-18
6.180000E+03	2.040352E-16	5.158531E-18
6.190000E+03	2.056906E-16	5.156388E-18
6.200000E+03	2.074142E-16	5.154114E-18
6.210000E+03	2.091428E-16	5.150141E-18
6.220000E+03	2.109420E-16	5.146100E-18
6.230000E+03	2.127471E-16	5.140427E-18
6.240000E+03	2.145906E-16	5.133949E-18
6.250000E+03	2.165063E-16	5.127502E-18
6.260000E+03	2.184268E-16	5.119529E-18
6.270000E+03	2.203848E-16	5.110866E-18
6.280000E+03	2.223788E-16	5.101551E-18
6.290000E+03	2.244072E-16	5.091629E-18
6.300000E+03	2.264333E-16	5.080368E-18
6.310000E+03	2.285237E-16	5.069388E-18
6.320000E+03	2.306408E-16	5.057967E-18
6.330000E+03	2.327450E-16	5.045394E-18
6.340000E+03	2.349035E-16	5.033305E-18
6.350000E+03	2.370391E-16	5.020231E-18
6.360000E+03	2.392192E-16	5.007821E-18
6.370000E+03	2.413641E-16	4.994639E-18
6.380000E+03	2.435039E-16	4.981589E-18
6.390000E+03	2.456308E-16	4.968806E-18
6.400000E+03	2.477372E-16	4.956448E-18
6.410000E+03	2.498145E-16	4.944686E-18
6.420000E+03	2.518536E-16	4.933713E-18
6.430000E+03	2.538451E-16	4.923730E-18
6.440000E+03	2.557401E-16	4.914212E-18
6.450000E+03	2.576067E-16	4.906903E-18
6.460000E+03	2.593561E-16	4.900553E-18
6.470000E+03	2.610579E-16	4.896933E-18
6.480000E+03	2.626223E-16	4.894816E-18
6.490000E+03	2.641204E-16	4.895990E-18
6.500000E+03	2.654626E-16	4.899234E-18
6.510000E+03	2.666811E-16	4.905581E-18
6.520000E+03	2.677682E-16	4.915298E-18
6.530000E+03	2.687163E-16	4.928618E-18
6.540000E+03	2.695183E-16	4.945743E-18
6.550000E+03	2.701670E-16	4.966824E-18
6.560000E+03	2.706144E-16	4.991025E-18
6.570000E+03	2.709382E-16	5.019565E-18
6.580000E+03	2.710932E-16	5.051335E-18
6.590000E+03	2.710354E-16	5.085189E-18
6.600000E+03	2.708474E-16	5.122296E-18
6.610000E+03	2.704472E-16	5.160706E-18
6.620000E+03	2.698793E-16	5.200812E-18
6.630000E+03	2.691887E-16	5.243032E-18
6.640000E+03	2.682989E-16	5.285406E-18
6.650000E+03	2.672581E-16	5.328383E-18
6.660000E+03	2.660743E-16	5.371639E-18
6.670000E+03	2.647569E-16	5.414882E-18
6.680000E+03	2.632759E-16	5.457019E-18
6.690000E+03	2.617232E-16	5.499490E-18
6.700000E+03	2.600700E-16	5.541280E-18
6.710000E+03	2.582892E-16	5.581386E-18
6.720000E+03	2.564725E-16	5.621396E-18
6.730000E+03	2.545543E-16	5.659525E-18
6.740000E+03	2.526259E-16	5.697461E-18
6.750000E+03	2.506223E-16	5.733455E-18
6.760000E+03	2.485957E-16	5.768403E-18
6.770000E+03	2.465585E-16	5.802357E-18
6.780000E+03	2.445604E-16	5.836288E-18
6.790000E+03	2.425376E-16	5.868506E-18
6.800000E+03	2.405024E-16	5.899118E-18
6.810000E+03	2.385392E-16	5.930054E-18
6.820000E+03	2.366208E-16	5.960554E-18
6.830000E+03	2.347562E-16	5.990768E-18
6.840000E+03	2.329180E-16	6.019920E-18
6.850000E+03	2.311855E-16	6.050003E-18
6.860000E+03	2.294943E-16	6.079319E-18
6.870000E+03	2.279211E-16	6.109874E-18
6.880000E+03	2.264007E-16	6.139932E-18
6.890000E+03	2.249730E-16	6.170562E-18
6.900000E+03	2.236758E-16	6.202834E-18
6.910000E+03	2.224433E-16	6.234957E-18
6.920000E+03	2.213118E-16	6.267966E-18
6.930000E+03	2.202833E-16	6.301949E-18
6.940000E+03	2.193583E-16	6.336959E-18
6.950000E+03	2.185034E-16	6.372066E-18
6.960000E+03	2.177855E-16	6.409249E-18
6.970000E+03	2.171699E-16	6.447550E-18
6.980000E+03	2.166214E-16	6.485952E-18
6.990000E+03	2.162047E-16	6.526421E-18
7.000000E+03	2.158504E-16	6.566903E-18
7.010000E+03	2.156218E-16	6.609345E-18
7.020000E+03	2.154486E-16	6.651626E-18
7.030000E+03	2.153598E-16	6.694645E-18
7.040000E+03	2.153838E-16	6.739313E-18
7.050000E+03	2.154490E-16	6.783404E-18
7.060000E+03	2.155828E-16	6.827775E-18
7.070000E+03	2.157792E-16	6.872234E-18
7.080000E+03	2.160318E-16	6.916572E-18
7.090000E+03	2.163333E-16	6.960547E-18
7.100000E+03	2.166431E-16	7.002835E-18
7.110000E+03	2.170202E-16	7.045317E-18
7.120000E+03	2.174234E-16	7.086642E-18
7.130000E+03	2.178103E-16	7.125395E-18
7.140000E+03	2.182399E-16	7.163475E-18
7.150000E+03	2.186355E-16	7.198336E-18
7.160000E+03	2.190560E-16	7.231881E-18
7.170000E+03	2.194243E-16	7.261528E-18
7.180000E+03	2.197649E-16	7.288053E-18
7.190000E+03	2.201033E-16	7.312264E-18
7.200000E+03	2.203616E-16	7.331548E-18
7.210000E+03	2.205655E-16	7.346721E-18
7.220000E+03	2.207062E-16	7.357469E-18
7.230000E+03	2.207757E-16	7.363496E-18
7.240000E+03	2.207664E-16	7.364533E-18
7.250000E+03	2.206367E-16	7.359181E-18
7.260000E+03	2.204491E-16	7.349521E-18
7.270000E+03	2.201638E-16	7.334222E-18
7.280000E+03	2.197415E-16	7.311991E-18
7.290000E+03	2.192474E-16	7.285012E-18
7.300000E+03	2.186098E-16	7.250933E-18
7.310000E+03	2.178959E-16	7.212010E-18
7.320000E+03	2.170364E-16	7.166003E-18
7.330000E+03	2.161003E-16	7.115234E-18
7.340000E+03	2.150210E-16	7.057570E-18
7.350000E+03	2.138352E-16	6.994290E-18
7.360000E+03	2.125467E-16	6.925600E-18
7.370000E+03	2.111602E-16	6.851726E-18
7.380000E+03	2.096813E-16	6.772940E-18
7.390000E+03	2.081164E-16	6.689544E-18
7.400000E+03	2.064726E-16	6.601856E-18
7.410000E+03	2.047575E-16	6.510224E-18
7.420000E+03	2.029794E-16	6.415006E-18
7.430000E+03	2.011469E-16	6.316579E-18
7.440000E+03	1.992373E-16	6.214334E-18
7.450000E+03	1.973227E-16	6.110626E-18
7.460000E+03	1.953495E-16	6.003884E-18
7.470000E+03	1.933884E-16	5.896385E-18
7.480000E+03	1.913863E-16	5.786591E-18
7.490000E+03	1.894127E-16	5.676698E-18
7.500000E+03	1.874148E-16	5.565191E-18
7.510000E+03	1.854303E-16	5.453285E-18
7.520000E+03	1.834952E-16	5.342101E-18
7.530000E+03	1.815569E-16	5.230157E-18
7.540000E+03	1.796502E-16	5.118540E-18
7.550000E+03	1.777800E-16	5.007441E-18
7.560000E+03	1.759506E-16	4.897027E-18
7.570000E+03	1.741651E-16	4.787432E-18
7.580000E+03	1.724263E-16	4.678771E-18
7.590000E+03	1.707363E-16	4.571143E-18
7.600000E+03	1.690693E-16	4.463898E-18
7.610000E+03	1.674805E-16	4.358545E-18
7.620000E+03	1.659428E-16	4.254386E-18
7.630000E+03	1.644557E-16	4.151447E-18
7.640000E+03	1.629922E-16	4.049094E-18
7.650000E+03	1.616036E-16	3.948652E-18
7.660000E+03	1.602358E-16	3.848832E-18
7.670000E+03	1.589389E-16	3.750901E-18
7.680000E+03	1.576589E-16	3.653629E-18
7.690000E+03	1.564189E-16	3.557642E-18
7.700000E+03	1.552416E-16	3.463518E-18
7.710000E+03	1.540736E-16	3.370139E-18
7.720000E+03	1.529372E-16	3.278115E-18
7.730000E+03	1.518294E-16	3.187496E-18
7.740000E+03	1.507474E-16	3.098346E-18
7.750000E+03	1.496883E-16	3.010749E-18
7.760000E+03	1.486494E-16	2.924814E-18
