#wls	flux	fluxerr
1.581262E+03	2.932508E-16	1.334225E-18
1.620794E+03	2.958941E-16	1.346252E-18
1.660325E+03	2.973647E-16	1.352943E-18
1.699857E+03	2.977056E-16	1.354494E-18
1.739388E+03	2.969484E-16	1.351049E-18
1.778920E+03	2.951809E-16	1.343007E-18
1.818451E+03	2.924707E-16	1.330676E-18
1.857983E+03	2.888955E-16	1.314409E-18
1.897514E+03	2.845183E-16	1.294494E-18
1.937046E+03	2.792851E-16	1.270685E-18
1.976578E+03	2.730959E-16	1.242525E-18
2.016109E+03	2.658375E-16	1.209501E-18
2.055641E+03	2.576687E-16	1.172335E-18
2.095172E+03	2.495300E-16	1.135305E-18
2.134704E+03	2.432925E-16	1.106926E-18
2.174235E+03	2.406856E-16	1.095065E-18
2.213767E+03	2.426643E-16	1.104068E-18
2.253298E+03	2.496445E-16	1.135826E-18
2.292830E+03	2.611187E-16	1.188031E-18
2.332362E+03	2.761388E-16	1.256369E-18
2.371893E+03	2.940380E-16	1.337806E-18
2.411425E+03	3.143278E-16	1.430121E-18
2.450956E+03	3.363806E-16	1.530456E-18
2.490488E+03	3.592772E-16	1.634630E-18
2.530019E+03	3.814943E-16	1.735713E-18
2.569551E+03	4.009864E-16	1.824397E-18
2.609082E+03	4.159240E-16	1.892360E-18
2.648614E+03	4.257862E-16	1.937231E-18
2.688145E+03	4.315009E-16	1.963231E-18
2.727677E+03	4.345036E-16	1.976893E-18
2.767209E+03	4.360399E-16	1.983883E-18
2.806740E+03	4.370629E-16	1.988537E-18
2.846272E+03	4.383350E-16	1.994325E-18
2.885803E+03	4.405132E-16	2.004235E-18
2.925335E+03	4.442809E-16	2.021378E-18
2.964866E+03	4.503755E-16	2.049106E-18
2.974749E+03	4.523568E-16	2.058121E-18
2.984632E+03	4.545656E-16	2.068171E-18
2.994515E+03	4.570106E-16	2.079295E-18
3.004398E+03	4.597127E-16	2.091589E-18
3.014281E+03	4.627060E-16	2.105208E-18
3.024164E+03	4.659993E-16	2.120191E-18
3.034047E+03	4.696411E-16	2.136761E-18
3.043929E+03	4.736425E-16	2.154966E-18
3.053812E+03	4.780579E-16	2.175055E-18
3.063695E+03	4.829202E-16	2.197178E-18
3.073578E+03	4.882748E-16	2.221540E-18
3.083461E+03	4.941441E-16	2.248244E-18
3.093344E+03	5.005727E-16	2.277492E-18
3.103227E+03	5.076267E-16	2.309586E-18
3.113110E+03	5.153410E-16	2.344685E-18
3.122993E+03	5.237723E-16	2.383046E-18
3.132875E+03	5.329812E-16	2.424944E-18
3.142758E+03	5.430319E-16	2.470672E-18
3.152641E+03	5.539917E-16	2.520537E-18
3.162524E+03	5.659212E-16	2.574813E-18
3.172407E+03	5.788918E-16	2.633827E-18
3.182290E+03	5.929746E-16	2.697900E-18
3.192173E+03	6.082306E-16	2.767311E-18
3.202056E+03	6.247261E-16	2.842362E-18
3.211939E+03	6.425226E-16	2.923332E-18
3.221821E+03	6.616626E-16	3.010415E-18
3.231704E+03	6.821774E-16	3.103753E-18
3.241587E+03	7.040922E-16	3.203460E-18
3.251470E+03	7.274133E-16	3.309566E-18
3.261353E+03	7.521238E-16	3.421993E-18
3.271236E+03	7.781468E-16	3.540392E-18
3.281119E+03	8.054263E-16	3.664507E-18
3.291002E+03	8.338271E-16	3.793724E-18
3.300885E+03	8.631842E-16	3.927292E-18
3.310767E+03	8.933029E-16	4.064326E-18
3.320650E+03	9.239472E-16	4.203750E-18
3.330533E+03	9.548277E-16	4.344250E-18
3.340416E+03	9.856070E-16	4.484289E-18
3.350299E+03	1.015944E-15	4.622315E-18
3.360182E+03	1.045480E-15	4.756696E-18
3.370065E+03	1.073843E-15	4.885743E-18
3.379948E+03	1.100680E-15	5.007845E-18
3.389831E+03	1.125674E-15	5.121561E-18
3.399713E+03	1.148576E-15	5.225759E-18
3.409596E+03	1.169246E-15	5.319805E-18
3.419479E+03	1.187596E-15	5.403291E-18
3.429362E+03	1.203710E-15	5.476607E-18
3.439245E+03	1.217685E-15	5.540192E-18
3.449128E+03	1.229651E-15	5.594631E-18
3.459011E+03	1.202196E-15	5.469718E-18
3.460019E+03	1.204645E-15	5.480860E-18
3.461027E+03	1.207091E-15	5.491992E-18
3.462035E+03	1.209537E-15	5.503120E-18
3.463043E+03	1.211982E-15	5.514243E-18
3.464051E+03	1.214311E-15	5.524840E-18
3.465059E+03	1.216753E-15	5.535952E-18
3.466067E+03	1.219080E-15	5.546539E-18
3.467074E+03	1.221405E-15	5.557116E-18
3.468082E+03	1.223615E-15	5.567171E-18
3.469090E+03	1.224676E-15	5.571997E-18
3.470098E+03	1.226309E-15	5.579428E-18
3.471106E+03	1.227596E-15	5.585283E-18
3.472114E+03	1.228308E-15	5.588523E-18
3.473122E+03	1.229707E-15	5.594889E-18
3.474131E+03	1.231678E-15	5.603856E-18
3.475139E+03	1.234336E-15	5.615950E-18
3.476147E+03	1.237107E-15	5.628558E-18
3.477155E+03	1.238385E-15	5.634371E-18
3.478163E+03	1.238628E-15	5.635476E-18
3.479171E+03	1.239558E-15	5.639707E-18
3.480179E+03	1.241748E-15	5.649672E-18
3.481186E+03	1.243478E-15	5.657543E-18
3.482194E+03	1.245436E-15	5.666452E-18
3.483202E+03	1.246818E-15	5.672738E-18
3.484210E+03	1.247049E-15	5.673792E-18
3.485218E+03	1.247853E-15	5.677449E-18
3.486226E+03	1.248884E-15	5.682139E-18
3.487234E+03	1.250603E-15	5.689961E-18
3.488242E+03	1.252091E-15	5.696729E-18
3.489250E+03	1.253231E-15	5.701918E-18
3.490258E+03	1.254944E-15	5.709711E-18
3.491266E+03	1.256426E-15	5.716453E-18
3.492275E+03	1.256985E-15	5.718997E-18
3.493282E+03	1.257773E-15	5.722581E-18
3.494291E+03	1.258329E-15	5.725110E-18
3.495298E+03	1.258881E-15	5.727625E-18
3.496306E+03	1.259203E-15	5.729087E-18
3.497314E+03	1.259637E-15	5.731061E-18
3.498322E+03	1.259954E-15	5.732503E-18
3.499330E+03	1.260153E-15	5.733410E-18
3.500338E+03	1.260464E-15	5.734827E-18
3.501346E+03	1.260659E-15	5.735713E-18
3.502354E+03	1.260966E-15	5.737109E-18
3.503362E+03	1.261156E-15	5.737974E-18
3.504370E+03	1.261459E-15	5.739353E-18
3.505378E+03	1.262909E-15	5.745950E-18
3.506386E+03	1.264013E-15	5.750973E-18
3.507393E+03	1.265229E-15	5.756507E-18
3.508402E+03	1.267479E-15	5.766743E-18
3.509409E+03	1.268806E-15	5.772780E-18
3.510418E+03	1.269786E-15	5.777238E-18
3.511426E+03	1.270763E-15	5.781683E-18
3.512434E+03	1.271394E-15	5.784552E-18
3.513442E+03	1.271676E-15	5.785835E-18
3.514450E+03	1.271842E-15	5.786590E-18
3.515458E+03	1.272580E-15	5.789949E-18
3.516466E+03	1.273086E-15	5.792255E-18
3.517474E+03	1.273591E-15	5.794551E-18
3.518482E+03	1.274093E-15	5.796834E-18
3.519490E+03	1.274248E-15	5.797538E-18
3.520498E+03	1.274400E-15	5.798232E-18
3.521505E+03	1.274897E-15	5.800491E-18
3.522514E+03	1.275276E-15	5.802215E-18
3.523521E+03	1.275192E-15	5.801834E-18
3.524529E+03	1.275337E-15	5.802492E-18
3.525537E+03	1.275364E-15	5.802615E-18
3.526545E+03	1.275849E-15	5.804826E-18
3.527553E+03	1.277370E-15	5.811745E-18
3.528562E+03	1.279119E-15	5.819699E-18
3.529570E+03	1.280404E-15	5.825549E-18
3.530578E+03	1.282610E-15	5.835583E-18
3.531586E+03	1.285043E-15	5.846653E-18
3.532594E+03	1.287014E-15	5.855622E-18
3.533602E+03	1.288753E-15	5.863534E-18
3.534610E+03	1.288879E-15	5.864106E-18
3.535618E+03	1.289808E-15	5.868332E-18
3.536625E+03	1.291195E-15	5.874646E-18
3.537633E+03	1.292006E-15	5.878333E-18
3.538641E+03	1.292814E-15	5.882012E-18
3.539649E+03	1.294198E-15	5.888306E-18
3.540657E+03	1.296038E-15	5.896679E-18
3.541665E+03	1.298224E-15	5.906623E-18
3.542673E+03	1.300061E-15	5.914984E-18
3.543681E+03	1.302934E-15	5.928052E-18
3.544689E+03	1.305573E-15	5.940060E-18
3.545697E+03	1.306714E-15	5.945254E-18
3.546706E+03	1.307970E-15	5.950965E-18
3.547714E+03	1.309568E-15	5.958236E-18
3.548722E+03	1.308862E-15	5.955025E-18
3.549730E+03	1.307694E-15	5.949712E-18
3.550737E+03	1.306984E-15	5.946483E-18
3.551745E+03	1.306389E-15	5.943773E-18
3.552753E+03	1.307287E-15	5.947861E-18
3.553761E+03	1.307725E-15	5.949850E-18
3.554769E+03	1.306318E-15	5.943453E-18
3.555777E+03	1.304565E-15	5.935474E-18
3.556785E+03	1.303615E-15	5.931154E-18
3.557793E+03	1.303816E-15	5.932067E-18
3.558801E+03	1.303324E-15	5.929830E-18
3.559809E+03	1.302715E-15	5.927060E-18
3.560817E+03	1.302796E-15	5.927426E-18
3.561825E+03	1.302415E-15	5.925694E-18
3.562833E+03	1.301342E-15	5.920809E-18
3.563841E+03	1.301187E-15	5.920108E-18
3.564849E+03	1.301837E-15	5.923065E-18
3.565857E+03	1.302371E-15	5.925494E-18
3.566865E+03	1.302213E-15	5.924773E-18
3.567873E+03	1.300672E-15	5.917761E-18
3.568881E+03	1.299359E-15	5.911790E-18
3.569889E+03	1.300002E-15	5.914715E-18
3.570897E+03	1.300874E-15	5.918682E-18
3.571905E+03	1.301975E-15	5.923689E-18
3.572913E+03	1.303648E-15	5.931303E-18
3.573921E+03	1.304746E-15	5.936297E-18
3.574929E+03	1.305496E-15	5.939712E-18
3.575937E+03	1.307166E-15	5.947310E-18
3.576945E+03	1.308259E-15	5.952281E-18
3.577953E+03	1.308775E-15	5.954630E-18
3.578960E+03	1.309981E-15	5.960115E-18
3.579968E+03	1.312219E-15	5.970299E-18
3.580976E+03	1.314111E-15	5.978909E-18
3.581984E+03	1.315543E-15	5.985421E-18
3.582993E+03	1.315937E-15	5.987214E-18
3.584001E+03	1.316215E-15	5.988480E-18
3.585009E+03	1.316837E-15	5.991309E-18
3.586017E+03	1.317802E-15	5.995700E-18
3.587025E+03	1.318421E-15	5.998517E-18
3.588033E+03	1.319154E-15	6.001850E-18
3.589041E+03	1.321725E-15	6.013550E-18
3.590049E+03	1.322915E-15	6.018965E-18
3.591056E+03	1.322610E-15	6.017573E-18
3.592065E+03	1.322302E-15	6.016176E-18
3.593072E+03	1.322569E-15	6.017389E-18
3.594080E+03	1.323640E-15	6.022260E-18
3.595088E+03	1.325743E-15	6.031828E-18
3.596096E+03	1.328189E-15	6.042957E-18
3.597104E+03	1.328106E-15	6.042581E-18
3.598112E+03	1.328137E-15	6.042720E-18
3.599120E+03	1.329200E-15	6.047560E-18
3.600128E+03	1.330493E-15	6.053440E-18
3.601137E+03	1.332473E-15	6.062449E-18
3.602145E+03	1.334223E-15	6.070410E-18
3.603153E+03	1.335626E-15	6.076795E-18
3.604161E+03	1.335994E-15	6.078471E-18
3.605169E+03	1.337395E-15	6.084845E-18
3.606177E+03	1.338565E-15	6.090168E-18
3.607184E+03	1.340078E-15	6.097053E-18
3.608192E+03	1.341246E-15	6.102366E-18
3.609200E+03	1.341953E-15	6.105583E-18
3.610208E+03	1.342659E-15	6.108795E-18
3.611216E+03	1.343020E-15	6.110437E-18
3.612224E+03	1.343609E-15	6.113115E-18
3.613232E+03	1.344427E-15	6.116838E-18
3.614240E+03	1.345128E-15	6.120028E-18
3.615248E+03	1.345829E-15	6.123217E-18
3.616256E+03	1.346299E-15	6.125357E-18
3.617264E+03	1.347457E-15	6.130623E-18
3.618272E+03	1.348269E-15	6.134319E-18
3.619281E+03	1.349424E-15	6.139575E-18
3.620289E+03	1.351497E-15	6.149005E-18
3.621296E+03	1.352765E-15	6.154772E-18
3.622304E+03	1.352655E-15	6.154272E-18
3.623312E+03	1.351742E-15	6.150120E-18
3.624320E+03	1.350483E-15	6.144392E-18
3.625328E+03	1.350371E-15	6.143882E-18
3.626336E+03	1.351863E-15	6.150672E-18
3.627344E+03	1.352552E-15	6.153806E-18
3.628352E+03	1.351635E-15	6.149633E-18
3.629360E+03	1.351520E-15	6.149108E-18
3.630368E+03	1.350372E-15	6.143886E-18
3.631376E+03	1.349567E-15	6.140224E-18
3.632384E+03	1.349793E-15	6.141253E-18
3.633392E+03	1.349331E-15	6.139149E-18
3.634399E+03	1.348753E-15	6.136522E-18
3.635407E+03	1.347832E-15	6.132329E-18
3.636415E+03	1.347940E-15	6.132822E-18
3.637424E+03	1.348048E-15	6.133312E-18
3.638432E+03	1.346780E-15	6.127544E-18
3.639440E+03	1.345512E-15	6.121774E-18
3.640448E+03	1.345847E-15	6.123298E-18
3.641456E+03	1.346640E-15	6.126904E-18
3.642464E+03	1.347316E-15	6.129984E-18
3.643472E+03	1.347763E-15	6.132017E-18
3.644480E+03	1.347294E-15	6.129881E-18
3.645488E+03	1.347624E-15	6.131385E-18
3.646496E+03	1.348298E-15	6.134451E-18
3.647504E+03	1.348742E-15	6.136472E-18
3.648511E+03	1.349643E-15	6.140570E-18
3.649519E+03	1.350887E-15	6.146229E-18
3.650527E+03	1.353159E-15	6.156567E-18
3.651535E+03	1.355888E-15	6.168984E-18
3.652543E+03	1.358959E-15	6.182957E-18
3.653551E+03	1.361000E-15	6.192243E-18
3.654559E+03	1.363269E-15	6.202562E-18
3.655568E+03	1.365421E-15	6.212355E-18
3.656576E+03	1.366315E-15	6.216422E-18
3.657584E+03	1.367665E-15	6.222564E-18
3.658592E+03	1.369244E-15	6.229747E-18
3.659600E+03	1.370592E-15	6.235882E-18
3.660608E+03	1.372168E-15	6.243054E-18
3.661616E+03	1.373973E-15	6.251264E-18
3.662623E+03	1.376004E-15	6.260507E-18
3.663631E+03	1.377121E-15	6.265586E-18
3.664639E+03	1.377323E-15	6.266505E-18
3.665647E+03	1.377410E-15	6.266903E-18
3.666655E+03	1.377610E-15	6.267813E-18
3.667663E+03	1.379181E-15	6.274962E-18
3.668671E+03	1.381893E-15	6.287299E-18
3.669679E+03	1.384261E-15	6.298075E-18
3.670687E+03	1.386286E-15	6.307288E-18
3.671695E+03	1.388539E-15	6.317537E-18
3.672703E+03	1.391475E-15	6.330897E-18
3.673712E+03	1.395209E-15	6.347886E-18
3.674720E+03	1.399399E-15	6.366947E-18
3.675728E+03	1.403130E-15	6.383925E-18
3.676735E+03	1.406291E-15	6.398305E-18
3.677743E+03	1.409564E-15	6.413194E-18
3.678751E+03	1.412950E-15	6.428600E-18
3.679759E+03	1.416677E-15	6.445557E-18
3.680767E+03	1.420630E-15	6.463543E-18
3.681775E+03	1.424583E-15	6.481529E-18
3.682783E+03	1.429332E-15	6.503138E-18
3.683791E+03	1.434764E-15	6.527852E-18
3.684799E+03	1.439397E-15	6.548932E-18
3.685807E+03	1.444370E-15	6.571557E-18
3.686815E+03	1.450710E-15	6.600401E-18
3.687823E+03	1.454313E-15	6.616792E-18
3.688831E+03	1.457115E-15	6.629544E-18
3.689839E+03	1.460260E-15	6.643850E-18
3.690846E+03	1.463061E-15	6.656594E-18
3.691855E+03	1.466431E-15	6.671929E-18
3.692863E+03	1.470939E-15	6.692439E-18
3.693871E+03	1.475103E-15	6.711385E-18
3.694879E+03	1.478470E-15	6.726702E-18
3.695887E+03	1.482177E-15	6.743568E-18
3.696895E+03	1.487591E-15	6.768201E-18
3.697903E+03	1.493686E-15	6.795931E-18
3.698911E+03	1.499324E-15	6.821584E-18
3.699919E+03	1.503936E-15	6.842566E-18
3.700927E+03	1.507522E-15	6.858884E-18
3.701935E+03	1.511564E-15	6.877271E-18
3.702943E+03	1.515830E-15	6.896681E-18
3.703951E+03	1.519982E-15	6.915574E-18
3.704958E+03	1.523905E-15	6.933422E-18
3.705966E+03	1.528054E-15	6.952300E-18
3.706974E+03	1.532999E-15	6.974798E-18
3.707982E+03	1.537487E-15	6.995217E-18
3.708990E+03	1.541519E-15	7.013560E-18
3.709999E+03	1.546459E-15	7.036037E-18
3.711007E+03	1.551625E-15	7.059540E-18
3.712015E+03	1.555994E-15	7.079419E-18
3.713023E+03	1.560134E-15	7.098257E-18
3.714031E+03	1.564047E-15	7.116059E-18
3.715039E+03	1.568412E-15	7.135918E-18
3.716047E+03	1.573231E-15	7.157843E-18
3.717055E+03	1.577934E-15	7.179242E-18
3.718062E+03	1.581955E-15	7.197537E-18
3.719070E+03	1.585066E-15	7.211691E-18
3.720078E+03	1.588062E-15	7.225323E-18
3.721086E+03	1.591853E-15	7.242569E-18
3.722094E+03	1.595756E-15	7.260327E-18
3.723102E+03	1.598068E-15	7.270848E-18
3.724110E+03	1.600039E-15	7.279813E-18
3.725118E+03	1.602690E-15	7.291878E-18
3.726126E+03	1.605568E-15	7.304969E-18
3.727134E+03	1.608899E-15	7.320125E-18
3.728143E+03	1.611094E-15	7.330112E-18
3.729151E+03	1.611813E-15	7.333385E-18
3.730159E+03	1.611965E-15	7.334075E-18
3.731167E+03	1.612684E-15	7.337346E-18
3.732174E+03	1.613063E-15	7.339069E-18
3.733182E+03	1.612874E-15	7.338210E-18
3.734190E+03	1.612232E-15	7.335288E-18
3.735198E+03	1.611363E-15	7.331334E-18
3.736206E+03	1.610153E-15	7.325830E-18
3.737214E+03	1.608717E-15	7.319297E-18
3.738222E+03	1.607962E-15	7.315860E-18
3.739230E+03	1.607320E-15	7.312941E-18
3.740238E+03	1.606451E-15	7.308987E-18
3.741246E+03	1.604903E-15	7.301944E-18
3.742254E+03	1.603468E-15	7.295414E-18
3.743262E+03	1.601354E-15	7.285796E-18
3.744270E+03	1.598220E-15	7.271539E-18
3.745278E+03	1.596107E-15	7.261927E-18
3.746286E+03	1.593202E-15	7.248708E-18
3.747294E+03	1.589845E-15	7.233432E-18
3.748302E+03	1.586375E-15	7.217646E-18
3.749310E+03	1.581887E-15	7.197225E-18
3.750318E+03	1.577400E-15	7.176812E-18
3.751326E+03	1.573140E-15	7.157431E-18
3.752334E+03	1.569334E-15	7.140112E-18
3.753342E+03	1.565642E-15	7.123315E-18
3.754350E+03	1.561838E-15	7.106008E-18
3.755358E+03	1.557242E-15	7.085099E-18
3.756366E+03	1.553214E-15	7.066770E-18
3.757374E+03	1.549525E-15	7.049989E-18
3.758382E+03	1.545837E-15	7.033208E-18
3.759390E+03	1.542377E-15	7.017464E-18
3.760397E+03	1.537560E-15	6.995549E-18
3.761405E+03	1.532971E-15	6.974672E-18
3.762413E+03	1.528835E-15	6.955852E-18
3.763421E+03	1.524135E-15	6.934467E-18
3.764430E+03	1.518759E-15	6.910007E-18
3.765438E+03	1.513835E-15	6.887604E-18
3.766446E+03	1.508686E-15	6.864180E-18
3.767454E+03	1.503426E-15	6.840245E-18
3.768462E+03	1.497377E-15	6.812724E-18
3.769470E+03	1.491893E-15	6.787776E-18
3.770478E+03	1.486524E-15	6.763346E-18
3.771486E+03	1.481044E-15	6.738414E-18
3.772494E+03	1.475677E-15	6.713996E-18
3.773502E+03	1.470538E-15	6.690612E-18
3.774509E+03	1.464836E-15	6.664669E-18
3.775517E+03	1.458344E-15	6.635134E-18
3.776525E+03	1.452645E-15	6.609204E-18
3.777533E+03	1.446834E-15	6.582767E-18
3.778541E+03	1.441701E-15	6.559413E-18
3.779549E+03	1.436570E-15	6.536068E-18
3.780557E+03	1.431666E-15	6.513753E-18
3.781565E+03	1.427438E-15	6.494519E-18
3.782574E+03	1.424340E-15	6.480424E-18
3.783582E+03	1.420792E-15	6.464281E-18
3.784590E+03	1.416455E-15	6.444548E-18
3.785598E+03	1.412346E-15	6.425852E-18
3.786606E+03	1.410265E-15	6.416385E-18
3.787614E+03	1.408523E-15	6.408460E-18
3.788621E+03	1.406331E-15	6.398488E-18
3.789629E+03	1.404027E-15	6.388006E-18
3.790637E+03	1.400823E-15	6.373425E-18
3.791645E+03	1.398070E-15	6.360901E-18
3.792653E+03	1.396894E-15	6.355550E-18
3.793661E+03	1.394818E-15	6.346103E-18
3.794669E+03	1.392517E-15	6.335637E-18
3.795677E+03	1.391117E-15	6.329267E-18
3.796685E+03	1.389606E-15	6.322391E-18
3.797693E+03	1.387757E-15	6.313978E-18
3.798701E+03	1.385346E-15	6.303008E-18
3.799709E+03	1.383386E-15	6.294093E-18
3.800717E+03	1.381426E-15	6.285176E-18
3.801726E+03	1.379805E-15	6.277799E-18
3.802733E+03	1.377959E-15	6.269400E-18
3.803741E+03	1.376788E-15	6.264075E-18
3.804749E+03	1.376181E-15	6.261312E-18
3.805757E+03	1.375124E-15	6.256502E-18
3.806765E+03	1.373504E-15	6.249132E-18
3.807773E+03	1.371436E-15	6.239724E-18
3.808781E+03	1.369031E-15	6.228783E-18
3.809789E+03	1.366965E-15	6.219380E-18
3.810797E+03	1.364448E-15	6.207931E-18
3.811805E+03	1.362046E-15	6.197000E-18
3.812813E+03	1.360768E-15	6.191186E-18
3.813821E+03	1.359040E-15	6.183325E-18
3.814829E+03	1.356415E-15	6.171379E-18
3.815836E+03	1.353791E-15	6.159441E-18
3.816844E+03	1.350942E-15	6.146481E-18
3.817852E+03	1.348095E-15	6.133526E-18
3.818861E+03	1.345472E-15	6.121593E-18
3.819869E+03	1.343525E-15	6.112732E-18
3.820877E+03	1.341802E-15	6.104893E-18
3.821885E+03	1.339181E-15	6.092971E-18
3.822893E+03	1.336114E-15	6.079014E-18
3.823901E+03	1.333046E-15	6.065056E-18
3.824909E+03	1.329755E-15	6.050084E-18
3.825917E+03	1.327026E-15	6.037667E-18
3.826925E+03	1.323962E-15	6.023725E-18
3.827933E+03	1.320113E-15	6.006214E-18
3.828941E+03	1.316040E-15	5.987684E-18
3.829948E+03	1.312305E-15	5.970692E-18
3.830956E+03	1.308684E-15	5.954216E-18
3.831964E+03	1.304615E-15	5.935701E-18
3.832972E+03	1.299987E-15	5.914644E-18
3.833980E+03	1.294575E-15	5.890021E-18
3.834988E+03	1.288828E-15	5.863876E-18
3.835996E+03	1.284316E-15	5.843346E-18
3.837004E+03	1.280589E-15	5.826387E-18
3.838013E+03	1.276639E-15	5.808416E-18
3.839021E+03	1.272802E-15	5.790961E-18
3.840029E+03	1.268966E-15	5.773508E-18
3.841037E+03	1.265244E-15	5.756572E-18
3.842045E+03	1.262082E-15	5.742185E-18
3.843053E+03	1.259257E-15	5.729335E-18
3.844060E+03	1.256433E-15	5.716486E-18
3.845068E+03	1.253946E-15	5.705170E-18
3.846076E+03	1.251012E-15	5.691819E-18
3.847084E+03	1.247183E-15	5.674400E-18
3.848092E+03	1.243691E-15	5.658510E-18
3.849100E+03	1.241095E-15	5.646701E-18
3.850108E+03	1.239283E-15	5.638458E-18
3.851116E+03	1.238703E-15	5.635817E-18
3.852124E+03	1.240025E-15	5.641830E-18
3.853132E+03	1.241794E-15	5.649881E-18
3.854140E+03	1.242892E-15	5.654875E-18
3.855148E+03	1.244213E-15	5.660889E-18
3.856157E+03	1.246318E-15	5.670464E-18
3.857165E+03	1.248199E-15	5.679023E-18
3.858172E+03	1.250079E-15	5.687578E-18
3.859180E+03	1.252519E-15	5.698676E-18
3.860188E+03	1.255294E-15	5.711301E-18
3.861196E+03	1.258291E-15	5.724937E-18
3.862204E+03	1.261400E-15	5.739084E-18
3.863212E+03	1.264508E-15	5.753226E-18
3.864220E+03	1.268511E-15	5.771436E-18
3.865228E+03	1.272735E-15	5.790656E-18
3.866236E+03	1.276624E-15	5.808351E-18
3.867244E+03	1.281518E-15	5.830616E-18
3.868252E+03	1.287863E-15	5.859486E-18
3.869260E+03	1.294431E-15	5.889366E-18
3.870268E+03	1.300886E-15	5.918735E-18
3.871276E+03	1.308344E-15	5.952667E-18
3.872283E+03	1.315355E-15	5.984566E-18
3.873291E+03	1.322588E-15	6.017475E-18
3.874300E+03	1.330935E-15	6.055453E-18
3.875308E+03	1.338165E-15	6.088349E-18
3.876316E+03	1.345841E-15	6.123270E-18
3.877324E+03	1.354743E-15	6.163773E-18
3.878332E+03	1.363754E-15	6.204773E-18
3.879340E+03	1.373211E-15	6.247797E-18
3.880348E+03	1.383447E-15	6.294367E-18
3.881356E+03	1.394238E-15	6.343467E-18
3.882364E+03	1.404247E-15	6.389007E-18
3.883372E+03	1.414366E-15	6.435044E-18
3.884380E+03	1.425709E-15	6.486654E-18
3.885388E+03	1.436494E-15	6.535720E-18
3.886395E+03	1.446607E-15	6.581735E-18
3.887403E+03	1.457054E-15	6.629264E-18
3.888411E+03	1.467499E-15	6.676786E-18
