#wls	flux	fluxerr
1.581262E+03	4.192469E-17	5.199439E-21
1.620794E+03	4.243990E-17	5.263333E-21
1.660325E+03	4.291855E-17	5.322694E-21
1.699857E+03	4.335324E-17	5.376603E-21
1.739388E+03	4.373374E-17	5.423792E-21
1.778920E+03	4.406113E-17	5.464392E-21
1.818451E+03	4.429734E-17	5.493686E-21
1.857983E+03	4.442016E-17	5.508917E-21
1.897514E+03	4.439448E-17	5.505732E-21
1.937046E+03	4.420092E-17	5.481725E-21
1.976578E+03	4.382926E-17	5.435631E-21
2.016109E+03	4.332315E-17	5.372864E-21
2.055641E+03	4.279397E-17	5.307235E-21
2.095172E+03	4.240370E-17	5.258833E-21
2.134704E+03	4.236837E-17	5.254451E-21
2.174235E+03	4.281230E-17	5.309506E-21
2.213767E+03	4.376733E-17	5.427946E-21
2.253298E+03	4.513975E-17	5.598149E-21
2.292830E+03	4.679385E-17	5.803287E-21
2.332362E+03	4.861480E-17	6.029117E-21
2.371893E+03	5.052669E-17	6.266225E-21
2.411425E+03	5.243428E-17	6.502798E-21
2.450956E+03	5.431664E-17	6.736244E-21
2.490488E+03	5.610517E-17	6.958053E-21
2.530019E+03	5.776710E-17	7.164161E-21
2.569551E+03	5.926628E-17	7.350085E-21
2.609082E+03	6.059968E-17	7.515448E-21
2.648614E+03	6.173843E-17	7.656672E-21
2.688145E+03	6.272477E-17	7.778995E-21
2.727677E+03	6.359805E-17	7.887296E-21
2.767209E+03	6.440444E-17	7.987301E-21
2.806740E+03	6.521337E-17	8.087620E-21
2.846272E+03	6.612983E-17	8.201276E-21
2.885803E+03	6.721835E-17	8.336270E-21
2.925335E+03	6.859012E-17	8.506392E-21
2.964866E+03	7.033823E-17	8.723188E-21
2.974749E+03	7.083684E-17	8.785023E-21
2.984632E+03	7.137569E-17	8.851849E-21
2.994515E+03	7.194777E-17	8.922797E-21
3.004398E+03	7.255416E-17	8.998000E-21
3.014281E+03	7.318846E-17	9.076664E-21
3.024164E+03	7.386761E-17	9.160890E-21
3.034047E+03	7.458522E-17	9.249886E-21
3.043929E+03	7.534066E-17	9.343573E-21
3.053812E+03	7.613822E-17	9.442484E-21
3.063695E+03	7.698573E-17	9.547590E-21
3.073578E+03	7.787575E-17	9.657967E-21
3.083461E+03	7.880844E-17	9.773637E-21
3.093344E+03	7.979148E-17	9.895550E-21
3.103227E+03	8.082480E-17	1.002370E-20
3.113110E+03	8.190076E-17	1.015714E-20
3.122993E+03	8.302659E-17	1.029676E-20
3.132875E+03	8.420187E-17	1.044251E-20
3.142758E+03	8.542596E-17	1.059432E-20
3.152641E+03	8.669799E-17	1.075208E-20
3.162524E+03	8.801699E-17	1.091565E-20
3.172407E+03	8.937422E-17	1.108397E-20
3.182290E+03	9.078292E-17	1.125868E-20
3.192173E+03	9.224108E-17	1.143951E-20
3.202056E+03	9.373170E-17	1.162438E-20
3.211939E+03	9.526685E-17	1.181476E-20
3.221821E+03	9.684341E-17	1.201028E-20
3.231704E+03	9.845053E-17	1.220959E-20
3.241587E+03	1.000914E-16	1.241309E-20
3.251470E+03	1.017615E-16	1.262021E-20
3.261353E+03	1.034481E-16	1.282938E-20
3.271236E+03	1.051528E-16	1.304079E-20
3.281119E+03	1.068765E-16	1.325455E-20
3.291002E+03	1.085968E-16	1.346791E-20
3.300885E+03	1.103205E-16	1.368167E-20
3.310767E+03	1.120311E-16	1.389382E-20
3.320650E+03	1.137184E-16	1.410307E-20
3.330533E+03	1.153785E-16	1.430895E-20
3.340416E+03	1.169915E-16	1.450899E-20
3.350299E+03	1.185435E-16	1.470147E-20
3.360182E+03	1.200334E-16	1.488624E-20
3.370065E+03	1.214295E-16	1.505937E-20
3.379948E+03	1.227199E-16	1.521940E-20
3.389831E+03	1.238840E-16	1.536378E-20
3.399713E+03	1.249003E-16	1.548981E-20
3.409596E+03	1.257539E-16	1.559567E-20
3.419479E+03	1.264113E-16	1.567720E-20
3.429362E+03	1.268713E-16	1.573425E-20
3.439245E+03	1.271244E-16	1.576563E-20
3.449128E+03	1.272075E-16	1.577594E-20
3.459011E+03	1.271594E-16	1.576997E-20
3.468894E+03	1.270380E-16	1.575491E-20
3.478776E+03	1.268975E-16	1.573749E-20
3.488659E+03	1.267870E-16	1.572379E-20
3.498542E+03	1.267678E-16	1.572140E-20
3.508425E+03	1.268992E-16	1.573770E-20
3.518308E+03	1.272217E-16	1.577770E-20
3.528191E+03	1.277979E-16	1.584916E-20
3.538074E+03	1.286665E-16	1.595688E-20
3.547957E+03	1.298940E-16	1.610911E-20
3.557840E+03	1.315139E-16	1.630999E-20
3.567722E+03	1.335885E-16	1.656729E-20
3.577605E+03	1.361658E-16	1.688691E-20
3.587488E+03	1.393064E-16	1.727640E-20
3.597371E+03	1.430674E-16	1.774283E-20
3.607254E+03	1.475069E-16	1.829340E-20
3.617137E+03	1.526762E-16	1.893448E-20
3.627020E+03	1.586341E-16	1.967337E-20
3.636903E+03	1.654265E-16	2.051574E-20
3.646786E+03	1.730853E-16	2.146556E-20
3.656668E+03	1.816155E-16	2.252345E-20
3.666551E+03	1.910126E-16	2.368885E-20
3.676434E+03	2.012150E-16	2.495412E-20
3.686317E+03	2.121273E-16	2.630744E-20
3.696200E+03	2.235792E-16	2.772767E-20
3.706083E+03	2.353619E-16	2.918892E-20
3.715966E+03	2.472228E-16	3.065987E-20
3.725849E+03	2.589013E-16	3.210821E-20
3.735732E+03	2.701301E-16	3.350077E-20
3.745614E+03	2.806695E-16	3.480783E-20
3.755497E+03	2.904027E-16	3.601492E-20
3.765380E+03	2.992919E-16	3.711733E-20
3.775263E+03	3.073735E-16	3.811958E-20
3.785146E+03	3.148480E-16	3.904655E-20
3.795029E+03	3.220026E-16	3.993383E-20
3.804912E+03	3.291668E-16	4.082232E-20
3.814795E+03	3.368045E-16	4.176952E-20
3.824678E+03	3.454229E-16	4.283835E-20
3.834560E+03	3.554929E-16	4.408720E-20
3.844443E+03	3.674960E-16	4.557579E-20
3.854326E+03	3.818513E-16	4.735609E-20
3.864209E+03	3.988999E-16	4.947039E-20
3.874092E+03	4.188066E-16	5.193916E-20
3.883975E+03	4.415951E-16	5.476533E-20
3.893858E+03	4.670314E-16	5.791986E-20
3.903741E+03	4.943555E-16	6.130851E-20
3.913624E+03	5.224488E-16	6.479255E-20
3.923506E+03	5.499535E-16	6.820360E-20
3.933389E+03	5.755065E-16	7.137260E-20
3.943272E+03	5.977570E-16	7.413203E-20
3.953155E+03	6.156897E-16	7.635599E-20
3.963038E+03	6.295290E-16	7.807230E-20
3.972921E+03	6.400644E-16	7.937886E-20
3.982804E+03	6.484154E-16	8.041452E-20
3.992687E+03	6.559659E-16	8.135090E-20
4.002570E+03	6.641979E-16	8.237181E-20
4.012452E+03	6.743677E-16	8.363303E-20
4.022335E+03	6.869291E-16	8.519086E-20
4.032218E+03	7.019910E-16	8.705878E-20
4.042101E+03	7.193316E-16	8.920930E-20
4.051984E+03	7.380343E-16	9.152874E-20
4.061867E+03	7.567540E-16	9.385030E-20
4.071750E+03	7.740510E-16	9.599541E-20
4.081633E+03	7.886448E-16	9.780529E-20
4.091516E+03	7.993267E-16	9.913002E-20
4.101398E+03	8.049645E-16	9.982919E-20
4.111281E+03	8.048424E-16	9.981405E-20
4.121164E+03	7.985496E-16	9.903363E-20
4.131047E+03	7.860342E-16	9.748150E-20
4.140930E+03	7.679642E-16	9.524051E-20
4.150813E+03	7.453308E-16	9.243359E-20
4.160696E+03	7.193970E-16	8.921734E-20
4.170579E+03	6.918667E-16	8.580313E-20
4.180462E+03	6.644396E-16	8.240170E-20
4.190344E+03	6.386577E-16	7.920430E-20
4.200227E+03	6.160017E-16	7.639457E-20
4.210110E+03	5.977145E-16	7.412664E-20
4.219993E+03	5.847024E-16	7.251293E-20
4.229876E+03	5.774583E-16	7.161453E-20
4.239759E+03	5.762675E-16	7.146684E-20
4.249642E+03	5.812079E-16	7.207953E-20
4.259525E+03	5.918206E-16	7.339568E-20
4.269408E+03	6.074300E-16	7.533151E-20
4.279290E+03	6.271416E-16	7.777607E-20
4.289173E+03	6.495059E-16	8.054961E-20
4.299056E+03	6.728049E-16	8.343907E-20
4.308939E+03	6.952500E-16	8.622264E-20
4.318822E+03	7.155705E-16	8.874271E-20
4.328705E+03	7.327108E-16	9.086839E-20
4.338588E+03	7.457943E-16	9.249096E-20
4.348471E+03	7.546483E-16	9.358900E-20
4.358354E+03	7.593791E-16	9.417570E-20
4.368236E+03	7.602850E-16	9.428803E-20
4.378119E+03	7.579768E-16	9.400178E-20
4.388002E+03	7.531773E-16	9.340655E-20
4.397885E+03	7.467027E-16	9.260359E-20
4.407768E+03	7.394021E-16	9.169818E-20
4.417651E+03	7.321257E-16	9.079579E-20
4.427534E+03	7.257326E-16	9.000293E-20
4.437417E+03	7.211384E-16	8.943317E-20
4.447300E+03	7.191746E-16	8.918962E-20
4.457182E+03	7.205511E-16	8.936032E-20
4.467065E+03	7.257783E-16	9.000857E-20
4.476948E+03	7.352024E-16	9.117732E-20
4.486831E+03	7.489568E-16	9.288309E-20
4.496714E+03	7.667523E-16	9.509001E-20
4.506597E+03	7.880214E-16	9.772773E-20
4.516480E+03	8.119538E-16	1.006957E-19
4.526363E+03	8.372960E-16	1.038386E-19
4.536245E+03	8.625402E-16	1.069693E-19
4.546128E+03	8.861710E-16	1.098999E-19
4.556011E+03	9.071194E-16	1.124978E-19
4.565894E+03	9.245390E-16	1.146581E-19
4.575777E+03	9.377175E-16	1.162925E-19
4.585660E+03	9.461569E-16	1.173391E-19
4.595543E+03	9.495492E-16	1.177598E-19
4.605426E+03	9.476860E-16	1.175287E-19
4.615309E+03	9.402727E-16	1.166094E-19
4.625191E+03	9.271617E-16	1.149834E-19
4.635074E+03	9.084263E-16	1.126599E-19
4.644957E+03	8.844120E-16	1.096817E-19
4.654840E+03	8.557482E-16	1.061269E-19
4.664723E+03	8.234914E-16	1.021265E-19
4.674606E+03	7.893955E-16	9.789805E-20
4.684489E+03	7.553617E-16	9.367729E-20
4.694372E+03	7.233381E-16	8.970584E-20
4.704255E+03	6.956664E-16	8.627408E-20
4.714137E+03	6.744668E-16	8.364498E-20
4.724020E+03	6.614021E-16	8.202474E-20
4.733903E+03	6.574783E-16	8.153812E-20
4.743786E+03	6.635003E-16	8.228494E-20
4.753669E+03	6.800675E-16	8.433955E-20
4.763552E+03	7.069777E-16	8.767685E-20
4.773435E+03	7.436532E-16	9.222520E-20
4.783318E+03	7.889951E-16	9.784833E-20
4.793201E+03	8.406889E-16	1.042592E-19
4.803083E+03	8.953436E-16	1.110373E-19
4.812966E+03	9.489138E-16	1.176809E-19
4.822849E+03	9.980395E-16	1.237732E-19
4.832732E+03	1.039587E-15	1.289258E-19
4.842615E+03	1.070928E-15	1.328126E-19
4.852498E+03	1.090993E-15	1.353010E-19
4.862381E+03	1.099753E-15	1.363873E-19
4.872264E+03	1.098061E-15	1.361775E-19
4.882147E+03	1.087522E-15	1.348705E-19
4.892029E+03	1.070199E-15	1.327221E-19
4.901912E+03	1.048370E-15	1.300150E-19
4.911795E+03	1.024337E-15	1.270345E-19
4.921678E+03	1.000187E-15	1.240395E-19
4.931561E+03	9.775477E-16	1.212319E-19
4.941444E+03	9.572290E-16	1.187120E-19
4.951327E+03	9.395623E-16	1.165210E-19
4.961210E+03	9.245133E-16	1.146547E-19
4.971093E+03	9.113279E-16	1.130195E-19
4.980975E+03	8.990304E-16	1.114944E-19
4.990858E+03	8.867083E-16	1.099663E-19
5.000741E+03	8.737829E-16	1.083633E-19
5.010624E+03	8.598932E-16	1.066407E-19
5.020507E+03	8.449348E-16	1.047856E-19
5.030390E+03	8.294149E-16	1.028609E-19
5.040273E+03	8.140435E-16	1.009546E-19
5.050156E+03	7.996703E-16	9.917210E-20
5.060039E+03	7.872829E-16	9.763586E-20
5.069921E+03	7.778226E-16	9.646262E-20
5.079804E+03	7.720208E-16	9.574311E-20
5.089687E+03	7.700713E-16	9.550132E-20
5.099570E+03	7.719017E-16	9.572833E-20
5.109453E+03	7.772364E-16	9.638991E-20
5.119336E+03	7.854203E-16	9.740484E-20
5.129219E+03	7.955724E-16	9.866387E-20
5.139102E+03	8.067274E-16	1.000473E-19
5.148985E+03	8.180480E-16	1.014512E-19
5.158867E+03	8.287204E-16	1.027747E-19
5.168750E+03	8.380624E-16	1.039333E-19
5.178633E+03	8.457547E-16	1.048873E-19
5.188516E+03	8.516969E-16	1.056242E-19
5.198399E+03	8.558885E-16	1.061440E-19
5.208282E+03	8.585365E-16	1.064724E-19
5.218165E+03	8.599101E-16	1.066427E-19
5.228048E+03	8.602836E-16	1.066891E-19
5.237931E+03	8.600638E-16	1.066618E-19
5.247813E+03	8.595746E-16	1.066011E-19
5.257696E+03	8.590752E-16	1.065392E-19
5.267579E+03	8.586917E-16	1.064916E-19
5.277462E+03	8.584610E-16	1.064630E-19
5.287345E+03	8.583207E-16	1.064456E-19
5.297228E+03	8.582191E-16	1.064330E-19
5.307111E+03	8.580274E-16	1.064092E-19
5.316994E+03	8.576218E-16	1.063589E-19
5.326877E+03	8.568539E-16	1.062637E-19
5.336759E+03	8.555928E-16	1.061073E-19
5.346642E+03	8.537200E-16	1.058750E-19
5.356525E+03	8.511175E-16	1.055522E-19
5.366408E+03	8.477058E-16	1.051291E-19
5.376291E+03	8.434985E-16	1.046074E-19
5.386174E+03	8.386531E-16	1.040064E-19
5.396057E+03	8.334054E-16	1.033556E-19
5.405940E+03	8.280454E-16	1.026909E-19
5.415823E+03	8.229278E-16	1.020563E-19
5.425705E+03	8.184083E-16	1.014958E-19
5.435588E+03	8.147417E-16	1.010410E-19
5.445471E+03	8.118554E-16	1.006831E-19
5.455354E+03	8.095891E-16	1.004020E-19
5.465237E+03	8.077303E-16	1.001715E-19
5.475120E+03	8.060031E-16	9.995729E-20
5.485003E+03	8.041126E-16	9.972283E-20
5.494886E+03	8.018024E-16	9.943632E-20
5.504768E+03	7.989489E-16	9.908244E-20
5.514651E+03	7.954979E-16	9.865447E-20
5.524534E+03	7.914594E-16	9.815363E-20
5.534417E+03	7.870394E-16	9.760546E-20
5.544300E+03	7.824967E-16	9.704210E-20
5.554183E+03	7.781021E-16	9.649709E-20
5.564066E+03	7.740446E-16	9.599389E-20
5.573949E+03	7.705354E-16	9.555870E-20
5.583832E+03	7.676997E-16	9.520702E-20
5.593714E+03	7.652803E-16	9.490697E-20
5.603597E+03	7.629810E-16	9.462182E-20
5.613480E+03	7.605315E-16	9.431804E-20
5.623363E+03	7.576239E-16	9.395744E-20
5.633246E+03	7.540020E-16	9.350827E-20
5.643129E+03	7.495051E-16	9.295058E-20
5.653012E+03	7.442836E-16	9.230303E-20
5.662895E+03	7.385813E-16	9.159585E-20
5.672778E+03	7.326769E-16	9.086361E-20
5.682660E+03	7.269642E-16	9.015514E-20
5.692543E+03	7.218340E-16	8.951891E-20
5.702426E+03	7.176816E-16	8.900395E-20
5.712309E+03	7.147111E-16	8.863556E-20
5.722192E+03	7.130900E-16	8.843451E-20
5.732075E+03	7.129021E-16	8.841120E-20
5.741958E+03	7.138578E-16	8.852973E-20
5.751841E+03	7.155399E-16	8.873833E-20
5.761724E+03	7.176217E-16	8.899651E-20
5.771606E+03	7.199456E-16	8.928470E-20
5.781489E+03	7.224267E-16	8.959239E-20
5.791372E+03	7.250127E-16	8.991310E-20
5.801255E+03	7.276904E-16	9.024518E-20
5.811138E+03	7.304973E-16	9.059327E-20
5.821021E+03	7.334354E-16	9.095763E-20
5.830904E+03	7.363842E-16	9.132334E-20
5.840787E+03	7.391744E-16	9.166936E-20
5.850670E+03	7.416572E-16	9.197726E-20
5.860552E+03	7.436382E-16	9.222294E-20
5.870435E+03	7.449160E-16	9.238140E-20
5.880318E+03	7.453210E-16	9.243163E-20
5.890201E+03	7.447911E-16	9.236591E-20
5.900084E+03	7.432946E-16	9.218032E-20
5.909967E+03	7.408140E-16	9.187268E-20
5.919850E+03	7.374200E-16	9.145177E-20
5.929733E+03	7.331898E-16	9.092716E-20
5.939616E+03	7.283048E-16	9.032134E-20
5.940511E+03	7.235052E-16	8.972611E-20
5.944678E+03	7.196094E-16	8.924298E-20
5.948844E+03	7.173622E-16	8.896428E-20
5.953010E+03	7.122459E-16	8.832978E-20
5.957176E+03	7.089752E-16	8.792416E-20
5.961342E+03	7.066272E-16	8.763297E-20
5.965509E+03	7.027269E-16	8.714927E-20
5.969675E+03	7.010303E-16	8.693887E-20
5.973841E+03	7.001092E-16	8.682463E-20
5.978008E+03	6.984487E-16	8.661871E-20
5.982174E+03	6.988945E-16	8.667400E-20
5.986340E+03	7.012996E-16	8.697225E-20
5.990506E+03	7.015853E-16	8.700769E-20
5.994672E+03	7.018958E-16	8.704620E-20
5.998839E+03	7.047700E-16	8.740264E-20
6.003005E+03	7.048218E-16	8.740907E-20
6.007171E+03	7.073269E-16	8.771973E-20
6.011338E+03	7.085378E-16	8.786990E-20
6.015504E+03	7.062714E-16	8.758884E-20
6.019670E+03	7.050158E-16	8.743312E-20
6.023837E+03	7.048081E-16	8.740737E-20
6.028002E+03	7.060189E-16	8.755752E-20
6.032169E+03	7.061195E-16	8.756999E-20
6.036335E+03	7.074539E-16	8.773548E-20
6.040501E+03	7.049139E-16	8.742048E-20
6.044668E+03	7.037308E-16	8.727376E-20
6.048834E+03	6.999803E-16	8.680864E-20
6.053000E+03	6.963028E-16	8.635257E-20
6.057167E+03	6.943281E-16	8.610767E-20
6.061332E+03	6.932171E-16	8.596989E-20
6.065499E+03	6.890930E-16	8.545844E-20
6.069665E+03	6.905989E-16	8.564519E-20
6.073831E+03	6.892646E-16	8.547972E-20
6.077998E+03	6.852251E-16	8.497875E-20
6.082164E+03	6.849274E-16	8.494183E-20
6.086330E+03	6.830482E-16	8.470878E-20
6.090497E+03	6.814775E-16	8.451399E-20
6.094662E+03	6.819698E-16	8.457505E-20
6.098829E+03	6.815849E-16	8.452731E-20
6.102996E+03	6.779246E-16	8.407337E-20
6.107161E+03	6.788120E-16	8.418342E-20
6.111328E+03	6.785747E-16	8.415400E-20
6.115493E+03	6.773977E-16	8.400803E-20
6.119660E+03	6.793979E-16	8.425608E-20
6.123827E+03	6.775157E-16	8.402267E-20
6.127992E+03	6.760783E-16	8.384440E-20
6.132159E+03	6.789570E-16	8.420140E-20
6.136326E+03	6.791025E-16	8.421945E-20
6.140491E+03	6.771080E-16	8.397210E-20
6.144658E+03	6.791957E-16	8.423100E-20
6.148823E+03	6.795391E-16	8.427359E-20
6.152990E+03	6.774324E-16	8.401232E-20
6.157157E+03	6.780479E-16	8.408865E-20
6.161322E+03	6.747769E-16	8.368301E-20
6.165489E+03	6.733373E-16	8.350448E-20
6.169656E+03	6.755618E-16	8.378034E-20
6.173821E+03	6.749142E-16	8.370003E-20
6.177988E+03	6.761114E-16	8.384850E-20
6.182153E+03	6.774202E-16	8.401081E-20
6.186320E+03	6.758683E-16	8.381836E-20
6.190487E+03	6.761988E-16	8.385934E-20
6.194652E+03	6.780653E-16	8.409082E-20
6.198819E+03	6.753236E-16	8.375081E-20
6.202985E+03	6.740804E-16	8.359663E-20
6.207151E+03	6.731467E-16	8.348084E-20
6.211318E+03	6.673548E-16	8.276255E-20
6.215484E+03	6.646478E-16	8.242684E-20
6.219650E+03	6.643696E-16	8.239233E-20
6.223817E+03	6.599757E-16	8.184742E-20
6.227982E+03	6.580728E-16	8.161142E-20
6.232149E+03	6.566406E-16	8.143382E-20
6.236316E+03	6.512028E-16	8.075943E-20
6.240481E+03	6.489881E-16	8.048479E-20
6.244648E+03	6.458924E-16	8.010087E-20
6.248814E+03	6.403773E-16	7.941690E-20
6.252980E+03	6.382972E-16	7.915893E-20
6.257147E+03	6.369114E-16	7.898708E-20
6.261312E+03	6.358231E-16	7.885212E-20
6.265479E+03	6.365339E-16	7.894026E-20
6.269645E+03	6.365001E-16	7.893607E-20
6.273811E+03	6.326435E-16	7.845779E-20
6.277978E+03	6.347816E-16	7.872294E-20
6.282144E+03	6.365848E-16	7.894658E-20
6.286310E+03	6.342416E-16	7.865598E-20
6.290477E+03	6.361321E-16	7.889043E-20
6.294642E+03	6.385941E-16	7.919576E-20
6.298809E+03	6.361757E-16	7.889584E-20
6.302975E+03	6.356075E-16	7.882538E-20
6.307141E+03	6.334119E-16	7.855309E-20
6.311308E+03	6.282466E-16	7.791251E-20
6.315474E+03	6.259751E-16	7.763080E-20
6.319640E+03	6.210441E-16	7.701928E-20
6.323806E+03	6.135644E-16	7.609168E-20
6.327973E+03	6.066797E-16	7.523787E-20
6.332139E+03	5.963257E-16	7.395381E-20
6.336305E+03	5.851864E-16	7.257236E-20
6.340471E+03	5.765809E-16	7.150515E-20
6.344638E+03	5.651887E-16	7.009232E-20
6.348804E+03	5.519288E-16	6.844789E-20
6.352970E+03	5.400715E-16	6.697740E-20
6.357136E+03	5.269928E-16	6.535543E-20
6.361303E+03	5.137746E-16	6.371617E-20
6.365469E+03	5.036140E-16	6.245609E-20
6.369635E+03	4.929784E-16	6.113711E-20
6.373801E+03	4.841449E-16	6.004161E-20
6.377968E+03	4.802122E-16	5.955390E-20
6.382134E+03	4.752583E-16	5.893953E-20
6.386300E+03	4.722823E-16	5.857047E-20
6.390466E+03	4.763634E-16	5.907659E-20
6.394633E+03	4.788269E-16	5.938210E-20
6.398799E+03	4.861091E-16	6.028521E-20
6.402965E+03	4.995686E-16	6.195440E-20
6.407131E+03	5.147865E-16	6.384166E-20
6.411297E+03	5.370938E-16	6.660811E-20
6.415464E+03	5.651846E-16	7.009183E-20
6.419630E+03	5.961088E-16	7.392691E-20
6.423796E+03	6.307891E-16	7.822781E-20
6.427963E+03	6.736617E-16	8.354469E-20
6.432129E+03	7.166552E-16	8.887657E-20
6.436295E+03	7.621871E-16	9.452324E-20
6.440462E+03	8.142711E-16	1.009825E-19
6.444628E+03	8.642345E-16	1.071787E-19
6.448794E+03	9.143446E-16	1.133932E-19
6.452960E+03	9.688162E-16	1.201485E-19
6.457126E+03	1.017115E-15	1.261383E-19
6.461293E+03	1.065436E-15	1.321308E-19
6.465459E+03	1.112718E-15	1.379946E-19
6.469625E+03	1.155907E-15	1.433508E-19
6.473792E+03	1.196112E-15	1.483368E-19
6.477957E+03	1.232521E-15	1.528521E-19
6.482124E+03	1.264121E-15	1.567709E-19
6.486290E+03	1.291447E-15	1.601599E-19
6.490456E+03	1.313914E-15	1.629461E-19
6.494623E+03	1.329146E-15	1.648352E-19
6.498789E+03	1.341013E-15	1.663068E-19
6.502955E+03	1.354630E-15	1.679955E-19
6.507122E+03	1.362880E-15	1.690187E-19
6.511287E+03	1.371633E-15	1.701041E-19
6.515454E+03	1.379387E-15	1.710658E-19
6.519620E+03	1.381526E-15	1.713310E-19
6.523786E+03	1.383039E-15	1.715186E-19
6.527953E+03	1.385801E-15	1.718613E-19
6.532119E+03	1.382070E-15	1.713985E-19
6.536285E+03	1.378837E-15	1.709976E-19
6.540452E+03	1.376853E-15	1.707515E-19
6.544617E+03	1.366622E-15	1.694827E-19
6.548784E+03	1.356639E-15	1.682447E-19
6.552951E+03	1.344655E-15	1.667584E-19
6.557116E+03	1.329044E-15	1.648224E-19
6.561283E+03	1.313179E-15	1.628550E-19
6.565448E+03	1.297686E-15	1.609335E-19
6.569615E+03	1.278190E-15	1.585157E-19
6.573782E+03	1.259189E-15	1.561593E-19
6.577947E+03	1.241023E-15	1.539065E-19
6.582114E+03	1.219163E-15	1.511955E-19
6.586281E+03	1.199213E-15	1.487214E-19
6.590446E+03	1.181435E-15	1.465166E-19
6.594613E+03	1.157124E-15	1.435016E-19
6.598779E+03	1.137224E-15	1.410338E-19
6.602945E+03	1.120561E-15	1.389672E-19
6.607112E+03	1.098250E-15	1.362004E-19
6.611277E+03	1.081417E-15	1.341128E-19
6.615444E+03	1.064818E-15	1.320543E-19
6.619611E+03	1.045724E-15	1.296863E-19
6.623776E+03	1.029281E-15	1.276471E-19
6.627943E+03	1.014738E-15	1.258435E-19
6.632109E+03	9.980869E-16	1.237786E-19
6.636275E+03	9.806198E-16	1.216124E-19
6.640442E+03	9.632490E-16	1.194581E-19
6.644607E+03	9.422926E-16	1.168592E-19
6.648774E+03	9.240500E-16	1.145968E-19
6.652941E+03	9.091859E-16	1.127534E-19
6.657106E+03	8.918511E-16	1.106036E-19
6.661273E+03	8.782838E-16	1.089211E-19
6.665439E+03	8.662427E-16	1.074278E-19
