#wls	flux	fluxerr
1.581262E+03	1.216650E-17	5.696871E-19
1.620794E+03	1.238622E-17	5.780985E-19
1.660325E+03	1.258521E-17	5.854317E-19
1.699857E+03	1.277720E-17	5.923301E-19
1.739388E+03	1.294364E-17	5.979368E-19
1.778920E+03	1.309546E-17	6.027652E-19
1.818451E+03	1.321495E-17	6.060069E-19
1.857983E+03	1.329916E-17	6.075416E-19
1.897514E+03	1.334424E-17	6.072109E-19
1.937046E+03	1.333158E-17	6.041902E-19
1.976578E+03	1.326332E-17	5.986077E-19
2.016109E+03	1.315287E-17	5.910971E-19
2.055641E+03	1.302255E-17	5.826818E-19
2.095172E+03	1.292463E-17	5.757023E-19
2.134704E+03	1.291237E-17	5.725015E-19
2.174235E+03	1.301896E-17	5.744895E-19
2.213767E+03	1.323923E-17	5.813631E-19
2.253298E+03	1.354035E-17	5.916092E-19
2.292830E+03	1.386982E-17	6.028877E-19
2.332362E+03	1.418744E-17	6.134355E-19
2.371893E+03	1.447629E-17	6.225275E-19
2.411425E+03	1.471339E-17	6.291956E-19
2.450956E+03	1.489746E-17	6.334184E-19
2.490488E+03	1.502700E-17	6.351674E-19
2.530019E+03	1.510258E-17	6.345046E-19
2.569551E+03	1.512565E-17	6.315295E-19
2.609082E+03	1.509800E-17	6.263567E-19
2.648614E+03	1.502564E-17	6.192739E-19
2.688145E+03	1.490647E-17	6.102318E-19
2.727677E+03	1.474293E-17	5.993697E-19
2.767209E+03	1.454139E-17	5.869843E-19
2.806740E+03	1.430461E-17	5.732225E-19
2.846272E+03	1.403918E-17	5.583803E-19
2.885803E+03	1.374539E-17	5.424994E-19
2.925335E+03	1.343660E-17	5.261335E-19
2.964866E+03	1.311107E-17	5.092338E-19
2.974749E+03	1.302993E-17	5.050387E-19
2.984632E+03	1.294709E-17	5.007864E-19
2.994515E+03	1.286272E-17	4.964833E-19
3.004398E+03	1.277958E-17	4.922371E-19
3.014281E+03	1.269779E-17	4.880515E-19
3.024164E+03	1.261746E-17	4.839304E-19
3.034047E+03	1.253368E-17	4.796861E-19
3.043929E+03	1.245390E-17	4.756037E-19
3.053812E+03	1.237373E-17	4.715155E-19
3.063695E+03	1.229564E-17	4.675151E-19
3.073578E+03	1.221961E-17	4.636013E-19
3.083461E+03	1.214327E-17	4.596841E-19
3.093344E+03	1.206903E-17	4.558548E-19
3.103227E+03	1.199689E-17	4.521129E-19
3.113110E+03	1.192689E-17	4.484591E-19
3.122993E+03	1.185684E-17	4.448113E-19
3.132875E+03	1.179124E-17	4.413379E-19
3.142758E+03	1.172576E-17	4.378758E-19
3.152641E+03	1.166267E-17	4.345102E-19
3.162524E+03	1.160206E-17	4.312433E-19
3.172407E+03	1.154400E-17	4.280770E-19
3.182290E+03	1.149061E-17	4.250899E-19
3.192173E+03	1.143792E-17	4.221338E-19
3.202056E+03	1.139007E-17	4.193611E-19
3.211939E+03	1.134321E-17	4.166290E-19
3.221821E+03	1.130138E-17	4.140858E-19
3.231704E+03	1.126275E-17	4.116629E-19
3.241587E+03	1.122934E-17	4.094334E-19
3.251470E+03	1.119940E-17	4.073316E-19
3.261353E+03	1.117307E-17	4.053629E-19
3.271236E+03	1.115236E-17	4.035978E-19
3.281119E+03	1.113558E-17	4.019749E-19
3.291002E+03	1.112470E-17	4.005631E-19
3.300885E+03	1.111984E-17	3.993661E-19
3.310767E+03	1.111947E-17	3.983265E-19
3.320650E+03	1.112549E-17	3.975116E-19
3.330533E+03	1.113808E-17	3.969260E-19
3.340416E+03	1.115746E-17	3.965752E-19
3.350299E+03	1.118382E-17	3.964648E-19
3.360182E+03	1.121740E-17	3.966003E-19
3.370065E+03	1.125844E-17	3.969890E-19
3.379948E+03	1.130719E-17	3.976372E-19
3.389831E+03	1.136554E-17	3.986091E-19
3.399713E+03	1.143215E-17	3.998550E-19
3.409596E+03	1.150736E-17	4.013841E-19
3.419479E+03	1.159307E-17	4.032599E-19
3.429362E+03	1.168804E-17	4.054369E-19
3.439245E+03	1.179422E-17	4.079795E-19
3.449128E+03	1.191200E-17	4.108976E-19
3.459011E+03	1.204180E-17	4.142025E-19
3.468894E+03	1.218407E-17	4.179054E-19
3.478776E+03	1.233929E-17	4.220198E-19
3.488659E+03	1.250798E-17	4.265590E-19
3.498542E+03	1.269223E-17	4.315898E-19
3.508425E+03	1.289111E-17	4.370762E-19
3.518308E+03	1.310523E-17	4.430344E-19
3.528191E+03	1.333681E-17	4.495346E-19
3.538074E+03	1.358661E-17	4.565963E-19
3.547957E+03	1.385383E-17	4.641877E-19
3.557840E+03	1.414243E-17	4.724352E-19
3.567722E+03	1.445174E-17	4.813103E-19
3.577605E+03	1.478115E-17	4.907854E-19
3.587488E+03	1.513480E-17	5.009921E-19
3.597371E+03	1.551384E-17	5.119601E-19
3.607254E+03	1.591782E-17	5.236669E-19
3.617137E+03	1.634796E-17	5.361442E-19
3.627020E+03	1.680722E-17	5.494804E-19
3.636903E+03	1.729869E-17	5.637674E-19
3.646786E+03	1.782056E-17	5.789356E-19
3.656668E+03	1.837608E-17	5.950807E-19
3.666551E+03	1.896696E-17	6.122469E-19
3.676434E+03	1.959677E-17	6.305380E-19
3.686317E+03	2.026751E-17	6.500048E-19
3.696200E+03	2.097942E-17	6.706423E-19
3.706083E+03	2.173650E-17	6.925645E-19
3.715966E+03	2.253919E-17	7.157702E-19
3.725849E+03	2.339370E-17	7.404416E-19
3.735732E+03	2.430076E-17	7.665844E-19
3.745614E+03	2.526510E-17	7.943301E-19
3.755497E+03	2.628764E-17	8.236889E-19
3.765380E+03	2.737348E-17	8.548008E-19
3.775263E+03	2.852374E-17	8.876798E-19
3.785146E+03	2.974607E-17	9.225422E-19
3.795029E+03	3.103971E-17	9.593400E-19
3.804912E+03	3.241279E-17	9.983005E-19
3.814795E+03	3.386935E-17	1.039521E-18
3.824678E+03	3.541115E-17	1.083028E-18
3.834560E+03	3.704482E-17	1.128995E-18
3.844443E+03	3.877483E-17	1.177527E-18
3.854326E+03	4.060582E-17	1.228733E-18
3.864209E+03	4.254252E-17	1.282722E-18
3.874092E+03	4.459257E-17	1.339687E-18
3.883975E+03	4.676118E-17	1.399747E-18
3.893858E+03	4.905082E-17	1.462935E-18
3.903741E+03	5.146966E-17	1.529455E-18
3.913624E+03	5.402628E-17	1.599517E-18
3.923506E+03	5.672342E-17	1.673155E-18
3.933389E+03	5.956675E-17	1.750489E-18
3.943272E+03	6.256861E-17	1.831832E-18
3.953155E+03	6.572849E-17	1.917115E-18
3.963038E+03	6.905564E-17	2.006553E-18
3.972921E+03	7.255607E-17	2.100266E-18
3.982804E+03	7.623948E-17	2.198474E-18
3.992687E+03	8.010827E-17	2.301185E-18
4.002570E+03	8.417219E-17	2.408616E-18
4.012452E+03	8.843731E-17	2.520874E-18
4.022335E+03	9.290527E-17	2.637939E-18
4.032218E+03	9.758999E-17	2.760136E-18
4.042101E+03	1.024972E-16	2.887555E-18
4.051984E+03	1.076281E-16	3.020152E-18
4.061867E+03	1.129874E-16	3.157988E-18
4.071750E+03	1.185842E-16	3.301240E-18
4.081633E+03	1.244230E-16	3.449950E-18
4.091516E+03	1.305076E-16	3.604146E-18
4.101398E+03	1.368411E-16	3.763830E-18
4.111281E+03	1.434314E-16	3.929134E-18
4.121164E+03	1.502695E-16	4.099733E-18
4.131047E+03	1.573724E-16	4.276003E-18
4.140930E+03	1.647236E-16	4.457412E-18
4.150813E+03	1.723326E-16	4.644133E-18
4.160696E+03	1.801967E-16	4.836012E-18
4.170579E+03	1.883058E-16	5.032692E-18
4.180462E+03	1.966597E-16	5.234096E-18
4.190344E+03	2.052506E-16	5.439932E-18
4.200227E+03	2.140622E-16	5.649695E-18
4.210110E+03	2.230884E-16	5.863157E-18
4.219993E+03	2.323146E-16	6.079871E-18
4.229876E+03	2.417170E-16	6.299149E-18
4.239759E+03	2.512823E-16	6.520594E-18
4.249642E+03	2.609810E-16	6.743398E-18
4.259525E+03	2.707874E-16	6.966862E-18
4.269408E+03	2.806740E-16	7.190247E-18
4.279290E+03	2.906176E-16	7.412948E-18
4.289173E+03	3.005716E-16	7.633767E-18
4.299056E+03	3.105096E-16	7.852042E-18
4.308939E+03	3.203898E-16	8.066733E-18
4.318822E+03	3.301774E-16	8.276999E-18
4.328705E+03	3.398384E-16	8.482028E-18
4.338588E+03	3.493326E-16	8.680873E-18
4.348471E+03	3.586395E-16	8.873094E-18
4.358354E+03	3.677197E-16	9.057790E-18
4.368236E+03	3.765612E-16	9.234750E-18
4.378119E+03	3.851314E-16	9.403271E-18
4.388002E+03	3.934255E-16	9.563334E-18
4.397885E+03	4.014265E-16	9.714629E-18
4.407768E+03	4.091201E-16	9.856920E-18
4.417651E+03	4.164957E-16	9.990060E-18
4.427534E+03	4.235695E-16	1.011455E-17
4.437417E+03	4.303116E-16	1.022979E-17
4.447300E+03	4.367429E-16	1.033640E-17
4.457182E+03	4.428624E-16	1.043446E-17
4.467065E+03	4.486707E-16	1.052409E-17
4.476948E+03	4.541700E-16	1.060546E-17
4.486831E+03	4.593797E-16	1.067913E-17
4.496714E+03	4.643047E-16	1.074532E-17
4.506597E+03	4.689509E-16	1.080426E-17
4.516480E+03	4.733255E-16	1.085622E-17
4.526363E+03	4.774516E-16	1.090181E-17
4.536245E+03	4.813222E-16	1.094098E-17
4.546128E+03	4.849547E-16	1.097420E-17
4.556011E+03	4.883662E-16	1.100193E-17
4.565894E+03	4.915600E-16	1.102431E-17
4.575777E+03	4.945616E-16	1.104197E-17
4.585660E+03	4.973676E-16	1.105489E-17
4.595543E+03	5.000039E-16	1.106371E-17
4.605426E+03	5.024748E-16	1.106857E-17
4.615309E+03	5.048059E-16	1.107006E-17
4.625191E+03	5.069944E-16	1.106818E-17
4.635074E+03	5.090584E-16	1.106335E-17
4.644957E+03	5.110087E-16	1.105584E-17
4.654840E+03	5.128625E-16	1.104605E-17
4.664723E+03	5.146294E-16	1.103421E-17
4.674606E+03	5.163180E-16	1.102052E-17
4.684489E+03	5.179366E-16	1.100518E-17
4.694372E+03	5.194990E-16	1.098850E-17
4.704255E+03	5.210109E-16	1.097061E-17
4.714137E+03	5.224837E-16	1.095175E-17
4.724020E+03	5.239209E-16	1.093202E-17
4.733903E+03	5.253375E-16	1.091172E-17
4.743786E+03	5.267278E-16	1.089074E-17
4.753669E+03	5.281037E-16	1.086933E-17
4.763552E+03	5.294695E-16	1.084758E-17
4.773435E+03	5.308276E-16	1.082553E-17
4.783318E+03	5.321733E-16	1.080309E-17
4.793201E+03	5.335063E-16	1.078025E-17
4.803083E+03	5.348192E-16	1.075686E-17
4.812966E+03	5.360976E-16	1.073264E-17
4.822849E+03	5.373383E-16	1.070753E-17
4.832732E+03	5.385374E-16	1.068145E-17
4.842615E+03	5.396718E-16	1.065397E-17
4.852498E+03	5.407428E-16	1.062511E-17
4.862381E+03	5.417448E-16	1.059480E-17
4.872264E+03	5.426602E-16	1.056269E-17
4.882147E+03	5.434952E-16	1.052893E-17
4.892029E+03	5.442266E-16	1.049310E-17
4.901912E+03	5.448670E-16	1.045546E-17
4.911795E+03	5.453939E-16	1.041561E-17
4.921678E+03	5.458150E-16	1.037371E-17
4.931561E+03	5.461208E-16	1.032962E-17
4.941444E+03	5.463143E-16	1.028342E-17
4.951327E+03	5.463937E-16	1.023511E-17
4.961210E+03	5.463521E-16	1.018459E-17
4.971093E+03	5.462005E-16	1.013210E-17
4.980975E+03	5.459398E-16	1.007768E-17
4.990858E+03	5.455654E-16	1.002128E-17
5.000741E+03	5.450855E-16	9.963065E-18
5.010624E+03	5.445083E-16	9.903229E-18
5.020507E+03	5.438431E-16	9.841961E-18
5.030390E+03	5.430883E-16	9.779255E-18
5.040273E+03	5.422540E-16	9.715319E-18
5.050156E+03	5.413507E-16	9.650359E-18
5.060039E+03	5.403889E-16	9.584582E-18
5.069921E+03	5.393682E-16	9.518001E-18
5.079804E+03	5.383051E-16	9.450917E-18
5.089687E+03	5.372102E-16	9.383533E-18
5.099570E+03	5.360831E-16	9.315849E-18
5.109453E+03	5.349398E-16	9.248155E-18
5.119336E+03	5.337795E-16	9.180444E-18
5.129219E+03	5.326229E-16	9.113075E-18
5.139102E+03	5.314742E-16	9.046120E-18
5.148985E+03	5.303370E-16	8.979647E-18
5.158867E+03	5.292205E-16	8.913804E-18
5.168750E+03	5.281329E-16	8.848733E-18
5.178633E+03	5.270772E-16	8.784476E-18
5.188516E+03	5.260615E-16	8.721163E-18
5.198399E+03	5.250984E-16	8.658998E-18
5.208282E+03	5.241849E-16	8.597923E-18
5.218165E+03	5.233337E-16	8.538135E-18
5.228048E+03	5.225412E-16	8.479565E-18
5.237931E+03	5.218252E-16	8.422491E-18
5.247813E+03	5.211820E-16	8.366840E-18
5.257696E+03	5.206187E-16	8.312712E-18
5.267579E+03	5.201477E-16	8.260291E-18
5.277462E+03	5.197656E-16	8.209506E-18
5.287345E+03	5.194799E-16	8.160457E-18
5.297228E+03	5.192979E-16	8.113244E-18
5.307111E+03	5.192273E-16	8.067967E-18
5.316994E+03	5.192706E-16	8.024646E-18
5.326877E+03	5.194360E-16	7.983384E-18
5.336759E+03	5.197315E-16	7.944284E-18
5.346642E+03	5.201603E-16	7.907370E-18
5.356525E+03	5.207256E-16	7.872671E-18
5.366408E+03	5.214412E-16	7.840366E-18
5.376291E+03	5.223049E-16	7.810400E-18
5.386174E+03	5.233307E-16	7.782953E-18
5.396057E+03	5.245160E-16	7.757963E-18
5.405940E+03	5.258739E-16	7.735594E-18
5.415823E+03	5.274013E-16	7.715773E-18
5.425705E+03	5.290943E-16	7.698418E-18
5.435588E+03	5.309635E-16	7.683654E-18
5.445471E+03	5.329998E-16	7.671326E-18
5.455354E+03	5.352142E-16	7.661556E-18
5.465237E+03	5.375953E-16	7.654136E-18
5.475120E+03	5.401418E-16	7.649006E-18
5.485003E+03	5.428575E-16	7.646179E-18
5.494886E+03	5.457238E-16	7.645357E-18
5.504768E+03	5.487384E-16	7.646471E-18
5.514651E+03	5.518985E-16	7.649448E-18
5.524534E+03	5.551794E-16	7.653914E-18
5.534417E+03	5.585890E-16	7.659951E-18
5.544300E+03	5.621077E-16	7.667262E-18
5.554183E+03	5.657266E-16	7.675708E-18
5.564066E+03	5.694314E-16	7.685070E-18
5.573949E+03	5.732243E-16	7.695365E-18
5.583832E+03	5.770796E-16	7.706231E-18
5.593714E+03	5.809937E-16	7.717612E-18
5.603597E+03	5.849577E-16	7.729379E-18
5.613480E+03	5.889566E-16	7.741330E-18
5.623363E+03	5.929753E-16	7.753264E-18
5.633246E+03	5.970102E-16	7.765136E-18
5.643129E+03	6.010401E-16	7.776675E-18
5.653012E+03	6.050609E-16	7.787835E-18
5.662895E+03	6.090510E-16	7.798349E-18
5.672778E+03	6.130060E-16	7.808177E-18
5.682660E+03	6.169036E-16	7.817049E-18
5.692543E+03	6.207330E-16	7.824853E-18
5.702426E+03	6.244830E-16	7.831471E-18
5.712309E+03	6.281421E-16	7.836788E-18
5.722192E+03	6.316807E-16	7.840466E-18
5.732075E+03	6.350986E-16	7.842538E-18
5.741958E+03	6.383715E-16	7.842744E-18
5.751841E+03	6.414808E-16	7.840898E-18
5.761724E+03	6.444197E-16	7.836966E-18
5.771606E+03	6.471576E-16	7.830626E-18
5.781489E+03	6.496942E-16	7.821926E-18
5.791372E+03	6.519991E-16	7.810562E-18
5.801255E+03	6.540671E-16	7.796531E-18
5.811138E+03	6.558758E-16	7.779630E-18
5.821021E+03	6.574221E-16	7.759890E-18
5.830904E+03	6.586808E-16	7.737081E-18
5.840787E+03	6.596531E-16	7.711290E-18
5.850670E+03	6.603308E-16	7.682495E-18
5.860552E+03	6.607096E-16	7.650716E-18
5.870435E+03	6.607829E-16	7.615953E-18
5.880318E+03	6.605733E-16	7.578540E-18
5.890201E+03	6.600787E-16	7.538520E-18
5.900084E+03	6.593209E-16	7.496213E-18
5.909967E+03	6.583226E-16	7.451941E-18
5.919850E+03	6.571130E-16	7.406096E-18
5.929733E+03	6.557343E-16	7.359207E-18
5.939616E+03	6.542285E-16	7.311797E-18
5.949498E+03	6.526433E-16	7.264439E-18
5.959381E+03	6.510361E-16	7.217808E-18
5.969264E+03	6.494535E-16	7.172449E-18
5.979147E+03	6.479528E-16	7.129019E-18
5.989030E+03	6.465801E-16	7.088041E-18
5.998913E+03	6.453776E-16	7.049992E-18
6.008796E+03	6.443680E-16	7.015131E-18
6.018679E+03	6.435604E-16	6.983569E-18
6.028562E+03	6.429282E-16	6.955031E-18
6.038444E+03	6.424333E-16	6.929124E-18
6.048327E+03	6.419864E-16	6.904912E-18
6.058210E+03	6.414849E-16	6.881327E-18
6.068093E+03	6.407639E-16	6.856647E-18
6.077976E+03	6.396304E-16	6.828865E-18
6.087859E+03	6.378594E-16	6.795648E-18
6.097742E+03	6.351860E-16	6.754252E-18
6.107625E+03	6.313169E-16	6.701642E-18
6.117508E+03	6.259369E-16	6.634557E-18
6.127390E+03	6.189779E-16	6.552350E-18
6.137273E+03	6.107145E-16	6.457958E-18
6.147156E+03	6.014244E-16	6.354302E-18
6.157039E+03	5.913609E-16	6.244018E-18
6.166922E+03	5.807226E-16	6.129150E-18
6.176805E+03	5.696811E-16	6.011439E-18
6.186688E+03	5.583653E-16	5.892170E-18
6.196571E+03	5.468801E-16	5.772371E-18
6.206454E+03	5.352853E-16	5.652591E-18
6.216336E+03	5.236323E-16	5.533288E-18
6.226219E+03	5.119403E-16	5.414581E-18
6.236102E+03	5.002451E-16	5.296766E-18
6.245985E+03	4.885576E-16	5.179875E-18
6.255868E+03	4.769123E-16	5.064190E-18
6.265751E+03	4.653550E-16	4.950119E-18
6.275634E+03	4.539549E-16	4.838320E-18
6.285517E+03	4.428096E-16	4.729768E-18
6.295400E+03	4.320519E-16	4.625820E-18
6.305282E+03	4.218412E-16	4.528142E-18
6.315165E+03	4.123667E-16	4.438741E-18
6.325048E+03	4.038426E-16	4.359930E-18
6.334931E+03	3.965039E-16	4.294284E-18
6.344814E+03	3.905962E-16	4.244539E-18
6.354697E+03	3.863823E-16	4.213675E-18
6.364580E+03	3.841218E-16	4.204697E-18
6.374463E+03	3.840791E-16	4.220729E-18
6.384346E+03	3.865083E-16	4.264844E-18
6.394228E+03	3.916653E-16	4.340198E-18
6.404111E+03	3.997967E-16	4.449922E-18
6.413994E+03	4.111297E-16	4.597010E-18
6.423877E+03	4.258756E-16	4.784354E-18
6.433760E+03	4.441944E-16	5.014347E-18
6.443643E+03	4.662027E-16	5.288954E-18
6.453526E+03	4.919268E-16	5.609167E-18
6.463409E+03	5.212754E-16	5.974663E-18
6.473291E+03	5.539889E-16	6.383184E-18
6.483174E+03	5.896395E-16	6.830483E-18
6.493057E+03	6.276040E-16	7.309940E-18
6.502940E+03	6.670656E-16	7.812526E-18
6.512823E+03	7.070257E-16	8.326860E-18
6.522706E+03	7.463759E-16	8.839994E-18
6.532589E+03	7.839178E-16	9.337601E-18
6.542472E+03	8.184638E-16	9.805142E-18
6.552355E+03	8.489511E-16	1.022923E-17
6.562237E+03	8.744628E-16	1.059794E-17
6.572120E+03	8.943503E-16	1.090232E-17
6.582003E+03	9.082284E-16	1.113642E-17
6.591886E+03	9.160211E-16	1.129801E-17
6.601769E+03	9.179011E-16	1.138786E-17
6.611652E+03	9.142660E-16	1.140961E-17
6.621535E+03	9.057151E-16	1.136950E-17
6.631418E+03	8.929131E-16	1.127479E-17
6.641301E+03	8.765976E-16	1.113384E-17
6.651183E+03	8.575128E-16	1.095532E-17
6.661066E+03	8.363404E-16	1.074732E-17
6.670949E+03	8.137363E-16	1.051778E-17
6.680832E+03	7.902434E-16	1.027341E-17
6.690715E+03	7.663532E-16	1.002038E-17
6.700598E+03	7.424602E-16	9.763745E-18
6.710481E+03	7.188952E-16	9.507860E-18
6.720364E+03	6.959231E-16	9.256289E-18
6.730247E+03	6.737513E-16	9.011917E-18
6.740129E+03	6.525371E-16	8.777021E-18
6.750012E+03	6.323941E-16	8.553338E-18
6.759895E+03	6.133844E-16	8.341941E-18
6.769778E+03	5.955753E-16	8.143994E-18
6.779661E+03	5.789634E-16	7.959713E-18
6.789544E+03	5.635527E-16	7.789412E-18
6.799427E+03	5.493216E-16	7.633059E-18
6.809310E+03	5.362358E-16	7.490428E-18
6.819193E+03	5.242443E-16	7.361056E-18
6.829075E+03	5.133030E-16	7.244560E-18
6.838958E+03	5.033517E-16	7.140314E-18
6.848841E+03	4.943358E-16	7.047756E-18
6.858724E+03	4.862012E-16	6.966310E-18
6.868607E+03	4.788956E-16	6.895415E-18
6.878490E+03	4.723745E-16	6.834603E-18
6.888373E+03	4.665725E-16	6.783087E-18
6.898256E+03	4.614538E-16	6.740500E-18
6.908139E+03	4.569717E-16	6.706293E-18
6.918021E+03	4.530725E-16	6.679811E-18
6.927904E+03	4.497068E-16	6.660438E-18
6.937787E+03	4.468275E-16	6.647582E-18
6.947670E+03	4.443676E-16	6.640340E-18
6.957553E+03	4.422739E-16	6.637993E-18
6.967436E+03	4.404794E-16	6.639606E-18
6.977319E+03	4.389330E-16	6.644461E-18
6.987202E+03	4.375568E-16	6.651420E-18
6.997085E+03	4.363039E-16	6.659802E-18
7.006967E+03	4.351232E-16	6.668844E-18
7.016850E+03	4.339614E-16	6.677740E-18
7.026733E+03	4.327937E-16	6.686111E-18
7.036616E+03	4.316037E-16	6.693702E-18
7.046499E+03	4.303901E-16	6.700489E-18
7.056382E+03	4.291610E-16	6.706597E-18
7.066265E+03	4.279497E-16	6.712549E-18
7.076148E+03	4.267910E-16	6.718895E-18
7.086031E+03	4.257347E-16	6.726434E-18
7.095913E+03	4.248419E-16	6.736157E-18
7.105796E+03	4.241599E-16	6.748845E-18
7.115679E+03	4.237510E-16	6.765529E-18
7.125562E+03	4.236670E-16	6.787089E-18
7.135445E+03	4.239516E-16	6.814280E-18
7.145328E+03	4.246317E-16	6.847596E-18
7.155211E+03	4.257264E-16	6.887409E-18
7.165094E+03	4.272390E-16	6.933841E-18
7.174977E+03	4.291623E-16	6.986836E-18
7.184859E+03	4.314549E-16	7.045782E-18
7.194742E+03	4.340758E-16	7.110061E-18
7.204625E+03	4.369621E-16	7.178688E-18
7.214508E+03	4.400374E-16	7.250442E-18
7.224391E+03	4.432077E-16	7.323798E-18
7.234274E+03	4.463830E-16	7.397274E-18
7.244157E+03	4.494571E-16	7.469108E-18
7.254040E+03	4.523298E-16	7.537614E-18
7.263923E+03	4.549051E-16	7.601163E-18
7.273805E+03	4.571013E-16	7.658351E-18
7.283688E+03	4.588310E-16	7.707656E-18
7.293571E+03	4.600459E-16	7.748213E-18
7.303454E+03	4.606907E-16	7.779019E-18
7.313337E+03	4.607466E-16	7.799696E-18
7.323220E+03	4.602140E-16	7.810179E-18
7.333103E+03	4.590925E-16	7.810394E-18
7.342986E+03	4.574164E-16	7.800865E-18
7.352869E+03	4.552282E-16	7.782259E-18
7.362751E+03	4.525812E-16	7.755439E-18
7.372634E+03	4.495371E-16	7.721419E-18
7.382517E+03	4.461680E-16	7.681407E-18
7.392400E+03	4.425296E-16	7.636335E-18
7.402283E+03	4.387010E-16	7.587556E-18
7.412166E+03	4.347455E-16	7.536156E-18
7.422049E+03	4.307092E-16	7.482935E-18
7.431932E+03	4.266624E-16	7.429122E-18
7.441814E+03	4.226318E-16	7.375195E-18
7.451697E+03	4.186736E-16	7.322149E-18
7.461580E+03	4.148064E-16	7.270333E-18
7.471463E+03	4.110665E-16	7.220409E-18
7.481346E+03	4.074605E-16	7.172517E-18
7.491229E+03	4.040075E-16	7.127024E-18
7.501112E+03	4.007221E-16	7.084217E-18
7.510995E+03	3.976098E-16	7.044223E-18
7.520878E+03	3.946671E-16	7.007012E-18
7.530760E+03	3.918944E-16	6.972623E-18
7.540643E+03	3.893024E-16	6.941273E-18
7.550526E+03	3.868828E-16	6.912852E-18
7.560409E+03	3.846386E-16	6.887439E-18
7.570292E+03	3.825608E-16	6.864907E-18
7.580175E+03	3.806455E-16	6.845216E-18
7.590058E+03	3.788999E-16	6.828522E-18
7.599941E+03	3.773076E-16	6.814565E-18
7.609824E+03	3.758742E-16	6.803471E-18
7.619706E+03	3.745927E-16	6.795147E-18
7.629589E+03	3.734439E-16	6.789270E-18
7.639472E+03	3.724349E-16	6.785998E-18
7.649355E+03	3.715490E-16	6.785057E-18
7.659238E+03	3.707678E-16	6.786135E-18
7.669121E+03	3.700886E-16	6.789206E-18
