#wls	flux	fluxerr
1.581262E+03	7.195197E-18	3.316179E-19
1.620794E+03	7.319522E-18	3.365142E-19
1.660325E+03	7.434367E-18	3.409253E-19
1.699857E+03	7.538492E-18	3.447964E-19
1.739388E+03	7.633437E-18	3.482001E-19
1.778920E+03	7.716286E-18	3.510059E-19
1.818451E+03	7.779978E-18	3.528966E-19
1.857983E+03	7.825704E-18	3.539326E-19
1.897514E+03	7.842280E-18	3.536157E-19
1.937046E+03	7.828078E-18	3.518840E-19
1.976578E+03	7.781401E-18	3.486738E-19
2.016109E+03	7.707364E-18	3.442277E-19
2.055641E+03	7.624881E-18	3.393998E-19
2.095172E+03	7.559059E-18	3.353079E-19
2.134704E+03	7.541229E-18	3.333296E-19
2.174235E+03	7.593292E-18	3.344064E-19
2.213767E+03	7.712103E-18	3.383653E-19
2.253298E+03	7.873255E-18	3.441047E-19
2.292830E+03	8.053956E-18	3.506084E-19
2.332362E+03	8.225991E-18	3.566405E-19
2.371893E+03	8.377078E-18	3.616725E-19
2.411425E+03	8.499625E-18	3.653871E-19
2.450956E+03	8.593226E-18	3.677807E-19
2.490488E+03	8.652557E-18	3.686412E-19
2.530019E+03	8.681013E-18	3.681313E-19
2.569551E+03	8.682360E-18	3.664273E-19
2.609082E+03	8.655728E-18	3.635087E-19
2.648614E+03	8.602788E-18	3.594627E-19
2.688145E+03	8.525286E-18	3.543787E-19
2.727677E+03	8.427157E-18	3.484360E-19
2.767209E+03	8.310191E-18	3.417228E-19
2.806740E+03	8.176364E-18	3.343341E-19
2.846272E+03	8.029713E-18	3.264470E-19
2.885803E+03	7.870714E-18	3.180918E-19
2.925335E+03	7.707152E-18	3.095919E-19
2.964866E+03	7.539781E-18	3.009830E-19
2.974749E+03	7.498171E-18	2.988473E-19
2.984632E+03	7.455963E-18	2.966908E-19
2.994515E+03	7.414751E-18	2.945769E-19
3.004398E+03	7.373062E-18	2.924471E-19
3.014281E+03	7.332507E-18	2.903652E-19
3.024164E+03	7.293141E-18	2.883333E-19
3.034047E+03	7.253580E-18	2.862965E-19
3.043929E+03	7.215198E-18	2.843092E-19
3.053812E+03	7.176927E-18	2.823289E-19
3.063695E+03	7.140198E-18	2.804120E-19
3.073578E+03	7.103598E-18	2.785027E-19
3.083461E+03	7.069898E-18	2.767097E-19
3.093344E+03	7.036351E-18	2.749249E-19
3.103227E+03	7.004339E-18	2.732022E-19
3.113110E+03	6.972559E-18	2.714907E-19
3.122993E+03	6.943663E-18	2.698934E-19
3.132875E+03	6.915065E-18	2.683094E-19
3.142758E+03	6.888108E-18	2.667907E-19
3.152641E+03	6.862828E-18	2.653383E-19
3.162524E+03	6.839248E-18	2.639529E-19
3.172407E+03	6.817430E-18	2.626365E-19
3.182290E+03	6.797408E-18	2.613901E-19
3.192173E+03	6.780442E-18	2.602615E-19
3.202056E+03	6.764183E-18	2.591604E-19
3.211939E+03	6.749899E-18	2.581349E-19
3.221821E+03	6.738829E-18	2.572319E-19
3.231704E+03	6.729847E-18	2.564080E-19
3.241587E+03	6.723045E-18	2.556661E-19
3.251470E+03	6.718500E-18	2.550088E-19
3.261353E+03	6.717414E-18	2.544810E-19
3.271236E+03	6.719849E-18	2.540844E-19
3.281119E+03	6.723690E-18	2.537383E-19
3.291002E+03	6.732320E-18	2.535699E-19
3.300885E+03	6.743649E-18	2.534996E-19
3.310767E+03	6.757794E-18	2.535312E-19
3.320650E+03	6.775929E-18	2.537079E-19
3.330533E+03	6.799208E-18	2.540720E-19
3.340416E+03	6.824602E-18	2.545093E-19
3.350299E+03	6.855376E-18	2.551409E-19
3.360182E+03	6.890612E-18	2.559314E-19
3.370065E+03	6.930455E-18	2.568852E-19
3.379948E+03	6.975058E-18	2.580069E-19
3.389831E+03	7.024576E-18	2.593010E-19
3.399713E+03	7.079184E-18	2.607727E-19
3.409596E+03	7.140072E-18	2.624647E-19
3.419479E+03	7.206421E-18	2.643454E-19
3.429362E+03	7.279437E-18	2.664576E-19
3.439245E+03	7.358346E-18	2.687714E-19
3.449128E+03	7.444370E-18	2.713299E-19
3.459011E+03	7.536775E-18	2.741046E-19
3.468894E+03	7.637801E-18	2.771753E-19
3.478776E+03	7.745759E-18	2.804787E-19
3.488659E+03	7.861932E-18	2.840594E-19
3.498542E+03	7.987658E-18	2.879635E-19
3.508425E+03	8.121275E-18	2.921289E-19
3.518308E+03	8.265159E-18	2.966388E-19
3.528191E+03	8.419705E-18	3.015048E-19
3.538074E+03	8.584344E-18	3.067038E-19
3.547957E+03	8.759509E-18	3.122488E-19
3.557840E+03	8.946698E-18	3.181901E-19
3.567722E+03	9.146438E-18	3.245434E-19
3.577605E+03	9.359277E-18	3.313249E-19
3.587488E+03	9.585807E-18	3.385520E-19
3.597371E+03	9.826640E-18	3.462428E-19
3.607254E+03	1.008352E-17	3.544550E-19
3.617137E+03	1.035503E-17	3.631339E-19
3.627020E+03	1.064403E-17	3.723767E-19
3.636903E+03	1.095136E-17	3.822076E-19
3.646786E+03	1.127791E-17	3.926524E-19
3.656668E+03	1.162343E-17	4.036980E-19
3.666551E+03	1.199003E-17	4.154117E-19
3.676434E+03	1.237987E-17	4.278630E-19
3.686317E+03	1.279174E-17	4.410038E-19
3.696200E+03	1.322912E-17	4.549479E-19
3.706083E+03	1.369205E-17	4.696894E-19
3.715966E+03	1.418303E-17	4.853070E-19
3.725849E+03	1.470345E-17	5.018407E-19
3.735732E+03	1.525476E-17	5.193317E-19
3.745614E+03	1.583850E-17	5.378238E-19
3.755497E+03	1.645627E-17	5.573623E-19
3.765380E+03	1.710974E-17	5.779943E-19
3.775263E+03	1.780205E-17	5.998158E-19
3.785146E+03	1.853369E-17	6.228323E-19
3.795029E+03	1.930801E-17	6.471451E-19
3.804912E+03	2.012857E-17	6.728614E-19
3.814795E+03	2.099457E-17	6.999418E-19
3.824678E+03	2.191126E-17	7.285479E-19
3.834560E+03	2.287944E-17	7.586922E-19
3.844443E+03	2.390314E-17	7.904935E-19
3.854326E+03	2.498327E-17	8.239660E-19
3.864209E+03	2.612575E-17	8.592886E-19
3.874092E+03	2.733169E-17	8.964799E-19
3.883975E+03	2.860387E-17	9.356132E-19
3.893858E+03	2.994514E-17	9.767623E-19
3.903741E+03	3.136216E-17	1.020124E-18
3.913624E+03	3.285431E-17	1.065657E-18
3.923506E+03	3.442655E-17	1.113501E-18
3.933389E+03	3.608408E-17	1.163799E-18
3.943272E+03	3.782816E-17	1.216568E-18
3.953155E+03	3.966196E-17	1.271884E-18
3.963038E+03	4.159309E-17	1.329966E-18
3.972921E+03	4.362051E-17	1.390752E-18
3.982804E+03	4.575197E-17	1.454460E-18
3.992687E+03	4.798850E-17	1.521094E-18
4.002570E+03	5.033326E-17	1.590721E-18
4.012452E+03	5.279427E-17	1.663564E-18
4.022335E+03	5.536969E-17	1.739532E-18
4.032218E+03	5.806751E-17	1.818840E-18
4.042101E+03	6.088797E-17	1.901461E-18
4.051984E+03	6.383354E-17	1.987437E-18
4.061867E+03	6.690931E-17	2.076887E-18
4.071750E+03	7.011738E-17	2.169839E-18
4.081633E+03	7.345948E-17	2.266308E-18
4.091516E+03	7.693706E-17	2.366300E-18
4.101398E+03	8.055401E-17	2.469892E-18
4.111281E+03	8.430773E-17	2.576966E-18
4.121164E+03	8.820149E-17	2.687580E-18
4.131047E+03	9.223455E-17	2.801670E-18
4.140930E+03	9.640580E-17	2.919162E-18
4.150813E+03	1.007133E-16	3.039957E-18
4.160696E+03	1.051580E-16	3.164042E-18
4.170579E+03	1.097293E-16	3.291062E-18
4.180462E+03	1.144340E-16	3.421177E-18
4.190344E+03	1.192560E-16	3.553876E-18
4.200227E+03	1.242012E-16	3.689290E-18
4.210110E+03	1.292553E-16	3.826966E-18
4.219993E+03	1.344193E-16	3.966900E-18
4.229876E+03	1.396777E-16	4.108599E-18
4.239759E+03	1.450220E-16	4.251795E-18
4.249642E+03	1.504524E-16	4.396461E-18
4.259525E+03	1.559563E-16	4.542205E-18
4.269408E+03	1.615208E-16	4.688636E-18
4.279290E+03	1.671422E-16	4.835628E-18
4.289173E+03	1.728089E-16	4.982825E-18
4.299056E+03	1.785182E-16	5.130144E-18
4.308939E+03	1.842646E-16	5.277409E-18
4.318822E+03	1.900337E-16	5.424201E-18
4.328705E+03	1.958245E-16	5.570488E-18
4.338588E+03	2.016305E-16	5.716078E-18
4.348471E+03	2.074331E-16	5.860443E-18
4.358354E+03	2.132300E-16	6.003523E-18
4.368236E+03	2.189980E-16	6.144664E-18
4.378119E+03	2.247177E-16	6.283337E-18
4.388002E+03	2.303796E-16	6.419294E-18
4.397885E+03	2.359604E-16	6.551908E-18
4.407768E+03	2.414482E-16	6.680870E-18
4.417651E+03	2.468272E-16	6.805778E-18
4.427534E+03	2.520783E-16	6.926141E-18
4.437417E+03	2.571940E-16	7.041795E-18
4.447300E+03	2.621587E-16	7.152353E-18
4.457182E+03	2.669633E-16	7.257616E-18
4.467065E+03	2.716003E-16	7.357430E-18
4.476948E+03	2.760589E-16	7.451556E-18
4.486831E+03	2.803397E-16	7.540065E-18
4.496714E+03	2.844446E-16	7.623063E-18
4.506597E+03	2.883817E-16	7.700821E-18
4.516480E+03	2.921456E-16	7.773243E-18
4.526363E+03	2.957509E-16	7.840777E-18
4.536245E+03	2.991992E-16	7.903510E-18
4.546128E+03	3.025019E-16	7.961792E-18
4.556011E+03	3.056616E-16	8.015736E-18
4.565894E+03	3.086861E-16	8.065590E-18
4.575777E+03	3.115789E-16	8.111482E-18
4.585660E+03	3.143485E-16	8.153673E-18
4.595543E+03	3.170037E-16	8.192422E-18
4.605426E+03	3.195440E-16	8.227751E-18
4.615309E+03	3.219832E-16	8.260045E-18
4.625191E+03	3.243210E-16	8.289326E-18
4.635074E+03	3.265664E-16	8.315850E-18
4.644957E+03	3.287238E-16	8.339755E-18
4.654840E+03	3.307927E-16	8.361054E-18
4.664723E+03	3.327863E-16	8.380102E-18
4.674606E+03	3.347037E-16	8.396898E-18
4.684489E+03	3.365485E-16	8.411554E-18
4.694372E+03	3.383194E-16	8.424056E-18
4.704255E+03	3.400280E-16	8.434713E-18
4.714137E+03	3.416680E-16	8.443386E-18
4.724020E+03	3.432457E-16	8.450248E-18
4.733903E+03	3.447626E-16	8.455353E-18
4.743786E+03	3.462154E-16	8.458639E-18
4.753669E+03	3.476090E-16	8.460240E-18
4.763552E+03	3.489393E-16	8.460074E-18
4.773435E+03	3.502059E-16	8.458149E-18
4.783318E+03	3.514122E-16	8.454562E-18
4.793201E+03	3.525567E-16	8.449297E-18
4.803083E+03	3.536420E-16	8.442428E-18
4.812966E+03	3.546656E-16	8.433917E-18
4.822849E+03	3.556291E-16	8.423815E-18
4.832732E+03	3.565296E-16	8.412072E-18
4.842615E+03	3.573719E-16	8.398817E-18
4.852498E+03	3.581524E-16	8.383983E-18
4.862381E+03	3.588715E-16	8.367595E-18
4.872264E+03	3.595253E-16	8.349581E-18
4.882147E+03	3.601218E-16	8.330142E-18
4.892029E+03	3.606531E-16	8.309112E-18
4.901912E+03	3.611229E-16	8.286598E-18
4.911795E+03	3.615275E-16	8.262527E-18
4.921678E+03	3.618745E-16	8.237096E-18
4.931561E+03	3.621566E-16	8.210150E-18
4.941444E+03	3.623817E-16	8.181889E-18
4.951327E+03	3.625425E-16	8.152167E-18
4.961210E+03	3.626515E-16	8.121278E-18
4.971093E+03	3.627017E-16	8.089083E-18
4.980975E+03	3.626982E-16	8.055711E-18
4.990858E+03	3.626422E-16	8.021207E-18
5.000741E+03	3.625393E-16	7.985705E-18
5.010624E+03	3.623949E-16	7.949342E-18
5.020507E+03	3.622072E-16	7.912087E-18
5.030390E+03	3.619823E-16	7.874087E-18
5.040273E+03	3.617260E-16	7.835482E-18
5.050156E+03	3.614411E-16	7.796339E-18
5.060039E+03	3.611301E-16	7.756721E-18
5.069921E+03	3.608032E-16	7.716855E-18
5.079804E+03	3.604631E-16	7.676805E-18
5.089687E+03	3.601164E-16	7.636715E-18
5.099570E+03	3.597660E-16	7.596652E-18
5.109453E+03	3.594185E-16	7.556755E-18
5.119336E+03	3.590768E-16	7.517089E-18
5.129219E+03	3.587512E-16	7.477866E-18
5.139102E+03	3.584444E-16	7.439143E-18
5.148985E+03	3.581594E-16	7.400975E-18
5.158867E+03	3.579098E-16	7.363641E-18
5.168750E+03	3.576911E-16	7.327041E-18
5.178633E+03	3.575130E-16	7.291368E-18
5.188516E+03	3.573854E-16	7.256814E-18
5.198399E+03	3.573032E-16	7.223266E-18
5.208282E+03	3.572799E-16	7.190984E-18
5.218165E+03	3.573172E-16	7.159994E-18
5.228048E+03	3.574210E-16	7.130397E-18
5.237931E+03	3.575965E-16	7.102284E-18
5.247813E+03	3.578417E-16	7.075599E-18
5.257696E+03	3.581687E-16	7.050565E-18
5.267579E+03	3.585748E-16	7.027115E-18
5.277462E+03	3.590678E-16	7.005381E-18
5.287345E+03	3.596479E-16	6.985349E-18
5.297228E+03	3.603184E-16	6.967067E-18
5.307111E+03	3.610782E-16	6.950493E-18
5.316994E+03	3.619332E-16	6.935721E-18
5.326877E+03	3.628805E-16	6.922680E-18
5.336759E+03	3.639171E-16	6.911293E-18
5.346642E+03	3.650421E-16	6.901525E-18
5.356525E+03	3.662573E-16	6.893394E-18
5.366408E+03	3.675524E-16	6.886692E-18
5.376291E+03	3.689232E-16	6.881324E-18
5.386174E+03	3.703643E-16	6.877182E-18
5.396057E+03	3.718695E-16	6.874137E-18
5.405940E+03	3.734248E-16	6.871923E-18
5.415823E+03	3.750315E-16	6.870563E-18
5.425705E+03	3.766744E-16	6.869774E-18
5.435588E+03	3.783536E-16	6.869555E-18
5.445471E+03	3.800697E-16	6.869918E-18
5.455354E+03	3.818269E-16	6.870940E-18
5.465237E+03	3.836356E-16	6.872799E-18
5.475120E+03	3.855066E-16	6.875677E-18
5.485003E+03	3.874504E-16	6.879749E-18
5.494886E+03	3.894693E-16	6.885039E-18
5.504768E+03	3.915679E-16	6.891615E-18
5.514651E+03	3.937502E-16	6.899526E-18
5.524534E+03	3.960186E-16	6.908800E-18
5.534417E+03	3.983744E-16	6.919445E-18
5.544300E+03	4.008179E-16	6.931446E-18
5.554183E+03	4.033405E-16	6.944638E-18
5.564066E+03	4.059480E-16	6.959110E-18
5.573949E+03	4.086299E-16	6.974664E-18
5.583832E+03	4.113825E-16	6.991227E-18
5.593714E+03	4.142054E-16	7.008783E-18
5.603597E+03	4.170853E-16	7.027095E-18
5.613480E+03	4.200163E-16	7.046058E-18
5.623363E+03	4.229919E-16	7.065559E-18
5.633246E+03	4.260007E-16	7.085403E-18
5.643129E+03	4.290390E-16	7.105531E-18
5.653012E+03	4.320900E-16	7.125665E-18
5.662895E+03	4.351446E-16	7.145661E-18
5.672778E+03	4.381933E-16	7.165370E-18
5.682660E+03	4.412215E-16	7.184563E-18
5.692543E+03	4.442142E-16	7.203011E-18
5.702426E+03	4.471639E-16	7.220610E-18
5.712309E+03	4.500503E-16	7.237049E-18
5.722192E+03	4.528607E-16	7.252147E-18
5.732075E+03	4.555816E-16	7.265715E-18
5.741958E+03	4.581908E-16	7.277427E-18
5.751841E+03	4.606736E-16	7.287084E-18
5.761724E+03	4.630196E-16	7.294556E-18
5.771606E+03	4.652000E-16	7.299430E-18
5.781489E+03	4.671992E-16	7.301502E-18
5.791372E+03	4.690007E-16	7.300562E-18
5.801255E+03	4.705879E-16	7.296401E-18
5.811138E+03	4.719354E-16	7.288676E-18
5.821021E+03	4.730218E-16	7.277115E-18
5.830904E+03	4.738352E-16	7.261591E-18
5.840787E+03	4.743505E-16	7.241781E-18
5.850670E+03	4.745564E-16	7.217578E-18
5.860552E+03	4.744258E-16	7.188632E-18
5.870435E+03	4.739499E-16	7.154881E-18
5.880318E+03	4.731142E-16	7.116172E-18
5.890201E+03	4.719068E-16	7.072396E-18
5.900084E+03	4.703205E-16	7.023515E-18
5.909967E+03	4.683624E-16	6.969701E-18
5.919850E+03	4.660348E-16	6.911053E-18
5.929733E+03	4.633544E-16	6.847884E-18
5.939616E+03	4.603558E-16	6.780757E-18
5.949498E+03	4.570890E-16	6.710460E-18
5.959381E+03	4.536139E-16	6.637912E-18
5.969264E+03	4.500206E-16	6.564459E-18
5.979147E+03	4.464020E-16	6.491469E-18
5.989030E+03	4.428648E-16	6.420494E-18
5.998913E+03	4.395258E-16	6.353213E-18
6.008796E+03	4.364832E-16	6.291020E-18
6.018679E+03	4.338289E-16	6.235198E-18
6.028562E+03	4.316285E-16	6.186649E-18
6.038444E+03	4.299228E-16	6.145906E-18
6.048327E+03	4.287132E-16	6.112941E-18
6.058210E+03	4.279553E-16	6.087077E-18
6.068093E+03	4.275685E-16	6.067137E-18
6.077976E+03	4.274136E-16	6.051125E-18
6.087859E+03	4.272992E-16	6.036329E-18
6.097742E+03	4.270073E-16	6.019687E-18
6.107625E+03	4.263132E-16	5.998065E-18
6.117508E+03	4.250386E-16	5.969009E-18
6.127390E+03	4.231003E-16	5.931403E-18
6.137273E+03	4.205270E-16	5.885706E-18
6.147156E+03	4.174146E-16	5.833304E-18
6.157039E+03	4.139122E-16	5.776308E-18
6.166922E+03	4.101523E-16	5.716581E-18
6.176805E+03	4.062573E-16	5.655819E-18
6.186688E+03	4.023249E-16	5.595368E-18
6.196571E+03	3.983935E-16	5.535741E-18
6.206454E+03	3.944578E-16	5.476846E-18
6.216336E+03	3.904623E-16	5.417894E-18
6.226219E+03	3.862960E-16	5.357322E-18
6.236102E+03	3.818037E-16	5.292962E-18
6.245985E+03	3.767928E-16	5.222126E-18
6.255868E+03	3.710791E-16	5.142242E-18
6.265751E+03	3.644759E-16	5.050694E-18
6.275634E+03	3.568435E-16	4.945513E-18
6.285517E+03	3.481246E-16	4.825857E-18
6.295400E+03	3.383407E-16	4.691967E-18
6.305282E+03	3.276435E-16	4.545882E-18
6.315165E+03	3.162938E-16	4.391143E-18
6.325048E+03	3.046609E-16	4.232806E-18
6.334931E+03	2.932134E-16	4.077316E-18
6.344814E+03	2.824733E-16	3.931884E-18
6.354697E+03	2.729912E-16	3.804158E-18
6.364580E+03	2.653104E-16	3.701725E-18
6.374463E+03	2.599601E-16	3.632030E-18
6.384346E+03	2.574455E-16	3.602248E-18
6.394228E+03	2.582503E-16	3.619320E-18
6.404111E+03	2.628681E-16	3.690401E-18
6.413994E+03	2.718049E-16	3.822900E-18
6.423877E+03	2.856014E-16	4.024803E-18
6.433760E+03	3.048122E-16	4.304396E-18
6.443643E+03	3.299896E-16	4.670041E-18
6.453526E+03	3.616218E-16	5.129311E-18
6.463409E+03	4.000429E-16	5.687695E-18
6.473291E+03	4.452920E-16	6.346580E-18
6.483174E+03	4.969454E-16	7.100792E-18
6.493057E+03	5.539458E-16	7.936055E-18
6.502940E+03	6.145035E-16	8.827459E-18
6.512823E+03	6.761449E-16	9.739972E-18
6.522706E+03	7.359034E-16	1.063106E-17
6.532589E+03	7.906010E-16	1.145460E-17
6.542472E+03	8.373211E-16	1.216772E-17
6.552355E+03	8.737026E-16	1.273508E-17
6.562237E+03	8.982810E-16	1.313396E-17
6.572120E+03	9.106189E-16	1.335637E-17
6.582003E+03	9.112339E-16	1.340822E-17
6.591886E+03	9.014504E-16	1.330738E-17
6.601769E+03	8.831125E-16	1.307961E-17
6.611652E+03	8.582864E-16	1.275428E-17
6.621535E+03	8.289996E-16	1.236057E-17
6.631418E+03	7.970455E-16	1.192456E-17
6.641301E+03	7.638819E-16	1.146761E-17
6.651183E+03	7.306026E-16	1.100595E-17
6.661066E+03	6.979572E-16	1.055079E-17
6.670949E+03	6.664336E-16	1.010956E-17
6.680832E+03	6.363050E-16	9.686520E-18
6.690715E+03	6.077091E-16	9.283942E-18
6.700598E+03	5.807007E-16	8.902851E-18
6.710481E+03	5.553091E-16	8.543907E-18
6.720364E+03	5.315680E-16	8.207850E-18
6.730247E+03	5.094800E-16	7.894952E-18
6.740129E+03	4.890764E-16	7.605939E-18
6.750012E+03	4.703593E-16	7.341092E-18
6.759895E+03	4.533168E-16	7.100482E-18
6.769778E+03	4.379159E-16	6.883849E-18
6.779661E+03	4.240806E-16	6.690249E-18
6.789544E+03	4.117296E-16	6.518643E-18
6.799427E+03	4.007417E-16	6.367341E-18
6.809310E+03	3.910018E-16	6.234726E-18
6.819193E+03	3.823709E-16	6.118774E-18
6.829075E+03	3.747221E-16	6.017626E-18
6.838958E+03	3.679432E-16	5.929631E-18
6.848841E+03	3.619335E-16	5.853303E-18
6.858724E+03	3.566084E-16	5.787390E-18
6.868607E+03	3.519096E-16	5.731055E-18
6.878490E+03	3.478040E-16	5.683857E-18
6.888373E+03	3.442670E-16	5.645486E-18
6.898256E+03	3.412858E-16	5.615825E-18
6.908139E+03	3.388660E-16	5.595054E-18
6.918021E+03	3.369950E-16	5.583057E-18
6.927904E+03	3.356658E-16	5.579802E-18
6.937787E+03	3.348537E-16	5.584968E-18
6.947670E+03	3.345123E-16	5.597858E-18
6.957553E+03	3.345783E-16	5.617486E-18
6.967436E+03	3.349705E-16	5.642545E-18
6.977319E+03	3.355778E-16	5.671210E-18
6.987202E+03	3.362763E-16	5.701410E-18
6.997085E+03	3.369310E-16	5.730862E-18
7.006967E+03	3.374066E-16	5.757246E-18
7.016850E+03	3.375801E-16	5.778422E-18
7.026733E+03	3.373502E-16	5.792603E-18
7.036616E+03	3.366634E-16	5.798797E-18
7.046499E+03	3.355089E-16	5.796745E-18
7.056382E+03	3.339211E-16	5.786967E-18
7.066265E+03	3.319839E-16	5.770852E-18
7.076148E+03	3.298164E-16	5.750423E-18
7.086031E+03	3.275657E-16	5.728215E-18
7.095913E+03	3.253768E-16	5.706761E-18
7.105796E+03	3.234069E-16	5.688838E-18
7.115679E+03	3.218005E-16	5.677028E-18
7.125562E+03	3.206829E-16	5.673605E-18
7.135445E+03	3.201688E-16	5.680679E-18
7.145328E+03	3.203469E-16	5.699924E-18
7.155211E+03	3.212731E-16	5.732438E-18
7.165094E+03	3.229919E-16	5.779128E-18
7.174977E+03	3.255038E-16	5.840124E-18
7.184859E+03	3.287785E-16	5.914996E-18
7.194742E+03	3.327486E-16	6.002637E-18
7.204625E+03	3.373052E-16	6.101178E-18
7.214508E+03	3.423139E-16	6.208262E-18
7.224391E+03	3.476028E-16	6.320829E-18
7.234274E+03	3.529846E-16	6.435501E-18
7.244157E+03	3.582628E-16	6.548696E-18
7.254040E+03	3.632429E-16	6.656835E-18
7.263923E+03	3.677435E-16	6.756540E-18
7.273805E+03	3.716012E-16	6.844735E-18
7.283688E+03	3.746922E-16	6.919045E-18
7.293571E+03	3.769125E-16	6.977437E-18
7.303454E+03	3.782104E-16	7.018833E-18
7.313337E+03	3.785665E-16	7.042749E-18
7.323220E+03	3.779927E-16	7.049281E-18
7.333103E+03	3.765351E-16	7.039168E-18
7.342986E+03	3.742845E-16	7.013999E-18
7.352869E+03	3.713310E-16	6.975361E-18
7.362751E+03	3.678072E-16	6.925662E-18
7.372634E+03	3.638390E-16	6.867210E-18
7.382517E+03	3.595531E-16	6.802348E-18
7.392400E+03	3.550783E-16	6.733482E-18
7.402283E+03	3.505250E-16	6.662692E-18
7.412166E+03	3.459855E-16	6.591729E-18
7.422049E+03	3.415418E-16	6.522174E-18
7.431932E+03	3.372383E-16	6.454890E-18
7.441814E+03	3.331216E-16	6.390796E-18
7.451697E+03	3.292146E-16	6.330365E-18
7.461580E+03	3.255344E-16	6.273959E-18
7.471463E+03	3.220803E-16	6.221599E-18
7.481346E+03	3.188588E-16	6.173449E-18
7.491229E+03	3.158580E-16	6.129311E-18
7.501112E+03	3.130712E-16	6.089089E-18
7.510995E+03	3.104800E-16	6.052461E-18
7.520878E+03	3.080828E-16	6.019425E-18
7.530760E+03	3.058514E-16	5.989459E-18
7.540643E+03	3.037851E-16	5.962579E-18
7.550526E+03	3.018640E-16	5.938418E-18
7.560409E+03	3.000851E-16	5.916942E-18
7.570292E+03	2.984490E-16	5.898189E-18
7.580175E+03	2.969516E-16	5.882099E-18
7.590058E+03	2.956000E-16	5.868841E-18
7.599941E+03	2.943982E-16	5.858517E-18
7.609824E+03	2.933495E-16	5.851223E-18
7.619706E+03	2.924508E-16	5.846919E-18
7.629589E+03	2.917088E-16	5.845766E-18
7.639472E+03	2.911132E-16	5.847587E-18
7.649355E+03	2.906539E-16	5.852206E-18
7.659238E+03	2.903216E-16	5.859459E-18
7.669121E+03	2.900944E-16	5.868926E-18
