#wls	flux	fluxerr
1.581262E+03	2.639149E-18	1.887219E-19
1.620794E+03	2.688440E-18	1.916412E-19
1.660325E+03	2.735777E-18	1.943834E-19
1.699857E+03	2.779203E-18	1.968102E-19
1.739388E+03	2.819084E-18	1.989492E-19
1.778920E+03	2.854461E-18	2.007343E-19
1.818451E+03	2.883959E-18	2.020716E-19
1.857983E+03	2.905932E-18	2.028497E-19
1.897514E+03	2.918572E-18	2.029481E-19
1.937046E+03	2.921041E-18	2.023154E-19
1.976578E+03	2.911298E-18	2.008190E-19
2.016109E+03	2.892850E-18	1.987100E-19
2.055641E+03	2.871163E-18	1.963695E-19
2.095172E+03	2.856950E-18	1.945301E-19
2.134704E+03	2.862389E-18	1.940103E-19
2.174235E+03	2.896028E-18	1.953678E-19
2.213767E+03	2.956720E-18	1.984976E-19
2.253298E+03	3.036857E-18	2.028632E-19
2.292830E+03	3.126443E-18	2.077783E-19
2.332362E+03	3.217128E-18	2.126788E-19
2.371893E+03	3.304341E-18	2.172603E-19
2.411425E+03	3.384861E-18	2.213131E-19
2.450956E+03	3.457918E-18	2.247921E-19
2.490488E+03	3.524395E-18	2.277605E-19
2.530019E+03	3.584257E-18	2.302213E-19
2.569551E+03	3.638325E-18	2.322327E-19
2.609082E+03	3.687463E-18	2.338543E-19
2.648614E+03	3.733188E-18	2.351861E-19
2.688145E+03	3.776311E-18	2.362812E-19
2.727677E+03	3.816961E-18	2.371494E-19
2.767209E+03	3.857239E-18	2.379217E-19
2.806740E+03	3.897274E-18	2.386050E-19
2.846272E+03	3.938512E-18	2.392857E-19
2.885803E+03	3.981784E-18	2.400105E-19
2.925335E+03	4.029213E-18	2.409016E-19
2.964866E+03	4.081705E-18	2.420048E-19
2.974749E+03	4.096078E-18	2.423397E-19
2.984632E+03	4.110613E-18	2.426779E-19
2.994515E+03	4.125327E-18	2.430203E-19
3.004398E+03	4.140857E-18	2.434042E-19
3.014281E+03	4.157243E-18	2.438315E-19
3.024164E+03	4.173916E-18	2.442688E-19
3.034047E+03	4.191534E-18	2.447540E-19
3.043929E+03	4.209421E-18	2.452477E-19
3.053812E+03	4.228398E-18	2.457971E-19
3.063695E+03	4.248454E-18	2.464014E-19
3.073578E+03	4.268978E-18	2.470246E-19
3.083461E+03	4.290572E-18	2.477013E-19
3.093344E+03	4.313234E-18	2.484308E-19
3.103227E+03	4.336965E-18	2.492128E-19
3.113110E+03	4.361168E-18	2.500125E-19
3.122993E+03	4.386452E-18	2.508645E-19
3.132875E+03	4.412825E-18	2.517688E-19
3.142758E+03	4.440299E-18	2.527256E-19
3.152641E+03	4.468887E-18	2.537350E-19
3.162524E+03	4.498604E-18	2.547974E-19
3.172407E+03	4.529467E-18	2.559132E-19
3.182290E+03	4.561493E-18	2.570829E-19
3.192173E+03	4.594105E-18	2.582733E-19
3.202056E+03	4.629126E-18	2.595866E-19
3.211939E+03	4.664779E-18	2.609220E-19
3.221821E+03	4.701689E-18	2.623143E-19
3.231704E+03	4.740488E-18	2.637978E-19
3.241587E+03	4.780602E-18	2.653399E-19
3.251470E+03	4.822062E-18	2.669415E-19
3.261353E+03	4.865504E-18	2.686373E-19
3.271236E+03	4.910360E-18	2.703949E-19
3.281119E+03	4.956664E-18	2.722154E-19
3.291002E+03	5.005061E-18	2.741335E-19
3.300885E+03	5.054985E-18	2.761171E-19
3.310767E+03	5.107690E-18	2.782340E-19
3.320650E+03	5.161399E-18	2.803860E-19
3.330533E+03	5.217983E-18	2.826741E-19
3.340416E+03	5.276268E-18	2.850333E-19
3.350299E+03	5.336917E-18	2.874985E-19
3.360182E+03	5.399365E-18	2.900382E-19
3.370065E+03	5.464896E-18	2.927201E-19
3.379948E+03	5.532953E-18	2.955130E-19
3.389831E+03	5.602972E-18	2.983855E-19
3.399713E+03	5.676253E-18	3.014055E-19
3.409596E+03	5.752240E-18	3.045420E-19
3.419479E+03	5.830997E-18	3.077970E-19
3.429362E+03	5.912587E-18	3.111722E-19
3.439245E+03	5.997715E-18	3.147030E-19
3.449128E+03	6.085183E-18	3.183252E-19
3.459011E+03	6.176973E-18	3.221405E-19
3.468894E+03	6.271891E-18	3.260848E-19
3.478776E+03	6.370013E-18	3.301603E-19
3.488659E+03	6.472064E-18	3.344027E-19
3.498542E+03	6.577482E-18	3.387808E-19
3.508425E+03	6.687660E-18	3.433644E-19
3.518308E+03	6.801381E-18	3.480886E-19
3.528191E+03	6.919396E-18	3.529898E-19
3.538074E+03	7.041801E-18	3.580704E-19
3.547957E+03	7.168697E-18	3.633333E-19
3.557840E+03	7.300187E-18	3.687809E-19
3.567722E+03	7.436373E-18	3.744160E-19
3.577605E+03	7.578046E-18	3.802755E-19
3.587488E+03	7.723952E-18	3.862939E-19
3.597371E+03	7.875567E-18	3.925420E-19
3.607254E+03	8.033023E-18	3.990233E-19
3.617137E+03	8.195739E-18	4.057057E-19
3.627020E+03	8.364540E-18	4.126270E-19
3.636903E+03	8.538846E-18	4.197550E-19
3.646786E+03	8.719478E-18	4.271269E-19
3.656668E+03	8.906583E-18	4.347461E-19
3.666551E+03	9.100284E-18	4.426149E-19
3.676434E+03	9.300718E-18	4.507362E-19
3.686317E+03	9.508016E-18	4.591122E-19
3.696200E+03	9.722315E-18	4.677456E-19
3.706083E+03	9.944490E-18	4.766742E-19
3.715966E+03	1.017318E-17	4.858286E-19
3.725849E+03	1.041003E-17	4.952826E-19
3.735732E+03	1.065519E-17	5.050388E-19
3.745614E+03	1.090802E-17	5.150617E-19
3.755497E+03	1.116942E-17	5.253901E-19
3.765380E+03	1.143875E-17	5.359874E-19
3.775263E+03	1.171772E-17	5.469299E-19
3.785146E+03	1.200487E-17	5.581431E-19
3.795029E+03	1.230193E-17	5.697022E-19
3.804912E+03	1.260740E-17	5.815323E-19
3.814795E+03	1.292304E-17	5.937088E-19
3.824678E+03	1.324728E-17	6.061537E-19
3.834560E+03	1.358275E-17	6.189821E-19
3.844443E+03	1.392703E-17	6.320762E-19
3.854326E+03	1.428189E-17	6.455112E-19
3.864209E+03	1.464744E-17	6.592849E-19
3.874092E+03	1.502374E-17	6.733940E-19
3.883975E+03	1.540998E-17	6.877955E-19
3.893858E+03	1.580709E-17	7.025240E-19
3.903741E+03	1.621512E-17	7.175751E-19
3.913624E+03	1.663409E-17	7.329426E-19
3.923506E+03	1.706402E-17	7.486206E-19
3.933389E+03	1.750490E-17	7.646019E-19
3.943272E+03	1.795766E-17	7.809193E-19
3.953155E+03	1.842039E-17	7.974827E-19
3.963038E+03	1.889589E-17	8.144064E-19
3.972921E+03	1.938122E-17	8.315560E-19
3.982804E+03	1.987824E-17	8.490043E-19
3.992687E+03	2.038685E-17	8.667395E-19
4.002570E+03	2.090694E-17	8.847495E-19
4.012452E+03	2.143741E-17	9.029804E-19
4.022335E+03	2.197909E-17	9.214598E-19
4.032218E+03	2.253183E-17	9.401744E-19
4.042101E+03	2.309443E-17	9.590666E-19
4.051984E+03	2.366875E-17	9.782067E-19
4.061867E+03	2.425251E-17	9.974935E-19
4.071750E+03	2.484760E-17	1.016997E-18
4.081633E+03	2.545168E-17	1.036616E-18
4.091516E+03	2.606663E-17	1.056419E-18
4.101398E+03	2.669118E-17	1.076347E-18
4.111281E+03	2.732399E-17	1.096341E-18
4.121164E+03	2.796700E-17	1.116472E-18
4.131047E+03	2.861888E-17	1.136681E-18
4.140930E+03	2.928052E-17	1.156995E-18
4.150813E+03	2.994952E-17	1.177315E-18
4.160696E+03	3.062679E-17	1.197671E-18
4.170579E+03	3.131327E-17	1.218093E-18
4.180462E+03	3.200659E-17	1.238483E-18
4.190344E+03	3.270889E-17	1.258919E-18
4.200227E+03	3.341896E-17	1.279348E-18
4.210110E+03	3.413564E-17	1.299720E-18
4.219993E+03	3.486120E-17	1.320118E-18
4.229876E+03	3.559339E-17	1.340449E-18
4.239759E+03	3.633342E-17	1.360755E-18
4.249642E+03	3.708140E-17	1.381035E-18
4.259525E+03	3.783630E-17	1.401243E-18
4.269408E+03	3.859939E-17	1.421423E-18
4.279290E+03	3.936962E-17	1.441531E-18
4.289173E+03	4.014823E-17	1.461606E-18
4.299056E+03	4.093404E-17	1.481601E-18
4.308939E+03	4.172691E-17	1.501504E-18
4.318822E+03	4.252542E-17	1.521262E-18
4.328705E+03	4.333158E-17	1.540941E-18
4.338588E+03	4.414265E-17	1.560439E-18
4.348471E+03	4.495836E-17	1.579743E-18
4.358354E+03	4.577968E-17	1.598885E-18
4.368236E+03	4.660521E-17	1.617812E-18
4.378119E+03	4.743344E-17	1.636469E-18
4.388002E+03	4.826512E-17	1.654880E-18
4.397885E+03	4.909962E-17	1.673022E-18
4.407768E+03	4.993499E-17	1.690826E-18
4.417651E+03	5.077035E-17	1.708263E-18
4.427534E+03	5.160476E-17	1.725302E-18
4.437417E+03	5.243721E-17	1.741909E-18
4.447300E+03	5.326421E-17	1.757971E-18
4.457182E+03	5.408713E-17	1.773537E-18
4.467065E+03	5.490246E-17	1.788495E-18
4.476948E+03	5.571157E-17	1.802896E-18
4.486831E+03	5.650975E-17	1.816592E-18
4.496714E+03	5.729721E-17	1.829598E-18
4.506597E+03	5.807298E-17	1.841890E-18
4.516480E+03	5.883494E-17	1.853406E-18
4.526363E+03	5.958348E-17	1.864168E-18
4.536245E+03	6.031539E-17	1.874084E-18
4.546128E+03	6.103117E-17	1.883178E-18
4.556011E+03	6.172894E-17	1.891403E-18
4.565894E+03	6.240693E-17	1.898715E-18
4.575777E+03	6.306703E-17	1.905184E-18
4.585660E+03	6.370518E-17	1.910699E-18
4.595543E+03	6.432343E-17	1.915333E-18
4.605426E+03	6.492025E-17	1.919053E-18
4.615309E+03	6.549302E-17	1.921796E-18
4.625191E+03	6.604396E-17	1.923642E-18
4.635074E+03	6.657180E-17	1.924566E-18
4.644957E+03	6.707530E-17	1.924548E-18
4.654840E+03	6.755451E-17	1.923604E-18
4.664723E+03	6.800951E-17	1.921751E-18
4.674606E+03	6.844048E-17	1.919011E-18
4.684489E+03	6.884644E-17	1.915370E-18
4.694372E+03	6.922767E-17	1.910852E-18
4.704255E+03	6.958448E-17	1.905482E-18
4.714137E+03	6.991726E-17	1.899286E-18
4.724020E+03	7.022407E-17	1.892226E-18
4.733903E+03	7.050778E-17	1.884397E-18
4.743786E+03	7.076768E-17	1.875795E-18
4.753669E+03	7.100313E-17	1.866417E-18
4.763552E+03	7.121590E-17	1.856328E-18
4.773435E+03	7.140544E-17	1.845527E-18
4.783318E+03	7.157241E-17	1.834047E-18
4.793201E+03	7.171748E-17	1.821920E-18
4.803083E+03	7.184022E-17	1.809150E-18
4.812966E+03	7.194246E-17	1.795798E-18
4.822849E+03	7.202382E-17	1.781869E-18
4.832732E+03	7.208615E-17	1.767422E-18
4.842615E+03	7.212905E-17	1.752461E-18
4.852498E+03	7.215340E-17	1.737021E-18
4.862381E+03	7.215893E-17	1.721109E-18
4.872264E+03	7.214843E-17	1.704804E-18
4.882147E+03	7.212171E-17	1.688114E-18
4.892029E+03	7.207852E-17	1.671045E-18
4.901912E+03	7.202073E-17	1.653651E-18
4.911795E+03	7.194910E-17	1.635963E-18
4.921678E+03	7.186350E-17	1.617986E-18
4.931561E+03	7.176566E-17	1.599772E-18
4.941444E+03	7.165648E-17	1.581349E-18
4.951327E+03	7.153662E-17	1.562741E-18
4.961210E+03	7.140699E-17	1.543978E-18
4.971093E+03	7.126743E-17	1.525064E-18
4.980975E+03	7.112062E-17	1.506065E-18
4.990858E+03	7.096639E-17	1.486985E-18
5.000741E+03	7.080460E-17	1.467828E-18
5.010624E+03	7.063887E-17	1.448675E-18
5.020507E+03	7.046718E-17	1.429492E-18
5.030390E+03	7.029218E-17	1.410338E-18
5.040273E+03	7.011467E-17	1.391234E-18
5.050156E+03	6.993532E-17	1.372198E-18
5.060039E+03	6.975410E-17	1.353233E-18
5.069921E+03	6.957358E-17	1.334395E-18
5.079804E+03	6.939367E-17	1.315683E-18
5.089687E+03	6.921598E-17	1.297132E-18
5.099570E+03	6.904042E-17	1.278742E-18
5.109453E+03	6.886875E-17	1.260548E-18
5.119336E+03	6.870256E-17	1.242580E-18
5.129219E+03	6.854096E-17	1.224823E-18
5.139102E+03	6.838735E-17	1.207339E-18
5.148985E+03	6.824085E-17	1.190112E-18
5.158867E+03	6.810317E-17	1.173172E-18
5.168750E+03	6.797516E-17	1.156533E-18
5.178633E+03	6.785855E-17	1.140223E-18
5.188516E+03	6.775424E-17	1.124256E-18
5.198399E+03	6.766234E-17	1.108632E-18
5.208282E+03	6.758543E-17	1.093390E-18
5.218165E+03	6.752370E-17	1.078533E-18
5.228048E+03	6.747815E-17	1.064072E-18
5.237931E+03	6.745145E-17	1.050046E-18
5.247813E+03	6.744308E-17	1.036446E-18
5.257696E+03	6.745579E-17	1.023307E-18
5.267579E+03	6.748993E-17	1.010634E-18
5.277462E+03	6.754834E-17	9.984631E-19
5.287345E+03	6.763071E-17	9.867861E-19
5.297228E+03	6.773920E-17	9.756303E-19
5.307111E+03	6.787603E-17	9.650232E-19
5.316994E+03	6.804189E-17	9.549702E-19
5.326877E+03	6.823918E-17	9.455002E-19
5.336759E+03	6.846957E-17	9.366322E-19
5.346642E+03	6.873486E-17	9.283860E-19
5.356525E+03	6.903771E-17	9.207932E-19
5.366408E+03	6.937932E-17	9.138656E-19
5.376291E+03	6.976176E-17	9.076267E-19
5.386174E+03	7.018793E-17	9.021107E-19
5.396057E+03	7.065998E-17	8.973417E-19
5.405940E+03	7.118073E-17	8.933532E-19
5.415823E+03	7.175047E-17	8.901465E-19
5.425705E+03	7.237163E-17	8.877511E-19
5.435588E+03	7.304615E-17	8.861911E-19
5.445471E+03	7.377385E-17	8.854659E-19
5.455354E+03	7.455502E-17	8.855826E-19
5.465237E+03	7.539034E-17	8.865546E-19
5.475120E+03	7.627869E-17	8.883761E-19
5.485003E+03	7.722035E-17	8.910599E-19
5.494886E+03	7.821461E-17	8.946089E-19
5.504768E+03	7.925908E-17	8.990095E-19
5.514651E+03	8.035549E-17	9.042967E-19
5.524534E+03	8.150106E-17	9.104500E-19
5.534417E+03	8.269459E-17	9.174529E-19
5.544300E+03	8.393501E-17	9.252883E-19
5.554183E+03	8.522197E-17	9.339473E-19
5.564066E+03	8.655318E-17	9.433998E-19
5.573949E+03	8.792655E-17	9.536178E-19
5.583832E+03	8.934249E-17	9.646008E-19
5.593714E+03	9.079849E-17	9.763157E-19
5.603597E+03	9.229215E-17	9.887310E-19
5.613480E+03	9.382176E-17	1.001822E-18
5.623363E+03	9.538658E-17	1.015575E-18
5.633246E+03	9.698364E-17	1.029949E-18
5.643129E+03	9.861113E-17	1.044919E-18
5.653012E+03	1.002659E-16	1.060443E-18
5.662895E+03	1.019468E-16	1.076498E-18
5.672778E+03	1.036503E-16	1.093040E-18
5.682660E+03	1.053742E-16	1.110034E-18
5.692543E+03	1.071158E-16	1.127441E-18
5.702426E+03	1.088714E-16	1.145212E-18
5.712309E+03	1.106382E-16	1.163304E-18
5.722192E+03	1.124123E-16	1.181664E-18
5.732075E+03	1.141927E-16	1.200270E-18
5.741958E+03	1.159730E-16	1.219041E-18
5.751841E+03	1.177514E-16	1.237944E-18
5.761724E+03	1.195243E-16	1.256928E-18
5.771606E+03	1.212872E-16	1.275933E-18
5.781489E+03	1.230358E-16	1.294897E-18
5.791372E+03	1.247687E-16	1.313794E-18
5.801255E+03	1.264790E-16	1.332536E-18
5.811138E+03	1.281643E-16	1.351084E-18
5.821021E+03	1.298199E-16	1.369376E-18
5.830904E+03	1.314423E-16	1.387360E-18
5.840787E+03	1.330279E-16	1.404987E-18
5.850670E+03	1.345722E-16	1.422197E-18
5.860552E+03	1.360730E-16	1.438955E-18
5.870435E+03	1.375232E-16	1.455175E-18
5.880318E+03	1.389222E-16	1.470842E-18
5.890201E+03	1.402657E-16	1.485900E-18
5.900084E+03	1.415508E-16	1.500311E-18
5.909967E+03	1.427718E-16	1.514008E-18
5.919850E+03	1.439277E-16	1.526975E-18
5.929733E+03	1.450158E-16	1.539178E-18
5.939616E+03	1.460340E-16	1.550593E-18
5.949498E+03	1.469771E-16	1.561163E-18
5.959381E+03	1.478434E-16	1.570867E-18
5.969264E+03	1.486335E-16	1.579716E-18
5.979147E+03	1.493416E-16	1.587649E-18
5.989030E+03	1.499674E-16	1.594666E-18
5.998913E+03	1.505094E-16	1.600758E-18
6.008796E+03	1.509646E-16	1.605898E-18
6.018679E+03	1.513329E-16	1.610094E-18
6.028562E+03	1.516101E-16	1.613309E-18
6.038444E+03	1.517975E-16	1.615569E-18
6.048327E+03	1.518908E-16	1.616838E-18
6.058210E+03	1.518902E-16	1.617131E-18
6.068093E+03	1.517944E-16	1.616448E-18
6.077976E+03	1.516026E-16	1.614794E-18
6.087859E+03	1.513114E-16	1.612147E-18
6.097742E+03	1.509252E-16	1.608571E-18
6.107625E+03	1.504424E-16	1.604063E-18
6.117508E+03	1.498653E-16	1.598664E-18
6.127390E+03	1.491989E-16	1.592442E-18
6.137273E+03	1.484483E-16	1.585467E-18
6.147156E+03	1.476190E-16	1.577804E-18
6.157039E+03	1.467216E-16	1.569567E-18
6.166922E+03	1.457617E-16	1.560819E-18
6.176805E+03	1.447507E-16	1.551686E-18
6.186688E+03	1.436955E-16	1.542246E-18
6.196571E+03	1.426048E-16	1.532594E-18
6.206454E+03	1.414895E-16	1.522852E-18
6.216336E+03	1.403546E-16	1.513078E-18
6.226219E+03	1.392102E-16	1.503387E-18
6.236102E+03	1.380621E-16	1.493846E-18
6.245985E+03	1.369196E-16	1.484560E-18
6.255868E+03	1.357863E-16	1.475577E-18
6.265751E+03	1.346707E-16	1.466994E-18
6.275634E+03	1.335770E-16	1.458864E-18
6.285517E+03	1.325128E-16	1.451279E-18
6.295400E+03	1.314827E-16	1.444298E-18
6.305282E+03	1.304898E-16	1.437964E-18
6.315165E+03	1.295389E-16	1.432342E-18
6.325048E+03	1.286350E-16	1.427494E-18
6.334931E+03	1.277807E-16	1.423465E-18
6.344814E+03	1.269788E-16	1.420296E-18
6.354697E+03	1.262322E-16	1.418034E-18
6.364580E+03	1.255425E-16	1.416712E-18
6.374463E+03	1.249107E-16	1.416355E-18
6.384346E+03	1.243386E-16	1.416997E-18
6.394228E+03	1.238273E-16	1.418671E-18
6.404111E+03	1.233739E-16	1.421358E-18
6.413994E+03	1.229811E-16	1.425110E-18
6.423877E+03	1.226464E-16	1.429910E-18
6.433760E+03	1.223676E-16	1.435738E-18
6.443643E+03	1.221444E-16	1.442584E-18
6.453526E+03	1.219714E-16	1.450374E-18
6.463409E+03	1.218471E-16	1.459084E-18
6.473291E+03	1.217677E-16	1.468660E-18
6.483174E+03	1.217285E-16	1.479039E-18
6.493057E+03	1.217261E-16	1.490171E-18
6.502940E+03	1.217544E-16	1.501972E-18
6.512823E+03	1.218097E-16	1.514386E-18
6.522706E+03	1.218881E-16	1.527354E-18
6.532589E+03	1.219820E-16	1.540769E-18
6.542472E+03	1.220901E-16	1.554601E-18
6.552355E+03	1.222062E-16	1.568758E-18
6.562237E+03	1.223241E-16	1.583144E-18
6.572120E+03	1.224419E-16	1.597719E-18
6.582003E+03	1.225549E-16	1.612404E-18
6.591886E+03	1.226579E-16	1.627113E-18
6.601769E+03	1.227497E-16	1.641808E-18
6.611652E+03	1.228244E-16	1.656392E-18
6.621535E+03	1.228815E-16	1.670838E-18
6.631418E+03	1.229175E-16	1.685073E-18
6.641301E+03	1.229301E-16	1.699047E-18
6.651183E+03	1.229193E-16	1.712736E-18
6.661066E+03	1.228839E-16	1.726101E-18
6.670949E+03	1.228233E-16	1.739113E-18
6.680832E+03	1.227362E-16	1.751730E-18
6.690715E+03	1.226252E-16	1.763968E-18
6.700598E+03	1.224899E-16	1.775801E-18
6.710481E+03	1.223310E-16	1.787221E-18
6.720364E+03	1.221501E-16	1.798229E-18
6.730247E+03	1.219485E-16	1.808828E-18
6.740129E+03	1.217294E-16	1.819050E-18
6.750012E+03	1.214936E-16	1.828888E-18
6.759895E+03	1.212445E-16	1.838381E-18
6.769778E+03	1.209828E-16	1.847525E-18
6.779661E+03	1.207110E-16	1.856348E-18
6.789544E+03	1.204326E-16	1.864892E-18
6.799427E+03	1.201501E-16	1.873186E-18
6.809310E+03	1.198641E-16	1.881233E-18
6.819193E+03	1.195785E-16	1.889084E-18
6.829075E+03	1.192938E-16	1.896744E-18
6.838958E+03	1.190122E-16	1.904240E-18
6.848841E+03	1.187368E-16	1.911619E-18
6.858724E+03	1.184695E-16	1.918908E-18
6.868607E+03	1.182104E-16	1.926108E-18
6.878490E+03	1.179612E-16	1.933242E-18
6.888373E+03	1.177244E-16	1.940351E-18
6.898256E+03	1.174999E-16	1.947434E-18
6.908139E+03	1.172900E-16	1.954530E-18
6.918021E+03	1.170930E-16	1.961608E-18
6.927904E+03	1.169136E-16	1.968749E-18
6.937787E+03	1.167483E-16	1.975896E-18
6.947670E+03	1.165989E-16	1.983081E-18
6.957553E+03	1.164673E-16	1.990335E-18
6.967436E+03	1.163521E-16	1.997639E-18
6.977319E+03	1.162520E-16	2.004972E-18
6.987202E+03	1.161699E-16	2.012385E-18
6.997085E+03	1.161042E-16	2.019853E-18
7.006967E+03	1.160533E-16	2.027349E-18
7.016850E+03	1.160183E-16	2.034895E-18
7.026733E+03	1.159988E-16	2.042486E-18
7.036616E+03	1.159943E-16	2.050115E-18
7.046499E+03	1.160042E-16	2.057773E-18
7.056382E+03	1.160266E-16	2.065428E-18
7.066265E+03	1.160607E-16	2.073068E-18
7.076148E+03	1.161072E-16	2.080707E-18
7.086031E+03	1.161640E-16	2.088308E-18
7.095913E+03	1.162313E-16	2.095878E-18
7.105796E+03	1.163071E-16	2.103380E-18
7.115679E+03	1.163902E-16	2.110795E-18
7.125562E+03	1.164796E-16	2.118108E-18
7.135445E+03	1.165758E-16	2.125326E-18
7.145328E+03	1.166747E-16	2.132378E-18
7.155211E+03	1.167765E-16	2.139269E-18
7.165094E+03	1.168815E-16	2.146006E-18
7.174977E+03	1.169858E-16	2.152516E-18
7.184859E+03	1.170893E-16	2.158803E-18
7.194742E+03	1.171895E-16	2.164821E-18
7.204625E+03	1.172880E-16	2.170601E-18
7.214508E+03	1.173807E-16	2.176069E-18
7.224391E+03	1.174661E-16	2.181202E-18
7.234274E+03	1.175449E-16	2.186010E-18
7.244157E+03	1.176155E-16	2.190471E-18
7.254040E+03	1.176755E-16	2.194542E-18
7.263923E+03	1.177252E-16	2.198230E-18
7.273805E+03	1.177621E-16	2.201492E-18
7.283688E+03	1.177851E-16	2.204313E-18
7.293571E+03	1.177933E-16	2.206680E-18
7.303454E+03	1.177876E-16	2.208612E-18
7.313337E+03	1.177670E-16	2.210097E-18
7.323220E+03	1.177278E-16	2.211072E-18
7.333103E+03	1.176725E-16	2.211587E-18
7.342986E+03	1.175976E-16	2.211582E-18
7.352869E+03	1.175057E-16	2.211115E-18
7.362751E+03	1.173965E-16	2.210186E-18
7.372634E+03	1.172667E-16	2.208739E-18
7.382517E+03	1.171192E-16	2.206837E-18
7.392400E+03	1.169509E-16	2.204428E-18
7.402283E+03	1.167650E-16	2.201582E-18
7.412166E+03	1.165599E-16	2.198278E-18
7.422049E+03	1.163358E-16	2.194527E-18
7.431932E+03	1.160945E-16	2.190375E-18
7.441814E+03	1.158330E-16	2.185773E-18
7.451697E+03	1.155550E-16	2.180800E-18
7.461580E+03	1.152591E-16	2.175440E-18
7.471463E+03	1.149456E-16	2.169712E-18
7.481346E+03	1.146151E-16	2.163634E-18
7.491229E+03	1.142695E-16	2.157255E-18
7.501112E+03	1.139074E-16	2.150561E-18
7.510995E+03	1.135296E-16	2.143575E-18
7.520878E+03	1.131363E-16	2.136314E-18
7.530760E+03	1.127296E-16	2.128829E-18
7.540643E+03	1.123097E-16	2.121137E-18
7.550526E+03	1.118742E-16	2.113200E-18
7.560409E+03	1.114263E-16	2.105094E-18
7.570292E+03	1.109665E-16	2.096840E-18
7.580175E+03	1.104937E-16	2.088428E-18
7.590058E+03	1.100097E-16	2.079904E-18
7.599941E+03	1.095134E-16	2.071258E-18
7.609824E+03	1.090066E-16	2.062539E-18
7.619706E+03	1.084884E-16	2.053737E-18
7.629589E+03	1.079605E-16	2.044900E-18
7.639472E+03	1.074234E-16	2.036045E-18
7.649355E+03	1.068759E-16	2.027162E-18
7.659238E+03	1.063203E-16	2.018304E-18
7.669121E+03	1.057567E-16	2.009487E-18
