#wls	flux	fluxerr
1.591280E+03	1.273208E-06	0.000000E+00
1.631062E+03	1.306922E-06	0.000000E+00
1.670844E+03	1.342995E-06	0.000000E+00
1.710626E+03	1.381473E-06	0.000000E+00
1.750408E+03	1.422513E-06	0.000000E+00
1.790190E+03	1.466142E-06	0.000000E+00
1.829972E+03	1.512621E-06	0.000000E+00
1.869754E+03	1.562079E-06	0.000000E+00
1.909536E+03	1.614508E-06	0.000000E+00
1.949318E+03	1.669891E-06	0.000000E+00
1.989100E+03	1.728203E-06	0.000000E+00
2.028882E+03	1.789527E-06	0.000000E+00
2.068664E+03	1.853348E-06	0.000000E+00
2.108446E+03	1.919505E-06	0.000000E+00
2.148228E+03	1.987605E-06	0.000000E+00
2.188010E+03	2.056802E-06	0.000000E+00
2.227792E+03	2.126849E-06	0.000000E+00
2.267574E+03	2.197281E-06	0.000000E+00
2.307356E+03	2.268214E-06	0.000000E+00
2.347138E+03	2.339990E-06	0.000000E+00
2.386920E+03	2.413161E-06	0.000000E+00
2.426702E+03	2.488594E-06	0.000000E+00
2.466484E+03	2.566693E-06	0.000000E+00
2.506266E+03	2.648180E-06	0.000000E+00
2.546048E+03	2.733651E-06	0.000000E+00
2.585830E+03	2.823381E-06	0.000000E+00
2.625612E+03	2.917757E-06	0.000000E+00
2.665394E+03	3.016972E-06	0.000000E+00
2.705176E+03	3.121341E-06	0.000000E+00
2.744958E+03	3.231004E-06	0.000000E+00
2.784740E+03	3.346135E-06	0.000000E+00
2.824522E+03	3.466848E-06	0.000000E+00
2.864304E+03	3.593680E-06	0.000000E+00
2.904086E+03	3.727086E-06	0.000000E+00
2.943868E+03	3.867538E-06	0.000000E+00
2.983650E+03	4.015955E-06	0.000000E+00
2.993595E+03	4.054427E-06	0.000000E+00
3.003541E+03	4.093428E-06	0.000000E+00
3.013486E+03	4.132955E-06	0.000000E+00
3.023432E+03	4.173101E-06	0.000000E+00
3.033377E+03	4.213863E-06	0.000000E+00
3.043323E+03	4.255235E-06	0.000000E+00
3.053268E+03	4.297216E-06	0.000000E+00
3.063214E+03	4.339799E-06	0.000000E+00
3.073159E+03	4.382979E-06	0.000000E+00
3.083105E+03	4.426838E-06	0.000000E+00
3.093050E+03	4.471365E-06	0.000000E+00
3.102996E+03	4.516459E-06	0.000000E+00
3.112941E+03	4.562286E-06	0.000000E+00
3.122887E+03	4.608649E-06	0.000000E+00
3.132832E+03	4.655618E-06	0.000000E+00
3.142778E+03	4.703262E-06	0.000000E+00
3.152723E+03	4.751462E-06	0.000000E+00
3.162669E+03	4.800275E-06	0.000000E+00
3.172614E+03	4.849577E-06	0.000000E+00
3.182560E+03	4.899415E-06	0.000000E+00
3.192505E+03	4.949737E-06	0.000000E+00
3.202451E+03	5.000402E-06	0.000000E+00
3.212396E+03	5.051432E-06	0.000000E+00
3.222342E+03	5.102752E-06	0.000000E+00
3.232287E+03	5.154281E-06	0.000000E+00
3.242233E+03	5.205923E-06	0.000000E+00
3.252178E+03	5.257571E-06	0.000000E+00
3.262124E+03	5.309105E-06	0.000000E+00
3.272069E+03	5.360307E-06	0.000000E+00
3.282015E+03	5.411202E-06	0.000000E+00
3.291960E+03	5.461458E-06	0.000000E+00
3.301906E+03	5.510986E-06	0.000000E+00
3.311851E+03	5.559514E-06	0.000000E+00
3.321797E+03	5.606929E-06	0.000000E+00
3.331742E+03	5.653021E-06	0.000000E+00
3.341688E+03	5.697407E-06	0.000000E+00
3.351633E+03	5.740035E-06	0.000000E+00
3.361579E+03	5.780515E-06	0.000000E+00
3.371524E+03	5.818714E-06	0.000000E+00
3.381470E+03	5.854423E-06	0.000000E+00
3.391415E+03	5.887281E-06	0.000000E+00
3.401361E+03	5.917270E-06	0.000000E+00
3.411306E+03	5.944072E-06	0.000000E+00
3.421252E+03	5.967558E-06	0.000000E+00
3.431197E+03	5.987624E-06	0.000000E+00
3.441143E+03	6.004128E-06	0.000000E+00
3.451088E+03	6.017113E-06	0.000000E+00
3.461034E+03	6.026434E-06	0.000000E+00
3.470979E+03	6.032132E-06	0.000000E+00
3.480925E+03	6.034214E-06	0.000000E+00
3.490870E+03	6.032871E-06	0.000000E+00
3.500816E+03	6.028104E-06	0.000000E+00
3.510761E+03	6.020019E-06	0.000000E+00
3.520707E+03	6.008894E-06	0.000000E+00
3.530652E+03	5.994745E-06	0.000000E+00
3.540598E+03	5.977823E-06	0.000000E+00
3.550543E+03	5.958394E-06	0.000000E+00
3.560489E+03	5.936603E-06	0.000000E+00
3.570434E+03	5.912746E-06	0.000000E+00
3.580380E+03	5.887000E-06	0.000000E+00
3.590325E+03	5.859626E-06	0.000000E+00
3.600271E+03	5.830973E-06	0.000000E+00
3.610216E+03	5.801211E-06	0.000000E+00
3.620162E+03	5.770798E-06	0.000000E+00
3.630107E+03	5.740021E-06	0.000000E+00
3.640053E+03	5.709264E-06	0.000000E+00
3.649998E+03	5.678878E-06	0.000000E+00
3.659944E+03	5.649358E-06	0.000000E+00
3.669889E+03	5.621156E-06	0.000000E+00
3.679835E+03	5.594689E-06	0.000000E+00
3.689780E+03	5.570484E-06	0.000000E+00
3.699726E+03	5.549005E-06	0.000000E+00
3.709671E+03	5.530643E-06	0.000000E+00
3.719617E+03	5.515969E-06	0.000000E+00
3.729562E+03	5.505231E-06	0.000000E+00
3.739507E+03	5.498777E-06	0.000000E+00
3.749453E+03	5.496928E-06	0.000000E+00
3.759398E+03	5.499703E-06	0.000000E+00
3.769344E+03	5.507283E-06	0.000000E+00
3.779289E+03	5.519529E-06	0.000000E+00
3.789235E+03	5.536343E-06	0.000000E+00
3.799180E+03	5.557455E-06	0.000000E+00
3.809126E+03	5.582427E-06	0.000000E+00
3.819071E+03	5.610750E-06	0.000000E+00
3.829017E+03	5.641864E-06	0.000000E+00
3.838962E+03	5.674999E-06	0.000000E+00
3.848908E+03	5.709404E-06	0.000000E+00
3.858853E+03	5.744155E-06	0.000000E+00
3.868799E+03	5.778386E-06	0.000000E+00
3.878744E+03	5.811151E-06	0.000000E+00
3.888690E+03	5.841506E-06	0.000000E+00
3.898635E+03	5.868589E-06	0.000000E+00
3.908581E+03	5.891491E-06	0.000000E+00
3.918526E+03	5.909488E-06	0.000000E+00
3.928472E+03	5.921963E-06	0.000000E+00
3.938417E+03	5.928277E-06	0.000000E+00
3.948363E+03	5.928191E-06	0.000000E+00
3.958308E+03	5.921417E-06	0.000000E+00
3.968254E+03	5.907882E-06	0.000000E+00
3.978199E+03	5.887720E-06	0.000000E+00
3.988145E+03	5.861121E-06	0.000000E+00
3.998090E+03	5.828560E-06	0.000000E+00
4.008036E+03	5.790540E-06	0.000000E+00
4.017981E+03	5.747656E-06	0.000000E+00
4.027927E+03	5.700534E-06	0.000000E+00
4.037872E+03	5.649996E-06	0.000000E+00
4.047818E+03	5.596784E-06	0.000000E+00
4.057763E+03	5.541645E-06	0.000000E+00
4.067709E+03	5.485297E-06	0.000000E+00
4.077654E+03	5.428418E-06	0.000000E+00
4.087600E+03	5.371673E-06	0.000000E+00
4.097545E+03	5.315565E-06	0.000000E+00
4.107491E+03	5.260617E-06	0.000000E+00
4.117436E+03	5.207226E-06	0.000000E+00
4.127382E+03	5.155713E-06	0.000000E+00
4.137327E+03	5.106334E-06	0.000000E+00
4.147273E+03	5.059276E-06	0.000000E+00
4.157218E+03	5.014723E-06	0.000000E+00
4.167164E+03	4.972691E-06	0.000000E+00
4.177109E+03	4.933298E-06	0.000000E+00
4.187055E+03	4.896643E-06	0.000000E+00
4.197000E+03	4.862706E-06	0.000000E+00
4.206946E+03	4.831597E-06	0.000000E+00
4.216891E+03	4.803369E-06	0.000000E+00
4.226837E+03	4.778184E-06	0.000000E+00
4.236782E+03	4.756166E-06	0.000000E+00
4.246728E+03	4.737477E-06	0.000000E+00
4.256673E+03	4.722451E-06	0.000000E+00
4.266619E+03	4.711271E-06	0.000000E+00
4.276564E+03	4.704366E-06	0.000000E+00
4.286510E+03	4.702098E-06	0.000000E+00
4.296455E+03	4.704911E-06	0.000000E+00
4.306401E+03	4.713247E-06	0.000000E+00
4.316346E+03	4.727671E-06	0.000000E+00
4.326292E+03	4.748728E-06	0.000000E+00
4.336237E+03	4.776948E-06	0.000000E+00
4.346183E+03	4.813034E-06	0.000000E+00
4.356128E+03	4.857523E-06	0.000000E+00
4.366074E+03	4.911067E-06	0.000000E+00
4.376019E+03	4.974206E-06	0.000000E+00
4.385965E+03	5.047527E-06	0.000000E+00
4.395910E+03	5.131423E-06	0.000000E+00
4.405856E+03	5.226384E-06	0.000000E+00
4.415801E+03	5.332667E-06	0.000000E+00
4.425747E+03	5.450397E-06	0.000000E+00
4.435692E+03	5.579696E-06	0.000000E+00
4.445638E+03	5.720368E-06	0.000000E+00
4.455583E+03	5.872070E-06	0.000000E+00
4.465529E+03	6.034231E-06	0.000000E+00
4.475474E+03	6.206049E-06	0.000000E+00
4.485420E+03	6.386402E-06	0.000000E+00
4.495365E+03	6.574016E-06	0.000000E+00
4.505311E+03	6.767297E-06	0.000000E+00
4.515256E+03	6.964330E-06	0.000000E+00
4.525202E+03	7.162953E-06	0.000000E+00
4.535147E+03	7.360921E-06	0.000000E+00
4.545093E+03	7.555762E-06	0.000000E+00
4.555038E+03	7.744754E-06	0.000000E+00
4.564984E+03	7.925410E-06	0.000000E+00
4.574929E+03	8.094911E-06	0.000000E+00
4.584875E+03	8.250843E-06	0.000000E+00
4.594820E+03	8.390919E-06	0.000000E+00
4.604766E+03	8.513045E-06	0.000000E+00
4.614711E+03	8.615563E-06	0.000000E+00
4.624657E+03	8.697059E-06	0.000000E+00
4.634602E+03	8.756909E-06	0.000000E+00
4.644548E+03	8.794569E-06	0.000000E+00
4.654493E+03	8.810325E-06	0.000000E+00
4.664439E+03	8.804782E-06	0.000000E+00
4.674384E+03	8.779086E-06	0.000000E+00
4.684330E+03	8.734619E-06	0.000000E+00
4.694275E+03	8.673271E-06	0.000000E+00
4.704221E+03	8.597034E-06	0.000000E+00
4.714166E+03	8.508333E-06	0.000000E+00
4.724112E+03	8.409359E-06	0.000000E+00
4.734057E+03	8.302567E-06	0.000000E+00
4.744003E+03	8.190272E-06	0.000000E+00
4.753948E+03	8.074581E-06	0.000000E+00
4.763894E+03	7.957574E-06	0.000000E+00
4.773839E+03	7.840948E-06	0.000000E+00
4.783785E+03	7.726213E-06	0.000000E+00
4.793730E+03	7.614607E-06	0.000000E+00
4.803676E+03	7.507076E-06	0.000000E+00
4.813621E+03	7.404209E-06	0.000000E+00
4.823567E+03	7.306551E-06	0.000000E+00
4.833512E+03	7.214032E-06	0.000000E+00
4.843458E+03	7.126726E-06	0.000000E+00
4.853403E+03	7.044312E-06	0.000000E+00
4.863349E+03	6.966460E-06	0.000000E+00
4.873294E+03	6.892534E-06	0.000000E+00
4.883240E+03	6.822053E-06	0.000000E+00
4.893185E+03	6.754452E-06	0.000000E+00
4.903131E+03	6.689135E-06	0.000000E+00
4.913076E+03	6.625706E-06	0.000000E+00
4.923022E+03	6.563740E-06	0.000000E+00
4.932967E+03	6.503069E-06	0.000000E+00
4.942913E+03	6.443461E-06	0.000000E+00
4.952858E+03	6.385078E-06	0.000000E+00
4.962804E+03	6.327956E-06	0.000000E+00
4.972749E+03	6.272430E-06	0.000000E+00
4.982695E+03	6.218793E-06	0.000000E+00
4.992640E+03	6.167518E-06	0.000000E+00
5.002586E+03	6.119041E-06	0.000000E+00
5.012531E+03	6.073670E-06	0.000000E+00
5.022477E+03	6.031877E-06	0.000000E+00
5.032422E+03	5.994020E-06	0.000000E+00
5.042368E+03	5.960392E-06	0.000000E+00
5.052313E+03	5.931103E-06	0.000000E+00
5.062259E+03	5.906423E-06	0.000000E+00
5.072204E+03	5.886430E-06	0.000000E+00
5.082150E+03	5.870951E-06	0.000000E+00
5.092095E+03	5.860106E-06	0.000000E+00
5.102041E+03	5.853653E-06	0.000000E+00
5.111986E+03	5.851411E-06	0.000000E+00
5.121932E+03	5.853144E-06	0.000000E+00
5.131877E+03	5.858508E-06	0.000000E+00
5.141823E+03	5.867222E-06	0.000000E+00
5.151768E+03	5.878846E-06	0.000000E+00
5.161714E+03	5.892953E-06	0.000000E+00
5.171659E+03	5.909077E-06	0.000000E+00
5.181605E+03	5.926602E-06	0.000000E+00
5.191550E+03	5.945129E-06	0.000000E+00
5.201496E+03	5.964066E-06	0.000000E+00
5.211441E+03	5.982828E-06	0.000000E+00
5.221387E+03	6.000898E-06	0.000000E+00
5.231332E+03	6.017797E-06	0.000000E+00
5.241278E+03	6.033027E-06	0.000000E+00
5.251223E+03	6.046262E-06	0.000000E+00
5.261169E+03	6.057062E-06	0.000000E+00
5.271114E+03	6.065235E-06	0.000000E+00
5.281060E+03	6.070471E-06	0.000000E+00
5.291005E+03	6.072706E-06	0.000000E+00
5.300951E+03	6.071803E-06	0.000000E+00
5.310896E+03	6.067720E-06	0.000000E+00
5.320842E+03	6.060432E-06	0.000000E+00
5.330787E+03	6.049780E-06	0.000000E+00
5.340733E+03	6.035751E-06	0.000000E+00
5.350678E+03	6.018135E-06	0.000000E+00
5.360624E+03	5.996677E-06	0.000000E+00
5.370569E+03	5.970848E-06	0.000000E+00
5.380515E+03	5.940185E-06	0.000000E+00
5.390460E+03	5.903745E-06	0.000000E+00
5.400406E+03	5.860646E-06	0.000000E+00
5.410351E+03	5.810071E-06	0.000000E+00
5.420297E+03	5.751437E-06	0.000000E+00
5.430242E+03	5.685507E-06	0.000000E+00
5.440188E+03	5.615583E-06	0.000000E+00
5.450133E+03	5.548785E-06	0.000000E+00
5.460079E+03	5.493435E-06	0.000000E+00
5.470024E+03	5.452789E-06	0.000000E+00
5.479970E+03	5.421896E-06	0.000000E+00
5.489915E+03	5.392924E-06	0.000000E+00
5.499861E+03	5.360480E-06	0.000000E+00
5.509806E+03	5.322773E-06	0.000000E+00
5.519752E+03	5.280008E-06	0.000000E+00
5.529697E+03	5.233476E-06	0.000000E+00
5.539643E+03	5.184895E-06	0.000000E+00
5.549588E+03	5.135819E-06	0.000000E+00
5.559534E+03	5.087759E-06	0.000000E+00
5.569479E+03	5.042066E-06	0.000000E+00
5.579425E+03	4.999894E-06	0.000000E+00
5.589370E+03	4.962315E-06	0.000000E+00
5.599316E+03	4.930246E-06	0.000000E+00
5.609261E+03	4.904506E-06	0.000000E+00
5.619207E+03	4.885860E-06	0.000000E+00
5.629152E+03	4.874870E-06	0.000000E+00
5.639098E+03	4.872182E-06	0.000000E+00
5.649043E+03	4.878066E-06	0.000000E+00
5.658989E+03	4.892863E-06	0.000000E+00
5.668934E+03	4.916672E-06	0.000000E+00
5.678880E+03	4.949395E-06	0.000000E+00
5.688825E+03	4.990951E-06	0.000000E+00
5.698771E+03	5.040960E-06	0.000000E+00
5.708716E+03	5.099015E-06	0.000000E+00
5.718662E+03	5.164539E-06	0.000000E+00
5.728607E+03	5.236892E-06	0.000000E+00
5.738553E+03	5.315230E-06	0.000000E+00
5.748498E+03	5.398793E-06	0.000000E+00
5.758444E+03	5.486532E-06	0.000000E+00
5.768389E+03	5.577519E-06	0.000000E+00
5.778335E+03	5.670800E-06	0.000000E+00
5.788280E+03	5.765360E-06	0.000000E+00
5.798226E+03	5.860128E-06	0.000000E+00
5.808171E+03	5.954189E-06	0.000000E+00
5.818117E+03	6.046682E-06	0.000000E+00
5.828062E+03	6.136615E-06	0.000000E+00
5.838008E+03	6.223279E-06	0.000000E+00
5.847953E+03	6.306056E-06	0.000000E+00
5.857899E+03	6.384230E-06	0.000000E+00
5.867844E+03	6.457467E-06	0.000000E+00
5.877790E+03	6.525407E-06	0.000000E+00
5.887735E+03	6.587646E-06	0.000000E+00
5.897681E+03	6.644101E-06	0.000000E+00
5.907626E+03	6.694783E-06	0.000000E+00
5.917572E+03	6.739561E-06	0.000000E+00
5.927517E+03	6.778600E-06	0.000000E+00
5.937463E+03	6.812048E-06	0.000000E+00
5.947408E+03	6.840022E-06	0.000000E+00
5.957354E+03	6.862757E-06	0.000000E+00
5.967299E+03	6.880514E-06	0.000000E+00
5.977245E+03	6.893497E-06	0.000000E+00
5.987190E+03	6.902088E-06	0.000000E+00
5.997136E+03	6.906524E-06	0.000000E+00
6.007081E+03	6.907135E-06	0.000000E+00
6.017027E+03	6.904111E-06	0.000000E+00
6.026972E+03	6.897984E-06	0.000000E+00
6.036918E+03	6.888913E-06	0.000000E+00
6.046863E+03	6.877491E-06	0.000000E+00
6.056809E+03	6.863949E-06	0.000000E+00
6.066754E+03	6.848972E-06	0.000000E+00
6.076700E+03	6.832884E-06	0.000000E+00
6.086645E+03	6.816384E-06	0.000000E+00
6.096591E+03	6.800138E-06	0.000000E+00
6.106536E+03	6.784766E-06	0.000000E+00
6.116482E+03	6.770909E-06	0.000000E+00
6.126427E+03	6.759384E-06	0.000000E+00
6.136373E+03	6.750912E-06	0.000000E+00
6.146318E+03	6.746180E-06	0.000000E+00
6.156264E+03	6.745817E-06	0.000000E+00
6.166209E+03	6.750540E-06	0.000000E+00
6.176155E+03	6.760885E-06	0.000000E+00
6.186100E+03	6.777015E-06	0.000000E+00
6.196046E+03	6.799305E-06	0.000000E+00
6.205991E+03	6.827728E-06	0.000000E+00
6.215937E+03	6.862197E-06	0.000000E+00
6.225882E+03	6.902663E-06	0.000000E+00
6.235828E+03	6.948752E-06	0.000000E+00
6.245773E+03	7.000059E-06	0.000000E+00
6.255719E+03	7.055969E-06	0.000000E+00
6.265664E+03	7.115764E-06	0.000000E+00
6.275610E+03	7.178938E-06	0.000000E+00
6.285555E+03	7.244460E-06	0.000000E+00
6.295501E+03	7.311658E-06	0.000000E+00
6.305446E+03	7.379573E-06	0.000000E+00
6.315392E+03	7.447575E-06	0.000000E+00
6.325337E+03	7.514795E-06	0.000000E+00
6.335283E+03	7.580652E-06	0.000000E+00
6.345228E+03	7.644671E-06	0.000000E+00
6.355174E+03	7.706167E-06	0.000000E+00
6.365119E+03	7.765011E-06	0.000000E+00
6.375065E+03	7.820978E-06	0.000000E+00
6.385010E+03	7.873950E-06	0.000000E+00
6.394956E+03	7.924023E-06	0.000000E+00
6.404901E+03	7.971372E-06	0.000000E+00
6.414847E+03	8.016230E-06	0.000000E+00
6.424792E+03	8.058738E-06	0.000000E+00
6.434738E+03	8.099036E-06	0.000000E+00
6.444683E+03	8.137366E-06	0.000000E+00
6.454629E+03	8.173552E-06	0.000000E+00
6.464574E+03	8.207855E-06	0.000000E+00
6.474520E+03	8.240220E-06	0.000000E+00
6.484465E+03	8.270514E-06	0.000000E+00
6.494411E+03	8.298532E-06	0.000000E+00
6.504356E+03	8.324002E-06	0.000000E+00
6.514302E+03	8.346730E-06	0.000000E+00
6.524247E+03	8.366218E-06	0.000000E+00
6.534193E+03	8.382217E-06	0.000000E+00
6.544138E+03	8.394346E-06	0.000000E+00
6.554084E+03	8.402108E-06	0.000000E+00
6.564029E+03	8.405323E-06	0.000000E+00
6.573975E+03	8.403734E-06	0.000000E+00
6.583920E+03	8.397159E-06	0.000000E+00
6.593866E+03	8.385497E-06	0.000000E+00
6.603811E+03	8.368736E-06	0.000000E+00
6.613757E+03	8.346951E-06	0.000000E+00
6.623702E+03	8.320167E-06	0.000000E+00
6.633648E+03	8.288763E-06	0.000000E+00
6.643593E+03	8.252913E-06	0.000000E+00
6.653539E+03	8.213131E-06	0.000000E+00
6.663484E+03	8.169845E-06	0.000000E+00
6.673430E+03	8.123381E-06	0.000000E+00
6.683375E+03	8.074243E-06	0.000000E+00
6.693321E+03	8.023098E-06	0.000000E+00
6.703266E+03	7.970209E-06	0.000000E+00
6.713212E+03	7.916411E-06	0.000000E+00
6.723157E+03	7.862118E-06	0.000000E+00
6.733103E+03	7.807743E-06	0.000000E+00
6.743048E+03	7.753965E-06	0.000000E+00
6.752994E+03	7.701303E-06	0.000000E+00
6.762939E+03	7.650106E-06	0.000000E+00
6.772885E+03	7.600970E-06	0.000000E+00
6.782830E+03	7.554166E-06	0.000000E+00
6.792776E+03	7.510194E-06	0.000000E+00
6.802721E+03	7.469086E-06	0.000000E+00
6.812667E+03	7.431367E-06	0.000000E+00
6.822612E+03	7.396946E-06	0.000000E+00
6.832558E+03	7.366225E-06	0.000000E+00
6.842503E+03	7.338995E-06	0.000000E+00
6.852449E+03	7.315399E-06	0.000000E+00
6.862394E+03	7.295250E-06	0.000000E+00
6.872340E+03	7.278589E-06	0.000000E+00
6.882285E+03	7.265134E-06	0.000000E+00
6.892231E+03	7.254842E-06	0.000000E+00
6.902176E+03	7.247224E-06	0.000000E+00
6.912122E+03	7.242317E-06	0.000000E+00
6.922067E+03	7.239726E-06	0.000000E+00
6.932013E+03	7.239046E-06	0.000000E+00
6.941958E+03	7.240281E-06	0.000000E+00
6.951904E+03	7.242886E-06	0.000000E+00
6.961849E+03	7.246738E-06	0.000000E+00
6.971795E+03	7.251450E-06	0.000000E+00
6.981740E+03	7.256938E-06	0.000000E+00
6.991686E+03	7.262855E-06	0.000000E+00
7.001631E+03	7.269174E-06	0.000000E+00
7.011577E+03	7.275468E-06	0.000000E+00
7.021522E+03	7.281918E-06	0.000000E+00
7.031468E+03	7.288169E-06	0.000000E+00
7.041413E+03	7.294479E-06	0.000000E+00
7.051359E+03	7.300563E-06	0.000000E+00
7.061304E+03	7.306611E-06	0.000000E+00
7.071250E+03	7.312549E-06	0.000000E+00
7.081195E+03	7.318628E-06	0.000000E+00
7.091141E+03	7.324971E-06	0.000000E+00
7.101086E+03	7.331427E-06	0.000000E+00
7.111032E+03	7.338442E-06	0.000000E+00
7.120977E+03	7.346172E-06	0.000000E+00
7.130923E+03	7.354472E-06	0.000000E+00
7.140868E+03	7.363631E-06	0.000000E+00
7.150814E+03	7.373770E-06	0.000000E+00
7.160759E+03	7.384837E-06	0.000000E+00
7.170705E+03	7.397204E-06	0.000000E+00
7.180650E+03	7.410603E-06	0.000000E+00
7.190596E+03	7.425028E-06	0.000000E+00
7.200541E+03	7.440586E-06	0.000000E+00
7.210487E+03	7.456875E-06	0.000000E+00
7.220432E+03	7.474065E-06	0.000000E+00
7.230378E+03	7.491815E-06	0.000000E+00
7.240323E+03	7.509884E-06	0.000000E+00
7.250269E+03	7.527831E-06	0.000000E+00
7.260214E+03	7.545322E-06	0.000000E+00
7.270160E+03	7.562143E-06	0.000000E+00
7.280105E+03	7.577725E-06	0.000000E+00
7.290051E+03	7.591472E-06	0.000000E+00
7.299996E+03	7.602931E-06	0.000000E+00
7.309942E+03	7.611642E-06	0.000000E+00
7.319887E+03	7.617155E-06	0.000000E+00
7.329833E+03	7.618885E-06	0.000000E+00
7.339778E+03	7.616289E-06	0.000000E+00
7.349724E+03	7.609044E-06	0.000000E+00
7.359669E+03	7.596579E-06	0.000000E+00
7.369615E+03	7.579069E-06	0.000000E+00
7.379560E+03	7.555981E-06	0.000000E+00
7.389506E+03	7.527390E-06	0.000000E+00
7.399451E+03	7.493658E-06	0.000000E+00
7.409397E+03	7.455272E-06	0.000000E+00
7.419342E+03	7.412517E-06	0.000000E+00
7.429288E+03	7.366273E-06	0.000000E+00
7.439233E+03	7.317201E-06	0.000000E+00
7.449179E+03	7.266354E-06	0.000000E+00
7.459124E+03	7.214368E-06	0.000000E+00
7.469069E+03	7.162390E-06	0.000000E+00
7.479015E+03	7.111258E-06	0.000000E+00
7.488960E+03	7.061803E-06	0.000000E+00
7.498906E+03	7.014975E-06	0.000000E+00
7.508851E+03	6.971359E-06	0.000000E+00
7.518797E+03	6.931938E-06	0.000000E+00
7.528742E+03	6.897146E-06	0.000000E+00
7.538688E+03	6.867474E-06	0.000000E+00
7.548633E+03	6.843466E-06	0.000000E+00
7.558579E+03	6.825405E-06	0.000000E+00
7.568524E+03	6.813456E-06	0.000000E+00
7.578470E+03	6.807522E-06	0.000000E+00
7.588415E+03	6.807853E-06	0.000000E+00
7.598361E+03	6.813968E-06	0.000000E+00
7.608306E+03	6.825906E-06	0.000000E+00
7.618252E+03	6.842976E-06	0.000000E+00
7.628197E+03	6.865023E-06	0.000000E+00
7.638143E+03	6.891182E-06	0.000000E+00
7.648088E+03	6.921145E-06	0.000000E+00
7.658034E+03	6.954072E-06	0.000000E+00
7.667979E+03	6.989233E-06	0.000000E+00
7.677925E+03	7.025704E-06	0.000000E+00
7.687870E+03	7.063035E-06	0.000000E+00
7.697816E+03	7.100286E-06	0.000000E+00
7.707761E+03	7.136691E-06	0.000000E+00
7.717707E+03	7.171346E-06	0.000000E+00
