#wls	flux	fluxerr
1.591280E+03	1.770759E-04	6.356842E-06
1.631062E+03	1.768180E-04	6.318039E-06
1.670844E+03	1.765861E-04	6.279585E-06
1.710626E+03	1.763482E-04	6.240335E-06
1.750408E+03	1.761033E-04	6.200247E-06
1.790190E+03	1.759101E-04	6.161378E-06
1.829972E+03	1.757074E-04	6.121562E-06
1.869754E+03	1.754946E-04	6.080778E-06
1.909536E+03	1.753298E-04	6.041030E-06
1.949318E+03	1.751826E-04	6.001246E-06
1.989100E+03	1.750525E-04	5.961394E-06
2.028882E+03	1.749395E-04	5.921458E-06
2.068664E+03	1.748724E-04	5.882392E-06
2.108446E+03	1.748229E-04	5.843224E-06
2.148228E+03	1.747925E-04	5.803983E-06
2.188010E+03	1.748388E-04	5.766556E-06
2.227792E+03	1.749079E-04	5.729127E-06
2.267574E+03	1.750583E-04	5.693576E-06
2.307356E+03	1.752388E-04	5.658198E-06
2.347138E+03	1.755091E-04	5.624876E-06
2.386920E+03	1.758750E-04	5.593733E-06
2.426702E+03	1.763173E-04	5.564088E-06
2.466484E+03	1.768719E-04	5.537010E-06
2.506266E+03	1.775500E-04	5.512761E-06
2.546048E+03	1.783912E-04	5.492461E-06
2.585830E+03	1.793598E-04	5.474892E-06
2.625612E+03	1.805527E-04	5.462885E-06
2.665394E+03	1.819672E-04	5.456172E-06
2.705176E+03	1.836309E-04	5.455391E-06
2.744958E+03	1.855769E-04	5.461310E-06
2.784740E+03	1.878698E-04	5.475568E-06
2.824522E+03	1.905317E-04	5.498502E-06
2.864304E+03	1.936690E-04	5.532837E-06
2.904086E+03	1.973245E-04	5.579356E-06
2.943868E+03	2.016048E-04	5.640580E-06
2.983650E+03	2.066080E-04	5.718670E-06
2.993595E+03	2.079829E-04	5.741056E-06
3.003541E+03	2.094267E-04	5.765098E-06
3.013486E+03	2.109162E-04	5.790139E-06
3.023432E+03	2.124792E-04	5.816933E-06
3.033377E+03	2.140926E-04	5.844831E-06
3.043323E+03	2.157588E-04	5.873886E-06
3.053268E+03	2.175062E-04	5.904860E-06
3.063214E+03	2.193118E-04	5.937109E-06
3.073159E+03	2.212046E-04	5.971402E-06
3.083105E+03	2.231878E-04	6.007807E-06
3.093050E+03	2.252385E-04	6.045688E-06
3.102996E+03	2.273600E-04	6.085117E-06
3.112941E+03	2.295823E-04	6.126881E-06
3.122887E+03	2.318828E-04	6.170349E-06
3.132832E+03	2.342921E-04	6.216321E-06
3.142778E+03	2.368147E-04	6.264885E-06
3.152723E+03	2.394280E-04	6.315425E-06
3.162669E+03	2.421366E-04	6.368036E-06
3.172614E+03	2.449725E-04	6.423539E-06
3.182560E+03	2.479413E-04	6.482048E-06
3.192505E+03	2.510209E-04	6.542956E-06
3.202451E+03	2.542167E-04	6.606378E-06
3.212396E+03	2.575911E-04	6.673904E-06
3.222342E+03	2.610658E-04	6.743470E-06
3.232287E+03	2.647329E-04	6.817423E-06
3.242233E+03	2.685134E-04	6.893692E-06
3.252178E+03	2.725015E-04	6.974662E-06
3.262124E+03	2.766471E-04	7.059005E-06
3.272069E+03	2.809581E-04	7.146883E-06
3.282015E+03	2.855030E-04	7.239999E-06
3.291960E+03	2.902007E-04	7.336246E-06
3.301906E+03	2.951521E-04	7.438128E-06
3.311851E+03	3.002748E-04	7.543523E-06
3.321797E+03	3.056726E-04	7.654987E-06
3.331742E+03	3.112943E-04	7.771177E-06
3.341688E+03	3.171831E-04	7.893118E-06
3.351633E+03	3.233188E-04	8.020246E-06
3.361579E+03	3.297467E-04	8.153624E-06
3.371524E+03	3.364466E-04	8.292687E-06
3.381470E+03	3.434657E-04	8.438532E-06
3.391415E+03	3.508188E-04	8.591447E-06
3.401361E+03	3.584859E-04	8.750867E-06
3.411306E+03	3.665171E-04	8.917939E-06
3.421252E+03	3.749288E-04	9.092978E-06
3.431197E+03	3.837006E-04	9.275403E-06
3.441143E+03	3.928858E-04	9.466417E-06
3.451088E+03	4.024635E-04	9.665421E-06
3.461034E+03	4.124891E-04	9.873655E-06
3.470979E+03	4.229811E-04	1.009146E-05
3.480925E+03	4.339179E-04	1.031821E-05
3.490870E+03	4.453585E-04	1.055521E-05
3.500816E+03	4.572809E-04	1.080182E-05
3.510761E+03	4.697910E-04	1.106044E-05
3.520707E+03	4.827823E-04	1.132842E-05
3.530652E+03	4.964103E-04	1.160930E-05
3.540598E+03	5.106146E-04	1.190153E-05
3.550543E+03	5.254735E-04	1.220681E-05
3.560489E+03	5.409780E-04	1.252476E-05
3.570434E+03	5.572225E-04	1.285745E-05
3.580380E+03	5.741960E-04	1.320444E-05
3.590325E+03	5.920062E-04	1.356806E-05
3.600271E+03	6.105577E-04	1.394593E-05
3.610216E+03	6.298590E-04	1.433809E-05
3.620162E+03	6.499754E-04	1.474587E-05
3.630107E+03	6.709241E-04	1.516947E-05
3.640053E+03	6.926642E-04	1.560781E-05
3.649998E+03	7.152699E-04	1.606237E-05
3.659944E+03	7.387599E-04	1.653341E-05
3.669889E+03	7.630882E-04	1.701970E-05
3.679835E+03	7.883310E-04	1.752278E-05
3.689780E+03	8.145026E-04	1.804275E-05
3.699726E+03	8.415459E-04	1.857816E-05
3.709671E+03	8.694641E-04	1.912890E-05
3.719617E+03	8.984033E-04	1.969798E-05
3.729562E+03	9.281467E-04	2.028046E-05
3.739507E+03	9.589106E-04	2.088088E-05
3.749453E+03	9.905372E-04	2.149559E-05
3.759398E+03	1.023090E-03	2.212580E-05
3.769344E+03	1.056470E-03	2.276917E-05
3.779289E+03	1.090732E-03	2.342675E-05
3.789235E+03	1.125764E-03	2.409590E-05
3.799180E+03	1.161612E-03	2.477749E-05
3.809126E+03	1.198237E-03	2.547052E-05
3.819071E+03	1.235499E-03	2.617187E-05
3.829017E+03	1.273336E-03	2.688010E-05
3.838962E+03	1.311781E-03	2.759579E-05
3.848908E+03	1.350765E-03	2.831740E-05
3.858853E+03	1.390111E-03	2.904113E-05
3.868799E+03	1.429838E-03	2.976729E-05
3.878744E+03	1.469750E-03	3.049179E-05
3.888690E+03	1.509747E-03	3.121252E-05
3.898635E+03	1.549837E-03	3.192964E-05
3.908581E+03	1.589915E-03	3.264098E-05
3.918526E+03	1.629757E-03	3.334201E-05
3.928472E+03	1.669364E-03	3.403281E-05
3.938417E+03	1.708383E-03	3.470627E-05
3.948363E+03	1.747052E-03	3.536738E-05
3.958308E+03	1.784893E-03	3.600655E-05
3.968254E+03	1.822159E-03	3.662909E-05
3.978199E+03	1.858363E-03	3.722540E-05
3.988145E+03	1.893651E-03	3.779859E-05
3.998090E+03	1.927793E-03	3.834435E-05
4.008036E+03	1.960829E-03	3.886371E-05
4.017981E+03	1.992546E-03	3.935272E-05
4.027927E+03	2.022874E-03	3.981029E-05
4.037872E+03	2.051756E-03	4.023562E-05
4.047818E+03	2.079288E-03	4.063088E-05
4.057763E+03	2.105308E-03	4.099328E-05
4.067709E+03	2.129951E-03	4.132572E-05
4.077654E+03	2.152954E-03	4.162342E-05
4.087600E+03	2.174626E-03	4.189272E-05
4.097545E+03	2.194886E-03	4.213234E-05
4.107491E+03	2.213812E-03	4.234405E-05
4.117436E+03	2.231631E-03	4.253251E-05
4.127382E+03	2.248152E-03	4.269434E-05
4.137327E+03	2.263734E-03	4.283659E-05
4.147273E+03	2.278307E-03	4.295814E-05
4.157218E+03	2.291931E-03	4.306037E-05
4.167164E+03	2.304664E-03	4.314456E-05
4.177109E+03	2.316563E-03	4.321197E-05
4.187055E+03	2.327692E-03	4.326397E-05
4.197000E+03	2.338125E-03	4.330212E-05
4.206946E+03	2.348088E-03	4.333073E-05
4.216891E+03	2.357402E-03	4.334662E-05
4.226837E+03	2.366319E-03	4.335454E-05
4.236782E+03	2.374955E-03	4.335675E-05
4.246728E+03	2.383424E-03	4.335535E-05
4.256673E+03	2.391823E-03	4.335218E-05
4.266619E+03	2.400214E-03	4.334839E-05
4.276564E+03	2.408600E-03	4.334404E-05
4.286510E+03	2.416906E-03	4.333781E-05
4.296455E+03	2.424855E-03	4.332481E-05
4.306401E+03	2.432546E-03	4.330687E-05
4.316346E+03	2.439509E-03	4.327574E-05
4.326292E+03	2.445698E-03	4.323076E-05
4.336237E+03	2.450833E-03	4.316715E-05
4.346183E+03	2.455110E-03	4.308860E-05
4.356128E+03	2.458297E-03	4.299123E-05
4.366074E+03	2.460699E-03	4.288056E-05
4.376019E+03	2.462399E-03	4.275823E-05
4.385965E+03	2.463296E-03	4.262262E-05
4.395910E+03	2.463747E-03	4.248006E-05
4.405856E+03	2.464022E-03	4.233528E-05
4.415801E+03	2.464899E-03	4.220168E-05
4.425747E+03	2.466523E-03	4.208162E-05
4.435692E+03	2.469782E-03	4.199009E-05
4.445638E+03	2.474853E-03	4.192978E-05
4.455583E+03	2.482118E-03	4.190683E-05
4.465529E+03	2.492032E-03	4.192849E-05
4.475474E+03	2.504852E-03	4.199863E-05
4.485420E+03	2.520624E-03	4.211749E-05
4.495365E+03	2.539544E-03	4.228787E-05
4.505311E+03	2.561423E-03	4.250609E-05
4.515256E+03	2.586044E-03	4.276806E-05
4.525202E+03	2.613139E-03	4.306893E-05
4.535147E+03	2.642040E-03	4.339732E-05
4.545093E+03	2.672275E-03	4.374524E-05
4.555038E+03	2.703085E-03	4.410010E-05
4.564984E+03	2.733971E-03	4.445374E-05
4.574929E+03	2.764161E-03	4.479364E-05
4.584875E+03	2.793029E-03	4.510986E-05
4.594820E+03	2.820159E-03	4.539591E-05
4.604766E+03	2.844875E-03	4.564128E-05
4.614711E+03	2.867416E-03	4.585021E-05
4.624657E+03	2.887399E-03	4.601694E-05
4.634602E+03	2.905303E-03	4.614953E-05
4.644548E+03	2.921319E-03	4.625133E-05
4.654493E+03	2.935826E-03	4.632866E-05
4.664439E+03	2.949285E-03	4.638899E-05
4.674384E+03	2.961760E-03	4.643354E-05
4.684330E+03	2.973395E-03	4.646470E-05
4.694275E+03	2.984374E-03	4.648550E-05
4.704221E+03	2.994918E-03	4.649948E-05
4.714166E+03	3.004669E-03	4.650118E-05
4.724112E+03	3.013305E-03	4.648577E-05
4.734057E+03	3.021129E-03	4.645808E-05
4.744003E+03	3.027644E-03	4.641063E-05
4.753948E+03	3.032946E-03	4.634512E-05
4.763894E+03	3.037159E-03	4.626360E-05
4.773839E+03	3.040156E-03	4.616433E-05
4.783785E+03	3.042018E-03	4.604872E-05
4.793730E+03	3.042910E-03	4.591941E-05
4.803676E+03	3.043073E-03	4.578021E-05
4.813621E+03	3.042969E-03	4.563814E-05
4.823567E+03	3.042722E-03	4.549514E-05
4.833512E+03	3.043080E-03	4.536233E-05
4.843458E+03	3.044436E-03	4.524553E-05
4.853403E+03	3.047363E-03	4.515306E-05
4.863349E+03	3.052405E-03	4.509271E-05
4.873294E+03	3.059961E-03	4.507005E-05
4.883240E+03	3.070367E-03	4.508963E-05
4.893185E+03	3.083367E-03	4.514733E-05
4.903131E+03	3.099131E-03	4.524526E-05
4.913076E+03	3.117335E-03	4.537834E-05
4.923022E+03	3.137579E-03	4.554041E-05
4.932967E+03	3.159798E-03	4.573028E-05
4.942913E+03	3.183434E-03	4.593961E-05
4.952858E+03	3.208005E-03	4.616129E-05
4.962804E+03	3.233132E-03	4.638975E-05
4.972749E+03	3.258015E-03	4.661345E-05
4.982695E+03	3.282478E-03	4.682990E-05
4.992640E+03	3.305940E-03	4.703088E-05
5.002586E+03	3.328616E-03	4.721954E-05
5.012531E+03	3.350516E-03	4.739610E-05
5.022477E+03	3.371984E-03	4.756551E-05
5.032422E+03	3.393534E-03	4.773502E-05
5.042368E+03	3.415792E-03	4.791340E-05
5.052313E+03	3.439430E-03	4.810994E-05
5.062259E+03	3.465249E-03	4.833565E-05
5.072204E+03	3.493534E-03	4.859422E-05
5.082150E+03	3.525015E-03	4.889550E-05
5.092095E+03	3.559780E-03	4.924031E-05
5.102041E+03	3.597892E-03	4.962915E-05
5.111986E+03	3.639282E-03	5.006069E-05
5.121932E+03	3.683774E-03	5.053213E-05
5.131877E+03	3.731070E-03	5.103905E-05
5.141823E+03	3.780867E-03	5.157700E-05
5.151768E+03	3.832362E-03	5.213478E-05
5.161714E+03	3.884586E-03	5.269908E-05
5.171659E+03	3.936975E-03	5.326218E-05
5.181605E+03	3.988459E-03	5.380966E-05
5.191550E+03	4.038381E-03	5.433279E-05
5.201496E+03	4.085797E-03	5.481911E-05
5.211441E+03	4.130738E-03	5.526930E-05
5.221387E+03	4.172935E-03	5.568010E-05
5.231332E+03	4.212316E-03	5.605087E-05
5.241278E+03	4.248719E-03	5.637980E-05
5.251223E+03	4.281862E-03	5.666348E-05
5.261169E+03	4.311520E-03	5.689936E-05
5.271114E+03	4.336825E-03	5.707641E-05
5.281060E+03	4.357538E-03	5.719200E-05
5.291005E+03	4.373007E-03	5.723810E-05
5.300951E+03	4.382212E-03	5.720202E-05
5.310896E+03	4.384958E-03	5.708191E-05
5.320842E+03	4.380765E-03	5.687225E-05
5.330787E+03	4.369695E-03	5.657463E-05
5.340733E+03	4.352172E-03	5.619525E-05
5.350678E+03	4.328930E-03	5.574429E-05
5.360624E+03	4.301168E-03	5.523776E-05
5.370569E+03	4.269937E-03	5.468962E-05
5.380515E+03	4.236769E-03	5.411980E-05
5.390460E+03	4.202750E-03	5.354231E-05
5.400406E+03	4.169697E-03	5.298029E-05
5.410351E+03	4.138911E-03	5.245010E-05
5.420297E+03	4.112026E-03	5.197212E-05
5.430242E+03	4.090289E-03	5.156167E-05
5.440188E+03	4.075051E-03	5.123519E-05
5.450133E+03	4.067581E-03	5.100796E-05
5.460079E+03	4.069236E-03	5.089616E-05
5.470024E+03	4.080206E-03	5.090130E-05
5.479970E+03	4.098583E-03	5.099873E-05
5.489915E+03	4.122173E-03	5.116054E-05
5.499861E+03	4.148425E-03	5.135466E-05
5.509806E+03	4.174984E-03	5.155181E-05
5.519752E+03	4.199775E-03	5.172645E-05
5.529697E+03	4.220609E-03	5.185186E-05
5.539643E+03	4.235794E-03	5.190776E-05
5.549588E+03	4.244206E-03	5.188093E-05
5.559534E+03	4.244810E-03	5.175945E-05
5.569479E+03	4.237221E-03	5.153936E-05
5.579425E+03	4.221664E-03	5.122421E-05
5.589370E+03	4.198582E-03	5.082006E-05
5.599316E+03	4.168403E-03	5.033281E-05
5.609261E+03	4.132652E-03	4.978145E-05
5.619207E+03	4.091984E-03	4.917441E-05
5.629152E+03	4.047974E-03	4.853097E-05
5.639098E+03	4.001884E-03	4.786655E-05
5.649043E+03	3.954809E-03	4.719439E-05
5.658989E+03	3.907970E-03	4.652917E-05
5.668934E+03	3.862679E-03	4.588645E-05
5.678880E+03	3.819836E-03	4.527678E-05
5.688825E+03	3.780534E-03	4.471295E-05
5.698771E+03	3.745442E-03	4.420260E-05
5.708716E+03	3.715420E-03	4.375557E-05
5.718662E+03	3.690912E-03	4.337674E-05
5.728607E+03	3.672540E-03	4.307307E-05
5.738553E+03	3.660496E-03	4.284643E-05
5.748498E+03	3.655127E-03	4.270052E-05
5.758444E+03	3.656333E-03	4.263378E-05
5.768389E+03	3.664134E-03	4.264616E-05
5.778335E+03	3.678076E-03	4.273208E-05
5.788280E+03	3.697813E-03	4.288728E-05
5.798226E+03	3.722505E-03	4.310186E-05
5.808171E+03	3.751421E-03	4.336725E-05
5.818117E+03	3.783522E-03	4.367145E-05
5.828062E+03	3.817511E-03	4.399953E-05
5.838008E+03	3.852344E-03	4.433964E-05
5.847953E+03	3.886655E-03	4.467625E-05
5.857899E+03	3.919423E-03	4.499792E-05
5.867844E+03	3.949549E-03	4.529236E-05
5.877790E+03	3.975868E-03	4.554659E-05
5.887735E+03	3.997654E-03	4.575268E-05
5.897681E+03	4.014002E-03	4.590065E-05
5.907626E+03	4.024511E-03	4.598633E-05
5.917572E+03	4.028852E-03	4.600632E-05
5.927517E+03	4.026798E-03	4.595834E-05
5.937463E+03	4.018716E-03	4.584689E-05
5.947408E+03	4.004895E-03	4.567548E-05
5.957354E+03	3.986342E-03	4.545579E-05
5.967299E+03	3.963578E-03	4.519388E-05
5.977245E+03	3.937543E-03	4.490057E-05
5.987190E+03	3.909538E-03	4.459075E-05
5.997136E+03	3.880237E-03	4.427214E-05
6.007081E+03	3.850638E-03	4.395618E-05
6.017027E+03	3.822055E-03	4.365788E-05
6.026972E+03	3.795171E-03	4.338511E-05
6.036918E+03	3.771005E-03	4.314962E-05
6.046863E+03	3.750908E-03	4.296701E-05
6.056809E+03	3.735619E-03	4.284598E-05
6.066754E+03	3.726334E-03	4.280054E-05
6.076700E+03	3.724071E-03	4.284283E-05
6.086645E+03	3.729677E-03	4.298314E-05
6.096591E+03	3.744439E-03	4.323701E-05
6.106536E+03	3.769018E-03	4.361294E-05
6.116482E+03	3.804381E-03	4.412319E-05
6.126427E+03	3.851823E-03	4.478406E-05
6.136373E+03	3.912049E-03	4.560527E-05
6.146318E+03	3.986314E-03	4.660323E-05
6.156264E+03	4.075833E-03	4.779424E-05
6.166209E+03	4.180714E-03	4.918193E-05
6.176155E+03	4.298834E-03	5.074388E-05
6.186100E+03	4.428010E-03	5.245673E-05
6.196046E+03	4.565579E-03	5.429096E-05
6.205991E+03	4.708524E-03	5.621248E-05
6.215937E+03	4.853478E-03	5.818247E-05
6.225882E+03	4.996770E-03	6.015782E-05
6.235828E+03	5.134314E-03	6.208960E-05
6.245773E+03	5.262420E-03	6.393272E-05
6.255719E+03	5.377388E-03	6.564101E-05
6.265664E+03	5.475913E-03	6.717214E-05
6.275610E+03	5.555306E-03	6.849034E-05
6.285555E+03	5.613461E-03	6.956619E-05
6.295501E+03	5.649877E-03	7.038944E-05
6.305446E+03	5.664031E-03	7.094924E-05
6.315392E+03	5.656999E-03	7.125439E-05
6.325337E+03	5.630557E-03	7.132270E-05
6.335283E+03	5.586222E-03	7.116895E-05
6.345228E+03	5.526223E-03	7.081730E-05
6.355174E+03	5.453357E-03	7.029973E-05
6.365119E+03	5.369717E-03	6.963986E-05
6.375065E+03	5.277544E-03	6.886377E-05
6.385010E+03	5.178691E-03	6.799309E-05
6.394956E+03	5.075443E-03	6.705571E-05
6.404901E+03	4.968950E-03	6.606518E-05
6.414847E+03	4.860796E-03	6.504123E-05
6.424792E+03	4.752409E-03	6.400198E-05
6.434738E+03	4.644510E-03	6.295655E-05
6.444683E+03	4.538310E-03	6.192097E-05
6.454629E+03	4.434634E-03	6.090644E-05
6.464574E+03	4.334115E-03	5.992186E-05
6.474520E+03	4.237203E-03	5.897383E-05
6.484465E+03	4.144183E-03	5.806686E-05
6.494411E+03	4.055200E-03	5.720364E-05
6.504356E+03	3.970292E-03	5.638540E-05
6.514302E+03	3.889416E-03	5.561232E-05
6.524247E+03	3.812474E-03	5.488377E-05
6.534193E+03	3.739159E-03	5.419612E-05
6.544138E+03	3.669606E-03	5.355206E-05
6.554084E+03	3.603421E-03	5.294664E-05
6.564029E+03	3.540346E-03	5.237675E-05
6.573975E+03	3.480115E-03	5.183912E-05
6.583920E+03	3.422459E-03	5.133034E-05
6.593866E+03	3.367119E-03	5.084704E-05
6.603811E+03	3.313712E-03	5.038391E-05
6.613757E+03	3.262313E-03	4.994249E-05
6.623702E+03	3.212608E-03	4.951839E-05
6.633648E+03	3.164501E-03	4.911045E-05
6.643593E+03	3.117973E-03	4.871871E-05
6.653539E+03	3.073066E-03	4.834420E-05
6.663484E+03	3.029860E-03	4.798852E-05
6.673430E+03	2.988455E-03	4.765369E-05
6.683375E+03	2.948972E-03	4.734209E-05
6.693321E+03	2.911555E-03	4.705657E-05
6.703266E+03	2.876497E-03	4.680244E-05
6.713212E+03	2.843719E-03	4.657904E-05
6.723157E+03	2.813498E-03	4.639162E-05
6.733103E+03	2.785949E-03	4.624281E-05
6.743048E+03	2.761262E-03	4.613661E-05
6.752994E+03	2.739227E-03	4.607030E-05
6.762939E+03	2.720069E-03	4.604854E-05
6.772885E+03	2.703504E-03	4.606736E-05
6.782830E+03	2.689703E-03	4.613047E-05
6.792776E+03	2.678346E-03	4.623323E-05
6.802721E+03	2.669574E-03	4.637886E-05
6.812667E+03	2.663163E-03	4.656420E-05
6.822612E+03	2.658873E-03	4.678582E-05
6.832558E+03	2.656811E-03	4.704627E-05
6.842503E+03	2.656740E-03	4.734199E-05
6.852449E+03	2.658544E-03	4.767158E-05
6.862394E+03	2.662123E-03	4.803378E-05
6.872340E+03	2.667385E-03	4.842749E-05
6.882285E+03	2.674248E-03	4.885175E-05
6.892231E+03	2.682637E-03	4.930566E-05
6.902176E+03	2.692592E-03	4.979047E-05
6.912122E+03	2.703799E-03	5.030079E-05
6.922067E+03	2.716293E-03	5.083769E-05
6.932013E+03	2.729995E-03	5.140006E-05
6.941958E+03	2.744953E-03	5.198919E-05
6.951904E+03	2.760859E-03	5.259960E-05
6.961849E+03	2.777790E-03	5.323304E-05
6.971795E+03	2.795847E-03	5.389177E-05
6.981740E+03	2.814765E-03	5.457101E-05
6.991686E+03	2.834774E-03	5.527548E-05
7.001631E+03	2.855580E-03	5.599974E-05
7.011577E+03	2.877375E-03	5.674783E-05
7.021522E+03	2.899964E-03	5.751616E-05
7.031468E+03	2.923143E-03	5.830090E-05
7.041413E+03	2.947104E-03	5.910605E-05
7.051359E+03	2.971528E-03	5.992541E-05
7.061304E+03	2.996644E-03	6.076374E-05
7.071250E+03	3.022308E-03	6.161828E-05
7.081195E+03	3.048393E-03	6.248659E-05
7.091141E+03	3.075213E-03	6.337524E-05
7.101086E+03	3.102563E-03	6.428018E-05
7.111032E+03	3.130827E-03	6.520954E-05
7.120977E+03	3.159864E-03	6.616065E-05
7.130923E+03	3.190108E-03	6.714283E-05
7.140868E+03	3.221394E-03	6.815296E-05
7.150814E+03	3.254081E-03	6.919896E-05
7.160759E+03	3.287877E-03	7.027502E-05
7.170705E+03	3.322859E-03	7.138311E-05
7.180650E+03	3.359032E-03	7.252365E-05
7.190596E+03	3.395864E-03	7.368549E-05
7.200541E+03	3.433207E-03	7.486551E-05
7.210487E+03	3.470682E-03	7.605555E-05
7.220432E+03	3.507833E-03	7.724557E-05
7.230378E+03	3.544130E-03	7.842368E-05
7.240323E+03	3.578969E-03	7.957614E-05
7.250269E+03	3.611541E-03	8.068434E-05
7.260214E+03	3.641536E-03	8.174057E-05
7.270160E+03	3.668199E-03	8.272694E-05
7.280105E+03	3.690838E-03	8.362668E-05
7.290051E+03	3.709190E-03	8.443245E-05
7.299996E+03	3.722929E-03	8.513549E-05
7.309942E+03	3.732010E-03	8.573323E-05
7.319887E+03	3.735783E-03	8.620918E-05
7.329833E+03	3.734712E-03	8.657249E-05
7.339778E+03	3.728658E-03	8.681832E-05
7.349724E+03	3.717567E-03	8.694388E-05
7.359669E+03	3.701985E-03	8.696046E-05
7.369615E+03	3.681835E-03	8.686484E-05
7.379560E+03	3.657586E-03	8.666671E-05
7.389506E+03	3.629369E-03	8.636799E-05
7.399451E+03	3.597830E-03	8.598292E-05
7.409397E+03	3.562945E-03	8.550989E-05
7.419342E+03	3.525361E-03	8.496353E-05
7.429288E+03	3.485063E-03	8.434271E-05
7.439233E+03	3.442532E-03	8.365829E-05
7.449179E+03	3.397914E-03	8.291324E-05
7.459124E+03	3.351825E-03	8.212206E-05
7.469069E+03	3.304233E-03	8.128355E-05
7.479015E+03	3.255556E-03	8.040764E-05
7.488960E+03	3.205881E-03	7.949618E-05
7.498906E+03	3.155728E-03	7.856193E-05
7.508851E+03	3.104999E-03	7.760231E-05
7.518797E+03	3.054028E-03	7.662560E-05
7.528742E+03	3.002982E-03	7.563596E-05
7.538688E+03	2.951872E-03	7.463370E-05
7.548633E+03	2.901112E-03	7.362941E-05
7.558579E+03	2.850545E-03	7.261919E-05
7.568524E+03	2.800283E-03	7.160602E-05
7.578470E+03	2.750683E-03	7.059923E-05
7.588415E+03	2.701559E-03	6.959426E-05
7.598361E+03	2.653111E-03	6.859644E-05
7.608306E+03	2.605267E-03	6.760417E-05
7.618252E+03	2.558321E-03	6.662535E-05
7.628197E+03	2.512062E-03	6.565474E-05
7.638143E+03	2.466521E-03	6.469338E-05
7.648088E+03	2.421955E-03	6.374832E-05
7.658034E+03	2.378141E-03	6.281395E-05
7.667979E+03	2.335201E-03	6.189382E-05
7.677925E+03	2.293027E-03	6.098528E-05
7.687870E+03	2.251729E-03	6.009155E-05
7.697816E+03	2.211299E-03	5.921272E-05
7.707761E+03	2.171728E-03	5.834883E-05
7.717707E+03	2.132901E-03	5.749702E-05
