#wls	flux	fluxerr
1.591280E+03	1.248022E-04	2.980956E-06
1.631062E+03	1.246605E-04	2.971797E-06
1.670844E+03	1.245328E-04	2.962831E-06
1.710626E+03	1.244194E-04	2.954068E-06
1.750408E+03	1.242992E-04	2.945000E-06
1.790190E+03	1.241731E-04	2.935646E-06
1.829972E+03	1.240638E-04	2.926542E-06
1.869754E+03	1.239724E-04	2.917708E-06
1.909536E+03	1.238789E-04	2.908666E-06
1.949318E+03	1.237851E-04	2.899460E-06
1.989100E+03	1.237143E-04	2.890630E-06
2.028882E+03	1.236689E-04	2.882227E-06
2.068664E+03	1.236304E-04	2.873809E-06
2.108446E+03	1.236231E-04	2.865941E-06
2.148228E+03	1.236506E-04	2.858693E-06
2.188010E+03	1.236961E-04	2.851671E-06
2.227792E+03	1.237852E-04	2.845457E-06
2.267574E+03	1.239027E-04	2.839687E-06
2.307356E+03	1.240756E-04	2.834973E-06
2.347138E+03	1.243110E-04	2.831460E-06
2.386920E+03	1.246170E-04	2.829314E-06
2.426702E+03	1.249817E-04	2.828249E-06
2.466484E+03	1.254367E-04	2.828954E-06
2.506266E+03	1.259936E-04	2.831671E-06
2.546048E+03	1.266658E-04	2.836668E-06
2.585830E+03	1.274479E-04	2.843791E-06
2.625612E+03	1.283781E-04	2.853855E-06
2.665394E+03	1.294762E-04	2.867258E-06
2.705176E+03	1.307437E-04	2.883981E-06
2.744958E+03	1.322488E-04	2.905469E-06
2.784740E+03	1.339788E-04	2.931374E-06
2.824522E+03	1.359891E-04	2.962827E-06
2.864304E+03	1.383189E-04	3.000593E-06
2.904086E+03	1.410140E-04	3.045554E-06
2.943868E+03	1.441045E-04	3.098240E-06
2.983650E+03	1.476739E-04	3.160302E-06
2.993595E+03	1.486688E-04	3.177858E-06
3.003541E+03	1.496748E-04	3.195582E-06
3.013486E+03	1.507160E-04	3.213990E-06
3.023432E+03	1.517940E-04	3.233110E-06
3.033377E+03	1.529337E-04	3.253473E-06
3.043323E+03	1.540894E-04	3.274097E-06
3.053268E+03	1.553100E-04	3.296024E-06
3.063214E+03	1.565493E-04	3.318264E-06
3.073159E+03	1.578570E-04	3.341873E-06
3.083105E+03	1.591863E-04	3.365851E-06
3.093050E+03	1.605880E-04	3.391269E-06
3.102996E+03	1.620394E-04	3.417644E-06
3.112941E+03	1.635425E-04	3.445015E-06
3.122887E+03	1.650740E-04	3.472883E-06
3.132832E+03	1.666864E-04	3.502352E-06
3.142778E+03	1.683570E-04	3.532935E-06
3.152723E+03	1.700878E-04	3.564674E-06
3.162669E+03	1.718814E-04	3.597613E-06
3.172614E+03	1.737403E-04	3.631801E-06
3.182560E+03	1.756672E-04	3.667286E-06
3.192505E+03	1.776648E-04	3.704123E-06
3.202451E+03	1.797360E-04	3.742362E-06
3.212396E+03	1.819116E-04	3.782637E-06
3.222342E+03	1.841397E-04	3.823864E-06
3.232287E+03	1.864512E-04	3.866674E-06
3.242233E+03	1.888780E-04	3.911724E-06
3.252178E+03	1.913672E-04	3.957908E-06
3.262124E+03	1.939510E-04	4.005883E-06
3.272069E+03	1.966630E-04	4.056337E-06
3.282015E+03	1.994488E-04	4.108136E-06
3.291960E+03	2.023726E-04	4.162594E-06
3.301906E+03	2.054097E-04	4.219189E-06
3.311851E+03	2.085340E-04	4.277377E-06
3.321797E+03	2.118130E-04	4.338532E-06
3.331742E+03	2.152216E-04	4.402127E-06
3.341688E+03	2.187334E-04	4.467608E-06
3.351633E+03	2.224194E-04	4.536414E-06
3.361579E+03	2.262543E-04	4.608015E-06
3.371524E+03	2.302453E-04	4.682542E-06
3.381470E+03	2.343999E-04	4.760134E-06
3.391415E+03	2.387261E-04	4.840936E-06
3.401361E+03	2.432324E-04	4.925104E-06
3.411306E+03	2.479276E-04	5.012798E-06
3.421252E+03	2.528210E-04	5.104190E-06
3.431197E+03	2.579225E-04	5.199457E-06
3.441143E+03	2.632422E-04	5.298784E-06
3.451088E+03	2.687910E-04	5.402369E-06
3.461034E+03	2.746202E-04	5.511220E-06
3.470979E+03	2.806619E-04	5.623949E-06
3.480925E+03	2.869676E-04	5.741567E-06
3.490870E+03	2.935931E-04	5.865158E-06
3.500816E+03	3.004668E-04	5.993268E-06
3.510761E+03	3.076446E-04	6.126982E-06
3.520707E+03	3.151870E-04	6.267477E-06
3.530652E+03	3.230195E-04	6.413237E-06
3.540598E+03	3.312519E-04	6.566407E-06
3.550543E+03	3.398080E-04	6.725441E-06
3.560489E+03	3.488043E-04	6.892612E-06
3.570434E+03	3.581609E-04	7.066296E-06
3.580380E+03	3.679951E-04	7.248771E-06
3.590325E+03	3.782134E-04	7.438148E-06
3.600271E+03	3.889307E-04	7.636646E-06
3.610216E+03	4.001003E-04	7.843300E-06
3.620162E+03	4.116694E-04	8.057031E-06
3.630107E+03	4.237599E-04	8.280181E-06
3.640053E+03	4.363200E-04	8.511685E-06
3.649998E+03	4.492905E-04	8.750345E-06
3.659944E+03	4.628011E-04	8.998641E-06
3.669889E+03	4.767924E-04	9.255363E-06
3.679835E+03	4.912652E-04	9.520479E-06
3.689780E+03	5.062189E-04	9.793927E-06
3.699726E+03	5.215770E-04	1.007418E-05
3.709671E+03	5.374799E-04	1.036390E-05
3.719617E+03	5.538486E-04	1.066153E-05
3.729562E+03	5.706741E-04	1.096682E-05
3.739507E+03	5.879439E-04	1.127950E-05
3.749453E+03	6.056427E-04	1.159922E-05
3.759398E+03	6.237528E-04	1.192561E-05
3.769344E+03	6.422539E-04	1.225823E-05
3.779289E+03	6.611212E-04	1.259657E-05
3.789235E+03	6.803278E-04	1.294008E-05
3.799180E+03	6.998439E-04	1.328816E-05
3.809126E+03	7.196344E-04	1.364010E-05
3.819071E+03	7.396630E-04	1.399520E-05
3.829017E+03	7.598890E-04	1.435265E-05
3.838962E+03	7.802684E-04	1.471161E-05
3.848908E+03	8.007545E-04	1.507118E-05
3.858853E+03	8.212978E-04	1.543041E-05
3.868799E+03	8.418449E-04	1.578831E-05
3.878744E+03	8.623410E-04	1.614383E-05
3.888690E+03	8.827294E-04	1.649593E-05
3.898635E+03	9.029507E-04	1.684351E-05
3.908581E+03	9.229461E-04	1.718549E-05
3.918526E+03	9.426553E-04	1.752076E-05
3.928472E+03	9.620176E-04	1.784824E-05
3.938417E+03	9.809749E-04	1.816688E-05
3.948363E+03	9.994701E-04	1.847566E-05
3.958308E+03	1.017448E-03	1.877362E-05
3.968254E+03	1.034859E-03	1.905990E-05
3.978199E+03	1.051656E-03	1.933367E-05
3.988145E+03	1.067797E-03	1.959425E-05
3.998090E+03	1.083246E-03	1.984105E-05
4.008036E+03	1.097977E-03	2.007363E-05
4.017981E+03	1.111965E-03	2.029166E-05
4.027927E+03	1.125199E-03	2.049498E-05
4.037872E+03	1.137672E-03	2.068353E-05
4.047818E+03	1.149385E-03	2.085745E-05
4.057763E+03	1.160349E-03	2.101701E-05
4.067709E+03	1.170582E-03	2.116259E-05
4.077654E+03	1.180110E-03	2.129475E-05
4.087600E+03	1.188963E-03	2.141412E-05
4.097545E+03	1.197181E-03	2.152147E-05
4.107491E+03	1.204809E-03	2.161767E-05
4.117436E+03	1.211894E-03	2.170365E-05
4.127382E+03	1.218490E-03	2.178043E-05
4.137327E+03	1.224491E-03	2.184616E-05
4.147273E+03	1.230278E-03	2.190769E-05
4.157218E+03	1.235750E-03	2.196325E-05
4.167164E+03	1.240967E-03	2.201395E-05
4.177109E+03	1.245825E-03	2.205797E-05
4.187055E+03	1.250709E-03	2.210217E-05
4.197000E+03	1.255514E-03	2.214468E-05
4.206946E+03	1.260129E-03	2.218357E-05
4.216891E+03	1.264935E-03	2.222554E-05
4.226837E+03	1.269813E-03	2.226852E-05
4.236782E+03	1.274640E-03	2.231035E-05
4.246728E+03	1.279786E-03	2.235746E-05
4.256673E+03	1.284947E-03	2.240457E-05
4.266619E+03	1.290481E-03	2.245790E-05
4.276564E+03	1.296071E-03	2.251192E-05
4.286510E+03	1.302063E-03	2.257260E-05
4.296455E+03	1.308121E-03	2.263412E-05
4.306401E+03	1.314410E-03	2.269932E-05
4.316346E+03	1.321089E-03	2.277092E-05
4.326292E+03	1.327803E-03	2.284280E-05
4.336237E+03	1.334706E-03	2.291757E-05
4.346183E+03	1.341778E-03	2.299491E-05
4.356128E+03	1.349007E-03	2.307458E-05
4.366074E+03	1.356384E-03	2.315645E-05
4.376019E+03	1.363913E-03	2.324055E-05
4.385965E+03	1.371782E-03	2.333008E-05
4.395910E+03	1.379485E-03	2.341644E-05
4.405856E+03	1.387571E-03	2.350893E-05
4.415801E+03	1.395890E-03	2.360501E-05
4.425747E+03	1.404464E-03	2.370502E-05
4.435692E+03	1.413311E-03	2.380926E-05
4.445638E+03	1.422440E-03	2.391785E-05
4.455583E+03	1.431672E-03	2.402777E-05
4.465529E+03	1.441360E-03	2.414494E-05
4.475474E+03	1.451308E-03	2.426603E-05
4.485420E+03	1.461302E-03	2.438748E-05
4.495365E+03	1.471677E-03	2.451484E-05
4.505311E+03	1.482020E-03	2.464123E-05
4.515256E+03	1.492655E-03	2.477206E-05
4.525202E+03	1.503159E-03	2.490026E-05
4.535147E+03	1.513667E-03	2.502814E-05
4.545093E+03	1.524135E-03	2.515492E-05
4.555038E+03	1.534711E-03	2.528309E-05
4.564984E+03	1.544979E-03	2.540581E-05
4.574929E+03	1.555107E-03	2.552585E-05
4.584875E+03	1.565081E-03	2.564304E-05
4.594820E+03	1.574902E-03	2.575737E-05
4.604766E+03	1.584578E-03	2.586904E-05
4.614711E+03	1.593931E-03	2.597516E-05
4.624657E+03	1.603383E-03	2.608261E-05
4.634602E+03	1.612766E-03	2.618869E-05
4.644548E+03	1.622112E-03	2.629393E-05
4.654493E+03	1.631247E-03	2.639552E-05
4.664439E+03	1.640599E-03	2.650041E-05
4.674384E+03	1.649785E-03	2.660240E-05
4.684330E+03	1.659230E-03	2.670839E-05
4.694275E+03	1.668549E-03	2.681215E-05
4.704221E+03	1.677961E-03	2.691722E-05
4.714166E+03	1.687692E-03	2.702725E-05
4.724112E+03	1.697344E-03	2.713584E-05
4.734057E+03	1.707138E-03	2.724653E-05
4.744003E+03	1.717084E-03	2.735951E-05
4.753948E+03	1.727188E-03	2.747483E-05
4.763894E+03	1.737445E-03	2.759246E-05
4.773839E+03	1.747633E-03	2.770886E-05
4.783785E+03	1.758167E-03	2.783061E-05
4.793730E+03	1.768821E-03	2.795414E-05
4.803676E+03	1.779584E-03	2.807927E-05
4.813621E+03	1.790227E-03	2.820241E-05
4.823567E+03	1.801179E-03	2.833034E-05
4.833512E+03	1.812002E-03	2.845614E-05
4.843458E+03	1.822915E-03	2.858331E-05
4.853403E+03	1.834144E-03	2.871536E-05
4.863349E+03	1.845249E-03	2.884542E-05
4.873294E+03	1.856456E-03	2.897702E-05
4.883240E+03	1.867769E-03	2.911021E-05
4.893185E+03	1.879188E-03	2.924500E-05
4.903131E+03	1.890709E-03	2.938134E-05
4.913076E+03	1.902328E-03	2.951915E-05
4.923022E+03	1.914034E-03	2.965826E-05
4.932967E+03	1.925583E-03	2.979490E-05
4.942913E+03	1.937424E-03	2.993603E-05
4.952858E+03	1.949313E-03	3.007786E-05
4.962804E+03	1.961000E-03	3.021656E-05
4.972749E+03	1.972946E-03	3.035922E-05
4.982695E+03	1.984673E-03	3.049849E-05
4.992640E+03	1.996414E-03	3.063799E-05
5.002586E+03	2.008176E-03	3.077780E-05
5.012531E+03	2.020210E-03	3.092180E-05
5.022477E+03	2.032049E-03	3.106282E-05
5.032422E+03	2.043953E-03	3.120486E-05
5.042368E+03	2.055943E-03	3.134821E-05
5.052313E+03	2.067789E-03	3.148943E-05
5.062259E+03	2.080003E-03	3.163627E-05
5.072204E+03	2.092349E-03	3.178515E-05
5.082150E+03	2.104579E-03	3.193232E-05
5.092095E+03	2.117187E-03	3.208528E-05
5.102041E+03	2.129652E-03	3.223612E-05
5.111986E+03	2.142454E-03	3.239210E-05
5.121932E+03	2.155046E-03	3.254497E-05
5.131877E+03	2.167631E-03	3.269781E-05
5.141823E+03	2.180414E-03	3.285374E-05
5.151768E+03	2.192818E-03	3.300402E-05
5.161714E+03	2.205034E-03	3.315159E-05
5.171659E+03	2.216995E-03	3.329547E-05
5.181605E+03	2.228636E-03	3.343466E-05
5.191550E+03	2.239889E-03	3.356823E-05
5.201496E+03	2.250430E-03	3.369130E-05
5.211441E+03	2.260731E-03	3.381100E-05
5.221387E+03	2.270474E-03	3.392259E-05
5.231332E+03	2.279343E-03	3.402138E-05
5.241278E+03	2.287832E-03	3.411480E-05
5.251223E+03	2.295363E-03	3.419425E-05
5.261169E+03	2.302174E-03	3.426335E-05
5.271114E+03	2.308511E-03	3.432576E-05
5.281060E+03	2.313811E-03	3.437315E-05
5.291005E+03	2.318332E-03	3.440941E-05
5.300951E+03	2.322073E-03	3.443455E-05
5.310896E+03	2.325040E-03	3.444870E-05
5.320842E+03	2.327251E-03	3.445218E-05
5.330787E+03	2.328739E-03	3.444549E-05
5.340733E+03	2.329276E-03	3.442528E-05
5.350678E+03	2.329468E-03	3.440057E-05
5.360624E+03	2.329114E-03	3.436839E-05
5.370569E+03	2.328024E-03	3.432597E-05
5.380515E+03	2.326836E-03	3.428274E-05
5.390460E+03	2.325101E-03	3.423207E-05
5.400406E+03	2.323187E-03	3.417940E-05
5.410351E+03	2.321452E-03	3.413002E-05
5.420297E+03	2.319424E-03	3.407697E-05
5.430242E+03	2.317424E-03	3.402497E-05
5.440188E+03	2.315470E-03	3.397429E-05
5.450133E+03	2.313546E-03	3.392468E-05
5.460079E+03	2.311605E-03	3.387548E-05
5.470024E+03	2.309589E-03	3.382581E-05
5.479970E+03	2.307437E-03	3.377479E-05
5.489915E+03	2.304810E-03	3.371747E-05
5.499861E+03	2.302155E-03	3.366040E-05
5.509806E+03	2.299093E-03	3.359803E-05
5.519752E+03	2.295238E-03	3.352474E-05
5.529697E+03	2.291011E-03	3.344670E-05
5.539643E+03	2.285777E-03	3.335463E-05
5.549588E+03	2.279725E-03	3.325132E-05
5.559534E+03	2.273071E-03	3.313993E-05
5.569479E+03	2.265270E-03	3.301254E-05
5.579425E+03	2.256611E-03	3.287337E-05
5.589370E+03	2.247153E-03	3.272329E-05
5.599316E+03	2.236991E-03	3.256370E-05
5.609261E+03	2.226254E-03	3.239646E-05
5.619207E+03	2.215096E-03	3.222384E-05
5.629152E+03	2.203693E-03	3.204839E-05
5.639098E+03	2.192237E-03	3.187291E-05
5.649043E+03	2.180676E-03	3.169662E-05
5.658989E+03	2.169723E-03	3.152988E-05
5.668934E+03	2.159318E-03	3.137184E-05
5.678880E+03	2.149403E-03	3.122161E-05
5.688825E+03	2.140649E-03	3.108895E-05
5.698771E+03	2.132708E-03	3.096879E-05
5.708716E+03	2.126202E-03	3.087014E-05
5.718662E+03	2.120731E-03	3.078721E-05
5.728607E+03	2.116605E-03	3.072448E-05
5.738553E+03	2.113853E-03	3.068237E-05
5.748498E+03	2.112713E-03	3.066435E-05
5.758444E+03	2.112654E-03	3.066269E-05
5.768389E+03	2.113844E-03	3.067985E-05
5.778335E+03	2.116178E-03	3.071430E-05
5.788280E+03	2.119515E-03	3.076403E-05
5.798226E+03	2.123451E-03	3.082317E-05
5.808171E+03	2.128294E-03	3.089621E-05
5.818117E+03	2.133604E-03	3.097676E-05
5.828062E+03	2.139175E-03	3.106188E-05
5.838008E+03	2.144555E-03	3.114499E-05
5.847953E+03	2.150040E-03	3.123042E-05
5.857899E+03	2.155194E-03	3.131184E-05
5.867844E+03	2.159595E-03	3.138314E-05
5.877790E+03	2.163601E-03	3.144952E-05
5.887735E+03	2.166593E-03	3.150199E-05
5.897681E+03	2.168739E-03	3.154299E-05
5.907626E+03	2.170243E-03	3.157551E-05
5.917572E+03	2.170594E-03	3.159210E-05
5.927517E+03	2.170074E-03	3.159684E-05
5.937463E+03	2.168749E-03	3.159071E-05
5.947408E+03	2.166977E-03	3.157890E-05
5.957354E+03	2.164392E-03	3.155610E-05
5.967299E+03	2.161416E-03	3.152844E-05
5.977245E+03	2.158248E-03	3.149882E-05
5.987190E+03	2.155112E-03	3.147050E-05
5.997136E+03	2.152248E-03	3.144703E-05
6.007081E+03	2.149669E-03	3.142858E-05
6.017027E+03	2.148148E-03	3.142649E-05
6.026972E+03	2.147718E-03	3.144127E-05
6.036918E+03	2.148670E-03	3.147723E-05
6.046863E+03	2.151047E-03	3.153507E-05
6.056809E+03	2.155647E-03	3.162653E-05
6.066754E+03	2.162511E-03	3.175231E-05
6.076700E+03	2.171677E-03	3.191309E-05
6.086645E+03	2.183931E-03	3.212050E-05
6.096591E+03	2.199036E-03	3.237123E-05
6.106536E+03	2.217757E-03	3.267667E-05
6.116482E+03	2.239818E-03	3.303295E-05
6.126427E+03	2.265689E-03	3.344716E-05
6.136373E+03	2.295812E-03	3.392608E-05
6.146318E+03	2.329779E-03	3.446391E-05
6.156264E+03	2.367864E-03	3.506494E-05
6.166209E+03	2.410176E-03	3.573105E-05
6.176155E+03	2.455773E-03	3.644855E-05
6.186100E+03	2.504363E-03	3.721334E-05
6.196046E+03	2.555240E-03	3.801514E-05
6.205991E+03	2.607583E-03	3.884192E-05
6.215937E+03	2.660473E-03	3.968010E-05
6.225882E+03	2.712908E-03	4.051480E-05
6.235828E+03	2.763823E-03	4.133013E-05
6.245773E+03	2.812124E-03	4.210968E-05
6.255719E+03	2.856725E-03	4.283702E-05
6.265664E+03	2.896590E-03	4.349642E-05
6.275610E+03	2.930436E-03	4.406834E-05
6.285555E+03	2.958140E-03	4.455051E-05
6.295501E+03	2.978733E-03	4.492797E-05
6.305446E+03	2.991789E-03	4.519377E-05
6.315392E+03	2.996750E-03	4.533894E-05
6.325337E+03	2.994327E-03	4.537369E-05
6.335283E+03	2.984400E-03	4.529563E-05
6.345228E+03	2.967043E-03	4.510531E-05
6.355174E+03	2.943532E-03	4.482156E-05
6.365119E+03	2.913888E-03	4.444421E-05
6.375065E+03	2.879589E-03	4.399530E-05
6.385010E+03	2.840800E-03	4.347694E-05
6.394956E+03	2.799037E-03	4.291195E-05
6.404901E+03	2.754465E-03	4.230258E-05
6.414847E+03	2.708188E-03	4.166549E-05
6.424792E+03	2.661216E-03	4.101609E-05
6.434738E+03	2.613538E-03	4.035403E-05
6.444683E+03	2.565993E-03	3.969221E-05
6.454629E+03	2.519304E-03	3.904175E-05
6.464574E+03	2.473215E-03	3.839871E-05
6.474520E+03	2.428281E-03	3.777171E-05
6.484465E+03	2.384679E-03	3.716354E-05
6.494411E+03	2.342522E-03	3.657602E-05
6.504356E+03	2.302135E-03	3.601434E-05
6.514302E+03	2.262989E-03	3.547032E-05
6.524247E+03	2.225336E-03	3.494795E-05
6.534193E+03	2.189132E-03	3.444664E-05
6.544138E+03	2.154314E-03	3.396551E-05
6.554084E+03	2.120812E-03	3.350352E-05
6.564029E+03	2.088553E-03	3.305961E-05
6.573975E+03	2.057467E-03	3.263275E-05
6.583920E+03	2.027488E-03	3.222197E-05
6.593866E+03	1.998325E-03	3.182269E-05
6.603811E+03	1.970400E-03	3.144174E-05
6.613757E+03	1.943440E-03	3.107478E-05
6.623702E+03	1.917414E-03	3.072142E-05
6.633648E+03	1.892305E-03	3.038144E-05
6.643593E+03	1.867880E-03	3.005116E-05
6.653539E+03	1.844577E-03	2.973769E-05
6.663484E+03	1.822175E-03	2.943754E-05
6.673430E+03	1.800679E-03	2.915086E-05
6.683375E+03	1.779890E-03	2.887450E-05
6.693321E+03	1.760239E-03	2.861550E-05
6.703266E+03	1.741321E-03	2.836738E-05
6.713212E+03	1.723560E-03	2.813709E-05
6.723157E+03	1.706759E-03	2.792154E-05
6.733103E+03	1.690728E-03	2.771770E-05
6.743048E+03	1.675876E-03	2.753233E-05
6.752994E+03	1.661810E-03	2.735908E-05
6.762939E+03	1.648925E-03	2.720453E-05
6.772885E+03	1.636831E-03	2.706235E-05
6.782830E+03	1.625908E-03	2.693890E-05
6.792776E+03	1.615765E-03	2.682781E-05
6.802721E+03	1.606582E-03	2.673213E-05
6.812667E+03	1.598531E-03	2.665483E-05
6.822612E+03	1.591216E-03	2.658941E-05
6.832558E+03	1.584804E-03	2.653872E-05
6.842503E+03	1.579454E-03	2.650553E-05
6.852449E+03	1.574767E-03	2.648322E-05
6.862394E+03	1.570898E-03	2.647448E-05
6.872340E+03	1.567815E-03	2.647884E-05
6.882285E+03	1.565485E-03	2.649583E-05
6.892231E+03	1.564061E-03	2.652810E-05
6.902176E+03	1.563138E-03	2.656889E-05
6.912122E+03	1.562871E-03	2.662085E-05
6.922067E+03	1.563228E-03	2.668353E-05
6.932013E+03	1.564182E-03	2.675652E-05
6.941958E+03	1.565710E-03	2.683946E-05
6.951904E+03	1.567790E-03	2.693207E-05
6.961849E+03	1.570405E-03	2.703408E-05
6.971795E+03	1.573544E-03	2.714537E-05
6.981740E+03	1.577200E-03	2.726586E-05
6.991686E+03	1.581371E-03	2.739557E-05
7.001631E+03	1.586058E-03	2.753458E-05
7.011577E+03	1.591270E-03	2.768307E-05
7.021522E+03	1.597015E-03	2.784126E-05
7.031468E+03	1.603118E-03	2.800614E-05
7.041413E+03	1.609972E-03	2.818462E-05
7.051359E+03	1.617405E-03	2.837375E-05
7.061304E+03	1.625431E-03	2.857385E-05
7.071250E+03	1.634065E-03	2.878523E-05
7.081195E+03	1.643121E-03	2.900468E-05
7.091141E+03	1.652991E-03	2.923918E-05
7.101086E+03	1.663482E-03	2.948537E-05
7.111032E+03	1.674381E-03	2.973956E-05
7.120977E+03	1.686066E-03	3.000849E-05
7.130923E+03	1.698104E-03	3.028452E-05
7.140868E+03	1.710854E-03	3.057411E-05
7.150814E+03	1.724054E-03	3.087265E-05
7.160759E+03	1.737424E-03	3.117513E-05
7.170705E+03	1.751288E-03	3.148742E-05
7.180650E+03	1.765125E-03	3.180016E-05
7.190596E+03	1.779025E-03	3.211496E-05
7.200541E+03	1.793068E-03	3.243331E-05
7.210487E+03	1.806684E-03	3.274484E-05
7.220432E+03	1.820149E-03	3.305453E-05
7.230378E+03	1.832867E-03	3.335150E-05
7.240323E+03	1.844885E-03	3.363656E-05
7.250269E+03	1.856260E-03	3.391062E-05
7.260214E+03	1.866381E-03	3.416247E-05
7.270160E+03	1.875309E-03	3.439304E-05
7.280105E+03	1.882894E-03	3.459947E-05
7.290051E+03	1.888998E-03	3.477906E-05
7.299996E+03	1.893727E-03	3.493360E-05
7.309942E+03	1.896523E-03	3.505264E-05
7.319887E+03	1.897532E-03	3.513866E-05
7.329833E+03	1.896695E-03	3.519037E-05
7.339778E+03	1.893977E-03	3.520692E-05
7.349724E+03	1.889366E-03	3.518790E-05
7.359669E+03	1.882873E-03	3.513330E-05
7.369615E+03	1.874534E-03	3.504357E-05
7.379560E+03	1.864402E-03	3.491956E-05
7.389506E+03	1.852552E-03	3.476246E-05
7.399451E+03	1.839075E-03	3.457378E-05
7.409397E+03	1.823855E-03	3.435120E-05
7.419342E+03	1.807450E-03	3.410504E-05
7.429288E+03	1.789763E-03	3.383336E-05
7.439233E+03	1.770923E-03	3.353846E-05
7.449179E+03	1.750848E-03	3.321868E-05
7.459124E+03	1.730088E-03	3.288437E-05
7.469069E+03	1.708549E-03	3.253362E-05
7.479015E+03	1.686128E-03	3.216441E-05
7.488960E+03	1.663322E-03	3.178617E-05
7.498906E+03	1.640001E-03	3.139636E-05
7.508851E+03	1.616037E-03	3.099247E-05
7.518797E+03	1.591886E-03	3.058321E-05
7.528742E+03	1.567219E-03	3.016225E-05
7.538688E+03	1.542477E-03	2.973801E-05
7.548633E+03	1.517335E-03	2.930424E-05
7.558579E+03	1.492038E-03	2.886562E-05
7.568524E+03	1.466813E-03	2.842657E-05
7.578470E+03	1.441348E-03	2.798103E-05
7.588415E+03	1.415870E-03	2.753340E-05
7.598361E+03	1.390592E-03	2.708782E-05
7.608306E+03	1.365213E-03	2.663847E-05
7.618252E+03	1.339942E-03	2.618942E-05
7.628197E+03	1.314818E-03	2.574144E-05
7.638143E+03	1.289872E-03	2.529516E-05
7.648088E+03	1.265135E-03	2.485123E-05
7.658034E+03	1.240788E-03	2.441322E-05
7.667979E+03	1.216549E-03	2.397564E-05
7.677925E+03	1.192598E-03	2.354205E-05
7.687870E+03	1.168955E-03	2.311287E-05
7.697816E+03	1.145500E-03	2.268577E-05
7.707761E+03	1.122533E-03	2.226671E-05
7.717707E+03	1.099926E-03	2.185323E-05
