#wls	flux	fluxerr
1.591280E+03	9.376311E-05	4.054536E-06
1.631062E+03	9.360160E-05	4.036909E-06
1.670844E+03	9.345898E-05	4.019850E-06
1.710626E+03	9.331950E-05	4.002672E-06
1.750408E+03	9.320091E-05	3.986127E-06
1.790190E+03	9.307150E-05	3.968853E-06
1.829972E+03	9.296566E-05	3.952309E-06
1.869754E+03	9.286860E-05	3.935855E-06
1.909536E+03	9.278221E-05	3.919562E-06
1.949318E+03	9.270860E-05	3.903510E-06
1.989100E+03	9.266656E-05	3.888477E-06
2.028882E+03	9.262595E-05	3.873182E-06
2.068664E+03	9.262245E-05	3.859108E-06
2.108446E+03	9.264304E-05	3.845690E-06
2.148228E+03	9.270779E-05	3.833741E-06
2.188010E+03	9.278828E-05	3.822062E-06
2.227792E+03	9.292167E-05	3.812165E-06
2.267574E+03	9.309698E-05	3.803566E-06
2.307356E+03	9.331994E-05	3.796470E-06
2.347138E+03	9.361345E-05	3.791770E-06
2.386920E+03	9.396838E-05	3.789052E-06
2.426702E+03	9.439301E-05	3.788605E-06
2.466484E+03	9.489639E-05	3.790739E-06
2.506266E+03	9.550530E-05	3.796465E-06
2.546048E+03	9.619827E-05	3.804856E-06
2.585830E+03	9.702129E-05	3.817659E-06
2.625612E+03	9.797252E-05	3.834706E-06
2.665394E+03	9.908539E-05	3.857201E-06
2.705176E+03	1.003620E-04	3.885103E-06
2.744958E+03	1.018061E-04	3.918427E-06
2.784740E+03	1.034943E-04	3.959971E-06
2.824522E+03	1.054019E-04	4.008599E-06
2.864304E+03	1.075963E-04	4.066682E-06
2.904086E+03	1.100779E-04	4.133989E-06
2.943868E+03	1.129255E-04	4.213228E-06
2.983650E+03	1.161896E-04	4.305949E-06
2.993595E+03	1.170693E-04	4.331140E-06
3.003541E+03	1.179782E-04	4.357268E-06
3.013486E+03	1.189175E-04	4.384362E-06
3.023432E+03	1.198881E-04	4.412452E-06
3.033377E+03	1.208911E-04	4.441573E-06
3.043323E+03	1.219482E-04	4.472513E-06
3.053268E+03	1.230197E-04	4.503803E-06
3.063214E+03	1.241272E-04	4.536235E-06
3.073159E+03	1.252719E-04	4.569842E-06
3.083105E+03	1.264551E-04	4.604664E-06
3.093050E+03	1.276999E-04	4.641526E-06
3.102996E+03	1.289647E-04	4.678917E-06
3.112941E+03	1.302725E-04	4.717652E-06
3.122887E+03	1.316248E-04	4.757784E-06
3.132832E+03	1.330455E-04	4.800161E-06
3.142778E+03	1.344919E-04	4.843234E-06
3.152723E+03	1.359878E-04	4.887850E-06
3.162669E+03	1.375352E-04	4.934066E-06
3.172614E+03	1.391592E-04	4.982774E-06
3.182560E+03	1.408154E-04	5.032370E-06
3.192505E+03	1.425291E-04	5.083742E-06
3.202451E+03	1.443263E-04	5.137813E-06
3.212396E+03	1.461616E-04	5.192940E-06
3.222342E+03	1.480610E-04	5.250042E-06
3.232287E+03	1.500520E-04	5.310075E-06
3.242233E+03	1.520874E-04	5.371352E-06
3.252178E+03	1.542203E-04	5.435731E-06
3.262124E+03	1.564023E-04	5.501492E-06
3.272069E+03	1.586617E-04	5.569612E-06
3.282015E+03	1.610282E-04	5.641114E-06
3.291960E+03	1.634518E-04	5.714224E-06
3.301906E+03	1.659896E-04	5.790922E-06
3.311851E+03	1.685901E-04	5.869389E-06
3.321797E+03	1.713126E-04	5.951664E-06
3.331742E+03	1.741041E-04	6.035886E-06
3.341688E+03	1.770257E-04	6.124149E-06
3.351633E+03	1.800229E-04	6.214543E-06
3.361579E+03	1.831590E-04	6.309229E-06
3.371524E+03	1.863780E-04	6.406244E-06
3.381470E+03	1.897451E-04	6.507813E-06
3.391415E+03	1.932028E-04	6.611920E-06
3.401361E+03	1.968187E-04	6.720860E-06
3.411306E+03	2.005329E-04	6.832552E-06
3.421252E+03	2.044159E-04	6.949367E-06
3.431197E+03	2.084057E-04	7.069159E-06
3.441143E+03	2.125754E-04	7.194374E-06
3.451088E+03	2.168604E-04	7.322793E-06
3.461034E+03	2.213367E-04	7.456942E-06
3.470979E+03	2.259746E-04	7.595773E-06
3.480925E+03	2.307411E-04	7.738145E-06
3.490870E+03	2.357167E-04	7.886715E-06
3.500816E+03	2.408299E-04	8.039043E-06
3.510761E+03	2.461641E-04	8.197875E-06
3.520707E+03	2.516857E-04	8.362036E-06
3.530652E+03	2.573576E-04	8.530250E-06
3.540598E+03	2.632682E-04	8.705398E-06
3.550543E+03	2.693366E-04	8.884757E-06
3.560489E+03	2.756547E-04	9.071306E-06
3.570434E+03	2.821835E-04	9.263704E-06
3.580380E+03	2.888797E-04	9.460479E-06
3.590325E+03	2.958404E-04	9.664756E-06
3.600271E+03	3.030225E-04	9.875061E-06
3.610216E+03	3.103780E-04	1.008978E-05
3.620162E+03	3.180093E-04	1.031219E-05
3.630107E+03	3.258153E-04	1.053895E-05
3.640053E+03	3.339022E-04	1.077344E-05
3.649998E+03	3.422182E-04	1.101391E-05
3.659944E+03	3.507060E-04	1.125848E-05
3.669889E+03	3.594771E-04	1.151065E-05
3.679835E+03	3.684736E-04	1.176852E-05
3.689780E+03	3.776314E-04	1.202997E-05
3.699726E+03	3.870676E-04	1.229869E-05
3.709671E+03	3.967174E-04	1.257255E-05
3.719617E+03	4.065088E-04	1.284921E-05
3.729562E+03	4.165651E-04	1.313253E-05
3.739507E+03	4.268134E-04	1.342014E-05
3.749453E+03	4.371734E-04	1.370948E-05
3.759398E+03	4.477743E-04	1.400455E-05
3.769344E+03	4.585348E-04	1.430275E-05
3.779289E+03	4.693657E-04	1.460127E-05
3.789235E+03	4.804021E-04	1.490427E-05
3.799180E+03	4.915539E-04	1.520892E-05
3.809126E+03	5.027226E-04	1.551214E-05
3.819071E+03	5.140496E-04	1.581828E-05
3.829017E+03	5.254356E-04	1.612425E-05
3.838962E+03	5.367727E-04	1.642672E-05
3.848908E+03	5.482093E-04	1.673025E-05
3.858853E+03	5.596366E-04	1.703148E-05
3.868799E+03	5.709383E-04	1.732691E-05
3.878744E+03	5.822689E-04	1.762122E-05
3.888690E+03	5.935122E-04	1.791091E-05
3.898635E+03	6.045430E-04	1.819223E-05
3.908581E+03	6.155249E-04	1.847015E-05
3.918526E+03	6.263327E-04	1.874093E-05
3.928472E+03	6.368344E-04	1.900068E-05
3.938417E+03	6.472032E-04	1.925464E-05
3.948363E+03	6.573083E-04	1.949896E-05
3.958308E+03	6.670130E-04	1.972967E-05
3.968254E+03	6.765013E-04	1.995230E-05
3.978199E+03	6.856397E-04	2.016299E-05
3.988145E+03	6.942940E-04	2.035789E-05
3.998090E+03	7.026626E-04	2.054293E-05
4.008036E+03	7.105073E-04	2.071125E-05
4.017981E+03	7.180424E-04	2.086922E-05
4.027927E+03	7.251522E-04	2.101357E-05
4.037872E+03	7.317236E-04	2.114115E-05
4.047818E+03	7.379982E-04	2.125906E-05
4.057763E+03	7.437586E-04	2.136114E-05
4.067709E+03	7.492623E-04	2.145491E-05
4.077654E+03	7.542992E-04	2.153443E-05
4.087600E+03	7.591366E-04	2.160745E-05
4.097545E+03	7.636873E-04	2.167155E-05
4.107491E+03	7.678604E-04	2.172424E-05
4.117436E+03	7.719290E-04	2.177334E-05
4.127382E+03	7.756759E-04	2.181275E-05
4.137327E+03	7.793714E-04	2.185017E-05
4.147273E+03	7.827924E-04	2.187936E-05
4.157218E+03	7.862080E-04	2.190792E-05
4.167164E+03	7.893904E-04	2.192951E-05
4.177109E+03	7.926094E-04	2.195170E-05
4.187055E+03	7.956368E-04	2.196816E-05
4.197000E+03	7.987456E-04	2.198648E-05
4.206946E+03	8.017081E-04	2.200041E-05
4.216891E+03	8.046756E-04	2.201411E-05
4.226837E+03	8.078012E-04	2.203179E-05
4.236782E+03	8.108596E-04	2.204729E-05
4.246728E+03	8.141345E-04	2.206832E-05
4.256673E+03	8.174001E-04	2.208875E-05
4.266619E+03	8.209447E-04	2.211635E-05
4.276564E+03	8.245433E-04	2.214502E-05
4.286510E+03	8.283611E-04	2.217919E-05
4.296455E+03	8.325684E-04	2.222336E-05
4.306401E+03	8.369472E-04	2.227165E-05
4.316346E+03	8.416717E-04	2.232866E-05
4.326292E+03	8.469165E-04	2.239893E-05
4.336237E+03	8.524549E-04	2.247638E-05
4.346183E+03	8.584440E-04	2.256508E-05
4.356128E+03	8.649002E-04	2.266537E-05
4.366074E+03	8.719643E-04	2.278084E-05
4.376019E+03	8.793673E-04	2.290436E-05
4.385965E+03	8.872447E-04	2.303938E-05
4.395910E+03	8.955986E-04	2.318587E-05
4.405856E+03	9.045704E-04	2.334740E-05
4.415801E+03	9.138853E-04	2.351677E-05
4.425747E+03	9.236918E-04	2.369773E-05
4.435692E+03	9.340025E-04	2.389054E-05
4.445638E+03	9.448337E-04	2.409551E-05
4.455583E+03	9.563432E-04	2.431656E-05
4.465529E+03	9.682327E-04	2.454602E-05
4.475474E+03	9.806213E-04	2.478683E-05
4.485420E+03	9.934458E-04	2.503732E-05
4.495365E+03	1.006599E-03	2.529473E-05
4.505311E+03	1.019923E-03	2.555507E-05
4.515256E+03	1.033217E-03	2.581334E-05
4.525202E+03	1.046244E-03	2.606364E-05
4.535147E+03	1.058747E-03	2.629971E-05
4.545093E+03	1.070476E-03	2.651549E-05
4.555038E+03	1.081205E-03	2.670561E-05
4.564984E+03	1.090758E-03	2.686599E-05
4.574929E+03	1.099026E-03	2.699420E-05
4.584875E+03	1.105977E-03	2.708976E-05
4.594820E+03	1.111661E-03	2.715422E-05
4.604766E+03	1.116211E-03	2.719108E-05
4.614711E+03	1.119829E-03	2.720549E-05
4.624657E+03	1.122598E-03	2.719968E-05
4.634602E+03	1.125156E-03	2.718927E-05
4.644548E+03	1.127649E-03	2.717780E-05
4.654493E+03	1.130411E-03	2.717338E-05
4.664439E+03	1.133802E-03	2.718460E-05
4.674384E+03	1.138203E-03	2.722048E-05
4.684330E+03	1.143823E-03	2.728582E-05
4.694275E+03	1.151306E-03	2.739580E-05
4.704221E+03	1.160539E-03	2.754740E-05
4.714166E+03	1.171106E-03	2.773053E-05
4.724112E+03	1.182944E-03	2.794352E-05
4.734057E+03	1.195399E-03	2.817078E-05
4.744003E+03	1.207827E-03	2.839712E-05
4.753948E+03	1.220193E-03	2.862176E-05
4.763894E+03	1.231985E-03	2.883280E-05
4.773839E+03	1.242777E-03	2.902043E-05
4.783785E+03	1.252817E-03	2.919065E-05
4.793730E+03	1.261698E-03	2.933416E-05
4.803676E+03	1.269875E-03	2.946173E-05
4.813621E+03	1.277108E-03	2.956794E-05
4.823567E+03	1.283980E-03	2.966646E-05
4.833512E+03	1.290307E-03	2.975314E-05
4.843458E+03	1.296673E-03	2.984152E-05
4.853403E+03	1.302829E-03	2.992594E-05
4.863349E+03	1.309264E-03	3.001765E-05
4.873294E+03	1.315617E-03	3.010834E-05
4.883240E+03	1.322082E-03	3.020248E-05
4.893185E+03	1.328830E-03	3.030396E-05
4.903131E+03	1.335417E-03	3.040266E-05
4.913076E+03	1.342013E-03	3.050246E-05
4.923022E+03	1.348800E-03	3.060749E-05
4.932967E+03	1.355345E-03	3.070794E-05
4.942913E+03	1.361831E-03	3.080798E-05
4.952858E+03	1.368226E-03	3.090689E-05
4.962804E+03	1.374700E-03	3.100853E-05
4.972749E+03	1.380794E-03	3.110257E-05
4.982695E+03	1.386689E-03	3.119309E-05
4.992640E+03	1.392379E-03	3.128001E-05
5.002586E+03	1.397897E-03	3.136407E-05
5.012531E+03	1.403317E-03	3.144696E-05
5.022477E+03	1.408753E-03	3.153123E-05
5.032422E+03	1.414351E-03	3.162017E-05
5.042368E+03	1.420275E-03	3.171742E-05
5.052313E+03	1.426692E-03	3.182668E-05
5.062259E+03	1.433753E-03	3.195127E-05
5.072204E+03	1.441577E-03	3.209383E-05
5.082150E+03	1.450240E-03	3.225600E-05
5.092095E+03	1.459763E-03	3.243819E-05
5.102041E+03	1.470098E-03	3.263931E-05
5.111986E+03	1.481131E-03	3.285681E-05
5.121932E+03	1.492683E-03	3.308669E-05
5.131877E+03	1.504527E-03	3.332390E-05
5.141823E+03	1.516407E-03	3.356279E-05
5.151768E+03	1.527833E-03	3.379253E-05
5.161714E+03	1.539020E-03	3.401794E-05
5.171659E+03	1.549529E-03	3.422930E-05
5.181605E+03	1.559187E-03	3.442287E-05
5.191550E+03	1.567635E-03	3.459077E-05
5.201496E+03	1.575275E-03	3.474193E-05
5.211441E+03	1.581850E-03	3.487070E-05
5.221387E+03	1.587149E-03	3.497246E-05
5.231332E+03	1.591721E-03	3.505938E-05
5.241278E+03	1.595429E-03	3.512844E-05
5.251223E+03	1.598145E-03	3.517682E-05
5.261169E+03	1.600454E-03	3.521747E-05
5.271114E+03	1.601959E-03	3.524161E-05
5.281060E+03	1.603202E-03	3.526121E-05
5.291005E+03	1.603737E-03	3.526644E-05
5.300951E+03	1.604075E-03	3.526853E-05
5.310896E+03	1.603745E-03	3.525715E-05
5.320842E+03	1.603243E-03	3.524318E-05
5.330787E+03	1.602087E-03	3.521602E-05
5.340733E+03	1.600761E-03	3.518632E-05
5.350678E+03	1.598783E-03	3.514345E-05
5.360624E+03	1.596406E-03	3.509301E-05
5.370569E+03	1.593913E-03	3.504114E-05
5.380515E+03	1.590905E-03	3.497912E-05
5.390460E+03	1.587765E-03	3.491531E-05
5.400406E+03	1.584927E-03	3.485926E-05
5.410351E+03	1.582158E-03	3.480579E-05
5.420297E+03	1.579962E-03	3.476600E-05
5.430242E+03	1.578605E-03	3.474574E-05
5.440188E+03	1.578319E-03	3.475012E-05
5.450133E+03	1.579507E-03	3.478800E-05
5.460079E+03	1.581759E-03	3.485039E-05
5.470024E+03	1.585245E-03	3.494107E-05
5.479970E+03	1.589758E-03	3.505547E-05
5.489915E+03	1.594960E-03	3.518618E-05
5.499861E+03	1.600418E-03	3.532368E-05
5.509806E+03	1.605647E-03	3.545725E-05
5.519752E+03	1.610155E-03	3.557602E-05
5.529697E+03	1.613491E-03	3.567000E-05
5.539643E+03	1.615293E-03	3.573111E-05
5.549588E+03	1.615313E-03	3.575384E-05
5.559534E+03	1.613435E-03	3.573548E-05
5.569479E+03	1.609662E-03	3.567608E-05
5.579425E+03	1.604100E-03	3.557785E-05
5.589370E+03	1.596920E-03	3.544449E-05
5.599316E+03	1.588324E-03	3.528040E-05
5.609261E+03	1.578523E-03	3.509017E-05
5.619207E+03	1.567494E-03	3.487320E-05
5.629152E+03	1.555921E-03	3.464465E-05
5.639098E+03	1.543793E-03	3.440419E-05
5.649043E+03	1.531362E-03	3.415744E-05
5.658989E+03	1.518916E-03	3.391074E-05
5.668934E+03	1.506550E-03	3.366621E-05
5.678880E+03	1.495058E-03	3.344160E-05
5.688825E+03	1.484559E-03	3.323958E-05
5.698771E+03	1.475158E-03	3.306258E-05
5.708716E+03	1.467592E-03	3.292720E-05
5.718662E+03	1.461882E-03	3.283399E-05
5.728607E+03	1.457985E-03	3.278214E-05
5.738553E+03	1.456438E-03	3.278385E-05
5.748498E+03	1.457035E-03	3.283468E-05
5.758444E+03	1.459488E-03	3.292827E-05
5.768389E+03	1.464079E-03	3.307118E-05
5.778335E+03	1.470141E-03	3.324845E-05
5.788280E+03	1.477814E-03	3.346345E-05
5.798226E+03	1.486306E-03	3.369835E-05
5.808171E+03	1.495674E-03	3.395453E-05
5.818117E+03	1.505063E-03	3.421268E-05
5.828062E+03	1.514514E-03	3.447371E-05
5.838008E+03	1.523184E-03	3.471847E-05
5.847953E+03	1.530949E-03	3.494408E-05
5.857899E+03	1.537749E-03	3.514910E-05
5.867844E+03	1.542915E-03	3.531813E-05
5.877790E+03	1.546780E-03	3.545869E-05
5.887735E+03	1.548851E-03	3.555930E-05
5.897681E+03	1.549403E-03	3.562617E-05
5.907626E+03	1.548779E-03	3.566700E-05
5.917572E+03	1.546665E-03	3.567444E-05
5.927517E+03	1.543461E-03	3.565760E-05
5.937463E+03	1.539346E-03	3.562046E-05
5.947408E+03	1.534729E-03	3.557246E-05
5.957354E+03	1.529339E-03	3.550719E-05
5.967299E+03	1.523600E-03	3.543446E-05
5.977245E+03	1.517711E-03	3.535882E-05
5.987190E+03	1.511863E-03	3.528477E-05
5.997136E+03	1.506462E-03	3.522175E-05
6.007081E+03	1.501200E-03	3.516265E-05
6.017027E+03	1.496409E-03	3.511524E-05
6.026972E+03	1.492150E-03	3.508104E-05
6.036918E+03	1.488451E-03	3.506076E-05
6.046863E+03	1.485324E-03	3.505476E-05
6.056809E+03	1.482786E-03	3.506356E-05
6.066754E+03	1.480892E-03	3.508853E-05
6.076700E+03	1.479757E-03	3.513252E-05
6.086645E+03	1.479587E-03	3.520050E-05
6.096591E+03	1.480693E-03	3.530008E-05
6.106536E+03	1.483510E-03	3.544184E-05
6.116482E+03	1.488604E-03	3.563959E-05
6.126427E+03	1.496657E-03	3.591012E-05
6.136373E+03	1.508452E-03	3.627272E-05
6.146318E+03	1.524837E-03	3.674846E-05
6.156264E+03	1.546738E-03	3.736050E-05
6.166209E+03	1.575195E-03	3.813499E-05
6.176155E+03	1.611275E-03	3.909898E-05
6.186100E+03	1.655792E-03	4.027372E-05
6.196046E+03	1.708779E-03	4.166151E-05
6.205991E+03	1.770304E-03	4.326561E-05
6.215937E+03	1.838863E-03	4.505082E-05
6.225882E+03	1.912356E-03	4.696694E-05
6.235828E+03	1.987934E-03	4.894490E-05
6.245773E+03	2.062224E-03	5.090195E-05
6.255719E+03	2.131300E-03	5.274084E-05
6.265664E+03	2.192285E-03	5.438935E-05
6.275610E+03	2.241787E-03	5.576165E-05
6.285555E+03	2.277406E-03	5.679576E-05
6.295501E+03	2.297269E-03	5.744217E-05
6.305446E+03	2.301486E-03	5.770052E-05
6.315392E+03	2.290075E-03	5.756815E-05
6.325337E+03	2.263897E-03	5.706351E-05
6.335283E+03	2.225513E-03	5.624827E-05
6.345228E+03	2.176939E-03	5.517089E-05
6.355174E+03	2.120478E-03	5.388769E-05
6.365119E+03	2.059456E-03	5.248162E-05
6.375065E+03	1.996093E-03	5.100831E-05
6.385010E+03	1.932364E-03	4.951772E-05
6.394956E+03	1.870736E-03	4.807306E-05
6.404901E+03	1.812088E-03	4.669728E-05
6.414847E+03	1.757995E-03	4.543163E-05
6.424792E+03	1.708566E-03	4.427980E-05
6.434738E+03	1.664642E-03	4.326460E-05
6.444683E+03	1.625786E-03	4.237578E-05
6.454629E+03	1.592367E-03	4.162400E-05
6.464574E+03	1.563864E-03	4.099681E-05
6.474520E+03	1.539673E-03	4.047931E-05
6.484465E+03	1.519571E-03	4.006662E-05
6.494411E+03	1.503259E-03	3.975168E-05
6.504356E+03	1.489697E-03	3.950777E-05
6.514302E+03	1.478700E-03	3.933052E-05
6.524247E+03	1.469153E-03	3.919079E-05
6.534193E+03	1.460828E-03	3.908277E-05
6.544138E+03	1.452653E-03	3.897798E-05
6.554084E+03	1.444303E-03	3.886764E-05
6.564029E+03	1.435571E-03	3.874612E-05
6.573975E+03	1.425752E-03	3.859423E-05
6.583920E+03	1.415158E-03	3.842015E-05
6.593866E+03	1.403382E-03	3.821256E-05
6.603811E+03	1.390756E-03	3.798024E-05
6.613757E+03	1.377667E-03	3.773358E-05
6.623702E+03	1.363910E-03	3.746676E-05
6.633648E+03	1.349901E-03	3.719108E-05
6.643593E+03	1.335833E-03	3.691180E-05
6.653539E+03	1.322069E-03	3.663895E-05
6.663484E+03	1.308344E-03	3.636516E-05
6.673430E+03	1.294957E-03	3.609881E-05
6.683375E+03	1.282167E-03	3.584718E-05
6.693321E+03	1.269628E-03	3.560068E-05
6.703266E+03	1.257553E-03	3.536537E-05
6.713212E+03	1.245949E-03	3.514155E-05
6.723157E+03	1.234824E-03	3.492953E-05
6.733103E+03	1.224374E-03	3.473494E-05
6.743048E+03	1.214252E-03	3.454810E-05
6.752994E+03	1.204676E-03	3.437528E-05
6.762939E+03	1.195684E-03	3.421771E-05
6.772885E+03	1.187316E-03	3.407667E-05
6.782830E+03	1.179608E-03	3.395330E-05
6.792776E+03	1.172585E-03	3.384849E-05
6.802721E+03	1.166436E-03	3.376789E-05
6.812667E+03	1.160813E-03	3.370160E-05
6.822612E+03	1.155884E-03	3.365463E-05
6.832558E+03	1.151636E-03	3.362674E-05
6.842503E+03	1.148044E-03	3.361737E-05
6.852449E+03	1.145077E-03	3.362579E-05
6.862394E+03	1.142697E-03	3.365098E-05
6.872340E+03	1.140857E-03	3.369176E-05
6.882285E+03	1.139506E-03	3.374668E-05
6.892231E+03	1.138585E-03	3.381411E-05
6.902176E+03	1.138029E-03	3.389224E-05
6.912122E+03	1.137772E-03	3.397917E-05
6.922067E+03	1.137746E-03	3.407293E-05
6.932013E+03	1.137885E-03	3.417159E-05
6.941958E+03	1.138129E-03	3.427338E-05
6.951904E+03	1.138424E-03	3.437668E-05
6.961849E+03	1.138727E-03	3.448019E-05
6.971795E+03	1.139006E-03	3.458294E-05
6.981740E+03	1.139244E-03	3.468441E-05
6.991686E+03	1.139439E-03	3.478448E-05
7.001631E+03	1.139601E-03	3.488350E-05
7.011577E+03	1.139584E-03	3.497695E-05
7.021522E+03	1.139772E-03	3.507658E-05
7.031468E+03	1.140045E-03	3.517871E-05
7.041413E+03	1.140463E-03	3.528528E-05
7.051359E+03	1.141102E-03	3.539862E-05
7.061304E+03	1.142040E-03	3.552124E-05
7.071250E+03	1.143367E-03	3.565598E-05
7.081195E+03	1.145001E-03	3.580040E-05
7.091141E+03	1.147382E-03	3.596833E-05
7.101086E+03	1.150431E-03	3.615751E-05
7.111032E+03	1.154240E-03	3.637093E-05
7.120977E+03	1.158894E-03	3.661149E-05
7.130923E+03	1.164291E-03	3.687616E-05
7.140868E+03	1.170843E-03	3.717820E-05
7.150814E+03	1.178414E-03	3.751354E-05
7.160759E+03	1.186841E-03	3.787722E-05
7.170705E+03	1.196469E-03	3.828046E-05
7.180650E+03	1.207073E-03	3.871633E-05
7.190596E+03	1.218571E-03	3.918243E-05
7.200541E+03	1.230655E-03	3.966905E-05
7.210487E+03	1.243537E-03	4.018312E-05
7.220432E+03	1.256832E-03	4.071237E-05
7.230378E+03	1.270115E-03	4.124312E-05
7.240323E+03	1.283509E-03	4.177931E-05
7.250269E+03	1.296546E-03	4.230572E-05
7.260214E+03	1.308748E-03	4.280659E-05
7.270160E+03	1.320238E-03	4.328576E-05
7.280105E+03	1.330368E-03	4.372175E-05
7.290051E+03	1.339323E-03	4.412034E-05
7.299996E+03	1.346725E-03	4.446871E-05
7.309942E+03	1.352235E-03	4.475534E-05
7.319887E+03	1.356176E-03	4.499048E-05
7.329833E+03	1.358098E-03	4.515876E-05
7.339778E+03	1.358412E-03	4.527346E-05
7.349724E+03	1.356746E-03	4.532176E-05
7.359669E+03	1.353582E-03	4.531928E-05
7.369615E+03	1.348594E-03	4.525484E-05
7.379560E+03	1.342294E-03	4.514519E-05
7.389506E+03	1.334379E-03	4.497982E-05
7.399451E+03	1.325362E-03	4.477571E-05
7.409397E+03	1.314944E-03	4.452245E-05
7.419342E+03	1.303624E-03	4.423674E-05
7.429288E+03	1.291104E-03	4.390818E-05
7.439233E+03	1.277872E-03	4.355318E-05
7.449179E+03	1.263629E-03	4.316136E-05
7.459124E+03	1.248657E-03	4.274215E-05
7.469069E+03	1.233226E-03	4.230466E-05
7.479015E+03	1.217036E-03	4.183852E-05
7.488960E+03	1.200533E-03	4.135887E-05
7.498906E+03	1.183416E-03	4.085535E-05
7.508851E+03	1.165935E-03	4.033641E-05
7.518797E+03	1.148323E-03	3.981011E-05
7.528742E+03	1.130284E-03	3.926613E-05
7.538688E+03	1.112047E-03	3.871235E-05
7.548633E+03	1.093827E-03	3.815625E-05
7.558579E+03	1.075331E-03	3.758761E-05
7.568524E+03	1.056770E-03	3.701378E-05
7.578470E+03	1.038340E-03	3.644164E-05
7.588415E+03	1.019756E-03	3.586121E-05
7.598361E+03	1.001213E-03	3.527931E-05
7.608306E+03	9.827390E-04	3.469699E-05
7.618252E+03	9.645089E-04	3.412045E-05
7.628197E+03	9.462500E-04	3.354009E-05
7.638143E+03	9.281351E-04	3.296206E-05
7.648088E+03	9.101847E-04	3.238713E-05
7.658034E+03	8.924173E-04	3.181601E-05
7.667979E+03	8.749849E-04	3.125417E-05
7.677925E+03	8.576309E-04	3.069252E-05
7.687870E+03	8.405058E-04	3.013649E-05
7.697816E+03	8.236220E-04	2.958658E-05
7.707761E+03	8.069893E-04	2.904321E-05
7.717707E+03	7.906183E-04	2.850681E-05
