#wls	flux	fluxerr
1.591280E+03	9.542302E-05	3.694546E-06
1.631062E+03	9.527635E-05	3.679795E-06
1.670844E+03	9.513127E-05	3.664892E-06
1.710626E+03	9.500555E-05	3.650518E-06
1.750408E+03	9.488334E-05	3.636055E-06
1.790190E+03	9.476606E-05	3.621551E-06
1.829972E+03	9.465503E-05	3.607052E-06
1.869754E+03	9.455202E-05	3.592618E-06
1.909536E+03	9.447548E-05	3.578943E-06
1.949318E+03	9.439413E-05	3.564830E-06
1.989100E+03	9.434368E-05	3.551622E-06
2.028882E+03	9.432666E-05	3.539398E-06
2.068664E+03	9.431288E-05	3.527011E-06
2.108446E+03	9.433878E-05	3.515814E-06
2.148228E+03	9.439151E-05	3.505309E-06
2.188010E+03	9.447522E-05	3.495632E-06
2.227792E+03	9.461109E-05	3.487548E-06
2.267574E+03	9.478789E-05	3.480614E-06
2.307356E+03	9.501133E-05	3.475017E-06
2.347138E+03	9.528799E-05	3.470968E-06
2.386920E+03	9.564169E-05	3.469301E-06
2.426702E+03	9.604756E-05	3.469072E-06
2.466484E+03	9.656464E-05	3.472373E-06
2.506266E+03	9.715328E-05	3.477721E-06
2.546048E+03	9.785852E-05	3.486674E-06
2.585830E+03	9.865979E-05	3.498435E-06
2.625612E+03	9.962265E-05	3.515252E-06
2.665394E+03	1.007129E-04	3.535829E-06
2.705176E+03	1.019838E-04	3.561939E-06
2.744958E+03	1.034396E-04	3.593613E-06
2.784740E+03	1.051047E-04	3.631578E-06
2.824522E+03	1.070254E-04	3.677274E-06
2.864304E+03	1.091975E-04	3.730392E-06
2.904086E+03	1.116947E-04	3.793253E-06
2.943868E+03	1.145606E-04	3.867107E-06
2.983650E+03	1.178067E-04	3.952075E-06
2.993595E+03	1.187021E-04	3.975839E-06
3.003541E+03	1.196071E-04	3.999801E-06
3.013486E+03	1.205425E-04	4.024652E-06
3.023432E+03	1.215297E-04	4.051101E-06
3.033377E+03	1.225293E-04	4.077826E-06
3.043323E+03	1.235834E-04	4.106221E-06
3.053268E+03	1.246518E-04	4.134949E-06
3.063214E+03	1.257776E-04	4.165426E-06
3.073159E+03	1.269199E-04	4.196298E-06
3.083105E+03	1.281225E-04	4.229001E-06
3.093050E+03	1.293657E-04	4.262879E-06
3.102996E+03	1.306291E-04	4.297254E-06
3.112941E+03	1.319579E-04	4.333601E-06
3.122887E+03	1.333097E-04	4.370518E-06
3.132832E+03	1.347304E-04	4.409509E-06
3.142778E+03	1.361998E-04	4.449896E-06
3.152723E+03	1.376968E-04	4.490983E-06
3.162669E+03	1.392688E-04	4.534309E-06
3.172614E+03	1.408718E-04	4.578426E-06
3.182560E+03	1.425543E-04	4.624906E-06
3.192505E+03	1.442954E-04	4.673056E-06
3.202451E+03	1.460973E-04	4.722931E-06
3.212396E+03	1.479378E-04	4.773809E-06
3.222342E+03	1.498682E-04	4.827328E-06
3.232287E+03	1.518666E-04	4.882773E-06
3.242233E+03	1.539102E-04	4.939400E-06
3.252178E+03	1.560526E-04	4.998907E-06
3.262124E+03	1.582712E-04	5.060564E-06
3.272069E+03	1.605693E-04	5.124451E-06
3.282015E+03	1.629497E-04	5.190650E-06
3.291960E+03	1.653887E-04	5.258383E-06
3.301906E+03	1.679435E-04	5.329463E-06
3.311851E+03	1.705910E-04	5.403124E-06
3.321797E+03	1.733347E-04	5.479468E-06
3.331742E+03	1.761784E-04	5.558589E-06
3.341688E+03	1.791261E-04	5.640597E-06
3.351633E+03	1.821518E-04	5.724652E-06
3.361579E+03	1.853193E-04	5.812739E-06
3.371524E+03	1.886035E-04	5.904042E-06
3.381470E+03	1.920088E-04	5.998676E-06
3.391415E+03	1.955400E-04	6.096769E-06
3.401361E+03	1.992018E-04	6.198439E-06
3.411306E+03	2.029994E-04	6.303819E-06
3.421252E+03	2.069377E-04	6.413037E-06
3.431197E+03	2.110221E-04	6.526228E-06
3.441143E+03	2.152579E-04	6.643524E-06
3.451088E+03	2.196506E-04	6.765066E-06
3.461034E+03	2.241692E-04	6.889866E-06
3.470979E+03	2.288918E-04	7.020295E-06
3.480925E+03	2.337883E-04	7.155388E-06
3.490870E+03	2.388644E-04	7.295285E-06
3.500816E+03	2.441259E-04	7.440121E-06
3.510761E+03	2.495785E-04	7.590036E-06
3.520707E+03	2.552281E-04	7.745163E-06
3.530652E+03	2.610802E-04	7.905629E-06
3.540598E+03	2.671402E-04	8.071557E-06
3.550543E+03	2.734136E-04	8.243063E-06
3.560489E+03	2.799054E-04	8.420259E-06
3.570434E+03	2.866205E-04	8.603238E-06
3.580380E+03	2.936110E-04	8.793517E-06
3.590325E+03	3.007869E-04	8.988349E-06
3.600271E+03	3.081986E-04	9.189193E-06
3.610216E+03	3.158492E-04	9.396092E-06
3.620162E+03	3.237414E-04	9.609076E-06
3.630107E+03	3.318774E-04	9.828155E-06
3.640053E+03	3.402585E-04	1.005332E-05
3.649998E+03	3.488856E-04	1.028453E-05
3.659944E+03	3.577584E-04	1.052173E-05
3.669889E+03	3.668760E-04	1.076485E-05
3.679835E+03	3.762367E-04	1.101378E-05
3.689780E+03	3.858376E-04	1.126838E-05
3.699726E+03	3.956749E-04	1.152848E-05
3.709671E+03	4.057437E-04	1.179390E-05
3.719617E+03	4.160379E-04	1.206439E-05
3.729562E+03	4.265502E-04	1.233972E-05
3.739507E+03	4.373424E-04	1.262159E-05
3.749453E+03	4.482661E-04	1.290569E-05
3.759398E+03	4.593785E-04	1.319363E-05
3.769344E+03	4.706671E-04	1.348500E-05
3.779289E+03	4.821182E-04	1.377937E-05
3.789235E+03	4.937163E-04	1.407627E-05
3.799180E+03	5.054445E-04	1.437518E-05
3.809126E+03	5.172848E-04	1.467556E-05
3.819071E+03	5.292175E-04	1.497682E-05
3.829017E+03	5.412213E-04	1.527835E-05
3.838962E+03	5.532739E-04	1.557949E-05
3.848908E+03	5.653515E-04	1.587957E-05
3.858853E+03	5.775202E-04	1.618044E-05
3.868799E+03	5.895725E-04	1.647627E-05
3.878744E+03	6.015700E-04	1.676880E-05
3.888690E+03	6.134850E-04	1.705728E-05
3.898635E+03	6.252865E-04	1.734087E-05
3.908581E+03	6.369452E-04	1.761877E-05
3.918526E+03	6.484297E-04	1.789016E-05
3.928472E+03	6.597074E-04	1.815416E-05
3.938417E+03	6.707470E-04	1.840998E-05
3.948363E+03	6.815158E-04	1.865677E-05
3.958308E+03	6.919811E-04	1.889368E-05
3.968254E+03	7.021102E-04	1.911992E-05
3.978199E+03	7.118732E-04	1.933472E-05
3.988145E+03	7.212387E-04	1.953733E-05
3.998090E+03	7.301800E-04	1.972712E-05
4.008036E+03	7.386748E-04	1.990357E-05
4.017981E+03	7.467108E-04	2.006645E-05
4.027927E+03	7.542808E-04	2.021569E-05
4.037872E+03	7.613868E-04	2.035143E-05
4.047818E+03	7.680377E-04	2.047402E-05
4.057763E+03	7.742512E-04	2.058402E-05
4.067709E+03	7.800498E-04	2.068215E-05
4.077654E+03	7.854633E-04	2.076928E-05
4.087600E+03	7.905271E-04	2.084643E-05
4.097545E+03	7.952765E-04	2.091462E-05
4.107491E+03	7.997460E-04	2.097481E-05
4.117436E+03	8.039687E-04	2.102795E-05
4.127382E+03	8.079736E-04	2.107486E-05
4.137327E+03	8.117859E-04	2.111623E-05
4.147273E+03	8.154273E-04	2.115268E-05
4.157218E+03	8.189198E-04	2.118483E-05
4.167164E+03	8.222838E-04	2.121324E-05
4.177109E+03	8.254135E-04	2.123522E-05
4.187055E+03	8.285888E-04	2.125801E-05
4.197000E+03	8.317059E-04	2.127896E-05
4.206946E+03	8.347921E-04	2.129878E-05
4.216891E+03	8.378744E-04	2.131818E-05
4.226837E+03	8.409829E-04	2.133792E-05
4.236782E+03	8.441474E-04	2.135877E-05
4.246728E+03	8.472653E-04	2.137814E-05
4.256673E+03	8.506272E-04	2.140335E-05
4.266619E+03	8.541305E-04	2.143179E-05
4.276564E+03	8.578028E-04	2.146412E-05
4.286510E+03	8.615408E-04	2.149776E-05
4.296455E+03	8.656472E-04	2.154022E-05
4.306401E+03	8.700336E-04	2.158926E-05
4.316346E+03	8.747569E-04	2.164622E-05
4.326292E+03	8.797443E-04	2.170926E-05
4.336237E+03	8.853269E-04	2.178649E-05
4.346183E+03	8.914224E-04	2.187577E-05
4.356128E+03	8.979332E-04	2.197462E-05
4.366074E+03	9.051593E-04	2.209031E-05
4.376019E+03	9.129680E-04	2.221947E-05
4.385965E+03	9.212085E-04	2.235833E-05
4.395910E+03	9.301474E-04	2.251329E-05
4.405856E+03	9.394802E-04	2.267688E-05
4.415801E+03	9.494763E-04	2.285552E-05
4.425747E+03	9.598335E-04	2.304184E-05
4.435692E+03	9.708383E-04	2.324266E-05
4.445638E+03	9.821946E-04	2.345081E-05
4.455583E+03	9.942044E-04	2.367342E-05
4.465529E+03	1.006563E-03	2.390316E-05
4.475474E+03	1.019560E-03	2.414686E-05
4.485420E+03	1.032833E-03	2.439583E-05
4.495365E+03	1.046595E-03	2.465508E-05
4.505311E+03	1.060372E-03	2.491341E-05
4.515256E+03	1.074286E-03	2.517372E-05
4.525202E+03	1.087767E-03	2.542264E-05
4.535147E+03	1.100707E-03	2.565783E-05
4.545093E+03	1.113021E-03	2.587737E-05
4.555038E+03	1.124146E-03	2.606842E-05
4.564984E+03	1.134082E-03	2.623115E-05
4.574929E+03	1.142899E-03	2.636747E-05
4.584875E+03	1.150234E-03	2.646921E-05
4.594820E+03	1.156328E-03	2.654221E-05
4.604766E+03	1.161342E-03	2.659041E-05
4.614711E+03	1.165705E-03	2.662376E-05
4.624657E+03	1.169375E-03	2.664149E-05
4.634602E+03	1.172867E-03	2.665543E-05
4.644548E+03	1.176516E-03	2.667320E-05
4.654493E+03	1.180638E-03	2.670194E-05
4.664439E+03	1.185518E-03	2.674805E-05
4.674384E+03	1.191394E-03	2.681678E-05
4.684330E+03	1.198440E-03	2.691188E-05
4.694275E+03	1.206753E-03	2.703537E-05
4.704221E+03	1.216341E-03	2.718728E-05
4.714166E+03	1.227272E-03	2.736896E-05
4.724112E+03	1.238733E-03	2.756211E-05
4.734057E+03	1.250910E-03	2.777089E-05
4.744003E+03	1.263191E-03	2.798160E-05
4.753948E+03	1.275150E-03	2.818489E-05
4.763894E+03	1.286424E-03	2.837282E-05
4.773839E+03	1.296735E-03	2.853945E-05
4.783785E+03	1.305929E-03	2.868153E-05
4.793730E+03	1.313994E-03	2.879899E-05
4.803676E+03	1.321042E-03	2.889451E-05
4.813621E+03	1.327087E-03	2.896851E-05
4.823567E+03	1.332809E-03	2.903601E-05
4.833512E+03	1.338313E-03	2.909935E-05
4.843458E+03	1.343859E-03	2.916421E-05
4.853403E+03	1.349411E-03	2.922984E-05
4.863349E+03	1.355449E-03	2.930666E-05
4.873294E+03	1.361762E-03	2.939006E-05
4.883240E+03	1.368068E-03	2.947389E-05
4.893185E+03	1.374663E-03	2.956458E-05
4.903131E+03	1.381051E-03	2.965145E-05
4.913076E+03	1.387625E-03	2.974292E-05
4.923022E+03	1.394199E-03	2.983501E-05
4.932967E+03	1.400597E-03	2.992398E-05
4.942913E+03	1.407258E-03	3.001920E-05
4.952858E+03	1.413752E-03	3.011150E-05
4.962804E+03	1.420246E-03	3.020445E-05
4.972749E+03	1.426871E-03	3.030083E-05
4.982695E+03	1.433105E-03	3.038960E-05
4.992640E+03	1.439316E-03	3.047856E-05
5.002586E+03	1.445074E-03	3.055863E-05
5.012531E+03	1.450659E-03	3.063576E-05
5.022477E+03	1.456411E-03	3.071717E-05
5.032422E+03	1.462074E-03	3.079742E-05
5.042368E+03	1.468072E-03	3.088544E-05
5.052313E+03	1.474607E-03	3.098549E-05
5.062259E+03	1.482077E-03	3.110587E-05
5.072204E+03	1.490181E-03	3.124021E-05
5.082150E+03	1.499234E-03	3.139505E-05
5.092095E+03	1.509273E-03	3.157111E-05
5.102041E+03	1.520264E-03	3.176767E-05
5.111986E+03	1.532090E-03	3.198219E-05
5.121932E+03	1.544531E-03	3.221008E-05
5.131877E+03	1.557301E-03	3.244533E-05
5.141823E+03	1.570092E-03	3.268154E-05
5.151768E+03	1.582611E-03	3.291263E-05
5.161714E+03	1.594595E-03	3.313319E-05
5.171659E+03	1.605826E-03	3.333871E-05
5.181605E+03	1.616141E-03	3.352590E-05
5.191550E+03	1.625430E-03	3.369250E-05
5.201496E+03	1.633627E-03	3.383723E-05
5.211441E+03	1.640716E-03	3.395980E-05
5.221387E+03	1.646727E-03	3.406089E-05
5.231332E+03	1.651508E-03	3.413745E-05
5.241278E+03	1.655704E-03	3.420280E-05
5.251223E+03	1.659245E-03	3.425557E-05
5.261169E+03	1.662271E-03	3.429862E-05
5.271114E+03	1.664597E-03	3.432822E-05
5.281060E+03	1.666725E-03	3.435470E-05
5.291005E+03	1.668389E-03	3.437259E-05
5.300951E+03	1.669320E-03	3.437638E-05
5.310896E+03	1.669996E-03	3.437591E-05
5.320842E+03	1.670160E-03	3.436590E-05
5.330787E+03	1.669562E-03	3.434123E-05
5.340733E+03	1.668695E-03	3.431205E-05
5.350678E+03	1.667052E-03	3.426792E-05
5.360624E+03	1.665105E-03	3.421859E-05
5.370569E+03	1.662361E-03	3.415390E-05
5.380515E+03	1.659374E-03	3.408524E-05
5.390460E+03	1.655810E-03	3.400573E-05
5.400406E+03	1.652153E-03	3.392532E-05
5.410351E+03	1.648946E-03	3.385514E-05
5.420297E+03	1.646039E-03	3.379207E-05
5.430242E+03	1.644259E-03	3.375310E-05
5.440188E+03	1.643418E-03	3.373434E-05
5.450133E+03	1.643970E-03	3.374512E-05
5.460079E+03	1.646013E-03	3.378742E-05
5.470024E+03	1.649732E-03	3.386505E-05
5.479970E+03	1.654397E-03	3.396301E-05
5.489915E+03	1.659852E-03	3.407813E-05
5.499861E+03	1.665590E-03	3.419998E-05
5.509806E+03	1.671029E-03	3.431665E-05
5.519752E+03	1.675582E-03	3.441605E-05
5.529697E+03	1.678981E-03	3.449268E-05
5.539643E+03	1.680348E-03	3.452851E-05
5.549588E+03	1.679707E-03	3.452397E-05
5.559534E+03	1.676996E-03	3.447775E-05
5.569479E+03	1.672315E-03	3.439189E-05
5.579425E+03	1.665880E-03	3.427079E-05
5.589370E+03	1.657944E-03	3.411958E-05
5.599316E+03	1.648743E-03	3.394311E-05
5.609261E+03	1.638491E-03	3.374570E-05
5.619207E+03	1.627367E-03	3.353102E-05
5.629152E+03	1.615285E-03	3.329726E-05
5.639098E+03	1.602884E-03	3.305753E-05
5.649043E+03	1.590137E-03	3.281126E-05
5.658989E+03	1.577337E-03	3.256450E-05
5.668934E+03	1.564839E-03	3.232449E-05
5.678880E+03	1.553011E-03	3.209891E-05
5.688825E+03	1.541990E-03	3.189053E-05
5.698771E+03	1.532570E-03	3.171584E-05
5.708716E+03	1.524818E-03	3.157626E-05
5.718662E+03	1.518753E-03	3.147226E-05
5.728607E+03	1.515005E-03	3.141696E-05
5.738553E+03	1.513461E-03	3.140809E-05
5.748498E+03	1.513925E-03	3.144174E-05
5.758444E+03	1.516793E-03	3.152620E-05
5.768389E+03	1.521706E-03	3.165411E-05
5.778335E+03	1.528214E-03	3.181627E-05
5.788280E+03	1.536466E-03	3.201588E-05
5.798226E+03	1.545650E-03	3.223608E-05
5.808171E+03	1.555806E-03	3.247781E-05
5.818117E+03	1.566035E-03	3.272236E-05
5.828062E+03	1.576346E-03	3.296994E-05
5.838008E+03	1.585843E-03	3.320182E-05
5.847953E+03	1.594593E-03	3.341939E-05
5.857899E+03	1.601794E-03	3.360579E-05
5.867844E+03	1.607433E-03	3.376068E-05
5.877790E+03	1.611601E-03	3.388587E-05
5.887735E+03	1.613792E-03	3.397063E-05
5.897681E+03	1.614571E-03	3.402672E-05
5.907626E+03	1.613630E-03	3.404758E-05
5.917572E+03	1.611407E-03	3.404232E-05
5.927517E+03	1.608093E-03	3.401487E-05
5.937463E+03	1.604105E-03	3.397402E-05
5.947408E+03	1.599152E-03	3.391352E-05
5.957354E+03	1.593656E-03	3.384226E-05
5.967299E+03	1.587817E-03	3.376443E-05
5.977245E+03	1.582080E-03	3.368951E-05
5.987190E+03	1.576207E-03	3.361242E-05
5.997136E+03	1.570648E-03	3.354272E-05
6.007081E+03	1.565564E-03	3.348395E-05
6.017027E+03	1.561045E-03	3.343802E-05
6.026972E+03	1.557112E-03	3.340547E-05
6.036918E+03	1.553738E-03	3.338577E-05
6.046863E+03	1.550867E-03	3.337780E-05
6.056809E+03	1.548676E-03	3.338539E-05
6.066754E+03	1.546701E-03	3.339866E-05
6.076700E+03	1.545249E-03	3.342422E-05
6.086645E+03	1.544485E-03	3.346574E-05
6.096591E+03	1.544683E-03	3.352927E-05
6.106536E+03	1.546248E-03	3.362371E-05
6.116482E+03	1.549741E-03	3.376148E-05
6.126427E+03	1.555716E-03	3.395490E-05
6.136373E+03	1.565670E-03	3.423707E-05
6.146318E+03	1.580638E-03	3.463115E-05
6.156264E+03	1.602004E-03	3.516827E-05
6.166209E+03	1.631203E-03	3.588082E-05
6.176155E+03	1.669576E-03	3.679951E-05
6.186100E+03	1.718087E-03	3.794696E-05
6.196046E+03	1.777014E-03	3.933081E-05
6.205991E+03	1.845537E-03	4.093448E-05
6.215937E+03	1.922658E-03	4.273723E-05
6.225882E+03	2.005431E-03	4.467484E-05
6.235828E+03	2.090195E-03	4.666660E-05
6.245773E+03	2.172518E-03	4.861374E-05
6.255719E+03	2.248974E-03	5.043924E-05
6.265664E+03	2.315544E-03	5.205198E-05
6.275610E+03	2.369094E-03	5.337995E-05
6.285555E+03	2.406973E-03	5.436126E-05
6.295501E+03	2.428513E-03	5.497835E-05
6.305446E+03	2.432926E-03	5.521073E-05
6.315392E+03	2.420331E-03	5.505826E-05
6.325337E+03	2.392729E-03	5.456371E-05
6.335283E+03	2.351719E-03	5.376104E-05
6.345228E+03	2.299431E-03	5.269668E-05
6.355174E+03	2.239319E-03	5.144797E-05
6.365119E+03	2.173581E-03	5.006398E-05
6.375065E+03	2.105647E-03	4.862282E-05
6.385010E+03	2.037391E-03	4.716737E-05
6.394956E+03	1.971468E-03	4.575903E-05
6.404901E+03	1.908794E-03	4.441941E-05
6.414847E+03	1.850966E-03	4.318623E-05
6.424792E+03	1.798048E-03	4.206177E-05
6.434738E+03	1.750851E-03	4.106584E-05
6.444683E+03	1.708869E-03	4.018751E-05
6.454629E+03	1.672450E-03	3.943588E-05
6.464574E+03	1.640794E-03	3.879302E-05
6.474520E+03	1.614001E-03	3.826213E-05
6.484465E+03	1.591141E-03	3.782200E-05
6.494411E+03	1.572196E-03	3.747288E-05
6.504356E+03	1.556157E-03	3.719137E-05
6.514302E+03	1.542648E-03	3.696899E-05
6.524247E+03	1.531210E-03	3.679517E-05
6.534193E+03	1.520680E-03	3.664228E-05
6.544138E+03	1.510611E-03	3.649965E-05
6.554084E+03	1.500645E-03	3.635869E-05
6.564029E+03	1.489892E-03	3.619773E-05
6.573975E+03	1.478307E-03	3.601552E-05
6.583920E+03	1.465826E-03	3.581031E-05
6.593866E+03	1.452752E-03	3.558930E-05
6.603811E+03	1.438818E-03	3.534576E-05
6.613757E+03	1.424426E-03	3.508943E-05
6.623702E+03	1.409763E-03	3.482479E-05
6.633648E+03	1.395210E-03	3.456120E-05
6.643593E+03	1.380505E-03	3.429215E-05
6.653539E+03	1.365983E-03	3.402592E-05
6.663484E+03	1.351751E-03	3.376521E-05
6.673430E+03	1.337892E-03	3.351213E-05
6.683375E+03	1.324661E-03	3.327316E-05
6.693321E+03	1.311704E-03	3.303945E-05
6.703266E+03	1.299232E-03	3.281643E-05
6.713212E+03	1.287252E-03	3.260430E-05
6.723157E+03	1.275770E-03	3.240333E-05
6.733103E+03	1.264802E-03	3.221403E-05
6.743048E+03	1.254379E-03	3.203724E-05
6.752994E+03	1.244538E-03	3.187405E-05
6.762939E+03	1.235324E-03	3.172572E-05
6.772885E+03	1.226782E-03	3.159349E-05
6.782830E+03	1.219124E-03	3.148301E-05
6.792776E+03	1.212007E-03	3.138555E-05
6.802721E+03	1.205613E-03	3.130596E-05
6.812667E+03	1.199939E-03	3.124427E-05
6.822612E+03	1.194974E-03	3.120037E-05
6.832558E+03	1.190704E-03	3.117402E-05
6.842503E+03	1.186932E-03	3.116022E-05
6.852449E+03	1.183985E-03	3.116763E-05
6.862394E+03	1.181653E-03	3.119088E-05
6.872340E+03	1.179894E-03	3.122899E-05
6.882285E+03	1.178654E-03	3.128067E-05
6.892231E+03	1.177875E-03	3.134445E-05
6.902176E+03	1.177489E-03	3.141861E-05
6.912122E+03	1.177424E-03	3.150130E-05
6.922067E+03	1.177606E-03	3.159058E-05
6.932013E+03	1.177958E-03	3.168448E-05
6.941958E+03	1.178412E-03	3.178113E-05
6.951904E+03	1.178729E-03	3.187414E-05
6.961849E+03	1.179211E-03	3.197162E-05
6.971795E+03	1.179651E-03	3.206797E-05
6.981740E+03	1.180033E-03	3.216276E-05
6.991686E+03	1.180360E-03	3.225603E-05
7.001631E+03	1.180477E-03	3.234355E-05
7.011577E+03	1.180772E-03	3.243591E-05
7.021522E+03	1.181118E-03	3.252961E-05
7.031468E+03	1.181573E-03	3.262631E-05
7.041413E+03	1.182029E-03	3.272301E-05
7.051359E+03	1.182915E-03	3.283160E-05
7.061304E+03	1.184137E-03	3.294960E-05
7.071250E+03	1.185790E-03	3.307966E-05
7.081195E+03	1.187791E-03	3.321958E-05
7.091141E+03	1.190589E-03	3.338201E-05
7.101086E+03	1.194103E-03	3.356483E-05
7.111032E+03	1.198248E-03	3.376581E-05
7.120977E+03	1.203467E-03	3.399759E-05
7.130923E+03	1.209479E-03	3.425240E-05
7.140868E+03	1.216702E-03	3.454229E-05
7.150814E+03	1.224995E-03	3.486349E-05
7.160759E+03	1.234184E-03	3.521127E-05
7.170705E+03	1.244617E-03	3.559574E-05
7.180650E+03	1.255873E-03	3.600509E-05
7.190596E+03	1.268236E-03	3.644764E-05
7.200541E+03	1.281393E-03	3.691459E-05
7.210487E+03	1.294979E-03	3.739557E-05
7.220432E+03	1.309164E-03	3.789558E-05
7.230378E+03	1.323308E-03	3.839615E-05
7.240323E+03	1.337516E-03	3.890030E-05
7.250269E+03	1.351080E-03	3.938742E-05
7.260214E+03	1.364092E-03	3.986008E-05
7.270160E+03	1.375856E-03	4.029769E-05
7.280105E+03	1.386513E-03	4.070421E-05
7.290051E+03	1.395426E-03	4.106061E-05
7.299996E+03	1.402623E-03	4.136734E-05
7.309942E+03	1.408184E-03	4.162647E-05
7.319887E+03	1.411612E-03	4.182288E-05
7.329833E+03	1.413301E-03	4.196783E-05
7.339778E+03	1.412842E-03	4.204887E-05
7.349724E+03	1.410506E-03	4.207356E-05
7.359669E+03	1.406594E-03	4.205054E-05
7.369615E+03	1.400795E-03	4.197022E-05
7.379560E+03	1.393651E-03	4.184846E-05
7.389506E+03	1.384860E-03	4.167592E-05
7.399451E+03	1.374744E-03	4.146196E-05
7.409397E+03	1.363616E-03	4.121585E-05
7.419342E+03	1.351173E-03	4.092813E-05
7.429288E+03	1.337724E-03	4.060797E-05
7.439233E+03	1.323368E-03	4.025821E-05
7.449179E+03	1.308396E-03	3.988752E-05
7.459124E+03	1.292505E-03	3.948656E-05
7.469069E+03	1.275980E-03	3.906382E-05
7.479015E+03	1.258899E-03	3.862169E-05
7.488960E+03	1.241525E-03	3.816802E-05
7.498906E+03	1.223550E-03	3.769342E-05
7.508851E+03	1.205230E-03	3.720557E-05
7.518797E+03	1.186624E-03	3.670629E-05
7.528742E+03	1.167787E-03	3.619723E-05
7.538688E+03	1.148770E-03	3.567997E-05
7.548633E+03	1.129791E-03	3.516124E-05
7.558579E+03	1.110552E-03	3.463176E-05
7.568524E+03	1.091265E-03	3.409812E-05
7.578470E+03	1.071966E-03	3.356150E-05
7.588415E+03	1.052692E-03	3.302300E-05
7.598361E+03	1.033472E-03	3.248362E-05
7.608306E+03	1.014337E-03	3.194427E-05
7.618252E+03	9.953117E-04	3.140584E-05
7.628197E+03	9.764210E-04	3.086911E-05
7.638143E+03	9.576883E-04	3.033486E-05
7.648088E+03	9.391321E-04	2.980372E-05
7.658034E+03	9.207716E-04	2.927635E-05
7.667979E+03	9.026228E-04	2.875330E-05
7.677925E+03	8.847010E-04	2.823512E-05
7.687870E+03	8.670202E-04	2.772230E-05
7.697816E+03	8.495911E-04	2.721524E-05
7.707761E+03	8.324247E-04	2.671435E-05
7.717707E+03	8.155304E-04	2.621998E-05
