#wls	flux	fluxerr
1.570321E+03	1.063776E-04	2.280107E-06
1.609579E+03	1.075529E-04	2.299725E-06
1.648837E+03	1.084616E-04	2.313394E-06
1.688095E+03	1.091253E-04	2.321609E-06
1.727353E+03	1.094798E-04	2.323043E-06
1.766611E+03	1.094759E-04	2.316701E-06
1.805869E+03	1.090089E-04	2.300430E-06
1.845127E+03	1.080189E-04	2.273054E-06
1.884385E+03	1.063760E-04	2.231943E-06
1.923643E+03	1.040488E-04	2.176561E-06
1.962901E+03	1.011005E-04	2.108367E-06
2.002159E+03	9.780415E-05	2.033166E-06
2.041417E+03	9.468621E-05	1.961948E-06
2.080675E+03	9.250105E-05	1.910268E-06
2.119933E+03	9.184722E-05	1.890260E-06
2.159191E+03	9.292183E-05	1.905640E-06
2.198449E+03	9.543460E-05	1.950093E-06
2.237707E+03	9.881716E-05	2.011712E-06
2.276965E+03	1.024983E-04	2.078697E-06
2.316223E+03	1.060616E-04	2.142540E-06
2.355481E+03	1.092857E-04	2.198799E-06
2.394739E+03	1.120485E-04	2.245085E-06
2.433997E+03	1.143250E-04	2.280997E-06
2.473255E+03	1.161308E-04	2.306957E-06
2.512513E+03	1.175178E-04	2.324097E-06
2.551772E+03	1.185050E-04	2.332889E-06
2.591030E+03	1.191290E-04	2.334157E-06
2.630288E+03	1.194430E-04	2.329026E-06
2.669546E+03	1.194598E-04	2.317833E-06
2.708804E+03	1.192280E-04	2.301596E-06
2.748062E+03	1.187586E-04	2.280598E-06
2.787320E+03	1.180996E-04	2.255832E-06
2.826578E+03	1.172647E-04	2.227614E-06
2.865836E+03	1.163061E-04	2.196990E-06
2.905094E+03	1.152443E-04	2.164390E-06
2.944352E+03	1.141395E-04	2.130974E-06
2.954166E+03	1.138567E-04	2.122498E-06
2.963981E+03	1.135897E-04	2.114315E-06
2.973795E+03	1.133058E-04	2.105820E-06
2.983610E+03	1.130405E-04	2.097668E-06
2.993424E+03	1.127658E-04	2.089344E-06
3.003239E+03	1.125201E-04	2.081557E-06
3.013053E+03	1.122862E-04	2.073986E-06
3.022868E+03	1.120635E-04	2.066622E-06
3.032682E+03	1.118519E-04	2.059458E-06
3.042497E+03	1.116512E-04	2.052493E-06
3.052311E+03	1.114615E-04	2.045724E-06
3.062126E+03	1.112829E-04	2.039156E-06
3.071940E+03	1.111318E-04	2.033087E-06
3.081755E+03	1.109766E-04	2.026938E-06
3.091569E+03	1.108500E-04	2.021302E-06
3.101384E+03	1.107208E-04	2.015613E-06
3.111198E+03	1.106215E-04	2.010461E-06
3.121013E+03	1.105374E-04	2.005574E-06
3.130827E+03	1.104695E-04	2.000969E-06
3.140642E+03	1.104188E-04	1.996667E-06
3.150456E+03	1.103868E-04	1.992690E-06
3.160271E+03	1.103748E-04	1.989059E-06
3.170085E+03	1.103998E-04	1.986080E-06
3.179900E+03	1.104323E-04	1.983219E-06
3.189714E+03	1.105049E-04	1.981060E-06
3.199529E+03	1.105884E-04	1.979076E-06
3.209343E+03	1.107156E-04	1.977853E-06
3.219158E+03	1.108730E-04	1.977144E-06
3.228972E+03	1.110625E-04	1.976982E-06
3.238787E+03	1.112862E-04	1.977401E-06
3.248601E+03	1.115464E-04	1.978437E-06
3.258416E+03	1.118454E-04	1.980128E-06
3.268230E+03	1.121854E-04	1.982510E-06
3.278045E+03	1.125846E-04	1.985897E-06
3.287859E+03	1.130145E-04	1.989784E-06
3.297674E+03	1.135088E-04	1.994759E-06
3.307488E+03	1.140394E-04	2.000322E-06
3.317303E+03	1.146401E-04	2.007063E-06
3.327117E+03	1.152986E-04	2.014759E-06
3.336932E+03	1.160180E-04	2.023456E-06
3.346746E+03	1.168017E-04	2.033209E-06
3.356561E+03	1.176531E-04	2.044069E-06
3.366376E+03	1.185757E-04	2.056092E-06
3.376190E+03	1.195733E-04	2.069333E-06
3.386005E+03	1.206498E-04	2.083854E-06
3.395819E+03	1.218256E-04	2.099996E-06
3.405634E+03	1.230725E-04	2.117263E-06
3.415448E+03	1.244275E-04	2.136285E-06
3.425263E+03	1.258790E-04	2.156851E-06
3.435077E+03	1.274151E-04	2.178744E-06
3.444892E+03	1.290742E-04	2.202614E-06
3.454706E+03	1.308451E-04	2.228253E-06
3.464521E+03	1.327331E-04	2.255742E-06
3.474335E+03	1.347440E-04	2.285166E-06
3.484150E+03	1.368840E-04	2.316612E-06
3.493964E+03	1.391591E-04	2.350171E-06
3.503779E+03	1.415943E-04	2.386249E-06
3.513593E+03	1.441600E-04	2.424327E-06
3.523408E+03	1.468813E-04	2.464815E-06
3.533222E+03	1.497852E-04	2.508144E-06
3.543037E+03	1.528409E-04	2.553782E-06
3.552851E+03	1.560957E-04	2.602497E-06
3.562666E+03	1.595387E-04	2.654087E-06
3.572480E+03	1.631580E-04	2.708330E-06
3.582295E+03	1.670041E-04	2.766044E-06
3.592109E+03	1.710660E-04	2.827022E-06
3.601924E+03	1.753541E-04	2.891406E-06
3.611738E+03	1.798785E-04	2.959340E-06
3.621553E+03	1.846503E-04	3.030974E-06
3.631367E+03	1.896806E-04	3.106465E-06
3.641182E+03	1.949812E-04	3.185972E-06
3.650996E+03	2.005643E-04	3.269664E-06
3.660811E+03	2.064684E-04	3.358131E-06
3.670625E+03	2.126555E-04	3.450718E-06
3.680440E+03	2.191643E-04	3.548020E-06
3.690254E+03	2.260368E-04	3.650674E-06
3.700069E+03	2.332322E-04	3.757980E-06
3.709883E+03	2.408223E-04	3.871053E-06
3.719698E+03	2.487638E-04	3.989148E-06
3.729512E+03	2.571329E-04	4.113444E-06
3.739327E+03	2.658833E-04	4.243151E-06
3.749141E+03	2.750960E-04	4.379508E-06
3.758956E+03	2.847563E-04	4.522225E-06
3.768770E+03	2.948813E-04	4.671521E-06
3.778585E+03	3.054514E-04	4.827026E-06
3.788399E+03	3.165576E-04	4.990118E-06
3.798214E+03	3.281817E-04	5.160448E-06
3.808028E+03	3.403419E-04	5.338234E-06
3.817843E+03	3.530563E-04	5.523694E-06
3.827657E+03	3.663431E-04	5.717040E-06
3.837472E+03	3.802204E-04	5.918483E-06
3.847286E+03	3.947060E-04	6.128226E-06
3.857101E+03	4.098176E-04	6.346464E-06
3.866915E+03	4.255725E-04	6.573386E-06
3.876730E+03	4.419874E-04	6.809170E-06
3.886544E+03	4.590787E-04	7.053979E-06
3.896359E+03	4.768618E-04	7.307966E-06
3.906173E+03	4.953514E-04	7.571266E-06
3.915988E+03	5.145608E-04	7.843993E-06
3.925802E+03	5.345037E-04	8.126259E-06
3.935617E+03	5.551896E-04	8.418117E-06
3.945431E+03	5.766293E-04	8.719635E-06
3.955246E+03	5.988311E-04	9.030836E-06
3.965060E+03	6.218005E-04	9.351708E-06
3.974875E+03	6.455421E-04	9.682217E-06
3.984689E+03	6.700582E-04	1.002230E-05
3.994504E+03	6.953481E-04	1.037184E-05
4.004318E+03	7.214087E-04	1.073070E-05
4.014133E+03	7.482345E-04	1.109869E-05
4.023947E+03	7.758170E-04	1.147558E-05
4.033762E+03	8.041434E-04	1.186109E-05
4.043576E+03	8.331990E-04	1.225490E-05
4.053391E+03	8.629652E-04	1.265664E-05
4.063205E+03	8.934188E-04	1.306588E-05
4.073020E+03	9.245335E-04	1.348214E-05
4.082834E+03	9.562792E-04	1.390490E-05
4.092649E+03	9.886210E-04	1.433357E-05
4.102463E+03	1.021521E-03	1.476751E-05
4.112278E+03	1.054934E-03	1.520602E-05
4.122092E+03	1.088693E-03	1.564660E-05
4.131907E+03	1.122986E-03	1.609191E-05
4.141721E+03	1.157640E-03	1.653941E-05
4.151536E+03	1.192463E-03	1.698629E-05
4.161350E+03	1.227653E-03	1.743538E-05
4.171165E+03	1.263016E-03	1.788385E-05
4.180979E+03	1.298339E-03	1.832868E-05
4.190794E+03	1.333834E-03	1.877285E-05
4.200608E+03	1.369137E-03	1.921124E-05
4.210423E+03	1.404318E-03	1.964484E-05
4.220238E+03	1.439461E-03	2.007485E-05
4.230052E+03	1.474179E-03	2.049588E-05
4.239867E+03	1.508555E-03	2.090913E-05
4.249681E+03	1.542521E-03	2.131371E-05
4.259496E+03	1.576008E-03	2.170873E-05
4.269310E+03	1.608956E-03	2.209342E-05
4.279125E+03	1.641307E-03	2.246706E-05
4.288939E+03	1.673007E-03	2.282899E-05
4.298754E+03	1.704005E-03	2.317860E-05
4.308568E+03	1.734249E-03	2.351529E-05
4.318383E+03	1.763495E-03	2.383584E-05
4.328197E+03	1.792058E-03	2.414465E-05
4.338012E+03	1.819500E-03	2.443590E-05
4.347826E+03	1.846148E-03	2.471414E-05
4.357641E+03	1.871558E-03	2.497356E-05
4.367455E+03	1.895880E-03	2.521630E-05
4.377270E+03	1.919280E-03	2.544470E-05
4.387084E+03	1.941319E-03	2.565312E-05
4.396899E+03	1.962179E-03	2.584408E-05
4.406713E+03	1.981840E-03	2.601754E-05
4.416528E+03	2.000085E-03	2.617077E-05
4.426342E+03	2.017331E-03	2.630943E-05
4.436157E+03	2.033372E-03	2.643096E-05
4.445971E+03	2.048005E-03	2.653289E-05
4.455786E+03	2.061673E-03	2.662111E-05
4.465600E+03	2.073965E-03	2.669047E-05
4.475415E+03	2.085123E-03	2.674422E-05
4.485229E+03	2.095174E-03	2.678286E-05
4.495044E+03	2.104150E-03	2.680695E-05
4.504858E+03	2.112085E-03	2.681705E-05
4.514673E+03	2.119017E-03	2.681376E-05
4.524487E+03	2.124984E-03	2.679769E-05
4.534302E+03	2.129807E-03	2.676671E-05
4.544116E+03	2.133967E-03	2.672700E-05
4.553931E+03	2.137067E-03	2.667367E-05
4.563745E+03	2.139369E-03	2.661013E-05
4.573560E+03	2.141139E-03	2.653977E-05
4.583374E+03	2.141980E-03	2.645775E-05
4.593189E+03	2.141938E-03	2.636475E-05
4.603003E+03	2.141494E-03	2.626678E-05
4.612818E+03	2.140474E-03	2.616177E-05
4.622632E+03	2.138703E-03	2.604766E-05
4.632447E+03	2.136659E-03	2.593033E-05
4.642261E+03	2.133949E-03	2.580509E-05
4.652076E+03	2.130833E-03	2.567513E-05
4.661890E+03	2.127350E-03	2.554098E-05
4.671705E+03	2.123541E-03	2.540317E-05
4.681519E+03	2.119442E-03	2.526220E-05
4.691334E+03	2.114880E-03	2.511601E-05
4.701148E+03	2.110317E-03	2.497014E-05
4.710963E+03	2.105363E-03	2.481999E-05
4.720777E+03	2.100475E-03	2.467099E-05
4.730592E+03	2.095266E-03	2.451858E-05
4.740406E+03	2.089977E-03	2.436563E-05
4.750221E+03	2.084432E-03	2.421010E-05
4.760035E+03	2.079076E-03	2.405718E-05
4.769850E+03	2.073730E-03	2.390477E-05
4.779664E+03	2.068215E-03	2.375081E-05
4.789479E+03	2.062764E-03	2.359800E-05
4.799293E+03	2.057607E-03	2.344894E-05
4.809108E+03	2.052357E-03	2.329921E-05
4.818922E+03	2.047040E-03	2.314912E-05
4.828737E+03	2.042083E-03	2.300348E-05
4.838551E+03	2.037304E-03	2.286020E-05
4.848366E+03	2.032521E-03	2.271722E-05
4.858180E+03	2.027954E-03	2.257701E-05
4.867995E+03	2.023820E-03	2.244194E-05
4.877809E+03	2.019736E-03	2.230772E-05
4.887624E+03	2.015721E-03	2.217455E-05
4.897438E+03	2.012183E-03	2.204690E-05
4.907253E+03	2.008938E-03	2.192271E-05
4.917067E+03	2.005803E-03	2.179994E-05
4.926882E+03	2.002987E-03	2.168084E-05
4.936696E+03	2.000695E-03	2.156759E-05
4.946511E+03	1.998547E-03	2.145604E-05
4.956325E+03	1.996553E-03	2.134628E-05
4.966140E+03	1.995111E-03	2.124254E-05
4.975954E+03	1.994034E-03	2.114275E-05
4.985769E+03	1.993137E-03	2.104492E-05
4.995583E+03	1.992618E-03	2.095112E-05
5.005398E+03	1.992677E-03	2.086337E-05
5.015212E+03	1.992933E-03	2.077766E-05
5.025027E+03	1.993390E-03	2.069400E-05
5.034841E+03	1.994438E-03	2.061639E-05
5.044656E+03	1.995888E-03	2.054280E-05
5.054471E+03	1.997549E-03	2.047125E-05
5.064285E+03	1.999615E-03	2.040369E-05
5.074100E+03	2.002089E-03	2.034009E-05
5.083914E+03	2.004969E-03	2.028040E-05
5.093729E+03	2.008257E-03	2.022457E-05
5.103543E+03	2.011952E-03	2.017257E-05
5.113358E+03	2.015860E-03	2.012238E-05
5.123172E+03	2.020364E-03	2.007783E-05
5.132987E+03	2.025077E-03	2.003497E-05
5.142801E+03	2.030187E-03	1.999568E-05
5.152616E+03	2.035692E-03	1.995987E-05
5.162430E+03	2.041588E-03	1.992745E-05
5.172245E+03	2.047871E-03	1.989836E-05
5.182059E+03	2.054341E-03	1.987060E-05
5.191874E+03	2.061383E-03	1.984789E-05
5.201688E+03	2.068602E-03	1.982635E-05
5.211503E+03	2.076188E-03	1.980781E-05
5.221317E+03	2.084137E-03	1.979216E-05
5.231132E+03	2.092444E-03	1.977936E-05
5.240946E+03	2.100907E-03	1.976744E-05
5.250761E+03	2.109921E-03	1.976010E-05
5.260575E+03	2.119085E-03	1.975354E-05
5.270390E+03	2.128798E-03	1.975148E-05
5.280204E+03	2.138658E-03	1.975013E-05
5.290019E+03	2.148869E-03	1.975135E-05
5.299833E+03	2.159432E-03	1.975515E-05
5.309648E+03	2.170352E-03	1.976153E-05
5.319462E+03	2.181429E-03	1.976865E-05
5.329277E+03	2.193079E-03	1.978026E-05
5.339091E+03	2.204898E-03	1.979267E-05
5.348906E+03	2.217099E-03	1.980776E-05
5.358720E+03	2.229686E-03	1.982553E-05
5.368535E+03	2.242667E-03	1.984600E-05
5.378349E+03	2.256044E-03	1.986914E-05
5.388164E+03	2.269820E-03	1.989493E-05
5.397978E+03	2.283780E-03	1.992144E-05
5.407793E+03	2.298351E-03	1.995236E-05
5.417607E+03	2.313096E-03	1.998386E-05
5.427422E+03	2.328224E-03	2.001770E-05
5.437236E+03	2.343728E-03	2.005380E-05
5.447051E+03	2.359599E-03	2.009202E-05
5.456865E+03	2.375827E-03	2.013225E-05
5.466680E+03	2.392403E-03	2.017438E-05
5.476494E+03	2.409319E-03	2.021830E-05
5.486309E+03	2.426339E-03	2.026202E-05
5.496123E+03	2.443684E-03	2.030736E-05
5.505938E+03	2.461578E-03	2.035615E-05
5.515752E+03	2.479559E-03	2.040454E-05
5.525567E+03	2.497854E-03	2.045439E-05
5.535381E+03	2.516466E-03	2.050569E-05
5.545196E+03	2.535157E-03	2.055649E-05
5.555010E+03	2.554404E-03	2.061066E-05
5.564825E+03	2.573976E-03	2.066628E-05
5.574639E+03	2.593635E-03	2.072143E-05
5.584454E+03	2.613626E-03	2.077808E-05
5.594268E+03	2.633956E-03	2.083625E-05
5.604083E+03	2.654878E-03	2.089793E-05
5.613897E+03	2.675905E-03	2.095925E-05
5.623712E+03	2.697037E-03	2.102022E-05
5.633526E+03	2.718782E-03	2.108480E-05
5.643341E+03	2.740894E-03	2.115106E-05
5.653155E+03	2.763119E-03	2.121702E-05
5.662970E+03	2.785973E-03	2.128666E-05
5.672784E+03	2.808941E-03	2.135600E-05
5.682599E+03	2.832544E-03	2.142903E-05
5.692413E+03	2.856253E-03	2.150173E-05
5.702228E+03	2.880327E-03	2.157606E-05
5.712042E+03	2.904761E-03	2.165200E-05
5.721857E+03	2.929547E-03	2.172947E-05
5.731671E+03	2.954399E-03	2.180639E-05
5.741486E+03	2.979855E-03	2.188675E-05
5.751300E+03	3.005626E-03	2.196842E-05
5.761115E+03	3.031415E-03	2.204925E-05
5.770929E+03	3.057478E-03	2.213118E-05
5.780744E+03	3.084084E-03	2.221614E-05
5.790558E+03	3.110633E-03	2.229987E-05
5.800373E+03	3.137386E-03	2.238428E-05
5.810187E+03	3.164314E-03	2.246922E-05
5.820002E+03	3.191386E-03	2.255453E-05
5.829816E+03	3.218569E-03	2.264003E-05
5.839631E+03	3.245826E-03	2.272553E-05
5.849445E+03	3.272818E-03	2.280874E-05
5.859260E+03	3.300113E-03	2.289371E-05
5.869074E+03	3.327368E-03	2.297814E-05
5.878889E+03	3.354230E-03	2.305968E-05
5.888704E+03	3.380966E-03	2.314030E-05
5.898518E+03	3.407854E-03	2.322199E-05
5.908333E+03	3.434219E-03	2.330026E-05
5.918147E+03	3.460336E-03	2.337712E-05
5.927962E+03	3.486169E-03	2.345245E-05
5.937776E+03	3.511681E-03	2.352613E-05
5.947591E+03	3.536840E-03	2.359809E-05
5.957405E+03	3.561617E-03	2.366827E-05
5.967220E+03	3.585988E-03	2.373666E-05
5.977034E+03	3.609597E-03	2.380107E-05
5.986849E+03	3.633104E-03	2.386599E-05
5.996663E+03	3.655826E-03	2.392710E-05
6.006478E+03	3.678448E-03	2.398903E-05
6.016292E+03	3.700296E-03	2.404754E-05
6.026107E+03	3.722080E-03	2.410739E-05
6.035921E+03	3.743134E-03	2.416443E-05
6.045736E+03	3.763840E-03	2.422129E-05
6.055550E+03	3.784235E-03	2.427835E-05
6.065365E+03	3.804353E-03	2.433597E-05
6.075179E+03	3.824214E-03	2.439445E-05
6.084994E+03	3.843825E-03	2.445395E-05
6.094808E+03	3.863178E-03	2.451457E-05
6.104623E+03	3.882246E-03	2.457630E-05
6.114437E+03	3.900996E-03	2.463907E-05
6.124252E+03	3.919394E-03	2.470280E-05
6.134066E+03	3.937038E-03	2.476512E-05
6.143881E+03	3.954638E-03	2.483065E-05
6.153695E+03	3.971437E-03	2.489477E-05
6.163510E+03	3.988167E-03	2.496221E-05
6.173324E+03	4.004079E-03	2.502842E-05
6.183139E+03	4.019926E-03	2.509826E-05
6.192953E+03	4.034965E-03	2.516718E-05
6.202768E+03	4.049587E-03	2.523765E-05
6.212582E+03	4.064192E-03	2.531212E-05
6.222397E+03	4.078042E-03	2.538599E-05
6.232211E+03	4.091544E-03	2.546174E-05
6.242026E+03	4.104728E-03	2.553952E-05
6.251840E+03	4.117627E-03	2.561948E-05
6.261655E+03	4.130275E-03	2.570180E-05
6.271469E+03	4.142706E-03	2.578662E-05
6.281284E+03	4.154955E-03	2.587411E-05
6.291098E+03	4.167059E-03	2.596444E-05
6.300913E+03	4.179051E-03	2.605775E-05
6.310727E+03	4.190573E-03	2.615174E-05
6.320542E+03	4.202444E-03	2.625146E-05
6.330356E+03	4.214303E-03	2.635459E-05
6.340171E+03	4.225781E-03	2.645876E-05
6.349985E+03	4.237703E-03	2.656906E-05
6.359800E+03	4.249295E-03	2.668057E-05
6.369614E+03	4.261382E-03	2.679841E-05
6.379429E+03	4.273182E-03	2.691760E-05
6.389243E+03	4.285520E-03	2.704327E-05
6.399058E+03	4.297604E-03	2.717035E-05
6.408872E+03	4.310259E-03	2.730400E-05
6.418687E+03	4.322682E-03	2.743909E-05
6.428501E+03	4.335289E-03	2.757817E-05
6.438316E+03	4.348086E-03	2.772124E-05
6.448130E+03	4.361490E-03	2.787089E-05
6.457945E+03	4.374678E-03	2.802183E-05
6.467759E+03	4.388061E-03	2.817661E-05
6.477574E+03	4.401637E-03	2.833518E-05
6.487388E+03	4.415401E-03	2.849744E-05
6.497203E+03	4.429345E-03	2.866331E-05
6.507017E+03	4.443460E-03	2.883268E-05
6.516832E+03	4.457737E-03	2.900543E-05
6.526646E+03	4.472161E-03	2.918143E-05
6.536461E+03	4.486720E-03	2.936056E-05
6.546275E+03	4.500970E-03	2.953985E-05
6.556090E+03	4.515748E-03	2.972475E-05
6.565904E+03	4.530609E-03	2.991231E-05
6.575719E+03	4.545536E-03	3.010236E-05
6.585533E+03	4.560071E-03	3.029184E-05
6.595348E+03	4.575063E-03	3.048632E-05
6.605162E+03	4.590056E-03	3.068276E-05
6.614977E+03	4.604588E-03	3.087800E-05
6.624791E+03	4.619512E-03	3.107774E-05
6.634606E+03	4.634369E-03	3.127884E-05
6.644420E+03	4.648688E-03	3.147811E-05
6.654235E+03	4.662889E-03	3.167830E-05
6.664049E+03	4.677391E-03	3.188225E-05
6.673864E+03	4.691278E-03	3.208369E-05
6.683678E+03	4.705421E-03	3.228852E-05
6.693493E+03	4.718898E-03	3.249038E-05
6.703307E+03	4.732131E-03	3.269213E-05
6.713122E+03	4.745548E-03	3.289671E-05
6.722937E+03	4.758220E-03	3.309763E-05
6.732751E+03	4.770574E-03	3.329781E-05
6.742566E+03	4.782585E-03	3.349704E-05
6.752380E+03	4.794687E-03	3.369834E-05
6.762195E+03	4.805939E-03	3.389506E-05
6.772009E+03	4.816774E-03	3.409020E-05
6.781824E+03	4.827167E-03	3.428354E-05
6.791638E+03	4.837093E-03	3.447487E-05
6.801453E+03	4.846528E-03	3.466399E-05
6.811267E+03	4.855446E-03	3.485066E-05
6.821082E+03	4.863821E-03	3.503467E-05
6.830896E+03	4.871629E-03	3.521580E-05
6.840711E+03	4.878843E-03	3.539382E-05
6.850525E+03	4.884967E-03	3.556508E-05
6.860340E+03	4.890915E-03	3.573617E-05
6.870154E+03	4.896190E-03	3.590347E-05
6.879969E+03	4.900764E-03	3.606671E-05
6.889783E+03	4.904610E-03	3.622566E-05
6.899598E+03	4.907226E-03	3.637656E-05
6.909412E+03	4.909529E-03	3.652614E-05
6.919227E+03	4.911019E-03	3.667066E-05
6.929041E+03	4.911189E-03	3.680628E-05
6.938856E+03	4.910959E-03	3.693984E-05
6.948670E+03	4.909349E-03	3.706392E-05
6.958485E+03	4.907278E-03	3.718540E-05
6.968299E+03	4.903764E-03	3.729679E-05
6.978114E+03	4.899728E-03	3.740502E-05
6.987928E+03	4.894184E-03	3.750253E-05
6.997743E+03	4.887578E-03	3.759264E-05
7.007557E+03	4.880352E-03	3.767871E-05
7.017372E+03	4.871524E-03	3.775308E-05
7.027186E+03	4.861538E-03	3.781910E-05
7.037001E+03	4.850361E-03	3.787646E-05
7.046815E+03	4.837962E-03	3.792481E-05
7.056630E+03	4.824779E-03	3.796753E-05
7.066444E+03	4.809842E-03	3.799691E-05
7.076259E+03	4.793591E-03	3.801630E-05
7.086073E+03	4.775997E-03	3.802539E-05
7.095888E+03	4.757033E-03	3.802384E-05
7.105702E+03	4.736672E-03	3.801135E-05
7.115517E+03	4.714890E-03	3.798760E-05
7.125331E+03	4.691203E-03	3.794858E-05
7.135146E+03	4.666512E-03	3.790142E-05
7.144960E+03	4.640336E-03	3.784214E-05
7.154775E+03	4.612660E-03	3.777047E-05
7.164589E+03	4.583021E-03	3.768247E-05
7.174404E+03	4.552313E-03	3.758534E-05
7.184218E+03	4.520078E-03	3.747517E-05
7.194033E+03	4.485874E-03	3.734815E-05
7.203847E+03	4.450591E-03	3.721150E-05
7.213662E+03	4.413359E-03	3.705781E-05
7.223476E+03	4.375067E-03	3.689437E-05
7.233291E+03	4.334873E-03	3.671391E-05
7.243105E+03	4.293238E-03	3.652016E-05
7.252920E+03	4.250622E-03	3.631686E-05
7.262734E+03	4.206224E-03	3.609701E-05
7.272549E+03	4.160523E-03	3.586452E-05
7.282363E+03	4.113579E-03	3.561974E-05
7.292178E+03	4.065467E-03	3.536314E-05
7.301992E+03	4.016264E-03	3.509523E-05
7.311807E+03	3.966063E-03	3.481659E-05
7.321621E+03	3.914962E-03	3.452786E-05
7.331436E+03	3.863065E-03	3.422974E-05
7.341250E+03	3.810480E-03	3.392297E-05
7.351065E+03	3.757310E-03	3.360828E-05
7.360879E+03	3.703654E-03	3.328638E-05
7.370694E+03	3.649235E-03	3.295458E-05
7.380508E+03	3.594850E-03	3.261993E-05
7.390323E+03	3.540189E-03	3.227948E-05
7.400137E+03	3.484947E-03	3.193030E-05
7.409952E+03	3.429861E-03	3.157901E-05
7.419766E+03	3.374277E-03	3.121946E-05
7.429581E+03	3.318582E-03	3.085510E-05
7.439395E+03	3.263146E-03	3.048928E-05
7.449210E+03	3.207362E-03	3.011623E-05
7.459024E+03	3.151615E-03	2.973945E-05
7.468839E+03	3.095964E-03	2.935942E-05
7.478653E+03	3.040472E-03	2.897665E-05
7.488468E+03	2.985500E-03	2.859456E-05
7.498282E+03	2.930509E-03	2.820795E-05
7.508097E+03	2.875580E-03	2.781752E-05
7.517911E+03	2.821356E-03	2.742946E-05
7.527726E+03	2.767606E-03	2.704154E-05
7.537540E+03	2.714387E-03	2.665431E-05
7.547355E+03	2.661753E-03	2.626834E-05
7.557169E+03	2.609494E-03	2.588154E-05
7.566984E+03	2.558189E-03	2.549969E-05
7.576799E+03	2.507358E-03	2.511807E-05
7.586613E+03	2.457553E-03	2.474225E-05
7.596428E+03	2.408307E-03	2.436759E-05
7.606242E+03	2.360142E-03	2.399945E-05
7.616057E+03	2.312602E-03	2.363327E-05
