#wls	flux	fluxerr
1.600000E+03	2.769112E-14	9.524271E-15
1.640000E+03	2.981674E-14	9.439460E-15
1.680000E+03	3.208466E-14	9.282473E-15
1.720000E+03	3.449703E-14	9.046718E-15
1.760000E+03	3.705399E-14	8.727084E-15
1.800000E+03	3.975299E-14	8.320973E-15
1.840000E+03	4.258771E-14	7.829819E-15
1.880000E+03	4.554723E-14	7.261493E-15
1.920000E+03	4.861440E-14	6.633924E-15
1.960000E+03	5.176391E-14	5.980587E-15
2.000000E+03	5.495991E-14	5.357794E-15
2.040000E+03	5.815183E-14	4.849196E-15
2.080000E+03	6.126990E-14	4.549294E-15
2.120000E+03	6.422832E-14	4.501165E-15
2.160000E+03	6.691324E-14	4.655894E-15
2.200000E+03	6.917299E-14	4.949725E-15
2.240000E+03	7.082695E-14	5.377122E-15
2.280000E+03	7.172762E-14	5.971414E-15
2.320000E+03	7.193563E-14	6.732629E-15
2.360000E+03	7.157553E-14	7.599983E-15
2.400000E+03	7.077517E-14	8.498607E-15
2.440000E+03	6.965866E-14	9.368703E-15
2.480000E+03	6.834104E-14	1.017098E-14
2.520000E+03	6.692478E-14	1.088396E-14
2.560000E+03	6.548841E-14	1.149788E-14
2.600000E+03	6.407340E-14	1.200750E-14
2.640000E+03	6.269168E-14	1.240895E-14
2.680000E+03	6.134157E-14	1.269983E-14
2.720000E+03	6.001634E-14	1.287939E-14
2.760000E+03	5.870871E-14	1.294880E-14
2.800000E+03	5.741226E-14	1.291109E-14
2.840000E+03	5.612161E-14	1.277096E-14
2.880000E+03	5.483214E-14	1.253461E-14
2.920000E+03	5.353989E-14	1.220961E-14
2.960000E+03	5.224129E-14	1.180471E-14
3.000000E+03	5.093276E-14	1.132973E-14
3.010000E+03	5.060369E-14	1.120129E-14
3.020000E+03	5.027378E-14	1.106932E-14
3.030000E+03	4.994294E-14	1.093400E-14
3.040000E+03	4.961110E-14	1.079551E-14
3.050000E+03	4.927818E-14	1.065403E-14
3.060000E+03	4.894423E-14	1.050977E-14
3.070000E+03	4.860905E-14	1.036290E-14
3.080000E+03	4.827279E-14	1.021364E-14
3.090000E+03	4.793526E-14	1.006217E-14
3.100000E+03	4.759649E-14	9.908708E-15
3.110000E+03	4.725641E-14	9.753437E-15
3.120000E+03	4.691494E-14	9.596557E-15
3.130000E+03	4.657212E-14	9.438289E-15
3.140000E+03	4.622797E-14	9.278851E-15
3.150000E+03	4.588231E-14	9.118417E-15
3.160000E+03	4.553519E-14	8.957207E-15
3.170000E+03	4.518652E-14	8.795418E-15
3.180000E+03	4.483635E-14	8.633265E-15
3.190000E+03	4.448473E-14	8.470966E-15
3.200000E+03	4.413159E-14	8.308711E-15
3.210000E+03	4.377698E-14	8.146709E-15
3.220000E+03	4.342085E-14	7.985147E-15
3.230000E+03	4.306326E-14	7.824228E-15
3.240000E+03	4.270415E-14	7.664128E-15
3.250000E+03	4.234373E-14	7.505060E-15
3.260000E+03	4.198184E-14	7.347172E-15
3.270000E+03	4.161869E-14	7.190664E-15
3.280000E+03	4.125437E-14	7.035709E-15
3.290000E+03	4.088888E-14	6.882454E-15
3.300000E+03	4.052225E-14	6.731039E-15
3.310000E+03	4.015481E-14	6.581651E-15
3.320000E+03	3.978651E-14	6.434396E-15
3.330000E+03	3.941750E-14	6.289407E-15
3.340000E+03	3.904797E-14	6.146810E-15
3.350000E+03	3.867811E-14	6.006722E-15
3.360000E+03	3.830805E-14	5.869235E-15
3.370000E+03	3.793812E-14	5.734467E-15
3.380000E+03	3.756837E-14	5.602481E-15
3.390000E+03	3.719919E-14	5.473380E-15
3.400000E+03	3.683066E-14	5.347215E-15
3.410000E+03	3.646310E-14	5.224066E-15
3.420000E+03	3.609676E-14	5.103990E-15
3.430000E+03	3.573188E-14	4.987042E-15
3.440000E+03	3.536874E-14	4.873275E-15
3.450000E+03	3.500782E-14	4.762767E-15
3.460000E+03	3.464942E-14	4.655563E-15
3.470000E+03	3.429391E-14	4.551720E-15
3.480000E+03	3.394161E-14	4.451274E-15
3.490000E+03	3.359296E-14	4.354286E-15
3.500000E+03	3.324825E-14	4.260780E-15
3.510000E+03	3.290769E-14	4.170774E-15
3.520000E+03	3.257148E-14	4.084273E-15
3.530000E+03	3.223966E-14	4.001260E-15
3.540000E+03	3.191255E-14	3.921738E-15
3.550000E+03	3.159017E-14	3.845667E-15
3.560000E+03	3.127229E-14	3.772964E-15
3.570000E+03	3.095892E-14	3.703561E-15
3.580000E+03	3.064998E-14	3.637366E-15
3.590000E+03	3.034511E-14	3.574242E-15
3.600000E+03	3.004399E-14	3.514040E-15
3.610000E+03	2.974633E-14	3.456599E-15
3.620000E+03	2.945158E-14	3.401721E-15
3.630000E+03	2.915935E-14	3.349210E-15
3.640000E+03	2.886910E-14	3.298848E-15
3.650000E+03	2.858029E-14	3.250409E-15
3.660000E+03	2.829249E-14	3.203674E-15
3.670000E+03	2.800526E-14	3.158425E-15
3.680000E+03	2.771814E-14	3.114441E-15
3.690000E+03	2.743069E-14	3.071508E-15
3.700000E+03	2.714268E-14	3.029439E-15
3.710000E+03	2.685392E-14	2.988063E-15
3.720000E+03	2.656426E-14	2.947219E-15
3.730000E+03	2.627390E-14	2.906797E-15
3.740000E+03	2.598269E-14	2.866657E-15
3.750000E+03	2.569103E-14	2.826732E-15
3.760000E+03	2.539923E-14	2.786956E-15
3.770000E+03	2.510749E-14	2.747261E-15
3.780000E+03	2.481642E-14	2.707637E-15
3.790000E+03	2.452652E-14	2.668065E-15
3.800000E+03	2.423828E-14	2.628539E-15
3.810000E+03	2.395212E-14	2.589053E-15
3.820000E+03	2.366870E-14	2.549632E-15
3.830000E+03	2.338837E-14	2.510274E-15
3.840000E+03	2.311159E-14	2.470997E-15
3.850000E+03	2.283868E-14	2.431805E-15
3.860000E+03	2.256994E-14	2.392706E-15
3.870000E+03	2.230542E-14	2.353682E-15
3.880000E+03	2.204522E-14	2.314728E-15
3.890000E+03	2.178937E-14	2.275831E-15
3.900000E+03	2.153770E-14	2.236958E-15
3.910000E+03	2.129003E-14	2.198081E-15
3.920000E+03	2.104598E-14	2.159147E-15
3.930000E+03	2.080522E-14	2.120118E-15
3.940000E+03	2.056750E-14	2.080959E-15
3.950000E+03	2.033219E-14	2.041599E-15
3.960000E+03	2.009897E-14	2.002005E-15
3.970000E+03	1.986746E-14	1.962133E-15
3.980000E+03	1.963713E-14	1.921930E-15
3.990000E+03	1.940767E-14	1.881363E-15
4.000000E+03	1.917879E-14	1.840406E-15
4.010000E+03	1.895023E-14	1.799032E-15
4.020000E+03	1.872177E-14	1.757223E-15
4.030000E+03	1.849337E-14	1.714976E-15
4.040000E+03	1.826507E-14	1.672299E-15
4.050000E+03	1.803694E-14	1.629197E-15
4.060000E+03	1.780912E-14	1.585686E-15
4.070000E+03	1.758193E-14	1.541792E-15
4.080000E+03	1.735561E-14	1.497537E-15
4.090000E+03	1.713078E-14	1.452971E-15
4.100000E+03	1.690773E-14	1.408113E-15
4.110000E+03	1.668706E-14	1.363005E-15
4.120000E+03	1.646937E-14	1.317685E-15
4.130000E+03	1.625524E-14	1.272185E-15
4.140000E+03	1.604517E-14	1.226525E-15
4.150000E+03	1.583982E-14	1.180732E-15
4.160000E+03	1.563981E-14	1.134828E-15
4.170000E+03	1.544553E-14	1.088809E-15
4.180000E+03	1.525762E-14	1.042684E-15
4.190000E+03	1.507639E-14	9.964343E-16
4.200000E+03	1.490229E-14	9.500455E-16
4.210000E+03	1.473551E-14	9.034823E-16
4.220000E+03	1.457638E-14	8.567144E-16
4.230000E+03	1.442503E-14	8.096959E-16
4.240000E+03	1.428145E-14	7.623716E-16
4.250000E+03	1.414563E-14	7.146872E-16
4.260000E+03	1.401746E-14	6.665830E-16
4.270000E+03	1.389688E-14	6.180069E-16
4.280000E+03	1.378345E-14	5.688951E-16
4.290000E+03	1.367705E-14	5.192078E-16
4.300000E+03	1.357709E-14	4.689026E-16
4.310000E+03	1.348316E-14	4.179687E-16
4.320000E+03	1.339476E-14	3.664298E-16
4.330000E+03	1.331129E-14	3.143704E-16
4.340000E+03	1.323293E-14	2.620092E-16
4.350000E+03	1.315963E-14	2.097968E-16
4.360000E+03	1.309144E-14	1.587964E-16
4.370000E+03	1.302798E-14	1.119495E-16
4.380000E+03	1.296855E-14	7.874280E-17
4.390000E+03	1.291223E-14	7.949920E-17
4.400000E+03	1.285903E-14	1.127322E-16
4.410000E+03	1.280983E-14	1.578486E-16
4.420000E+03	1.276517E-14	2.058899E-16
4.430000E+03	1.272530E-14	2.541068E-16
4.440000E+03	1.269024E-14	3.015234E-16
4.450000E+03	1.265979E-14	3.477386E-16
4.460000E+03	1.263374E-14	3.925775E-16
4.470000E+03	1.261188E-14	4.359670E-16
4.480000E+03	1.259386E-14	4.778816E-16
4.490000E+03	1.257936E-14	5.183217E-16
4.500000E+03	1.256812E-14	5.573048E-16
4.510000E+03	1.255972E-14	5.948504E-16
4.520000E+03	1.255375E-14	6.309808E-16
4.530000E+03	1.254998E-14	6.657283E-16
4.540000E+03	1.254804E-14	6.991188E-16
4.550000E+03	1.254744E-14	7.311696E-16
4.560000E+03	1.254801E-14	7.619155E-16
4.570000E+03	1.254933E-14	7.913740E-16
4.580000E+03	1.255109E-14	8.195670E-16
4.590000E+03	1.255319E-14	8.465280E-16
4.600000E+03	1.255516E-14	8.722649E-16
4.610000E+03	1.255683E-14	8.968017E-16
4.620000E+03	1.255812E-14	9.201701E-16
4.630000E+03	1.255876E-14	9.423846E-16
4.640000E+03	1.255885E-14	9.634849E-16
4.650000E+03	1.255864E-14	9.835253E-16
4.660000E+03	1.255851E-14	1.002569E-15
4.670000E+03	1.255884E-14	1.020682E-15
4.680000E+03	1.255992E-14	1.037922E-15
4.690000E+03	1.256202E-14	1.054345E-15
4.700000E+03	1.256527E-14	1.069999E-15
4.710000E+03	1.256996E-14	1.084940E-15
4.720000E+03	1.257603E-14	1.099195E-15
4.730000E+03	1.258348E-14	1.112794E-15
4.740000E+03	1.259221E-14	1.125756E-15
4.750000E+03	1.260188E-14	1.138077E-15
4.760000E+03	1.261223E-14	1.149759E-15
4.770000E+03	1.262287E-14	1.160786E-15
4.780000E+03	1.263334E-14	1.171135E-15
4.790000E+03	1.264309E-14	1.180774E-15
4.800000E+03	1.265147E-14	1.189655E-15
4.810000E+03	1.265787E-14	1.197733E-15
4.820000E+03	1.266166E-14	1.204960E-15
4.830000E+03	1.266213E-14	1.211277E-15
4.840000E+03	1.265879E-14	1.216643E-15
4.850000E+03	1.265086E-14	1.220991E-15
4.860000E+03	1.263793E-14	1.224284E-15
4.870000E+03	1.261937E-14	1.226466E-15
4.880000E+03	1.259499E-14	1.227522E-15
4.890000E+03	1.256422E-14	1.227401E-15
4.900000E+03	1.252698E-14	1.226096E-15
4.910000E+03	1.248307E-14	1.223593E-15
4.920000E+03	1.243251E-14	1.219896E-15
4.930000E+03	1.237540E-14	1.215020E-15
4.940000E+03	1.231173E-14	1.208968E-15
4.950000E+03	1.224197E-14	1.201794E-15
4.960000E+03	1.216616E-14	1.193506E-15
4.970000E+03	1.208492E-14	1.184171E-15
4.980000E+03	1.199849E-14	1.173822E-15
4.990000E+03	1.190735E-14	1.162512E-15
5.000000E+03	1.181201E-14	1.150302E-15
5.010000E+03	1.171300E-14	1.137249E-15
5.020000E+03	1.161063E-14	1.123393E-15
5.030000E+03	1.150551E-14	1.108804E-15
5.040000E+03	1.139813E-14	1.093537E-15
5.050000E+03	1.128877E-14	1.077627E-15
5.060000E+03	1.117795E-14	1.061132E-15
5.070000E+03	1.106607E-14	1.044100E-15
5.080000E+03	1.095331E-14	1.026554E-15
5.090000E+03	1.084018E-14	1.008548E-15
5.100000E+03	1.072668E-14	9.900881E-16
5.110000E+03	1.061325E-14	9.712207E-16
5.120000E+03	1.049999E-14	9.519601E-16
5.130000E+03	1.038700E-14	9.323174E-16
5.140000E+03	1.027443E-14	9.123087E-16
5.150000E+03	1.016239E-14	8.919466E-16
5.160000E+03	1.005088E-14	8.712326E-16
5.170000E+03	9.940173E-15	8.501894E-16
5.180000E+03	9.830050E-15	8.287986E-16
5.190000E+03	9.720652E-15	8.070711E-16
5.200000E+03	9.611929E-15	7.850016E-16
5.210000E+03	9.504004E-15	7.625981E-16
5.220000E+03	9.396819E-15	7.398535E-16
5.230000E+03	9.290403E-15	7.167673E-16
5.240000E+03	9.184785E-15	6.933387E-16
5.250000E+03	9.079908E-15	6.695601E-16
5.260000E+03	8.975807E-15	6.454307E-16
5.270000E+03	8.872598E-15	6.209555E-16
5.280000E+03	8.770152E-15	5.961217E-16
5.290000E+03	8.668589E-15	5.709345E-16
5.300000E+03	8.568028E-15	5.453983E-16
5.310000E+03	8.468261E-15	5.194971E-16
5.320000E+03	8.369566E-15	4.932464E-16
5.330000E+03	8.271811E-15	4.666370E-16
5.340000E+03	8.175022E-15	4.396708E-16
5.350000E+03	8.079296E-15	4.123553E-16
5.360000E+03	7.984641E-15	3.846945E-16
5.370000E+03	7.890978E-15	3.566913E-16
5.380000E+03	7.798371E-15	3.283592E-16
5.390000E+03	7.706719E-15	2.997086E-16
5.400000E+03	7.616061E-15	2.707625E-16
5.410000E+03	7.526569E-15	2.415550E-16
5.420000E+03	7.438244E-15	2.121247E-16
5.430000E+03	7.351510E-15	1.825388E-16
5.440000E+03	7.265657E-15	1.528664E-16
5.450000E+03	7.180113E-15	1.232555E-16
5.460000E+03	7.094278E-15	9.402241E-17
5.470000E+03	7.007848E-15	6.597495E-17
5.480000E+03	6.920322E-15	4.182812E-17
5.490000E+03	6.831238E-15	3.182340E-17
5.500000E+03	6.740544E-15	4.520273E-17
5.510000E+03	6.648801E-15	6.814809E-17
5.520000E+03	6.556647E-15	9.258573E-17
5.530000E+03	6.464677E-15	1.165472E-16
5.540000E+03	6.373344E-15	1.394616E-16
5.550000E+03	6.282944E-15	1.611332E-16
5.560000E+03	6.193659E-15	1.814972E-16
5.570000E+03	6.105829E-15	2.005521E-16
5.580000E+03	6.019633E-15	2.183229E-16
5.590000E+03	5.935164E-15	2.348483E-16
5.600000E+03	5.852682E-15	2.501837E-16
5.610000E+03	5.772240E-15	2.643833E-16
5.620000E+03	5.693934E-15	2.775067E-16
5.630000E+03	5.617965E-15	2.896214E-16
5.640000E+03	5.544334E-15	3.007863E-16
5.650000E+03	5.473145E-15	3.110658E-16
5.660000E+03	5.404428E-15	3.205196E-16
5.670000E+03	5.338254E-15	3.292089E-16
5.680000E+03	5.274504E-15	3.371816E-16
5.690000E+03	5.213337E-15	3.445004E-16
5.700000E+03	5.154660E-15	3.512106E-16
5.710000E+03	5.098426E-15	3.573570E-16
5.720000E+03	5.044632E-15	3.629853E-16
5.730000E+03	4.993203E-15	3.681329E-16
5.740000E+03	4.944050E-15	3.728338E-16
5.750000E+03	4.897073E-15	3.771180E-16
5.760000E+03	4.852275E-15	3.810206E-16
5.770000E+03	4.809424E-15	3.845558E-16
5.780000E+03	4.768504E-15	3.877524E-16
5.790000E+03	4.729328E-15	3.906226E-16
5.800000E+03	4.691814E-15	3.931849E-16
5.810000E+03	4.655825E-15	3.954513E-16
5.820000E+03	4.621224E-15	3.974315E-16
5.830000E+03	4.587931E-15	3.991383E-16
5.840000E+03	4.555817E-15	4.005787E-16
5.850000E+03	4.524704E-15	4.017540E-16
5.860000E+03	4.494587E-15	4.026791E-16
5.870000E+03	4.465306E-15	4.033543E-16
5.880000E+03	4.436821E-15	4.037895E-16
5.890000E+03	4.409049E-15	4.039901E-16
5.900000E+03	4.381865E-15	4.039564E-16
5.910000E+03	4.355320E-15	4.037044E-16
5.920000E+03	4.329367E-15	4.032405E-16
5.930000E+03	4.303919E-15	4.025666E-16
5.940000E+03	4.278952E-15	4.016900E-16
5.950000E+03	4.254564E-15	4.006287E-16
5.960000E+03	4.230699E-15	3.993857E-16
5.970000E+03	4.207310E-15	3.979643E-16
5.980000E+03	4.184575E-15	3.963882E-16
5.990000E+03	4.162355E-15	3.946506E-16
6.000000E+03	4.140787E-15	3.927700E-16
6.010000E+03	4.119850E-15	3.907496E-16
6.020000E+03	4.099638E-15	3.886020E-16
6.030000E+03	4.080136E-15	3.863295E-16
6.040000E+03	4.061442E-15	3.839439E-16
6.050000E+03	4.043495E-15	3.814412E-16
6.060000E+03	4.026450E-15	3.788368E-16
6.070000E+03	4.010244E-15	3.761254E-16
6.080000E+03	3.994981E-15	3.733158E-16
6.090000E+03	3.980598E-15	3.704011E-16
6.100000E+03	3.967144E-15	3.673836E-16
6.110000E+03	3.954718E-15	3.642697E-16
6.120000E+03	3.943202E-15	3.610450E-16
6.130000E+03	3.932641E-15	3.577094E-16
6.140000E+03	3.923077E-15	3.542618E-16
6.150000E+03	3.914553E-15	3.507003E-16
6.160000E+03	3.906997E-15	3.470122E-16
6.170000E+03	3.900504E-15	3.431987E-16
6.180000E+03	3.895055E-15	3.392503E-16
6.190000E+03	3.890741E-15	3.351660E-16
6.200000E+03	3.887486E-15	3.309297E-16
6.210000E+03	3.885433E-15	3.265431E-16
6.220000E+03	3.884614E-15	3.219971E-16
6.230000E+03	3.885061E-15	3.172816E-16
6.240000E+03	3.886803E-15	3.123850E-16
6.250000E+03	3.889869E-15	3.072946E-16
6.260000E+03	3.894344E-15	3.020008E-16
6.270000E+03	3.900314E-15	2.964924E-16
6.280000E+03	3.907688E-15	2.907432E-16
6.290000E+03	3.916548E-15	2.847392E-16
6.300000E+03	3.926974E-15	2.784641E-16
6.310000E+03	3.938985E-15	2.718958E-16
6.320000E+03	3.952533E-15	2.650063E-16
6.330000E+03	3.967621E-15	2.577700E-16
6.340000E+03	3.984368E-15	2.501673E-16
6.350000E+03	4.002632E-15	2.421607E-16
6.360000E+03	4.022441E-15	2.337228E-16
6.370000E+03	4.043743E-15	2.248206E-16
6.380000E+03	4.066393E-15	2.154161E-16
6.390000E+03	4.090411E-15	2.054804E-16
6.400000E+03	4.115591E-15	1.949738E-16
6.410000E+03	4.141748E-15	1.838602E-16
6.420000E+03	4.168719E-15	1.721073E-16
6.430000E+03	4.196226E-15	1.596824E-16
6.440000E+03	4.223933E-15	1.465572E-16
6.450000E+03	4.251515E-15	1.327128E-16
6.460000E+03	4.278449E-15	1.181370E-16
6.470000E+03	4.304368E-15	1.028410E-16
6.480000E+03	4.328571E-15	8.685830E-17
6.490000E+03	4.350614E-15	7.028507E-17
6.500000E+03	4.369830E-15	5.334302E-17
6.510000E+03	4.385646E-15	3.665809E-17
6.520000E+03	4.397611E-15	2.263088E-17
6.530000E+03	4.405285E-15	2.021249E-17
6.540000E+03	4.408366E-15	3.238696E-17
6.550000E+03	4.406952E-15	4.900151E-17
6.560000E+03	4.401196E-15	6.637271E-17
6.570000E+03	4.391324E-15	8.359930E-17
6.580000E+03	4.377551E-15	1.003631E-16
6.590000E+03	4.360283E-15	1.165187E-16
6.600000E+03	4.339942E-15	1.319898E-16
6.610000E+03	4.316641E-15	1.467250E-16
6.620000E+03	4.290944E-15	1.607077E-16
6.630000E+03	4.263089E-15	1.739265E-16
6.640000E+03	4.233295E-15	1.863790E-16
6.650000E+03	4.201915E-15	1.980775E-16
6.660000E+03	4.169132E-15	2.090337E-16
6.670000E+03	4.135341E-15	2.192758E-16
6.680000E+03	4.100541E-15	2.288162E-16
6.690000E+03	4.065172E-15	2.376948E-16
6.700000E+03	4.029281E-15	2.459332E-16
6.710000E+03	3.993055E-15	2.535627E-16
6.720000E+03	3.956741E-15	2.606209E-16
6.730000E+03	3.920427E-15	2.671364E-16
6.740000E+03	3.884334E-15	2.731481E-16
6.750000E+03	3.848452E-15	2.786790E-16
6.760000E+03	3.813050E-15	2.837726E-16
6.770000E+03	3.778165E-15	2.884558E-16
6.780000E+03	3.743969E-15	2.927653E-16
6.790000E+03	3.710402E-15	2.967196E-16
6.800000E+03	3.677610E-15	3.003526E-16
6.810000E+03	3.645654E-15	3.036912E-16
6.820000E+03	3.614584E-15	3.067604E-16
6.830000E+03	3.584438E-15	3.095837E-16
6.840000E+03	3.555243E-15	3.121827E-16
6.850000E+03	3.526948E-15	3.145711E-16
6.860000E+03	3.499631E-15	3.167733E-16
6.870000E+03	3.473222E-15	3.187994E-16
6.880000E+03	3.447783E-15	3.206706E-16
6.890000E+03	3.423299E-15	3.224002E-16
6.900000E+03	3.399611E-15	3.239873E-16
6.910000E+03	3.376901E-15	3.254618E-16
6.920000E+03	3.354930E-15	3.268134E-16
6.930000E+03	3.333802E-15	3.280635E-16
6.940000E+03	3.313345E-15	3.292057E-16
6.950000E+03	3.293656E-15	3.302597E-16
6.960000E+03	3.274628E-15	3.312243E-16
6.970000E+03	3.256221E-15	3.321039E-16
6.980000E+03	3.238325E-15	3.328959E-16
6.990000E+03	3.221039E-15	3.336175E-16
7.000000E+03	3.204188E-15	3.342579E-16
7.010000E+03	3.187802E-15	3.348268E-16
7.020000E+03	3.171846E-15	3.353266E-16
7.030000E+03	3.156221E-15	3.357522E-16
7.040000E+03	3.140894E-15	3.361056E-16
7.050000E+03	3.125905E-15	3.363956E-16
7.060000E+03	3.111226E-15	3.366239E-16
7.070000E+03	3.096766E-15	3.367849E-16
7.080000E+03	3.082504E-15	3.368798E-16
7.090000E+03	3.068419E-15	3.369102E-16
7.100000E+03	3.054495E-15	3.368774E-16
7.110000E+03	3.040717E-15	3.367829E-16
7.120000E+03	3.027138E-15	3.366356E-16
7.130000E+03	3.013614E-15	3.364222E-16
7.140000E+03	3.000205E-15	3.361517E-16
7.150000E+03	2.986969E-15	3.358333E-16
7.160000E+03	2.973704E-15	3.354467E-16
7.170000E+03	2.960608E-15	3.350161E-16
7.180000E+03	2.947548E-15	3.345290E-16
7.190000E+03	2.934594E-15	3.339950E-16
7.200000E+03	2.921684E-15	3.334095E-16
7.210000E+03	2.908893E-15	3.327826E-16
7.220000E+03	2.896162E-15	3.321100E-16
7.230000E+03	2.883505E-15	3.313947E-16
7.240000E+03	2.871000E-15	3.306479E-16
7.250000E+03	2.858595E-15	3.298654E-16
7.260000E+03	2.846309E-15	3.290511E-16
7.270000E+03	2.834223E-15	3.282163E-16
7.280000E+03	2.822226E-15	3.273497E-16
7.290000E+03	2.810403E-15	3.264630E-16
7.300000E+03	2.798772E-15	3.255599E-16
7.310000E+03	2.787354E-15	3.246442E-16
7.320000E+03	2.776167E-15	3.237197E-16
7.330000E+03	2.765229E-15	3.227898E-16
7.340000E+03	2.754494E-15	3.218503E-16
7.350000E+03	2.743976E-15	3.209040E-16
7.360000E+03	2.733757E-15	3.199614E-16
7.370000E+03	2.723848E-15	3.190248E-16
7.380000E+03	2.714131E-15	3.180811E-16
7.390000E+03	2.704746E-15	3.171470E-16
7.400000E+03	2.695636E-15	3.162164E-16
7.410000E+03	2.686805E-15	3.152901E-16
7.420000E+03	2.678195E-15	3.143611E-16
7.430000E+03	2.669938E-15	3.134449E-16
7.440000E+03	2.661905E-15	3.125263E-16
7.450000E+03	2.654163E-15	3.116125E-16
7.460000E+03	2.646712E-15	3.107030E-16
7.470000E+03	2.639484E-15	3.097892E-16
7.480000E+03	2.632610E-15	3.088856E-16
7.490000E+03	2.625957E-15	3.079755E-16
7.500000E+03	2.619653E-15	3.070730E-16
7.510000E+03	2.613631E-15	3.061690E-16
7.520000E+03	2.607888E-15	3.052618E-16
7.530000E+03	2.602488E-15	3.043574E-16
7.540000E+03	2.597361E-15	3.034462E-16
7.550000E+03	2.592571E-15	3.025339E-16
7.560000E+03	2.588112E-15	3.016186E-16
7.570000E+03	2.583982E-15	3.006978E-16
7.580000E+03	2.580174E-15	2.997692E-16
7.590000E+03	2.576615E-15	2.988225E-16
7.600000E+03	2.573432E-15	2.978705E-16
7.610000E+03	2.570548E-15	2.969023E-16
7.620000E+03	2.568020E-15	2.959227E-16
7.630000E+03	2.565700E-15	2.949127E-16
7.640000E+03	2.563710E-15	2.938843E-16
7.650000E+03	2.561966E-15	2.928260E-16
7.660000E+03	2.560520E-15	2.917416E-16
7.670000E+03	2.559283E-15	2.906192E-16
7.680000E+03	2.558304E-15	2.894624E-16
7.690000E+03	2.557492E-15	2.882590E-16
7.700000E+03	2.556823E-15	2.870048E-16
7.710000E+03	2.556344E-15	2.857031E-16
7.720000E+03	2.556031E-15	2.843499E-16
7.730000E+03	2.555789E-15	2.829331E-16
7.740000E+03	2.555665E-15	2.814570E-16
7.750000E+03	2.555564E-15	2.799102E-16
7.760000E+03	2.555535E-15	2.782977E-16
