#wls	flux	fluxerr
1.600000E+03	5.607968E-17	4.601728E-17
1.640000E+03	5.661125E-17	4.582948E-17
1.680000E+03	5.719832E-17	4.567540E-17
1.720000E+03	5.786788E-17	4.557394E-17
1.760000E+03	5.862233E-17	4.552357E-17
1.800000E+03	5.946432E-17	4.552269E-17
1.840000E+03	6.042231E-17	4.558888E-17
1.880000E+03	6.150002E-17	4.571987E-17
1.920000E+03	6.270160E-17	4.591331E-17
1.960000E+03	6.400553E-17	4.614793E-17
2.000000E+03	6.544257E-17	4.644029E-17
2.040000E+03	6.704490E-17	4.680621E-17
2.080000E+03	6.881950E-17	4.724243E-17
2.120000E+03	7.074705E-17	4.772725E-17
2.160000E+03	7.283532E-17	4.825744E-17
2.200000E+03	7.514842E-17	4.886562E-17
2.240000E+03	7.766994E-17	4.952943E-17
2.280000E+03	8.044027E-17	5.026227E-17
2.320000E+03	8.344514E-17	5.104141E-17
2.360000E+03	8.669957E-17	5.186181E-17
2.400000E+03	9.025006E-17	5.273531E-17
2.440000E+03	9.411688E-17	5.365551E-17
2.480000E+03	9.829211E-17	5.459835E-17
2.520000E+03	1.028309E-16	5.557350E-17
2.560000E+03	1.077936E-16	5.658921E-17
2.600000E+03	1.131817E-16	5.761901E-17
2.640000E+03	1.190647E-16	5.866873E-17
2.680000E+03	1.255529E-16	5.975822E-17
2.720000E+03	1.326300E-16	6.084041E-17
2.760000E+03	1.404211E-16	6.193072E-17
2.800000E+03	1.490289E-16	6.302490E-17
2.840000E+03	1.585304E-16	6.409969E-17
2.880000E+03	1.690118E-16	6.512835E-17
2.920000E+03	1.806481E-16	6.610905E-17
2.960000E+03	1.935935E-16	6.701822E-17
3.000000E+03	2.079767E-16	6.781105E-17
3.010000E+03	2.118400E-16	6.799370E-17
3.020000E+03	2.158154E-16	6.816824E-17
3.030000E+03	2.198623E-16	6.832023E-17
3.040000E+03	2.240258E-16	6.846229E-17
3.050000E+03	2.283527E-16	6.860657E-17
3.060000E+03	2.327582E-16	6.872540E-17
3.070000E+03	2.372886E-16	6.883095E-17
3.080000E+03	2.419921E-16	6.893492E-17
3.090000E+03	2.467815E-16	6.901019E-17
3.100000E+03	2.517506E-16	6.908110E-17
3.110000E+03	2.568106E-16	6.912095E-17
3.120000E+03	2.620572E-16	6.915348E-17
3.130000E+03	2.674473E-16	6.916465E-17
3.140000E+03	2.729839E-16	6.915299E-17
3.150000E+03	2.786700E-16	6.911697E-17
3.160000E+03	2.845575E-16	6.906685E-17
3.170000E+03	2.906016E-16	6.898891E-17
3.180000E+03	2.968053E-16	6.888148E-17
3.190000E+03	3.032217E-16	6.875421E-17
3.200000E+03	3.098048E-16	6.859367E-17
3.210000E+03	3.166086E-16	6.840910E-17
3.220000E+03	3.235858E-16	6.818726E-17
3.230000E+03	3.307914E-16	6.793698E-17
3.240000E+03	3.382297E-16	6.765582E-17
3.250000E+03	3.458518E-16	6.733090E-17
3.260000E+03	3.537138E-16	6.697042E-17
3.270000E+03	3.618198E-16	6.657180E-17
3.280000E+03	3.701736E-16	6.613245E-17
3.290000E+03	3.787235E-16	6.564015E-17
3.300000E+03	3.875832E-16	6.511169E-17
3.310000E+03	3.967012E-16	6.453465E-17
3.320000E+03	4.060804E-16	6.390647E-17
3.330000E+03	4.157813E-16	6.323340E-17
3.340000E+03	4.256913E-16	6.249523E-17
3.350000E+03	4.359285E-16	6.170698E-17
3.360000E+03	4.464963E-16	6.086580E-17
3.370000E+03	4.573373E-16	5.996118E-17
3.380000E+03	4.685128E-16	5.899905E-17
3.390000E+03	4.800246E-16	5.797736E-17
3.400000E+03	4.918739E-16	5.689444E-17
3.410000E+03	5.039983E-16	5.574227E-17
3.420000E+03	5.165219E-16	5.453447E-17
3.430000E+03	5.293815E-16	5.326427E-17
3.440000E+03	5.425747E-16	5.193310E-17
3.450000E+03	5.560980E-16	5.054373E-17
3.460000E+03	5.700124E-16	4.910618E-17
3.470000E+03	5.843135E-16	4.762611E-17
3.480000E+03	5.989957E-16	4.611167E-17
3.490000E+03	6.139842E-16	4.456929E-17
3.500000E+03	6.294040E-16	4.302412E-17
3.510000E+03	6.451086E-16	4.148640E-17
3.520000E+03	6.612212E-16	3.999052E-17
3.530000E+03	6.777280E-16	3.856752E-17
3.540000E+03	6.945423E-16	3.725177E-17
3.550000E+03	7.117141E-16	3.609277E-17
3.560000E+03	7.292219E-16	3.514209E-17
3.570000E+03	7.470411E-16	3.445507E-17
3.580000E+03	7.652173E-16	3.408954E-17
3.590000E+03	7.835780E-16	3.408668E-17
3.600000E+03	8.023128E-16	3.448828E-17
3.610000E+03	8.212650E-16	3.529011E-17
3.620000E+03	8.405025E-16	3.647324E-17
3.630000E+03	8.600217E-16	3.800000E-17
3.640000E+03	8.798190E-16	3.982314E-17
3.650000E+03	8.998909E-16	4.189144E-17
3.660000E+03	9.203079E-16	4.415761E-17
3.670000E+03	9.409913E-16	4.657040E-17
3.680000E+03	9.620856E-16	4.909382E-17
3.690000E+03	9.834350E-16	5.168171E-17
3.700000E+03	1.005107E-15	5.430362E-17
3.710000E+03	1.027095E-15	5.692944E-17
3.720000E+03	1.049463E-15	5.953694E-17
3.730000E+03	1.072202E-15	6.210302E-17
3.740000E+03	1.095223E-15	6.460272E-17
3.750000E+03	1.118589E-15	6.702223E-17
3.760000E+03	1.142283E-15	6.934550E-17
3.770000E+03	1.166288E-15	7.155834E-17
3.780000E+03	1.190658E-15	7.365303E-17
3.790000E+03	1.215295E-15	7.561414E-17
3.800000E+03	1.240247E-15	7.743725E-17
3.810000E+03	1.265409E-15	7.911004E-17
3.820000E+03	1.290898E-15	8.063600E-17
3.830000E+03	1.316599E-15	8.200598E-17
3.840000E+03	1.342467E-15	8.321719E-17
3.850000E+03	1.368527E-15	8.427314E-17
3.860000E+03	1.394648E-15	8.516964E-17
3.870000E+03	1.420914E-15	8.591802E-17
3.880000E+03	1.447102E-15	8.651290E-17
3.890000E+03	1.473205E-15	8.696425E-17
3.900000E+03	1.499207E-15	8.728330E-17
3.910000E+03	1.524931E-15	8.747392E-17
3.920000E+03	1.550338E-15	8.754987E-17
3.930000E+03	1.575232E-15	8.751746E-17
3.940000E+03	1.599626E-15	8.739601E-17
3.950000E+03	1.623232E-15	8.718906E-17
3.960000E+03	1.645974E-15	8.691233E-17
3.970000E+03	1.667764E-15	8.658082E-17
3.980000E+03	1.688374E-15	8.620137E-17
3.990000E+03	1.707713E-15	8.578709E-17
4.000000E+03	1.725558E-15	8.534263E-17
4.010000E+03	1.741764E-15	8.487468E-17
4.020000E+03	1.756333E-15	8.439457E-17
4.030000E+03	1.769018E-15	8.389865E-17
4.040000E+03	1.779798E-15	8.339130E-17
4.050000E+03	1.788613E-15	8.287204E-17
4.060000E+03	1.795373E-15	8.233619E-17
4.070000E+03	1.800215E-15	8.178677E-17
4.080000E+03	1.803125E-15	8.121743E-17
4.090000E+03	1.804194E-15	8.062460E-17
4.100000E+03	1.803494E-15	8.000228E-17
4.110000E+03	1.801311E-15	7.935271E-17
4.120000E+03	1.797737E-15	7.866862E-17
4.130000E+03	1.793064E-15	7.795120E-17
4.140000E+03	1.787557E-15	7.720003E-17
4.150000E+03	1.781450E-15	7.641341E-17
4.160000E+03	1.775095E-15	7.559500E-17
4.170000E+03	1.768754E-15	7.474469E-17
4.180000E+03	1.762744E-15	7.386514E-17
4.190000E+03	1.757377E-15	7.295923E-17
4.200000E+03	1.752959E-15	7.202989E-17
4.210000E+03	1.749783E-15	7.107988E-17
4.220000E+03	1.748037E-15	7.010824E-17
4.230000E+03	1.748066E-15	6.912084E-17
4.240000E+03	1.750015E-15	6.811626E-17
4.250000E+03	1.754093E-15	6.709652E-17
4.260000E+03	1.760476E-15	6.606375E-17
4.270000E+03	1.769307E-15	6.502062E-17
4.280000E+03	1.780620E-15	6.396822E-17
4.290000E+03	1.794567E-15	6.291563E-17
4.300000E+03	1.811068E-15	6.186818E-17
4.310000E+03	1.830158E-15	6.084146E-17
4.320000E+03	1.851790E-15	5.985591E-17
4.330000E+03	1.875795E-15	5.893744E-17
4.340000E+03	1.902033E-15	5.812404E-17
4.350000E+03	1.930275E-15	5.746305E-17
4.360000E+03	1.960276E-15	5.701344E-17
4.370000E+03	1.991738E-15	5.684272E-17
4.380000E+03	2.024228E-15	5.702057E-17
4.390000E+03	2.057353E-15	5.761383E-17
4.400000E+03	2.091095E-15	5.863467E-17
4.410000E+03	2.125744E-15	6.003615E-17
4.420000E+03	2.161664E-15	6.176009E-17
4.430000E+03	2.199198E-15	6.374351E-17
4.440000E+03	2.238622E-15	6.592288E-17
4.450000E+03	2.280171E-15	6.823845E-17
4.460000E+03	2.324073E-15	7.063695E-17
4.470000E+03	2.370460E-15	7.306972E-17
4.480000E+03	2.419439E-15	7.549470E-17
4.490000E+03	2.471008E-15	7.787349E-17
4.500000E+03	2.525162E-15	8.017438E-17
4.510000E+03	2.581662E-15	8.236470E-17
4.520000E+03	2.640376E-15	8.442189E-17
4.530000E+03	2.700931E-15	8.632265E-17
4.540000E+03	2.762911E-15	8.804975E-17
4.550000E+03	2.825900E-15	8.959410E-17
4.560000E+03	2.889333E-15	9.095025E-17
4.570000E+03	2.952585E-15	9.211946E-17
4.580000E+03	3.014987E-15	9.311004E-17
4.590000E+03	3.075936E-15	9.394011E-17
4.600000E+03	3.134799E-15	9.463330E-17
4.610000E+03	3.190901E-15	9.521618E-17
4.620000E+03	3.243727E-15	9.572128E-17
4.630000E+03	3.292913E-15	9.618281E-17
4.640000E+03	3.338098E-15	9.662857E-17
4.650000E+03	3.379215E-15	9.708518E-17
4.660000E+03	3.416332E-15	9.757137E-17
4.670000E+03	3.449618E-15	9.809608E-17
4.680000E+03	3.479601E-15	9.866614E-17
4.690000E+03	3.506796E-15	9.927721E-17
4.700000E+03	3.531891E-15	9.992099E-17
4.710000E+03	3.555797E-15	1.005885E-16
4.720000E+03	3.579296E-15	1.012620E-16
4.730000E+03	3.603252E-15	1.019231E-16
4.740000E+03	3.628392E-15	1.025483E-16
4.750000E+03	3.655483E-15	1.031163E-16
4.760000E+03	3.685032E-15	1.036007E-16
4.770000E+03	3.717395E-15	1.039755E-16
4.780000E+03	3.752885E-15	1.042190E-16
4.790000E+03	3.791452E-15	1.043069E-16
4.800000E+03	3.832898E-15	1.042191E-16
4.810000E+03	3.876949E-15	1.039437E-16
4.820000E+03	3.923034E-15	1.034703E-16
4.830000E+03	3.970493E-15	1.027961E-16
4.840000E+03	4.018395E-15	1.019192E-16
4.850000E+03	4.065639E-15	1.008411E-16
4.860000E+03	4.110810E-15	9.956235E-17
4.870000E+03	4.152556E-15	9.809285E-17
4.880000E+03	4.189296E-15	9.644504E-17
4.890000E+03	4.219579E-15	9.464333E-17
4.900000E+03	4.242125E-15	9.272510E-17
4.910000E+03	4.255686E-15	9.073693E-17
4.920000E+03	4.259494E-15	8.874244E-17
4.930000E+03	4.253012E-15	8.681207E-17
4.940000E+03	4.236252E-15	8.502183E-17
4.950000E+03	4.209493E-15	8.343702E-17
4.960000E+03	4.173468E-15	8.210483E-17
4.970000E+03	4.129103E-15	8.104117E-17
4.980000E+03	4.077619E-15	8.023133E-17
4.990000E+03	4.020119E-15	7.962659E-17
5.000000E+03	3.957870E-15	7.915984E-17
5.010000E+03	3.892004E-15	7.875377E-17
5.020000E+03	3.823812E-15	7.834063E-17
5.030000E+03	3.754499E-15	7.786684E-17
5.040000E+03	3.685484E-15	7.730318E-17
5.050000E+03	3.618261E-15	7.664169E-17
5.060000E+03	3.554334E-15	7.589080E-17
5.070000E+03	3.495198E-15	7.507071E-17
5.080000E+03	3.442286E-15	7.420744E-17
5.090000E+03	3.396939E-15	7.332840E-17
5.100000E+03	3.360250E-15	7.245628E-17
5.110000E+03	3.333193E-15	7.161048E-17
5.120000E+03	3.316387E-15	7.080207E-17
5.130000E+03	3.310289E-15	7.003959E-17
5.140000E+03	3.314953E-15	6.932602E-17
5.150000E+03	3.330296E-15	6.866628E-17
5.160000E+03	3.355889E-15	6.806361E-17
5.170000E+03	3.391057E-15	6.752147E-17
5.180000E+03	3.434779E-15	6.704102E-17
5.190000E+03	3.485904E-15	6.662436E-17
5.200000E+03	3.542997E-15	6.627025E-17
5.210000E+03	3.604591E-15	6.597722E-17
5.220000E+03	3.669176E-15	6.574126E-17
5.230000E+03	3.735368E-15	6.555614E-17
5.240000E+03	3.801921E-15	6.541027E-17
5.250000E+03	3.867823E-15	6.528543E-17
5.260000E+03	3.932367E-15	6.515650E-17
5.270000E+03	3.995098E-15	6.499353E-17
5.280000E+03	4.055721E-15	6.476851E-17
5.290000E+03	4.114013E-15	6.446459E-17
5.300000E+03	4.169907E-15	6.408452E-17
5.310000E+03	4.223217E-15	6.364727E-17
5.320000E+03	4.273662E-15	6.318326E-17
5.330000E+03	4.320891E-15	6.272569E-17
5.340000E+03	4.364399E-15	6.229972E-17
5.350000E+03	4.403599E-15	6.191365E-17
5.360000E+03	4.437927E-15	6.155241E-17
5.370000E+03	4.466828E-15	6.117406E-17
5.380000E+03	4.489935E-15	6.071351E-17
5.390000E+03	4.507010E-15	6.008981E-17
5.400000E+03	4.518226E-15	5.922626E-17
5.410000E+03	4.523927E-15	5.806632E-17
5.420000E+03	4.524862E-15	5.659035E-17
5.430000E+03	4.522038E-15	5.481905E-17
5.440000E+03	4.516708E-15	5.281437E-17
5.450000E+03	4.510312E-15	5.068337E-17
5.460000E+03	4.504219E-15	4.858890E-17
5.470000E+03	4.499606E-15	4.676571E-17
5.480000E+03	4.497418E-15	4.552563E-17
5.490000E+03	4.498230E-15	4.522451E-17
5.500000E+03	4.501849E-15	4.604739E-17
5.510000E+03	4.505843E-15	4.770441E-17
5.520000E+03	4.507691E-15	4.982026E-17
5.530000E+03	4.505675E-15	5.208503E-17
5.540000E+03	4.498926E-15	5.427945E-17
5.550000E+03	4.487743E-15	5.627157E-17
5.560000E+03	4.473239E-15	5.799394E-17
5.570000E+03	4.457414E-15	5.942689E-17
5.580000E+03	4.442763E-15	6.058174E-17
5.590000E+03	4.431677E-15	6.148532E-17
5.600000E+03	4.426349E-15	6.217337E-17
5.610000E+03	4.428080E-15	6.267729E-17
5.620000E+03	4.437282E-15	6.302175E-17
5.630000E+03	4.453302E-15	6.322187E-17
5.640000E+03	4.474306E-15	6.328379E-17
5.650000E+03	4.497553E-15	6.321232E-17
5.660000E+03	4.519577E-15	6.301674E-17
5.670000E+03	4.536663E-15	6.271892E-17
5.680000E+03	4.545281E-15	6.235584E-17
5.690000E+03	4.542535E-15	6.197649E-17
5.700000E+03	4.526722E-15	6.163509E-17
5.710000E+03	4.497405E-15	6.137549E-17
5.720000E+03	4.455741E-15	6.122558E-17
5.730000E+03	4.404055E-15	6.119346E-17
5.740000E+03	4.345583E-15	6.127333E-17
5.750000E+03	4.283988E-15	6.144984E-17
5.760000E+03	4.222881E-15	6.170299E-17
5.770000E+03	4.165707E-15	6.201593E-17
5.780000E+03	4.115391E-15	6.237483E-17
5.790000E+03	4.074236E-15	6.276898E-17
5.800000E+03	4.044080E-15	6.319246E-17
5.810000E+03	4.026271E-15	6.364130E-17
5.820000E+03	4.021506E-15	6.410798E-17
5.830000E+03	4.030044E-15	6.458222E-17
5.840000E+03	4.051434E-15	6.504587E-17
5.850000E+03	4.084724E-15	6.547810E-17
5.860000E+03	4.128214E-15	6.585521E-17
5.870000E+03	4.179714E-15	6.615853E-17
5.880000E+03	4.236424E-15	6.637490E-17
5.890000E+03	4.295189E-15	6.650084E-17
5.900000E+03	4.352581E-15	6.654093E-17
5.910000E+03	4.405403E-15	6.650959E-17
5.920000E+03	4.450614E-15	6.642050E-17
5.930000E+03	4.486011E-15	6.628659E-17
5.940000E+03	4.509990E-15	6.610825E-17
5.950000E+03	4.522050E-15	6.587561E-17
5.960000E+03	4.522363E-15	6.556302E-17
5.970000E+03	4.511865E-15	6.513894E-17
5.980000E+03	4.491934E-15	6.457428E-17
5.990000E+03	4.464118E-15	6.385190E-17
6.000000E+03	4.430037E-15	6.297707E-17
6.010000E+03	4.391190E-15	6.198169E-17
6.020000E+03	4.348976E-15	6.092417E-17
6.030000E+03	4.304606E-15	5.987967E-17
6.040000E+03	4.259237E-15	5.892777E-17
6.050000E+03	4.213823E-15	5.813551E-17
6.060000E+03	4.169150E-15	5.754612E-17
6.070000E+03	4.126008E-15	5.717291E-17
6.080000E+03	4.084871E-15	5.699297E-17
6.090000E+03	4.045975E-15	5.695488E-17
6.100000E+03	4.009305E-15	5.698930E-17
6.110000E+03	3.974728E-15	5.702136E-17
6.120000E+03	3.941834E-15	5.697736E-17
6.130000E+03	3.910329E-15	5.679766E-17
6.140000E+03	3.879975E-15	5.644039E-17
6.150000E+03	3.850761E-15	5.588670E-17
6.160000E+03	3.823052E-15	5.514406E-17
6.170000E+03	3.797350E-15	5.424255E-17
6.180000E+03	3.774382E-15	5.323468E-17
6.190000E+03	3.754823E-15	5.218816E-17
6.200000E+03	3.739244E-15	5.118008E-17
6.210000E+03	3.727990E-15	5.028768E-17
6.220000E+03	3.720875E-15	4.957416E-17
6.230000E+03	3.717315E-15	4.907996E-17
6.240000E+03	3.716287E-15	4.881251E-17
6.250000E+03	3.716519E-15	4.874107E-17
6.260000E+03	3.716575E-15	4.879801E-17
6.270000E+03	3.714897E-15	4.889232E-17
6.280000E+03	3.709922E-15	4.893071E-17
6.290000E+03	3.700082E-15	4.883491E-17
6.300000E+03	3.683820E-15	4.855369E-17
6.310000E+03	3.659808E-15	4.807175E-17
6.320000E+03	3.626814E-15	4.740844E-17
6.330000E+03	3.584119E-15	4.661881E-17
6.340000E+03	3.531549E-15	4.578299E-17
6.350000E+03	3.469830E-15	4.499308E-17
6.360000E+03	3.400635E-15	4.433062E-17
6.370000E+03	3.326817E-15	4.384658E-17
6.380000E+03	3.252134E-15	4.354885E-17
6.390000E+03	3.181019E-15	4.341187E-17
6.400000E+03	3.118102E-15	4.339436E-17
6.410000E+03	3.067820E-15	4.345439E-17
6.420000E+03	3.034111E-15	4.355671E-17
6.430000E+03	3.020356E-15	4.367563E-17
6.440000E+03	3.029163E-15	4.379044E-17
6.450000E+03	3.062568E-15	4.388508E-17
6.460000E+03	3.121853E-15	4.394400E-17
6.470000E+03	3.207668E-15	4.395727E-17
6.480000E+03	3.319821E-15	4.392841E-17
6.490000E+03	3.457183E-15	4.389334E-17
6.500000E+03	3.617423E-15	4.394819E-17
6.510000E+03	3.796911E-15	4.428495E-17
6.520000E+03	3.990645E-15	4.521454E-17
6.530000E+03	4.192551E-15	4.713848E-17
6.540000E+03	4.394514E-15	5.019989E-17
6.550000E+03	4.586456E-15	5.405831E-17
6.560000E+03	4.758116E-15	5.824573E-17
6.570000E+03	4.900244E-15	6.229046E-17
6.580000E+03	5.005474E-15	6.578528E-17
6.590000E+03	5.069118E-15	6.843036E-17
6.600000E+03	5.089400E-15	7.005303E-17
6.610000E+03	5.067636E-15	7.061482E-17
6.620000E+03	5.007809E-15	7.019920E-17
6.630000E+03	4.915971E-15	6.898673E-17
6.640000E+03	4.799253E-15	6.721655E-17
6.650000E+03	4.665214E-15	6.514797E-17
6.660000E+03	4.521039E-15	6.301972E-17
6.670000E+03	4.373035E-15	6.101841E-17
6.680000E+03	4.226086E-15	5.925940E-17
6.690000E+03	4.083882E-15	5.779216E-17
6.700000E+03	3.948769E-15	5.660784E-17
6.710000E+03	3.821994E-15	5.565522E-17
6.720000E+03	3.703963E-15	5.485926E-17
6.730000E+03	3.594507E-15	5.413865E-17
6.740000E+03	3.493067E-15	5.341818E-17
6.750000E+03	3.399034E-15	5.264026E-17
6.760000E+03	3.311528E-15	5.176527E-17
6.770000E+03	3.229932E-15	5.078050E-17
6.780000E+03	3.153444E-15	4.969139E-17
6.790000E+03	3.081542E-15	4.852469E-17
6.800000E+03	3.013721E-15	4.731792E-17
6.810000E+03	2.949506E-15	4.611149E-17
6.820000E+03	2.888690E-15	4.494360E-17
6.830000E+03	2.831084E-15	4.383951E-17
6.840000E+03	2.776689E-15	4.281099E-17
6.850000E+03	2.725671E-15	4.185652E-17
6.860000E+03	2.678365E-15	4.096597E-17
6.870000E+03	2.635217E-15	4.012838E-17
6.880000E+03	2.596883E-15	3.934215E-17
6.890000E+03	2.563914E-15	3.861533E-17
6.900000E+03	2.537067E-15	3.797054E-17
6.910000E+03	2.516855E-15	3.743550E-17
6.920000E+03	2.503850E-15	3.704529E-17
6.930000E+03	2.498362E-15	3.683760E-17
6.940000E+03	2.500522E-15	3.685503E-17
6.950000E+03	2.510229E-15	3.714487E-17
6.960000E+03	2.527002E-15	3.775523E-17
6.970000E+03	2.550171E-15	3.873192E-17
6.980000E+03	2.578740E-15	4.010642E-17
6.990000E+03	2.611626E-15	4.188738E-17
7.000000E+03	2.647484E-15	4.404705E-17
7.010000E+03	2.685140E-15	4.652397E-17
7.020000E+03	2.723422E-15	4.922743E-17
7.030000E+03	2.761208E-15	5.205279E-17
7.040000E+03	2.797667E-15	5.490079E-17
7.050000E+03	2.831997E-15	5.768247E-17
7.060000E+03	2.863725E-15	6.032970E-17
7.070000E+03	2.892410E-15	6.279038E-17
7.080000E+03	2.917904E-15	6.503278E-17
7.090000E+03	2.940143E-15	6.703948E-17
7.100000E+03	2.959286E-15	6.880810E-17
7.110000E+03	2.975531E-15	7.034503E-17
7.120000E+03	2.989205E-15	7.166534E-17
7.130000E+03	3.000734E-15	7.279039E-17
7.140000E+03	3.010450E-15	7.374157E-17
7.150000E+03	3.018808E-15	7.454434E-17
7.160000E+03	3.026200E-15	7.522278E-17
7.170000E+03	3.032977E-15	7.579953E-17
7.180000E+03	3.039399E-15	7.629404E-17
7.190000E+03	3.045714E-15	7.672431E-17
7.200000E+03	3.052156E-15	7.710672E-17
7.210000E+03	3.058825E-15	7.745289E-17
7.220000E+03	3.065814E-15	7.777287E-17
7.230000E+03	3.073212E-15	7.807529E-17
7.240000E+03	3.080937E-15	7.836309E-17
7.250000E+03	3.088986E-15	7.864010E-17
7.260000E+03	3.097223E-15	7.890565E-17
7.270000E+03	3.105543E-15	7.915912E-17
7.280000E+03	3.113703E-15	7.939564E-17
7.290000E+03	3.121494E-15	7.961076E-17
7.300000E+03	3.128577E-15	7.979631E-17
7.310000E+03	3.134614E-15	7.994410E-17
7.320000E+03	3.139291E-15	8.004639E-17
7.330000E+03	3.142149E-15	8.009184E-17
7.340000E+03	3.142868E-15	8.007278E-17
7.350000E+03	3.141063E-15	7.997998E-17
7.360000E+03	3.136517E-15	7.980883E-17
7.370000E+03	3.128881E-15	7.955161E-17
7.380000E+03	3.117955E-15	7.920462E-17
7.390000E+03	3.103646E-15	7.876721E-17
7.400000E+03	3.085885E-15	7.823950E-17
7.410000E+03	3.064632E-15	7.762254E-17
7.420000E+03	3.039965E-15	7.692048E-17
7.430000E+03	3.012080E-15	7.614052E-17
7.440000E+03	2.981200E-15	7.529056E-17
7.450000E+03	2.947568E-15	7.437904E-17
7.460000E+03	2.911618E-15	7.341897E-17
7.470000E+03	2.873702E-15	7.242097E-17
7.480000E+03	2.834250E-15	7.139709E-17
7.490000E+03	2.793723E-15	7.035911E-17
7.500000E+03	2.752639E-15	6.931894E-17
7.510000E+03	2.711403E-15	6.828407E-17
7.520000E+03	2.670596E-15	6.726442E-17
7.530000E+03	2.630640E-15	6.626421E-17
7.540000E+03	2.592087E-15	6.528919E-17
7.550000E+03	2.555453E-15	6.434306E-17
7.560000E+03	2.521246E-15	6.342894E-17
7.570000E+03	2.489997E-15	6.255089E-17
7.580000E+03	2.462090E-15	6.171047E-17
7.590000E+03	2.438038E-15	6.091467E-17
7.600000E+03	2.418091E-15	6.016643E-17
7.610000E+03	2.402474E-15	5.947109E-17
7.620000E+03	2.391371E-15	5.883581E-17
7.630000E+03	2.384697E-15	5.826352E-17
7.640000E+03	2.382391E-15	5.775951E-17
7.650000E+03	2.384204E-15	5.732530E-17
7.660000E+03	2.389714E-15	5.695817E-17
7.670000E+03	2.398605E-15	5.665708E-17
7.680000E+03	2.410317E-15	5.641362E-17
7.690000E+03	2.424404E-15	5.622026E-17
7.700000E+03	2.440248E-15	5.606359E-17
7.710000E+03	2.457382E-15	5.593212E-17
7.720000E+03	2.475229E-15	5.581078E-17
7.730000E+03	2.493273E-15	5.568534E-17
7.740000E+03	2.511106E-15	5.554414E-17
7.750000E+03	2.528207E-15	5.537350E-17
7.760000E+03	2.544191E-15	5.516362E-17
