#wls	flux	fluxerr
1.600000E+03	5.034981E-17	4.979979E-17
1.640000E+03	5.085778E-17	4.970344E-17
1.680000E+03	5.138036E-17	4.959582E-17
1.720000E+03	5.193472E-17	4.949189E-17
1.760000E+03	5.252108E-17	4.938978E-17
1.800000E+03	5.313982E-17	4.928762E-17
1.840000E+03	5.379138E-17	4.918356E-17
1.880000E+03	5.447639E-17	4.907576E-17
1.920000E+03	5.519559E-17	4.896239E-17
1.960000E+03	5.594993E-17	4.884165E-17
2.000000E+03	5.674053E-17	4.871177E-17
2.040000E+03	5.756875E-17	4.857101E-17
2.080000E+03	5.843617E-17	4.841767E-17
2.120000E+03	5.934469E-17	4.825007E-17
2.160000E+03	6.029649E-17	4.806662E-17
2.200000E+03	6.129415E-17	4.786573E-17
2.240000E+03	6.234064E-17	4.764593E-17
2.280000E+03	6.343939E-17	4.740574E-17
2.320000E+03	6.459440E-17	4.714381E-17
2.360000E+03	6.579456E-17	4.684763E-17
2.400000E+03	6.706087E-17	4.652772E-17
2.440000E+03	6.838373E-17	4.617231E-17
2.480000E+03	6.978579E-17	4.579143E-17
2.520000E+03	7.127505E-17	4.538401E-17
2.560000E+03	7.282927E-17	4.492958E-17
2.600000E+03	7.449040E-17	4.444769E-17
2.640000E+03	7.625480E-17	4.392821E-17
2.680000E+03	7.815226E-17	4.337977E-17
2.720000E+03	8.015096E-17	4.277559E-17
2.760000E+03	8.231715E-17	4.214182E-17
2.800000E+03	8.463994E-17	4.146106E-17
2.840000E+03	8.716003E-17	4.074104E-17
2.880000E+03	8.988941E-17	3.997314E-17
2.920000E+03	9.286072E-17	3.915657E-17
2.960000E+03	9.612922E-17	3.829677E-17
3.000000E+03	9.972261E-17	3.738414E-17
3.010000E+03	1.006909E-16	3.715227E-17
3.020000E+03	1.016837E-16	3.691675E-17
3.030000E+03	1.027020E-16	3.667751E-17
3.040000E+03	1.037467E-16	3.643447E-17
3.050000E+03	1.048189E-16	3.618758E-17
3.060000E+03	1.059378E-16	3.594291E-17
3.070000E+03	1.070865E-16	3.569408E-17
3.080000E+03	1.082662E-16	3.544099E-17
3.090000E+03	1.094966E-16	3.518951E-17
3.100000E+03	1.107607E-16	3.493344E-17
3.110000E+03	1.120787E-16	3.467848E-17
3.120000E+03	1.134142E-16	3.441281E-17
3.130000E+03	1.148257E-16	3.415356E-17
3.140000E+03	1.162771E-16	3.388896E-17
3.150000E+03	1.177698E-16	3.361887E-17
3.160000E+03	1.193251E-16	3.334863E-17
3.170000E+03	1.209451E-16	3.307788E-17
3.180000E+03	1.226322E-16	3.280624E-17
3.190000E+03	1.243686E-16	3.252810E-17
3.200000E+03	1.261765E-16	3.224847E-17
3.210000E+03	1.280381E-16	3.196187E-17
3.220000E+03	1.299967E-16	3.167819E-17
3.230000E+03	1.320351E-16	3.139187E-17
3.240000E+03	1.341350E-16	3.109763E-17
3.250000E+03	1.363414E-16	3.080493E-17
3.260000E+03	1.386152E-16	3.050370E-17
3.270000E+03	1.410026E-16	3.020311E-17
3.280000E+03	1.434858E-16	2.989797E-17
3.290000E+03	1.460683E-16	2.958796E-17
3.300000E+03	1.487541E-16	2.927273E-17
3.310000E+03	1.515699E-16	2.895636E-17
3.320000E+03	1.544975E-16	2.863408E-17
3.330000E+03	1.575412E-16	2.830567E-17
3.340000E+03	1.607293E-16	2.797512E-17
3.350000E+03	1.640672E-16	2.764212E-17
3.360000E+03	1.675364E-16	2.730249E-17
3.370000E+03	1.711667E-16	2.696025E-17
3.380000E+03	1.749392E-16	2.661165E-17
3.390000E+03	1.789101E-16	2.626458E-17
3.400000E+03	1.830357E-16	2.591193E-17
3.410000E+03	1.873740E-16	2.556173E-17
3.420000E+03	1.918803E-16	2.520775E-17
3.430000E+03	1.966146E-16	2.485834E-17
3.440000E+03	2.015585E-16	2.451167E-17
3.450000E+03	2.067198E-16	2.416997E-17
3.460000E+03	2.121346E-16	2.383919E-17
3.470000E+03	2.177840E-16	2.351948E-17
3.480000E+03	2.237054E-16	2.321805E-17
3.490000E+03	2.299089E-16	2.293971E-17
3.500000E+03	2.363745E-16	2.268734E-17
3.510000E+03	2.431417E-16	2.247066E-17
3.520000E+03	2.502522E-16	2.230018E-17
3.530000E+03	2.576863E-16	2.218173E-17
3.540000E+03	2.654547E-16	2.212489E-17
3.550000E+03	2.735679E-16	2.213992E-17
3.560000E+03	2.820698E-16	2.224008E-17
3.570000E+03	2.909383E-16	2.243325E-17
3.580000E+03	3.002181E-16	2.273201E-17
3.590000E+03	3.099208E-16	2.314515E-17
3.600000E+03	3.200574E-16	2.367969E-17
3.610000E+03	3.306016E-16	2.433778E-17
3.620000E+03	3.415986E-16	2.512446E-17
3.630000E+03	3.530956E-16	2.604262E-17
3.640000E+03	3.650638E-16	2.708746E-17
3.650000E+03	3.774704E-16	2.825213E-17
3.660000E+03	3.904400E-16	2.954013E-17
3.670000E+03	4.038576E-16	3.093594E-17
3.680000E+03	4.178075E-16	3.243827E-17
3.690000E+03	4.322928E-16	3.403921E-17
3.700000E+03	4.473143E-16	3.573027E-17
3.710000E+03	4.628267E-16	3.749895E-17
3.720000E+03	4.788690E-16	3.933931E-17
3.730000E+03	4.954350E-16	4.124165E-17
3.740000E+03	5.125157E-16	4.319593E-17
3.750000E+03	5.301464E-16	4.519578E-17
3.760000E+03	5.482656E-16	4.722654E-17
3.770000E+03	5.668540E-16	4.927702E-17
3.780000E+03	5.859387E-16	5.134000E-17
3.790000E+03	6.054952E-16	5.340381E-17
3.800000E+03	6.254429E-16	5.545183E-17
3.810000E+03	6.458508E-16	5.748069E-17
3.820000E+03	6.665772E-16	5.946850E-17
3.830000E+03	6.876843E-16	6.141175E-17
3.840000E+03	7.090722E-16	6.329273E-17
3.850000E+03	7.307429E-16	6.510331E-17
3.860000E+03	7.525850E-16	6.682573E-17
3.870000E+03	7.745913E-16	6.845227E-17
3.880000E+03	7.966956E-16	6.997073E-17
3.890000E+03	8.188261E-16	7.136946E-17
3.900000E+03	8.409062E-16	7.263756E-17
3.910000E+03	8.629125E-16	7.377006E-17
3.920000E+03	8.847018E-16	7.475319E-17
3.930000E+03	9.062426E-16	7.558442E-17
3.940000E+03	9.274417E-16	7.625780E-17
3.950000E+03	9.482027E-16	7.676912E-17
3.960000E+03	9.684265E-16	7.711610E-17
3.970000E+03	9.880123E-16	7.729856E-17
3.980000E+03	1.006917E-15	7.732300E-17
3.990000E+03	1.024980E-15	7.718899E-17
4.000000E+03	1.042218E-15	7.691162E-17
4.010000E+03	1.058417E-15	7.649048E-17
4.020000E+03	1.073601E-15	7.594434E-17
4.030000E+03	1.087625E-15	7.528087E-17
4.040000E+03	1.100413E-15	7.451343E-17
4.050000E+03	1.111956E-15	7.366007E-17
4.060000E+03	1.122204E-15	7.273535E-17
4.070000E+03	1.131177E-15	7.175743E-17
4.080000E+03	1.138747E-15	7.073372E-17
4.090000E+03	1.145030E-15	6.968499E-17
4.100000E+03	1.150047E-15	6.862411E-17
4.110000E+03	1.153791E-15	6.756011E-17
4.120000E+03	1.156428E-15	6.651024E-17
4.130000E+03	1.157988E-15	6.548161E-17
4.140000E+03	1.158567E-15	6.448353E-17
4.150000E+03	1.158326E-15	6.352692E-17
4.160000E+03	1.157338E-15	6.261626E-17
4.170000E+03	1.155829E-15	6.176257E-17
4.180000E+03	1.153850E-15	6.096568E-17
4.190000E+03	1.151637E-15	6.023394E-17
4.200000E+03	1.149337E-15	5.956965E-17
4.210000E+03	1.147060E-15	5.897208E-17
4.220000E+03	1.144997E-15	5.844415E-17
4.230000E+03	1.143292E-15	5.798604E-17
4.240000E+03	1.142083E-15	5.759761E-17
4.250000E+03	1.141538E-15	5.728054E-17
4.260000E+03	1.141741E-15	5.703263E-17
4.270000E+03	1.142841E-15	5.685557E-17
4.280000E+03	1.144945E-15	5.674930E-17
4.290000E+03	1.148116E-15	5.671222E-17
4.300000E+03	1.152520E-15	5.674811E-17
4.310000E+03	1.158216E-15	5.685577E-17
4.320000E+03	1.165332E-15	5.703768E-17
4.330000E+03	1.173934E-15	5.729344E-17
4.340000E+03	1.184130E-15	5.762490E-17
4.350000E+03	1.196098E-15	5.803776E-17
4.360000E+03	1.209871E-15	5.853087E-17
4.370000E+03	1.225683E-15	5.911352E-17
4.380000E+03	1.243625E-15	5.978854E-17
4.390000E+03	1.263868E-15	6.056317E-17
4.400000E+03	1.286627E-15	6.144739E-17
4.410000E+03	1.312102E-15	6.245087E-17
4.420000E+03	1.340447E-15	6.358133E-17
4.430000E+03	1.371951E-15	6.485314E-17
4.440000E+03	1.406788E-15	6.627509E-17
4.450000E+03	1.445228E-15	6.786024E-17
4.460000E+03	1.487446E-15	6.961642E-17
4.470000E+03	1.533693E-15	7.155430E-17
4.480000E+03	1.584097E-15	7.367765E-17
4.490000E+03	1.638801E-15	7.598978E-17
4.500000E+03	1.697850E-15	7.848808E-17
4.510000E+03	1.761196E-15	8.116453E-17
4.520000E+03	1.828644E-15	8.400328E-17
4.530000E+03	1.899927E-15	8.698467E-17
4.540000E+03	1.974557E-15	9.007867E-17
4.550000E+03	2.051909E-15	9.324966E-17
4.560000E+03	2.131224E-15	9.645722E-17
4.570000E+03	2.211583E-15	9.965561E-17
4.580000E+03	2.291878E-15	1.027936E-16
4.590000E+03	2.370968E-15	1.058218E-16
4.600000E+03	2.447515E-15	1.086859E-16
4.610000E+03	2.520281E-15	1.113396E-16
4.620000E+03	2.588022E-15	1.137403E-16
4.630000E+03	2.649470E-15	1.158468E-16
4.640000E+03	2.703725E-15	1.176361E-16
4.650000E+03	2.749939E-15	1.190882E-16
4.660000E+03	2.787614E-15	1.201982E-16
4.670000E+03	2.816466E-15	1.209693E-16
4.680000E+03	2.836604E-15	1.214194E-16
4.690000E+03	2.848404E-15	1.215752E-16
4.700000E+03	2.852478E-15	1.214706E-16
4.710000E+03	2.849759E-15	1.211494E-16
4.720000E+03	2.841279E-15	1.206560E-16
4.730000E+03	2.828225E-15	1.200387E-16
4.740000E+03	2.811802E-15	1.193435E-16
4.750000E+03	2.793279E-15	1.186174E-16
4.760000E+03	2.773794E-15	1.179011E-16
4.770000E+03	2.754383E-15	1.172308E-16
4.780000E+03	2.736030E-15	1.166415E-16
4.790000E+03	2.719495E-15	1.161596E-16
4.800000E+03	2.705383E-15	1.158065E-16
4.810000E+03	2.694163E-15	1.155984E-16
4.820000E+03	2.686170E-15	1.155463E-16
4.830000E+03	2.681439E-15	1.156478E-16
4.840000E+03	2.680007E-15	1.158997E-16
4.850000E+03	2.681698E-15	1.162877E-16
4.860000E+03	2.686202E-15	1.167906E-16
4.870000E+03	2.693132E-15	1.173821E-16
4.880000E+03	2.701980E-15	1.180300E-16
4.890000E+03	2.712210E-15	1.187004E-16
4.900000E+03	2.723247E-15	1.193581E-16
4.910000E+03	2.734477E-15	1.199667E-16
4.920000E+03	2.745359E-15	1.204938E-16
4.930000E+03	2.755299E-15	1.209056E-16
4.940000E+03	2.763850E-15	1.211755E-16
4.950000E+03	2.770612E-15	1.212795E-16
4.960000E+03	2.775277E-15	1.211986E-16
4.970000E+03	2.777631E-15	1.209190E-16
4.980000E+03	2.777564E-15	1.204331E-16
4.990000E+03	2.775059E-15	1.197401E-16
5.000000E+03	2.770251E-15	1.188487E-16
5.010000E+03	2.763240E-15	1.177703E-16
5.020000E+03	2.754323E-15	1.165285E-16
5.030000E+03	2.743833E-15	1.151528E-16
5.040000E+03	2.732115E-15	1.136763E-16
5.050000E+03	2.719630E-15	1.121393E-16
5.060000E+03	2.706866E-15	1.105841E-16
5.070000E+03	2.694445E-15	1.090576E-16
5.080000E+03	2.682883E-15	1.075998E-16
5.090000E+03	2.672861E-15	1.062537E-16
5.100000E+03	2.664953E-15	1.050528E-16
5.110000E+03	2.659798E-15	1.040283E-16
5.120000E+03	2.657939E-15	1.032027E-16
5.130000E+03	2.659875E-15	1.025927E-16
5.140000E+03	2.666016E-15	1.022092E-16
5.150000E+03	2.676660E-15	1.020573E-16
5.160000E+03	2.691983E-15	1.021373E-16
5.170000E+03	2.712005E-15	1.024441E-16
5.180000E+03	2.736679E-15	1.029704E-16
5.190000E+03	2.765792E-15	1.037031E-16
5.200000E+03	2.799094E-15	1.046267E-16
5.210000E+03	2.836177E-15	1.057184E-16
5.220000E+03	2.876726E-15	1.069558E-16
5.230000E+03	2.920227E-15	1.083057E-16
5.240000E+03	2.966268E-15	1.097344E-16
5.250000E+03	3.014446E-15	1.112047E-16
5.260000E+03	3.064276E-15	1.126733E-16
5.270000E+03	3.115382E-15	1.140987E-16
5.280000E+03	3.167405E-15	1.154400E-16
5.290000E+03	3.219900E-15	1.166547E-16
5.300000E+03	3.272496E-15	1.177061E-16
5.310000E+03	3.324856E-15	1.185639E-16
5.320000E+03	3.376615E-15	1.192030E-16
5.330000E+03	3.427405E-15	1.196054E-16
5.340000E+03	3.476784E-15	1.197588E-16
5.350000E+03	3.524454E-15	1.196635E-16
5.360000E+03	3.570015E-15	1.193245E-16
5.370000E+03	3.613115E-15	1.187554E-16
5.380000E+03	3.653426E-15	1.179772E-16
5.390000E+03	3.690652E-15	1.170176E-16
5.400000E+03	3.724507E-15	1.159094E-16
5.410000E+03	3.754803E-15	1.146929E-16
5.420000E+03	3.781467E-15	1.134159E-16
5.430000E+03	3.804430E-15	1.121300E-16
5.440000E+03	3.823710E-15	1.108930E-16
5.450000E+03	3.839483E-15	1.097695E-16
5.460000E+03	3.851914E-15	1.088240E-16
5.470000E+03	3.861245E-15	1.081190E-16
5.480000E+03	3.867683E-15	1.077049E-16
5.490000E+03	3.871511E-15	1.076149E-16
5.500000E+03	3.872785E-15	1.078490E-16
5.510000E+03	3.871671E-15	1.083827E-16
5.520000E+03	3.868094E-15	1.091625E-16
5.530000E+03	3.862095E-15	1.101267E-16
5.540000E+03	3.853577E-15	1.112080E-16
5.550000E+03	3.842659E-15	1.123502E-16
5.560000E+03	3.829571E-15	1.135089E-16
5.570000E+03	3.814660E-15	1.146534E-16
5.580000E+03	3.798328E-15	1.157640E-16
5.590000E+03	3.781102E-15	1.168330E-16
5.600000E+03	3.763397E-15	1.178565E-16
5.610000E+03	3.745678E-15	1.188376E-16
5.620000E+03	3.728258E-15	1.197789E-16
5.630000E+03	3.711225E-15	1.206792E-16
5.640000E+03	3.694569E-15	1.215367E-16
5.650000E+03	3.678113E-15	1.223458E-16
5.660000E+03	3.661514E-15	1.230965E-16
5.670000E+03	3.644389E-15	1.237774E-16
5.680000E+03	3.626282E-15	1.243743E-16
5.690000E+03	3.606939E-15	1.248789E-16
5.700000E+03	3.586044E-15	1.252790E-16
5.710000E+03	3.563706E-15	1.255754E-16
5.720000E+03	3.540027E-15	1.257673E-16
5.730000E+03	3.515505E-15	1.258668E-16
5.740000E+03	3.490825E-15	1.258927E-16
5.750000E+03	3.466789E-15	1.258688E-16
5.760000E+03	3.444374E-15	1.258267E-16
5.770000E+03	3.424706E-15	1.258059E-16
5.780000E+03	3.408813E-15	1.258449E-16
5.790000E+03	3.397826E-15	1.259884E-16
5.800000E+03	3.392731E-15	1.262779E-16
5.810000E+03	3.394354E-15	1.267500E-16
5.820000E+03	3.403423E-15	1.274381E-16
5.830000E+03	3.420314E-15	1.283619E-16
5.840000E+03	3.445208E-15	1.295330E-16
5.850000E+03	3.477968E-15	1.309494E-16
5.860000E+03	3.518048E-15	1.325933E-16
5.870000E+03	3.564581E-15	1.344337E-16
5.880000E+03	3.616363E-15	1.364277E-16
5.890000E+03	3.671931E-15	1.385235E-16
5.900000E+03	3.729571E-15	1.406618E-16
5.910000E+03	3.787377E-15	1.427784E-16
5.920000E+03	3.843557E-15	1.448155E-16
5.930000E+03	3.896323E-15	1.467165E-16
5.940000E+03	3.944160E-15	1.484362E-16
5.950000E+03	3.985754E-15	1.499358E-16
5.960000E+03	4.020251E-15	1.511927E-16
5.970000E+03	4.047150E-15	1.521952E-16
5.980000E+03	4.066323E-15	1.529430E-16
5.990000E+03	4.077950E-15	1.534452E-16
6.000000E+03	4.082551E-15	1.537209E-16
6.010000E+03	4.080789E-15	1.537925E-16
6.020000E+03	4.073464E-15	1.536852E-16
6.030000E+03	4.061510E-15	1.534269E-16
6.040000E+03	4.045845E-15	1.530429E-16
6.050000E+03	4.027322E-15	1.525537E-16
6.060000E+03	4.006796E-15	1.519783E-16
6.070000E+03	3.984937E-15	1.513276E-16
6.080000E+03	3.962410E-15	1.506123E-16
6.090000E+03	3.939706E-15	1.498378E-16
6.100000E+03	3.917235E-15	1.490090E-16
6.110000E+03	3.895299E-15	1.481304E-16
6.120000E+03	3.874128E-15	1.472080E-16
6.130000E+03	3.853742E-15	1.462445E-16
6.140000E+03	3.834271E-15	1.452506E-16
6.150000E+03	3.815603E-15	1.442307E-16
6.160000E+03	3.797733E-15	1.431945E-16
6.170000E+03	3.780537E-15	1.421462E-16
6.180000E+03	3.763920E-15	1.410889E-16
6.190000E+03	3.747676E-15	1.400178E-16
6.200000E+03	3.731713E-15	1.389281E-16
6.210000E+03	3.715748E-15	1.378041E-16
6.220000E+03	3.699536E-15	1.366284E-16
6.230000E+03	3.682805E-15	1.353815E-16
6.240000E+03	3.665195E-15	1.340409E-16
6.250000E+03	3.646326E-15	1.325858E-16
6.260000E+03	3.625790E-15	1.309977E-16
6.270000E+03	3.603260E-15	1.292661E-16
6.280000E+03	3.578371E-15	1.273839E-16
6.290000E+03	3.550809E-15	1.253509E-16
6.300000E+03	3.520379E-15	1.231748E-16
6.310000E+03	3.486976E-15	1.208692E-16
6.320000E+03	3.450703E-15	1.184561E-16
6.330000E+03	3.411754E-15	1.159591E-16
6.340000E+03	3.370608E-15	1.134085E-16
6.350000E+03	3.327869E-15	1.108337E-16
6.360000E+03	3.284404E-15	1.082666E-16
6.370000E+03	3.241277E-15	1.057382E-16
6.380000E+03	3.199663E-15	1.032767E-16
6.390000E+03	3.160925E-15	1.009103E-16
6.400000E+03	3.126459E-15	9.866498E-17
6.410000E+03	3.097758E-15	9.656823E-17
6.420000E+03	3.076260E-15	9.464728E-17
6.430000E+03	3.063378E-15	9.293269E-17
6.440000E+03	3.060411E-15	9.145775E-17
6.450000E+03	3.068549E-15	9.026097E-17
6.460000E+03	3.088746E-15	8.938408E-17
6.470000E+03	3.121770E-15	8.887544E-17
6.480000E+03	3.168010E-15	8.878571E-17
6.490000E+03	3.227609E-15	8.917238E-17
6.500000E+03	3.300211E-15	9.009148E-17
6.510000E+03	3.384998E-15	9.159457E-17
6.520000E+03	3.480697E-15	9.372034E-17
6.530000E+03	3.585516E-15	9.648041E-17
6.540000E+03	3.697263E-15	9.984991E-17
6.550000E+03	3.813242E-15	1.037574E-16
6.560000E+03	3.930474E-15	1.080922E-16
6.570000E+03	4.045822E-15	1.127162E-16
6.580000E+03	4.156014E-15	1.174739E-16
6.590000E+03	4.257943E-15	1.222106E-16
6.600000E+03	4.348655E-15	1.267789E-16
6.610000E+03	4.425616E-15	1.310509E-16
6.620000E+03	4.486760E-15	1.349207E-16
6.630000E+03	4.530772E-15	1.383134E-16
6.640000E+03	4.556794E-15	1.411737E-16
6.650000E+03	4.564892E-15	1.434778E-16
6.660000E+03	4.555656E-15	1.452189E-16
6.670000E+03	4.530248E-15	1.464075E-16
6.680000E+03	4.490335E-15	1.470687E-16
6.690000E+03	4.437942E-15	1.472392E-16
6.700000E+03	4.375137E-15	1.469583E-16
6.710000E+03	4.304175E-15	1.462755E-16
6.720000E+03	4.227130E-15	1.452402E-16
6.730000E+03	4.146128E-15	1.439111E-16
6.740000E+03	4.062984E-15	1.423447E-16
6.750000E+03	3.979308E-15	1.405991E-16
6.760000E+03	3.896525E-15	1.387330E-16
6.770000E+03	3.815834E-15	1.368032E-16
6.780000E+03	3.738202E-15	1.348620E-16
6.790000E+03	3.664346E-15	1.329541E-16
6.800000E+03	3.594861E-15	1.311198E-16
6.810000E+03	3.530086E-15	1.293885E-16
6.820000E+03	3.470247E-15	1.277826E-16
6.830000E+03	3.415447E-15	1.263171E-16
6.840000E+03	3.365651E-15	1.249986E-16
6.850000E+03	3.320824E-15	1.238315E-16
6.860000E+03	3.280803E-15	1.228131E-16
6.870000E+03	3.245391E-15	1.219378E-16
6.880000E+03	3.214471E-15	1.212022E-16
6.890000E+03	3.187804E-15	1.205971E-16
6.900000E+03	3.165136E-15	1.201128E-16
6.910000E+03	3.146241E-15	1.197397E-16
6.920000E+03	3.130909E-15	1.194692E-16
6.930000E+03	3.118849E-15	1.192895E-16
6.940000E+03	3.109780E-15	1.191896E-16
6.950000E+03	3.103402E-15	1.191583E-16
6.960000E+03	3.099352E-15	1.191829E-16
6.970000E+03	3.097312E-15	1.192536E-16
6.980000E+03	3.096913E-15	1.193591E-16
6.990000E+03	3.097735E-15	1.194876E-16
7.000000E+03	3.099397E-15	1.196289E-16
7.010000E+03	3.101532E-15	1.197741E-16
7.020000E+03	3.103808E-15	1.199152E-16
7.030000E+03	3.105901E-15	1.200446E-16
7.040000E+03	3.107659E-15	1.201608E-16
7.050000E+03	3.108855E-15	1.202585E-16
7.060000E+03	3.109442E-15	1.203387E-16
7.070000E+03	3.109340E-15	1.204000E-16
7.080000E+03	3.108716E-15	1.204498E-16
7.090000E+03	3.107577E-15	1.204885E-16
7.100000E+03	3.106162E-15	1.205244E-16
7.110000E+03	3.104591E-15	1.205608E-16
7.120000E+03	3.103116E-15	1.206053E-16
7.130000E+03	3.101949E-15	1.206636E-16
7.140000E+03	3.101291E-15	1.207410E-16
7.150000E+03	3.101276E-15	1.208396E-16
7.160000E+03	3.102071E-15	1.209636E-16
7.170000E+03	3.103718E-15	1.211125E-16
7.180000E+03	3.106239E-15	1.212854E-16
7.190000E+03	3.109601E-15	1.214802E-16
7.200000E+03	3.113751E-15	1.216945E-16
7.210000E+03	3.118479E-15	1.219204E-16
7.220000E+03	3.123686E-15	1.221547E-16
7.230000E+03	3.129098E-15	1.223871E-16
7.240000E+03	3.134533E-15	1.226113E-16
7.250000E+03	3.139766E-15	1.228184E-16
7.260000E+03	3.144527E-15	1.229978E-16
7.270000E+03	3.148622E-15	1.231411E-16
7.280000E+03	3.151777E-15	1.232369E-16
7.290000E+03	3.153798E-15	1.232769E-16
7.300000E+03	3.154371E-15	1.232488E-16
7.310000E+03	3.153347E-15	1.231471E-16
7.320000E+03	3.150469E-15	1.229630E-16
7.330000E+03	3.145580E-15	1.226928E-16
7.340000E+03	3.138433E-15	1.223296E-16
7.350000E+03	3.128943E-15	1.218737E-16
7.360000E+03	3.117030E-15	1.213260E-16
7.370000E+03	3.102632E-15	1.206878E-16
7.380000E+03	3.085856E-15	1.199673E-16
7.390000E+03	3.066668E-15	1.191669E-16
7.400000E+03	3.045311E-15	1.182994E-16
7.410000E+03	3.021835E-15	1.173698E-16
7.420000E+03	2.996514E-15	1.163917E-16
7.430000E+03	2.969526E-15	1.153745E-16
7.440000E+03	2.941108E-15	1.143290E-16
7.450000E+03	2.911510E-15	1.132661E-16
7.460000E+03	2.880955E-15	1.121942E-16
7.470000E+03	2.849751E-15	1.111240E-16
7.480000E+03	2.818175E-15	1.100629E-16
7.490000E+03	2.786472E-15	1.090152E-16
7.500000E+03	2.754958E-15	1.079859E-16
7.510000E+03	2.723872E-15	1.069750E-16
7.520000E+03	2.693546E-15	1.059841E-16
7.530000E+03	2.664189E-15	1.050090E-16
7.540000E+03	2.636059E-15	1.040465E-16
7.550000E+03	2.609320E-15	1.030901E-16
7.560000E+03	2.584180E-15	1.021364E-16
7.570000E+03	2.560788E-15	1.011820E-16
7.580000E+03	2.539263E-15	1.002257E-16
7.590000E+03	2.519700E-15	9.926904E-17
7.600000E+03	2.502195E-15	9.831816E-17
7.610000E+03	2.486744E-15	9.737925E-17
7.620000E+03	2.473340E-15	9.646179E-17
7.630000E+03	2.462002E-15	9.557862E-17
7.640000E+03	2.452569E-15	9.473639E-17
7.650000E+03	2.444931E-15	9.394310E-17
7.660000E+03	2.438901E-15	9.320146E-17
7.670000E+03	2.434251E-15	9.250922E-17
7.680000E+03	2.430750E-15	9.186019E-17
7.690000E+03	2.428049E-15	9.123953E-17
7.700000E+03	2.425954E-15	9.063486E-17
7.710000E+03	2.424112E-15	9.002488E-17
7.720000E+03	2.422285E-15	8.939098E-17
7.730000E+03	2.420226E-15	8.871366E-17
7.740000E+03	2.417683E-15	8.797382E-17
7.750000E+03	2.414543E-15	8.715879E-17
7.760000E+03	2.410659E-15	8.625687E-17
