#wls	flux	fluxerr
1.600000E+03	4.795063E-17	4.909857E-17
1.640000E+03	4.850760E-17	4.908265E-17
1.680000E+03	4.910583E-17	4.907984E-17
1.720000E+03	4.971680E-17	4.905955E-17
1.760000E+03	5.035520E-17	4.903465E-17
1.800000E+03	5.103547E-17	4.901695E-17
1.840000E+03	5.172976E-17	4.897737E-17
1.880000E+03	5.245277E-17	4.892795E-17
1.920000E+03	5.321901E-17	4.887971E-17
1.960000E+03	5.400131E-17	4.880506E-17
2.000000E+03	5.482825E-17	4.872751E-17
2.040000E+03	5.568689E-17	4.863247E-17
2.080000E+03	5.657832E-17	4.851816E-17
2.120000E+03	5.750378E-17	4.838274E-17
2.160000E+03	5.847827E-17	4.823561E-17
2.200000E+03	5.948973E-17	4.806319E-17
2.240000E+03	6.053996E-17	4.786366E-17
2.280000E+03	6.163101E-17	4.763516E-17
2.320000E+03	6.276520E-17	4.737585E-17
2.360000E+03	6.395858E-17	4.709377E-17
2.400000E+03	6.520059E-17	4.677663E-17
2.440000E+03	6.650798E-17	4.643194E-17
2.480000E+03	6.785765E-17	4.603883E-17
2.520000E+03	6.928068E-17	4.561389E-17
2.560000E+03	7.078187E-17	4.515444E-17
2.600000E+03	7.235328E-17	4.464949E-17
2.640000E+03	7.400110E-17	4.409714E-17
2.680000E+03	7.575937E-17	4.351097E-17
2.720000E+03	7.760927E-17	4.287245E-17
2.760000E+03	7.957363E-17	4.218681E-17
2.800000E+03	8.167688E-17	4.145816E-17
2.840000E+03	8.391789E-17	4.067614E-17
2.880000E+03	8.633872E-17	3.985058E-17
2.920000E+03	8.895666E-17	3.897680E-17
2.960000E+03	9.179189E-17	3.805006E-17
3.000000E+03	9.489651E-17	3.707663E-17
3.010000E+03	9.572381E-17	3.682744E-17
3.020000E+03	9.656399E-17	3.657239E-17
3.030000E+03	9.743187E-17	3.631682E-17
3.040000E+03	9.831365E-17	3.605522E-17
3.050000E+03	9.922429E-17	3.579280E-17
3.060000E+03	1.001500E-16	3.552420E-17
3.070000E+03	1.011058E-16	3.525447E-17
3.080000E+03	1.020924E-16	3.498341E-17
3.090000E+03	1.030960E-16	3.470584E-17
3.100000E+03	1.041319E-16	3.442664E-17
3.110000E+03	1.052010E-16	3.414559E-17
3.120000E+03	1.062892E-16	3.385774E-17
3.130000E+03	1.074121E-16	3.356776E-17
3.140000E+03	1.085708E-16	3.327542E-17
3.150000E+03	1.097662E-16	3.298053E-17
3.160000E+03	1.109842E-16	3.267844E-17
3.170000E+03	1.122561E-16	3.237792E-17
3.180000E+03	1.135526E-16	3.206995E-17
3.190000E+03	1.149055E-16	3.176302E-17
3.200000E+03	1.162853E-16	3.144843E-17
3.210000E+03	1.177086E-16	3.113032E-17
3.220000E+03	1.191768E-16	3.080853E-17
3.230000E+03	1.207068E-16	3.048688E-17
3.240000E+03	1.222691E-16	3.015726E-17
3.250000E+03	1.238965E-16	2.982742E-17
3.260000E+03	1.255750E-16	2.949331E-17
3.270000E+03	1.273063E-16	2.915489E-17
3.280000E+03	1.290923E-16	2.881214E-17
3.290000E+03	1.309510E-16	2.846859E-17
3.300000E+03	1.328684E-16	2.812063E-17
3.310000E+03	1.348465E-16	2.776838E-17
3.320000E+03	1.369041E-16	2.741532E-17
3.330000E+03	1.390439E-16	2.706146E-17
3.340000E+03	1.412349E-16	2.670057E-17
3.350000E+03	1.435301E-16	2.634257E-17
3.360000E+03	1.458988E-16	2.598149E-17
3.370000E+03	1.483438E-16	2.561797E-17
3.380000E+03	1.509025E-16	2.525858E-17
3.390000E+03	1.535440E-16	2.489820E-17
3.400000E+03	1.562891E-16	2.454075E-17
3.410000E+03	1.591415E-16	2.418737E-17
3.420000E+03	1.620873E-16	2.383685E-17
3.430000E+03	1.651664E-16	2.349624E-17
3.440000E+03	1.683654E-16	2.316488E-17
3.450000E+03	1.716886E-16	2.284518E-17
3.460000E+03	1.751223E-16	2.253757E-17
3.470000E+03	1.787084E-16	2.225019E-17
3.480000E+03	1.824527E-16	2.198664E-17
3.490000E+03	1.863225E-16	2.174659E-17
3.500000E+03	1.903615E-16	2.153942E-17
3.510000E+03	1.945762E-16	2.137040E-17
3.520000E+03	1.989531E-16	2.124320E-17
3.530000E+03	2.034982E-16	2.116421E-17
3.540000E+03	2.082378E-16	2.114225E-17
3.550000E+03	2.131790E-16	2.118422E-17
3.560000E+03	2.183075E-16	2.129507E-17
3.570000E+03	2.236506E-16	2.148367E-17
3.580000E+03	2.292149E-16	2.175637E-17
3.590000E+03	2.350067E-16	2.211879E-17
3.600000E+03	2.410315E-16	2.257556E-17
3.610000E+03	2.472945E-16	2.313007E-17
3.620000E+03	2.538000E-16	2.378444E-17
3.630000E+03	2.605514E-16	2.453954E-17
3.640000E+03	2.675516E-16	2.539511E-17
3.650000E+03	2.748261E-16	2.635216E-17
3.660000E+03	2.823534E-16	2.740652E-17
3.670000E+03	2.901583E-16	2.855791E-17
3.680000E+03	2.982170E-16	2.980092E-17
3.690000E+03	3.065537E-16	3.113458E-17
3.700000E+03	3.151674E-16	3.255535E-17
3.710000E+03	3.240310E-16	3.405677E-17
3.720000E+03	3.331671E-16	3.563754E-17
3.730000E+03	3.425722E-16	3.729368E-17
3.740000E+03	3.522422E-16	3.902113E-17
3.750000E+03	3.621717E-16	4.081576E-17
3.760000E+03	3.723822E-16	4.267652E-17
3.770000E+03	3.828113E-16	4.459285E-17
3.780000E+03	3.935066E-16	4.656680E-17
3.790000E+03	4.044308E-16	4.859067E-17
3.800000E+03	4.156029E-16	5.066343E-17
3.810000E+03	4.269828E-16	5.277696E-17
3.820000E+03	4.385878E-16	5.493018E-17
3.830000E+03	4.503754E-16	5.711456E-17
3.840000E+03	4.623616E-16	5.932899E-17
3.850000E+03	4.745320E-16	6.156856E-17
3.860000E+03	4.868715E-16	6.382832E-17
3.870000E+03	4.993639E-16	6.610319E-17
3.880000E+03	5.119924E-16	6.838807E-17
3.890000E+03	5.247719E-16	7.068217E-17
3.900000E+03	5.376202E-16	7.297172E-17
3.910000E+03	5.505838E-16	7.526035E-17
3.920000E+03	5.636118E-16	7.753864E-17
3.930000E+03	5.767188E-16	7.980619E-17
3.940000E+03	5.898532E-16	8.205365E-17
3.950000E+03	6.030304E-16	8.428099E-17
3.960000E+03	6.161988E-16	8.647906E-17
3.970000E+03	6.294091E-16	8.865314E-17
3.980000E+03	6.425769E-16	9.078972E-17
3.990000E+03	6.557205E-16	9.288986E-17
4.000000E+03	6.688256E-16	9.495019E-17
4.010000E+03	6.818787E-16	9.696765E-17
4.020000E+03	6.948678E-16	9.893955E-17
4.030000E+03	7.077826E-16	1.008636E-16
4.040000E+03	7.206141E-16	1.027378E-16
4.050000E+03	7.333905E-16	1.045657E-16
4.060000E+03	7.460717E-16	1.063413E-16
4.070000E+03	7.586546E-16	1.080638E-16
4.080000E+03	7.711734E-16	1.097383E-16
4.090000E+03	7.835943E-16	1.113598E-16
4.100000E+03	7.959558E-16	1.129341E-16
4.110000E+03	8.082286E-16	1.144575E-16
4.120000E+03	8.204556E-16	1.159364E-16
4.130000E+03	8.326122E-16	1.173679E-16
4.140000E+03	8.447457E-16	1.187594E-16
4.150000E+03	8.568358E-16	1.201088E-16
4.160000E+03	8.689341E-16	1.214242E-16
4.170000E+03	8.810592E-16	1.227090E-16
4.180000E+03	8.931971E-16	1.239624E-16
4.190000E+03	9.054046E-16	1.251933E-16
4.200000E+03	9.177058E-16	1.264062E-16
4.210000E+03	9.300918E-16	1.276009E-16
4.220000E+03	9.426238E-16	1.287871E-16
4.230000E+03	9.552957E-16	1.299653E-16
4.240000E+03	9.681704E-16	1.311453E-16
4.250000E+03	9.812441E-16	1.323279E-16
4.260000E+03	9.945807E-16	1.335232E-16
4.270000E+03	1.008178E-15	1.347320E-16
4.280000E+03	1.022066E-15	1.359600E-16
4.290000E+03	1.036310E-15	1.372169E-16
4.300000E+03	1.050907E-15	1.385038E-16
4.310000E+03	1.065888E-15	1.398257E-16
4.320000E+03	1.081283E-15	1.411878E-16
4.330000E+03	1.097119E-15	1.425948E-16
4.340000E+03	1.113426E-15	1.440510E-16
4.350000E+03	1.130195E-15	1.455561E-16
4.360000E+03	1.147486E-15	1.471177E-16
4.370000E+03	1.165321E-15	1.487387E-16
4.380000E+03	1.183654E-15	1.504125E-16
4.390000E+03	1.202572E-15	1.521489E-16
4.400000E+03	1.222055E-15	1.539439E-16
4.410000E+03	1.242119E-15	1.557968E-16
4.420000E+03	1.262774E-15	1.577057E-16
4.430000E+03	1.283993E-15	1.596639E-16
4.440000E+03	1.305780E-15	1.616675E-16
4.450000E+03	1.328136E-15	1.637117E-16
4.460000E+03	1.351090E-15	1.657949E-16
4.470000E+03	1.374569E-15	1.679021E-16
4.480000E+03	1.398594E-15	1.700298E-16
4.490000E+03	1.423117E-15	1.721654E-16
4.500000E+03	1.448119E-15	1.742999E-16
4.510000E+03	1.473577E-15	1.764231E-16
4.520000E+03	1.499431E-15	1.785204E-16
4.530000E+03	1.525687E-15	1.805848E-16
4.540000E+03	1.552278E-15	1.826007E-16
4.550000E+03	1.579204E-15	1.845603E-16
4.560000E+03	1.606326E-15	1.864393E-16
4.570000E+03	1.633675E-15	1.882338E-16
4.580000E+03	1.661178E-15	1.899277E-16
4.590000E+03	1.688832E-15	1.915132E-16
4.600000E+03	1.716495E-15	1.929671E-16
4.610000E+03	1.744201E-15	1.942864E-16
4.620000E+03	1.771880E-15	1.954571E-16
4.630000E+03	1.799503E-15	1.964700E-16
4.640000E+03	1.827040E-15	1.973167E-16
4.650000E+03	1.854398E-15	1.979825E-16
4.660000E+03	1.881628E-15	1.984690E-16
4.670000E+03	1.908645E-15	1.987640E-16
4.680000E+03	1.935476E-15	1.988683E-16
4.690000E+03	1.962082E-15	1.987764E-16
4.700000E+03	1.988466E-15	1.984882E-16
4.710000E+03	2.014599E-15	1.980017E-16
4.720000E+03	2.040530E-15	1.973235E-16
4.730000E+03	2.066279E-15	1.964583E-16
4.740000E+03	2.091796E-15	1.954056E-16
4.750000E+03	2.117107E-15	1.941734E-16
4.760000E+03	2.142280E-15	1.927747E-16
4.770000E+03	2.167348E-15	1.912203E-16
4.780000E+03	2.192270E-15	1.895164E-16
4.790000E+03	2.217117E-15	1.876799E-16
4.800000E+03	2.241922E-15	1.857258E-16
4.810000E+03	2.266674E-15	1.836668E-16
4.820000E+03	2.291397E-15	1.815196E-16
4.830000E+03	2.316104E-15	1.793013E-16
4.840000E+03	2.340798E-15	1.770288E-16
4.850000E+03	2.365469E-15	1.747189E-16
4.860000E+03	2.390052E-15	1.723847E-16
4.870000E+03	2.414541E-15	1.700440E-16
4.880000E+03	2.438835E-15	1.677074E-16
4.890000E+03	2.462850E-15	1.653869E-16
4.900000E+03	2.486485E-15	1.630926E-16
4.910000E+03	2.509619E-15	1.608326E-16
4.920000E+03	2.532081E-15	1.586108E-16
4.930000E+03	2.553798E-15	1.564362E-16
4.940000E+03	2.574539E-15	1.543065E-16
4.950000E+03	2.594184E-15	1.522249E-16
4.960000E+03	2.612572E-15	1.501902E-16
4.970000E+03	2.629511E-15	1.481980E-16
4.980000E+03	2.644892E-15	1.462470E-16
4.990000E+03	2.658586E-15	1.443332E-16
5.000000E+03	2.670446E-15	1.424501E-16
5.010000E+03	2.680429E-15	1.405957E-16
5.020000E+03	2.688452E-15	1.387643E-16
5.030000E+03	2.694553E-15	1.369552E-16
5.040000E+03	2.698783E-15	1.351665E-16
5.050000E+03	2.701248E-15	1.333980E-16
5.060000E+03	2.702115E-15	1.316505E-16
5.070000E+03	2.701568E-15	1.299250E-16
5.080000E+03	2.699956E-15	1.282289E-16
5.090000E+03	2.697556E-15	1.265665E-16
5.100000E+03	2.694713E-15	1.249450E-16
5.110000E+03	2.691825E-15	1.233753E-16
5.120000E+03	2.689255E-15	1.218673E-16
5.130000E+03	2.687315E-15	1.204308E-16
5.140000E+03	2.686333E-15	1.190770E-16
5.150000E+03	2.686664E-15	1.178202E-16
5.160000E+03	2.688515E-15	1.166684E-16
5.170000E+03	2.692110E-15	1.156311E-16
5.180000E+03	2.697550E-15	1.147117E-16
5.190000E+03	2.704914E-15	1.139125E-16
5.200000E+03	2.714301E-15	1.132346E-16
5.210000E+03	2.725626E-15	1.126698E-16
5.220000E+03	2.738904E-15	1.122121E-16
5.230000E+03	2.754013E-15	1.118475E-16
5.240000E+03	2.770842E-15	1.115601E-16
5.250000E+03	2.789329E-15	1.113344E-16
5.260000E+03	2.809259E-15	1.111470E-16
5.270000E+03	2.830546E-15	1.109791E-16
5.280000E+03	2.852986E-15	1.108074E-16
5.290000E+03	2.876440E-15	1.106119E-16
5.300000E+03	2.900686E-15	1.103718E-16
5.310000E+03	2.925564E-15	1.100717E-16
5.320000E+03	2.950902E-15	1.096992E-16
5.330000E+03	2.976412E-15	1.092417E-16
5.340000E+03	3.001970E-15	1.086975E-16
5.350000E+03	3.027226E-15	1.080609E-16
5.360000E+03	3.052036E-15	1.073382E-16
5.370000E+03	3.076104E-15	1.065347E-16
5.380000E+03	3.099169E-15	1.056612E-16
5.390000E+03	3.120969E-15	1.047326E-16
5.400000E+03	3.141293E-15	1.037696E-16
5.410000E+03	3.159913E-15	1.027962E-16
5.420000E+03	3.176596E-15	1.018397E-16
5.430000E+03	3.191224E-15	1.009336E-16
5.440000E+03	3.203692E-15	1.001134E-16
5.450000E+03	3.213986E-15	9.941718E-17
5.460000E+03	3.222039E-15	9.887819E-17
5.470000E+03	3.227981E-15	9.852945E-17
5.480000E+03	3.231904E-15	9.839241E-17
5.490000E+03	3.233880E-15	9.847350E-17
5.500000E+03	3.234017E-15	9.876307E-17
5.510000E+03	3.232450E-15	9.923561E-17
5.520000E+03	3.229260E-15	9.985177E-17
5.530000E+03	3.224529E-15	1.005662E-16
5.540000E+03	3.218304E-15	1.013329E-16
5.550000E+03	3.210720E-15	1.021137E-16
5.560000E+03	3.201892E-15	1.028779E-16
5.570000E+03	3.191918E-15	1.036033E-16
5.580000E+03	3.180976E-15	1.042791E-16
5.590000E+03	3.169219E-15	1.049016E-16
5.600000E+03	3.156789E-15	1.054724E-16
5.610000E+03	3.143779E-15	1.059952E-16
5.620000E+03	3.130284E-15	1.064762E-16
5.630000E+03	3.116394E-15	1.069215E-16
5.640000E+03	3.102083E-15	1.073333E-16
5.650000E+03	3.087350E-15	1.077138E-16
5.660000E+03	3.072057E-15	1.080596E-16
5.670000E+03	3.056186E-15	1.083712E-16
5.680000E+03	3.039590E-15	1.086437E-16
5.690000E+03	3.022227E-15	1.088755E-16
5.700000E+03	3.004176E-15	1.090690E-16
5.710000E+03	2.985441E-15	1.092231E-16
5.720000E+03	2.966285E-15	1.093451E-16
5.730000E+03	2.946946E-15	1.094410E-16
5.740000E+03	2.927859E-15	1.095226E-16
5.750000E+03	2.909515E-15	1.096036E-16
5.760000E+03	2.892445E-15	1.096986E-16
5.770000E+03	2.877222E-15	1.098236E-16
5.780000E+03	2.864526E-15	1.099990E-16
5.790000E+03	2.854876E-15	1.102395E-16
5.800000E+03	2.848922E-15	1.105655E-16
5.810000E+03	2.847066E-15	1.109884E-16
5.820000E+03	2.849693E-15	1.115196E-16
5.830000E+03	2.857081E-15	1.121669E-16
5.840000E+03	2.869295E-15	1.129303E-16
5.850000E+03	2.886245E-15	1.138043E-16
5.860000E+03	2.907622E-15	1.147756E-16
5.870000E+03	2.932947E-15	1.158254E-16
5.880000E+03	2.961592E-15	1.169308E-16
5.890000E+03	2.992650E-15	1.180598E-16
5.900000E+03	3.025273E-15	1.191857E-16
5.910000E+03	3.058331E-15	1.202732E-16
5.920000E+03	3.090885E-15	1.212975E-16
5.930000E+03	3.121883E-15	1.222313E-16
5.940000E+03	3.150423E-15	1.230550E-16
5.950000E+03	3.175741E-15	1.237547E-16
5.960000E+03	3.197211E-15	1.243218E-16
5.970000E+03	3.214432E-15	1.247550E-16
5.980000E+03	3.227198E-15	1.250586E-16
5.990000E+03	3.235491E-15	1.252416E-16
6.000000E+03	3.239429E-15	1.253152E-16
6.010000E+03	3.239307E-15	1.252941E-16
6.020000E+03	3.235524E-15	1.251937E-16
6.030000E+03	3.228528E-15	1.250278E-16
6.040000E+03	3.218871E-15	1.248108E-16
6.050000E+03	3.207058E-15	1.245518E-16
6.060000E+03	3.193613E-15	1.242582E-16
6.070000E+03	3.178996E-15	1.239323E-16
6.080000E+03	3.163711E-15	1.235766E-16
6.090000E+03	3.148044E-15	1.231850E-16
6.100000E+03	3.132366E-15	1.227554E-16
6.110000E+03	3.116886E-15	1.222810E-16
6.120000E+03	3.101802E-15	1.217579E-16
6.130000E+03	3.087162E-15	1.211797E-16
6.140000E+03	3.073050E-15	1.205454E-16
6.150000E+03	3.059477E-15	1.198548E-16
6.160000E+03	3.046428E-15	1.191093E-16
6.170000E+03	3.033868E-15	1.183117E-16
6.180000E+03	3.021722E-15	1.174642E-16
6.190000E+03	3.009969E-15	1.165702E-16
6.200000E+03	2.998581E-15	1.156323E-16
6.210000E+03	2.987432E-15	1.146472E-16
6.220000E+03	2.976469E-15	1.136136E-16
6.230000E+03	2.965623E-15	1.125280E-16
6.240000E+03	2.954714E-15	1.113834E-16
6.250000E+03	2.943665E-15	1.101773E-16
6.260000E+03	2.932330E-15	1.089066E-16
6.270000E+03	2.920537E-15	1.075698E-16
6.280000E+03	2.908186E-15	1.061708E-16
6.290000E+03	2.895208E-15	1.047172E-16
6.300000E+03	2.881497E-15	1.032168E-16
6.310000E+03	2.867118E-15	1.016848E-16
6.320000E+03	2.852156E-15	1.001371E-16
6.330000E+03	2.836782E-15	9.859097E-17
6.340000E+03	2.821258E-15	9.706534E-17
6.350000E+03	2.805969E-15	9.558041E-17
6.360000E+03	2.791366E-15	9.415543E-17
6.370000E+03	2.777958E-15	9.280823E-17
6.380000E+03	2.766415E-15	9.155850E-17
6.390000E+03	2.757412E-15	9.042287E-17
6.400000E+03	2.751666E-15	8.941665E-17
6.410000E+03	2.749918E-15	8.855398E-17
6.420000E+03	2.752937E-15	8.784902E-17
6.430000E+03	2.761440E-15	8.731481E-17
6.440000E+03	2.776093E-15	8.696496E-17
6.450000E+03	2.797515E-15	8.681526E-17
6.460000E+03	2.826162E-15	8.688187E-17
6.470000E+03	2.862437E-15	8.718611E-17
6.480000E+03	2.906484E-15	8.774917E-17
6.490000E+03	2.958293E-15	8.859570E-17
6.500000E+03	3.017605E-15	8.975020E-17
6.510000E+03	3.083777E-15	9.123075E-17
6.520000E+03	3.156000E-15	9.305106E-17
6.530000E+03	3.232963E-15	9.520462E-17
6.540000E+03	3.313143E-15	9.766719E-17
6.550000E+03	3.394608E-15	1.003879E-16
6.560000E+03	3.475263E-15	1.032966E-16
6.570000E+03	3.552851E-15	1.063074E-16
6.580000E+03	3.625141E-15	1.093282E-16
6.590000E+03	3.689946E-15	1.122652E-16
6.600000E+03	3.745391E-15	1.150333E-16
6.610000E+03	3.789898E-15	1.175580E-16
6.620000E+03	3.822306E-15	1.197802E-16
6.630000E+03	3.841965E-15	1.216584E-16
6.640000E+03	3.848625E-15	1.231653E-16
6.650000E+03	3.842586E-15	1.242917E-16
6.660000E+03	3.824523E-15	1.250401E-16
6.670000E+03	3.795495E-15	1.254253E-16
6.680000E+03	3.756735E-15	1.254678E-16
6.690000E+03	3.709680E-15	1.251955E-16
6.700000E+03	3.655883E-15	1.246420E-16
6.710000E+03	3.596858E-15	1.238427E-16
6.720000E+03	3.534057E-15	1.228349E-16
6.730000E+03	3.468832E-15	1.216572E-16
6.740000E+03	3.402403E-15	1.203484E-16
6.750000E+03	3.335880E-15	1.189479E-16
6.760000E+03	3.270105E-15	1.174898E-16
6.770000E+03	3.205950E-15	1.160118E-16
6.780000E+03	3.143954E-15	1.145418E-16
6.790000E+03	3.084588E-15	1.131057E-16
6.800000E+03	3.028232E-15	1.117259E-16
6.810000E+03	2.975115E-15	1.104182E-16
6.820000E+03	2.925370E-15	1.091937E-16
6.830000E+03	2.879052E-15	1.080587E-16
6.840000E+03	2.836153E-15	1.070159E-16
6.850000E+03	2.796621E-15	1.060654E-16
6.860000E+03	2.760339E-15	1.052037E-16
6.870000E+03	2.727267E-15	1.044303E-16
6.880000E+03	2.697258E-15	1.037405E-16
6.890000E+03	2.670195E-15	1.031307E-16
6.900000E+03	2.645931E-15	1.025963E-16
6.910000E+03	2.624415E-15	1.021366E-16
6.920000E+03	2.605534E-15	1.017480E-16
6.930000E+03	2.589117E-15	1.014247E-16
6.940000E+03	2.575080E-15	1.011637E-16
6.950000E+03	2.563298E-15	1.009606E-16
6.960000E+03	2.553667E-15	1.008114E-16
6.970000E+03	2.545973E-15	1.007082E-16
6.980000E+03	2.540107E-15	1.006476E-16
6.990000E+03	2.535820E-15	1.006209E-16
7.000000E+03	2.532970E-15	1.006243E-16
7.010000E+03	2.531285E-15	1.006492E-16
7.020000E+03	2.530610E-15	1.006925E-16
7.030000E+03	2.530675E-15	1.007467E-16
7.040000E+03	2.531315E-15	1.008094E-16
7.050000E+03	2.532357E-15	1.008778E-16
7.060000E+03	2.533659E-15	1.009506E-16
7.070000E+03	2.535080E-15	1.010263E-16
7.080000E+03	2.536579E-15	1.011069E-16
7.090000E+03	2.538122E-15	1.011938E-16
7.100000E+03	2.539711E-15	1.012886E-16
7.110000E+03	2.541320E-15	1.013905E-16
7.120000E+03	2.543101E-15	1.015044E-16
7.130000E+03	2.545072E-15	1.016285E-16
7.140000E+03	2.547322E-15	1.017627E-16
7.150000E+03	2.549969E-15	1.019076E-16
7.160000E+03	2.553061E-15	1.020609E-16
7.170000E+03	2.556657E-15	1.022208E-16
7.180000E+03	2.560824E-15	1.023870E-16
7.190000E+03	2.565500E-15	1.025554E-16
7.200000E+03	2.570722E-15	1.027268E-16
7.210000E+03	2.576399E-15	1.028986E-16
7.220000E+03	2.582442E-15	1.030692E-16
7.230000E+03	2.588743E-15	1.032371E-16
7.240000E+03	2.595143E-15	1.033988E-16
7.250000E+03	2.601567E-15	1.035543E-16
7.260000E+03	2.607804E-15	1.036977E-16
7.270000E+03	2.613767E-15	1.038277E-16
7.280000E+03	2.619231E-15	1.039371E-16
7.290000E+03	2.624033E-15	1.040208E-16
7.300000E+03	2.628042E-15	1.040749E-16
7.310000E+03	2.631092E-15	1.040942E-16
7.320000E+03	2.633024E-15	1.040740E-16
7.330000E+03	2.633621E-15	1.040078E-16
7.340000E+03	2.632857E-15	1.038968E-16
7.350000E+03	2.630563E-15	1.037371E-16
7.360000E+03	2.626670E-15	1.035291E-16
7.370000E+03	2.621183E-15	1.032763E-16
7.380000E+03	2.614080E-15	1.029813E-16
7.390000E+03	2.605409E-15	1.026493E-16
7.400000E+03	2.595287E-15	1.022881E-16
7.410000E+03	2.583791E-15	1.019037E-16
7.420000E+03	2.571053E-15	1.015035E-16
7.430000E+03	2.557221E-15	1.010946E-16
7.440000E+03	2.542487E-15	1.006850E-16
7.450000E+03	2.526980E-15	1.002789E-16
7.460000E+03	2.510867E-15	9.988081E-17
7.470000E+03	2.494350E-15	9.949540E-17
7.480000E+03	2.477532E-15	9.912196E-17
7.490000E+03	2.460649E-15	9.876390E-17
7.500000E+03	2.443836E-15	9.841934E-17
7.510000E+03	2.427289E-15	9.808774E-17
7.520000E+03	2.411097E-15	9.776320E-17
7.530000E+03	2.395472E-15	9.744377E-17
7.540000E+03	2.380510E-15	9.712225E-17
7.550000E+03	2.366327E-15	9.679176E-17
7.560000E+03	2.353017E-15	9.644485E-17
7.570000E+03	2.340688E-15	9.607537E-17
7.580000E+03	2.329364E-15	9.567514E-17
7.590000E+03	2.319078E-15	9.523854E-17
7.600000E+03	2.309873E-15	9.476299E-17
7.610000E+03	2.301703E-15	9.424518E-17
7.620000E+03	2.294530E-15	9.368498E-17
7.630000E+03	2.288317E-15	9.308506E-17
7.640000E+03	2.282935E-15	9.244630E-17
7.650000E+03	2.278259E-15	9.177090E-17
7.660000E+03	2.274162E-15	9.106164E-17
7.670000E+03	2.270432E-15	9.031721E-17
7.680000E+03	2.266899E-15	8.953709E-17
7.690000E+03	2.263319E-15	8.871616E-17
7.700000E+03	2.259511E-15	8.785004E-17
7.710000E+03	2.255236E-15	8.693041E-17
7.720000E+03	2.250344E-15	8.595059E-17
7.730000E+03	2.244642E-15	8.490135E-17
7.740000E+03	2.238037E-15	8.377662E-17
7.750000E+03	2.230440E-15	8.257063E-17
7.760000E+03	2.221763E-15	8.127867E-17
