#wls	flux	fluxerr
1.600000E+03	4.647005E-17	4.796191E-17
1.640000E+03	4.704814E-17	4.798671E-17
1.680000E+03	4.764058E-17	4.799734E-17
1.720000E+03	4.827522E-17	4.802006E-17
1.760000E+03	4.892516E-17	4.802588E-17
1.800000E+03	4.961814E-17	4.804009E-17
1.840000E+03	5.032764E-17	4.803460E-17
1.880000E+03	5.106794E-17	4.802107E-17
1.920000E+03	5.185320E-17	4.801019E-17
1.960000E+03	5.265749E-17	4.797523E-17
2.000000E+03	5.350851E-17	4.793897E-17
2.040000E+03	5.439400E-17	4.788724E-17
2.080000E+03	5.531521E-17	4.781823E-17
2.120000E+03	5.627350E-17	4.773009E-17
2.160000E+03	5.727042E-17	4.762092E-17
2.200000E+03	5.832081E-17	4.749953E-17
2.240000E+03	5.941336E-17	4.735275E-17
2.280000E+03	6.056328E-17	4.718880E-17
2.320000E+03	6.175972E-17	4.699489E-17
2.360000E+03	6.300524E-17	4.676892E-17
2.400000E+03	6.431576E-17	4.651821E-17
2.440000E+03	6.568130E-17	4.623056E-17
2.480000E+03	6.711843E-17	4.591264E-17
2.520000E+03	6.863102E-17	4.556137E-17
2.560000E+03	7.022336E-17	4.517354E-17
2.600000E+03	7.190028E-17	4.474590E-17
2.640000E+03	7.366711E-17	4.427508E-17
2.680000E+03	7.554318E-17	4.376536E-17
2.720000E+03	7.752198E-17	4.320497E-17
2.760000E+03	7.963797E-17	4.260466E-17
2.800000E+03	8.188661E-17	4.195222E-17
2.840000E+03	8.429145E-17	4.124971E-17
2.880000E+03	8.686411E-17	4.049164E-17
2.920000E+03	8.964552E-17	3.968473E-17
2.960000E+03	9.265174E-17	3.882175E-17
3.000000E+03	9.590138E-17	3.789551E-17
3.010000E+03	9.675651E-17	3.765410E-17
3.020000E+03	9.763653E-17	3.741120E-17
3.030000E+03	9.854192E-17	3.716661E-17
3.040000E+03	9.945890E-17	3.691480E-17
3.050000E+03	1.003878E-16	3.665576E-17
3.060000E+03	1.013578E-16	3.639979E-17
3.070000E+03	1.023263E-16	3.613120E-17
3.080000E+03	1.033369E-16	3.586523E-17
3.090000E+03	1.043613E-16	3.559159E-17
3.100000E+03	1.054147E-16	3.531513E-17
3.110000E+03	1.064975E-16	3.503564E-17
3.120000E+03	1.076105E-16	3.475293E-17
3.130000E+03	1.087397E-16	3.446213E-17
3.140000E+03	1.099004E-16	3.416786E-17
3.150000E+03	1.110932E-16	3.386991E-17
3.160000E+03	1.123191E-16	3.356811E-17
3.170000E+03	1.135789E-16	3.326228E-17
3.180000E+03	1.148733E-16	3.295226E-17
3.190000E+03	1.161884E-16	3.263367E-17
3.200000E+03	1.175550E-16	3.231489E-17
3.210000E+03	1.189440E-16	3.198741E-17
3.220000E+03	1.203867E-16	3.165935E-17
3.230000E+03	1.218539E-16	3.132253E-17
3.240000E+03	1.233773E-16	3.098482E-17
3.250000E+03	1.249427E-16	3.064216E-17
3.260000E+03	1.265515E-16	3.029453E-17
3.270000E+03	1.282051E-16	2.994193E-17
3.280000E+03	1.299206E-16	2.958799E-17
3.290000E+03	1.316681E-16	2.922557E-17
3.300000E+03	1.334807E-16	2.886187E-17
3.310000E+03	1.353444E-16	2.849351E-17
3.320000E+03	1.372769E-16	2.812402E-17
3.330000E+03	1.392643E-16	2.775028E-17
3.340000E+03	1.413085E-16	2.737271E-17
3.350000E+03	1.434278E-16	2.699486E-17
3.360000E+03	1.456083E-16	2.661413E-17
3.370000E+03	1.478689E-16	2.623416E-17
3.380000E+03	1.501956E-16	2.585275E-17
3.390000E+03	1.526077E-16	2.547373E-17
3.400000E+03	1.551082E-16	2.509810E-17
3.410000E+03	1.576834E-16	2.472442E-17
3.420000E+03	1.603534E-16	2.435693E-17
3.430000E+03	1.631216E-16	2.399739E-17
3.440000E+03	1.659744E-16	2.364534E-17
3.450000E+03	1.689504E-16	2.330820E-17
3.460000E+03	1.720187E-16	2.298382E-17
3.470000E+03	1.752011E-16	2.267785E-17
3.480000E+03	1.785020E-16	2.239390E-17
3.490000E+03	1.819445E-16	2.213829E-17
3.500000E+03	1.854971E-16	2.191112E-17
3.510000E+03	1.891831E-16	2.171970E-17
3.520000E+03	1.930267E-16	2.157167E-17
3.530000E+03	1.970150E-16	2.147083E-17
3.540000E+03	2.011539E-16	2.142350E-17
3.550000E+03	2.054492E-16	2.143623E-17
3.560000E+03	2.099266E-16	2.151764E-17
3.570000E+03	2.145730E-16	2.167226E-17
3.580000E+03	2.193945E-16	2.190628E-17
3.590000E+03	2.244171E-16	2.222733E-17
3.600000E+03	2.296469E-16	2.264010E-17
3.610000E+03	2.350672E-16	2.314530E-17
3.620000E+03	2.407012E-16	2.374617E-17
3.630000E+03	2.465300E-16	2.444074E-17
3.640000E+03	2.525974E-16	2.523240E-17
3.650000E+03	2.588618E-16	2.611530E-17
3.660000E+03	2.653449E-16	2.708926E-17
3.670000E+03	2.720467E-16	2.815154E-17
3.680000E+03	2.789667E-16	2.929899E-17
3.690000E+03	2.860808E-16	3.052575E-17
3.700000E+03	2.934329E-16	3.183303E-17
3.710000E+03	3.010216E-16	3.321732E-17
3.720000E+03	3.087973E-16	3.466969E-17
3.730000E+03	3.167797E-16	3.618877E-17
3.740000E+03	3.249894E-16	3.777352E-17
3.750000E+03	3.333977E-16	3.941730E-17
3.760000E+03	3.420245E-16	4.111918E-17
3.770000E+03	3.508393E-16	4.287230E-17
3.780000E+03	3.598613E-16	4.467583E-17
3.790000E+03	3.690583E-16	4.652268E-17
3.800000E+03	3.784225E-16	4.840871E-17
3.810000E+03	3.879989E-16	5.033669E-17
3.820000E+03	3.977264E-16	5.229581E-17
3.830000E+03	4.076229E-16	5.428545E-17
3.840000E+03	4.176795E-16	5.630155E-17
3.850000E+03	4.278865E-16	5.834000E-17
3.860000E+03	4.382060E-16	6.039277E-17
3.870000E+03	4.486837E-16	6.246341E-17
3.880000E+03	4.592812E-16	6.454392E-17
3.890000E+03	4.699587E-16	6.662601E-17
3.900000E+03	4.807629E-16	6.871371E-17
3.910000E+03	4.916835E-16	7.080309E-17
3.920000E+03	5.026508E-16	7.288168E-17
3.930000E+03	5.137129E-16	7.495405E-17
3.940000E+03	5.248296E-16	7.701209E-17
3.950000E+03	5.359902E-16	7.905205E-17
3.960000E+03	5.472152E-16	8.107485E-17
3.970000E+03	5.584953E-16	8.307722E-17
3.980000E+03	5.697909E-16	8.505142E-17
3.990000E+03	5.810933E-16	8.699439E-17
4.000000E+03	5.924259E-16	8.890805E-17
4.010000E+03	6.037820E-16	9.078993E-17
4.020000E+03	6.151243E-16	9.263307E-17
4.030000E+03	6.264791E-16	9.444025E-17
4.040000E+03	6.378426E-16	9.620982E-17
4.050000E+03	6.492118E-16	9.794042E-17
4.060000E+03	6.605530E-16	9.962616E-17
4.070000E+03	6.718974E-16	1.012711E-16
4.080000E+03	6.832457E-16	1.028749E-16
4.090000E+03	6.945996E-16	1.044373E-16
4.100000E+03	7.059621E-16	1.059586E-16
4.110000E+03	7.173054E-16	1.074346E-16
4.120000E+03	7.286994E-16	1.088756E-16
4.130000E+03	7.400863E-16	1.102733E-16
4.140000E+03	7.515388E-16	1.116388E-16
4.150000E+03	7.630013E-16	1.129641E-16
4.160000E+03	7.745164E-16	1.142562E-16
4.170000E+03	7.860955E-16	1.155174E-16
4.180000E+03	7.977510E-16	1.167502E-16
4.190000E+03	8.094961E-16	1.179576E-16
4.200000E+03	8.213127E-16	1.191380E-16
4.210000E+03	8.332804E-16	1.203040E-16
4.220000E+03	8.453501E-16	1.214498E-16
4.230000E+03	8.575705E-16	1.225839E-16
4.240000E+03	8.699581E-16	1.237102E-16
4.250000E+03	8.825300E-16	1.248326E-16
4.260000E+03	8.952711E-16	1.259509E-16
4.270000E+03	9.082313E-16	1.270740E-16
4.280000E+03	9.214279E-16	1.282063E-16
4.290000E+03	9.348459E-16	1.293478E-16
4.300000E+03	9.485022E-16	1.305032E-16
4.310000E+03	9.624460E-16	1.316816E-16
4.320000E+03	9.766611E-16	1.328829E-16
4.330000E+03	9.911955E-16	1.341162E-16
4.340000E+03	1.006032E-15	1.353813E-16
4.350000E+03	1.021184E-15	1.366824E-16
4.360000E+03	1.036665E-15	1.380232E-16
4.370000E+03	1.052487E-15	1.394072E-16
4.380000E+03	1.068661E-15	1.408372E-16
4.390000E+03	1.085165E-15	1.423112E-16
4.400000E+03	1.102041E-15	1.438336E-16
4.410000E+03	1.119299E-15	1.454031E-16
4.420000E+03	1.136945E-15	1.470168E-16
4.430000E+03	1.154920E-15	1.486630E-16
4.440000E+03	1.173296E-15	1.503459E-16
4.450000E+03	1.192043E-15	1.520562E-16
4.460000E+03	1.211162E-15	1.537882E-16
4.470000E+03	1.230621E-15	1.555312E-16
4.480000E+03	1.250486E-15	1.572867E-16
4.490000E+03	1.270686E-15	1.590388E-16
4.500000E+03	1.291218E-15	1.607793E-16
4.510000E+03	1.312109E-15	1.625041E-16
4.520000E+03	1.333319E-15	1.642000E-16
4.530000E+03	1.354806E-15	1.658539E-16
4.540000E+03	1.376628E-15	1.674646E-16
4.550000E+03	1.398708E-15	1.690143E-16
4.560000E+03	1.421068E-15	1.704974E-16
4.570000E+03	1.443664E-15	1.719000E-16
4.580000E+03	1.466518E-15	1.732166E-16
4.590000E+03	1.489550E-15	1.744292E-16
4.600000E+03	1.512784E-15	1.755326E-16
4.610000E+03	1.536210E-15	1.765177E-16
4.620000E+03	1.559818E-15	1.773754E-16
4.630000E+03	1.583564E-15	1.780935E-16
4.640000E+03	1.607441E-15	1.786639E-16
4.650000E+03	1.631445E-15	1.790793E-16
4.660000E+03	1.655570E-15	1.793330E-16
4.670000E+03	1.679815E-15	1.794190E-16
4.680000E+03	1.704181E-15	1.793319E-16
4.690000E+03	1.728599E-15	1.790599E-16
4.700000E+03	1.753145E-15	1.786071E-16
4.710000E+03	1.777790E-15	1.779673E-16
4.720000E+03	1.802546E-15	1.771393E-16
4.730000E+03	1.827424E-15	1.761227E-16
4.740000E+03	1.852403E-15	1.749152E-16
4.750000E+03	1.877538E-15	1.735226E-16
4.760000E+03	1.902811E-15	1.719452E-16
4.770000E+03	1.928246E-15	1.701884E-16
4.780000E+03	1.953903E-15	1.682625E-16
4.790000E+03	1.979736E-15	1.661695E-16
4.800000E+03	2.005811E-15	1.639234E-16
4.810000E+03	2.032120E-15	1.615336E-16
4.820000E+03	2.058734E-15	1.590181E-16
4.829700E+03	3.004047E-16	1.979618E-16
4.834290E+03	4.096543E-16	1.988365E-16
4.838890E+03	5.386104E-16	2.001999E-16
4.843490E+03	6.865626E-16	2.021873E-16
4.848080E+03	8.364426E-16	2.046322E-16
4.852680E+03	9.817148E-16	2.073853E-16
4.857280E+03	1.117773E-15	2.273848E-16
4.861880E+03	1.214167E-15	2.270485E-16
4.866470E+03	1.272096E-15	2.282546E-16
4.871070E+03	1.302949E-15	2.379045E-16
4.875670E+03	1.342150E-15	2.190502E-16
4.880260E+03	1.390891E-15	2.221007E-16
4.884860E+03	1.453391E-15	2.840425E-16
4.889460E+03	1.516071E-15	3.247055E-16
4.894050E+03	1.588929E-15	3.540879E-16
4.898650E+03	1.678570E-15	3.186268E-16
4.903250E+03	1.770589E-15	2.757489E-16
4.907850E+03	1.878013E-15	2.949836E-16
4.912440E+03	1.974697E-15	3.822374E-16
4.917040E+03	2.101643E-15	4.236613E-16
4.921640E+03	2.235642E-15	4.333506E-16
4.926230E+03	2.387610E-15	4.414808E-16
4.930830E+03	2.540392E-15	4.286220E-16
4.935430E+03	2.677300E-15	4.088345E-16
4.940020E+03	2.813193E-15	3.795864E-16
4.944620E+03	2.897360E-15	3.684065E-16
4.949220E+03	2.891020E-15	3.669173E-16
4.953820E+03	2.808762E-15	3.811842E-16
4.958410E+03	2.681677E-15	3.450753E-16
4.963010E+03	2.527464E-15	3.024975E-16
4.967610E+03	2.354469E-15	3.142428E-16
4.972200E+03	2.207068E-15	3.164826E-16
4.976800E+03	2.085439E-15	3.394954E-16
4.981400E+03	2.024878E-15	3.987880E-16
4.985990E+03	2.035554E-15	4.514446E-16
4.990590E+03	2.126079E-15	4.549097E-16
4.995190E+03	2.269957E-15	4.568828E-16
4.999790E+03	2.473416E-15	4.712806E-16
5.004380E+03	2.720781E-15	5.293914E-16
5.008980E+03	3.009298E-15	5.819102E-16
5.013580E+03	3.289469E-15	5.937663E-16
5.018170E+03	3.550663E-15	5.890882E-16
5.022770E+03	3.797281E-15	5.666013E-16
5.027370E+03	4.002102E-15	5.071501E-16
5.031960E+03	4.143771E-15	4.181118E-16
5.036560E+03	4.256205E-15	3.822884E-16
5.041160E+03	4.351138E-15	3.980954E-16
5.045760E+03	4.355426E-15	3.798466E-16
5.050350E+03	4.264489E-15	3.344106E-16
5.054950E+03	4.125346E-15	2.956282E-16
5.059550E+03	3.955139E-15	3.104266E-16
5.064140E+03	3.757715E-15	2.978881E-16
5.068740E+03	3.539582E-15	3.164659E-16
5.073340E+03	3.339143E-15	3.523989E-16
5.077930E+03	3.159055E-15	3.833249E-16
5.082530E+03	3.013892E-15	3.894140E-16
5.087130E+03	2.911722E-15	4.066353E-16
5.091730E+03	2.816887E-15	4.108882E-16
5.096320E+03	2.706655E-15	4.274115E-16
5.100920E+03	2.583316E-15	3.962834E-16
5.105520E+03	2.457411E-15	3.263869E-16
5.110110E+03	2.331505E-15	3.341785E-16
5.114710E+03	2.219900E-15	3.252322E-16
5.119310E+03	2.122503E-15	3.023715E-16
5.123900E+03	2.014562E-15	2.676204E-16
5.128500E+03	1.906528E-15	2.511307E-16
5.133100E+03	1.808668E-15	2.180740E-16
5.137700E+03	1.709797E-15	2.081428E-16
5.142290E+03	1.634119E-15	1.529097E-16
5.146890E+03	1.582279E-15	1.534835E-16
5.151490E+03	1.574267E-15	1.392485E-16
5.156080E+03	1.623109E-15	1.319404E-16
5.160680E+03	1.693324E-15	1.320689E-16
5.165280E+03	1.785924E-15	1.394419E-16
5.169870E+03	1.878626E-15	1.443706E-16
5.174470E+03	1.962170E-15	1.490384E-16
5.179070E+03	2.032059E-15	1.563622E-16
5.183670E+03	2.150938E-15	1.469603E-16
5.188260E+03	2.280841E-15	1.459215E-16
5.192860E+03	2.358751E-15	1.514226E-16
5.197460E+03	2.431078E-15	1.629381E-16
5.202050E+03	2.510207E-15	1.658738E-16
5.206650E+03	2.558800E-15	1.671680E-16
5.211250E+03	2.571712E-15	1.750219E-16
5.215840E+03	2.578850E-15	1.753155E-16
5.220440E+03	2.582875E-15	1.692148E-16
5.225040E+03	2.569469E-15	1.636021E-16
5.229640E+03	2.571669E-15	1.610895E-16
5.234230E+03	2.599390E-15	1.748324E-16
5.238830E+03	2.634740E-15	1.766875E-16
5.243430E+03	2.661656E-15	1.592490E-16
5.248020E+03	2.681696E-15	1.476622E-16
5.252620E+03	2.695135E-15	1.575407E-16
5.257220E+03	2.697564E-15	2.142466E-16
5.261810E+03	2.694764E-15	2.272327E-16
5.266410E+03	2.702807E-15	2.301950E-16
5.271010E+03	2.691755E-15	2.287504E-16
5.275610E+03	2.676113E-15	2.357275E-16
5.280200E+03	2.658913E-15	2.564080E-16
5.284800E+03	2.644196E-15	2.771458E-16
5.289400E+03	2.650340E-15	2.955522E-16
5.293990E+03	2.640317E-15	3.007274E-16
5.298590E+03	2.625521E-15	2.960318E-16
5.303190E+03	2.614312E-15	2.578152E-16
5.307780E+03	2.622133E-15	2.441309E-16
5.312380E+03	2.626470E-15	2.592187E-16
5.316980E+03	2.627044E-15	2.584785E-16
5.321580E+03	2.633510E-15	2.626500E-16
5.326170E+03	2.638235E-15	2.325229E-16
5.330770E+03	2.660720E-15	2.013829E-16
5.335370E+03	2.699129E-15	1.815297E-16
5.339960E+03	2.740129E-15	1.806554E-16
5.344560E+03	2.789796E-15	1.858746E-16
5.349160E+03	2.834146E-15	1.839892E-16
5.353750E+03	2.852377E-15	1.720889E-16
5.358350E+03	2.851108E-15	1.425960E-16
5.362950E+03	2.831435E-15	1.571869E-16
5.367550E+03	2.800624E-15	1.512725E-16
5.372140E+03	2.767968E-15	1.490077E-16
5.376740E+03	2.755112E-15	1.482423E-16
5.381340E+03	2.764272E-15	1.373958E-16
5.385930E+03	2.799329E-15	1.412810E-16
5.390530E+03	2.850436E-15	1.461433E-16
5.395130E+03	2.903133E-15	1.526350E-16
5.399720E+03	2.967005E-15	1.556694E-16
5.404320E+03	3.035793E-15	1.508487E-16
5.408920E+03	3.099817E-15	1.437804E-16
5.413520E+03	3.167559E-15	1.580530E-16
5.418110E+03	3.223435E-15	1.655199E-16
5.422710E+03	3.272975E-15	1.730633E-16
5.427310E+03	3.315252E-15	1.723050E-16
5.431900E+03	3.349156E-15	1.619629E-16
5.436500E+03	3.371084E-15	1.592094E-16
5.441100E+03	3.383337E-15	1.507010E-16
5.445690E+03	3.383785E-15	1.452676E-16
5.450290E+03	3.377964E-15	1.512024E-16
5.454890E+03	3.362361E-15	1.444868E-16
5.459490E+03	3.324867E-15	1.299528E-16
5.464080E+03	3.263620E-15	1.287508E-16
5.468680E+03	3.191731E-15	1.226318E-16
5.473280E+03	3.097545E-15	1.247135E-16
5.477870E+03	2.996486E-15	1.205049E-16
5.482470E+03	2.912596E-15	1.113322E-16
5.487070E+03	2.851432E-15	1.147693E-16
5.491660E+03	2.819853E-15	1.420290E-16
5.496260E+03	2.845458E-15	1.621627E-16
5.500860E+03	2.916064E-15	1.831956E-16
5.505460E+03	3.002171E-15	1.958369E-16
5.510050E+03	3.078695E-15	1.856337E-16
5.514650E+03	3.155357E-15	2.069931E-16
5.519250E+03	3.242161E-15	2.292603E-16
5.523840E+03	3.343285E-15	2.731258E-16
5.528440E+03	3.452068E-15	3.008465E-16
5.533040E+03	3.562582E-15	3.027173E-16
5.537630E+03	3.662309E-15	2.890377E-16
5.542230E+03	3.740116E-15	2.873728E-16
5.546830E+03	3.799972E-15	3.342200E-16
5.551430E+03	3.841403E-15	3.448010E-16
5.556020E+03	3.859656E-15	3.447299E-16
5.560620E+03	3.848777E-15	3.517483E-16
5.565220E+03	3.815706E-15	3.456855E-16
5.569810E+03	3.758101E-15	3.170014E-16
5.574410E+03	3.678919E-15	2.847722E-16
5.579010E+03	3.580370E-15	2.740307E-16
5.583610E+03	3.466622E-15	2.733701E-16
5.588200E+03	3.342124E-15	2.676810E-16
5.592800E+03	3.207334E-15	2.019885E-16
5.597400E+03	3.082713E-15	1.489786E-16
5.601990E+03	2.971988E-15	1.480472E-16
5.606590E+03	2.851434E-15	1.100753E-16
5.611190E+03	2.727371E-15	9.742550E-17
5.615780E+03	2.616003E-15	9.233881E-17
5.620380E+03	2.492558E-15	9.084207E-17
5.624980E+03	2.371842E-15	1.089603E-16
5.629580E+03	2.271013E-15	1.267954E-16
5.634170E+03	2.199227E-15	1.305577E-16
5.638770E+03	2.172469E-15	1.142875E-16
5.643370E+03	2.210748E-15	1.053727E-16
5.647960E+03	2.289199E-15	1.029326E-16
5.652560E+03	2.388903E-15	1.073716E-16
5.657160E+03	2.494561E-15	1.341444E-16
5.661750E+03	2.617204E-15	1.391496E-16
5.666350E+03	2.760963E-15	1.445990E-16
5.670950E+03	2.907253E-15	1.551711E-16
5.675550E+03	3.047096E-15	1.394194E-16
5.680140E+03	3.180111E-15	1.257140E-16
5.684740E+03	3.296095E-15	1.263836E-16
5.689340E+03	3.381733E-15	1.382024E-16
5.693930E+03	3.439336E-15	1.420397E-16
5.698530E+03	3.477031E-15	1.508360E-16
5.703130E+03	3.488985E-15	1.539490E-16
5.707720E+03	3.478170E-15	1.581961E-16
5.712320E+03	3.450382E-15	1.557899E-16
5.716920E+03	3.397440E-15	1.327280E-16
5.721520E+03	3.333487E-15	1.298201E-16
5.726110E+03	3.266208E-15	1.353830E-16
5.730710E+03	3.192504E-15	1.399880E-16
5.735310E+03	3.112367E-15	1.386428E-16
5.739900E+03	3.032364E-15	1.344075E-16
5.744500E+03	2.963031E-15	1.292031E-16
5.749100E+03	2.902401E-15	1.265971E-16
5.753690E+03	2.840883E-15	1.305036E-16
5.758290E+03	2.796929E-15	1.407655E-16
5.762890E+03	2.761610E-15	1.428609E-16
5.767490E+03	2.722221E-15	1.366826E-16
5.772080E+03	2.683182E-15	1.293159E-16
5.776680E+03	2.638937E-15	1.238062E-16
5.781280E+03	2.592213E-15	1.271641E-16
5.785870E+03	2.540834E-15	1.356784E-16
5.790470E+03	2.473758E-15	1.454349E-16
5.795070E+03	2.400595E-15	1.377756E-16
5.799660E+03	2.324450E-15	1.221366E-16
5.804260E+03	2.233232E-15	1.012938E-16
5.808860E+03	2.134577E-15	9.597524E-17
5.813460E+03	2.035281E-15	1.038571E-16
5.818050E+03	1.933451E-15	1.093367E-16
5.822650E+03	1.826815E-15	1.083156E-16
5.827250E+03	1.709403E-15	1.021024E-16
5.831840E+03	1.579400E-15	9.062950E-17
5.836440E+03	1.454887E-15	7.381578E-17
5.841040E+03	1.354727E-15	6.541353E-17
5.845630E+03	1.302746E-15	6.530428E-17
5.850230E+03	1.293881E-15	6.507608E-17
5.854830E+03	1.332737E-15	6.252364E-17
5.859430E+03	1.414342E-15	9.000040E-17
5.864020E+03	1.534093E-15	1.228835E-16
5.868620E+03	1.696507E-15	1.303857E-16
5.873220E+03	1.902678E-15	1.351684E-16
5.877810E+03	2.134027E-15	1.777050E-16
5.882410E+03	2.373467E-15	2.223348E-16
5.887010E+03	2.611967E-15	2.334550E-16
5.891600E+03	2.841339E-15	2.350053E-16
5.896200E+03	3.066910E-15	2.389944E-16
5.900800E+03	3.271809E-15	2.411549E-16
5.905400E+03	3.450102E-15	2.281406E-16
5.909990E+03	3.598224E-15	1.988961E-16
5.914590E+03	3.714427E-15	1.871351E-16
5.919190E+03	3.793513E-15	1.997065E-16
5.923780E+03	3.837818E-15	1.962995E-16
5.928380E+03	3.849980E-15	1.527297E-16
5.932980E+03	3.826990E-15	1.390812E-16
5.937570E+03	3.774058E-15	1.402875E-16
5.942170E+03	3.705116E-15	1.387906E-16
5.946770E+03	3.617460E-15	1.381399E-16
5.951370E+03	3.518627E-15	1.352345E-16
5.955960E+03	3.434266E-15	1.327645E-16
5.960560E+03	3.370247E-15	1.304112E-16
5.965160E+03	3.321320E-15	1.244952E-16
5.969750E+03	3.280694E-15	1.127054E-16
5.974350E+03	3.232364E-15	1.113192E-16
5.978950E+03	3.179676E-15	1.048486E-16
5.983540E+03	3.134335E-15	9.951131E-17
5.988140E+03	3.099432E-15	9.831936E-17
5.992740E+03	3.081418E-15	9.626334E-17
5.997340E+03	3.056948E-15	9.575514E-17
6.001930E+03	3.035439E-15	9.515812E-17
6.006530E+03	3.013147E-15	9.632935E-17
6.011130E+03	2.992860E-15	9.658368E-17
6.015720E+03	2.979877E-15	9.595543E-17
6.020320E+03	2.972092E-15	9.508717E-17
6.024920E+03	2.958229E-15	9.548309E-17
6.029510E+03	2.932005E-15	9.504741E-17
6.034110E+03	2.906343E-15	9.383694E-17
6.038710E+03	2.881239E-15	9.235896E-17
6.043310E+03	2.867997E-15	9.145534E-17
6.047900E+03	2.856385E-15	9.154508E-17
6.052500E+03	2.843609E-15	9.325742E-17
6.057100E+03	2.833919E-15	9.308530E-17
6.061690E+03	2.820832E-15	9.328559E-17
6.066290E+03	2.803285E-15	9.421618E-17
6.070890E+03	2.772355E-15	1.072382E-16
6.075480E+03	2.719976E-15	1.276190E-16
6.080080E+03	2.648547E-15	1.400908E-16
6.084680E+03	2.561725E-15	1.363513E-16
6.089280E+03	2.460749E-15	1.279343E-16
6.093870E+03	2.360355E-15	1.365743E-16
6.098470E+03	2.268905E-15	1.461775E-16
6.103070E+03	2.191657E-15	1.690364E-16
6.107660E+03	2.137381E-15	1.964376E-16
6.112260E+03	2.107381E-15	2.100498E-16
6.116860E+03	2.104512E-15	2.025558E-16
6.121450E+03	2.125694E-15	1.781996E-16
6.126050E+03	2.182855E-15	1.649579E-16
6.130650E+03	2.269416E-15	1.833109E-16
6.135250E+03	2.373327E-15	2.048582E-16
6.139840E+03	2.494806E-15	2.224586E-16
6.144440E+03	2.622072E-15	2.206361E-16
6.149040E+03	2.752982E-15	2.080406E-16
6.153630E+03	2.879134E-15	1.788900E-16
6.158230E+03	2.991924E-15	1.498502E-16
6.162830E+03	3.083209E-15	1.279540E-16
6.167420E+03	3.142092E-15	1.299837E-16
6.172020E+03	3.156487E-15	1.335461E-16
6.176620E+03	3.123287E-15	1.302260E-16
