#wls	flux	fluxerr
1.600000E+03	4.736944E-18	5.189395E-18
1.640000E+03	4.845988E-18	5.249722E-18
1.680000E+03	4.962582E-18	5.313828E-18
1.720000E+03	5.088993E-18	5.383681E-18
1.760000E+03	5.222417E-18	5.455816E-18
1.800000E+03	5.363446E-18	5.530400E-18
1.840000E+03	5.516319E-18	5.611258E-18
1.880000E+03	5.680101E-18	5.696769E-18
1.920000E+03	5.853818E-18	5.785303E-18
1.960000E+03	6.042134E-18	5.880746E-18
2.000000E+03	6.242369E-18	5.979645E-18
2.040000E+03	6.459543E-18	6.085935E-18
2.080000E+03	6.691059E-18	6.196147E-18
2.120000E+03	6.942370E-18	6.314271E-18
2.160000E+03	7.213115E-18	6.438707E-18
2.200000E+03	7.502907E-18	6.567814E-18
2.240000E+03	7.818026E-18	6.705659E-18
2.280000E+03	8.160857E-18	6.852547E-18
2.320000E+03	8.529305E-18	7.004879E-18
2.360000E+03	8.930777E-18	7.166785E-18
2.400000E+03	9.365999E-18	7.336553E-18
2.440000E+03	9.840966E-18	7.516379E-18
2.480000E+03	1.035699E-17	7.704447E-18
2.520000E+03	1.091824E-17	7.900850E-18
2.560000E+03	1.153231E-17	8.107678E-18
2.600000E+03	1.220163E-17	8.322830E-18
2.640000E+03	1.293513E-17	8.548233E-18
2.680000E+03	1.373958E-17	8.783619E-18
2.720000E+03	1.461895E-17	9.026375E-18
2.760000E+03	1.558467E-17	9.277957E-18
2.800000E+03	1.664192E-17	9.535220E-18
2.840000E+03	1.780815E-17	9.801347E-18
2.880000E+03	1.908615E-17	1.007028E-17
2.920000E+03	2.049597E-17	1.034454E-17
2.960000E+03	2.204119E-17	1.061711E-17
3.000000E+03	2.373930E-17	1.088730E-17
3.010000E+03	2.419158E-17	1.095511E-17
3.020000E+03	2.465389E-17	1.102221E-17
3.030000E+03	2.512645E-17	1.108854E-17
3.040000E+03	2.560943E-17	1.115404E-17
3.050000E+03	2.610304E-17	1.121863E-17
3.060000E+03	2.660745E-17	1.128226E-17
3.070000E+03	2.712851E-17	1.134721E-17
3.080000E+03	2.765520E-17	1.140869E-17
3.090000E+03	2.819908E-17	1.147137E-17
3.100000E+03	2.875470E-17	1.153280E-17
3.110000E+03	2.932222E-17	1.159292E-17
3.120000E+03	2.990185E-17	1.165165E-17
3.130000E+03	3.049374E-17	1.170891E-17
3.140000E+03	3.109806E-17	1.176464E-17
3.150000E+03	3.172136E-17	1.182114E-17
3.160000E+03	3.235761E-17	1.187596E-17
3.170000E+03	3.300038E-17	1.192665E-17
3.180000E+03	3.366288E-17	1.197791E-17
3.190000E+03	3.433875E-17	1.202727E-17
3.200000E+03	3.503502E-17	1.207706E-17
3.210000E+03	3.573812E-17	1.212247E-17
3.220000E+03	3.646205E-17	1.216818E-17
3.230000E+03	3.719279E-17	1.220940E-17
3.240000E+03	3.794473E-17	1.225083E-17
3.250000E+03	3.871085E-17	1.229004E-17
3.260000E+03	3.949119E-17	1.232702E-17
3.270000E+03	4.028576E-17	1.236173E-17
3.280000E+03	4.110240E-17	1.239651E-17
3.290000E+03	4.192561E-17	1.242665E-17
3.300000E+03	4.277109E-17	1.245686E-17
3.310000E+03	4.363099E-17	1.248479E-17
3.320000E+03	4.450525E-17	1.251048E-17
3.330000E+03	4.539378E-17	1.253398E-17
3.340000E+03	4.629646E-17	1.255535E-17
3.350000E+03	4.722185E-17	1.257698E-17
3.360000E+03	4.816135E-17	1.259664E-17
3.370000E+03	4.910582E-17	1.261215E-17
3.380000E+03	5.007283E-17	1.262824E-17
3.390000E+03	5.105331E-17	1.264277E-17
3.400000E+03	5.204699E-17	1.265591E-17
3.410000E+03	5.306308E-17	1.267015E-17
3.420000E+03	5.408240E-17	1.268114E-17
3.430000E+03	5.512372E-17	1.269367E-17
3.440000E+03	5.617718E-17	1.270574E-17
3.450000E+03	5.724237E-17	1.271764E-17
3.460000E+03	5.831886E-17	1.272967E-17
3.470000E+03	5.940618E-17	1.274218E-17
3.480000E+03	6.051436E-17	1.275773E-17
3.490000E+03	6.163268E-17	1.277445E-17
3.500000E+03	6.274982E-17	1.279053E-17
3.510000E+03	6.388665E-17	1.281074E-17
3.520000E+03	6.503197E-17	1.283329E-17
3.530000E+03	6.619638E-17	1.286073E-17
3.540000E+03	6.735698E-17	1.288909E-17
3.550000E+03	6.853571E-17	1.292308E-17
3.560000E+03	6.972069E-17	1.296085E-17
3.570000E+03	7.089942E-17	1.300056E-17
3.580000E+03	7.210657E-17	1.304895E-17
3.590000E+03	7.330600E-17	1.309971E-17
3.600000E+03	7.450868E-17	1.315513E-17
3.610000E+03	7.572612E-17	1.321739E-17
3.620000E+03	7.693283E-17	1.328211E-17
3.630000E+03	7.815270E-17	1.335345E-17
3.640000E+03	7.937239E-17	1.342903E-17
3.650000E+03	8.060377E-17	1.351069E-17
3.660000E+03	8.182010E-17	1.359375E-17
3.670000E+03	8.303310E-17	1.367991E-17
3.680000E+03	8.425497E-17	1.377087E-17
3.690000E+03	8.547157E-17	1.386390E-17
3.700000E+03	8.668178E-17	1.395844E-17
3.710000E+03	8.788447E-17	1.405384E-17
3.720000E+03	8.909232E-17	1.415167E-17
3.730000E+03	9.027668E-17	1.424687E-17
3.740000E+03	9.146414E-17	1.434313E-17
3.750000E+03	9.262557E-17	1.443537E-17
3.760000E+03	9.378802E-17	1.452730E-17
3.770000E+03	9.495068E-17	1.461824E-17
3.780000E+03	9.608373E-17	1.470307E-17
3.790000E+03	9.720027E-17	1.478336E-17
3.800000E+03	9.831386E-17	1.486067E-17
3.810000E+03	9.940883E-17	1.493217E-17
3.820000E+03	1.004841E-16	1.499728E-17
3.830000E+03	1.015384E-16	1.505545E-17
3.840000E+03	1.025707E-16	1.510616E-17
3.850000E+03	1.035798E-16	1.514898E-17
3.860000E+03	1.045799E-16	1.518567E-17
3.870000E+03	1.055548E-16	1.521368E-17
3.880000E+03	1.065034E-16	1.523268E-17
3.890000E+03	1.074246E-16	1.524244E-17
3.900000E+03	1.083176E-16	1.524276E-17
3.910000E+03	1.091811E-16	1.523351E-17
3.920000E+03	1.100299E-16	1.521678E-17
3.930000E+03	1.108321E-16	1.518825E-17
3.940000E+03	1.116178E-16	1.515226E-17
3.950000E+03	1.123707E-16	1.510679E-17
3.960000E+03	1.130901E-16	1.505202E-17
3.970000E+03	1.137753E-16	1.498819E-17
3.980000E+03	1.144415E-16	1.491766E-17
3.990000E+03	1.150568E-16	1.483666E-17
4.000000E+03	1.156523E-16	1.474968E-17
4.010000E+03	1.162121E-16	1.465512E-17
4.020000E+03	1.167361E-16	1.455348E-17
4.030000E+03	1.172244E-16	1.444528E-17
4.040000E+03	1.176772E-16	1.433110E-17
4.050000E+03	1.180949E-16	1.421152E-17
4.060000E+03	1.184939E-16	1.408900E-17
4.070000E+03	1.188435E-16	1.396042E-17
4.080000E+03	1.191760E-16	1.383008E-17
4.090000E+03	1.194768E-16	1.369676E-17
4.100000E+03	1.197473E-16	1.356107E-17
4.110000E+03	1.199889E-16	1.342361E-17
4.120000E+03	1.202186E-16	1.328667E-17
4.130000E+03	1.204072E-16	1.314739E-17
4.140000E+03	1.205874E-16	1.300969E-17
4.150000E+03	1.207455E-16	1.287239E-17
4.160000E+03	1.208685E-16	1.273436E-17
4.170000E+03	1.209887E-16	1.259930E-17
4.180000E+03	1.210932E-16	1.246600E-17
4.190000E+03	1.211990E-16	1.233637E-17
4.200000E+03	1.212782E-16	1.220769E-17
4.210000E+03	1.213480E-16	1.208183E-17
4.220000E+03	1.214256E-16	1.196052E-17
4.230000E+03	1.214980E-16	1.184253E-17
4.240000E+03	1.215527E-16	1.172663E-17
4.250000E+03	1.216214E-16	1.161589E-17
4.260000E+03	1.216913E-16	1.150901E-17
4.270000E+03	1.217646E-16	1.140613E-17
4.280000E+03	1.218576E-16	1.130869E-17
4.290000E+03	1.219434E-16	1.121406E-17
4.300000E+03	1.220382E-16	1.112367E-17
4.310000E+03	1.221583E-16	1.103884E-17
4.320000E+03	1.222909E-16	1.095827E-17
4.330000E+03	1.224234E-16	1.088068E-17
4.340000E+03	1.225859E-16	1.080863E-17
4.350000E+03	1.227656E-16	1.074081E-17
4.360000E+03	1.229638E-16	1.067717E-17
4.370000E+03	1.231818E-16	1.061769E-17
4.380000E+03	1.234207E-16	1.056231E-17
4.390000E+03	1.236956E-16	1.051217E-17
4.400000E+03	1.239795E-16	1.046480E-17
4.410000E+03	1.242871E-16	1.042135E-17
4.420000E+03	1.246332E-16	1.038290E-17
4.430000E+03	1.249904E-16	1.034704E-17
4.440000E+03	1.253870E-16	1.031599E-17
4.450000E+03	1.258093E-16	1.028852E-17
4.460000E+03	1.262436E-16	1.026338E-17
4.470000E+03	1.267177E-16	1.024276E-17
4.480000E+03	1.272174E-16	1.022540E-17
4.490000E+03	1.277423E-16	1.021118E-17
4.500000E+03	1.282920E-16	1.020001E-17
4.510000E+03	1.288656E-16	1.019175E-17
4.520000E+03	1.294623E-16	1.018628E-17
4.530000E+03	1.300811E-16	1.018348E-17
4.540000E+03	1.307347E-16	1.018431E-17
4.550000E+03	1.313939E-16	1.018647E-17
4.560000E+03	1.320713E-16	1.019092E-17
4.570000E+03	1.327652E-16	1.019755E-17
4.580000E+03	1.334882E-16	1.020731E-17
4.590000E+03	1.342105E-16	1.021795E-17
4.600000E+03	1.349585E-16	1.023149E-17
4.610000E+03	1.357026E-16	1.024570E-17
4.620000E+03	1.364690E-16	1.026261E-17
4.630000E+03	1.372280E-16	1.028002E-17
4.640000E+03	1.380063E-16	1.029994E-17
4.650000E+03	1.387740E-16	1.032018E-17
4.660000E+03	1.395578E-16	1.034276E-17
4.670000E+03	1.403281E-16	1.036549E-17
4.680000E+03	1.411118E-16	1.039039E-17
4.690000E+03	1.418792E-16	1.041526E-17
4.700000E+03	1.426574E-16	1.044208E-17
4.710000E+03	1.434309E-16	1.046970E-17
4.720000E+03	1.441844E-16	1.049695E-17
4.730000E+03	1.449450E-16	1.052574E-17
4.740000E+03	1.456831E-16	1.055385E-17
4.750000E+03	1.464259E-16	1.058313E-17
4.760000E+03	1.471438E-16	1.061129E-17
4.770000E+03	1.478640E-16	1.064016E-17
4.780000E+03	1.485567E-16	1.066740E-17
4.790000E+03	1.492492E-16	1.069476E-17
4.800000E+03	1.499115E-16	1.071986E-17
4.810000E+03	1.505709E-16	1.074443E-17
4.820000E+03	1.511972E-16	1.076605E-17
4.830000E+03	1.518034E-16	1.078539E-17
4.840000E+03	1.524024E-16	1.080312E-17
4.850000E+03	1.529641E-16	1.081684E-17
4.860000E+03	1.535017E-16	1.082725E-17
4.870000E+03	1.540138E-16	1.083402E-17
4.880000E+03	1.544996E-16	1.083687E-17
4.890000E+03	1.549583E-16	1.083554E-17
4.900000E+03	1.553894E-16	1.082984E-17
4.910000E+03	1.557930E-16	1.081959E-17
4.920000E+03	1.561692E-16	1.080466E-17
4.930000E+03	1.565189E-16	1.078500E-17
4.940000E+03	1.568289E-16	1.075960E-17
4.950000E+03	1.571297E-16	1.073047E-17
4.960000E+03	1.574090E-16	1.069672E-17
4.970000E+03	1.576555E-16	1.065754E-17
4.980000E+03	1.579008E-16	1.061507E-17
4.990000E+03	1.581202E-16	1.056770E-17
5.000000E+03	1.583321E-16	1.051671E-17
5.010000E+03	1.585410E-16	1.046252E-17
5.020000E+03	1.587518E-16	1.040559E-17
5.030000E+03	1.589698E-16	1.034645E-17
5.040000E+03	1.592004E-16	1.028565E-17
5.050000E+03	1.594493E-16	1.022381E-17
5.060000E+03	1.597085E-16	1.016066E-17
5.070000E+03	1.600115E-16	1.009861E-17
5.080000E+03	1.603364E-16	1.003653E-17
5.090000E+03	1.607029E-16	9.975903E-18
5.100000E+03	1.611302E-16	9.918113E-18
5.110000E+03	1.615958E-16	9.861930E-18
5.120000E+03	1.621044E-16	9.807763E-18
5.130000E+03	1.626877E-16	9.757573E-18
5.140000E+03	1.633354E-16	9.710668E-18
5.150000E+03	1.640365E-16	9.666248E-18
5.160000E+03	1.648204E-16	9.625814E-18
5.170000E+03	1.656607E-16	9.587442E-18
5.180000E+03	1.665712E-16	9.551482E-18
5.190000E+03	1.675513E-16	9.517299E-18
5.200000E+03	1.685995E-16	9.484091E-18
5.210000E+03	1.696994E-16	9.450112E-18
5.220000E+03	1.708760E-16	9.415818E-18
5.230000E+03	1.720976E-16	9.378397E-18
5.240000E+03	1.733741E-16	9.337265E-18
5.250000E+03	1.747011E-16	9.290962E-18
5.260000E+03	1.760737E-16	9.237965E-18
5.270000E+03	1.774871E-16	9.176716E-18
5.280000E+03	1.789214E-16	9.104919E-18
5.290000E+03	1.803862E-16	9.021814E-18
5.300000E+03	1.818907E-16	8.926683E-18
5.310000E+03	1.833858E-16	8.816040E-18
5.320000E+03	1.849104E-16	8.690883E-18
5.330000E+03	1.864446E-16	8.549523E-18
5.340000E+03	1.879681E-16	8.390572E-18
5.350000E+03	1.894904E-16	8.214315E-18
5.360000E+03	1.910061E-16	8.020704E-18
5.370000E+03	1.925096E-16	7.810143E-18
5.380000E+03	1.939952E-16	7.583587E-18
5.390000E+03	1.954414E-16	7.342108E-18
5.400000E+03	1.968575E-16	7.088850E-18
5.410000E+03	1.982375E-16	6.827432E-18
5.420000E+03	1.995753E-16	6.562837E-18
5.430000E+03	2.008495E-16	6.301217E-18
5.440000E+03	2.020857E-16	6.052136E-18
5.450000E+03	2.032476E-16	5.825219E-18
5.460000E+03	2.043464E-16	5.633306E-18
5.470000E+03	2.053622E-16	5.489161E-18
5.480000E+03	2.063227E-16	5.405844E-18
5.490000E+03	2.071918E-16	5.391176E-18
5.500000E+03	2.079799E-16	5.448333E-18
5.510000E+03	2.086806E-16	5.573306E-18
5.520000E+03	2.092713E-16	5.756103E-18
5.530000E+03	2.097783E-16	5.984989E-18
5.540000E+03	2.101659E-16	6.245875E-18
5.550000E+03	2.104330E-16	6.526580E-18
5.560000E+03	2.106138E-16	6.817843E-18
5.570000E+03	2.106813E-16	7.110527E-18
5.580000E+03	2.106596E-16	7.399002E-18
5.590000E+03	2.105592E-16	7.678892E-18
5.600000E+03	2.103928E-16	7.947284E-18
5.610000E+03	2.101587E-16	8.201844E-18
5.620000E+03	2.098880E-16	8.442373E-18
5.630000E+03	2.095966E-16	8.668827E-18
5.640000E+03	2.093002E-16	8.881715E-18
5.650000E+03	2.089992E-16	9.081275E-18
5.660000E+03	2.087242E-16	9.269346E-18
5.670000E+03	2.084898E-16	9.447293E-18
5.680000E+03	2.082944E-16	9.615869E-18
5.690000E+03	2.081664E-16	9.777247E-18
5.700000E+03	2.081179E-16	9.932890E-18
5.710000E+03	2.081605E-16	1.008419E-17
5.720000E+03	2.083047E-16	1.023245E-17
5.730000E+03	2.085452E-16	1.037807E-17
5.740000E+03	2.089060E-16	1.052283E-17
5.750000E+03	2.093801E-16	1.066682E-17
5.760000E+03	2.099892E-16	1.081150E-17
5.770000E+03	2.107538E-16	1.095818E-17
5.780000E+03	2.116317E-16	1.110480E-17
5.790000E+03	2.126701E-16	1.125391E-17
5.800000E+03	2.138374E-16	1.140381E-17
5.810000E+03	2.151453E-16	1.155510E-17
5.820000E+03	2.165718E-16	1.170650E-17
5.830000E+03	2.181385E-16	1.185910E-17
5.840000E+03	2.198019E-16	1.201046E-17
5.850000E+03	2.215619E-16	1.216058E-17
5.860000E+03	2.233845E-16	1.230759E-17
5.870000E+03	2.252649E-16	1.245134E-17
5.880000E+03	2.271806E-16	1.259076E-17
5.890000E+03	2.291080E-16	1.272482E-17
5.900000E+03	2.310064E-16	1.285161E-17
5.910000E+03	2.328680E-16	1.297113E-17
5.920000E+03	2.346699E-16	1.308260E-17
5.930000E+03	2.363738E-16	1.318444E-17
5.940000E+03	2.379774E-16	1.327709E-17
5.950000E+03	2.394645E-16	1.336025E-17
5.960000E+03	2.408052E-16	1.343281E-17
5.970000E+03	2.420238E-16	1.349664E-17
5.980000E+03	2.430803E-16	1.354995E-17
5.990000E+03	2.439719E-16	1.359294E-17
6.000000E+03	2.447164E-16	1.362684E-17
6.010000E+03	2.453173E-16	1.365195E-17
6.020000E+03	2.457806E-16	1.366860E-17
6.030000E+03	2.461148E-16	1.367709E-17
6.040000E+03	2.463124E-16	1.367675E-17
6.050000E+03	2.463847E-16	1.366781E-17
6.060000E+03	2.463781E-16	1.365235E-17
6.070000E+03	2.462707E-16	1.362861E-17
6.080000E+03	2.460920E-16	1.359759E-17
6.090000E+03	2.458370E-16	1.355839E-17
6.100000E+03	2.455516E-16	1.351289E-17
6.110000E+03	2.451956E-16	1.345825E-17
6.120000E+03	2.448301E-16	1.339725E-17
6.130000E+03	2.444304E-16	1.332800E-17
6.140000E+03	2.440218E-16	1.325145E-17
6.150000E+03	2.436119E-16	1.316760E-17
6.160000E+03	2.431907E-16	1.307564E-17
6.170000E+03	2.427811E-16	1.297657E-17
6.180000E+03	2.423888E-16	1.287055E-17
6.190000E+03	2.420189E-16	1.275774E-17
6.200000E+03	2.416596E-16	1.263748E-17
6.210000E+03	2.413322E-16	1.251088E-17
6.220000E+03	2.410246E-16	1.237729E-17
6.230000E+03	2.407578E-16	1.223777E-17
6.240000E+03	2.405360E-16	1.209250E-17
6.250000E+03	2.403641E-16	1.194158E-17
6.260000E+03	2.402302E-16	1.178426E-17
6.270000E+03	2.401560E-16	1.162131E-17
6.280000E+03	2.401472E-16	1.145259E-17
6.290000E+03	2.401933E-16	1.127706E-17
6.300000E+03	2.403175E-16	1.109512E-17
6.310000E+03	2.405269E-16	1.090619E-17
6.320000E+03	2.408126E-16	1.070883E-17
6.330000E+03	2.411989E-16	1.050287E-17
6.340000E+03	2.416941E-16	1.028721E-17
6.350000E+03	2.423060E-16	1.006056E-17
6.360000E+03	2.430258E-16	9.820769E-18
6.370000E+03	2.438772E-16	9.566914E-18
6.380000E+03	2.448662E-16	9.297232E-18
6.390000E+03	2.459810E-16	9.009288E-18
6.400000E+03	2.472412E-16	8.701947E-18
6.410000E+03	2.486481E-16	8.373586E-18
6.420000E+03	2.501836E-16	8.022397E-18
6.430000E+03	2.518606E-16	7.648344E-18
6.440000E+03	2.536725E-16	7.251824E-18
6.450000E+03	2.555921E-16	6.834348E-18
6.460000E+03	2.576407E-16	6.401224E-18
6.470000E+03	2.597492E-16	5.959008E-18
6.480000E+03	2.619497E-16	5.521918E-18
6.490000E+03	2.641827E-16	5.109054E-18
6.500000E+03	2.664383E-16	4.749381E-18
6.510000E+03	2.686857E-16	4.479965E-18
6.520000E+03	2.708731E-16	4.340841E-18
6.530000E+03	2.730021E-16	4.363965E-18
6.540000E+03	2.749813E-16	4.557054E-18
6.550000E+03	2.768308E-16	4.903251E-18
6.560000E+03	2.784785E-16	5.367476E-18
6.570000E+03	2.799101E-16	5.912082E-18
6.580000E+03	2.810943E-16	6.503617E-18
6.590000E+03	2.819838E-16	7.114971E-18
6.600000E+03	2.825733E-16	7.726230E-18
6.610000E+03	2.828430E-16	8.322117E-18
6.620000E+03	2.827783E-16	8.891207E-18
6.630000E+03	2.823509E-16	9.424400E-18
6.640000E+03	2.815770E-16	9.916151E-18
6.650000E+03	2.804596E-16	1.036227E-17
6.660000E+03	2.789882E-16	1.075942E-17
6.670000E+03	2.771963E-16	1.110710E-17
6.680000E+03	2.751030E-16	1.140527E-17
6.690000E+03	2.727319E-16	1.165497E-17
6.700000E+03	2.700923E-16	1.185728E-17
6.710000E+03	2.672334E-16	1.201561E-17
6.720000E+03	2.641880E-16	1.213318E-17
6.730000E+03	2.609730E-16	1.221287E-17
6.740000E+03	2.576593E-16	1.226033E-17
6.750000E+03	2.542470E-16	1.227812E-17
6.760000E+03	2.507715E-16	1.227054E-17
6.770000E+03	2.473009E-16	1.224353E-17
6.780000E+03	2.438330E-16	1.219955E-17
6.790000E+03	2.404148E-16	1.214337E-17
6.800000E+03	2.370735E-16	1.207863E-17
6.810000E+03	2.338178E-16	1.200782E-17
6.820000E+03	2.306860E-16	1.193472E-17
6.830000E+03	2.276971E-16	1.186188E-17
6.840000E+03	2.248673E-16	1.179150E-17
6.850000E+03	2.221952E-16	1.172460E-17
6.860000E+03	2.197072E-16	1.166348E-17
6.870000E+03	2.174124E-16	1.160932E-17
6.880000E+03	2.153174E-16	1.156301E-17
6.890000E+03	2.134125E-16	1.152443E-17
6.900000E+03	2.117159E-16	1.149484E-17
6.910000E+03	2.102292E-16	1.147452E-17
6.920000E+03	2.089529E-16	1.146362E-17
6.930000E+03	2.078721E-16	1.146137E-17
6.940000E+03	2.069992E-16	1.146849E-17
6.950000E+03	2.063319E-16	1.148483E-17
6.960000E+03	2.058665E-16	1.151019E-17
6.970000E+03	2.055848E-16	1.154354E-17
6.980000E+03	2.055105E-16	1.158618E-17
6.990000E+03	2.056102E-16	1.163625E-17
7.000000E+03	2.058781E-16	1.169342E-17
7.010000E+03	2.063367E-16	1.175901E-17
7.020000E+03	2.069515E-16	1.183112E-17
7.030000E+03	2.077302E-16	1.191028E-17
7.040000E+03	2.086664E-16	1.199620E-17
7.050000E+03	2.097534E-16	1.208864E-17
7.060000E+03	2.109698E-16	1.218649E-17
7.070000E+03	2.123229E-16	1.229034E-17
7.080000E+03	2.138054E-16	1.239995E-17
7.090000E+03	2.154098E-16	1.251503E-17
7.100000E+03	2.171125E-16	1.263443E-17
7.110000E+03	2.189348E-16	1.275955E-17
7.120000E+03	2.208365E-16	1.288823E-17
7.130000E+03	2.228215E-16	1.302088E-17
7.140000E+03	2.248618E-16	1.315601E-17
7.150000E+03	2.269745E-16	1.329476E-17
7.160000E+03	2.291121E-16	1.343443E-17
7.170000E+03	2.312724E-16	1.357497E-17
7.180000E+03	2.334353E-16	1.371523E-17
7.190000E+03	2.355787E-16	1.385389E-17
7.200000E+03	2.376615E-16	1.398849E-17
7.210000E+03	2.396740E-16	1.411838E-17
7.220000E+03	2.415883E-16	1.424180E-17
7.230000E+03	2.433754E-16	1.435691E-17
7.240000E+03	2.450058E-16	1.446181E-17
7.250000E+03	2.464321E-16	1.455358E-17
7.260000E+03	2.476602E-16	1.463240E-17
7.270000E+03	2.486275E-16	1.469448E-17
7.280000E+03	2.493262E-16	1.473924E-17
7.290000E+03	2.497166E-16	1.476427E-17
7.300000E+03	2.498161E-16	1.477055E-17
7.310000E+03	2.495754E-16	1.475518E-17
7.320000E+03	2.490041E-16	1.471875E-17
7.330000E+03	2.480994E-16	1.466115E-17
7.340000E+03	2.468639E-16	1.458261E-17
7.350000E+03	2.453064E-16	1.448375E-17
7.360000E+03	2.434233E-16	1.436448E-17
7.370000E+03	2.412515E-16	1.422710E-17
7.380000E+03	2.388318E-16	1.407416E-17
7.390000E+03	2.361401E-16	1.390438E-17
7.400000E+03	2.332588E-16	1.372273E-17
7.410000E+03	2.302036E-16	1.353029E-17
7.420000E+03	2.269925E-16	1.332824E-17
7.430000E+03	2.236779E-16	1.311977E-17
7.440000E+03	2.203111E-16	1.290800E-17
7.450000E+03	2.168791E-16	1.269226E-17
7.460000E+03	2.134640E-16	1.247742E-17
7.470000E+03	2.100820E-16	1.226447E-17
7.480000E+03	2.067488E-16	1.205433E-17
7.490000E+03	2.035231E-16	1.185041E-17
7.500000E+03	2.004009E-16	1.165242E-17
7.510000E+03	1.974206E-16	1.146253E-17
7.520000E+03	1.945888E-16	1.128096E-17
7.530000E+03	1.919520E-16	1.111027E-17
7.540000E+03	1.895107E-16	1.095028E-17
7.550000E+03	1.872634E-16	1.080065E-17
7.560000E+03	1.852334E-16	1.066249E-17
7.570000E+03	1.834272E-16	1.053587E-17
7.580000E+03	1.818483E-16	1.042067E-17
7.590000E+03	1.804976E-16	1.031664E-17
7.600000E+03	1.793598E-16	1.022256E-17
7.610000E+03	1.784571E-16	1.013937E-17
7.620000E+03	1.777557E-16	1.006484E-17
7.630000E+03	1.772595E-16	9.998874E-18
7.640000E+03	1.769698E-16	9.941264E-18
7.650000E+03	1.768327E-16	9.888724E-18
7.660000E+03	1.768723E-16	9.842362E-18
7.670000E+03	1.770579E-16	9.800241E-18
7.680000E+03	1.773575E-16	9.760390E-18
7.690000E+03	1.777784E-16	9.723019E-18
7.700000E+03	1.782740E-16	9.685379E-18
7.710000E+03	1.788382E-16	9.646934E-18
7.720000E+03	1.794521E-16	9.606431E-18
7.730000E+03	1.800980E-16	9.562653E-18
7.740000E+03	1.807597E-16	9.514428E-18
7.750000E+03	1.814233E-16	9.460639E-18
7.760000E+03	1.820629E-16	9.399510E-18
