#wls	flux	fluxerr
1.600000E+03	3.190294E-18	3.702483E-18
1.640000E+03	3.269297E-18	3.759262E-18
1.680000E+03	3.352689E-18	3.818375E-18
1.720000E+03	3.442346E-18	3.881703E-18
1.760000E+03	3.535448E-18	3.945792E-18
1.800000E+03	3.635537E-18	4.014336E-18
1.840000E+03	3.741398E-18	4.085650E-18
1.880000E+03	3.853424E-18	4.159838E-18
1.920000E+03	3.972040E-18	4.237002E-18
1.960000E+03	4.097700E-18	4.317243E-18
2.000000E+03	4.232768E-18	4.402612E-18
2.040000E+03	4.374071E-18	4.489331E-18
2.080000E+03	4.525982E-18	4.581425E-18
2.120000E+03	4.687244E-18	4.677036E-18
2.160000E+03	4.858518E-18	4.776250E-18
2.200000E+03	5.042687E-18	4.881246E-18
2.240000E+03	5.236244E-18	4.987923E-18
2.280000E+03	5.444435E-18	5.100581E-18
2.320000E+03	5.665985E-18	5.217167E-18
2.360000E+03	5.901858E-18	5.337718E-18
2.400000E+03	6.153093E-18	5.462252E-18
2.440000E+03	6.423471E-18	5.593097E-18
2.480000E+03	6.708956E-18	5.725628E-18
2.520000E+03	7.016287E-18	5.864501E-18
2.560000E+03	7.344201E-18	6.007334E-18
2.600000E+03	7.694209E-18	6.154050E-18
2.640000E+03	8.071188E-18	6.307093E-18
2.680000E+03	8.470521E-18	6.461305E-18
2.720000E+03	8.900757E-18	6.621682E-18
2.760000E+03	9.360701E-18	6.785537E-18
2.800000E+03	9.852573E-18	6.952719E-18
2.840000E+03	1.037877E-17	7.123083E-18
2.880000E+03	1.094188E-17	7.296505E-18
2.920000E+03	1.154917E-17	7.475782E-18
2.960000E+03	1.219966E-17	7.658116E-18
3.000000E+03	1.289670E-17	7.843589E-18
3.010000E+03	1.307741E-17	7.889720E-18
3.020000E+03	1.326128E-17	7.936059E-18
3.030000E+03	1.344838E-17	7.982613E-18
3.040000E+03	1.364393E-17	8.032425E-18
3.050000E+03	1.383773E-17	8.079440E-18
3.060000E+03	1.403494E-17	8.126694E-18
3.070000E+03	1.423564E-17	8.174195E-18
3.080000E+03	1.444532E-17	8.225046E-18
3.090000E+03	1.465326E-17	8.273090E-18
3.100000E+03	1.486489E-17	8.321419E-18
3.110000E+03	1.508592E-17	8.373180E-18
3.120000E+03	1.530522E-17	8.422141E-18
3.130000E+03	1.552844E-17	8.471436E-18
3.140000E+03	1.576151E-17	8.524260E-18
3.150000E+03	1.599287E-17	8.574303E-18
3.160000E+03	1.623441E-17	8.627949E-18
3.170000E+03	1.647424E-17	8.678836E-18
3.180000E+03	1.671840E-17	8.730180E-18
3.190000E+03	1.697323E-17	8.785254E-18
3.200000E+03	1.722638E-17	8.837621E-18
3.210000E+03	1.749057E-17	8.893816E-18
3.220000E+03	1.775310E-17	8.947350E-18
3.230000E+03	1.802702E-17	9.004824E-18
3.240000E+03	1.829932E-17	9.059694E-18
3.250000E+03	1.857660E-17	9.115296E-18
3.260000E+03	1.886586E-17	9.175028E-18
3.270000E+03	1.915353E-17	9.232267E-18
3.280000E+03	1.945359E-17	9.293785E-18
3.290000E+03	1.975210E-17	9.352899E-18
3.300000E+03	2.006342E-17	9.416458E-18
3.310000E+03	2.037323E-17	9.477721E-18
3.320000E+03	2.069630E-17	9.543612E-18
3.330000E+03	2.102549E-17	9.610800E-18
3.340000E+03	2.135324E-17	9.675886E-18
3.350000E+03	2.169496E-17	9.745917E-18
3.360000E+03	2.203529E-17	9.814000E-18
3.370000E+03	2.239009E-17	9.887268E-18
3.380000E+03	2.274356E-17	9.958764E-18
3.390000E+03	2.311203E-17	1.003571E-17
3.400000E+03	2.347924E-17	1.011108E-17
3.410000E+03	2.386199E-17	1.019220E-17
3.420000E+03	2.425219E-17	1.027561E-17
3.430000E+03	2.464124E-17	1.035779E-17
3.440000E+03	2.504670E-17	1.044621E-17
3.450000E+03	2.546012E-17	1.053738E-17
3.460000E+03	2.587255E-17	1.062770E-17
3.470000E+03	2.630230E-17	1.072485E-17
3.480000E+03	2.674057E-17	1.082525E-17
3.490000E+03	2.717800E-17	1.092527E-17
3.500000E+03	2.763376E-17	1.103275E-17
3.510000E+03	2.809863E-17	1.114407E-17
3.520000E+03	2.856285E-17	1.125552E-17
3.530000E+03	2.904644E-17	1.137513E-17
3.540000E+03	2.953979E-17	1.149924E-17
3.550000E+03	3.003268E-17	1.162403E-17
3.560000E+03	3.054606E-17	1.175776E-17
3.570000E+03	3.106986E-17	1.189666E-17
3.580000E+03	3.159336E-17	1.203678E-17
3.590000E+03	3.213847E-17	1.218661E-17
3.600000E+03	3.269459E-17	1.234221E-17
3.610000E+03	3.326187E-17	1.250373E-17
3.620000E+03	3.382880E-17	1.266692E-17
3.630000E+03	3.441857E-17	1.284055E-17
3.640000E+03	3.501979E-17	1.302036E-17
3.650000E+03	3.563253E-17	1.320641E-17
3.660000E+03	3.624445E-17	1.339417E-17
3.670000E+03	3.688018E-17	1.359275E-17
3.680000E+03	3.752754E-17	1.379765E-17
3.690000E+03	3.818655E-17	1.400889E-17
3.700000E+03	3.884403E-17	1.422162E-17
3.710000E+03	3.952616E-17	1.444543E-17
3.720000E+03	4.021995E-17	1.467553E-17
3.730000E+03	4.092538E-17	1.491189E-17
3.740000E+03	4.164241E-17	1.515447E-17
3.750000E+03	4.235674E-17	1.539803E-17
3.760000E+03	4.309664E-17	1.565282E-17
3.770000E+03	4.384800E-17	1.591364E-17
3.780000E+03	4.461076E-17	1.618042E-17
3.790000E+03	4.538483E-17	1.645307E-17
3.800000E+03	4.617013E-17	1.673150E-17
3.810000E+03	4.695090E-17	1.700992E-17
3.820000E+03	4.775810E-17	1.729949E-17
3.830000E+03	4.857621E-17	1.759449E-17
3.840000E+03	4.940508E-17	1.789478E-17
3.850000E+03	5.024458E-17	1.820023E-17
3.860000E+03	5.109456E-17	1.851067E-17
3.870000E+03	5.193768E-17	1.881975E-17
3.880000E+03	5.280786E-17	1.913962E-17
3.890000E+03	5.368800E-17	1.946400E-17
3.900000E+03	5.457791E-17	1.979269E-17
3.910000E+03	5.547739E-17	2.012551E-17
3.920000E+03	5.638623E-17	2.046226E-17
3.930000E+03	5.730421E-17	2.080273E-17
3.940000E+03	5.823110E-17	2.114671E-17
3.950000E+03	5.914737E-17	2.148697E-17
3.960000E+03	6.009109E-17	2.183719E-17
3.970000E+03	6.104300E-17	2.219025E-17
3.980000E+03	6.200281E-17	2.254590E-17
3.990000E+03	6.297028E-17	2.290390E-17
4.000000E+03	6.394511E-17	2.326400E-17
4.010000E+03	6.492704E-17	2.362594E-17
4.020000E+03	6.591577E-17	2.398946E-17
4.030000E+03	6.688945E-17	2.434646E-17
4.040000E+03	6.789061E-17	2.471226E-17
4.050000E+03	6.889767E-17	2.507883E-17
4.060000E+03	6.991032E-17	2.544591E-17
4.070000E+03	7.092825E-17	2.581321E-17
4.080000E+03	7.195115E-17	2.618047E-17
4.090000E+03	7.297869E-17	2.654738E-17
4.100000E+03	7.401054E-17	2.691367E-17
4.110000E+03	7.504639E-17	2.727905E-17
4.120000E+03	7.606174E-17	2.763446E-17
4.130000E+03	7.710429E-17	2.799704E-17
4.140000E+03	7.814984E-17	2.835785E-17
4.150000E+03	7.919806E-17	2.871658E-17
4.160000E+03	8.024861E-17	2.907295E-17
4.170000E+03	8.130117E-17	2.942666E-17
4.180000E+03	8.235538E-17	2.977742E-17
4.190000E+03	8.341093E-17	3.012493E-17
4.200000E+03	8.444099E-17	3.045936E-17
4.210000E+03	8.549791E-17	3.079943E-17
4.220000E+03	8.655516E-17	3.113539E-17
4.230000E+03	8.761242E-17	3.146695E-17
4.240000E+03	8.866934E-17	3.179383E-17
4.250000E+03	8.972561E-17	3.211574E-17
4.260000E+03	9.078090E-17	3.243241E-17
4.270000E+03	9.183488E-17	3.274355E-17
4.280000E+03	9.285844E-17	3.303864E-17
4.290000E+03	9.390854E-17	3.333783E-17
4.300000E+03	9.495638E-17	3.363066E-17
4.310000E+03	9.600163E-17	3.391688E-17
4.320000E+03	9.704397E-17	3.419622E-17
4.330000E+03	9.808309E-17	3.446841E-17
4.340000E+03	9.911868E-17	3.473320E-17
4.350000E+03	1.001197E-16	3.497960E-17
4.360000E+03	1.011470E-16	3.522875E-17
4.370000E+03	1.021699E-16	3.546973E-17
4.380000E+03	1.031880E-16	3.570229E-17
4.390000E+03	1.042010E-16	3.592617E-17
4.400000E+03	1.051767E-16	3.613010E-17
4.410000E+03	1.061784E-16	3.633580E-17
4.420000E+03	1.071740E-16	3.653203E-17
4.430000E+03	1.081634E-16	3.671854E-17
4.440000E+03	1.091461E-16	3.689506E-17
4.450000E+03	1.100886E-16	3.705013E-17
4.460000E+03	1.110569E-16	3.720586E-17
4.470000E+03	1.120176E-16	3.735084E-17
4.480000E+03	1.129704E-16	3.748480E-17
4.490000E+03	1.139151E-16	3.760752E-17
4.500000E+03	1.148168E-16	3.770742E-17
4.510000E+03	1.157439E-16	3.780688E-17
4.520000E+03	1.166619E-16	3.789439E-17
4.530000E+03	1.175354E-16	3.795836E-17
4.540000E+03	1.184340E-16	3.802127E-17
4.550000E+03	1.193227E-16	3.807156E-17
4.560000E+03	1.202011E-16	3.810902E-17
4.570000E+03	1.210329E-16	3.812213E-17
4.580000E+03	1.218895E-16	3.813335E-17
4.590000E+03	1.227351E-16	3.813117E-17
4.600000E+03	1.235325E-16	3.810414E-17
4.610000E+03	1.243547E-16	3.807465E-17
4.620000E+03	1.251647E-16	3.803126E-17
4.630000E+03	1.259254E-16	3.796262E-17
4.640000E+03	1.267105E-16	3.789100E-17
4.650000E+03	1.274827E-16	3.780505E-17
4.660000E+03	1.282043E-16	3.769358E-17
4.670000E+03	1.289499E-16	3.757866E-17
4.680000E+03	1.296820E-16	3.744907E-17
4.690000E+03	1.303621E-16	3.729384E-17
4.700000E+03	1.310661E-16	3.713473E-17
4.710000E+03	1.317174E-16	3.694995E-17
4.720000E+03	1.323924E-16	3.676108E-17
4.730000E+03	1.330141E-16	3.654659E-17
4.740000E+03	1.336593E-16	3.632779E-17
4.750000E+03	1.342894E-16	3.609397E-17
4.760000E+03	1.348651E-16	3.583476E-17
4.770000E+03	1.354643E-16	3.557100E-17
4.780000E+03	1.360084E-16	3.528207E-17
4.790000E+03	1.365758E-16	3.498849E-17
4.800000E+03	1.370878E-16	3.467005E-17
4.810000E+03	1.375833E-16	3.433703E-17
4.820000E+03	1.381021E-16	3.399928E-17
4.830000E+03	1.385646E-16	3.363728E-17
4.840000E+03	1.390503E-16	3.327058E-17
4.850000E+03	1.394793E-16	3.288012E-17
4.860000E+03	1.399314E-16	3.248501E-17
4.870000E+03	1.403265E-16	3.206673E-17
4.880000E+03	1.407046E-16	3.163490E-17
4.890000E+03	1.411056E-16	3.119861E-17
4.900000E+03	1.414493E-16	3.074019E-17
4.910000E+03	1.417756E-16	3.026891E-17
4.920000E+03	1.421250E-16	2.979350E-17
4.930000E+03	1.424166E-16	2.929718E-17
4.940000E+03	1.426909E-16	2.878886E-17
4.950000E+03	1.429881E-16	2.827688E-17
4.960000E+03	1.432274E-16	2.774542E-17
4.970000E+03	1.434493E-16	2.720301E-17
4.980000E+03	1.436537E-16	2.665003E-17
4.990000E+03	1.438810E-16	2.609424E-17
5.000000E+03	1.440504E-16	2.552122E-17
5.010000E+03	1.442022E-16	2.493893E-17
5.020000E+03	1.443366E-16	2.434786E-17
5.030000E+03	1.444535E-16	2.374850E-17
5.040000E+03	1.445934E-16	2.314786E-17
5.050000E+03	1.446754E-16	2.253337E-17
5.060000E+03	1.447400E-16	2.191226E-17
5.070000E+03	1.447872E-16	2.128516E-17
5.080000E+03	1.448171E-16	2.065271E-17
5.090000E+03	1.448296E-16	2.001558E-17
5.100000E+03	1.448249E-16	1.937449E-17
5.110000E+03	1.448030E-16	1.873019E-17
5.120000E+03	1.447640E-16	1.808346E-17
5.130000E+03	1.447078E-16	1.743514E-17
5.140000E+03	1.446347E-16	1.678611E-17
5.150000E+03	1.445446E-16	1.613728E-17
5.160000E+03	1.444376E-16	1.548963E-17
5.170000E+03	1.443139E-16	1.484420E-17
5.180000E+03	1.441736E-16	1.420208E-17
5.190000E+03	1.440168E-16	1.356442E-17
5.200000E+03	1.438437E-16	1.293244E-17
5.210000E+03	1.436544E-16	1.230746E-17
5.220000E+03	1.434099E-16	1.168763E-17
5.230000E+03	1.431893E-16	1.108101E-17
5.240000E+03	1.429534E-16	1.048575E-17
5.250000E+03	1.427029E-16	9.903452E-18
5.260000E+03	1.424384E-16	9.335793E-18
5.270000E+03	1.421223E-16	8.782061E-18
5.280000E+03	1.418337E-16	8.248857E-18
5.290000E+03	1.415359E-16	7.735215E-18
5.300000E+03	1.411934E-16	7.240619E-18
5.310000E+03	1.408866E-16	6.770439E-18
5.320000E+03	1.405808E-16	6.323705E-18
5.330000E+03	1.402421E-16	5.899788E-18
5.340000E+03	1.399506E-16	5.502803E-18
5.350000E+03	1.396339E-16	5.130267E-18
5.360000E+03	1.393708E-16	4.785453E-18
5.370000E+03	1.391253E-16	4.466996E-18
5.380000E+03	1.388607E-16	4.173555E-18
5.390000E+03	1.386507E-16	3.906864E-18
5.400000E+03	1.384166E-16	3.663784E-18
5.410000E+03	1.382265E-16	3.445141E-18
5.420000E+03	1.379960E-16	3.247696E-18
5.430000E+03	1.377501E-16	3.071240E-18
5.440000E+03	1.375114E-16	2.915759E-18
5.450000E+03	1.371905E-16	2.779473E-18
5.460000E+03	1.368085E-16	2.663769E-18
5.470000E+03	1.363860E-16	2.570525E-18
5.480000E+03	1.358342E-16	2.499725E-18
5.490000E+03	1.351745E-16	2.452909E-18
5.500000E+03	1.344282E-16	2.430217E-18
5.510000E+03	1.335107E-16	2.428068E-18
5.520000E+03	1.324503E-16	2.443237E-18
5.530000E+03	1.312463E-16	2.470891E-18
5.540000E+03	1.299065E-16	2.506061E-18
5.550000E+03	1.284818E-16	2.545077E-18
5.560000E+03	1.269271E-16	2.583374E-18
5.570000E+03	1.253056E-16	2.619739E-18
5.580000E+03	1.236486E-16	2.653563E-18
5.590000E+03	1.219882E-16	2.685226E-18
5.600000E+03	1.203543E-16	2.715666E-18
5.610000E+03	1.187736E-16	2.745878E-18
5.620000E+03	1.172668E-16	2.776491E-18
5.630000E+03	1.158486E-16	2.807558E-18
5.640000E+03	1.145271E-16	2.838629E-18
5.650000E+03	1.133045E-16	2.868970E-18
5.660000E+03	1.121787E-16	2.897822E-18
5.670000E+03	1.111149E-16	2.923828E-18
5.680000E+03	1.101651E-16	2.948252E-18
5.690000E+03	1.092929E-16	2.970440E-18
5.700000E+03	1.084930E-16	2.990906E-18
5.710000E+03	1.077624E-16	3.010534E-18
5.720000E+03	1.070735E-16	3.029717E-18
5.730000E+03	1.064867E-16	3.051436E-18
5.740000E+03	1.059818E-16	3.076374E-18
5.750000E+03	1.055425E-16	3.105134E-18
5.760000E+03	1.052386E-16	3.140551E-18
5.770000E+03	1.050312E-16	3.181880E-18
5.780000E+03	1.049923E-16	3.231238E-18
5.790000E+03	1.051104E-16	3.287791E-18
5.800000E+03	1.053711E-16	3.350156E-18
5.810000E+03	1.058379E-16	3.419066E-18
5.820000E+03	1.064582E-16	3.491309E-18
5.830000E+03	1.072831E-16	3.566860E-18
5.840000E+03	1.082454E-16	3.641745E-18
5.850000E+03	1.093541E-16	3.714528E-18
5.860000E+03	1.106128E-16	3.783749E-18
5.870000E+03	1.119335E-16	3.845035E-18
5.880000E+03	1.133094E-16	3.897065E-18
5.890000E+03	1.147313E-16	3.938837E-18
5.900000E+03	1.160991E-16	3.966671E-18
5.910000E+03	1.174010E-16	3.980434E-18
5.920000E+03	1.185974E-16	3.979591E-18
5.930000E+03	1.196833E-16	3.965326E-18
5.940000E+03	1.205662E-16	3.936481E-18
5.950000E+03	1.212533E-16	3.895741E-18
5.960000E+03	1.217290E-16	3.845449E-18
5.970000E+03	1.219860E-16	3.788498E-18
5.980000E+03	1.220253E-16	3.728108E-18
5.990000E+03	1.218557E-16	3.667536E-18
6.000000E+03	1.214946E-16	3.609755E-18
6.010000E+03	1.209674E-16	3.557178E-18
6.020000E+03	1.203071E-16	3.511527E-18
6.030000E+03	1.195516E-16	3.473864E-18
6.040000E+03	1.187408E-16	3.444677E-18
6.050000E+03	1.178831E-16	3.423057E-18
6.060000E+03	1.170736E-16	3.410217E-18
6.070000E+03	1.163095E-16	3.404132E-18
6.080000E+03	1.156108E-16	3.403091E-18
6.090000E+03	1.149903E-16	3.404943E-18
6.100000E+03	1.144254E-16	3.406465E-18
6.110000E+03	1.139772E-16	3.407120E-18
6.120000E+03	1.136146E-16	3.404040E-18
6.130000E+03	1.133049E-16	3.394832E-18
6.140000E+03	1.131005E-16	3.380306E-18
6.150000E+03	1.129369E-16	3.358451E-18
6.160000E+03	1.128653E-16	3.331376E-18
6.170000E+03	1.128218E-16	3.298365E-18
6.180000E+03	1.128596E-16	3.262613E-18
6.190000E+03	1.129186E-16	3.224258E-18
6.200000E+03	1.130560E-16	3.186845E-18
6.210000E+03	1.132142E-16	3.150383E-18
6.220000E+03	1.134504E-16	3.117609E-18
6.230000E+03	1.137037E-16	3.087315E-18
6.240000E+03	1.139971E-16	3.059956E-18
6.250000E+03	1.143520E-16	3.035321E-18
6.260000E+03	1.147013E-16	3.010437E-18
6.270000E+03	1.150664E-16	2.984511E-18
6.280000E+03	1.154428E-16	2.956106E-18
6.290000E+03	1.158310E-16	2.924193E-18
6.300000E+03	1.162660E-16	2.889103E-18
6.310000E+03	1.166989E-16	2.849698E-18
6.320000E+03	1.171735E-16	2.807815E-18
6.330000E+03	1.177074E-16	2.765145E-18
6.340000E+03	1.183205E-16	2.723726E-18
6.350000E+03	1.190341E-16	2.685653E-18
6.360000E+03	1.198700E-16	2.652803E-18
6.370000E+03	1.208489E-16	2.626599E-18
6.380000E+03	1.219893E-16	2.607828E-18
6.390000E+03	1.232752E-16	2.595939E-18
6.400000E+03	1.247797E-16	2.591777E-18
6.410000E+03	1.264779E-16	2.593776E-18
6.420000E+03	1.283706E-16	2.600807E-18
6.430000E+03	1.304532E-16	2.611718E-18
6.440000E+03	1.326819E-16	2.624891E-18
6.450000E+03	1.351081E-16	2.641135E-18
6.460000E+03	1.376780E-16	2.659949E-18
6.470000E+03	1.403296E-16	2.681745E-18
6.480000E+03	1.431016E-16	2.710111E-18
6.490000E+03	1.459214E-16	2.747818E-18
6.500000E+03	1.487084E-16	2.798615E-18
6.510000E+03	1.514896E-16	2.868729E-18
6.520000E+03	1.541372E-16	2.960759E-18
6.530000E+03	1.566753E-16	3.078009E-18
6.540000E+03	1.589710E-16	3.217463E-18
6.550000E+03	1.610515E-16	3.375821E-18
6.560000E+03	1.627855E-16	3.544033E-18
6.570000E+03	1.641680E-16	3.714443E-18
6.580000E+03	1.652019E-16	3.879710E-18
6.590000E+03	1.657735E-16	4.030552E-18
6.600000E+03	1.659050E-16	4.161974E-18
6.610000E+03	1.656307E-16	4.270740E-18
6.620000E+03	1.648705E-16	4.352030E-18
6.630000E+03	1.636819E-16	4.405781E-18
6.640000E+03	1.620891E-16	4.432274E-18
6.650000E+03	1.601238E-16	4.432959E-18
6.660000E+03	1.578231E-16	4.410202E-18
6.670000E+03	1.552278E-16	4.366986E-18
6.680000E+03	1.523816E-16	4.306613E-18
6.690000E+03	1.493301E-16	4.232415E-18
6.700000E+03	1.461196E-16	4.147525E-18
6.710000E+03	1.427968E-16	4.054747E-18
6.720000E+03	1.394079E-16	3.956542E-18
6.730000E+03	1.359974E-16	3.855080E-18
6.740000E+03	1.326076E-16	3.752308E-18
6.750000E+03	1.292780E-16	3.650000E-18
6.760000E+03	1.260444E-16	3.549786E-18
6.770000E+03	1.229380E-16	3.453140E-18
6.780000E+03	1.199550E-16	3.360497E-18
6.790000E+03	1.171774E-16	3.274642E-18
6.800000E+03	1.145885E-16	3.195491E-18
6.810000E+03	1.121682E-16	3.122765E-18
6.820000E+03	1.099759E-16	3.058307E-18
6.830000E+03	1.079799E-16	3.001299E-18
6.840000E+03	1.061469E-16	2.950790E-18
6.850000E+03	1.045238E-16	2.907949E-18
6.860000E+03	1.030504E-16	2.870860E-18
6.870000E+03	1.017749E-16	2.840531E-18
6.880000E+03	1.006442E-16	2.815082E-18
6.890000E+03	9.971211E-17	2.795627E-18
6.900000E+03	9.893291E-17	2.780623E-18
6.910000E+03	9.836369E-17	2.771647E-18
6.920000E+03	9.796075E-17	2.767734E-18
6.930000E+03	9.775365E-17	2.770251E-18
6.940000E+03	9.776812E-17	2.780639E-18
6.950000E+03	9.795045E-17	2.798122E-18
6.960000E+03	9.831522E-17	2.823737E-18
6.970000E+03	9.887061E-17	2.858084E-18
6.980000E+03	9.954294E-17	2.899048E-18
6.990000E+03	1.003283E-16	2.946182E-18
7.000000E+03	1.011943E-16	2.997974E-18
7.010000E+03	1.021078E-16	3.052716E-18
7.020000E+03	1.030371E-16	3.108636E-18
7.030000E+03	1.039542E-16	3.163999E-18
7.040000E+03	1.048367E-16	3.217184E-18
7.050000E+03	1.056686E-16	3.266780E-18
7.060000E+03	1.064414E-16	3.311677E-18
7.070000E+03	1.071544E-16	3.351167E-18
7.080000E+03	1.078151E-16	3.385032E-18
7.090000E+03	1.084395E-16	3.413619E-18
7.100000E+03	1.090521E-16	3.437894E-18
7.110000E+03	1.096846E-16	3.459469E-18
7.120000E+03	1.103752E-16	3.480586E-18
7.130000E+03	1.111658E-16	3.504056E-18
7.140000E+03	1.121004E-16	3.533121E-18
7.150000E+03	1.131927E-16	3.570316E-18
7.160000E+03	1.145388E-16	3.620774E-18
7.170000E+03	1.161409E-16	3.686362E-18
7.180000E+03	1.179890E-16	3.767891E-18
7.190000E+03	1.201498E-16	3.867729E-18
7.200000E+03	1.225870E-16	3.984048E-18
7.210000E+03	1.252487E-16	4.113731E-18
7.220000E+03	1.281661E-16	4.255844E-18
7.230000E+03	1.312310E-16	4.404537E-18
7.240000E+03	1.344554E-16	4.557813E-18
7.250000E+03	1.377070E-16	4.708824E-18
7.260000E+03	1.409814E-16	4.855217E-18
7.270000E+03	1.441249E-16	4.989811E-18
7.280000E+03	1.471215E-16	5.110589E-18
7.290000E+03	1.498039E-16	5.210805E-18
7.300000E+03	1.521552E-16	5.289536E-18
7.310000E+03	1.540103E-16	5.341303E-18
7.320000E+03	1.553306E-16	5.365613E-18
7.330000E+03	1.560965E-16	5.363079E-18
7.340000E+03	1.561898E-16	5.331270E-18
7.350000E+03	1.556381E-16	5.272956E-18
7.360000E+03	1.544554E-16	5.190445E-18
7.370000E+03	1.527202E-16	5.088080E-18
7.380000E+03	1.504132E-16	4.966733E-18
7.390000E+03	1.476497E-16	4.831516E-18
7.400000E+03	1.445140E-16	4.686250E-18
7.410000E+03	1.410938E-16	4.534641E-18
7.420000E+03	1.374741E-16	4.380145E-18
7.430000E+03	1.337339E-16	4.225847E-18
7.440000E+03	1.299428E-16	4.074366E-18
7.450000E+03	1.261603E-16	3.927791E-18
7.460000E+03	1.224355E-16	3.787709E-18
7.470000E+03	1.188095E-16	3.655322E-18
7.480000E+03	1.153170E-16	3.531592E-18
7.490000E+03	1.119887E-16	3.417377E-18
7.500000E+03	1.088528E-16	3.313522E-18
7.510000E+03	1.059353E-16	3.220889E-18
7.520000E+03	1.032609E-16	3.140325E-18
7.530000E+03	1.008511E-16	3.072572E-18
7.540000E+03	9.872422E-17	3.018141E-18
7.550000E+03	9.686861E-17	2.976401E-18
7.560000E+03	9.534340E-17	2.948570E-18
7.570000E+03	9.412593E-17	2.932978E-18
7.580000E+03	9.321421E-17	2.928224E-18
7.590000E+03	9.257830E-17	2.931774E-18
7.600000E+03	9.225830E-17	2.943236E-18
7.610000E+03	9.222042E-17	2.959996E-18
7.620000E+03	9.243018E-17	2.979631E-18
7.630000E+03	9.292434E-17	3.002318E-18
7.640000E+03	9.364115E-17	3.025402E-18
7.650000E+03	9.461277E-17	3.049592E-18
7.660000E+03	9.579317E-17	3.073383E-18
7.670000E+03	9.712795E-17	3.095286E-18
7.680000E+03	9.862985E-17	3.116192E-18
7.690000E+03	1.002001E-16	3.133626E-18
7.700000E+03	1.018346E-16	3.148235E-18
7.710000E+03	1.034172E-16	3.157280E-18
7.720000E+03	1.049096E-16	3.160495E-18
7.730000E+03	1.062778E-16	3.157729E-18
7.740000E+03	1.074134E-16	3.146553E-18
7.750000E+03	1.083325E-16	3.128143E-18
7.760000E+03	1.089549E-16	3.100694E-18
