#wls	flux	fluxerr
1.573796E+03	7.971261E-01	7.201011E-03
1.613141E+03	8.664075E-01	7.807267E-03
1.652486E+03	9.401411E-01	8.449913E-03
1.691831E+03	1.018133E+00	9.126772E-03
1.731176E+03	1.100036E+00	9.834314E-03
1.770521E+03	1.185307E+00	1.056726E-02
1.809866E+03	1.273169E+00	1.131830E-02
1.849211E+03	1.362561E+00	1.207768E-02
1.888556E+03	1.452078E+00	1.283271E-02
1.927900E+03	1.539887E+00	1.356706E-02
1.967245E+03	1.623545E+00	1.425924E-02
2.006590E+03	1.699324E+00	1.487682E-02
2.045935E+03	1.759923E+00	1.535659E-02
2.085280E+03	1.796855E+00	1.562597E-02
2.124625E+03	1.811450E+00	1.569846E-02
2.163970E+03	1.805376E+00	1.559047E-02
2.203315E+03	1.778913E+00	1.530631E-02
2.242660E+03	1.733641E+00	1.486147E-02
2.282005E+03	1.672345E+00	1.428162E-02
2.321350E+03	1.597887E+00	1.359277E-02
2.360694E+03	1.513891E+00	1.282709E-02
2.400039E+03	1.424643E+00	1.202185E-02
2.439384E+03	1.334463E+00	1.121407E-02
2.478729E+03	1.247426E+00	1.043812E-02
2.518074E+03	1.167262E+00	9.724917E-03
2.557419E+03	1.096519E+00	9.094986E-03
2.596764E+03	1.034934E+00	8.545255E-03
2.636109E+03	9.820162E-01	8.070770E-03
2.675454E+03	9.362867E-01	7.658549E-03
2.714799E+03	8.954582E-01	7.289224E-03
2.754144E+03	8.580916E-01	6.950639E-03
2.793488E+03	8.234034E-01	6.636138E-03
2.832833E+03	7.909411E-01	6.341836E-03
2.872178E+03	7.603912E-01	6.065024E-03
2.911523E+03	7.314877E-01	5.803412E-03
2.950868E+03	7.039591E-01	5.554709E-03
2.960704E+03	6.972574E-01	5.494265E-03
2.970541E+03	6.906171E-01	5.434427E-03
2.980377E+03	6.840350E-01	5.375167E-03
2.990213E+03	6.775065E-01	5.316449E-03
3.000049E+03	6.710231E-01	5.258204E-03
3.009885E+03	6.645797E-01	5.200393E-03
3.019722E+03	6.581745E-01	5.143002E-03
3.029558E+03	6.517964E-01	5.085942E-03
3.039394E+03	6.454431E-01	5.029195E-03
3.049230E+03	6.391099E-01	4.972727E-03
3.059067E+03	6.327868E-01	4.916457E-03
3.068903E+03	6.264720E-01	4.860375E-03
3.078739E+03	6.201565E-01	4.804409E-03
3.088575E+03	6.138374E-01	4.748539E-03
3.098411E+03	6.075075E-01	4.692709E-03
3.108248E+03	6.011633E-01	4.636894E-03
3.118084E+03	5.947991E-01	4.581052E-03
3.127920E+03	5.884100E-01	4.525145E-03
3.137756E+03	5.819925E-01	4.469149E-03
3.147593E+03	5.755425E-01	4.413035E-03
3.157429E+03	5.690563E-01	4.356775E-03
3.167265E+03	5.625333E-01	4.300368E-03
3.177101E+03	5.559704E-01	4.243790E-03
3.186937E+03	5.493670E-01	4.187041E-03
3.196774E+03	5.427225E-01	4.130117E-03
3.206610E+03	5.360399E-01	4.073045E-03
3.216446E+03	5.293206E-01	4.015834E-03
3.226282E+03	5.225655E-01	3.958497E-03
3.236119E+03	5.157822E-01	3.901092E-03
3.245955E+03	5.089729E-01	3.843636E-03
3.255791E+03	5.021472E-01	3.786204E-03
3.265627E+03	4.953110E-01	3.728842E-03
3.275464E+03	4.884722E-01	3.671611E-03
3.285300E+03	4.816428E-01	3.614600E-03
3.295136E+03	4.748325E-01	3.557884E-03
3.304972E+03	4.680524E-01	3.501545E-03
3.314808E+03	4.613142E-01	3.445670E-03
3.324645E+03	4.546305E-01	3.390353E-03
3.334481E+03	4.480179E-01	3.335715E-03
3.344317E+03	4.414895E-01	3.281852E-03
3.354153E+03	4.350654E-01	3.228911E-03
3.363990E+03	4.287680E-01	3.177056E-03
3.373826E+03	4.226235E-01	3.126474E-03
3.383662E+03	4.166658E-01	3.077414E-03
3.393498E+03	4.109285E-01	3.030114E-03
3.403334E+03	4.054484E-01	2.984840E-03
3.413171E+03	4.002502E-01	2.941764E-03
3.423007E+03	3.953456E-01	2.900962E-03
3.432843E+03	3.907282E-01	2.862377E-03
3.442679E+03	3.863769E-01	2.825845E-03
3.452516E+03	3.822626E-01	2.791145E-03
3.462352E+03	3.783565E-01	2.758058E-03
3.472188E+03	3.746362E-01	2.726414E-03
3.482024E+03	3.710811E-01	2.696057E-03
3.491861E+03	3.676816E-01	2.666911E-03
3.501697E+03	3.644302E-01	2.638919E-03
3.511533E+03	3.613265E-01	2.612070E-03
3.521369E+03	3.583701E-01	2.586357E-03
3.531205E+03	3.555640E-01	2.561798E-03
3.541042E+03	3.529055E-01	2.538368E-03
3.550878E+03	3.503917E-01	2.516039E-03
3.560714E+03	3.480107E-01	2.494724E-03
3.570550E+03	3.457402E-01	2.474256E-03
3.580387E+03	3.435472E-01	2.454398E-03
3.590223E+03	3.413832E-01	2.434799E-03
3.600059E+03	3.391783E-01	2.414963E-03
3.609895E+03	3.368606E-01	2.394379E-03
3.619731E+03	3.343919E-01	2.372782E-03
3.629568E+03	3.317230E-01	2.349828E-03
3.639404E+03	3.287975E-01	2.325126E-03
3.649240E+03	3.256110E-01	2.298654E-03
3.659076E+03	3.221463E-01	2.270302E-03
3.668913E+03	3.183843E-01	2.239944E-03
3.678749E+03	3.143460E-01	2.207740E-03
3.688585E+03	3.100551E-01	2.173867E-03
3.698421E+03	3.055318E-01	2.138473E-03
3.708258E+03	3.008305E-01	2.101950E-03
3.718094E+03	2.960085E-01	2.064702E-03
3.727930E+03	2.911323E-01	2.027196E-03
3.737766E+03	2.862815E-01	1.989989E-03
3.747602E+03	2.815444E-01	1.953693E-03
3.757439E+03	2.770012E-01	1.918858E-03
3.767275E+03	2.727184E-01	1.885938E-03
3.777111E+03	2.687597E-01	1.855363E-03
3.786947E+03	2.651653E-01	1.827400E-03
3.796784E+03	2.618952E-01	1.801759E-03
3.806620E+03	2.588939E-01	1.778048E-03
3.816456E+03	2.561200E-01	1.755975E-03
3.826292E+03	2.535321E-01	1.735247E-03
3.836128E+03	2.510991E-01	1.715645E-03
3.845965E+03	2.487981E-01	1.697009E-03
3.855801E+03	2.466295E-01	1.679335E-03
3.865637E+03	2.445925E-01	1.662616E-03
3.875473E+03	2.426788E-01	1.646789E-03
3.885310E+03	2.408727E-01	1.631743E-03
3.895146E+03	2.391456E-01	1.617284E-03
3.904982E+03	2.374536E-01	1.603110E-03
3.914818E+03	2.357587E-01	1.588964E-03
3.924655E+03	2.340112E-01	1.574514E-03
3.934491E+03	2.321503E-01	1.559352E-03
3.944327E+03	2.301093E-01	1.543034E-03
3.954163E+03	2.278182E-01	1.525100E-03
3.963999E+03	2.252176E-01	1.505159E-03
3.973836E+03	2.222977E-01	1.483157E-03
3.983672E+03	2.190555E-01	1.459085E-03
3.993508E+03	2.155146E-01	1.433110E-03
4.003344E+03	2.118014E-01	1.406082E-03
4.013181E+03	2.080530E-01	1.378913E-03
4.023017E+03	2.043796E-01	1.352334E-03
4.032853E+03	2.008768E-01	1.326974E-03
4.042689E+03	1.976180E-01	1.303312E-03
4.052525E+03	1.946431E-01	1.281601E-03
4.062362E+03	1.919025E-01	1.261507E-03
4.072198E+03	1.893264E-01	1.242563E-03
4.082034E+03	1.868529E-01	1.224358E-03
4.091870E+03	1.844170E-01	1.206464E-03
4.101707E+03	1.819637E-01	1.188520E-03
4.111543E+03	1.794647E-01	1.170342E-03
4.121379E+03	1.769423E-01	1.152076E-03
4.131215E+03	1.744381E-01	1.133993E-03
4.141051E+03	1.720049E-01	1.116435E-03
4.150888E+03	1.697064E-01	1.099813E-03
4.160724E+03	1.676118E-01	1.084570E-03
4.170560E+03	1.657774E-01	1.071062E-03
4.180396E+03	1.641850E-01	1.059166E-03
4.190233E+03	1.628131E-01	1.048735E-03
4.200069E+03	1.616534E-01	1.039710E-03
4.209905E+03	1.606984E-01	1.032036E-03
4.219741E+03	1.599596E-01	1.025780E-03
4.229578E+03	1.594638E-01	1.021109E-03
4.239414E+03	1.592596E-01	1.018326E-03
4.249250E+03	1.594071E-01	1.017807E-03
4.259086E+03	1.599509E-01	1.019825E-03
4.268922E+03	1.608626E-01	1.024190E-03
4.278759E+03	1.620841E-01	1.030522E-03
4.288595E+03	1.634714E-01	1.037898E-03
4.298431E+03	1.646164E-01	1.043727E-03
4.308267E+03	1.650396E-01	1.044980E-03
4.318104E+03	1.642272E-01	1.038425E-03
4.327940E+03	1.620475E-01	1.023265E-03
4.337776E+03	1.591702E-01	1.003755E-03
4.347612E+03	1.562516E-01	9.840451E-04
4.357448E+03	1.534938E-01	9.654080E-04
4.367285E+03	1.509758E-01	9.483335E-04
4.377121E+03	1.487510E-01	9.331517E-04
4.386957E+03	1.468015E-01	9.197419E-04
4.396793E+03	1.450875E-01	9.078475E-04
4.406630E+03	1.435718E-01	8.972299E-04
4.416466E+03	1.422275E-01	8.877169E-04
4.426302E+03	1.410319E-01	8.791615E-04
4.436138E+03	1.399611E-01	8.714117E-04
4.445975E+03	1.389898E-01	8.643072E-04
4.455811E+03	1.380936E-01	8.576935E-04
4.465647E+03	1.372507E-01	8.514334E-04
4.475483E+03	1.364458E-01	8.454305E-04
4.485319E+03	1.356635E-01	8.395889E-04
4.495156E+03	1.348962E-01	8.338602E-04
4.504992E+03	1.341526E-01	8.282984E-04
4.514828E+03	1.334461E-01	8.229844E-04
4.524664E+03	1.327934E-01	8.180208E-04
4.534501E+03	1.322190E-01	8.135561E-04
4.544337E+03	1.317466E-01	8.097357E-04
4.554173E+03	1.313940E-01	8.066649E-04
4.564009E+03	1.311571E-01	8.043172E-04
4.573845E+03	1.310234E-01	8.026125E-04
4.583682E+03	1.309717E-01	8.014197E-04
4.593518E+03	1.309512E-01	8.004264E-04
4.603354E+03	1.308973E-01	7.992376E-04
4.613190E+03	1.307449E-01	7.974565E-04
4.623027E+03	1.304389E-01	7.947494E-04
4.632863E+03	1.299186E-01	7.907492E-04
4.642699E+03	1.291318E-01	7.851438E-04
4.652535E+03	1.280547E-01	7.777921E-04
4.662372E+03	1.266688E-01	7.685878E-04
4.672208E+03	1.249698E-01	7.575099E-04
4.682044E+03	1.230101E-01	7.448816E-04
4.691880E+03	1.208516E-01	7.310814E-04
4.701716E+03	1.185568E-01	7.164907E-04
4.711553E+03	1.162161E-01	7.016571E-04
4.721389E+03	1.139171E-01	6.871090E-04
4.731225E+03	1.117330E-01	6.732862E-04
4.741061E+03	1.097173E-01	6.605092E-04
4.750898E+03	1.079155E-01	6.490481E-04
4.760734E+03	1.063584E-01	6.390841E-04
4.770570E+03	1.050492E-01	6.306316E-04
4.780406E+03	1.039825E-01	6.236541E-04
4.790242E+03	1.031479E-01	6.180844E-04
4.800079E+03	1.025146E-01	6.137354E-04
4.809915E+03	1.020468E-01	6.103894E-04
4.819751E+03	1.016996E-01	6.077744E-04
4.829587E+03	1.013911E-01	6.054000E-04
4.839424E+03	1.010284E-01	6.027112E-04
4.849260E+03	1.005364E-01	5.992612E-04
4.859096E+03	9.988732E-02	5.948869E-04
4.868932E+03	9.907212E-02	5.895362E-04
4.878769E+03	9.809590E-02	5.832421E-04
4.888605E+03	9.700535E-02	5.762842E-04
4.898441E+03	9.586009E-02	5.690178E-04
4.908277E+03	9.471424E-02	5.617646E-04
4.918113E+03	9.360403E-02	5.547392E-04
4.927950E+03	9.255858E-02	5.481132E-04
4.937786E+03	9.159892E-02	5.420102E-04
4.947622E+03	9.071924E-02	5.363945E-04
4.957458E+03	8.990701E-02	5.311907E-04
4.967295E+03	8.915229E-02	5.263392E-04
4.977131E+03	8.844988E-02	5.218086E-04
4.986967E+03	8.780052E-02	5.176024E-04
4.996803E+03	8.719881E-02	5.136879E-04
5.006639E+03	8.662913E-02	5.099727E-04
5.016476E+03	8.607215E-02	5.063426E-04
5.026312E+03	8.551073E-02	5.026965E-04
5.036148E+03	8.493237E-02	4.989611E-04
5.045984E+03	8.432507E-02	4.950660E-04
5.055821E+03	8.368266E-02	4.909754E-04
5.065657E+03	8.301248E-02	4.867325E-04
5.075493E+03	8.232687E-02	4.824100E-04
5.085329E+03	8.163910E-02	4.780856E-04
5.095165E+03	8.095666E-02	4.738032E-04
5.105002E+03	8.029085E-02	4.696287E-04
5.114838E+03	7.964984E-02	4.656096E-04
5.124674E+03	7.903748E-02	4.617681E-04
5.134510E+03	7.845643E-02	4.581193E-04
5.144347E+03	7.790930E-02	4.546782E-04
5.154183E+03	7.739215E-02	4.514214E-04
5.164019E+03	7.690089E-02	4.483248E-04
5.173855E+03	7.643264E-02	4.453712E-04
5.183692E+03	7.598674E-02	4.425567E-04
5.193528E+03	7.556200E-02	4.398740E-04
5.203364E+03	7.516341E-02	4.373520E-04
5.213200E+03	7.480604E-02	4.350781E-04
5.223036E+03	7.450566E-02	4.331438E-04
5.232873E+03	7.427486E-02	4.316216E-04
5.242709E+03	7.410636E-02	4.304690E-04
5.252545E+03	7.399524E-02	4.296568E-04
5.262381E+03	7.393983E-02	4.291751E-04
5.272218E+03	7.389467E-02	4.287599E-04
5.282054E+03	7.382796E-02	4.282266E-04
5.291890E+03	7.373295E-02	4.275364E-04
5.301726E+03	7.360374E-02	4.266553E-04
5.311562E+03	7.346157E-02	4.257066E-04
5.321399E+03	7.334406E-02	4.249084E-04
5.331235E+03	7.324979E-02	4.242523E-04
5.341071E+03	7.319040E-02	4.238058E-04
5.350907E+03	7.318729E-02	4.236924E-04
5.360744E+03	7.318413E-02	4.235858E-04
5.370580E+03	7.312330E-02	4.231526E-04
5.380416E+03	7.295960E-02	4.221312E-04
5.390252E+03	7.261249E-02	4.200559E-04
5.400089E+03	7.201216E-02	4.165234E-04
5.409925E+03	7.115884E-02	4.115354E-04
5.419761E+03	7.015348E-02	4.056759E-04
5.429597E+03	6.912773E-02	3.997059E-04
5.439433E+03	6.821444E-02	3.943935E-04
5.449270E+03	6.744342E-02	3.899104E-04
5.459106E+03	6.685611E-02	3.864957E-04
5.468942E+03	6.649872E-02	3.844163E-04
5.478778E+03	6.627510E-02	3.831160E-04
5.488615E+03	6.610352E-02	3.821222E-04
5.498451E+03	6.595743E-02	3.812814E-04
5.508287E+03	6.577025E-02	3.802086E-04
5.518123E+03	6.552735E-02	3.788190E-04
5.527959E+03	6.525486E-02	3.772637E-04
5.537796E+03	6.492632E-02	3.753895E-04
5.547632E+03	6.454278E-02	3.732022E-04
5.557468E+03	6.412691E-02	3.708329E-04
5.567304E+03	6.366971E-02	3.682291E-04
5.577141E+03	6.318140E-02	3.654498E-04
5.586977E+03	6.269265E-02	3.626722E-04
5.596813E+03	6.219030E-02	3.598201E-04
5.606649E+03	6.168915E-02	3.569788E-04
5.616486E+03	6.122941E-02	3.543810E-04
5.626322E+03	6.077646E-02	3.518262E-04
5.636158E+03	6.032386E-02	3.492771E-04
5.645994E+03	5.989092E-02	3.468453E-04
5.655830E+03	5.945811E-02	3.444177E-04
5.665667E+03	5.902821E-02	3.420103E-04
5.675503E+03	5.862392E-02	3.397544E-04
5.685339E+03	5.823645E-02	3.375992E-04
5.695175E+03	5.787768E-02	3.356135E-04
5.705012E+03	5.757215E-02	3.339397E-04
5.714848E+03	5.730659E-02	3.325010E-04
5.724684E+03	5.707861E-02	3.312837E-04
5.734520E+03	5.689784E-02	3.303437E-04
5.744356E+03	5.674004E-02	3.295406E-04
5.754193E+03	5.659044E-02	3.287887E-04
5.764029E+03	5.643985E-02	3.280345E-04
5.773865E+03	5.625798E-02	3.271019E-04
5.783701E+03	5.601961E-02	3.258439E-04
5.793538E+03	5.570960E-02	3.241719E-04
5.803374E+03	5.531390E-02	3.220037E-04
5.813210E+03	5.482989E-02	3.193233E-04
5.823046E+03	5.426379E-02	3.161660E-04
5.832883E+03	5.363181E-02	3.126257E-04
5.842719E+03	5.296124E-02	3.088608E-04
5.852555E+03	5.227810E-02	3.050228E-04
5.862391E+03	5.158749E-02	3.011410E-04
5.872227E+03	5.089350E-02	2.972392E-04
5.882064E+03	5.020867E-02	2.933906E-04
5.891900E+03	4.953570E-02	2.896108E-04
5.901736E+03	4.888592E-02	2.859660E-04
5.911572E+03	4.827336E-02	2.825386E-04
5.921409E+03	4.770024E-02	2.793416E-04
5.931245E+03	4.717252E-02	2.764103E-04
5.941081E+03	4.670160E-02	2.738120E-04
5.950917E+03	4.626548E-02	2.714180E-04
5.960753E+03	4.584937E-02	2.691418E-04
5.970590E+03	4.544895E-02	2.669582E-04
5.980426E+03	4.504922E-02	2.647790E-04
5.990262E+03	4.464625E-02	2.625811E-04
6.000098E+03	4.424652E-02	2.604026E-04
6.009935E+03	4.384964E-02	2.582411E-04
6.019771E+03	4.346351E-02	2.561431E-04
6.029607E+03	4.310634E-02	2.542161E-04
6.039443E+03	4.279250E-02	2.525451E-04
6.049279E+03	4.254589E-02	2.512719E-04
6.059116E+03	4.239215E-02	2.505486E-04
6.068952E+03	4.234709E-02	2.504698E-04
6.078788E+03	4.242691E-02	2.511330E-04
6.088624E+03	4.263825E-02	2.525789E-04
6.098461E+03	4.294398E-02	2.545893E-04
6.108297E+03	4.329186E-02	2.568555E-04
6.118133E+03	4.359716E-02	2.588750E-04
6.127969E+03	4.368580E-02	2.596128E-04
6.137806E+03	4.336599E-02	2.579248E-04
6.147642E+03	4.262784E-02	2.537461E-04
6.157478E+03	4.167333E-02	2.482736E-04
6.167314E+03	4.068711E-02	2.426048E-04
6.177150E+03	3.981322E-02	2.375986E-04
6.186987E+03	3.909595E-02	2.335211E-04
6.196823E+03	3.854933E-02	2.304583E-04
6.206659E+03	3.817239E-02	2.284071E-04
6.216495E+03	3.793641E-02	2.271981E-04
6.226332E+03	3.780467E-02	2.266133E-04
6.236168E+03	3.774283E-02	2.264483E-04
6.246004E+03	3.772067E-02	2.265226E-04
6.255840E+03	3.770996E-02	2.266672E-04
6.265676E+03	3.768862E-02	2.267495E-04
6.275513E+03	3.764527E-02	2.267006E-04
6.285349E+03	3.757291E-02	2.264780E-04
6.295185E+03	3.746694E-02	2.260533E-04
6.305021E+03	3.733192E-02	2.254534E-04
6.314858E+03	3.717192E-02	2.247024E-04
6.324694E+03	3.699325E-02	2.238379E-04
6.334530E+03	3.680111E-02	2.228912E-04
6.344366E+03	3.659999E-02	2.218891E-04
6.354203E+03	3.639468E-02	2.208604E-04
6.364039E+03	3.619012E-02	2.198350E-04
6.373875E+03	3.599153E-02	2.188447E-04
6.383711E+03	3.580350E-02	2.179173E-04
6.393547E+03	3.562712E-02	2.170597E-04
6.403384E+03	3.546474E-02	2.162865E-04
6.413220E+03	3.531648E-02	2.155985E-04
6.423056E+03	3.518514E-02	2.150130E-04
6.432892E+03	3.507294E-02	2.145440E-04
6.442729E+03	3.498041E-02	2.141949E-04
6.452565E+03	3.491430E-02	2.140075E-04
6.462401E+03	3.488102E-02	2.140215E-04
6.472237E+03	3.488531E-02	2.142668E-04
6.482073E+03	3.493108E-02	2.147679E-04
6.491910E+03	3.501930E-02	2.155317E-04
6.501746E+03	3.514727E-02	2.165422E-04
6.511582E+03	3.530208E-02	2.177206E-04
6.521418E+03	3.546479E-02	2.189505E-04
6.531255E+03	3.561433E-02	2.201018E-04
6.541091E+03	3.571994E-02	2.209840E-04
6.550927E+03	3.574939E-02	2.213965E-04
6.560763E+03	3.567707E-02	2.211791E-04
6.570600E+03	3.549515E-02	2.202813E-04
6.580436E+03	3.520314E-02	2.186978E-04
6.590272E+03	3.480989E-02	2.164814E-04
6.600108E+03	3.434264E-02	2.137999E-04
6.609944E+03	3.383321E-02	2.108499E-04
6.619781E+03	3.331250E-02	2.078234E-04
6.629617E+03	3.280780E-02	2.048906E-04
6.639453E+03	3.234378E-02	2.022059E-04
6.649289E+03	3.193947E-02	1.998893E-04
6.659126E+03	3.160009E-02	1.979746E-04
6.668962E+03	3.132763E-02	1.964756E-04
6.678798E+03	3.111826E-02	1.953695E-04
6.688634E+03	3.095580E-02	1.945558E-04
6.698470E+03	3.081990E-02	1.939076E-04
6.708307E+03	3.069501E-02	1.933273E-04
6.718143E+03	3.056952E-02	1.927419E-04
6.727979E+03	3.043640E-02	1.921071E-04
6.737815E+03	3.029013E-02	1.913879E-04
6.747652E+03	3.013286E-02	1.905976E-04
6.757488E+03	2.996729E-02	1.897529E-04
6.767324E+03	2.979618E-02	1.888713E-04
6.777160E+03	2.961879E-02	1.879480E-04
6.786997E+03	2.943394E-02	1.869752E-04
6.796833E+03	2.923817E-02	1.859309E-04
6.806669E+03	2.903253E-02	1.848215E-04
6.816505E+03	2.881589E-02	1.836396E-04
6.826341E+03	2.858919E-02	1.823910E-04
6.836178E+03	2.836160E-02	1.811340E-04
6.846014E+03	2.814168E-02	1.799233E-04
6.855850E+03	2.793686E-02	1.788066E-04
6.865686E+03	2.774615E-02	1.777779E-04
6.875523E+03	2.756532E-02	1.768104E-04
6.885359E+03	2.739167E-02	1.758869E-04
6.895195E+03	2.722086E-02	1.749797E-04
6.905031E+03	2.704971E-02	1.740683E-04
6.914867E+03	2.687712E-02	1.731458E-04
6.924704E+03	2.670712E-02	1.722380E-04
6.934540E+03	2.654496E-02	1.713789E-04
6.944376E+03	2.639572E-02	1.706014E-04
6.954212E+03	2.625710E-02	1.698911E-04
6.964049E+03	2.612659E-02	1.692318E-04
6.973885E+03	2.600223E-02	1.686111E-04
6.983721E+03	2.588143E-02	1.680121E-04
6.993557E+03	2.576272E-02	1.674257E-04
7.003393E+03	2.564497E-02	1.668442E-04
7.013230E+03	2.552948E-02	1.662763E-04
7.023066E+03	2.542036E-02	1.657490E-04
7.032902E+03	2.531814E-02	1.652655E-04
7.042738E+03	2.521842E-02	1.647976E-04
7.052575E+03	2.511461E-02	1.643020E-04
7.062411E+03	2.500117E-02	1.637425E-04
7.072247E+03	2.487524E-02	1.631001E-04
7.082083E+03	2.473591E-02	1.623684E-04
7.091920E+03	2.458256E-02	1.615432E-04
7.101756E+03	2.441696E-02	1.606359E-04
7.111592E+03	2.424298E-02	1.596715E-04
7.121428E+03	2.406162E-02	1.586567E-04
7.131264E+03	2.387131E-02	1.575807E-04
7.141101E+03	2.366720E-02	1.564114E-04
7.150937E+03	2.344782E-02	1.551387E-04
7.160773E+03	2.321509E-02	1.537750E-04
7.170609E+03	2.297342E-02	1.523492E-04
7.180446E+03	2.273011E-02	1.509096E-04
7.190282E+03	2.249362E-02	1.495123E-04
7.200118E+03	2.227486E-02	1.482303E-04
7.209954E+03	2.208504E-02	1.471384E-04
7.219790E+03	2.192167E-02	1.462208E-04
7.229627E+03	2.178255E-02	1.454635E-04
7.239463E+03	2.166691E-02	1.448617E-04
7.249299E+03	2.156731E-02	1.443664E-04
7.259135E+03	2.147737E-02	1.439351E-04
7.268972E+03	2.139601E-02	1.435608E-04
7.278808E+03	2.132312E-02	1.432430E-04
7.288644E+03	2.126205E-02	1.430045E-04
7.298480E+03	2.121988E-02	1.428931E-04
7.308317E+03	2.119865E-02	1.429233E-04
7.318153E+03	2.120319E-02	1.431280E-04
7.327989E+03	2.123953E-02	1.435487E-04
7.337825E+03	2.129509E-02	1.441011E-04
7.347661E+03	2.135690E-02	1.446978E-04
7.357498E+03	2.142126E-02	1.453139E-04
7.367334E+03	2.147956E-02	1.458911E-04
7.377170E+03	2.153342E-02	1.464401E-04
7.387006E+03	2.158977E-02	1.470081E-04
7.396843E+03	2.165556E-02	1.476427E-04
7.406679E+03	2.174111E-02	1.484145E-04
7.416515E+03	2.186233E-02	1.494328E-04
7.426351E+03	2.202138E-02	1.507133E-04
7.436187E+03	2.222142E-02	1.522789E-04
7.446024E+03	2.246146E-02	1.541238E-04
7.455860E+03	2.271873E-02	1.560927E-04
7.465696E+03	2.296117E-02	1.579656E-04
7.475532E+03	2.314341E-02	1.594294E-04
7.485369E+03	2.318840E-02	1.599512E-04
7.495205E+03	2.303646E-02	1.591149E-04
7.505041E+03	2.274874E-02	1.573379E-04
7.514877E+03	2.238904E-02	1.550583E-04
7.524714E+03	2.200383E-02	1.525963E-04
7.534550E+03	2.162767E-02	1.501909E-04
7.544386E+03	2.127426E-02	1.479378E-04
7.554222E+03	2.094913E-02	1.458759E-04
7.564058E+03	2.066113E-02	1.440677E-04
7.573895E+03	2.041186E-02	1.425254E-04
7.583731E+03	2.020476E-02	1.412741E-04
7.593567E+03	2.004686E-02	1.403641E-04
7.603403E+03	1.993598E-02	1.397817E-04
7.613240E+03	1.987023E-02	1.395147E-04
7.623076E+03	1.985156E-02	1.395783E-04
7.632912E+03	1.987383E-02	1.399306E-04
