#wls	flux	fluxerr
1.573796E+03	5.315651E-05	2.109291E-05
1.613141E+03	5.474398E-05	2.159248E-05
1.652486E+03	5.643522E-05	2.212233E-05
1.691831E+03	5.823437E-05	2.268302E-05
1.731176E+03	6.012873E-05	2.326852E-05
1.770521E+03	6.213845E-05	2.388552E-05
1.809866E+03	6.426719E-05	2.453414E-05
1.849211E+03	6.651837E-05	2.521439E-05
1.888556E+03	6.887716E-05	2.591928E-05
1.927900E+03	7.138206E-05	2.666187E-05
1.967245E+03	7.399925E-05	2.742796E-05
2.006590E+03	7.676813E-05	2.823059E-05
2.045935E+03	7.965323E-05	2.905498E-05
2.085280E+03	8.269535E-05	2.991435E-05
2.124625E+03	8.587814E-05	3.080083E-05
2.163970E+03	8.920486E-05	3.171370E-05
2.203315E+03	9.270085E-05	3.265992E-05
2.242660E+03	9.635183E-05	3.363223E-05
2.282005E+03	1.001878E-04	3.463881E-05
2.321350E+03	1.041987E-04	3.567368E-05
2.360694E+03	1.084447E-04	3.675471E-05
2.400039E+03	1.129249E-04	3.787837E-05
2.439384E+03	1.176659E-04	3.905027E-05
2.478729E+03	1.227017E-04	4.027791E-05
2.518074E+03	1.280994E-04	4.157896E-05
2.557419E+03	1.338883E-04	4.295783E-05
2.596764E+03	1.401850E-04	4.444613E-05
2.636109E+03	1.470464E-04	4.605474E-05
2.675454E+03	1.545982E-04	4.781486E-05
2.714799E+03	1.629617E-04	4.975411E-05
2.754144E+03	1.722821E-04	5.190515E-05
2.793488E+03	1.827630E-04	5.431537E-05
2.832833E+03	1.945829E-04	5.702108E-05
2.872178E+03	2.080838E-04	6.010253E-05
2.911523E+03	2.234978E-04	6.360240E-05
2.950868E+03	2.412377E-04	6.760959E-05
2.960704E+03	2.460823E-04	6.869971E-05
2.970541E+03	2.510857E-04	6.982260E-05
2.980377E+03	2.562917E-04	7.098983E-05
2.990213E+03	2.617084E-04	7.220295E-05
3.000049E+03	2.673055E-04	7.345284E-05
3.009885E+03	2.730899E-04	7.474077E-05
3.019722E+03	2.791085E-04	7.607884E-05
3.029558E+03	2.853704E-04	7.746870E-05
3.039394E+03	2.918847E-04	7.891192E-05
3.049230E+03	2.985773E-04	8.038768E-05
3.059067E+03	3.055813E-04	8.193099E-05
3.068903E+03	3.128222E-04	8.352087E-05
3.078739E+03	3.203517E-04	8.517017E-05
3.088575E+03	3.281351E-04	8.686869E-05
3.098411E+03	3.362257E-04	8.862956E-05
3.108248E+03	3.446337E-04	9.045434E-05
3.118084E+03	3.533221E-04	9.233220E-05
3.127920E+03	3.623466E-04	9.427660E-05
3.137756E+03	3.717171E-04	9.628890E-05
3.147593E+03	3.813938E-04	9.835755E-05
3.157429E+03	3.914343E-04	1.004962E-04
3.167265E+03	4.018481E-04	1.027060E-04
3.177101E+03	4.126441E-04	1.049878E-04
3.186937E+03	4.237774E-04	1.073288E-04
3.196774E+03	4.353077E-04	1.097428E-04
3.206610E+03	4.472427E-04	1.122303E-04
3.216446E+03	4.595890E-04	1.147914E-04
3.226282E+03	4.722948E-04	1.174117E-04
3.236119E+03	4.854803E-04	1.201197E-04
3.245955E+03	4.990323E-04	1.228855E-04
3.255791E+03	5.130121E-04	1.257230E-04
3.265627E+03	5.273585E-04	1.286155E-04
3.275464E+03	5.421970E-04	1.315921E-04
3.285300E+03	5.574650E-04	1.346358E-04
3.295136E+03	5.730935E-04	1.377285E-04
3.304972E+03	5.891428E-04	1.408832E-04
3.314808E+03	6.056771E-04	1.441136E-04
3.324645E+03	6.225513E-04	1.473834E-04
3.334481E+03	6.398247E-04	1.507053E-04
3.344317E+03	6.574864E-04	1.540752E-04
3.354153E+03	6.755239E-04	1.574888E-04
3.363990E+03	6.939226E-04	1.609411E-04
3.373826E+03	7.127442E-04	1.644451E-04
3.383662E+03	7.318159E-04	1.679594E-04
3.393498E+03	7.511945E-04	1.714959E-04
3.403334E+03	7.708583E-04	1.750487E-04
3.413171E+03	7.907843E-04	1.786112E-04
3.423007E+03	8.110332E-04	1.821963E-04
3.432843E+03	8.314099E-04	1.857588E-04
3.442679E+03	8.520593E-04	1.893307E-04
3.452516E+03	8.727787E-04	1.928659E-04
3.462352E+03	8.937169E-04	1.963968E-04
3.472188E+03	9.147565E-04	1.998970E-04
3.482024E+03	9.359603E-04	2.033796E-04
3.491861E+03	9.571117E-04	2.067972E-04
3.501697E+03	9.782711E-04	2.101628E-04
3.511533E+03	9.995046E-04	2.134906E-04
3.521369E+03	1.020686E-03	2.167534E-04
3.531205E+03	1.041884E-03	2.199659E-04
3.541042E+03	1.062871E-03	2.230801E-04
3.550878E+03	1.083817E-03	2.261324E-04
3.560714E+03	1.104595E-03	2.290966E-04
3.570550E+03	1.125283E-03	2.319892E-04
3.580387E+03	1.145649E-03	2.347632E-04
3.590223E+03	1.165879E-03	2.374575E-04
3.600059E+03	1.185954E-03	2.400690E-04
3.609895E+03	1.205750E-03	2.425732E-04
3.619731E+03	1.225251E-03	2.449679E-04
3.629568E+03	1.244441E-03	2.472511E-04
3.639404E+03	1.263416E-03	2.494431E-04
3.649240E+03	1.282168E-03	2.515429E-04
3.659076E+03	1.300579E-03	2.535284E-04
3.668913E+03	1.318641E-03	2.553997E-04
3.678749E+03	1.336461E-03	2.571785E-04
3.688585E+03	1.353926E-03	2.588441E-04
3.698421E+03	1.371145E-03	2.604188E-04
3.708258E+03	1.388008E-03	2.618827E-04
3.718094E+03	1.404629E-03	2.632586E-04
3.727930E+03	1.420899E-03	2.645271E-04
3.737766E+03	1.436934E-03	2.657115E-04
3.747602E+03	1.452629E-03	2.667930E-04
3.757439E+03	1.468103E-03	2.677948E-04
3.767275E+03	1.483364E-03	2.687194E-04
3.777111E+03	1.498307E-03	2.695487E-04
3.786947E+03	1.513055E-03	2.703061E-04
3.796784E+03	1.527503E-03	2.709740E-04
3.806620E+03	1.541777E-03	2.715754E-04
3.816456E+03	1.555886E-03	2.721130E-04
3.826292E+03	1.569730E-03	2.725700E-04
3.836128E+03	1.583432E-03	2.729689E-04
3.845965E+03	1.596891E-03	2.732933E-04
3.855801E+03	1.610347E-03	2.735845E-04
3.865637E+03	1.623586E-03	2.738070E-04
3.875473E+03	1.636621E-03	2.739639E-04
3.885310E+03	1.649579E-03	2.740772E-04
3.895146E+03	1.662474E-03	2.741495E-04
3.904982E+03	1.675320E-03	2.741838E-04
3.914818E+03	1.688020E-03	2.741648E-04
3.924655E+03	1.700703E-03	2.741137E-04
3.934491E+03	1.713386E-03	2.740337E-04
3.944327E+03	1.726085E-03	2.739277E-04
3.954163E+03	1.738711E-03	2.737815E-04
3.963999E+03	1.751394E-03	2.736162E-04
3.973836E+03	1.764046E-03	2.734182E-04
3.983672E+03	1.776911E-03	2.732253E-04
3.993508E+03	1.789794E-03	2.730073E-04
4.003344E+03	1.802834E-03	2.727853E-04
4.013181E+03	1.815951E-03	2.725472E-04
4.023017E+03	1.829286E-03	2.723139E-04
4.032853E+03	1.842873E-03	2.720900E-04
4.042689E+03	1.856751E-03	2.718805E-04
4.052525E+03	1.870853E-03	2.716750E-04
4.062362E+03	1.885328E-03	2.714946E-04
4.072198E+03	1.900224E-03	2.713450E-04
4.082034E+03	1.915589E-03	2.712320E-04
4.091870E+03	1.931371E-03	2.711469E-04
4.101707E+03	1.947732E-03	2.711112E-04
4.111543E+03	1.964626E-03	2.711169E-04
4.121379E+03	1.982327E-03	2.712001E-04
4.131215E+03	2.000585E-03	2.713243E-04
4.141051E+03	2.019785E-03	2.715401E-04
4.150888E+03	2.039788E-03	2.718260E-04
4.160724E+03	2.060777E-03	2.722038E-04
4.170560E+03	2.082722E-03	2.726668E-04
4.180396E+03	2.105811E-03	2.732367E-04
4.190233E+03	2.130126E-03	2.739206E-04
4.200069E+03	2.155645E-03	2.747123E-04
4.209905E+03	2.182454E-03	2.756190E-04
4.219741E+03	2.210850E-03	2.766744E-04
4.229578E+03	2.240601E-03	2.778451E-04
4.239414E+03	2.272112E-03	2.791770E-04
4.249250E+03	2.305144E-03	2.806360E-04
4.259086E+03	2.339992E-03	2.822537E-04
4.268922E+03	2.376734E-03	2.840342E-04
4.278759E+03	2.415332E-03	2.859678E-04
4.288595E+03	2.455852E-03	2.880574E-04
4.298431E+03	2.498462E-03	2.903174E-04
4.308267E+03	2.543103E-03	2.927355E-04
4.318104E+03	2.589930E-03	2.953241E-04
4.327940E+03	2.638761E-03	2.980573E-04
4.337776E+03	2.689869E-03	3.009607E-04
4.347612E+03	2.743294E-03	3.040332E-04
4.357448E+03	2.798827E-03	3.072464E-04
4.367285E+03	2.856718E-03	3.106226E-04
4.377121E+03	2.916849E-03	3.141441E-04
4.386957E+03	2.979208E-03	3.178045E-04
4.396793E+03	3.043768E-03	3.215966E-04
4.406630E+03	3.110487E-03	3.255116E-04
4.416466E+03	3.179310E-03	3.295400E-04
4.426302E+03	3.250167E-03	3.336707E-04
4.436138E+03	3.322974E-03	3.378922E-04
4.445975E+03	3.397635E-03	3.421918E-04
4.455811E+03	3.474040E-03	3.465563E-04
4.465647E+03	3.552069E-03	3.509720E-04
4.475483E+03	3.631590E-03	3.554246E-04
4.485319E+03	3.712461E-03	3.598996E-04
4.495156E+03	3.794393E-03	3.643689E-04
4.504992E+03	3.877366E-03	3.688315E-04
4.514828E+03	3.961222E-03	3.732732E-04
4.524664E+03	4.045653E-03	3.776668E-04
4.534501E+03	4.130641E-03	3.820131E-04
4.544337E+03	4.216030E-03	3.863002E-04
4.554173E+03	4.301519E-03	3.905033E-04
4.564009E+03	4.387119E-03	3.946249E-04
4.573845E+03	4.472548E-03	3.986407E-04
4.583682E+03	4.557849E-03	4.025563E-04
4.593518E+03	4.642772E-03	4.063511E-04
4.603354E+03	4.727243E-03	4.100205E-04
4.613190E+03	4.811375E-03	4.135758E-04
4.623027E+03	4.894987E-03	4.170031E-04
4.632863E+03	4.978083E-03	4.203044E-04
4.642699E+03	5.060864E-03	4.234979E-04
4.652535E+03	5.143236E-03	4.265767E-04
4.662372E+03	5.225291E-03	4.295493E-04
4.672208E+03	5.307162E-03	4.324271E-04
4.682044E+03	5.389011E-03	4.352234E-04
4.691880E+03	5.471019E-03	4.379524E-04
4.701716E+03	5.553408E-03	4.406311E-04
4.711553E+03	5.636418E-03	4.432770E-04
4.721389E+03	5.720324E-03	4.459097E-04
4.731225E+03	5.805406E-03	4.485482E-04
4.741061E+03	5.891797E-03	4.511998E-04
4.750898E+03	5.980177E-03	4.539127E-04
4.760734E+03	6.070522E-03	4.566801E-04
4.770570E+03	6.163362E-03	4.595369E-04
4.780406E+03	6.259042E-03	4.625027E-04
4.790242E+03	6.357923E-03	4.655975E-04
4.800079E+03	6.460184E-03	4.688269E-04
4.809915E+03	6.566161E-03	4.722076E-04
4.819751E+03	6.676592E-03	4.757841E-04
4.829587E+03	6.791244E-03	4.795303E-04
4.839424E+03	6.911030E-03	4.835008E-04
4.849260E+03	7.035888E-03	4.876807E-04
4.859096E+03	7.166111E-03	4.920793E-04
4.868932E+03	7.302197E-03	4.967194E-04
4.878769E+03	7.444217E-03	5.015936E-04
4.888605E+03	7.592422E-03	5.067065E-04
4.898441E+03	7.747251E-03	5.120745E-04
4.908277E+03	7.908709E-03	5.176848E-04
4.918113E+03	8.076967E-03	5.235350E-04
4.927950E+03	8.252413E-03	5.296367E-04
4.937786E+03	8.434954E-03	5.359698E-04
4.947622E+03	8.624688E-03	5.425266E-04
4.957458E+03	8.821687E-03	5.492979E-04
4.967295E+03	9.025967E-03	5.562708E-04
4.977131E+03	9.237769E-03	5.634465E-04
4.986967E+03	9.456579E-03	5.707801E-04
4.996803E+03	9.682797E-03	5.782828E-04
5.006639E+03	9.916045E-03	5.859192E-04
5.016476E+03	1.015590E-02	5.936528E-04
5.026312E+03	1.040265E-02	6.014889E-04
5.036148E+03	1.065576E-02	6.093868E-04
5.045984E+03	1.091464E-02	6.173025E-04
5.055821E+03	1.117944E-02	6.252375E-04
5.065657E+03	1.144943E-02	6.331439E-04
5.075493E+03	1.172384E-02	6.409737E-04
5.085329E+03	1.200236E-02	6.487064E-04
5.095165E+03	1.228435E-02	6.563062E-04
5.105002E+03	1.256939E-02	6.637510E-04
5.114838E+03	1.285580E-02	6.709546E-04
5.124674E+03	1.314363E-02	6.779245E-04
5.134510E+03	1.343132E-02	6.845889E-04
5.144347E+03	1.371852E-02	6.909391E-04
5.154183E+03	1.400351E-02	6.969025E-04
5.164019E+03	1.428513E-02	7.024377E-04
5.173855E+03	1.456285E-02	7.075382E-04
5.183692E+03	1.483474E-02	7.121327E-04
5.193528E+03	1.509981E-02	7.161996E-04
5.203364E+03	1.535670E-02	7.197042E-04
5.213200E+03	1.560366E-02	7.225962E-04
5.223036E+03	1.583961E-02	7.248625E-04
5.232873E+03	1.606274E-02	7.264584E-04
5.242709E+03	1.627234E-02	7.273934E-04
5.252545E+03	1.646586E-02	7.275983E-04
5.262381E+03	1.664300E-02	7.271059E-04
5.272218E+03	1.680165E-02	7.258725E-04
5.282054E+03	1.694048E-02	7.238914E-04
5.291890E+03	1.705861E-02	7.211763E-04
5.301726E+03	1.715488E-02	7.177294E-04
5.311562E+03	1.722787E-02	7.135425E-04
5.321399E+03	1.727699E-02	7.086433E-04
5.331235E+03	1.730109E-02	7.030330E-04
5.341071E+03	1.729985E-02	6.967472E-04
5.350907E+03	1.727244E-02	6.897963E-04
5.360744E+03	1.721891E-02	6.822244E-04
5.370580E+03	1.713878E-02	6.740495E-04
5.380416E+03	1.703217E-02	6.653093E-04
5.390252E+03	1.689982E-02	6.560596E-04
5.400089E+03	1.674232E-02	6.463455E-04
5.409925E+03	1.656001E-02	6.361939E-04
5.419761E+03	1.635564E-02	6.257003E-04
5.429597E+03	1.613014E-02	6.148727E-04
5.439433E+03	1.588631E-02	6.037868E-04
5.449270E+03	1.562610E-02	5.924808E-04
5.459106E+03	1.535207E-02	5.810158E-04
5.468942E+03	1.506618E-02	5.694274E-04
5.478778E+03	1.477067E-02	5.577619E-04
5.488615E+03	1.446768E-02	5.460626E-04
5.498451E+03	1.415960E-02	5.343823E-04
5.508287E+03	1.384813E-02	5.227498E-04
5.518123E+03	1.353516E-02	5.112027E-04
5.527959E+03	1.322245E-02	4.997764E-04
5.537796E+03	1.291186E-02	4.885126E-04
5.547632E+03	1.260435E-02	4.774211E-04
5.557468E+03	1.230177E-02	4.665481E-04
5.567304E+03	1.200503E-02	4.559079E-04
5.577141E+03	1.171545E-02	4.455311E-04
5.586977E+03	1.143345E-02	4.354189E-04
5.596813E+03	1.116009E-02	4.255969E-04
5.606649E+03	1.089626E-02	4.160879E-04
5.616486E+03	1.064209E-02	4.068868E-04
5.626322E+03	1.039849E-02	3.980203E-04
5.636158E+03	1.016562E-02	3.894876E-04
5.645994E+03	9.943572E-03	3.812874E-04
5.655830E+03	9.732971E-03	3.734389E-04
5.665667E+03	9.533769E-03	3.659368E-04
5.675503E+03	9.345883E-03	3.587750E-04
5.685339E+03	9.169729E-03	3.519671E-04
5.695175E+03	9.004950E-03	3.454973E-04
5.705012E+03	8.851872E-03	3.393764E-04
5.714848E+03	8.710087E-03	3.335868E-04
5.724684E+03	8.579683E-03	3.281300E-04
5.734520E+03	8.460550E-03	3.229998E-04
5.744356E+03	8.352576E-03	3.181896E-04
5.754193E+03	8.255622E-03	3.136913E-04
5.764029E+03	8.169559E-03	3.094970E-04
5.773865E+03	8.094091E-03	3.055918E-04
5.783701E+03	8.029228E-03	3.019719E-04
5.793538E+03	7.974823E-03	2.986272E-04
5.803374E+03	7.930740E-03	2.955471E-04
5.813210E+03	7.896849E-03	2.927206E-04
5.823046E+03	7.872861E-03	2.901303E-04
5.832883E+03	7.858802E-03	2.877696E-04
5.842719E+03	7.854417E-03	2.856211E-04
5.852555E+03	7.859878E-03	2.836817E-04
5.862391E+03	7.874794E-03	2.819276E-04
5.872227E+03	7.899221E-03	2.803501E-04
5.882064E+03	7.932921E-03	2.789293E-04
5.891900E+03	7.975957E-03	2.776552E-04
5.901736E+03	8.028264E-03	2.765124E-04
5.911572E+03	8.089620E-03	2.754793E-04
5.921409E+03	8.160115E-03	2.745443E-04
5.931245E+03	8.239676E-03	2.736893E-04
5.941081E+03	8.328105E-03	2.728914E-04
5.950917E+03	8.425482E-03	2.721363E-04
5.960753E+03	8.531757E-03	2.714044E-04
5.970590E+03	8.646695E-03	2.706698E-04
5.980426E+03	8.770388E-03	2.699162E-04
5.990262E+03	8.902581E-03	2.691161E-04
6.000098E+03	9.043345E-03	2.682516E-04
6.009935E+03	9.192403E-03	2.672938E-04
6.019771E+03	9.349791E-03	2.662231E-04
6.029607E+03	9.515372E-03	2.650143E-04
6.039443E+03	9.688801E-03	2.636369E-04
6.049279E+03	9.870075E-03	2.620699E-04
6.059116E+03	1.005898E-02	2.602872E-04
6.068952E+03	1.025511E-02	2.582582E-04
6.078788E+03	1.045841E-02	2.559625E-04
6.088624E+03	1.066843E-02	2.533709E-04
6.098461E+03	1.088507E-02	2.504654E-04
6.108297E+03	1.110806E-02	2.472244E-04
6.118133E+03	1.133692E-02	2.436249E-04
6.127969E+03	1.157157E-02	2.396560E-04
6.137806E+03	1.181156E-02	2.353017E-04
6.147642E+03	1.205709E-02	2.305642E-04
6.157478E+03	1.230739E-02	2.254313E-04
6.167314E+03	1.256304E-02	2.199225E-04
6.177150E+03	1.282355E-02	2.140452E-04
6.186987E+03	1.308917E-02	2.078287E-04
6.196823E+03	1.335993E-02	2.013104E-04
6.206659E+03	1.363594E-02	1.945435E-04
6.216495E+03	1.391707E-02	1.875971E-04
6.226332E+03	1.420374E-02	1.805721E-04
6.236168E+03	1.449617E-02	1.735968E-04
6.246004E+03	1.479433E-02	1.668352E-04
6.255840E+03	1.509905E-02	1.605066E-04
6.265676E+03	1.541011E-02	1.548720E-04
6.275513E+03	1.572812E-02	1.502563E-04
6.285349E+03	1.605345E-02	1.470305E-04
6.295185E+03	1.638651E-02	1.455924E-04
6.305021E+03	1.672772E-02	1.463288E-04
6.314858E+03	1.707750E-02	1.495581E-04
6.324694E+03	1.743628E-02	1.553924E-04
6.334530E+03	1.780447E-02	1.637544E-04
6.344366E+03	1.818245E-02	1.744742E-04
6.354203E+03	1.857055E-02	1.873335E-04
6.364039E+03	1.896907E-02	2.021015E-04
6.373875E+03	1.937824E-02	2.185596E-04
6.383711E+03	1.979861E-02	2.365181E-04
6.393547E+03	2.022959E-02	2.558027E-04
6.403384E+03	2.067197E-02	2.762822E-04
6.413220E+03	2.112536E-02	2.978347E-04
6.423056E+03	2.158963E-02	3.203602E-04
6.432892E+03	2.206453E-02	3.437715E-04
6.442729E+03	2.254998E-02	3.679957E-04
6.452565E+03	2.304498E-02	3.929523E-04
6.462401E+03	2.354873E-02	4.185690E-04
6.472237E+03	2.406075E-02	4.447822E-04
6.482073E+03	2.457957E-02	4.715110E-04
6.491910E+03	2.510394E-02	4.986785E-04
6.501746E+03	2.563298E-02	5.262136E-04
6.511582E+03	2.616520E-02	5.540314E-04
6.521418E+03	2.669847E-02	5.820308E-04
6.531255E+03	2.723104E-02	6.101148E-04
6.541091E+03	2.776202E-02	6.382031E-04
6.550927E+03	2.828794E-02	6.661533E-04
6.560763E+03	2.880827E-02	6.938877E-04
6.570600E+03	2.931987E-02	7.212642E-04
6.580436E+03	2.982060E-02	7.481606E-04
6.590272E+03	3.030939E-02	7.744806E-04
6.600108E+03	3.078296E-02	8.000702E-04
6.609944E+03	3.123975E-02	8.248172E-04
6.619781E+03	3.167710E-02	8.485809E-04
6.629617E+03	3.209422E-02	8.712698E-04
6.639453E+03	3.248800E-02	8.927315E-04
6.649289E+03	3.285722E-02	9.128660E-04
6.659126E+03	3.320024E-02	9.315644E-04
6.668962E+03	3.351552E-02	9.487228E-04
6.678798E+03	3.380171E-02	9.642466E-04
6.688634E+03	3.405759E-02	9.780495E-04
6.698470E+03	3.428210E-02	9.900532E-04
6.708307E+03	3.447437E-02	1.000191E-03
6.718143E+03	3.463369E-02	1.008407E-03
6.727979E+03	3.475950E-02	1.014653E-03
6.737815E+03	3.485147E-02	1.018897E-03
6.747652E+03	3.490999E-02	1.021132E-03
6.757488E+03	3.493372E-02	1.021307E-03
6.767324E+03	3.492405E-02	1.019460E-03
6.777160E+03	3.487986E-02	1.015559E-03
6.786997E+03	3.480287E-02	1.009664E-03
6.796833E+03	3.469285E-02	1.001784E-03
6.806669E+03	3.455107E-02	9.919756E-04
6.816505E+03	3.437687E-02	9.802489E-04
6.826341E+03	3.417237E-02	9.666978E-04
6.836178E+03	3.393778E-02	9.513682E-04
6.846014E+03	3.367465E-02	9.343483E-04
6.855850E+03	3.338336E-02	9.156988E-04
6.865686E+03	3.306497E-02	8.955036E-04
6.875523E+03	3.272126E-02	8.738711E-04
6.885359E+03	3.235270E-02	8.508772E-04
6.895195E+03	3.196054E-02	8.266230E-04
6.905031E+03	3.154662E-02	8.012275E-04
6.914867E+03	3.111161E-02	7.747819E-04
6.924704E+03	3.065741E-02	7.474113E-04
6.934540E+03	3.018468E-02	7.192117E-04
6.944376E+03	2.969480E-02	6.902990E-04
6.954212E+03	2.918965E-02	6.608017E-04
6.964049E+03	2.867060E-02	6.308369E-04
6.973885E+03	2.813840E-02	6.005100E-04
6.983721E+03	2.759491E-02	5.699512E-04
6.993557E+03	2.704094E-02	5.392702E-04
7.003393E+03	2.647837E-02	5.085992E-04
7.013230E+03	2.590792E-02	4.780500E-04
7.023066E+03	2.533142E-02	4.477583E-04
7.032902E+03	2.475010E-02	4.178516E-04
7.042738E+03	2.416471E-02	3.884556E-04
7.052575E+03	2.357646E-02	3.597117E-04
7.062411E+03	2.298747E-02	3.317862E-04
7.072247E+03	2.239791E-02	3.048308E-04
7.082083E+03	2.180889E-02	2.790335E-04
7.091920E+03	2.122236E-02	2.546204E-04
7.101756E+03	2.063842E-02	2.318312E-04
7.111592E+03	2.005807E-02	2.109623E-04
7.121428E+03	1.948263E-02	1.923631E-04
7.131264E+03	1.891296E-02	1.764210E-04
7.141101E+03	1.834988E-02	1.635389E-04
7.150937E+03	1.779378E-02	1.540720E-04
7.160773E+03	1.724576E-02	1.482466E-04
7.170609E+03	1.670657E-02	1.460472E-04
7.180446E+03	1.617689E-02	1.470944E-04
7.190282E+03	1.565703E-02	1.507764E-04
7.200118E+03	1.514791E-02	1.564333E-04
7.209954E+03	1.465006E-02	1.634481E-04
7.219790E+03	1.416366E-02	1.712984E-04
7.229627E+03	1.368943E-02	1.795806E-04
7.239463E+03	1.322775E-02	1.879898E-04
7.249299E+03	1.277894E-02	1.963051E-04
7.259135E+03	1.234301E-02	2.043673E-04
7.268972E+03	1.192045E-02	2.120750E-04
7.278808E+03	1.151146E-02	2.193609E-04
7.288644E+03	1.111616E-02	2.261851E-04
7.298480E+03	1.073466E-02	2.325291E-04
7.308317E+03	1.036678E-02	2.383847E-04
7.318153E+03	1.001277E-02	2.437654E-04
7.327989E+03	9.672618E-03	2.486884E-04
7.337825E+03	9.346260E-03	2.531776E-04
7.347661E+03	9.033601E-03	2.572614E-04
7.357498E+03	8.734328E-03	2.609660E-04
7.367334E+03	8.448482E-03	2.643305E-04
7.377170E+03	8.175875E-03	2.673903E-04
7.387006E+03	7.916293E-03	2.701813E-04
7.396843E+03	7.669326E-03	2.727333E-04
7.406679E+03	7.435049E-03	2.750938E-04
7.416515E+03	7.212837E-03	2.772851E-04
7.426351E+03	7.002552E-03	2.793467E-04
7.436187E+03	6.803862E-03	2.813105E-04
7.446024E+03	6.616418E-03	2.832067E-04
7.455860E+03	6.439715E-03	2.850572E-04
7.465696E+03	6.273662E-03	2.869008E-04
7.475532E+03	6.117587E-03	2.887489E-04
7.485369E+03	5.971227E-03	2.906294E-04
7.495205E+03	5.834171E-03	2.925616E-04
7.505041E+03	5.705991E-03	2.945622E-04
7.514877E+03	5.586261E-03	2.966455E-04
7.524714E+03	5.474431E-03	2.988170E-04
7.534550E+03	5.370203E-03	3.010932E-04
7.544386E+03	5.273273E-03	3.034890E-04
7.554222E+03	5.182993E-03	3.059971E-04
7.564058E+03	5.099082E-03	3.086289E-04
7.573895E+03	5.021031E-03	3.113800E-04
7.583731E+03	4.948704E-03	3.142670E-04
7.593567E+03	4.881501E-03	3.172755E-04
7.603403E+03	4.819308E-03	3.204199E-04
7.613240E+03	4.761565E-03	3.236838E-04
7.623076E+03	4.708063E-03	3.270718E-04
7.632912E+03	4.658503E-03	3.305812E-04
