#wls	flux	fluxerr
1.573796E+03	2.937193E-04	3.526776E-05
1.613141E+03	3.010650E-04	3.605317E-05
1.652486E+03	3.085911E-04	3.685278E-05
1.691831E+03	3.164008E-04	3.767843E-05
1.731176E+03	3.243872E-04	3.851691E-05
1.770521E+03	3.327632E-04	3.939293E-05
1.809866E+03	3.414217E-04	4.029314E-05
1.849211E+03	3.502486E-04	4.120354E-05
1.888556E+03	3.594635E-04	4.214933E-05
1.927900E+03	3.688383E-04	4.310309E-05
1.967245E+03	3.785980E-04	4.409048E-05
2.006590E+03	3.885089E-04	4.508355E-05
2.045935E+03	3.988035E-04	4.610861E-05
2.085280E+03	4.093653E-04	4.715135E-05
2.124625E+03	4.200743E-04	4.819723E-05
2.163970E+03	4.313027E-04	4.928817E-05
2.203315E+03	4.426928E-04	5.038230E-05
2.242660E+03	4.543813E-04	5.149438E-05
2.282005E+03	4.665168E-04	5.264029E-05
2.321350E+03	4.790012E-04	5.380783E-05
2.360694E+03	4.920017E-04	5.501463E-05
2.400039E+03	5.054344E-04	5.625002E-05
2.439384E+03	5.194884E-04	5.753364E-05
2.478729E+03	5.340977E-04	5.885662E-05
2.518074E+03	5.493397E-04	6.022586E-05
2.557419E+03	5.654428E-04	6.166453E-05
2.596764E+03	5.825143E-04	6.318204E-05
2.636109E+03	6.006724E-04	6.478867E-05
2.675454E+03	6.198999E-04	6.647979E-05
2.714799E+03	6.404785E-04	6.828256E-05
2.754144E+03	6.625547E-04	7.020902E-05
2.793488E+03	6.862790E-04	7.227113E-05
2.832833E+03	7.118002E-04	7.448009E-05
2.872178E+03	7.390986E-04	7.682909E-05
2.911523E+03	7.686188E-04	7.935912E-05
2.950868E+03	8.003006E-04	8.205798E-05
2.960704E+03	8.086835E-04	8.277113E-05
2.970541E+03	8.170150E-04	8.347525E-05
2.980377E+03	8.256359E-04	8.420511E-05
2.990213E+03	8.343760E-04	8.494321E-05
3.000049E+03	8.432343E-04	8.568932E-05
3.009885E+03	8.522098E-04	8.644329E-05
3.019722E+03	8.613013E-04	8.720488E-05
3.029558E+03	8.705071E-04	8.797384E-05
3.039394E+03	8.800044E-04	8.876796E-05
3.049230E+03	8.894341E-04	8.955088E-05
3.059067E+03	8.991525E-04	9.035842E-05
3.068903E+03	9.089780E-04	9.117217E-05
3.078739E+03	9.189067E-04	9.199167E-05
3.088575E+03	9.289352E-04	9.281645E-05
3.098411E+03	9.392448E-04	9.366455E-05
3.108248E+03	9.494602E-04	9.449840E-05
3.118084E+03	9.599495E-04	9.535461E-05
3.127920E+03	9.705206E-04	9.621392E-05
3.137756E+03	9.811683E-04	9.707574E-05
3.147593E+03	9.918850E-04	9.793926E-05
3.157429E+03	1.002665E-03	9.880380E-05
3.167265E+03	1.013499E-03	9.966844E-05
3.177101E+03	1.024575E-03	1.005516E-04
3.186937E+03	1.035692E-03	1.014333E-04
3.196774E+03	1.046840E-03	1.023126E-04
3.206610E+03	1.058009E-03	1.031885E-04
3.216446E+03	1.069191E-03	1.040600E-04
3.226282E+03	1.080374E-03	1.049260E-04
3.236119E+03	1.091749E-03	1.058051E-04
3.245955E+03	1.102901E-03	1.066569E-04
3.255791E+03	1.114226E-03	1.075196E-04
3.265627E+03	1.125507E-03	1.083725E-04
3.275464E+03	1.136731E-03	1.092141E-04
3.285300E+03	1.148095E-03	1.100632E-04
3.295136E+03	1.159170E-03	1.108788E-04
3.304972E+03	1.170359E-03	1.116996E-04
3.314808E+03	1.181440E-03	1.125042E-04
3.324645E+03	1.192399E-03	1.132914E-04
3.334481E+03	1.203222E-03	1.140598E-04
3.344317E+03	1.213894E-03	1.148083E-04
3.354153E+03	1.224618E-03	1.155557E-04
3.363990E+03	1.234948E-03	1.162604E-04
3.373826E+03	1.245301E-03	1.169615E-04
3.383662E+03	1.255450E-03	1.176378E-04
3.393498E+03	1.265379E-03	1.182879E-04
3.403334E+03	1.275293E-03	1.189311E-04
3.413171E+03	1.284743E-03	1.195254E-04
3.423007E+03	1.294154E-03	1.201108E-04
3.432843E+03	1.303074E-03	1.206453E-04
3.442679E+03	1.311931E-03	1.211688E-04
3.452516E+03	1.320716E-03	1.216804E-04
3.462352E+03	1.328975E-03	1.221385E-04
3.472188E+03	1.336919E-03	1.225627E-04
3.482024E+03	1.344762E-03	1.229728E-04
3.491861E+03	1.352272E-03	1.233478E-04
3.501697E+03	1.359442E-03	1.236872E-04
3.511533E+03	1.366265E-03	1.239905E-04
3.521369E+03	1.372958E-03	1.242776E-04
3.531205E+03	1.379070E-03	1.245080E-04
3.541042E+03	1.385042E-03	1.247216E-04
3.550878E+03	1.390650E-03	1.248985E-04
3.560714E+03	1.395889E-03	1.250385E-04
3.570550E+03	1.400760E-03	1.251419E-04
3.580387E+03	1.405483E-03	1.252285E-04
3.590223E+03	1.409616E-03	1.252593E-04
3.600059E+03	1.413605E-03	1.252740E-04
3.609895E+03	1.417229E-03	1.252534E-04
3.619731E+03	1.420493E-03	1.251980E-04
3.629568E+03	1.423402E-03	1.251087E-04
3.639404E+03	1.426179E-03	1.250052E-04
3.649240E+03	1.428396E-03	1.248501E-04
3.659076E+03	1.430494E-03	1.246823E-04
3.668913E+03	1.432264E-03	1.244839E-04
3.678749E+03	1.433716E-03	1.242557E-04
3.688585E+03	1.435073E-03	1.240175E-04
3.698421E+03	1.435917E-03	1.237332E-04
3.708258E+03	1.436689E-03	1.234410E-04
3.718094E+03	1.437184E-03	1.231236E-04
3.727930E+03	1.437416E-03	1.227823E-04
3.737766E+03	1.437398E-03	1.224185E-04
3.747602E+03	1.437144E-03	1.220335E-04
3.757439E+03	1.436877E-03	1.216463E-04
3.767275E+03	1.436193E-03	1.212229E-04
3.777111E+03	1.435524E-03	1.208000E-04
3.786947E+03	1.434676E-03	1.203613E-04
3.796784E+03	1.433868E-03	1.199253E-04
3.806620E+03	1.432710E-03	1.194594E-04
3.816456E+03	1.431622E-03	1.189988E-04
3.826292E+03	1.430218E-03	1.185115E-04
3.836128E+03	1.428914E-03	1.180321E-04
3.845965E+03	1.427527E-03	1.175456E-04
3.855801E+03	1.426270E-03	1.170693E-04
3.865637E+03	1.424766E-03	1.165724E-04
3.875473E+03	1.423228E-03	1.160726E-04
3.885310E+03	1.421867E-03	1.155869E-04
3.895146E+03	1.420503E-03	1.151007E-04
3.904982E+03	1.419154E-03	1.146154E-04
3.914818E+03	1.417836E-03	1.141323E-04
3.924655E+03	1.416753E-03	1.136679E-04
3.934491E+03	1.415545E-03	1.131930E-04
3.944327E+03	1.414602E-03	1.127390E-04
3.954163E+03	1.413753E-03	1.122920E-04
3.963999E+03	1.413012E-03	1.118531E-04
3.973836E+03	1.412396E-03	1.114235E-04
3.983672E+03	1.411920E-03	1.110044E-04
3.993508E+03	1.411780E-03	1.106110E-04
4.003344E+03	1.411626E-03	1.102157E-04
4.013181E+03	1.411836E-03	1.098480E-04
4.023017E+03	1.412241E-03	1.094944E-04
4.032853E+03	1.412857E-03	1.091560E-04
4.042689E+03	1.413695E-03	1.088336E-04
4.052525E+03	1.414945E-03	1.085416E-04
4.062362E+03	1.416265E-03	1.082534E-04
4.072198E+03	1.418021E-03	1.079969E-04
4.082034E+03	1.419872E-03	1.077459E-04
4.091870E+03	1.422179E-03	1.075277E-04
4.101707E+03	1.424776E-03	1.073293E-04
4.111543E+03	1.427848E-03	1.071643E-04
4.121379E+03	1.431056E-03	1.070071E-04
4.131215E+03	1.434581E-03	1.068711E-04
4.141051E+03	1.438604E-03	1.067694E-04
4.150888E+03	1.442958E-03	1.066893E-04
4.160724E+03	1.447478E-03	1.066183E-04
4.170560E+03	1.452511E-03	1.065818E-04
4.180396E+03	1.457890E-03	1.065672E-04
4.190233E+03	1.463790E-03	1.065869E-04
4.200069E+03	1.469870E-03	1.066157E-04
4.209905E+03	1.476302E-03	1.066661E-04
4.219741E+03	1.483258E-03	1.067499E-04
4.229578E+03	1.490566E-03	1.068545E-04
4.239414E+03	1.498052E-03	1.069672E-04
4.249250E+03	1.506057E-03	1.071121E-04
4.259086E+03	1.514406E-03	1.072763E-04
4.268922E+03	1.523094E-03	1.074593E-04
4.278759E+03	1.532118E-03	1.076605E-04
4.288595E+03	1.541645E-03	1.078914E-04
4.298431E+03	1.551327E-03	1.081272E-04
4.308267E+03	1.561504E-03	1.083915E-04
4.318104E+03	1.571832E-03	1.086601E-04
4.327940E+03	1.582660E-03	1.089569E-04
4.337776E+03	1.593823E-03	1.092702E-04
4.347612E+03	1.605158E-03	1.095885E-04
4.357448E+03	1.617025E-03	1.099363E-04
4.367285E+03	1.629265E-03	1.103022E-04
4.377121E+03	1.641891E-03	1.106870E-04
4.386957E+03	1.654918E-03	1.110913E-04
4.396793E+03	1.668539E-03	1.115276E-04
4.406630E+03	1.682415E-03	1.119729E-04
4.416466E+03	1.696739E-03	1.124398E-04
4.426302E+03	1.711704E-03	1.129407E-04
4.436138E+03	1.726968E-03	1.134527E-04
4.445975E+03	1.742907E-03	1.139999E-04
4.455811E+03	1.759174E-03	1.145593E-04
4.465647E+03	1.776148E-03	1.151552E-04
4.475483E+03	1.793662E-03	1.157762E-04
4.485319E+03	1.811546E-03	1.164109E-04
4.495156E+03	1.830186E-03	1.170836E-04
4.504992E+03	1.849412E-03	1.177828E-04
4.514828E+03	1.869242E-03	1.185091E-04
4.524664E+03	1.889692E-03	1.192630E-04
4.534501E+03	1.910780E-03	1.200451E-04
4.544337E+03	1.932525E-03	1.208559E-04
4.554173E+03	1.954947E-03	1.216961E-04
4.564009E+03	1.978065E-03	1.225664E-04
4.573845E+03	2.001902E-03	1.234673E-04
4.583682E+03	2.026481E-03	1.243997E-04
4.593518E+03	2.051825E-03	1.253644E-04
4.603354E+03	2.077960E-03	1.263622E-04
4.613190E+03	2.104913E-03	1.273941E-04
4.623027E+03	2.132713E-03	1.284610E-04
4.632863E+03	2.161390E-03	1.295639E-04
4.642699E+03	2.190975E-03	1.307039E-04
4.652535E+03	2.221502E-03	1.318822E-04
4.662372E+03	2.253219E-03	1.331126E-04
4.672208E+03	2.285740E-03	1.343712E-04
4.682044E+03	2.319313E-03	1.356719E-04
4.691880E+03	2.353980E-03	1.370161E-04
4.701716E+03	2.389783E-03	1.384052E-04
4.711553E+03	2.426764E-03	1.398407E-04
4.721389E+03	2.464970E-03	1.413240E-04
4.731225E+03	2.504448E-03	1.428569E-04
4.741061E+03	2.545245E-03	1.444407E-04
4.750898E+03	2.587177E-03	1.460639E-04
4.760734E+03	2.630764E-03	1.477545E-04
4.770570E+03	2.675823E-03	1.495009E-04
4.780406E+03	2.722410E-03	1.513048E-04
4.790242E+03	2.770330E-03	1.531539E-04
4.800079E+03	2.820131E-03	1.550772E-04
4.809915E+03	2.871624E-03	1.570626E-04
4.819751E+03	2.924605E-03	1.590974E-04
4.829587E+03	2.979643E-03	1.612110E-04
4.839424E+03	3.036273E-03	1.633764E-04
4.849260E+03	3.094807E-03	1.656088E-04
4.859096E+03	3.155298E-03	1.679094E-04
4.868932E+03	3.218078E-03	1.702937E-04
4.878769E+03	3.282644E-03	1.727332E-04
4.888605E+03	3.349317E-03	1.752430E-04
4.898441E+03	3.418145E-03	1.778235E-04
4.908277E+03	3.488869E-03	1.804594E-04
4.918113E+03	3.562124E-03	1.831815E-04
4.927950E+03	3.637650E-03	1.859740E-04
4.937786E+03	3.715161E-03	1.888204E-04
4.947622E+03	3.795308E-03	1.917515E-04
4.957458E+03	3.877474E-03	1.947339E-04
4.967295E+03	3.961988E-03	1.977820E-04
4.977131E+03	4.048853E-03	2.008938E-04
4.986967E+03	4.138066E-03	2.040668E-04
4.996803E+03	4.229618E-03	2.072982E-04
5.006639E+03	4.323488E-03	2.105849E-04
5.016476E+03	4.419278E-03	2.139053E-04
5.026312E+03	4.517671E-03	2.172903E-04
5.036148E+03	4.617875E-03	2.206996E-04
5.045984E+03	4.720190E-03	2.241455E-04
5.055821E+03	4.824536E-03	2.276223E-04
5.065657E+03	4.930818E-03	2.311236E-04
5.075493E+03	5.038928E-03	2.346422E-04
5.085329E+03	5.148326E-03	2.381515E-04
5.095165E+03	5.259697E-03	2.416815E-04
5.105002E+03	5.372044E-03	2.451849E-04
5.114838E+03	5.485609E-03	2.486714E-04
5.124674E+03	5.600198E-03	2.521312E-04
5.134510E+03	5.715611E-03	2.555542E-04
5.144347E+03	5.831608E-03	2.589287E-04
5.154183E+03	5.947486E-03	2.622234E-04
5.164019E+03	6.063433E-03	2.654462E-04
5.173855E+03	6.179656E-03	2.686060E-04
5.183692E+03	6.294400E-03	2.716268E-04
5.193528E+03	6.408820E-03	2.745592E-04
5.203364E+03	6.522095E-03	2.773687E-04
5.213200E+03	6.633378E-03	2.800204E-04
5.223036E+03	6.742823E-03	2.825227E-04
5.232873E+03	6.850065E-03	2.848620E-04
5.242709E+03	6.954746E-03	2.870255E-04
5.252545E+03	7.056493E-03	2.890005E-04
5.262381E+03	7.154395E-03	2.907525E-04
5.272218E+03	7.248614E-03	2.922918E-04
5.282054E+03	7.338789E-03	2.936075E-04
5.291890E+03	7.424577E-03	2.946896E-04
5.301726E+03	7.505066E-03	2.955067E-04
5.311562E+03	7.580495E-03	2.960731E-04
5.321399E+03	7.651150E-03	2.964047E-04
5.331235E+03	7.715038E-03	2.964295E-04
5.341071E+03	7.773644E-03	2.962108E-04
5.350907E+03	7.825608E-03	2.957021E-04
5.360744E+03	7.871947E-03	2.949482E-04
5.370580E+03	7.910780E-03	2.938846E-04
5.380416E+03	7.943800E-03	2.925809E-04
5.390252E+03	7.970403E-03	2.910209E-04
5.400089E+03	7.990023E-03	2.891902E-04
5.409925E+03	8.003317E-03	2.871194E-04
5.419761E+03	8.009798E-03	2.847973E-04
5.429597E+03	8.010793E-03	2.822774E-04
5.439433E+03	8.005298E-03	2.795301E-04
5.449270E+03	7.994144E-03	2.765905E-04
5.459106E+03	7.977589E-03	2.734730E-04
5.468942E+03	7.955362E-03	2.701739E-04
5.478778E+03	7.928387E-03	2.667298E-04
5.488615E+03	7.897015E-03	2.631571E-04
5.498451E+03	7.861639E-03	2.594729E-04
5.508287E+03	7.822093E-03	2.556752E-04
5.518123E+03	7.779378E-03	2.518000E-04
5.527959E+03	7.733915E-03	2.478636E-04
5.537796E+03	7.686147E-03	2.438823E-04
5.547632E+03	7.635950E-03	2.398541E-04
5.557468E+03	7.584304E-03	2.358115E-04
5.567304E+03	7.531633E-03	2.317688E-04
5.577141E+03	7.477804E-03	2.277226E-04
5.586977E+03	7.423756E-03	2.237020E-04
5.596813E+03	7.369855E-03	2.197181E-04
5.606649E+03	7.316469E-03	2.157813E-04
5.616486E+03	7.263421E-03	2.118858E-04
5.626322E+03	7.211560E-03	2.080557E-04
5.636158E+03	7.161189E-03	2.042983E-04
5.645994E+03	7.112099E-03	2.006061E-04
5.655830E+03	7.065056E-03	1.969992E-04
5.665667E+03	7.020315E-03	1.934825E-04
5.675503E+03	6.978107E-03	1.900601E-04
5.685339E+03	6.938164E-03	1.867222E-04
5.695175E+03	6.901169E-03	1.834848E-04
5.705012E+03	6.866840E-03	1.803375E-04
5.714848E+03	6.836294E-03	1.773067E-04
5.724684E+03	6.808734E-03	1.743684E-04
5.734520E+03	6.784317E-03	1.715235E-04
5.744356E+03	6.764103E-03	1.687955E-04
5.754193E+03	6.747281E-03	1.661605E-04
5.764029E+03	6.734430E-03	1.636290E-04
5.773865E+03	6.725181E-03	1.611886E-04
5.783701E+03	6.720098E-03	1.588491E-04
5.793538E+03	6.719256E-03	1.566082E-04
5.803374E+03	6.722280E-03	1.544533E-04
5.813210E+03	6.730144E-03	1.524029E-04
5.823046E+03	6.741548E-03	1.504232E-04
5.832883E+03	6.757923E-03	1.485425E-04
5.842719E+03	6.778397E-03	1.467371E-04
5.852555E+03	6.803487E-03	1.450145E-04
5.862391E+03	6.833228E-03	1.433709E-04
5.872227E+03	6.867199E-03	1.417936E-04
5.882064E+03	6.905894E-03	1.402887E-04
5.891900E+03	6.949356E-03	1.388529E-04
5.901736E+03	6.997133E-03	1.374733E-04
5.911572E+03	7.049719E-03	1.361555E-04
5.921409E+03	7.106667E-03	1.348872E-04
5.931245E+03	7.168938E-03	1.336827E-04
5.941081E+03	7.235598E-03	1.325205E-04
5.950917E+03	7.306650E-03	1.313975E-04
5.960753E+03	7.383084E-03	1.303280E-04
5.970590E+03	7.463920E-03	1.292909E-04
5.980426E+03	7.549158E-03	1.282835E-04
5.990262E+03	7.639807E-03	1.273200E-04
6.000098E+03	7.734861E-03	1.263805E-04
6.009935E+03	7.834306E-03	1.254628E-04
6.019771E+03	7.939178E-03	1.245811E-04
6.029607E+03	8.048435E-03	1.237170E-04
6.039443E+03	8.162057E-03	1.228690E-04
6.049279E+03	8.281122E-03	1.220521E-04
6.059116E+03	8.404536E-03	1.212494E-04
6.068952E+03	8.532837E-03	1.204684E-04
6.078788E+03	8.665444E-03	1.197014E-04
6.088624E+03	8.802897E-03	1.189570E-04
6.098461E+03	8.945171E-03	1.182361E-04
6.108297E+03	9.091645E-03	1.175330E-04
6.118133E+03	9.242855E-03	1.168578E-04
6.127969E+03	9.398750E-03	1.162137E-04
6.137806E+03	9.558655E-03	1.155971E-04
6.147642E+03	9.723127E-03	1.150209E-04
6.157478E+03	9.892138E-03	1.144913E-04
6.167314E+03	1.006499E-02	1.140082E-04
6.177150E+03	1.024229E-02	1.135877E-04
6.186987E+03	1.042398E-02	1.132392E-04
6.196823E+03	1.061001E-02	1.129733E-04
6.206659E+03	1.079960E-02	1.127941E-04
6.216495E+03	1.099265E-02	1.127144E-04
6.226332E+03	1.119049E-02	1.127626E-04
6.236168E+03	1.139158E-02	1.129385E-04
6.246004E+03	1.159656E-02	1.132648E-04
6.255840E+03	1.180454E-02	1.137499E-04
6.265676E+03	1.201617E-02	1.144177E-04
6.275513E+03	1.223135E-02	1.152845E-04
6.285349E+03	1.244915E-02	1.163591E-04
6.295185E+03	1.267106E-02	1.176725E-04
6.305021E+03	1.289449E-02	1.192128E-04
6.314858E+03	1.312179E-02	1.210051E-04
6.324694E+03	1.335109E-02	1.230324E-04
6.334530E+03	1.358307E-02	1.252992E-04
6.344366E+03	1.381756E-02	1.278008E-04
6.354203E+03	1.405345E-02	1.305219E-04
6.364039E+03	1.429141E-02	1.334623E-04
6.373875E+03	1.453025E-02	1.366034E-04
6.383711E+03	1.477164E-02	1.399520E-04
6.393547E+03	1.501340E-02	1.434781E-04
6.403384E+03	1.525521E-02	1.471680E-04
6.413220E+03	1.549877E-02	1.510270E-04
6.423056E+03	1.574176E-02	1.550213E-04
6.432892E+03	1.598382E-02	1.591353E-04
6.442729E+03	1.622668E-02	1.633738E-04
6.452565E+03	1.646790E-02	1.677003E-04
6.462401E+03	1.670812E-02	1.721089E-04
6.472237E+03	1.694589E-02	1.765719E-04
6.482073E+03	1.718184E-02	1.810835E-04
6.491910E+03	1.741558E-02	1.856271E-04
6.501746E+03	1.764666E-02	1.901858E-04
6.511582E+03	1.787348E-02	1.947300E-04
6.521418E+03	1.809672E-02	1.992549E-04
6.531255E+03	1.831591E-02	2.037435E-04
6.541091E+03	1.852937E-02	2.081653E-04
6.550927E+03	1.873779E-02	2.125164E-04
6.560763E+03	1.894069E-02	2.167802E-04
6.570600E+03	1.913633E-02	2.209258E-04
6.580436E+03	1.932671E-02	2.249654E-04
6.590272E+03	1.950882E-02	2.288540E-04
6.600108E+03	1.968217E-02	2.325754E-04
6.609944E+03	1.984882E-02	2.361444E-04
6.619781E+03	2.000572E-02	2.395159E-04
6.629617E+03	2.015241E-02	2.426751E-04
6.639453E+03	2.029106E-02	2.456402E-04
6.649289E+03	2.041862E-02	2.483665E-04
6.659126E+03	2.053599E-02	2.508581E-04
6.668962E+03	2.064281E-02	2.531038E-04
6.678798E+03	2.073735E-02	2.550769E-04
6.688634E+03	2.082065E-02	2.567845E-04
6.698470E+03	2.089240E-02	2.582187E-04
6.708307E+03	2.095097E-02	2.593553E-04
6.718143E+03	2.099885E-02	2.602223E-04
6.727979E+03	2.103310E-02	2.607810E-04
6.737815E+03	2.105355E-02	2.610278E-04
6.747652E+03	2.106283E-02	2.609947E-04
6.757488E+03	2.105808E-02	2.606463E-04
6.767324E+03	2.104062E-02	2.600001E-04
6.777160E+03	2.101044E-02	2.590576E-04
6.786997E+03	2.096618E-02	2.578049E-04
6.796833E+03	2.090927E-02	2.562631E-04
6.806669E+03	2.083981E-02	2.544375E-04
6.816505E+03	2.075794E-02	2.523349E-04
6.826341E+03	2.066244E-02	2.499466E-04
6.836178E+03	2.055490E-02	2.472984E-04
6.846014E+03	2.043555E-02	2.444005E-04
6.855850E+03	2.030465E-02	2.412641E-04
6.865686E+03	2.016117E-02	2.378858E-04
6.875523E+03	2.000677E-02	2.342951E-04
6.885359E+03	1.984182E-02	2.305062E-04
6.895195E+03	1.966668E-02	2.265341E-04
6.905031E+03	1.948047E-02	2.223801E-04
6.914867E+03	1.928620E-02	2.180906E-04
6.924704E+03	1.908174E-02	2.136535E-04
6.934540E+03	1.886756E-02	2.090878E-04
6.944376E+03	1.864668E-02	2.044400E-04
6.954212E+03	1.841708E-02	1.997014E-04
6.964049E+03	1.818049E-02	1.949055E-04
6.973885E+03	1.793743E-02	1.900718E-04
6.983721E+03	1.768721E-02	1.852080E-04
6.993557E+03	1.743272E-02	1.803592E-04
7.003393E+03	1.717213E-02	1.755213E-04
7.013230E+03	1.690711E-02	1.707268E-04
7.023066E+03	1.663707E-02	1.659850E-04
7.032902E+03	1.636474E-02	1.613383E-04
7.042738E+03	1.608842E-02	1.567846E-04
7.052575E+03	1.580969E-02	1.523545E-04
7.062411E+03	1.552905E-02	1.480667E-04
7.072247E+03	1.524593E-02	1.439297E-04
7.082083E+03	1.496285E-02	1.399805E-04
7.091920E+03	1.467821E-02	1.362160E-04
7.101756E+03	1.439348E-02	1.326610E-04
7.111592E+03	1.410809E-02	1.293200E-04
7.121428E+03	1.382439E-02	1.262223E-04
7.131264E+03	1.354084E-02	1.233603E-04
7.141101E+03	1.325876E-02	1.207500E-04
7.150937E+03	1.297849E-02	1.183965E-04
7.160773E+03	1.270035E-02	1.163020E-04
7.170609E+03	1.242464E-02	1.144665E-04
7.180446E+03	1.215081E-02	1.128791E-04
7.190282E+03	1.188000E-02	1.115386E-04
7.200118E+03	1.161245E-02	1.104265E-04
7.209954E+03	1.134840E-02	1.095223E-04
7.219790E+03	1.108806E-02	1.088054E-04
7.229627E+03	1.083087E-02	1.082478E-04
7.239463E+03	1.057778E-02	1.078367E-04
7.249299E+03	1.032895E-02	1.075527E-04
7.259135E+03	1.008451E-02	1.073771E-04
7.268972E+03	9.844582E-03	1.072927E-04
7.278808E+03	9.608601E-03	1.072759E-04
7.288644E+03	9.377354E-03	1.073196E-04
7.298480E+03	9.151537E-03	1.074179E-04
7.308317E+03	8.929932E-03	1.075443E-04
7.318153E+03	8.712617E-03	1.076880E-04
7.327989E+03	8.500856E-03	1.078550E-04
7.337825E+03	8.293464E-03	1.080223E-04
7.347661E+03	8.091624E-03	1.081984E-04
7.357498E+03	7.894186E-03	1.083624E-04
7.367334E+03	7.701718E-03	1.085173E-04
7.377170E+03	7.514202E-03	1.086592E-04
7.387006E+03	7.331089E-03	1.087774E-04
7.396843E+03	7.153388E-03	1.088851E-04
7.406679E+03	6.980030E-03	1.089651E-04
7.416515E+03	6.811480E-03	1.090239E-04
7.426351E+03	6.647667E-03	1.090608E-04
7.436187E+03	6.488525E-03	1.090754E-04
7.446024E+03	6.333972E-03	1.090674E-04
7.455860E+03	6.183473E-03	1.090293E-04
7.465696E+03	6.037391E-03	1.089688E-04
7.475532E+03	5.896042E-03	1.088942E-04
7.485369E+03	5.758466E-03	1.087903E-04
7.495205E+03	5.624996E-03	1.086657E-04
7.505041E+03	5.495156E-03	1.085138E-04
7.514877E+03	5.369668E-03	1.083517E-04
7.524714E+03	5.248057E-03	1.081733E-04
7.534550E+03	5.129864E-03	1.079721E-04
7.544386E+03	5.015388E-03	1.077574E-04
7.554222E+03	4.904536E-03	1.075307E-04
7.564058E+03	4.797209E-03	1.072932E-04
7.573895E+03	4.693306E-03	1.070460E-04
7.583731E+03	4.592719E-03	1.067901E-04
7.593567E+03	4.495027E-03	1.065189E-04
7.603403E+03	4.400788E-03	1.062490E-04
7.613240E+03	4.309251E-03	1.059657E-04
7.623076E+03	4.220648E-03	1.056776E-04
7.632912E+03	4.134883E-03	1.053857E-04
