#wls	flux	fluxerr
1.573796E+03	3.064266E-04	3.693738E-05
1.613141E+03	3.142132E-04	3.777293E-05
1.652486E+03	3.221930E-04	3.862370E-05
1.691831E+03	3.305809E-04	3.951492E-05
1.731176E+03	3.391603E-04	4.042007E-05
1.770521E+03	3.481497E-04	4.136460E-05
1.809866E+03	3.573245E-04	4.232114E-05
1.849211E+03	3.667921E-04	4.330183E-05
1.888556E+03	3.766651E-04	4.431925E-05
1.927900E+03	3.867075E-04	4.534486E-05
1.967245E+03	3.971494E-04	4.640496E-05
2.006590E+03	4.077485E-04	4.747046E-05
2.045935E+03	4.187423E-04	4.856829E-05
2.085280E+03	4.300091E-04	4.968342E-05
2.124625E+03	4.416753E-04	5.082959E-05
2.163970E+03	4.534937E-04	5.197745E-05
2.203315E+03	4.657258E-04	5.315615E-05
2.242660E+03	4.782589E-04	5.435175E-05
2.282005E+03	4.912453E-04	5.558053E-05
2.321350E+03	5.045823E-04	5.682966E-05
2.360694E+03	5.184429E-04	5.811743E-05
2.400039E+03	5.327406E-04	5.943274E-05
2.439384E+03	5.475334E-04	6.078070E-05
2.478729E+03	5.631731E-04	6.219869E-05
2.518074E+03	5.794681E-04	6.366350E-05
2.557419E+03	5.966608E-04	6.519974E-05
2.596764E+03	6.147205E-04	6.680173E-05
2.636109E+03	6.340698E-04	6.851271E-05
2.675454E+03	6.547087E-04	7.032942E-05
2.714799E+03	6.766410E-04	7.224885E-05
2.754144E+03	7.003372E-04	7.431743E-05
2.793488E+03	7.256599E-04	7.651609E-05
2.832833E+03	7.530979E-04	7.889158E-05
2.872178E+03	7.826614E-04	8.143932E-05
2.911523E+03	8.146728E-04	8.418679E-05
2.950868E+03	8.489198E-04	8.710547E-05
2.960704E+03	8.579446E-04	8.787278E-05
2.970541E+03	8.671043E-04	8.864975E-05
2.980377E+03	8.763990E-04	8.943629E-05
2.990213E+03	8.860074E-04	9.025050E-05
3.000049E+03	8.955737E-04	9.105598E-05
3.009885E+03	9.054546E-04	9.188896E-05
3.019722E+03	9.154704E-04	9.273100E-05
3.029558E+03	9.256203E-04	9.358192E-05
3.039394E+03	9.359021E-04	9.444141E-05
3.049230E+03	9.463137E-04	9.530914E-05
3.059067E+03	9.568525E-04	9.618474E-05
3.068903E+03	9.677033E-04	9.708665E-05
3.078739E+03	9.786767E-04	9.799569E-05
3.088575E+03	9.897692E-04	9.891140E-05
3.098411E+03	1.000977E-03	9.983327E-05
3.108248E+03	1.012293E-03	1.007607E-04
3.118084E+03	1.023714E-03	1.016929E-04
3.127920E+03	1.035428E-03	1.026487E-04
3.137756E+03	1.047236E-03	1.036081E-04
3.147593E+03	1.059130E-03	1.045703E-04
3.157429E+03	1.071103E-03	1.055344E-04
3.167265E+03	1.083147E-03	1.064996E-04
3.177101E+03	1.095454E-03	1.074847E-04
3.186937E+03	1.107612E-03	1.084491E-04
3.196774E+03	1.120016E-03	1.094314E-04
3.206610E+03	1.132454E-03	1.104109E-04
3.216446E+03	1.144914E-03	1.113862E-04
3.226282E+03	1.157592E-03	1.123765E-04
3.236119E+03	1.170061E-03	1.133400E-04
3.245955E+03	1.182725E-03	1.143160E-04
3.255791E+03	1.195361E-03	1.152829E-04
3.265627E+03	1.207957E-03	1.162394E-04
3.275464E+03	1.220498E-03	1.171840E-04
3.285300E+03	1.233183E-03	1.181360E-04
3.295136E+03	1.245568E-03	1.190527E-04
3.304972E+03	1.258069E-03	1.199738E-04
3.314808E+03	1.270455E-03	1.208774E-04
3.324645E+03	1.282928E-03	1.217826E-04
3.334481E+03	1.295033E-03	1.226464E-04
3.344317E+03	1.307195E-03	1.235089E-04
3.354153E+03	1.318954E-03	1.243269E-04
3.363990E+03	1.330737E-03	1.251407E-04
3.373826E+03	1.342306E-03	1.259279E-04
3.383662E+03	1.353870E-03	1.267082E-04
3.393498E+03	1.364963E-03	1.274379E-04
3.403334E+03	1.376019E-03	1.281581E-04
3.413171E+03	1.386797E-03	1.288461E-04
3.423007E+03	1.397282E-03	1.295007E-04
3.432843E+03	1.407688E-03	1.301420E-04
3.442679E+03	1.417543E-03	1.307264E-04
3.452516E+03	1.427291E-03	1.312951E-04
3.462352E+03	1.436691E-03	1.318261E-04
3.472188E+03	1.445731E-03	1.323184E-04
3.482024E+03	1.454399E-03	1.327712E-04
3.491861E+03	1.462915E-03	1.332049E-04
3.501697E+03	1.471039E-03	1.335976E-04
3.511533E+03	1.478764E-03	1.339489E-04
3.521369E+03	1.486081E-03	1.342584E-04
3.531205E+03	1.492984E-03	1.345259E-04
3.541042E+03	1.499698E-03	1.347717E-04
3.550878E+03	1.505758E-03	1.349544E-04
3.560714E+03	1.511623E-03	1.351153E-04
3.570550E+03	1.517059E-03	1.352340E-04
3.580387E+03	1.522296E-03	1.353309E-04
3.590223E+03	1.526875E-03	1.353657E-04
3.600059E+03	1.531257E-03	1.353794E-04
3.609895E+03	1.535215E-03	1.353523E-04
3.619731E+03	1.538753E-03	1.352850E-04
3.629568E+03	1.542103E-03	1.351982E-04
3.639404E+03	1.544818E-03	1.350529E-04
3.649240E+03	1.547358E-03	1.348896E-04
3.659076E+03	1.549504E-03	1.346896E-04
3.668913E+03	1.551268E-03	1.344541E-04
3.678749E+03	1.552880E-03	1.342033E-04
3.688585E+03	1.553908E-03	1.339000E-04
3.698421E+03	1.554807E-03	1.335839E-04
3.708258E+03	1.555368E-03	1.332371E-04
3.718094E+03	1.555605E-03	1.328611E-04
3.727930E+03	1.555750E-03	1.324759E-04
3.737766E+03	1.555382E-03	1.320458E-04
3.747602E+03	1.554951E-03	1.316094E-04
3.757439E+03	1.554256E-03	1.311496E-04
3.767275E+03	1.553313E-03	1.306682E-04
3.777111E+03	1.552352E-03	1.301845E-04
3.786947E+03	1.550966E-03	1.296646E-04
3.796784E+03	1.549593E-03	1.291454E-04
3.806620E+03	1.548043E-03	1.286109E-04
3.816456E+03	1.546332E-03	1.280628E-04
3.826292E+03	1.544684E-03	1.275197E-04
3.836128E+03	1.542707E-03	1.269492E-04
3.845965E+03	1.540829E-03	1.263868E-04
3.855801E+03	1.538864E-03	1.258171E-04
3.865637E+03	1.536829E-03	1.252418E-04
3.875473E+03	1.534945E-03	1.246786E-04
3.885310E+03	1.532829E-03	1.240967E-04
3.895146E+03	1.530898E-03	1.235298E-04
3.904982E+03	1.528972E-03	1.229632E-04
3.914818E+03	1.527070E-03	1.223985E-04
3.924655E+03	1.525402E-03	1.218527E-04
3.934491E+03	1.523600E-03	1.212961E-04
3.944327E+03	1.522067E-03	1.207608E-04
3.954163E+03	1.520629E-03	1.202328E-04
3.963999E+03	1.519303E-03	1.197136E-04
3.973836E+03	1.518107E-03	1.192043E-04
3.983672E+03	1.517242E-03	1.187208E-04
3.993508E+03	1.516356E-03	1.182351E-04
4.003344E+03	1.515834E-03	1.177773E-04
4.013181E+03	1.515507E-03	1.173341E-04
4.023017E+03	1.515572E-03	1.169204E-04
4.032853E+03	1.515682E-03	1.165093E-04
4.042689E+03	1.516033E-03	1.161158E-04
4.052525E+03	1.516820E-03	1.157546E-04
4.062362E+03	1.517875E-03	1.154126E-04
4.072198E+03	1.519214E-03	1.150906E-04
4.082034E+03	1.520848E-03	1.147895E-04
4.091870E+03	1.522967E-03	1.145232E-04
4.101707E+03	1.525229E-03	1.142658E-04
4.111543E+03	1.527998E-03	1.140441E-04
4.121379E+03	1.531107E-03	1.138456E-04
4.131215E+03	1.534567E-03	1.136706E-04
4.141051E+03	1.538386E-03	1.135196E-04
4.150888E+03	1.542744E-03	1.134054E-04
4.160724E+03	1.547303E-03	1.133028E-04
4.170560E+03	1.552415E-03	1.132374E-04
4.180396E+03	1.557909E-03	1.131963E-04
4.190233E+03	1.563791E-03	1.131796E-04
4.200069E+03	1.570063E-03	1.131872E-04
4.209905E+03	1.576726E-03	1.132188E-04
4.219741E+03	1.583780E-03	1.132740E-04
4.229578E+03	1.591397E-03	1.133649E-04
4.239414E+03	1.599401E-03	1.134784E-04
4.249250E+03	1.607618E-03	1.136021E-04
4.259086E+03	1.616387E-03	1.137594E-04
4.268922E+03	1.625532E-03	1.139377E-04
4.278759E+03	1.635219E-03	1.141483E-04
4.288595E+03	1.645096E-03	1.143662E-04
4.298431E+03	1.655333E-03	1.146030E-04
4.308267E+03	1.666095E-03	1.148699E-04
4.318104E+03	1.677210E-03	1.151546E-04
4.327940E+03	1.688506E-03	1.154450E-04
4.337776E+03	1.700340E-03	1.157654E-04
4.347612E+03	1.712548E-03	1.161041E-04
4.357448E+03	1.725143E-03	1.164618E-04
4.367285E+03	1.738141E-03	1.168391E-04
4.377121E+03	1.751730E-03	1.172486E-04
4.386957E+03	1.765577E-03	1.176672E-04
4.396793E+03	1.780047E-03	1.181192E-04
4.406630E+03	1.794803E-03	1.185818E-04
4.416466E+03	1.810216E-03	1.190790E-04
4.426302E+03	1.826122E-03	1.195998E-04
4.436138E+03	1.842358E-03	1.201330E-04
4.445975E+03	1.859297E-03	1.207026E-04
4.455811E+03	1.876775E-03	1.212974E-04
4.465647E+03	1.894807E-03	1.219179E-04
4.475483E+03	1.913404E-03	1.225645E-04
4.485319E+03	1.932583E-03	1.232375E-04
4.495156E+03	1.952543E-03	1.239491E-04
4.504992E+03	1.972930E-03	1.246762E-04
4.514828E+03	1.993942E-03	1.254310E-04
4.524664E+03	2.015784E-03	1.262256E-04
4.534501E+03	2.038098E-03	1.270371E-04
4.544337E+03	2.061088E-03	1.278776E-04
4.554173E+03	2.084966E-03	1.287597E-04
4.564009E+03	2.109368E-03	1.296600E-04
4.573845E+03	2.134702E-03	1.306033E-04
4.583682E+03	2.160798E-03	1.315781E-04
4.593518E+03	2.187482E-03	1.325734E-04
4.603354E+03	2.215175E-03	1.336139E-04
4.613190E+03	2.243506E-03	1.346765E-04
4.623027E+03	2.272906E-03	1.357863E-04
4.632863E+03	2.303206E-03	1.369323E-04
4.642699E+03	2.334233E-03	1.381035E-04
4.652535E+03	2.366434E-03	1.393255E-04
4.662372E+03	2.399640E-03	1.405874E-04
4.672208E+03	2.433679E-03	1.418781E-04
4.682044E+03	2.469015E-03	1.432239E-04
4.691880E+03	2.505481E-03	1.446139E-04
4.701716E+03	2.542902E-03	1.460370E-04
4.711553E+03	2.581762E-03	1.475201E-04
4.721389E+03	2.621669E-03	1.490395E-04
4.731225E+03	2.663121E-03	1.506223E-04
4.741061E+03	2.705718E-03	1.522448E-04
4.750898E+03	2.749972E-03	1.539344E-04
4.760734E+03	2.795476E-03	1.556671E-04
4.770570E+03	2.842754E-03	1.574707E-04
4.780406E+03	2.891393E-03	1.593207E-04
4.790242E+03	2.941684E-03	1.612320E-04
4.800079E+03	2.993939E-03	1.632199E-04
4.809915E+03	3.047722E-03	1.652591E-04
4.819751E+03	3.103340E-03	1.673646E-04
4.829587E+03	3.160854E-03	1.695380E-04
4.839424E+03	3.220323E-03	1.717807E-04
4.849260E+03	3.281807E-03	1.740941E-04
4.859096E+03	3.345093E-03	1.764652E-04
4.868932E+03	3.410776E-03	1.789233E-04
4.878769E+03	3.478645E-03	1.814553E-04
4.888605E+03	3.548467E-03	1.840471E-04
4.898441E+03	3.620857E-03	1.867284E-04
4.908277E+03	3.695286E-03	1.894699E-04
4.918113E+03	3.772083E-03	1.922863E-04
4.927950E+03	3.851283E-03	1.951773E-04
4.937786E+03	3.932919E-03	1.981422E-04
4.947622E+03	4.017018E-03	2.011800E-04
4.957458E+03	4.103601E-03	2.042895E-04
4.967295E+03	4.192679E-03	2.074689E-04
4.977131E+03	4.283926E-03	2.106997E-04
4.986967E+03	4.377996E-03	2.140119E-04
4.996803E+03	4.474203E-03	2.173696E-04
5.006639E+03	4.572857E-03	2.207854E-04
5.016476E+03	4.673922E-03	2.242555E-04
5.026312E+03	4.777349E-03	2.277751E-04
5.036148E+03	4.882707E-03	2.313216E-04
5.045984E+03	4.990657E-03	2.349242E-04
5.055821E+03	5.100361E-03	2.385411E-04
5.065657E+03	5.212083E-03	2.421830E-04
5.075493E+03	5.325704E-03	2.458424E-04
5.085329E+03	5.441084E-03	2.495109E-04
5.095165E+03	5.558071E-03	2.531800E-04
5.105002E+03	5.676485E-03	2.568398E-04
5.114838E+03	5.795707E-03	2.604612E-04
5.124674E+03	5.915940E-03	2.640523E-04
5.134510E+03	6.036955E-03	2.676019E-04
5.144347E+03	6.158498E-03	2.710981E-04
5.154183E+03	6.279842E-03	2.745084E-04
5.164019E+03	6.401609E-03	2.778599E-04
5.173855E+03	6.522567E-03	2.810991E-04
5.183692E+03	6.642854E-03	2.842324E-04
5.193528E+03	6.761631E-03	2.872250E-04
5.203364E+03	6.879523E-03	2.901043E-04
5.213200E+03	6.995169E-03	2.928142E-04
5.223036E+03	7.108682E-03	2.953615E-04
5.232873E+03	7.219665E-03	2.977317E-04
5.242709E+03	7.327724E-03	2.999111E-04
5.252545E+03	7.431935E-03	3.018647E-04
5.262381E+03	7.532407E-03	3.036007E-04
5.272218E+03	7.628743E-03	3.051066E-04
5.282054E+03	7.720550E-03	3.063707E-04
5.291890E+03	7.807448E-03	3.073824E-04
5.301726E+03	7.888530E-03	3.081109E-04
5.311562E+03	7.963984E-03	3.085690E-04
5.321399E+03	8.032942E-03	3.087286E-04
5.331235E+03	8.096224E-03	3.086273E-04
5.341071E+03	8.152468E-03	3.082190E-04
5.350907E+03	8.202006E-03	3.075229E-04
5.360744E+03	8.244679E-03	3.065394E-04
5.370580E+03	8.279792E-03	3.052496E-04
5.380416E+03	8.307843E-03	3.036790E-04
5.390252E+03	8.328813E-03	3.018336E-04
5.400089E+03	8.342725E-03	2.997211E-04
5.409925E+03	8.349110E-03	2.973317E-04
5.419761E+03	8.348673E-03	2.946974E-04
5.429597E+03	8.341039E-03	2.918119E-04
5.439433E+03	8.327575E-03	2.887293E-04
5.449270E+03	8.307444E-03	2.854268E-04
5.459106E+03	8.281528E-03	2.819407E-04
5.468942E+03	8.249642E-03	2.782704E-04
5.478778E+03	8.213274E-03	2.744716E-04
5.488615E+03	8.171742E-03	2.705257E-04
5.498451E+03	8.125505E-03	2.664524E-04
5.508287E+03	8.076102E-03	2.623056E-04
5.518123E+03	8.022930E-03	2.580685E-04
5.527959E+03	7.966479E-03	2.537599E-04
5.537796E+03	7.908287E-03	2.494311E-04
5.547632E+03	7.847774E-03	2.450652E-04
5.557468E+03	7.785424E-03	2.406790E-04
5.567304E+03	7.722709E-03	2.363191E-04
5.577141E+03	7.659053E-03	2.319681E-04
5.586977E+03	7.595380E-03	2.276542E-04
5.596813E+03	7.531612E-03	2.233750E-04
5.606649E+03	7.468619E-03	2.191560E-04
5.616486E+03	7.406763E-03	2.150065E-04
5.626322E+03	7.346382E-03	2.109353E-04
5.636158E+03	7.287330E-03	2.069365E-04
5.645994E+03	7.229907E-03	2.030171E-04
5.655830E+03	7.175324E-03	1.992093E-04
5.665667E+03	7.122920E-03	1.954919E-04
5.675503E+03	7.073383E-03	1.918816E-04
5.685339E+03	7.026490E-03	1.883696E-04
5.695175E+03	6.982888E-03	1.849704E-04
5.705012E+03	6.942768E-03	1.816859E-04
5.714848E+03	6.905854E-03	1.785055E-04
5.724684E+03	6.872738E-03	1.754413E-04
5.734520E+03	6.843566E-03	1.724934E-04
5.744356E+03	6.818031E-03	1.696503E-04
5.754193E+03	6.796681E-03	1.669220E-04
5.764029E+03	6.779620E-03	1.643071E-04
5.773865E+03	6.766521E-03	1.617936E-04
5.783701E+03	6.757892E-03	1.593898E-04
5.793538E+03	6.753395E-03	1.570836E-04
5.803374E+03	6.753525E-03	1.548824E-04
5.813210E+03	6.758342E-03	1.527832E-04
5.823046E+03	6.767911E-03	1.507830E-04
5.832883E+03	6.781866E-03	1.488695E-04
5.842719E+03	6.800251E-03	1.470393E-04
5.852555E+03	6.823954E-03	1.453075E-04
5.862391E+03	6.852183E-03	1.436525E-04
5.872227E+03	6.884962E-03	1.420706E-04
5.882064E+03	6.922753E-03	1.405672E-04
5.891900E+03	6.965590E-03	1.391384E-04
5.901736E+03	7.013499E-03	1.377804E-04
5.911572E+03	7.066078E-03	1.364809E-04
5.921409E+03	7.123344E-03	1.352365E-04
5.931245E+03	7.186192E-03	1.340598E-04
5.941081E+03	7.253759E-03	1.329305E-04
5.950917E+03	7.326056E-03	1.318451E-04
5.960753E+03	7.403997E-03	1.308163E-04
5.970590E+03	7.486233E-03	1.298164E-04
5.980426E+03	7.574136E-03	1.288659E-04
5.990262E+03	7.666794E-03	1.279459E-04
6.000098E+03	7.764676E-03	1.270610E-04
6.009935E+03	7.867312E-03	1.262008E-04
6.019771E+03	7.975173E-03	1.253704E-04
6.029607E+03	8.087766E-03	1.245599E-04
6.039443E+03	8.206068E-03	1.237823E-04
6.049279E+03	8.328584E-03	1.230135E-04
6.059116E+03	8.456795E-03	1.222746E-04
6.068952E+03	8.589676E-03	1.215498E-04
6.078788E+03	8.727712E-03	1.208462E-04
6.088624E+03	8.870342E-03	1.201565E-04
6.098461E+03	9.018049E-03	1.194887E-04
6.108297E+03	9.170246E-03	1.188370E-04
6.118133E+03	9.327414E-03	1.182105E-04
6.127969E+03	9.489508E-03	1.176121E-04
6.137806E+03	9.656465E-03	1.170455E-04
6.147642E+03	9.827660E-03	1.165087E-04
6.157478E+03	1.000302E-02	1.160077E-04
6.167314E+03	1.018372E-02	1.155637E-04
6.177150E+03	1.036789E-02	1.151644E-04
6.186987E+03	1.055734E-02	1.148401E-04
6.196823E+03	1.075076E-02	1.145875E-04
6.206659E+03	1.094874E-02	1.144255E-04
6.216495E+03	1.115056E-02	1.143601E-04
6.226332E+03	1.135679E-02	1.144121E-04
6.236168E+03	1.156737E-02	1.145967E-04
6.246004E+03	1.178153E-02	1.149227E-04
6.255840E+03	1.199986E-02	1.154137E-04
6.265676E+03	1.222227E-02	1.160869E-04
6.275513E+03	1.244795E-02	1.169527E-04
6.285349E+03	1.267749E-02	1.180353E-04
6.295185E+03	1.291004E-02	1.193447E-04
6.305021E+03	1.314622E-02	1.209029E-04
6.314858E+03	1.338592E-02	1.227152E-04
6.324694E+03	1.362817E-02	1.247739E-04
6.334530E+03	1.387360E-02	1.270842E-04
6.344366E+03	1.412203E-02	1.296419E-04
6.354203E+03	1.437240E-02	1.324329E-04
6.364039E+03	1.462534E-02	1.354573E-04
6.373875E+03	1.487973E-02	1.386974E-04
6.383711E+03	1.513706E-02	1.421587E-04
6.393547E+03	1.539437E-02	1.458041E-04
6.403384E+03	1.565408E-02	1.496460E-04
6.413220E+03	1.591404E-02	1.536528E-04
6.423056E+03	1.617483E-02	1.578186E-04
6.432892E+03	1.643513E-02	1.621184E-04
6.442729E+03	1.669552E-02	1.665454E-04
6.452565E+03	1.695563E-02	1.710833E-04
6.462401E+03	1.721402E-02	1.757048E-04
6.472237E+03	1.747127E-02	1.804027E-04
6.482073E+03	1.772692E-02	1.851597E-04
6.491910E+03	1.797944E-02	1.899466E-04
6.501746E+03	1.822940E-02	1.947564E-04
6.511582E+03	1.847631E-02	1.995711E-04
6.521418E+03	1.871852E-02	2.043603E-04
6.531255E+03	1.895663E-02	2.091175E-04
6.541091E+03	1.919008E-02	2.138246E-04
6.550927E+03	1.941719E-02	2.184502E-04
6.560763E+03	1.963853E-02	2.229888E-04
6.570600E+03	1.985236E-02	2.274090E-04
6.580436E+03	2.006051E-02	2.317200E-04
6.590272E+03	2.026002E-02	2.358769E-04
6.600108E+03	2.045032E-02	2.398620E-04
6.609944E+03	2.063331E-02	2.436870E-04
6.619781E+03	2.080600E-02	2.473072E-04
6.629617E+03	2.096785E-02	2.507063E-04
6.639453E+03	2.112085E-02	2.538994E-04
6.649289E+03	2.126202E-02	2.568421E-04
6.659126E+03	2.139086E-02	2.595210E-04
6.668962E+03	2.150951E-02	2.619545E-04
6.678798E+03	2.161500E-02	2.641002E-04
6.688634E+03	2.170822E-02	2.659634E-04
6.698470E+03	2.178754E-02	2.675191E-04
6.708307E+03	2.185395E-02	2.687751E-04
6.718143E+03	2.190718E-02	2.697250E-04
6.727979E+03	2.194701E-02	2.703634E-04
6.737815E+03	2.197191E-02	2.706700E-04
6.747652E+03	2.198307E-02	2.706585E-04
6.757488E+03	2.198036E-02	2.703275E-04
6.767324E+03	2.196241E-02	2.696611E-04
6.777160E+03	2.193052E-02	2.686772E-04
6.786997E+03	2.188470E-02	2.673789E-04
6.796833E+03	2.182371E-02	2.657546E-04
6.806669E+03	2.175029E-02	2.638422E-04
6.816505E+03	2.166194E-02	2.616171E-04
6.826341E+03	2.155888E-02	2.590882E-04
6.836178E+03	2.144394E-02	2.562967E-04
6.846014E+03	2.131478E-02	2.532227E-04
6.855850E+03	2.117172E-02	2.498789E-04
6.865686E+03	2.101768E-02	2.463093E-04
6.875523E+03	2.085045E-02	2.424983E-04
6.885359E+03	2.067173E-02	2.384766E-04
6.895195E+03	2.048193E-02	2.342605E-04
6.905031E+03	2.028026E-02	2.298536E-04
6.914867E+03	2.006969E-02	2.253021E-04
6.924704E+03	1.984824E-02	2.205970E-04
6.934540E+03	1.961646E-02	2.157588E-04
6.944376E+03	1.937729E-02	2.108339E-04
6.954212E+03	1.912889E-02	2.058169E-04
6.964049E+03	1.887300E-02	2.007418E-04
6.973885E+03	1.860904E-02	1.956180E-04
6.983721E+03	1.833987E-02	1.904910E-04
6.993557E+03	1.806379E-02	1.853589E-04
7.003393E+03	1.778251E-02	1.802553E-04
7.013230E+03	1.749552E-02	1.751911E-04
7.023066E+03	1.720555E-02	1.702097E-04
7.032902E+03	1.691102E-02	1.653110E-04
7.042738E+03	1.661356E-02	1.605270E-04
7.052575E+03	1.631269E-02	1.558681E-04
7.062411E+03	1.601098E-02	1.513740E-04
7.072247E+03	1.570695E-02	1.470444E-04
7.082083E+03	1.540210E-02	1.429068E-04
7.091920E+03	1.509692E-02	1.389781E-04
7.101756E+03	1.479095E-02	1.352648E-04
7.111592E+03	1.448561E-02	1.317894E-04
7.121428E+03	1.418131E-02	1.285634E-04
7.131264E+03	1.387849E-02	1.255959E-04
7.141101E+03	1.357753E-02	1.228938E-04
7.150937E+03	1.327796E-02	1.204539E-04
7.160773E+03	1.298100E-02	1.182853E-04
7.170609E+03	1.268698E-02	1.163866E-04
7.180446E+03	1.239621E-02	1.147534E-04
7.190282E+03	1.210898E-02	1.133725E-04
7.200118E+03	1.182481E-02	1.122160E-04
7.209954E+03	1.154474E-02	1.112697E-04
7.219790E+03	1.126899E-02	1.105116E-04
7.229627E+03	1.099776E-02	1.099202E-04
7.239463E+03	1.073055E-02	1.094676E-04
7.249299E+03	1.046892E-02	1.091477E-04
7.259135E+03	1.021164E-02	1.089278E-04
7.268972E+03	9.958906E-03	1.087903E-04
7.278808E+03	9.712086E-03	1.087330E-04
7.288644E+03	9.470622E-03	1.087344E-04
7.298480E+03	9.233993E-03	1.087744E-04
7.308317E+03	9.002874E-03	1.088486E-04
7.318153E+03	8.777296E-03	1.089468E-04
7.327989E+03	8.557287E-03	1.090603E-04
7.337825E+03	8.342310E-03	1.091745E-04
7.347661E+03	8.133454E-03	1.092974E-04
7.357498E+03	7.929641E-03	1.094095E-04
7.367334E+03	7.731370E-03	1.095137E-04
7.377170E+03	7.538608E-03	1.096066E-04
7.387006E+03	7.351298E-03	1.096855E-04
7.396843E+03	7.168917E-03	1.097415E-04
7.406679E+03	6.991875E-03	1.097800E-04
7.416515E+03	6.820097E-03	1.098002E-04
7.426351E+03	6.653484E-03	1.098016E-04
7.436187E+03	6.491941E-03	1.097838E-04
7.446024E+03	6.335356E-03	1.097467E-04
7.455860E+03	6.183204E-03	1.096834E-04
7.465696E+03	6.036185E-03	1.096084E-04
7.475532E+03	5.893377E-03	1.095080E-04
7.485369E+03	5.755057E-03	1.093897E-04
7.495205E+03	5.621114E-03	1.092547E-04
7.505041E+03	5.491084E-03	1.090969E-04
7.514877E+03	5.365608E-03	1.089324E-04
7.524714E+03	5.243880E-03	1.087483E-04
7.534550E+03	5.126164E-03	1.085535E-04
7.544386E+03	5.012363E-03	1.083495E-04
7.554222E+03	4.902373E-03	1.081379E-04
7.564058E+03	4.796085E-03	1.079199E-04
7.573895E+03	4.693387E-03	1.076967E-04
7.583731E+03	4.593864E-03	1.074624E-04
7.593567E+03	4.498018E-03	1.072322E-04
7.603403E+03	4.405130E-03	1.069928E-04
7.613240E+03	4.315398E-03	1.067523E-04
7.623076E+03	4.228704E-03	1.065111E-04
7.632912E+03	4.144945E-03	1.062703E-04
