#wls	flux	fluxerr
1.600000E+03	1.222767E-14	2.914933E-15
1.640000E+03	1.300492E-14	2.879830E-15
1.680000E+03	1.382415E-14	2.828885E-15
1.720000E+03	1.468518E-14	2.761494E-15
1.760000E+03	1.558712E-14	2.677555E-15
1.800000E+03	1.652796E-14	2.577680E-15
1.840000E+03	1.750437E-14	2.463530E-15
1.880000E+03	1.851125E-14	2.338213E-15
1.920000E+03	1.954129E-14	2.206770E-15
1.960000E+03	2.058457E-14	2.076625E-15
2.000000E+03	2.162814E-14	1.957643E-15
2.040000E+03	2.265527E-14	1.861047E-15
2.080000E+03	2.364511E-14	1.796483E-15
2.120000E+03	2.457506E-14	1.768024E-15
2.160000E+03	2.541795E-14	1.771811E-15
2.200000E+03	2.613814E-14	1.798117E-15
2.240000E+03	2.669395E-14	1.835488E-15
2.280000E+03	2.705746E-14	1.873673E-15
2.320000E+03	2.723947E-14	1.904824E-15
2.360000E+03	2.726708E-14	1.922202E-15
2.400000E+03	2.716503E-14	1.920706E-15
2.440000E+03	2.695465E-14	1.898827E-15
2.480000E+03	2.665529E-14	1.859964E-15
2.520000E+03	2.628523E-14	1.812633E-15
2.560000E+03	2.586002E-14	1.769106E-15
2.600000E+03	2.538281E-14	1.741494E-15
2.640000E+03	2.485348E-14	1.737275E-15
2.680000E+03	2.427381E-14	1.755509E-15
2.720000E+03	2.364867E-14	1.787521E-15
2.760000E+03	2.298654E-14	1.821443E-15
2.800000E+03	2.229881E-14	1.846518E-15
2.840000E+03	2.159847E-14	1.855144E-15
2.880000E+03	2.089870E-14	1.843146E-15
2.920000E+03	2.021173E-14	1.809220E-15
2.960000E+03	1.954833E-14	1.754219E-15
3.000000E+03	1.891736E-14	1.680500E-15
3.010000E+03	1.876554E-14	1.659523E-15
3.020000E+03	1.861623E-14	1.637640E-15
3.030000E+03	1.846959E-14	1.614920E-15
3.040000E+03	1.832568E-14	1.591428E-15
3.050000E+03	1.818450E-14	1.567222E-15
3.060000E+03	1.804612E-14	1.542375E-15
3.070000E+03	1.791069E-14	1.516962E-15
3.080000E+03	1.777810E-14	1.491045E-15
3.090000E+03	1.764848E-14	1.464703E-15
3.100000E+03	1.752187E-14	1.438011E-15
3.110000E+03	1.739821E-14	1.411039E-15
3.120000E+03	1.727759E-14	1.383868E-15
3.130000E+03	1.715997E-14	1.356570E-15
3.140000E+03	1.704536E-14	1.329225E-15
3.150000E+03	1.693377E-14	1.301908E-15
3.160000E+03	1.682519E-14	1.274698E-15
3.170000E+03	1.671961E-14	1.247670E-15
3.180000E+03	1.661699E-14	1.220897E-15
3.190000E+03	1.651733E-14	1.194454E-15
3.200000E+03	1.642059E-14	1.168408E-15
3.210000E+03	1.632672E-14	1.142826E-15
3.220000E+03	1.623576E-14	1.117775E-15
3.230000E+03	1.614761E-14	1.093309E-15
3.240000E+03	1.606227E-14	1.069482E-15
3.250000E+03	1.597969E-14	1.046341E-15
3.260000E+03	1.589990E-14	1.023930E-15
3.270000E+03	1.582285E-14	1.002282E-15
3.280000E+03	1.574847E-14	9.814215E-16
3.290000E+03	1.567684E-14	9.613755E-16
3.300000E+03	1.560786E-14	9.421518E-16
3.310000E+03	1.554161E-14	9.237638E-16
3.320000E+03	1.547803E-14	9.062093E-16
3.330000E+03	1.541713E-14	8.894829E-16
3.340000E+03	1.535897E-14	8.735789E-16
3.350000E+03	1.530354E-14	8.584826E-16
3.360000E+03	1.525085E-14	8.441754E-16
3.370000E+03	1.520090E-14	8.306362E-16
3.380000E+03	1.515368E-14	8.178412E-16
3.390000E+03	1.510927E-14	8.057694E-16
3.400000E+03	1.506755E-14	7.943894E-16
3.410000E+03	1.502855E-14	7.836756E-16
3.420000E+03	1.499220E-14	7.735994E-16
3.430000E+03	1.495840E-14	7.641294E-16
3.440000E+03	1.492712E-14	7.552398E-16
3.450000E+03	1.489820E-14	7.468983E-16
3.460000E+03	1.487161E-14	7.390802E-16
3.470000E+03	1.484712E-14	7.317520E-16
3.480000E+03	1.482455E-14	7.248843E-16
3.490000E+03	1.480369E-14	7.184472E-16
3.500000E+03	1.478433E-14	7.124109E-16
3.510000E+03	1.476617E-14	7.067438E-16
3.520000E+03	1.474890E-14	7.014147E-16
3.530000E+03	1.473227E-14	6.963975E-16
3.540000E+03	1.471589E-14	6.916585E-16
3.550000E+03	1.469950E-14	6.871736E-16
3.560000E+03	1.468273E-14	6.829134E-16
3.570000E+03	1.466533E-14	6.788542E-16
3.580000E+03	1.464695E-14	6.749688E-16
3.590000E+03	1.462740E-14	6.712377E-16
3.600000E+03	1.460634E-14	6.676339E-16
3.610000E+03	1.458363E-14	6.641396E-16
3.620000E+03	1.455907E-14	6.607340E-16
3.630000E+03	1.453245E-14	6.573948E-16
3.640000E+03	1.450369E-14	6.541054E-16
3.650000E+03	1.447274E-14	6.508502E-16
3.660000E+03	1.443952E-14	6.476109E-16
3.670000E+03	1.440412E-14	6.443772E-16
3.680000E+03	1.436661E-14	6.411366E-16
3.690000E+03	1.432710E-14	6.378789E-16
3.700000E+03	1.428578E-14	6.345964E-16
3.710000E+03	1.424302E-14	6.312901E-16
3.720000E+03	1.419902E-14	6.279537E-16
3.730000E+03	1.415426E-14	6.245938E-16
3.740000E+03	1.410910E-14	6.212118E-16
3.750000E+03	1.406405E-14	6.178175E-16
3.760000E+03	1.401956E-14	6.144194E-16
3.770000E+03	1.397616E-14	6.110319E-16
3.780000E+03	1.393427E-14	6.076647E-16
3.790000E+03	1.389447E-14	6.043392E-16
3.800000E+03	1.385707E-14	6.010644E-16
3.810000E+03	1.382254E-14	5.978598E-16
3.820000E+03	1.379120E-14	5.947396E-16
3.830000E+03	1.376325E-14	5.917146E-16
3.840000E+03	1.373891E-14	5.887980E-16
3.850000E+03	1.371828E-14	5.859983E-16
3.860000E+03	1.370143E-14	5.833237E-16
3.870000E+03	1.368820E-14	5.807731E-16
3.880000E+03	1.367863E-14	5.783537E-16
3.890000E+03	1.367242E-14	5.760594E-16
3.900000E+03	1.366943E-14	5.738903E-16
3.910000E+03	1.366931E-14	5.718383E-16
3.920000E+03	1.367179E-14	5.698980E-16
3.930000E+03	1.367651E-14	5.680603E-16
3.940000E+03	1.368314E-14	5.663176E-16
3.950000E+03	1.369124E-14	5.646565E-16
3.960000E+03	1.370051E-14	5.630696E-16
3.970000E+03	1.371050E-14	5.615423E-16
3.980000E+03	1.372087E-14	5.600635E-16
3.990000E+03	1.373123E-14	5.586194E-16
4.000000E+03	1.374124E-14	5.571982E-16
4.010000E+03	1.375050E-14	5.557837E-16
4.020000E+03	1.375872E-14	5.543645E-16
4.030000E+03	1.376565E-14	5.529303E-16
4.040000E+03	1.377102E-14	5.514703E-16
4.050000E+03	1.377453E-14	5.499734E-16
4.060000E+03	1.377615E-14	5.484382E-16
4.070000E+03	1.377570E-14	5.468594E-16
4.080000E+03	1.377322E-14	5.452399E-16
4.090000E+03	1.376869E-14	5.435811E-16
4.100000E+03	1.376237E-14	5.418950E-16
4.110000E+03	1.375433E-14	5.401872E-16
4.120000E+03	1.374491E-14	5.384726E-16
4.130000E+03	1.373450E-14	5.367683E-16
4.140000E+03	1.372335E-14	5.350853E-16
4.150000E+03	1.371188E-14	5.334420E-16
4.160000E+03	1.370048E-14	5.318538E-16
4.170000E+03	1.368940E-14	5.303324E-16
4.180000E+03	1.367893E-14	5.288895E-16
4.190000E+03	1.366926E-14	5.275343E-16
4.200000E+03	1.366033E-14	5.262675E-16
4.210000E+03	1.365214E-14	5.250908E-16
4.220000E+03	1.364454E-14	5.240023E-16
4.230000E+03	1.363713E-14	5.229907E-16
4.240000E+03	1.362957E-14	5.220459E-16
4.250000E+03	1.362121E-14	5.211462E-16
4.260000E+03	1.361153E-14	5.202741E-16
4.270000E+03	1.359991E-14	5.194067E-16
4.280000E+03	1.358555E-14	5.185108E-16
4.290000E+03	1.356796E-14	5.175645E-16
4.300000E+03	1.354648E-14	5.165350E-16
4.310000E+03	1.352071E-14	5.153970E-16
4.320000E+03	1.349037E-14	5.141265E-16
4.330000E+03	1.345520E-14	5.126983E-16
4.340000E+03	1.341521E-14	5.110953E-16
4.350000E+03	1.337060E-14	5.093058E-16
4.360000E+03	1.332157E-14	5.073189E-16
4.370000E+03	1.326855E-14	5.051330E-16
4.380000E+03	1.321205E-14	5.027503E-16
4.390000E+03	1.315263E-14	5.001799E-16
4.400000E+03	1.309068E-14	4.974265E-16
4.410000E+03	1.302676E-14	4.945071E-16
4.420000E+03	1.296118E-14	4.914337E-16
4.430000E+03	1.289426E-14	4.882248E-16
4.440000E+03	1.282626E-14	4.849011E-16
4.450000E+03	1.275729E-14	4.814832E-16
4.460000E+03	1.268746E-14	4.779952E-16
4.470000E+03	1.261667E-14	4.744562E-16
4.480000E+03	1.254486E-14	4.708873E-16
4.490000E+03	1.247192E-14	4.673077E-16
4.500000E+03	1.239770E-14	4.637340E-16
4.510000E+03	1.232193E-14	4.601739E-16
4.520000E+03	1.224449E-14	4.566379E-16
4.530000E+03	1.216522E-14	4.531304E-16
4.540000E+03	1.208395E-14	4.496512E-16
4.550000E+03	1.200074E-14	4.462046E-16
4.560000E+03	1.191551E-14	4.427864E-16
4.570000E+03	1.182846E-14	4.393994E-16
4.580000E+03	1.173974E-14	4.360430E-16
4.590000E+03	1.164963E-14	4.327192E-16
4.600000E+03	1.155867E-14	4.294387E-16
4.610000E+03	1.146730E-14	4.262067E-16
4.620000E+03	1.137593E-14	4.230282E-16
4.630000E+03	1.128524E-14	4.199156E-16
4.640000E+03	1.119612E-14	4.168904E-16
4.650000E+03	1.110949E-14	4.139740E-16
4.660000E+03	1.102636E-14	4.111920E-16
4.670000E+03	1.094770E-14	4.085674E-16
4.680000E+03	1.087413E-14	4.061115E-16
4.690000E+03	1.080622E-14	4.038339E-16
4.700000E+03	1.074455E-14	4.017449E-16
4.710000E+03	1.068915E-14	3.998353E-16
4.720000E+03	1.064019E-14	3.981013E-16
4.730000E+03	1.059748E-14	3.965279E-16
4.740000E+03	1.056068E-14	3.950945E-16
4.750000E+03	1.052928E-14	3.937756E-16
4.760000E+03	1.050262E-14	3.925414E-16
4.770000E+03	1.047992E-14	3.913588E-16
4.780000E+03	1.046021E-14	3.901897E-16
4.790000E+03	1.044256E-14	3.889980E-16
4.800000E+03	1.042598E-14	3.877481E-16
4.810000E+03	1.040949E-14	3.864064E-16
4.820000E+03	1.039200E-14	3.849366E-16
4.830000E+03	1.037270E-14	3.833156E-16
4.840000E+03	1.035073E-14	3.815198E-16
4.850000E+03	1.032542E-14	3.795346E-16
4.860000E+03	1.029618E-14	3.773487E-16
4.870000E+03	1.026261E-14	3.749606E-16
4.880000E+03	1.022450E-14	3.723747E-16
4.890000E+03	1.018169E-14	3.695984E-16
4.900000E+03	1.013417E-14	3.666442E-16
4.910000E+03	1.008223E-14	3.635346E-16
4.920000E+03	1.002605E-14	3.602868E-16
4.930000E+03	9.966119E-15	3.569286E-16
4.940000E+03	9.902795E-15	3.534807E-16
4.950000E+03	9.836716E-15	3.499722E-16
4.960000E+03	9.768476E-15	3.464286E-16
4.970000E+03	9.698514E-15	3.428679E-16
4.980000E+03	9.627421E-15	3.393110E-16
4.990000E+03	9.555759E-15	3.357756E-16
5.000000E+03	9.484039E-15	3.322753E-16
5.010000E+03	9.412633E-15	3.288168E-16
5.020000E+03	9.341924E-15	3.254049E-16
5.030000E+03	9.272137E-15	3.220375E-16
5.040000E+03	9.203500E-15	3.187109E-16
5.050000E+03	9.136243E-15	3.154206E-16
5.060000E+03	9.070207E-15	3.121479E-16
5.070000E+03	9.005565E-15	3.088854E-16
5.080000E+03	8.942116E-15	3.056133E-16
5.090000E+03	8.879853E-15	3.023189E-16
5.100000E+03	8.818576E-15	2.989841E-16
5.110000E+03	8.758065E-15	2.955911E-16
5.120000E+03	8.698239E-15	2.921283E-16
5.130000E+03	8.638861E-15	2.885803E-16
5.140000E+03	8.579774E-15	2.849351E-16
5.150000E+03	8.520753E-15	2.811800E-16
5.160000E+03	8.461669E-15	2.773055E-16
5.170000E+03	8.402489E-15	2.733060E-16
5.180000E+03	8.342896E-15	2.691663E-16
5.190000E+03	8.282983E-15	2.648843E-16
5.200000E+03	8.222641E-15	2.604509E-16
5.210000E+03	8.161868E-15	2.558592E-16
5.220000E+03	8.100613E-15	2.511003E-16
5.230000E+03	8.038932E-15	2.461674E-16
5.240000E+03	7.976907E-15	2.410537E-16
5.250000E+03	7.914645E-15	2.357520E-16
5.260000E+03	7.852198E-15	2.302525E-16
5.270000E+03	7.789785E-15	2.245496E-16
5.280000E+03	7.727412E-15	2.186303E-16
5.290000E+03	7.665312E-15	2.124874E-16
5.300000E+03	7.603714E-15	2.061127E-16
5.310000E+03	7.542623E-15	1.994908E-16
5.320000E+03	7.482250E-15	1.926116E-16
5.330000E+03	7.422644E-15	1.854600E-16
5.340000E+03	7.364051E-15	1.780262E-16
5.350000E+03	7.306550E-15	1.702964E-16
5.360000E+03	7.250130E-15	1.622563E-16
5.370000E+03	7.194972E-15	1.538990E-16
5.380000E+03	7.141163E-15	1.452196E-16
5.390000E+03	7.088632E-15	1.362176E-16
5.400000E+03	7.037363E-15	1.269053E-16
5.410000E+03	6.987256E-15	1.173113E-16
5.420000E+03	6.937924E-15	1.074869E-16
5.430000E+03	6.888626E-15	9.752234E-17
5.440000E+03	6.839107E-15	8.758329E-17
5.450000E+03	6.789727E-15	7.794791E-17
5.460000E+03	6.740571E-15	6.905203E-17
5.470000E+03	6.691670E-15	6.156466E-17
5.480000E+03	6.643086E-15	5.641116E-17
5.490000E+03	6.594725E-15	5.456213E-17
5.500000E+03	6.546696E-15	5.637241E-17
5.510000E+03	6.498916E-15	6.114076E-17
5.520000E+03	6.451321E-15	6.778157E-17
5.530000E+03	6.404090E-15	7.538796E-17
5.540000E+03	6.357226E-15	8.334418E-17
5.550000E+03	6.310737E-15	9.126830E-17
5.560000E+03	6.264831E-15	9.893559E-17
5.570000E+03	6.219576E-15	1.062159E-16
5.580000E+03	6.174971E-15	1.130372E-16
5.590000E+03	6.131144E-15	1.193670E-16
5.600000E+03	6.088224E-15	1.251962E-16
5.610000E+03	6.046211E-15	1.305286E-16
5.620000E+03	6.005241E-15	1.353797E-16
5.630000E+03	5.965393E-15	1.397702E-16
5.640000E+03	5.926816E-15	1.437262E-16
5.650000E+03	5.889596E-15	1.472745E-16
5.660000E+03	5.853821E-15	1.504432E-16
5.670000E+03	5.819570E-15	1.532608E-16
5.680000E+03	5.787041E-15	1.557590E-16
5.690000E+03	5.756219E-15	1.579633E-16
5.700000E+03	5.727127E-15	1.598996E-16
5.710000E+03	5.699823E-15	1.615933E-16
5.720000E+03	5.674263E-15	1.630658E-16
5.730000E+03	5.650430E-15	1.643375E-16
5.740000E+03	5.628137E-15	1.654220E-16
5.750000E+03	5.607288E-15	1.663337E-16
5.760000E+03	5.587752E-15	1.670839E-16
5.770000E+03	5.569241E-15	1.676770E-16
5.780000E+03	5.551506E-15	1.681165E-16
5.790000E+03	5.534416E-15	1.684074E-16
5.800000E+03	5.517639E-15	1.685459E-16
5.810000E+03	5.500977E-15	1.685303E-16
5.820000E+03	5.484113E-15	1.683527E-16
5.830000E+03	5.466946E-15	1.680095E-16
5.840000E+03	5.449135E-15	1.674877E-16
5.850000E+03	5.430630E-15	1.667818E-16
5.860000E+03	5.411281E-15	1.658814E-16
5.870000E+03	5.390967E-15	1.647766E-16
5.880000E+03	5.369597E-15	1.634581E-16
5.890000E+03	5.347103E-15	1.619177E-16
5.900000E+03	5.323445E-15	1.601491E-16
5.910000E+03	5.298734E-15	1.581516E-16
5.920000E+03	5.272830E-15	1.559188E-16
5.930000E+03	5.245806E-15	1.534519E-16
5.940000E+03	5.217749E-15	1.507539E-16
5.950000E+03	5.188549E-15	1.478231E-16
5.960000E+03	5.158441E-15	1.446683E-16
5.970000E+03	5.127329E-15	1.412888E-16
5.980000E+03	5.095328E-15	1.376891E-16
5.990000E+03	5.062425E-15	1.338693E-16
6.000000E+03	5.028822E-15	1.298332E-16
6.010000E+03	4.994527E-15	1.255777E-16
6.020000E+03	4.959699E-15	1.211012E-16
6.030000E+03	4.924309E-15	1.163949E-16
6.040000E+03	4.888678E-15	1.114563E-16
6.050000E+03	4.852807E-15	1.062729E-16
6.060000E+03	4.816908E-15	1.008354E-16
6.070000E+03	4.781132E-15	9.513194E-17
6.080000E+03	4.745627E-15	8.915029E-17
6.090000E+03	4.710537E-15	8.287915E-17
6.100000E+03	4.676052E-15	7.631086E-17
6.110000E+03	4.642270E-15	6.944162E-17
6.120000E+03	4.609192E-15	6.227616E-17
6.130000E+03	4.576849E-15	5.483718E-17
6.140000E+03	4.545170E-15	4.717732E-17
6.150000E+03	4.514116E-15	3.941008E-17
6.160000E+03	4.483480E-15	3.177698E-17
6.170000E+03	4.453141E-15	2.482722E-17
6.180000E+03	4.422824E-15	1.981904E-17
6.190000E+03	4.392218E-15	1.882542E-17
6.200000E+03	4.361163E-15	2.234488E-17
6.210000E+03	4.329930E-15	2.835807E-17
6.220000E+03	4.298687E-15	3.521660E-17
6.230000E+03	4.267575E-15	4.217883E-17
6.240000E+03	4.236707E-15	4.893345E-17
6.250000E+03	4.206129E-15	5.534499E-17
6.260000E+03	4.176022E-15	6.135794E-17
6.270000E+03	4.146444E-15	6.695384E-17
6.280000E+03	4.117588E-15	7.213686E-17
6.290000E+03	4.089457E-15	7.691970E-17
6.300000E+03	4.062310E-15	8.132622E-17
6.310000E+03	4.036154E-15	8.537925E-17
6.320000E+03	4.011179E-15	8.910705E-17
6.330000E+03	3.987505E-15	9.253714E-17
6.340000E+03	3.965177E-15	9.569498E-17
6.350000E+03	3.944340E-15	9.860771E-17
6.360000E+03	3.924990E-15	1.012977E-16
6.370000E+03	3.907213E-15	1.037882E-16
6.380000E+03	3.890994E-15	1.060986E-16
6.390000E+03	3.876275E-15	1.082454E-16
6.400000E+03	3.862894E-15	1.102409E-16
6.410000E+03	3.850898E-15	1.121015E-16
6.420000E+03	3.839980E-15	1.138325E-16
6.430000E+03	3.829990E-15	1.154420E-16
6.440000E+03	3.820753E-15	1.169361E-16
6.450000E+03	3.812009E-15	1.183176E-16
6.460000E+03	3.803488E-15	1.195877E-16
6.470000E+03	3.794919E-15	1.207463E-16
6.480000E+03	3.786097E-15	1.217951E-16
6.490000E+03	3.776831E-15	1.227353E-16
6.500000E+03	3.766753E-15	1.235617E-16
6.510000E+03	3.755773E-15	1.242777E-16
6.520000E+03	3.743633E-15	1.248807E-16
6.530000E+03	3.730228E-15	1.253729E-16
6.540000E+03	3.715485E-15	1.257569E-16
6.550000E+03	3.699157E-15	1.260294E-16
6.560000E+03	3.681225E-15	1.261939E-16
6.570000E+03	3.661628E-15	1.262526E-16
6.580000E+03	3.640332E-15	1.262079E-16
6.590000E+03	3.617395E-15	1.260652E-16
6.600000E+03	3.592768E-15	1.258255E-16
6.610000E+03	3.566493E-15	1.254929E-16
6.620000E+03	3.538696E-15	1.250742E-16
6.630000E+03	3.509398E-15	1.245721E-16
6.640000E+03	3.478768E-15	1.239943E-16
6.650000E+03	3.446863E-15	1.233447E-16
6.660000E+03	3.413823E-15	1.226297E-16
6.670000E+03	3.379798E-15	1.218562E-16
6.680000E+03	3.345016E-15	1.210337E-16
6.690000E+03	3.309582E-15	1.201672E-16
6.700000E+03	3.273672E-15	1.192640E-16
6.710000E+03	3.237528E-15	1.183334E-16
6.720000E+03	3.201264E-15	1.173802E-16
6.730000E+03	3.165058E-15	1.164107E-16
6.740000E+03	3.129082E-15	1.154309E-16
6.750000E+03	3.093500E-15	1.144461E-16
6.760000E+03	3.058470E-15	1.134608E-16
6.770000E+03	3.024140E-15	1.124791E-16
6.780000E+03	2.990705E-15	1.115064E-16
6.790000E+03	2.958175E-15	1.105410E-16
6.800000E+03	2.926720E-15	1.095874E-16
6.810000E+03	2.896385E-15	1.086452E-16
6.820000E+03	2.867376E-15	1.077204E-16
6.830000E+03	2.839652E-15	1.068099E-16
6.840000E+03	2.813337E-15	1.059175E-16
6.850000E+03	2.788427E-15	1.050424E-16
6.860000E+03	2.765021E-15	1.041885E-16
6.870000E+03	2.743093E-15	1.033554E-16
6.880000E+03	2.722723E-15	1.025472E-16
6.890000E+03	2.703864E-15	1.017640E-16
6.900000E+03	2.686577E-15	1.010100E-16
6.910000E+03	2.670744E-15	1.002832E-16
6.920000E+03	2.656462E-15	9.958993E-17
6.930000E+03	2.643654E-15	9.892976E-17
6.940000E+03	2.632292E-15	9.830419E-17
6.950000E+03	2.622393E-15	9.771630E-17
6.960000E+03	2.613805E-15	9.716247E-17
6.970000E+03	2.606533E-15	9.664473E-17
6.980000E+03	2.600523E-15	9.616249E-17
6.990000E+03	2.595659E-15	9.571245E-17
7.000000E+03	2.591987E-15	9.529699E-17
7.010000E+03	2.589326E-15	9.490967E-17
7.020000E+03	2.587604E-15	9.454770E-17
7.030000E+03	2.586803E-15	9.420997E-17
7.040000E+03	2.586848E-15	9.389295E-17
7.050000E+03	2.587604E-15	9.359081E-17
7.060000E+03	2.589054E-15	9.330167E-17
7.070000E+03	2.591065E-15	9.301939E-17
7.080000E+03	2.593566E-15	9.273984E-17
7.090000E+03	2.596488E-15	9.245885E-17
7.100000E+03	2.599765E-15	9.217221E-17
7.110000E+03	2.603395E-15	9.187772E-17
7.120000E+03	2.607265E-15	9.156900E-17
7.130000E+03	2.611263E-15	9.123951E-17
7.140000E+03	2.615461E-15	9.088873E-17
7.150000E+03	2.619701E-15	9.050765E-17
7.160000E+03	2.624005E-15	9.009318E-17
7.170000E+03	2.628339E-15	8.963989E-17
7.180000E+03	2.632676E-15	8.914212E-17
7.190000E+03	2.636928E-15	8.859194E-17
7.200000E+03	2.641132E-15	8.798544E-17
7.210000E+03	2.645266E-15	8.731663E-17
7.220000E+03	2.649248E-15	8.657759E-17
7.230000E+03	2.653120E-15	8.576453E-17
7.240000E+03	2.656737E-15	8.486776E-17
7.250000E+03	2.660269E-15	8.388765E-17
7.260000E+03	2.663570E-15	8.281452E-17
7.270000E+03	2.666625E-15	8.164251E-17
7.280000E+03	2.669415E-15	8.036545E-17
7.290000E+03	2.671925E-15	7.897668E-17
7.300000E+03	2.674207E-15	7.747082E-17
7.310000E+03	2.676188E-15	7.583802E-17
7.320000E+03	2.677798E-15	7.406786E-17
7.330000E+03	2.679170E-15	7.215464E-17
7.340000E+03	2.680244E-15	7.008655E-17
7.350000E+03	2.681039E-15	6.785312E-17
7.360000E+03	2.681577E-15	6.544346E-17
7.370000E+03	2.681893E-15	6.284656E-17
7.380000E+03	2.681965E-15	6.004999E-17
7.390000E+03	2.681982E-15	5.704639E-17
7.400000E+03	2.681942E-15	5.382474E-17
7.410000E+03	2.681855E-15	5.037603E-17
7.420000E+03	2.681941E-15	4.669789E-17
7.430000E+03	2.682229E-15	4.278842E-17
7.440000E+03	2.682752E-15	3.865333E-17
7.450000E+03	2.683751E-15	3.431370E-17
7.460000E+03	2.685333E-15	2.981051E-17
7.470000E+03	2.687457E-15	2.522686E-17
7.480000E+03	2.690411E-15	2.074163E-17
7.490000E+03	2.694027E-15	1.673633E-17
7.500000E+03	2.698417E-15	1.401243E-17
7.510000E+03	2.703336E-15	1.371297E-17
7.520000E+03	2.709007E-15	1.606546E-17
7.530000E+03	2.715393E-15	2.003825E-17
7.540000E+03	2.722758E-15	2.471933E-17
7.550000E+03	2.731060E-15	2.964439E-17
7.560000E+03	2.740268E-15	3.459602E-17
7.570000E+03	2.750307E-15	3.946715E-17
7.580000E+03	2.761144E-15	4.420281E-17
7.590000E+03	2.772575E-15	4.877142E-17
7.600000E+03	2.784452E-15	5.315621E-17
7.610000E+03	2.796686E-15	5.735018E-17
7.620000E+03	2.809031E-15	6.134858E-17
7.630000E+03	2.821312E-15	6.515143E-17
7.640000E+03	2.833355E-15	6.876110E-17
7.650000E+03	2.845071E-15	7.218357E-17
7.660000E+03	2.856226E-15	7.542215E-17
7.670000E+03	2.866756E-15	7.848481E-17
7.680000E+03	2.876377E-15	8.137352E-17
7.690000E+03	2.885140E-15	8.409918E-17
7.700000E+03	2.892960E-15	8.666860E-17
7.710000E+03	2.899607E-15	8.908363E-17
7.720000E+03	2.905195E-15	9.135587E-17
7.730000E+03	2.909694E-15	9.349225E-17
7.740000E+03	2.912927E-15	9.549428E-17
7.750000E+03	2.915059E-15	9.737413E-17
7.760000E+03	2.916022E-15	9.913592E-17
