#wls	flux	fluxerr
1.600000E+03	2.637998E-17	9.228430E-18
1.640000E+03	2.747478E-17	9.249970E-18
1.680000E+03	2.862911E-17	9.267496E-18
1.720000E+03	2.984568E-17	9.281816E-18
1.760000E+03	3.113623E-17	9.296782E-18
1.800000E+03	3.249477E-17	9.311179E-18
1.840000E+03	3.393330E-17	9.329653E-18
1.880000E+03	3.545483E-17	9.354629E-18
1.920000E+03	3.705206E-17	9.386515E-18
1.960000E+03	3.872663E-17	9.428894E-18
2.000000E+03	4.050113E-17	9.490776E-18
2.040000E+03	4.235619E-17	9.571299E-18
2.080000E+03	4.430342E-17	9.677097E-18
2.120000E+03	4.634356E-17	9.811597E-18
2.160000E+03	4.847686E-17	9.976524E-18
2.200000E+03	5.070292E-17	1.017229E-17
2.240000E+03	5.302048E-17	1.039832E-17
2.280000E+03	5.544022E-17	1.065577E-17
2.320000E+03	5.794636E-17	1.094040E-17
2.360000E+03	6.053405E-17	1.125023E-17
2.400000E+03	6.321094E-17	1.158593E-17
2.440000E+03	6.597013E-17	1.194590E-17
2.480000E+03	6.878845E-17	1.232625E-17
2.520000E+03	7.168495E-17	1.273121E-17
2.560000E+03	7.463397E-17	1.315713E-17
2.600000E+03	7.762320E-17	1.360246E-17
2.640000E+03	8.063986E-17	1.406426E-17
2.680000E+03	8.368783E-17	1.453898E-17
2.720000E+03	8.675628E-17	1.501703E-17
2.760000E+03	8.983477E-17	1.548679E-17
2.800000E+03	9.291317E-17	1.593532E-17
2.840000E+03	9.599869E-17	1.635198E-17
2.880000E+03	9.906512E-17	1.672041E-17
2.920000E+03	1.021378E-16	1.703361E-17
2.960000E+03	1.051735E-16	1.727424E-17
3.000000E+03	1.082161E-16	1.744122E-17
3.010000E+03	1.089621E-16	1.746815E-17
3.020000E+03	1.097177E-16	1.749151E-17
3.030000E+03	1.104654E-16	1.750840E-17
3.040000E+03	1.112224E-16	1.752156E-17
3.050000E+03	1.119713E-16	1.752816E-17
3.060000E+03	1.127117E-16	1.752819E-17
3.070000E+03	1.134613E-16	1.752437E-17
3.080000E+03	1.142022E-16	1.751397E-17
3.090000E+03	1.149520E-16	1.749971E-17
3.100000E+03	1.156930E-16	1.747894E-17
3.110000E+03	1.164249E-16	1.745174E-17
3.120000E+03	1.171654E-16	1.742082E-17
3.130000E+03	1.178967E-16	1.738366E-17
3.140000E+03	1.186363E-16	1.734297E-17
3.150000E+03	1.193665E-16	1.729630E-17
3.160000E+03	1.200872E-16	1.724385E-17
3.170000E+03	1.208159E-16	1.718835E-17
3.180000E+03	1.215525E-16	1.712998E-17
3.190000E+03	1.222793E-16	1.706648E-17
3.200000E+03	1.229961E-16	1.699816E-17
3.210000E+03	1.237206E-16	1.692775E-17
3.220000E+03	1.244350E-16	1.685317E-17
3.230000E+03	1.251569E-16	1.677717E-17
3.240000E+03	1.258684E-16	1.669776E-17
3.250000E+03	1.265873E-16	1.661772E-17
3.260000E+03	1.273133E-16	1.653744E-17
3.270000E+03	1.280113E-16	1.645288E-17
3.280000E+03	1.287339E-16	1.637135E-17
3.290000E+03	1.294283E-16	1.628667E-17
3.300000E+03	1.301472E-16	1.620607E-17
3.310000E+03	1.308554E-16	1.612573E-17
3.320000E+03	1.315529E-16	1.604633E-17
3.330000E+03	1.322572E-16	1.597067E-17
3.340000E+03	1.329681E-16	1.589939E-17
3.350000E+03	1.336682E-16	1.583109E-17
3.360000E+03	1.343575E-16	1.576653E-17
3.370000E+03	1.350534E-16	1.570845E-17
3.380000E+03	1.357559E-16	1.565756E-17
3.390000E+03	1.364475E-16	1.561256E-17
3.400000E+03	1.371456E-16	1.557612E-17
3.410000E+03	1.378502E-16	1.554889E-17
3.420000E+03	1.385439E-16	1.552958E-17
3.430000E+03	1.392270E-16	1.551881E-17
3.440000E+03	1.399335E-16	1.552091E-17
3.450000E+03	1.406293E-16	1.553257E-17
3.460000E+03	1.413144E-16	1.555421E-17
3.470000E+03	1.420059E-16	1.558805E-17
3.480000E+03	1.427036E-16	1.563427E-17
3.490000E+03	1.433905E-16	1.569096E-17
3.500000E+03	1.440833E-16	1.575974E-17
3.510000E+03	1.447818E-16	1.584028E-17
3.520000E+03	1.454690E-16	1.593036E-17
3.530000E+03	1.461614E-16	1.603134E-17
3.540000E+03	1.468589E-16	1.614266E-17
3.550000E+03	1.475445E-16	1.626187E-17
3.560000E+03	1.482346E-16	1.639015E-17
3.570000E+03	1.489291E-16	1.652679E-17
3.580000E+03	1.496111E-16	1.666921E-17
3.590000E+03	1.502970E-16	1.681846E-17
3.600000E+03	1.509865E-16	1.697375E-17
3.610000E+03	1.516793E-16	1.713428E-17
3.620000E+03	1.523589E-16	1.729738E-17
3.630000E+03	1.530414E-16	1.746409E-17
3.640000E+03	1.537103E-16	1.763173E-17
3.650000E+03	1.543817E-16	1.780136E-17
3.660000E+03	1.550553E-16	1.797218E-17
3.670000E+03	1.557308E-16	1.814341E-17
3.680000E+03	1.564081E-16	1.831430E-17
3.690000E+03	1.570707E-16	1.848223E-17
3.700000E+03	1.577346E-16	1.864835E-17
3.710000E+03	1.583995E-16	1.881195E-17
3.720000E+03	1.590494E-16	1.897049E-17
3.730000E+03	1.596998E-16	1.912518E-17
3.740000E+03	1.603505E-16	1.927541E-17
3.750000E+03	1.610012E-16	1.942057E-17
3.760000E+03	1.616517E-16	1.956008E-17
3.770000E+03	1.622863E-16	1.969150E-17
3.780000E+03	1.629202E-16	1.981619E-17
3.790000E+03	1.635531E-16	1.993365E-17
3.800000E+03	1.641849E-16	2.004340E-17
3.810000E+03	1.648000E-16	2.014312E-17
3.820000E+03	1.654135E-16	2.023426E-17
3.830000E+03	1.660251E-16	2.031641E-17
3.840000E+03	1.666345E-16	2.038919E-17
3.850000E+03	1.672416E-16	2.045225E-17
3.860000E+03	1.678310E-16	2.050343E-17
3.870000E+03	1.684176E-16	2.054428E-17
3.880000E+03	1.690010E-16	2.057451E-17
3.890000E+03	1.695810E-16	2.059386E-17
3.900000E+03	1.701574E-16	2.060210E-17
3.910000E+03	1.707152E-16	2.059727E-17
3.920000E+03	1.712834E-16	2.058271E-17
3.930000E+03	1.718326E-16	2.055478E-17
3.940000E+03	1.723771E-16	2.051509E-17
3.950000E+03	1.729024E-16	2.046184E-17
3.960000E+03	1.734368E-16	2.039838E-17
3.970000E+03	1.739514E-16	2.032127E-17
3.980000E+03	1.744605E-16	2.023220E-17
3.990000E+03	1.749635E-16	2.013116E-17
4.000000E+03	1.754603E-16	2.001819E-17
4.010000E+03	1.759507E-16	1.989336E-17
4.020000E+03	1.764203E-16	1.975520E-17
4.030000E+03	1.768968E-16	1.960696E-17
4.040000E+03	1.773523E-16	1.944572E-17
4.050000E+03	1.777866E-16	1.927174E-17
4.060000E+03	1.782269E-16	1.908822E-17
4.070000E+03	1.786591E-16	1.889392E-17
4.080000E+03	1.790696E-16	1.868771E-17
4.090000E+03	1.794717E-16	1.847139E-17
4.100000E+03	1.798652E-16	1.824531E-17
4.110000E+03	1.802497E-16	1.800988E-17
4.120000E+03	1.806118E-16	1.776424E-17
4.130000E+03	1.809647E-16	1.751023E-17
4.140000E+03	1.813081E-16	1.724837E-17
4.150000E+03	1.816417E-16	1.697921E-17
4.160000E+03	1.819653E-16	1.670337E-17
4.170000E+03	1.822659E-16	1.642036E-17
4.180000E+03	1.825563E-16	1.613208E-17
4.190000E+03	1.828362E-16	1.583926E-17
4.200000E+03	1.831054E-16	1.554269E-17
4.210000E+03	1.833513E-16	1.524217E-17
4.220000E+03	1.835864E-16	1.493967E-17
4.230000E+03	1.838105E-16	1.463609E-17
4.240000E+03	1.840234E-16	1.433239E-17
4.250000E+03	1.842129E-16	1.402863E-17
4.260000E+03	1.843912E-16	1.372680E-17
4.270000E+03	1.845582E-16	1.342794E-17
4.280000E+03	1.847020E-16	1.313225E-17
4.290000E+03	1.848463E-16	1.284248E-17
4.300000E+03	1.849676E-16	1.255802E-17
4.310000E+03	1.850660E-16	1.227994E-17
4.320000E+03	1.851535E-16	1.201001E-17
4.330000E+03	1.852300E-16	1.174912E-17
4.340000E+03	1.852958E-16	1.149805E-17
4.350000E+03	1.853398E-16	1.125681E-17
4.360000E+03	1.853735E-16	1.102664E-17
4.370000E+03	1.853862E-16	1.080726E-17
4.380000E+03	1.853895E-16	1.059953E-17
4.390000E+03	1.853837E-16	1.040339E-17
4.400000E+03	1.853585E-16	1.021751E-17
4.410000E+03	1.853256E-16	1.004110E-17
4.420000E+03	1.852750E-16	9.872000E-18
4.430000E+03	1.852184E-16	9.709052E-18
4.440000E+03	1.851564E-16	9.550420E-18
4.450000E+03	1.850795E-16	9.393675E-18
4.460000E+03	1.849889E-16	9.236938E-18
4.470000E+03	1.848958E-16	9.078850E-18
4.480000E+03	1.848013E-16	8.917567E-18
4.490000E+03	1.846962E-16	8.750850E-18
4.500000E+03	1.845816E-16	8.577087E-18
4.510000E+03	1.844687E-16	8.395255E-18
4.520000E+03	1.843584E-16	8.203989E-18
4.530000E+03	1.842322E-16	8.001245E-18
4.540000E+03	1.841205E-16	7.787331E-18
4.550000E+03	1.839952E-16	7.560210E-18
4.560000E+03	1.838768E-16	7.320146E-18
4.570000E+03	1.837662E-16	7.066798E-18
4.580000E+03	1.836549E-16	6.799749E-18
4.590000E+03	1.835441E-16	6.519294E-18
4.600000E+03	1.834347E-16	6.226101E-18
4.610000E+03	1.833372E-16	5.921590E-18
4.620000E+03	1.832431E-16	5.607115E-18
4.630000E+03	1.831535E-16	5.285084E-18
4.640000E+03	1.830784E-16	4.959102E-18
4.650000E+03	1.830096E-16	4.633514E-18
4.660000E+03	1.829481E-16	4.314635E-18
4.670000E+03	1.829035E-16	4.011203E-18
4.680000E+03	1.828590E-16	3.734170E-18
4.690000E+03	1.828331E-16	3.498466E-18
4.700000E+03	1.828179E-16	3.321304E-18
4.710000E+03	1.828141E-16	3.221067E-18
4.720000E+03	1.828225E-16	3.213285E-18
4.730000E+03	1.828526E-16	3.303846E-18
4.740000E+03	1.828882E-16	3.484322E-18
4.750000E+03	1.829473E-16	3.740415E-18
4.760000E+03	1.830140E-16	4.055549E-18
4.770000E+03	1.831059E-16	4.415201E-18
4.780000E+03	1.832156E-16	4.806907E-18
4.790000E+03	1.833441E-16	5.221038E-18
4.800000E+03	1.834922E-16	5.650223E-18
4.810000E+03	1.836607E-16	6.088850E-18
4.820000E+03	1.838506E-16	6.532620E-18
4.830000E+03	1.840547E-16	6.977904E-18
4.840000E+03	1.842898E-16	7.422676E-18
4.850000E+03	1.845486E-16	7.864567E-18
4.860000E+03	1.848240E-16	8.301532E-18
4.870000E+03	1.851326E-16	8.732870E-18
4.880000E+03	1.854594E-16	9.156693E-18
4.890000E+03	1.858208E-16	9.572767E-18
4.900000E+03	1.862018E-16	9.979451E-18
4.910000E+03	1.866110E-16	1.037639E-17
4.920000E+03	1.870489E-16	1.076291E-17
4.930000E+03	1.875087E-16	1.113798E-17
4.940000E+03	1.880064E-16	1.150195E-17
4.950000E+03	1.885272E-16	1.185340E-17
4.960000E+03	1.890795E-16	1.219234E-17
4.970000E+03	1.896640E-16	1.251832E-17
4.980000E+03	1.902737E-16	1.283044E-17
4.990000E+03	1.909169E-16	1.312880E-17
5.000000E+03	1.915942E-16	1.341302E-17
5.010000E+03	1.923064E-16	1.368275E-17
5.020000E+03	1.930464E-16	1.393708E-17
5.030000E+03	1.938227E-16	1.417620E-17
5.040000E+03	1.946282E-16	1.439922E-17
5.050000E+03	1.954713E-16	1.460634E-17
5.060000E+03	1.963526E-16	1.479723E-17
5.070000E+03	1.972653E-16	1.497099E-17
5.080000E+03	1.982177E-16	1.512786E-17
5.090000E+03	1.992105E-16	1.526748E-17
5.100000E+03	2.002369E-16	1.538897E-17
5.110000E+03	2.012977E-16	1.549198E-17
5.120000E+03	2.024087E-16	1.557732E-17
5.130000E+03	2.035481E-16	1.564293E-17
5.140000E+03	2.047317E-16	1.568963E-17
5.150000E+03	2.059603E-16	1.571709E-17
5.160000E+03	2.072273E-16	1.572438E-17
5.170000E+03	2.085334E-16	1.571119E-17
5.180000E+03	2.098871E-16	1.567775E-17
5.190000E+03	2.112891E-16	1.562374E-17
5.200000E+03	2.127254E-16	1.554772E-17
5.210000E+03	2.142193E-16	1.545107E-17
5.220000E+03	2.157492E-16	1.533182E-17
5.230000E+03	2.173311E-16	1.519081E-17
5.240000E+03	2.189583E-16	1.502726E-17
5.250000E+03	2.206394E-16	1.484146E-17
5.260000E+03	2.223677E-16	1.463271E-17
5.270000E+03	2.241442E-16	1.440090E-17
5.280000E+03	2.259774E-16	1.414644E-17
5.290000E+03	2.278608E-16	1.386885E-17
5.300000E+03	2.297951E-16	1.356823E-17
5.310000E+03	2.317894E-16	1.324526E-17
5.320000E+03	2.338367E-16	1.289986E-17
5.330000E+03	2.359380E-16	1.253259E-17
5.340000E+03	2.380943E-16	1.214426E-17
5.350000E+03	2.403065E-16	1.173601E-17
5.360000E+03	2.425838E-16	1.130973E-17
5.370000E+03	2.449190E-16	1.086704E-17
5.380000E+03	2.473132E-16	1.041061E-17
5.390000E+03	2.497756E-16	9.944306E-18
5.400000E+03	2.522907E-16	9.472084E-18
5.410000E+03	2.548759E-16	9.000631E-18
5.420000E+03	2.575240E-16	8.537488E-18
5.430000E+03	2.602359E-16	8.092803E-18
5.440000E+03	2.630124E-16	7.679473E-18
5.450000E+03	2.658545E-16	7.313469E-18
5.460000E+03	2.687630E-16	7.013756E-18
5.470000E+03	2.717475E-16	6.801611E-18
5.480000E+03	2.748002E-16	6.697881E-18
5.490000E+03	2.779131E-16	6.720260E-18
5.500000E+03	2.811046E-16	6.878819E-18
5.510000E+03	2.843668E-16	7.169756E-18
5.520000E+03	2.877005E-16	7.581502E-18
5.530000E+03	2.910974E-16	8.098149E-18
5.540000E+03	2.945764E-16	8.703407E-18
5.550000E+03	2.981293E-16	9.381162E-18
5.560000E+03	3.017567E-16	1.011744E-17
5.570000E+03	3.054593E-16	1.090041E-17
5.580000E+03	3.092377E-16	1.172028E-17
5.590000E+03	3.130924E-16	1.256896E-17
5.600000E+03	3.170238E-16	1.343975E-17
5.610000E+03	3.210324E-16	1.432705E-17
5.620000E+03	3.251186E-16	1.522610E-17
5.630000E+03	3.292825E-16	1.613280E-17
5.640000E+03	3.335244E-16	1.704355E-17
5.650000E+03	3.378443E-16	1.795511E-17
5.660000E+03	3.422422E-16	1.886454E-17
5.670000E+03	3.467076E-16	1.976852E-17
5.680000E+03	3.512612E-16	2.066564E-17
5.690000E+03	3.558815E-16	2.155221E-17
5.700000E+03	3.605893E-16	2.242714E-17
5.710000E+03	3.653628E-16	2.328677E-17
5.720000E+03	3.702120E-16	2.412947E-17
5.730000E+03	3.751359E-16	2.495297E-17
5.740000E+03	3.801338E-16	2.575498E-17
5.750000E+03	3.852046E-16	2.653324E-17
5.760000E+03	3.903470E-16	2.728546E-17
5.770000E+03	3.955482E-16	2.800850E-17
5.780000E+03	4.008297E-16	2.870166E-17
5.790000E+03	4.061665E-16	2.936092E-17
5.800000E+03	4.115685E-16	2.998471E-17
5.810000E+03	4.170336E-16	3.057064E-17
5.820000E+03	4.225596E-16	3.111626E-17
5.830000E+03	4.281318E-16	3.161819E-17
5.840000E+03	4.337723E-16	3.207578E-17
5.850000E+03	4.394534E-16	3.248469E-17
5.860000E+03	4.451846E-16	3.284333E-17
5.870000E+03	4.509629E-16	3.314918E-17
5.880000E+03	4.567847E-16	3.339974E-17
5.890000E+03	4.626334E-16	3.359154E-17
5.900000E+03	4.685181E-16	3.372306E-17
5.910000E+03	4.744349E-16	3.379185E-17
5.920000E+03	4.803795E-16	3.379552E-17
5.930000E+03	4.863476E-16	3.373171E-17
5.940000E+03	4.923205E-16	3.359719E-17
5.950000E+03	4.983071E-16	3.339076E-17
5.960000E+03	5.043024E-16	3.311036E-17
5.970000E+03	5.103010E-16	3.275405E-17
5.980000E+03	5.162830E-16	3.231917E-17
5.990000E+03	5.222568E-16	3.180511E-17
6.000000E+03	5.282167E-16	3.121057E-17
6.010000E+03	5.341567E-16	3.053455E-17
6.020000E+03	5.400553E-16	2.977555E-17
6.030000E+03	5.459364E-16	2.893508E-17
6.040000E+03	5.517629E-16	2.801183E-17
6.050000E+03	5.575279E-16	2.700690E-17
6.060000E+03	5.632558E-16	2.592374E-17
6.070000E+03	5.689083E-16	2.476388E-17
6.080000E+03	5.744943E-16	2.353256E-17
6.090000E+03	5.800071E-16	2.223626E-17
6.100000E+03	5.854236E-16	2.088358E-17
6.110000E+03	5.907533E-16	1.948817E-17
6.120000E+03	5.959896E-16	1.806850E-17
6.130000E+03	6.011263E-16	1.665087E-17
6.140000E+03	6.061575E-16	1.527305E-17
6.150000E+03	6.110606E-16	1.398851E-17
6.160000E+03	6.158471E-16	1.287282E-17
6.170000E+03	6.205122E-16	1.202421E-17
6.180000E+03	6.250345E-16	1.155471E-17
6.190000E+03	6.294273E-16	1.156333E-17
6.200000E+03	6.337035E-16	1.208833E-17
6.210000E+03	6.378037E-16	1.308621E-17
6.220000E+03	6.417737E-16	1.447370E-17
6.230000E+03	6.455724E-16	1.615934E-17
6.240000E+03	6.492296E-16	1.806649E-17
6.250000E+03	6.526869E-16	2.013410E-17
6.260000E+03	6.559935E-16	2.231972E-17
6.270000E+03	6.591275E-16	2.459064E-17
6.280000E+03	6.620674E-16	2.692217E-17
6.290000E+03	6.648281E-16	2.929670E-17
6.300000E+03	6.674071E-16	3.169995E-17
6.310000E+03	6.698022E-16	3.412047E-17
6.320000E+03	6.719931E-16	3.654777E-17
6.330000E+03	6.740150E-16	3.897578E-17
6.340000E+03	6.758300E-16	4.139547E-17
6.350000E+03	6.774554E-16	4.380174E-17
6.360000E+03	6.788908E-16	4.618910E-17
6.370000E+03	6.801172E-16	4.855126E-17
6.380000E+03	6.811716E-16	5.088629E-17
6.390000E+03	6.820170E-16	5.318726E-17
6.400000E+03	6.826912E-16	5.545315E-17
6.410000E+03	6.831574E-16	5.767736E-17
6.420000E+03	6.834351E-16	5.985798E-17
6.430000E+03	6.835253E-16	6.199183E-17
6.440000E+03	6.834294E-16	6.407597E-17
6.450000E+03	6.831300E-16	6.610581E-17
6.460000E+03	6.826662E-16	6.808233E-17
6.470000E+03	6.820211E-16	7.000134E-17
6.480000E+03	6.811780E-16	7.185862E-17
6.490000E+03	6.801577E-16	7.365396E-17
6.500000E+03	6.789811E-16	7.538748E-17
6.510000E+03	6.776135E-16	7.705331E-17
6.520000E+03	6.760760E-16	7.865186E-17
6.530000E+03	6.743899E-16	8.018383E-17
6.540000E+03	6.725209E-16	8.164355E-17
6.550000E+03	6.704907E-16	8.303196E-17
6.560000E+03	6.683022E-16	8.434804E-17
6.570000E+03	6.659588E-16	8.559087E-17
6.580000E+03	6.634820E-16	8.676206E-17
6.590000E+03	6.608387E-16	8.785625E-17
6.600000E+03	6.580506E-16	8.887527E-17
6.610000E+03	6.551214E-16	8.981876E-17
6.620000E+03	6.520728E-16	9.068898E-17
6.630000E+03	6.488725E-16	9.148081E-17
6.640000E+03	6.455602E-16	9.219928E-17
6.650000E+03	6.421041E-16	9.283944E-17
6.660000E+03	6.385437E-16	9.340663E-17
6.670000E+03	6.348652E-16	9.389863E-17
6.680000E+03	6.310727E-16	9.431590E-17
6.690000E+03	6.271703E-16	9.465898E-17
6.700000E+03	6.231620E-16	9.492852E-17
6.710000E+03	6.190521E-16	9.512527E-17
6.720000E+03	6.148618E-16	9.525271E-17
6.730000E+03	6.105611E-16	9.530647E-17
6.740000E+03	6.061881E-16	9.529287E-17
6.750000E+03	6.017301E-16	9.521033E-17
6.760000E+03	5.971912E-16	9.506001E-17
6.770000E+03	5.925921E-16	9.484580E-17
6.780000E+03	5.879039E-16	9.456367E-17
6.790000E+03	5.831637E-16	9.422029E-17
6.800000E+03	5.783590E-16	9.381439E-17
6.810000E+03	5.734939E-16	9.334746E-17
6.820000E+03	5.685885E-16	9.282360E-17
6.830000E+03	5.636147E-16	9.223913E-17
6.840000E+03	5.586241E-16	9.160343E-17
6.850000E+03	5.535730E-16	9.091034E-17
6.860000E+03	5.484812E-16	9.016411E-17
6.870000E+03	5.433678E-16	8.936893E-17
6.880000E+03	5.382361E-16	8.852646E-17
6.890000E+03	5.330593E-16	8.763338E-17
6.900000E+03	5.278712E-16	8.669640E-17
6.910000E+03	5.226603E-16	8.571478E-17
6.920000E+03	5.174447E-16	8.469265E-17
6.930000E+03	5.122127E-16	8.362931E-17
6.940000E+03	5.069678E-16	8.252652E-17
6.950000E+03	5.017273E-16	8.138834E-17
6.960000E+03	4.964799E-16	8.021414E-17
6.970000E+03	4.912286E-16	7.900564E-17
6.980000E+03	4.859903E-16	7.776681E-17
6.990000E+03	4.807536E-16	7.649705E-17
7.000000E+03	4.755351E-16	7.520022E-17
7.010000E+03	4.703234E-16	7.387576E-17
7.020000E+03	4.651212E-16	7.252532E-17
7.030000E+03	4.599441E-16	7.115258E-17
7.040000E+03	4.547944E-16	6.975905E-17
7.050000E+03	4.496608E-16	6.834421E-17
7.060000E+03	4.445456E-16	6.690961E-17
7.070000E+03	4.394637E-16	6.545868E-17
7.080000E+03	4.344041E-16	6.399094E-17
7.090000E+03	4.293813E-16	6.250966E-17
7.100000E+03	4.243845E-16	6.101440E-17
7.110000E+03	4.194276E-16	5.950829E-17
7.120000E+03	4.144998E-16	5.799088E-17
7.130000E+03	4.096148E-16	5.646518E-17
7.140000E+03	4.047619E-16	5.493075E-17
7.150000E+03	3.999542E-16	5.339044E-17
7.160000E+03	3.951929E-16	5.184538E-17
7.170000E+03	3.904672E-16	5.029516E-17
7.180000E+03	3.857786E-16	4.874099E-17
7.190000E+03	3.811393E-16	4.718541E-17
7.200000E+03	3.765502E-16	4.562943E-17
7.210000E+03	3.720008E-16	4.407272E-17
7.220000E+03	3.675031E-16	4.251763E-17
7.230000E+03	3.630467E-16	4.096386E-17
7.240000E+03	3.586433E-16	3.941365E-17
7.250000E+03	3.542932E-16	3.786789E-17
7.260000E+03	3.499864E-16	3.632637E-17
7.270000E+03	3.457338E-16	3.479117E-17
7.280000E+03	3.415256E-16	3.326216E-17
7.290000E+03	3.373723E-16	3.174132E-17
7.300000E+03	3.332743E-16	3.022956E-17
7.310000E+03	3.292217E-16	2.872696E-17
7.320000E+03	3.252247E-16	2.723545E-17
7.330000E+03	3.212834E-16	2.575609E-17
7.340000E+03	3.173882E-16	2.428927E-17
7.350000E+03	3.135489E-16	2.283709E-17
7.360000E+03	3.097655E-16	2.140099E-17
7.370000E+03	3.060285E-16	1.998201E-17
7.380000E+03	3.023474E-16	1.858283E-17
7.390000E+03	2.987127E-16	1.720534E-17
7.400000E+03	2.951428E-16	1.585365E-17
7.410000E+03	2.916191E-16	1.453062E-17
7.420000E+03	2.881416E-16	1.324144E-17
7.430000E+03	2.847279E-16	1.199379E-17
7.440000E+03	2.813598E-16	1.079629E-17
7.450000E+03	2.780372E-16	9.662171E-18
7.460000E+03	2.747770E-16	8.610685E-18
7.470000E+03	2.715613E-16	7.667539E-18
7.480000E+03	2.683983E-16	6.869051E-18
7.490000E+03	2.652788E-16	6.260543E-18
7.500000E+03	2.622106E-16	5.890369E-18
7.510000E+03	2.591929E-16	5.792637E-18
7.520000E+03	2.562249E-16	5.965936E-18
7.530000E+03	2.533060E-16	6.370472E-18
7.540000E+03	2.504276E-16	6.949671E-18
7.550000E+03	2.475970E-16	7.649888E-18
7.560000E+03	2.448056E-16	8.428270E-18
7.570000E+03	2.420683E-16	9.254626E-18
7.580000E+03	2.393687E-16	1.010710E-17
7.590000E+03	2.367136E-16	1.097138E-17
7.600000E+03	2.341022E-16	1.183744E-17
7.610000E+03	2.315261E-16	1.269793E-17
7.620000E+03	2.289920E-16	1.354837E-17
7.630000E+03	2.264989E-16	1.438534E-17
7.640000E+03	2.240459E-16	1.520646E-17
7.650000E+03	2.216250E-16	1.600953E-17
7.660000E+03	2.192497E-16	1.679441E-17
7.670000E+03	2.169049E-16	1.755923E-17
7.680000E+03	2.145969E-16	1.830402E-17
7.690000E+03	2.123179E-16	1.902785E-17
7.700000E+03	2.100812E-16	1.973182E-17
7.710000E+03	2.078720E-16	2.041465E-17
7.720000E+03	2.056966E-16	2.107702E-17
7.730000E+03	2.035544E-16	2.171911E-17
7.740000E+03	2.014378E-16	2.234037E-17
7.750000E+03	1.993530E-16	2.294176E-17
7.760000E+03	1.973060E-16	2.352435E-17
