#wls	flux	fluxerr
1.600000E+03	2.429046E-17	9.252248E-18
1.640000E+03	2.528957E-17	9.308346E-18
1.680000E+03	2.634111E-17	9.361578E-18
1.720000E+03	2.744707E-17	9.412461E-18
1.760000E+03	2.860939E-17	9.461788E-18
1.800000E+03	2.982991E-17	9.510670E-18
1.840000E+03	3.111033E-17	9.560586E-18
1.880000E+03	3.246212E-17	9.616348E-18
1.920000E+03	3.386707E-17	9.674332E-18
1.960000E+03	3.533594E-17	9.740178E-18
2.000000E+03	3.688038E-17	9.819770E-18
2.040000E+03	3.849070E-17	9.913384E-18
2.080000E+03	4.016699E-17	1.002414E-17
2.120000E+03	4.192064E-17	1.015744E-17
2.160000E+03	4.373940E-17	1.031181E-17
2.200000E+03	4.562146E-17	1.048762E-17
2.240000E+03	4.757717E-17	1.068737E-17
2.280000E+03	4.959119E-17	1.090724E-17
2.320000E+03	5.167312E-17	1.114882E-17
2.360000E+03	5.381933E-17	1.141060E-17
2.400000E+03	5.601123E-17	1.168804E-17
2.440000E+03	5.825720E-17	1.198252E-17
2.480000E+03	6.055140E-17	1.229258E-17
2.520000E+03	6.288735E-17	1.261677E-17
2.560000E+03	6.524253E-17	1.295046E-17
2.600000E+03	6.764016E-17	1.329777E-17
2.640000E+03	7.005740E-17	1.365247E-17
2.680000E+03	7.247017E-17	1.400610E-17
2.720000E+03	7.492002E-17	1.436062E-17
2.760000E+03	7.735045E-17	1.469765E-17
2.800000E+03	7.978778E-17	1.501398E-17
2.840000E+03	8.220847E-17	1.529659E-17
2.880000E+03	8.462351E-17	1.553915E-17
2.920000E+03	8.700968E-17	1.572968E-17
2.960000E+03	8.937920E-17	1.586379E-17
3.000000E+03	9.172744E-17	1.593551E-17
3.010000E+03	9.230676E-17	1.594251E-17
3.020000E+03	9.289905E-17	1.594783E-17
3.030000E+03	9.346827E-17	1.594527E-17
3.040000E+03	9.405037E-17	1.594098E-17
3.050000E+03	9.462730E-17	1.593187E-17
3.060000E+03	9.519900E-17	1.591797E-17
3.070000E+03	9.578352E-17	1.590231E-17
3.080000E+03	9.634461E-17	1.587891E-17
3.090000E+03	9.691846E-17	1.585381E-17
3.100000E+03	9.748692E-17	1.582410E-17
3.110000E+03	9.804995E-17	1.578984E-17
3.120000E+03	9.860751E-17	1.575116E-17
3.130000E+03	9.917779E-17	1.571105E-17
3.140000E+03	9.972435E-17	1.566386E-17
3.150000E+03	1.002836E-16	1.561550E-17
3.160000E+03	1.008373E-16	1.556326E-17
3.170000E+03	1.014037E-16	1.551011E-17
3.180000E+03	1.019464E-16	1.545067E-17
3.190000E+03	1.025017E-16	1.539072E-17
3.200000E+03	1.030515E-16	1.532772E-17
3.210000E+03	1.035957E-16	1.526195E-17
3.220000E+03	1.041345E-16	1.519369E-17
3.230000E+03	1.046860E-16	1.512590E-17
3.240000E+03	1.052137E-16	1.505361E-17
3.250000E+03	1.057543E-16	1.498242E-17
3.260000E+03	1.063077E-16	1.491264E-17
3.270000E+03	1.068375E-16	1.483949E-17
3.280000E+03	1.073802E-16	1.476852E-17
3.290000E+03	1.079176E-16	1.469757E-17
3.300000E+03	1.084497E-16	1.462711E-17
3.310000E+03	1.089766E-16	1.455760E-17
3.320000E+03	1.094984E-16	1.448952E-17
3.330000E+03	1.100333E-16	1.442577E-17
3.340000E+03	1.105633E-16	1.436440E-17
3.350000E+03	1.110882E-16	1.430593E-17
3.360000E+03	1.116266E-16	1.425321E-17
3.370000E+03	1.121419E-16	1.420207E-17
3.380000E+03	1.126706E-16	1.415767E-17
3.390000E+03	1.131947E-16	1.411818E-17
3.400000E+03	1.137325E-16	1.408634E-17
3.410000E+03	1.142475E-16	1.405809E-17
3.420000E+03	1.147762E-16	1.403838E-17
3.430000E+03	1.153006E-16	1.402536E-17
3.440000E+03	1.158388E-16	1.402158E-17
3.450000E+03	1.163545E-16	1.402295E-17
3.460000E+03	1.168842E-16	1.403410E-17
3.470000E+03	1.174097E-16	1.405299E-17
3.480000E+03	1.179310E-16	1.407970E-17
3.490000E+03	1.184662E-16	1.411637E-17
3.500000E+03	1.189971E-16	1.416071E-17
3.510000E+03	1.195237E-16	1.421252E-17
3.520000E+03	1.200458E-16	1.427152E-17
3.530000E+03	1.205635E-16	1.433737E-17
3.540000E+03	1.210945E-16	1.441183E-17
3.550000E+03	1.216209E-16	1.449229E-17
3.560000E+03	1.221424E-16	1.457829E-17
3.570000E+03	1.226769E-16	1.467145E-17
3.580000E+03	1.232063E-16	1.476909E-17
3.590000E+03	1.237305E-16	1.487064E-17
3.600000E+03	1.242493E-16	1.497552E-17
3.610000E+03	1.247627E-16	1.508315E-17
3.620000E+03	1.252883E-16	1.519509E-17
3.630000E+03	1.258082E-16	1.530858E-17
3.640000E+03	1.263222E-16	1.542303E-17
3.650000E+03	1.268480E-16	1.554001E-17
3.660000E+03	1.273676E-16	1.565677E-17
3.670000E+03	1.278809E-16	1.577272E-17
3.680000E+03	1.283877E-16	1.588730E-17
3.690000E+03	1.289057E-16	1.600214E-17
3.700000E+03	1.293993E-16	1.611232E-17
3.710000E+03	1.299038E-16	1.622171E-17
3.720000E+03	1.304189E-16	1.632980E-17
3.730000E+03	1.309093E-16	1.643169E-17
3.740000E+03	1.314101E-16	1.653133E-17
3.750000E+03	1.319035E-16	1.662605E-17
3.760000E+03	1.324070E-16	1.671763E-17
3.770000E+03	1.328853E-16	1.680123E-17
3.780000E+03	1.333735E-16	1.688087E-17
3.790000E+03	1.338538E-16	1.695398E-17
3.800000E+03	1.343435E-16	1.702240E-17
3.810000E+03	1.348078E-16	1.708140E-17
3.820000E+03	1.352812E-16	1.713505E-17
3.830000E+03	1.357464E-16	1.718086E-17
3.840000E+03	1.362204E-16	1.722074E-17
3.850000E+03	1.366859E-16	1.725226E-17
3.860000E+03	1.371428E-16	1.727517E-17
3.870000E+03	1.375910E-16	1.728928E-17
3.880000E+03	1.380304E-16	1.729439E-17
3.890000E+03	1.384780E-16	1.729248E-17
3.900000E+03	1.389167E-16	1.728123E-17
3.910000E+03	1.393462E-16	1.726054E-17
3.920000E+03	1.397836E-16	1.723238E-17
3.930000E+03	1.401948E-16	1.719249E-17
3.940000E+03	1.406137E-16	1.714497E-17
3.950000E+03	1.410231E-16	1.708769E-17
3.960000E+03	1.414399E-16	1.702266E-17
3.970000E+03	1.418471E-16	1.694782E-17
3.980000E+03	1.422448E-16	1.686322E-17
3.990000E+03	1.426328E-16	1.676890E-17
4.000000E+03	1.430111E-16	1.666494E-17
4.010000E+03	1.433962E-16	1.655334E-17
4.020000E+03	1.437715E-16	1.643228E-17
4.030000E+03	1.441370E-16	1.630191E-17
4.040000E+03	1.445090E-16	1.616422E-17
4.050000E+03	1.448547E-16	1.601573E-17
4.060000E+03	1.452068E-16	1.586029E-17
4.070000E+03	1.455651E-16	1.569807E-17
4.080000E+03	1.458971E-16	1.552582E-17
4.090000E+03	1.462353E-16	1.534730E-17
4.100000E+03	1.465474E-16	1.515944E-17
4.110000E+03	1.468816E-16	1.496758E-17
4.120000E+03	1.471896E-16	1.476711E-17
4.130000E+03	1.474877E-16	1.456012E-17
4.140000E+03	1.477917E-16	1.434858E-17
4.150000E+03	1.480856E-16	1.413137E-17
4.160000E+03	1.483696E-16	1.390899E-17
4.170000E+03	1.486593E-16	1.368341E-17
4.180000E+03	1.489234E-16	1.345229E-17
4.190000E+03	1.491934E-16	1.321907E-17
4.200000E+03	1.494535E-16	1.298293E-17
4.210000E+03	1.497193E-16	1.274584E-17
4.220000E+03	1.499599E-16	1.250582E-17
4.230000E+03	1.502064E-16	1.226617E-17
4.240000E+03	1.504433E-16	1.202632E-17
4.250000E+03	1.506707E-16	1.178701E-17
4.260000E+03	1.508889E-16	1.154901E-17
4.270000E+03	1.511129E-16	1.131423E-17
4.280000E+03	1.513128E-16	1.108117E-17
4.290000E+03	1.515188E-16	1.085282E-17
4.300000E+03	1.517160E-16	1.062884E-17
4.310000E+03	1.519044E-16	1.040995E-17
4.320000E+03	1.520992E-16	1.019786E-17
4.330000E+03	1.522708E-16	9.991183E-18
4.340000E+03	1.524490E-16	9.792453E-18
4.350000E+03	1.526192E-16	9.601137E-18
4.360000E+03	1.527816E-16	9.417562E-18
4.370000E+03	1.529363E-16	9.241886E-18
4.380000E+03	1.530982E-16	9.074912E-18
4.390000E+03	1.532383E-16	8.914607E-18
4.400000E+03	1.533859E-16	8.762090E-18
4.410000E+03	1.535267E-16	8.615662E-18
4.420000E+03	1.536609E-16	8.474252E-18
4.430000E+03	1.537887E-16	8.336613E-18
4.440000E+03	1.539245E-16	8.202121E-18
4.450000E+03	1.540404E-16	8.067813E-18
4.460000E+03	1.541646E-16	7.933690E-18
4.470000E+03	1.542695E-16	7.796817E-18
4.480000E+03	1.543832E-16	7.657163E-18
4.490000E+03	1.544920E-16	7.512614E-18
4.500000E+03	1.545962E-16	7.361852E-18
4.510000E+03	1.546962E-16	7.203656E-18
4.520000E+03	1.548058E-16	7.037538E-18
4.530000E+03	1.548980E-16	6.861265E-18
4.540000E+03	1.549870E-16	6.674641E-18
4.550000E+03	1.550864E-16	6.477554E-18
4.560000E+03	1.551830E-16	6.268907E-18
4.570000E+03	1.552640E-16	6.047890E-18
4.580000E+03	1.553562E-16	5.815496E-18
4.590000E+03	1.554468E-16	5.571394E-18
4.600000E+03	1.555361E-16	5.316112E-18
4.610000E+03	1.556246E-16	5.050582E-18
4.620000E+03	1.557126E-16	4.776236E-18
4.630000E+03	1.558004E-16	4.495163E-18
4.640000E+03	1.559016E-16	4.210662E-18
4.650000E+03	1.559906E-16	3.926113E-18
4.660000E+03	1.560808E-16	3.647536E-18
4.670000E+03	1.561854E-16	3.382875E-18
4.680000E+03	1.562793E-16	3.141736E-18
4.690000E+03	1.563759E-16	2.937349E-18
4.700000E+03	1.564882E-16	2.785059E-18
4.710000E+03	1.565914E-16	2.699641E-18
4.720000E+03	1.567113E-16	2.693132E-18
4.730000E+03	1.568233E-16	2.769166E-18
4.740000E+03	1.569529E-16	2.923427E-18
4.750000E+03	1.570758E-16	3.144205E-18
4.760000E+03	1.572173E-16	3.418183E-18
4.770000E+03	1.573534E-16	3.731644E-18
4.780000E+03	1.575093E-16	4.074023E-18
4.790000E+03	1.576610E-16	4.435926E-18
4.800000E+03	1.578335E-16	4.811274E-18
4.810000E+03	1.580033E-16	5.194234E-18
4.820000E+03	1.581951E-16	5.581663E-18
4.830000E+03	1.583854E-16	5.969729E-18
4.840000E+03	1.585870E-16	6.356474E-18
4.850000E+03	1.588125E-16	6.740535E-18
4.860000E+03	1.590386E-16	7.119416E-18
4.870000E+03	1.592780E-16	7.492358E-18
4.880000E+03	1.595312E-16	7.858331E-18
4.890000E+03	1.597991E-16	8.216460E-18
4.900000E+03	1.600822E-16	8.565995E-18
4.910000E+03	1.603813E-16	8.906285E-18
4.920000E+03	1.606971E-16	9.236754E-18
4.930000E+03	1.610302E-16	9.556892E-18
4.940000E+03	1.613696E-16	9.865523E-18
4.950000E+03	1.617395E-16	1.016364E-17
4.960000E+03	1.621173E-16	1.044940E-17
4.970000E+03	1.625268E-16	1.072395E-17
4.980000E+03	1.629457E-16	1.098544E-17
4.990000E+03	1.633861E-16	1.123430E-17
5.000000E+03	1.638490E-16	1.147025E-17
5.010000E+03	1.643349E-16	1.169300E-17
5.020000E+03	1.648447E-16	1.190230E-17
5.030000E+03	1.653676E-16	1.209704E-17
5.040000E+03	1.659272E-16	1.227865E-17
5.050000E+03	1.665015E-16	1.244519E-17
5.060000E+03	1.671026E-16	1.259728E-17
5.070000E+03	1.677313E-16	1.273470E-17
5.080000E+03	1.683884E-16	1.285720E-17
5.090000E+03	1.690746E-16	1.296457E-17
5.100000E+03	1.697793E-16	1.305572E-17
5.110000E+03	1.705147E-16	1.313128E-17
5.120000E+03	1.712933E-16	1.319196E-17
5.130000E+03	1.720926E-16	1.323574E-17
5.140000E+03	1.729136E-16	1.326242E-17
5.150000E+03	1.737801E-16	1.327357E-17
5.160000E+03	1.746699E-16	1.326720E-17
5.170000E+03	1.755954E-16	1.324400E-17
5.180000E+03	1.765575E-16	1.320377E-17
5.190000E+03	1.775569E-16	1.314631E-17
5.200000E+03	1.785947E-16	1.307143E-17
5.210000E+03	1.796599E-16	1.297810E-17
5.220000E+03	1.807653E-16	1.286702E-17
5.230000E+03	1.819116E-16	1.273802E-17
5.240000E+03	1.830880E-16	1.259018E-17
5.250000E+03	1.843191E-16	1.242500E-17
5.260000E+03	1.855822E-16	1.224080E-17
5.270000E+03	1.868899E-16	1.203835E-17
5.280000E+03	1.882315E-16	1.181692E-17
5.290000E+03	1.896317E-16	1.157809E-17
5.300000E+03	1.910675E-16	1.132054E-17
5.310000E+03	1.925400E-16	1.104457E-17
5.320000E+03	1.940742E-16	1.075198E-17
5.330000E+03	1.956470E-16	1.044194E-17
5.340000E+03	1.972715E-16	1.011589E-17
5.350000E+03	1.989488E-16	9.774841E-18
5.360000E+03	2.006675E-16	9.419551E-18
5.370000E+03	2.024412E-16	9.052421E-18
5.380000E+03	2.042708E-16	8.675776E-18
5.390000E+03	2.061576E-16	8.292653E-18
5.400000E+03	2.080899E-16	7.906519E-18
5.410000E+03	2.100813E-16	7.523034E-18
5.420000E+03	2.121202E-16	7.148361E-18
5.430000E+03	2.142205E-16	6.791386E-18
5.440000E+03	2.163832E-16	6.462606E-18
5.450000E+03	2.186095E-16	6.174739E-18
5.460000E+03	2.208872E-16	5.942101E-18
5.470000E+03	2.232305E-16	5.780744E-18
5.480000E+03	2.256404E-16	5.705500E-18
5.490000E+03	2.281044E-16	5.727537E-18
5.500000E+03	2.306369E-16	5.853037E-18
5.510000E+03	2.332248E-16	6.080765E-18
5.520000E+03	2.358966E-16	6.404606E-18
5.530000E+03	2.386111E-16	6.812699E-18
5.540000E+03	2.414110E-16	7.293865E-18
5.550000E+03	2.442685E-16	7.835089E-18
5.560000E+03	2.471985E-16	8.425729E-18
5.570000E+03	2.501868E-16	9.055716E-18
5.580000E+03	2.532482E-16	9.717487E-18
5.590000E+03	2.563834E-16	1.040437E-17
5.600000E+03	2.595774E-16	1.111016E-17
5.610000E+03	2.628456E-16	1.183078E-17
5.620000E+03	2.661727E-16	1.256155E-17
5.630000E+03	2.695897E-16	1.330050E-17
5.640000E+03	2.730499E-16	1.404234E-17
5.650000E+03	2.766002E-16	1.478673E-17
5.660000E+03	2.801929E-16	1.552870E-17
5.670000E+03	2.838757E-16	1.626857E-17
5.680000E+03	2.876160E-16	1.700242E-17
5.690000E+03	2.914296E-16	1.772913E-17
5.700000E+03	2.952996E-16	1.844572E-17
5.710000E+03	2.992418E-16	1.915127E-17
5.720000E+03	3.032557E-16	1.984390E-17
5.730000E+03	3.073235E-16	2.052060E-17
5.740000E+03	3.114438E-16	2.117941E-17
5.750000E+03	3.156329E-16	2.181959E-17
5.760000E+03	3.198898E-16	2.243925E-17
5.770000E+03	3.242136E-16	2.303650E-17
5.780000E+03	3.285847E-16	2.360810E-17
5.790000E+03	3.330011E-16	2.415201E-17
5.800000E+03	3.374796E-16	2.466756E-17
5.810000E+03	3.420186E-16	2.515274E-17
5.820000E+03	3.465973E-16	2.560412E-17
5.830000E+03	3.512324E-16	2.602101E-17
5.840000E+03	3.559025E-16	2.639991E-17
5.850000E+03	3.606247E-16	2.674013E-17
5.860000E+03	3.653967E-16	2.703960E-17
5.870000E+03	3.701957E-16	2.729470E-17
5.880000E+03	3.750186E-16	2.750328E-17
5.890000E+03	3.799036E-16	2.766627E-17
5.900000E+03	3.847854E-16	2.777701E-17
5.910000E+03	3.897236E-16	2.783800E-17
5.920000E+03	3.946512E-16	2.784263E-17
5.930000E+03	3.996288E-16	2.779347E-17
5.940000E+03	4.046097E-16	2.768555E-17
5.950000E+03	4.095896E-16	2.751702E-17
5.960000E+03	4.145869E-16	2.728763E-17
5.970000E+03	4.195975E-16	2.699569E-17
5.980000E+03	4.245947E-16	2.663822E-17
5.990000E+03	4.295738E-16	2.621390E-17
6.000000E+03	4.345532E-16	2.572300E-17
6.010000E+03	4.395288E-16	2.516457E-17
6.020000E+03	4.444723E-16	2.453662E-17
6.030000E+03	4.494027E-16	2.384022E-17
6.040000E+03	4.543154E-16	2.307549E-17
6.050000E+03	4.591565E-16	2.224072E-17
6.060000E+03	4.639946E-16	2.134102E-17
6.070000E+03	4.687752E-16	2.037638E-17
6.080000E+03	4.734930E-16	1.935053E-17
6.090000E+03	4.781679E-16	1.826984E-17
6.100000E+03	4.827949E-16	1.714188E-17
6.110000E+03	4.873431E-16	1.597661E-17
6.120000E+03	4.918069E-16	1.478973E-17
6.130000E+03	4.962334E-16	1.360517E-17
6.140000E+03	5.005384E-16	1.245294E-17
6.150000E+03	5.047694E-16	1.138064E-17
6.160000E+03	5.089216E-16	1.045235E-17
6.170000E+03	5.129627E-16	9.750647E-18
6.180000E+03	5.169151E-16	9.368960E-18
6.190000E+03	5.207742E-16	9.384436E-18
6.200000E+03	5.245080E-16	9.826124E-18
6.210000E+03	5.281118E-16	1.066477E-17
6.220000E+03	5.316096E-16	1.183335E-17
6.230000E+03	5.349693E-16	1.325545E-17
6.240000E+03	5.382156E-16	1.486602E-17
6.250000E+03	5.413452E-16	1.661449E-17
6.260000E+03	5.443264E-16	1.846268E-17
6.270000E+03	5.471847E-16	2.038424E-17
6.280000E+03	5.498885E-16	2.235797E-17
6.290000E+03	5.524638E-16	2.436972E-17
6.300000E+03	5.548793E-16	2.640641E-17
6.310000E+03	5.571615E-16	2.845989E-17
6.320000E+03	5.592793E-16	3.052089E-17
6.330000E+03	5.612598E-16	3.258439E-17
6.340000E+03	5.631016E-16	3.464484E-17
6.350000E+03	5.647735E-16	3.669546E-17
6.360000E+03	5.662741E-16	3.873156E-17
6.370000E+03	5.676319E-16	4.075103E-17
6.380000E+03	5.688460E-16	4.275024E-17
6.390000E+03	5.698861E-16	4.472350E-17
6.400000E+03	5.707814E-16	4.666980E-17
6.410000E+03	5.715018E-16	4.858369E-17
6.420000E+03	5.720771E-16	5.046474E-17
6.430000E+03	5.724774E-16	5.230762E-17
6.440000E+03	5.727332E-16	5.411242E-17
6.450000E+03	5.728449E-16	5.587683E-17
6.460000E+03	5.727833E-16	5.759565E-17
6.470000E+03	5.725793E-16	5.926966E-17
6.480000E+03	5.722041E-16	6.089374E-17
6.490000E+03	5.716889E-16	6.246910E-17
6.500000E+03	5.710053E-16	6.399070E-17
6.510000E+03	5.701848E-16	6.546016E-17
6.520000E+03	5.691993E-16	6.687253E-17
6.530000E+03	5.681104E-16	6.823339E-17
6.540000E+03	5.668311E-16	6.953082E-17
6.550000E+03	5.654229E-16	7.077073E-17
6.560000E+03	5.638883E-16	7.195211E-17
6.570000E+03	5.622296E-16	7.307411E-17
6.580000E+03	5.604200E-16	7.413206E-17
6.590000E+03	5.584626E-16	7.512516E-17
6.600000E+03	5.563893E-16	7.605668E-17
6.610000E+03	5.542031E-16	7.692621E-17
6.620000E+03	5.518780E-16	7.772934E-17
6.630000E+03	5.494461E-16	7.846982E-17
6.640000E+03	5.469104E-16	7.914755E-17
6.650000E+03	5.442456E-16	7.975832E-17
6.660000E+03	5.414553E-16	8.030212E-17
6.670000E+03	5.385994E-16	8.078748E-17
6.680000E+03	5.356248E-16	8.120625E-17
6.690000E+03	5.325352E-16	8.155871E-17
6.700000E+03	5.293620E-16	8.184952E-17
6.710000E+03	5.261087E-16	8.207922E-17
6.720000E+03	5.227512E-16	8.224409E-17
6.730000E+03	5.193206E-16	8.234909E-17
6.740000E+03	5.158203E-16	8.239497E-17
6.750000E+03	5.122267E-16	8.237822E-17
6.760000E+03	5.085706E-16	8.230405E-17
6.770000E+03	5.048285E-16	8.216907E-17
6.780000E+03	5.010310E-16	8.197862E-17
6.790000E+03	4.971811E-16	8.173375E-17
6.800000E+03	4.932563E-16	8.143127E-17
6.810000E+03	4.892861E-16	8.107666E-17
6.820000E+03	4.852737E-16	8.067109E-17
6.830000E+03	4.811970E-16	8.021157E-17
6.840000E+03	4.770849E-16	7.970364E-17
6.850000E+03	4.729403E-16	7.914860E-17
6.860000E+03	4.687417E-16	7.854361E-17
6.870000E+03	4.645170E-16	7.789424E-17
6.880000E+03	4.602449E-16	7.719776E-17
6.890000E+03	4.559531E-16	7.645974E-17
6.900000E+03	4.516443E-16	7.568156E-17
6.910000E+03	4.472975E-16	7.486068E-17
6.920000E+03	4.429395E-16	7.400257E-17
6.930000E+03	4.385730E-16	7.310867E-17
6.940000E+03	4.342004E-16	7.218039E-17
6.950000E+03	4.298014E-16	7.121539E-17
6.960000E+03	4.254016E-16	7.021898E-17
6.970000E+03	4.209809E-16	6.918889E-17
6.980000E+03	4.165644E-16	6.813034E-17
6.990000E+03	4.121543E-16	6.704473E-17
7.000000E+03	4.077309E-16	6.592993E-17
7.010000E+03	4.033399E-16	6.479444E-17
7.020000E+03	3.989186E-16	6.362922E-17
7.030000E+03	3.945336E-16	6.244602E-17
7.040000E+03	3.901442E-16	6.123942E-17
7.050000E+03	3.857734E-16	6.001413E-17
7.060000E+03	3.814228E-16	5.877146E-17
7.070000E+03	3.770738E-16	5.750957E-17
7.080000E+03	3.727485E-16	5.623292E-17
7.090000E+03	3.684483E-16	5.494275E-17
7.100000E+03	3.641549E-16	5.363734E-17
7.110000E+03	3.598896E-16	5.232091E-17
7.120000E+03	3.556537E-16	5.099459E-17
7.130000E+03	3.514483E-16	4.965950E-17
7.140000E+03	3.472555E-16	4.831410E-17
7.150000E+03	3.430956E-16	4.696223E-17
7.160000E+03	3.389695E-16	4.560492E-17
7.170000E+03	3.348598E-16	4.424076E-17
7.180000E+03	3.308040E-16	4.287565E-17
7.190000E+03	3.267665E-16	4.150579E-17
7.200000E+03	3.227486E-16	4.013232E-17
7.210000E+03	3.187864E-16	3.876064E-17
7.220000E+03	3.148452E-16	3.738731E-17
7.230000E+03	3.109432E-16	3.601541E-17
7.240000E+03	3.070640E-16	3.464389E-17
7.250000E+03	3.032419E-16	3.327747E-17
7.260000E+03	2.994435E-16	3.191325E-17
7.270000E+03	2.956861E-16	3.055397E-17
7.280000E+03	2.919538E-16	2.919883E-17
7.290000E+03	2.882790E-16	2.785197E-17
7.300000E+03	2.846299E-16	2.651108E-17
7.310000E+03	2.810071E-16	2.517724E-17
7.320000E+03	2.774419E-16	2.385422E-17
7.330000E+03	2.739034E-16	2.254026E-17
7.340000E+03	2.704221E-16	2.123895E-17
7.350000E+03	2.669677E-16	1.994900E-17
7.360000E+03	2.635404E-16	1.867188E-17
7.370000E+03	2.601699E-16	1.741121E-17
7.380000E+03	2.568266E-16	1.616668E-17
7.390000E+03	2.535250E-16	1.494142E-17
7.400000E+03	2.502649E-16	1.373801E-17
7.410000E+03	2.470320E-16	1.255904E-17
7.420000E+03	2.438543E-16	1.141033E-17
7.430000E+03	2.407035E-16	1.029633E-17
7.440000E+03	2.375933E-16	9.225824E-18
7.450000E+03	2.345102E-16	8.209697E-18
7.460000E+03	2.314805E-16	7.265248E-18
7.470000E+03	2.284774E-16	6.415042E-18
7.480000E+03	2.255139E-16	5.692401E-18
7.490000E+03	2.225896E-16	5.139849E-18
7.500000E+03	2.197043E-16	4.803061E-18
7.510000E+03	2.168452E-16	4.713457E-18
7.520000E+03	2.140370E-16	4.869805E-18
7.530000E+03	2.112549E-16	5.234391E-18
7.540000E+03	2.085110E-16	5.753610E-18
7.550000E+03	2.057933E-16	6.376294E-18
7.560000E+03	2.031255E-16	7.063946E-18
7.570000E+03	2.004837E-16	7.788259E-18
7.580000E+03	1.978796E-16	8.530968E-18
7.590000E+03	1.953131E-16	9.279572E-18
7.600000E+03	1.927838E-16	1.002565E-17
7.610000E+03	1.902915E-16	1.076349E-17
7.620000E+03	1.878251E-16	1.148851E-17
7.630000E+03	1.853953E-16	1.219862E-17
7.640000E+03	1.830020E-16	1.289201E-17
7.650000E+03	1.806449E-16	1.356746E-17
7.660000E+03	1.783235E-16	1.422417E-17
7.670000E+03	1.760376E-16	1.486166E-17
7.680000E+03	1.737766E-16	1.547877E-17
7.690000E+03	1.715505E-16	1.607625E-17
7.700000E+03	1.693591E-16	1.665416E-17
7.710000E+03	1.672018E-16	1.721264E-17
7.720000E+03	1.650784E-16	1.775192E-17
7.730000E+03	1.629884E-16	1.827225E-17
7.740000E+03	1.609218E-16	1.877283E-17
7.750000E+03	1.588879E-16	1.925507E-17
7.760000E+03	1.568864E-16	1.971934E-17
