#wls	flux	fluxerr
1.600000E+03	1.163573E-17	6.607431E-18
1.640000E+03	1.202214E-17	6.726710E-18
1.680000E+03	1.242266E-17	6.848352E-18
1.720000E+03	1.284353E-17	6.975709E-18
1.760000E+03	1.327340E-17	7.102558E-18
1.800000E+03	1.372459E-17	7.235532E-18
1.840000E+03	1.419147E-17	7.371602E-18
1.880000E+03	1.467431E-17	7.510952E-18
1.920000E+03	1.517335E-17	7.653768E-18
1.960000E+03	1.568880E-17	7.800225E-18
2.000000E+03	1.622803E-17	7.954006E-18
2.040000E+03	1.677700E-17	8.108243E-18
2.080000E+03	1.735041E-17	8.270131E-18
2.120000E+03	1.794114E-17	8.436197E-18
2.160000E+03	1.854922E-17	8.606438E-18
2.200000E+03	1.918290E-17	8.784573E-18
2.240000E+03	1.982581E-17	8.962959E-18
2.280000E+03	2.049460E-17	9.149023E-18
2.320000E+03	2.118088E-17	9.338714E-18
2.360000E+03	2.188444E-17	9.531698E-18
2.400000E+03	2.260505E-17	9.727571E-18
2.440000E+03	2.335215E-17	9.929987E-18
2.480000E+03	2.410627E-17	1.013021E-17
2.520000E+03	2.488676E-17	1.033595E-17
2.560000E+03	2.568358E-17	1.054239E-17
2.600000E+03	2.649636E-17	1.074881E-17
2.640000E+03	2.733579E-17	1.095880E-17
2.680000E+03	2.817973E-17	1.116273E-17
2.720000E+03	2.905017E-17	1.136856E-17
2.760000E+03	2.993579E-17	1.157094E-17
2.800000E+03	3.083627E-17	1.176890E-17
2.840000E+03	3.175135E-17	1.196147E-17
2.880000E+03	3.268077E-17	1.214771E-17
2.920000E+03	3.363725E-17	1.233153E-17
2.960000E+03	3.460819E-17	1.250743E-17
3.000000E+03	3.559337E-17	1.267473E-17
3.010000E+03	3.583846E-17	1.271393E-17
3.020000E+03	3.608439E-17	1.275255E-17
3.030000E+03	3.633115E-17	1.279057E-17
3.040000E+03	3.659259E-17	1.283286E-17
3.050000E+03	3.684109E-17	1.286969E-17
3.060000E+03	3.709042E-17	1.290591E-17
3.070000E+03	3.734058E-17	1.294152E-17
3.080000E+03	3.760568E-17	1.298139E-17
3.090000E+03	3.785755E-17	1.301577E-17
3.100000E+03	3.811023E-17	1.304953E-17
3.110000E+03	3.837807E-17	1.308755E-17
3.120000E+03	3.863245E-17	1.312006E-17
3.130000E+03	3.888763E-17	1.315194E-17
3.140000E+03	3.915819E-17	1.318811E-17
3.150000E+03	3.941505E-17	1.321874E-17
3.160000E+03	3.968744E-17	1.325366E-17
3.170000E+03	3.994597E-17	1.328304E-17
3.180000E+03	4.020529E-17	1.331180E-17
3.190000E+03	4.048035E-17	1.334486E-17
3.200000E+03	4.074133E-17	1.337238E-17
3.210000E+03	4.101819E-17	1.340421E-17
3.220000E+03	4.128081E-17	1.343050E-17
3.230000E+03	4.155945E-17	1.346111E-17
3.240000E+03	4.182371E-17	1.348617E-17
3.250000E+03	4.208875E-17	1.351063E-17
3.260000E+03	4.237002E-17	1.353943E-17
3.270000E+03	4.263668E-17	1.356269E-17
3.280000E+03	4.291972E-17	1.359029E-17
3.290000E+03	4.318800E-17	1.361236E-17
3.300000E+03	4.347280E-17	1.363877E-17
3.310000E+03	4.374269E-17	1.365965E-17
3.320000E+03	4.402925E-17	1.368489E-17
3.330000E+03	4.431673E-17	1.370954E-17
3.340000E+03	4.458906E-17	1.372866E-17
3.350000E+03	4.487830E-17	1.375213E-17
3.360000E+03	4.515223E-17	1.377006E-17
3.370000E+03	4.544322E-17	1.379235E-17
3.380000E+03	4.571876E-17	1.380910E-17
3.390000E+03	4.601151E-17	1.383018E-17
3.400000E+03	4.628866E-17	1.384572E-17
3.410000E+03	4.658317E-17	1.386559E-17
3.420000E+03	4.687860E-17	1.388483E-17
3.430000E+03	4.715821E-17	1.389850E-17
3.440000E+03	4.745542E-17	1.391646E-17
3.450000E+03	4.775355E-17	1.393377E-17
3.460000E+03	4.803566E-17	1.394547E-17
3.470000E+03	4.833559E-17	1.396141E-17
3.480000E+03	4.863647E-17	1.397665E-17
3.490000E+03	4.892110E-17	1.398624E-17
3.500000E+03	4.922381E-17	1.400000E-17
3.510000E+03	4.952747E-17	1.401299E-17
3.520000E+03	4.981468E-17	1.402027E-17
3.530000E+03	5.012021E-17	1.403164E-17
3.540000E+03	5.042673E-17	1.404215E-17
3.550000E+03	5.071658E-17	1.404689E-17
3.560000E+03	5.102500E-17	1.405560E-17
3.570000E+03	5.133444E-17	1.406337E-17
3.580000E+03	5.162701E-17	1.406527E-17
3.590000E+03	5.193841E-17	1.407102E-17
3.600000E+03	5.225086E-17	1.407571E-17
3.610000E+03	5.256435E-17	1.407929E-17
3.620000E+03	5.286072E-17	1.407687E-17
3.630000E+03	5.317627E-17	1.407812E-17
3.640000E+03	5.349291E-17	1.407812E-17
3.650000E+03	5.381065E-17	1.407685E-17
3.660000E+03	5.411100E-17	1.406942E-17
3.670000E+03	5.443090E-17	1.406544E-17
3.680000E+03	5.475195E-17	1.406003E-17
3.690000E+03	5.507414E-17	1.405313E-17
3.700000E+03	5.537870E-17	1.403994E-17
3.710000E+03	5.570317E-17	1.402994E-17
3.720000E+03	5.602885E-17	1.401830E-17
3.730000E+03	5.635574E-17	1.400498E-17
3.740000E+03	5.668387E-17	1.398992E-17
3.750000E+03	5.699404E-17	1.396835E-17
3.760000E+03	5.732460E-17	1.394966E-17
3.770000E+03	5.765644E-17	1.392908E-17
3.780000E+03	5.798958E-17	1.390654E-17
3.790000E+03	5.832404E-17	1.388200E-17
3.800000E+03	5.865983E-17	1.385540E-17
3.810000E+03	5.897730E-17	1.382209E-17
3.820000E+03	5.931573E-17	1.379126E-17
3.830000E+03	5.965555E-17	1.375822E-17
3.840000E+03	5.999678E-17	1.372293E-17
3.850000E+03	6.033942E-17	1.368535E-17
3.860000E+03	6.068351E-17	1.364542E-17
3.870000E+03	6.100890E-17	1.359861E-17
3.880000E+03	6.135584E-17	1.355390E-17
3.890000E+03	6.170427E-17	1.350672E-17
3.900000E+03	6.205422E-17	1.345703E-17
3.910000E+03	6.240570E-17	1.340480E-17
3.920000E+03	6.275873E-17	1.335000E-17
3.930000E+03	6.311332E-17	1.329259E-17
3.940000E+03	6.346950E-17	1.323254E-17
3.950000E+03	6.380646E-17	1.316554E-17
3.960000E+03	6.416577E-17	1.310017E-17
3.970000E+03	6.452672E-17	1.303209E-17
3.980000E+03	6.488931E-17	1.296129E-17
3.990000E+03	6.525358E-17	1.288775E-17
4.000000E+03	6.561953E-17	1.281145E-17
4.010000E+03	6.598719E-17	1.273239E-17
4.020000E+03	6.635655E-17	1.265056E-17
4.030000E+03	6.670616E-17	1.256192E-17
4.040000E+03	6.707892E-17	1.247459E-17
4.050000E+03	6.745344E-17	1.238449E-17
4.060000E+03	6.782973E-17	1.229164E-17
4.070000E+03	6.820781E-17	1.219606E-17
4.080000E+03	6.858768E-17	1.209774E-17
4.090000E+03	6.896936E-17	1.199673E-17
4.100000E+03	6.935286E-17	1.189304E-17
4.110000E+03	6.973818E-17	1.178670E-17
4.120000E+03	7.010308E-17	1.167404E-17
4.130000E+03	7.049200E-17	1.156256E-17
4.140000E+03	7.088277E-17	1.144854E-17
4.150000E+03	7.127539E-17	1.133204E-17
4.160000E+03	7.166987E-17	1.121310E-17
4.170000E+03	7.206621E-17	1.109178E-17
4.180000E+03	7.246442E-17	1.096814E-17
4.190000E+03	7.286448E-17	1.084225E-17
4.200000E+03	7.324341E-17	1.071080E-17
4.210000E+03	7.364709E-17	1.058064E-17
4.220000E+03	7.405261E-17	1.044843E-17
4.230000E+03	7.445996E-17	1.031425E-17
4.240000E+03	7.486913E-17	1.017818E-17
4.250000E+03	7.528010E-17	1.004030E-17
4.260000E+03	7.569286E-17	9.900694E-18
4.270000E+03	7.610738E-17	9.759443E-18
4.280000E+03	7.649992E-17	9.613652E-18
4.290000E+03	7.691778E-17	9.469413E-18
4.300000E+03	7.733732E-17	9.323777E-18
4.310000E+03	7.775848E-17	9.176822E-18
4.320000E+03	7.818122E-17	9.028621E-18
4.330000E+03	7.860550E-17	8.879243E-18
4.340000E+03	7.903125E-17	8.728747E-18
4.350000E+03	7.943403E-17	8.574556E-18
4.360000E+03	7.986243E-17	8.422020E-18
4.370000E+03	8.029207E-17	8.268488E-18
4.380000E+03	8.072288E-17	8.113974E-18
4.390000E+03	8.115475E-17	7.958473E-18
4.400000E+03	8.156269E-17	7.799467E-18
4.410000E+03	8.199609E-17	7.641481E-18
4.420000E+03	8.243000E-17	7.481793E-18
4.430000E+03	8.286420E-17	7.320087E-18
4.440000E+03	8.329846E-17	7.156036E-18
4.450000E+03	8.370725E-17	6.987189E-18
4.460000E+03	8.414082E-17	6.817482E-18
4.470000E+03	8.457371E-17	6.644402E-18
4.480000E+03	8.500566E-17	6.467604E-18
4.490000E+03	8.543640E-17	6.286747E-18
4.500000E+03	8.583988E-17	6.099674E-18
4.510000E+03	8.626725E-17	5.909791E-18
4.520000E+03	8.669255E-17	5.714919E-18
4.530000E+03	8.708944E-17	5.513147E-18
4.540000E+03	8.750960E-17	5.307603E-18
4.550000E+03	8.792676E-17	5.096393E-18
4.560000E+03	8.834060E-17	4.879386E-18
4.570000E+03	8.872442E-17	4.655132E-18
4.580000E+03	8.913053E-17	4.426487E-18
4.590000E+03	8.953228E-17	4.192126E-18
4.600000E+03	8.990270E-17	3.951143E-18
4.610000E+03	9.029452E-17	3.706398E-18
4.620000E+03	9.068080E-17	3.457343E-18
4.630000E+03	9.103425E-17	3.204072E-18
4.640000E+03	9.140798E-17	2.950082E-18
4.650000E+03	9.177469E-17	2.696600E-18
4.660000E+03	9.210676E-17	2.446233E-18
4.670000E+03	9.245753E-17	2.205438E-18
4.680000E+03	9.279929E-17	1.980811E-18
4.690000E+03	9.310402E-17	1.782694E-18
4.700000E+03	9.342514E-17	1.627305E-18
4.710000E+03	9.370717E-17	1.532066E-18
4.720000E+03	9.400353E-17	1.514809E-18
4.730000E+03	9.425905E-17	1.580036E-18
4.740000E+03	9.452949E-17	1.717526E-18
4.750000E+03	9.478852E-17	1.909219E-18
4.760000E+03	9.500959E-17	2.137798E-18
4.770000E+03	9.524857E-17	2.391533E-18
4.780000E+03	9.545121E-17	2.659994E-18
4.790000E+03	9.567335E-17	2.938373E-18
4.800000E+03	9.586051E-17	3.220724E-18
4.810000E+03	9.604088E-17	3.504768E-18
4.820000E+03	9.624271E-17	3.789392E-18
4.830000E+03	9.641126E-17	4.070869E-18
4.840000E+03	9.660238E-17	4.350209E-18
4.850000E+03	9.676124E-17	4.624026E-18
4.860000E+03	9.694371E-17	4.894113E-18
4.870000E+03	9.709487E-17	5.157113E-18
4.880000E+03	9.724290E-17	5.413829E-18
4.890000E+03	9.741604E-17	5.665437E-18
4.900000E+03	9.755929E-17	5.908406E-18
4.910000E+03	9.770086E-17	6.143963E-18
4.920000E+03	9.786902E-17	6.373646E-18
4.930000E+03	9.800871E-17	6.593661E-18
4.940000E+03	9.814821E-17	6.805553E-18
4.950000E+03	9.831579E-17	7.011128E-18
4.960000E+03	9.845639E-17	7.206327E-18
4.970000E+03	9.859829E-17	7.392946E-18
4.980000E+03	9.874203E-17	7.570880E-18
4.990000E+03	9.891594E-17	7.742218E-18
5.000000E+03	9.906491E-17	7.902573E-18
5.010000E+03	9.921729E-17	8.054021E-18
5.020000E+03	9.937362E-17	8.196523E-18
5.030000E+03	9.953444E-17	8.330050E-18
5.040000E+03	9.972820E-17	8.456954E-18
5.050000E+03	9.989969E-17	8.572534E-18
5.060000E+03	1.000774E-16	8.679133E-18
5.070000E+03	1.002618E-16	8.776777E-18
5.080000E+03	1.004535E-16	8.865500E-18
5.090000E+03	1.006531E-16	8.945351E-18
5.100000E+03	1.008612E-16	9.016390E-18
5.110000E+03	1.010784E-16	9.078688E-18
5.120000E+03	1.013053E-16	9.132328E-18
5.130000E+03	1.015425E-16	9.177406E-18
5.140000E+03	1.017906E-16	9.214033E-18
5.150000E+03	1.020503E-16	9.242329E-18
5.160000E+03	1.023222E-16	9.262433E-18
5.170000E+03	1.026069E-16	9.274495E-18
5.180000E+03	1.029051E-16	9.278684E-18
5.190000E+03	1.032175E-16	9.275185E-18
5.200000E+03	1.035447E-16	9.264203E-18
5.210000E+03	1.038874E-16	9.245963E-18
5.220000E+03	1.042178E-16	9.218185E-18
5.230000E+03	1.045936E-16	9.186210E-18
5.240000E+03	1.049871E-16	9.147801E-18
5.250000E+03	1.053989E-16	9.103290E-18
5.260000E+03	1.058299E-16	9.053044E-18
5.270000E+03	1.062519E-16	8.995011E-18
5.280000E+03	1.067233E-16	8.934567E-18
5.290000E+03	1.072163E-16	8.869732E-18
5.300000E+03	1.077023E-16	8.798657E-18
5.310000E+03	1.082406E-16	8.726754E-18
5.320000E+03	1.088028E-16	8.652274E-18
5.330000E+03	1.093602E-16	8.573624E-18
5.340000E+03	1.099729E-16	8.496289E-18
5.350000E+03	1.105822E-16	8.416531E-18
5.360000E+03	1.112489E-16	8.339907E-18
5.370000E+03	1.119441E-16	8.265183E-18
5.380000E+03	1.126383E-16	8.191310E-18
5.390000E+03	1.133932E-16	8.123989E-18
5.400000E+03	1.141487E-16	8.060169E-18
5.410000E+03	1.149673E-16	8.005655E-18
5.420000E+03	1.157883E-16	7.957644E-18
5.430000E+03	1.166433E-16	7.919896E-18
5.440000E+03	1.175651E-16	7.896171E-18
5.450000E+03	1.184919E-16	7.883891E-18
5.460000E+03	1.194559E-16	7.886847E-18
5.470000E+03	1.204906E-16	7.908786E-18
5.480000E+03	1.215328E-16	7.947037E-18
5.490000E+03	1.226157E-16	8.005162E-18
5.500000E+03	1.237731E-16	8.086287E-18
5.510000E+03	1.249397E-16	8.185935E-18
5.520000E+03	1.261486E-16	8.305681E-18
5.530000E+03	1.274001E-16	8.444775E-18
5.540000E+03	1.286945E-16	8.602305E-18
5.550000E+03	1.300666E-16	8.779563E-18
5.560000E+03	1.314478E-16	8.970784E-18
5.570000E+03	1.328726E-16	9.177036E-18
5.580000E+03	1.343411E-16	9.397045E-18
5.590000E+03	1.358535E-16	9.629507E-18
5.600000E+03	1.374099E-16	9.873106E-18
5.610000E+03	1.390103E-16	1.012653E-17
5.620000E+03	1.406549E-16	1.038846E-17
5.630000E+03	1.423436E-16	1.065761E-17
5.640000E+03	1.440765E-16	1.093271E-17
5.650000E+03	1.458535E-16	1.121250E-17
5.660000E+03	1.476746E-16	1.149577E-17
5.670000E+03	1.495002E-16	1.177819E-17
5.680000E+03	1.514086E-16	1.206470E-17
5.690000E+03	1.533606E-16	1.235111E-17
5.700000E+03	1.553559E-16	1.263625E-17
5.710000E+03	1.573944E-16	1.291896E-17
5.720000E+03	1.594339E-16	1.319465E-17
5.730000E+03	1.615571E-16	1.346902E-17
5.740000E+03	1.637224E-16	1.373753E-17
5.750000E+03	1.658858E-16	1.399539E-17
5.760000E+03	1.681330E-16	1.424871E-17
5.770000E+03	1.703762E-16	1.448895E-17
5.780000E+03	1.727032E-16	1.472248E-17
5.790000E+03	1.750692E-16	1.494441E-17
5.800000E+03	1.774272E-16	1.514959E-17
5.810000E+03	1.798684E-16	1.534472E-17
5.820000E+03	1.822987E-16	1.552065E-17
5.830000E+03	1.848114E-16	1.568422E-17
5.840000E+03	1.873098E-16	1.582612E-17
5.850000E+03	1.898403E-16	1.594917E-17
5.860000E+03	1.924517E-16	1.605636E-17
5.870000E+03	1.950433E-16	1.613815E-17
5.880000E+03	1.976630E-16	1.619747E-17
5.890000E+03	2.003613E-16	1.623734E-17
5.900000E+03	2.030334E-16	1.624813E-17
5.910000E+03	2.057289E-16	1.623287E-17
5.920000E+03	2.084461E-16	1.619038E-17
5.930000E+03	2.112378E-16	1.612370E-17
5.940000E+03	2.139934E-16	1.602332E-17
5.950000E+03	2.167649E-16	1.589237E-17
5.960000E+03	2.195503E-16	1.572981E-17
5.970000E+03	2.223471E-16	1.553466E-17
5.980000E+03	2.251533E-16	1.530601E-17
5.990000E+03	2.279664E-16	1.504303E-17
6.000000E+03	2.307838E-16	1.474500E-17
6.010000E+03	2.336031E-16	1.441133E-17
6.020000E+03	2.364215E-16	1.404158E-17
6.030000E+03	2.392362E-16	1.363549E-17
6.040000E+03	2.420443E-16	1.319307E-17
6.050000E+03	2.447799E-16	1.271134E-17
6.060000E+03	2.475650E-16	1.219767E-17
6.070000E+03	2.503341E-16	1.164989E-17
6.080000E+03	2.530838E-16	1.106988E-17
6.090000E+03	2.558105E-16	1.046049E-17
6.100000E+03	2.584442E-16	9.823321E-18
6.110000E+03	2.611129E-16	9.169577E-18
6.120000E+03	2.637467E-16	8.505198E-18
6.130000E+03	2.662729E-16	7.840672E-18
6.140000E+03	2.688227E-16	7.198318E-18
6.150000E+03	2.712539E-16	6.600382E-18
6.160000E+03	2.736994E-16	6.086989E-18
6.170000E+03	2.760138E-16	5.702774E-18
6.180000E+03	2.783314E-16	5.505290E-18
6.190000E+03	2.805036E-16	5.538857E-18
6.200000E+03	2.826694E-16	5.822169E-18
6.210000E+03	2.846853E-16	6.327753E-18
6.220000E+03	2.866974E-16	7.016312E-18
6.230000E+03	2.885603E-16	7.840994E-18
6.240000E+03	2.903473E-16	8.767227E-18
6.250000E+03	2.921331E-16	9.770102E-18
6.260000E+03	2.937692E-16	1.082487E-17
6.270000E+03	2.953296E-16	1.191914E-17
6.280000E+03	2.968143E-16	1.304209E-17
6.290000E+03	2.982229E-16	1.418552E-17
6.300000E+03	2.996315E-16	1.534691E-17
6.310000E+03	3.008874E-16	1.651362E-17
6.320000E+03	3.020663E-16	1.768500E-17
6.330000E+03	3.031679E-16	1.885748E-17
6.340000E+03	3.041919E-16	2.002794E-17
6.350000E+03	3.051380E-16	2.119366E-17
6.360000E+03	3.060059E-16	2.235217E-17
6.370000E+03	3.067957E-16	2.350124E-17
6.380000E+03	3.075071E-16	2.463883E-17
6.390000E+03	3.080617E-16	2.575649E-17
6.400000E+03	3.086163E-16	2.686528E-17
6.410000E+03	3.090926E-16	2.795726E-17
6.420000E+03	3.094909E-16	2.903088E-17
6.430000E+03	3.098114E-16	3.008469E-17
6.440000E+03	3.099757E-16	3.110938E-17
6.450000E+03	3.101417E-16	3.211920E-17
6.460000E+03	3.102310E-16	3.310528E-17
6.470000E+03	3.101656E-16	3.405781E-17
6.480000E+03	3.101035E-16	3.499275E-17
6.490000E+03	3.099667E-16	3.590067E-17
6.500000E+03	3.096772E-16	3.677127E-17
6.510000E+03	3.093933E-16	3.762209E-17
6.520000E+03	3.089585E-16	3.843344E-17
6.530000E+03	3.085308E-16	3.922385E-17
6.540000E+03	3.079546E-16	3.997290E-17
6.550000E+03	3.073872E-16	4.070005E-17
6.560000E+03	3.066737E-16	4.138423E-17
6.570000E+03	3.058933E-16	4.203509E-17
6.580000E+03	3.051246E-16	4.266298E-17
6.590000E+03	3.042140E-16	4.324602E-17
6.600000E+03	3.032402E-16	4.379451E-17
6.610000E+03	3.022813E-16	4.431942E-17
6.620000E+03	3.011850E-16	4.479814E-17
6.630000E+03	3.000297E-16	4.524162E-17
6.640000E+03	2.988167E-16	4.564973E-17
6.650000E+03	2.975475E-16	4.602237E-17
6.660000E+03	2.962235E-16	4.635954E-17
6.670000E+03	2.948463E-16	4.666125E-17
6.680000E+03	2.934173E-16	4.692757E-17
6.690000E+03	2.919380E-16	4.715862E-17
6.700000E+03	2.904100E-16	4.735456E-17
6.710000E+03	2.888349E-16	4.751559E-17
6.720000E+03	2.872140E-16	4.764196E-17
6.730000E+03	2.855491E-16	4.773395E-17
6.740000E+03	2.838416E-16	4.779190E-17
6.750000E+03	2.820932E-16	4.781616E-17
6.760000E+03	2.803053E-16	4.780714E-17
6.770000E+03	2.784795E-16	4.776526E-17
6.780000E+03	2.765473E-16	4.767890E-17
6.790000E+03	2.746510E-16	4.757277E-17
6.800000E+03	2.727214E-16	4.743527E-17
6.810000E+03	2.706915E-16	4.725498E-17
6.820000E+03	2.687005E-16	4.705650E-17
6.830000E+03	2.666809E-16	4.682840E-17
6.840000E+03	2.645671E-16	4.655950E-17
6.850000E+03	2.624952E-16	4.627413E-17
6.860000E+03	2.603331E-16	4.594943E-17
6.870000E+03	2.582147E-16	4.560949E-17
6.880000E+03	2.560101E-16	4.523178E-17
6.890000E+03	2.538512E-16	4.484009E-17
6.900000E+03	2.516098E-16	4.441229E-17
6.910000E+03	2.494157E-16	4.397179E-17
6.920000E+03	2.471431E-16	4.349691E-17
6.930000E+03	2.448571E-16	4.299970E-17
6.940000E+03	2.426208E-16	4.249174E-17
6.950000E+03	2.403115E-16	4.195209E-17
6.960000E+03	2.379928E-16	4.139249E-17
6.970000E+03	2.357257E-16	4.082409E-17
6.980000E+03	2.333911E-16	4.022679E-17
6.990000E+03	2.310507E-16	3.961193E-17
7.000000E+03	2.287056E-16	3.898029E-17
7.010000E+03	2.263569E-16	3.833269E-17
7.020000E+03	2.240058E-16	3.766990E-17
7.030000E+03	2.216533E-16	3.699273E-17
7.040000E+03	2.193004E-16	3.630197E-17
7.050000E+03	2.169482E-16	3.559840E-17
7.060000E+03	2.145977E-16	3.488279E-17
7.070000E+03	2.122498E-16	3.415593E-17
7.080000E+03	2.099054E-16	3.341856E-17
7.090000E+03	2.075655E-16	3.267146E-17
7.100000E+03	2.052309E-16	3.191537E-17
7.110000E+03	2.029025E-16	3.115102E-17
7.120000E+03	2.005811E-16	3.037915E-17
7.130000E+03	1.982674E-16	2.960048E-17
7.140000E+03	1.959623E-16	2.881572E-17
7.150000E+03	1.936170E-16	2.801842E-17
7.160000E+03	1.913317E-16	2.722377E-17
7.170000E+03	1.890571E-16	2.642510E-17
7.180000E+03	1.867461E-16	2.561654E-17
7.190000E+03	1.844953E-16	2.481204E-17
7.200000E+03	1.822571E-16	2.400551E-17
7.210000E+03	1.799859E-16	2.319166E-17
7.220000E+03	1.777750E-16	2.238319E-17
7.230000E+03	1.755334E-16	2.156908E-17
7.240000E+03	1.733520E-16	2.076118E-17
7.250000E+03	1.711419E-16	1.994930E-17
7.260000E+03	1.689918E-16	1.914446E-17
7.270000E+03	1.668149E-16	1.833728E-17
7.280000E+03	1.646978E-16	1.753799E-17
7.290000E+03	1.625559E-16	1.673800E-17
7.300000E+03	1.604733E-16	1.594678E-17
7.310000E+03	1.583675E-16	1.515659E-17
7.320000E+03	1.562806E-16	1.437243E-17
7.330000E+03	1.542524E-16	1.359852E-17
7.340000E+03	1.522033E-16	1.282849E-17
7.350000E+03	1.501738E-16	1.206688E-17
7.360000E+03	1.481640E-16	1.131469E-17
7.370000E+03	1.462116E-16	1.057575E-17
7.380000E+03	1.442411E-16	9.845740E-18
7.390000E+03	1.422906E-16	9.129139E-18
7.400000E+03	1.403601E-16	8.427878E-18
7.410000E+03	1.384497E-16	7.744381E-18
7.420000E+03	1.365592E-16	7.081769E-18
7.430000E+03	1.346887E-16	6.444135E-18
7.440000E+03	1.328378E-16	5.836954E-18
7.450000E+03	1.310064E-16	5.267620E-18
7.460000E+03	1.291941E-16	4.746150E-18
7.470000E+03	1.274006E-16	4.285896E-18
7.480000E+03	1.256254E-16	3.903863E-18
7.490000E+03	1.238680E-16	3.619685E-18
7.500000E+03	1.221276E-16	3.452003E-18
7.510000E+03	1.204037E-16	3.412193E-18
7.520000E+03	1.186961E-16	3.497026E-18
7.530000E+03	1.170060E-16	3.688486E-18
7.540000E+03	1.153340E-16	3.962511E-18
7.550000E+03	1.136514E-16	4.294537E-18
7.560000E+03	1.120183E-16	4.667284E-18
7.570000E+03	1.104051E-16	5.064997E-18
7.580000E+03	1.088121E-16	5.476981E-18
7.590000E+03	1.072116E-16	5.894071E-18
7.600000E+03	1.056600E-16	6.313812E-18
7.610000E+03	1.041291E-16	6.730924E-18
7.620000E+03	1.025922E-16	7.140791E-18
7.630000E+03	1.011030E-16	7.545065E-18
7.640000E+03	9.960849E-17	7.938503E-18
7.650000E+03	9.816086E-17	8.324147E-18
7.660000E+03	9.673364E-17	8.699318E-18
7.670000E+03	9.530173E-17	9.061153E-18
7.680000E+03	9.391524E-17	9.413983E-18
7.690000E+03	9.252443E-17	9.752779E-18
7.700000E+03	9.117801E-17	1.008247E-17
7.710000E+03	8.982757E-17	1.039783E-17
7.720000E+03	8.849720E-17	1.070146E-17
7.730000E+03	8.720961E-17	1.099634E-17
7.740000E+03	8.591839E-17	1.127690E-17
7.750000E+03	8.466890E-17	1.154912E-17
7.760000E+03	8.341600E-17	1.180718E-17
