#wls	flux	fluxerr
1.600160E+03	6.911137E-16	2.082686E-17
1.640164E+03	6.979062E-16	2.096802E-17
1.680168E+03	7.018425E-16	2.102084E-17
1.720172E+03	7.027937E-16	2.098220E-17
1.760176E+03	7.005322E-16	2.084616E-17
1.800180E+03	6.945036E-16	2.059722E-17
1.840184E+03	6.837494E-16	2.020819E-17
1.880188E+03	6.676273E-16	1.966166E-17
1.920192E+03	6.451628E-16	1.893082E-17
1.960196E+03	6.163357E-16	1.801727E-17
2.000200E+03	5.824052E-16	1.695997E-17
2.040204E+03	5.466029E-16	1.585460E-17
2.080208E+03	5.143887E-16	1.485981E-17
2.120212E+03	4.926150E-16	1.417167E-17
2.160216E+03	4.864696E-16	1.393522E-17
2.200220E+03	4.978001E-16	1.419742E-17
2.240224E+03	5.242462E-16	1.488458E-17
2.280228E+03	5.614413E-16	1.586727E-17
2.320232E+03	6.046385E-16	1.700744E-17
2.360236E+03	6.499382E-16	1.819317E-17
2.400240E+03	6.950686E-16	1.935993E-17
2.440244E+03	7.388983E-16	2.047606E-17
2.480248E+03	7.813768E-16	2.154035E-17
2.520252E+03	8.226183E-16	2.255615E-17
2.560256E+03	8.634885E-16	2.354727E-17
2.600260E+03	9.043789E-16	2.452415E-17
2.640264E+03	9.463809E-16	2.551587E-17
2.680268E+03	9.902593E-16	2.654205E-17
2.720272E+03	1.036962E-15	2.762674E-17
2.760276E+03	1.087652E-15	2.879893E-17
2.800280E+03	1.143309E-15	3.008211E-17
2.840284E+03	1.205329E-15	3.150984E-17
2.880288E+03	1.275134E-15	3.311537E-17
2.920292E+03	1.354671E-15	3.494440E-17
2.960296E+03	1.445691E-15	3.703614E-17
3.000300E+03	1.550747E-15	3.944880E-17
3.010301E+03	1.579525E-15	4.010930E-17
3.020302E+03	1.609460E-15	4.079628E-17
3.030303E+03	1.640599E-15	4.151075E-17
3.040304E+03	1.672848E-15	4.225016E-17
3.050305E+03	1.706555E-15	4.302311E-17
3.060306E+03	1.741898E-15	4.383389E-17
3.070307E+03	1.778724E-15	4.467842E-17
3.080308E+03	1.817429E-15	4.556635E-17
3.090309E+03	1.857680E-15	4.648916E-17
3.100310E+03	1.899891E-15	4.745689E-17
3.110311E+03	1.943730E-15	4.846102E-17
3.120312E+03	1.989628E-15	4.951199E-17
3.130313E+03	2.037448E-15	5.060612E-17
3.140314E+03	2.087048E-15	5.173960E-17
3.150315E+03	2.139090E-15	5.292851E-17
3.160316E+03	2.193039E-15	5.415933E-17
3.170317E+03	2.249375E-15	5.544355E-17
3.180318E+03	2.307969E-15	5.677767E-17
3.190319E+03	2.368900E-15	5.816326E-17
3.200320E+03	2.432469E-15	5.960737E-17
3.210321E+03	2.498773E-15	6.111197E-17
3.220322E+03	2.567689E-15	6.267362E-17
3.230323E+03	2.639541E-15	6.429984E-17
3.240324E+03	2.714205E-15	6.598716E-17
3.250325E+03	2.792259E-15	6.774917E-17
3.260326E+03	2.873347E-15	6.957674E-17
3.270327E+03	2.957823E-15	7.147795E-17
3.280328E+03	3.045806E-15	7.345517E-17
3.290329E+03	3.137416E-15	7.551074E-17
3.300330E+03	3.232767E-15	7.764687E-17
3.310331E+03	3.332230E-15	7.987183E-17
3.320332E+03	3.435367E-15	8.217454E-17
3.330333E+03	3.542761E-15	8.456836E-17
3.340334E+03	3.654142E-15	8.704620E-17
3.350335E+03	3.769700E-15	8.961196E-17
3.360336E+03	3.888934E-15	9.225310E-17
3.370337E+03	4.011735E-15	9.496650E-17
3.380338E+03	4.137488E-15	9.773705E-17
3.390339E+03	4.265000E-15	1.005362E-16
3.400340E+03	4.393694E-15	1.033501E-16
3.410341E+03	4.521470E-15	1.061292E-16
3.420342E+03	4.646887E-15	1.088399E-16
3.430343E+03	4.768019E-15	1.114375E-16
3.440344E+03	4.883205E-15	1.138840E-16
3.450345E+03	4.990235E-15	1.161289E-16
3.460346E+03	5.087509E-15	1.181360E-16
3.470347E+03	5.174242E-15	1.198889E-16
3.480348E+03	5.249603E-15	1.213698E-16
3.490349E+03	5.314158E-15	1.225935E-16
3.500350E+03	5.368910E-15	1.235848E-16
3.510351E+03	5.415554E-15	1.243842E-16
3.520352E+03	5.456376E-15	1.250452E-16
3.530353E+03	5.493703E-15	1.256219E-16
3.540354E+03	5.530993E-15	1.261939E-16
3.550355E+03	5.570943E-15	1.268224E-16
3.560356E+03	5.615299E-15	1.275469E-16
3.570357E+03	5.666575E-15	1.284236E-16
3.580358E+03	5.726015E-15	1.294796E-16
3.590359E+03	5.794155E-15	1.307259E-16
3.600360E+03	5.870474E-15	1.321492E-16
3.610361E+03	5.954362E-15	1.337348E-16
3.620362E+03	6.044535E-15	1.354528E-16
3.630363E+03	6.138426E-15	1.372448E-16
3.640364E+03	6.233215E-15	1.390473E-16
3.650365E+03	6.325541E-15	1.407856E-16
3.660366E+03	6.411922E-15	1.423825E-16
3.670367E+03	6.487938E-15	1.437413E-16
3.680368E+03	6.549997E-15	1.447840E-16
3.690369E+03	6.593459E-15	1.454106E-16
3.700370E+03	6.615473E-15	1.455611E-16
3.710371E+03	6.612984E-15	1.451718E-16
3.720372E+03	6.585582E-15	1.442376E-16
3.730373E+03	6.533788E-15	1.427734E-16
3.740374E+03	6.460765E-15	1.408521E-16
3.750375E+03	6.371217E-15	1.385792E-16
3.760376E+03	6.272586E-15	1.361187E-16
3.770377E+03	6.172769E-15	1.336429E-16
3.780378E+03	6.081453E-15	1.313613E-16
3.790379E+03	6.008479E-15	1.294848E-16
3.800380E+03	5.963866E-15	1.282258E-16
3.810381E+03	5.956467E-15	1.277703E-16
3.820382E+03	5.995618E-15	1.283123E-16
3.830383E+03	6.088729E-15	1.300034E-16
3.840384E+03	6.242810E-15	1.329847E-16
3.850385E+03	6.464391E-15	1.373863E-16
3.860386E+03	6.757944E-15	1.432930E-16
3.870387E+03	7.127410E-15	1.507779E-16
3.880388E+03	7.573816E-15	1.598515E-16
3.890389E+03	8.096687E-15	1.704930E-16
3.900390E+03	8.691840E-15	1.826036E-16
3.910391E+03	9.352413E-15	1.960293E-16
3.920392E+03	1.006792E-14	2.105418E-16
3.930393E+03	1.082569E-14	2.258692E-16
3.940394E+03	1.161236E-14	2.417278E-16
3.950395E+03	1.241263E-14	2.577960E-16
3.960396E+03	1.321423E-14	2.738188E-16
3.970397E+03	1.400472E-14	2.895390E-16
3.980398E+03	1.477499E-14	3.047710E-16
3.990399E+03	1.551575E-14	3.193270E-16
4.000400E+03	1.621972E-14	3.330626E-16
4.010401E+03	1.687937E-14	3.458289E-16
4.020402E+03	1.748637E-14	3.574625E-16
4.030403E+03	1.803345E-14	3.678233E-16
4.040404E+03	1.851156E-14	3.767355E-16
4.050405E+03	1.891372E-14	3.840678E-16
4.060406E+03	1.923395E-14	3.897093E-16
4.070407E+03	1.946832E-14	3.935923E-16
4.080408E+03	1.961497E-14	3.956910E-16
4.090409E+03	1.967571E-14	3.960537E-16
4.100410E+03	1.965366E-14	3.947549E-16
4.110411E+03	1.955694E-14	3.919680E-16
4.120412E+03	1.939344E-14	3.878608E-16
4.130413E+03	1.917533E-14	3.826845E-16
4.140414E+03	1.891625E-14	3.767177E-16
4.150415E+03	1.863276E-14	3.702947E-16
4.160416E+03	1.834265E-14	3.637711E-16
4.170417E+03	1.806386E-14	3.575027E-16
4.180418E+03	1.781515E-14	3.518584E-16
4.190419E+03	1.761446E-14	3.471880E-16
4.200420E+03	1.747637E-14	3.437725E-16
4.210421E+03	1.741322E-14	3.418466E-16
4.220422E+03	1.743247E-14	3.415480E-16
4.230423E+03	1.753680E-14	3.429192E-16
4.240424E+03	1.772397E-14	3.459074E-16
4.250425E+03	1.798638E-14	3.503555E-16
4.260426E+03	1.831050E-14	3.559927E-16
4.270427E+03	1.867909E-14	3.624777E-16
4.280428E+03	1.906982E-14	3.693746E-16
4.290429E+03	1.945985E-14	3.762397E-16
4.300430E+03	1.982471E-14	3.826018E-16
4.310431E+03	2.014174E-14	3.880277E-16
4.320432E+03	2.039319E-14	3.921818E-16
4.330433E+03	2.056613E-14	3.948230E-16
4.340434E+03	2.065386E-14	3.958314E-16
4.350435E+03	2.065729E-14	3.952329E-16
4.360436E+03	2.058382E-14	3.931775E-16
4.370437E+03	2.044698E-14	3.899302E-16
4.380438E+03	2.026725E-14	3.858871E-16
4.390439E+03	2.006895E-14	3.815143E-16
4.400440E+03	1.987570E-14	3.772615E-16
4.410441E+03	1.970786E-14	3.735140E-16
4.420442E+03	1.958457E-14	3.706316E-16
4.430443E+03	1.952269E-14	3.689293E-16
4.440444E+03	1.953434E-14	3.686309E-16
4.450445E+03	1.962805E-14	3.698911E-16
4.460446E+03	1.980777E-14	3.727777E-16
4.470447E+03	2.007400E-14	3.772943E-16
4.480448E+03	2.042476E-14	3.833971E-16
4.490449E+03	2.085403E-14	3.909682E-16
4.500450E+03	2.135273E-14	3.998325E-16
4.510451E+03	2.190769E-14	4.097395E-16
4.520452E+03	2.250002E-14	4.203338E-16
4.530453E+03	2.310607E-14	4.311723E-16
4.540454E+03	2.369692E-14	4.417160E-16
4.550455E+03	2.423952E-14	4.513514E-16
4.560456E+03	2.470138E-14	4.594778E-16
4.570457E+03	2.505068E-14	4.655088E-16
4.580458E+03	2.526226E-14	4.689842E-16
4.590459E+03	2.531985E-14	4.696100E-16
4.600460E+03	2.521718E-14	4.672778E-16
4.610461E+03	2.496078E-14	4.621166E-16
4.620462E+03	2.456683E-14	4.544324E-16
4.630463E+03	2.406038E-14	4.446938E-16
4.640464E+03	2.347122E-14	4.334556E-16
4.650465E+03	2.283215E-14	4.213254E-16
4.660466E+03	2.217548E-14	4.088999E-16
4.670467E+03	2.153111E-14	3.967300E-16
4.680468E+03	2.092629E-14	3.853156E-16
4.690469E+03	2.038390E-14	3.750750E-16
4.700470E+03	1.992289E-14	3.663540E-16
4.710471E+03	1.955692E-14	3.593993E-16
4.720472E+03	1.929354E-14	3.543458E-16
4.730473E+03	1.913426E-14	3.512174E-16
4.740474E+03	1.907431E-14	3.499231E-16
4.750475E+03	1.910313E-14	3.502657E-16
4.760476E+03	1.920445E-14	3.519447E-16
4.770477E+03	1.935736E-14	3.545749E-16
4.780478E+03	1.953959E-14	3.577470E-16
4.790479E+03	1.972762E-14	3.610301E-16
4.800480E+03	1.989999E-14	3.640317E-16
4.810481E+03	2.004066E-14	3.664589E-16
4.820482E+03	2.013893E-14	3.681166E-16
4.830483E+03	2.019246E-14	3.689632E-16
4.840484E+03	2.020576E-14	3.690820E-16
4.850485E+03	2.019087E-14	3.686930E-16
4.860486E+03	2.016491E-14	3.681093E-16
4.870487E+03	2.014875E-14	3.677120E-16
4.880488E+03	2.016558E-14	3.679237E-16
4.890489E+03	2.023766E-14	3.691500E-16
4.900490E+03	2.038540E-14	3.717624E-16
4.910491E+03	2.062474E-14	3.760504E-16
4.920492E+03	2.096470E-14	3.821777E-16
4.930493E+03	2.140525E-14	3.901429E-16
4.940494E+03	2.193572E-14	3.997509E-16
4.950495E+03	2.253395E-14	4.105977E-16
4.960496E+03	2.316687E-14	4.220806E-16
4.970497E+03	2.379295E-14	4.334433E-16
4.980498E+03	2.436830E-14	4.438869E-16
4.990499E+03	2.485078E-14	4.526443E-16
5.000500E+03	2.520992E-14	4.591614E-16
5.010501E+03	2.542945E-14	4.631421E-16
5.020502E+03	2.551010E-14	4.646006E-16
5.030503E+03	2.546998E-14	4.638663E-16
5.040504E+03	2.534006E-14	4.615034E-16
5.050505E+03	2.516036E-14	4.582405E-16
5.060506E+03	2.497304E-14	4.548453E-16
5.070507E+03	2.481759E-14	4.520367E-16
5.080508E+03	2.472751E-14	4.504248E-16
5.090509E+03	2.472679E-14	4.504468E-16
5.100510E+03	2.482893E-14	4.523488E-16
5.110511E+03	2.503650E-14	4.561783E-16
5.120512E+03	2.534169E-14	4.617935E-16
5.130513E+03	2.572845E-14	4.689027E-16
5.140514E+03	2.617443E-14	4.770995E-16
5.150515E+03	2.665509E-14	4.859370E-16
5.160516E+03	2.714595E-14	4.949694E-16
5.170517E+03	2.762546E-14	5.038043E-16
5.180518E+03	2.807820E-14	5.121603E-16
5.190519E+03	2.849469E-14	5.198645E-16
5.200520E+03	2.887289E-14	5.268794E-16
5.210521E+03	2.921516E-14	5.332480E-16
5.220522E+03	2.952885E-14	5.391040E-16
5.230523E+03	2.982288E-14	5.446103E-16
5.240524E+03	3.010738E-14	5.499514E-16
5.250525E+03	3.038948E-14	5.552580E-16
5.260526E+03	3.067520E-14	5.606402E-16
5.270527E+03	3.096641E-14	5.661319E-16
5.280528E+03	3.126093E-14	5.716940E-16
5.290529E+03	3.155329E-14	5.772264E-16
5.300530E+03	3.183633E-14	5.825982E-16
5.310531E+03	3.209995E-14	5.876246E-16
5.320532E+03	3.233455E-14	5.921293E-16
5.330533E+03	3.253001E-14	5.959267E-16
5.340534E+03	3.267898E-14	5.988811E-16
5.350535E+03	3.277443E-14	6.008632E-16
5.360536E+03	3.281365E-14	6.018218E-16
5.370537E+03	3.279585E-14	6.017414E-16
5.380538E+03	3.272511E-14	6.006954E-16
5.390539E+03	3.260860E-14	5.988142E-16
5.400540E+03	3.246004E-14	5.963491E-16
5.410541E+03	3.229674E-14	5.936169E-16
5.420542E+03	3.214213E-14	5.910482E-16
5.430543E+03	3.202235E-14	5.891239E-16
5.440544E+03	3.196656E-14	5.883817E-16
5.450545E+03	3.200262E-14	5.893364E-16
5.460546E+03	3.215739E-14	5.924851E-16
5.470547E+03	3.245249E-14	5.982301E-16
5.480548E+03	3.290191E-14	6.068334E-16
5.490549E+03	3.351192E-14	6.184154E-16
5.500550E+03	3.426759E-14	6.327058E-16
5.510551E+03	3.510472E-14	6.485227E-16
5.520552E+03	3.594442E-14	6.644110E-16
5.530553E+03	3.670184E-14	6.788011E-16
5.540554E+03	3.729755E-14	6.902210E-16
5.550555E+03	3.766222E-14	6.973814E-16
5.560556E+03	3.774632E-14	6.993570E-16
5.570557E+03	3.752096E-14	6.956025E-16
5.580558E+03	3.697997E-14	6.859927E-16
5.590559E+03	3.613597E-14	6.707506E-16
5.600560E+03	3.501440E-14	6.503377E-16
5.610561E+03	3.365025E-14	6.253940E-16
5.620562E+03	3.208389E-14	5.966609E-16
5.630563E+03	3.035954E-14	5.649537E-16
5.640564E+03	2.852597E-14	5.311741E-16
5.650565E+03	2.663521E-14	4.962870E-16
5.660566E+03	2.474376E-14	4.613432E-16
5.670567E+03	2.290869E-14	4.274069E-16
5.680568E+03	2.118724E-14	3.955483E-16
5.690569E+03	1.963090E-14	3.667328E-16
5.700570E+03	1.828388E-14	3.417931E-16
5.710571E+03	1.718065E-14	3.213810E-16
5.720572E+03	1.634616E-14	3.059723E-16
5.730573E+03	1.579835E-14	2.959132E-16
5.740574E+03	1.555088E-14	2.914698E-16
5.750575E+03	1.561469E-14	2.928586E-16
5.760576E+03	1.600112E-14	3.003035E-16
5.770577E+03	1.672107E-14	3.140212E-16
5.780578E+03	1.778363E-14	3.341949E-16
5.790579E+03	1.919121E-14	3.608820E-16
5.800580E+03	2.093441E-14	3.939183E-16
5.810581E+03	2.298474E-14	4.327793E-16
5.820582E+03	2.528926E-14	4.764783E-16
5.830583E+03	2.776604E-14	5.234796E-16
5.840584E+03	3.030639E-14	5.717384E-16
5.850585E+03	3.278337E-14	6.188600E-16
5.860586E+03	3.506276E-14	6.623061E-16
5.870587E+03	3.702165E-14	6.997460E-16
5.880588E+03	3.856224E-14	7.293178E-16
5.890589E+03	3.962212E-14	7.498253E-16
5.900590E+03	4.017941E-14	7.608365E-16
5.910591E+03	4.025000E-14	7.626351E-16
5.920592E+03	3.988054E-14	7.560881E-16
5.930593E+03	3.913694E-14	7.424312E-16
5.940594E+03	3.809767E-14	7.231409E-16
5.950595E+03	3.684371E-14	6.997455E-16
5.960596E+03	3.545393E-14	6.737371E-16
5.970597E+03	3.399939E-14	6.464628E-16
5.980598E+03	3.254162E-14	6.190914E-16
5.990599E+03	3.113177E-14	5.925967E-16
6.000600E+03	2.981026E-14	5.677506E-16
6.010601E+03	2.860600E-14	5.451074E-16
6.020602E+03	2.753925E-14	5.250571E-16
6.030603E+03	2.662133E-14	5.078203E-16
6.040604E+03	2.585690E-14	4.934905E-16
6.050605E+03	2.524470E-14	4.820487E-16
6.060606E+03	2.477932E-14	4.733958E-16
6.070607E+03	2.445199E-14	4.673689E-16
6.080608E+03	2.425140E-14	4.637552E-16
6.090609E+03	2.416517E-14	4.623215E-16
6.100610E+03	2.418049E-14	4.628255E-16
6.110611E+03	2.428613E-14	4.650551E-16
6.120612E+03	2.447283E-14	4.688347E-16
6.130613E+03	2.473495E-14	4.740582E-16
6.140614E+03	2.507151E-14	4.807082E-16
6.150615E+03	2.548426E-14	4.888201E-16
6.160616E+03	2.597774E-14	4.984825E-16
6.170617E+03	2.655481E-14	5.097515E-16
6.180618E+03	2.721394E-14	5.225992E-16
6.190619E+03	2.794611E-14	5.368537E-16
6.200620E+03	2.873104E-14	5.521263E-16
6.210621E+03	2.953653E-14	5.677984E-16
6.220622E+03	3.031927E-14	5.830369E-16
6.230623E+03	3.102928E-14	5.968795E-16
6.240624E+03	3.161482E-14	6.083287E-16
6.250625E+03	3.203023E-14	6.165031E-16
6.260626E+03	3.224361E-14	6.207853E-16
6.270627E+03	3.224310E-14	6.209433E-16
6.280628E+03	3.203906E-14	6.171732E-16
6.290629E+03	3.166539E-14	6.101255E-16
6.300630E+03	3.117507E-14	6.008188E-16
6.310631E+03	3.063444E-14	5.905308E-16
6.320632E+03	3.011786E-14	5.806946E-16
6.330633E+03	2.969715E-14	5.726962E-16
6.340634E+03	2.943893E-14	5.678217E-16
6.350635E+03	2.939728E-14	5.671165E-16
6.360636E+03	2.961205E-14	5.713514E-16
6.370637E+03	3.010303E-14	5.809105E-16
6.380638E+03	3.087095E-14	5.958100E-16
6.390639E+03	3.189239E-14	6.155995E-16
6.400640E+03	3.312224E-14	6.394090E-16
6.410641E+03	3.449088E-14	6.658948E-16
6.420642E+03	3.591138E-14	6.933786E-16
6.430643E+03	3.728273E-14	7.199086E-16
6.440644E+03	3.850160E-14	7.434884E-16
6.450645E+03	3.947585E-14	7.623373E-16
6.460646E+03	4.013693E-14	7.751301E-16
6.470647E+03	4.044897E-14	7.811730E-16
6.480648E+03	4.041912E-14	7.806031E-16
6.490649E+03	4.009259E-14	7.742935E-16
6.500650E+03	3.954796E-14	7.637621E-16
6.510651E+03	3.888479E-14	7.509321E-16
6.520652E+03	3.820818E-14	7.378339E-16
6.530653E+03	3.761726E-14	7.263820E-16
6.540654E+03	3.718397E-14	7.179654E-16
6.550655E+03	3.694065E-14	7.132085E-16
6.560656E+03	3.689648E-14	7.122875E-16
6.570657E+03	3.703968E-14	7.149742E-16
6.580658E+03	3.733742E-14	7.206333E-16
6.590659E+03	3.774084E-14	7.283210E-16
6.600660E+03	3.819039E-14	7.368865E-16
6.610661E+03	3.862011E-14	7.450570E-16
6.620662E+03	3.896691E-14	7.516155E-16
6.630663E+03	3.917562E-14	7.554981E-16
6.640664E+03	3.920500E-14	7.559115E-16
6.650665E+03	3.902943E-14	7.523636E-16
6.660666E+03	3.864085E-14	7.447021E-16
6.670667E+03	3.804369E-14	7.330151E-16
6.680668E+03	3.725432E-14	7.176214E-16
6.690669E+03	3.629404E-14	6.989349E-16
6.700670E+03	3.518955E-14	6.774728E-16
6.710671E+03	3.396810E-14	6.537632E-16
6.720672E+03	3.265652E-14	6.283248E-16
6.730673E+03	3.128188E-14	6.016811E-16
6.740674E+03	2.986907E-14	5.743129E-16
6.750675E+03	2.844077E-14	5.466581E-16
6.760676E+03	2.701834E-14	5.191286E-16
6.770677E+03	2.562059E-14	4.920864E-16
6.780678E+03	2.426412E-14	4.658510E-16
6.790679E+03	2.296383E-14	4.407085E-16
6.800680E+03	2.173259E-14	4.169051E-16
6.810681E+03	2.058299E-14	3.946821E-16
6.820682E+03	1.952732E-14	3.742733E-16
6.830683E+03	1.857859E-14	3.559268E-16
6.840684E+03	1.775085E-14	3.399096E-16
6.850685E+03	1.706070E-14	3.265364E-16
6.860686E+03	1.652496E-14	3.161261E-16
6.870687E+03	1.616259E-14	3.090370E-16
6.880688E+03	1.599322E-14	3.056395E-16
6.890689E+03	1.603651E-14	3.063036E-16
6.900690E+03	1.631125E-14	3.113816E-16
6.910691E+03	1.683433E-14	3.211881E-16
6.920692E+03	1.761904E-14	3.359686E-16
6.930693E+03	1.867120E-14	3.558248E-16
6.940694E+03	1.998831E-14	3.806996E-16
6.950695E+03	2.155313E-14	4.102551E-16
6.960696E+03	2.333208E-14	4.438430E-16
6.970697E+03	2.527206E-14	4.804450E-16
6.980698E+03	2.730210E-14	5.187064E-16
6.990699E+03	2.933601E-14	5.569857E-16
7.000700E+03	3.127889E-14	5.934815E-16
7.010701E+03	3.303770E-14	6.264318E-16
7.020702E+03	3.452962E-14	6.542734E-16
7.030703E+03	3.569276E-14	6.758442E-16
7.040704E+03	3.649134E-14	6.904793E-16
7.050705E+03	3.691773E-14	6.980492E-16
7.060706E+03	3.699421E-14	6.989895E-16
7.070707E+03	3.676553E-14	6.941600E-16
7.080708E+03	3.629198E-14	6.847104E-16
7.090709E+03	3.564432E-14	6.719861E-16
7.100710E+03	3.489297E-14	6.573212E-16
7.110711E+03	3.410562E-14	6.419951E-16
7.120712E+03	3.334149E-14	6.271237E-16
7.130713E+03	3.264964E-14	6.136282E-16
7.140714E+03	3.206777E-14	6.022142E-16
7.150715E+03	3.162303E-14	5.933868E-16
7.160716E+03	3.133218E-14	5.874540E-16
7.170717E+03	3.120291E-14	5.845534E-16
7.180718E+03	3.123289E-14	5.846341E-16
7.190719E+03	3.141233E-14	5.875057E-16
7.200720E+03	3.172421E-14	5.928437E-16
7.210721E+03	3.214373E-14	6.001786E-16
7.220722E+03	3.264008E-14	6.089309E-16
7.230723E+03	3.317690E-14	6.184190E-16
7.240724E+03	3.371489E-14	6.279094E-16
7.250725E+03	3.421411E-14	6.366588E-16
7.260726E+03	3.463468E-14	6.439279E-16
7.270727E+03	3.494200E-14	6.490777E-16
7.280728E+03	3.510848E-14	6.516022E-16
7.290729E+03	3.511537E-14	6.511604E-16
7.300730E+03	3.495542E-14	6.476263E-16
7.310731E+03	3.463107E-14	6.410533E-16
7.320732E+03	3.415638E-14	6.317098E-16
7.330733E+03	3.355248E-14	6.199939E-16
7.340734E+03	3.284777E-14	6.064366E-16
7.350735E+03	3.207207E-14	5.915931E-16
7.360736E+03	3.125606E-14	5.760325E-16
7.370737E+03	3.042644E-14	5.602486E-16
7.380738E+03	2.960502E-14	5.446436E-16
7.390739E+03	2.880832E-14	5.295210E-16
7.400740E+03	2.804562E-14	5.150499E-16
7.410741E+03	2.732024E-14	5.012898E-16
7.420742E+03	2.663088E-14	4.882153E-16
7.430743E+03	2.597296E-14	4.757409E-16
7.440744E+03	2.533755E-14	4.637018E-16
7.450745E+03	2.471629E-14	4.519437E-16
7.460746E+03	2.409982E-14	4.402956E-16
7.470747E+03	2.348069E-14	4.286210E-16
7.480748E+03	2.285299E-14	4.168122E-16
7.490749E+03	2.221475E-14	4.048337E-16
7.500750E+03	2.156682E-14	3.927016E-16
7.510751E+03	2.091354E-14	3.804950E-16
7.520752E+03	2.026360E-14	3.683722E-16
7.530753E+03	1.962769E-14	3.565271E-16
7.540754E+03	1.901908E-14	3.451995E-16
7.550755E+03	1.845174E-14	3.346419E-16
7.560756E+03	1.794011E-14	3.251137E-16
7.570757E+03	1.749769E-14	3.168571E-16
7.580758E+03	1.713690E-14	3.100938E-16
7.590759E+03	1.686899E-14	3.050241E-16
7.600760E+03	1.670344E-14	3.018152E-16
7.610761E+03	1.664808E-14	3.006051E-16
7.620762E+03	1.670907E-14	3.015006E-16
7.630763E+03	1.689081E-14	3.045770E-16
7.640764E+03	1.719481E-14	3.098578E-16
7.650765E+03	1.761992E-14	3.173182E-16
7.660766E+03	1.816090E-14	3.268609E-16
7.670767E+03	1.880652E-14	3.382803E-16
7.680768E+03	1.954030E-14	3.512782E-16
7.690769E+03	2.033807E-14	3.654184E-16
7.700770E+03	2.116906E-14	3.801477E-16
7.710771E+03	2.199560E-14	3.947905E-16
7.720772E+03	2.277630E-14	4.086055E-16
7.730773E+03	2.346808E-14	4.208229E-16
7.740774E+03	2.402982E-14	4.307089E-16
7.750775E+03	2.442693E-14	4.376480E-16
7.760776E+03	2.463547E-14	4.412161E-16
