#wls	flux	fluxerr
1.600160E+03	5.438562E-16	7.325254E-18
1.640164E+03	5.502066E-16	7.401494E-18
1.680168E+03	5.543387E-16	7.447492E-18
1.720172E+03	5.561406E-16	7.461857E-18
1.760176E+03	5.554222E-16	7.442158E-18
1.800180E+03	5.517269E-16	7.382421E-18
1.840184E+03	5.442803E-16	7.272465E-18
1.880188E+03	5.323604E-16	7.102881E-18
1.920192E+03	5.155413E-16	6.868264E-18
1.960196E+03	4.935009E-16	6.564642E-18
2.000200E+03	4.673057E-16	6.206523E-18
2.040204E+03	4.394534E-16	5.827321E-18
2.080208E+03	4.144848E-16	5.487287E-18
2.120212E+03	3.978017E-16	5.257665E-18
2.160216E+03	3.937319E-16	5.195030E-18
2.200220E+03	4.037931E-16	5.318529E-18
2.240224E+03	4.262375E-16	5.604192E-18
2.280228E+03	4.575981E-16	6.005623E-18
2.320232E+03	4.939207E-16	6.470340E-18
2.360236E+03	5.322027E-16	6.958674E-18
2.400240E+03	5.705228E-16	7.445357E-18
2.440244E+03	6.080469E-16	7.919469E-18
2.480248E+03	6.445511E-16	8.378114E-18
2.520252E+03	6.803184E-16	8.824996E-18
2.560256E+03	7.157660E-16	9.265530E-18
2.600260E+03	7.514255E-16	9.706569E-18
2.640264E+03	7.882107E-16	1.015983E-17
2.680268E+03	8.265681E-16	1.063093E-17
2.720272E+03	8.674236E-16	1.113156E-17
2.760276E+03	9.116821E-16	1.167307E-17
2.800280E+03	9.603658E-16	1.226817E-17
2.840284E+03	1.014536E-15	1.292996E-17
2.880288E+03	1.075716E-15	1.367726E-17
2.920292E+03	1.145492E-15	1.452952E-17
2.960296E+03	1.225998E-15	1.551290E-17
3.000300E+03	1.320252E-15	1.666445E-17
3.010301E+03	1.346352E-15	1.698337E-17
3.020302E+03	1.373561E-15	1.731581E-17
3.030303E+03	1.402094E-15	1.766451E-17
3.040304E+03	1.431759E-15	1.802697E-17
3.050305E+03	1.463042E-15	1.840930E-17
3.060306E+03	1.496146E-15	1.881402E-17
3.070307E+03	1.530836E-15	1.923811E-17
3.080308E+03	1.567505E-15	1.968650E-17
3.090309E+03	1.606255E-15	2.016040E-17
3.100310E+03	1.646867E-15	2.065700E-17
3.110311E+03	1.689953E-15	2.118396E-17
3.120312E+03	1.735146E-15	2.173659E-17
3.130313E+03	1.783103E-15	2.232309E-17
3.140314E+03	1.833471E-15	2.293894E-17
3.150315E+03	1.886958E-15	2.359298E-17
3.160316E+03	1.943225E-15	2.428087E-17
3.170317E+03	2.003043E-15	2.501217E-17
3.180318E+03	2.066285E-15	2.578521E-17
3.190319E+03	2.133409E-15	2.660562E-17
3.200320E+03	2.204512E-15	2.747452E-17
3.210321E+03	2.280325E-15	2.840091E-17
3.220322E+03	2.360797E-15	2.938403E-17
3.230323E+03	2.446305E-15	3.042848E-17
3.240324E+03	2.537716E-15	3.154489E-17
3.250325E+03	2.635056E-15	3.273345E-17
3.260326E+03	2.739298E-15	3.400609E-17
3.270327E+03	2.850532E-15	3.536377E-17
3.280328E+03	2.969600E-15	3.681673E-17
3.290329E+03	3.097159E-15	3.837296E-17
3.300330E+03	3.233921E-15	4.004102E-17
3.310331E+03	3.380927E-15	4.183360E-17
3.320332E+03	3.538438E-15	4.375366E-17
3.330333E+03	3.707901E-15	4.581884E-17
3.340334E+03	3.889704E-15	4.803362E-17
3.350335E+03	4.085577E-15	5.041908E-17
3.360336E+03	4.296327E-15	5.298478E-17
3.370337E+03	4.522688E-15	5.573945E-17
3.380338E+03	4.765040E-15	5.868737E-17
3.390339E+03	5.022333E-15	6.181523E-17
3.400340E+03	5.292843E-15	6.510147E-17
3.410341E+03	5.573672E-15	6.851014E-17
3.420342E+03	5.859954E-15	7.198123E-17
3.430343E+03	6.144010E-15	7.542034E-17
3.440344E+03	6.417930E-15	7.873051E-17
3.450345E+03	6.669887E-15	8.176701E-17
3.460346E+03	6.888614E-15	8.439235E-17
3.470347E+03	7.064359E-15	8.648795E-17
3.480348E+03	7.189496E-15	8.796158E-17
3.490349E+03	7.260707E-15	8.877390E-17
3.500350E+03	7.280123E-15	8.895228E-17
3.510351E+03	7.254848E-15	8.858473E-17
3.520352E+03	7.197761E-15	8.782949E-17
3.530353E+03	7.124662E-15	8.687998E-17
3.540354E+03	7.052326E-15	8.594107E-17
3.550355E+03	6.995518E-15	8.519250E-17
3.560356E+03	6.965389E-15	8.476964E-17
3.570357E+03	6.967735E-15	8.474233E-17
3.580358E+03	7.005307E-15	8.514325E-17
3.590359E+03	7.076016E-15	8.594616E-17
3.600360E+03	7.173907E-15	8.707802E-17
3.610361E+03	7.292638E-15	8.846124E-17
3.620362E+03	7.426138E-15	9.002177E-17
3.630363E+03	7.569656E-15	9.170170E-17
3.640364E+03	7.718883E-15	9.344865E-17
3.650365E+03	7.871128E-15	9.522992E-17
3.660366E+03	8.023870E-15	9.701502E-17
3.670367E+03	8.171264E-15	9.873329E-17
3.680368E+03	8.302183E-15	1.002506E-16
3.690369E+03	8.402007E-15	1.013908E-16
3.700370E+03	8.454856E-15	1.019631E-16
3.710371E+03	8.445195E-15	1.017816E-16
3.720032E+03	5.275647E-15	6.354306E-17
3.725073E+03	5.539520E-15	6.669995E-17
3.730113E+03	5.884594E-15	7.083225E-17
3.735174E+03	6.278714E-15	7.555204E-17
3.740234E+03	6.682526E-15	8.038542E-17
3.745295E+03	7.042655E-15	8.469046E-17
3.750375E+03	7.340595E-15	8.824508E-17
3.755456E+03	7.535668E-15	9.056126E-17
3.760536E+03	7.604973E-15	9.136505E-17
3.765637E+03	7.550197E-15	9.067804E-17
3.770737E+03	7.402982E-15	8.888169E-17
3.775848E+03	7.186617E-15	8.625650E-17
3.780958E+03	6.965929E-15	8.358119E-17
3.786079E+03	6.721328E-15	8.062072E-17
3.791209E+03	6.443059E-15	7.725844E-17
3.796350E+03	6.150780E-15	7.373034E-17
3.801490E+03	5.865949E-15	7.029379E-17
3.806641E+03	5.594564E-15	6.702049E-17
3.811801E+03	5.341226E-15	6.396539E-17
3.816962E+03	5.144540E-15	6.159051E-17
3.822132E+03	4.988360E-15	5.970191E-17
3.827313E+03	4.851412E-15	5.804462E-17
3.832493E+03	4.748193E-15	5.679183E-17
3.837684E+03	4.655163E-15	5.566167E-17
3.842884E+03	4.576466E-15	5.470355E-17
3.848095E+03	4.535120E-15	5.419238E-17
3.853305E+03	4.537239E-15	5.420079E-17
3.858526E+03	4.571140E-15	5.458875E-17
3.863756E+03	4.658302E-15	5.561233E-17
3.868987E+03	4.802416E-15	5.731503E-17
3.874227E+03	5.011341E-15	5.978995E-17
3.879478E+03	5.356964E-15	6.389379E-17
3.884728E+03	5.885920E-15	7.018113E-17
3.889999E+03	6.610503E-15	7.879644E-17
3.895260E+03	7.526725E-15	8.969020E-17
3.900540E+03	8.625409E-15	1.027509E-16
3.905821E+03	9.870143E-15	1.175429E-16
3.911121E+03	1.121729E-14	1.335452E-16
3.916412E+03	1.258133E-14	1.497390E-16
3.921722E+03	1.384964E-14	1.647839E-16
3.927033E+03	1.493753E-14	1.776740E-16
3.932353E+03	1.573564E-14	1.871106E-16
3.937684E+03	1.619043E-14	1.924606E-16
3.943014E+03	1.626253E-14	1.932597E-16
3.948355E+03	1.599283E-14	1.899978E-16
3.953705E+03	1.546802E-14	1.837081E-16
3.959066E+03	1.482920E-14	1.760687E-16
3.964426E+03	1.416989E-14	1.681908E-16
3.969797E+03	1.356111E-14	1.609173E-16
3.975178E+03	1.313687E-14	1.558374E-16
3.980558E+03	1.296407E-14	1.537425E-16
3.985949E+03	1.306405E-14	1.548829E-16
3.991349E+03	1.341462E-14	1.589929E-16
3.996760E+03	1.396208E-14	1.654335E-16
4.002170E+03	1.462336E-14	1.732189E-16
4.007591E+03	1.531999E-14	1.814185E-16
4.013021E+03	1.600349E-14	1.894583E-16
4.018462E+03	1.661064E-14	1.965899E-16
4.023902E+03	1.711072E-14	2.024510E-16
4.029353E+03	1.749127E-14	2.068951E-16
4.034813E+03	1.777509E-14	2.101931E-16
4.040284E+03	1.793502E-14	2.120250E-16
4.045755E+03	1.800487E-14	2.127915E-16
4.051235E+03	1.799906E-14	2.126639E-16
4.056726E+03	1.792103E-14	2.116835E-16
4.062216E+03	1.778400E-14	2.100074E-16
4.067727E+03	1.762711E-14	2.080979E-16
4.073237E+03	1.747481E-14	2.062440E-16
4.078748E+03	1.732464E-14	2.044165E-16
4.084278E+03	1.716930E-14	2.025292E-16
4.089809E+03	1.700868E-14	2.005811E-16
4.095350E+03	1.683665E-14	1.984998E-16
4.100900E+03	1.665810E-14	1.963430E-16
4.106451E+03	1.650882E-14	1.945327E-16
4.112021E+03	1.643352E-14	1.935951E-16
4.117592E+03	1.645466E-14	1.937941E-16
4.123162E+03	1.659610E-14	1.954099E-16
4.128753E+03	1.682602E-14	1.980667E-16
4.134343E+03	1.708374E-14	2.010497E-16
4.139944E+03	1.732585E-14	2.038479E-16
4.145555E+03	1.750497E-14	2.059041E-16
4.151165E+03	1.756726E-14	2.065859E-16
4.156796E+03	1.746250E-14	2.053037E-16
4.162426E+03	1.717384E-14	2.018609E-16
4.168067E+03	1.671072E-14	1.963702E-16
4.173707E+03	1.610009E-14	1.891496E-16
4.179368E+03	1.539920E-14	1.808725E-16
4.185029E+03	1.464533E-14	1.719776E-16
4.190699E+03	1.389236E-14	1.630977E-16
4.196370E+03	1.321317E-14	1.550884E-16
4.202060E+03	1.267351E-14	1.487203E-16
4.207751E+03	1.231574E-14	1.444895E-16
4.213451E+03	1.215119E-14	1.425272E-16
4.219162E+03	1.217984E-14	1.428319E-16
4.224872E+03	1.238739E-14	1.452341E-16
4.230603E+03	1.273381E-14	1.492635E-16
4.236334E+03	1.315023E-14	1.541119E-16
4.242064E+03	1.358016E-14	1.591170E-16
4.247815E+03	1.397801E-14	1.637446E-16
4.253575E+03	1.434110E-14	1.679634E-16
4.259336E+03	1.467946E-14	1.718915E-16
4.265107E+03	1.505289E-14	1.762291E-16
4.270877E+03	1.548441E-14	1.812455E-16
4.276668E+03	1.597172E-14	1.869131E-16
4.282458E+03	1.650087E-14	1.930687E-16
4.288259E+03	1.700167E-14	1.988909E-16
4.294069E+03	1.741002E-14	2.036302E-16
4.299890E+03	1.769359E-14	2.069090E-16
4.305711E+03	1.783012E-14	2.084682E-16
4.311551E+03	1.782692E-14	2.083940E-16
4.317392E+03	1.770792E-14	2.069671E-16
4.323232E+03	1.750879E-14	2.046049E-16
4.329093E+03	1.729246E-14	2.020432E-16
4.334953E+03	1.712072E-14	2.000039E-16
4.340834E+03	1.701959E-14	1.987905E-16
4.346715E+03	1.696210E-14	1.980878E-16
4.352595E+03	1.687980E-14	1.970964E-16
4.358496E+03	1.672865E-14	1.953022E-16
4.364396E+03	1.644877E-14	1.920065E-16
4.370317E+03	1.602295E-14	1.870090E-16
4.376238E+03	1.546369E-14	1.804564E-16
4.382158E+03	1.481349E-14	1.728453E-16
4.388099E+03	1.415674E-14	1.651603E-16
4.394039E+03	1.358586E-14	1.584797E-16
4.400000E+03	1.318070E-14	1.537343E-16
4.405961E+03	1.299616E-14	1.515634E-16
4.411921E+03	1.306672E-14	1.523684E-16
4.417902E+03	1.338283E-14	1.560367E-16
4.423892E+03	1.387096E-14	1.617103E-16
4.429883E+03	1.445296E-14	1.684775E-16
4.435884E+03	1.505040E-14	1.754240E-16
4.441894E+03	1.563576E-14	1.822289E-16
4.447905E+03	1.617873E-14	1.885394E-16
4.453935E+03	1.665818E-14	1.941093E-16
4.459966E+03	1.705677E-14	1.987368E-16
4.466007E+03	1.737823E-14	2.024657E-16
4.472057E+03	1.764082E-14	2.055090E-16
4.478118E+03	1.785756E-14	2.080186E-16
4.484188E+03	1.805078E-14	2.102547E-16
4.490259E+03	1.824157E-14	2.124629E-16
4.496340E+03	1.845772E-14	2.149671E-16
4.502430E+03	1.874169E-14	2.182617E-16
4.508531E+03	1.911091E-14	2.225494E-16
4.514641E+03	1.958283E-14	2.280335E-16
4.520762E+03	2.019890E-14	2.351964E-16
4.526883E+03	2.095148E-14	2.439489E-16
4.533013E+03	2.180234E-14	2.538460E-16
4.539154E+03	2.269444E-14	2.642235E-16
4.545305E+03	2.355590E-14	2.742446E-16
4.551465E+03	2.436262E-14	2.836288E-16
4.557626E+03	2.507702E-14	2.919388E-16
4.563806E+03	2.567353E-14	2.988771E-16
4.569987E+03	2.613306E-14	3.042217E-16
4.576178E+03	2.645397E-14	3.079535E-16
4.582378E+03	2.667341E-14	3.105052E-16
4.588589E+03	2.680722E-14	3.120611E-16
4.594799E+03	2.685114E-14	3.125717E-16
4.601030E+03	2.678353E-14	3.117851E-16
4.607261E+03	2.658795E-14	3.095100E-16
4.613501E+03	2.626279E-14	3.057275E-16
4.619752E+03	2.580776E-14	3.004340E-16
4.626013E+03	2.522391E-14	2.936420E-16
4.632273E+03	2.456621E-14	2.859908E-16
4.638554E+03	2.390603E-14	2.783116E-16
4.644834E+03	2.332430E-14	2.715462E-16
4.651125E+03	2.287258E-14	2.662950E-16
4.657426E+03	2.257007E-14	2.627817E-16
4.663736E+03	2.238600E-14	2.606481E-16
4.670057E+03	2.220151E-14	2.585102E-16
4.676388E+03	2.184186E-14	2.543335E-16
4.682718E+03	2.114131E-14	2.461874E-16
4.689059E+03	2.004492E-14	2.334317E-16
4.695410E+03	1.862250E-14	2.168784E-16
4.701770E+03	1.702688E-14	1.983069E-16
4.708141E+03	1.548744E-14	1.803882E-16
4.714521E+03	1.424777E-14	1.659596E-16
4.720912E+03	1.349032E-14	1.571471E-16
4.727303E+03	1.331164E-14	1.550764E-16
4.733713E+03	1.372350E-14	1.598859E-16
4.740124E+03	1.457756E-14	1.698488E-16
4.746545E+03	1.571638E-14	1.831319E-16
4.752975E+03	1.693295E-14	1.973237E-16
4.759416E+03	1.802659E-14	2.100858E-16
4.765857E+03	1.891637E-14	2.204747E-16
4.772317E+03	1.960059E-14	2.284700E-16
4.778778E+03	2.013902E-14	2.347679E-16
4.785259E+03	2.058622E-14	2.400041E-16
4.791739E+03	2.098034E-14	2.446231E-16
4.798230E+03	2.130621E-14	2.484479E-16
4.804730E+03	2.153081E-14	2.510930E-16
4.811241E+03	2.163472E-14	2.523320E-16
4.817762E+03	2.160266E-14	2.519857E-16
4.824282E+03	2.146597E-14	2.504195E-16
4.830823E+03	2.126989E-14	2.481608E-16
4.837364E+03	2.106931E-14	2.458496E-16
4.843914E+03	2.090002E-14	2.439036E-16
4.850475E+03	2.076070E-14	2.423076E-16
4.857046E+03	2.059491E-14	2.404029E-16
4.863626E+03	2.042331E-14	2.384305E-16
4.870217E+03	2.019071E-14	2.357461E-16
4.876818E+03	1.982808E-14	2.315429E-16
4.883428E+03	1.931450E-14	2.255764E-16
4.890039E+03	1.864979E-14	2.178433E-16
4.896660E+03	1.788208E-14	2.089055E-16
4.903300E+03	1.709282E-14	1.997137E-16
4.909941E+03	1.641195E-14	1.917864E-16
4.916592E+03	1.594893E-14	1.864032E-16
4.923252E+03	1.580508E-14	1.847499E-16
4.929923E+03	1.604177E-14	1.875453E-16
4.936604E+03	1.667747E-14	1.950077E-16
4.943284E+03	1.770992E-14	2.071126E-16
4.949985E+03	1.909663E-14	2.233655E-16
4.956696E+03	2.076727E-14	2.429457E-16
4.963406E+03	2.259451E-14	2.643650E-16
4.970127E+03	2.438418E-14	2.853523E-16
4.976868E+03	2.592238E-14	3.034041E-16
4.983608E+03	2.705458E-14	3.167098E-16
4.990359E+03	2.768304E-14	3.241227E-16
4.997120E+03	2.782109E-14	3.257960E-16
5.003890E+03	2.754744E-14	3.226485E-16
5.010671E+03	2.698269E-14	3.160903E-16
5.017452E+03	2.625454E-14	3.076158E-16
5.024252E+03	2.545891E-14	2.983482E-16
5.031053E+03	2.466117E-14	2.890530E-16
5.037874E+03	2.389201E-14	2.800900E-16
5.044694E+03	2.316121E-14	2.715736E-16
5.051535E+03	2.239635E-14	2.626553E-16
5.058376E+03	2.155696E-14	2.528598E-16
5.065227E+03	2.064858E-14	2.422515E-16
5.072087E+03	1.974930E-14	2.317463E-16
5.078958E+03	1.897914E-14	2.227528E-16
5.085839E+03	1.848063E-14	2.169451E-16
5.092729E+03	1.838526E-14	2.158688E-16
5.099630E+03	1.875344E-14	2.202361E-16
5.106541E+03	1.955199E-14	2.296609E-16
5.113461E+03	2.068204E-14	2.429846E-16
5.120382E+03	2.198867E-14	2.583889E-16
5.127323E+03	2.330283E-14	2.738887E-16
5.134263E+03	2.447905E-14	2.877736E-16
5.141224E+03	2.543469E-14	2.990711E-16
5.148185E+03	2.613878E-14	3.074154E-16
5.155166E+03	2.658275E-14	3.127038E-16
5.162146E+03	2.681260E-14	3.154755E-16
5.169137E+03	2.688979E-14	3.164523E-16
5.176138E+03	2.685764E-14	3.161428E-16
5.183158E+03	2.677771E-14	3.152711E-16
5.190179E+03	2.670461E-14	3.144797E-16
5.197210E+03	2.666776E-14	3.141154E-16
5.204250E+03	2.669663E-14	3.145255E-16
5.211301E+03	2.677302E-14	3.154962E-16
5.218362E+03	2.685772E-14	3.165656E-16
5.225433E+03	2.692687E-14	3.174526E-16
5.232503E+03	2.696086E-14	3.179254E-16
5.239594E+03	2.697368E-14	3.181493E-16
5.246695E+03	2.696392E-14	3.181073E-16
5.253805E+03	2.694561E-14	3.179647E-16
5.260916E+03	2.693418E-14	3.179032E-16
5.268047E+03	2.697314E-14	3.184373E-16
5.275188E+03	2.708499E-14	3.198324E-16
5.282328E+03	2.729921E-14	3.224375E-16
5.289489E+03	2.757235E-14	3.257403E-16
5.296650E+03	2.786649E-14	3.292929E-16
5.303830E+03	2.813109E-14	3.324985E-16
5.311011E+03	2.832820E-14	3.349079E-16
5.318202E+03	2.844236E-14	3.363376E-16
5.325413E+03	2.846089E-14	3.366373E-16
5.332623E+03	2.841607E-14	3.361878E-16
5.339854E+03	2.830227E-14	3.349222E-16
5.347085E+03	2.817006E-14	3.334381E-16
5.354325E+03	2.806582E-14	3.322846E-16
5.361586E+03	2.802753E-14	3.319118E-16
5.368847E+03	2.808751E-14	3.327031E-16
5.376118E+03	2.823456E-14	3.345265E-16
5.383398E+03	2.843215E-14	3.369498E-16
5.390699E+03	2.862685E-14	3.393404E-16
5.398000E+03	2.877085E-14	3.411311E-16
5.405311E+03	2.881775E-14	3.417711E-16
5.412631E+03	2.873799E-14	3.409091E-16
5.419962E+03	2.850904E-14	3.382766E-16
5.427313E+03	2.814636E-14	3.340559E-16
5.434663E+03	2.769214E-14	3.287463E-16
5.442024E+03	2.719980E-14	3.229815E-16
5.449395E+03	2.674390E-14	3.176469E-16
5.456776E+03	2.641872E-14	3.138625E-16
5.464166E+03	2.636073E-14	3.132515E-16
5.471577E+03	2.665297E-14	3.168033E-16
5.478988E+03	2.736161E-14	3.253074E-16
5.486409E+03	2.847684E-14	3.386511E-16
5.493839E+03	2.992272E-14	3.559346E-16
5.501280E+03	3.161626E-14	3.761734E-16
5.508731E+03	3.339142E-14	3.973939E-16
5.516202E+03	3.502871E-14	4.169837E-16
5.523672E+03	3.635361E-14	4.328636E-16
5.531153E+03	3.725491E-14	4.437065E-16
5.538644E+03	3.763410E-14	4.483347E-16
5.546155E+03	3.740389E-14	4.457038E-16
5.553665E+03	3.658396E-14	4.360426E-16
5.561186E+03	3.526294E-14	4.204025E-16
5.568727E+03	3.361393E-14	4.008434E-16
5.576268E+03	3.181706E-14	3.795106E-16
5.583818E+03	3.004402E-14	3.584514E-16
5.591389E+03	2.843135E-14	3.392955E-16
5.598960E+03	2.710428E-14	3.235391E-16
5.606541E+03	2.614728E-14	3.121932E-16
5.614141E+03	2.555190E-14	3.051604E-16
5.621742E+03	2.525200E-14	3.016536E-16
5.629363E+03	2.509841E-14	2.998932E-16
5.636984E+03	2.505735E-14	2.994768E-16
5.644624E+03	2.499795E-14	2.988407E-16
5.652275E+03	2.476682E-14	2.961508E-16
5.659926E+03	2.426125E-14	2.901769E-16
5.667597E+03	2.345874E-14	2.806475E-16
5.675278E+03	2.230443E-14	2.669035E-16
5.682958E+03	2.079414E-14	2.488916E-16
5.690659E+03	1.897150E-14	2.271314E-16
5.698370E+03	1.693365E-14	2.027831E-16
5.706091E+03	1.479315E-14	1.771934E-16
5.713821E+03	1.271269E-14	1.523104E-16
5.721562E+03	1.084477E-14	1.299623E-16
5.729313E+03	9.302916E-15	1.115118E-16
5.737074E+03	8.161110E-15	9.784879E-17
5.744844E+03	7.518066E-15	9.016053E-17
5.752625E+03	7.450130E-15	8.936713E-17
5.760416E+03	7.956806E-15	9.546762E-17
5.768227E+03	8.946177E-15	1.073638E-16
5.776038E+03	1.042536E-14	1.251451E-16
5.783868E+03	1.229244E-14	1.475923E-16
5.791699E+03	1.446089E-14	1.736689E-16
5.799550E+03	1.685807E-14	2.025054E-16
5.807401E+03	1.945891E-14	2.338020E-16
5.815272E+03	2.216635E-14	2.663941E-16
5.823152E+03	2.488615E-14	2.991495E-16
5.831033E+03	2.744253E-14	3.299547E-16
5.838934E+03	2.966678E-14	3.567795E-16
5.846845E+03	3.140009E-14	3.777106E-16
5.854765E+03	3.260878E-14	3.923388E-16
5.862696E+03	3.333230E-14	4.011343E-16
5.870637E+03	3.361290E-14	4.046019E-16
5.878598E+03	3.351672E-14	4.035343E-16
5.886559E+03	3.315628E-14	3.992831E-16
5.894529E+03	3.267919E-14	3.936246E-16
5.902520E+03	3.217964E-14	3.876926E-16
5.910511E+03	3.174617E-14	3.825535E-16
5.918522E+03	3.145041E-14	3.790718E-16
5.926543E+03	3.123194E-14	3.765198E-16
5.934563E+03	3.099521E-14	3.737458E-16
5.942604E+03	3.063344E-14	3.694622E-16
5.950655E+03	3.006379E-14	3.626684E-16
5.958716E+03	2.924415E-14	3.528550E-16
5.966797E+03	2.825885E-14	3.410378E-16
5.974877E+03	2.714586E-14	3.276737E-16
5.982968E+03	2.597824E-14	3.136441E-16
5.991079E+03	2.481077E-14	2.996101E-16
5.999190E+03	2.370383E-14	2.863009E-16
6.007321E+03	2.270937E-14	2.743448E-16
6.015452E+03	2.185543E-14	2.640813E-16
6.023602E+03	2.115603E-14	2.556811E-16
6.031763E+03	2.061815E-14	2.492296E-16
6.039934E+03	2.022352E-14	2.445070E-16
6.048125E+03	1.991735E-14	2.408520E-16
6.056316E+03	1.968279E-14	2.380612E-16
6.064516E+03	1.951141E-14	2.360332E-16
6.072737E+03	1.941581E-14	2.349211E-16
6.080958E+03	1.942966E-14	2.351326E-16
6.089199E+03	1.957537E-14	2.369398E-16
6.097450E+03	1.983888E-14	2.401734E-16
6.105711E+03	2.015004E-14	2.439846E-16
6.113981E+03	2.047656E-14	2.479829E-16
6.122262E+03	2.072868E-14	2.510809E-16
6.130553E+03	2.086015E-14	2.527179E-16
6.138864E+03	2.090184E-14	2.532673E-16
6.147175E+03	2.079069E-14	2.519640E-16
6.155506E+03	2.055056E-14	2.490965E-16
6.163846E+03	2.031748E-14	2.463129E-16
6.172197E+03	2.019938E-14	2.449221E-16
6.180558E+03	2.041488E-14	2.475761E-16
6.188929E+03	2.111527E-14	2.561116E-16
6.197310E+03	2.235226E-14	2.711592E-16
6.205711E+03	2.407808E-14	2.921420E-16
6.214121E+03	2.613846E-14	3.171909E-16
6.222532E+03	2.829235E-14	3.433818E-16
6.230963E+03	3.026654E-14	3.673990E-16
6.239404E+03	3.189999E-14	3.872858E-16
6.247855E+03	3.316898E-14	4.027525E-16
6.256326E+03	3.401898E-14	4.131347E-16
6.264796E+03	3.449493E-14	4.189758E-16
6.273287E+03	3.464312E-14	4.208363E-16
6.281788E+03	3.448465E-14	4.189707E-16
6.290299E+03	3.412460E-14	4.146542E-16
6.298820E+03	3.347204E-14	4.067808E-16
6.307351E+03	3.243046E-14	3.941761E-16
6.315892E+03	3.086838E-14	3.752399E-16
6.324452E+03	2.879574E-14	3.500906E-16
6.333013E+03	2.645478E-14	3.216715E-16
6.341594E+03	2.417720E-14	2.940152E-16
6.350185E+03	2.237575E-14	2.721421E-16
6.358786E+03	2.134271E-14	2.596098E-16
6.367407E+03	2.125553E-14	2.585806E-16
6.376028E+03	2.209439E-14	2.688176E-16
6.384668E+03	2.365344E-14	2.878198E-16
6.393319E+03	2.570594E-14	3.128309E-16
6.401980E+03	2.798605E-14	3.406171E-16
6.410651E+03	3.017768E-14	3.673318E-16
6.419342E+03	3.210330E-14	3.908133E-16
6.428033E+03	3.369446E-14	4.102269E-16
