#wls	flux	fluxerr
1.600160E+03	6.684739E-16	1.394520E-17
1.640164E+03	6.756266E-16	1.406351E-17
1.680168E+03	6.799030E-16	1.412070E-17
1.720172E+03	6.814149E-16	1.411944E-17
1.760176E+03	6.798139E-16	1.405294E-17
1.800180E+03	6.744319E-16	1.390785E-17
1.840184E+03	6.645720E-16	1.367042E-17
1.880188E+03	6.493593E-16	1.332342E-17
1.920192E+03	6.280671E-16	1.285285E-17
1.960196E+03	6.005412E-16	1.225662E-17
2.000200E+03	5.678948E-16	1.155850E-17
2.040204E+03	5.333795E-16	1.082546E-17
2.080208E+03	5.024931E-16	1.016919E-17
2.120212E+03	4.815909E-16	9.717411E-18
2.160216E+03	4.760330E-16	9.576227E-18
2.200220E+03	4.875067E-16	9.776685E-18
2.240224E+03	5.139068E-16	1.027347E-17
2.280228E+03	5.508246E-16	1.097578E-17
2.320232E+03	5.937064E-16	1.179100E-17
2.360236E+03	6.387407E-16	1.264232E-17
2.400240E+03	6.836998E-16	1.348519E-17
2.440244E+03	7.275836E-16	1.429980E-17
2.480248E+03	7.700079E-16	1.507867E-17
2.520252E+03	8.115358E-16	1.583293E-17
2.560256E+03	8.524265E-16	1.656766E-17
2.600260E+03	8.936693E-16	1.730199E-17
2.640264E+03	9.358446E-16	1.804688E-17
2.680268E+03	9.800933E-16	1.882386E-17
2.720272E+03	1.027102E-15	1.964543E-17
2.760276E+03	1.078025E-15	2.053275E-17
2.800280E+03	1.133997E-15	2.150618E-17
2.840284E+03	1.196295E-15	2.258846E-17
2.880288E+03	1.266391E-15	2.380544E-17
2.920292E+03	1.346316E-15	2.519294E-17
2.960296E+03	1.437990E-15	2.678396E-17
3.000300E+03	1.544237E-15	2.862749E-17
3.010301E+03	1.573387E-15	2.913311E-17
3.020302E+03	1.603773E-15	2.966021E-17
3.030303E+03	1.635282E-15	3.020657E-17
3.040304E+03	1.668176E-15	3.077697E-17
3.050305E+03	1.702642E-15	3.137476E-17
3.060306E+03	1.738699E-15	3.200018E-17
3.070307E+03	1.776567E-15	3.265715E-17
3.080308E+03	1.816297E-15	3.334648E-17
3.090309E+03	1.857949E-15	3.406913E-17
3.100310E+03	1.901399E-15	3.482270E-17
3.110311E+03	1.946901E-15	3.561172E-17
3.120312E+03	1.994727E-15	3.644101E-17
3.130313E+03	2.044580E-15	3.730495E-17
3.140314E+03	2.096741E-15	3.820855E-17
3.150315E+03	2.151311E-15	3.915347E-17
3.160316E+03	2.208605E-15	4.014524E-17
3.170317E+03	2.268327E-15	4.117833E-17
3.180318E+03	2.331017E-15	4.226233E-17
3.190319E+03	2.396600E-15	4.339566E-17
3.200320E+03	2.465214E-15	4.458062E-17
3.210321E+03	2.537006E-15	4.581964E-17
3.220322E+03	2.612357E-15	4.711935E-17
3.230323E+03	2.691441E-15	4.848264E-17
3.240324E+03	2.773963E-15	4.990391E-17
3.250325E+03	2.860811E-15	5.139887E-17
3.260326E+03	2.951450E-15	5.295761E-17
3.270327E+03	3.046809E-15	5.459650E-17
3.280328E+03	3.146594E-15	5.630992E-17
3.290329E+03	3.251269E-15	5.810584E-17
3.300330E+03	3.361060E-15	5.998792E-17
3.310331E+03	3.475930E-15	6.195516E-17
3.320332E+03	3.596684E-15	6.402149E-17
3.330333E+03	3.723042E-15	6.618149E-17
3.340334E+03	3.855860E-15	6.844996E-17
3.350335E+03	3.994814E-15	7.082066E-17
3.360336E+03	4.140668E-15	7.330667E-17
3.370337E+03	4.293092E-15	7.590165E-17
3.380338E+03	4.452055E-15	7.860456E-17
3.390339E+03	4.616097E-15	8.138917E-17
3.400340E+03	4.784817E-15	8.424804E-17
3.410341E+03	4.955128E-15	8.712655E-17
3.420342E+03	5.125309E-15	8.999433E-17
3.430343E+03	5.290910E-15	9.277337E-17
3.440344E+03	5.449189E-15	9.541596E-17
3.450345E+03	5.595845E-15	9.784747E-17
3.460346E+03	5.726837E-15	9.999815E-17
3.470347E+03	5.839613E-15	1.018246E-16
3.480348E+03	5.932761E-15	1.033037E-16
3.490349E+03	6.005207E-15	1.044181E-16
3.500350E+03	6.059021E-15	1.052053E-16
3.510351E+03	6.096707E-15	1.057101E-16
3.520352E+03	6.122438E-15	1.060060E-16
3.530353E+03	6.141647E-15	1.061877E-16
3.540354E+03	6.159350E-15	1.063424E-16
3.550355E+03	6.181026E-15	1.065646E-16
3.560356E+03	6.211045E-15	1.069294E-16
3.570357E+03	6.252268E-15	1.074852E-16
3.580358E+03	6.307265E-15	1.082753E-16
3.590359E+03	6.375775E-15	1.092944E-16
3.600360E+03	6.457683E-15	1.105394E-16
3.610361E+03	6.550414E-15	1.119653E-16
3.620362E+03	6.652021E-15	1.135382E-16
3.630363E+03	6.758939E-15	1.151966E-16
3.640364E+03	6.867874E-15	1.168840E-16
3.650365E+03	6.974393E-15	1.185251E-16
3.660366E+03	7.074286E-15	1.200485E-16
3.670367E+03	7.162027E-15	1.213612E-16
3.680368E+03	7.232587E-15	1.223789E-16
3.690369E+03	7.279209E-15	1.229887E-16
3.700370E+03	7.296335E-15	1.230988E-16
3.710371E+03	7.279190E-15	1.226307E-16
3.720372E+03	7.223538E-15	1.215159E-16
3.730373E+03	7.128866E-15	1.197485E-16
3.740374E+03	6.997087E-15	1.173635E-16
3.750375E+03	6.833140E-15	1.144464E-16
3.760376E+03	6.647201E-15	1.111697E-16
3.770377E+03	6.451075E-15	1.077321E-16
3.780378E+03	6.259522E-15	1.043806E-16
3.790379E+03	6.087521E-15	1.013642E-16
3.800380E+03	5.950414E-15	9.893659E-17
3.810381E+03	5.861351E-15	9.731353E-17
3.820382E+03	5.832957E-15	9.670080E-17
3.830383E+03	5.875687E-15	9.726712E-17
3.840384E+03	5.999032E-15	9.916421E-17
3.850385E+03	6.211657E-15	1.025293E-16
3.860386E+03	6.520592E-15	1.074719E-16
3.870387E+03	6.931285E-15	1.140747E-16
3.880388E+03	7.446501E-15	1.223760E-16
3.890389E+03	8.064350E-15	1.323373E-16
3.900390E+03	8.776661E-15	1.438176E-16
3.910391E+03	9.568903E-15	1.565725E-16
3.920392E+03	1.041959E-14	1.702455E-16
3.930393E+03	1.130224E-14	1.844004E-16
3.940394E+03	1.219039E-14	1.986043E-16
3.950395E+03	1.305924E-14	2.124534E-16
3.960396E+03	1.389152E-14	2.256687E-16
3.970397E+03	1.467725E-14	2.380913E-16
3.980398E+03	1.541315E-14	2.496716E-16
3.990399E+03	1.609992E-14	2.604244E-16
4.000400E+03	1.673890E-14	2.703749E-16
4.010401E+03	1.732888E-14	2.795075E-16
4.020402E+03	1.786704E-14	2.877801E-16
4.030403E+03	1.834590E-14	2.950762E-16
4.040404E+03	1.875839E-14	3.012865E-16
4.050405E+03	1.909769E-14	3.063064E-16
4.060406E+03	1.935864E-14	3.100582E-16
4.070407E+03	1.954009E-14	3.125288E-16
4.080408E+03	1.964312E-14	3.137414E-16
4.090409E+03	1.966990E-14	3.137354E-16
4.100410E+03	1.962560E-14	3.125986E-16
4.110411E+03	1.951362E-14	3.103897E-16
4.120412E+03	1.933940E-14	3.071995E-16
4.130413E+03	1.910718E-14	3.030992E-16
4.140414E+03	1.882483E-14	2.982175E-16
4.150415E+03	1.850308E-14	2.927271E-16
4.160416E+03	1.815756E-14	2.868775E-16
4.170417E+03	1.780995E-14	2.810121E-16
4.180418E+03	1.748378E-14	2.755016E-16
4.190419E+03	1.720467E-14	2.707481E-16
4.200420E+03	1.699665E-14	2.671259E-16
4.210421E+03	1.687909E-14	2.649349E-16
4.220422E+03	1.686580E-14	2.643859E-16
4.230423E+03	1.696197E-14	2.655541E-16
4.240424E+03	1.716584E-14	2.684052E-16
4.250425E+03	1.746627E-14	2.727592E-16
4.260426E+03	1.784549E-14	2.783335E-16
4.270427E+03	1.827672E-14	2.847065E-16
4.280428E+03	1.872906E-14	2.913947E-16
4.290429E+03	1.916825E-14	2.978650E-16
4.300430E+03	1.956111E-14	3.036033E-16
4.310431E+03	1.988009E-14	3.081856E-16
4.320432E+03	2.010449E-14	3.112956E-16
4.330433E+03	2.022403E-14	3.127798E-16
4.340434E+03	2.023849E-14	3.126405E-16
4.350435E+03	2.015628E-14	3.110135E-16
4.360436E+03	1.999267E-14	3.081390E-16
4.370437E+03	1.976706E-14	3.043203E-16
4.380438E+03	1.950016E-14	2.998785E-16
4.390439E+03	1.921542E-14	2.951763E-16
4.400440E+03	1.894772E-14	2.907494E-16
4.410441E+03	1.873637E-14	2.871995E-16
4.420442E+03	1.861168E-14	2.849880E-16
4.430443E+03	1.859004E-14	2.843612E-16
4.440444E+03	1.867541E-14	2.853746E-16
4.450445E+03	1.886413E-14	2.879678E-16
4.460446E+03	1.914899E-14	2.920258E-16
4.470447E+03	1.952223E-14	2.974262E-16
4.480448E+03	1.997806E-14	3.040770E-16
4.490449E+03	2.051239E-14	3.119130E-16
4.500450E+03	2.112048E-14	3.208586E-16
4.510451E+03	2.179579E-14	3.308119E-16
4.520452E+03	2.252453E-14	3.415614E-16
4.530453E+03	2.328386E-14	3.527592E-16
4.540454E+03	2.404313E-14	3.639405E-16
4.550455E+03	2.476141E-14	3.744867E-16
4.560456E+03	2.539456E-14	3.837328E-16
4.570457E+03	2.589887E-14	3.910224E-16
4.580458E+03	2.623694E-14	3.957965E-16
4.590459E+03	2.638437E-14	3.976938E-16
4.600460E+03	2.632998E-14	3.965528E-16
4.610461E+03	2.608034E-14	3.924798E-16
4.620462E+03	2.565563E-14	3.857851E-16
4.630463E+03	2.508635E-14	3.769327E-16
4.640464E+03	2.441122E-14	3.665086E-16
4.650465E+03	2.367084E-14	3.551253E-16
4.660466E+03	2.290448E-14	3.433731E-16
4.670467E+03	2.214997E-14	3.318192E-16
4.680468E+03	2.144050E-14	3.209595E-16
4.690469E+03	2.080579E-14	3.112370E-16
4.700470E+03	2.026994E-14	3.030088E-16
4.710471E+03	1.985255E-14	2.965644E-16
4.720472E+03	1.956436E-14	2.920605E-16
4.730473E+03	1.940949E-14	2.895541E-16
4.740474E+03	1.938198E-14	2.889523E-16
4.750475E+03	1.946796E-14	2.900446E-16
4.760476E+03	1.964533E-14	2.924988E-16
4.770477E+03	1.988565E-14	2.958888E-16
4.780478E+03	2.015648E-14	2.997305E-16
4.790479E+03	2.042482E-14	3.035329E-16
4.800480E+03	2.066008E-14	3.068418E-16
4.810481E+03	2.083749E-14	3.092902E-16
4.820482E+03	2.094185E-14	3.106545E-16
4.830483E+03	2.096767E-14	3.108548E-16
4.840484E+03	2.092072E-14	3.099790E-16
4.850485E+03	2.081646E-14	3.082577E-16
4.860486E+03	2.067853E-14	3.060420E-16
4.870487E+03	2.053659E-14	3.037715E-16
4.880488E+03	2.042286E-14	3.019226E-16
4.890489E+03	2.037039E-14	3.009827E-16
4.900490E+03	2.040861E-14	3.013850E-16
4.910491E+03	2.056162E-14	3.034827E-16
4.920492E+03	2.084464E-14	3.074979E-16
4.930493E+03	2.126039E-14	3.134677E-16
4.940494E+03	2.179871E-14	3.212392E-16
4.950495E+03	2.243261E-14	3.304124E-16
4.960496E+03	2.312123E-14	3.403834E-16
4.970497E+03	2.381112E-14	3.503648E-16
4.980498E+03	2.444436E-14	3.595048E-16
4.990499E+03	2.496547E-14	3.669892E-16
5.000500E+03	2.533351E-14	3.722190E-16
5.010501E+03	2.552615E-14	3.748696E-16
5.020502E+03	2.554661E-14	3.749917E-16
5.030503E+03	2.541931E-14	3.729474E-16
5.040504E+03	2.518622E-14	3.693551E-16
5.050505E+03	2.489945E-14	3.649807E-16
5.060506E+03	2.461261E-14	3.606107E-16
5.070507E+03	2.437567E-14	3.569767E-16
5.080508E+03	2.422811E-14	3.546555E-16
5.090509E+03	2.419824E-14	3.540596E-16
5.100510E+03	2.429984E-14	3.553882E-16
5.110511E+03	2.453318E-14	3.586425E-16
5.120512E+03	2.488607E-14	3.636419E-16
5.130513E+03	2.533566E-14	3.700503E-16
5.140514E+03	2.585182E-14	3.774261E-16
5.150515E+03	2.640219E-14	3.852957E-16
5.160516E+03	2.695534E-14	3.932002E-16
5.170517E+03	2.748446E-14	4.007484E-16
5.180518E+03	2.797076E-14	4.076671E-16
5.190519E+03	2.840375E-14	4.138041E-16
5.200520E+03	2.878104E-14	4.191259E-16
5.210521E+03	2.910664E-14	4.236914E-16
5.220522E+03	2.938981E-14	4.276367E-16
5.230523E+03	2.964149E-14	4.311215E-16
5.240524E+03	2.987362E-14	4.343198E-16
5.250525E+03	3.009598E-14	4.373742E-16
5.260526E+03	3.031603E-14	4.403932E-16
5.270527E+03	3.053774E-14	4.434346E-16
5.280528E+03	3.076137E-14	4.465018E-16
5.290529E+03	3.098323E-14	4.495416E-16
5.300530E+03	3.119708E-14	4.524632E-16
5.310531E+03	3.139501E-14	4.551520E-16
5.320532E+03	3.156752E-14	4.574709E-16
5.330533E+03	3.170529E-14	4.592851E-16
5.340534E+03	3.180044E-14	4.604812E-16
5.350535E+03	3.184726E-14	4.609769E-16
5.360536E+03	3.184175E-14	4.607155E-16
5.370537E+03	3.178308E-14	4.596857E-16
5.380538E+03	3.167472E-14	4.579387E-16
5.390539E+03	3.152489E-14	4.555939E-16
5.400540E+03	3.134754E-14	4.528536E-16
5.410541E+03	3.116082E-14	4.499801E-16
5.420542E+03	3.098972E-14	4.473347E-16
5.430543E+03	3.086195E-14	4.453166E-16
5.440544E+03	3.080728E-14	4.443545E-16
5.450545E+03	3.085472E-14	4.448656E-16
5.460546E+03	3.102953E-14	4.472119E-16
5.470547E+03	3.135152E-14	4.516769E-16
5.480548E+03	3.183045E-14	4.583985E-16
5.490549E+03	3.246197E-14	4.673115E-16
5.500550E+03	3.321675E-14	4.779912E-16
5.510551E+03	3.403714E-14	4.896060E-16
5.520552E+03	3.484377E-14	5.010135E-16
5.530553E+03	3.555203E-14	5.109978E-16
5.540554E+03	3.608237E-14	5.184171E-16
5.550555E+03	3.637031E-14	5.223484E-16
5.560556E+03	3.637384E-14	5.221925E-16
5.570557E+03	3.607356E-14	5.176758E-16
5.580558E+03	3.547399E-14	5.088683E-16
5.590559E+03	3.459555E-14	4.960675E-16
5.600560E+03	3.346993E-14	4.797328E-16
5.610561E+03	3.213318E-14	4.603848E-16
5.620562E+03	3.062315E-14	4.385695E-16
5.630563E+03	2.897644E-14	4.148139E-16
5.640564E+03	2.723209E-14	3.896792E-16
5.650565E+03	2.543243E-14	3.637729E-16
5.660566E+03	2.362428E-14	3.377655E-16
5.670567E+03	2.185770E-14	3.123731E-16
5.680568E+03	2.018551E-14	2.883494E-16
5.690569E+03	1.865792E-14	2.664100E-16
5.700570E+03	1.731940E-14	2.471871E-16
5.710571E+03	1.620614E-14	2.311936E-16
5.720572E+03	1.534566E-14	2.188178E-16
5.730573E+03	1.475757E-14	2.103342E-16
5.740574E+03	1.445601E-14	2.059391E-16
5.750575E+03	1.445298E-14	2.057975E-16
5.760576E+03	1.475930E-14	2.100574E-16
5.770577E+03	1.538578E-14	2.188660E-16
5.780578E+03	1.634169E-14	2.323481E-16
5.790579E+03	1.763054E-14	2.505462E-16
5.800580E+03	1.924519E-14	2.733514E-16
5.810581E+03	2.116063E-14	3.004008E-16
5.820582E+03	2.332765E-14	3.309888E-16
5.830583E+03	2.567008E-14	3.640287E-16
5.840584E+03	2.808529E-14	3.980612E-16
5.850585E+03	3.045159E-14	4.313597E-16
5.860586E+03	3.264040E-14	4.621040E-16
5.870587E+03	3.453279E-14	4.886149E-16
5.880588E+03	3.603327E-14	5.095483E-16
5.890589E+03	3.708007E-14	5.240403E-16
5.900590E+03	3.765063E-14	5.317831E-16
5.910591E+03	3.775774E-14	5.329691E-16
5.920592E+03	3.744440E-14	5.282169E-16
5.930593E+03	3.677295E-14	5.184162E-16
5.940594E+03	3.581677E-14	5.046111E-16
5.950595E+03	3.465373E-14	4.879055E-16
5.960596E+03	3.335775E-14	4.693462E-16
5.970597E+03	3.199614E-14	4.498833E-16
5.980598E+03	3.062789E-14	4.303484E-16
5.990599E+03	2.930105E-14	4.114168E-16
6.000600E+03	2.805354E-14	3.936200E-16
6.010601E+03	2.691325E-14	3.773472E-16
6.020602E+03	2.589891E-14	3.628579E-16
6.030603E+03	2.502099E-14	3.502953E-16
6.040604E+03	2.428400E-14	3.397187E-16
6.050605E+03	2.368664E-14	3.311056E-16
6.060606E+03	2.322435E-14	3.243881E-16
6.070607E+03	2.288915E-14	3.194505E-16
6.080608E+03	2.267247E-14	3.161691E-16
6.090609E+03	2.256484E-14	3.144081E-16
6.100610E+03	2.255804E-14	3.140494E-16
6.110611E+03	2.264493E-14	3.149900E-16
6.120612E+03	2.282101E-14	3.171638E-16
6.130613E+03	2.308483E-14	3.205475E-16
6.140614E+03	2.343679E-14	3.251431E-16
6.150615E+03	2.387967E-14	3.309858E-16
6.160616E+03	2.441707E-14	3.381215E-16
6.170617E+03	2.504916E-14	3.465486E-16
6.180618E+03	2.577311E-14	3.562240E-16
6.190619E+03	2.657676E-14	3.669757E-16
6.200620E+03	2.743963E-14	3.785173E-16
6.210621E+03	2.832943E-14	3.904010E-16
6.220622E+03	2.920399E-14	4.020446E-16
6.230623E+03	3.001425E-14	4.127733E-16
6.240624E+03	3.070825E-14	4.218756E-16
6.250625E+03	3.123897E-14	4.287108E-16
6.260626E+03	3.157128E-14	4.328042E-16
6.270627E+03	3.168826E-14	4.339323E-16
6.280628E+03	3.159498E-14	4.321743E-16
6.290629E+03	3.131947E-14	4.279229E-16
6.300630E+03	3.090862E-14	4.218263E-16
6.310631E+03	3.042362E-14	4.147254E-16
6.320632E+03	2.993280E-14	4.075543E-16
6.330633E+03	2.950334E-14	4.012272E-16
6.340634E+03	2.919621E-14	3.965695E-16
6.350635E+03	2.906159E-14	3.942561E-16
6.360636E+03	2.913518E-14	3.947620E-16
6.370637E+03	2.943623E-14	3.983373E-16
6.380638E+03	2.996746E-14	4.050067E-16
6.390639E+03	3.071323E-14	4.145467E-16
6.400640E+03	3.163930E-14	4.264842E-16
6.410641E+03	3.269504E-14	4.401273E-16
6.420642E+03	3.381343E-14	4.545672E-16
6.430643E+03	3.491713E-14	4.687617E-16
6.440644E+03	3.592530E-14	4.816268E-16
6.450645E+03	3.676271E-14	4.921602E-16
6.460646E+03	3.737018E-14	4.995800E-16
6.470647E+03	3.771245E-14	5.034279E-16
6.480648E+03	3.778383E-14	5.036434E-16
6.490649E+03	3.761083E-14	5.005952E-16
6.500650E+03	3.724703E-14	4.950097E-16
6.510651E+03	3.676608E-14	4.878762E-16
6.520652E+03	3.624892E-14	4.802742E-16
6.530653E+03	3.577346E-14	4.732370E-16
6.540654E+03	3.539676E-14	4.675160E-16
6.550655E+03	3.515027E-14	4.635199E-16
6.560656E+03	3.504520E-14	4.613884E-16
6.570657E+03	3.507709E-14	4.610536E-16
6.580658E+03	3.522767E-14	4.622672E-16
6.590659E+03	3.546695E-14	4.646283E-16
6.600660E+03	3.575463E-14	4.676040E-16
6.610661E+03	3.604387E-14	4.705793E-16
6.620662E+03	3.628536E-14	4.729110E-16
6.630663E+03	3.643226E-14	4.739932E-16
6.640664E+03	3.644355E-14	4.732992E-16
6.650665E+03	3.628735E-14	4.704254E-16
6.660666E+03	3.594496E-14	4.651414E-16
6.670667E+03	3.540840E-14	4.573577E-16
6.680668E+03	3.468200E-14	4.471442E-16
6.690669E+03	3.377868E-14	4.346813E-16
6.700670E+03	3.271988E-14	4.202578E-16
6.710671E+03	3.153003E-14	4.041991E-16
6.720672E+03	3.023799E-14	3.868850E-16
6.730673E+03	2.887229E-14	3.686879E-16
6.740674E+03	2.746187E-14	3.499835E-16
6.750675E+03	2.603401E-14	3.311230E-16
6.760676E+03	2.461410E-14	3.124308E-16
6.770677E+03	2.322526E-14	2.942004E-16
6.780678E+03	2.188852E-14	2.766957E-16
6.790679E+03	2.062184E-14	2.601404E-16
6.800680E+03	1.944132E-14	2.447324E-16
6.810681E+03	1.836134E-14	2.306462E-16
6.820682E+03	1.739448E-14	2.180320E-16
6.830683E+03	1.655191E-14	2.070213E-16
6.840684E+03	1.584488E-14	1.977446E-16
6.850685E+03	1.528341E-14	1.903161E-16
6.860686E+03	1.487852E-14	1.848611E-16
6.870687E+03	1.464099E-14	1.815005E-16
6.880688E+03	1.458241E-14	1.803636E-16
6.890689E+03	1.471509E-14	1.815876E-16
6.900690E+03	1.505114E-14	1.853049E-16
6.910691E+03	1.560211E-14	1.916399E-16
6.920692E+03	1.637757E-14	2.006913E-16
6.930693E+03	1.738225E-14	2.124967E-16
6.940694E+03	1.861376E-14	2.270068E-16
6.950695E+03	2.005944E-14	2.440468E-16
6.960696E+03	2.169260E-14	2.632731E-16
6.970697E+03	2.346984E-14	2.841430E-16
6.980698E+03	2.533295E-14	3.059396E-16
6.990699E+03	2.720753E-14	3.277581E-16
7.000700E+03	2.901197E-14	3.486160E-16
7.010701E+03	3.066274E-14	3.675177E-16
7.020702E+03	3.208305E-14	3.835586E-16
7.030703E+03	3.321413E-14	3.960582E-16
7.040704E+03	3.401857E-14	4.045983E-16
7.050705E+03	3.448536E-14	4.090783E-16
7.060706E+03	3.462902E-14	4.097012E-16
7.070707E+03	3.448576E-14	4.069247E-16
7.080708E+03	3.410765E-14	4.013889E-16
7.090709E+03	3.355581E-14	3.938335E-16
7.100710E+03	3.289348E-14	3.850155E-16
7.110711E+03	3.218178E-14	3.756595E-16
7.120712E+03	3.147607E-14	3.664149E-16
7.130713E+03	3.082238E-14	3.578158E-16
7.140714E+03	3.025796E-14	3.502890E-16
7.150715E+03	2.981074E-14	3.441486E-16
7.160716E+03	2.949985E-14	3.396037E-16
7.170717E+03	2.933568E-14	3.367606E-16
7.180718E+03	2.932177E-14	3.356457E-16
7.190719E+03	2.945348E-14	3.361916E-16
7.200720E+03	2.971940E-14	3.382541E-16
7.210721E+03	3.010071E-14	3.416068E-16
7.220722E+03	3.057272E-14	3.459590E-16
7.230723E+03	3.110413E-14	3.509487E-16
7.240724E+03	3.165821E-14	3.561568E-16
7.250725E+03	3.219487E-14	3.611319E-16
7.260726E+03	3.267467E-14	3.654342E-16
7.270727E+03	3.305793E-14	3.686276E-16
7.280728E+03	3.331275E-14	3.703669E-16
7.290729E+03	3.341406E-14	3.703873E-16
7.300730E+03	3.334781E-14	3.685490E-16
7.310731E+03	3.311118E-14	3.648378E-16
7.320732E+03	3.271376E-14	3.593763E-16
7.330733E+03	3.217369E-14	3.523793E-16
7.340734E+03	3.151839E-14	3.441606E-16
7.350735E+03	3.077755E-14	3.350552E-16
7.360736E+03	2.998308E-14	3.254178E-16
7.370737E+03	2.916378E-14	3.155658E-16
7.380738E+03	2.834444E-14	3.057690E-16
7.390739E+03	2.754390E-14	2.962301E-16
7.400740E+03	2.677438E-14	2.870786E-16
7.410741E+03	2.604169E-14	2.783735E-16
7.420742E+03	2.534550E-14	2.701076E-16
7.430743E+03	2.468162E-14	2.622331E-16
7.440744E+03	2.404220E-14	2.546636E-16
7.450745E+03	2.341723E-14	2.472910E-16
7.460746E+03	2.279716E-14	2.400135E-16
7.470747E+03	2.217291E-14	2.327351E-16
7.480748E+03	2.153844E-14	2.253932E-16
7.490749E+03	2.089073E-14	2.179570E-16
7.500750E+03	2.023069E-14	2.104373E-16
7.510751E+03	1.956301E-14	2.028836E-16
7.520752E+03	1.889677E-14	1.953903E-16
7.530753E+03	1.824383E-14	1.880794E-16
7.540754E+03	1.761823E-14	1.810938E-16
7.550755E+03	1.703536E-14	1.745884E-16
7.560756E+03	1.651020E-14	1.687123E-16
7.570757E+03	1.605728E-14	1.636082E-16
7.580758E+03	1.569015E-14	1.594069E-16
7.590759E+03	1.542057E-14	1.562202E-16
7.600760E+03	1.525882E-14	1.541433E-16
7.610761E+03	1.521361E-14	1.532548E-16
7.620762E+03	1.529183E-14	1.536138E-16
7.630763E+03	1.549911E-14	1.552671E-16
7.640764E+03	1.583816E-14	1.582312E-16
7.650765E+03	1.630794E-14	1.624858E-16
7.660766E+03	1.690295E-14	1.679663E-16
7.670767E+03	1.761179E-14	1.745510E-16
7.680768E+03	1.841517E-14	1.820412E-16
7.690769E+03	1.928640E-14	1.901680E-16
7.700770E+03	2.018938E-14	1.985728E-16
7.710771E+03	2.108173E-14	2.068390E-16
7.720772E+03	2.191573E-14	2.145019E-16
7.730773E+03	2.264357E-14	2.211005E-16
7.740774E+03	2.321965E-14	2.261996E-16
7.750775E+03	2.360768E-14	2.294580E-16
7.760776E+03	2.378332E-14	2.306532E-16
