#wls	flux	fluxerr
1.600160E+03	5.111932E-16	3.502753E-18
1.640164E+03	5.172326E-16	3.542597E-18
1.680168E+03	5.212899E-16	3.568794E-18
1.720172E+03	5.230789E-16	3.579402E-18
1.760176E+03	5.226008E-16	3.574451E-18
1.800180E+03	5.192447E-16	3.549784E-18
1.840184E+03	5.123719E-16	3.501067E-18
1.880188E+03	5.013858E-16	3.424261E-18
1.920192E+03	4.856255E-16	3.314899E-18
1.960196E+03	4.651170E-16	3.173215E-18
2.000200E+03	4.405395E-16	3.003895E-18
2.040204E+03	4.144766E-16	2.824598E-18
2.080208E+03	3.910659E-16	2.663528E-18
2.120212E+03	3.754803E-16	2.555873E-18
2.160216E+03	3.718154E-16	2.529404E-18
2.200220E+03	3.814621E-16	2.593430E-18
2.240224E+03	4.028485E-16	2.737104E-18
2.280228E+03	4.327182E-16	2.938154E-18
2.320232E+03	4.672803E-16	3.170738E-18
2.360236E+03	5.037730E-16	3.416054E-18
2.400240E+03	5.403106E-16	3.661288E-18
2.440244E+03	5.761869E-16	3.901646E-18
2.480248E+03	6.111117E-16	4.135162E-18
2.520252E+03	6.453535E-16	4.363656E-18
2.560256E+03	6.794070E-16	4.590468E-18
2.600260E+03	7.136914E-16	4.818424E-18
2.640264E+03	7.489813E-16	5.052733E-18
2.680268E+03	7.859131E-16	5.297660E-18
2.720272E+03	8.252865E-16	5.558554E-18
2.760276E+03	8.678784E-16	5.840592E-18
2.800280E+03	9.148042E-16	6.151208E-18
2.840284E+03	9.668952E-16	6.495900E-18
2.880288E+03	1.025910E-15	6.886367E-18
2.920292E+03	1.093359E-15	7.332608E-18
2.960296E+03	1.171456E-15	7.849285E-18
3.000300E+03	1.263228E-15	8.456448E-18
3.010301E+03	1.288790E-15	8.625574E-18
3.020302E+03	1.315362E-15	8.801372E-18
3.030303E+03	1.343306E-15	8.986254E-18
3.040304E+03	1.372442E-15	9.179014E-18
3.050305E+03	1.403255E-15	9.382892E-18
3.060306E+03	1.435803E-15	9.598267E-18
3.070307E+03	1.470175E-15	9.825712E-18
3.080308E+03	1.506466E-15	1.006587E-17
3.090309E+03	1.544788E-15	1.031947E-17
3.100310E+03	1.585428E-15	1.058842E-17
3.110311E+03	1.628201E-15	1.087148E-17
3.120312E+03	1.673593E-15	1.117187E-17
3.130313E+03	1.721785E-15	1.149080E-17
3.140314E+03	1.772631E-15	1.182726E-17
3.150315E+03	1.826693E-15	1.218501E-17
3.160316E+03	1.884039E-15	1.256447E-17
3.170317E+03	1.944934E-15	1.296740E-17
3.180318E+03	2.009868E-15	1.339704E-17
3.190319E+03	2.078984E-15	1.385433E-17
3.200320E+03	2.152649E-15	1.434168E-17
3.210321E+03	2.231477E-15	1.486318E-17
3.220322E+03	2.315722E-15	1.542047E-17
3.230323E+03	2.406106E-15	1.601835E-17
3.240324E+03	2.502979E-15	1.665910E-17
3.250325E+03	2.607197E-15	1.734839E-17
3.260326E+03	2.719223E-15	1.808927E-17
3.270327E+03	2.840076E-15	1.888846E-17
3.280328E+03	2.970626E-15	1.975171E-17
3.290329E+03	3.111564E-15	2.068355E-17
3.300330E+03	3.263918E-15	2.169078E-17
3.310331E+03	3.429412E-15	2.278478E-17
3.320332E+03	3.608415E-15	2.396793E-17
3.330333E+03	3.803167E-15	2.525504E-17
3.340334E+03	4.014426E-15	2.665106E-17
3.350335E+03	4.244187E-15	2.816914E-17
3.360336E+03	4.492475E-15	2.980935E-17
3.370337E+03	4.760890E-15	3.158222E-17
3.380338E+03	5.048595E-15	3.348206E-17
3.388269E+03	5.926279E-15	3.929472E-17
3.392859E+03	5.929431E-15	3.931092E-17
3.397460E+03	5.975151E-15	3.960928E-17
3.402060E+03	6.038659E-15	4.002547E-17
3.406671E+03	6.126601E-15	4.060348E-17
3.411281E+03	6.259413E-15	4.147868E-17
3.415902E+03	6.393473E-15	4.236191E-17
3.420532E+03	6.537794E-15	4.331290E-17
3.425163E+03	6.718629E-15	4.450553E-17
3.429803E+03	6.916069E-15	4.580782E-17
3.434453E+03	7.140882E-15	4.729107E-17
3.439104E+03	7.409053E-15	4.906105E-17
3.443764E+03	7.691583E-15	5.092566E-17
3.448435E+03	7.935281E-15	5.253271E-17
3.453105E+03	8.152760E-15	5.396580E-17
3.457776E+03	8.366216E-15	5.537191E-17
3.462466E+03	8.597682E-15	5.689681E-17
3.467157E+03	8.803105E-15	5.824901E-17
3.471847E+03	9.027689E-15	5.972764E-17
3.476558E+03	9.282493E-15	6.140578E-17
3.481268E+03	9.509696E-15	6.290092E-17
3.485979E+03	9.692985E-15	6.410525E-17
3.490699E+03	9.853945E-15	6.516161E-17
3.495430E+03	9.931994E-15	6.566947E-17
3.500170E+03	9.964007E-15	6.587283E-17
3.504910E+03	9.938103E-15	6.569328E-17
3.509661E+03	9.821576E-15	6.491479E-17
3.514411E+03	9.529021E-15	6.297321E-17
3.519172E+03	9.152564E-15	6.047768E-17
3.523942E+03	8.672055E-15	5.729531E-17
3.528713E+03	8.153826E-15	5.386456E-17
3.533493E+03	7.719421E-15	5.098834E-17
3.538284E+03	7.355290E-15	4.857696E-17
3.543074E+03	7.046392E-15	4.653092E-17
3.547875E+03	6.756508E-15	4.461093E-17
3.552685E+03	6.603373E-15	4.359421E-17
3.557496E+03	6.673189E-15	4.404944E-17
3.562316E+03	6.775684E-15	4.472021E-17
3.567137E+03	6.991391E-15	4.613793E-17
3.571977E+03	7.286117E-15	4.807664E-17
3.576808E+03	7.557721E-15	4.986231E-17
3.581658E+03	7.914027E-15	5.220624E-17
3.586509E+03	8.377544E-15	5.525670E-17
3.591369E+03	8.741791E-15	5.765165E-17
3.596230E+03	9.119747E-15	6.013637E-17
3.601110E+03	9.511103E-15	6.270875E-17
3.605981E+03	9.938626E-15	6.551890E-17
3.610871E+03	1.026380E-14	6.765363E-17
3.615762E+03	1.040909E-14	6.860227E-17
3.620662E+03	1.033732E-14	6.812020E-17
3.625563E+03	1.005996E-14	6.628372E-17
3.630473E+03	9.656832E-15	6.361910E-17
3.635394E+03	9.225819E-15	6.077150E-17
3.640324E+03	8.776280E-15	5.780263E-17
3.645255E+03	8.351875E-15	5.500005E-17
3.650185E+03	8.056489E-15	5.304775E-17
3.655136E+03	7.948348E-15	5.232868E-17
3.660086E+03	7.997730E-15	5.264673E-17
3.665047E+03	8.236867E-15	5.421361E-17
3.670007E+03	8.565641E-15	5.636995E-17
3.674977E+03	8.893967E-15	5.852276E-17
3.679958E+03	9.219718E-15	6.065802E-17
3.684948E+03	9.542602E-15	6.277383E-17
3.689939E+03	9.652729E-15	6.348967E-17
3.694939E+03	9.653217E-15	6.348426E-17
3.699940E+03	9.648120E-15	6.344213E-17
3.704950E+03	9.684975E-15	6.367581E-17
3.709971E+03	9.820766E-15	6.455979E-17
3.715002E+03	1.003518E-14	6.596028E-17
3.720032E+03	1.032463E-14	6.785356E-17
3.725073E+03	1.057341E-14	6.947900E-17
3.730113E+03	1.074119E-14	7.057182E-17
3.735174E+03	1.083530E-14	7.118040E-17
3.740234E+03	1.080498E-14	7.097144E-17
3.745295E+03	1.064150E-14	6.988801E-17
3.750375E+03	1.021231E-14	6.706005E-17
3.755456E+03	9.541182E-15	6.264439E-17
3.760536E+03	8.748784E-15	5.743382E-17
3.765637E+03	7.907457E-15	5.190350E-17
3.770737E+03	7.072853E-15	4.641884E-17
3.775848E+03	6.328533E-15	4.152814E-17
3.780958E+03	5.667336E-15	3.718417E-17
3.786079E+03	5.113517E-15	3.354582E-17
3.791209E+03	4.668635E-15	3.062303E-17
3.796350E+03	4.312067E-15	2.828024E-17
3.801490E+03	4.051100E-15	2.656501E-17
3.806641E+03	3.827110E-15	2.509269E-17
3.811801E+03	3.660068E-15	2.399411E-17
3.816962E+03	3.558822E-15	2.332711E-17
3.822132E+03	3.490716E-15	2.287750E-17
3.827313E+03	3.391570E-15	2.222459E-17
3.832493E+03	3.277737E-15	2.147564E-17
3.837684E+03	3.189876E-15	2.089704E-17
3.842884E+03	3.181049E-15	2.083628E-17
3.848095E+03	3.209167E-15	2.101749E-17
3.853305E+03	3.239814E-15	2.121522E-17
3.858526E+03	3.275292E-15	2.144451E-17
3.863756E+03	3.326688E-15	2.177794E-17
3.868987E+03	3.381615E-15	2.213439E-17
3.874227E+03	3.508934E-15	2.296451E-17
3.879478E+03	3.701556E-15	2.422171E-17
3.884728E+03	4.251872E-15	2.781886E-17
3.889999E+03	5.014327E-15	3.280273E-17
3.895260E+03	5.951540E-15	3.892829E-17
3.900540E+03	7.128430E-15	4.661956E-17
3.905821E+03	8.452275E-15	5.526959E-17
3.911121E+03	9.914454E-15	6.482158E-17
3.916412E+03	1.150286E-14	7.519607E-17
3.921722E+03	1.309601E-14	8.559854E-17
3.927033E+03	1.446628E-14	9.454148E-17
3.932353E+03	1.548956E-14	1.012145E-16
3.937684E+03	1.604419E-14	1.048237E-16
3.943014E+03	1.607863E-14	1.050338E-16
3.948355E+03	1.566895E-14	1.023430E-16
3.953705E+03	1.493796E-14	9.755455E-17
3.959066E+03	1.403120E-14	9.161975E-17
3.964426E+03	1.319465E-14	8.614500E-17
3.969797E+03	1.255575E-14	8.196204E-17
3.975178E+03	1.215585E-14	7.934027E-17
3.980558E+03	1.208122E-14	7.884192E-17
3.985949E+03	1.228405E-14	8.015414E-17
3.991349E+03	1.300686E-14	8.485839E-17
3.996760E+03	1.399446E-14	9.128857E-17
4.002170E+03	1.499365E-14	9.779254E-17
4.007591E+03	1.598983E-14	1.042750E-16
4.013021E+03	1.686266E-14	1.099513E-16
4.018462E+03	1.756380E-14	1.145066E-16
4.023902E+03	1.813490E-14	1.182131E-16
4.029353E+03	1.855013E-14	1.209025E-16
4.034813E+03	1.878254E-14	1.223998E-16
4.040284E+03	1.892106E-14	1.232849E-16
4.045755E+03	1.896244E-14	1.235369E-16
4.051235E+03	1.888083E-14	1.229877E-16
4.056726E+03	1.868673E-14	1.217060E-16
4.062216E+03	1.848931E-14	1.204031E-16
4.067727E+03	1.834885E-14	1.194714E-16
4.073237E+03	1.827041E-14	1.189437E-16
4.078748E+03	1.819182E-14	1.184152E-16
4.084278E+03	1.800814E-14	1.172030E-16
4.089809E+03	1.773786E-14	1.154275E-16
4.095350E+03	1.742540E-14	1.133781E-16
4.100900E+03	1.720177E-14	1.119071E-16
4.106451E+03	1.705623E-14	1.109446E-16
4.112021E+03	1.694828E-14	1.102268E-16
4.117592E+03	1.695765E-14	1.102721E-16
4.123162E+03	1.714651E-14	1.114845E-16
4.128753E+03	1.752740E-14	1.139449E-16
4.134343E+03	1.799893E-14	1.169938E-16
4.139944E+03	1.838637E-14	1.194953E-16
4.145555E+03	1.864444E-14	1.211555E-16
4.151165E+03	1.880380E-14	1.221739E-16
4.156796E+03	1.881607E-14	1.222364E-16
4.162426E+03	1.860546E-14	1.208513E-16
4.168067E+03	1.806483E-14	1.173232E-16
4.173707E+03	1.721130E-14	1.117643E-16
4.179368E+03	1.613564E-14	1.047647E-16
4.185029E+03	1.496916E-14	9.717744E-17
4.190699E+03	1.391338E-14	9.031093E-17
4.196370E+03	1.306050E-14	8.476319E-17
4.202060E+03	1.246777E-14	8.090506E-17
4.207751E+03	1.215511E-14	7.886526E-17
4.213451E+03	1.215780E-14	7.887180E-17
4.219162E+03	1.229328E-14	7.973970E-17
4.224872E+03	1.255481E-14	8.142487E-17
4.230603E+03	1.287169E-14	8.346853E-17
4.236334E+03	1.326743E-14	8.602297E-17
4.242064E+03	1.372392E-14	8.897063E-17
4.247815E+03	1.416093E-14	9.179113E-17
4.253575E+03	1.444071E-14	9.359192E-17
4.259336E+03	1.456278E-14	9.437028E-17
4.265107E+03	1.473206E-14	9.545424E-17
4.270877E+03	1.502838E-14	9.736110E-17
4.276668E+03	1.554840E-14	1.007164E-16
4.282458E+03	1.621994E-14	1.050523E-16
4.288259E+03	1.686810E-14	1.092356E-16
4.294069E+03	1.739633E-14	1.126412E-16
4.299890E+03	1.772310E-14	1.147418E-16
4.305711E+03	1.784679E-14	1.155272E-16
4.311551E+03	1.775965E-14	1.149478E-16
4.317392E+03	1.746619E-14	1.130335E-16
4.323232E+03	1.706793E-14	1.104416E-16
4.329093E+03	1.675147E-14	1.083796E-16
4.334953E+03	1.650768E-14	1.067884E-16
4.340834E+03	1.638026E-14	1.059502E-16
4.346715E+03	1.636016E-14	1.058065E-16
4.352595E+03	1.641349E-14	1.061376E-16
4.358496E+03	1.637871E-14	1.058991E-16
4.364396E+03	1.617355E-14	1.045591E-16
4.370317E+03	1.571758E-14	1.015984E-16
4.376238E+03	1.504335E-14	9.722777E-17
4.382158E+03	1.428144E-14	9.229166E-17
4.388099E+03	1.348998E-14	8.716595E-17
4.394039E+03	1.280024E-14	8.269875E-17
4.400000E+03	1.225218E-14	7.914800E-17
4.405961E+03	1.195061E-14	7.719025E-17
4.411921E+03	1.196203E-14	7.725445E-17
4.417902E+03	1.226114E-14	7.917636E-17
4.423892E+03	1.280362E-14	8.266929E-17
4.429883E+03	1.346222E-14	8.691105E-17
4.435884E+03	1.413863E-14	9.126678E-17
4.441894E+03	1.478984E-14	9.545884E-17
4.447905E+03	1.536636E-14	9.916801E-17
4.453935E+03	1.581127E-14	1.020270E-16
4.459966E+03	1.613681E-14	1.041152E-16
4.466007E+03	1.636692E-14	1.055874E-16
4.472057E+03	1.651507E-14	1.065306E-16
4.478118E+03	1.666124E-14	1.074608E-16
4.484188E+03	1.676530E-14	1.081193E-16
4.490259E+03	1.686410E-14	1.087438E-16
4.496340E+03	1.699256E-14	1.095595E-16
4.502430E+03	1.716660E-14	1.106689E-16
4.508531E+03	1.743930E-14	1.124140E-16
4.514641E+03	1.786917E-14	1.151718E-16
4.520762E+03	1.845974E-14	1.189647E-16
4.526883E+03	1.925061E-14	1.240475E-16
4.533013E+03	2.019339E-14	1.301080E-16
4.539154E+03	2.117145E-14	1.363945E-16
4.545305E+03	2.210718E-14	1.424070E-16
4.551465E+03	2.292275E-14	1.476443E-16
4.557626E+03	2.359762E-14	1.519744E-16
4.563806E+03	2.415925E-14	1.555743E-16
4.569987E+03	2.454651E-14	1.580509E-16
4.576178E+03	2.483378E-14	1.598832E-16
4.582378E+03	2.503795E-14	1.611803E-16
4.588589E+03	2.515028E-14	1.618860E-16
4.594799E+03	2.515559E-14	1.619029E-16
4.601030E+03	2.509546E-14	1.614987E-16
4.607261E+03	2.488827E-14	1.601484E-16
4.613501E+03	2.457238E-14	1.580991E-16
4.619752E+03	2.416579E-14	1.554668E-16
4.626013E+03	2.368016E-14	1.523267E-16
4.632273E+03	2.307771E-14	1.484359E-16
4.638554E+03	2.237119E-14	1.438767E-16
4.644834E+03	2.171630E-14	1.396505E-16
4.651125E+03	2.130472E-14	1.369898E-16
4.657426E+03	2.115737E-14	1.360285E-16
4.663736E+03	2.118963E-14	1.362221E-16
4.670057E+03	2.122933E-14	1.364635E-16
4.676388E+03	2.087521E-14	1.341737E-16
4.682718E+03	2.003481E-14	1.287592E-16
4.689059E+03	1.873753E-14	1.204100E-16
4.695410E+03	1.709717E-14	1.098579E-16
4.701770E+03	1.538237E-14	9.882971E-17
4.708141E+03	1.381806E-14	8.877053E-17
4.714521E+03	1.261235E-14	8.101687E-17
4.720912E+03	1.195324E-14	7.677551E-17
4.727303E+03	1.188496E-14	7.632956E-17
4.733713E+03	1.235863E-14	7.936400E-17
4.740124E+03	1.325252E-14	8.509618E-17
4.746545E+03	1.449674E-14	9.307660E-17
4.752975E+03	1.591590E-14	1.021787E-16
4.759416E+03	1.720605E-14	1.104509E-16
4.765857E+03	1.816585E-14	1.166011E-16
4.772317E+03	1.878828E-14	1.205850E-16
4.778778E+03	1.914570E-14	1.228676E-16
4.785259E+03	1.936621E-14	1.242711E-16
4.791739E+03	1.967392E-14	1.262340E-16
4.798230E+03	2.005044E-14	1.286381E-16
4.804730E+03	2.032471E-14	1.303858E-16
4.811241E+03	2.043006E-14	1.310497E-16
4.817762E+03	2.038917E-14	1.307755E-16
4.824282E+03	2.033827E-14	1.304372E-16
4.830823E+03	2.031560E-14	1.302801E-16
4.837364E+03	2.021520E-14	1.296247E-16
4.843914E+03	1.999108E-14	1.281761E-16
4.850475E+03	1.975242E-14	1.266346E-16
4.857046E+03	1.957032E-14	1.254561E-16
4.863626E+03	1.941751E-14	1.244655E-16
4.870217E+03	1.918014E-14	1.229333E-16
4.876818E+03	1.881213E-14	1.205640E-16
4.883428E+03	1.822018E-14	1.167601E-16
4.890039E+03	1.744786E-14	1.118012E-16
4.896660E+03	1.652791E-14	1.058973E-16
4.903300E+03	1.554355E-14	9.958172E-17
4.909941E+03	1.467138E-14	9.398604E-17
4.916592E+03	1.409709E-14	9.029942E-17
4.923252E+03	1.394841E-14	8.933944E-17
4.929923E+03	1.417197E-14	9.076371E-17
4.936604E+03	1.476707E-14	9.456701E-17
4.943284E+03	1.570328E-14	1.005541E-16
4.949985E+03	1.699747E-14	1.088322E-16
4.956696E+03	1.870937E-14	1.197832E-16
4.963406E+03	2.072271E-14	1.326623E-16
4.970127E+03	2.270312E-14	1.453284E-16
4.976868E+03	2.429045E-14	1.554766E-16
4.983608E+03	2.540610E-14	1.626043E-16
4.990359E+03	2.573449E-14	1.646926E-16
4.997120E+03	2.564854E-14	1.641292E-16
5.003890E+03	2.527575E-14	1.617306E-16
5.010671E+03	2.475373E-14	1.583777E-16
5.017452E+03	2.415626E-14	1.545426E-16
5.024252E+03	2.351863E-14	1.504513E-16
5.031053E+03	2.285512E-14	1.461952E-16
5.037874E+03	2.217018E-14	1.418026E-16
5.044694E+03	2.150905E-14	1.375632E-16
5.051535E+03	2.078231E-14	1.329048E-16
5.058376E+03	1.996449E-14	1.276647E-16
5.065227E+03	1.906879E-14	1.219276E-16
5.072087E+03	1.813386E-14	1.159406E-16
5.078958E+03	1.730014E-14	1.106015E-16
5.085839E+03	1.667385E-14	1.065894E-16
5.092729E+03	1.637244E-14	1.046546E-16
5.099630E+03	1.662406E-14	1.062549E-16
5.106541E+03	1.751101E-14	1.119154E-16
5.113461E+03	1.885325E-14	1.204848E-16
5.120382E+03	2.045842E-14	1.307330E-16
5.127323E+03	2.183829E-14	1.395401E-16
5.134263E+03	2.314887E-14	1.479032E-16
5.141224E+03	2.419623E-14	1.545835E-16
5.148185E+03	2.499458E-14	1.596721E-16
5.155166E+03	2.548726E-14	1.628074E-16
5.162146E+03	2.563193E-14	1.637195E-16
5.169137E+03	2.561359E-14	1.635903E-16
5.176138E+03	2.551974E-14	1.629790E-16
5.183158E+03	2.545017E-14	1.625229E-16
5.190179E+03	2.535832E-14	1.619245E-16
5.197210E+03	2.524970E-14	1.612193E-16
5.204250E+03	2.519536E-14	1.608608E-16
5.211301E+03	2.520308E-14	1.608985E-16
5.218362E+03	2.525737E-14	1.612336E-16
5.225433E+03	2.529273E-14	1.614479E-16
5.232503E+03	2.523586E-14	1.610735E-16
5.239594E+03	2.513226E-14	1.604010E-16
5.246695E+03	2.503524E-14	1.597705E-16
5.253805E+03	2.492814E-14	1.590759E-16
5.260916E+03	2.481538E-14	1.583453E-16
5.268047E+03	2.475701E-14	1.579619E-16
5.275188E+03	2.481641E-14	1.583300E-16
5.282328E+03	2.493581E-14	1.590809E-16
5.289489E+03	2.515753E-14	1.604843E-16
5.296650E+03	2.542486E-14	1.621787E-16
5.303830E+03	2.564886E-14	1.635964E-16
5.311011E+03	2.584174E-14	1.648156E-16
5.318202E+03	2.594898E-14	1.654885E-16
5.325413E+03	2.594940E-14	1.654801E-16
5.332623E+03	2.585297E-14	1.648541E-16
5.339854E+03	2.564073E-14	1.634899E-16
5.347085E+03	2.536384E-14	1.617138E-16
5.354325E+03	2.512360E-14	1.601716E-16
5.361586E+03	2.497127E-14	1.591900E-16
5.368847E+03	2.495142E-14	1.590531E-16
5.376118E+03	2.505186E-14	1.596831E-16
5.383398E+03	2.517128E-14	1.604340E-16
5.390699E+03	2.531859E-14	1.613626E-16
5.398000E+03	2.544701E-14	1.621707E-16
5.405311E+03	2.546626E-14	1.622831E-16
5.412631E+03	2.536403E-14	1.616215E-16
5.419962E+03	2.514138E-14	1.601928E-16
5.427313E+03	2.479382E-14	1.579684E-16
5.434663E+03	2.438596E-14	1.553601E-16
5.442024E+03	2.392447E-14	1.524107E-16
5.449395E+03	2.334910E-14	1.487362E-16
5.456776E+03	2.290971E-14	1.459283E-16
5.464166E+03	2.276370E-14	1.449895E-16
5.471577E+03	2.304402E-14	1.467662E-16
5.478988E+03	2.369395E-14	1.508965E-16
5.486409E+03	2.471813E-14	1.574098E-16
5.493839E+03	2.611564E-14	1.662995E-16
5.501280E+03	2.776160E-14	1.767703E-16
5.508731E+03	2.949752E-14	1.878127E-16
5.516202E+03	3.112909E-14	1.981895E-16
5.523672E+03	3.253336E-14	2.071181E-16
5.531153E+03	3.357499E-14	2.137372E-16
5.538644E+03	3.414874E-14	2.173772E-16
5.546155E+03	3.411910E-14	2.171761E-16
5.553665E+03	3.343989E-14	2.128407E-16
5.561186E+03	3.215661E-14	2.046612E-16
5.568727E+03	3.043893E-14	1.937180E-16
5.576268E+03	2.855398E-14	1.817117E-16
5.583818E+03	2.675901E-14	1.702793E-16
5.591389E+03	2.517605E-14	1.601973E-16
5.598960E+03	2.378955E-14	1.513664E-16
5.606541E+03	2.280227E-14	1.450765E-16
5.614141E+03	2.218754E-14	1.411576E-16
5.621742E+03	2.190977E-14	1.393826E-16
5.629363E+03	2.173499E-14	1.382630E-16
5.636984E+03	2.172490E-14	1.381912E-16
5.644624E+03	2.184263E-14	1.389323E-16
5.652275E+03	2.189656E-14	1.392676E-16
5.659926E+03	2.172180E-14	1.381485E-16
5.667597E+03	2.113545E-14	1.344119E-16
5.675278E+03	2.015852E-14	1.281919E-16
5.682958E+03	1.880758E-14	1.195945E-16
5.690659E+03	1.715872E-14	1.091035E-16
5.698370E+03	1.530710E-14	9.732459E-17
5.706091E+03	1.341539E-14	8.529209E-17
5.713821E+03	1.154756E-14	7.341272E-17
5.721562E+03	9.811998E-15	6.237553E-17
5.729313E+03	8.276652E-15	5.261227E-17
5.737074E+03	7.021998E-15	4.463428E-17
5.744844E+03	6.168721E-15	3.920834E-17
5.752625E+03	5.827949E-15	3.704029E-17
5.760416E+03	6.138141E-15	3.900954E-17
5.768227E+03	7.076490E-15	4.497042E-17
5.776038E+03	8.435744E-15	5.360527E-17
5.783868E+03	1.004191E-14	6.380806E-17
5.791699E+03	1.190599E-14	7.564835E-17
5.799550E+03	1.403020E-14	8.913996E-17
5.807401E+03	1.627712E-14	1.034096E-16
5.815272E+03	1.864124E-14	1.184220E-16
5.823152E+03	2.133449E-14	1.355233E-16
5.831033E+03	2.388149E-14	1.516936E-16
5.838934E+03	2.594058E-14	1.647629E-16
5.846845E+03	2.752154E-14	1.747939E-16
5.854765E+03	2.864203E-14	1.818993E-16
5.862696E+03	2.932541E-14	1.862278E-16
5.870637E+03	2.963791E-14	1.882007E-16
5.878598E+03	2.970906E-14	1.886408E-16
5.886559E+03	2.951720E-14	1.874109E-16
5.894529E+03	2.912425E-14	1.849043E-16
5.902520E+03	2.860009E-14	1.815650E-16
5.910511E+03	2.806439E-14	1.781527E-16
5.918522E+03	2.767427E-14	1.756648E-16
5.926543E+03	2.745245E-14	1.742455E-16
5.934563E+03	2.729729E-14	1.732492E-16
5.942604E+03	2.709005E-14	1.719225E-16
5.950655E+03	2.671638E-14	1.695398E-16
5.958716E+03	2.610144E-14	1.656262E-16
5.966797E+03	2.512838E-14	1.594408E-16
5.974877E+03	2.394752E-14	1.519378E-16
5.982968E+03	2.295069E-14	1.456032E-16
5.991079E+03	2.189553E-14	1.388993E-16
5.999190E+03	2.080010E-14	1.319409E-16
6.007321E+03	1.980045E-14	1.255908E-16
6.015452E+03	1.895110E-14	1.201949E-16
6.023602E+03	1.823289E-14	1.156313E-16
6.031763E+03	1.768681E-14	1.121598E-16
6.039934E+03	1.732548E-14	1.098603E-16
6.048125E+03	1.704006E-14	1.080424E-16
6.056316E+03	1.684879E-14	1.068215E-16
6.064516E+03	1.671879E-14	1.059892E-16
6.072737E+03	1.666604E-14	1.056466E-16
6.080958E+03	1.673610E-14	1.060824E-16
6.089199E+03	1.694841E-14	1.074197E-16
6.097450E+03	1.725875E-14	1.093779E-16
6.105711E+03	1.760801E-14	1.115823E-16
6.113981E+03	1.790858E-14	1.134777E-16
6.122262E+03	1.814216E-14	1.149483E-16
