#wls	flux	fluxerr
1.600160E+03	2.873934E-16	1.111485E-17
1.640164E+03	2.912200E-16	1.122740E-17
1.680168E+03	2.939078E-16	1.129440E-17
1.720172E+03	2.955073E-16	1.131816E-17
1.760176E+03	2.958219E-16	1.129157E-17
1.800180E+03	2.946130E-16	1.120604E-17
1.840184E+03	2.914686E-16	1.104657E-17
1.880188E+03	2.860951E-16	1.080287E-17
1.920192E+03	2.780520E-16	1.045936E-17
1.960196E+03	2.672896E-16	1.001537E-17
2.000200E+03	2.542623E-16	9.489174E-18
2.040204E+03	2.403487E-16	8.933128E-18
2.080208E+03	2.279469E-16	8.436533E-18
2.120212E+03	2.201500E-16	8.112777E-18
2.160216E+03	2.194191E-16	8.050018E-18
2.200220E+03	2.267343E-16	8.280591E-18
2.240224E+03	2.413613E-16	8.773694E-18
2.280228E+03	2.614784E-16	9.459532E-18
2.320232E+03	2.850592E-16	1.026206E-17
2.360236E+03	3.104901E-16	1.112140E-17
2.400240E+03	3.368381E-16	1.200300E-17
2.440244E+03	3.636280E-16	1.288922E-17
2.480248E+03	3.908328E-16	1.377859E-17
2.520252E+03	4.186836E-16	1.467864E-17
2.560256E+03	4.476396E-16	1.560472E-17
2.600260E+03	4.781298E-16	1.657071E-17
2.640264E+03	5.107273E-16	1.759510E-17
2.680268E+03	5.461701E-16	1.870151E-17
2.720272E+03	5.851297E-16	1.991063E-17
2.760276E+03	6.285674E-16	2.125229E-17
2.800280E+03	6.774167E-16	2.275452E-17
2.840284E+03	7.330041E-16	2.445750E-17
2.880288E+03	7.967048E-16	2.640174E-17
2.920292E+03	8.704523E-16	2.864473E-17
2.960296E+03	9.563661E-16	3.124810E-17
3.000300E+03	1.057386E-15	3.429790E-17
3.010301E+03	1.085347E-15	3.513995E-17
3.020302E+03	1.114674E-15	3.602257E-17
3.030303E+03	1.145108E-15	3.693717E-17
3.040304E+03	1.177075E-15	3.789724E-17
3.050305E+03	1.210397E-15	3.889673E-17
3.060306E+03	1.245595E-15	3.995217E-17
3.070307E+03	1.282567E-15	4.105987E-17
3.080308E+03	1.321387E-15	4.222189E-17
3.090309E+03	1.362138E-15	4.344048E-17
3.100310E+03	1.404906E-15	4.471802E-17
3.110311E+03	1.449785E-15	4.605714E-17
3.120312E+03	1.496877E-15	4.746061E-17
3.130313E+03	1.546512E-15	4.893847E-17
3.140314E+03	1.598366E-15	5.048000E-17
3.150315E+03	1.653015E-15	5.210289E-17
3.160316E+03	1.710123E-15	5.379604E-17
3.170317E+03	1.770309E-15	5.557839E-17
3.180318E+03	1.833482E-15	5.744649E-17
3.190319E+03	1.899795E-15	5.940457E-17
3.200320E+03	1.969411E-15	6.145706E-17
3.210321E+03	2.042499E-15	6.360855E-17
3.220322E+03	2.119234E-15	6.586383E-17
3.230323E+03	2.200108E-15	6.823743E-17
3.240324E+03	2.284700E-15	7.071551E-17
3.250325E+03	2.373835E-15	7.332278E-17
3.260326E+03	2.467054E-15	7.604421E-17
3.270327E+03	2.565229E-15	7.890583E-17
3.280328E+03	2.668220E-15	8.190234E-17
3.290329E+03	2.776211E-15	8.503838E-17
3.300330E+03	2.889366E-15	8.831804E-17
3.310331E+03	3.007828E-15	9.174460E-17
3.320332E+03	3.131697E-15	9.532004E-17
3.330333E+03	3.261014E-15	9.904455E-17
3.340334E+03	3.396204E-15	1.029299E-16
3.350335E+03	3.536187E-15	1.069423E-16
3.360336E+03	3.681590E-15	1.110996E-16
3.370337E+03	3.830874E-15	1.153544E-16
3.380338E+03	3.984222E-15	1.197115E-16
3.390339E+03	4.139924E-15	1.241187E-16
3.400340E+03	4.296334E-15	1.285264E-16
3.410341E+03	4.451348E-15	1.328715E-16
3.420342E+03	4.602442E-15	1.370792E-16
3.430343E+03	4.746817E-15	1.410669E-16
3.440344E+03	4.881581E-15	1.447504E-16
3.450345E+03	5.003954E-15	1.480492E-16
3.460346E+03	5.112169E-15	1.509136E-16
3.470347E+03	5.203044E-15	1.532527E-16
3.480348E+03	5.276989E-15	1.550819E-16
3.490349E+03	5.333470E-15	1.563891E-16
3.500350E+03	5.373159E-15	1.571974E-16
3.510351E+03	5.400047E-15	1.576265E-16
3.520352E+03	5.416970E-15	1.577617E-16
3.530353E+03	5.428181E-15	1.577286E-16
3.540354E+03	5.438253E-15	1.576609E-16
3.550355E+03	5.451682E-15	1.576889E-16
3.560356E+03	5.472597E-15	1.579311E-16
3.570357E+03	5.505158E-15	1.585058E-16
3.580358E+03	5.550523E-15	1.594440E-16
3.590359E+03	5.610984E-15	1.608090E-16
3.600360E+03	5.687805E-15	1.626338E-16
3.610361E+03	5.779001E-15	1.648587E-16
3.620362E+03	5.884452E-15	1.674774E-16
3.630363E+03	6.000669E-15	1.703880E-16
3.640364E+03	6.122839E-15	1.734522E-16
3.650365E+03	6.247122E-15	1.765603E-16
3.660366E+03	6.365845E-15	1.794955E-16
3.670367E+03	6.470590E-15	1.820223E-16
3.680368E+03	6.551509E-15	1.838670E-16
3.690369E+03	6.597674E-15	1.847286E-16
3.700370E+03	6.597743E-15	1.842970E-16
3.710371E+03	6.541160E-15	1.822873E-16
3.720372E+03	6.419834E-15	1.784857E-16
3.730373E+03	6.230885E-15	1.728250E-16
3.740374E+03	5.975223E-15	1.653437E-16
3.750375E+03	5.663285E-15	1.563429E-16
3.760376E+03	5.312109E-15	1.463027E-16
3.770377E+03	4.941364E-15	1.357713E-16
3.780378E+03	4.574782E-15	1.254028E-16
3.790379E+03	4.231838E-15	1.157289E-16
3.800380E+03	3.930351E-15	1.072309E-16
3.810381E+03	3.681305E-15	1.001998E-16
3.820382E+03	3.493277E-15	9.485824E-17
3.830383E+03	3.370250E-15	9.130231E-17
3.840384E+03	3.314968E-15	8.959372E-17
3.850385E+03	3.329326E-15	8.977058E-17
3.860386E+03	3.416773E-15	9.191250E-17
3.870387E+03	3.580124E-15	9.608126E-17
3.880388E+03	3.822745E-15	1.023528E-16
3.890389E+03	4.147118E-15	1.107786E-16
3.900390E+03	4.553341E-15	1.213464E-16
3.910391E+03	5.037299E-15	1.339318E-16
3.920392E+03	5.588943E-15	1.482543E-16
3.930393E+03	6.191537E-15	1.638590E-16
3.940394E+03	6.822526E-15	1.801414E-16
3.950395E+03	7.456051E-15	1.964160E-16
3.960396E+03	8.066362E-15	2.120060E-16
3.970397E+03	8.631379E-15	2.263375E-16
3.980398E+03	9.135394E-15	2.390083E-16
3.990399E+03	9.569799E-15	2.498053E-16
4.000400E+03	9.932030E-15	2.586746E-16
4.010401E+03	1.022373E-14	2.656721E-16
4.020402E+03	1.044920E-14	2.709225E-16
4.030403E+03	1.061431E-14	2.745895E-16
4.040404E+03	1.072588E-14	2.768598E-16
4.050405E+03	1.079129E-14	2.779332E-16
4.060406E+03	1.081837E-14	2.780188E-16
4.070407E+03	1.081508E-14	2.773274E-16
4.080408E+03	1.078909E-14	2.760605E-16
4.090409E+03	1.074714E-14	2.743943E-16
4.100410E+03	1.069452E-14	2.724662E-16
4.110411E+03	1.063460E-14	2.703634E-16
4.120412E+03	1.056857E-14	2.681178E-16
4.130413E+03	1.049585E-14	2.657151E-16
4.140414E+03	1.041502E-14	2.631211E-16
4.150415E+03	1.032529E-14	2.603169E-16
4.160416E+03	1.022772E-14	2.573307E-16
4.170417E+03	1.012603E-14	2.542567E-16
4.180418E+03	1.002683E-14	2.512615E-16
4.190419E+03	9.939088E-15	2.485689E-16
4.200420E+03	9.871537E-15	2.463951E-16
4.210421E+03	9.835244E-15	2.450128E-16
4.220422E+03	9.835614E-15	2.445520E-16
4.230423E+03	9.875234E-15	2.450717E-16
4.240424E+03	9.957123E-15	2.466413E-16
4.250425E+03	1.007807E-14	2.491758E-16
4.260426E+03	1.023165E-14	2.525121E-16
4.270427E+03	1.041137E-14	2.564856E-16
4.280428E+03	1.060286E-14	2.607405E-16
4.290429E+03	1.079276E-14	2.649475E-16
4.300430E+03	1.096697E-14	2.687622E-16
4.310431E+03	1.110908E-14	2.717853E-16
4.320432E+03	1.120958E-14	2.737894E-16
4.330433E+03	1.126299E-14	2.746459E-16
4.340434E+03	1.126966E-14	2.743694E-16
4.350435E+03	1.123487E-14	2.730940E-16
4.360436E+03	1.116702E-14	2.710282E-16
4.370437E+03	1.107597E-14	2.684146E-16
4.380438E+03	1.097224E-14	2.655107E-16
4.390439E+03	1.086661E-14	2.625775E-16
4.400440E+03	1.076826E-14	2.598370E-16
4.410441E+03	1.068869E-14	2.575653E-16
4.420442E+03	1.063301E-14	2.558836E-16
4.430443E+03	1.060889E-14	2.549735E-16
4.440444E+03	1.061758E-14	2.548623E-16
4.450445E+03	1.066242E-14	2.556266E-16
4.460446E+03	1.074601E-14	2.573258E-16
4.470447E+03	1.086756E-14	2.599377E-16
4.480448E+03	1.103014E-14	2.635327E-16
4.490449E+03	1.123604E-14	2.681624E-16
4.500450E+03	1.148551E-14	2.738300E-16
4.510451E+03	1.177986E-14	2.805637E-16
4.520452E+03	1.211250E-14	2.882044E-16
4.530453E+03	1.247155E-14	2.964674E-16
4.540454E+03	1.284373E-14	3.050365E-16
4.550455E+03	1.320601E-14	3.133651E-16
4.560456E+03	1.353674E-14	3.209409E-16
4.570457E+03	1.381327E-14	3.272300E-16
4.580458E+03	1.401607E-14	3.317740E-16
4.590459E+03	1.413071E-14	3.342357E-16
4.600460E+03	1.414876E-14	3.344208E-16
4.610461E+03	1.406811E-14	3.322845E-16
4.620462E+03	1.389120E-14	3.278884E-16
4.630463E+03	1.363008E-14	3.215211E-16
4.640464E+03	1.329559E-14	3.134411E-16
4.650465E+03	1.290650E-14	3.040932E-16
4.660466E+03	1.248421E-14	2.939823E-16
4.670467E+03	1.204781E-14	2.835584E-16
4.680468E+03	1.161919E-14	2.733355E-16
4.690469E+03	1.122094E-14	2.638439E-16
4.700470E+03	1.086923E-14	2.554615E-16
4.710471E+03	1.057647E-14	2.484779E-16
4.720472E+03	1.035371E-14	2.431502E-16
4.730473E+03	1.020285E-14	2.395206E-16
4.740474E+03	1.012449E-14	2.376006E-16
4.750475E+03	1.011402E-14	2.372807E-16
4.760476E+03	1.016316E-14	2.383646E-16
4.770477E+03	1.026051E-14	2.405838E-16
4.780478E+03	1.039118E-14	2.435888E-16
4.790479E+03	1.054173E-14	2.470637E-16
4.800480E+03	1.069348E-14	2.505709E-16
4.810481E+03	1.083190E-14	2.537698E-16
4.820482E+03	1.093928E-14	2.562463E-16
4.830483E+03	1.100382E-14	2.577241E-16
4.840484E+03	1.101588E-14	2.579780E-16
4.850485E+03	1.097503E-14	2.569980E-16
4.860486E+03	1.088446E-14	2.548593E-16
4.870487E+03	1.075461E-14	2.518062E-16
4.880488E+03	1.060446E-14	2.482828E-16
4.890489E+03	1.045729E-14	2.448344E-16
4.900490E+03	1.033510E-14	2.419750E-16
4.910491E+03	1.026097E-14	2.402456E-16
4.920492E+03	1.025603E-14	2.401404E-16
4.930493E+03	1.033145E-14	2.419211E-16
4.940494E+03	1.048927E-14	2.456358E-16
4.950495E+03	1.072307E-14	2.511350E-16
4.960496E+03	1.101528E-14	2.580075E-16
4.970497E+03	1.133436E-14	2.655155E-16
4.980498E+03	1.164369E-14	2.728011E-16
4.990499E+03	1.190844E-14	2.790488E-16
5.000500E+03	1.209720E-14	2.835219E-16
5.010501E+03	1.219098E-14	2.857747E-16
5.020502E+03	1.218891E-14	2.857850E-16
5.030503E+03	1.210582E-14	2.838997E-16
5.040504E+03	1.196545E-14	2.806738E-16
5.050505E+03	1.180120E-14	2.768901E-16
5.060506E+03	1.165077E-14	2.734327E-16
5.070507E+03	1.154575E-14	2.710430E-16
5.080508E+03	1.151177E-14	2.703237E-16
5.090509E+03	1.156859E-14	2.717405E-16
5.100510E+03	1.172674E-14	2.755424E-16
5.110511E+03	1.198304E-14	2.816573E-16
5.120512E+03	1.232575E-14	2.898116E-16
5.130513E+03	1.273602E-14	2.995641E-16
5.140514E+03	1.318473E-14	3.102316E-16
5.150515E+03	1.363942E-14	3.210516E-16
5.160516E+03	1.407121E-14	3.313441E-16
5.170517E+03	1.445525E-14	3.405236E-16
5.180518E+03	1.477520E-14	3.482040E-16
5.190519E+03	1.502396E-14	3.542161E-16
5.200520E+03	1.520224E-14	3.585748E-16
5.210521E+03	1.531477E-14	3.613895E-16
5.220522E+03	1.537364E-14	3.629439E-16
5.230523E+03	1.538587E-14	3.634016E-16
5.240524E+03	1.536208E-14	3.630120E-16
5.250525E+03	1.530970E-14	3.619501E-16
5.260526E+03	1.523414E-14	3.603420E-16
5.270527E+03	1.513856E-14	3.582622E-16
5.280528E+03	1.502262E-14	3.557014E-16
5.290529E+03	1.488849E-14	3.527104E-16
5.300530E+03	1.473144E-14	3.491764E-16
5.310531E+03	1.455089E-14	3.450840E-16
5.320532E+03	1.434578E-14	3.404077E-16
5.330533E+03	1.411679E-14	3.351620E-16
5.340534E+03	1.386507E-14	3.293736E-16
5.350535E+03	1.359736E-14	3.232010E-16
5.360536E+03	1.331621E-14	3.167043E-16
5.370537E+03	1.302999E-14	3.100821E-16
5.380538E+03	1.274241E-14	3.034219E-16
5.390539E+03	1.246141E-14	2.969129E-16
5.400540E+03	1.219471E-14	2.907392E-16
5.410541E+03	1.195170E-14	2.851252E-16
5.420542E+03	1.174266E-14	2.803173E-16
5.430543E+03	1.158297E-14	2.766844E-16
5.440544E+03	1.148466E-14	2.745158E-16
5.450545E+03	1.146294E-14	2.741784E-16
5.460546E+03	1.153001E-14	2.759677E-16
5.470547E+03	1.169393E-14	2.800809E-16
5.480548E+03	1.195637E-14	2.865627E-16
5.490549E+03	1.231024E-14	2.952478E-16
5.500550E+03	1.273514E-14	3.056513E-16
5.510551E+03	1.320000E-14	3.170302E-16
5.520552E+03	1.365765E-14	3.282533E-16
5.530553E+03	1.405944E-14	3.381501E-16
5.540554E+03	1.435774E-14	3.455711E-16
5.550555E+03	1.451477E-14	3.496008E-16
5.560556E+03	1.450890E-14	3.497106E-16
5.570557E+03	1.433751E-14	3.458290E-16
5.580558E+03	1.401479E-14	3.382891E-16
5.590559E+03	1.356453E-14	3.276577E-16
5.600560E+03	1.301734E-14	3.146682E-16
5.610561E+03	1.240217E-14	3.000149E-16
5.620562E+03	1.173914E-14	2.841818E-16
5.630563E+03	1.104584E-14	2.675921E-16
5.640564E+03	1.033386E-14	2.505251E-16
5.650565E+03	9.611687E-15	2.331857E-16
5.660566E+03	8.890860E-15	2.158534E-16
5.670567E+03	8.182080E-15	1.987882E-16
5.680568E+03	7.499018E-15	1.823232E-16
5.690569E+03	6.858712E-15	1.668743E-16
5.700570E+03	6.277340E-15	1.528377E-16
5.710571E+03	5.769707E-15	1.405771E-16
5.720572E+03	5.345852E-15	1.303414E-16
5.730573E+03	5.013444E-15	1.223218E-16
5.740574E+03	4.777718E-15	1.166510E-16
5.750575E+03	4.640175E-15	1.133706E-16
5.760576E+03	4.601281E-15	1.124968E-16
5.770577E+03	4.662402E-15	1.140681E-16
5.780578E+03	4.822898E-15	1.180736E-16
5.790579E+03	5.083137E-15	1.245271E-16
5.800580E+03	5.439674E-15	1.333488E-16
5.810581E+03	5.886636E-15	1.443991E-16
5.820582E+03	6.412141E-15	1.573904E-16
5.830583E+03	6.997634E-15	1.718703E-16
5.840584E+03	7.617069E-15	1.872010E-16
5.850585E+03	8.240977E-15	2.026590E-16
5.860586E+03	8.835159E-15	2.174026E-16
5.870587E+03	9.366195E-15	2.306071E-16
5.880588E+03	9.806899E-15	2.415996E-16
5.890589E+03	1.013742E-14	2.498865E-16
5.900590E+03	1.034363E-14	2.551143E-16
5.910591E+03	1.042276E-14	2.572093E-16
5.920592E+03	1.037866E-14	2.562611E-16
5.930593E+03	1.022129E-14	2.525107E-16
5.940594E+03	9.965356E-15	2.463172E-16
5.950595E+03	9.629103E-15	2.381281E-16
5.960596E+03	9.232250E-15	2.284286E-16
5.970597E+03	8.798213E-15	2.177962E-16
5.980598E+03	8.347581E-15	2.067398E-16
5.990599E+03	7.899655E-15	1.957374E-16
6.000600E+03	7.472724E-15	1.852428E-16
6.010601E+03	7.081468E-15	1.756213E-16
6.020602E+03	6.734845E-15	1.670964E-16
6.030603E+03	6.440235E-15	1.598532E-16
6.040604E+03	6.201200E-15	1.539819E-16
6.050605E+03	6.018792E-15	1.495104E-16
6.060606E+03	5.892407E-15	1.464257E-16
6.070607E+03	5.820564E-15	1.446924E-16
6.080608E+03	5.801606E-15	1.442710E-16
6.090609E+03	5.833817E-15	1.451201E-16
6.100610E+03	5.918197E-15	1.472658E-16
6.110611E+03	6.055155E-15	1.507193E-16
6.120612E+03	6.249348E-15	1.555977E-16
6.130613E+03	6.505533E-15	1.620204E-16
6.140614E+03	6.833380E-15	1.702292E-16
6.150615E+03	7.242581E-15	1.804666E-16
6.160616E+03	7.746762E-15	1.930732E-16
6.170617E+03	8.360174E-15	2.084052E-16
6.180618E+03	9.096873E-15	2.268141E-16
6.190619E+03	9.968352E-15	2.485873E-16
6.200620E+03	1.098048E-14	2.738721E-16
6.210621E+03	1.213017E-14	3.025915E-16
6.220622E+03	1.340202E-14	3.343620E-16
6.230623E+03	1.476564E-14	3.684243E-16
6.240624E+03	1.617444E-14	4.036152E-16
6.250625E+03	1.756568E-14	4.383673E-16
6.260626E+03	1.887179E-14	4.709922E-16
6.270627E+03	2.001690E-14	4.995947E-16
6.280628E+03	2.094038E-14	5.226590E-16
6.290629E+03	2.159195E-14	5.389284E-16
6.300630E+03	2.195387E-14	5.479590E-16
6.310631E+03	2.202773E-14	5.497902E-16
6.320632E+03	2.184643E-14	5.452435E-16
6.330633E+03	2.146157E-14	5.356076E-16
6.340634E+03	2.092863E-14	5.222679E-16
6.350635E+03	2.031057E-14	5.067973E-16
6.360636E+03	1.966242E-14	4.905701E-16
6.370637E+03	1.902852E-14	4.746937E-16
6.380638E+03	1.844048E-14	4.599566E-16
6.390639E+03	1.791745E-14	4.468373E-16
6.400640E+03	1.746775E-14	4.355427E-16
6.410641E+03	1.709088E-14	4.260604E-16
6.420642E+03	1.677982E-14	4.182143E-16
6.430643E+03	1.652153E-14	4.116789E-16
6.440644E+03	1.630506E-14	4.061809E-16
6.450645E+03	1.611371E-14	4.013040E-16
6.460646E+03	1.593130E-14	3.966451E-16
6.470647E+03	1.574780E-14	3.919543E-16
6.480648E+03	1.554985E-14	3.868999E-16
6.490649E+03	1.533352E-14	3.813843E-16
6.500650E+03	1.509287E-14	3.752608E-16
6.510651E+03	1.483153E-14	3.686208E-16
6.520652E+03	1.455070E-14	3.614947E-16
6.530653E+03	1.425926E-14	3.541041E-16
6.540654E+03	1.396099E-14	3.465437E-16
6.550655E+03	1.366309E-14	3.389926E-16
6.560656E+03	1.337047E-14	3.315731E-16
6.570657E+03	1.308807E-14	3.244078E-16
6.580658E+03	1.281532E-14	3.174826E-16
6.590659E+03	1.255328E-14	3.108238E-16
6.600660E+03	1.229947E-14	3.043697E-16
6.610661E+03	1.204923E-14	2.980055E-16
6.620662E+03	1.179617E-14	2.915734E-16
6.630663E+03	1.153280E-14	2.848885E-16
6.640664E+03	1.125140E-14	2.777611E-16
6.650665E+03	1.094485E-14	2.700173E-16
6.660666E+03	1.060753E-14	2.615197E-16
6.670667E+03	1.023503E-14	2.521618E-16
6.680668E+03	9.828468E-15	2.419733E-16
6.690669E+03	9.388728E-15	2.309786E-16
6.700670E+03	8.920275E-15	2.192898E-16
6.710671E+03	8.429007E-15	2.070538E-16
6.720672E+03	7.924907E-15	1.945179E-16
6.730673E+03	7.416480E-15	1.818919E-16
6.740674E+03	6.912758E-15	1.693982E-16
6.750675E+03	6.424465E-15	1.572997E-16
6.760676E+03	5.959391E-15	1.457868E-16
6.770677E+03	5.524224E-15	1.350221E-16
6.780678E+03	5.125261E-15	1.251580E-16
6.790679E+03	4.767052E-15	1.163037E-16
6.800680E+03	4.451273E-15	1.084977E-16
6.810681E+03	4.180179E-15	1.017925E-16
6.820682E+03	3.953370E-15	9.617555E-17
6.830683E+03	3.771084E-15	9.164986E-17
6.840684E+03	3.633213E-15	8.820980E-17
6.850685E+03	3.538621E-15	8.582472E-17
6.860686E+03	3.487480E-15	8.449569E-17
6.870687E+03	3.479981E-15	8.422407E-17
6.880688E+03	3.517070E-15	8.502939E-17
6.890689E+03	3.599061E-15	8.691565E-17
6.900690E+03	3.727468E-15	8.991575E-17
6.910691E+03	3.903371E-15	9.405178E-17
6.920692E+03	4.127334E-15	9.933322E-17
6.930693E+03	4.398929E-15	1.057455E-16
6.940694E+03	4.716201E-15	1.132374E-16
6.950695E+03	5.075155E-15	1.217087E-16
6.960696E+03	5.469411E-15	1.310028E-16
6.970697E+03	5.890139E-15	1.409048E-16
6.980698E+03	6.325740E-15	1.511348E-16
6.990699E+03	6.764921E-15	1.614216E-16
7.000700E+03	7.194176E-15	1.714426E-16
7.010701E+03	7.601365E-15	1.809093E-16
7.020702E+03	7.976247E-15	1.895799E-16
7.030703E+03	8.310571E-15	1.972615E-16
7.040704E+03	8.601808E-15	2.038976E-16
7.050705E+03	8.848418E-15	2.094558E-16
7.060706E+03	9.051783E-15	2.139728E-16
7.070707E+03	9.218255E-15	2.176027E-16
7.080708E+03	9.352306E-15	2.204545E-16
7.090709E+03	9.462892E-15	2.227423E-16
7.100710E+03	9.555659E-15	2.246010E-16
7.110711E+03	9.639903E-15	2.262508E-16
7.120712E+03	9.721024E-15	2.278190E-16
7.130713E+03	9.807001E-15	2.294926E-16
7.140714E+03	9.905647E-15	2.314538E-16
7.150715E+03	1.002177E-14	2.338132E-16
7.160716E+03	1.016285E-14	2.367436E-16
7.170717E+03	1.033510E-14	2.403867E-16
7.180718E+03	1.054410E-14	2.448686E-16
7.190719E+03	1.079541E-14	2.503141E-16
7.200720E+03	1.108978E-14	2.567364E-16
7.210721E+03	1.142865E-14	2.641634E-16
7.220722E+03	1.180914E-14	2.725242E-16
7.230723E+03	1.222444E-14	2.816570E-16
7.240724E+03	1.266329E-14	2.912989E-16
7.250725E+03	1.310982E-14	3.010826E-16
7.260726E+03	1.354263E-14	3.105167E-16
7.270727E+03	1.394132E-14	3.191358E-16
7.280728E+03	1.428042E-14	3.263615E-16
7.290729E+03	1.453686E-14	3.316743E-16
7.300730E+03	1.468973E-14	3.346073E-16
7.310731E+03	1.472830E-14	3.349283E-16
7.320732E+03	1.464486E-14	3.324757E-16
7.330733E+03	1.443959E-14	3.272672E-16
7.340734E+03	1.412433E-14	3.195852E-16
7.350735E+03	1.371117E-14	3.097155E-16
7.360736E+03	1.322158E-14	2.981535E-16
7.370737E+03	1.267325E-14	2.853062E-16
7.380738E+03	1.208743E-14	2.716584E-16
7.390739E+03	1.148307E-14	2.576395E-16
7.400740E+03	1.087260E-14	2.435302E-16
7.410741E+03	1.026857E-14	2.296120E-16
7.420742E+03	9.679082E-15	2.160647E-16
7.430743E+03	9.109356E-15	2.030032E-16
7.440744E+03	8.562473E-15	1.904939E-16
7.450745E+03	8.040025E-15	1.785694E-16
7.460746E+03	7.542726E-15	1.672427E-16
7.470747E+03	7.070950E-15	1.565192E-16
7.480748E+03	6.625088E-15	1.464046E-16
7.490749E+03	6.205777E-15	1.369099E-16
7.500750E+03	5.813971E-15	1.280531E-16
7.510751E+03	5.450406E-15	1.198472E-16
7.520752E+03	5.117733E-15	1.123472E-16
7.530753E+03	4.817068E-15	1.055740E-16
7.540754E+03	4.549718E-15	9.955255E-17
7.550755E+03	4.318382E-15	9.433820E-17
7.560756E+03	4.123875E-15	8.994473E-17
7.570757E+03	3.968279E-15	8.641355E-17
7.580758E+03	3.853601E-15	8.378413E-17
7.590759E+03	3.780766E-15	8.207229E-17
7.600760E+03	3.752052E-15	8.132317E-17
7.610761E+03	3.769609E-15	8.157888E-17
7.620762E+03	3.835901E-15	8.288817E-17
7.630763E+03	3.954012E-15	8.531298E-17
7.640764E+03	4.125839E-15	8.888941E-17
7.650765E+03	4.353578E-15	9.365992E-17
7.660766E+03	4.639187E-15	9.966180E-17
7.670767E+03	4.981243E-15	1.068597E-16
7.680768E+03	5.375522E-15	1.151588E-16
7.690769E+03	5.813448E-15	1.243716E-16
7.700770E+03	6.280481E-15	1.341848E-16
7.710771E+03	6.758277E-15	1.442053E-16
7.720772E+03	7.220981E-15	1.538824E-16
7.730773E+03	7.642280E-15	1.626583E-16
7.740774E+03	7.992621E-15	1.699091E-16
7.750775E+03	8.248811E-15	1.751489E-16
7.760776E+03	8.391226E-15	1.779691E-16
