#wls	flux	fluxerr
1.600160E+03	1.903214E-16	9.727522E-18
1.640164E+03	1.933156E-16	9.846462E-18
1.680168E+03	1.956278E-16	9.928896E-18
1.720172E+03	1.972595E-16	9.975218E-18
1.760176E+03	1.981130E-16	9.980847E-18
1.800180E+03	1.979920E-16	9.936358E-18
1.840184E+03	1.966829E-16	9.831614E-18
1.880188E+03	1.938395E-16	9.650103E-18
1.920192E+03	1.892829E-16	9.383911E-18
1.960196E+03	1.829188E-16	9.029510E-18
2.000200E+03	1.749661E-16	8.598881E-18
2.040204E+03	1.664117E-16	8.141457E-18
2.080208E+03	1.589053E-16	7.738084E-18
2.120212E+03	1.546067E-16	7.492824E-18
2.160216E+03	1.553283E-16	7.490904E-18
2.200220E+03	1.618996E-16	7.768522E-18
2.240224E+03	1.739632E-16	8.304254E-18
2.280228E+03	1.904124E-16	9.041267E-18
2.320232E+03	2.099406E-16	9.914259E-18
2.360236E+03	2.314301E-16	1.086803E-17
2.400240E+03	2.543401E-16	1.187542E-17
2.440244E+03	2.784221E-16	1.292339E-17
2.480248E+03	3.038213E-16	1.401724E-17
2.520252E+03	3.308000E-16	1.516749E-17
2.560256E+03	3.598137E-16	1.639308E-17
2.600260E+03	3.915023E-16	1.772072E-17
2.640264E+03	4.264939E-16	1.917574E-17
2.680268E+03	4.655898E-16	2.079037E-17
2.720272E+03	5.098143E-16	2.260558E-17
2.760276E+03	5.601980E-16	2.466122E-17
2.800280E+03	6.181406E-16	2.701177E-17
2.840284E+03	6.850823E-16	2.971142E-17
2.880288E+03	7.628047E-16	3.282691E-17
2.920292E+03	8.533610E-16	3.643390E-17
2.960296E+03	9.592250E-16	4.062271E-17
3.000300E+03	1.082979E-15	4.548439E-17
3.010301E+03	1.116907E-15	4.681071E-17
3.020302E+03	1.152145E-15	4.818545E-17
3.030303E+03	1.188930E-15	4.961814E-17
3.040304E+03	1.226939E-15	5.109488E-17
3.050305E+03	1.266495E-15	5.262876E-17
3.060306E+03	1.307952E-15	5.423398E-17
3.070307E+03	1.350909E-15	5.589340E-17
3.080308E+03	1.395828E-15	5.762568E-17
3.090309E+03	1.442281E-15	5.941255E-17
3.100310E+03	1.490754E-15	6.127364E-17
3.110311E+03	1.541041E-15	6.319983E-17
3.120312E+03	1.592901E-15	6.518074E-17
3.130313E+03	1.646868E-15	6.723773E-17
3.140314E+03	1.702431E-15	6.934933E-17
3.150315E+03	1.760159E-15	7.153819E-17
3.160316E+03	1.819803E-15	7.379360E-17
3.170317E+03	1.881079E-15	7.610342E-17
3.180318E+03	1.944614E-15	7.849255E-17
3.190319E+03	2.010138E-15	8.094937E-17
3.200320E+03	2.077340E-15	8.346082E-17
3.210321E+03	2.146916E-15	8.605427E-17
3.220322E+03	2.218572E-15	8.871723E-17
3.230323E+03	2.292340E-15	9.145037E-17
3.240324E+03	2.367871E-15	9.423910E-17
3.250325E+03	2.445952E-15	9.711422E-17
3.260326E+03	2.526240E-15	1.000613E-16
3.270327E+03	2.608753E-15	1.030804E-16
3.280328E+03	2.693501E-15	1.061711E-16
3.290329E+03	2.780472E-15	1.093325E-16
3.300330E+03	2.869634E-15	1.125625E-16
3.310331E+03	2.960442E-15	1.158390E-16
3.320332E+03	3.053732E-15	1.191943E-16
3.330333E+03	3.148882E-15	1.226033E-16
3.340334E+03	3.245672E-15	1.260569E-16
3.350335E+03	3.343809E-15	1.295433E-16
3.360336E+03	3.442913E-15	1.330473E-16
3.370337E+03	3.542509E-15	1.365502E-16
3.380338E+03	3.642012E-15	1.400295E-16
3.390339E+03	3.740733E-15	1.434587E-16
3.400340E+03	3.837870E-15	1.468073E-16
3.410341E+03	3.932533E-15	1.500417E-16
3.420342E+03	4.023761E-15	1.531262E-16
3.430343E+03	4.110567E-15	1.560242E-16
3.440344E+03	4.192662E-15	1.587261E-16
3.450345E+03	4.267846E-15	1.611503E-16
3.460346E+03	4.336067E-15	1.632967E-16
3.470347E+03	4.396841E-15	1.651494E-16
3.480348E+03	4.449967E-15	1.667029E-16
3.490349E+03	4.495557E-15	1.679638E-16
3.500350E+03	4.534042E-15	1.689504E-16
3.510351E+03	4.566141E-15	1.696916E-16
3.520352E+03	4.593529E-15	1.702513E-16
3.530353E+03	4.615821E-15	1.706168E-16
3.540354E+03	4.634831E-15	1.708565E-16
3.550355E+03	4.651536E-15	1.710073E-16
3.560356E+03	4.666681E-15	1.710973E-16
3.570357E+03	4.681412E-15	1.711688E-16
3.580358E+03	4.694236E-15	1.711677E-16
3.590359E+03	4.705402E-15	1.711035E-16
3.600360E+03	4.713944E-15	1.709418E-16
3.610361E+03	4.719170E-15	1.706583E-16
3.620362E+03	4.717756E-15	1.701343E-16
3.630363E+03	4.708303E-15	1.693215E-16
3.640364E+03	4.689218E-15	1.681651E-16
3.650365E+03	4.656672E-15	1.665313E-16
3.660366E+03	4.609216E-15	1.643724E-16
3.670367E+03	4.545015E-15	1.616277E-16
3.680368E+03	4.463494E-15	1.582818E-16
3.690369E+03	4.362699E-15	1.542710E-16
3.700370E+03	4.243698E-15	1.496387E-16
3.710371E+03	4.108462E-15	1.444596E-16
3.720372E+03	3.957998E-15	1.387740E-16
3.730373E+03	3.796199E-15	1.327224E-16
3.740374E+03	3.627599E-15	1.264665E-16
3.750375E+03	3.455509E-15	1.201233E-16
3.760376E+03	3.285202E-15	1.138765E-16
3.770377E+03	3.121762E-15	1.079014E-16
3.780378E+03	2.968450E-15	1.023082E-16
3.790379E+03	2.829502E-15	9.723959E-17
3.800380E+03	2.708438E-15	9.281172E-17
3.810381E+03	2.606860E-15	8.907410E-17
3.820382E+03	2.527099E-15	8.610033E-17
3.830383E+03	2.470972E-15	8.394567E-17
3.840384E+03	2.438811E-15	8.261447E-17
3.850385E+03	2.431912E-15	8.214343E-17
3.860386E+03	2.451443E-15	8.256450E-17
3.870387E+03	2.497379E-15	8.386924E-17
3.880388E+03	2.570758E-15	8.608474E-17
3.890389E+03	2.672521E-15	8.923462E-17
3.900390E+03	2.802143E-15	9.329324E-17
3.910391E+03	2.959871E-15	9.826099E-17
3.920392E+03	3.145411E-15	1.041202E-16
3.930393E+03	3.356207E-15	1.107789E-16
3.940394E+03	3.590069E-15	1.181580E-16
3.950395E+03	3.843829E-15	1.261473E-16
3.960396E+03	4.111490E-15	1.345454E-16
3.970397E+03	4.387826E-15	1.431781E-16
3.980398E+03	4.667167E-15	1.518591E-16
3.990399E+03	4.941567E-15	1.603300E-16
4.000400E+03	5.205439E-15	1.684121E-16
4.010401E+03	5.454119E-15	1.759581E-16
4.020402E+03	5.681593E-15	1.827793E-16
4.030403E+03	5.885611E-15	1.888098E-16
4.040404E+03	6.064553E-15	1.940044E-16
4.050405E+03	6.219080E-15	1.983916E-16
4.060406E+03	6.348197E-15	2.019466E-16
4.070407E+03	6.454625E-15	2.047627E-16
4.080408E+03	6.540804E-15	2.069235E-16
4.090409E+03	6.610542E-15	2.085549E-16
4.100410E+03	6.664802E-15	2.096915E-16
4.110411E+03	6.707489E-15	2.104602E-16
4.120412E+03	6.741356E-15	2.109503E-16
4.130413E+03	6.768931E-15	2.112433E-16
4.140414E+03	6.793536E-15	2.114441E-16
4.150415E+03	6.815192E-15	2.115545E-16
4.160416E+03	6.836822E-15	2.116658E-16
4.170417E+03	6.860160E-15	2.118319E-16
4.180418E+03	6.886834E-15	2.121025E-16
4.190419E+03	6.918320E-15	2.125225E-16
4.200420E+03	6.955952E-15	2.131318E-16
4.210421E+03	7.001865E-15	2.139945E-16
4.220422E+03	7.054709E-15	2.150677E-16
4.230423E+03	7.115805E-15	2.163903E-16
4.240424E+03	7.184827E-15	2.179508E-16
4.250425E+03	7.260776E-15	2.197177E-16
4.260426E+03	7.341912E-15	2.216372E-16
4.270427E+03	7.425847E-15	2.236367E-16
4.280428E+03	7.509619E-15	2.256269E-16
4.290429E+03	7.589956E-15	2.275103E-16
4.300430E+03	7.663509E-15	2.291879E-16
4.310431E+03	7.727224E-15	2.305703E-16
4.320432E+03	7.778728E-15	2.315893E-16
4.330433E+03	7.815532E-15	2.321736E-16
4.340434E+03	7.840058E-15	2.323984E-16
4.350435E+03	7.852887E-15	2.322834E-16
4.360436E+03	7.857466E-15	2.319327E-16
4.370437E+03	7.858783E-15	2.314950E-16
4.380438E+03	7.862795E-15	2.311463E-16
4.390439E+03	7.873999E-15	2.310181E-16
4.400440E+03	7.898392E-15	2.312850E-16
4.410441E+03	7.936256E-15	2.319533E-16
4.420442E+03	7.988048E-15	2.330344E-16
4.430443E+03	8.052835E-15	2.344992E-16
4.440444E+03	8.133267E-15	2.364232E-16
4.450445E+03	8.228492E-15	2.387796E-16
4.460446E+03	8.337640E-15	2.415413E-16
4.470447E+03	8.463461E-15	2.447862E-16
4.480448E+03	8.604929E-15	2.484826E-16
4.490449E+03	8.760671E-15	2.525892E-16
4.500450E+03	8.932716E-15	2.571629E-16
4.510451E+03	9.117263E-15	2.620930E-16
4.520452E+03	9.314829E-15	2.673931E-16
4.530453E+03	9.519351E-15	2.728886E-16
4.540454E+03	9.728802E-15	2.785212E-16
4.550455E+03	9.934068E-15	2.840303E-16
4.560456E+03	1.013037E-14	2.892805E-16
4.570457E+03	1.030612E-14	2.939429E-16
4.580458E+03	1.045380E-14	2.978055E-16
4.590459E+03	1.056642E-14	3.006730E-16
4.600460E+03	1.063366E-14	3.022556E-16
4.610461E+03	1.065191E-14	3.024550E-16
4.620462E+03	1.062019E-14	3.012476E-16
4.630463E+03	1.053579E-14	2.985606E-16
4.640464E+03	1.040351E-14	2.945340E-16
4.650465E+03	1.022920E-14	2.893364E-16
4.660466E+03	1.002075E-14	2.831931E-16
4.670467E+03	9.788857E-15	2.764083E-16
4.680468E+03	9.540655E-15	2.691838E-16
4.690469E+03	9.287625E-15	2.618435E-16
4.700470E+03	9.039235E-15	2.546536E-16
4.710471E+03	8.803871E-15	2.478490E-16
4.720472E+03	8.588498E-15	2.416241E-16
4.730473E+03	8.398401E-15	2.361255E-16
4.740474E+03	8.237097E-15	2.314502E-16
4.750475E+03	8.106327E-15	2.276449E-16
4.760476E+03	8.004993E-15	2.246769E-16
4.770477E+03	7.933990E-15	2.225694E-16
4.780478E+03	7.889399E-15	2.212112E-16
4.790479E+03	7.867445E-15	2.204949E-16
4.800480E+03	7.863613E-15	2.202932E-16
4.810481E+03	7.871839E-15	2.204354E-16
4.820482E+03	7.889401E-15	2.208447E-16
4.830483E+03	7.910461E-15	2.213575E-16
4.840484E+03	7.929817E-15	2.218280E-16
4.850485E+03	7.946629E-15	2.222328E-16
4.860486E+03	7.957812E-15	2.224856E-16
4.870487E+03	7.961534E-15	2.225351E-16
4.880488E+03	7.960699E-15	2.224627E-16
4.890489E+03	7.954732E-15	2.222522E-16
4.900490E+03	7.948499E-15	2.220395E-16
4.910491E+03	7.942772E-15	2.218461E-16
4.920492E+03	7.942956E-15	2.218227E-16
4.930493E+03	7.949554E-15	2.219833E-16
4.940494E+03	7.965717E-15	2.224156E-16
4.950495E+03	7.993573E-15	2.231791E-16
4.960496E+03	8.030570E-15	2.242023E-16
4.970497E+03	8.076309E-15	2.254740E-16
4.980498E+03	8.128153E-15	2.269205E-16
4.990499E+03	8.182722E-15	2.284476E-16
5.000500E+03	8.237578E-15	2.299870E-16
5.010501E+03	8.287190E-15	2.313845E-16
5.020502E+03	8.330555E-15	2.326119E-16
5.030503E+03	8.367074E-15	2.336524E-16
5.040504E+03	8.397936E-15	2.345393E-16
5.050505E+03	8.426129E-15	2.353558E-16
5.060506E+03	8.456138E-15	2.362272E-16
5.070507E+03	8.493398E-15	2.373054E-16
5.080508E+03	8.543664E-15	2.387512E-16
5.090509E+03	8.612368E-15	2.407166E-16
5.100510E+03	8.702736E-15	2.432921E-16
5.110511E+03	8.820256E-15	2.466317E-16
5.120512E+03	8.964895E-15	2.507350E-16
5.130513E+03	9.135798E-15	2.555786E-16
5.140514E+03	9.328659E-15	2.610429E-16
5.150515E+03	9.541118E-15	2.670623E-16
5.160516E+03	9.765185E-15	2.734139E-16
5.170517E+03	9.991547E-15	2.798373E-16
5.180518E+03	1.021453E-14	2.861737E-16
5.190519E+03	1.042288E-14	2.921080E-16
5.200520E+03	1.061188E-14	2.975075E-16
5.210521E+03	1.077214E-14	3.021087E-16
5.220522E+03	1.090187E-14	3.058603E-16
5.230523E+03	1.099484E-14	3.085867E-16
5.240524E+03	1.105256E-14	3.103293E-16
5.250525E+03	1.107170E-14	3.109935E-16
5.260526E+03	1.105471E-14	3.106464E-16
5.270527E+03	1.100479E-14	3.093770E-16
5.280528E+03	1.092103E-14	3.071584E-16
5.290529E+03	1.080760E-14	3.041060E-16
5.300530E+03	1.066728E-14	3.002977E-16
5.310531E+03	1.050313E-14	2.958176E-16
5.320532E+03	1.031834E-14	2.907548E-16
5.330533E+03	1.011775E-14	2.852450E-16
5.340534E+03	9.902160E-15	2.793093E-16
5.350535E+03	9.676955E-15	2.730991E-16
5.360536E+03	9.446325E-15	2.667321E-16
5.370537E+03	9.214685E-15	2.603325E-16
5.380538E+03	8.986572E-15	2.540283E-16
5.390539E+03	8.765302E-15	2.479131E-16
5.400540E+03	8.557829E-15	2.421840E-16
5.410541E+03	8.367104E-15	2.369249E-16
5.420542E+03	8.196985E-15	2.322458E-16
5.430543E+03	8.050899E-15	2.282447E-16
5.440544E+03	7.931705E-15	2.250037E-16
5.450545E+03	7.840508E-15	2.225554E-16
5.460546E+03	7.780949E-15	2.210045E-16
5.470547E+03	7.752414E-15	2.203349E-16
5.480548E+03	7.753140E-15	2.204982E-16
5.490549E+03	7.783093E-15	2.214948E-16
5.500550E+03	7.835615E-15	2.231367E-16
5.510551E+03	7.905701E-15	2.252824E-16
5.520552E+03	7.981770E-15	2.276026E-16
5.530553E+03	8.055227E-15	2.298523E-16
5.540554E+03	8.112304E-15	2.316381E-16
5.550555E+03	8.143860E-15	2.326978E-16
5.560556E+03	8.137305E-15	2.326697E-16
5.570557E+03	8.085548E-15	2.313486E-16
5.580558E+03	7.984385E-15	2.286114E-16
5.590559E+03	7.829644E-15	2.243354E-16
5.600560E+03	7.624057E-15	2.185958E-16
5.610561E+03	7.373442E-15	2.115562E-16
5.620562E+03	7.083016E-15	2.033636E-16
5.630563E+03	6.762891E-15	1.943063E-16
5.640564E+03	6.422984E-15	1.846673E-16
5.650565E+03	6.073296E-15	1.747333E-16
5.660566E+03	5.723355E-15	1.647779E-16
5.670567E+03	5.381778E-15	1.550493E-16
5.680568E+03	5.056046E-15	1.457638E-16
5.690569E+03	4.752390E-15	1.371020E-16
5.700570E+03	4.475786E-15	1.292088E-16
5.710571E+03	4.230009E-15	1.221951E-16
5.720572E+03	4.017760E-15	1.161405E-16
5.730573E+03	3.840801E-15	1.110981E-16
5.740574E+03	3.700123E-15	1.070986E-16
5.750575E+03	3.596102E-15	1.041549E-16
5.760576E+03	3.528624E-15	1.022659E-16
5.770577E+03	3.497172E-15	1.014185E-16
5.780578E+03	3.500357E-15	1.015743E-16
5.790579E+03	3.537825E-15	1.027251E-16
5.800580E+03	3.607209E-15	1.048037E-16
5.810581E+03	3.705404E-15	1.077215E-16
5.820582E+03	3.829939E-15	1.114081E-16
5.830583E+03	3.975744E-15	1.157172E-16
5.840584E+03	4.136496E-15	1.204655E-16
5.850585E+03	4.306427E-15	1.254855E-16
5.860586E+03	4.476475E-15	1.305134E-16
5.870587E+03	4.639373E-15	1.353370E-16
5.880588E+03	4.785268E-15	1.396682E-16
5.890589E+03	4.907458E-15	1.433103E-16
5.900590E+03	4.997784E-15	1.460237E-16
5.910591E+03	5.052648E-15	1.477016E-16
5.920592E+03	5.067903E-15	1.482212E-16
5.930593E+03	5.044669E-15	1.476133E-16
5.940594E+03	4.983633E-15	1.458964E-16
5.950595E+03	4.889717E-15	1.432132E-16
5.960596E+03	4.769453E-15	1.397538E-16
5.970597E+03	4.628432E-15	1.356812E-16
5.980598E+03	4.474787E-15	1.312331E-16
5.990599E+03	4.315945E-15	1.266272E-16
6.000600E+03	4.159468E-15	1.220853E-16
6.010601E+03	4.010424E-15	1.177565E-16
6.020602E+03	3.874797E-15	1.138170E-16
6.030603E+03	3.757077E-15	1.103992E-16
6.040604E+03	3.660942E-15	1.076121E-16
6.050605E+03	3.589419E-15	1.055453E-16
6.060606E+03	3.545073E-15	1.042751E-16
6.070607E+03	3.530711E-15	1.038849E-16
6.080608E+03	3.547626E-15	1.044136E-16
6.090609E+03	3.598753E-15	1.059483E-16
6.100610E+03	3.686863E-15	1.085716E-16
6.110611E+03	3.815214E-15	1.123800E-16
6.120612E+03	3.987097E-15	1.174713E-16
6.130613E+03	4.208101E-15	1.240109E-16
6.140614E+03	4.482844E-15	1.321357E-16
6.150615E+03	4.817020E-15	1.420141E-16
6.160616E+03	5.216633E-15	1.538238E-16
6.170617E+03	5.687594E-15	1.677397E-16
6.180618E+03	6.235103E-15	1.839157E-16
6.190619E+03	6.862804E-15	2.024596E-16
6.200620E+03	7.570674E-15	2.233709E-16
6.210621E+03	8.357911E-15	2.466260E-16
6.220622E+03	9.215666E-15	2.719634E-16
6.230623E+03	1.012997E-14	2.989705E-16
6.240624E+03	1.107865E-14	3.269921E-16
6.250625E+03	1.203764E-14	3.553164E-16
6.260626E+03	1.297321E-14	3.829472E-16
6.270627E+03	1.384810E-14	4.087830E-16
6.280628E+03	1.463071E-14	4.318895E-16
6.290629E+03	1.528514E-14	4.512064E-16
6.300630E+03	1.579038E-14	4.661122E-16
6.310631E+03	1.612839E-14	4.760744E-16
6.320632E+03	1.629148E-14	4.808658E-16
6.330633E+03	1.628929E-14	4.807716E-16
6.340634E+03	1.613150E-14	4.760784E-16
6.350635E+03	1.584367E-14	4.675415E-16
6.360636E+03	1.544639E-14	4.557704E-16
6.370637E+03	1.497046E-14	4.416746E-16
6.380638E+03	1.443708E-14	4.258815E-16
6.390639E+03	1.387132E-14	4.091318E-16
6.400640E+03	1.329440E-14	3.920525E-16
6.410641E+03	1.271802E-14	3.749893E-16
6.420642E+03	1.215757E-14	3.583965E-16
6.430643E+03	1.161796E-14	3.424194E-16
6.440644E+03	1.110655E-14	3.272756E-16
6.450645E+03	1.062827E-14	3.131099E-16
6.460646E+03	1.018186E-14	2.998853E-16
6.470647E+03	9.769543E-15	2.876672E-16
6.480648E+03	9.391250E-15	2.764532E-16
6.490649E+03	9.047771E-15	2.662663E-16
6.500650E+03	8.735833E-15	2.570095E-16
6.510651E+03	8.455958E-15	2.486979E-16
6.520652E+03	8.207177E-15	2.413022E-16
6.530653E+03	7.988875E-15	2.348039E-16
6.540654E+03	7.795181E-15	2.290297E-16
6.550655E+03	7.621761E-15	2.238517E-16
6.560656E+03	7.462577E-15	2.190922E-16
6.570657E+03	7.311922E-15	2.145835E-16
6.580658E+03	7.164612E-15	2.101733E-16
6.590659E+03	7.016064E-15	2.057273E-16
6.600660E+03	6.862286E-15	2.011286E-16
6.610661E+03	6.699958E-15	1.962805E-16
6.620662E+03	6.527344E-15	1.911326E-16
6.630663E+03	6.340692E-15	1.855758E-16
6.640664E+03	6.139840E-15	1.796061E-16
6.650665E+03	5.924516E-15	1.732165E-16
6.660666E+03	5.695291E-15	1.664247E-16
6.670667E+03	5.452784E-15	1.592496E-16
6.680668E+03	5.200703E-15	1.518005E-16
6.690669E+03	4.941027E-15	1.441360E-16
6.700670E+03	4.677034E-15	1.363523E-16
6.710671E+03	4.412319E-15	1.285548E-16
6.720672E+03	4.150598E-15	1.208521E-16
6.730673E+03	3.895520E-15	1.133506E-16
6.740674E+03	3.650489E-15	1.061492E-16
6.750675E+03	3.418523E-15	9.933544E-17
6.760676E+03	3.201709E-15	9.296941E-17
6.770677E+03	3.002976E-15	8.713552E-17
6.780678E+03	2.823309E-15	8.186143E-17
6.790679E+03	2.663672E-15	7.717415E-17
6.800680E+03	2.524599E-15	7.308799E-17
6.810681E+03	2.405935E-15	6.959734E-17
6.820682E+03	2.308307E-15	6.671903E-17
6.830683E+03	2.231133E-15	6.443497E-17
6.840684E+03	2.174112E-15	6.273506E-17
6.850685E+03	2.136631E-15	6.160031E-17
6.860686E+03	2.119022E-15	6.103883E-17
6.870687E+03	2.120772E-15	6.103436E-17
6.880688E+03	2.141443E-15	6.157284E-17
6.890689E+03	2.181550E-15	6.266751E-17
6.900690E+03	2.240729E-15	6.430634E-17
6.910691E+03	2.318549E-15	6.647531E-17
6.920692E+03	2.415438E-15	6.918505E-17
6.930693E+03	2.530325E-15	7.240313E-17
6.940694E+03	2.663242E-15	7.612880E-17
6.950695E+03	2.812456E-15	8.031084E-17
6.960696E+03	2.977362E-15	8.493031E-17
6.970697E+03	3.155808E-15	8.992431E-17
6.980698E+03	3.345171E-15	9.521667E-17
6.990699E+03	3.543904E-15	1.007622E-16
7.000700E+03	3.748362E-15	1.064562E-16
7.010701E+03	3.956837E-15	1.122495E-16
7.020702E+03	4.165595E-15	1.180356E-16
7.030703E+03	4.372781E-15	1.237618E-16
7.040704E+03	4.577071E-15	1.293905E-16
7.050705E+03	4.775766E-15	1.348456E-16
7.060706E+03	4.969394E-15	1.401425E-16
7.070707E+03	5.156466E-15	1.452394E-16
7.080708E+03	5.338251E-15	1.501726E-16
7.090709E+03	5.516795E-15	1.549999E-16
7.100710E+03	5.692445E-15	1.597313E-16
7.110711E+03	5.868366E-15	1.644557E-16
7.120712E+03	6.048248E-15	1.692761E-16
7.130713E+03	6.233520E-15	1.742320E-16
7.140714E+03	6.428264E-15	1.794366E-16
7.150715E+03	6.636618E-15	1.850040E-16
7.160716E+03	6.859663E-15	1.909627E-16
7.170717E+03	7.100738E-15	1.974036E-16
7.180718E+03	7.361472E-15	2.043700E-16
7.190719E+03	7.643478E-15	2.119040E-16
7.200720E+03	7.943729E-15	2.199193E-16
7.210721E+03	8.260604E-15	2.283688E-16
7.220722E+03	8.589430E-15	2.371214E-16
7.230723E+03	8.923317E-15	2.459857E-16
7.240724E+03	9.253166E-15	2.547105E-16
7.250725E+03	9.569224E-15	2.630281E-16
7.260726E+03	9.856155E-15	2.705193E-16
7.270727E+03	1.010183E-14	2.768551E-16
7.280728E+03	1.029298E-14	2.816773E-16
7.290729E+03	1.041761E-14	2.846650E-16
7.300730E+03	1.046613E-14	2.855645E-16
7.310731E+03	1.043228E-14	2.842151E-16
7.320732E+03	1.031381E-14	2.805656E-16
7.330733E+03	1.011264E-14	2.746789E-16
7.340734E+03	9.834691E-15	2.667259E-16
7.350735E+03	9.489223E-15	2.569669E-16
7.360736E+03	9.087957E-15	2.457274E-16
7.370737E+03	8.644006E-15	2.333685E-16
7.380738E+03	8.170843E-15	2.202589E-16
7.390739E+03	7.681452E-15	2.067516E-16
7.400740E+03	7.187587E-15	1.931647E-16
7.410741E+03	6.699389E-15	1.797708E-16
7.420742E+03	6.225151E-15	1.667915E-16
7.430743E+03	5.770506E-15	1.543758E-16
7.440744E+03	5.341903E-15	1.426934E-16
7.450745E+03	4.941688E-15	1.318037E-16
7.460746E+03	4.571839E-15	1.217559E-16
7.470747E+03	4.233340E-15	1.125723E-16
7.480748E+03	3.926414E-15	1.042549E-16
7.490749E+03	3.650206E-15	9.677730E-17
7.500750E+03	3.405090E-15	9.014555E-17
7.510751E+03	3.189562E-15	8.431609E-17
7.520752E+03	3.002556E-15	7.925726E-17
7.530753E+03	2.842570E-15	7.492603E-17
7.540754E+03	2.709378E-15	7.131329E-17
7.550755E+03	2.601581E-15	6.837915E-17
7.560756E+03	2.517977E-15	6.608914E-17
7.570757E+03	2.458609E-15	6.444169E-17
7.580758E+03	2.422578E-15	6.341063E-17
7.590759E+03	2.409169E-15	6.297473E-17
7.600760E+03	2.418832E-15	6.314346E-17
7.610761E+03	2.450710E-15	6.389210E-17
7.620762E+03	2.505339E-15	6.523251E-17
7.630763E+03	2.582099E-15	6.714648E-17
7.640764E+03	2.680067E-15	6.960804E-17
7.650765E+03	2.799004E-15	7.260930E-17
7.660766E+03	2.936459E-15	7.608506E-17
7.670767E+03	3.090715E-15	7.998968E-17
7.680768E+03	3.257301E-15	8.420645E-17
7.690769E+03	3.432359E-15	8.863527E-17
7.700770E+03	3.609009E-15	9.309845E-17
7.710771E+03	3.780846E-15	9.743145E-17
7.720772E+03	3.940992E-15	1.014582E-16
7.730773E+03	4.080863E-15	1.049593E-16
7.740774E+03	4.194788E-15	1.077912E-16
7.750775E+03	4.276089E-15	1.097847E-16
7.760776E+03	4.321812E-15	1.108667E-16
