#wls	flux	fluxerr
1.600160E+03	1.610764E-16	5.905861E-18
1.640164E+03	1.638303E-16	5.997281E-18
1.680168E+03	1.660595E-16	6.068988E-18
1.720172E+03	1.676762E-16	6.117860E-18
1.760176E+03	1.686848E-16	6.144160E-18
1.800180E+03	1.688868E-16	6.140783E-18
1.840184E+03	1.680969E-16	6.101147E-18
1.880188E+03	1.660135E-16	6.014523E-18
1.920192E+03	1.624759E-16	5.875361E-18
1.960196E+03	1.573373E-16	5.678676E-18
2.000200E+03	1.508874E-16	5.435250E-18
2.040204E+03	1.438848E-16	5.172658E-18
2.080208E+03	1.378050E-16	4.943989E-18
2.120212E+03	1.344594E-16	4.813911E-18
2.160216E+03	1.355266E-16	4.841796E-18
2.200220E+03	1.417538E-16	5.053264E-18
2.240224E+03	1.528871E-16	5.438064E-18
2.280228E+03	1.680157E-16	5.962650E-18
2.320232E+03	1.859785E-16	6.584887E-18
2.360236E+03	2.059565E-16	7.275069E-18
2.400240E+03	2.274141E-16	8.013734E-18
2.440244E+03	2.502015E-16	8.795149E-18
2.480248E+03	2.744921E-16	9.624956E-18
2.520252E+03	3.005180E-16	1.051078E-17
2.560256E+03	3.288488E-16	1.147191E-17
2.600260E+03	3.600281E-16	1.252653E-17
2.640264E+03	3.948336E-16	1.370071E-17
2.680268E+03	4.339738E-16	1.501784E-17
2.720272E+03	4.785809E-16	1.651560E-17
2.760276E+03	5.297561E-16	1.823016E-17
2.800280E+03	5.888782E-16	2.020674E-17
2.840284E+03	6.575684E-16	2.249825E-17
2.880288E+03	7.378370E-16	2.517019E-17
2.920292E+03	8.317366E-16	2.828864E-17
2.960296E+03	9.416323E-16	3.192933E-17
3.000300E+03	1.069946E-15	3.616891E-17
3.010301E+03	1.105215E-15	3.733221E-17
3.020302E+03	1.141611E-15	3.853166E-17
3.030303E+03	1.179539E-15	3.978081E-17
3.040304E+03	1.218858E-15	4.107474E-17
3.050305E+03	1.259673E-15	4.241691E-17
3.060306E+03	1.302093E-15	4.381086E-17
3.070307E+03	1.346107E-15	4.525608E-17
3.080308E+03	1.391696E-15	4.675178E-17
3.090309E+03	1.438588E-15	4.828875E-17
3.100310E+03	1.487227E-15	4.988173E-17
3.110311E+03	1.537331E-15	5.152112E-17
3.120312E+03	1.588844E-15	5.320498E-17
3.130313E+03	1.641705E-15	5.493104E-17
3.140314E+03	1.695839E-15	5.669680E-17
3.150315E+03	1.751170E-15	5.849953E-17
3.160316E+03	1.807613E-15	6.033633E-17
3.170317E+03	1.865084E-15	6.220427E-17
3.180318E+03	1.923497E-15	6.410042E-17
3.190319E+03	1.982771E-15	6.602202E-17
3.200320E+03	2.042833E-15	6.796653E-17
3.210321E+03	2.103619E-15	6.993178E-17
3.220322E+03	2.165079E-15	7.191605E-17
3.230323E+03	2.227183E-15	7.391824E-17
3.240324E+03	2.289914E-15	7.593780E-17
3.250325E+03	2.353280E-15	7.797486E-17
3.260326E+03	2.417306E-15	8.003024E-17
3.270327E+03	2.482035E-15	8.210532E-17
3.280328E+03	2.547525E-15	8.420197E-17
3.290329E+03	2.613846E-15	8.632236E-17
3.300330E+03	2.681516E-15	8.848358E-17
3.310331E+03	2.749710E-15	9.065831E-17
3.320332E+03	2.818908E-15	9.286227E-17
3.330333E+03	2.889115E-15	9.509564E-17
3.340334E+03	2.960291E-15	9.735692E-17
3.350335E+03	3.032329E-15	9.964256E-17
3.360336E+03	3.105046E-15	1.019465E-16
3.370337E+03	3.178171E-15	1.042598E-16
3.380338E+03	3.251882E-15	1.065882E-16
3.390339E+03	3.324633E-15	1.088811E-16
3.400340E+03	3.396378E-15	1.111370E-16
3.410341E+03	3.466446E-15	1.133341E-16
3.420342E+03	3.534091E-15	1.154482E-16
3.430343E+03	3.599124E-15	1.174733E-16
3.440344E+03	3.659583E-15	1.193456E-16
3.450345E+03	3.715342E-15	1.210615E-16
3.460346E+03	3.765815E-15	1.226022E-16
3.470347E+03	3.810591E-15	1.239549E-16
3.480348E+03	3.850128E-15	1.251348E-16
3.490349E+03	3.883226E-15	1.261035E-16
3.500350E+03	3.910846E-15	1.268927E-16
3.510351E+03	3.933558E-15	1.275213E-16
3.520352E+03	3.952111E-15	1.280140E-16
3.530353E+03	3.968019E-15	1.284202E-16
3.540354E+03	3.980835E-15	1.287256E-16
3.550355E+03	3.991981E-15	1.289764E-16
3.560356E+03	4.002026E-15	1.291912E-16
3.570357E+03	4.011917E-15	1.294006E-16
3.580358E+03	4.020270E-15	1.295601E-16
3.590359E+03	4.027307E-15	1.296768E-16
3.600360E+03	4.032867E-15	1.297458E-16
3.610361E+03	4.034437E-15	1.296863E-16
3.620362E+03	4.031188E-15	1.294722E-16
3.630363E+03	4.021397E-15	1.290485E-16
3.640364E+03	4.003863E-15	1.283773E-16
3.650365E+03	3.975399E-15	1.273571E-16
3.660366E+03	3.934935E-15	1.259545E-16
3.670367E+03	3.881660E-15	1.241445E-16
3.680368E+03	3.813281E-15	1.218551E-16
3.690369E+03	3.730019E-15	1.190943E-16
3.700370E+03	3.632144E-15	1.158720E-16
3.710371E+03	3.521271E-15	1.122409E-16
3.720372E+03	3.398057E-15	1.082230E-16
3.730373E+03	3.265680E-15	1.039202E-16
3.740374E+03	3.127878E-15	9.945225E-17
3.750375E+03	2.987306E-15	9.490382E-17
3.760376E+03	2.848461E-15	9.041786E-17
3.770377E+03	2.715767E-15	8.613452E-17
3.780378E+03	2.592088E-15	8.214407E-17
3.790379E+03	2.481272E-15	7.856760E-17
3.800380E+03	2.386200E-15	7.549526E-17
3.810381E+03	2.309601E-15	7.301204E-17
3.820382E+03	2.252576E-15	7.115130E-17
3.830383E+03	2.216982E-15	6.997010E-17
3.840384E+03	2.204357E-15	6.951529E-17
3.850385E+03	2.214979E-15	6.979391E-17
3.860386E+03	2.250094E-15	7.084335E-17
3.870387E+03	2.310865E-15	7.269843E-17
3.880388E+03	2.397214E-15	7.535477E-17
3.890389E+03	2.509934E-15	7.883535E-17
3.900390E+03	2.649056E-15	8.313929E-17
3.910391E+03	2.814485E-15	8.826161E-17
3.920392E+03	3.003980E-15	9.413032E-17
3.930393E+03	3.215633E-15	1.006839E-16
3.940394E+03	3.446563E-15	1.078308E-16
3.950395E+03	3.691155E-15	1.153940E-16
3.960396E+03	3.944423E-15	1.232171E-16
3.970397E+03	4.200169E-15	1.311060E-16
3.980398E+03	4.452608E-15	1.388803E-16
3.990399E+03	4.693996E-15	1.462988E-16
4.000400E+03	4.919275E-15	1.532052E-16
4.010401E+03	5.123731E-15	1.594539E-16
4.020402E+03	5.304827E-15	1.649676E-16
4.030403E+03	5.458960E-15	1.696360E-16
4.040404E+03	5.586550E-15	1.734742E-16
4.050405E+03	5.688597E-15	1.765151E-16
4.060406E+03	5.768201E-15	1.788566E-16
4.070407E+03	5.826601E-15	1.805386E-16
4.080408E+03	5.868351E-15	1.817037E-16
4.090409E+03	5.897314E-15	1.824724E-16
4.100410E+03	5.917283E-15	1.829631E-16
4.110411E+03	5.932683E-15	1.833129E-16
4.120412E+03	5.944629E-15	1.835567E-16
4.130413E+03	5.956568E-15	1.838011E-16
4.140414E+03	5.970514E-15	1.841082E-16
4.150415E+03	5.988072E-15	1.845273E-16
4.160416E+03	6.010544E-15	1.850985E-16
4.170417E+03	6.039971E-15	1.858842E-16
4.180418E+03	6.075335E-15	1.868528E-16
4.190419E+03	6.118323E-15	1.880558E-16
4.200420E+03	6.169410E-15	1.895074E-16
4.210421E+03	6.228767E-15	1.912125E-16
4.220422E+03	6.296167E-15	1.931637E-16
4.230423E+03	6.370920E-15	1.953395E-16
4.240424E+03	6.451843E-15	1.977033E-16
4.250425E+03	6.537212E-15	2.002021E-16
4.260426E+03	6.625861E-15	2.028000E-16
4.270427E+03	6.712987E-15	2.053501E-16
4.280428E+03	6.796577E-15	2.077910E-16
4.290429E+03	6.873454E-15	2.100258E-16
4.300430E+03	6.940613E-15	2.119633E-16
4.310431E+03	6.995626E-15	2.135300E-16
4.320432E+03	7.036972E-15	2.146800E-16
4.330433E+03	7.064345E-15	2.154048E-16
4.340434E+03	7.078766E-15	2.157362E-16
4.350435E+03	7.082553E-15	2.157455E-16
4.360436E+03	7.079119E-15	2.155370E-16
4.370437E+03	7.072649E-15	2.152385E-16
4.380438E+03	7.067665E-15	2.149878E-16
4.390439E+03	7.068397E-15	2.149133E-16
4.400440E+03	7.076967E-15	2.150794E-16
4.410441E+03	7.097823E-15	2.156209E-16
4.420442E+03	7.131564E-15	2.165556E-16
4.430443E+03	7.179758E-15	2.179306E-16
4.440444E+03	7.243933E-15	2.197919E-16
4.450445E+03	7.325462E-15	2.221806E-16
4.460446E+03	7.425382E-15	2.251275E-16
4.470447E+03	7.544158E-15	2.286462E-16
4.480448E+03	7.680150E-15	2.326864E-16
4.490449E+03	7.834180E-15	2.372727E-16
4.500450E+03	8.002043E-15	2.422773E-16
4.510451E+03	8.179148E-15	2.475609E-16
4.520452E+03	8.359331E-15	2.529369E-16
4.530453E+03	8.533699E-15	2.581364E-16
4.540454E+03	8.696388E-15	2.629822E-16
4.550455E+03	8.837256E-15	2.671682E-16
4.560456E+03	8.946501E-15	2.703988E-16
4.570457E+03	9.019773E-15	2.725434E-16
4.580458E+03	9.050491E-15	2.734039E-16
4.590459E+03	9.034484E-15	2.728555E-16
4.600460E+03	8.974505E-15	2.709822E-16
4.610461E+03	8.871624E-15	2.678170E-16
4.620462E+03	8.729220E-15	2.634627E-16
4.630463E+03	8.556566E-15	2.581998E-16
4.640464E+03	8.359934E-15	2.522177E-16
4.650465E+03	8.146271E-15	2.457264E-16
4.660466E+03	7.926398E-15	2.390522E-16
4.670467E+03	7.705549E-15	2.323529E-16
4.680468E+03	7.493111E-15	2.259112E-16
4.690469E+03	7.292571E-15	2.198320E-16
4.700470E+03	7.110885E-15	2.143246E-16
4.710471E+03	6.949168E-15	2.094222E-16
4.720472E+03	6.811755E-15	2.052551E-16
4.730473E+03	6.697443E-15	2.017865E-16
4.740474E+03	6.608279E-15	1.990778E-16
4.750475E+03	6.541223E-15	1.970371E-16
4.760476E+03	6.495661E-15	1.956456E-16
4.770477E+03	6.470399E-15	1.948671E-16
4.780478E+03	6.460835E-15	1.945629E-16
4.790479E+03	6.465142E-15	1.946777E-16
4.800480E+03	6.481370E-15	1.951527E-16
4.810481E+03	6.504519E-15	1.958373E-16
4.820482E+03	6.532685E-15	1.966741E-16
4.830483E+03	6.564149E-15	1.976113E-16
4.840484E+03	6.594450E-15	1.985147E-16
4.850485E+03	6.622644E-15	1.993557E-16
4.860486E+03	6.647383E-15	2.000939E-16
4.870487E+03	6.669124E-15	2.007429E-16
4.880488E+03	6.686080E-15	2.012490E-16
4.890489E+03	6.700419E-15	2.016775E-16
4.900490E+03	6.713986E-15	2.020838E-16
4.910491E+03	6.729052E-15	2.025362E-16
4.920492E+03	6.747926E-15	2.031044E-16
4.930493E+03	6.772479E-15	2.038445E-16
4.940494E+03	6.803765E-15	2.047883E-16
4.950495E+03	6.842720E-15	2.059639E-16
4.960496E+03	6.885913E-15	2.072681E-16
4.970497E+03	6.931990E-15	2.086601E-16
4.980498E+03	6.977914E-15	2.100486E-16
4.990499E+03	7.020628E-15	2.113414E-16
5.000500E+03	7.057721E-15	2.124660E-16
5.010501E+03	7.088067E-15	2.133884E-16
5.020502E+03	7.111108E-15	2.140919E-16
5.030503E+03	7.131388E-15	2.147131E-16
5.040504E+03	7.151781E-15	2.153387E-16
5.050505E+03	7.177442E-15	2.161237E-16
5.060506E+03	7.214084E-15	2.172403E-16
5.070507E+03	7.267340E-15	2.188581E-16
5.080508E+03	7.342086E-15	2.211242E-16
5.090509E+03	7.440760E-15	2.241120E-16
5.100510E+03	7.567472E-15	2.279454E-16
5.110511E+03	7.720898E-15	2.325850E-16
5.120512E+03	7.898747E-15	2.379617E-16
5.130513E+03	8.095480E-15	2.439090E-16
5.140514E+03	8.307542E-15	2.503199E-16
5.150515E+03	8.526466E-15	2.569395E-16
5.160516E+03	8.744365E-15	2.635300E-16
5.170517E+03	8.951944E-15	2.698113E-16
5.180518E+03	9.144583E-15	2.756443E-16
5.190519E+03	9.313188E-15	2.807545E-16
5.200520E+03	9.455559E-15	2.850755E-16
5.210521E+03	9.566633E-15	2.884543E-16
5.220522E+03	9.642639E-15	2.907770E-16
5.230523E+03	9.685400E-15	2.920982E-16
5.240524E+03	9.691857E-15	2.923252E-16
5.250525E+03	9.665707E-15	2.915693E-16
5.260526E+03	9.605329E-15	2.897811E-16
5.270527E+03	9.515587E-15	2.871070E-16
5.280528E+03	9.395857E-15	2.835279E-16
5.290529E+03	9.250343E-15	2.791703E-16
5.300530E+03	9.083521E-15	2.741689E-16
5.310531E+03	8.896017E-15	2.685424E-16
5.320532E+03	8.694392E-15	2.624885E-16
5.330533E+03	8.480069E-15	2.560501E-16
5.340534E+03	8.258799E-15	2.494006E-16
5.350535E+03	8.036358E-15	2.427143E-16
5.360536E+03	7.814855E-15	2.360550E-16
5.370537E+03	7.600066E-15	2.295969E-16
5.380538E+03	7.396301E-15	2.234706E-16
5.390539E+03	7.208676E-15	2.178305E-16
5.400540E+03	7.038568E-15	2.127186E-16
5.410541E+03	6.890242E-15	2.082638E-16
5.420542E+03	6.766280E-15	2.045445E-16
5.430543E+03	6.668640E-15	2.016202E-16
5.440544E+03	6.599521E-15	1.995576E-16
5.450545E+03	6.557207E-15	1.983052E-16
5.460546E+03	6.541990E-15	1.978722E-16
5.470547E+03	6.551912E-15	1.981995E-16
5.480548E+03	6.583637E-15	1.991867E-16
5.490549E+03	6.632344E-15	2.006880E-16
5.500550E+03	6.691712E-15	2.025123E-16
5.510551E+03	6.754114E-15	2.044290E-16
5.520552E+03	6.810968E-15	2.061782E-16
5.530553E+03	6.853338E-15	2.074893E-16
5.540554E+03	6.872646E-15	2.081024E-16
5.550555E+03	6.861420E-15	2.077908E-16
5.560556E+03	6.814005E-15	2.063829E-16
5.570557E+03	6.727026E-15	2.037761E-16
5.580558E+03	6.599588E-15	1.999425E-16
5.590559E+03	6.432216E-15	1.948979E-16
5.600560E+03	6.230489E-15	1.888105E-16
5.610561E+03	5.998575E-15	1.818064E-16
5.620562E+03	5.742715E-15	1.740744E-16
5.630563E+03	5.469736E-15	1.658213E-16
5.640564E+03	5.186646E-15	1.572592E-16
5.650565E+03	4.899576E-15	1.485740E-16
5.660566E+03	4.616586E-15	1.400102E-16
5.670567E+03	4.342887E-15	1.317258E-16
5.680568E+03	4.083214E-15	1.238646E-16
5.690569E+03	3.843469E-15	1.166059E-16
5.700570E+03	3.626825E-15	1.100462E-16
5.710571E+03	3.435792E-15	1.042620E-16
5.720572E+03	3.273700E-15	9.935452E-17
5.730573E+03	3.141547E-15	9.535450E-17
5.740574E+03	3.039803E-15	9.227645E-17
5.750575E+03	2.969811E-15	9.016150E-17
5.760576E+03	2.931056E-15	8.899432E-17
5.770577E+03	2.922652E-15	8.874834E-17
5.780578E+03	2.944633E-15	8.942482E-17
5.790579E+03	2.994757E-15	9.095601E-17
5.800580E+03	3.071979E-15	9.331033E-17
5.810581E+03	3.172656E-15	9.637734E-17
5.820582E+03	3.294100E-15	1.000756E-16
5.830583E+03	3.430646E-15	1.042331E-16
5.840584E+03	3.577578E-15	1.087066E-16
5.850585E+03	3.727138E-15	1.132603E-16
5.860586E+03	3.872468E-15	1.176860E-16
5.870587E+03	4.006539E-15	1.217697E-16
5.880588E+03	4.120782E-15	1.252511E-16
5.890589E+03	4.209922E-15	1.279695E-16
5.900590E+03	4.267596E-15	1.297313E-16
5.910591E+03	4.291197E-15	1.304571E-16
5.920592E+03	4.280255E-15	1.301324E-16
5.930593E+03	4.234514E-15	1.287491E-16
5.940594E+03	4.157681E-15	1.264199E-16
5.950595E+03	4.054481E-15	1.232882E-16
5.960596E+03	3.931432E-15	1.195522E-16
5.970597E+03	3.793914E-15	1.153754E-16
5.980598E+03	3.649304E-15	1.109821E-16
5.990599E+03	3.504084E-15	1.065696E-16
6.000600E+03	3.364644E-15	1.023322E-16
6.010601E+03	3.235013E-15	9.839249E-17
6.020602E+03	3.119926E-15	9.489456E-17
6.030603E+03	3.022758E-15	9.194116E-17
6.040604E+03	2.946182E-15	8.961359E-17
6.050605E+03	2.892350E-15	8.797744E-17
6.060606E+03	2.863539E-15	8.710201E-17
6.070607E+03	2.860630E-15	8.701409E-17
6.080608E+03	2.885937E-15	8.778408E-17
6.090609E+03	2.941664E-15	8.947906E-17
6.100610E+03	3.030542E-15	9.218202E-17
6.110611E+03	3.155998E-15	9.599722E-17
6.120612E+03	3.322321E-15	1.010550E-16
6.130613E+03	3.534767E-15	1.075150E-16
6.140614E+03	3.799629E-15	1.155687E-16
6.150615E+03	4.124191E-15	1.254373E-16
6.160616E+03	4.516537E-15	1.373664E-16
6.170617E+03	4.985146E-15	1.516135E-16
6.180618E+03	5.538183E-15	1.684266E-16
6.190619E+03	6.182440E-15	1.880117E-16
6.200620E+03	6.921900E-15	2.104893E-16
6.210621E+03	7.755973E-15	2.358408E-16
6.220622E+03	8.676292E-15	2.638109E-16
6.230623E+03	9.670113E-15	2.940115E-16
6.240624E+03	1.071174E-14	3.256606E-16
6.250625E+03	1.176742E-14	3.577313E-16
6.260626E+03	1.279571E-14	3.889632E-16
6.270627E+03	1.375063E-14	4.179587E-16
6.280628E+03	1.458626E-14	4.433221E-16
6.290629E+03	1.525963E-14	4.637483E-16
6.300630E+03	1.574481E-14	4.784505E-16
6.310631E+03	1.602285E-14	4.868534E-16
6.320632E+03	1.609217E-14	4.889117E-16
6.330633E+03	1.596324E-14	4.849446E-16
6.340634E+03	1.566548E-14	4.758479E-16
6.350635E+03	1.522864E-14	4.625272E-16
6.360636E+03	1.468828E-14	4.460633E-16
6.370637E+03	1.407726E-14	4.274562E-16
6.380638E+03	1.343158E-14	4.077991E-16
6.390639E+03	1.277540E-14	3.878266E-16
6.400640E+03	1.212745E-14	3.681076E-16
6.410641E+03	1.150640E-14	3.492085E-16
6.420642E+03	1.092015E-14	3.313694E-16
6.430643E+03	1.037289E-14	3.147168E-16
6.440644E+03	9.870486E-15	2.994285E-16
6.450645E+03	9.411640E-15	2.854648E-16
6.460646E+03	8.993845E-15	2.727492E-16
6.470647E+03	8.617778E-15	2.613017E-16
6.480648E+03	8.278059E-15	2.509588E-16
6.490649E+03	7.974289E-15	2.417081E-16
6.500650E+03	7.700863E-15	2.333791E-16
6.510651E+03	7.456972E-15	2.259470E-16
6.520652E+03	7.238145E-15	2.192760E-16
6.530653E+03	7.039936E-15	2.132310E-16
6.540654E+03	6.860977E-15	2.077704E-16
6.550655E+03	6.695458E-15	2.027180E-16
6.560656E+03	6.541673E-15	1.980220E-16
6.570657E+03	6.393887E-15	1.935085E-16
6.580658E+03	6.250476E-15	1.891286E-16
6.590659E+03	6.106141E-15	1.847218E-16
6.600660E+03	5.958779E-15	1.802245E-16
6.610661E+03	5.806578E-15	1.755822E-16
6.620662E+03	5.645494E-15	1.706727E-16
6.630663E+03	5.475541E-15	1.654967E-16
6.640664E+03	5.293873E-15	1.599685E-16
6.650665E+03	5.101607E-15	1.541220E-16
6.660666E+03	4.897305E-15	1.479142E-16
6.670667E+03	4.682602E-15	1.413948E-16
6.680668E+03	4.459667E-15	1.346296E-16
6.690669E+03	4.229209E-15	1.276402E-16
6.700670E+03	3.994558E-15	1.205274E-16
6.710671E+03	3.759293E-15	1.133992E-16
6.720672E+03	3.525459E-15	1.063176E-16
6.730673E+03	3.296940E-15	9.939951E-17
6.740674E+03	3.077353E-15	9.275406E-17
6.750675E+03	2.868588E-15	8.643797E-17
6.760676E+03	2.673599E-15	8.054009E-17
6.770677E+03	2.494356E-15	7.511942E-17
6.780678E+03	2.332669E-15	7.023010E-17
6.790679E+03	2.188762E-15	6.587849E-17
6.800680E+03	2.063534E-15	6.209125E-17
6.810681E+03	1.957148E-15	5.887282E-17
6.820682E+03	1.869794E-15	5.622839E-17
6.830683E+03	1.800625E-15	5.413210E-17
6.840684E+03	1.749608E-15	5.258241E-17
6.850685E+03	1.716401E-15	5.156865E-17
6.860686E+03	1.700719E-15	5.108167E-17
6.870687E+03	1.702610E-15	5.112253E-17
6.880688E+03	1.721429E-15	5.167134E-17
6.890689E+03	1.757369E-15	5.273340E-17
6.900690E+03	1.810384E-15	5.430686E-17
6.910691E+03	1.880381E-15	5.638842E-17
6.920692E+03	1.967152E-15	5.897131E-17
6.930693E+03	2.070279E-15	6.204256E-17
6.940694E+03	2.189401E-15	6.559083E-17
6.950695E+03	2.322825E-15	6.956494E-17
6.960696E+03	2.469443E-15	7.393124E-17
6.970697E+03	2.627455E-15	7.863545E-17
6.980698E+03	2.794731E-15	8.361350E-17
6.990699E+03	2.968907E-15	8.879441E-17
7.000700E+03	3.147511E-15	9.410398E-17
7.010701E+03	3.328102E-15	9.946914E-17
7.020702E+03	3.508422E-15	1.048223E-16
7.030703E+03	3.686523E-15	1.101054E-16
7.040704E+03	3.860878E-15	1.152728E-16
7.050705E+03	4.030453E-15	1.202938E-16
7.060706E+03	4.194759E-15	1.251539E-16
7.070707E+03	4.353883E-15	1.298559E-16
7.080708E+03	4.508507E-15	1.344202E-16
7.090709E+03	4.659914E-15	1.388854E-16
7.100710E+03	4.809993E-15	1.433076E-16
7.110711E+03	4.961233E-15	1.477612E-16
7.120712E+03	5.116694E-15	1.523373E-16
7.130713E+03	5.279956E-15	1.571421E-16
7.140714E+03	5.454177E-15	1.622695E-16
7.150715E+03	5.645257E-15	1.678946E-16
7.160716E+03	5.856681E-15	1.741204E-16
7.170717E+03	6.092482E-15	1.810663E-16
7.180718E+03	6.356048E-15	1.888321E-16
7.190719E+03	6.649649E-15	1.974844E-16
7.200720E+03	6.973891E-15	2.070403E-16
7.210721E+03	7.327136E-15	2.174501E-16
7.220722E+03	7.703734E-15	2.285455E-16
7.230723E+03	8.098242E-15	2.401644E-16
7.240724E+03	8.498269E-15	2.519388E-16
7.250725E+03	8.889196E-15	2.634355E-16
7.260726E+03	9.253654E-15	2.741402E-16
7.270727E+03	9.571220E-15	2.834491E-16
7.280728E+03	9.825869E-15	2.908892E-16
7.290729E+03	9.999215E-15	2.959185E-16
7.300730E+03	1.007808E-14	2.981496E-16
7.310731E+03	1.005312E-14	2.973092E-16
7.320732E+03	9.925864E-15	2.934459E-16
7.330733E+03	9.699517E-15	2.866571E-16
7.340734E+03	9.384377E-15	2.772503E-16
7.350735E+03	8.993585E-15	2.656162E-16
7.360736E+03	8.546998E-15	2.523431E-16
7.370737E+03	8.060953E-15	2.379149E-16
7.380738E+03	7.551350E-15	2.228017E-16
7.390739E+03	7.035806E-15	2.075237E-16
7.400740E+03	6.525788E-15	1.924192E-16
7.410741E+03	6.030333E-15	1.777541E-16
7.420742E+03	5.558687E-15	1.638004E-16
7.430743E+03	5.114784E-15	1.506733E-16
7.440744E+03	4.700885E-15	1.384384E-16
7.450745E+03	4.319958E-15	1.271821E-16
7.460746E+03	3.970935E-15	1.168721E-16
7.470747E+03	3.654642E-15	1.075317E-16
7.480748E+03	3.369467E-15	9.911248E-17
7.490749E+03	3.113693E-15	9.156308E-17
7.500750E+03	2.886942E-15	8.487162E-17
7.510751E+03	2.686883E-15	7.896874E-17
7.520752E+03	2.513027E-15	7.383938E-17
7.530753E+03	2.363323E-15	6.942259E-17
7.540754E+03	2.237422E-15	6.570750E-17
7.550755E+03	2.133672E-15	6.264502E-17
7.560756E+03	2.051995E-15	6.023234E-17
7.570757E+03	1.991176E-15	5.843329E-17
7.580758E+03	1.951475E-15	5.725504E-17
7.590759E+03	1.932099E-15	5.667392E-17
7.600760E+03	1.933642E-15	5.670692E-17
7.610761E+03	1.955622E-15	5.733953E-17
7.620762E+03	1.998823E-15	5.859436E-17
7.630763E+03	2.062755E-15	6.045676E-17
7.640764E+03	2.147979E-15	6.294281E-17
7.650765E+03	2.253367E-15	6.601924E-17
7.660766E+03	2.378123E-15	6.966248E-17
7.670767E+03	2.520634E-15	7.382507E-17
7.680768E+03	2.677014E-15	7.839314E-17
7.690769E+03	2.843664E-15	8.326123E-17
7.700770E+03	3.014022E-15	8.823728E-17
7.710771E+03	3.181670E-15	9.313346E-17
7.720772E+03	3.339563E-15	9.774383E-17
7.730773E+03	3.479000E-15	1.018140E-16
7.740774E+03	3.593416E-15	1.051521E-16
7.750775E+03	3.677712E-15	1.076094E-16
7.760776E+03	3.727126E-15	1.090468E-16
