#wls	flux	fluxerr
1.600160E+03	1.368387E-16	5.509111E-18
1.640164E+03	1.393945E-16	5.601224E-18
1.680168E+03	1.414706E-16	5.673468E-18
1.720172E+03	1.430913E-16	5.726915E-18
1.760176E+03	1.441833E-16	5.758742E-18
1.800180E+03	1.446005E-16	5.763245E-18
1.840184E+03	1.441556E-16	5.733139E-18
1.880188E+03	1.426370E-16	5.660254E-18
1.920192E+03	1.398500E-16	5.537166E-18
1.960196E+03	1.357348E-16	5.361868E-18
2.000200E+03	1.304583E-16	5.141315E-18
2.040204E+03	1.246719E-16	4.901470E-18
2.080208E+03	1.196768E-16	4.693539E-18
2.120212E+03	1.170744E-16	4.579970E-18
2.160216E+03	1.183269E-16	4.617118E-18
2.200220E+03	1.240992E-16	4.829701E-18
2.240224E+03	1.342533E-16	5.210945E-18
2.280228E+03	1.479589E-16	5.727289E-18
2.320232E+03	1.643300E-16	6.343330E-18
2.360236E+03	1.825962E-16	7.028471E-18
2.400240E+03	2.023362E-16	7.765813E-18
2.440244E+03	2.234423E-16	8.550643E-18
2.480248E+03	2.460968E-16	9.389337E-18
2.520252E+03	2.705375E-16	1.029029E-17
2.560256E+03	2.973140E-16	1.127359E-17
2.600260E+03	3.269615E-16	1.235851E-17
2.640264E+03	3.601772E-16	1.357011E-17
2.680268E+03	3.977892E-16	1.493805E-17
2.720272E+03	4.408572E-16	1.650017E-17
2.760276E+03	4.904011E-16	1.829226E-17
2.800280E+03	5.479661E-16	2.036908E-17
2.840284E+03	6.151095E-16	2.278498E-17
2.880288E+03	6.936216E-16	2.560201E-17
2.920292E+03	7.859158E-16	2.890415E-17
2.960296E+03	8.944626E-16	3.277607E-17
3.000300E+03	1.021475E-15	3.729165E-17
3.010301E+03	1.056409E-15	3.853094E-17
3.020302E+03	1.092675E-15	3.981635E-17
3.030303E+03	1.130298E-15	4.114854E-17
3.040304E+03	1.169316E-15	4.252883E-17
3.050305E+03	1.210035E-15	4.396818E-17
3.060306E+03	1.252142E-15	4.545501E-17
3.070307E+03	1.295815E-15	4.699563E-17
3.080308E+03	1.341016E-15	4.858850E-17
3.090309E+03	1.387693E-15	5.023158E-17
3.100310E+03	1.435775E-15	5.192213E-17
3.110311E+03	1.485172E-15	5.365678E-17
3.120312E+03	1.536039E-15	5.544090E-17
3.130313E+03	1.587725E-15	5.725092E-17
3.140314E+03	1.640333E-15	5.909045E-17
3.150315E+03	1.693692E-15	6.095324E-17
3.160316E+03	1.747616E-15	6.283249E-17
3.170317E+03	1.802217E-15	6.473216E-17
3.180318E+03	1.856686E-15	6.662313E-17
3.190319E+03	1.911123E-15	6.850906E-17
3.200320E+03	1.965345E-15	7.038331E-17
3.210321E+03	2.019184E-15	7.223996E-17
3.220322E+03	2.072861E-15	7.408687E-17
3.230323E+03	2.125576E-15	7.589554E-17
3.240324E+03	2.177618E-15	7.767638E-17
3.250325E+03	2.228977E-15	7.942912E-17
3.260326E+03	2.280084E-15	8.116908E-17
3.270327E+03	2.330253E-15	8.287199E-17
3.280328E+03	2.379996E-15	8.455612E-17
3.290329E+03	2.429900E-15	8.624230E-17
3.300330E+03	2.479348E-15	8.790870E-17
3.310331E+03	2.528978E-15	8.957791E-17
3.320332E+03	2.579033E-15	9.125855E-17
3.330333E+03	2.630194E-15	9.297462E-17
3.340334E+03	2.681737E-15	9.470046E-17
3.350335E+03	2.734148E-15	9.645318E-17
3.360336E+03	2.787854E-15	9.824770E-17
3.370337E+03	2.841820E-15	1.000475E-16
3.380338E+03	2.896380E-15	1.018642E-16
3.390339E+03	2.951828E-15	1.037082E-16
3.400340E+03	3.006791E-15	1.055312E-16
3.410341E+03	3.061113E-15	1.073277E-16
3.420342E+03	3.114474E-15	1.090867E-16
3.430343E+03	3.164880E-15	1.107384E-16
3.440344E+03	3.211864E-15	1.122668E-16
3.450345E+03	3.255000E-15	1.136575E-16
3.460346E+03	3.292327E-15	1.148426E-16
3.470347E+03	3.323749E-15	1.158192E-16
3.480348E+03	3.349429E-15	1.165937E-16
3.490349E+03	3.368178E-15	1.171253E-16
3.500350E+03	3.381553E-15	1.174691E-16
3.510351E+03	3.389222E-15	1.176138E-16
3.520352E+03	3.392916E-15	1.176204E-16
3.530353E+03	3.394762E-15	1.175627E-16
3.540354E+03	3.395316E-15	1.174603E-16
3.550355E+03	3.396673E-15	1.173858E-16
3.560356E+03	3.400549E-15	1.173982E-16
3.570357E+03	3.406543E-15	1.174835E-16
3.580358E+03	3.416047E-15	1.176895E-16
3.590359E+03	3.427522E-15	1.179627E-16
3.600360E+03	3.440650E-15	1.182921E-16
3.610361E+03	3.454752E-15	1.186543E-16
3.620362E+03	3.467067E-15	1.189542E-16
3.630363E+03	3.476879E-15	1.191678E-16
3.640364E+03	3.480926E-15	1.191834E-16
3.650365E+03	3.477519E-15	1.189441E-16
3.660366E+03	3.464938E-15	1.183917E-16
3.670367E+03	3.439869E-15	1.174143E-16
3.680368E+03	3.401645E-15	1.159902E-16
3.690369E+03	3.347725E-15	1.140345E-16
3.700370E+03	3.277854E-15	1.115400E-16
3.710371E+03	3.192404E-15	1.085211E-16
3.720372E+03	3.090874E-15	1.049623E-16
3.730373E+03	2.975786E-15	1.009509E-16
3.740374E+03	2.848558E-15	9.653643E-17
3.750375E+03	2.713020E-15	9.184965E-17
3.760376E+03	2.573989E-15	8.705431E-17
3.770377E+03	2.436020E-15	8.230466E-17
3.780378E+03	2.305518E-15	7.781676E-17
3.790379E+03	2.186692E-15	7.373172E-17
3.800380E+03	2.084601E-15	7.021876E-17
3.810381E+03	2.002003E-15	6.736886E-17
3.820382E+03	1.941720E-15	6.527499E-17
3.830383E+03	1.905616E-15	6.399742E-17
3.840384E+03	1.894212E-15	6.355121E-17
3.850385E+03	1.909241E-15	6.399199E-17
3.860386E+03	1.951136E-15	6.533166E-17
3.870387E+03	2.021423E-15	6.761856E-17
3.880388E+03	2.121701E-15	7.090340E-17
3.890389E+03	2.252177E-15	7.519022E-17
3.900390E+03	2.413917E-15	8.051168E-17
3.910391E+03	2.605488E-15	8.681704E-17
3.920392E+03	2.824886E-15	9.403686E-17
3.930393E+03	3.068159E-15	1.020371E-16
3.940394E+03	3.327938E-15	1.105708E-16
3.950395E+03	3.596762E-15	1.193890E-16
3.960396E+03	3.865995E-15	1.282045E-16
3.970397E+03	4.124624E-15	1.366526E-16
3.980398E+03	4.365131E-15	1.444856E-16
3.990399E+03	4.578661E-15	1.514125E-16
4.000400E+03	4.760204E-15	1.572705E-16
4.010401E+03	4.907228E-15	1.619791E-16
4.020402E+03	5.017071E-15	1.654537E-16
4.030403E+03	5.091446E-15	1.677543E-16
4.040404E+03	5.133929E-15	1.690018E-16
4.050405E+03	5.146963E-15	1.692794E-16
4.060406E+03	5.136780E-15	1.687946E-16
4.070407E+03	5.110658E-15	1.677884E-16
4.080408E+03	5.073662E-15	1.664282E-16
4.090409E+03	5.033116E-15	1.649552E-16
4.100410E+03	4.995620E-15	1.635856E-16
4.110411E+03	4.964015E-15	1.624122E-16
4.120412E+03	4.941961E-15	1.615542E-16
4.130413E+03	4.931471E-15	1.610765E-16
4.140414E+03	4.930647E-15	1.609162E-16
4.150415E+03	4.939453E-15	1.610714E-16
4.160416E+03	4.958252E-15	1.615532E-16
4.170417E+03	4.985197E-15	1.623007E-16
4.180418E+03	5.021373E-15	1.633487E-16
4.190419E+03	5.068136E-15	1.647405E-16
4.200420E+03	5.127954E-15	1.665556E-16
4.210421E+03	5.200084E-15	1.687689E-16
4.220422E+03	5.285359E-15	1.714066E-16
4.230423E+03	5.383765E-15	1.744676E-16
4.240424E+03	5.492408E-15	1.778571E-16
4.250425E+03	5.611323E-15	1.815757E-16
4.260426E+03	5.739267E-15	1.855828E-16
4.270427E+03	5.873652E-15	1.897942E-16
4.280428E+03	6.011187E-15	1.941033E-16
4.290429E+03	6.143981E-15	1.982555E-16
4.300430E+03	6.266217E-15	2.020638E-16
4.310431E+03	6.371372E-15	2.053188E-16
4.320432E+03	6.453880E-15	2.078424E-16
4.330433E+03	6.511921E-15	2.095778E-16
4.340434E+03	6.544800E-15	2.105041E-16
4.350435E+03	6.557767E-15	2.107917E-16
4.360436E+03	6.555708E-15	2.105988E-16
4.370437E+03	6.543392E-15	2.100795E-16
4.380438E+03	6.524917E-15	2.093657E-16
4.390439E+03	6.504842E-15	2.086041E-16
4.400440E+03	6.484319E-15	2.078317E-16
4.410441E+03	6.467394E-15	2.071781E-16
4.420442E+03	6.457295E-15	2.067465E-16
4.430443E+03	6.458275E-15	2.066728E-16
4.440444E+03	6.475008E-15	2.071058E-16
4.450445E+03	6.512133E-15	2.081932E-16
4.460446E+03	6.574173E-15	2.100785E-16
4.470447E+03	6.664906E-15	2.128814E-16
4.480448E+03	6.786612E-15	2.166734E-16
4.490449E+03	6.939508E-15	2.214604E-16
4.500450E+03	7.121156E-15	2.271634E-16
4.510451E+03	7.325409E-15	2.335854E-16
4.520452E+03	7.541655E-15	2.403877E-16
4.530453E+03	7.755543E-15	2.471126E-16
4.540454E+03	7.950604E-15	2.532359E-16
4.550455E+03	8.110105E-15	2.582258E-16
4.560456E+03	8.218940E-15	2.616027E-16
4.570457E+03	8.266196E-15	2.630210E-16
4.580458E+03	8.247273E-15	2.623365E-16
4.590459E+03	8.163477E-15	2.595925E-16
4.600460E+03	8.020892E-15	2.549841E-16
4.610461E+03	7.829378E-15	2.488263E-16
4.620462E+03	7.600833E-15	2.414981E-16
4.630463E+03	7.347687E-15	2.333949E-16
4.640464E+03	7.082024E-15	2.249008E-16
4.650465E+03	6.814773E-15	2.163627E-16
4.660466E+03	6.554357E-15	2.080479E-16
4.670467E+03	6.310944E-15	2.002784E-16
4.680468E+03	6.089896E-15	1.932238E-16
4.690469E+03	5.896142E-15	1.870399E-16
4.700470E+03	5.733192E-15	1.818371E-16
4.710471E+03	5.603181E-15	1.776824E-16
4.720472E+03	5.505728E-15	1.745632E-16
4.730473E+03	5.441329E-15	1.724944E-16
4.740474E+03	5.406583E-15	1.713677E-16
4.750475E+03	5.398189E-15	1.710781E-16
4.760476E+03	5.411250E-15	1.714699E-16
4.770477E+03	5.443221E-15	1.724622E-16
4.780478E+03	5.489161E-15	1.738984E-16
4.790479E+03	5.545425E-15	1.756627E-16
4.800480E+03	5.607876E-15	1.776241E-16
4.810481E+03	5.675365E-15	1.797461E-16
4.820482E+03	5.744178E-15	1.819112E-16
4.830483E+03	5.810557E-15	1.840003E-16
4.840484E+03	5.873261E-15	1.859741E-16
4.850485E+03	5.927832E-15	1.876916E-16
4.860486E+03	5.969956E-15	1.890162E-16
4.870487E+03	5.999237E-15	1.899355E-16
4.880488E+03	6.014077E-15	1.903988E-16
4.890489E+03	6.015152E-15	1.904277E-16
4.900490E+03	6.009003E-15	1.902291E-16
4.910491E+03	6.001334E-15	1.899837E-16
4.920492E+03	6.003182E-15	1.900409E-16
4.930493E+03	6.020853E-15	1.906001E-16
4.940494E+03	6.061837E-15	1.918986E-16
4.950495E+03	6.126322E-15	1.939422E-16
4.960496E+03	6.213391E-15	1.967020E-16
4.970497E+03	6.311875E-15	1.998244E-16
4.980498E+03	6.410575E-15	2.029550E-16
4.990499E+03	6.494070E-15	2.056055E-16
5.000500E+03	6.553868E-15	2.075071E-16
5.010501E+03	6.581751E-15	2.083993E-16
5.020502E+03	6.579588E-15	2.083413E-16
5.030503E+03	6.551676E-15	2.074690E-16
5.040504E+03	6.510546E-15	2.061790E-16
5.050505E+03	6.471430E-15	2.049537E-16
5.060506E+03	6.447439E-15	2.042081E-16
5.070507E+03	6.454132E-15	2.044353E-16
5.080508E+03	6.504543E-15	2.060484E-16
5.090509E+03	6.604671E-15	2.092376E-16
5.100510E+03	6.759655E-15	2.141662E-16
5.110511E+03	6.969692E-15	2.208411E-16
5.120512E+03	7.225149E-15	2.289573E-16
5.130513E+03	7.514244E-15	2.381421E-16
5.140514E+03	7.822104E-15	2.479244E-16
5.150515E+03	8.128507E-15	2.576635E-16
5.160516E+03	8.417183E-15	2.668436E-16
5.170517E+03	8.673447E-15	2.749991E-16
5.180518E+03	8.887626E-15	2.818228E-16
5.190519E+03	9.056559E-15	2.872142E-16
5.200520E+03	9.176587E-15	2.910566E-16
5.210521E+03	9.250936E-15	2.934519E-16
5.220522E+03	9.283137E-15	2.945115E-16
5.230523E+03	9.277297E-15	2.943653E-16
5.240524E+03	9.237058E-15	2.931281E-16
5.250525E+03	9.167143E-15	2.909496E-16
5.260526E+03	9.067579E-15	2.878300E-16
5.270527E+03	8.942321E-15	2.838945E-16
5.280528E+03	8.793655E-15	2.792154E-16
5.290529E+03	8.623641E-15	2.738576E-16
5.300530E+03	8.433961E-15	2.678742E-16
5.310531E+03	8.226559E-15	2.613266E-16
5.320532E+03	8.004156E-15	2.543009E-16
5.330533E+03	7.770304E-15	2.469097E-16
5.340534E+03	7.529369E-15	2.392916E-16
5.350535E+03	7.286303E-15	2.316038E-16
5.360536E+03	7.046199E-15	2.240080E-16
5.370537E+03	6.814216E-15	2.166684E-16
5.380538E+03	6.595230E-15	2.097401E-16
5.390539E+03	6.393524E-15	2.033594E-16
5.400540E+03	6.213058E-15	1.976525E-16
5.410541E+03	6.057551E-15	1.927382E-16
5.420542E+03	5.929485E-15	1.886957E-16
5.430543E+03	5.833950E-15	1.856874E-16
5.440544E+03	5.772784E-15	1.837725E-16
5.450545E+03	5.748048E-15	1.830170E-16
5.460546E+03	5.760853E-15	1.834569E-16
5.470547E+03	5.810552E-15	1.850723E-16
5.480548E+03	5.892838E-15	1.877264E-16
5.490549E+03	6.003478E-15	1.912850E-16
5.500550E+03	6.132425E-15	1.954284E-16
5.510551E+03	6.267029E-15	1.997536E-16
5.520552E+03	6.392223E-15	2.037803E-16
5.530553E+03	6.491447E-15	2.069805E-16
5.540554E+03	6.552726E-15	2.089717E-16
5.550555E+03	6.564145E-15	2.093732E-16
5.560556E+03	6.518661E-15	2.079593E-16
5.570557E+03	6.418195E-15	2.047906E-16
5.580558E+03	6.266510E-15	1.999860E-16
5.590559E+03	6.070547E-15	1.937663E-16
5.600560E+03	5.841583E-15	1.864906E-16
5.610561E+03	5.588004E-15	1.784262E-16
5.620562E+03	5.317104E-15	1.698057E-16
5.630563E+03	5.036837E-15	1.608829E-16
5.640564E+03	4.751196E-15	1.517851E-16
5.650565E+03	4.463683E-15	1.426241E-16
5.660566E+03	4.179660E-15	1.335714E-16
5.670567E+03	3.901790E-15	1.247121E-16
5.680568E+03	3.635815E-15	1.162299E-16
5.690569E+03	3.385344E-15	1.082404E-16
5.700570E+03	3.156309E-15	1.009337E-16
5.710571E+03	2.952195E-15	9.442140E-17
5.720572E+03	2.778003E-15	8.886405E-17
5.730573E+03	2.636132E-15	8.433883E-17
5.740574E+03	2.529831E-15	8.095021E-17
5.750575E+03	2.459779E-15	7.872042E-17
5.760576E+03	2.427729E-15	7.770617E-17
5.770577E+03	2.433324E-15	7.789651E-17
5.780578E+03	2.476986E-15	7.930545E-17
5.790579E+03	2.556955E-15	8.187720E-17
5.800580E+03	2.672209E-15	8.557945E-17
5.810581E+03	2.818601E-15	9.027978E-17
5.820582E+03	2.991444E-15	9.582841E-17
5.830583E+03	3.184306E-15	1.020196E-16
5.840584E+03	3.387379E-15	1.085391E-16
5.850585E+03	3.590672E-15	1.150669E-16
5.860586E+03	3.783494E-15	1.212603E-16
5.870587E+03	3.953679E-15	1.267292E-16
5.880588E+03	4.092021E-15	1.311780E-16
5.890589E+03	4.191436E-15	1.343792E-16
5.900590E+03	4.245594E-15	1.361296E-16
5.910591E+03	4.253134E-15	1.363849E-16
5.920592E+03	4.214889E-15	1.351715E-16
5.930593E+03	4.134851E-15	1.326168E-16
5.940594E+03	4.017191E-15	1.288544E-16
5.950595E+03	3.869781E-15	1.241366E-16
5.960596E+03	3.700930E-15	1.187296E-16
5.970597E+03	3.519965E-15	1.129326E-16
5.980598E+03	3.334383E-15	1.069862E-16
5.990599E+03	3.152767E-15	1.011657E-16
6.000600E+03	2.982038E-15	9.569338E-17
6.010601E+03	2.827719E-15	9.074665E-17
6.020602E+03	2.694305E-15	8.646985E-17
6.030603E+03	2.583763E-15	8.292633E-17
6.040604E+03	2.498334E-15	8.018811E-17
6.050605E+03	2.438944E-15	7.828512E-17
6.060606E+03	2.406118E-15	7.723429E-17
6.070607E+03	2.400286E-15	7.704955E-17
6.080608E+03	2.421947E-15	7.774699E-17
6.090609E+03	2.472041E-15	7.935684E-17
6.100610E+03	2.552309E-15	8.193505E-17
6.110611E+03	2.665557E-15	8.557170E-17
6.120612E+03	2.815988E-15	9.040169E-17
6.130613E+03	3.010062E-15	9.663239E-17
6.140614E+03	3.255019E-15	1.044961E-16
6.150615E+03	3.561930E-15	1.143482E-16
6.160616E+03	3.943977E-15	1.266115E-16
6.170617E+03	4.416713E-15	1.417852E-16
6.180618E+03	4.997556E-15	1.604281E-16
6.190619E+03	5.704197E-15	1.831073E-16
6.200620E+03	6.550638E-15	2.102719E-16
6.210621E+03	7.547739E-15	2.422695E-16
6.220622E+03	8.693215E-15	2.790257E-16
6.230623E+03	9.970346E-15	3.200028E-16
6.240624E+03	1.134309E-14	3.640428E-16
6.250625E+03	1.275494E-14	4.093312E-16
6.260626E+03	1.413170E-14	4.534859E-16
6.270627E+03	1.538839E-14	4.937797E-16
6.280628E+03	1.644053E-14	5.275023E-16
6.290629E+03	1.721760E-14	5.523921E-16
6.300630E+03	1.767393E-14	5.669855E-16
6.310631E+03	1.779251E-14	5.707393E-16
6.320632E+03	1.759765E-14	5.644358E-16
6.330633E+03	1.713234E-14	5.494573E-16
6.340634E+03	1.645987E-14	5.278352E-16
6.350635E+03	1.565026E-14	5.018180E-16
6.360636E+03	1.477030E-14	4.735483E-16
6.370637E+03	1.387352E-14	4.447434E-16
6.380638E+03	1.300544E-14	4.168634E-16
6.390639E+03	1.219073E-14	3.906987E-16
6.400640E+03	1.144436E-14	3.667286E-16
6.410641E+03	1.077162E-14	3.451227E-16
6.420642E+03	1.016997E-14	3.257980E-16
6.430643E+03	9.638217E-15	3.087166E-16
6.440644E+03	9.168321E-15	2.936197E-16
6.450645E+03	8.753377E-15	2.802857E-16
6.460646E+03	8.385245E-15	2.684532E-16
6.470647E+03	8.060247E-15	2.580041E-16
6.480648E+03	7.771258E-15	2.487096E-16
6.490649E+03	7.512090E-15	2.403715E-16
6.500650E+03	7.280806E-15	2.329273E-16
6.510651E+03	7.072404E-15	2.262166E-16
6.520652E+03	6.882487E-15	2.200984E-16
6.530653E+03	6.710236E-15	2.145465E-16
6.540654E+03	6.551650E-15	2.094325E-16
6.550655E+03	6.402846E-15	2.046323E-16
6.560656E+03	6.262892E-15	2.001159E-16
6.570657E+03	6.127771E-15	1.957548E-16
6.580658E+03	5.993673E-15	1.914275E-16
6.590659E+03	5.859810E-15	1.871086E-16
6.600660E+03	5.722754E-15	1.826890E-16
6.610661E+03	5.579453E-15	1.780712E-16
6.620662E+03	5.429790E-15	1.732519E-16
6.630663E+03	5.270420E-15	1.681244E-16
6.640664E+03	5.101725E-15	1.627014E-16
6.650665E+03	4.921010E-15	1.568972E-16
6.660666E+03	4.729234E-15	1.507427E-16
6.670667E+03	4.525487E-15	1.442094E-16
6.680668E+03	4.309580E-15	1.372915E-16
6.690669E+03	4.084151E-15	1.300736E-16
6.700670E+03	3.849904E-15	1.225784E-16
6.710671E+03	3.610864E-15	1.149344E-16
6.720672E+03	3.369237E-15	1.072120E-16
6.730673E+03	3.129960E-15	9.956846E-17
6.740674E+03	2.896005E-15	9.209830E-17
6.750675E+03	2.672225E-15	8.495575E-17
6.760676E+03	2.461271E-15	7.822486E-17
6.770677E+03	2.266926E-15	7.202556E-17
6.780678E+03	2.090703E-15	6.640544E-17
6.790679E+03	1.934474E-15	6.142352E-17
6.800680E+03	1.799277E-15	5.711217E-17
6.810681E+03	1.684699E-15	5.345768E-17
6.820682E+03	1.591048E-15	5.046920E-17
6.830683E+03	1.517263E-15	4.811252E-17
6.840684E+03	1.463240E-15	4.638366E-17
6.850685E+03	1.427979E-15	4.525040E-17
6.860686E+03	1.411341E-15	4.470764E-17
6.870687E+03	1.413385E-15	4.475671E-17
6.880688E+03	1.433720E-15	4.538461E-17
6.890689E+03	1.472998E-15	4.661135E-17
6.900690E+03	1.531033E-15	4.843040E-17
6.910691E+03	1.608253E-15	5.085462E-17
6.920692E+03	1.704832E-15	5.388883E-17
6.930693E+03	1.819704E-15	5.749871E-17
6.940694E+03	1.952014E-15	6.165653E-17
6.950695E+03	2.100263E-15	6.631438E-17
6.960696E+03	2.261238E-15	7.137023E-17
6.970697E+03	2.432069E-15	7.673304E-17
6.980698E+03	2.609607E-15	8.230312E-17
6.990699E+03	2.789375E-15	8.793908E-17
7.000700E+03	2.968307E-15	9.354416E-17
7.010701E+03	3.143501E-15	9.902696E-17
7.020702E+03	3.313306E-15	1.043356E-16
7.030703E+03	3.475237E-15	1.093921E-16
7.040704E+03	3.628982E-15	1.141869E-16
7.050705E+03	3.774888E-15	1.187311E-16
7.060706E+03	3.911896E-15	1.229919E-16
7.070707E+03	4.040914E-15	1.269979E-16
7.080708E+03	4.162500E-15	1.307672E-16
7.090709E+03	4.278210E-15	1.343488E-16
7.100710E+03	4.387965E-15	1.377405E-16
7.110711E+03	4.494384E-15	1.410247E-16
7.120712E+03	4.600430E-15	1.442944E-16
7.130713E+03	4.710304E-15	1.476815E-16
7.140714E+03	4.830304E-15	1.513831E-16
7.150715E+03	4.965748E-15	1.555656E-16
7.160716E+03	5.125369E-15	1.605017E-16
7.170717E+03	5.317945E-15	1.664655E-16
7.180718E+03	5.552379E-15	1.737343E-16
7.190719E+03	5.836855E-15	1.825625E-16
7.200720E+03	6.178067E-15	1.931576E-16
7.210721E+03	6.580828E-15	2.056680E-16
7.220722E+03	7.042000E-15	2.199933E-16
7.230723E+03	7.555378E-15	2.359376E-16
7.240724E+03	8.106615E-15	2.530515E-16
7.250725E+03	8.673309E-15	2.706344E-16
7.260726E+03	9.225517E-15	2.877521E-16
7.270727E+03	9.728123E-15	3.033104E-16
7.280728E+03	1.014463E-14	3.161735E-16
7.290729E+03	1.044171E-14	3.253068E-16
7.300730E+03	1.059585E-14	3.299821E-16
7.310731E+03	1.059071E-14	3.296964E-16
7.320732E+03	1.042880E-14	3.245327E-16
7.330733E+03	1.012372E-14	3.149207E-16
7.340734E+03	9.699320E-15	3.016062E-16
7.350735E+03	9.185432E-15	2.855209E-16
7.360736E+03	8.613350E-15	2.676402E-16
7.370737E+03	8.012211E-15	2.488709E-16
7.380738E+03	7.406711E-15	2.299807E-16
7.390739E+03	6.815782E-15	2.115571E-16
7.400740E+03	6.252324E-15	1.939997E-16
7.410741E+03	5.724186E-15	1.775510E-16
7.420742E+03	5.235216E-15	1.623289E-16
7.430743E+03	4.786197E-15	1.483562E-16
7.440744E+03	4.376077E-15	1.355989E-16
7.450745E+03	4.002828E-15	1.239928E-16
7.460746E+03	3.663919E-15	1.134583E-16
7.470747E+03	3.356789E-15	1.039149E-16
7.480748E+03	3.079066E-15	9.528810E-17
7.490749E+03	2.828154E-15	8.749661E-17
7.500750E+03	2.603158E-15	8.051191E-17
7.510751E+03	2.402043E-15	7.427024E-17
7.520752E+03	2.223516E-15	6.873081E-17
7.530753E+03	2.066583E-15	6.386231E-17
7.540754E+03	1.930564E-15	5.964300E-17
7.550755E+03	1.815030E-15	5.605909E-17
7.560756E+03	1.719805E-15	5.310455E-17
7.570757E+03	1.644911E-15	5.077953E-17
7.580758E+03	1.590528E-15	4.908910E-17
7.590759E+03	1.556798E-15	4.803714E-17
7.600760E+03	1.544837E-15	4.765765E-17
7.610761E+03	1.555215E-15	4.796775E-17
7.620762E+03	1.588993E-15	4.899977E-17
7.630763E+03	1.647436E-15	5.079228E-17
7.640764E+03	1.731826E-15	5.338446E-17
7.650765E+03	1.842886E-15	5.679822E-17
7.660766E+03	1.981504E-15	6.106068E-17
7.670767E+03	2.146446E-15	6.613350E-17
7.680768E+03	2.334876E-15	7.192914E-17
7.690769E+03	2.541586E-15	7.828712E-17
7.700770E+03	2.758272E-15	8.495167E-17
7.710771E+03	2.975361E-15	9.162816E-17
7.720772E+03	3.180129E-15	9.792500E-17
7.730773E+03	3.359601E-15	1.034431E-16
7.740774E+03	3.501148E-15	1.077940E-16
7.750775E+03	3.596456E-15	1.107222E-16
7.760776E+03	3.639697E-15	1.120486E-16
