#wls	flux	fluxerr
1.600160E+03	1.440628E-16	4.748562E-18
1.640164E+03	1.466616E-16	4.827583E-18
1.680168E+03	1.487756E-16	4.890294E-18
1.720172E+03	1.503783E-16	4.935878E-18
1.760176E+03	1.514196E-16	4.962761E-18
1.800180E+03	1.517740E-16	4.966912E-18
1.840184E+03	1.511923E-16	4.940285E-18
1.880188E+03	1.495080E-16	4.877597E-18
1.920192E+03	1.464663E-16	4.770712E-18
1.960196E+03	1.420347E-16	4.618803E-18
2.000200E+03	1.363915E-16	4.427886E-18
2.040204E+03	1.302668E-16	4.221841E-18
2.080208E+03	1.249261E-16	4.041712E-18
2.120212E+03	1.220860E-16	3.942812E-18
2.160216E+03	1.232618E-16	3.973574E-18
2.200220E+03	1.291553E-16	4.155871E-18
2.240224E+03	1.395626E-16	4.482292E-18
2.280228E+03	1.536532E-16	4.925357E-18
2.320232E+03	1.704712E-16	5.453764E-18
2.360236E+03	1.891737E-16	6.040034E-18
2.400240E+03	2.093776E-16	6.671539E-18
2.440244E+03	2.309331E-16	7.343161E-18
2.480248E+03	2.539748E-16	8.058841E-18
2.520252E+03	2.788231E-16	8.828354E-18
2.560256E+03	3.059380E-16	9.665795E-18
2.600260E+03	3.359578E-16	1.059073E-17
2.640264E+03	3.695322E-16	1.162291E-17
2.680268E+03	4.074906E-16	1.278751E-17
2.720272E+03	4.508133E-16	1.411418E-17
2.760276E+03	5.006627E-16	1.563792E-17
2.800280E+03	5.584126E-16	1.739999E-17
2.840284E+03	6.257899E-16	1.945216E-17
2.880288E+03	7.046011E-16	2.184809E-17
2.920292E+03	7.968731E-16	2.464769E-17
2.960296E+03	9.052440E-16	2.792904E-17
3.000300E+03	1.032208E-15	3.176491E-17
3.010301E+03	1.067006E-15	3.281467E-17
3.020302E+03	1.103116E-15	3.390331E-17
3.030303E+03	1.140560E-15	3.503142E-17
3.040304E+03	1.179577E-15	3.620632E-17
3.050305E+03	1.219870E-15	3.741874E-17
3.060306E+03	1.261946E-15	3.868415E-17
3.070307E+03	1.305359E-15	3.998878E-17
3.080308E+03	1.350282E-15	4.133786E-17
3.090309E+03	1.396909E-15	4.273720E-17
3.100310E+03	1.444707E-15	4.417044E-17
3.110311E+03	1.493832E-15	4.564222E-17
3.120312E+03	1.544453E-15	4.715767E-17
3.130313E+03	1.595944E-15	4.869755E-17
3.140314E+03	1.648716E-15	5.027434E-17
3.150315E+03	1.702077E-15	5.186691E-17
3.160316E+03	1.756152E-15	5.347898E-17
3.170317E+03	1.811095E-15	5.511520E-17
3.180318E+03	1.866140E-15	5.675224E-17
3.190319E+03	1.921761E-15	5.840449E-17
3.200320E+03	1.977171E-15	6.004799E-17
3.210321E+03	2.032906E-15	6.169906E-17
3.220322E+03	2.088184E-15	6.333390E-17
3.230323E+03	2.143629E-15	6.497150E-17
3.240324E+03	2.198481E-15	6.658882E-17
3.250325E+03	2.253474E-15	6.820809E-17
3.260326E+03	2.307883E-15	6.980738E-17
3.270327E+03	2.362553E-15	7.141227E-17
3.280328E+03	2.416796E-15	7.300197E-17
3.290329E+03	2.471558E-15	7.460506E-17
3.300330E+03	2.526170E-15	7.620131E-17
3.310331E+03	2.581653E-15	7.782152E-17
3.320332E+03	2.637313E-15	7.944472E-17
3.330333E+03	2.694180E-15	8.110192E-17
3.340334E+03	2.751444E-15	8.276868E-17
3.350335E+03	2.810045E-15	8.447324E-17
3.360336E+03	2.869469E-15	8.620007E-17
3.370337E+03	2.929088E-15	8.793024E-17
3.380338E+03	2.989666E-15	8.968669E-17
3.390339E+03	3.049878E-15	9.142967E-17
3.400340E+03	3.110275E-15	9.317564E-17
3.410341E+03	3.169175E-15	9.487430E-17
3.420342E+03	3.226847E-15	9.653375E-17
3.430343E+03	3.281873E-15	9.811172E-17
3.440344E+03	3.332763E-15	9.956386E-17
3.450345E+03	3.379738E-15	1.008970E-16
3.460346E+03	3.421465E-15	1.020717E-16
3.470347E+03	3.456776E-15	1.030534E-16
3.480348E+03	3.486509E-15	1.038674E-16
3.490349E+03	3.509506E-15	1.044798E-16
3.500350E+03	3.527324E-15	1.049371E-16
3.510351E+03	3.540118E-15	1.052444E-16
3.520352E+03	3.548351E-15	1.054157E-16
3.530353E+03	3.554499E-15	1.055248E-16
3.540354E+03	3.559331E-15	1.055947E-16
3.550355E+03	3.563498E-15	1.056448E-16
3.560356E+03	3.569172E-15	1.057394E-16
3.570357E+03	3.575753E-15	1.058607E-16
3.580358E+03	3.584577E-15	1.060481E-16
3.590359E+03	3.594691E-15	1.062735E-16
3.600360E+03	3.604677E-15	1.064947E-16
3.610361E+03	3.614516E-15	1.067113E-16
3.620362E+03	3.622043E-15	1.068595E-16
3.630363E+03	3.624820E-15	1.068673E-16
3.640364E+03	3.622026E-15	1.067111E-16
3.650365E+03	3.610930E-15	1.063107E-16
3.660366E+03	3.588834E-15	1.055873E-16
3.670367E+03	3.555031E-15	1.045207E-16
3.680368E+03	3.507341E-15	1.030476E-16
3.690369E+03	3.444092E-15	1.011198E-16
3.700370E+03	3.365949E-15	9.875768E-17
3.710371E+03	3.272537E-15	9.595122E-17
3.720372E+03	3.164343E-15	9.271556E-17
3.730373E+03	3.044317E-15	8.913796E-17
3.740374E+03	2.914669E-15	8.528376E-17
3.750375E+03	2.778994E-15	8.125866E-17
3.760376E+03	2.641170E-15	7.717631E-17
3.770377E+03	2.506866E-15	7.320240E-17
3.780378E+03	2.380408E-15	6.946285E-17
3.790379E+03	2.265817E-15	6.607453E-17
3.800380E+03	2.167623E-15	6.316869E-17
3.810381E+03	2.088434E-15	6.082027E-17
3.820382E+03	2.030167E-15	5.908401E-17
3.830383E+03	1.995142E-15	5.802611E-17
3.840384E+03	1.984270E-15	5.767172E-17
3.850385E+03	1.998305E-15	5.804134E-17
3.860386E+03	2.038946E-15	5.918284E-17
3.870387E+03	2.106907E-15	6.111546E-17
3.880388E+03	2.202793E-15	6.385516E-17
3.890389E+03	2.328010E-15	6.744117E-17
3.900390E+03	2.482366E-15	7.186630E-17
3.910391E+03	2.664681E-15	7.709477E-17
3.920392E+03	2.873768E-15	8.309082E-17
3.930393E+03	3.105626E-15	8.973740E-17
3.940394E+03	3.354481E-15	9.686659E-17
3.950395E+03	3.614698E-15	1.043149E-16
3.960396E+03	3.877313E-15	1.118233E-16
3.970397E+03	4.135237E-15	1.191875E-16
3.980398E+03	4.379786E-15	1.261576E-16
3.990399E+03	4.603022E-15	1.325059E-16
4.000400E+03	4.800672E-15	1.381108E-16
4.010401E+03	4.968059E-15	1.428392E-16
4.020402E+03	5.102340E-15	1.466111E-16
4.030403E+03	5.205072E-15	1.494730E-16
4.040404E+03	5.277078E-15	1.514503E-16
4.050405E+03	5.320636E-15	1.526097E-16
4.060406E+03	5.341841E-15	1.531277E-16
4.070407E+03	5.344180E-15	1.531052E-16
4.080408E+03	5.335008E-15	1.527538E-16
4.090409E+03	5.318941E-15	1.522061E-16
4.100410E+03	5.300059E-15	1.515793E-16
4.110411E+03	5.284122E-15	1.510380E-16
4.120412E+03	5.272277E-15	1.506150E-16
4.130413E+03	5.267998E-15	1.504092E-16
4.140414E+03	5.270378E-15	1.503943E-16
4.150415E+03	5.281452E-15	1.506282E-16
4.160416E+03	5.299689E-15	1.510668E-16
4.170417E+03	5.327153E-15	1.517686E-16
4.180418E+03	5.363601E-15	1.527263E-16
4.190419E+03	5.409064E-15	1.539404E-16
4.200420E+03	5.466207E-15	1.554864E-16
4.210421E+03	5.533837E-15	1.573298E-16
4.220422E+03	5.613730E-15	1.595208E-16
4.230423E+03	5.703496E-15	1.619909E-16
4.240424E+03	5.803940E-15	1.647628E-16
4.250425E+03	5.911754E-15	1.677420E-16
4.260426E+03	6.026826E-15	1.709254E-16
4.270427E+03	6.144298E-15	1.741748E-16
4.280428E+03	6.262194E-15	1.774344E-16
4.290429E+03	6.373675E-15	1.805105E-16
4.300430E+03	6.474558E-15	1.832851E-16
4.310431E+03	6.561092E-15	1.856524E-16
4.320432E+03	6.627557E-15	1.874514E-16
4.330433E+03	6.674519E-15	1.886989E-16
4.340434E+03	6.700657E-15	1.893582E-16
4.350435E+03	6.710986E-15	1.895718E-16
4.360436E+03	6.707375E-15	1.893931E-16
4.370437E+03	6.695434E-15	1.889809E-16
4.380438E+03	6.680730E-15	1.884925E-16
4.390439E+03	6.665198E-15	1.879827E-16
4.400440E+03	6.653271E-15	1.875765E-16
4.410441E+03	6.648817E-15	1.873828E-16
4.420442E+03	6.652478E-15	1.874194E-16
4.430443E+03	6.668485E-15	1.878053E-16
4.440444E+03	6.701363E-15	1.886676E-16
4.450445E+03	6.752400E-15	1.900420E-16
4.460446E+03	6.825839E-15	1.920474E-16
4.470447E+03	6.925193E-15	1.947820E-16
4.480448E+03	7.049403E-15	1.982155E-16
4.490449E+03	7.198923E-15	2.023601E-16
4.500450E+03	7.370779E-15	2.071315E-16
4.510451E+03	7.560382E-15	2.124005E-16
4.520452E+03	7.756518E-15	2.178518E-16
4.530453E+03	7.948947E-15	2.231977E-16
4.540454E+03	8.124572E-15	2.280710E-16
4.550455E+03	8.271336E-15	2.321335E-16
4.560456E+03	8.374510E-15	2.349728E-16
4.570457E+03	8.426248E-15	2.363696E-16
4.580458E+03	8.421492E-15	2.361831E-16
4.590459E+03	8.359677E-15	2.343985E-16
4.600460E+03	8.244359E-15	2.311165E-16
4.610461E+03	8.083753E-15	2.265682E-16
4.620462E+03	7.884427E-15	2.209382E-16
4.630463E+03	7.658098E-15	2.145554E-16
4.640464E+03	7.415414E-15	2.077183E-16
4.650465E+03	7.166561E-15	2.007122E-16
4.660466E+03	6.920775E-15	1.937957E-16
4.670467E+03	6.686076E-15	1.871932E-16
4.680468E+03	6.469106E-15	1.810903E-16
4.690469E+03	6.275066E-15	1.756321E-16
4.700470E+03	6.107680E-15	1.709226E-16
4.710471E+03	5.969247E-15	1.670255E-16
4.720472E+03	5.860575E-15	1.639631E-16
4.730473E+03	5.781127E-15	1.617200E-16
4.740474E+03	5.729225E-15	1.602488E-16
4.750475E+03	5.702325E-15	1.594781E-16
4.760476E+03	5.697274E-15	1.593195E-16
4.770477E+03	5.710602E-15	1.596756E-16
4.780478E+03	5.738774E-15	1.604476E-16
4.790479E+03	5.778382E-15	1.615400E-16
4.800480E+03	5.826202E-15	1.628625E-16
4.810481E+03	5.879184E-15	1.643300E-16
4.820482E+03	5.933437E-15	1.658336E-16
4.830483E+03	5.987978E-15	1.673457E-16
4.840484E+03	6.039011E-15	1.687605E-16
4.850485E+03	6.083814E-15	1.700017E-16
4.860486E+03	6.120151E-15	1.710071E-16
4.870487E+03	6.145710E-15	1.717120E-16
4.880488E+03	6.162504E-15	1.721726E-16
4.890489E+03	6.171369E-15	1.724125E-16
4.900490E+03	6.175955E-15	1.725336E-16
4.910491E+03	6.180483E-15	1.726537E-16
4.920492E+03	6.192730E-15	1.729902E-16
4.930493E+03	6.216922E-15	1.736609E-16
4.940494E+03	6.256481E-15	1.747616E-16
4.950495E+03	6.311090E-15	1.762833E-16
4.960496E+03	6.380061E-15	1.782067E-16
4.970497E+03	6.456390E-15	1.803363E-16
4.980498E+03	6.530821E-15	1.824135E-16
4.990499E+03	6.596833E-15	1.842561E-16
5.000500E+03	6.645368E-15	1.856111E-16
5.010501E+03	6.674667E-15	1.864295E-16
5.020502E+03	6.683873E-15	1.866873E-16
5.030503E+03	6.676411E-15	1.864801E-16
5.040504E+03	6.662434E-15	1.860916E-16
5.050505E+03	6.650174E-15	1.857515E-16
5.060506E+03	6.652981E-15	1.858329E-16
5.070507E+03	6.679511E-15	1.865774E-16
5.080508E+03	6.740894E-15	1.882961E-16
5.090509E+03	6.841338E-15	1.911064E-16
5.100510E+03	6.985964E-15	1.951517E-16
5.110511E+03	7.171615E-15	2.003438E-16
5.120512E+03	7.394219E-15	2.065690E-16
5.130513E+03	7.646049E-15	2.136116E-16
5.140514E+03	7.912954E-15	2.210764E-16
5.150515E+03	8.184137E-15	2.286619E-16
5.160516E+03	8.443748E-15	2.359251E-16
5.170517E+03	8.681264E-15	2.425721E-16
5.180518E+03	8.889013E-15	2.483885E-16
5.190519E+03	9.058286E-15	2.531306E-16
5.200520E+03	9.187502E-15	2.567544E-16
5.210521E+03	9.277526E-15	2.592836E-16
5.220522E+03	9.326489E-15	2.606660E-16
5.230523E+03	9.337883E-15	2.609990E-16
5.240524E+03	9.314142E-15	2.603504E-16
5.250525E+03	9.259279E-15	2.588322E-16
5.260526E+03	9.172873E-15	2.564324E-16
5.270527E+03	9.058838E-15	2.532603E-16
5.280528E+03	8.919548E-15	2.493821E-16
5.290529E+03	8.757345E-15	2.448631E-16
5.300530E+03	8.576006E-15	2.398087E-16
5.310531E+03	8.375484E-15	2.342175E-16
5.320532E+03	8.160364E-15	2.282177E-16
5.330533E+03	7.934421E-15	2.219146E-16
5.340534E+03	7.701973E-15	2.154289E-16
5.350535E+03	7.467722E-15	2.088921E-16
5.360536E+03	7.236544E-15	2.024405E-16
5.370537E+03	7.013262E-15	1.962091E-16
5.380538E+03	6.802491E-15	1.903270E-16
5.390539E+03	6.608477E-15	1.849130E-16
5.400540E+03	6.435096E-15	1.800758E-16
5.410541E+03	6.285851E-15	1.759134E-16
5.420542E+03	6.163857E-15	1.725133E-16
5.430543E+03	6.071758E-15	1.699494E-16
5.440544E+03	6.011617E-15	1.682799E-16
5.450545E+03	5.984665E-15	1.675394E-16
5.460546E+03	5.990984E-15	1.677302E-16
5.470547E+03	6.029060E-15	1.688105E-16
5.480548E+03	6.095365E-15	1.706814E-16
5.490549E+03	6.184061E-15	1.731798E-16
5.500550E+03	6.285898E-15	1.760466E-16
5.510551E+03	6.392288E-15	1.790416E-16
5.520552E+03	6.490142E-15	1.817979E-16
5.530553E+03	6.566913E-15	1.839641E-16
5.540554E+03	6.611064E-15	1.852168E-16
5.550555E+03	6.613441E-15	1.852993E-16
5.560556E+03	6.567374E-15	1.840242E-16
5.570557E+03	6.473353E-15	1.814051E-16
5.580558E+03	6.332546E-15	1.774743E-16
5.590559E+03	6.150078E-15	1.723750E-16
5.600560E+03	5.931922E-15	1.662745E-16
5.610561E+03	5.687564E-15	1.594384E-16
5.620562E+03	5.423429E-15	1.520465E-16
5.630563E+03	5.145418E-15	1.442643E-16
5.640564E+03	4.861160E-15	1.363055E-16
5.650565E+03	4.575207E-15	1.282979E-16
5.660566E+03	4.291942E-15	1.203641E-16
5.670567E+03	4.017633E-15	1.126802E-16
5.680568E+03	3.755762E-15	1.053439E-16
5.690569E+03	3.512178E-15	9.851929E-17
5.700570E+03	3.290576E-15	9.231015E-17
5.710571E+03	3.094311E-15	8.681081E-17
5.720572E+03	2.927598E-15	8.213970E-17
5.730573E+03	2.791994E-15	7.834069E-17
5.740574E+03	2.690167E-15	7.548887E-17
5.750575E+03	2.622366E-15	7.359139E-17
5.760576E+03	2.589976E-15	7.268735E-17
5.770577E+03	2.592216E-15	7.275502E-17
5.780578E+03	2.629395E-15	7.380328E-17
5.790579E+03	2.699554E-15	7.577731E-17
5.800580E+03	2.801551E-15	7.864522E-17
5.810581E+03	2.931415E-15	8.229566E-17
5.820582E+03	3.085060E-15	8.661402E-17
5.830583E+03	3.256939E-15	9.144470E-17
5.840584E+03	3.438468E-15	9.654668E-17
5.850585E+03	3.621806E-15	1.016998E-16
5.860586E+03	3.796191E-15	1.066018E-16
5.870587E+03	3.952481E-15	1.109960E-16
5.880588E+03	4.082432E-15	1.146506E-16
5.890589E+03	4.177456E-15	1.173244E-16
5.900590E+03	4.233026E-15	1.188900E-16
5.910591E+03	4.247208E-15	1.192930E-16
5.920592E+03	4.218698E-15	1.184967E-16
5.930593E+03	4.150671E-15	1.165900E-16
5.940594E+03	4.047794E-15	1.137039E-16
5.950595E+03	3.917043E-15	1.100344E-16
5.960596E+03	3.764658E-15	1.057567E-16
5.970597E+03	3.599287E-15	1.011136E-16
5.980598E+03	3.428886E-15	9.632879E-17
5.990599E+03	3.260856E-15	9.161014E-17
6.000600E+03	3.102150E-15	8.715302E-17
6.010601E+03	2.957085E-15	8.307876E-17
6.020602E+03	2.830277E-15	7.951711E-17
6.030603E+03	2.724728E-15	7.655246E-17
6.040604E+03	2.642524E-15	7.424343E-17
6.050605E+03	2.585076E-15	7.262974E-17
6.060606E+03	2.553412E-15	7.174025E-17
6.070607E+03	2.548851E-15	7.161202E-17
6.080608E+03	2.571671E-15	7.225292E-17
6.090609E+03	2.623771E-15	7.371622E-17
6.100610E+03	2.707343E-15	7.606350E-17
6.110611E+03	2.825537E-15	7.938323E-17
6.120612E+03	2.982733E-15	8.379838E-17
6.130613E+03	3.184801E-15	8.947376E-17
6.140614E+03	3.439341E-15	9.662281E-17
6.150615E+03	3.755833E-15	1.055116E-16
6.160616E+03	4.145610E-15	1.164584E-16
6.170617E+03	4.621561E-15	1.298250E-16
6.180618E+03	5.197390E-15	1.459959E-16
6.190619E+03	5.886218E-15	1.653393E-16
6.200620E+03	6.698411E-15	1.881459E-16
6.210621E+03	7.638709E-15	2.145481E-16
6.220622E+03	8.702851E-15	2.444257E-16
6.230623E+03	9.874124E-15	2.773085E-16
6.240624E+03	1.112079E-14	3.123043E-16
6.250625E+03	1.239351E-14	3.480273E-16
6.260626E+03	1.363516E-14	3.828727E-16
6.270627E+03	1.477526E-14	4.148615E-16
6.280628E+03	1.574548E-14	4.420754E-16
6.290629E+03	1.648739E-14	4.628750E-16
6.300630E+03	1.696111E-14	4.761412E-16
6.310631E+03	1.715076E-14	4.814302E-16
6.320632E+03	1.706309E-14	4.789330E-16
6.330633E+03	1.673499E-14	4.696869E-16
6.340634E+03	1.621087E-14	4.549394E-16
6.350635E+03	1.554531E-14	4.362241E-16
6.360636E+03	1.479274E-14	4.150693E-16
6.370637E+03	1.399922E-14	3.927680E-16
6.380638E+03	1.320788E-14	3.705309E-16
6.390639E+03	1.244443E-14	3.490793E-16
6.400640E+03	1.172702E-14	3.289220E-16
6.410641E+03	1.106384E-14	3.102887E-16
6.420642E+03	1.046224E-14	2.933855E-16
6.430643E+03	9.920028E-15	2.781499E-16
6.440644E+03	9.434240E-15	2.644989E-16
6.450645E+03	8.999137E-15	2.522710E-16
6.460646E+03	8.612657E-15	2.414082E-16
6.470647E+03	8.268272E-15	2.317269E-16
6.480648E+03	7.959892E-15	2.230563E-16
6.490649E+03	7.685567E-15	2.153414E-16
6.500650E+03	7.439900E-15	2.084307E-16
6.510651E+03	7.218020E-15	2.021876E-16
6.520652E+03	7.018780E-15	1.965796E-16
6.530653E+03	6.837766E-15	1.914830E-16
6.540654E+03	6.670730E-15	1.867786E-16
6.550655E+03	6.516599E-15	1.824363E-16
6.560656E+03	6.370093E-15	1.783082E-16
6.570657E+03	6.230071E-15	1.743623E-16
6.580658E+03	6.092459E-15	1.704846E-16
6.590659E+03	5.953442E-15	1.665682E-16
6.600660E+03	5.812256E-15	1.625920E-16
6.610661E+03	5.664691E-15	1.584381E-16
6.620662E+03	5.510499E-15	1.540999E-16
6.630663E+03	5.346239E-15	1.494812E-16
6.640664E+03	5.172316E-15	1.445935E-16
6.650665E+03	4.986227E-15	1.393671E-16
6.660666E+03	4.789228E-15	1.338372E-16
6.670667E+03	4.580042E-15	1.279684E-16
6.680668E+03	4.361049E-15	1.218275E-16
6.690669E+03	4.132454E-15	1.154203E-16
6.700670E+03	3.897875E-15	1.088481E-16
6.710671E+03	3.658943E-15	1.021565E-16
6.720672E+03	3.420194E-15	9.547237E-17
6.730673E+03	3.184145E-15	8.886593E-17
6.740674E+03	2.955505E-15	8.246859E-17
6.750675E+03	2.736797E-15	7.635066E-17
6.760676E+03	2.531618E-15	7.061238E-17
6.770677E+03	2.342891E-15	6.533506E-17
6.780678E+03	2.171779E-15	6.055084E-17
6.790679E+03	2.020266E-15	5.631482E-17
6.800680E+03	1.888371E-15	5.262717E-17
6.810681E+03	1.776617E-15	4.950215E-17
6.820682E+03	1.685087E-15	4.694178E-17
6.830683E+03	1.612845E-15	4.491958E-17
6.840684E+03	1.559690E-15	4.342966E-17
6.850685E+03	1.525416E-15	4.246592E-17
6.860686E+03	1.509203E-15	4.200523E-17
6.870687E+03	1.511107E-15	4.204881E-17
6.880688E+03	1.531331E-15	4.260193E-17
6.890689E+03	1.569473E-15	4.365311E-17
6.900690E+03	1.625884E-15	4.521176E-17
6.910691E+03	1.700872E-15	4.728608E-17
6.920692E+03	1.793755E-15	4.985675E-17
6.930693E+03	1.904284E-15	5.291649E-17
6.940694E+03	2.031494E-15	5.643814E-17
6.950695E+03	2.174214E-15	6.038885E-17
6.960696E+03	2.329695E-15	6.469199E-17
6.970697E+03	2.495656E-15	6.928390E-17
6.980698E+03	2.669118E-15	7.408173E-17
6.990699E+03	2.847381E-15	7.901041E-17
7.000700E+03	3.026496E-15	8.396023E-17
7.010701E+03	3.204098E-15	8.886562E-17
7.020702E+03	3.377869E-15	9.366233E-17
7.030703E+03	3.546608E-15	9.831713E-17
7.040704E+03	3.708041E-15	1.027671E-16
7.050705E+03	3.862054E-15	1.070092E-16
7.060706E+03	4.008486E-15	1.110391E-16
7.070707E+03	4.147599E-15	1.148643E-16
7.080708E+03	4.280070E-15	1.185037E-16
7.090709E+03	4.407036E-15	1.219889E-16
7.100710E+03	4.530899E-15	1.253864E-16
7.110711E+03	4.652620E-15	1.287229E-16
7.120712E+03	4.776097E-15	1.321064E-16
7.130713E+03	4.905469E-15	1.356512E-16
7.140714E+03	5.045831E-15	1.394980E-16
7.150715E+03	5.203156E-15	1.438119E-16
7.160716E+03	5.384087E-15	1.487759E-16
7.170717E+03	5.595582E-15	1.545819E-16
7.180718E+03	5.844400E-15	1.614159E-16
7.190719E+03	6.136410E-15	1.694392E-16
7.200720E+03	6.476762E-15	1.787933E-16
7.210721E+03	6.864793E-15	1.894587E-16
7.220722E+03	7.298795E-15	2.013876E-16
7.230723E+03	7.771026E-15	2.143654E-16
7.240724E+03	8.267914E-15	2.280171E-16
7.250725E+03	8.769803E-15	2.418004E-16
7.260726E+03	9.251659E-15	2.550252E-16
7.270727E+03	9.684840E-15	2.669027E-16
7.280728E+03	1.003997E-14	2.766245E-16
7.290729E+03	1.029048E-14	2.834602E-16
7.300730E+03	1.041615E-14	2.868553E-16
7.310731E+03	1.040595E-14	2.865080E-16
7.320732E+03	1.025942E-14	2.824092E-16
7.330733E+03	9.986332E-15	2.748296E-16
7.340734E+03	9.603274E-15	2.642284E-16
7.350735E+03	9.136884E-15	2.513401E-16
7.360736E+03	8.611262E-15	2.368291E-16
7.370737E+03	8.051360E-15	2.213825E-16
7.380738E+03	7.479198E-15	2.056061E-16
7.390739E+03	6.912640E-15	1.899910E-16
7.400740E+03	6.364984E-15	1.749024E-16
7.410741E+03	5.845239E-15	1.605873E-16
7.420742E+03	5.358785E-15	1.471931E-16
7.430743E+03	4.908176E-15	1.347891E-16
7.440744E+03	4.493250E-15	1.233702E-16
7.450745E+03	4.114747E-15	1.129560E-16
7.460746E+03	3.770394E-15	1.034835E-16
7.470747E+03	3.458344E-15	9.490131E-17
7.480748E+03	3.176659E-15	8.715579E-17
7.490749E+03	2.923463E-15	8.019485E-17
7.500750E+03	2.696604E-15	7.395901E-17
7.510751E+03	2.495434E-15	6.843008E-17
7.520752E+03	2.318173E-15	6.355883E-17
7.530753E+03	2.163730E-15	5.931494E-17
7.540754E+03	2.031249E-15	5.567461E-17
7.550755E+03	1.919792E-15	5.261185E-17
7.560756E+03	1.829567E-15	5.013201E-17
7.570757E+03	1.760035E-15	4.822007E-17
7.580758E+03	1.711182E-15	4.687536E-17
7.590759E+03	1.682929E-15	4.609551E-17
7.600760E+03	1.676212E-15	4.590591E-17
7.610761E+03	1.691358E-15	4.631531E-17
7.620762E+03	1.729128E-15	4.734436E-17
7.630763E+03	1.790075E-15	4.900801E-17
7.640764E+03	1.875500E-15	5.134168E-17
7.650765E+03	1.985522E-15	5.434853E-17
7.660766E+03	2.119490E-15	5.801063E-17
7.670767E+03	2.276604E-15	6.230597E-17
7.680768E+03	2.453525E-15	6.714312E-17
7.690769E+03	2.644871E-15	7.237480E-17
7.700770E+03	2.844393E-15	7.783011E-17
7.710771E+03	3.042702E-15	8.325220E-17
7.720772E+03	3.228893E-15	8.834286E-17
7.730773E+03	3.393149E-15	9.283366E-17
7.740774E+03	3.524975E-15	9.643770E-17
7.750775E+03	3.615893E-15	9.892318E-17
7.760776E+03	3.662318E-15	1.001922E-16
