#wls	flux	fluxerr
1.600160E+03	8.759129E-17	1.577898E-18
1.640164E+03	8.936182E-17	1.609191E-18
1.680168E+03	9.087726E-17	1.635856E-18
1.720172E+03	9.208831E-17	1.657009E-18
1.760176E+03	9.297952E-17	1.672379E-18
1.800180E+03	9.345547E-17	1.680256E-18
1.840184E+03	9.339268E-17	1.678431E-18
1.880188E+03	9.266685E-17	1.664682E-18
1.920192E+03	9.111204E-17	1.636045E-18
1.960196E+03	8.869859E-17	1.592007E-18
2.000200E+03	8.551105E-17	1.534107E-18
2.040204E+03	8.199979E-17	1.470441E-18
2.080208E+03	7.900239E-17	1.416032E-18
2.120212E+03	7.756951E-17	1.389689E-18
2.160216E+03	7.870469E-17	1.409345E-18
2.200220E+03	8.288166E-17	1.483412E-18
2.240224E+03	9.004693E-17	1.610850E-18
2.280228E+03	9.969905E-17	1.782609E-18
2.320232E+03	1.112207E-16	1.987585E-18
2.360236E+03	1.241696E-16	2.217825E-18
2.400240E+03	1.382607E-16	2.468188E-18
2.440244E+03	1.534353E-16	2.737594E-18
2.480248E+03	1.698017E-16	3.027934E-18
2.520252E+03	1.875592E-16	3.342717E-18
2.560256E+03	2.071011E-16	3.688903E-18
2.600260E+03	2.288119E-16	4.073271E-18
2.640264E+03	2.531911E-16	4.504636E-18
2.680268E+03	2.808332E-16	4.993474E-18
2.720272E+03	3.124430E-16	5.552200E-18
2.760276E+03	3.488577E-16	6.195543E-18
2.800280E+03	3.910722E-16	6.940994E-18
2.840284E+03	4.402674E-16	7.809296E-18
2.880288E+03	4.978392E-16	8.824950E-18
2.920292E+03	5.655220E-16	1.001839E-17
2.960296E+03	6.450096E-16	1.141923E-17
3.000300E+03	7.384859E-16	1.306571E-17
3.010301E+03	7.642298E-16	1.351900E-17
3.020302E+03	7.911545E-16	1.399301E-17
3.030303E+03	8.191600E-16	1.448599E-17
3.040304E+03	8.481416E-16	1.499605E-17
3.050305E+03	8.784870E-16	1.553006E-17
3.060306E+03	9.099781E-16	1.608413E-17
3.070307E+03	9.429390E-16	1.666400E-17
3.080308E+03	9.770345E-16	1.726371E-17
3.090309E+03	1.012589E-15	1.788899E-17
3.100310E+03	1.049211E-15	1.853293E-17
3.110311E+03	1.087210E-15	1.920097E-17
3.120312E+03	1.126320E-15	1.988840E-17
3.130313E+03	1.166215E-15	2.058946E-17
3.140314E+03	1.207150E-15	2.130863E-17
3.150315E+03	1.248509E-15	2.203505E-17
3.160316E+03	1.290500E-15	2.277237E-17
3.170317E+03	1.332410E-15	2.350800E-17
3.180318E+03	1.374421E-15	2.424518E-17
3.190319E+03	1.416012E-15	2.497469E-17
3.200320E+03	1.456637E-15	2.568691E-17
3.210321E+03	1.496545E-15	2.638627E-17
3.220322E+03	1.534994E-15	2.705965E-17
3.230323E+03	1.572361E-15	2.771373E-17
3.240324E+03	1.607998E-15	2.833711E-17
3.250325E+03	1.642450E-15	2.893938E-17
3.260326E+03	1.675482E-15	2.951645E-17
3.270327E+03	1.706902E-15	3.006490E-17
3.280328E+03	1.737469E-15	3.059816E-17
3.290329E+03	1.766764E-15	3.110884E-17
3.300330E+03	1.795620E-15	3.161160E-17
3.310331E+03	1.823934E-15	3.210466E-17
3.320332E+03	1.851569E-15	3.258560E-17
3.330333E+03	1.879336E-15	3.306869E-17
3.340334E+03	1.906687E-15	3.354430E-17
3.350335E+03	1.934358E-15	3.402538E-17
3.360336E+03	1.962022E-15	3.450617E-17
3.370337E+03	1.989272E-15	3.497951E-17
3.380338E+03	2.016696E-15	3.545575E-17
3.390339E+03	2.043414E-15	3.591942E-17
3.400340E+03	2.069928E-15	3.637935E-17
3.410341E+03	2.095253E-15	3.681822E-17
3.420342E+03	2.119844E-15	3.724406E-17
3.430343E+03	2.143046E-15	3.764535E-17
3.440344E+03	2.164193E-15	3.801041E-17
3.450345E+03	2.183801E-15	3.834833E-17
3.460346E+03	2.200898E-15	3.864206E-17
3.470347E+03	2.216129E-15	3.890292E-17
3.480348E+03	2.229048E-15	3.912311E-17
3.490349E+03	2.239281E-15	3.929610E-17
3.500350E+03	2.247722E-15	3.943761E-17
3.510351E+03	2.253747E-15	3.953669E-17
3.520352E+03	2.258374E-15	3.961121E-17
3.530353E+03	2.261446E-15	3.965844E-17
3.540354E+03	2.262800E-15	3.967554E-17
3.550355E+03	2.263441E-15	3.968015E-17
3.560356E+03	2.262709E-15	3.966069E-17
3.570357E+03	2.261459E-15	3.963217E-17
3.580358E+03	2.259239E-15	3.958667E-17
3.590359E+03	2.255483E-15	3.951428E-17
3.600360E+03	2.250710E-15	3.942411E-17
3.610361E+03	2.243731E-15	3.929535E-17
3.620362E+03	2.234860E-15	3.913352E-17
3.630363E+03	2.223152E-15	3.892207E-17
3.640364E+03	2.207630E-15	3.864395E-17
3.650365E+03	2.188507E-15	3.830289E-17
3.660366E+03	2.164483E-15	3.787621E-17
3.670367E+03	2.135909E-15	3.737009E-17
3.680368E+03	2.102132E-15	3.677311E-17
3.690369E+03	2.062719E-15	3.607775E-17
3.700370E+03	2.018576E-15	3.529994E-17
3.710371E+03	1.969418E-15	3.443470E-17
3.720372E+03	1.916661E-15	3.350684E-17
3.730373E+03	1.860925E-15	3.252723E-17
3.740374E+03	1.803106E-15	3.151154E-17
3.750375E+03	1.745253E-15	3.049560E-17
3.760376E+03	1.688266E-15	2.949513E-17
3.770377E+03	1.634331E-15	2.854829E-17
3.780378E+03	1.584698E-15	2.767693E-17
3.790379E+03	1.540580E-15	2.690214E-17
3.800380E+03	1.503888E-15	2.625727E-17
3.810381E+03	1.475296E-15	2.575403E-17
3.820382E+03	1.456394E-15	2.542008E-17
3.830383E+03	1.447833E-15	2.526674E-17
3.840384E+03	1.450151E-15	2.530325E-17
3.850385E+03	1.464531E-15	2.555023E-17
3.860386E+03	1.491022E-15	2.600840E-17
3.870387E+03	1.530593E-15	2.669457E-17
3.880388E+03	1.583286E-15	2.760936E-17
3.890389E+03	1.648918E-15	2.874950E-17
3.900390E+03	1.727907E-15	3.012217E-17
3.910391E+03	1.819171E-15	3.170840E-17
3.920392E+03	1.922451E-15	3.350360E-17
3.930393E+03	2.035743E-15	3.547274E-17
3.940394E+03	2.157927E-15	3.759624E-17
3.950395E+03	2.286390E-15	3.982854E-17
3.960396E+03	2.418058E-15	4.211606E-17
3.970397E+03	2.550872E-15	4.442289E-17
3.980398E+03	2.680999E-15	4.668231E-17
3.990399E+03	2.806534E-15	4.886118E-17
4.000400E+03	2.924528E-15	5.090822E-17
4.010401E+03	3.032444E-15	5.277932E-17
4.020402E+03	3.129945E-15	5.446871E-17
4.030403E+03	3.215234E-15	5.594519E-17
4.040404E+03	3.289387E-15	5.722757E-17
4.050405E+03	3.351817E-15	5.830575E-17
4.060406E+03	3.404755E-15	5.921860E-17
4.070407E+03	3.449041E-15	5.998080E-17
4.080408E+03	3.485702E-15	6.061028E-17
4.090409E+03	3.517690E-15	6.115842E-17
4.100410E+03	3.545464E-15	6.163325E-17
4.110411E+03	3.571837E-15	6.208366E-17
4.120412E+03	3.596932E-15	6.251183E-17
4.130413E+03	3.623166E-15	6.295976E-17
4.140414E+03	3.650826E-15	6.343243E-17
4.150415E+03	3.679951E-15	6.393052E-17
4.160416E+03	3.712306E-15	6.448468E-17
4.170417E+03	3.746861E-15	6.507699E-17
4.180418E+03	3.785015E-15	6.573177E-17
4.190419E+03	3.825351E-15	6.642434E-17
4.200420E+03	3.868935E-15	6.717327E-17
4.210421E+03	3.914649E-15	6.795907E-17
4.220422E+03	3.961160E-15	6.875863E-17
4.230423E+03	4.009041E-15	6.958191E-17
4.240424E+03	4.055908E-15	7.038749E-17
4.250425E+03	4.102063E-15	7.118065E-17
4.260426E+03	4.144854E-15	7.191539E-17
4.270427E+03	4.184492E-15	7.259539E-17
4.280428E+03	4.218334E-15	7.317481E-17
4.290429E+03	4.246862E-15	7.366207E-17
4.300430E+03	4.267902E-15	7.401947E-17
4.310431E+03	4.282707E-15	7.426882E-17
4.320432E+03	4.290844E-15	7.440261E-17
4.330433E+03	4.292505E-15	7.442422E-17
4.340434E+03	4.290805E-15	7.438770E-17
4.350435E+03	4.286459E-15	7.430546E-17
4.360436E+03	4.283721E-15	7.425123E-17
4.370437E+03	4.284191E-15	7.425274E-17
4.380438E+03	4.292668E-15	7.439317E-17
4.390439E+03	4.310888E-15	7.470254E-17
4.400440E+03	4.342385E-15	7.524206E-17
4.410441E+03	4.386404E-15	7.599860E-17
4.420442E+03	4.444949E-15	7.700681E-17
4.430443E+03	4.516658E-15	7.824309E-17
4.440444E+03	4.602985E-15	7.973251E-17
4.450445E+03	4.701787E-15	8.143796E-17
4.460446E+03	4.813618E-15	8.336897E-17
4.470447E+03	4.935008E-15	8.546540E-17
4.480448E+03	5.065001E-15	8.771069E-17
4.490449E+03	5.198188E-15	9.001114E-17
4.500450E+03	5.331708E-15	9.231722E-17
4.510451E+03	5.458125E-15	9.450022E-17
4.520452E+03	5.573105E-15	9.648509E-17
4.530453E+03	5.668206E-15	9.812576E-17
4.540454E+03	5.739182E-15	9.934880E-17
4.550455E+03	5.778708E-15	1.000275E-16
4.560456E+03	5.784936E-15	1.001299E-16
4.570457E+03	5.753902E-15	9.958756E-17
4.580458E+03	5.687833E-15	9.843909E-17
4.590459E+03	5.587108E-15	9.669112E-17
4.600460E+03	5.457932E-15	9.445113E-17
4.610461E+03	5.304024E-15	9.178354E-17
4.620462E+03	5.133752E-15	8.883315E-17
4.630463E+03	4.952018E-15	8.568483E-17
4.640464E+03	4.767061E-15	8.248113E-17
4.650465E+03	4.582992E-15	7.929319E-17
4.660466E+03	4.406373E-15	7.623450E-17
4.670467E+03	4.239532E-15	7.334532E-17
4.680468E+03	4.086882E-15	7.070193E-17
4.690469E+03	3.948906E-15	6.831268E-17
4.700470E+03	3.827463E-15	6.620968E-17
4.710471E+03	3.723627E-15	6.441147E-17
4.720472E+03	3.635941E-15	6.289280E-17
4.730473E+03	3.565136E-15	6.166631E-17
4.740474E+03	3.509069E-15	6.069489E-17
4.750475E+03	3.467879E-15	5.998090E-17
4.760476E+03	3.439086E-15	5.948143E-17
4.770477E+03	3.422553E-15	5.919410E-17
4.780478E+03	3.415675E-15	5.907386E-17
4.790479E+03	3.417629E-15	5.910642E-17
4.800480E+03	3.427584E-15	5.927741E-17
4.810481E+03	3.442912E-15	5.954141E-17
4.820482E+03	3.463412E-15	5.989488E-17
4.830483E+03	3.486493E-15	6.029306E-17
4.840484E+03	3.512052E-15	6.073415E-17
4.850485E+03	3.537639E-15	6.117576E-17
4.860486E+03	3.562778E-15	6.160969E-17
4.870487E+03	3.587205E-15	6.203136E-17
4.880488E+03	3.609018E-15	6.240787E-17
4.890489E+03	3.629094E-15	6.275441E-17
4.900490E+03	3.646059E-15	6.304720E-17
4.910491E+03	3.660680E-15	6.329952E-17
4.920492E+03	3.673928E-15	6.352816E-17
4.930493E+03	3.684955E-15	6.371845E-17
4.940494E+03	3.695523E-15	6.390086E-17
4.950495E+03	3.704786E-15	6.406075E-17
4.960496E+03	3.713780E-15	6.421605E-17
4.970497E+03	3.723510E-15	6.438413E-17
4.980498E+03	3.733038E-15	6.454877E-17
4.990499E+03	3.743471E-15	6.472912E-17
5.000500E+03	3.756103E-15	6.494754E-17
5.010501E+03	3.770503E-15	6.519658E-17
5.020502E+03	3.789148E-15	6.551908E-17
5.030503E+03	3.812138E-15	6.591675E-17
5.040504E+03	3.841742E-15	6.642885E-17
5.050505E+03	3.880328E-15	6.709631E-17
5.060506E+03	3.928165E-15	6.792379E-17
5.070507E+03	3.987307E-15	6.894679E-17
5.080508E+03	4.059436E-15	7.019443E-17
5.090509E+03	4.143560E-15	7.164954E-17
5.100510E+03	4.240085E-15	7.331916E-17
5.110511E+03	4.348696E-15	7.519784E-17
5.120512E+03	4.465979E-15	7.722657E-17
5.130513E+03	4.589963E-15	7.937123E-17
5.140514E+03	4.718046E-15	8.158688E-17
5.150515E+03	4.844637E-15	8.377682E-17
5.160516E+03	4.966263E-15	8.588099E-17
5.170517E+03	5.079487E-15	8.783997E-17
5.180518E+03	5.178450E-15	8.955241E-17
5.190519E+03	5.260390E-15	9.097057E-17
5.200520E+03	5.323280E-15	9.205935E-17
5.210521E+03	5.363116E-15	9.274951E-17
5.220522E+03	5.379542E-15	9.303489E-17
5.230523E+03	5.373099E-15	9.292480E-17
5.240524E+03	5.342331E-15	9.239407E-17
5.250525E+03	5.289344E-15	9.147909E-17
5.260526E+03	5.215928E-15	9.021080E-17
5.270527E+03	5.125264E-15	8.864419E-17
5.280528E+03	5.018193E-15	8.679379E-17
5.290529E+03	4.898519E-15	8.472537E-17
5.300530E+03	4.770087E-15	8.250546E-17
5.310531E+03	4.634244E-15	8.015729E-17
5.320532E+03	4.494803E-15	7.774684E-17
5.330533E+03	4.354575E-15	7.532272E-17
5.340534E+03	4.216894E-15	7.294259E-17
5.350535E+03	4.082600E-15	7.062099E-17
5.360536E+03	3.954491E-15	6.840630E-17
5.370537E+03	3.834954E-15	6.633984E-17
5.380538E+03	3.724018E-15	6.442210E-17
5.390539E+03	3.623422E-15	6.268318E-17
5.400540E+03	3.533883E-15	6.113550E-17
5.410541E+03	3.456389E-15	5.979614E-17
5.420542E+03	3.389776E-15	5.864500E-17
5.430543E+03	3.334387E-15	5.768799E-17
5.440544E+03	3.289601E-15	5.691442E-17
5.450545E+03	3.255022E-15	5.631742E-17
5.460546E+03	3.228185E-15	5.585436E-17
5.470547E+03	3.207980E-15	5.550604E-17
5.480548E+03	3.192387E-15	5.523751E-17
5.490549E+03	3.179092E-15	5.500874E-17
5.500550E+03	3.166228E-15	5.478744E-17
5.510551E+03	3.150487E-15	5.451635E-17
5.520552E+03	3.130293E-15	5.416819E-17
5.530553E+03	3.103671E-15	5.370879E-17
5.540554E+03	3.068945E-15	5.310914E-17
5.550555E+03	3.025396E-15	5.235675E-17
5.560556E+03	2.971230E-15	5.142062E-17
5.570557E+03	2.906827E-15	5.030725E-17
5.580558E+03	2.832588E-15	4.902362E-17
5.590559E+03	2.749427E-15	4.758551E-17
5.600560E+03	2.659138E-15	4.602394E-17
5.610561E+03	2.562410E-15	4.435088E-17
5.620562E+03	2.461553E-15	4.260624E-17
5.630563E+03	2.358480E-15	4.082317E-17
5.640564E+03	2.255103E-15	3.903475E-17
5.650565E+03	2.153638E-15	3.727934E-17
5.660566E+03	2.055036E-15	3.557340E-17
5.670567E+03	1.961252E-15	3.395078E-17
5.680568E+03	1.873665E-15	3.243536E-17
5.690569E+03	1.793463E-15	3.104771E-17
5.700570E+03	1.721631E-15	2.980489E-17
5.710571E+03	1.659241E-15	2.872547E-17
5.720572E+03	1.606293E-15	2.780945E-17
5.730573E+03	1.563484E-15	2.706894E-17
5.740574E+03	1.531029E-15	2.650765E-17
5.750575E+03	1.508964E-15	2.612623E-17
5.760576E+03	1.497144E-15	2.592217E-17
5.770577E+03	1.495237E-15	2.588974E-17
5.780578E+03	1.502963E-15	2.602409E-17
5.790579E+03	1.519027E-15	2.630283E-17
5.800580E+03	1.542659E-15	2.671261E-17
5.810581E+03	1.572541E-15	2.723065E-17
5.820582E+03	1.607066E-15	2.782909E-17
5.830583E+03	1.644348E-15	2.847529E-17
5.840584E+03	1.682262E-15	2.913247E-17
5.850585E+03	1.718535E-15	2.976124E-17
5.860586E+03	1.751162E-15	3.032689E-17
5.870587E+03	1.777339E-15	3.078084E-17
5.880588E+03	1.795439E-15	3.109492E-17
5.890589E+03	1.803961E-15	3.124313E-17
5.900590E+03	1.801960E-15	3.120908E-17
5.910591E+03	1.789123E-15	3.098732E-17
5.920592E+03	1.765795E-15	3.058386E-17
5.930593E+03	1.732945E-15	3.001543E-17
5.940594E+03	1.692072E-15	2.930802E-17
5.950595E+03	1.645079E-15	2.849456E-17
5.960596E+03	1.594119E-15	2.761237E-17
5.970597E+03	1.541720E-15	2.670519E-17
5.980598E+03	1.489562E-15	2.580215E-17
5.990599E+03	1.440022E-15	2.494442E-17
6.000600E+03	1.395004E-15	2.416499E-17
6.010601E+03	1.356194E-15	2.349306E-17
6.020602E+03	1.325070E-15	2.295424E-17
6.030603E+03	1.302940E-15	2.257122E-17
6.040604E+03	1.291005E-15	2.236478E-17
6.050605E+03	1.290433E-15	2.235519E-17
6.060606E+03	1.302439E-15	2.256347E-17
6.070607E+03	1.328373E-15	2.301305E-17
6.080608E+03	1.369810E-15	2.373121E-17
6.090609E+03	1.428634E-15	2.475060E-17
6.100610E+03	1.507126E-15	2.611076E-17
6.110611E+03	1.608040E-15	2.785939E-17
6.120612E+03	1.734670E-15	3.005359E-17
6.130613E+03	1.890894E-15	3.276054E-17
6.140614E+03	2.081171E-15	3.605753E-17
6.150615E+03	2.310483E-15	4.003088E-17
6.160616E+03	2.584180E-15	4.477329E-17
6.170617E+03	2.907690E-15	5.037883E-17
6.180618E+03	3.286644E-15	5.694507E-17
6.190619E+03	3.724020E-15	6.452362E-17
6.200620E+03	4.222529E-15	7.316149E-17
6.210621E+03	4.781560E-15	8.284807E-17
6.220622E+03	5.396658E-15	9.350619E-17
6.230623E+03	6.058618E-15	1.049764E-16
6.240624E+03	6.752923E-15	1.170071E-16
6.250625E+03	7.459732E-15	1.292545E-16
6.260626E+03	8.154641E-15	1.412958E-16
6.270627E+03	8.810268E-15	1.526564E-16
6.280628E+03	9.398511E-15	1.628495E-16
6.290629E+03	9.893314E-15	1.714235E-16
6.300630E+03	1.027333E-14	1.780086E-16
6.310631E+03	1.052415E-14	1.823549E-16
6.320632E+03	1.063778E-14	1.843241E-16
6.330633E+03	1.062028E-14	1.840211E-16
6.340634E+03	1.047985E-14	1.815879E-16
6.350635E+03	1.023247E-14	1.773015E-16
6.360636E+03	9.898004E-15	1.715060E-16
6.370637E+03	9.497935E-15	1.645738E-16
6.380638E+03	9.053437E-15	1.568716E-16
6.390639E+03	8.583902E-15	1.487356E-16
6.400640E+03	8.105955E-15	1.404537E-16
6.410641E+03	7.633038E-15	1.322590E-16
6.420642E+03	7.175378E-15	1.243287E-16
6.430643E+03	6.740202E-15	1.167879E-16
6.440644E+03	6.332156E-15	1.097172E-16
6.450645E+03	5.953785E-15	1.031607E-16
6.460646E+03	5.605969E-15	9.713367E-17
6.470647E+03	5.288363E-15	9.163006E-17
6.480648E+03	4.999739E-15	8.662864E-17
6.490649E+03	4.738285E-15	8.209800E-17
6.500650E+03	4.501814E-15	7.800026E-17
6.510651E+03	4.287941E-15	7.429407E-17
6.520652E+03	4.094194E-15	7.093661E-17
6.530653E+03	3.917414E-15	6.787314E-17
6.540654E+03	3.756484E-15	6.508432E-17
6.550655E+03	3.608166E-15	6.251403E-17
6.560656E+03	3.470085E-15	6.012110E-17
6.570657E+03	3.340051E-15	5.786763E-17
6.580658E+03	3.216075E-15	5.571913E-17
6.590659E+03	3.096387E-15	5.364494E-17
6.600660E+03	2.979452E-15	5.161848E-17
6.610661E+03	2.863989E-15	4.961753E-17
6.620662E+03	2.748986E-15	4.762458E-17
6.630663E+03	2.633710E-15	4.562692E-17
6.640664E+03	2.517718E-15	4.361691E-17
6.650665E+03	2.400436E-15	4.158457E-17
6.660666E+03	2.282842E-15	3.954687E-17
6.670667E+03	2.164877E-15	3.750278E-17
6.680668E+03	2.047141E-15	3.546270E-17
6.690669E+03	1.930419E-15	3.344023E-17
6.700670E+03	1.815623E-15	3.145117E-17
6.710671E+03	1.703736E-15	2.951256E-17
6.720672E+03	1.595753E-15	2.764162E-17
6.730673E+03	1.492366E-15	2.585034E-17
6.740674E+03	1.394974E-15	2.416293E-17
6.750675E+03	1.304028E-15	2.258726E-17
6.760676E+03	1.220111E-15	2.113336E-17
6.770677E+03	1.143643E-15	1.980853E-17
6.780678E+03	1.074885E-15	1.861727E-17
6.790679E+03	1.013955E-15	1.756162E-17
6.800680E+03	9.608481E-16	1.664151E-17
6.810681E+03	9.153088E-16	1.585250E-17
6.820682E+03	8.774980E-16	1.519735E-17
6.830683E+03	8.470462E-16	1.466968E-17
6.840684E+03	8.237373E-16	1.426572E-17
6.850685E+03	8.073596E-16	1.398182E-17
6.860686E+03	7.977223E-16	1.381464E-17
6.870687E+03	7.946630E-16	1.376139E-17
6.880688E+03	7.979112E-16	1.381735E-17
6.890689E+03	8.076430E-16	1.398559E-17
6.900690E+03	8.236427E-16	1.426235E-17
6.910691E+03	8.458501E-16	1.464659E-17
6.920692E+03	8.742063E-16	1.513728E-17
6.930693E+03	9.086478E-16	1.573332E-17
6.940694E+03	9.489246E-16	1.643036E-17
6.950695E+03	9.952460E-16	1.723203E-17
6.960696E+03	1.047309E-15	1.813307E-17
6.970697E+03	1.104934E-15	1.913036E-17
6.980698E+03	1.167911E-15	2.022027E-17
6.990699E+03	1.236013E-15	2.139887E-17
7.000700E+03	1.308781E-15	2.265816E-17
7.010701E+03	1.386438E-15	2.400207E-17
7.020702E+03	1.468589E-15	2.542368E-17
7.030703E+03	1.555106E-15	2.692083E-17
7.040704E+03	1.645938E-15	2.849261E-17
7.050705E+03	1.740830E-15	3.013458E-17
7.060706E+03	1.840532E-15	3.185974E-17
7.070707E+03	1.945047E-15	3.366815E-17
7.080708E+03	2.054811E-15	3.556732E-17
7.090709E+03	2.170409E-15	3.756738E-17
7.100710E+03	2.292185E-15	3.967428E-17
7.110711E+03	2.421808E-15	4.191693E-17
7.120712E+03	2.559929E-15	4.430653E-17
7.130713E+03	2.707671E-15	4.686255E-17
7.140714E+03	2.866201E-15	4.960517E-17
7.150715E+03	3.036107E-15	5.254456E-17
7.160716E+03	3.219365E-15	5.571488E-17
7.170717E+03	3.416092E-15	5.911816E-17
7.180718E+03	3.626373E-15	6.275586E-17
7.190719E+03	3.848859E-15	6.660462E-17
7.200720E+03	4.083167E-15	7.065781E-17
7.210721E+03	4.325732E-15	7.485371E-17
7.220722E+03	4.572184E-15	7.911672E-17
7.230723E+03	4.815784E-15	8.333020E-17
7.240724E+03	5.050798E-15	8.739496E-17
7.250725E+03	5.267821E-15	9.114830E-17
7.260726E+03	5.457476E-15	9.442796E-17
7.270727E+03	5.610268E-15	9.706972E-17
7.280728E+03	5.716400E-15	9.890410E-17
7.290729E+03	5.770607E-15	9.984005E-17
7.300730E+03	5.766983E-15	9.977547E-17
7.310731E+03	5.703507E-15	9.867544E-17
7.320732E+03	5.580350E-15	9.654297E-17
7.330733E+03	5.403725E-15	9.348561E-17
7.340734E+03	5.179529E-15	8.960542E-17
7.350735E+03	4.916634E-15	8.505594E-17
7.360736E+03	4.624255E-15	7.999658E-17
7.370737E+03	4.314387E-15	7.463488E-17
7.380738E+03	3.996040E-15	6.912672E-17
7.390739E+03	3.677410E-15	6.361386E-17
7.400740E+03	3.367264E-15	5.824794E-17
7.410741E+03	3.070739E-15	5.311785E-17
7.420742E+03	2.792089E-15	4.829711E-17
7.430743E+03	2.533658E-15	4.382626E-17
7.440744E+03	2.297905E-15	3.974782E-17
7.450745E+03	2.084853E-15	3.606216E-17
7.460746E+03	1.894239E-15	3.276472E-17
7.470747E+03	1.724946E-15	2.983616E-17
7.480748E+03	1.576425E-15	2.726697E-17
7.490749E+03	1.446966E-15	2.502755E-17
7.500750E+03	1.334871E-15	2.308851E-17
7.510751E+03	1.239167E-15	2.143303E-17
7.520752E+03	1.158214E-15	2.003271E-17
7.530753E+03	1.090735E-15	1.886549E-17
7.540754E+03	1.035411E-15	1.790852E-17
7.550755E+03	9.916204E-16	1.715105E-17
7.560756E+03	9.583322E-16	1.657526E-17
7.570757E+03	9.346867E-16	1.616626E-17
7.580758E+03	9.204483E-16	1.591999E-17
7.590759E+03	9.150010E-16	1.582577E-17
7.600760E+03	9.178253E-16	1.587464E-17
7.610761E+03	9.289405E-16	1.606693E-17
7.620762E+03	9.479056E-16	1.639500E-17
7.630763E+03	9.742455E-16	1.685065E-17
7.640764E+03	1.007908E-15	1.743298E-17
7.650765E+03	1.048199E-15	1.812998E-17
7.660766E+03	1.094195E-15	1.892569E-17
7.670767E+03	1.145282E-15	1.980949E-17
7.680768E+03	1.199988E-15	2.075594E-17
7.690769E+03	1.256718E-15	2.173742E-17
7.700770E+03	1.313359E-15	2.271744E-17
7.710771E+03	1.368272E-15	2.366761E-17
7.720772E+03	1.419060E-15	2.454647E-17
7.730773E+03	1.463362E-15	2.531322E-17
7.740774E+03	1.499839E-15	2.594466E-17
7.750775E+03	1.526833E-15	2.641213E-17
7.760776E+03	1.543246E-15	2.669660E-17
