#wls	flux	fluxerr
1.600000E+03	3.545806E-17	4.263052E-18
1.640000E+03	3.595057E-17	4.322237E-18
1.680000E+03	3.648541E-17	4.386510E-18
1.720000E+03	3.706205E-17	4.455807E-18
1.760000E+03	3.768312E-17	4.530442E-18
1.800000E+03	3.835405E-17	4.611071E-18
1.840000E+03	3.906708E-17	4.696759E-18
1.880000E+03	3.983029E-17	4.788476E-18
1.920000E+03	4.064189E-17	4.886009E-18
1.960000E+03	4.150001E-17	4.989132E-18
2.000000E+03	4.239990E-17	5.097273E-18
2.040000E+03	4.333984E-17	5.210226E-18
2.080000E+03	4.431262E-17	5.327123E-18
2.120000E+03	4.530602E-17	5.446496E-18
2.160000E+03	4.631687E-17	5.567963E-18
2.200000E+03	4.733186E-17	5.689923E-18
2.240000E+03	4.834142E-17	5.811227E-18
2.280000E+03	4.934207E-17	5.931455E-18
2.320000E+03	5.033577E-17	6.050844E-18
2.360000E+03	5.133190E-17	6.170521E-18
2.400000E+03	5.234168E-17	6.291833E-18
2.440000E+03	5.337567E-17	6.416052E-18
2.480000E+03	5.445062E-17	6.545188E-18
2.520000E+03	5.557541E-17	6.680311E-18
2.560000E+03	5.676274E-17	6.822945E-18
2.600000E+03	5.801793E-17	6.973729E-18
2.640000E+03	5.934797E-17	7.133505E-18
2.680000E+03	6.075501E-17	7.302528E-18
2.720000E+03	6.224060E-17	7.480986E-18
2.760000E+03	6.380536E-17	7.668952E-18
2.800000E+03	6.544662E-17	7.866103E-18
2.840000E+03	6.715983E-17	8.071894E-18
2.880000E+03	6.894135E-17	8.285885E-18
2.920000E+03	7.077963E-17	8.506688E-18
2.960000E+03	7.266638E-17	8.733305E-18
3.000000E+03	7.457969E-17	8.963103E-18
3.010000E+03	7.506117E-17	9.020931E-18
3.020000E+03	7.554094E-17	9.078550E-18
3.030000E+03	7.601822E-17	9.135871E-18
3.040000E+03	7.649556E-17	9.193198E-18
3.050000E+03	7.697033E-17	9.250216E-18
3.060000E+03	7.744152E-17	9.306802E-18
3.070000E+03	7.790974E-17	9.363031E-18
3.080000E+03	7.837218E-17	9.418564E-18
3.090000E+03	7.882761E-17	9.473254E-18
3.100000E+03	7.927802E-17	9.527340E-18
3.110000E+03	7.971873E-17	9.580260E-18
3.120000E+03	8.014988E-17	9.632029E-18
3.130000E+03	8.056829E-17	9.682268E-18
3.140000E+03	8.097711E-17	9.731353E-18
3.150000E+03	8.136976E-17	9.778495E-18
3.160000E+03	8.174598E-17	9.823660E-18
3.170000E+03	8.210536E-17	9.866802E-18
3.180000E+03	8.244586E-17	9.907674E-18
3.190000E+03	8.276219E-17	9.945641E-18
3.200000E+03	8.305676E-17	9.980992E-18
3.210000E+03	8.332415E-17	1.001308E-17
3.220000E+03	8.356349E-17	1.004179E-17
3.230000E+03	8.377078E-17	1.006665E-17
3.240000E+03	8.394501E-17	1.008754E-17
3.250000E+03	8.408358E-17	1.010414E-17
3.260000E+03	8.418386E-17	1.011614E-17
3.270000E+03	8.424182E-17	1.012306E-17
3.280000E+03	8.425630E-17	1.012475E-17
3.290000E+03	8.422473E-17	1.012090E-17
3.300000E+03	8.414326E-17	1.011106E-17
3.310000E+03	8.401089E-17	1.009510E-17
3.320000E+03	8.382406E-17	1.007260E-17
3.330000E+03	8.358206E-17	1.004347E-17
3.340000E+03	8.328178E-17	1.000734E-17
3.350000E+03	8.292171E-17	9.964018E-18
3.360000E+03	8.250068E-17	9.913375E-18
3.370000E+03	8.201787E-17	9.855308E-18
3.380000E+03	8.147292E-17	9.789775E-18
3.390000E+03	8.086472E-17	9.716642E-18
3.400000E+03	8.019515E-17	9.636136E-18
3.410000E+03	7.946310E-17	9.548123E-18
3.420000E+03	7.867276E-17	9.453106E-18
3.430000E+03	7.782440E-17	9.351118E-18
3.440000E+03	7.692121E-17	9.242544E-18
3.450000E+03	7.596708E-17	9.127850E-18
3.460000E+03	7.496547E-17	9.007451E-18
3.470000E+03	7.392243E-17	8.882076E-18
3.480000E+03	7.284261E-17	8.752282E-18
3.490000E+03	7.173124E-17	8.618700E-18
3.500000E+03	7.059511E-17	8.482143E-18
3.510000E+03	6.944057E-17	8.343375E-18
3.520000E+03	6.827626E-17	8.203435E-18
3.530000E+03	6.710776E-17	8.062993E-18
3.540000E+03	6.594450E-17	7.923181E-18
3.550000E+03	6.479447E-17	7.784961E-18
3.560000E+03	6.366666E-17	7.649412E-18
3.570000E+03	6.256859E-17	7.517437E-18
3.580000E+03	6.150851E-17	7.390029E-18
3.590000E+03	6.049589E-17	7.268323E-18
3.600000E+03	5.953701E-17	7.153075E-18
3.610000E+03	5.864056E-17	7.045328E-18
3.620000E+03	5.781336E-17	6.945904E-18
3.630000E+03	5.706119E-17	6.855494E-18
3.640000E+03	5.639002E-17	6.774817E-18
3.650000E+03	5.580590E-17	6.704598E-18
3.660000E+03	5.531317E-17	6.645361E-18
3.670000E+03	5.491768E-17	6.597806E-18
3.680000E+03	5.462258E-17	6.562311E-18
3.690000E+03	5.443250E-17	6.539434E-18
3.700000E+03	5.435130E-17	6.529639E-18
3.710000E+03	5.438312E-17	6.533421E-18
3.720000E+03	5.453065E-17	6.551102E-18
3.730000E+03	5.479734E-17	6.583100E-18
3.740000E+03	5.518554E-17	6.629694E-18
3.750000E+03	5.569744E-17	6.691149E-18
3.760000E+03	5.633366E-17	6.767537E-18
3.770000E+03	5.709404E-17	6.858838E-18
3.780000E+03	5.797631E-17	6.964783E-18
3.790000E+03	5.897654E-17	7.084895E-18
3.800000E+03	6.009055E-17	7.218675E-18
3.810000E+03	6.130914E-17	7.365016E-18
3.820000E+03	6.262308E-17	7.522809E-18
3.830000E+03	6.402068E-17	7.690648E-18
3.840000E+03	6.548575E-17	7.866591E-18
3.850000E+03	6.700063E-17	8.048514E-18
3.860000E+03	6.854568E-17	8.234059E-18
3.870000E+03	7.009828E-17	8.420508E-18
3.880000E+03	7.163401E-17	8.604928E-18
3.890000E+03	7.312648E-17	8.784149E-18
3.900000E+03	7.455023E-17	8.955111E-18
3.910000E+03	7.587946E-17	9.114718E-18
3.920000E+03	7.708980E-17	9.260041E-18
3.930000E+03	7.815908E-17	9.388418E-18
3.940000E+03	7.906825E-17	9.497560E-18
3.950000E+03	7.980283E-17	9.585729E-18
3.960000E+03	8.035198E-17	9.651623E-18
3.970000E+03	8.070885E-17	9.694420E-18
3.980000E+03	8.087358E-17	9.714138E-18
3.990000E+03	8.084879E-17	9.711090E-18
4.000000E+03	8.064278E-17	9.686276E-18
4.010000E+03	8.026686E-17	9.641053E-18
4.020000E+03	7.973460E-17	9.577052E-18
4.030000E+03	7.906390E-17	9.496424E-18
4.040000E+03	7.827189E-17	9.401226E-18
4.050000E+03	7.737772E-17	9.293759E-18
4.060000E+03	7.639980E-17	9.176234E-18
4.070000E+03	7.535584E-17	9.050778E-18
4.080000E+03	7.426244E-17	8.919388E-18
4.090000E+03	7.313540E-17	8.783956E-18
4.100000E+03	7.198744E-17	8.646015E-18
4.110000E+03	7.083015E-17	8.506955E-18
4.120000E+03	6.967449E-17	8.368093E-18
4.130000E+03	6.852714E-17	8.230230E-18
4.140000E+03	6.739501E-17	8.094197E-18
4.150000E+03	6.628293E-17	7.960574E-18
4.160000E+03	6.519451E-17	7.829796E-18
4.170000E+03	6.413250E-17	7.702189E-18
4.180000E+03	6.309902E-17	7.578012E-18
4.190000E+03	6.209589E-17	7.457480E-18
4.200000E+03	6.112485E-17	7.340804E-18
4.210000E+03	6.018783E-17	7.228216E-18
4.220000E+03	5.928704E-17	7.119980E-18
4.230000E+03	5.842468E-17	7.016360E-18
4.240000E+03	5.760404E-17	6.917752E-18
4.250000E+03	5.682953E-17	6.824686E-18
4.260000E+03	5.610572E-17	6.737709E-18
4.270000E+03	5.543675E-17	6.657320E-18
4.280000E+03	5.482886E-17	6.584266E-18
4.290000E+03	5.428822E-17	6.519288E-18
4.300000E+03	5.382128E-17	6.463163E-18
4.310000E+03	5.343465E-17	6.416682E-18
4.320000E+03	5.313436E-17	6.380569E-18
4.330000E+03	5.292749E-17	6.355674E-18
4.340000E+03	5.281859E-17	6.342545E-18
4.350000E+03	5.281342E-17	6.341872E-18
4.360000E+03	5.291596E-17	6.354132E-18
4.370000E+03	5.312979E-17	6.379755E-18
4.380000E+03	5.345719E-17	6.419016E-18
4.390000E+03	5.389990E-17	6.472120E-18
4.400000E+03	5.445803E-17	6.539084E-18
4.410000E+03	5.513133E-17	6.619875E-18
4.420000E+03	5.591662E-17	6.714111E-18
4.430000E+03	5.680813E-17	6.821100E-18
4.440000E+03	5.779794E-17	6.939890E-18
4.450000E+03	5.887346E-17	7.068967E-18
4.460000E+03	6.001840E-17	7.206379E-18
4.470000E+03	6.121276E-17	7.349722E-18
4.480000E+03	6.243067E-17	7.495890E-18
4.490000E+03	6.364379E-17	7.641480E-18
4.500000E+03	6.482000E-17	7.782635E-18
4.510000E+03	6.592431E-17	7.915155E-18
4.520000E+03	6.692129E-17	8.034786E-18
4.530000E+03	6.777618E-17	8.137356E-18
4.540000E+03	6.845661E-17	8.218977E-18
4.550000E+03	6.893428E-17	8.276253E-18
4.560000E+03	6.918624E-17	8.306429E-18
4.570000E+03	6.919701E-17	8.307649E-18
4.580000E+03	6.896170E-17	8.279324E-18
4.590000E+03	6.848205E-17	8.221665E-18
4.600000E+03	6.776980E-17	8.136082E-18
4.610000E+03	6.684640E-17	8.025151E-18
4.620000E+03	6.573993E-17	7.892245E-18
4.630000E+03	6.448191E-17	7.741146E-18
4.640000E+03	6.311076E-17	7.576469E-18
4.650000E+03	6.166161E-17	7.402430E-18
4.660000E+03	6.017211E-17	7.223552E-18
4.670000E+03	5.867504E-17	7.043766E-18
4.680000E+03	5.719881E-17	6.866486E-18
4.690000E+03	5.576640E-17	6.694469E-18
4.700000E+03	5.439449E-17	6.529719E-18
4.710000E+03	5.309434E-17	6.373585E-18
4.720000E+03	5.186891E-17	6.226423E-18
4.730000E+03	5.071537E-17	6.087894E-18
4.740000E+03	4.962610E-17	5.957082E-18
4.750000E+03	4.858826E-17	5.832446E-18
4.760000E+03	4.758977E-17	5.712536E-18
4.770000E+03	4.661685E-17	5.595697E-18
4.780000E+03	4.566215E-17	5.481047E-18
4.790000E+03	4.472330E-17	5.368302E-18
4.800000E+03	4.380353E-17	5.257850E-18
4.810000E+03	4.291254E-17	5.150853E-18
4.820000E+03	4.206255E-17	5.048779E-18
4.830000E+03	4.126477E-17	4.952974E-18
4.840000E+03	4.053031E-17	4.864772E-18
4.850000E+03	3.986744E-17	4.785163E-18
4.860000E+03	3.928149E-17	4.714788E-18
4.870000E+03	3.877575E-17	4.654042E-18
4.880000E+03	3.835179E-17	4.603113E-18
4.890000E+03	3.800868E-17	4.561888E-18
4.900000E+03	3.774511E-17	4.530210E-18
4.910000E+03	3.755773E-17	4.507678E-18
4.920000E+03	3.744394E-17	4.493977E-18
4.930000E+03	3.740052E-17	4.488723E-18
4.940000E+03	3.742397E-17	4.491493E-18
4.950000E+03	3.751176E-17	4.501986E-18
4.960000E+03	3.766110E-17	4.519866E-18
4.970000E+03	3.787045E-17	4.544946E-18
4.980000E+03	3.813796E-17	4.577007E-18
4.990000E+03	3.846267E-17	4.615931E-18
5.000000E+03	3.884338E-17	4.661575E-18
5.010000E+03	3.928024E-17	4.713957E-18
5.020000E+03	3.977181E-17	4.772902E-18
5.030000E+03	4.031722E-17	4.838309E-18
5.040000E+03	4.091585E-17	4.910100E-18
5.050000E+03	4.156602E-17	4.988075E-18
5.060000E+03	4.226608E-17	5.072034E-18
5.070000E+03	4.301406E-17	5.161744E-18
5.080000E+03	4.380768E-17	5.256927E-18
5.090000E+03	4.464362E-17	5.357189E-18
5.100000E+03	4.551856E-17	5.462127E-18
5.110000E+03	4.642916E-17	5.571342E-18
5.120000E+03	4.736999E-17	5.684182E-18
5.130000E+03	4.833690E-17	5.800150E-18
5.140000E+03	4.932251E-17	5.918359E-18
5.150000E+03	5.032099E-17	6.038111E-18
5.160000E+03	5.132410E-17	6.158416E-18
5.170000E+03	5.232315E-17	6.278231E-18
5.180000E+03	5.330847E-17	6.396396E-18
5.190000E+03	5.426909E-17	6.511596E-18
5.200000E+03	5.519402E-17	6.622510E-18
5.210000E+03	5.607142E-17	6.727719E-18
5.220000E+03	5.689128E-17	6.826023E-18
5.230000E+03	5.764123E-17	6.915938E-18
5.240000E+03	5.831216E-17	6.996368E-18
5.250000E+03	5.889561E-17	7.066302E-18
5.260000E+03	5.938482E-17	7.124928E-18
5.270000E+03	5.977356E-17	7.171498E-18
5.280000E+03	6.005950E-17	7.205734E-18
5.290000E+03	6.024115E-17	7.227456E-18
5.300000E+03	6.031957E-17	7.236794E-18
5.310000E+03	6.029713E-17	7.234032E-18
5.320000E+03	6.017904E-17	7.219794E-18
5.330000E+03	5.996996E-17	7.194640E-18
5.340000E+03	5.967686E-17	7.159406E-18
5.350000E+03	5.930681E-17	7.114943E-18
5.360000E+03	5.886862E-17	7.062305E-18
5.370000E+03	5.836894E-17	7.002292E-18
5.380000E+03	5.781698E-17	6.936008E-18
5.390000E+03	5.722061E-17	6.864398E-18
5.400000E+03	5.658761E-17	6.788395E-18
5.410000E+03	5.592436E-17	6.708765E-18
5.420000E+03	5.523810E-17	6.626376E-18
5.430000E+03	5.453569E-17	6.542053E-18
5.440000E+03	5.382164E-17	6.456334E-18
5.450000E+03	5.310230E-17	6.369982E-18
5.460000E+03	5.238222E-17	6.283544E-18
5.470000E+03	5.166691E-17	6.197679E-18
5.480000E+03	5.096418E-17	6.113326E-18
5.490000E+03	5.027955E-17	6.031145E-18
5.500000E+03	4.962030E-17	5.952010E-18
5.510000E+03	4.899229E-17	5.876624E-18
5.520000E+03	4.840250E-17	5.805823E-18
5.530000E+03	4.785496E-17	5.740093E-18
5.540000E+03	4.735458E-17	5.680020E-18
5.550000E+03	4.690477E-17	5.626015E-18
5.560000E+03	4.650983E-17	5.578591E-18
5.570000E+03	4.617147E-17	5.537957E-18
5.580000E+03	4.589188E-17	5.504371E-18
5.590000E+03	4.567226E-17	5.477979E-18
5.600000E+03	4.551419E-17	5.458969E-18
5.610000E+03	4.541738E-17	5.447307E-18
5.620000E+03	4.538195E-17	5.443009E-18
5.630000E+03	4.540746E-17	5.446019E-18
5.640000E+03	4.549245E-17	5.456163E-18
5.650000E+03	4.563535E-17	5.473253E-18
5.660000E+03	4.583308E-17	5.496918E-18
5.670000E+03	4.608294E-17	5.526836E-18
5.680000E+03	4.638178E-17	5.562627E-18
5.690000E+03	4.672544E-17	5.603793E-18
5.700000E+03	4.710936E-17	5.649787E-18
5.710000E+03	4.752865E-17	5.700022E-18
5.720000E+03	4.797908E-17	5.753991E-18
5.730000E+03	4.845416E-17	5.810916E-18
5.740000E+03	4.894926E-17	5.870241E-18
5.750000E+03	4.945856E-17	5.931268E-18
5.760000E+03	4.997550E-17	5.993211E-18
5.770000E+03	5.049438E-17	6.055386E-18
5.780000E+03	5.100920E-17	6.117072E-18
5.790000E+03	5.151260E-17	6.177389E-18
5.800000E+03	5.199745E-17	6.235481E-18
5.810000E+03	5.245755E-17	6.290604E-18
5.820000E+03	5.288429E-17	6.341726E-18
5.830000E+03	5.327085E-17	6.388029E-18
5.840000E+03	5.361001E-17	6.428648E-18
5.850000E+03	5.389508E-17	6.462781E-18
5.860000E+03	5.412061E-17	6.489773E-18
5.870000E+03	5.428019E-17	6.508858E-18
5.880000E+03	5.437080E-17	6.519673E-18
5.890000E+03	5.438871E-17	6.521770E-18
5.900000E+03	5.433180E-17	6.514896E-18
5.910000E+03	5.419909E-17	6.498933E-18
5.920000E+03	5.399066E-17	6.473892E-18
5.930000E+03	5.370816E-17	6.439970E-18
5.940000E+03	5.335239E-17	6.397264E-18
5.950000E+03	5.292632E-17	6.346130E-18
5.960000E+03	5.243435E-17	6.287094E-18
5.970000E+03	5.188115E-17	6.220719E-18
5.980000E+03	5.127104E-17	6.147521E-18
5.990000E+03	5.061143E-17	6.068390E-18
6.000000E+03	4.990754E-17	5.983951E-18
6.010000E+03	4.916878E-17	5.895333E-18
6.020000E+03	4.840151E-17	5.803298E-18
6.030000E+03	4.761430E-17	5.708875E-18
6.040000E+03	4.681651E-17	5.613184E-18
6.050000E+03	4.601636E-17	5.517212E-18
6.060000E+03	4.522252E-17	5.421999E-18
6.070000E+03	4.444235E-17	5.328426E-18
6.080000E+03	4.368487E-17	5.237575E-18
6.090000E+03	4.295586E-17	5.150140E-18
6.100000E+03	4.226306E-17	5.067046E-18
6.110000E+03	4.161175E-17	4.988930E-18
6.120000E+03	4.100636E-17	4.916319E-18
6.130000E+03	4.045082E-17	4.849686E-18
6.140000E+03	3.994843E-17	4.789428E-18
6.150000E+03	3.950038E-17	4.735685E-18
6.160000E+03	3.910712E-17	4.688511E-18
6.170000E+03	3.876875E-17	4.647920E-18
6.180000E+03	3.848220E-17	4.613542E-18
6.190000E+03	3.824471E-17	4.585046E-18
6.200000E+03	3.805245E-17	4.561974E-18
6.210000E+03	3.790089E-17	4.543782E-18
6.220000E+03	3.778422E-17	4.529774E-18
6.230000E+03	3.769707E-17	4.519305E-18
6.240000E+03	3.763503E-17	4.511846E-18
6.250000E+03	3.759349E-17	4.506846E-18
6.260000E+03	3.756962E-17	4.503966E-18
6.270000E+03	3.756098E-17	4.502910E-18
6.280000E+03	3.756620E-17	4.503518E-18
6.290000E+03	3.758383E-17	4.505613E-18
6.300000E+03	3.761257E-17	4.509040E-18
6.310000E+03	3.765168E-17	4.513713E-18
6.320000E+03	3.770033E-17	4.519528E-18
6.330000E+03	3.775660E-17	4.526258E-18
6.340000E+03	3.781952E-17	4.533785E-18
6.350000E+03	3.788814E-17	4.541997E-18
6.360000E+03	3.796050E-17	4.550656E-18
6.370000E+03	3.803642E-17	4.559744E-18
6.380000E+03	3.811482E-17	4.569128E-18
6.390000E+03	3.819482E-17	4.578705E-18
6.400000E+03	3.827568E-17	4.588386E-18
6.410000E+03	3.835784E-17	4.598223E-18
6.420000E+03	3.844010E-17	4.608072E-18
6.430000E+03	3.852293E-17	4.617991E-18
6.440000E+03	3.860553E-17	4.627882E-18
6.450000E+03	3.868694E-17	4.637631E-18
6.460000E+03	3.876664E-17	4.647175E-18
6.470000E+03	3.884328E-17	4.656353E-18
6.480000E+03	3.891601E-17	4.665064E-18
6.490000E+03	3.898211E-17	4.672979E-18
6.500000E+03	3.904121E-17	4.680056E-18
6.510000E+03	3.909187E-17	4.686122E-18
6.520000E+03	3.913227E-17	4.690957E-18
6.530000E+03	3.916205E-17	4.694521E-18
6.540000E+03	3.918062E-17	4.696740E-18
6.550000E+03	3.918773E-17	4.697587E-18
6.560000E+03	3.918342E-17	4.697066E-18
6.570000E+03	3.916865E-17	4.695290E-18
6.580000E+03	3.914318E-17	4.692232E-18
6.590000E+03	3.910738E-17	4.687937E-18
6.600000E+03	3.906214E-17	4.682510E-18
6.610000E+03	3.900747E-17	4.675954E-18
6.620000E+03	3.894243E-17	4.668155E-18
6.630000E+03	3.886709E-17	4.659121E-18
6.640000E+03	3.878002E-17	4.648682E-18
6.650000E+03	3.868159E-17	4.636882E-18
6.660000E+03	3.856955E-17	4.623449E-18
6.670000E+03	3.844302E-17	4.608281E-18
6.680000E+03	3.830202E-17	4.591378E-18
6.690000E+03	3.814614E-17	4.572692E-18
6.700000E+03	3.797471E-17	4.552143E-18
6.710000E+03	3.778806E-17	4.529769E-18
6.720000E+03	3.758751E-17	4.505729E-18
6.730000E+03	3.737342E-17	4.480066E-18
6.740000E+03	3.714774E-17	4.453015E-18
6.750000E+03	3.691065E-17	4.424596E-18
6.760000E+03	3.666518E-17	4.395172E-18
6.770000E+03	3.641177E-17	4.364798E-18
6.780000E+03	3.615356E-17	4.333847E-18
6.790000E+03	3.589097E-17	4.302372E-18
6.800000E+03	3.562619E-17	4.270636E-18
6.810000E+03	3.536063E-17	4.238804E-18
6.820000E+03	3.509474E-17	4.206935E-18
6.830000E+03	3.483010E-17	4.175216E-18
6.840000E+03	3.456677E-17	4.143653E-18
6.850000E+03	3.430590E-17	4.112385E-18
6.860000E+03	3.404650E-17	4.081294E-18
6.870000E+03	3.379005E-17	4.050556E-18
6.880000E+03	3.353606E-17	4.020114E-18
6.890000E+03	3.328463E-17	3.989980E-18
6.900000E+03	3.303524E-17	3.960088E-18
6.910000E+03	3.278916E-17	3.930595E-18
6.920000E+03	3.254451E-17	3.901272E-18
6.930000E+03	3.230311E-17	3.872340E-18
6.940000E+03	3.206366E-17	3.843641E-18
6.950000E+03	3.182619E-17	3.815180E-18
6.960000E+03	3.159141E-17	3.787041E-18
6.970000E+03	3.135881E-17	3.759164E-18
6.980000E+03	3.112859E-17	3.731572E-18
6.990000E+03	3.090096E-17	3.704291E-18
7.000000E+03	3.067613E-17	3.677345E-18
7.010000E+03	3.045422E-17	3.650749E-18
7.020000E+03	3.023476E-17	3.624447E-18
7.030000E+03	3.001909E-17	3.598600E-18
7.040000E+03	2.980558E-17	3.573011E-18
7.050000E+03	2.959616E-17	3.547913E-18
7.060000E+03	2.938923E-17	3.523114E-18
7.070000E+03	2.918602E-17	3.498760E-18
7.080000E+03	2.898597E-17	3.474785E-18
7.090000E+03	2.878906E-17	3.451186E-18
7.100000E+03	2.859579E-17	3.428024E-18
7.110000E+03	2.840491E-17	3.405149E-18
7.120000E+03	2.821689E-17	3.382617E-18
7.130000E+03	2.803108E-17	3.360348E-18
7.140000E+03	2.784792E-17	3.338398E-18
7.150000E+03	2.766734E-17	3.316758E-18
7.160000E+03	2.748865E-17	3.295344E-18
7.170000E+03	2.731231E-17	3.274211E-18
7.180000E+03	2.713713E-17	3.253217E-18
7.190000E+03	2.696412E-17	3.232484E-18
7.200000E+03	2.679270E-17	3.211941E-18
7.210000E+03	2.662235E-17	3.191526E-18
7.220000E+03	2.645375E-17	3.171321E-18
7.230000E+03	2.628712E-17	3.151353E-18
7.240000E+03	2.612229E-17	3.131601E-18
7.250000E+03	2.595973E-17	3.112120E-18
7.260000E+03	2.579996E-17	3.092973E-18
7.270000E+03	2.564360E-17	3.074236E-18
7.280000E+03	2.549122E-17	3.055975E-18
7.290000E+03	2.534235E-17	3.038135E-18
7.300000E+03	2.519857E-17	3.020906E-18
7.310000E+03	2.505981E-17	3.004278E-18
7.320000E+03	2.492587E-17	2.988229E-18
7.330000E+03	2.479758E-17	2.972856E-18
7.340000E+03	2.467405E-17	2.958054E-18
7.350000E+03	2.455541E-17	2.943837E-18
7.360000E+03	2.444168E-17	2.930210E-18
7.370000E+03	2.433235E-17	2.917111E-18
7.380000E+03	2.422787E-17	2.904593E-18
7.390000E+03	2.412669E-17	2.892469E-18
7.400000E+03	2.402971E-17	2.880850E-18
7.410000E+03	2.393589E-17	2.869610E-18
7.420000E+03	2.384574E-17	2.858809E-18
7.430000E+03	2.375873E-17	2.848385E-18
7.440000E+03	2.367493E-17	2.838346E-18
7.450000E+03	2.359488E-17	2.828756E-18
7.460000E+03	2.351816E-17	2.819566E-18
7.470000E+03	2.344633E-17	2.810961E-18
7.480000E+03	2.337838E-17	2.802822E-18
7.490000E+03	2.331525E-17	2.795261E-18
7.500000E+03	2.325627E-17	2.788197E-18
7.510000E+03	2.320268E-17	2.781779E-18
7.520000E+03	2.315352E-17	2.775893E-18
7.530000E+03	2.310825E-17	2.770472E-18
7.540000E+03	2.306663E-17	2.765490E-18
7.550000E+03	2.302781E-17	2.760843E-18
7.560000E+03	2.299186E-17	2.756540E-18
7.570000E+03	2.295674E-17	2.752337E-18
7.580000E+03	2.292193E-17	2.748171E-18
7.590000E+03	2.288688E-17	2.743976E-18
7.600000E+03	2.285013E-17	2.739578E-18
7.610000E+03	2.281131E-17	2.734930E-18
7.620000E+03	2.276911E-17	2.729878E-18
7.630000E+03	2.272389E-17	2.724463E-18
7.640000E+03	2.267409E-17	2.718500E-18
7.650000E+03	2.262031E-17	2.712060E-18
7.660000E+03	2.256120E-17	2.704980E-18
7.670000E+03	2.249757E-17	2.697357E-18
7.680000E+03	2.242814E-17	2.689041E-18
7.690000E+03	2.235375E-17	2.680129E-18
7.700000E+03	2.227363E-17	2.670530E-18
7.710000E+03	2.218745E-17	2.660203E-18
7.720000E+03	2.209481E-17	2.649104E-18
7.730000E+03	2.199521E-17	2.637169E-18
7.740000E+03	2.188810E-17	2.624334E-18
7.750000E+03	2.177239E-17	2.610467E-18
7.760000E+03	2.164850E-17	2.595620E-18
