#wls	flux	fluxerr
1.600000E+03	2.105858E-16	8.988863E-18
1.640000E+03	2.144786E-16	9.136157E-18
1.680000E+03	2.184703E-16	9.286516E-18
1.720000E+03	2.226189E-16	9.442331E-18
1.760000E+03	2.268827E-16	9.601766E-18
1.800000E+03	2.313183E-16	9.767136E-18
1.840000E+03	2.359147E-16	9.937887E-18
1.880000E+03	2.407265E-16	1.011623E-17
1.920000E+03	2.457050E-16	1.030001E-17
1.960000E+03	2.509353E-16	1.049270E-17
2.000000E+03	2.564325E-16	1.069478E-17
2.040000E+03	2.622430E-16	1.090806E-17
2.080000E+03	2.684099E-16	1.113417E-17
2.120000E+03	2.749007E-16	1.137158E-17
2.160000E+03	2.818184E-16	1.162436E-17
2.200000E+03	2.891526E-16	1.189187E-17
2.240000E+03	2.968847E-16	1.217314E-17
2.280000E+03	3.050567E-16	1.246964E-17
2.320000E+03	3.135930E-16	1.277806E-17
2.360000E+03	3.224758E-16	1.309745E-17
2.400000E+03	3.316034E-16	1.342346E-17
2.440000E+03	3.409297E-16	1.375405E-17
2.480000E+03	3.503575E-16	1.408513E-17
2.520000E+03	3.597065E-16	1.440934E-17
2.560000E+03	3.688513E-16	1.472162E-17
2.600000E+03	3.776532E-16	1.501643E-17
2.640000E+03	3.859930E-16	1.528913E-17
2.680000E+03	3.936447E-16	1.553091E-17
2.720000E+03	4.004738E-16	1.573672E-17
2.760000E+03	4.063108E-16	1.590025E-17
2.800000E+03	4.109901E-16	1.601546E-17
2.840000E+03	4.143001E-16	1.607466E-17
2.880000E+03	4.160828E-16	1.607238E-17
2.920000E+03	4.162619E-16	1.600645E-17
2.960000E+03	4.147907E-16	1.587592E-17
3.000000E+03	4.117518E-16	1.568481E-17
3.010000E+03	4.107686E-16	1.562849E-17
3.020000E+03	4.096906E-16	1.556857E-17
3.030000E+03	4.085180E-16	1.550507E-17
3.040000E+03	4.072730E-16	1.543886E-17
3.050000E+03	4.059339E-16	1.536910E-17
3.060000E+03	4.045435E-16	1.529745E-17
3.070000E+03	4.030597E-16	1.522232E-17
3.080000E+03	4.015045E-16	1.514455E-17
3.090000E+03	3.998984E-16	1.506492E-17
3.100000E+03	3.982217E-16	1.498271E-17
3.110000E+03	3.964950E-16	1.489869E-17
3.120000E+03	3.947188E-16	1.481290E-17
3.130000E+03	3.928941E-16	1.472538E-17
3.140000E+03	3.910031E-16	1.463547E-17
3.150000E+03	3.891027E-16	1.454530E-17
3.160000E+03	3.871570E-16	1.445355E-17
3.170000E+03	3.851850E-16	1.436094E-17
3.180000E+03	3.831882E-16	1.426750E-17
3.190000E+03	3.811849E-16	1.417395E-17
3.200000E+03	3.791591E-16	1.407967E-17
3.210000E+03	3.771292E-16	1.398537E-17
3.220000E+03	3.750967E-16	1.389109E-17
3.230000E+03	3.730630E-16	1.379689E-17
3.240000E+03	3.710456E-16	1.370342E-17
3.250000E+03	3.690458E-16	1.361073E-17
3.260000E+03	3.670799E-16	1.351941E-17
3.270000E+03	3.651346E-16	1.342897E-17
3.280000E+03	3.632263E-16	1.334001E-17
3.290000E+03	3.613569E-16	1.325260E-17
3.300000E+03	3.595420E-16	1.316730E-17
3.310000E+03	3.577698E-16	1.308367E-17
3.320000E+03	3.560693E-16	1.300277E-17
3.330000E+03	3.544421E-16	1.292465E-17
3.340000E+03	3.528776E-16	1.284891E-17
3.350000E+03	3.514035E-16	1.277654E-17
3.360000E+03	3.500097E-16	1.270717E-17
3.370000E+03	3.487232E-16	1.264177E-17
3.380000E+03	3.475346E-16	1.257997E-17
3.390000E+03	3.464473E-16	1.252189E-17
3.400000E+03	3.454877E-16	1.246845E-17
3.410000E+03	3.446477E-16	1.241936E-17
3.420000E+03	3.439427E-16	1.237515E-17
3.430000E+03	3.433768E-16	1.233593E-17
3.440000E+03	3.429550E-16	1.230188E-17
3.450000E+03	3.426826E-16	1.227314E-17
3.460000E+03	3.425760E-16	1.225030E-17
3.470000E+03	3.426316E-16	1.223318E-17
3.480000E+03	3.428664E-16	1.222238E-17
3.490000E+03	3.432788E-16	1.221779E-17
3.500000E+03	3.438773E-16	1.221970E-17
3.510000E+03	3.446626E-16	1.222810E-17
3.520000E+03	3.456542E-16	1.224364E-17
3.530000E+03	3.468453E-16	1.226605E-17
3.540000E+03	3.482482E-16	1.229574E-17
3.550000E+03	3.498676E-16	1.233281E-17
3.560000E+03	3.517084E-16	1.237742E-17
3.570000E+03	3.537944E-16	1.243037E-17
3.580000E+03	3.561072E-16	1.249095E-17
3.590000E+03	3.586719E-16	1.256000E-17
3.600000E+03	3.614975E-16	1.263781E-17
3.610000E+03	3.645855E-16	1.272437E-17
3.620000E+03	3.679465E-16	1.282000E-17
3.630000E+03	3.715918E-16	1.292505E-17
3.640000E+03	3.755487E-16	1.304041E-17
3.650000E+03	3.798210E-16	1.316615E-17
3.660000E+03	3.844279E-16	1.330289E-17
3.670000E+03	3.893894E-16	1.345125E-17
3.680000E+03	3.947165E-16	1.361154E-17
3.690000E+03	4.004361E-16	1.378463E-17
3.700000E+03	4.065507E-16	1.397051E-17
3.710000E+03	4.130856E-16	1.416999E-17
3.720000E+03	4.200498E-16	1.438330E-17
3.730000E+03	4.274582E-16	1.461085E-17
3.740000E+03	4.353249E-16	1.485305E-17
3.750000E+03	4.436538E-16	1.510994E-17
3.760000E+03	4.524629E-16	1.538204E-17
3.770000E+03	4.617518E-16	1.566925E-17
3.780000E+03	4.715165E-16	1.597134E-17
3.790000E+03	4.817667E-16	1.628853E-17
3.800000E+03	4.924999E-16	1.662065E-17
3.810000E+03	5.036929E-16	1.696683E-17
3.820000E+03	5.153428E-16	1.732686E-17
3.830000E+03	5.274334E-16	1.770013E-17
3.840000E+03	5.399346E-16	1.808551E-17
3.850000E+03	5.528188E-16	1.848203E-17
3.860000E+03	5.660522E-16	1.888846E-17
3.870000E+03	5.795861E-16	1.930310E-17
3.880000E+03	5.933735E-16	1.972434E-17
3.890000E+03	6.073705E-16	2.015066E-17
3.900000E+03	6.215081E-16	2.057973E-17
3.901200E+03	6.474803E-16	2.143473E-17
3.902470E+03	6.510102E-16	2.154626E-17
3.903740E+03	6.542430E-16	2.164790E-17
3.905010E+03	6.567439E-16	2.172527E-17
3.906280E+03	6.582162E-16	2.176859E-17
3.907550E+03	6.590359E-16	2.179029E-17
3.908830E+03	6.589655E-16	2.178252E-17
3.910100E+03	6.579067E-16	2.174213E-17
3.911370E+03	6.568875E-16	2.170306E-17
3.912640E+03	6.564614E-16	2.168359E-17
3.913910E+03	6.567667E-16	2.168829E-17
3.915180E+03	6.583768E-16	2.173605E-17
3.916450E+03	6.613900E-16	2.183009E-17
3.917720E+03	6.650748E-16	2.194625E-17
3.918990E+03	6.685814E-16	2.205647E-17
3.920260E+03	6.710008E-16	2.213076E-17
3.921530E+03	6.717200E-16	2.214896E-17
3.922800E+03	6.713327E-16	2.213066E-17
3.924070E+03	6.707280E-16	2.210521E-17
3.925340E+03	6.704986E-16	2.209213E-17
3.926610E+03	6.709213E-16	2.210053E-17
3.927880E+03	6.721737E-16	2.213625E-17
3.929160E+03	6.733863E-16	2.217059E-17
3.930430E+03	6.735519E-16	2.217048E-17
3.931700E+03	6.730259E-16	2.214762E-17
3.932970E+03	6.725395E-16	2.212606E-17
3.934240E+03	6.722901E-16	2.211231E-17
3.935510E+03	6.728111E-16	2.212389E-17
3.936780E+03	6.740430E-16	2.215883E-17
3.938050E+03	6.751958E-16	2.219115E-17
3.939320E+03	6.763088E-16	2.222214E-17
3.940590E+03	6.775404E-16	2.225701E-17
3.941860E+03	6.781002E-16	2.226979E-17
3.943130E+03	6.783835E-16	2.227348E-17
3.944400E+03	6.795158E-16	2.230503E-17
3.945670E+03	6.812995E-16	2.235794E-17
3.946940E+03	6.829844E-16	2.240758E-17
3.948210E+03	6.846295E-16	2.245588E-17
3.949480E+03	6.861559E-16	2.250026E-17
3.950760E+03	6.869910E-16	2.252191E-17
3.952030E+03	6.874511E-16	2.253129E-17
3.953300E+03	6.881086E-16	2.254713E-17
3.954570E+03	6.887857E-16	2.256360E-17
3.955840E+03	6.891469E-16	2.256971E-17
3.957110E+03	6.893501E-16	2.257064E-17
3.958380E+03	6.895927E-16	2.257286E-17
3.959650E+03	6.898549E-16	2.257571E-17
3.960920E+03	6.900776E-16	2.257727E-17
3.962190E+03	6.911488E-16	2.260656E-17
3.963460E+03	6.935616E-16	2.267972E-17
3.964730E+03	6.964673E-16	2.276894E-17
3.966000E+03	6.994713E-16	2.286133E-17
3.967270E+03	7.030867E-16	2.297363E-17
3.968540E+03	7.066818E-16	2.308522E-17
3.969810E+03	7.094086E-16	2.316839E-17
3.971090E+03	7.118192E-16	2.324114E-17
3.972360E+03	7.143679E-16	2.331840E-17
3.973630E+03	7.167978E-16	2.339174E-17
3.974900E+03	7.192078E-16	2.346439E-17
3.976170E+03	7.218739E-16	2.354535E-17
3.977440E+03	7.241650E-16	2.361403E-17
3.978710E+03	7.254699E-16	2.365053E-17
3.979980E+03	7.258083E-16	2.365550E-17
3.981250E+03	7.254565E-16	2.363797E-17
3.982520E+03	7.247499E-16	2.360889E-17
3.983790E+03	7.239052E-16	2.357532E-17
3.985060E+03	7.230999E-16	2.354305E-17
3.986330E+03	7.224327E-16	2.351528E-17
3.987600E+03	7.217656E-16	2.348753E-17
3.988870E+03	7.208619E-16	2.345209E-17
3.990140E+03	7.199583E-16	2.341666E-17
3.991410E+03	7.193503E-16	2.339086E-17
3.992690E+03	7.190771E-16	2.337591E-17
3.993960E+03	7.191984E-16	2.337382E-17
3.995230E+03	7.196547E-16	2.338262E-17
3.996500E+03	7.201699E-16	2.339332E-17
3.997770E+03	7.208427E-16	2.340913E-17
3.999040E+03	7.215744E-16	2.342683E-17
4.000310E+03	7.221287E-16	2.343877E-17
4.001580E+03	7.229981E-16	2.346092E-17
4.002850E+03	7.243206E-16	2.349775E-17
4.004120E+03	7.267263E-16	2.356969E-17
4.005390E+03	7.297818E-16	2.366265E-17
4.006660E+03	7.333491E-16	2.377216E-17
4.007930E+03	7.377431E-16	2.390839E-17
4.009200E+03	7.423534E-16	2.405155E-17
4.010470E+03	7.466677E-16	2.418505E-17
4.011740E+03	7.508832E-16	2.431527E-17
4.013020E+03	7.557869E-16	2.446765E-17
4.014290E+03	7.622265E-16	2.466970E-17
4.015560E+03	7.702011E-16	2.492132E-17
4.016830E+03	7.789822E-16	2.519888E-17
4.018100E+03	7.884908E-16	2.549982E-17
4.019370E+03	7.981953E-16	2.580694E-17
4.020640E+03	8.066386E-16	2.607312E-17
4.021910E+03	8.138606E-16	2.629969E-17
4.023180E+03	8.202353E-16	2.649876E-17
4.024450E+03	8.251921E-16	2.665193E-17
4.025720E+03	8.293021E-16	2.677767E-17
4.026990E+03	8.338050E-16	2.691603E-17
4.028260E+03	8.387602E-16	2.706890E-17
4.029530E+03	8.441477E-16	2.723563E-17
4.030800E+03	8.500462E-16	2.741875E-17
4.032070E+03	8.559834E-16	2.760302E-17
4.033340E+03	8.614281E-16	2.777131E-17
4.034620E+03	8.665371E-16	2.792863E-17
4.035890E+03	8.719215E-16	2.809479E-17
4.037160E+03	8.782889E-16	2.829252E-17
4.038430E+03	8.853440E-16	2.851229E-17
4.039700E+03	8.926343E-16	2.873951E-17
4.040970E+03	8.995502E-16	2.895455E-17
4.042240E+03	9.055212E-16	2.913906E-17
4.043510E+03	9.103900E-16	2.928802E-17
4.044780E+03	9.145699E-16	2.941473E-17
4.046050E+03	9.181789E-16	2.952302E-17
4.047320E+03	9.207649E-16	2.959835E-17
4.048590E+03	9.219349E-16	2.962814E-17
4.049860E+03	9.220821E-16	2.962504E-17
4.051130E+03	9.208136E-16	2.957646E-17
4.052400E+03	9.176972E-16	2.946856E-17
4.053670E+03	9.141288E-16	2.934621E-17
4.054950E+03	9.109928E-16	2.923773E-17
4.056220E+03	9.070320E-16	2.910289E-17
4.057490E+03	9.025800E-16	2.895237E-17
4.058760E+03	8.995633E-16	2.884795E-17
4.060030E+03	8.977654E-16	2.878265E-17
4.061300E+03	8.957318E-16	2.870983E-17
4.062570E+03	8.934036E-16	2.862760E-17
4.063840E+03	8.912328E-16	2.855044E-17
4.065110E+03	8.886887E-16	2.846137E-17
4.066380E+03	8.853394E-16	2.834656E-17
4.067650E+03	8.819903E-16	2.823181E-17
4.068920E+03	8.796238E-16	2.814856E-17
4.070190E+03	8.773558E-16	2.806850E-17
4.071460E+03	8.742433E-16	2.796146E-17
4.072730E+03	8.714649E-16	2.786516E-17
4.074000E+03	8.701207E-16	2.781475E-17
4.075270E+03	8.692480E-16	2.777943E-17
4.076550E+03	8.681982E-16	2.773840E-17
4.077820E+03	8.664810E-16	2.767614E-17
4.079090E+03	8.632126E-16	2.756436E-17
4.080360E+03	8.583539E-16	2.740188E-17
4.081630E+03	8.532208E-16	2.723071E-17
4.082900E+03	8.488932E-16	2.708533E-17
4.084170E+03	8.451746E-16	2.695945E-17
4.085440E+03	8.415938E-16	2.683803E-17
4.086710E+03	8.377582E-16	2.670854E-17
4.087980E+03	8.333733E-16	2.656161E-17
4.089250E+03	8.279484E-16	2.638161E-17
4.090520E+03	8.226222E-16	2.620485E-17
4.091790E+03	8.192789E-16	2.609133E-17
4.093060E+03	8.178789E-16	2.603973E-17
4.094330E+03	8.175584E-16	2.602252E-17
4.095600E+03	8.179442E-16	2.602778E-17
4.096870E+03	8.183104E-16	2.603242E-17
4.098150E+03	8.168513E-16	2.597893E-17
4.099420E+03	8.133913E-16	2.586191E-17
4.100690E+03	8.091077E-16	2.571876E-17
4.101960E+03	8.046087E-16	2.556885E-17
4.103230E+03	7.996785E-16	2.540530E-17
4.104500E+03	7.953374E-16	2.526056E-17
4.105770E+03	7.916833E-16	2.513769E-17
4.107040E+03	7.879901E-16	2.501365E-17
4.108310E+03	7.849839E-16	2.491147E-17
4.109580E+03	7.835469E-16	2.485913E-17
4.110850E+03	7.831688E-16	2.484039E-17
4.112120E+03	7.837321E-16	2.485152E-17
4.113390E+03	7.853345E-16	2.489557E-17
4.114660E+03	7.865641E-16	2.492777E-17
4.115930E+03	7.858917E-16	2.489969E-17
4.117200E+03	7.834941E-16	2.481698E-17
4.118480E+03	7.807043E-16	2.472183E-17
4.119750E+03	7.785424E-16	2.464666E-17
4.121020E+03	7.780272E-16	2.462364E-17
4.122290E+03	7.792956E-16	2.465707E-17
4.123560E+03	7.808382E-16	2.469914E-17
4.124830E+03	7.810087E-16	2.469779E-17
4.126100E+03	7.796702E-16	2.464873E-17
4.127370E+03	7.772344E-16	2.456502E-17
4.128640E+03	7.747595E-16	2.448011E-17
4.129910E+03	7.734214E-16	2.443115E-17
4.131180E+03	7.732590E-16	2.441934E-17
4.132450E+03	7.741348E-16	2.444030E-17
4.133720E+03	7.758724E-16	2.448846E-17
4.134990E+03	7.771789E-16	2.452297E-17
4.136260E+03	7.778974E-16	2.453892E-17
4.137530E+03	7.795364E-16	2.458388E-17
4.138800E+03	7.817235E-16	2.464609E-17
4.140080E+03	7.835575E-16	2.469707E-17
4.141350E+03	7.863706E-16	2.477893E-17
4.142620E+03	7.904955E-16	2.490207E-17
4.143890E+03	7.938561E-16	2.500106E-17
4.145160E+03	7.952386E-16	2.503771E-17
4.146430E+03	7.949373E-16	2.502133E-17
4.147700E+03	7.936765E-16	2.497477E-17
4.148970E+03	7.924158E-16	2.492823E-17
4.150240E+03	7.923689E-16	2.491988E-17
4.151510E+03	7.935551E-16	2.495030E-17
4.152780E+03	7.956023E-16	2.500777E-17
4.154050E+03	7.981385E-16	2.508056E-17
4.155320E+03	8.010266E-16	2.516436E-17
4.156590E+03	8.043057E-16	2.526039E-17
4.157860E+03	8.085040E-16	2.538523E-17
4.159130E+03	8.135628E-16	2.553699E-17
4.160410E+03	8.188748E-16	2.569656E-17
4.161680E+03	8.226017E-16	2.580637E-17
4.162950E+03	8.241957E-16	2.584921E-17
4.164220E+03	8.248896E-16	2.586380E-17
4.165490E+03	8.251726E-16	2.586550E-17
4.166760E+03	8.246143E-16	2.584082E-17
4.168030E+03	8.244081E-16	2.582719E-17
4.169300E+03	8.254341E-16	2.585215E-17
4.170570E+03	8.270269E-16	2.589484E-17
4.171840E+03	8.286586E-16	2.593871E-17
4.173110E+03	8.303683E-16	2.598500E-17
4.174380E+03	8.317648E-16	2.602146E-17
4.175650E+03	8.321249E-16	2.602547E-17
4.176920E+03	8.312141E-16	2.598974E-17
4.178190E+03	8.298537E-16	2.593997E-17
4.179460E+03	8.286888E-16	2.589634E-17
4.180730E+03	8.273873E-16	2.584845E-17
4.182010E+03	8.258704E-16	2.579380E-17
4.183280E+03	8.247253E-16	2.575084E-17
4.184550E+03	8.239516E-16	2.571950E-17
4.185820E+03	8.232562E-16	2.569060E-17
4.187090E+03	8.229515E-16	2.567391E-17
4.188360E+03	8.227641E-16	2.566088E-17
4.189630E+03	8.216780E-16	2.561983E-17
4.190900E+03	8.195954E-16	2.554773E-17
4.192170E+03	8.168683E-16	2.545559E-17
4.193440E+03	8.133015E-16	2.533733E-17
4.194710E+03	8.091295E-16	2.520029E-17
4.195980E+03	8.051923E-16	2.507062E-17
4.197250E+03	8.014509E-16	2.494712E-17
4.198520E+03	7.977099E-16	2.482369E-17
4.199790E+03	7.942036E-16	2.470764E-17
4.201060E+03	7.909515E-16	2.459954E-17
4.202340E+03	7.873481E-16	2.448052E-17
4.203610E+03	7.834523E-16	2.435254E-17
4.204880E+03	7.799281E-16	2.423616E-17
4.206150E+03	7.772827E-16	2.414715E-17
4.207420E+03	7.755355E-16	2.408608E-17
4.208690E+03	7.746280E-16	2.405110E-17
4.209960E+03	7.739546E-16	2.402342E-17
4.211230E+03	7.731447E-16	2.399150E-17
4.212500E+03	7.722567E-16	2.395717E-17
4.213770E+03	7.713883E-16	2.392347E-17
4.215040E+03	7.703054E-16	2.388313E-17
4.216310E+03	7.690272E-16	2.383675E-17
4.217580E+03	7.675346E-16	2.378375E-17
4.218850E+03	7.657496E-16	2.372172E-17
4.220120E+03	7.637110E-16	2.365186E-17
4.221390E+03	7.616531E-16	2.358144E-17
4.222660E+03	7.602585E-16	2.353159E-17
4.223940E+03	7.596050E-16	2.350464E-17
4.225210E+03	7.586788E-16	2.346931E-17
4.226480E+03	7.571677E-16	2.341591E-17
4.227750E+03	7.557930E-16	2.336676E-17
4.229020E+03	7.545161E-16	2.332065E-17
4.230290E+03	7.535316E-16	2.328359E-17
4.231560E+03	7.538342E-16	2.328631E-17
4.232830E+03	7.553650E-16	2.332696E-17
4.234100E+03	7.571294E-16	2.337478E-17
4.235370E+03	7.588156E-16	2.342016E-17
4.236640E+03	7.597801E-16	2.344325E-17
4.237910E+03	7.591268E-16	2.341641E-17
4.239180E+03	7.572455E-16	2.335171E-17
4.240450E+03	7.554813E-16	2.329065E-17
4.241720E+03	7.543994E-16	2.325065E-17
4.242990E+03	7.536294E-16	2.322028E-17
4.244270E+03	7.531903E-16	2.320006E-17
4.245540E+03	7.532386E-16	2.319491E-17
4.246810E+03	7.533648E-16	2.319216E-17
4.248080E+03	7.531791E-16	2.317980E-17
4.249350E+03	7.528182E-16	2.316206E-17
4.250620E+03	7.527494E-16	2.315330E-17
4.251890E+03	7.530312E-16	2.315533E-17
4.253160E+03	7.529232E-16	2.314536E-17
4.254430E+03	7.525037E-16	2.312583E-17
4.255700E+03	7.532137E-16	2.314100E-17
4.256970E+03	7.553060E-16	2.319861E-17
4.258240E+03	7.579237E-16	2.327232E-17
4.259510E+03	7.610862E-16	2.336271E-17
4.260780E+03	7.649491E-16	2.347453E-17
4.262050E+03	7.695706E-16	2.360955E-17
4.263320E+03	7.751453E-16	2.377373E-17
4.264590E+03	7.808748E-16	2.394255E-17
4.265870E+03	7.861360E-16	2.409686E-17
4.267140E+03	7.906379E-16	2.422787E-17
4.268410E+03	7.939130E-16	2.432121E-17
4.269680E+03	7.959811E-16	2.437752E-17
4.270950E+03	7.976597E-16	2.442188E-17
4.272220E+03	7.988515E-16	2.445130E-17
4.273490E+03	7.989342E-16	2.444676E-17
4.274760E+03	7.978495E-16	2.440651E-17
4.276030E+03	7.955976E-16	2.433058E-17
4.277300E+03	7.931709E-16	2.424935E-17
4.278570E+03	7.919893E-16	2.420621E-17
4.279840E+03	7.921693E-16	2.420470E-17
4.281110E+03	7.921935E-16	2.419842E-17
4.282380E+03	7.911288E-16	2.415889E-17
4.283650E+03	7.891890E-16	2.409266E-17
4.284920E+03	7.869966E-16	2.401875E-17
4.286200E+03	7.856984E-16	2.397211E-17
4.287470E+03	7.861700E-16	2.397953E-17
4.288740E+03	7.877299E-16	2.402013E-17
4.290010E+03	7.886482E-16	2.404114E-17
4.291280E+03	7.875642E-16	2.400111E-17
4.292550E+03	7.839535E-16	2.388412E-17
4.293820E+03	7.785942E-16	2.371393E-17
4.295090E+03	7.723805E-16	2.351782E-17
4.296360E+03	7.665174E-16	2.333250E-17
4.297630E+03	7.621511E-16	2.319282E-17
4.298900E+03	7.589899E-16	2.308989E-17
4.300170E+03	7.554794E-16	2.297639E-17
4.301440E+03	7.516974E-16	2.285469E-17
4.302710E+03	7.478187E-16	2.273012E-17
4.303980E+03	7.429498E-16	2.257553E-17
4.305250E+03	7.377514E-16	2.241101E-17
4.306520E+03	7.340296E-16	2.229143E-17
4.307800E+03	7.319780E-16	2.222257E-17
4.309070E+03	7.303737E-16	2.216737E-17
4.310340E+03	7.282840E-16	2.209747E-17
4.311610E+03	7.253597E-16	2.200229E-17
4.312880E+03	7.208437E-16	2.185890E-17
4.314150E+03	7.149501E-16	2.167382E-17
4.315420E+03	7.093094E-16	2.149651E-17
4.316690E+03	7.051253E-16	2.136344E-17
4.317960E+03	7.021645E-16	2.126748E-17
4.319230E+03	6.997086E-16	2.118687E-17
4.320500E+03	6.968066E-16	2.109280E-17
4.321770E+03	6.927796E-16	2.096473E-17
4.323040E+03	6.882291E-16	2.082090E-17
4.324310E+03	6.844359E-16	2.070005E-17
4.325580E+03	6.816132E-16	2.060861E-17
4.326850E+03	6.791982E-16	2.052954E-17
4.328120E+03	6.770163E-16	2.045756E-17
4.329400E+03	6.751058E-16	2.039376E-17
4.330670E+03	6.734286E-16	2.033710E-17
4.331940E+03	6.715771E-16	2.027520E-17
4.333210E+03	6.693573E-16	2.020222E-17
4.334480E+03	6.673898E-16	2.013688E-17
4.335750E+03	6.657134E-16	2.008037E-17
4.337020E+03	6.631065E-16	1.999582E-17
4.338290E+03	6.607520E-16	1.991893E-17
4.339560E+03	6.592894E-16	1.986896E-17
4.340830E+03	6.575169E-16	1.980967E-17
4.342100E+03	6.545041E-16	1.971306E-17
4.343370E+03	6.508133E-16	1.959609E-17
4.344640E+03	6.469485E-16	1.947395E-17
4.345910E+03	6.432973E-16	1.935830E-17
4.347180E+03	6.404412E-16	1.926664E-17
4.348450E+03	6.386510E-16	1.920708E-17
4.349730E+03	6.371900E-16	1.915741E-17
4.351000E+03	6.357489E-16	1.910841E-17
4.352270E+03	6.345599E-16	1.906700E-17
4.353540E+03	6.334291E-16	1.902736E-17
4.354810E+03	6.319109E-16	1.897611E-17
4.356080E+03	6.299281E-16	1.891094E-17
4.357350E+03	6.273064E-16	1.882663E-17
4.358620E+03	6.241622E-16	1.872669E-17
4.359890E+03	6.213283E-16	1.863611E-17
4.361160E+03	6.199661E-16	1.858971E-17
4.362430E+03	6.202304E-16	1.859209E-17
4.363700E+03	6.216174E-16	1.862811E-17
4.364970E+03	6.240688E-16	1.869599E-17
4.366240E+03	6.272166E-16	1.878468E-17
4.367510E+03	6.300156E-16	1.886288E-17
4.368780E+03	6.323881E-16	1.892825E-17
4.370050E+03	6.340444E-16	1.897216E-17
4.371330E+03	6.342873E-16	1.897370E-17
4.372600E+03	6.335437E-16	1.894579E-17
4.373870E+03	6.327035E-16	1.891500E-17
4.375140E+03	6.317859E-16	1.888192E-17
4.376410E+03	6.317002E-16	1.887370E-17
4.377680E+03	6.331425E-16	1.891113E-17
4.378950E+03	6.352422E-16	1.896815E-17
4.380220E+03	6.376317E-16	1.903379E-17
4.381490E+03	6.407749E-16	1.912188E-17
4.382760E+03	6.438790E-16	1.920875E-17
4.384030E+03	6.459383E-16	1.926440E-17
4.385300E+03	6.470305E-16	1.929117E-17
4.386570E+03	6.472138E-16	1.929084E-17
4.387840E+03	6.474938E-16	1.929338E-17
4.389110E+03	6.493006E-16	1.934140E-17
4.390380E+03	6.527115E-16	1.943716E-17
