#wls	flux	fluxerr
1.600000E+03	1.999827E-17	1.088417E-17
1.640000E+03	2.061088E-17	1.113511E-17
1.680000E+03	2.124258E-17	1.139001E-17
1.720000E+03	2.189358E-17	1.164861E-17
1.760000E+03	2.256405E-17	1.191061E-17
1.800000E+03	2.325411E-17	1.217568E-17
1.840000E+03	2.396790E-17	1.244557E-17
1.880000E+03	2.470161E-17	1.271783E-17
1.920000E+03	2.545951E-17	1.299424E-17
1.960000E+03	2.623747E-17	1.327219E-17
2.000000E+03	2.703988E-17	1.355344E-17
2.040000E+03	2.786691E-17	1.383754E-17
2.080000E+03	2.871394E-17	1.412168E-17
2.120000E+03	2.958553E-17	1.440761E-17
2.160000E+03	3.048661E-17	1.469715E-17
2.200000E+03	3.140735E-17	1.498494E-17
2.240000E+03	3.235244E-17	1.527270E-17
2.280000E+03	3.332702E-17	1.556223E-17
2.320000E+03	3.432576E-17	1.585040E-17
2.360000E+03	3.534839E-17	1.613645E-17
2.400000E+03	3.640021E-17	1.642215E-17
2.440000E+03	3.747540E-17	1.670420E-17
2.480000E+03	3.857942E-17	1.698436E-17
2.520000E+03	3.971219E-17	1.726185E-17
2.560000E+03	4.087357E-17	1.753586E-17
2.600000E+03	4.206343E-17	1.780557E-17
2.640000E+03	4.328166E-17	1.807016E-17
2.680000E+03	4.453466E-17	1.833148E-17
2.720000E+03	4.581615E-17	1.858607E-17
2.760000E+03	4.712618E-17	1.883314E-17
2.800000E+03	4.847174E-17	1.907462E-17
2.840000E+03	4.985346E-17	1.930977E-17
2.880000E+03	5.126515E-17	1.953525E-17
2.920000E+03	5.272177E-17	1.975578E-17
2.960000E+03	5.421047E-17	1.996544E-17
3.000000E+03	5.574722E-17	2.016904E-17
3.010000E+03	5.614263E-17	2.022019E-17
3.020000E+03	5.653153E-17	2.026743E-17
3.030000E+03	5.692871E-17	2.031608E-17
3.040000E+03	5.733428E-17	2.036613E-17
3.050000E+03	5.773337E-17	2.041226E-17
3.060000E+03	5.814093E-17	2.045978E-17
3.070000E+03	5.854953E-17	2.050603E-17
3.080000E+03	5.895921E-17	2.055101E-17
3.090000E+03	5.937756E-17	2.059734E-17
3.100000E+03	5.979709E-17	2.064240E-17
3.110000E+03	6.021783E-17	2.068617E-17
3.120000E+03	6.063981E-17	2.072866E-17
3.130000E+03	6.107074E-17	2.077248E-17
3.140000E+03	6.150304E-17	2.081502E-17
3.150000E+03	6.194448E-17	2.085886E-17
3.160000E+03	6.237966E-17	2.089882E-17
3.170000E+03	6.282411E-17	2.094008E-17
3.180000E+03	6.327015E-17	2.098005E-17
3.190000E+03	6.372566E-17	2.102130E-17
3.200000E+03	6.418291E-17	2.106127E-17
3.210000E+03	6.464195E-17	2.109993E-17
3.220000E+03	6.510284E-17	2.113730E-17
3.230000E+03	6.557357E-17	2.117594E-17
3.240000E+03	6.604631E-17	2.121329E-17
3.250000E+03	6.652114E-17	2.124934E-17
3.260000E+03	6.700613E-17	2.128665E-17
3.270000E+03	6.749338E-17	2.132265E-17
3.280000E+03	6.798296E-17	2.135737E-17
3.290000E+03	6.848304E-17	2.139333E-17
3.300000E+03	6.898566E-17	2.142799E-17
3.310000E+03	6.949090E-17	2.146136E-17
3.320000E+03	6.999884E-17	2.149345E-17
3.330000E+03	7.051774E-17	2.152675E-17
3.340000E+03	7.103957E-17	2.155877E-17
3.350000E+03	7.157264E-17	2.159200E-17
3.360000E+03	7.210060E-17	2.162145E-17
3.370000E+03	7.264005E-17	2.165210E-17
3.380000E+03	7.319116E-17	2.168394E-17
3.390000E+03	7.373742E-17	2.171203E-17
3.400000E+03	7.429560E-17	2.174131E-17
3.410000E+03	7.486589E-17	2.177174E-17
3.420000E+03	7.543161E-17	2.179846E-17
3.430000E+03	7.600972E-17	2.182633E-17
3.440000E+03	7.659191E-17	2.185292E-17
3.450000E+03	7.718681E-17	2.188064E-17
3.460000E+03	7.778610E-17	2.190708E-17
3.470000E+03	7.838988E-17	2.193224E-17
3.480000E+03	7.899828E-17	2.195612E-17
3.490000E+03	7.962006E-17	2.198110E-17
3.500000E+03	8.024677E-17	2.200479E-17
3.510000E+03	8.087855E-17	2.202719E-17
3.520000E+03	8.152422E-17	2.205066E-17
3.530000E+03	8.217530E-17	2.207284E-17
3.540000E+03	8.283189E-17	2.209370E-17
3.550000E+03	8.350296E-17	2.211561E-17
3.560000E+03	8.417990E-17	2.213619E-17
3.570000E+03	8.486286E-17	2.215546E-17
3.580000E+03	8.556088E-17	2.217571E-17
3.590000E+03	8.625634E-17	2.219233E-17
3.600000E+03	8.696723E-17	2.220990E-17
3.610000E+03	8.769381E-17	2.222842E-17
3.620000E+03	8.841829E-17	2.224330E-17
3.630000E+03	8.915876E-17	2.225907E-17
3.640000E+03	8.991559E-17	2.227573E-17
3.650000E+03	9.067078E-17	2.228875E-17
3.660000E+03	9.144260E-17	2.230259E-17
3.670000E+03	9.222228E-17	2.231502E-17
3.680000E+03	9.300991E-17	2.232602E-17
3.690000E+03	9.381493E-17	2.233779E-17
3.700000E+03	9.462836E-17	2.234810E-17
3.710000E+03	9.545033E-17	2.235693E-17
3.720000E+03	9.628103E-17	2.236426E-17
3.730000E+03	9.713001E-17	2.237224E-17
3.740000E+03	9.798827E-17	2.237870E-17
3.750000E+03	9.885577E-17	2.238358E-17
3.760000E+03	9.974248E-17	2.238906E-17
3.770000E+03	1.006294E-16	2.239078E-17
3.780000E+03	1.015358E-16	2.239302E-17
3.790000E+03	1.024524E-16	2.239359E-17
3.800000E+03	1.033891E-16	2.239461E-17
3.810000E+03	1.043268E-16	2.239182E-17
3.820000E+03	1.052851E-16	2.238940E-17
3.830000E+03	1.062544E-16	2.238520E-17
3.840000E+03	1.072449E-16	2.238129E-17
3.850000E+03	1.082371E-16	2.237349E-17
3.860000E+03	1.092508E-16	2.236588E-17
3.870000E+03	1.102766E-16	2.235638E-17
3.880000E+03	1.113146E-16	2.234496E-17
3.890000E+03	1.123649E-16	2.233158E-17
3.900000E+03	1.134382E-16	2.231822E-17
3.910000E+03	1.145140E-16	2.230080E-17
3.920000E+03	1.156132E-16	2.228331E-17
3.930000E+03	1.167258E-16	2.226371E-17
3.940000E+03	1.178623E-16	2.224390E-17
3.950000E+03	1.190022E-16	2.221991E-17
3.960000E+03	1.201562E-16	2.219369E-17
3.970000E+03	1.213348E-16	2.216710E-17
3.980000E+03	1.225280E-16	2.213815E-17
3.990000E+03	1.237360E-16	2.210682E-17
4.000000E+03	1.249589E-16	2.207303E-17
4.010000E+03	1.261970E-16	2.203674E-17
4.020000E+03	1.274504E-16	2.199790E-17
4.030000E+03	1.287302E-16	2.195831E-17
4.040000E+03	1.300150E-16	2.191420E-17
4.050000E+03	1.313268E-16	2.186920E-17
4.060000E+03	1.326438E-16	2.181960E-17
4.070000E+03	1.339881E-16	2.176895E-17
4.080000E+03	1.353492E-16	2.171540E-17
4.090000E+03	1.367269E-16	2.165885E-17
4.100000E+03	1.381217E-16	2.159926E-17
4.110000E+03	1.395336E-16	2.153656E-17
4.120000E+03	1.409627E-16	2.147066E-17
4.130000E+03	1.424091E-16	2.140151E-17
4.140000E+03	1.438731E-16	2.132903E-17
4.150000E+03	1.453547E-16	2.125315E-17
4.160000E+03	1.468540E-16	2.117380E-17
4.170000E+03	1.483828E-16	2.109256E-17
4.180000E+03	1.499178E-16	2.100600E-17
4.190000E+03	1.514706E-16	2.091573E-17
4.200000E+03	1.530414E-16	2.082167E-17
4.210000E+03	1.546300E-16	2.072373E-17
4.220000E+03	1.562365E-16	2.062182E-17
4.230000E+03	1.578609E-16	2.051587E-17
4.240000E+03	1.595030E-16	2.040580E-17
4.250000E+03	1.611629E-16	2.029152E-17
4.260000E+03	1.628403E-16	2.017293E-17
4.270000E+03	1.645226E-16	2.004842E-17
4.280000E+03	1.662346E-16	1.992100E-17
4.290000E+03	1.679637E-16	1.978902E-17
4.300000E+03	1.696967E-16	1.965092E-17
4.310000E+03	1.714461E-16	1.950813E-17
4.320000E+03	1.732245E-16	1.936203E-17
4.330000E+03	1.750057E-16	1.920962E-17
4.340000E+03	1.768022E-16	1.905228E-17
4.350000E+03	1.786002E-16	1.888853E-17
4.360000E+03	1.804259E-16	1.872116E-17
4.370000E+03	1.822654E-16	1.854865E-17
4.380000E+03	1.841047E-16	1.836960E-17
4.390000E+03	1.859566E-16	1.818536E-17
4.400000E+03	1.878202E-16	1.799585E-17
4.410000E+03	1.896950E-16	1.780105E-17
4.420000E+03	1.915802E-16	1.760092E-17
4.430000E+03	1.934612E-16	1.739420E-17
4.440000E+03	1.953507E-16	1.718214E-17
4.450000E+03	1.972478E-16	1.696474E-17
4.460000E+03	1.991516E-16	1.674203E-17
4.470000E+03	2.010469E-16	1.651285E-17
4.480000E+03	2.029609E-16	1.627958E-17
4.490000E+03	2.048641E-16	1.603998E-17
4.500000E+03	2.067550E-16	1.579415E-17
4.510000E+03	2.086611E-16	1.554444E-17
4.520000E+03	2.105523E-16	1.528875E-17
4.530000E+03	2.124417E-16	1.502832E-17
4.540000E+03	2.143132E-16	1.476228E-17
4.550000E+03	2.161947E-16	1.449288E-17
4.560000E+03	2.180552E-16	1.421830E-17
4.570000E+03	2.199080E-16	1.393981E-17
4.580000E+03	2.217365E-16	1.365675E-17
4.590000E+03	2.235542E-16	1.337042E-17
4.600000E+03	2.253591E-16	1.308113E-17
4.610000E+03	2.271345E-16	1.278845E-17
4.620000E+03	2.289093E-16	1.249456E-17
4.630000E+03	2.306355E-16	1.219743E-17
4.640000E+03	2.323577E-16	1.190013E-17
4.650000E+03	2.340432E-16	1.160166E-17
4.660000E+03	2.357057E-16	1.130352E-17
4.670000E+03	2.373275E-16	1.100571E-17
4.680000E+03	2.389229E-16	1.070987E-17
4.690000E+03	2.404741E-16	1.041619E-17
4.700000E+03	2.420108E-16	1.012708E-17
4.710000E+03	2.435000E-16	9.842292E-18
4.720000E+03	2.449396E-16	9.563075E-18
4.730000E+03	2.463441E-16	9.291396E-18
4.740000E+03	2.477116E-16	9.028653E-18
4.750000E+03	2.490247E-16	8.775788E-18
4.760000E+03	2.502980E-16	8.535002E-18
4.770000E+03	2.515140E-16	8.307442E-18
4.780000E+03	2.526874E-16	8.095412E-18
4.790000E+03	2.538172E-16	7.900693E-18
4.800000E+03	2.548862E-16	7.724561E-18
4.810000E+03	2.559097E-16	7.569255E-18
4.820000E+03	2.568708E-16	7.435915E-18
4.830000E+03	2.577852E-16	7.326468E-18
4.840000E+03	2.586521E-16	7.242107E-18
4.850000E+03	2.594551E-16	7.182876E-18
4.860000E+03	2.602099E-16	7.148434E-18
4.870000E+03	2.609000E-16	7.137068E-18
4.880000E+03	2.615416E-16	7.147686E-18
4.890000E+03	2.621182E-16	7.178058E-18
4.900000E+03	2.626463E-16	7.226694E-18
4.910000E+03	2.631096E-16	7.291094E-18
4.920000E+03	2.635245E-16	7.369619E-18
4.930000E+03	2.638912E-16	7.460196E-18
4.940000E+03	2.641935E-16	7.560333E-18
4.950000E+03	2.644484E-16	7.668565E-18
4.960000E+03	2.646395E-16	7.782580E-18
4.970000E+03	2.647676E-16	7.900679E-18
4.980000E+03	2.648653E-16	8.022262E-18
4.990000E+03	2.649008E-16	8.144937E-18
5.000000E+03	2.648745E-16	8.267407E-18
5.010000E+03	2.648033E-16	8.389016E-18
5.020000E+03	2.646715E-16	8.508230E-18
5.030000E+03	2.644960E-16	8.624657E-18
5.040000E+03	2.642771E-16	8.737510E-18
5.050000E+03	2.639996E-16	8.845572E-18
5.060000E+03	2.636802E-16	8.948785E-18
5.070000E+03	2.633036E-16	9.046106E-18
5.080000E+03	2.628863E-16	9.137655E-18
5.090000E+03	2.624133E-16	9.222539E-18
5.100000E+03	2.619011E-16	9.301034E-18
5.110000E+03	2.613348E-16	9.372377E-18
5.120000E+03	2.607307E-16	9.436972E-18
5.130000E+03	2.600741E-16	9.494161E-18
5.140000E+03	2.593814E-16	9.544470E-18
5.150000E+03	2.586532E-16	9.587895E-18
5.160000E+03	2.578747E-16	9.623913E-18
5.170000E+03	2.570624E-16	9.653187E-18
5.180000E+03	2.562015E-16	9.675261E-18
5.190000E+03	2.553084E-16	9.690879E-18
5.200000E+03	2.543685E-16	9.699656E-18
5.210000E+03	2.533977E-16	9.702390E-18
5.220000E+03	2.523819E-16	9.698767E-18
5.230000E+03	2.513369E-16	9.689638E-18
5.240000E+03	2.502634E-16	9.675315E-18
5.250000E+03	2.491475E-16	9.655557E-18
5.260000E+03	2.479900E-16	9.630718E-18
5.270000E+03	2.468211E-16	9.602310E-18
5.280000E+03	2.456122E-16	9.569588E-18
5.290000E+03	2.443645E-16	9.532974E-18
5.300000E+03	2.430930E-16	9.493443E-18
5.310000E+03	2.417844E-16	9.450885E-18
5.320000E+03	2.404678E-16	9.406854E-18
5.330000E+03	2.391018E-16	9.360153E-18
5.340000E+03	2.377154E-16	9.312348E-18
5.350000E+03	2.363092E-16	9.263902E-18
5.360000E+03	2.348841E-16	9.215285E-18
5.370000E+03	2.334272E-16	9.166421E-18
5.380000E+03	2.319394E-16	9.117780E-18
5.390000E+03	2.304486E-16	9.070876E-18
5.400000E+03	2.289155E-16	9.024571E-18
5.410000E+03	2.273808E-16	8.980863E-18
5.420000E+03	2.258190E-16	8.939119E-18
5.430000E+03	2.242439E-16	8.900240E-18
5.440000E+03	2.226434E-16	8.864069E-18
5.450000E+03	2.210316E-16	8.831381E-18
5.460000E+03	2.193968E-16	8.801464E-18
5.470000E+03	2.177536E-16	8.774464E-18
5.480000E+03	2.161041E-16	8.750037E-18
5.490000E+03	2.144380E-16	8.727331E-18
5.500000E+03	2.127698E-16	8.706503E-18
5.510000E+03	2.111018E-16	8.687220E-18
5.520000E+03	2.094236E-16	8.668647E-18
5.530000E+03	2.077497E-16	8.650971E-18
5.540000E+03	2.060702E-16	8.633393E-18
5.550000E+03	2.044109E-16	8.616621E-18
5.560000E+03	2.027382E-16	8.598888E-18
5.570000E+03	2.010893E-16	8.581433E-18
5.580000E+03	1.994427E-16	8.563026E-18
5.590000E+03	1.978118E-16	8.543948E-18
5.600000E+03	1.961871E-16	8.523507E-18
5.610000E+03	1.945814E-16	8.502008E-18
5.620000E+03	1.929965E-16	8.479293E-18
5.630000E+03	1.914228E-16	8.454724E-18
5.640000E+03	1.898729E-16	8.428659E-18
5.650000E+03	1.883481E-16	8.400982E-18
5.660000E+03	1.868499E-16	8.371595E-18
5.670000E+03	1.853689E-16	8.339932E-18
5.680000E+03	1.839170E-16	8.306400E-18
5.690000E+03	1.824850E-16	8.270461E-18
5.700000E+03	1.810845E-16	8.232547E-18
5.710000E+03	1.797168E-16	8.192621E-18
5.720000E+03	1.783827E-16	8.150649E-18
5.730000E+03	1.770733E-16	8.106150E-18
5.740000E+03	1.757996E-16	8.059576E-18
5.750000E+03	1.745625E-16	8.010921E-18
5.760000E+03	1.733530E-16	7.959726E-18
5.770000E+03	1.721919E-16	7.906919E-18
5.780000E+03	1.710503E-16	7.851144E-18
5.790000E+03	1.699586E-16	7.793775E-18
5.800000E+03	1.688981E-16	7.733937E-18
5.810000E+03	1.678888E-16	7.672534E-18
5.820000E+03	1.669025E-16	7.608268E-18
5.830000E+03	1.659688E-16	7.542492E-18
5.840000E+03	1.650693E-16	7.474354E-18
5.850000E+03	1.642141E-16	7.404320E-18
5.860000E+03	1.634040E-16	7.332419E-18
5.870000E+03	1.626394E-16	7.258676E-18
5.880000E+03	1.619118E-16	7.182705E-18
5.890000E+03	1.612309E-16	7.104952E-18
5.900000E+03	1.605977E-16	7.025452E-18
5.910000E+03	1.600126E-16	6.944229E-18
5.920000E+03	1.594669E-16	6.860908E-18
5.930000E+03	1.589799E-16	6.776319E-18
5.940000E+03	1.585336E-16	6.689693E-18
5.950000E+03	1.581289E-16	6.601076E-18
5.960000E+03	1.577847E-16	6.511257E-18
5.970000E+03	1.574832E-16	6.419502E-18
5.980000E+03	1.572344E-16	6.326219E-18
5.990000E+03	1.570390E-16	6.231435E-18
6.000000E+03	1.568976E-16	6.135178E-18
6.010000E+03	1.568110E-16	6.037473E-18
6.020000E+03	1.567710E-16	5.938014E-18
6.030000E+03	1.567872E-16	5.837186E-18
6.040000E+03	1.568607E-16	5.735031E-18
6.050000E+03	1.569923E-16	5.631597E-18
6.060000E+03	1.571827E-16	5.526935E-18
6.070000E+03	1.574239E-16	5.420790E-18
6.080000E+03	1.577259E-16	5.313566E-18
6.090000E+03	1.580988E-16	5.205644E-18
6.100000E+03	1.585163E-16	5.096228E-18
6.110000E+03	1.590069E-16	4.986337E-18
6.120000E+03	1.595625E-16	4.875816E-18
6.130000E+03	1.601752E-16	4.764558E-18
6.140000E+03	1.608646E-16	4.653320E-18
6.150000E+03	1.616134E-16	4.541794E-18
6.160000E+03	1.624324E-16	4.430540E-18
6.170000E+03	1.633227E-16	4.319888E-18
6.180000E+03	1.642859E-16	4.210229E-18
6.190000E+03	1.653140E-16	4.101782E-18
6.200000E+03	1.664277E-16	3.995567E-18
6.210000E+03	1.676091E-16	3.891733E-18
6.220000E+03	1.688698E-16	3.791243E-18
6.230000E+03	1.702212E-16	3.695134E-18
6.240000E+03	1.716453E-16	3.603918E-18
6.250000E+03	1.731439E-16	3.518672E-18
6.260000E+03	1.747384E-16	3.440988E-18
6.270000E+03	1.764199E-16	3.371933E-18
6.280000E+03	1.781785E-16	3.312676E-18
6.290000E+03	1.800346E-16	3.265024E-18
6.300000E+03	1.819666E-16	3.230017E-18
6.310000E+03	1.839829E-16	3.209193E-18
6.320000E+03	1.860918E-16	3.203254E-18
6.330000E+03	1.882680E-16	3.211294E-18
6.340000E+03	1.905190E-16	3.232740E-18
6.350000E+03	1.928297E-16	3.266490E-18
6.360000E+03	1.952186E-16	3.311907E-18
6.370000E+03	1.976707E-16	3.367729E-18
6.380000E+03	2.001699E-16	3.432662E-18
6.390000E+03	2.027351E-16	3.506039E-18
6.400000E+03	2.053378E-16	3.586435E-18
6.410000E+03	2.079973E-16	3.673339E-18
6.420000E+03	2.106842E-16	3.765491E-18
6.430000E+03	2.134050E-16	3.862381E-18
6.440000E+03	2.161543E-16	3.963414E-18
6.450000E+03	2.189393E-16	4.068364E-18
6.460000E+03	2.217282E-16	4.176416E-18
6.470000E+03	2.245275E-16	4.287598E-18
6.480000E+03	2.273175E-16	4.401576E-18
6.490000E+03	2.301182E-16	4.518916E-18
6.500000E+03	2.329094E-16	4.639538E-18
6.510000E+03	2.356845E-16	4.763747E-18
6.520000E+03	2.384362E-16	4.891950E-18
6.530000E+03	2.411432E-16	5.024370E-18
6.540000E+03	2.438276E-16	5.162225E-18
6.550000E+03	2.464546E-16	5.305632E-18
6.560000E+03	2.490477E-16	5.456007E-18
6.570000E+03	2.515725E-16	5.613574E-18
6.580000E+03	2.540544E-16	5.779900E-18
6.590000E+03	2.564592E-16	5.955232E-18
6.600000E+03	2.587991E-16	6.140852E-18
6.610000E+03	2.610874E-16	6.338056E-18
6.620000E+03	2.632916E-16	6.546495E-18
6.630000E+03	2.654262E-16	6.766022E-18
6.640000E+03	2.675065E-16	6.996392E-18
6.650000E+03	2.695002E-16	7.236067E-18
6.660000E+03	2.714226E-16	7.484687E-18
6.670000E+03	2.732737E-16	7.741470E-18
6.680000E+03	2.750530E-16	8.005614E-18
6.690000E+03	2.767605E-16	8.276316E-18
6.700000E+03	2.783966E-16	8.552784E-18
6.710000E+03	2.799612E-16	8.834227E-18
6.720000E+03	2.814546E-16	9.119877E-18
6.730000E+03	2.828772E-16	9.408974E-18
6.740000E+03	2.842294E-16	9.700793E-18
6.750000E+03	2.855119E-16	9.994630E-18
6.760000E+03	2.867252E-16	1.028980E-17
6.770000E+03	2.878700E-16	1.058565E-17
6.780000E+03	2.889469E-16	1.088154E-17
6.790000E+03	2.899569E-16	1.117687E-17
6.800000E+03	2.908833E-16	1.147038E-17
6.810000E+03	2.917619E-16	1.176286E-17
6.820000E+03	2.925762E-16	1.205312E-17
6.830000E+03	2.933272E-16	1.234066E-17
6.840000E+03	2.939980E-16	1.262423E-17
6.850000E+03	2.946253E-16	1.290487E-17
6.860000E+03	2.951923E-16	1.318142E-17
6.870000E+03	2.956999E-16	1.345344E-17
6.880000E+03	2.961314E-16	1.371971E-17
6.890000E+03	2.965237E-16	1.398152E-17
6.900000E+03	2.968599E-16	1.423768E-17
6.910000E+03	2.971229E-16	1.448698E-17
6.920000E+03	2.973498E-16	1.473084E-17
6.930000E+03	2.975058E-16	1.496720E-17
6.940000E+03	2.976278E-16	1.519757E-17
6.950000E+03	2.976807E-16	1.541984E-17
6.960000E+03	2.977019E-16	1.563564E-17
6.970000E+03	2.976559E-16	1.584283E-17
6.980000E+03	2.975802E-16	1.604311E-17
6.990000E+03	2.974392E-16	1.623432E-17
7.000000E+03	2.972704E-16	1.641825E-17
7.010000E+03	2.970382E-16	1.659271E-17
7.020000E+03	2.967619E-16	1.675854E-17
7.030000E+03	2.964604E-16	1.691661E-17
7.040000E+03	2.960983E-16	1.706472E-17
7.050000E+03	2.956947E-16	1.720377E-17
7.060000E+03	2.952686E-16	1.733470E-17
7.070000E+03	2.947843E-16	1.745528E-17
7.080000E+03	2.942613E-16	1.756648E-17
7.090000E+03	2.937001E-16	1.766822E-17
7.100000E+03	2.931016E-16	1.776042E-17
7.110000E+03	2.924665E-16	1.784301E-17
7.120000E+03	2.917959E-16	1.791596E-17
7.130000E+03	2.910902E-16	1.797920E-17
7.140000E+03	2.903508E-16	1.803273E-17
7.150000E+03	2.895780E-16	1.807651E-17
7.160000E+03	2.887549E-16	1.810940E-17
7.170000E+03	2.879182E-16	1.813367E-17
7.180000E+03	2.870508E-16	1.814819E-17
7.190000E+03	2.861535E-16	1.815299E-17
7.200000E+03	2.852093E-16	1.814695E-17
7.210000E+03	2.842546E-16	1.813237E-17
7.220000E+03	2.832550E-16	1.810705E-17
7.230000E+03	2.822288E-16	1.807217E-17
7.240000E+03	2.811948E-16	1.802892E-17
7.250000E+03	2.801183E-16	1.797511E-17
7.260000E+03	2.790181E-16	1.791196E-17
7.270000E+03	2.778949E-16	1.783955E-17
7.280000E+03	2.767497E-16	1.775798E-17
7.290000E+03	2.755835E-16	1.766736E-17
7.300000E+03	2.743970E-16	1.756779E-17
7.310000E+03	2.731912E-16	1.745938E-17
7.320000E+03	2.719671E-16	1.734228E-17
7.330000E+03	2.707086E-16	1.721551E-17
7.340000E+03	2.694506E-16	1.708138E-17
7.350000E+03	2.681601E-16	1.693789E-17
7.360000E+03	2.668719E-16	1.678730E-17
7.370000E+03	2.655533E-16	1.662766E-17
7.380000E+03	2.642219E-16	1.646018E-17
7.390000E+03	2.628788E-16	1.628502E-17
7.400000E+03	2.615248E-16	1.610235E-17
7.410000E+03	2.601608E-16	1.591233E-17
7.420000E+03	2.587714E-16	1.571413E-17
7.430000E+03	2.573901E-16	1.550992E-17
7.440000E+03	2.560016E-16	1.529889E-17
7.450000E+03	2.545902E-16	1.508023E-17
7.460000E+03	2.531734E-16	1.485513E-17
7.470000E+03	2.517517E-16	1.462376E-17
7.480000E+03	2.503259E-16	1.438631E-17
7.490000E+03	2.488969E-16	1.414296E-17
7.500000E+03	2.474654E-16	1.389391E-17
7.510000E+03	2.460320E-16	1.363934E-17
7.520000E+03	2.445815E-16	1.337859E-17
7.530000E+03	2.431463E-16	1.311360E-17
7.540000E+03	2.416955E-16	1.284285E-17
7.550000E+03	2.402454E-16	1.256743E-17
7.560000E+03	2.387965E-16	1.228752E-17
7.570000E+03	2.373494E-16	1.200337E-17
7.580000E+03	2.359043E-16	1.171517E-17
7.590000E+03	2.344468E-16	1.142244E-17
7.600000E+03	2.330073E-16	1.112689E-17
7.610000E+03	2.315562E-16	1.082733E-17
7.620000E+03	2.301089E-16	1.052475E-17
7.630000E+03	2.286657E-16	1.021945E-17
7.640000E+03	2.272267E-16	9.911710E-18
7.650000E+03	2.257776E-16	9.601237E-18
7.660000E+03	2.243479E-16	9.289647E-18
7.670000E+03	2.229086E-16	8.976097E-18
7.680000E+03	2.214744E-16	8.661629E-18
7.690000E+03	2.200455E-16	8.346716E-18
7.700000E+03	2.186218E-16	8.031874E-18
7.710000E+03	2.172036E-16	7.717706E-18
7.720000E+03	2.157766E-16	7.404396E-18
7.730000E+03	2.143692E-16	7.093704E-18
7.740000E+03	2.129532E-16	6.785573E-18
7.750000E+03	2.115427E-16	6.481519E-18
7.760000E+03	2.101377E-16	6.182750E-18
