#wls	flux	fluxerr
1.600000E+03	8.702025E-18	3.195093E-18
1.640000E+03	8.955212E-18	3.266523E-18
1.680000E+03	9.219192E-18	3.340272E-18
1.720000E+03	9.492776E-18	3.415794E-18
1.760000E+03	9.776360E-18	3.493123E-18
1.800000E+03	1.007035E-17	3.572283E-18
1.840000E+03	1.037516E-17	3.653304E-18
1.880000E+03	1.069315E-17	3.736872E-18
1.920000E+03	1.102103E-17	3.821705E-18
1.960000E+03	1.136317E-17	3.909170E-18
2.000000E+03	1.171817E-17	3.998628E-18
2.040000E+03	1.208659E-17	4.090101E-18
2.080000E+03	1.246898E-17	4.183612E-18
2.120000E+03	1.286598E-17	4.279187E-18
2.160000E+03	1.328054E-17	4.377616E-18
2.200000E+03	1.370870E-17	4.477386E-18
2.240000E+03	1.415595E-17	4.580081E-18
2.280000E+03	1.462068E-17	4.684940E-18
2.320000E+03	1.510366E-17	4.791974E-18
2.360000E+03	1.560571E-17	4.901194E-18
2.400000E+03	1.613052E-17	5.013481E-18
2.440000E+03	1.667344E-17	5.127101E-18
2.480000E+03	1.724116E-17	5.243824E-18
2.520000E+03	1.783185E-17	5.362762E-18
2.560000E+03	1.844659E-17	5.483902E-18
2.600000E+03	1.908646E-17	5.607223E-18
2.640000E+03	1.975607E-17	5.733690E-18
2.680000E+03	2.044985E-17	5.861286E-18
2.720000E+03	2.117609E-17	5.991983E-18
2.760000E+03	2.193266E-17	6.124718E-18
2.800000E+03	2.272096E-17	6.259415E-18
2.840000E+03	2.354241E-17	6.395981E-18
2.880000E+03	2.439851E-17	6.534309E-18
2.920000E+03	2.529516E-17	6.675420E-18
2.960000E+03	2.622537E-17	6.816883E-18
3.000000E+03	2.719966E-17	6.960844E-18
3.010000E+03	2.744845E-17	6.996721E-18
3.020000E+03	2.769985E-17	7.032664E-18
3.030000E+03	2.795866E-17	7.069883E-18
3.040000E+03	2.821535E-17	7.105950E-18
3.050000E+03	2.847472E-17	7.142073E-18
3.060000E+03	2.873679E-17	7.178244E-18
3.070000E+03	2.900656E-17	7.215700E-18
3.080000E+03	2.927415E-17	7.251966E-18
3.090000E+03	2.954453E-17	7.288270E-18
3.100000E+03	2.981771E-17	7.324605E-18
3.110000E+03	3.009887E-17	7.362228E-18
3.120000E+03	3.037779E-17	7.398621E-18
3.130000E+03	3.065960E-17	7.435031E-18
3.140000E+03	3.094962E-17	7.472734E-18
3.150000E+03	3.123733E-17	7.509169E-18
3.160000E+03	3.152802E-17	7.545608E-18
3.170000E+03	3.182169E-17	7.582042E-18
3.180000E+03	3.212388E-17	7.619769E-18
3.190000E+03	3.242368E-17	7.656185E-18
3.200000E+03	3.272655E-17	7.692577E-18
3.210000E+03	3.303816E-17	7.730260E-18
3.220000E+03	3.334731E-17	7.766596E-18
3.230000E+03	3.366536E-17	7.804219E-18
3.240000E+03	3.398090E-17	7.840469E-18
3.250000E+03	3.429965E-17	7.876665E-18
3.260000E+03	3.462752E-17	7.914143E-18
3.270000E+03	3.495280E-17	7.950208E-18
3.280000E+03	3.528137E-17	7.986195E-18
3.290000E+03	3.561930E-17	8.023459E-18
3.300000E+03	3.595456E-17	8.059267E-18
3.310000E+03	3.629934E-17	8.096349E-18
3.320000E+03	3.664138E-17	8.131946E-18
3.330000E+03	3.698683E-17	8.167423E-18
3.340000E+03	3.734203E-17	8.204160E-18
3.350000E+03	3.769440E-17	8.239371E-18
3.360000E+03	3.805669E-17	8.275834E-18
3.370000E+03	3.841607E-17	8.310740E-18
3.380000E+03	3.878553E-17	8.346889E-18
3.390000E+03	3.915202E-17	8.381449E-18
3.400000E+03	3.952873E-17	8.417242E-18
3.410000E+03	3.990238E-17	8.451413E-18
3.420000E+03	4.028643E-17	8.486805E-18
3.430000E+03	4.066732E-17	8.520541E-18
3.440000E+03	4.105184E-17	8.554041E-18
3.450000E+03	4.144698E-17	8.588741E-18
3.460000E+03	4.183884E-17	8.621735E-18
3.470000E+03	4.224148E-17	8.655916E-18
3.480000E+03	4.264073E-17	8.688353E-18
3.490000E+03	4.305092E-17	8.721959E-18
3.500000E+03	4.345762E-17	8.753788E-18
3.510000E+03	4.387540E-17	8.786768E-18
3.520000E+03	4.428958E-17	8.817930E-18
3.530000E+03	4.471500E-17	8.850228E-18
3.540000E+03	4.513668E-17	8.880669E-18
3.550000E+03	4.556975E-17	8.912222E-18
3.560000E+03	4.599896E-17	8.941881E-18
3.570000E+03	4.643971E-17	8.972633E-18
3.580000E+03	4.687645E-17	9.001449E-18
3.590000E+03	4.732486E-17	9.031331E-18
3.600000E+03	4.776914E-17	9.059239E-18
3.610000E+03	4.822522E-17	9.088190E-18
3.620000E+03	4.868517E-17	9.116651E-18
3.630000E+03	4.914072E-17	9.143072E-18
3.640000E+03	4.960828E-17	9.170497E-18
3.650000E+03	5.007129E-17	9.195838E-18
3.660000E+03	5.054643E-17	9.222156E-18
3.670000E+03	5.101685E-17	9.246347E-18
3.680000E+03	5.149950E-17	9.271484E-18
3.690000E+03	5.197724E-17	9.294449E-18
3.700000E+03	5.246732E-17	9.318329E-18
3.710000E+03	5.295229E-17	9.339993E-18
3.720000E+03	5.344972E-17	9.362540E-18
3.730000E+03	5.394181E-17	9.382824E-18
3.740000E+03	5.444645E-17	9.403957E-18
3.750000E+03	5.495470E-17	9.424354E-18
3.760000E+03	5.545725E-17	9.442419E-18
3.770000E+03	5.597250E-17	9.461281E-18
3.780000E+03	5.648182E-17	9.477766E-18
3.790000E+03	5.700390E-17	9.495009E-18
3.800000E+03	5.751978E-17	9.509827E-18
3.810000E+03	5.804850E-17	9.525367E-18
3.820000E+03	5.857074E-17	9.538437E-18
3.830000E+03	5.910586E-17	9.552186E-18
3.840000E+03	5.963425E-17	9.563422E-18
3.850000E+03	6.017553E-17	9.575297E-18
3.860000E+03	6.070977E-17	9.584611E-18
3.870000E+03	6.125696E-17	9.594525E-18
3.880000E+03	6.179677E-17	9.601834E-18
3.890000E+03	6.234955E-17	9.609701E-18
3.900000E+03	6.290504E-17	9.616510E-18
3.910000E+03	6.345266E-17	9.620649E-18
3.920000E+03	6.401323E-17	9.625281E-18
3.930000E+03	6.456556E-17	9.627199E-18
3.940000E+03	6.513085E-17	9.629570E-18
3.950000E+03	6.568751E-17	9.629184E-18
3.960000E+03	6.625709E-17	9.629208E-18
3.970000E+03	6.681766E-17	9.626438E-18
3.980000E+03	6.739108E-17	9.624034E-18
3.990000E+03	6.795509E-17	9.618798E-18
4.000000E+03	6.853190E-17	9.613887E-18
4.010000E+03	6.909885E-17	9.606107E-18
4.020000E+03	6.967852E-17	9.598612E-18
4.030000E+03	7.024789E-17	9.588215E-18
4.040000E+03	7.082988E-17	9.578063E-18
4.050000E+03	7.140110E-17	9.564980E-18
4.060000E+03	7.198483E-17	9.552103E-18
4.070000E+03	7.255731E-17	9.536269E-18
4.080000E+03	7.313013E-17	9.519037E-18
4.090000E+03	7.371525E-17	9.501956E-18
4.100000E+03	7.428836E-17	9.481885E-18
4.110000E+03	7.487361E-17	9.461930E-18
4.120000E+03	7.544631E-17	9.438969E-18
4.130000E+03	7.603098E-17	9.416095E-18
4.140000E+03	7.660256E-17	9.390201E-18
4.150000E+03	7.718589E-17	9.364365E-18
4.160000E+03	7.775558E-17	9.335505E-18
4.170000E+03	7.832398E-17	9.305152E-18
4.180000E+03	7.890381E-17	9.274823E-18
4.190000E+03	7.946912E-17	9.241470E-18
4.200000E+03	8.004562E-17	9.208122E-18
4.210000E+03	8.060697E-17	9.171757E-18
4.220000E+03	8.116599E-17	9.133890E-18
4.230000E+03	8.173580E-17	9.096011E-18
4.240000E+03	8.228954E-17	9.055141E-18
4.250000E+03	8.284026E-17	9.012781E-18
4.260000E+03	8.340134E-17	8.970403E-18
4.270000E+03	8.394539E-17	8.925078E-18
4.280000E+03	8.448570E-17	8.878291E-18
4.290000E+03	8.503591E-17	8.831494E-18
4.300000E+03	8.556810E-17	8.781816E-18
4.310000E+03	8.609581E-17	8.730719E-18
4.320000E+03	8.663292E-17	8.679640E-18
4.330000E+03	8.715098E-17	8.625761E-18
4.340000E+03	8.766382E-17	8.570532E-18
4.350000E+03	8.818553E-17	8.515365E-18
4.360000E+03	8.868719E-17	8.457505E-18
4.370000E+03	8.918284E-17	8.398384E-18
4.380000E+03	8.967219E-17	8.338032E-18
4.390000E+03	9.016967E-17	8.277836E-18
4.400000E+03	9.064576E-17	8.215131E-18
4.410000E+03	9.111477E-17	8.151318E-18
4.420000E+03	9.157645E-17	8.086442E-18
4.430000E+03	9.204547E-17	8.021855E-18
4.440000E+03	9.249177E-17	7.954993E-18
4.450000E+03	9.292995E-17	7.887225E-18
4.460000E+03	9.335974E-17	7.818608E-18
4.470000E+03	9.378090E-17	7.749206E-18
4.480000E+03	9.419317E-17	7.679081E-18
4.490000E+03	9.461162E-17	7.609537E-18
4.500000E+03	9.500542E-17	7.538167E-18
4.510000E+03	9.538958E-17	7.466289E-18
4.520000E+03	9.576387E-17	7.393985E-18
4.530000E+03	9.612804E-17	7.321333E-18
4.540000E+03	9.648189E-17	7.248422E-18
4.550000E+03	9.682515E-17	7.175338E-18
4.560000E+03	9.715765E-17	7.102174E-18
4.570000E+03	9.747913E-17	7.029025E-18
4.580000E+03	9.778943E-17	6.955990E-18
4.590000E+03	9.808832E-17	6.883169E-18
4.600000E+03	9.839151E-17	6.811767E-18
4.610000E+03	9.866708E-17	6.739681E-18
4.620000E+03	9.893072E-17	6.668131E-18
4.630000E+03	9.918226E-17	6.597231E-18
4.640000E+03	9.942154E-17	6.527095E-18
4.650000E+03	9.964842E-17	6.457839E-18
4.660000E+03	9.984668E-17	6.388551E-18
4.670000E+03	1.000483E-16	6.321422E-18
4.680000E+03	1.002373E-16	6.255530E-18
4.690000E+03	1.004133E-16	6.190995E-18
4.700000E+03	1.005764E-16	6.127938E-18
4.710000E+03	1.007264E-16	6.066480E-18
4.720000E+03	1.008634E-16	6.006736E-18
4.730000E+03	1.009872E-16	5.948824E-18
4.740000E+03	1.010977E-16	5.892858E-18
4.750000E+03	1.011950E-16	5.838947E-18
4.760000E+03	1.012628E-16	5.786270E-18
4.770000E+03	1.013335E-16	5.736794E-18
4.780000E+03	1.013908E-16	5.689678E-18
4.790000E+03	1.014348E-16	5.645010E-18
4.800000E+03	1.014654E-16	5.602863E-18
4.810000E+03	1.014661E-16	5.562341E-18
4.820000E+03	1.014697E-16	5.525173E-18
4.830000E+03	1.014599E-16	5.490391E-18
4.840000E+03	1.014367E-16	5.457919E-18
4.850000E+03	1.013840E-16	5.426804E-18
4.860000E+03	1.013345E-16	5.398702E-18
4.870000E+03	1.012718E-16	5.372645E-18
4.880000E+03	1.011963E-16	5.348536E-18
4.890000E+03	1.010917E-16	5.325421E-18
4.900000E+03	1.009906E-16	5.304901E-18
4.910000E+03	1.008770E-16	5.286015E-18
4.920000E+03	1.007349E-16	5.267812E-18
4.930000E+03	1.005968E-16	5.251869E-18
4.940000E+03	1.004305E-16	5.236393E-18
4.950000E+03	1.002684E-16	5.222953E-18
4.960000E+03	1.000947E-16	5.210598E-18
4.970000E+03	9.989365E-17	5.198392E-18
4.980000E+03	9.969731E-17	5.187890E-18
4.990000E+03	9.947411E-17	5.177332E-18
5.000000E+03	9.925604E-17	5.168269E-18
5.010000E+03	9.901167E-17	5.158954E-18
5.020000E+03	9.877286E-17	5.150941E-18
5.030000E+03	9.850832E-17	5.142493E-18
5.040000E+03	9.824979E-17	5.135166E-18
5.050000E+03	9.796616E-17	5.127239E-18
5.060000E+03	9.768899E-17	5.120269E-18
5.070000E+03	9.738739E-17	5.112550E-18
5.080000E+03	9.707725E-17	5.104830E-18
5.090000E+03	9.677428E-17	5.097855E-18
5.100000E+03	9.644790E-17	5.089940E-18
5.110000E+03	9.612917E-17	5.082652E-18
5.120000E+03	9.578774E-17	5.074322E-18
5.130000E+03	9.543927E-17	5.065711E-18
5.140000E+03	9.509919E-17	5.057584E-18
5.150000E+03	9.473750E-17	5.048291E-18
5.160000E+03	9.436970E-17	5.038606E-18
5.170000E+03	9.399609E-17	5.028500E-18
5.180000E+03	9.363185E-17	5.018743E-18
5.190000E+03	9.324749E-17	5.007719E-18
5.200000E+03	9.285826E-17	4.996210E-18
5.210000E+03	9.246446E-17	4.984202E-18
5.220000E+03	9.208102E-17	4.972472E-18
5.230000E+03	9.167895E-17	4.959434E-18
5.240000E+03	9.127324E-17	4.945876E-18
5.250000E+03	9.086419E-17	4.931796E-18
5.260000E+03	9.045211E-17	4.917197E-18
5.270000E+03	9.003730E-17	4.902083E-18
5.280000E+03	8.963429E-17	4.887238E-18
5.290000E+03	8.921485E-17	4.871117E-18
5.300000E+03	8.879356E-17	4.854511E-18
5.310000E+03	8.837074E-17	4.837434E-18
5.320000E+03	8.794665E-17	4.819902E-18
5.330000E+03	8.752160E-17	4.801933E-18
5.340000E+03	8.709586E-17	4.783547E-18
5.350000E+03	8.666970E-17	4.764764E-18
5.360000E+03	8.624341E-17	4.745608E-18
5.370000E+03	8.581727E-17	4.726102E-18
5.380000E+03	8.539153E-17	4.706270E-18
5.390000E+03	8.496648E-17	4.686139E-18
5.400000E+03	8.454235E-17	4.665734E-18
5.410000E+03	8.411942E-17	4.645083E-18
5.420000E+03	8.369793E-17	4.624214E-18
5.430000E+03	8.327814E-17	4.603155E-18
5.440000E+03	8.286029E-17	4.581933E-18
5.450000E+03	8.244462E-17	4.560579E-18
5.460000E+03	8.201839E-17	4.538400E-18
5.470000E+03	8.160786E-17	4.516844E-18
5.480000E+03	8.120027E-17	4.495176E-18
5.490000E+03	8.079588E-17	4.473380E-18
5.500000E+03	8.039496E-17	4.451443E-18
5.510000E+03	7.999776E-17	4.429352E-18
5.520000E+03	7.959192E-17	4.406397E-18
5.530000E+03	7.920292E-17	4.383963E-18
5.540000E+03	7.881835E-17	4.361339E-18
5.550000E+03	7.843842E-17	4.338514E-18
5.560000E+03	7.805103E-17	4.314798E-18
5.570000E+03	7.768112E-17	4.291549E-18
5.580000E+03	7.731650E-17	4.268074E-18
5.590000E+03	7.695738E-17	4.244366E-18
5.600000E+03	7.659188E-17	4.219753E-18
5.610000E+03	7.624444E-17	4.195567E-18
5.620000E+03	7.590311E-17	4.171132E-18
5.630000E+03	7.555616E-17	4.145792E-18
5.640000E+03	7.522769E-17	4.120856E-18
5.650000E+03	7.489408E-17	4.095018E-18
5.660000E+03	7.457922E-17	4.069573E-18
5.670000E+03	7.427142E-17	4.043871E-18
5.680000E+03	7.395918E-17	4.017277E-18
5.690000E+03	7.366608E-17	3.991066E-18
5.700000E+03	7.336900E-17	3.963974E-18
5.710000E+03	7.309133E-17	3.937260E-18
5.720000E+03	7.281011E-17	3.909679E-18
5.730000E+03	7.254853E-17	3.882473E-18
5.740000E+03	7.228386E-17	3.854417E-18
5.750000E+03	7.203909E-17	3.826737E-18
5.760000E+03	7.179163E-17	3.798224E-18
5.770000E+03	7.156433E-17	3.770088E-18
5.780000E+03	7.133476E-17	3.741142E-18
5.790000E+03	7.112561E-17	3.712576E-18
5.800000E+03	7.091459E-17	3.683223E-18
5.810000E+03	7.071312E-17	3.653681E-18
5.820000E+03	7.053246E-17	3.624529E-18
5.830000E+03	7.035053E-17	3.594628E-18
5.840000E+03	7.018971E-17	3.565127E-18
5.850000E+03	7.002800E-17	3.534906E-18
5.860000E+03	6.987667E-17	3.504543E-18
5.870000E+03	6.974687E-17	3.474597E-18
5.880000E+03	6.961678E-17	3.443980E-18
5.890000E+03	6.949756E-17	3.413256E-18
5.900000E+03	6.940035E-17	3.382973E-18
5.910000E+03	6.930342E-17	3.352075E-18
5.920000E+03	6.921790E-17	3.321113E-18
5.930000E+03	6.914399E-17	3.290105E-18
5.940000E+03	6.909272E-17	3.259581E-18
5.950000E+03	6.904253E-17	3.228527E-18
5.960000E+03	6.900449E-17	3.197483E-18
5.970000E+03	6.897878E-17	3.166468E-18
5.980000E+03	6.897647E-17	3.136000E-18
5.990000E+03	6.897603E-17	3.105110E-18
6.000000E+03	6.898852E-17	3.074323E-18
6.010000E+03	6.901415E-17	3.043667E-18
6.020000E+03	6.905311E-17	3.013172E-18
6.030000E+03	6.910563E-17	2.982872E-18
6.040000E+03	6.918280E-17	2.953265E-18
6.050000E+03	6.926308E-17	2.923456E-18
6.060000E+03	6.935757E-17	2.893956E-18
6.070000E+03	6.946648E-17	2.864807E-18
6.080000E+03	6.959006E-17	2.836058E-18
6.090000E+03	6.972852E-17	2.807762E-18
6.100000E+03	6.988210E-17	2.779972E-18
6.110000E+03	7.005104E-17	2.752750E-18
6.120000E+03	7.023558E-17	2.726160E-18
6.130000E+03	7.043597E-17	2.700273E-18
6.140000E+03	7.065243E-17	2.675162E-18
6.150000E+03	7.088522E-17	2.650909E-18
6.160000E+03	7.113459E-17	2.627601E-18
6.170000E+03	7.140077E-17	2.605329E-18
6.180000E+03	7.168400E-17	2.584192E-18
6.190000E+03	7.198452E-17	2.564294E-18
6.200000E+03	7.230259E-17	2.545749E-18
6.210000E+03	7.263841E-17	2.528671E-18
6.220000E+03	7.299224E-17	2.513186E-18
6.230000E+03	7.336425E-17	2.499423E-18
6.240000E+03	7.375470E-17	2.487518E-18
6.250000E+03	7.416375E-17	2.477610E-18
6.260000E+03	7.459150E-17	2.469840E-18
6.270000E+03	7.503808E-17	2.464357E-18
6.280000E+03	7.550347E-17	2.461304E-18
6.290000E+03	7.597551E-17	2.460436E-18
6.300000E+03	7.647759E-17	2.462627E-18
6.310000E+03	7.699722E-17	2.467493E-18
6.320000E+03	7.753378E-17	2.475018E-18
6.330000E+03	7.808662E-17	2.485182E-18
6.340000E+03	7.865504E-17	2.497960E-18
6.350000E+03	7.922586E-17	2.512927E-18
6.360000E+03	7.982321E-17	2.530842E-18
6.370000E+03	8.043394E-17	2.551276E-18
6.380000E+03	8.105727E-17	2.574190E-18
6.390000E+03	8.169238E-17	2.599545E-18
6.400000E+03	8.232546E-17	2.626884E-18
6.410000E+03	8.298147E-17	2.656986E-18
6.420000E+03	8.364667E-17	2.689396E-18
6.430000E+03	8.432014E-17	2.724068E-18
6.440000E+03	8.498755E-17	2.760520E-18
6.450000E+03	8.567459E-17	2.799567E-18
6.460000E+03	8.636701E-17	2.840734E-18
6.470000E+03	8.705005E-17	2.883519E-18
6.480000E+03	8.775004E-17	2.928775E-18
6.490000E+03	8.845229E-17	2.976009E-18
6.500000E+03	8.914169E-17	3.024696E-18
6.510000E+03	8.984514E-17	3.075737E-18
6.520000E+03	9.054760E-17	3.128617E-18
6.530000E+03	9.123356E-17	3.182788E-18
6.540000E+03	9.193054E-17	3.239200E-18
6.550000E+03	9.262319E-17	3.297316E-18
6.560000E+03	9.329566E-17	3.356564E-18
6.570000E+03	9.397623E-17	3.417951E-18
6.580000E+03	9.464935E-17	3.480919E-18
6.590000E+03	9.529923E-17	3.544878E-18
6.600000E+03	9.595519E-17	3.610905E-18
6.610000E+03	9.658663E-17	3.677789E-18
6.620000E+03	9.722353E-17	3.746558E-18
6.630000E+03	9.783494E-17	3.815916E-18
6.640000E+03	9.845126E-17	3.886932E-18
6.650000E+03	9.904120E-17	3.958265E-18
6.660000E+03	9.963556E-17	4.031029E-18
6.670000E+03	1.002185E-16	4.104485E-18
6.680000E+03	1.007738E-16	4.177851E-18
6.690000E+03	1.013329E-16	4.252311E-18
6.700000E+03	1.018636E-16	4.326413E-18
6.710000E+03	1.023978E-16	4.401391E-18
6.720000E+03	1.029029E-16	4.475749E-18
6.730000E+03	1.033947E-16	4.550056E-18
6.740000E+03	1.038895E-16	4.624925E-18
6.750000E+03	1.043544E-16	4.698799E-18
6.760000E+03	1.048220E-16	4.773038E-18
6.770000E+03	1.052590E-16	4.846040E-18
6.780000E+03	1.056986E-16	4.919220E-18
6.790000E+03	1.061072E-16	4.990934E-18
6.800000E+03	1.065181E-16	5.062647E-18
6.810000E+03	1.068976E-16	5.132675E-18
6.820000E+03	1.072624E-16	5.201711E-18
6.830000E+03	1.076294E-16	5.270499E-18
6.840000E+03	1.079644E-16	5.337295E-18
6.850000E+03	1.082845E-16	5.402834E-18
6.860000E+03	1.086066E-16	5.467900E-18
6.870000E+03	1.088965E-16	5.530694E-18
6.880000E+03	1.091884E-16	5.592877E-18
6.890000E+03	1.094479E-16	5.652616E-18
6.900000E+03	1.096921E-16	5.710716E-18
6.910000E+03	1.099384E-16	5.768019E-18
6.920000E+03	1.101521E-16	5.822647E-18
6.930000E+03	1.103505E-16	5.875438E-18
6.940000E+03	1.105511E-16	5.927271E-18
6.950000E+03	1.107190E-16	5.976224E-18
6.960000E+03	1.108717E-16	6.023171E-18
6.970000E+03	1.110092E-16	6.068062E-18
6.980000E+03	1.111491E-16	6.111816E-18
6.990000E+03	1.112564E-16	6.152462E-18
7.000000E+03	1.113487E-16	6.190916E-18
7.010000E+03	1.114261E-16	6.227141E-18
7.020000E+03	1.115062E-16	6.262090E-18
7.030000E+03	1.115540E-16	6.293754E-18
7.040000E+03	1.115870E-16	6.323087E-18
7.050000E+03	1.116055E-16	6.350062E-18
7.060000E+03	1.116272E-16	6.375663E-18
7.070000E+03	1.116169E-16	6.397852E-18
7.080000E+03	1.115923E-16	6.417615E-18
7.090000E+03	1.115536E-16	6.434936E-18
7.100000E+03	1.115009E-16	6.449800E-18
7.110000E+03	1.114344E-16	6.462195E-18
7.120000E+03	1.113718E-16	6.473139E-18
7.130000E+03	1.112780E-16	6.480575E-18
7.140000E+03	1.111709E-16	6.485524E-18
7.150000E+03	1.110504E-16	6.487983E-18
7.160000E+03	1.109169E-16	6.487956E-18
7.170000E+03	1.107705E-16	6.485444E-18
7.180000E+03	1.106113E-16	6.480455E-18
7.190000E+03	1.104570E-16	6.474025E-18
7.200000E+03	1.102728E-16	6.464108E-18
7.210000E+03	1.100764E-16	6.451748E-18
7.220000E+03	1.098679E-16	6.436959E-18
7.230000E+03	1.096475E-16	6.419760E-18
7.240000E+03	1.094155E-16	6.400171E-18
7.250000E+03	1.091720E-16	6.378215E-18
7.260000E+03	1.089171E-16	6.353918E-18
7.270000E+03	1.086512E-16	6.327306E-18
7.280000E+03	1.083744E-16	6.298409E-18
7.290000E+03	1.080868E-16	6.267260E-18
7.300000E+03	1.077887E-16	6.233890E-18
7.310000E+03	1.074803E-16	6.198337E-18
7.320000E+03	1.071617E-16	6.160640E-18
7.330000E+03	1.068333E-16	6.120838E-18
7.340000E+03	1.064951E-16	6.078974E-18
7.350000E+03	1.061474E-16	6.035092E-18
7.360000E+03	1.057903E-16	5.989239E-18
7.370000E+03	1.054242E-16	5.941465E-18
7.380000E+03	1.050492E-16	5.891821E-18
7.390000E+03	1.046654E-16	5.840360E-18
7.400000E+03	1.042732E-16	5.787137E-18
7.410000E+03	1.038726E-16	5.732210E-18
7.420000E+03	1.034640E-16	5.675640E-18
7.430000E+03	1.030475E-16	5.617489E-18
7.440000E+03	1.026233E-16	5.557821E-18
7.450000E+03	1.021915E-16	5.496703E-18
7.460000E+03	1.017526E-16	5.434207E-18
7.470000E+03	1.012904E-16	5.369546E-18
7.480000E+03	1.008375E-16	5.304520E-18
7.490000E+03	1.003779E-16	5.238338E-18
7.500000E+03	9.991190E-17	5.171082E-18
7.510000E+03	9.943959E-17	5.102836E-18
7.520000E+03	9.896120E-17	5.033684E-18
7.530000E+03	9.847691E-17	4.963718E-18
7.540000E+03	9.798693E-17	4.893030E-18
7.550000E+03	9.747589E-17	4.820947E-18
7.560000E+03	9.697519E-17	4.749120E-18
7.570000E+03	9.646938E-17	4.676872E-18
7.580000E+03	9.595864E-17	4.604310E-18
7.590000E+03	9.544318E-17	4.531549E-18
7.600000E+03	9.490800E-17	4.457992E-18
7.610000E+03	9.438371E-17	4.385196E-18
7.620000E+03	9.385525E-17	4.312565E-18
7.630000E+03	9.332280E-17	4.240229E-18
7.640000E+03	9.277172E-17	4.167659E-18
7.650000E+03	9.223193E-17	4.096342E-18
7.660000E+03	9.168871E-17	4.025747E-18
7.670000E+03	9.114222E-17	3.956028E-18
7.680000E+03	9.057816E-17	3.886722E-18
7.690000E+03	9.002577E-17	3.819249E-18
7.700000E+03	8.947065E-17	3.753146E-18
7.710000E+03	8.891296E-17	3.688591E-18
7.720000E+03	8.833876E-17	3.625183E-18
7.730000E+03	8.777657E-17	3.564281E-18
7.740000E+03	8.721234E-17	3.505483E-18
7.750000E+03	8.663236E-17	3.448432E-18
7.760000E+03	8.606466E-17	3.394437E-18
