#wls	flux	fluxerr
1.600000E+03	7.802473E-18	2.319775E-18
1.640000E+03	8.011972E-18	2.368167E-18
1.680000E+03	8.229009E-18	2.417787E-18
1.720000E+03	8.455409E-18	2.469103E-18
1.760000E+03	8.688516E-18	2.521269E-18
1.800000E+03	8.930152E-18	2.574746E-18
1.840000E+03	9.180663E-18	2.629558E-18
1.880000E+03	9.442142E-18	2.686221E-18
1.920000E+03	9.711632E-18	2.743806E-18
1.960000E+03	9.992983E-18	2.803312E-18
2.000000E+03	1.028496E-17	2.864293E-18
2.040000E+03	1.058613E-17	2.926249E-18
2.080000E+03	1.090069E-17	2.990243E-18
2.120000E+03	1.122734E-17	3.055793E-18
2.160000E+03	1.156659E-17	3.122922E-18
2.200000E+03	1.191900E-17	3.191657E-18
2.240000E+03	1.228518E-17	3.262022E-18
2.280000E+03	1.266571E-17	3.334039E-18
2.320000E+03	1.306126E-17	3.407729E-18
2.360000E+03	1.347488E-17	3.483731E-18
2.400000E+03	1.390257E-17	3.560834E-18
2.440000E+03	1.434991E-17	3.640303E-18
2.480000E+03	1.481268E-17	3.720871E-18
2.520000E+03	1.529683E-17	3.803848E-18
2.560000E+03	1.579788E-17	3.887902E-18
2.600000E+03	1.632220E-17	3.974393E-18
2.640000E+03	1.686799E-17	4.062632E-18
2.680000E+03	1.743618E-17	4.152606E-18
2.720000E+03	1.802776E-17	4.244290E-18
2.760000E+03	1.864372E-17	4.337648E-18
2.800000E+03	1.928512E-17	4.432637E-18
2.840000E+03	1.995300E-17	4.529200E-18
2.880000E+03	2.064846E-17	4.627270E-18
2.920000E+03	2.137260E-17	4.726761E-18
2.960000E+03	2.213048E-17	4.828431E-18
3.000000E+03	2.291556E-17	4.930478E-18
3.010000E+03	2.311679E-17	4.956162E-18
3.020000E+03	2.332006E-17	4.981913E-18
3.030000E+03	2.352952E-17	5.008607E-18
3.040000E+03	2.373692E-17	5.034485E-18
3.050000E+03	2.394641E-17	5.060419E-18
3.060000E+03	2.415800E-17	5.086410E-18
3.070000E+03	2.437170E-17	5.112452E-18
3.080000E+03	2.458754E-17	5.138544E-18
3.090000E+03	2.480553E-17	5.164683E-18
3.100000E+03	2.502568E-17	5.190865E-18
3.110000E+03	2.525247E-17	5.218004E-18
3.120000E+03	2.547706E-17	5.244269E-18
3.130000E+03	2.570387E-17	5.270566E-18
3.140000E+03	2.593291E-17	5.296894E-18
3.150000E+03	2.616423E-17	5.323250E-18
3.160000E+03	2.639781E-17	5.349628E-18
3.170000E+03	2.663368E-17	5.376025E-18
3.180000E+03	2.687657E-17	5.403386E-18
3.190000E+03	2.711711E-17	5.429815E-18
3.200000E+03	2.736000E-17	5.456254E-18
3.210000E+03	2.760524E-17	5.482694E-18
3.220000E+03	2.785286E-17	5.509133E-18
3.230000E+03	2.810286E-17	5.535567E-18
3.240000E+03	2.836024E-17	5.562966E-18
3.250000E+03	2.861511E-17	5.589379E-18
3.260000E+03	2.887242E-17	5.615774E-18
3.270000E+03	2.913217E-17	5.642142E-18
3.280000E+03	2.939440E-17	5.668482E-18
3.290000E+03	2.965909E-17	5.694787E-18
3.300000E+03	2.993152E-17	5.722053E-18
3.310000E+03	3.020126E-17	5.748277E-18
3.320000E+03	3.047352E-17	5.774448E-18
3.330000E+03	3.074831E-17	5.800563E-18
3.340000E+03	3.102564E-17	5.826614E-18
3.350000E+03	3.131099E-17	5.853620E-18
3.360000E+03	3.159349E-17	5.879531E-18
3.370000E+03	3.187856E-17	5.905360E-18
3.380000E+03	3.216622E-17	5.931101E-18
3.390000E+03	3.245647E-17	5.956746E-18
3.400000E+03	3.275505E-17	5.983336E-18
3.410000E+03	3.305056E-17	6.008775E-18
3.420000E+03	3.334869E-17	6.034098E-18
3.430000E+03	3.364946E-17	6.059299E-18
3.440000E+03	3.395286E-17	6.084370E-18
3.450000E+03	3.426487E-17	6.110367E-18
3.460000E+03	3.457361E-17	6.135157E-18
3.470000E+03	3.488498E-17	6.159792E-18
3.480000E+03	3.519901E-17	6.184267E-18
3.490000E+03	3.552188E-17	6.209652E-18
3.500000E+03	3.584127E-17	6.233782E-18
3.510000E+03	3.616333E-17	6.257726E-18
3.520000E+03	3.648803E-17	6.281473E-18
3.530000E+03	3.681538E-17	6.305014E-18
3.540000E+03	3.715186E-17	6.329444E-18
3.550000E+03	3.748458E-17	6.352555E-18
3.560000E+03	3.781994E-17	6.375433E-18
3.570000E+03	3.815794E-17	6.398069E-18
3.580000E+03	3.850527E-17	6.421571E-18
3.590000E+03	3.884859E-17	6.443700E-18
3.600000E+03	3.919452E-17	6.465558E-18
3.610000E+03	3.954306E-17	6.487134E-18
3.620000E+03	3.989420E-17	6.508419E-18
3.630000E+03	4.025491E-17	6.530539E-18
3.640000E+03	4.061126E-17	6.551214E-18
3.650000E+03	4.097016E-17	6.571568E-18
3.660000E+03	4.133159E-17	6.591588E-18
3.670000E+03	4.170279E-17	6.612412E-18
3.680000E+03	4.206932E-17	6.631737E-18
3.690000E+03	4.243831E-17	6.650696E-18
3.700000E+03	4.280976E-17	6.669275E-18
3.710000E+03	4.319114E-17	6.688628E-18
3.720000E+03	4.356749E-17	6.706423E-18
3.730000E+03	4.394621E-17	6.723804E-18
3.740000E+03	4.432729E-17	6.740764E-18
3.750000E+03	4.471067E-17	6.757288E-18
3.760000E+03	4.510416E-17	6.774538E-18
3.770000E+03	4.549215E-17	6.790160E-18
3.780000E+03	4.588235E-17	6.805310E-18
3.790000E+03	4.627471E-17	6.819976E-18
3.800000E+03	4.667730E-17	6.835332E-18
3.810000E+03	4.707396E-17	6.848999E-18
3.820000E+03	4.747266E-17	6.862147E-18
3.830000E+03	4.787335E-17	6.874762E-18
3.840000E+03	4.827600E-17	6.886836E-18
3.850000E+03	4.868895E-17	6.899545E-18
3.860000E+03	4.909541E-17	6.910497E-18
3.870000E+03	4.950365E-17	6.920868E-18
3.880000E+03	4.991362E-17	6.930646E-18
3.890000E+03	5.033395E-17	6.941019E-18
3.900000E+03	5.074726E-17	6.949578E-18
3.910000E+03	5.116211E-17	6.957508E-18
3.920000E+03	5.157844E-17	6.964799E-18
3.930000E+03	5.199618E-17	6.971439E-18
3.940000E+03	5.242428E-17	6.978619E-18
3.950000E+03	5.284466E-17	6.983918E-18
3.960000E+03	5.326623E-17	6.988534E-18
3.970000E+03	5.368889E-17	6.992450E-18
3.980000E+03	5.411257E-17	6.995658E-18
3.990000E+03	5.454657E-17	6.999353E-18
4.000000E+03	5.497209E-17	7.001112E-18
4.010000E+03	5.539836E-17	7.002129E-18
4.020000E+03	5.582527E-17	7.002396E-18
4.030000E+03	5.625276E-17	7.001903E-18
4.040000E+03	5.669046E-17	7.001846E-18
4.050000E+03	5.711884E-17	6.999804E-18
4.060000E+03	5.754747E-17	6.996974E-18
4.070000E+03	5.797624E-17	6.993345E-18
4.080000E+03	5.840505E-17	6.988913E-18
4.090000E+03	5.884390E-17	6.984870E-18
4.100000E+03	5.927251E-17	6.978803E-18
4.110000E+03	5.970081E-17	6.971911E-18
4.120000E+03	6.012867E-17	6.964185E-18
4.130000E+03	6.055598E-17	6.955621E-18
4.140000E+03	6.098259E-17	6.946211E-18
4.150000E+03	6.141895E-17	6.937145E-18
4.160000E+03	6.184388E-17	6.926033E-18
4.170000E+03	6.226772E-17	6.914063E-18
4.180000E+03	6.269033E-17	6.901233E-18
4.190000E+03	6.311158E-17	6.887541E-18
4.200000E+03	6.353133E-17	6.872986E-18
4.210000E+03	6.394941E-17	6.857566E-18
4.220000E+03	6.437674E-17	6.842456E-18
4.230000E+03	6.479113E-17	6.825305E-18
4.240000E+03	6.520341E-17	6.807291E-18
4.250000E+03	6.561341E-17	6.788417E-18
4.260000E+03	6.602098E-17	6.768686E-18
4.270000E+03	6.642597E-17	6.748102E-18
4.280000E+03	6.682819E-17	6.726670E-18
4.290000E+03	6.723901E-17	6.705545E-18
4.300000E+03	6.763527E-17	6.682432E-18
4.310000E+03	6.802827E-17	6.658491E-18
4.320000E+03	6.841783E-17	6.633732E-18
4.330000E+03	6.880376E-17	6.608164E-18
4.340000E+03	6.918590E-17	6.581799E-18
4.350000E+03	6.956405E-17	6.554648E-18
4.360000E+03	6.993804E-17	6.526726E-18
4.370000E+03	7.030768E-17	6.498045E-18
4.380000E+03	7.067279E-17	6.468622E-18
4.390000E+03	7.104533E-17	6.439577E-18
4.400000E+03	7.140086E-17	6.408716E-18
4.410000E+03	7.175129E-17	6.377167E-18
4.420000E+03	7.209641E-17	6.344950E-18
4.430000E+03	7.243605E-17	6.312088E-18
4.440000E+03	7.276999E-17	6.278602E-18
4.450000E+03	7.309805E-17	6.244517E-18
4.460000E+03	7.342001E-17	6.209858E-18
4.470000E+03	7.373569E-17	6.174652E-18
4.480000E+03	7.404488E-17	6.138928E-18
4.490000E+03	7.434739E-17	6.102714E-18
4.500000E+03	7.464301E-17	6.066042E-18
4.510000E+03	7.493154E-17	6.028942E-18
4.520000E+03	7.521276E-17	5.991447E-18
4.530000E+03	7.548649E-17	5.953593E-18
4.540000E+03	7.575251E-17	5.915414E-18
4.550000E+03	7.601063E-17	5.876948E-18
4.560000E+03	7.626062E-17	5.838230E-18
4.570000E+03	7.650229E-17	5.799301E-18
4.580000E+03	7.673545E-17	5.760200E-18
4.590000E+03	7.695987E-17	5.720967E-18
4.600000E+03	7.717537E-17	5.681644E-18
4.610000E+03	7.738172E-17	5.642272E-18
4.620000E+03	7.757873E-17	5.602896E-18
4.630000E+03	7.776621E-17	5.563559E-18
4.640000E+03	7.794392E-17	5.524304E-18
4.650000E+03	7.811170E-17	5.485177E-18
4.660000E+03	7.826933E-17	5.446221E-18
4.670000E+03	7.841661E-17	5.407483E-18
4.680000E+03	7.855336E-17	5.369008E-18
4.690000E+03	7.867938E-17	5.330841E-18
4.700000E+03	7.879447E-17	5.293025E-18
4.710000E+03	7.889846E-17	5.255608E-18
4.720000E+03	7.899116E-17	5.218632E-18
4.730000E+03	7.905899E-17	5.181262E-18
4.740000E+03	7.912865E-17	5.145309E-18
4.750000E+03	7.918656E-17	5.109930E-18
4.760000E+03	7.923263E-17	5.075167E-18
4.770000E+03	7.926677E-17	5.041065E-18
4.780000E+03	7.928887E-17	5.007664E-18
4.790000E+03	7.929894E-17	4.975008E-18
4.800000E+03	7.929697E-17	4.943132E-18
4.810000E+03	7.928302E-17	4.912034E-18
4.820000E+03	7.924381E-17	4.880876E-18
4.830000E+03	7.920643E-17	4.851304E-18
4.840000E+03	7.915763E-17	4.822472E-18
4.850000E+03	7.909762E-17	4.794362E-18
4.860000E+03	7.902664E-17	4.766955E-18
4.870000E+03	7.894493E-17	4.740233E-18
4.880000E+03	7.883936E-17	4.713376E-18
4.890000E+03	7.873695E-17	4.687962E-18
4.900000E+03	7.862456E-17	4.663165E-18
4.910000E+03	7.850246E-17	4.638958E-18
4.920000E+03	7.837091E-17	4.615317E-18
4.930000E+03	7.821689E-17	4.591434E-18
4.940000E+03	7.806722E-17	4.568843E-18
4.950000E+03	7.790890E-17	4.546733E-18
4.960000E+03	7.774216E-17	4.525075E-18
4.970000E+03	7.756729E-17	4.503841E-18
4.980000E+03	7.737142E-17	4.482239E-18
4.990000E+03	7.718108E-17	4.461766E-18
5.000000E+03	7.698339E-17	4.441629E-18
5.010000E+03	7.677861E-17	4.421799E-18
5.020000E+03	7.655402E-17	4.401501E-18
5.030000E+03	7.633588E-17	4.382205E-18
5.040000E+03	7.611142E-17	4.363133E-18
5.050000E+03	7.588090E-17	4.344260E-18
5.060000E+03	7.563180E-17	4.324828E-18
5.070000E+03	7.538999E-17	4.306281E-18
5.080000E+03	7.514289E-17	4.287860E-18
5.090000E+03	7.487810E-17	4.268821E-18
5.100000E+03	7.462124E-17	4.250590E-18
5.110000E+03	7.435985E-17	4.232423E-18
5.120000E+03	7.408163E-17	4.213587E-18
5.130000E+03	7.381195E-17	4.195493E-18
5.140000E+03	7.353848E-17	4.177412E-18
5.150000E+03	7.324906E-17	4.158622E-18
5.160000E+03	7.296876E-17	4.140521E-18
5.170000E+03	7.268537E-17	4.122389E-18
5.180000E+03	7.238691E-17	4.103523E-18
5.190000E+03	7.209812E-17	4.085302E-18
5.200000E+03	7.180693E-17	4.067020E-18
5.210000E+03	7.150151E-17	4.047987E-18
5.220000E+03	7.120628E-17	4.029566E-18
5.230000E+03	7.089736E-17	4.010388E-18
5.240000E+03	7.059898E-17	3.991808E-18
5.250000E+03	7.029930E-17	3.973141E-18
5.260000E+03	6.998675E-17	3.953718E-18
5.270000E+03	6.968520E-17	3.934875E-18
5.280000E+03	6.937129E-17	3.915283E-18
5.290000E+03	6.906870E-17	3.896266E-18
5.300000E+03	6.875425E-17	3.876508E-18
5.310000E+03	6.845141E-17	3.857325E-18
5.320000E+03	6.813722E-17	3.837413E-18
5.330000E+03	6.783491E-17	3.818076E-18
5.340000E+03	6.753313E-17	3.798669E-18
5.350000E+03	6.722071E-17	3.778559E-18
5.360000E+03	6.692058E-17	3.759031E-18
5.370000E+03	6.661028E-17	3.738820E-18
5.380000E+03	6.631251E-17	3.719199E-18
5.390000E+03	6.600503E-17	3.698918E-18
5.400000E+03	6.571033E-17	3.679237E-18
5.410000E+03	6.540634E-17	3.658919E-18
5.420000E+03	6.511537E-17	3.639214E-18
5.430000E+03	6.481552E-17	3.618897E-18
5.440000E+03	6.451802E-17	3.598597E-18
5.450000E+03	6.423385E-17	3.578928E-18
5.460000E+03	6.394142E-17	3.558690E-18
5.470000E+03	6.366253E-17	3.539091E-18
5.480000E+03	6.337579E-17	3.518929E-18
5.490000E+03	6.310278E-17	3.499387E-18
5.500000E+03	6.282229E-17	3.479272E-18
5.510000E+03	6.255570E-17	3.459756E-18
5.520000E+03	6.228199E-17	3.439661E-18
5.530000E+03	6.201189E-17	3.419568E-18
5.540000E+03	6.175593E-17	3.400044E-18
5.550000E+03	6.149337E-17	3.379936E-18
5.560000E+03	6.124512E-17	3.360381E-18
5.570000E+03	6.099060E-17	3.340239E-18
5.580000E+03	6.074029E-17	3.320075E-18
5.590000E+03	6.050451E-17	3.300444E-18
5.600000E+03	6.026294E-17	3.280226E-18
5.610000E+03	6.002593E-17	3.259980E-18
5.620000E+03	5.980365E-17	3.240247E-18
5.630000E+03	5.957605E-17	3.219934E-18
5.640000E+03	5.935334E-17	3.199587E-18
5.650000E+03	5.914557E-17	3.179742E-18
5.660000E+03	5.893290E-17	3.159324E-18
5.670000E+03	5.872543E-17	3.138872E-18
5.680000E+03	5.853312E-17	3.118913E-18
5.690000E+03	5.833633E-17	3.098393E-18
5.700000E+03	5.814504E-17	3.077842E-18
5.710000E+03	5.796911E-17	3.057778E-18
5.720000E+03	5.778911E-17	3.037170E-18
5.730000E+03	5.761491E-17	3.016539E-18
5.740000E+03	5.744661E-17	2.995886E-18
5.750000E+03	5.729396E-17	2.975719E-18
5.760000E+03	5.713774E-17	2.955034E-18
5.770000E+03	5.698772E-17	2.934340E-18
5.780000E+03	5.684400E-17	2.913642E-18
5.790000E+03	5.671621E-17	2.893432E-18
5.800000E+03	5.658536E-17	2.872739E-18
5.810000E+03	5.646110E-17	2.852059E-18
5.820000E+03	5.634355E-17	2.831398E-18
5.830000E+03	5.624224E-17	2.811236E-18
5.840000E+03	5.613836E-17	2.790631E-18
5.850000E+03	5.604147E-17	2.770067E-18
5.860000E+03	5.595170E-17	2.749554E-18
5.870000E+03	5.586913E-17	2.729099E-18
5.880000E+03	5.580326E-17	2.709168E-18
5.890000E+03	5.573543E-17	2.688857E-18
5.900000E+03	5.567511E-17	2.668634E-18
5.910000E+03	5.562244E-17	2.648513E-18
5.920000E+03	5.557752E-17	2.628505E-18
5.930000E+03	5.554047E-17	2.608622E-18
5.940000E+03	5.552075E-17	2.589316E-18
5.950000E+03	5.549978E-17	2.569724E-18
5.960000E+03	5.548703E-17	2.550303E-18
5.970000E+03	5.548264E-17	2.531069E-18
5.980000E+03	5.548670E-17	2.512038E-18
5.990000E+03	5.549936E-17	2.493231E-18
6.000000E+03	5.552075E-17	2.474666E-18
6.010000E+03	5.556036E-17	2.456779E-18
6.020000E+03	5.559960E-17	2.438761E-18
6.030000E+03	5.564799E-17	2.421054E-18
6.040000E+03	5.570565E-17	2.403682E-18
6.050000E+03	5.577273E-17	2.386672E-18
6.060000E+03	5.584938E-17	2.370053E-18
6.070000E+03	5.593574E-17	2.353855E-18
6.080000E+03	5.603198E-17	2.338110E-18
6.090000E+03	5.613823E-17	2.322851E-18
6.100000E+03	5.625467E-17	2.308115E-18
6.110000E+03	5.638147E-17	2.293940E-18
6.120000E+03	5.651877E-17	2.280365E-18
6.130000E+03	5.666675E-17	2.267433E-18
6.140000E+03	5.682557E-17	2.255188E-18
6.150000E+03	5.700499E-17	2.244053E-18
6.160000E+03	5.718604E-17	2.233321E-18
6.170000E+03	5.737845E-17	2.223423E-18
6.180000E+03	5.758238E-17	2.214411E-18
6.190000E+03	5.779800E-17	2.206342E-18
6.200000E+03	5.802547E-17	2.199271E-18
6.210000E+03	5.826494E-17	2.193259E-18
6.220000E+03	5.851653E-17	2.188367E-18
6.230000E+03	5.878035E-17	2.184655E-18
6.240000E+03	5.905648E-17	2.182186E-18
6.250000E+03	5.934497E-17	2.181023E-18
6.260000E+03	5.964580E-17	2.181230E-18
6.270000E+03	5.994886E-17	2.182500E-18
6.280000E+03	6.027411E-17	2.185630E-18
6.290000E+03	6.061123E-17	2.190298E-18
6.300000E+03	6.095979E-17	2.196508E-18
6.310000E+03	6.131930E-17	2.204244E-18
6.320000E+03	6.168927E-17	2.213490E-18
6.330000E+03	6.206920E-17	2.224228E-18
6.340000E+03	6.245854E-17	2.236438E-18
6.350000E+03	6.285676E-17	2.250100E-18
6.360000E+03	6.326328E-17	2.265191E-18
6.370000E+03	6.367749E-17	2.281687E-18
6.380000E+03	6.409881E-17	2.299562E-18
6.390000E+03	6.452659E-17	2.318788E-18
6.400000E+03	6.496020E-17	2.339338E-18
6.410000E+03	6.539899E-17	2.361182E-18
6.420000E+03	6.583116E-17	2.383888E-18
6.430000E+03	6.627811E-17	2.408221E-18
6.440000E+03	6.672812E-17	2.433751E-18
6.450000E+03	6.718046E-17	2.460444E-18
6.460000E+03	6.763437E-17	2.488263E-18
6.470000E+03	6.808911E-17	2.517173E-18
6.480000E+03	6.854390E-17	2.547136E-18
6.490000E+03	6.899797E-17	2.578113E-18
6.500000E+03	6.943888E-17	2.609629E-18
6.510000E+03	6.988914E-17	2.642517E-18
6.520000E+03	7.033641E-17	2.676304E-18
6.530000E+03	7.077997E-17	2.710952E-18
6.540000E+03	7.121914E-17	2.746424E-18
6.550000E+03	7.165327E-17	2.782685E-18
6.560000E+03	7.206962E-17	2.819223E-18
6.570000E+03	7.249182E-17	2.856948E-18
6.580000E+03	7.290739E-17	2.895361E-18
6.590000E+03	7.331603E-17	2.934437E-18
6.600000E+03	7.371753E-17	2.974125E-18
6.610000E+03	7.409926E-17	3.013858E-18
6.620000E+03	7.448596E-17	3.054579E-18
6.630000E+03	7.486510E-17	3.095727E-18
6.640000E+03	7.523653E-17	3.137238E-18
6.650000E+03	7.560017E-17	3.179051E-18
6.660000E+03	7.594310E-17	3.220560E-18
6.670000E+03	7.629075E-17	3.262783E-18
6.680000E+03	7.663028E-17	3.305123E-18
6.690000E+03	7.696162E-17	3.347519E-18
6.700000E+03	7.727166E-17	3.389343E-18
6.710000E+03	7.758629E-17	3.431668E-18
6.720000E+03	7.789248E-17	3.473873E-18
6.730000E+03	7.819017E-17	3.515903E-18
6.740000E+03	7.846606E-17	3.557102E-18
6.750000E+03	7.874650E-17	3.598608E-18
6.760000E+03	7.901826E-17	3.639774E-18
6.770000E+03	7.928127E-17	3.680549E-18
6.780000E+03	7.952211E-17	3.720254E-18
6.790000E+03	7.976747E-17	3.760088E-18
6.800000E+03	8.000398E-17	3.799382E-18
6.810000E+03	8.023158E-17	3.838088E-18
6.820000E+03	8.043672E-17	3.875510E-18
6.830000E+03	8.064642E-17	3.912900E-18
6.840000E+03	8.084715E-17	3.949572E-18
6.850000E+03	8.102524E-17	3.984811E-18
6.860000E+03	8.120796E-17	4.019915E-18
6.870000E+03	8.138168E-17	4.054181E-18
6.880000E+03	8.153264E-17	4.086880E-18
6.890000E+03	8.168831E-17	4.119352E-18
6.900000E+03	8.183497E-17	4.150877E-18
6.910000E+03	8.195882E-17	4.180719E-18
6.920000E+03	8.208748E-17	4.210251E-18
6.930000E+03	8.220716E-17	4.238743E-18
6.940000E+03	8.230402E-17	4.265447E-18
6.950000E+03	8.240580E-17	4.291772E-18
6.960000E+03	8.249868E-17	4.316975E-18
6.970000E+03	8.256876E-17	4.340303E-18
6.980000E+03	8.264391E-17	4.363191E-18
6.990000E+03	8.271024E-17	4.384891E-18
7.000000E+03	8.275386E-17	4.404640E-18
7.010000E+03	8.280269E-17	4.423902E-18
7.020000E+03	8.282888E-17	4.441173E-18
7.030000E+03	8.286039E-17	4.457930E-18
7.040000E+03	8.288331E-17	4.473415E-18
7.050000E+03	8.288374E-17	4.486858E-18
7.060000E+03	8.288966E-17	4.499759E-18
7.070000E+03	8.288717E-17	4.511353E-18
7.080000E+03	8.286234E-17	4.520869E-18
7.090000E+03	8.284323E-17	4.529824E-18
7.100000E+03	8.280190E-17	4.536685E-18
7.110000E+03	8.276640E-17	4.542978E-18
7.120000E+03	8.270887E-17	4.547169E-18
7.130000E+03	8.265730E-17	4.550788E-18
7.140000E+03	8.259780E-17	4.553070E-18
7.150000E+03	8.251650E-17	4.553245E-18
7.160000E+03	8.244138E-17	4.552854E-18
7.170000E+03	8.234466E-17	4.550363E-18
7.180000E+03	8.225424E-17	4.547314E-18
7.190000E+03	8.214243E-17	4.542177E-18
7.200000E+03	8.203705E-17	4.536493E-18
7.210000E+03	8.192433E-17	4.529505E-18
7.220000E+03	8.179054E-17	4.520458E-18
7.230000E+03	8.166340E-17	4.510891E-18
7.240000E+03	8.151541E-17	4.499292E-18
7.250000E+03	8.137422E-17	4.487196E-18
7.260000E+03	8.121241E-17	4.473100E-18
7.270000E+03	8.105756E-17	4.458534E-18
7.280000E+03	8.088233E-17	4.442006E-18
7.290000E+03	8.071418E-17	4.425040E-18
7.300000E+03	8.052592E-17	4.406156E-18
7.310000E+03	8.034488E-17	4.386867E-18
7.320000E+03	8.014399E-17	4.365710E-18
7.330000E+03	7.995046E-17	4.344188E-18
7.340000E+03	7.973734E-17	4.320853E-18
7.350000E+03	7.953172E-17	4.297196E-18
7.360000E+03	7.930679E-17	4.271787E-18
7.370000E+03	7.908949E-17	4.246103E-18
7.380000E+03	7.885315E-17	4.218733E-18
7.390000E+03	7.862457E-17	4.191140E-18
7.400000E+03	7.837725E-17	4.161934E-18
7.410000E+03	7.813781E-17	4.132560E-18
7.420000E+03	7.787990E-17	4.101651E-18
7.430000E+03	7.761689E-17	4.069947E-18
7.440000E+03	7.736195E-17	4.038168E-18
7.450000E+03	7.708898E-17	4.004982E-18
7.460000E+03	7.682422E-17	3.971789E-18
7.470000E+03	7.654170E-17	3.937280E-18
7.480000E+03	7.626752E-17	3.902839E-18
7.490000E+03	7.597588E-17	3.867180E-18
7.500000E+03	7.569268E-17	3.831666E-18
7.510000E+03	7.539232E-17	3.795041E-18
7.520000E+03	7.508779E-17	3.758007E-18
7.530000E+03	7.479185E-17	3.721246E-18
7.540000E+03	7.447921E-17	3.683543E-18
7.550000E+03	7.417525E-17	3.646205E-18
7.560000E+03	7.385490E-17	3.608046E-18
7.570000E+03	7.353087E-17	3.569746E-18
7.580000E+03	7.321566E-17	3.531962E-18
7.590000E+03	7.288452E-17	3.493552E-18
7.600000E+03	7.256226E-17	3.455766E-18
7.610000E+03	7.222438E-17	3.417491E-18
7.620000E+03	7.188330E-17	3.379384E-18
7.630000E+03	7.155124E-17	3.342077E-18
7.640000E+03	7.120399E-17	3.304500E-18
7.650000E+03	7.085382E-17	3.267295E-18
7.660000E+03	7.051278E-17	3.231081E-18
7.670000E+03	7.015698E-17	3.194829E-18
7.680000E+03	6.981038E-17	3.159702E-18
7.690000E+03	6.944933E-17	3.124698E-18
7.700000E+03	6.908580E-17	3.090435E-18
7.710000E+03	6.873154E-17	3.057509E-18
7.720000E+03	6.836326E-17	3.024954E-18
7.730000E+03	6.799276E-17	2.993372E-18
7.740000E+03	6.763161E-17	2.963345E-18
7.750000E+03	6.725686E-17	2.933939E-18
7.760000E+03	6.688014E-17	2.905739E-18
