#wls	flux	fluxerr
1.597285E+03	1.167195E-04	2.969077E-09
1.637217E+03	1.179282E-04	2.999822E-09
1.677149E+03	1.191513E-04	3.030936E-09
1.717081E+03	1.203632E-04	3.061764E-09
1.757013E+03	1.215997E-04	3.093219E-09
1.796945E+03	1.228139E-04	3.124103E-09
1.836877E+03	1.240416E-04	3.155333E-09
1.876809E+03	1.252563E-04	3.186233E-09
1.916742E+03	1.264734E-04	3.217193E-09
1.956674E+03	1.276875E-04	3.248078E-09
1.996606E+03	1.288723E-04	3.278215E-09
2.036538E+03	1.300444E-04	3.308032E-09
2.076470E+03	1.312216E-04	3.337977E-09
2.116402E+03	1.323798E-04	3.367437E-09
2.156334E+03	1.335176E-04	3.396382E-09
2.196266E+03	1.346569E-04	3.425362E-09
2.236198E+03	1.358215E-04	3.454986E-09
2.276131E+03	1.369949E-04	3.484837E-09
2.316063E+03	1.381853E-04	3.515118E-09
2.355995E+03	1.394255E-04	3.546665E-09
2.395927E+03	1.407520E-04	3.580407E-09
2.435859E+03	1.421639E-04	3.616323E-09
2.475791E+03	1.436871E-04	3.655069E-09
2.515723E+03	1.453951E-04	3.698518E-09
2.555655E+03	1.473267E-04	3.747653E-09
2.595588E+03	1.495285E-04	3.803661E-09
2.635520E+03	1.520560E-04	3.867956E-09
2.675452E+03	1.549751E-04	3.942210E-09
2.715384E+03	1.584254E-04	4.029979E-09
2.755316E+03	1.624561E-04	4.132511E-09
2.795248E+03	1.672150E-04	4.253566E-09
2.835180E+03	1.728044E-04	4.395748E-09
2.875112E+03	1.794329E-04	4.564361E-09
2.915044E+03	1.872482E-04	4.763165E-09
2.954977E+03	1.964708E-04	4.997765E-09
2.994909E+03	2.073339E-04	5.274098E-09
3.004892E+03	2.103580E-04	5.351024E-09
3.014875E+03	2.134888E-04	5.430665E-09
3.024858E+03	2.167550E-04	5.513750E-09
3.034841E+03	2.201863E-04	5.601034E-09
3.044824E+03	2.237400E-04	5.691431E-09
3.054807E+03	2.274460E-04	5.785705E-09
3.064790E+03	2.312857E-04	5.883376E-09
3.074773E+03	2.353152E-04	5.985879E-09
3.084756E+03	2.395169E-04	6.092760E-09
3.094739E+03	2.438978E-04	6.204201E-09
3.104722E+03	2.484396E-04	6.319733E-09
3.114705E+03	2.532023E-04	6.440886E-09
3.124688E+03	2.581686E-04	6.567218E-09
3.134671E+03	2.633476E-04	6.698958E-09
3.144654E+03	2.687212E-04	6.835651E-09
3.154637E+03	2.743544E-04	6.978947E-09
3.164620E+03	2.802308E-04	7.128429E-09
3.174603E+03	2.863619E-04	7.284389E-09
3.184586E+03	2.927598E-04	7.447138E-09
3.194569E+03	2.994378E-04	7.617010E-09
3.204552E+03	3.064097E-04	7.794359E-09
3.214535E+03	3.137210E-04	7.980342E-09
3.224518E+03	3.213271E-04	8.173824E-09
3.234501E+03	3.293069E-04	8.376811E-09
3.244484E+03	3.376482E-04	8.588994E-09
3.254467E+03	3.463708E-04	8.810879E-09
3.264450E+03	3.554961E-04	9.043006E-09
3.274433E+03	3.650807E-04	9.286816E-09
3.284416E+03	3.751163E-04	9.542098E-09
3.294400E+03	3.856289E-04	9.809514E-09
3.304383E+03	4.202611E-04	1.069048E-08
3.306379E+03	4.209055E-04	1.070687E-08
3.308376E+03	4.213876E-04	1.071913E-08
3.310372E+03	4.216607E-04	1.072608E-08
3.312369E+03	4.216902E-04	1.072683E-08
3.314366E+03	4.204141E-04	1.069437E-08
3.316362E+03	4.180585E-04	1.063445E-08
3.318359E+03	4.171131E-04	1.061040E-08
3.320355E+03	4.147459E-04	1.055018E-08
3.322352E+03	4.115024E-04	1.046768E-08
3.324349E+03	4.117002E-04	1.047271E-08
3.326345E+03	4.140047E-04	1.053133E-08
3.328342E+03	4.135526E-04	1.051983E-08
3.330338E+03	4.111215E-04	1.045799E-08
3.332335E+03	4.098162E-04	1.042478E-08
3.334332E+03	4.093060E-04	1.041181E-08
3.336328E+03	4.072347E-04	1.035911E-08
3.338325E+03	4.060454E-04	1.032886E-08
3.340321E+03	4.058429E-04	1.032371E-08
3.342318E+03	4.062731E-04	1.033466E-08
3.344315E+03	4.059023E-04	1.032522E-08
3.346311E+03	4.031517E-04	1.025525E-08
3.348308E+03	4.027113E-04	1.024405E-08
3.350304E+03	4.021954E-04	1.023093E-08
3.352301E+03	4.002052E-04	1.018030E-08
3.354298E+03	3.998054E-04	1.017013E-08
3.356294E+03	3.987729E-04	1.014387E-08
3.358291E+03	3.975836E-04	1.011362E-08
3.360288E+03	3.981708E-04	1.012855E-08
3.362284E+03	3.990714E-04	1.015146E-08
3.364281E+03	4.002797E-04	1.018220E-08
3.366277E+03	4.017958E-04	1.022076E-08
3.368274E+03	4.036140E-04	1.026701E-08
3.370271E+03	4.057456E-04	1.032124E-08
3.372267E+03	4.081909E-04	1.038344E-08
3.374264E+03	4.109556E-04	1.045377E-08
3.376260E+03	4.140456E-04	1.053237E-08
3.378257E+03	4.174608E-04	1.061924E-08
3.380254E+03	4.212129E-04	1.071469E-08
3.382250E+03	4.225790E-04	1.074944E-08
3.384247E+03	4.274346E-04	1.087295E-08
3.386243E+03	4.276280E-04	1.087787E-08
3.388240E+03	4.312124E-04	1.096905E-08
3.390237E+03	4.361092E-04	1.109362E-08
3.392233E+03	4.409249E-04	1.121612E-08
3.394230E+03	4.464318E-04	1.135620E-08
3.396226E+03	4.516893E-04	1.148994E-08
3.398223E+03	4.590724E-04	1.167775E-08
3.400220E+03	4.663454E-04	1.186276E-08
3.402216E+03	4.726839E-04	1.202399E-08
3.404213E+03	4.788600E-04	1.218110E-08
3.406209E+03	4.852628E-04	1.234397E-08
3.408206E+03	4.940993E-04	1.256875E-08
3.410203E+03	5.026923E-04	1.278734E-08
3.412199E+03	5.133473E-04	1.305838E-08
3.414196E+03	5.264886E-04	1.339266E-08
3.416192E+03	5.362617E-04	1.364127E-08
3.418189E+03	5.479930E-04	1.393968E-08
3.420186E+03	5.595384E-04	1.423337E-08
3.422182E+03	5.750111E-04	1.462696E-08
3.424179E+03	5.900134E-04	1.500859E-08
3.426176E+03	5.993772E-04	1.524678E-08
3.428172E+03	6.099027E-04	1.551453E-08
3.430169E+03	6.188022E-04	1.574091E-08
3.432165E+03	6.290378E-04	1.600128E-08
3.434162E+03	6.406106E-04	1.629566E-08
3.436159E+03	6.503831E-04	1.654425E-08
3.438155E+03	6.601555E-04	1.679284E-08
3.440152E+03	6.694062E-04	1.702816E-08
3.442148E+03	6.784826E-04	1.725904E-08
3.444145E+03	6.870953E-04	1.747813E-08
3.446142E+03	6.951847E-04	1.768390E-08
3.448138E+03	7.024619E-04	1.786902E-08
3.450135E+03	7.087515E-04	1.802901E-08
3.452131E+03	7.139379E-04	1.816094E-08
3.454128E+03	7.178457E-04	1.826035E-08
3.456125E+03	7.203597E-04	1.832430E-08
3.458121E+03	7.212469E-04	1.834687E-08
3.460118E+03	7.204492E-04	1.832657E-08
3.462114E+03	7.178503E-04	1.826046E-08
3.464111E+03	7.154257E-04	1.819879E-08
3.466108E+03	7.120135E-04	1.811199E-08
3.468104E+03	7.066251E-04	1.797492E-08
3.470101E+03	7.026895E-04	1.787481E-08
3.472097E+03	6.987538E-04	1.777469E-08
3.474094E+03	6.910408E-04	1.757849E-08
3.476091E+03	6.813511E-04	1.733201E-08
3.478087E+03	6.729980E-04	1.711952E-08
3.480084E+03	6.656328E-04	1.693217E-08
3.482080E+03	6.571630E-04	1.671672E-08
3.484077E+03	6.468913E-04	1.645543E-08
3.486074E+03	6.377812E-04	1.622369E-08
3.488070E+03	6.277412E-04	1.596829E-08
3.490067E+03	6.177584E-04	1.571436E-08
3.492063E+03	6.073110E-04	1.544860E-08
3.494060E+03	5.968045E-04	1.518134E-08
3.496057E+03	5.875186E-04	1.494512E-08
3.498053E+03	5.779065E-04	1.470061E-08
3.500050E+03	5.692069E-04	1.447932E-08
3.502047E+03	5.615936E-04	1.428565E-08
3.504043E+03	5.532480E-04	1.407336E-08
3.506040E+03	5.453323E-04	1.387200E-08
3.508036E+03	5.392128E-04	1.371634E-08
3.510033E+03	5.341622E-04	1.358786E-08
3.512030E+03	5.292924E-04	1.346398E-08
3.514026E+03	5.261317E-04	1.338358E-08
3.516023E+03	5.231103E-04	1.330673E-08
3.518019E+03	5.209554E-04	1.325191E-08
3.520016E+03	5.206436E-04	1.324398E-08
3.522013E+03	5.207216E-04	1.324596E-08
3.524009E+03	5.223290E-04	1.328685E-08
3.526006E+03	5.259022E-04	1.337774E-08
3.528002E+03	5.285975E-04	1.344631E-08
3.529999E+03	5.318339E-04	1.352863E-08
3.531996E+03	5.340415E-04	1.358479E-08
3.533992E+03	5.348530E-04	1.360543E-08
3.535989E+03	5.369737E-04	1.365938E-08
3.537985E+03	5.390418E-04	1.371199E-08
3.539982E+03	5.411454E-04	1.376550E-08
3.541979E+03	5.452208E-04	1.386917E-08
3.543975E+03	5.488432E-04	1.396131E-08
3.545972E+03	5.518838E-04	1.403866E-08
3.547968E+03	5.539768E-04	1.409190E-08
3.549965E+03	5.573617E-04	1.417800E-08
3.551962E+03	5.577970E-04	1.418907E-08
3.553958E+03	5.552249E-04	1.412365E-08
3.555955E+03	5.558061E-04	1.413843E-08
3.557951E+03	5.546187E-04	1.410823E-08
3.559948E+03	5.536641E-04	1.408394E-08
3.561945E+03	5.506321E-04	1.400682E-08
3.563941E+03	5.456108E-04	1.387909E-08
3.565938E+03	5.437367E-04	1.383141E-08
3.567935E+03	5.435037E-04	1.382549E-08
3.569931E+03	5.443648E-04	1.384739E-08
3.571928E+03	5.406289E-04	1.375236E-08
3.573924E+03	5.363512E-04	1.364354E-08
3.575921E+03	5.354844E-04	1.362149E-08
3.577918E+03	5.340353E-04	1.358463E-08
3.579914E+03	5.361711E-04	1.363896E-08
3.581911E+03	5.394777E-04	1.372307E-08
3.583907E+03	5.416259E-04	1.377772E-08
3.585904E+03	5.445894E-04	1.385310E-08
3.587901E+03	5.471925E-04	1.391932E-08
3.589897E+03	5.516814E-04	1.403351E-08
3.591894E+03	5.564624E-04	1.415512E-08
3.593890E+03	5.622096E-04	1.430132E-08
3.595887E+03	5.679927E-04	1.444843E-08
3.597884E+03	5.734095E-04	1.458622E-08
3.599880E+03	5.794324E-04	1.473943E-08
3.601877E+03	5.860614E-04	1.490806E-08
3.603873E+03	5.914971E-04	1.504633E-08
3.605870E+03	5.966429E-04	1.517722E-08
3.607867E+03	6.021961E-04	1.531849E-08
3.609863E+03	6.064694E-04	1.542719E-08
3.611860E+03	6.105098E-04	1.552997E-08
3.613856E+03	6.128036E-04	1.558832E-08
3.615853E+03	6.150979E-04	1.564668E-08
3.617850E+03	6.172761E-04	1.570208E-08
3.619846E+03	6.174163E-04	1.570565E-08
3.621843E+03	6.180225E-04	1.572107E-08
3.623839E+03	6.187455E-04	1.573946E-08
3.625836E+03	6.184783E-04	1.573267E-08
3.627833E+03	6.173378E-04	1.570366E-08
3.629829E+03	6.157316E-04	1.566280E-08
3.631826E+03	6.133678E-04	1.560267E-08
3.633823E+03	6.109458E-04	1.554106E-08
3.635819E+03	6.068919E-04	1.543794E-08
3.637816E+03	6.024891E-04	1.532594E-08
3.639812E+03	5.969205E-04	1.518429E-08
3.641809E+03	5.904198E-04	1.501892E-08
3.643806E+03	5.836269E-04	1.484613E-08
3.645802E+03	5.785470E-04	1.471691E-08
3.647799E+03	5.727438E-04	1.456929E-08
3.649795E+03	5.658451E-04	1.439380E-08
3.651792E+03	5.597910E-04	1.423980E-08
3.653789E+03	5.539644E-04	1.409158E-08
3.655785E+03	5.499784E-04	1.399019E-08
3.657782E+03	5.473971E-04	1.392453E-08
3.659778E+03	5.447522E-04	1.385724E-08
3.661775E+03	5.439485E-04	1.383680E-08
3.663772E+03	5.436000E-04	1.382793E-08
3.665768E+03	5.446974E-04	1.385585E-08
3.667765E+03	5.474687E-04	1.392635E-08
3.669761E+03	5.513827E-04	1.402591E-08
3.671758E+03	5.569358E-04	1.416717E-08
3.673755E+03	5.640694E-04	1.434863E-08
3.675751E+03	5.711750E-04	1.452938E-08
3.677748E+03	5.809755E-04	1.477868E-08
3.679744E+03	5.913891E-04	1.504358E-08
3.681741E+03	6.043062E-04	1.537216E-08
3.683738E+03	6.201989E-04	1.577644E-08
3.685734E+03	6.365600E-04	1.619262E-08
3.687731E+03	6.545563E-04	1.665041E-08
3.689727E+03	6.741875E-04	1.714978E-08
3.691724E+03	6.951045E-04	1.768186E-08
3.693721E+03	7.160234E-04	1.821399E-08
3.695717E+03	7.353111E-04	1.870463E-08
3.697714E+03	7.560015E-04	1.923094E-08
3.699710E+03	7.746517E-04	1.970536E-08
3.701707E+03	7.925458E-04	2.016054E-08
3.703704E+03	8.108505E-04	2.062617E-08
3.705700E+03	8.247219E-04	2.097903E-08
3.707697E+03	8.376033E-04	2.130670E-08
3.709694E+03	8.497279E-04	2.161513E-08
3.711690E+03	8.605109E-04	2.188942E-08
3.713687E+03	8.702451E-04	2.213704E-08
3.715683E+03	8.795133E-04	2.237280E-08
3.717680E+03	8.865067E-04	2.255069E-08
3.719677E+03	8.892391E-04	2.262020E-08
3.721673E+03	8.934318E-04	2.272685E-08
3.723670E+03	8.973918E-04	2.282758E-08
3.725666E+03	8.984333E-04	2.285408E-08
3.727663E+03	8.995330E-04	2.288205E-08
3.729660E+03	9.001078E-04	2.289667E-08
3.731656E+03	8.984059E-04	2.285338E-08
3.733653E+03	8.957110E-04	2.278483E-08
3.735649E+03	8.900371E-04	2.264050E-08
3.737646E+03	8.839545E-04	2.248577E-08
3.739643E+03	8.771702E-04	2.231319E-08
3.741639E+03	8.691589E-04	2.210941E-08
3.743636E+03	8.591612E-04	2.185509E-08
3.745632E+03	8.470009E-04	2.154576E-08
3.747629E+03	8.346641E-04	2.123194E-08
3.749626E+03	8.208652E-04	2.088092E-08
3.751622E+03	8.056633E-04	2.049422E-08
3.753619E+03	7.904007E-04	2.010598E-08
3.755615E+03	7.737927E-04	1.968351E-08
3.757612E+03	7.566576E-04	1.924763E-08
3.759609E+03	7.394615E-04	1.881020E-08
3.761605E+03	7.223225E-04	1.837422E-08
3.763602E+03	7.050646E-04	1.793522E-08
3.765598E+03	6.876878E-04	1.749320E-08
3.767595E+03	6.692570E-04	1.702436E-08
3.769592E+03	6.503563E-04	1.654357E-08
3.771588E+03	6.326231E-04	1.609248E-08
3.773585E+03	6.162323E-04	1.567553E-08
3.775582E+03	5.990216E-04	1.523773E-08
3.777578E+03	5.813346E-04	1.478782E-08
3.779575E+03	5.628215E-04	1.431689E-08
3.781571E+03	5.431076E-04	1.381541E-08
3.783568E+03	5.233090E-04	1.331178E-08
3.785565E+03	5.046839E-04	1.283800E-08
3.787561E+03	4.872382E-04	1.239422E-08
3.789558E+03	4.709896E-04	1.198089E-08
3.791554E+03	4.556808E-04	1.159147E-08
3.793551E+03	4.408266E-04	1.121361E-08
3.795548E+03	4.269827E-04	1.086146E-08
3.797544E+03	4.146291E-04	1.054721E-08
3.799541E+03	4.034971E-04	1.026404E-08
3.801537E+03	3.930834E-04	9.999139E-09
3.803534E+03	3.837395E-04	9.761450E-09
3.805531E+03	3.745290E-04	9.527158E-09
3.807527E+03	3.656745E-04	9.301919E-09
3.809524E+03	3.573340E-04	9.089756E-09
3.811520E+03	3.504617E-04	8.914941E-09
3.813517E+03	3.450229E-04	8.776590E-09
3.815514E+03	3.395659E-04	8.637775E-09
3.817510E+03	3.338740E-04	8.492986E-09
3.819507E+03	3.293173E-04	8.377076E-09
3.821503E+03	3.262885E-04	8.300029E-09
3.823500E+03	3.248287E-04	8.262894E-09
3.825497E+03	3.240129E-04	8.242144E-09
3.827493E+03	3.232967E-04	8.223925E-09
3.829490E+03	3.228909E-04	8.213602E-09
3.831486E+03	3.235277E-04	8.229802E-09
3.833483E+03	3.247564E-04	8.261056E-09
3.835480E+03	3.277311E-04	8.336725E-09
3.837476E+03	3.329735E-04	8.470081E-09
3.839473E+03	3.399335E-04	8.647127E-09
3.841470E+03	3.451249E-04	8.779185E-09
3.843466E+03	3.510907E-04	8.930940E-09
3.845463E+03	3.597413E-04	9.150992E-09
3.847459E+03	3.692020E-04	9.391651E-09
3.849456E+03	3.784707E-04	9.627425E-09
3.851453E+03	3.872074E-04	9.849665E-09
3.853449E+03	3.974871E-04	1.011116E-08
3.855446E+03	4.107815E-04	1.044934E-08
3.857442E+03	4.244648E-04	1.079741E-08
3.859439E+03	4.404427E-04	1.120385E-08
3.861436E+03	4.594193E-04	1.168657E-08
3.863432E+03	4.818877E-04	1.225811E-08
3.865429E+03	5.056437E-04	1.286241E-08
3.867425E+03	5.302712E-04	1.348888E-08
3.869422E+03	5.568499E-04	1.416498E-08
3.871419E+03	5.851625E-04	1.488519E-08
3.873415E+03	6.140660E-04	1.562043E-08
3.875412E+03	6.449688E-04	1.640652E-08
3.877408E+03	6.779876E-04	1.724645E-08
3.879405E+03	7.123617E-04	1.812084E-08
3.881402E+03	7.462710E-04	1.898342E-08
3.883398E+03	7.804201E-04	1.985209E-08
3.885395E+03	8.153376E-04	2.074031E-08
3.887391E+03	8.506709E-04	2.163911E-08
3.889388E+03	8.863619E-04	2.254701E-08
3.891385E+03	9.225282E-04	2.346700E-08
3.893381E+03	9.581129E-04	2.437219E-08
3.895378E+03	9.951708E-04	2.531486E-08
3.897374E+03	1.031001E-03	2.622630E-08
3.899371E+03	1.065898E-03	2.711400E-08
3.901368E+03	1.098745E-03	2.794955E-08
3.903364E+03	1.130775E-03	2.876432E-08
3.905361E+03	1.162927E-03	2.958219E-08
3.907357E+03	1.192794E-03	3.034193E-08
3.909354E+03	1.221256E-03	3.106593E-08
3.911351E+03	1.247724E-03	3.173924E-08
3.913347E+03	1.272259E-03	3.236335E-08
3.915344E+03	1.294272E-03	3.292329E-08
3.917341E+03	1.315112E-03	3.345343E-08
3.919337E+03	1.334781E-03	3.395376E-08
3.921334E+03	1.350986E-03	3.436598E-08
3.923330E+03	1.365490E-03	3.473491E-08
3.925327E+03	1.377997E-03	3.505307E-08
3.927324E+03	1.387626E-03	3.529802E-08
3.929320E+03	1.395670E-03	3.550264E-08
3.931317E+03	1.403245E-03	3.569534E-08
3.933313E+03	1.408705E-03	3.583423E-08
3.935310E+03	1.412226E-03	3.592379E-08
3.937307E+03	1.414454E-03	3.598046E-08
3.939303E+03	1.414978E-03	3.599377E-08
3.941300E+03	1.414736E-03	3.598764E-08
3.943296E+03	1.416495E-03	3.603238E-08
3.945293E+03	1.417666E-03	3.606217E-08
3.947290E+03	1.417014E-03	3.604558E-08
3.949286E+03	1.414303E-03	3.597662E-08
3.951283E+03	1.410945E-03	3.589119E-08
3.953279E+03	1.407056E-03	3.579228E-08
3.955276E+03	1.404109E-03	3.571731E-08
3.957273E+03	1.401633E-03	3.565431E-08
3.959269E+03	1.399863E-03	3.560928E-08
3.961266E+03	1.396797E-03	3.553130E-08
3.963262E+03	1.391495E-03	3.539642E-08
3.965259E+03	1.386544E-03	3.527049E-08
3.967256E+03	1.385362E-03	3.524042E-08
3.969252E+03	1.383767E-03	3.519985E-08
3.971249E+03	1.380347E-03	3.511285E-08
3.973245E+03	1.375807E-03	3.499738E-08
3.975242E+03	1.371857E-03	3.489688E-08
3.977239E+03	1.368082E-03	3.480085E-08
3.979235E+03	1.364778E-03	3.471681E-08
3.981232E+03	1.362298E-03	3.465373E-08
3.983229E+03	1.360938E-03	3.461912E-08
3.985225E+03	1.360991E-03	3.462048E-08
3.987222E+03	1.360515E-03	3.460837E-08
3.989218E+03	1.359154E-03	3.457375E-08
3.991215E+03	1.359031E-03	3.457063E-08
3.993212E+03	1.359911E-03	3.459301E-08
3.995208E+03	1.360908E-03	3.461837E-08
3.997205E+03	1.361670E-03	3.463776E-08
3.999201E+03	1.363730E-03	3.469015E-08
4.001198E+03	1.368266E-03	3.480553E-08
4.003195E+03	1.372567E-03	3.491495E-08
4.005191E+03	1.376515E-03	3.501538E-08
4.007188E+03	1.383472E-03	3.519234E-08
4.009184E+03	1.391314E-03	3.539183E-08
4.011181E+03	1.398922E-03	3.558537E-08
4.013178E+03	1.407004E-03	3.579095E-08
4.015174E+03	1.414969E-03	3.599356E-08
4.017171E+03	1.421815E-03	3.616770E-08
4.019167E+03	1.429901E-03	3.637339E-08
4.021164E+03	1.437457E-03	3.656560E-08
4.023161E+03	1.446018E-03	3.678338E-08
4.025157E+03	1.454640E-03	3.700270E-08
4.027154E+03	1.462673E-03	3.720703E-08
4.029150E+03	1.468583E-03	3.735737E-08
4.031147E+03	1.473962E-03	3.749421E-08
4.033144E+03	1.477926E-03	3.759504E-08
4.035140E+03	1.482068E-03	3.770040E-08
4.037137E+03	1.486683E-03	3.781779E-08
4.039133E+03	1.489941E-03	3.790066E-08
4.041130E+03	1.492668E-03	3.797003E-08
4.043127E+03	1.494450E-03	3.801537E-08
4.045123E+03	1.493279E-03	3.798559E-08
4.047120E+03	1.491223E-03	3.793327E-08
4.049117E+03	1.486921E-03	3.782384E-08
4.051113E+03	1.482914E-03	3.772192E-08
4.053110E+03	1.478197E-03	3.760194E-08
4.055106E+03	1.472239E-03	3.745036E-08
4.057103E+03	1.464211E-03	3.724616E-08
4.059100E+03	1.455059E-03	3.701335E-08
4.061096E+03	1.444251E-03	3.673841E-08
4.063093E+03	1.432613E-03	3.644237E-08
4.065089E+03	1.421091E-03	3.614929E-08
4.067086E+03	1.407025E-03	3.579148E-08
4.069083E+03	1.392248E-03	3.541558E-08
4.071079E+03	1.377349E-03	3.503659E-08
4.073076E+03	1.361442E-03	3.463196E-08
4.075072E+03	1.345060E-03	3.421523E-08
4.077069E+03	1.328793E-03	3.380145E-08
4.079066E+03	1.312346E-03	3.338306E-08
4.081062E+03	1.295541E-03	3.295558E-08
4.083059E+03	1.280035E-03	3.256115E-08
4.085055E+03	1.265177E-03	3.218320E-08
4.087052E+03	1.251441E-03	3.183377E-08
4.089049E+03	1.239478E-03	3.152946E-08
4.091045E+03	1.228933E-03	3.126122E-08
4.093042E+03	1.216433E-03	3.094326E-08
4.095038E+03	1.204700E-03	3.064480E-08
4.097035E+03	1.193498E-03	3.035985E-08
4.099032E+03	1.183538E-03	3.010648E-08
4.101028E+03	1.174642E-03	2.988018E-08
4.103025E+03	1.166395E-03	2.967040E-08
4.105021E+03	1.158620E-03	2.947264E-08
4.107018E+03	1.151792E-03	2.929895E-08
4.109015E+03	1.144667E-03	2.911769E-08
4.111011E+03	1.137718E-03	2.894093E-08
4.113008E+03	1.131597E-03	2.878523E-08
4.115004E+03	1.125653E-03	2.863402E-08
4.117001E+03	1.116389E-03	2.839837E-08
4.118998E+03	1.105465E-03	2.812049E-08
4.120994E+03	1.095605E-03	2.786968E-08
4.122991E+03	1.085626E-03	2.761582E-08
4.124988E+03	1.075407E-03	2.735588E-08
4.126984E+03	1.065127E-03	2.709437E-08
4.128981E+03	1.054311E-03	2.681926E-08
4.130977E+03	1.043672E-03	2.654862E-08
4.132974E+03	1.032615E-03	2.626736E-08
4.134971E+03	1.021735E-03	2.599059E-08
4.136967E+03	1.011683E-03	2.573488E-08
4.138964E+03	1.003823E-03	2.553495E-08
4.140960E+03	9.964960E-04	2.534856E-08
4.142957E+03	9.892860E-04	2.516516E-08
4.144954E+03	9.823711E-04	2.498926E-08
4.146950E+03	9.757520E-04	2.482088E-08
4.148947E+03	9.694870E-04	2.466152E-08
4.150943E+03	9.639926E-04	2.452175E-08
4.152940E+03	9.592094E-04	2.440008E-08
4.154937E+03	9.555528E-04	2.430706E-08
4.156933E+03	9.516581E-04	2.420799E-08
4.158930E+03	9.487714E-04	2.413456E-08
4.160926E+03	9.470127E-04	2.408982E-08
4.162923E+03	9.453125E-04	2.404657E-08
4.164920E+03	9.443837E-04	2.402295E-08
4.166916E+03	9.443456E-04	2.402198E-08
4.168913E+03	9.440693E-04	2.401495E-08
4.170909E+03	9.443870E-04	2.402303E-08
4.172906E+03	9.434573E-04	2.399938E-08
4.174903E+03	9.421708E-04	2.396666E-08
4.176899E+03	9.406463E-04	2.392788E-08
4.178896E+03	9.390023E-04	2.388606E-08
4.180892E+03	9.371202E-04	2.383818E-08
4.182889E+03	9.350595E-04	2.378576E-08
4.184886E+03	9.346025E-04	2.377414E-08
4.186882E+03	9.345616E-04	2.377310E-08
4.188879E+03	9.339851E-04	2.375843E-08
4.190876E+03	9.313875E-04	2.369235E-08
4.192872E+03	9.289681E-04	2.363081E-08
