#wls	flux	fluxerr
1.597285E+03	9.073991E-05	2.930376E-06
1.637217E+03	9.177683E-05	2.955480E-06
1.677149E+03	9.283633E-05	2.980905E-06
1.717081E+03	9.391733E-05	3.006599E-06
1.757013E+03	9.501856E-05	3.032504E-06
1.796945E+03	9.615526E-05	3.059084E-06
1.836877E+03	9.732681E-05	3.086299E-06
1.876809E+03	9.851605E-05	3.113579E-06
1.916742E+03	9.972237E-05	3.140889E-06
1.956674E+03	1.009791E-04	3.169251E-06
1.996606E+03	1.022530E-04	3.197600E-06
2.036538E+03	1.035619E-04	3.226464E-06
2.076470E+03	1.049073E-04	3.255865E-06
2.116402E+03	1.063089E-04	3.286381E-06
2.156334E+03	1.077357E-04	3.317022E-06
2.196266E+03	1.092268E-04	3.348959E-06
2.236198E+03	1.107709E-04	3.381804E-06
2.276131E+03	1.123756E-04	3.415746E-06
2.316063E+03	1.140859E-04	3.452107E-06
2.355995E+03	1.158783E-04	3.490110E-06
2.395927E+03	1.177666E-04	3.530117E-06
2.435859E+03	1.198043E-04	3.573654E-06
2.475791E+03	1.219936E-04	3.620701E-06
2.515723E+03	1.243585E-04	3.671868E-06
2.555655E+03	1.269457E-04	3.728416E-06
2.595588E+03	1.297691E-04	3.790618E-06
2.635520E+03	1.328850E-04	3.859966E-06
2.675452E+03	1.363371E-04	3.937533E-06
2.715384E+03	1.401550E-04	4.023968E-06
2.755316E+03	1.444347E-04	4.121773E-06
2.795248E+03	1.492209E-04	4.231927E-06
2.835180E+03	1.546075E-04	4.356750E-06
2.875112E+03	1.606572E-04	4.497611E-06
2.915044E+03	1.674863E-04	4.657303E-06
2.954977E+03	1.752038E-04	4.838319E-06
2.994909E+03	1.839581E-04	5.044129E-06
3.004892E+03	1.863149E-04	5.099543E-06
3.014875E+03	1.887388E-04	5.156512E-06
3.024858E+03	1.912564E-04	5.215752E-06
3.034841E+03	1.938462E-04	5.276661E-06
3.044824E+03	1.965108E-04	5.339296E-06
3.054807E+03	1.992777E-04	5.404390E-06
3.064790E+03	2.021251E-04	5.471336E-06
3.074773E+03	2.050812E-04	5.540883E-06
3.084756E+03	2.081240E-04	5.612414E-06
3.094739E+03	2.112563E-04	5.685995E-06
3.104722E+03	2.144812E-04	5.761688E-06
3.114705E+03	2.178283E-04	5.840274E-06
3.124688E+03	2.212749E-04	5.921120E-06
3.134671E+03	2.248513E-04	6.005020E-06
3.144654E+03	2.285341E-04	6.091328E-06
3.154637E+03	2.323266E-04	6.180109E-06
3.164620E+03	2.362601E-04	6.272178E-06
3.174603E+03	2.403102E-04	6.366859E-06
3.184586E+03	2.444797E-04	6.464208E-06
3.194569E+03	2.488008E-04	6.565050E-06
3.204552E+03	2.532471E-04	6.668662E-06
3.214535E+03	2.578506E-04	6.775865E-06
3.224518E+03	2.625832E-04	6.885891E-06
3.234501E+03	2.674453E-04	6.998724E-06
3.244484E+03	2.724679E-04	7.115150E-06
3.254467E+03	2.776183E-04	7.234288E-06
3.264450E+03	2.828930E-04	7.356023E-06
3.274433E+03	2.883195E-04	7.481041E-06
3.284416E+03	2.938914E-04	7.609149E-06
3.294400E+03	2.995319E-04	7.738334E-06
3.304383E+03	3.052946E-04	7.869963E-06
3.314366E+03	3.111638E-04	8.003605E-06
3.324349E+03	3.170492E-04	8.136924E-06
3.334332E+03	3.230318E-04	8.271985E-06
3.344315E+03	3.289764E-04	8.405312E-06
3.354298E+03	3.349220E-04	8.537904E-06
3.364281E+03	3.408337E-04	8.668868E-06
3.374264E+03	3.465983E-04	8.795332E-06
3.384247E+03	3.522885E-04	8.919162E-06
3.394230E+03	3.577513E-04	9.036498E-06
3.404213E+03	3.630255E-04	9.148356E-06
3.414196E+03	3.680789E-04	9.253956E-06
3.424179E+03	3.728064E-04	9.350700E-06
3.434162E+03	3.773094E-04	9.441175E-06
3.444145E+03	3.814619E-04	9.522277E-06
3.454128E+03	3.853491E-04	9.596188E-06
3.464111E+03	3.889898E-04	9.663417E-06
3.474094E+03	3.923340E-04	9.722770E-06
3.484077E+03	3.955464E-04	9.778370E-06
3.494060E+03	3.985580E-04	9.828536E-06
3.504043E+03	4.015112E-04	9.876806E-06
3.514026E+03	4.044720E-04	9.924810E-06
3.524009E+03	4.074258E-04	9.972186E-06
3.533992E+03	4.105624E-04	1.002357E-05
3.543975E+03	4.138196E-04	1.007741E-05
3.553958E+03	4.173341E-04	1.013699E-05
3.563941E+03	4.211503E-04	1.020336E-05
3.573924E+03	4.252579E-04	1.027620E-05
3.583907E+03	4.296737E-04	1.035585E-05
3.593890E+03	4.343968E-04	1.044223E-05
3.603873E+03	4.394499E-04	1.053584E-05
3.613856E+03	4.447956E-04	1.063570E-05
3.623839E+03	4.503377E-04	1.073947E-05
3.633823E+03	4.560095E-04	1.084551E-05
3.643806E+03	4.617347E-04	1.095200E-05
3.653789E+03	4.674757E-04	1.105801E-05
3.663772E+03	4.731061E-04	1.116058E-05
3.673755E+03	4.785933E-04	1.125895E-05
3.683738E+03	4.838263E-04	1.135054E-05
3.693721E+03	4.888019E-04	1.143531E-05
3.703704E+03	4.934048E-04	1.151064E-05
3.713687E+03	4.977300E-04	1.157879E-05
3.723670E+03	5.018152E-04	1.164070E-05
3.733653E+03	5.056869E-04	1.169703E-05
3.743636E+03	5.094512E-04	1.175025E-05
3.753619E+03	5.132915E-04	1.180462E-05
3.763602E+03	5.172787E-04	1.186173E-05
3.773585E+03	5.217328E-04	1.192887E-05
3.783568E+03	5.267074E-04	1.200717E-05
3.793551E+03	5.324874E-04	1.210299E-05
3.803534E+03	5.392091E-04	1.221926E-05
3.813517E+03	5.470856E-04	1.236060E-05
3.823500E+03	5.562093E-04	1.252884E-05
3.833483E+03	5.666844E-04	1.272607E-05
3.843466E+03	5.785744E-04	1.295343E-05
3.853449E+03	5.919467E-04	1.321212E-05
3.863432E+03	6.067208E-04	1.350004E-05
3.873415E+03	6.228107E-04	1.381498E-05
3.883398E+03	6.401317E-04	1.415479E-05
3.893381E+03	6.584434E-04	1.451390E-05
3.903364E+03	6.775113E-04	1.488694E-05
3.913347E+03	6.970608E-04	1.526773E-05
3.923330E+03	7.168473E-04	1.565082E-05
3.933313E+03	7.364946E-04	1.602795E-05
3.943296E+03	7.556764E-04	1.639208E-05
3.953279E+03	7.740767E-04	1.673644E-05
3.963262E+03	7.914625E-04	1.705619E-05
3.973245E+03	8.075113E-04	1.734460E-05
3.983229E+03	8.220021E-04	1.759722E-05
3.993212E+03	8.347649E-04	1.781073E-05
4.003195E+03	8.456829E-04	1.798304E-05
4.013178E+03	8.547646E-04	1.811470E-05
4.023161E+03	8.619405E-04	1.820465E-05
4.033144E+03	8.671967E-04	1.825300E-05
4.043127E+03	8.707727E-04	1.826519E-05
4.053110E+03	8.728195E-04	1.824473E-05
4.063093E+03	8.733968E-04	1.819322E-05
4.073076E+03	8.727990E-04	1.811708E-05
4.083059E+03	8.713446E-04	1.802315E-05
4.093042E+03	8.692371E-04	1.791583E-05
4.103025E+03	8.666899E-04	1.779964E-05
4.113008E+03	8.641112E-04	1.768304E-05
4.122991E+03	8.617061E-04	1.757021E-05
4.132974E+03	8.597291E-04	1.746630E-05
4.142957E+03	8.584133E-04	1.737593E-05
4.152940E+03	8.579655E-04	1.730313E-05
4.162923E+03	8.585627E-04	1.725126E-05
4.172906E+03	8.603490E-04	1.722297E-05
4.182889E+03	8.634328E-04	1.722017E-05
4.192872E+03	8.679503E-04	1.724526E-05
4.202855E+03	8.738142E-04	1.729621E-05
4.212838E+03	8.810869E-04	1.737393E-05
4.222821E+03	8.897329E-04	1.747741E-05
4.232804E+03	8.996823E-04	1.760498E-05
4.242787E+03	9.108311E-04	1.775431E-05
4.252770E+03	9.230439E-04	1.792249E-05
4.262753E+03	9.361560E-04	1.810610E-05
4.272736E+03	9.499133E-04	1.830004E-05
4.282719E+03	9.642353E-04	1.850262E-05
4.292702E+03	9.787654E-04	1.870688E-05
4.302685E+03	9.934041E-04	1.891089E-05
4.312668E+03	1.007784E-03	1.910765E-05
4.322651E+03	1.021753E-03	1.929435E-05
4.332635E+03	1.035114E-03	1.946737E-05
4.342618E+03	1.047711E-03	1.962395E-05
4.352601E+03	1.059445E-03	1.976239E-05
4.362584E+03	1.070211E-03	1.988096E-05
4.372567E+03	1.080128E-03	1.998209E-05
4.382550E+03	1.089318E-03	2.006820E-05
4.392533E+03	1.097953E-03	2.014264E-05
4.402516E+03	1.106249E-03	2.020949E-05
4.412499E+03	1.114394E-03	2.027223E-05
4.422482E+03	1.122751E-03	2.033748E-05
4.432465E+03	1.131614E-03	2.041052E-05
4.442448E+03	1.141261E-03	2.049620E-05
4.452431E+03	1.151844E-03	2.059707E-05
4.462414E+03	1.163593E-03	2.071701E-05
4.472397E+03	1.176580E-03	2.085703E-05
4.482380E+03	1.190706E-03	2.101508E-05
4.492363E+03	1.205920E-03	2.119000E-05
4.502346E+03	1.222002E-03	2.137768E-05
4.512329E+03	1.238568E-03	2.157124E-05
4.522312E+03	1.255317E-03	2.176533E-05
4.532295E+03	1.271823E-03	2.195256E-05
4.542278E+03	1.287555E-03	2.212387E-05
4.552261E+03	1.302143E-03	2.227308E-05
4.562244E+03	1.315087E-03	2.239198E-05
4.572227E+03	1.326100E-03	2.247607E-05
4.582210E+03	1.334889E-03	2.252086E-05
4.592193E+03	1.341165E-03	2.252202E-05
4.602176E+03	1.344897E-03	2.247961E-05
4.612159E+03	1.346064E-03	2.239389E-05
4.622142E+03	1.344655E-03	2.226527E-05
4.632125E+03	1.340817E-03	2.209679E-05
4.642108E+03	1.334841E-03	2.189380E-05
4.652091E+03	1.326986E-03	2.166101E-05
4.662074E+03	1.317464E-03	2.140234E-05
4.672058E+03	1.306663E-03	2.112441E-05
4.682041E+03	1.294817E-03	2.083135E-05
4.692024E+03	1.282310E-03	2.052952E-05
4.702007E+03	1.269359E-03	2.022253E-05
4.711990E+03	1.256309E-03	1.991599E-05
4.721973E+03	1.243336E-03	1.961268E-05
4.731956E+03	1.230735E-03	1.931723E-05
4.741939E+03	1.218635E-03	1.903156E-05
4.751922E+03	1.207281E-03	1.875937E-05
4.761905E+03	1.196758E-03	1.850180E-05
4.771888E+03	1.187264E-03	1.826171E-05
4.781871E+03	1.178842E-03	1.803952E-05
4.791854E+03	1.171581E-03	1.783633E-05
4.801837E+03	1.165680E-03	1.765489E-05
4.811820E+03	1.160981E-03	1.749251E-05
4.821803E+03	1.157633E-03	1.735113E-05
4.831786E+03	1.155558E-03	1.722928E-05
4.841769E+03	1.154777E-03	1.712700E-05
4.851752E+03	1.155153E-03	1.704193E-05
4.861735E+03	1.156643E-03	1.697321E-05
4.871718E+03	1.159043E-03	1.691759E-05
4.881701E+03	1.162246E-03	1.687331E-05
4.891684E+03	1.165987E-03	1.683639E-05
4.901667E+03	1.170042E-03	1.680344E-05
4.911650E+03	1.174232E-03	1.677189E-05
4.921633E+03	1.178242E-03	1.673723E-05
4.931616E+03	1.181896E-03	1.669701E-05
4.941599E+03	1.184906E-03	1.664729E-05
4.951582E+03	1.187159E-03	1.658665E-05
4.961565E+03	1.188468E-03	1.651269E-05
4.971548E+03	1.188792E-03	1.642505E-05
4.981531E+03	1.188237E-03	1.632545E-05
4.991514E+03	1.186880E-03	1.621515E-05
5.001497E+03	1.185014E-03	1.609833E-05
5.011480E+03	1.182886E-03	1.597845E-05
5.021464E+03	1.180867E-03	1.586056E-05
5.031447E+03	1.179425E-03	1.575090E-05
5.041430E+03	1.178969E-03	1.565480E-05
5.051413E+03	1.179755E-03	1.557539E-05
5.061396E+03	1.182238E-03	1.551840E-05
5.071379E+03	1.186668E-03	1.548673E-05
5.081362E+03	1.193140E-03	1.548116E-05
5.091345E+03	1.201709E-03	1.550198E-05
5.101328E+03	1.212389E-03	1.554890E-05
5.111311E+03	1.224965E-03	1.561875E-05
5.121294E+03	1.239267E-03	1.570897E-05
5.131277E+03	1.254924E-03	1.581452E-05
5.141260E+03	1.271646E-03	1.593151E-05
5.151243E+03	1.288984E-03	1.605415E-05
5.161226E+03	1.306549E-03	1.617751E-05
5.171209E+03	1.324034E-03	1.629781E-05
5.181192E+03	1.341026E-03	1.641006E-05
5.191175E+03	1.357292E-03	1.651157E-05
5.201158E+03	1.372505E-03	1.659858E-05
5.211141E+03	1.386456E-03	1.666885E-05
5.221124E+03	1.399057E-03	1.672163E-05
5.231107E+03	1.410187E-03	1.675583E-05
5.241090E+03	1.419687E-03	1.676990E-05
5.251073E+03	1.427497E-03	1.676353E-05
5.261056E+03	1.433656E-03	1.673754E-05
5.271039E+03	1.438071E-03	1.669126E-05
5.281022E+03	1.440815E-03	1.662590E-05
5.291005E+03	1.441833E-03	1.654120E-05
5.300988E+03	1.441159E-03	1.643795E-05
5.310971E+03	1.438930E-03	1.631802E-05
5.320954E+03	1.435231E-03	1.618274E-05
5.330937E+03	1.430107E-03	1.603291E-05
5.340920E+03	1.423786E-03	1.587135E-05
5.350903E+03	1.416306E-03	1.569875E-05
5.360886E+03	1.408108E-03	1.552019E-05
5.370870E+03	1.399296E-03	1.533695E-05
5.380853E+03	1.390138E-03	1.515208E-05
5.390836E+03	1.380979E-03	1.496939E-05
5.400819E+03	1.372083E-03	1.479174E-05
5.410802E+03	1.363608E-03	1.462077E-05
5.420785E+03	1.355726E-03	1.445826E-05
5.430768E+03	1.348594E-03	1.430577E-05
5.440751E+03	1.342120E-03	1.416221E-05
5.450734E+03	1.336218E-03	1.402660E-05
5.460717E+03	1.330595E-03	1.389577E-05
5.470700E+03	1.324773E-03	1.376470E-05
5.480683E+03	1.318342E-03	1.362915E-05
5.490666E+03	1.310790E-03	1.348391E-05
5.500649E+03	1.301765E-03	1.332551E-05
5.510632E+03	1.291053E-03	1.315193E-05
5.520615E+03	1.278411E-03	1.296091E-05
5.530598E+03	1.263561E-03	1.274989E-05
5.540581E+03	1.246405E-03	1.251812E-05
5.550564E+03	1.226844E-03	1.226488E-05
5.560547E+03	1.204797E-03	1.198965E-05
5.570530E+03	1.180336E-03	1.169338E-05
5.580513E+03	1.153674E-03	1.137844E-05
5.590496E+03	1.125040E-03	1.104729E-05
5.600479E+03	1.094674E-03	1.070244E-05
5.610462E+03	1.062988E-03	1.034806E-05
5.620445E+03	1.030335E-03	9.987635E-06
5.630428E+03	9.972208E-04	9.626105E-06
5.640411E+03	9.641335E-04	9.268127E-06
5.650394E+03	9.315430E-04	8.918123E-06
5.660377E+03	9.000342E-04	8.581535E-06
5.670360E+03	8.700996E-04	8.262847E-06
5.680343E+03	8.423522E-04	7.967611E-06
5.690326E+03	8.171515E-04	7.698908E-06
5.700309E+03	7.950666E-04	7.461742E-06
5.710293E+03	7.763516E-04	7.258101E-06
5.720276E+03	7.614318E-04	7.091542E-06
5.730259E+03	7.504546E-04	6.962996E-06
5.740242E+03	7.436033E-04	6.873717E-06
5.750225E+03	7.409421E-04	6.823849E-06
5.760208E+03	7.424144E-04	6.812433E-06
5.770191E+03	7.479586E-04	6.838483E-06
5.780174E+03	7.573511E-04	6.899557E-06
5.790157E+03	7.703631E-04	6.993205E-06
5.800140E+03	7.866413E-04	7.115889E-06
5.810123E+03	8.057490E-04	7.263377E-06
5.820106E+03	8.271307E-04	7.430427E-06
5.830089E+03	8.502463E-04	7.612015E-06
5.840072E+03	8.744205E-04	7.801978E-06
5.850055E+03	8.990849E-04	7.995190E-06
5.860038E+03	9.234933E-04	8.185017E-06
5.870021E+03	9.470123E-04	8.365914E-06
5.880004E+03	9.691675E-04	8.533804E-06
5.889987E+03	9.893730E-04	8.683686E-06
5.899970E+03	1.007288E-03	8.812765E-06
5.909953E+03	1.022584E-03	8.918392E-06
5.919936E+03	1.035204E-03	9.000302E-06
5.929919E+03	1.044995E-03	9.057403E-06
5.939902E+03	1.052010E-03	9.090390E-06
5.949885E+03	1.056501E-03	9.101677E-06
5.959868E+03	1.058584E-03	9.092455E-06
5.969851E+03	1.058595E-03	9.065789E-06
5.979834E+03	1.056861E-03	9.024652E-06
5.989817E+03	1.053743E-03	8.972241E-06
5.999800E+03	1.049569E-03	8.911442E-06
6.009783E+03	1.044781E-03	8.846091E-06
6.019766E+03	1.039774E-03	8.779547E-06
6.029749E+03	1.034878E-03	8.714626E-06
6.039732E+03	1.030576E-03	8.655366E-06
6.049715E+03	1.027119E-03	8.603846E-06
6.059699E+03	1.024903E-03	8.563322E-06
6.069682E+03	1.024251E-03	8.536418E-06
6.079665E+03	1.025420E-03	8.525168E-06
6.089648E+03	1.028806E-03	8.532781E-06
6.099631E+03	1.034589E-03	8.560619E-06
6.109614E+03	1.043096E-03	8.611274E-06
6.119597E+03	1.054602E-03	8.686877E-06
6.129580E+03	1.069320E-03	8.789058E-06
6.139563E+03	1.087628E-03	8.920773E-06
6.149546E+03	1.109665E-03	9.083040E-06
6.159529E+03	1.135708E-03	9.277989E-06
6.169512E+03	1.165925E-03	9.506849E-06
6.179495E+03	1.200381E-03	9.770053E-06
6.189478E+03	1.238991E-03	1.006680E-05
6.199461E+03	1.281384E-03	1.039402E-05
6.209444E+03	1.327105E-03	1.074796E-05
6.219427E+03	1.375136E-03	1.112040E-05
6.229410E+03	1.424454E-03	1.150312E-05
6.239393E+03	1.474020E-03	1.188781E-05
6.249376E+03	1.522974E-03	1.226763E-05
6.259359E+03	1.570415E-03	1.263544E-05
6.269342E+03	1.615592E-03	1.298536E-05
6.279325E+03	1.657326E-03	1.330803E-05
6.289308E+03	1.694729E-03	1.359649E-05
6.299291E+03	1.726626E-03	1.384149E-05
6.309274E+03	1.752250E-03	1.403704E-05
6.319257E+03	1.770984E-03	1.417834E-05
6.329240E+03	1.782494E-03	1.426285E-05
6.339223E+03	1.786656E-03	1.428968E-05
6.349206E+03	1.783910E-03	1.426243E-05
6.359189E+03	1.774659E-03	1.418437E-05
6.369172E+03	1.759486E-03	1.406017E-05
6.379155E+03	1.739364E-03	1.389759E-05
6.389138E+03	1.714946E-03	1.370183E-05
6.399121E+03	1.687155E-03	1.348019E-05
6.409105E+03	1.656773E-03	1.323888E-05
6.419088E+03	1.624512E-03	1.298351E-05
6.429071E+03	1.590994E-03	1.271898E-05
6.439054E+03	1.556750E-03	1.244946E-05
6.449037E+03	1.522218E-03	1.217838E-05
6.459020E+03	1.487743E-03	1.190841E-05
6.469003E+03	1.453573E-03	1.164150E-05
6.478986E+03	1.419786E-03	1.137819E-05
6.488969E+03	1.386578E-03	1.111995E-05
6.498952E+03	1.353819E-03	1.086567E-05
6.508935E+03	1.321319E-03	1.061371E-05
6.518918E+03	1.289126E-03	1.036438E-05
6.528901E+03	1.257180E-03	1.011710E-05
6.538884E+03	1.225866E-03	9.874923E-06
6.548867E+03	1.195327E-03	9.638925E-06
6.558850E+03	1.165815E-03	9.411090E-06
6.568833E+03	1.137470E-03	9.192506E-06
6.578816E+03	1.110160E-03	8.982091E-06
6.588799E+03	1.083884E-03	8.779791E-06
6.598782E+03	1.058545E-03	8.584818E-06
6.608765E+03	1.034102E-03	8.396805E-06
6.618748E+03	1.010354E-03	8.214102E-06
6.628731E+03	9.872865E-04	8.036588E-06
6.638714E+03	9.648538E-04	7.863863E-06
6.648697E+03	9.430340E-04	7.695739E-06
6.658680E+03	9.218258E-04	7.532199E-06
6.668663E+03	9.012430E-04	7.373347E-06
6.678646E+03	8.813139E-04	7.219412E-06
6.688629E+03	8.620713E-04	7.070664E-06
6.698612E+03	8.435509E-04	6.927398E-06
6.708595E+03	8.257880E-04	6.789914E-06
6.718578E+03	8.088116E-04	6.658460E-06
6.728561E+03	7.926901E-04	6.533612E-06
6.738544E+03	7.773562E-04	6.414831E-06
6.748528E+03	7.628652E-04	6.302588E-06
6.758511E+03	7.492245E-04	6.196962E-06
6.768494E+03	7.364386E-04	6.098011E-06
6.778477E+03	7.244719E-04	6.005457E-06
6.788460E+03	7.134076E-04	5.920011E-06
6.798443E+03	7.032167E-04	5.841452E-06
6.808426E+03	6.939132E-04	5.769917E-06
6.818409E+03	6.855205E-04	5.705621E-06
6.828392E+03	6.780682E-04	5.648832E-06
6.838375E+03	6.715924E-04	5.599871E-06
6.848358E+03	6.661325E-04	5.559087E-06
6.858341E+03	6.617292E-04	5.526841E-06
6.868324E+03	6.584192E-04	5.503460E-06
6.878307E+03	6.562303E-04	5.489196E-06
6.888290E+03	6.551776E-04	5.484193E-06
6.898273E+03	6.552622E-04	5.488479E-06
6.908256E+03	6.564631E-04	5.501891E-06
6.918239E+03	6.587422E-04	5.524125E-06
6.928222E+03	6.620403E-04	5.554693E-06
6.938205E+03	6.662828E-04	5.592979E-06
6.948188E+03	6.713807E-04	5.638241E-06
6.958171E+03	6.772400E-04	5.689694E-06
6.968154E+03	6.837645E-04	5.746529E-06
6.978137E+03	6.908646E-04	5.807995E-06
6.988120E+03	6.984276E-04	5.873142E-06
6.998103E+03	7.064727E-04	5.942128E-06
7.008086E+03	7.149301E-04	6.014365E-06
7.018069E+03	7.237959E-04	6.089816E-06
7.028052E+03	7.330937E-04	6.168677E-06
7.038035E+03	7.428343E-04	6.251036E-06
7.048018E+03	7.531772E-04	6.338233E-06
7.058001E+03	7.641814E-04	6.430761E-06
7.067984E+03	7.759631E-04	6.529595E-06
7.077967E+03	7.886067E-04	6.635445E-06
7.087950E+03	8.023302E-04	6.750139E-06
7.097934E+03	8.172173E-04	6.874380E-06
7.107917E+03	8.333362E-04	7.008735E-06
7.117900E+03	8.508687E-04	7.154729E-06
7.127883E+03	8.697779E-04	7.312046E-06
7.137866E+03	8.901719E-04	7.481589E-06
7.147849E+03	9.119099E-04	7.662171E-06
7.157832E+03	9.349321E-04	7.853285E-06
7.167815E+03	9.591108E-04	8.053856E-06
7.177798E+03	9.840785E-04	8.260803E-06
7.187781E+03	1.009544E-03	8.471685E-06
7.197764E+03	1.035080E-03	8.682933E-06
7.207747E+03	1.060184E-03	8.890354E-06
7.217730E+03	1.084291E-03	9.089230E-06
7.227713E+03	1.106788E-03	9.274473E-06
7.237696E+03	1.127044E-03	9.440831E-06
7.247679E+03	1.144435E-03	9.583135E-06
7.257662E+03	1.158317E-03	9.696060E-06
7.267645E+03	1.168318E-03	9.776554E-06
7.277628E+03	1.173985E-03	9.820912E-06
7.287611E+03	1.175004E-03	9.826567E-06
7.297594E+03	1.171350E-03	9.793390E-06
7.307577E+03	1.163163E-03	9.722624E-06
7.317560E+03	1.150546E-03	9.615181E-06
7.327543E+03	1.133936E-03	9.474771E-06
7.337526E+03	1.113818E-03	9.305484E-06
7.347509E+03	1.090754E-03	9.112042E-06
7.357492E+03	1.065284E-03	8.898982E-06
7.367475E+03	1.038140E-03	8.672426E-06
7.377458E+03	1.009788E-03	8.436272E-06
7.387441E+03	9.808887E-04	8.196028E-06
7.397424E+03	9.518158E-04	7.954811E-06
7.407407E+03	9.230494E-04	7.716619E-06
7.417390E+03	8.949507E-04	7.484458E-06
7.427373E+03	8.678200E-04	7.260830E-06
7.437356E+03	8.419055E-04	7.047799E-06
7.447340E+03	8.173612E-04	6.846648E-06
7.457323E+03	7.944418E-04	6.659512E-06
7.467306E+03	7.731806E-04	6.486675E-06
7.477289E+03	7.537181E-04	6.329329E-06
7.487272E+03	7.361203E-04	6.188048E-06
7.497255E+03	7.204262E-04	6.063190E-06
7.507238E+03	7.066490E-04	5.954906E-06
7.517221E+03	6.947390E-04	5.862826E-06
7.527204E+03	6.847068E-04	5.787095E-06
7.537187E+03	6.765410E-04	5.727673E-06
7.547170E+03	6.701027E-04	5.683431E-06
7.557153E+03	6.653251E-04	5.653855E-06
7.567136E+03	6.622239E-04	5.639140E-06
7.577119E+03	6.607147E-04	5.638640E-06
7.587102E+03	6.607465E-04	5.651998E-06
7.597085E+03	6.623719E-04	5.679751E-06
7.607068E+03	6.655895E-04	5.721990E-06
7.617051E+03	6.703332E-04	5.778255E-06
7.627034E+03	6.764638E-04	5.847457E-06
7.637017E+03	6.839293E-04	5.929263E-06
7.647000E+03	6.926899E-04	6.023446E-06
7.656983E+03	7.025342E-04	6.128287E-06
7.666966E+03	7.134697E-04	6.243968E-06
7.676949E+03	7.253056E-04	6.368933E-06
7.686932E+03	7.378039E-04	6.501199E-06
7.696915E+03	7.507681E-04	6.639121E-06
7.706898E+03	7.639215E-04	6.780323E-06
7.716881E+03	7.769596E-04	6.922146E-06
7.726864E+03	7.895208E-04	7.061378E-06
7.736847E+03	8.013428E-04	7.195648E-06
7.746830E+03	8.121475E-04	7.322401E-06
