#wls	flux	fluxerr
1.597285E+03	9.690841E-05	2.959415E-06
1.637217E+03	9.796152E-05	2.983198E-06
1.677149E+03	9.901010E-05	3.006446E-06
1.717081E+03	1.001027E-04	3.030620E-06
1.757013E+03	1.012030E-04	3.054599E-06
1.796945E+03	1.023256E-04	3.078811E-06
1.836877E+03	1.034510E-04	3.102647E-06
1.876809E+03	1.045941E-04	3.126544E-06
1.916742E+03	1.057707E-04	3.150949E-06
1.956674E+03	1.069437E-04	3.174742E-06
1.996606E+03	1.081474E-04	3.198919E-06
2.036538E+03	1.093630E-04	3.222907E-06
2.076470E+03	1.105905E-04	3.246687E-06
2.116402E+03	1.118487E-04	3.270788E-06
2.156334E+03	1.131396E-04	3.295241E-06
2.196266E+03	1.144667E-04	3.320120E-06
2.236198E+03	1.158164E-04	3.345005E-06
2.276131E+03	1.172321E-04	3.371117E-06
2.316063E+03	1.187044E-04	3.398146E-06
2.355995E+03	1.202450E-04	3.426380E-06
2.395927E+03	1.219051E-04	3.457230E-06
2.435859E+03	1.236657E-04	3.490088E-06
2.475791E+03	1.255669E-04	3.526016E-06
2.515723E+03	1.276347E-04	3.565657E-06
2.555655E+03	1.299185E-04	3.610287E-06
2.595588E+03	1.324547E-04	3.660789E-06
2.635520E+03	1.352665E-04	3.717656E-06
2.675452E+03	1.384411E-04	3.783109E-06
2.715384E+03	1.420162E-04	3.857960E-06
2.755316E+03	1.460765E-04	3.944266E-06
2.795248E+03	1.506972E-04	4.043756E-06
2.835180E+03	1.559647E-04	4.158397E-06
2.875112E+03	1.619778E-04	4.290411E-06
2.915044E+03	1.688713E-04	4.442888E-06
2.954977E+03	1.768000E-04	4.619319E-06
2.994909E+03	1.858981E-04	4.822530E-06
3.004892E+03	1.883624E-04	4.877612E-06
3.014875E+03	1.909270E-04	4.935010E-06
3.024858E+03	1.935955E-04	4.994801E-06
3.034841E+03	1.963481E-04	5.056464E-06
3.044824E+03	1.992121E-04	5.120678E-06
3.054807E+03	2.021676E-04	5.186920E-06
3.064790E+03	2.052424E-04	5.255887E-06
3.074773E+03	2.084169E-04	5.327055E-06
3.084756E+03	2.116950E-04	5.400509E-06
3.094739E+03	2.151312E-04	5.477616E-06
3.104722E+03	2.186556E-04	5.556579E-06
3.114705E+03	2.223491E-04	5.639431E-06
3.124688E+03	2.261407E-04	5.724348E-06
3.134671E+03	2.301136E-04	5.813413E-06
3.144654E+03	2.342220E-04	5.905445E-06
3.154637E+03	2.384722E-04	6.000573E-06
3.164620E+03	2.428973E-04	6.099610E-06
3.174603E+03	2.475051E-04	6.202719E-06
3.184586E+03	2.522755E-04	6.309365E-06
3.194569E+03	2.572440E-04	6.420407E-06
3.204552E+03	2.623903E-04	6.535305E-06
3.214535E+03	2.677511E-04	6.654941E-06
3.224518E+03	2.733057E-04	6.778761E-06
3.234501E+03	2.790916E-04	6.907663E-06
3.244484E+03	2.851175E-04	7.041819E-06
3.254467E+03	2.913605E-04	7.180624E-06
3.264450E+03	2.978579E-04	7.324956E-06
3.274433E+03	3.046158E-04	7.474916E-06
3.284416E+03	3.116052E-04	7.629753E-06
3.294400E+03	3.188586E-04	7.790218E-06
3.304383E+03	3.263391E-04	7.955359E-06
3.314366E+03	3.340703E-04	8.125713E-06
3.324349E+03	3.420364E-04	8.300848E-06
3.334332E+03	3.501765E-04	8.479243E-06
3.344315E+03	3.584885E-04	8.660819E-06
3.354298E+03	3.668863E-04	8.843462E-06
3.364281E+03	3.753796E-04	9.027384E-06
3.374264E+03	3.837768E-04	9.207971E-06
3.384247E+03	3.920984E-04	9.385719E-06
3.394230E+03	4.001633E-04	9.556312E-06
3.404213E+03	4.078988E-04	9.718057E-06
3.414196E+03	4.151536E-04	9.867403E-06
3.424179E+03	4.219047E-04	1.000389E-05
3.434162E+03	4.279446E-04	1.012268E-05
3.444145E+03	4.333371E-04	1.022540E-05
3.454128E+03	4.379764E-04	1.030968E-05
3.464111E+03	4.419207E-04	1.037699E-05
3.474094E+03	4.451874E-04	1.042787E-05
3.484077E+03	4.479585E-04	1.046669E-05
3.494060E+03	4.502832E-04	1.049467E-05
3.504043E+03	4.523188E-04	1.051556E-05
3.514026E+03	4.543198E-04	1.053530E-05
3.524009E+03	4.563779E-04	1.055601E-05
3.533992E+03	4.586608E-04	1.058156E-05
3.543975E+03	4.614035E-04	1.061732E-05
3.553958E+03	4.646532E-04	1.066427E-05
3.563941E+03	4.685125E-04	1.072468E-05
3.573924E+03	4.731357E-04	1.080195E-05
3.583907E+03	4.784772E-04	1.089492E-05
3.593890E+03	4.845766E-04	1.100433E-05
3.603873E+03	4.913461E-04	1.112807E-05
3.613856E+03	4.987823E-04	1.126592E-05
3.623839E+03	5.066730E-04	1.141299E-05
3.633823E+03	5.148515E-04	1.156543E-05
3.643806E+03	5.232065E-04	1.172069E-05
3.653789E+03	5.314197E-04	1.187164E-05
3.663772E+03	5.392378E-04	1.201263E-05
3.673755E+03	5.464852E-04	1.213985E-05
3.683738E+03	5.528134E-04	1.224567E-05
3.693721E+03	5.579912E-04	1.232516E-05
3.703704E+03	5.619325E-04	1.237663E-05
3.713687E+03	5.644505E-04	1.239621E-05
3.723670E+03	5.655996E-04	1.238537E-05
3.733653E+03	5.654646E-04	1.234622E-05
3.743636E+03	5.643452E-04	1.228553E-05
3.753619E+03	5.626107E-04	1.221150E-05
3.763602E+03	5.607236E-04	1.213426E-05
3.773585E+03	5.591670E-04	1.206427E-05
3.783568E+03	5.584973E-04	1.201343E-05
3.793551E+03	5.593494E-04	1.199519E-05
3.803534E+03	5.621531E-04	1.201843E-05
3.813517E+03	5.673659E-04	1.209252E-05
3.823500E+03	5.754545E-04	1.222690E-05
3.833483E+03	5.866237E-04	1.242533E-05
3.843466E+03	6.010609E-04	1.269114E-05
3.853449E+03	6.188813E-04	1.302610E-05
3.863432E+03	6.400337E-04	1.342845E-05
3.873415E+03	6.642819E-04	1.389256E-05
3.883398E+03	6.913401E-04	1.441183E-05
3.893381E+03	7.206867E-04	1.497485E-05
3.903364E+03	7.517697E-04	1.556968E-05
3.913347E+03	7.838295E-04	1.618029E-05
3.923330E+03	8.161440E-04	1.679158E-05
3.933313E+03	8.479170E-04	1.738717E-05
3.943296E+03	8.783148E-04	1.795011E-05
3.953279E+03	9.066271E-04	1.846618E-05
3.963262E+03	9.323093E-04	1.892476E-05
3.973245E+03	9.548831E-04	1.931669E-05
3.983229E+03	9.738695E-04	1.963295E-05
3.993212E+03	9.892390E-04	1.987369E-05
4.003195E+03	1.000690E-03	2.003363E-05
4.013178E+03	1.008419E-03	2.011747E-05
4.023161E+03	1.012321E-03	2.012394E-05
4.033144E+03	1.012708E-03	2.006001E-05
4.043127E+03	1.009779E-03	1.993039E-05
4.053110E+03	1.003946E-03	1.974383E-05
4.063093E+03	9.955630E-04	1.950794E-05
4.073076E+03	9.851188E-04	1.923280E-05
4.083059E+03	9.732125E-04	1.893051E-05
4.093042E+03	9.603515E-04	1.861124E-05
4.103025E+03	9.471142E-04	1.828635E-05
4.113008E+03	9.340669E-04	1.796685E-05
4.122991E+03	9.217973E-04	1.766395E-05
4.132974E+03	9.107292E-04	1.738558E-05
4.142957E+03	9.012850E-04	1.713954E-05
4.152940E+03	8.938176E-04	1.693215E-05
4.162923E+03	8.886108E-04	1.676833E-05
4.172906E+03	8.859317E-04	1.665263E-05
4.182889E+03	8.858193E-04	1.658521E-05
4.192872E+03	8.884571E-04	1.656893E-05
4.202855E+03	8.938052E-04	1.660244E-05
4.212838E+03	9.017617E-04	1.668326E-05
4.222821E+03	9.123147E-04	1.681057E-05
4.232804E+03	9.252362E-04	1.697961E-05
4.242787E+03	9.402903E-04	1.718554E-05
4.252770E+03	9.571872E-04	1.742260E-05
4.262753E+03	9.755884E-04	1.768423E-05
4.272736E+03	9.950620E-04	1.796229E-05
4.282719E+03	1.015308E-03	1.825114E-05
4.292702E+03	1.035781E-03	1.854080E-05
4.302685E+03	1.056137E-03	1.882515E-05
4.312668E+03	1.075788E-03	1.909371E-05
4.322651E+03	1.094300E-03	1.933902E-05
4.332635E+03	1.111178E-03	1.955258E-05
4.342618E+03	1.125882E-03	1.972531E-05
4.352601E+03	1.138097E-03	1.985222E-05
4.362584E+03	1.147365E-03	1.992595E-05
4.372567E+03	1.153580E-03	1.994529E-05
4.382550E+03	1.156797E-03	1.991192E-05
4.392533E+03	1.157608E-03	1.983670E-05
4.402516E+03	1.156936E-03	1.973591E-05
4.412499E+03	1.155910E-03	1.962907E-05
4.422482E+03	1.155658E-03	1.953533E-05
4.432465E+03	1.157313E-03	1.947361E-05
4.442448E+03	1.161999E-03	1.946226E-05
4.452431E+03	1.170403E-03	1.951207E-05
4.462414E+03	1.183089E-03	1.963149E-05
4.472397E+03	1.200400E-03	1.982522E-05
4.482380E+03	1.222262E-03	2.009093E-05
4.492363E+03	1.248408E-03	2.042320E-05
4.502346E+03	1.278147E-03	2.080976E-05
4.512329E+03	1.310633E-03	2.123605E-05
4.522312E+03	1.344663E-03	2.168204E-05
4.532295E+03	1.379007E-03	2.212760E-05
4.542278E+03	1.412236E-03	2.254985E-05
4.552261E+03	1.443019E-03	2.292789E-05
4.562244E+03	1.470168E-03	2.324351E-05
4.572227E+03	1.492783E-03	2.348342E-05
4.582210E+03	1.510182E-03	2.363799E-05
4.592193E+03	1.521844E-03	2.370037E-05
4.602176E+03	1.527839E-03	2.367298E-05
4.612159E+03	1.528293E-03	2.355913E-05
4.622142E+03	1.523696E-03	2.336764E-05
4.632125E+03	1.514558E-03	2.310750E-05
4.642108E+03	1.501491E-03	2.278910E-05
4.652091E+03	1.485438E-03	2.242758E-05
4.662074E+03	1.466921E-03	2.203155E-05
4.672058E+03	1.446777E-03	2.161408E-05
4.682041E+03	1.425512E-03	2.118310E-05
4.692024E+03	1.403820E-03	2.074914E-05
4.702007E+03	1.382116E-03	2.031839E-05
4.711990E+03	1.360793E-03	1.989664E-05
4.721973E+03	1.340231E-03	1.948931E-05
4.731956E+03	1.320562E-03	1.909816E-05
4.741939E+03	1.302112E-03	1.872765E-05
4.751922E+03	1.285000E-03	1.837920E-05
4.761905E+03	1.269392E-03	1.805487E-05
4.771888E+03	1.255397E-03	1.775586E-05
4.781871E+03	1.243353E-03	1.748653E-05
4.791854E+03	1.233264E-03	1.724647E-05
4.801837E+03	1.225348E-03	1.703828E-05
4.811820E+03	1.219747E-03	1.686340E-05
4.821803E+03	1.216620E-03	1.672346E-05
4.831786E+03	1.215919E-03	1.661723E-05
4.841769E+03	1.217698E-03	1.654489E-05
4.851752E+03	1.221950E-03	1.650575E-05
4.861735E+03	1.228498E-03	1.649685E-05
4.871718E+03	1.237096E-03	1.651439E-05
4.881701E+03	1.247582E-03	1.655574E-05
4.891684E+03	1.259555E-03	1.661518E-05
4.901667E+03	1.272512E-03	1.668577E-05
4.911650E+03	1.286007E-03	1.676149E-05
4.921633E+03	1.299311E-03	1.683280E-05
4.931616E+03	1.311648E-03	1.688974E-05
4.941599E+03	1.322166E-03	1.692167E-05
4.951582E+03	1.330003E-03	1.691808E-05
4.961565E+03	1.334384E-03	1.686982E-05
4.971548E+03	1.334735E-03	1.677048E-05
4.981531E+03	1.330793E-03	1.661777E-05
4.991514E+03	1.322709E-03	1.641455E-05
5.001497E+03	1.311078E-03	1.616914E-05
5.011480E+03	1.296926E-03	1.589494E-05
5.021464E+03	1.281611E-03	1.560909E-05
5.031447E+03	1.266744E-03	1.533136E-05
5.041430E+03	1.253812E-03	1.507952E-05
5.051413E+03	1.244334E-03	1.487130E-05
5.061396E+03	1.239521E-03	1.472031E-05
5.071379E+03	1.240285E-03	1.463629E-05
5.081362E+03	1.246991E-03	1.462225E-05
5.091345E+03	1.259791E-03	1.467867E-05
5.101328E+03	1.278241E-03	1.479911E-05
5.111311E+03	1.301755E-03	1.497558E-05
5.121294E+03	1.329261E-03	1.519478E-05
5.131277E+03	1.359712E-03	1.544402E-05
5.141260E+03	1.391822E-03	1.570818E-05
5.151243E+03	1.424381E-03	1.597342E-05
5.161226E+03	1.456300E-03	1.622758E-05
5.171209E+03	1.486684E-03	1.646096E-05
5.181192E+03	1.514874E-03	1.666672E-05
5.191175E+03	1.540453E-03	1.684082E-05
5.201158E+03	1.563220E-03	1.698174E-05
5.211141E+03	1.583216E-03	1.709053E-05
5.221124E+03	1.600403E-03	1.716747E-05
5.231107E+03	1.615058E-03	1.721611E-05
5.241090E+03	1.627205E-03	1.723731E-05
5.251073E+03	1.637093E-03	1.723424E-05
5.261056E+03	1.644721E-03	1.720738E-05
5.271039E+03	1.650085E-03	1.715722E-05
5.281022E+03	1.653125E-03	1.708360E-05
5.291005E+03	1.653803E-03	1.698663E-05
5.300988E+03	1.651863E-03	1.686420E-05
5.310971E+03	1.647317E-03	1.671692E-05
5.320954E+03	1.639946E-03	1.654311E-05
5.330937E+03	1.629842E-03	1.634423E-05
5.340920E+03	1.616988E-03	1.612059E-05
5.350903E+03	1.601592E-03	1.587476E-05
5.360886E+03	1.583804E-03	1.560865E-05
5.370870E+03	1.564169E-03	1.532800E-05
5.380853E+03	1.543140E-03	1.503751E-05
5.390836E+03	1.521570E-03	1.474564E-05
5.400819E+03	1.500311E-03	1.446066E-05
5.410802E+03	1.480178E-03	1.419032E-05
5.420785E+03	1.462231E-03	1.394452E-05
5.430768E+03	1.447222E-03	1.373003E-05
5.440751E+03	1.436019E-03	1.355460E-05
5.450734E+03	1.428897E-03	1.342026E-05
5.460717E+03	1.426030E-03	1.332805E-05
5.470700E+03	1.427198E-03	1.327534E-05
5.480683E+03	1.431626E-03	1.325437E-05
5.490666E+03	1.438108E-03	1.325358E-05
5.500649E+03	1.444756E-03	1.325540E-05
5.510632E+03	1.449682E-03	1.324255E-05
5.520615E+03	1.450944E-03	1.319754E-05
5.530598E+03	1.447081E-03	1.310757E-05
5.540581E+03	1.436994E-03	1.296323E-05
5.550564E+03	1.420446E-03	1.276303E-05
5.560547E+03	1.397395E-03	1.250722E-05
5.570530E+03	1.368463E-03	1.220190E-05
5.580513E+03	1.334306E-03	1.185340E-05
5.590496E+03	1.295666E-03	1.146868E-05
5.600479E+03	1.253246E-03	1.105423E-05
5.610462E+03	1.207523E-03	1.061444E-05
5.620445E+03	1.158940E-03	1.015337E-05
5.630428E+03	1.107992E-03	9.675427E-06
5.640411E+03	1.055213E-03	9.185309E-06
5.650394E+03	1.001432E-03	8.690226E-06
5.660377E+03	9.476530E-04	8.198784E-06
5.670360E+03	8.951348E-04	7.721703E-06
5.680343E+03	8.452919E-04	7.270917E-06
5.690326E+03	7.994967E-04	6.857874E-06
5.700309E+03	7.589403E-04	6.492361E-06
5.710293E+03	7.247229E-04	6.183301E-06
5.720276E+03	6.976253E-04	5.936828E-06
5.730259E+03	6.781509E-04	5.756680E-06
5.740242E+03	6.666089E-04	5.644942E-06
5.750225E+03	6.631517E-04	5.602376E-06
5.760208E+03	6.677556E-04	5.628281E-06
5.770191E+03	6.802126E-04	5.720432E-06
5.780174E+03	7.003046E-04	5.876566E-06
5.790157E+03	7.275158E-04	6.091966E-06
5.800140E+03	7.611795E-04	6.360715E-06
5.810123E+03	8.004226E-04	6.675240E-06
5.820106E+03	8.440624E-04	7.025464E-06
5.830089E+03	8.907403E-04	7.399944E-06
5.840072E+03	9.388869E-04	7.785578E-06
5.850055E+03	9.868041E-04	8.168300E-06
5.860038E+03	1.032854E-03	8.534645E-06
5.870021E+03	1.075592E-03	8.872824E-06
5.880004E+03	1.113793E-03	9.172946E-06
5.889987E+03	1.146522E-03	9.427534E-06
5.899970E+03	1.173286E-03	9.632795E-06
5.909953E+03	1.193898E-03	9.787447E-06
5.919936E+03	1.208416E-03	9.892215E-06
5.929919E+03	1.217177E-03	9.950075E-06
5.939902E+03	1.220767E-03	9.966014E-06
5.949885E+03	1.219677E-03	9.944212E-06
5.959868E+03	1.214541E-03	9.889964E-06
5.969851E+03	1.206050E-03	9.809021E-06
5.979834E+03	1.194850E-03	9.706706E-06
5.989817E+03	1.181582E-03	9.588284E-06
5.999800E+03	1.166830E-03	9.458540E-06
6.009783E+03	1.151221E-03	9.322567E-06
6.019766E+03	1.135458E-03	9.186049E-06
6.029749E+03	1.120036E-03	9.052995E-06
6.039732E+03	1.105553E-03	8.928192E-06
6.049715E+03	1.092465E-03	8.815303E-06
6.059699E+03	1.081252E-03	8.718144E-06
6.069682E+03	1.072279E-03	8.639620E-06
6.079665E+03	1.065839E-03	8.582045E-06
6.089648E+03	1.062120E-03	8.546892E-06
6.099631E+03	1.061343E-03	8.535904E-06
6.109614E+03	1.063663E-03	8.550291E-06
6.119597E+03	1.069190E-03	8.590906E-06
6.129580E+03	1.078143E-03	8.659508E-06
6.139563E+03	1.090761E-03	8.757981E-06
6.149546E+03	1.107370E-03	8.888963E-06
6.159529E+03	1.128425E-03	9.056101E-06
6.169512E+03	1.154488E-03	9.263932E-06
6.179495E+03	1.186383E-03	9.519105E-06
6.189478E+03	1.225049E-03	9.829198E-06
6.199461E+03	1.271465E-03	1.020215E-05
6.209444E+03	1.326712E-03	1.064671E-05
6.219427E+03	1.391399E-03	1.116793E-05
6.229410E+03	1.465714E-03	1.176747E-05
6.239393E+03	1.548841E-03	1.243893E-05
6.249376E+03	1.638674E-03	1.316560E-05
6.259359E+03	1.732102E-03	1.392264E-05
6.269342E+03	1.824792E-03	1.467537E-05
6.279325E+03	1.912078E-03	1.538635E-05
6.289308E+03	1.989279E-03	1.601791E-05
6.299291E+03	2.052377E-03	1.653760E-05
6.309274E+03	2.098530E-03	1.692233E-05
6.319257E+03	2.126277E-03	1.716003E-05
6.329240E+03	2.135831E-03	1.725206E-05
6.339223E+03	2.128705E-03	1.721027E-05
6.349206E+03	2.107086E-03	1.705195E-05
6.359189E+03	2.073917E-03	1.680054E-05
6.369172E+03	2.032149E-03	1.647964E-05
6.379155E+03	1.984504E-03	1.611105E-05
6.389138E+03	1.933188E-03	1.571247E-05
6.399121E+03	1.880104E-03	1.529920E-05
6.409105E+03	1.826307E-03	1.487971E-05
6.419088E+03	1.772682E-03	1.446114E-05
6.429071E+03	1.719466E-03	1.404535E-05
6.439054E+03	1.666961E-03	1.363475E-05
6.449037E+03	1.615107E-03	1.322883E-05
6.459020E+03	1.564095E-03	1.282911E-05
6.469003E+03	1.514172E-03	1.243758E-05
6.478986E+03	1.465755E-03	1.205766E-05
6.488969E+03	1.419413E-03	1.169404E-05
6.498952E+03	1.375808E-03	1.135218E-05
6.508935E+03	1.335586E-03	1.103746E-05
6.518918E+03	1.299202E-03	1.075372E-05
6.528901E+03	1.266699E-03	1.050142E-05
6.538884E+03	1.237680E-03	1.027736E-05
6.548867E+03	1.211511E-03	1.007637E-05
6.558850E+03	1.187475E-03	9.892559E-06
6.568833E+03	1.164864E-03	9.720072E-06
6.578816E+03	1.143030E-03	9.553530E-06
6.588799E+03	1.121436E-03	9.388432E-06
6.598782E+03	1.099682E-03	9.221409E-06
6.608765E+03	1.077514E-03	9.050297E-06
6.618748E+03	1.054821E-03	8.874139E-06
6.628731E+03	1.031618E-03	8.693004E-06
6.638714E+03	1.008014E-03	8.507793E-06
6.648697E+03	9.841888E-04	8.319984E-06
6.658680E+03	9.603577E-04	8.131385E-06
6.668663E+03	9.367504E-04	7.943936E-06
6.678646E+03	9.135865E-04	7.759505E-06
6.688629E+03	8.910682E-04	7.579824E-06
6.698612E+03	8.694009E-04	7.406666E-06
6.708595E+03	8.486488E-04	7.240609E-06
6.718578E+03	8.289513E-04	7.082881E-06
6.728561E+03	8.104076E-04	6.934369E-06
6.738544E+03	7.929808E-04	6.794802E-06
6.748528E+03	7.767328E-04	6.664754E-06
6.758511E+03	7.615636E-04	6.543409E-06
6.768494E+03	7.474747E-04	6.430822E-06
6.778477E+03	7.343553E-04	6.326077E-06
6.788460E+03	7.221234E-04	6.228505E-06
6.798443E+03	7.106813E-04	6.137294E-06
6.808426E+03	7.000500E-04	6.052653E-06
6.818409E+03	6.902069E-04	5.974418E-06
6.828392E+03	6.812401E-04	5.903380E-06
6.838375E+03	6.732054E-04	5.840050E-06
6.848358E+03	6.662928E-04	5.786111E-06
6.858341E+03	6.606943E-04	5.743265E-06
6.868324E+03	6.566397E-04	5.713548E-06
6.878307E+03	6.542639E-04	5.698177E-06
6.888290E+03	6.537494E-04	5.698785E-06
6.898273E+03	6.552189E-04	5.716483E-06
6.908256E+03	6.586660E-04	5.751259E-06
6.918239E+03	6.639960E-04	5.802325E-06
6.928222E+03	6.711110E-04	5.868859E-06
6.938205E+03	6.797419E-04	5.948532E-06
6.948188E+03	6.895806E-04	6.038669E-06
6.958171E+03	7.002746E-04	6.136194E-06
6.968154E+03	7.114586E-04	6.237912E-06
6.978137E+03	7.227893E-04	6.340810E-06
6.988120E+03	7.339775E-04	6.442344E-06
6.998103E+03	7.448135E-04	6.540666E-06
7.008086E+03	7.551811E-04	6.634744E-06
7.018069E+03	7.650974E-04	6.724720E-06
7.028052E+03	7.745725E-04	6.810674E-06
7.038035E+03	7.837954E-04	6.894262E-06
7.048018E+03	7.930234E-04	6.977746E-06
7.058001E+03	8.024677E-04	7.062985E-06
7.067984E+03	8.124850E-04	7.153122E-06
7.077967E+03	8.234730E-04	7.251665E-06
7.087950E+03	8.357526E-04	7.361450E-06
7.097934E+03	8.498069E-04	7.486742E-06
7.107917E+03	8.659790E-04	7.630577E-06
7.117900E+03	8.847443E-04	7.797157E-06
7.127883E+03	9.063876E-04	7.989006E-06
7.137866E+03	9.312353E-04	8.209016E-06
7.147849E+03	9.595203E-04	8.459255E-06
7.157832E+03	9.912239E-04	8.739571E-06
7.167815E+03	1.026339E-03	9.049922E-06
7.177798E+03	1.064514E-03	9.387210E-06
7.187781E+03	1.105335E-03	9.747816E-06
7.197764E+03	1.148144E-03	1.012595E-05
7.207747E+03	1.192127E-03	1.051446E-05
7.217730E+03	1.236118E-03	1.090307E-05
7.227713E+03	1.278912E-03	1.128120E-05
7.237696E+03	1.319108E-03	1.163651E-05
7.247679E+03	1.355208E-03	1.195580E-05
7.257662E+03	1.385706E-03	1.222584E-05
7.267645E+03	1.409136E-03	1.243372E-05
7.277628E+03	1.424452E-03	1.257023E-05
7.287611E+03	1.430782E-03	1.262769E-05
7.297594E+03	1.427719E-03	1.260252E-05
7.307577E+03	1.415505E-03	1.249685E-05
7.317560E+03	1.394827E-03	1.231675E-05
7.327543E+03	1.366870E-03	1.207265E-05
7.337526E+03	1.332927E-03	1.177596E-05
7.347509E+03	1.294558E-03	1.144041E-05
7.357492E+03	1.253410E-03	1.108054E-05
7.367475E+03	1.210802E-03	1.070798E-05
7.377458E+03	1.167828E-03	1.033237E-05
7.387441E+03	1.125419E-03	9.961942E-06
7.397424E+03	1.084198E-03	9.602186E-06
7.407407E+03	1.044568E-03	9.256677E-06
7.417390E+03	1.006777E-03	8.927594E-06
7.427373E+03	9.709285E-04	8.615865E-06
7.437356E+03	9.371691E-04	8.322800E-06
7.447340E+03	9.055905E-04	8.049224E-06
7.457323E+03	8.763007E-04	7.796115E-06
7.467306E+03	8.494284E-04	7.564645E-06
7.477289E+03	8.250839E-04	7.355832E-06
7.487272E+03	8.034576E-04	7.171423E-06
7.497255E+03	7.846850E-04	7.012689E-06
7.507238E+03	7.688633E-04	6.880576E-06
7.517221E+03	7.559960E-04	6.775208E-06
7.527204E+03	7.460729E-04	6.696587E-06
7.537187E+03	7.389523E-04	6.643536E-06
7.547170E+03	7.343905E-04	6.613960E-06
7.557153E+03	7.320202E-04	6.604653E-06
7.567136E+03	7.315161E-04	6.612771E-06
7.577119E+03	7.323862E-04	6.633954E-06
7.587102E+03	7.344039E-04	6.666218E-06
7.597085E+03	7.373070E-04	6.707245E-06
7.607068E+03	7.411009E-04	6.757144E-06
7.617051E+03	7.459257E-04	6.817257E-06
7.627034E+03	7.520313E-04	6.889952E-06
7.637017E+03	7.598217E-04	6.979036E-06
7.647000E+03	7.696671E-04	7.088057E-06
7.656983E+03	7.818166E-04	7.219483E-06
7.666966E+03	7.964238E-04	7.374941E-06
7.676949E+03	8.133923E-04	7.553757E-06
7.686932E+03	8.323436E-04	7.752636E-06
7.696915E+03	8.527731E-04	7.967073E-06
7.706898E+03	8.737690E-04	8.188696E-06
7.716881E+03	8.944927E-04	8.409721E-06
7.726864E+03	9.138211E-04	8.619578E-06
7.736847E+03	9.307182E-04	8.808380E-06
7.746830E+03	9.443480E-04	8.967998E-06
