#wls	flux	fluxerr
1.597285E+03	8.287533E-05	2.605568E-06
1.637217E+03	8.388288E-05	2.630660E-06
1.677149E+03	8.490769E-05	2.655961E-06
1.717081E+03	8.597884E-05	2.682365E-06
1.757013E+03	8.708204E-05	2.709404E-06
1.796945E+03	8.820251E-05	2.736602E-06
1.836877E+03	8.938574E-05	2.765350E-06
1.876809E+03	9.058726E-05	2.794247E-06
1.916742E+03	9.183846E-05	2.824243E-06
1.956674E+03	9.312540E-05	2.854884E-06
1.996606E+03	9.444974E-05	2.886195E-06
2.036538E+03	9.582959E-05	2.918706E-06
2.076470E+03	9.726811E-05	2.952479E-06
2.116402E+03	9.876935E-05	2.987605E-06
2.156334E+03	1.003218E-04	3.023700E-06
2.196266E+03	1.019474E-04	3.061394E-06
2.236198E+03	1.036367E-04	3.100355E-06
2.276131E+03	1.054312E-04	3.141789E-06
2.316063E+03	1.073247E-04	3.185448E-06
2.355995E+03	1.093117E-04	3.231121E-06
2.395927E+03	1.114406E-04	3.280171E-06
2.435859E+03	1.137284E-04	3.333022E-06
2.475791E+03	1.161586E-04	3.389111E-06
2.515723E+03	1.187889E-04	3.450029E-06
2.555655E+03	1.216451E-04	3.516411E-06
2.595588E+03	1.247379E-04	3.588450E-06
2.635520E+03	1.281195E-04	3.667499E-06
2.675452E+03	1.318279E-04	3.754487E-06
2.715384E+03	1.358868E-04	3.849901E-06
2.755316E+03	1.403845E-04	3.956029E-06
2.795248E+03	1.453360E-04	4.073046E-06
2.835180E+03	1.508445E-04	4.203561E-06
2.875112E+03	1.569592E-04	4.348620E-06
2.915044E+03	1.637578E-04	4.509997E-06
2.954977E+03	1.713496E-04	4.690277E-06
2.994909E+03	1.798070E-04	4.890951E-06
3.004892E+03	1.820692E-04	4.944585E-06
3.014875E+03	1.843887E-04	4.999539E-06
3.024858E+03	1.867923E-04	5.056526E-06
3.034841E+03	1.892569E-04	5.114911E-06
3.044824E+03	1.917841E-04	5.174726E-06
3.054807E+03	1.943752E-04	5.236000E-06
3.064790E+03	1.970320E-04	5.298766E-06
3.074773E+03	1.997821E-04	5.363759E-06
3.084756E+03	2.026013E-04	5.430312E-06
3.094739E+03	2.054908E-04	5.498450E-06
3.104722E+03	2.084521E-04	5.568197E-06
3.114705E+03	2.115138E-04	5.640306E-06
3.124688E+03	2.146499E-04	5.714073E-06
3.134671E+03	2.178616E-04	5.789510E-06
3.144654E+03	2.211494E-04	5.866623E-06
3.154637E+03	2.245427E-04	5.946175E-06
3.164620E+03	2.279843E-04	6.026640E-06
3.174603E+03	2.315319E-04	6.109531E-06
3.184586E+03	2.351862E-04	6.194847E-06
3.194569E+03	2.388868E-04	6.280981E-06
3.204552E+03	2.426920E-04	6.369457E-06
3.214535E+03	2.465698E-04	6.459421E-06
3.224518E+03	2.505172E-04	6.550780E-06
3.234501E+03	2.545305E-04	6.643421E-06
3.244484E+03	2.586370E-04	6.738047E-06
3.254467E+03	2.627997E-04	6.833677E-06
3.264450E+03	2.670116E-04	6.930122E-06
3.274433E+03	2.712646E-04	7.027160E-06
3.284416E+03	2.755831E-04	7.125414E-06
3.294400E+03	2.799235E-04	7.223744E-06
3.304383E+03	2.842737E-04	7.321834E-06
3.314366E+03	2.886203E-04	7.419338E-06
3.324349E+03	2.929845E-04	7.516790E-06
3.334332E+03	2.973159E-04	7.612901E-06
3.344315E+03	3.015984E-04	7.707262E-06
3.354298E+03	3.058154E-04	7.799449E-06
3.364281E+03	3.099873E-04	7.889990E-06
3.374264E+03	3.140617E-04	7.977563E-06
3.384247E+03	3.180240E-04	8.061804E-06
3.394230E+03	3.218609E-04	8.142396E-06
3.404213E+03	3.255619E-04	8.219088E-06
3.414196E+03	3.291579E-04	8.292679E-06
3.424179E+03	3.326073E-04	8.362137E-06
3.434162E+03	3.359492E-04	8.428465E-06
3.444145E+03	3.391113E-04	8.489863E-06
3.454128E+03	3.421809E-04	8.548546E-06
3.464111E+03	3.451338E-04	8.603917E-06
3.474094E+03	3.479887E-04	8.656464E-06
3.484077E+03	3.507688E-04	8.706770E-06
3.494060E+03	3.535403E-04	8.756491E-06
3.504043E+03	3.562926E-04	8.805361E-06
3.514026E+03	3.590562E-04	8.854136E-06
3.524009E+03	3.618623E-04	8.903581E-06
3.533992E+03	3.647823E-04	8.955435E-06
3.543975E+03	3.678046E-04	9.009399E-06
3.553958E+03	3.709554E-04	9.066095E-06
3.563941E+03	3.742570E-04	9.126039E-06
3.573924E+03	3.777680E-04	9.190630E-06
3.583907E+03	3.814169E-04	9.258101E-06
3.593890E+03	3.852915E-04	9.330548E-06
3.603873E+03	3.893480E-04	9.406876E-06
3.613856E+03	3.936198E-04	9.487855E-06
3.623839E+03	3.980080E-04	9.571066E-06
3.633823E+03	4.025788E-04	9.658080E-06
3.643806E+03	4.072688E-04	9.747341E-06
3.653789E+03	4.120559E-04	9.838303E-06
3.663772E+03	4.169635E-04	9.931499E-06
3.673755E+03	4.218860E-04	1.002440E-05
3.683738E+03	4.268992E-04	1.011880E-05
3.693721E+03	4.319532E-04	1.021348E-05
3.703704E+03	4.370956E-04	1.030958E-05
3.713687E+03	4.422480E-04	1.040523E-05
3.723670E+03	4.475235E-04	1.050307E-05
3.733653E+03	4.528627E-04	1.060169E-05
3.743636E+03	4.584003E-04	1.070422E-05
3.753619E+03	4.641411E-04	1.081073E-05
3.763602E+03	4.701911E-04	1.092365E-05
3.773585E+03	4.765183E-04	1.104218E-05
3.783568E+03	4.832837E-04	1.116998E-05
3.793551E+03	4.905045E-04	1.130737E-05
3.803534E+03	4.982416E-04	1.145566E-05
3.813517E+03	5.065489E-04	1.161600E-05
3.823500E+03	5.154703E-04	1.178927E-05
3.833483E+03	5.250886E-04	1.197725E-05
3.843466E+03	5.353169E-04	1.217783E-05
3.853449E+03	5.462567E-04	1.239319E-05
3.863432E+03	5.578365E-04	1.262158E-05
3.873415E+03	5.700138E-04	1.286191E-05
3.883398E+03	5.827281E-04	1.311271E-05
3.893381E+03	5.959553E-04	1.337333E-05
3.903364E+03	6.094822E-04	1.363890E-05
3.913347E+03	6.233096E-04	1.390937E-05
3.923330E+03	6.371917E-04	1.417920E-05
3.933313E+03	6.511109E-04	1.444799E-05
3.943296E+03	6.648656E-04	1.471126E-05
3.953279E+03	6.783142E-04	1.496592E-05
3.963262E+03	6.913180E-04	1.520896E-05
3.973245E+03	7.037495E-04	1.543767E-05
3.983229E+03	7.155614E-04	1.565111E-05
3.993212E+03	7.265248E-04	1.584440E-05
4.003195E+03	7.366307E-04	1.601751E-05
4.013178E+03	7.458959E-04	1.617095E-05
4.023161E+03	7.541574E-04	1.630138E-05
4.033144E+03	7.615524E-04	1.641193E-05
4.043127E+03	7.680369E-04	1.650182E-05
4.053110E+03	7.735891E-04	1.657077E-05
4.063093E+03	7.784207E-04	1.662346E-05
4.073076E+03	7.825507E-04	1.666046E-05
4.083059E+03	7.860855E-04	1.668414E-05
4.093042E+03	7.891434E-04	1.669715E-05
4.103025E+03	7.918505E-04	1.670221E-05
4.113008E+03	7.942686E-04	1.670071E-05
4.122991E+03	7.966679E-04	1.669837E-05
4.132974E+03	7.991068E-04	1.669641E-05
4.142957E+03	8.017066E-04	1.669735E-05
4.152940E+03	8.045780E-04	1.670345E-05
4.162923E+03	8.078215E-04	1.671675E-05
4.172906E+03	8.115209E-04	1.673889E-05
4.182889E+03	8.157455E-04	1.677121E-05
4.192872E+03	8.205477E-04	1.681468E-05
4.202855E+03	8.258913E-04	1.686844E-05
4.212838E+03	8.319322E-04	1.693555E-05
4.222821E+03	8.385996E-04	1.701444E-05
4.232804E+03	8.458037E-04	1.710316E-05
4.242787E+03	8.536528E-04	1.720378E-05
4.252770E+03	8.619561E-04	1.731234E-05
4.262753E+03	8.707981E-04	1.743044E-05
4.272736E+03	8.799665E-04	1.755373E-05
4.282719E+03	8.894590E-04	1.768210E-05
4.292702E+03	8.992754E-04	1.781548E-05
4.302685E+03	9.091954E-04	1.794944E-05
4.312668E+03	9.192278E-04	1.808414E-05
4.322651E+03	9.292421E-04	1.821700E-05
4.332635E+03	9.393517E-04	1.835024E-05
4.342618E+03	9.494605E-04	1.848196E-05
4.352601E+03	9.594911E-04	1.861066E-05
4.362584E+03	9.696151E-04	1.873969E-05
4.372567E+03	9.797107E-04	1.886666E-05
4.382550E+03	9.898947E-04	1.899384E-05
4.392533E+03	1.000205E-03	1.912193E-05
4.402516E+03	1.010677E-03	1.925156E-05
4.412499E+03	1.021257E-03	1.938170E-05
4.422482E+03	1.032133E-03	1.951589E-05
4.432465E+03	1.043164E-03	1.965137E-05
4.442448E+03	1.054442E-03	1.978989E-05
4.452431E+03	1.065967E-03	1.993139E-05
4.462414E+03	1.077724E-03	2.007551E-05
4.472397E+03	1.089591E-03	2.021995E-05
4.482380E+03	1.101590E-03	2.036507E-05
4.492363E+03	1.113633E-03	2.050927E-05
4.502346E+03	1.125612E-03	2.065050E-05
4.512329E+03	1.137392E-03	2.078635E-05
4.522312E+03	1.148736E-03	2.091251E-05
4.532295E+03	1.159654E-03	2.102929E-05
4.542278E+03	1.169714E-03	2.112894E-05
4.552261E+03	1.179014E-03	2.121341E-05
4.562244E+03	1.187308E-03	2.127849E-05
4.572227E+03	1.194369E-03	2.132029E-05
4.582210E+03	1.200171E-03	2.133864E-05
4.592193E+03	1.204628E-03	2.133227E-05
4.602176E+03	1.207598E-03	2.129898E-05
4.612159E+03	1.209155E-03	2.124036E-05
4.622142E+03	1.209314E-03	2.115701E-05
4.632125E+03	1.208129E-03	2.105014E-05
4.642108E+03	1.205590E-03	2.091991E-05
4.652091E+03	1.201896E-03	2.077000E-05
4.662074E+03	1.197176E-03	2.060291E-05
4.672058E+03	1.191574E-03	2.042132E-05
4.682041E+03	1.185158E-03	2.022660E-05
4.692024E+03	1.178180E-03	2.002318E-05
4.702007E+03	1.170714E-03	1.981246E-05
4.711990E+03	1.163090E-03	1.960012E-05
4.721973E+03	1.155292E-03	1.938590E-05
4.731956E+03	1.147547E-03	1.917365E-05
4.741939E+03	1.139905E-03	1.896419E-05
4.751922E+03	1.132566E-03	1.876083E-05
4.761905E+03	1.125637E-03	1.856523E-05
4.771888E+03	1.119123E-03	1.837746E-05
4.781871E+03	1.113181E-03	1.819994E-05
4.791854E+03	1.107868E-03	1.803350E-05
4.801837E+03	1.103223E-03	1.787864E-05
4.811820E+03	1.099194E-03	1.773440E-05
4.821803E+03	1.095790E-03	1.760076E-05
4.831786E+03	1.093159E-03	1.747999E-05
4.841769E+03	1.091124E-03	1.736909E-05
4.851752E+03	1.089722E-03	1.726854E-05
4.861735E+03	1.088830E-03	1.717625E-05
4.871718E+03	1.088460E-03	1.709232E-05
4.881701E+03	1.088541E-03	1.701552E-05
4.891684E+03	1.088920E-03	1.694339E-05
4.901667E+03	1.089666E-03	1.687694E-05
4.911650E+03	1.090473E-03	1.681137E-05
4.921633E+03	1.091492E-03	1.674900E-05
4.931616E+03	1.092506E-03	1.668648E-05
4.941599E+03	1.093462E-03	1.662301E-05
4.951582E+03	1.094402E-03	1.655924E-05
4.961565E+03	1.095313E-03	1.649498E-05
4.971548E+03	1.096204E-03	1.643040E-05
4.981531E+03	1.097034E-03	1.636488E-05
4.991514E+03	1.097936E-03	1.630044E-05
5.001497E+03	1.098991E-03	1.623824E-05
5.011480E+03	1.100218E-03	1.617857E-05
5.021464E+03	1.101728E-03	1.612299E-05
5.031447E+03	1.103783E-03	1.607530E-05
5.041430E+03	1.106347E-03	1.603484E-05
5.051413E+03	1.109596E-03	1.600410E-05
5.061396E+03	1.113544E-03	1.598310E-05
5.071379E+03	1.118332E-03	1.597374E-05
5.081362E+03	1.123997E-03	1.597639E-05
5.091345E+03	1.130474E-03	1.598995E-05
5.101328E+03	1.137816E-03	1.601502E-05
5.111311E+03	1.145892E-03	1.604961E-05
5.121294E+03	1.154775E-03	1.609458E-05
5.131277E+03	1.164123E-03	1.614504E-05
5.141260E+03	1.174037E-03	1.620234E-05
5.151243E+03	1.184215E-03	1.626220E-05
5.161226E+03	1.194575E-03	1.632350E-05
5.171209E+03	1.204874E-03	1.638289E-05
5.181192E+03	1.215029E-03	1.643930E-05
5.191175E+03	1.224881E-03	1.649065E-05
5.201158E+03	1.234200E-03	1.653394E-05
5.211141E+03	1.242934E-03	1.656858E-05
5.221124E+03	1.250962E-03	1.659315E-05
5.231107E+03	1.258101E-03	1.660537E-05
5.241090E+03	1.264351E-03	1.660545E-05
5.251073E+03	1.269648E-03	1.659275E-05
5.261056E+03	1.273866E-03	1.656584E-05
5.271039E+03	1.277064E-03	1.652571E-05
5.281022E+03	1.279238E-03	1.647254E-05
5.291005E+03	1.280317E-03	1.640562E-05
5.300988E+03	1.280417E-03	1.632666E-05
5.310971E+03	1.279585E-03	1.623648E-05
5.320954E+03	1.277802E-03	1.613501E-05
5.330937E+03	1.275230E-03	1.602448E-05
5.340920E+03	1.271873E-03	1.590511E-05
5.350903E+03	1.267994E-03	1.578033E-05
5.360886E+03	1.263528E-03	1.564944E-05
5.370870E+03	1.258576E-03	1.551379E-05
5.380853E+03	1.253398E-03	1.537668E-05
5.390836E+03	1.247912E-03	1.523716E-05
5.400819E+03	1.242186E-03	1.509612E-05
5.410802E+03	1.236422E-03	1.495604E-05
5.420785E+03	1.230469E-03	1.481515E-05
5.430768E+03	1.224304E-03	1.467318E-05
5.440751E+03	1.218018E-03	1.453127E-05
5.450734E+03	1.211338E-03	1.438621E-05
5.460717E+03	1.204174E-03	1.423699E-05
5.470700E+03	1.196223E-03	1.408013E-05
5.480683E+03	1.187317E-03	1.391374E-05
5.490666E+03	1.177284E-03	1.373593E-05
5.500649E+03	1.166084E-03	1.354640E-05
5.510632E+03	1.153663E-03	1.334464E-05
5.520615E+03	1.140113E-03	1.313187E-05
5.530598E+03	1.125435E-03	1.290822E-05
5.540581E+03	1.109562E-03	1.267307E-05
5.550564E+03	1.092589E-03	1.242760E-05
5.560547E+03	1.074560E-03	1.217246E-05
5.570530E+03	1.055555E-03	1.190862E-05
5.580513E+03	1.035616E-03	1.163666E-05
5.590496E+03	1.014954E-03	1.135904E-05
5.600479E+03	9.937467E-04	1.107777E-05
5.610462E+03	9.721976E-04	1.079514E-05
5.620445E+03	9.504725E-04	1.051298E-05
5.630428E+03	9.288820E-04	1.023470E-05
5.640411E+03	9.076254E-04	9.962418E-06
5.650394E+03	8.870842E-04	9.700229E-06
5.660377E+03	8.674034E-04	9.449578E-06
5.670360E+03	8.488943E-04	9.213702E-06
5.680343E+03	8.317940E-04	8.994989E-06
5.690326E+03	8.162675E-04	8.795015E-06
5.700309E+03	8.026099E-04	8.616735E-06
5.710293E+03	7.908782E-04	8.460513E-06
5.720276E+03	7.812004E-04	8.327472E-06
5.730259E+03	7.737670E-04	8.219382E-06
5.740242E+03	7.685306E-04	8.135478E-06
5.750225E+03	7.655544E-04	8.076171E-06
5.760208E+03	7.648116E-04	8.040926E-06
5.770191E+03	7.662354E-04	8.028798E-06
5.780174E+03	7.696714E-04	8.037945E-06
5.790157E+03	7.750245E-04	8.067167E-06
5.800140E+03	7.821153E-04	8.114410E-06
5.810123E+03	7.907291E-04	8.177287E-06
5.820106E+03	8.005724E-04	8.252627E-06
5.830089E+03	8.114810E-04	8.338635E-06
5.840072E+03	8.230663E-04	8.431238E-06
5.850055E+03	8.350870E-04	8.527923E-06
5.860038E+03	8.471953E-04	8.625122E-06
5.870021E+03	8.592148E-04	8.721056E-06
5.880004E+03	8.707704E-04	8.811951E-06
5.889987E+03	8.816800E-04	8.896030E-06
5.899970E+03	8.917409E-04	8.971328E-06
5.909953E+03	9.007952E-04	9.036349E-06
5.919936E+03	9.086709E-04	9.089476E-06
5.929919E+03	9.154217E-04	9.131358E-06
5.939902E+03	9.209150E-04	9.160783E-06
5.949885E+03	9.252435E-04	9.178786E-06
5.959868E+03	9.284854E-04	9.186245E-06
5.969851E+03	9.307574E-04	9.184404E-06
5.979834E+03	9.321528E-04	9.174269E-06
5.989817E+03	9.329120E-04	9.158272E-06
5.999800E+03	9.332971E-04	9.139034E-06
6.009783E+03	9.334079E-04	9.117565E-06
6.019766E+03	9.335359E-04	9.096729E-06
6.029749E+03	9.338561E-04	9.078235E-06
6.039732E+03	9.347277E-04	9.065560E-06
6.049715E+03	9.362672E-04	9.059802E-06
6.059699E+03	9.388263E-04	9.064321E-06
6.069682E+03	9.425090E-04	9.080067E-06
6.079665E+03	9.475896E-04	9.109619E-06
6.089648E+03	9.542714E-04	9.154858E-06
6.099631E+03	9.626809E-04	9.216921E-06
6.109614E+03	9.731143E-04	9.298560E-06
6.119597E+03	9.855983E-04	9.399944E-06
6.129580E+03	1.000385E-03	9.523396E-06
6.139563E+03	1.017441E-03	9.668510E-06
6.149546E+03	1.036886E-03	9.836349E-06
6.159529E+03	1.058726E-03	1.002690E-05
6.169512E+03	1.082911E-03	1.023963E-05
6.179495E+03	1.109319E-03	1.047334E-05
6.189478E+03	1.137671E-03	1.072538E-05
6.199461E+03	1.167813E-03	1.099426E-05
6.209444E+03	1.199182E-03	1.127473E-05
6.219427E+03	1.231395E-03	1.156319E-05
6.229410E+03	1.263677E-03	1.185243E-05
6.239393E+03	1.295534E-03	1.213789E-05
6.249376E+03	1.326516E-03	1.241539E-05
6.259359E+03	1.356195E-03	1.268099E-05
6.269342E+03	1.384116E-03	1.293053E-05
6.279325E+03	1.409709E-03	1.315876E-05
6.289308E+03	1.432694E-03	1.336314E-05
6.299291E+03	1.452459E-03	1.353804E-05
6.309274E+03	1.468827E-03	1.368189E-05
6.319257E+03	1.481320E-03	1.379030E-05
6.329240E+03	1.489941E-03	1.386336E-05
6.339223E+03	1.494404E-03	1.389847E-05
6.349206E+03	1.494821E-03	1.389669E-05
6.359189E+03	1.491305E-03	1.385909E-05
6.369172E+03	1.484057E-03	1.378758E-05
6.379155E+03	1.473355E-03	1.368471E-05
6.389138E+03	1.459529E-03	1.355354E-05
6.399121E+03	1.442856E-03	1.339663E-05
6.409105E+03	1.423913E-03	1.321931E-05
6.419088E+03	1.402996E-03	1.302426E-05
6.429071E+03	1.380389E-03	1.281412E-05
6.439054E+03	1.356627E-03	1.259378E-05
6.449037E+03	1.331847E-03	1.236449E-05
6.459020E+03	1.306415E-03	1.212958E-05
6.469003E+03	1.280648E-03	1.189196E-05
6.478986E+03	1.254559E-03	1.165171E-05
6.488969E+03	1.228372E-03	1.141084E-05
6.498952E+03	1.202173E-03	1.117009E-05
6.508935E+03	1.176078E-03	1.093051E-05
6.518918E+03	1.149957E-03	1.069083E-05
6.528901E+03	1.123981E-03	1.045260E-05
6.538884E+03	1.098316E-03	1.021731E-05
6.548867E+03	1.073053E-03	9.985803E-06
6.558850E+03	1.048452E-03	9.760446E-06
6.568833E+03	1.024517E-03	9.541249E-06
6.578816E+03	1.001290E-03	9.328597E-06
6.588799E+03	9.787911E-04	9.122648E-06
6.598782E+03	9.569630E-04	8.922851E-06
6.608765E+03	9.359251E-04	8.730308E-06
6.618748E+03	9.156002E-04	8.544287E-06
6.628731E+03	8.959118E-04	8.364065E-06
6.638714E+03	8.769637E-04	8.190604E-06
6.648697E+03	8.586236E-04	8.022661E-06
6.658680E+03	8.409957E-04	7.861206E-06
6.668663E+03	8.239580E-04	7.705096E-06
6.678646E+03	8.076183E-04	7.555337E-06
6.688629E+03	7.918657E-04	7.410889E-06
6.698612E+03	7.767575E-04	7.272291E-06
6.708595E+03	7.623480E-04	7.140052E-06
6.718578E+03	7.485413E-04	7.013275E-06
6.728561E+03	7.353942E-04	6.892498E-06
6.738544E+03	7.229152E-04	6.777801E-06
6.748528E+03	7.111581E-04	6.669696E-06
6.758511E+03	7.000363E-04	6.567373E-06
6.768494E+03	6.896062E-04	6.471367E-06
6.778477E+03	6.798757E-04	6.381758E-06
6.788460E+03	6.708550E-04	6.298646E-06
6.798443E+03	6.625537E-04	6.222127E-06
6.808426E+03	6.549826E-04	6.152309E-06
6.818409E+03	6.481527E-04	6.089298E-06
6.828392E+03	6.420745E-04	6.033201E-06
6.838375E+03	6.367585E-04	5.984119E-06
6.848358E+03	6.322141E-04	5.942146E-06
6.858341E+03	6.284488E-04	5.907356E-06
6.868324E+03	6.254691E-04	5.879814E-06
6.878307E+03	6.232759E-04	5.859532E-06
6.888290E+03	6.218259E-04	5.846104E-06
6.898273E+03	6.211971E-04	5.840268E-06
6.908256E+03	6.213376E-04	5.841535E-06
6.918239E+03	6.222328E-04	5.849770E-06
6.928222E+03	6.238239E-04	5.864419E-06
6.938205E+03	6.261739E-04	5.886078E-06
6.948188E+03	6.292191E-04	5.914146E-06
6.958171E+03	6.328951E-04	5.948016E-06
6.968154E+03	6.372667E-04	5.988298E-06
6.978137E+03	6.422296E-04	6.034012E-06
6.988120E+03	6.478581E-04	6.085855E-06
6.998103E+03	6.540571E-04	6.142931E-06
7.008086E+03	6.609139E-04	6.206062E-06
7.018069E+03	6.683463E-04	6.274475E-06
7.028052E+03	6.764108E-04	6.348701E-06
7.038035E+03	6.851754E-04	6.429377E-06
7.048018E+03	6.945709E-04	6.515856E-06
7.058001E+03	7.046721E-04	6.608839E-06
7.067984E+03	7.155089E-04	6.708609E-06
7.077967E+03	7.271084E-04	6.815421E-06
7.087950E+03	7.395426E-04	6.929954E-06
7.097934E+03	7.527243E-04	7.051391E-06
7.107917E+03	7.667011E-04	7.180186E-06
7.117900E+03	7.814545E-04	7.316170E-06
7.127883E+03	7.969412E-04	7.458946E-06
7.137866E+03	8.130378E-04	7.607368E-06
7.147849E+03	8.297539E-04	7.761541E-06
7.157832E+03	8.469024E-04	7.919728E-06
7.167815E+03	8.643122E-04	8.080351E-06
7.177798E+03	8.817174E-04	8.240943E-06
7.187781E+03	8.989967E-04	8.400401E-06
7.197764E+03	9.158161E-04	8.555631E-06
7.207747E+03	9.318105E-04	8.703258E-06
7.217730E+03	9.467877E-04	8.841524E-06
7.227713E+03	9.602899E-04	8.966195E-06
7.237696E+03	9.720563E-04	9.074876E-06
7.247679E+03	9.817789E-04	9.164735E-06
7.257662E+03	9.892488E-04	9.233863E-06
7.267645E+03	9.940949E-04	9.278835E-06
7.277628E+03	9.962088E-04	9.298676E-06
7.287611E+03	9.954784E-04	9.292370E-06
7.297594E+03	9.918648E-04	9.259578E-06
7.307577E+03	9.853347E-04	9.200007E-06
7.317560E+03	9.761337E-04	9.115959E-06
7.327543E+03	9.643681E-04	9.008429E-06
7.337526E+03	9.502710E-04	8.879588E-06
7.347509E+03	9.340573E-04	8.731431E-06
7.357492E+03	9.161092E-04	8.567510E-06
7.367475E+03	8.968242E-04	8.391520E-06
7.377458E+03	8.764171E-04	8.205442E-06
7.387441E+03	8.552906E-04	8.013019E-06
7.397424E+03	8.337688E-04	7.817258E-06
7.407407E+03	8.121565E-04	7.620990E-06
7.417390E+03	7.907290E-04	7.426773E-06
7.427373E+03	7.697344E-04	7.236919E-06
7.437356E+03	7.493883E-04	7.053441E-06
7.447340E+03	7.298241E-04	6.877588E-06
7.457323E+03	7.113025E-04	6.711814E-06
7.467306E+03	6.938478E-04	6.556361E-06
7.477289E+03	6.776632E-04	6.413162E-06
7.487272E+03	6.627320E-04	6.282088E-06
7.497255E+03	6.491649E-04	6.164222E-06
7.507238E+03	6.370095E-04	6.060061E-06
7.517221E+03	6.262991E-04	5.969977E-06
7.527204E+03	6.170152E-04	5.893856E-06
7.537187E+03	6.092635E-04	5.832785E-06
7.547170E+03	6.030101E-04	5.786512E-06
7.557153E+03	5.982148E-04	5.754723E-06
7.567136E+03	5.949133E-04	5.737843E-06
7.577119E+03	5.931197E-04	5.736100E-06
7.587102E+03	5.926910E-04	5.748211E-06
7.597085E+03	5.935840E-04	5.773862E-06
7.607068E+03	5.956788E-04	5.811989E-06
7.617051E+03	5.990359E-04	5.863293E-06
7.627034E+03	6.036010E-04	5.927361E-06
7.637017E+03	6.092899E-04	6.003488E-06
7.647000E+03	6.161134E-04	6.091901E-06
7.656983E+03	6.238778E-04	6.190812E-06
7.666966E+03	6.325038E-04	6.299547E-06
7.676949E+03	6.418527E-04	6.416834E-06
7.686932E+03	6.517762E-04	6.541285E-06
7.696915E+03	6.620708E-04	6.670940E-06
7.706898E+03	6.726704E-04	6.805197E-06
7.716881E+03	6.833162E-04	6.941489E-06
7.726864E+03	6.938976E-04	7.078715E-06
7.736847E+03	7.043139E-04	7.215858E-06
7.746830E+03	7.142710E-04	7.349889E-06
