#wls	flux	fluxerr
1.597285E+03	6.252457E-05	3.378471E-06
1.637217E+03	6.352544E-05	3.415526E-06
1.677149E+03	6.457981E-05	3.454511E-06
1.717081E+03	6.567923E-05	3.494907E-06
1.757013E+03	6.683802E-05	3.537406E-06
1.796945E+03	6.805976E-05	3.582116E-06
1.836877E+03	6.933641E-05	3.628532E-06
1.876809E+03	7.068382E-05	3.677397E-06
1.916742E+03	7.209444E-05	3.728222E-06
1.956674E+03	7.358546E-05	3.781795E-06
1.996606E+03	7.516261E-05	3.838294E-06
2.036538E+03	7.683239E-05	3.897925E-06
2.076470E+03	7.858855E-05	3.960238E-06
2.116402E+03	8.045175E-05	4.026136E-06
2.156334E+03	8.243065E-05	4.095888E-06
2.196266E+03	8.453495E-05	4.169800E-06
2.236198E+03	8.676073E-05	4.247491E-06
2.276131E+03	8.914841E-05	4.330734E-06
2.316063E+03	9.168155E-05	4.418493E-06
2.355995E+03	9.438892E-05	4.511911E-06
2.395927E+03	9.730209E-05	4.612211E-06
2.435859E+03	1.004066E-04	4.718395E-06
2.475791E+03	1.037368E-04	4.831751E-06
2.515723E+03	1.073133E-04	4.952863E-06
2.555655E+03	1.111582E-04	5.082345E-06
2.595588E+03	1.152960E-04	5.220858E-06
2.635520E+03	1.197528E-04	5.369097E-06
2.675452E+03	1.245575E-04	5.527798E-06
2.715384E+03	1.297615E-04	5.698634E-06
2.755316E+03	1.353580E-04	5.880626E-06
2.795248E+03	1.414028E-04	6.075496E-06
2.835180E+03	1.479576E-04	6.285074E-06
2.875112E+03	1.550179E-04	6.508278E-06
2.915044E+03	1.626726E-04	6.747896E-06
2.954977E+03	1.709397E-04	7.003603E-06
2.994909E+03	1.798557E-04	7.275761E-06
3.004892E+03	1.821782E-04	7.345913E-06
3.014875E+03	1.845692E-04	7.418125E-06
3.024858E+03	1.869729E-04	7.490136E-06
3.034841E+03	1.894459E-04	7.564189E-06
3.044824E+03	1.919599E-04	7.639135E-06
3.054807E+03	1.944852E-04	7.713777E-06
3.064790E+03	1.970799E-04	7.790396E-06
3.074773E+03	1.997142E-04	7.867796E-06
3.084756E+03	2.023874E-04	7.945924E-06
3.094739E+03	2.050984E-04	8.024724E-06
3.104722E+03	2.078459E-04	8.104125E-06
3.114705E+03	2.106284E-04	8.184049E-06
3.124688E+03	2.134440E-04	8.264408E-06
3.134671E+03	2.163229E-04	8.346344E-06
3.144654E+03	2.191984E-04	8.427272E-06
3.154637E+03	2.221325E-04	8.509563E-06
3.164620E+03	2.250564E-04	8.590562E-06
3.174603E+03	2.280328E-04	8.672655E-06
3.184586E+03	2.309905E-04	8.753121E-06
3.194569E+03	2.339928E-04	8.834355E-06
3.204552E+03	2.370010E-04	8.914878E-06
3.214535E+03	2.400097E-04	8.994481E-06
3.224518E+03	2.429774E-04	9.071613E-06
3.234501E+03	2.459684E-04	9.148684E-06
3.244484E+03	2.489408E-04	9.224128E-06
3.254467E+03	2.519242E-04	9.299035E-06
3.264450E+03	2.548378E-04	9.370439E-06
3.274433E+03	2.577102E-04	9.439405E-06
3.284416E+03	2.605332E-04	9.505657E-06
3.294400E+03	2.632986E-04	9.568913E-06
3.304383E+03	2.660366E-04	9.630288E-06
3.314366E+03	2.686624E-04	9.686736E-06
3.324349E+03	2.712452E-04	9.740788E-06
3.334332E+03	2.736995E-04	9.789408E-06
3.344315E+03	2.760969E-04	9.835192E-06
3.354298E+03	2.783919E-04	9.876558E-06
3.364281E+03	2.805792E-04	9.913362E-06
3.374264E+03	2.826145E-04	9.944087E-06
3.384247E+03	2.845757E-04	9.971530E-06
3.394230E+03	2.864216E-04	9.994292E-06
3.404213E+03	2.881534E-04	1.001246E-05
3.414196E+03	2.897742E-04	1.002619E-05
3.424179E+03	2.912893E-04	1.003572E-05
3.434162E+03	2.927069E-04	1.004137E-05
3.444145E+03	2.940786E-04	1.004495E-05
3.454128E+03	2.953351E-04	1.004413E-05
3.464111E+03	2.965331E-04	1.004089E-05
3.474094E+03	2.977326E-04	1.003726E-05
3.484077E+03	2.988706E-04	1.003113E-05
3.494060E+03	3.000530E-04	1.002608E-05
3.504043E+03	3.012202E-04	1.002010E-05
3.514026E+03	3.024810E-04	1.001681E-05
3.524009E+03	3.037777E-04	1.001426E-05
3.533992E+03	3.052203E-04	1.001605E-05
3.543975E+03	3.067927E-04	1.002158E-05
3.553958E+03	3.084767E-04	1.003022E-05
3.563941E+03	3.103800E-04	1.004539E-05
3.573924E+03	3.124798E-04	1.006627E-05
3.583907E+03	3.147910E-04	1.009324E-05
3.593890E+03	3.173214E-04	1.012647E-05
3.603873E+03	3.200695E-04	1.016581E-05
3.613856E+03	3.230259E-04	1.021086E-05
3.623839E+03	3.261755E-04	1.026106E-05
3.633823E+03	3.294997E-04	1.031574E-05
3.643806E+03	3.329782E-04	1.037419E-05
3.653789E+03	3.366356E-04	1.043710E-05
3.663772E+03	3.403607E-04	1.050098E-05
3.673755E+03	3.441804E-04	1.056661E-05
3.683738E+03	3.480793E-04	1.063349E-05
3.693721E+03	3.520932E-04	1.070266E-05
3.703704E+03	3.561215E-04	1.077105E-05
3.713687E+03	3.602102E-04	1.084003E-05
3.723670E+03	3.644133E-04	1.091119E-05
3.733653E+03	3.686458E-04	1.098195E-05
3.743636E+03	3.730236E-04	1.105575E-05
3.753619E+03	3.774721E-04	1.113031E-05
3.763602E+03	3.821209E-04	1.120942E-05
3.773585E+03	3.869036E-04	1.129105E-05
3.783568E+03	3.919599E-04	1.137921E-05
3.793551E+03	3.972794E-04	1.147347E-05
3.803534E+03	4.028498E-04	1.157337E-05
3.813517E+03	4.088166E-04	1.168296E-05
3.823500E+03	4.151107E-04	1.180011E-05
3.833483E+03	4.218735E-04	1.192868E-05
3.843466E+03	4.290794E-04	1.206773E-05
3.853449E+03	4.367492E-04	1.221767E-05
3.863432E+03	4.448374E-04	1.237704E-05
3.873415E+03	4.534615E-04	1.254889E-05
3.883398E+03	4.625569E-04	1.273124E-05
3.893381E+03	4.721043E-04	1.292335E-05
3.903364E+03	4.820103E-04	1.312250E-05
3.913347E+03	4.923548E-04	1.333071E-05
3.923330E+03	5.030210E-04	1.354464E-05
3.933313E+03	5.139412E-04	1.376238E-05
3.943296E+03	5.250366E-04	1.398171E-05
3.953279E+03	5.361497E-04	1.419843E-05
3.963262E+03	5.473193E-04	1.441357E-05
3.973245E+03	5.583751E-04	1.462266E-05
3.983229E+03	5.692101E-04	1.482300E-05
3.993212E+03	5.797190E-04	1.501198E-05
4.003195E+03	5.897237E-04	1.518519E-05
4.013178E+03	5.992782E-04	1.534426E-05
4.023161E+03	6.082241E-04	1.548538E-05
4.033144E+03	6.164922E-04	1.560709E-05
4.043127E+03	6.240314E-04	1.570843E-05
4.053110E+03	6.307293E-04	1.578692E-05
4.063093E+03	6.367332E-04	1.584663E-05
4.073076E+03	6.419736E-04	1.588615E-05
4.083059E+03	6.464819E-04	1.590661E-05
4.093042E+03	6.502271E-04	1.590759E-05
4.103025E+03	6.534371E-04	1.589497E-05
4.113008E+03	6.561119E-04	1.586901E-05
4.122991E+03	6.582612E-04	1.583018E-05
4.132974E+03	6.601450E-04	1.578495E-05
4.142957E+03	6.617832E-04	1.573392E-05
4.152940E+03	6.631931E-04	1.567762E-05
4.162923E+03	6.646344E-04	1.562228E-05
4.172906E+03	6.660327E-04	1.556616E-05
4.182889E+03	6.676313E-04	1.551496E-05
4.192872E+03	6.693372E-04	1.546649E-05
4.202855E+03	6.713738E-04	1.542584E-05
4.212838E+03	6.736246E-04	1.539027E-05
4.222821E+03	6.762914E-04	1.536430E-05
4.232804E+03	6.792354E-04	1.534467E-05
4.242787E+03	6.825544E-04	1.533349E-05
4.252770E+03	6.863376E-04	1.533266E-05
4.262753E+03	6.904167E-04	1.533830E-05
4.272736E+03	6.948620E-04	1.535188E-05
4.282719E+03	6.996556E-04	1.537293E-05
4.292702E+03	7.047697E-04	1.540074E-05
4.302685E+03	7.101724E-04	1.543456E-05
4.312668E+03	7.158247E-04	1.547349E-05
4.322651E+03	7.216850E-04	1.551659E-05
4.332635E+03	7.277096E-04	1.556290E-05
4.342618E+03	7.338558E-04	1.561151E-05
4.352601E+03	7.400839E-04	1.566159E-05
4.362584E+03	7.463640E-04	1.571255E-05
4.372567E+03	7.526822E-04	1.576412E-05
4.382550E+03	7.589576E-04	1.581467E-05
4.392533E+03	7.654083E-04	1.586878E-05
4.402516E+03	7.719210E-04	1.592412E-05
4.412499E+03	7.787639E-04	1.598624E-05
4.422482E+03	7.858439E-04	1.605320E-05
4.432465E+03	7.934314E-04	1.613048E-05
4.442448E+03	8.014094E-04	1.621563E-05
4.452431E+03	8.099141E-04	1.631132E-05
4.462414E+03	8.190508E-04	1.641951E-05
4.472397E+03	8.286004E-04	1.653567E-05
4.482380E+03	8.385841E-04	1.666013E-05
4.492363E+03	8.488829E-04	1.679043E-05
4.502346E+03	8.593367E-04	1.692335E-05
4.512329E+03	8.697470E-04	1.705497E-05
4.522312E+03	8.797855E-04	1.717890E-05
4.532295E+03	8.894155E-04	1.729452E-05
4.542278E+03	8.982958E-04	1.739534E-05
4.552261E+03	9.060974E-04	1.747518E-05
4.562244E+03	9.128364E-04	1.753461E-05
4.572227E+03	9.181525E-04	1.756696E-05
4.582210E+03	9.221590E-04	1.757469E-05
4.592193E+03	9.246032E-04	1.755329E-05
4.602176E+03	9.256059E-04	1.750534E-05
4.612159E+03	9.252331E-04	1.743236E-05
4.622142E+03	9.235955E-04	1.733669E-05
4.632125E+03	9.208386E-04	1.722128E-05
4.642108E+03	9.171290E-04	1.708940E-05
4.652091E+03	9.126468E-04	1.694456E-05
4.662074E+03	9.074709E-04	1.678831E-05
4.672058E+03	9.019829E-04	1.662778E-05
4.682041E+03	8.962424E-04	1.646407E-05
4.692024E+03	8.902934E-04	1.629800E-05
4.702007E+03	8.843635E-04	1.613369E-05
4.711990E+03	8.786558E-04	1.597480E-05
4.721973E+03	8.730563E-04	1.581917E-05
4.731956E+03	8.677297E-04	1.566971E-05
4.741939E+03	8.627248E-04	1.552722E-05
4.751922E+03	8.580765E-04	1.539221E-05
4.761905E+03	8.538082E-04	1.526501E-05
4.771888E+03	8.498379E-04	1.514404E-05
4.781871E+03	8.463634E-04	1.503275E-05
4.791854E+03	8.432906E-04	1.492934E-05
4.801837E+03	8.405210E-04	1.483198E-05
4.811820E+03	8.381392E-04	1.474207E-05
4.821803E+03	8.362237E-04	1.466090E-05
4.831786E+03	8.345676E-04	1.458474E-05
4.841769E+03	8.332379E-04	1.451469E-05
4.851752E+03	8.322020E-04	1.445012E-05
4.861735E+03	8.314221E-04	1.439029E-05
4.871718E+03	8.308566E-04	1.433443E-05
4.881701E+03	8.303684E-04	1.428012E-05
4.891684E+03	8.300952E-04	1.422969E-05
4.901667E+03	8.298085E-04	1.417919E-05
4.911650E+03	8.296467E-04	1.413095E-05
4.921633E+03	8.293869E-04	1.408117E-05
4.931616E+03	8.290861E-04	1.403080E-05
4.941599E+03	8.287153E-04	1.397935E-05
4.951582E+03	8.282547E-04	1.392649E-05
4.961565E+03	8.276966E-04	1.387210E-05
4.971548E+03	8.270460E-04	1.381625E-05
4.981531E+03	8.263251E-04	1.375933E-05
4.991514E+03	8.254837E-04	1.370051E-05
5.001497E+03	8.247620E-04	1.364377E-05
5.011480E+03	8.240564E-04	1.358739E-05
5.021464E+03	8.235496E-04	1.353435E-05
5.031447E+03	8.234334E-04	1.348777E-05
5.041430E+03	8.236330E-04	1.344635E-05
5.051413E+03	8.243373E-04	1.341312E-05
5.061396E+03	8.255430E-04	1.338794E-05
5.071379E+03	8.274948E-04	1.337469E-05
5.081362E+03	8.301409E-04	1.337241E-05
5.091345E+03	8.333943E-04	1.337960E-05
5.101328E+03	8.374075E-04	1.339861E-05
5.111311E+03	8.419361E-04	1.342541E-05
5.121294E+03	8.470679E-04	1.346132E-05
5.131277E+03	8.525012E-04	1.350149E-05
5.141260E+03	8.581912E-04	1.354515E-05
5.151243E+03	8.639900E-04	1.358996E-05
5.161226E+03	8.697478E-04	1.363357E-05
5.171209E+03	8.752246E-04	1.367224E-05
5.181192E+03	8.804749E-04	1.370688E-05
5.191175E+03	8.851913E-04	1.373278E-05
5.201158E+03	8.894643E-04	1.375144E-05
5.211141E+03	8.930230E-04	1.375879E-05
5.221124E+03	8.959043E-04	1.375551E-05
5.231107E+03	8.981643E-04	1.374260E-05
5.241090E+03	8.995877E-04	1.371690E-05
5.251073E+03	9.002628E-04	1.367990E-05
5.261056E+03	9.000963E-04	1.363034E-05
5.271039E+03	8.992953E-04	1.357150E-05
5.281022E+03	8.977851E-04	1.350237E-05
5.291005E+03	8.954992E-04	1.342209E-05
5.300988E+03	8.926631E-04	1.333418E-05
5.310971E+03	8.891281E-04	1.323654E-05
5.320954E+03	8.850386E-04	1.313142E-05
5.330937E+03	8.804511E-04	1.301979E-05
5.340920E+03	8.755255E-04	1.290408E-05
5.350903E+03	8.700590E-04	1.278140E-05
5.360886E+03	8.644200E-04	1.265723E-05
5.370870E+03	8.586154E-04	1.253173E-05
5.380853E+03	8.527594E-04	1.240661E-05
5.390836E+03	8.468824E-04	1.228231E-05
5.400819E+03	8.412958E-04	1.216339E-05
5.410802E+03	8.359486E-04	1.204907E-05
5.420785E+03	8.310545E-04	1.194242E-05
5.430768E+03	8.268113E-04	1.184623E-05
5.440751E+03	8.231261E-04	1.175911E-05
5.450734E+03	8.201361E-04	1.168298E-05
5.460717E+03	8.178433E-04	1.161780E-05
5.470700E+03	8.161078E-04	1.156151E-05
5.480683E+03	8.149875E-04	1.151487E-05
5.490666E+03	8.142225E-04	1.147410E-05
5.500649E+03	8.135066E-04	1.143483E-05
5.510632E+03	8.127576E-04	1.139585E-05
5.520615E+03	8.115340E-04	1.135098E-05
5.530598E+03	8.096594E-04	1.129775E-05
5.540581E+03	8.069028E-04	1.123299E-05
5.550564E+03	8.031639E-04	1.115534E-05
5.560547E+03	7.981455E-04	1.106075E-05
5.570530E+03	7.917810E-04	1.094837E-05
5.580513E+03	7.842328E-04	1.082052E-05
5.590496E+03	7.754635E-04	1.067676E-05
5.600479E+03	7.655703E-04	1.051849E-05
5.610462E+03	7.546093E-04	1.034652E-05
5.620445E+03	7.429104E-04	1.016543E-05
5.630428E+03	7.305126E-04	9.975762E-06
5.640411E+03	7.177148E-04	9.781615E-06
5.650394E+03	7.048266E-04	9.587192E-06
5.660377E+03	6.919467E-04	9.393806E-06
5.670360E+03	6.794051E-04	9.205897E-06
5.680343E+03	6.674557E-04	9.026841E-06
5.690326E+03	6.563453E-04	8.859898E-06
5.700309E+03	6.463049E-04	8.708091E-06
5.710293E+03	6.374753E-04	8.573210E-06
5.720276E+03	6.301688E-04	8.459341E-06
5.730259E+03	6.244586E-04	8.367332E-06
5.740242E+03	6.203802E-04	8.297527E-06
5.750225E+03	6.181210E-04	8.252297E-06
5.760208E+03	6.175629E-04	8.229924E-06
5.770191E+03	6.187335E-04	8.230645E-06
5.780174E+03	6.215518E-04	8.253251E-06
5.790157E+03	6.259560E-04	8.296801E-06
5.800140E+03	6.316447E-04	8.357191E-06
5.810123E+03	6.384752E-04	8.432439E-06
5.820106E+03	6.462073E-04	8.519298E-06
5.830089E+03	6.545054E-04	8.613288E-06
5.840072E+03	6.632248E-04	8.712468E-06
5.850055E+03	6.720107E-04	8.812160E-06
5.860038E+03	6.805823E-04	8.908686E-06
5.870021E+03	6.886040E-04	8.997683E-06
5.880004E+03	6.959863E-04	9.078026E-06
5.889987E+03	7.023868E-04	9.145312E-06
5.899970E+03	7.077298E-04	9.198631E-06
5.909953E+03	7.119912E-04	9.237754E-06
5.919936E+03	7.149765E-04	9.260251E-06
5.929919E+03	7.167677E-04	9.267277E-06
5.939902E+03	7.174226E-04	9.259675E-06
5.949885E+03	7.170423E-04	9.238838E-06
5.959868E+03	7.157643E-04	9.206616E-06
5.969851E+03	7.137540E-04	9.165212E-06
5.979834E+03	7.111964E-04	9.117058E-06
5.989817E+03	7.082859E-04	9.064696E-06
5.999800E+03	7.052170E-04	9.010650E-06
6.009783E+03	7.021063E-04	8.956437E-06
6.019766E+03	6.992784E-04	8.906211E-06
6.029749E+03	6.968198E-04	8.861076E-06
6.039732E+03	6.948003E-04	8.821916E-06
6.049715E+03	6.934896E-04	8.792148E-06
6.059699E+03	6.928456E-04	8.771224E-06
6.069682E+03	6.930341E-04	8.761226E-06
6.079665E+03	6.942071E-04	8.764059E-06
6.089648E+03	6.962966E-04	8.778845E-06
6.099631E+03	6.994573E-04	8.807520E-06
6.109614E+03	7.037811E-04	8.851226E-06
6.119597E+03	7.093808E-04	8.911366E-06
6.129580E+03	7.164007E-04	8.989743E-06
6.139563E+03	7.250220E-04	9.088621E-06
6.149546E+03	7.354719E-04	9.210839E-06
6.159529E+03	7.480282E-04	9.359872E-06
6.169512E+03	7.630171E-04	9.539803E-06
6.179495E+03	7.808052E-04	9.755222E-06
6.189478E+03	8.016949E-04	1.000992E-05
6.199461E+03	8.262188E-04	1.031059E-05
6.209444E+03	8.545894E-04	1.065993E-05
6.219427E+03	8.868583E-04	1.105867E-05
6.229410E+03	9.231270E-04	1.150818E-05
6.239393E+03	9.628400E-04	1.200166E-05
6.249376E+03	1.005506E-03	1.253310E-05
6.259359E+03	1.049861E-03	1.308686E-05
6.269342E+03	1.094596E-03	1.364680E-05
6.279325E+03	1.138160E-03	1.419365E-05
6.289308E+03	1.178510E-03	1.470208E-05
6.299291E+03	1.213986E-03	1.515142E-05
6.309274E+03	1.243018E-03	1.552205E-05
6.319257E+03	1.264529E-03	1.580046E-05
6.329240E+03	1.277520E-03	1.597402E-05
6.339223E+03	1.281918E-03	1.604159E-05
6.349206E+03	1.278043E-03	1.600690E-05
6.359189E+03	1.266664E-03	1.587927E-05
6.369172E+03	1.248888E-03	1.567227E-05
6.379155E+03	1.226024E-03	1.540201E-05
6.389138E+03	1.199453E-03	1.508557E-05
6.399121E+03	1.170385E-03	1.473790E-05
6.409105E+03	1.140269E-03	1.437709E-05
6.419088E+03	1.109989E-03	1.401410E-05
6.429071E+03	1.080336E-03	1.365887E-05
6.439054E+03	1.051769E-03	1.331713E-05
6.449037E+03	1.024879E-03	1.299633E-05
6.459020E+03	9.997301E-04	1.269733E-05
6.469003E+03	9.762473E-04	1.241918E-05
6.478986E+03	9.545475E-04	1.216338E-05
6.488969E+03	9.342464E-04	1.192505E-05
6.498952E+03	9.153163E-04	1.170382E-05
6.508935E+03	8.973188E-04	1.149408E-05
6.518918E+03	8.802163E-04	1.129533E-05
6.528901E+03	8.636142E-04	1.110248E-05
6.538884E+03	8.474356E-04	1.091452E-05
6.548867E+03	8.316439E-04	1.073093E-05
6.558850E+03	8.159878E-04	1.054844E-05
6.568833E+03	8.005209E-04	1.036770E-05
6.578816E+03	7.852371E-04	1.018860E-05
6.588799E+03	7.702360E-04	1.001239E-05
6.598782E+03	7.553842E-04	9.837325E-06
6.608765E+03	7.408079E-04	9.665023E-06
6.618748E+03	7.265559E-04	9.496111E-06
6.628731E+03	7.126744E-04	9.331188E-06
6.638714E+03	6.992069E-04	9.170828E-06
6.648697E+03	6.861864E-04	9.015474E-06
6.658680E+03	6.736367E-04	8.865450E-06
6.668663E+03	6.615716E-04	8.720954E-06
6.678646E+03	6.499913E-04	8.582011E-06
6.688629E+03	6.388890E-04	8.448551E-06
6.698612E+03	6.282508E-04	8.320411E-06
6.708595E+03	6.180588E-04	8.197378E-06
6.718578E+03	6.082297E-04	8.078366E-06
6.728561E+03	5.988753E-04	7.964882E-06
6.738544E+03	5.899156E-04	7.855885E-06
6.748528E+03	5.813414E-04	7.751274E-06
6.758511E+03	5.730865E-04	7.650186E-06
6.768494E+03	5.652755E-04	7.554304E-06
6.778477E+03	5.578527E-04	7.462908E-06
6.788460E+03	5.507699E-04	7.375374E-06
6.798443E+03	5.441605E-04	7.293506E-06
6.808426E+03	5.379244E-04	7.215988E-06
6.818409E+03	5.321965E-04	7.144648E-06
6.828392E+03	5.268817E-04	7.078230E-06
6.838375E+03	5.221125E-04	7.018536E-06
6.848358E+03	5.177943E-04	6.964311E-06
6.858341E+03	5.140532E-04	6.917269E-06
6.868324E+03	5.107901E-04	6.876090E-06
6.878307E+03	5.080668E-04	6.841622E-06
6.888290E+03	5.059389E-04	6.814623E-06
6.898273E+03	5.042927E-04	6.793571E-06
6.908256E+03	5.031719E-04	6.779061E-06
6.918239E+03	5.026133E-04	6.771594E-06
6.928222E+03	5.024867E-04	6.769415E-06
6.938205E+03	5.028192E-04	6.772889E-06
6.948188E+03	5.035805E-04	6.781608E-06
6.958171E+03	5.047393E-04	6.795144E-06
6.968154E+03	5.062647E-04	6.813077E-06
6.978137E+03	5.081836E-04	6.835763E-06
6.988120E+03	5.103645E-04	6.861425E-06
6.998103E+03	5.128477E-04	6.890601E-06
7.008086E+03	5.156292E-04	6.923228E-06
7.018069E+03	5.187179E-04	6.959417E-06
7.028052E+03	5.221374E-04	6.999475E-06
7.038035E+03	5.259272E-04	7.043925E-06
7.048018E+03	5.300873E-04	7.092750E-06
7.058001E+03	5.348064E-04	7.148464E-06
7.067984E+03	5.401201E-04	7.211518E-06
7.077967E+03	5.461375E-04	7.283344E-06
7.087950E+03	5.529800E-04	7.365529E-06
7.097934E+03	5.607198E-04	7.458994E-06
7.107917E+03	5.696139E-04	7.567110E-06
7.117900E+03	5.797375E-04	7.690817E-06
7.127883E+03	5.911488E-04	7.830818E-06
7.137866E+03	6.040769E-04	7.990074E-06
7.147849E+03	6.185257E-04	8.168549E-06
7.157832E+03	6.344445E-04	8.365490E-06
7.167815E+03	6.519259E-04	8.582029E-06
7.177798E+03	6.707078E-04	8.814633E-06
7.187781E+03	6.907218E-04	9.062334E-06
7.197764E+03	7.115067E-04	9.319031E-06
7.207747E+03	7.327970E-04	9.581224E-06
7.217730E+03	7.539144E-04	9.840057E-06
7.227713E+03	7.743257E-04	1.008864E-05
7.237696E+03	7.934419E-04	1.031940E-05
7.247679E+03	8.103858E-04	1.052109E-05
7.257662E+03	8.245509E-04	1.068608E-05
7.267645E+03	8.353095E-04	1.080650E-05
7.277628E+03	8.422412E-04	1.087721E-05
7.287611E+03	8.448073E-04	1.089161E-05
7.297594E+03	8.429306E-04	1.084908E-05
7.307577E+03	8.366439E-04	1.075038E-05
7.317560E+03	8.261721E-04	1.059875E-05
7.327543E+03	8.119066E-04	1.039952E-05
7.337526E+03	7.943715E-04	1.015966E-05
7.347509E+03	7.741727E-04	9.887127E-06
7.357492E+03	7.519563E-04	9.590332E-06
7.367475E+03	7.283645E-04	9.277568E-06
7.377458E+03	7.039253E-04	8.955611E-06
7.387441E+03	6.793452E-04	8.633466E-06
7.397424E+03	6.550203E-04	8.316140E-06
7.407407E+03	6.313536E-04	8.008704E-06
7.417390E+03	6.086103E-04	7.714454E-06
7.427373E+03	5.871910E-04	7.438396E-06
7.437356E+03	5.672361E-04	7.182229E-06
7.447340E+03	5.488445E-04	6.947130E-06
7.457323E+03	5.322589E-04	6.736106E-06
7.467306E+03	5.174419E-04	6.548628E-06
7.477289E+03	5.045608E-04	6.386773E-06
7.487272E+03	4.935213E-04	6.249330E-06
7.497255E+03	4.844200E-04	6.137521E-06
7.507238E+03	4.771005E-04	6.049389E-06
7.517221E+03	4.715317E-04	5.984586E-06
7.527204E+03	4.676383E-04	5.942223E-06
7.537187E+03	4.651473E-04	5.918912E-06
7.547170E+03	4.639015E-04	5.912715E-06
7.557153E+03	4.636590E-04	5.920600E-06
7.567136E+03	4.641615E-04	5.939323E-06
7.577119E+03	4.651595E-04	5.965737E-06
7.587102E+03	4.664460E-04	5.997221E-06
7.597085E+03	4.678851E-04	6.032051E-06
7.607068E+03	4.694148E-04	6.069439E-06
7.617051E+03	4.710305E-04	6.109337E-06
7.627034E+03	4.727953E-04	6.152574E-06
7.637017E+03	4.748372E-04	6.200843E-06
7.647000E+03	4.773173E-04	6.256296E-06
7.656983E+03	4.803370E-04	6.320333E-06
7.666966E+03	4.841185E-04	6.395983E-06
7.676949E+03	4.886638E-04	6.483406E-06
7.686932E+03	4.938968E-04	6.581739E-06
7.696915E+03	4.998299E-04	6.691289E-06
7.706898E+03	5.061795E-04	6.808400E-06
7.716881E+03	5.128240E-04	6.931536E-06
7.726864E+03	5.193683E-04	7.055422E-06
7.736847E+03	5.256256E-04	7.177517E-06
7.746830E+03	5.311796E-04	7.292073E-06
