#wls	flux	fluxerr
1.597285E+03	5.687312E-05	3.405189E-06
1.637217E+03	5.778570E-05	3.448583E-06
1.677149E+03	5.874085E-05	3.493881E-06
1.717081E+03	5.975185E-05	3.541825E-06
1.757013E+03	6.081153E-05	3.591938E-06
1.796945E+03	6.193395E-05	3.644996E-06
1.836877E+03	6.312336E-05	3.701187E-06
1.876809E+03	6.436206E-05	3.759409E-06
1.916742E+03	6.568790E-05	3.821808E-06
1.956674E+03	6.708398E-05	3.887318E-06
1.996606E+03	6.856752E-05	3.956855E-06
2.036538E+03	7.013322E-05	4.030024E-06
2.076470E+03	7.180003E-05	4.107816E-06
2.116402E+03	7.356342E-05	4.189864E-06
2.156334E+03	7.544444E-05	4.277251E-06
2.196266E+03	7.745281E-05	4.370397E-06
2.236198E+03	7.959927E-05	4.469762E-06
2.276131E+03	8.188180E-05	4.575075E-06
2.316063E+03	8.432636E-05	4.687620E-06
2.355995E+03	8.694692E-05	4.807980E-06
2.395927E+03	8.974377E-05	4.935965E-06
2.435859E+03	9.274754E-05	5.073036E-06
2.475791E+03	9.597601E-05	5.219910E-06
2.515723E+03	9.944828E-05	5.377343E-06
2.555655E+03	1.031850E-04	5.546147E-06
2.595588E+03	1.071908E-04	5.726229E-06
2.635520E+03	1.115053E-04	5.919351E-06
2.675452E+03	1.161534E-04	6.126431E-06
2.715384E+03	1.211616E-04	6.348411E-06
2.755316E+03	1.265578E-04	6.586270E-06
2.795248E+03	1.323503E-04	6.839914E-06
2.835180E+03	1.386115E-04	7.112509E-06
2.875112E+03	1.453302E-04	7.402840E-06
2.915044E+03	1.525600E-04	7.712967E-06
2.954977E+03	1.603324E-04	8.043745E-06
2.994909E+03	1.686754E-04	8.395779E-06
3.004892E+03	1.708354E-04	8.486270E-06
3.014875E+03	1.730574E-04	8.579329E-06
3.024858E+03	1.753149E-04	8.673634E-06
3.034841E+03	1.775808E-04	8.767818E-06
3.044824E+03	1.799092E-04	8.864558E-06
3.054807E+03	1.822730E-04	8.962485E-06
3.064790E+03	1.846716E-04	9.061567E-06
3.074773E+03	1.871046E-04	9.161764E-06
3.084756E+03	1.895712E-04	9.263028E-06
3.094739E+03	1.920706E-04	9.365305E-06
3.104722E+03	1.946018E-04	9.468529E-06
3.114705E+03	1.971634E-04	9.572622E-06
3.124688E+03	1.997844E-04	9.678979E-06
3.134671E+03	2.024023E-04	9.784555E-06
3.144654E+03	2.050451E-04	9.890697E-06
3.154637E+03	2.077104E-04	9.997284E-06
3.164620E+03	2.104275E-04	1.010570E-05
3.174603E+03	2.131295E-04	1.021274E-05
3.184586E+03	2.158772E-04	1.032130E-05
3.194569E+03	2.186017E-04	1.042807E-05
3.204552E+03	2.213643E-04	1.053598E-05
3.214535E+03	2.241276E-04	1.064324E-05
3.224518E+03	2.268519E-04	1.074796E-05
3.234501E+03	2.295997E-04	1.085311E-05
3.244484E+03	2.323308E-04	1.095678E-05
3.254467E+03	2.350387E-04	1.105866E-05
3.264450E+03	2.377161E-04	1.115842E-05
3.274433E+03	2.403556E-04	1.125573E-05
3.284416E+03	2.429494E-04	1.135021E-05
3.294400E+03	2.454893E-04	1.144152E-05
3.304383E+03	2.479671E-04	1.152927E-05
3.314366E+03	2.503741E-04	1.161309E-05
3.324349E+03	2.527022E-04	1.169262E-05
3.334332E+03	2.549427E-04	1.176748E-05
3.344315E+03	2.570880E-04	1.183735E-05
3.354298E+03	2.591685E-04	1.190367E-05
3.364281E+03	2.611014E-04	1.196264E-05
3.374264E+03	2.629186E-04	1.201578E-05
3.384247E+03	2.646547E-04	1.206471E-05
3.394230E+03	2.662287E-04	1.210578E-05
3.404213E+03	2.677174E-04	1.214251E-05
3.414196E+03	2.690435E-04	1.217143E-05
3.424179E+03	2.702888E-04	1.219631E-05
3.434162E+03	2.714204E-04	1.221568E-05
3.444145E+03	2.724075E-04	1.222819E-05
3.454128E+03	2.733416E-04	1.223801E-05
3.464111E+03	2.741987E-04	1.224406E-05
3.474094E+03	2.749573E-04	1.224543E-05
3.484077E+03	2.757189E-04	1.224665E-05
3.494060E+03	2.764679E-04	1.224704E-05
3.504043E+03	2.772307E-04	1.224776E-05
3.514026E+03	2.780356E-04	1.225005E-05
3.524009E+03	2.789115E-04	1.225517E-05
3.533992E+03	2.798877E-04	1.226439E-05
3.543975E+03	2.809927E-04	1.227890E-05
3.553958E+03	2.822536E-04	1.229984E-05
3.563941E+03	2.836949E-04	1.232822E-05
3.573924E+03	2.853374E-04	1.236487E-05
3.583907E+03	2.871973E-04	1.241042E-05
3.593890E+03	2.892834E-04	1.246517E-05
3.603873E+03	2.916297E-04	1.253050E-05
3.613856E+03	2.941356E-04	1.260199E-05
3.623839E+03	2.968189E-04	1.268035E-05
3.633823E+03	2.996520E-04	1.276434E-05
3.643806E+03	3.026475E-04	1.285442E-05
3.653789E+03	3.056888E-04	1.294561E-05
3.663772E+03	3.087881E-04	1.303840E-05
3.673755E+03	3.119613E-04	1.313342E-05
3.683738E+03	3.150969E-04	1.322599E-05
3.693721E+03	3.182651E-04	1.331903E-05
3.703704E+03	3.213658E-04	1.340835E-05
3.713687E+03	3.244857E-04	1.349760E-05
3.723670E+03	3.275404E-04	1.358326E-05
3.733653E+03	3.306368E-04	1.366976E-05
3.743636E+03	3.337080E-04	1.375434E-05
3.753619E+03	3.368807E-04	1.384220E-05
3.763602E+03	3.401040E-04	1.393123E-05
3.773585E+03	3.435212E-04	1.402725E-05
3.783568E+03	3.470921E-04	1.412855E-05
3.793551E+03	3.509702E-04	1.424129E-05
3.803534E+03	3.551675E-04	1.436584E-05
3.813517E+03	3.596926E-04	1.450242E-05
3.823500E+03	3.646994E-04	1.465708E-05
3.833483E+03	3.701884E-04	1.482965E-05
3.843466E+03	3.761503E-04	1.501958E-05
3.853449E+03	3.827204E-04	1.523204E-05
3.863432E+03	3.898696E-04	1.546566E-05
3.873415E+03	3.975538E-04	1.571845E-05
3.883398E+03	4.058770E-04	1.599430E-05
3.893381E+03	4.147687E-04	1.629016E-05
3.903364E+03	4.241394E-04	1.660233E-05
3.913347E+03	4.340563E-04	1.693322E-05
3.923330E+03	4.444011E-04	1.727800E-05
3.933313E+03	4.550352E-04	1.763114E-05
3.943296E+03	4.659883E-04	1.799365E-05
3.953279E+03	4.770945E-04	1.835901E-05
3.963262E+03	4.882358E-04	1.872264E-05
3.973245E+03	4.992172E-04	1.907706E-05
3.983229E+03	5.100368E-04	1.942225E-05
3.993212E+03	5.204918E-04	1.975058E-05
4.003195E+03	5.303787E-04	2.005450E-05
4.013178E+03	5.397126E-04	2.033479E-05
4.023161E+03	5.483140E-04	2.058494E-05
4.033144E+03	5.560197E-04	2.079912E-05
4.043127E+03	5.629110E-04	2.098075E-05
4.053110E+03	5.688771E-04	2.112602E-05
4.063093E+03	5.738321E-04	2.123213E-05
4.073076E+03	5.779485E-04	2.130585E-05
4.083059E+03	5.811218E-04	2.134370E-05
4.093042E+03	5.835792E-04	2.135435E-05
4.103025E+03	5.853397E-04	2.133881E-05
4.113008E+03	5.864396E-04	2.129868E-05
4.122991E+03	5.871595E-04	2.124439E-05
4.132974E+03	5.874767E-04	2.117527E-05
4.142957E+03	5.876783E-04	2.110179E-05
4.152940E+03	5.877377E-04	2.102308E-05
4.162923E+03	5.879272E-04	2.094888E-05
4.172906E+03	5.881973E-04	2.087738E-05
4.182889E+03	5.887128E-04	2.081439E-05
4.192872E+03	5.896224E-04	2.076505E-05
4.202855E+03	5.908274E-04	2.072572E-05
4.212838E+03	5.924442E-04	2.070037E-05
4.222821E+03	5.945745E-04	2.069235E-05
4.232804E+03	5.970782E-04	2.069661E-05
4.242787E+03	6.000343E-04	2.071571E-05
4.252770E+03	6.035128E-04	2.075188E-05
4.262753E+03	6.073425E-04	2.079904E-05
4.272736E+03	6.115753E-04	2.085882E-05
4.282719E+03	6.161775E-04	2.092990E-05
4.292702E+03	6.211052E-04	2.101066E-05
4.302685E+03	6.263055E-04	2.109916E-05
4.312668E+03	6.317172E-04	2.119326E-05
4.322651E+03	6.372693E-04	2.129049E-05
4.332635E+03	6.428869E-04	2.138831E-05
4.342618E+03	6.484933E-04	2.148415E-05
4.352601E+03	6.540138E-04	2.157556E-05
4.362584E+03	6.593854E-04	2.166050E-05
4.372567E+03	6.644758E-04	2.173473E-05
4.382550E+03	6.694290E-04	2.180304E-05
4.392533E+03	6.742317E-04	2.186507E-05
4.402516E+03	6.789595E-04	2.192334E-05
4.412499E+03	6.839661E-04	2.198924E-05
4.422482E+03	6.892715E-04	2.206332E-05
4.432465E+03	6.952346E-04	2.215688E-05
4.442448E+03	7.018516E-04	2.226954E-05
4.452431E+03	7.094332E-04	2.241084E-05
4.462414E+03	7.178897E-04	2.257754E-05
4.472397E+03	7.273298E-04	2.277268E-05
4.482380E+03	7.377916E-04	2.299703E-05
4.492363E+03	7.489531E-04	2.324015E-05
4.502346E+03	7.606794E-04	2.349759E-05
4.512329E+03	7.726700E-04	2.375986E-05
4.522312E+03	7.845613E-04	2.401571E-05
4.532295E+03	7.959551E-04	2.425304E-05
4.542278E+03	8.064493E-04	2.445987E-05
4.552261E+03	8.156706E-04	2.462528E-05
4.562244E+03	8.233063E-04	2.474041E-05
4.572227E+03	8.290278E-04	2.479610E-05
4.582210E+03	8.329110E-04	2.479540E-05
4.592193E+03	8.348299E-04	2.473535E-05
4.602176E+03	8.347567E-04	2.461595E-05
4.612159E+03	8.330514E-04	2.444859E-05
4.622142E+03	8.297282E-04	2.423438E-05
4.632125E+03	8.252511E-04	2.398749E-05
4.642108E+03	8.196962E-04	2.371060E-05
4.652091E+03	8.134443E-04	2.341513E-05
4.662074E+03	8.067590E-04	2.310892E-05
4.672058E+03	7.999744E-04	2.280167E-05
4.682041E+03	7.930982E-04	2.249364E-05
4.692024E+03	7.863927E-04	2.219228E-05
4.702007E+03	7.799863E-04	2.190112E-05
4.711990E+03	7.738772E-04	2.161998E-05
4.721973E+03	7.683165E-04	2.135572E-05
4.731956E+03	7.632450E-04	2.110646E-05
4.741939E+03	7.586781E-04	2.087243E-05
4.751922E+03	7.545250E-04	2.065092E-05
4.761905E+03	7.509588E-04	2.044647E-05
4.771888E+03	7.477860E-04	2.025359E-05
4.781871E+03	7.451723E-04	2.007657E-05
4.791854E+03	7.429271E-04	1.991008E-05
4.801837E+03	7.411297E-04	1.975607E-05
4.811820E+03	7.397715E-04	1.961412E-05
4.821803E+03	7.388392E-04	1.948370E-05
4.831786E+03	7.383141E-04	1.936412E-05
4.841769E+03	7.381658E-04	1.925444E-05
4.851752E+03	7.383528E-04	1.915340E-05
4.861735E+03	7.388227E-04	1.905952E-05
4.871718E+03	7.395130E-04	1.897107E-05
4.881701E+03	7.402686E-04	1.888401E-05
4.891684E+03	7.411975E-04	1.880105E-05
4.901667E+03	7.420591E-04	1.871605E-05
4.911650E+03	7.429703E-04	1.863197E-05
4.921633E+03	7.436992E-04	1.854302E-05
4.931616E+03	7.442831E-04	1.845020E-05
4.941599E+03	7.447607E-04	1.835454E-05
4.951582E+03	7.449093E-04	1.825062E-05
4.961565E+03	7.447775E-04	1.813979E-05
4.971548E+03	7.443394E-04	1.802155E-05
4.981531E+03	7.435910E-04	1.789593E-05
4.991514E+03	7.424740E-04	1.776168E-05
5.001497E+03	7.412318E-04	1.762477E-05
5.011480E+03	7.398882E-04	1.748581E-05
5.021464E+03	7.385099E-04	1.734643E-05
5.031447E+03	7.374558E-04	1.721502E-05
5.041430E+03	7.367565E-04	1.709216E-05
5.051413E+03	7.367886E-04	1.698640E-05
5.061396E+03	7.375637E-04	1.689769E-05
5.071379E+03	7.393137E-04	1.683101E-05
5.081362E+03	7.421303E-04	1.678800E-05
5.091345E+03	7.460407E-04	1.676884E-05
5.101328E+03	7.510034E-04	1.677215E-05
5.111311E+03	7.569109E-04	1.679508E-05
5.121294E+03	7.635976E-04	1.683361E-05
5.131277E+03	7.707662E-04	1.688089E-05
5.141260E+03	7.783600E-04	1.693552E-05
5.151243E+03	7.860453E-04	1.699010E-05
5.161226E+03	7.934926E-04	1.703756E-05
5.171209E+03	8.006710E-04	1.707735E-05
5.181192E+03	8.072101E-04	1.710176E-05
5.191175E+03	8.130555E-04	1.710995E-05
5.201158E+03	8.180990E-04	1.709998E-05
5.211141E+03	8.222709E-04	1.707076E-05
5.221124E+03	8.255345E-04	1.702194E-05
5.231107E+03	8.278823E-04	1.695376E-05
5.241090E+03	8.293293E-04	1.686695E-05
5.251073E+03	8.299057E-04	1.676251E-05
5.261056E+03	8.296511E-04	1.664164E-05
5.271039E+03	8.285123E-04	1.650364E-05
5.281022E+03	8.267254E-04	1.635358E-05
5.291005E+03	8.241403E-04	1.618879E-05
5.300988E+03	8.209877E-04	1.601412E-05
5.310971E+03	8.171173E-04	1.582693E-05
5.320954E+03	8.126658E-04	1.563014E-05
5.330937E+03	8.076787E-04	1.542489E-05
5.340920E+03	8.023018E-04	1.521417E-05
5.350903E+03	7.964126E-04	1.499584E-05
5.360886E+03	7.901835E-04	1.477336E-05
5.370870E+03	7.836226E-04	1.454701E-05
5.380853E+03	7.770337E-04	1.432255E-05
5.390836E+03	7.704759E-04	1.410106E-05
5.400819E+03	7.641273E-04	1.388580E-05
5.410802E+03	7.581025E-04	1.367874E-05
5.420785E+03	7.527974E-04	1.348688E-05
5.430768E+03	7.482571E-04	1.331074E-05
5.440751E+03	7.447714E-04	1.315517E-05
5.450734E+03	7.425846E-04	1.302408E-05
5.460717E+03	7.416197E-04	1.291566E-05
5.470700E+03	7.419709E-04	1.283110E-05
5.480683E+03	7.435471E-04	1.276838E-05
5.490666E+03	7.461102E-04	1.272298E-05
5.500649E+03	7.491963E-04	1.268669E-05
5.510632E+03	7.522652E-04	1.265021E-05
5.520615E+03	7.547729E-04	1.260445E-05
5.530598E+03	7.562226E-04	1.254137E-05
5.540581E+03	7.561170E-04	1.245311E-05
5.550564E+03	7.543405E-04	1.233831E-05
5.560547E+03	7.505575E-04	1.219204E-05
5.570530E+03	7.449022E-04	1.201713E-05
5.580513E+03	7.372647E-04	1.181239E-05
5.590496E+03	7.278676E-04	1.158200E-05
5.600479E+03	7.169748E-04	1.133065E-05
5.610462E+03	7.046272E-04	1.105942E-05
5.620445E+03	6.911296E-04	1.077351E-05
5.630428E+03	6.767175E-04	1.047686E-05
5.640411E+03	6.616428E-04	1.017361E-05
5.650394E+03	6.461825E-04	9.868131E-06
5.660377E+03	6.306441E-04	9.565173E-06
5.670360E+03	6.153598E-04	9.269716E-06
5.680343E+03	6.006135E-04	8.985888E-06
5.690326E+03	5.869007E-04	8.720846E-06
5.700309E+03	5.744966E-04	8.478295E-06
5.710293E+03	5.636542E-04	8.261519E-06
5.720276E+03	5.547778E-04	8.075898E-06
5.730259E+03	5.479600E-04	7.922165E-06
5.740242E+03	5.434246E-04	7.802897E-06
5.750225E+03	5.413273E-04	7.719630E-06
5.760208E+03	5.415719E-04	7.670276E-06
5.770191E+03	5.441800E-04	7.654453E-06
5.780174E+03	5.490435E-04	7.669969E-06
5.790157E+03	5.559875E-04	7.713755E-06
5.800140E+03	5.647714E-04	7.781914E-06
5.810123E+03	5.750931E-04	7.869808E-06
5.820106E+03	5.865963E-04	7.972184E-06
5.830089E+03	5.988811E-04	8.083341E-06
5.840072E+03	6.115206E-04	8.197369E-06
5.850055E+03	6.240792E-04	8.308407E-06
5.860038E+03	6.360615E-04	8.409965E-06
5.870021E+03	6.472186E-04	8.498970E-06
5.880004E+03	6.570655E-04	8.569361E-06
5.889987E+03	6.654761E-04	8.619898E-06
5.899970E+03	6.721031E-04	8.646534E-06
5.909953E+03	6.769873E-04	8.650300E-06
5.919936E+03	6.799471E-04	8.629383E-06
5.929919E+03	6.811148E-04	8.585983E-06
5.939902E+03	6.807001E-04	8.523216E-06
5.949885E+03	6.787403E-04	8.441974E-06
5.959868E+03	6.755582E-04	8.346661E-06
5.969851E+03	6.714316E-04	8.241009E-06
5.979834E+03	6.666579E-04	8.128898E-06
5.989817E+03	6.615383E-04	8.014151E-06
5.999800E+03	6.563654E-04	7.900393E-06
6.009783E+03	6.514112E-04	7.790907E-06
6.019766E+03	6.469159E-04	7.688521E-06
6.029749E+03	6.430831E-04	7.595559E-06
6.039732E+03	6.400770E-04	7.513829E-06
6.049715E+03	6.379459E-04	7.443748E-06
6.059699E+03	6.369180E-04	7.387811E-06
6.069682E+03	6.369718E-04	7.345588E-06
6.079665E+03	6.380590E-04	7.316354E-06
6.089648E+03	6.403353E-04	7.301739E-06
6.099631E+03	6.436597E-04	7.299982E-06
6.109614E+03	6.481890E-04	7.312732E-06
6.119597E+03	6.538091E-04	7.338576E-06
6.129580E+03	6.606584E-04	7.378962E-06
6.139563E+03	6.689364E-04	7.436010E-06
6.149546E+03	6.786939E-04	7.510169E-06
6.159529E+03	6.903180E-04	7.605612E-06
6.169512E+03	7.043428E-04	7.728076E-06
6.179495E+03	7.212346E-04	7.882501E-06
6.189478E+03	7.418843E-04	8.078419E-06
6.199461E+03	7.672806E-04	8.326339E-06
6.209444E+03	7.985217E-04	8.637893E-06
6.219427E+03	8.366869E-04	9.024462E-06
6.229410E+03	8.826357E-04	9.495051E-06
6.239393E+03	9.365174E-04	1.005108E-05
6.249376E+03	9.973227E-04	1.068161E-05
6.259359E+03	1.063104E-03	1.136585E-05
6.269342E+03	1.130927E-03	1.207272E-05
6.279325E+03	1.197575E-03	1.276836E-05
6.289308E+03	1.259135E-03	1.341161E-05
6.299291E+03	1.311915E-03	1.396377E-05
6.309274E+03	1.352619E-03	1.439032E-05
6.319257E+03	1.379350E-03	1.467148E-05
6.329240E+03	1.390943E-03	1.479508E-05
6.339223E+03	1.387483E-03	1.476198E-05
6.349206E+03	1.370653E-03	1.458986E-05
6.359189E+03	1.342356E-03	1.429856E-05
6.369172E+03	1.305616E-03	1.391978E-05
6.379155E+03	1.262979E-03	1.348010E-05
6.389138E+03	1.217432E-03	1.301088E-05
6.399121E+03	1.171016E-03	1.253346E-05
6.409105E+03	1.125728E-03	1.206885E-05
6.419088E+03	1.083036E-03	1.163253E-05
6.429071E+03	1.043560E-03	1.123103E-05
6.439054E+03	1.007892E-03	1.087063E-05
6.449037E+03	9.761575E-04	1.055273E-05
6.459020E+03	9.483384E-04	1.027719E-05
6.469003E+03	9.238958E-04	1.003827E-05
6.478986E+03	9.024889E-04	9.832353E-06
6.488969E+03	8.835734E-04	9.653560E-06
6.498952E+03	8.665443E-04	9.495311E-06
6.508935E+03	8.507658E-04	9.350631E-06
6.518918E+03	8.356004E-04	9.212466E-06
6.528901E+03	8.206137E-04	9.075934E-06
6.538884E+03	8.056645E-04	8.939355E-06
6.548867E+03	7.906552E-04	8.801524E-06
6.558850E+03	7.755264E-04	8.661660E-06
6.568833E+03	7.602598E-04	8.519438E-06
6.578816E+03	7.448811E-04	8.375036E-06
6.588799E+03	7.294563E-04	8.229097E-06
6.598782E+03	7.140007E-04	8.081711E-06
6.608765E+03	6.987947E-04	7.935986E-06
6.618748E+03	6.838788E-04	7.792350E-06
6.628731E+03	6.693666E-04	7.652077E-06
6.638714E+03	6.552804E-04	7.515420E-06
6.648697E+03	6.418442E-04	7.384961E-06
6.658680E+03	6.290229E-04	7.260330E-06
6.668663E+03	6.167601E-04	7.140911E-06
6.678646E+03	6.051857E-04	7.028247E-06
6.688629E+03	5.941272E-04	6.920378E-06
6.698612E+03	5.836764E-04	6.818412E-06
6.708595E+03	5.736451E-04	6.720192E-06
6.718578E+03	5.641158E-04	6.626715E-06
6.728561E+03	5.549128E-04	6.535953E-06
6.738544E+03	5.461317E-04	6.449060E-06
6.748528E+03	5.376251E-04	6.364324E-06
6.758511E+03	5.295097E-04	6.283155E-06
6.768494E+03	5.216660E-04	6.204165E-06
6.778477E+03	5.141684E-04	6.128264E-06
6.788460E+03	5.070949E-04	6.056416E-06
6.798443E+03	5.003519E-04	5.987539E-06
6.808426E+03	4.940268E-04	5.922709E-06
6.818409E+03	4.882069E-04	5.863009E-06
6.828392E+03	4.828105E-04	5.807495E-06
6.838375E+03	4.779270E-04	5.757278E-06
6.848358E+03	4.735877E-04	5.712768E-06
6.858341E+03	4.698207E-04	5.674339E-06
6.868324E+03	4.666494E-04	5.642304E-06
6.878307E+03	4.640901E-04	5.616889E-06
6.888290E+03	4.622040E-04	5.598861E-06
6.898273E+03	4.608814E-04	5.586912E-06
6.908256E+03	4.601621E-04	5.581540E-06
6.918239E+03	4.600211E-04	5.582452E-06
6.928222E+03	4.604217E-04	5.589210E-06
6.938205E+03	4.613175E-04	5.601251E-06
6.948188E+03	4.625999E-04	5.617256E-06
6.958171E+03	4.643160E-04	5.637790E-06
6.968154E+03	4.663498E-04	5.661436E-06
6.978137E+03	4.686406E-04	5.687449E-06
6.988120E+03	4.711340E-04	5.715156E-06
6.998103E+03	4.737856E-04	5.744008E-06
7.008086E+03	4.765650E-04	5.773628E-06
7.018069E+03	4.794043E-04	5.803182E-06
7.028052E+03	4.824235E-04	5.834115E-06
7.038035E+03	4.856001E-04	5.866145E-06
7.048018E+03	4.889373E-04	5.899298E-06
7.058001E+03	4.926379E-04	5.936012E-06
7.067984E+03	4.967667E-04	5.977043E-06
7.077967E+03	5.014187E-04	6.023509E-06
7.087950E+03	5.068965E-04	6.079005E-06
7.097934E+03	5.133586E-04	6.145372E-06
7.107917E+03	5.209856E-04	6.224702E-06
7.117900E+03	5.301583E-04	6.321443E-06
7.127883E+03	5.410200E-04	6.437180E-06
7.137866E+03	5.539537E-04	6.576318E-06
7.147849E+03	5.690638E-04	6.739910E-06
7.157832E+03	5.865959E-04	6.930659E-06
7.167815E+03	6.067277E-04	7.150429E-06
7.177798E+03	6.293202E-04	7.397329E-06
7.187781E+03	6.543056E-04	7.670319E-06
7.197764E+03	6.814599E-04	7.966529E-06
7.207747E+03	7.101282E-04	8.278103E-06
7.217730E+03	7.396826E-04	8.597578E-06
7.227713E+03	7.692101E-04	8.914291E-06
7.237696E+03	7.977150E-04	9.216748E-06
7.247679E+03	8.238008E-04	9.489003E-06
7.257662E+03	8.463089E-04	9.718049E-06
7.267645E+03	8.640620E-04	9.890851E-06
7.277628E+03	8.760725E-04	9.996727E-06
7.287611E+03	8.816506E-04	1.002853E-05
7.297594E+03	8.804837E-04	9.983517E-06
7.307577E+03	8.726625E-04	9.863526E-06
7.317560E+03	8.586628E-04	9.674729E-06
7.327543E+03	8.392719E-04	9.426716E-06
7.337526E+03	8.154870E-04	9.131293E-06
7.347509E+03	7.884030E-04	8.801201E-06
7.357492E+03	7.591048E-04	8.448896E-06
7.367475E+03	7.285919E-04	8.085716E-06
7.377458E+03	6.976423E-04	7.720400E-06
7.387441E+03	6.671267E-04	7.362592E-06
7.397424E+03	6.375037E-04	7.017283E-06
7.407407E+03	6.091800E-04	6.688830E-06
7.417390E+03	5.823816E-04	6.379564E-06
7.427373E+03	5.574599E-04	6.093160E-06
7.437356E+03	5.344960E-04	5.830316E-06
7.447340E+03	5.135443E-04	5.591440E-06
7.457323E+03	4.948213E-04	5.378709E-06
7.467306E+03	4.782845E-04	5.191493E-06
7.477289E+03	4.641148E-04	5.031604E-06
7.487272E+03	4.522509E-04	4.898247E-06
7.497255E+03	4.428319E-04	4.792828E-06
7.507238E+03	4.357501E-04	4.714109E-06
7.517221E+03	4.310126E-04	4.662135E-06
7.527204E+03	4.285606E-04	4.636275E-06
7.537187E+03	4.280989E-04	4.633347E-06
7.547170E+03	4.293825E-04	4.650716E-06
7.557153E+03	4.320517E-04	4.684523E-06
7.567136E+03	4.354808E-04	4.728036E-06
7.577119E+03	4.391167E-04	4.775295E-06
7.587102E+03	4.423353E-04	4.819529E-06
7.597085E+03	4.445785E-04	4.854635E-06
7.607068E+03	4.455197E-04	4.876970E-06
7.617051E+03	4.454180E-04	4.889266E-06
7.627034E+03	4.448060E-04	4.897275E-06
7.637017E+03	4.442850E-04	4.907563E-06
7.647000E+03	4.444282E-04	4.926474E-06
7.656983E+03	4.457046E-04	4.959287E-06
7.666966E+03	4.484328E-04	5.009697E-06
7.676949E+03	4.527608E-04	5.079565E-06
7.686932E+03	4.586638E-04	5.168857E-06
7.696915E+03	4.659512E-04	5.275684E-06
7.706898E+03	4.742248E-04	5.395778E-06
7.716881E+03	4.831299E-04	5.525296E-06
7.726864E+03	4.920490E-04	5.657303E-06
7.736847E+03	5.003128E-04	5.784116E-06
7.746830E+03	5.074401E-04	5.900065E-06
