#wls	flux	fluxerr
1.596185E+03	2.074510E-04	8.634004E-09
1.636090E+03	2.096846E-04	8.726965E-09
1.675994E+03	2.116336E-04	8.808084E-09
1.715899E+03	2.134311E-04	8.882892E-09
1.755804E+03	2.150408E-04	8.949888E-09
1.795708E+03	2.163590E-04	9.004752E-09
1.835613E+03	2.172478E-04	9.041741E-09
1.875518E+03	2.175412E-04	9.053952E-09
1.915422E+03	2.171423E-04	9.037351E-09
1.955327E+03	2.158488E-04	8.983514E-09
1.995231E+03	2.138495E-04	8.900303E-09
2.035136E+03	2.113734E-04	8.797251E-09
2.075041E+03	2.094310E-04	8.716409E-09
2.114945E+03	2.092083E-04	8.707139E-09
2.154850E+03	2.120307E-04	8.824608E-09
2.194755E+03	2.182816E-04	9.084764E-09
2.234659E+03	2.276798E-04	9.475911E-09
2.274564E+03	2.393984E-04	9.963635E-09
2.314468E+03	2.524825E-04	1.050819E-08
2.354373E+03	2.662143E-04	1.107970E-08
2.394278E+03	2.802496E-04	1.166384E-08
2.434182E+03	2.943101E-04	1.224903E-08
2.474087E+03	3.084995E-04	1.283959E-08
2.513992E+03	3.228290E-04	1.343597E-08
2.553896E+03	3.373342E-04	1.403967E-08
2.593801E+03	3.521429E-04	1.465600E-08
2.633705E+03	3.674699E-04	1.529390E-08
2.673610E+03	3.833442E-04	1.595458E-08
2.713515E+03	3.998733E-04	1.664251E-08
2.753419E+03	4.171560E-04	1.736181E-08
2.793324E+03	4.353756E-04	1.812010E-08
2.833229E+03	4.546193E-04	1.892101E-08
2.873133E+03	4.749711E-04	1.976804E-08
2.913038E+03	4.967003E-04	2.067239E-08
2.952942E+03	5.198966E-04	2.163781E-08
2.992847E+03	5.448433E-04	2.267608E-08
3.002823E+03	5.513785E-04	2.294807E-08
3.012799E+03	5.580709E-04	2.322661E-08
3.022776E+03	5.648293E-04	2.350788E-08
3.032752E+03	5.717510E-04	2.379596E-08
3.042728E+03	5.788544E-04	2.409160E-08
3.052704E+03	5.861587E-04	2.439560E-08
3.062680E+03	5.935688E-04	2.470401E-08
3.072656E+03	6.012646E-04	2.502430E-08
3.082633E+03	6.091517E-04	2.535256E-08
3.092609E+03	6.171363E-04	2.568487E-08
3.102585E+03	6.253997E-04	2.602879E-08
3.112561E+03	6.338490E-04	2.638045E-08
3.122537E+03	6.424834E-04	2.673980E-08
3.132513E+03	6.513942E-04	2.711066E-08
3.142489E+03	6.603983E-04	2.748541E-08
3.152466E+03	6.697699E-04	2.787545E-08
3.162442E+03	6.792371E-04	2.826947E-08
3.172418E+03	6.889835E-04	2.867511E-08
3.182394E+03	6.990116E-04	2.909248E-08
3.192370E+03	7.093227E-04	2.952162E-08
3.202346E+03	7.198293E-04	2.995889E-08
3.212323E+03	7.305348E-04	3.040445E-08
3.222299E+03	7.416263E-04	3.086608E-08
3.232275E+03	7.530160E-04	3.134010E-08
3.242251E+03	7.646185E-04	3.182299E-08
3.252227E+03	7.766226E-04	3.232260E-08
3.262203E+03	7.889425E-04	3.283535E-08
3.272179E+03	8.015864E-04	3.336158E-08
3.282156E+03	8.145618E-04	3.390161E-08
3.292132E+03	8.279682E-04	3.445958E-08
3.302108E+03	8.417244E-04	3.503210E-08
3.312084E+03	8.559323E-04	3.562342E-08
3.322060E+03	8.706023E-04	3.623398E-08
3.332036E+03	8.856569E-04	3.686055E-08
3.342013E+03	9.011084E-04	3.750363E-08
3.351989E+03	9.171548E-04	3.817147E-08
3.361965E+03	9.337217E-04	3.886097E-08
3.371941E+03	9.508252E-04	3.957281E-08
3.381917E+03	9.684860E-04	4.030784E-08
3.391893E+03	9.867242E-04	4.106691E-08
3.401870E+03	1.005654E-03	4.185476E-08
3.411846E+03	1.025209E-03	4.266863E-08
3.421822E+03	1.045416E-03	4.350961E-08
3.431798E+03	1.066489E-03	4.438667E-08
3.441774E+03	1.088276E-03	4.529343E-08
3.451750E+03	1.110905E-03	4.623523E-08
3.461726E+03	1.134414E-03	4.721368E-08
3.471703E+03	1.158845E-03	4.823046E-08
3.481679E+03	1.184243E-03	4.928754E-08
3.491655E+03	1.210754E-03	5.039090E-08
3.501631E+03	1.238241E-03	5.153489E-08
3.511607E+03	1.267048E-03	5.273383E-08
3.521583E+03	1.297049E-03	5.398246E-08
3.531560E+03	1.328409E-03	5.528763E-08
3.541536E+03	1.361201E-03	5.665244E-08
3.551512E+03	1.395410E-03	5.807619E-08
3.561488E+03	1.431314E-03	5.957049E-08
3.571464E+03	1.468907E-03	6.113507E-08
3.581440E+03	1.508282E-03	6.277385E-08
3.591417E+03	1.549636E-03	6.449495E-08
3.601393E+03	1.593049E-03	6.630178E-08
3.611369E+03	1.638497E-03	6.819331E-08
3.621345E+03	1.686158E-03	7.017693E-08
3.631321E+03	1.736109E-03	7.225587E-08
3.641297E+03	1.788430E-03	7.443344E-08
3.651273E+03	1.843203E-03	7.671307E-08
3.661250E+03	1.900620E-03	7.910271E-08
3.671226E+03	1.960769E-03	8.160608E-08
3.681202E+03	2.023634E-03	8.422248E-08
3.691178E+03	2.089306E-03	8.695572E-08
3.701154E+03	2.158102E-03	8.981898E-08
3.711130E+03	2.229994E-03	9.281108E-08
3.721107E+03	2.304981E-03	9.593199E-08
3.731083E+03	2.383151E-03	9.918537E-08
3.741059E+03	2.464224E-03	1.025596E-07
3.751035E+03	2.548492E-03	1.060668E-07
3.761011E+03	2.635635E-03	1.096936E-07
3.770987E+03	2.725667E-03	1.134407E-07
3.780963E+03	2.818462E-03	1.173028E-07
3.790940E+03	2.913863E-03	1.212733E-07
3.800916E+03	3.011683E-03	1.253445E-07
3.810892E+03	3.111838E-03	1.295129E-07
3.820868E+03	3.213950E-03	1.337627E-07
3.830844E+03	3.317731E-03	1.380821E-07
3.840820E+03	3.422998E-03	1.424632E-07
3.850797E+03	3.529393E-03	1.468913E-07
3.860773E+03	3.636387E-03	1.513443E-07
3.870749E+03	3.743683E-03	1.558099E-07
3.880725E+03	3.850954E-03	1.602745E-07
3.890701E+03	3.957414E-03	1.647053E-07
3.900677E+03	4.062662E-03	1.690856E-07
3.910654E+03	4.166125E-03	1.733917E-07
3.920630E+03	4.267346E-03	1.776045E-07
3.930606E+03	4.365549E-03	1.816917E-07
3.938587E+03	3.510542E-03	1.461067E-07
3.940083E+03	3.563466E-03	1.483094E-07
3.941580E+03	3.618806E-03	1.506126E-07
3.943076E+03	3.675288E-03	1.529634E-07
3.944572E+03	3.732745E-03	1.553547E-07
3.946069E+03	3.792799E-03	1.578541E-07
3.947565E+03	3.854840E-03	1.604362E-07
3.949062E+03	3.917589E-03	1.630478E-07
3.950558E+03	3.980656E-03	1.656726E-07
3.952055E+03	4.041021E-03	1.681850E-07
3.953551E+03	4.098901E-03	1.705939E-07
3.955047E+03	4.156533E-03	1.729925E-07
3.956544E+03	4.213465E-03	1.753620E-07
3.958040E+03	4.272951E-03	1.778378E-07
3.959537E+03	4.333650E-03	1.803640E-07
3.961033E+03	4.395675E-03	1.829455E-07
3.962530E+03	4.457624E-03	1.855237E-07
3.964026E+03	4.517245E-03	1.880051E-07
3.965522E+03	4.573745E-03	1.903566E-07
3.967019E+03	4.628527E-03	1.926366E-07
3.968515E+03	4.680343E-03	1.947932E-07
3.970012E+03	4.727550E-03	1.967579E-07
3.971508E+03	4.769348E-03	1.984975E-07
3.973005E+03	4.802726E-03	1.998867E-07
3.974501E+03	4.827780E-03	2.009294E-07
3.975997E+03	4.840017E-03	2.014387E-07
3.977494E+03	4.841106E-03	2.014841E-07
3.978990E+03	4.836524E-03	2.012933E-07
3.980487E+03	4.826654E-03	2.008826E-07
3.981983E+03	4.811370E-03	2.002465E-07
3.983479E+03	4.791343E-03	1.994129E-07
3.984976E+03	4.767925E-03	1.984383E-07
3.986472E+03	4.741452E-03	1.973365E-07
3.987969E+03	4.709979E-03	1.960266E-07
3.989465E+03	4.674521E-03	1.945509E-07
3.990962E+03	4.638321E-03	1.930442E-07
3.992458E+03	4.601605E-03	1.915161E-07
3.993954E+03	4.564716E-03	1.899808E-07
3.995451E+03	4.527881E-03	1.884478E-07
3.996947E+03	4.491158E-03	1.869194E-07
3.998444E+03	4.454949E-03	1.854124E-07
3.999940E+03	4.416101E-03	1.837956E-07
4.001437E+03	4.376217E-03	1.821356E-07
4.002933E+03	4.336497E-03	1.804825E-07
4.004429E+03	4.298379E-03	1.788960E-07
4.005926E+03	4.262326E-03	1.773956E-07
4.007422E+03	4.229840E-03	1.760435E-07
4.008919E+03	4.202022E-03	1.748857E-07
4.010415E+03	4.180266E-03	1.739802E-07
4.011912E+03	4.168967E-03	1.735100E-07
4.013408E+03	4.168613E-03	1.734953E-07
4.014904E+03	4.180325E-03	1.739827E-07
4.016401E+03	4.201818E-03	1.748773E-07
4.017897E+03	4.233404E-03	1.761918E-07
4.019394E+03	4.276843E-03	1.779997E-07
4.020890E+03	4.332508E-03	1.803165E-07
4.022386E+03	4.393239E-03	1.828441E-07
4.023883E+03	4.454638E-03	1.853995E-07
4.025379E+03	4.517867E-03	1.880310E-07
4.026876E+03	4.578690E-03	1.905624E-07
4.028372E+03	4.641693E-03	1.931846E-07
4.029869E+03	4.711013E-03	1.960696E-07
4.031365E+03	4.784976E-03	1.991479E-07
4.032861E+03	4.858638E-03	2.022137E-07
4.034358E+03	4.934097E-03	2.053542E-07
4.035854E+03	5.015152E-03	2.087277E-07
4.037351E+03	5.104326E-03	2.124391E-07
4.038847E+03	5.202280E-03	2.165159E-07
4.040344E+03	5.309386E-03	2.209736E-07
4.041840E+03	5.423964E-03	2.257423E-07
4.043336E+03	5.539940E-03	2.305691E-07
4.044833E+03	5.657609E-03	2.354664E-07
4.046329E+03	5.778558E-03	2.405002E-07
4.047826E+03	5.901796E-03	2.456293E-07
4.049322E+03	6.028445E-03	2.509004E-07
4.050819E+03	6.159982E-03	2.563749E-07
4.052315E+03	6.297593E-03	2.621022E-07
4.053811E+03	6.438938E-03	2.679849E-07
4.055308E+03	6.580487E-03	2.738761E-07
4.056804E+03	6.720471E-03	2.797021E-07
4.058301E+03	6.852982E-03	2.852171E-07
4.059797E+03	6.976234E-03	2.903468E-07
4.061294E+03	7.093158E-03	2.952131E-07
4.062790E+03	7.202556E-03	2.997662E-07
4.064286E+03	7.305006E-03	3.040301E-07
4.065783E+03	7.402862E-03	3.081028E-07
4.067279E+03	7.491957E-03	3.118109E-07
4.068776E+03	7.570497E-03	3.150797E-07
4.070272E+03	7.642019E-03	3.180564E-07
4.071768E+03	7.706510E-03	3.207405E-07
4.073265E+03	7.761571E-03	3.230321E-07
4.074761E+03	7.803615E-03	3.247819E-07
4.076258E+03	7.830815E-03	3.259140E-07
4.077754E+03	7.846731E-03	3.265764E-07
4.079251E+03	7.852518E-03	3.268172E-07
4.080747E+03	7.842786E-03	3.264122E-07
4.082243E+03	7.816305E-03	3.253101E-07
4.083740E+03	7.773639E-03	3.235343E-07
4.085236E+03	7.719535E-03	3.212825E-07
4.086733E+03	7.653367E-03	3.185287E-07
4.088229E+03	7.578105E-03	3.153963E-07
4.089726E+03	7.494935E-03	3.119348E-07
4.091222E+03	7.402628E-03	3.080931E-07
4.092718E+03	7.303579E-03	3.039707E-07
4.094215E+03	7.198965E-03	2.996167E-07
4.095711E+03	7.089379E-03	2.950558E-07
4.097208E+03	6.974814E-03	2.902877E-07
4.098704E+03	6.854050E-03	2.852616E-07
4.100201E+03	6.730088E-03	2.801024E-07
4.101697E+03	6.604731E-03	2.748851E-07
4.103193E+03	6.483408E-03	2.698357E-07
4.104690E+03	6.366731E-03	2.649796E-07
4.106186E+03	6.254712E-03	2.603175E-07
4.107683E+03	6.149778E-03	2.559502E-07
4.109179E+03	6.048013E-03	2.517148E-07
4.110675E+03	5.949909E-03	2.476318E-07
4.112172E+03	5.853899E-03	2.436359E-07
4.113668E+03	5.757377E-03	2.396187E-07
4.115165E+03	5.661923E-03	2.356460E-07
4.116661E+03	5.568207E-03	2.317455E-07
4.118158E+03	5.473497E-03	2.278038E-07
4.119654E+03	5.379862E-03	2.239067E-07
4.121150E+03	5.286815E-03	2.200341E-07
4.122647E+03	5.195089E-03	2.162166E-07
4.124143E+03	5.106211E-03	2.125176E-07
4.125640E+03	5.016834E-03	2.087977E-07
4.127136E+03	4.933365E-03	2.053238E-07
4.128633E+03	4.857774E-03	2.021777E-07
4.130129E+03	4.785797E-03	1.991821E-07
4.131625E+03	4.720684E-03	1.964721E-07
4.133122E+03	4.661901E-03	1.940256E-07
4.134618E+03	4.602966E-03	1.915728E-07
4.136115E+03	4.543389E-03	1.890932E-07
4.137611E+03	4.483047E-03	1.865818E-07
4.139108E+03	4.425438E-03	1.841841E-07
4.140604E+03	4.371058E-03	1.819209E-07
4.142100E+03	4.317641E-03	1.796977E-07
4.143597E+03	4.264265E-03	1.774762E-07
4.145093E+03	4.211055E-03	1.752616E-07
4.146590E+03	4.157147E-03	1.730181E-07
4.148086E+03	4.102850E-03	1.707582E-07
4.149582E+03	4.047115E-03	1.684386E-07
4.151079E+03	3.994814E-03	1.662618E-07
4.152575E+03	3.946820E-03	1.642644E-07
4.154072E+03	3.904256E-03	1.624929E-07
4.155568E+03	3.868494E-03	1.610045E-07
4.157065E+03	3.841406E-03	1.598771E-07
4.158561E+03	3.826913E-03	1.592739E-07
4.160057E+03	3.825537E-03	1.592166E-07
4.161554E+03	3.837056E-03	1.596960E-07
4.163050E+03	3.857527E-03	1.605480E-07
4.164547E+03	3.882616E-03	1.615922E-07
4.166043E+03	3.911278E-03	1.627851E-07
4.167540E+03	3.943458E-03	1.641244E-07
4.169036E+03	3.977357E-03	1.655353E-07
4.170532E+03	4.015594E-03	1.671267E-07
4.172029E+03	4.055499E-03	1.687875E-07
4.173525E+03	4.092272E-03	1.703180E-07
4.175022E+03	4.127715E-03	1.717931E-07
4.176518E+03	4.162763E-03	1.732518E-07
4.178015E+03	4.200666E-03	1.748293E-07
4.179511E+03	4.240366E-03	1.764815E-07
4.181007E+03	4.277296E-03	1.780186E-07
4.182504E+03	4.309635E-03	1.793645E-07
4.184000E+03	4.342638E-03	1.807381E-07
4.185497E+03	4.379819E-03	1.822855E-07
4.186993E+03	4.416917E-03	1.838295E-07
4.188490E+03	4.453118E-03	1.853362E-07
4.189986E+03	4.487160E-03	1.867530E-07
4.191482E+03	4.516147E-03	1.879594E-07
4.192979E+03	4.542838E-03	1.890703E-07
4.194475E+03	4.569620E-03	1.901849E-07
4.195972E+03	4.595045E-03	1.912431E-07
4.197468E+03	4.618542E-03	1.922210E-07
4.198964E+03	4.640422E-03	1.931317E-07
4.200461E+03	4.662451E-03	1.940485E-07
4.201957E+03	4.681469E-03	1.948400E-07
4.203454E+03	4.697217E-03	1.954954E-07
4.204950E+03	4.710447E-03	1.960461E-07
4.206447E+03	4.720333E-03	1.964575E-07
4.207943E+03	4.727246E-03	1.967452E-07
4.209439E+03	4.730865E-03	1.968959E-07
4.210936E+03	4.730295E-03	1.968721E-07
4.212432E+03	4.726034E-03	1.966948E-07
4.213929E+03	4.719283E-03	1.964138E-07
4.215425E+03	4.709910E-03	1.960237E-07
4.216922E+03	4.695174E-03	1.954104E-07
4.218418E+03	4.674239E-03	1.945391E-07
4.219914E+03	4.647346E-03	1.934198E-07
4.221411E+03	4.614612E-03	1.920574E-07
4.222907E+03	4.575323E-03	1.904223E-07
4.224404E+03	4.527937E-03	1.884501E-07
4.225900E+03	4.476842E-03	1.863236E-07
4.227397E+03	4.426506E-03	1.842286E-07
4.228893E+03	4.371046E-03	1.819204E-07
4.230389E+03	4.307319E-03	1.792681E-07
4.231886E+03	4.240816E-03	1.765003E-07
4.233382E+03	4.169736E-03	1.735420E-07
4.234879E+03	4.093047E-03	1.703502E-07
4.236375E+03	4.012919E-03	1.670153E-07
4.237871E+03	3.931397E-03	1.636225E-07
4.239368E+03	3.847454E-03	1.601288E-07
4.240864E+03	3.763206E-03	1.566224E-07
4.242361E+03	3.680066E-03	1.531622E-07
4.243857E+03	3.597330E-03	1.497188E-07
4.245354E+03	3.516929E-03	1.463725E-07
4.246850E+03	3.440287E-03	1.431827E-07
4.248346E+03	3.368313E-03	1.401872E-07
4.249843E+03	3.302434E-03	1.374454E-07
4.251339E+03	3.244212E-03	1.350222E-07
4.252836E+03	3.192434E-03	1.328672E-07
4.254332E+03	3.148276E-03	1.310294E-07
4.255829E+03	3.112140E-03	1.295255E-07
4.257325E+03	3.083783E-03	1.283453E-07
4.258821E+03	3.062376E-03	1.274543E-07
4.260318E+03	3.047027E-03	1.268155E-07
4.261814E+03	3.037876E-03	1.264346E-07
4.263311E+03	3.035518E-03	1.263365E-07
4.264807E+03	3.043147E-03	1.266540E-07
4.266304E+03	3.061883E-03	1.274338E-07
4.267800E+03	3.092397E-03	1.287037E-07
4.269296E+03	3.137700E-03	1.305892E-07
4.270793E+03	3.194046E-03	1.329343E-07
4.272289E+03	3.261066E-03	1.357237E-07
4.273786E+03	3.334738E-03	1.387899E-07
4.275282E+03	3.410579E-03	1.419463E-07
4.276778E+03	3.490155E-03	1.452582E-07
4.278275E+03	3.574387E-03	1.487639E-07
4.279771E+03	3.661064E-03	1.523714E-07
4.281268E+03	3.747510E-03	1.559692E-07
4.282764E+03	3.827712E-03	1.593071E-07
4.284261E+03	3.898909E-03	1.622703E-07
4.285757E+03	3.966256E-03	1.650733E-07
4.287253E+03	4.028502E-03	1.676639E-07
4.288750E+03	4.085506E-03	1.700363E-07
4.290246E+03	4.140143E-03	1.723103E-07
4.291743E+03	4.191293E-03	1.744392E-07
4.293239E+03	4.235210E-03	1.762669E-07
4.294736E+03	4.272667E-03	1.778259E-07
4.296232E+03	4.301946E-03	1.790445E-07
4.297728E+03	4.324346E-03	1.799767E-07
4.299225E+03	4.342158E-03	1.807181E-07
4.300721E+03	4.356691E-03	1.813229E-07
4.302218E+03	4.367279E-03	1.817636E-07
4.303714E+03	4.374972E-03	1.820838E-07
4.305211E+03	4.378445E-03	1.822283E-07
4.306707E+03	4.378481E-03	1.822298E-07
4.308203E+03	4.377122E-03	1.821733E-07
4.309700E+03	4.370998E-03	1.819184E-07
4.311196E+03	4.360563E-03	1.814841E-07
4.312693E+03	4.345609E-03	1.808617E-07
4.314189E+03	4.325867E-03	1.800401E-07
4.315686E+03	4.305895E-03	1.792088E-07
4.317182E+03	4.286686E-03	1.784094E-07
4.318678E+03	4.268906E-03	1.776694E-07
4.320175E+03	4.253152E-03	1.770137E-07
4.321671E+03	4.235380E-03	1.762740E-07
4.323168E+03	4.218511E-03	1.755719E-07
4.324664E+03	4.204801E-03	1.750014E-07
4.326160E+03	4.192197E-03	1.744768E-07
4.327657E+03	4.178904E-03	1.739236E-07
4.329153E+03	4.163461E-03	1.732808E-07
4.330650E+03	4.147724E-03	1.726259E-07
4.332146E+03	4.135358E-03	1.721112E-07
4.333643E+03	4.127767E-03	1.717952E-07
4.335139E+03	4.126024E-03	1.717227E-07
4.336635E+03	4.126872E-03	1.717580E-07
4.338132E+03	4.128313E-03	1.718179E-07
4.339628E+03	4.130345E-03	1.719025E-07
4.341125E+03	4.135311E-03	1.721092E-07
4.342621E+03	4.145618E-03	1.725382E-07
4.344118E+03	4.160006E-03	1.731370E-07
4.345614E+03	4.176741E-03	1.738335E-07
4.347110E+03	4.193952E-03	1.745498E-07
4.348607E+03	4.213113E-03	1.753473E-07
4.350103E+03	4.235567E-03	1.762818E-07
4.351600E+03	4.259778E-03	1.772894E-07
4.353096E+03	4.283868E-03	1.782921E-07
4.354593E+03	4.307704E-03	1.792841E-07
4.356089E+03	4.329002E-03	1.801705E-07
4.357585E+03	4.349370E-03	1.810182E-07
4.359082E+03	4.371495E-03	1.819391E-07
4.360578E+03	4.396186E-03	1.829667E-07
4.362075E+03	4.425938E-03	1.842049E-07
4.363571E+03	4.459611E-03	1.856064E-07
4.365067E+03	4.494047E-03	1.870396E-07
4.366564E+03	4.529650E-03	1.885214E-07
4.368060E+03	4.566558E-03	1.900575E-07
4.369557E+03	4.605378E-03	1.916731E-07
4.371053E+03	4.647259E-03	1.934162E-07
4.372550E+03	4.691667E-03	1.952644E-07
4.374046E+03	4.737252E-03	1.971616E-07
4.375542E+03	4.785436E-03	1.991670E-07
4.377039E+03	4.837844E-03	2.013482E-07
4.378535E+03	4.889274E-03	2.034887E-07
4.380032E+03	4.936475E-03	2.054532E-07
4.381528E+03	4.980728E-03	2.072950E-07
4.383025E+03	5.023654E-03	2.090815E-07
4.384521E+03	5.067148E-03	2.108917E-07
4.386017E+03	5.109990E-03	2.126748E-07
4.387514E+03	5.149940E-03	2.143375E-07
4.389010E+03	5.187197E-03	2.158881E-07
4.390507E+03	5.223116E-03	2.173830E-07
4.392003E+03	5.255385E-03	2.187260E-07
4.393500E+03	5.284406E-03	2.199339E-07
4.394996E+03	5.312418E-03	2.210997E-07
4.396492E+03	5.338535E-03	2.221867E-07
4.397989E+03	5.362279E-03	2.231749E-07
4.399485E+03	5.383918E-03	2.240755E-07
4.400982E+03	5.402836E-03	2.248629E-07
4.402478E+03	5.419029E-03	2.255368E-07
4.403975E+03	5.433994E-03	2.261596E-07
4.405471E+03	5.446568E-03	2.266829E-07
4.406967E+03	5.457704E-03	2.271464E-07
4.408464E+03	5.467400E-03	2.275500E-07
4.409960E+03	5.474289E-03	2.278367E-07
4.411457E+03	5.479732E-03	2.280632E-07
4.412953E+03	5.483183E-03	2.282068E-07
4.414449E+03	5.484977E-03	2.282815E-07
4.415946E+03	5.486347E-03	2.283385E-07
4.417442E+03	5.487427E-03	2.283835E-07
4.418939E+03	5.489585E-03	2.284733E-07
4.420435E+03	5.489878E-03	2.284855E-07
4.421932E+03	5.487826E-03	2.284001E-07
4.423428E+03	5.482055E-03	2.281599E-07
4.424924E+03	5.472425E-03	2.277591E-07
4.426421E+03	5.461535E-03	2.273059E-07
4.427917E+03	5.449178E-03	2.267916E-07
4.429414E+03	5.433501E-03	2.261391E-07
4.430910E+03	5.414705E-03	2.253568E-07
4.432407E+03	5.393955E-03	2.244932E-07
4.433903E+03	5.370904E-03	2.235339E-07
4.435399E+03	5.345689E-03	2.224844E-07
4.436896E+03	5.320094E-03	2.214192E-07
4.438392E+03	5.294325E-03	2.203467E-07
4.439889E+03	5.267212E-03	2.192182E-07
4.441385E+03	5.234419E-03	2.178534E-07
4.442882E+03	5.195873E-03	2.162492E-07
4.444378E+03	5.153771E-03	2.144969E-07
4.445874E+03	5.109004E-03	2.126337E-07
4.447371E+03	5.062812E-03	2.107113E-07
4.448867E+03	5.012641E-03	2.086232E-07
4.450364E+03	4.956560E-03	2.062891E-07
4.451860E+03	4.894976E-03	2.037260E-07
4.453356E+03	4.828989E-03	2.009797E-07
4.454853E+03	4.761561E-03	1.981733E-07
4.456349E+03	4.694695E-03	1.953904E-07
4.457846E+03	4.629495E-03	1.926768E-07
4.459342E+03	4.564860E-03	1.899868E-07
4.460839E+03	4.501412E-03	1.873461E-07
4.462335E+03	4.438392E-03	1.847233E-07
4.463831E+03	4.375594E-03	1.821096E-07
4.465328E+03	4.313020E-03	1.795053E-07
4.466824E+03	4.249770E-03	1.768729E-07
4.468321E+03	4.186192E-03	1.742268E-07
4.469817E+03	4.125331E-03	1.716938E-07
4.471314E+03	4.067605E-03	1.692913E-07
4.472810E+03	4.012672E-03	1.670051E-07
4.474306E+03	3.957141E-03	1.646939E-07
4.475803E+03	3.898032E-03	1.622338E-07
4.477299E+03	3.838879E-03	1.597719E-07
4.478796E+03	3.777256E-03	1.572072E-07
4.480292E+03	3.717599E-03	1.547243E-07
4.481789E+03	3.659078E-03	1.522887E-07
4.483285E+03	3.601349E-03	1.498860E-07
4.484781E+03	3.550101E-03	1.477531E-07
4.486278E+03	3.505271E-03	1.458873E-07
4.487774E+03	3.464226E-03	1.441790E-07
4.489271E+03	3.430163E-03	1.427614E-07
4.490767E+03	3.402602E-03	1.416143E-07
4.492263E+03	3.380157E-03	1.406801E-07
4.493760E+03	3.367488E-03	1.401529E-07
4.495256E+03	3.365712E-03	1.400789E-07
4.496753E+03	3.375047E-03	1.404675E-07
4.498249E+03	3.397098E-03	1.413852E-07
4.499746E+03	3.432498E-03	1.428585E-07
4.501242E+03	3.479378E-03	1.448097E-07
4.502738E+03	3.536076E-03	1.471694E-07
4.504235E+03	3.604196E-03	1.500045E-07
4.505731E+03	3.682213E-03	1.532515E-07
4.507228E+03	3.773128E-03	1.570354E-07
4.508724E+03	3.880914E-03	1.615213E-07
