#wls	flux	fluxerr
1.596185E+03	1.292586E-04	1.991750E-07
1.636090E+03	1.317504E-04	2.030145E-07
1.675994E+03	1.341054E-04	2.066434E-07
1.715899E+03	1.363068E-04	2.100356E-07
1.755804E+03	1.383808E-04	2.132313E-07
1.795708E+03	1.402556E-04	2.161202E-07
1.835613E+03	1.417813E-04	2.184711E-07
1.875518E+03	1.429519E-04	2.202749E-07
1.915422E+03	1.435369E-04	2.211763E-07
1.955327E+03	1.435002E-04	2.211198E-07
1.995231E+03	1.428615E-04	2.201356E-07
2.035136E+03	1.418722E-04	2.186112E-07
2.075041E+03	1.411674E-04	2.175251E-07
2.114945E+03	1.415586E-04	2.181279E-07
2.154850E+03	1.438714E-04	2.216917E-07
2.194755E+03	1.485343E-04	2.288766E-07
2.234659E+03	1.553328E-04	2.393524E-07
2.274564E+03	1.636205E-04	2.521227E-07
2.314468E+03	1.728587E-04	2.663579E-07
2.354373E+03	1.824587E-04	2.811503E-07
2.394278E+03	1.921918E-04	2.961478E-07
2.434182E+03	2.019341E-04	3.111593E-07
2.474087E+03	2.117191E-04	3.262367E-07
2.513992E+03	2.214498E-04	3.412300E-07
2.553896E+03	2.312315E-04	3.563019E-07
2.593801E+03	2.411825E-04	3.716345E-07
2.633705E+03	2.512932E-04	3.872128E-07
2.673610E+03	2.616135E-04	4.031138E-07
2.713515E+03	2.721893E-04	4.194079E-07
2.753419E+03	2.831324E-04	4.362673E-07
2.793324E+03	2.944843E-04	4.537559E-07
2.833229E+03	3.062830E-04	4.719320E-07
2.873133E+03	3.186353E-04	4.909598E-07
2.913038E+03	3.315003E-04	5.107760E-07
2.952942E+03	3.451257E-04	5.317617E-07
2.992847E+03	3.594599E-04	5.538370E-07
3.002823E+03	3.631793E-04	5.595646E-07
3.012799E+03	3.669151E-04	5.653174E-07
3.022776E+03	3.707434E-04	5.712124E-07
3.032752E+03	3.745909E-04	5.771368E-07
3.042728E+03	3.785455E-04	5.832261E-07
3.052704E+03	3.826193E-04	5.894985E-07
3.062680E+03	3.867312E-04	5.958295E-07
3.072656E+03	3.909551E-04	6.023328E-07
3.082633E+03	3.952097E-04	6.088830E-07
3.092609E+03	3.995696E-04	6.155951E-07
3.102585E+03	4.039530E-04	6.223431E-07
3.112561E+03	4.085138E-04	6.293640E-07
3.122537E+03	4.130913E-04	6.364103E-07
3.132513E+03	4.177611E-04	6.435984E-07
3.142489E+03	4.224401E-04	6.508004E-07
3.152466E+03	4.272840E-04	6.582559E-07
3.162442E+03	4.321295E-04	6.657133E-07
3.172418E+03	4.370525E-04	6.732897E-07
3.182394E+03	4.420488E-04	6.809786E-07
3.192370E+03	4.471139E-04	6.887728E-07
3.202346E+03	4.522430E-04	6.966652E-07
3.212323E+03	4.574309E-04	7.046477E-07
3.222299E+03	4.627535E-04	7.128369E-07
3.232275E+03	4.680416E-04	7.209724E-07
3.242251E+03	4.733696E-04	7.291689E-07
3.252227E+03	4.788125E-04	7.375416E-07
3.262203E+03	4.842803E-04	7.459519E-07
3.272179E+03	4.897639E-04	7.543860E-07
3.282156E+03	4.952537E-04	7.628290E-07
3.292132E+03	5.008220E-04	7.713921E-07
3.302108E+03	5.064576E-04	7.800580E-07
3.312084E+03	5.119820E-04	7.885521E-07
3.322060E+03	5.176309E-04	7.972370E-07
3.332036E+03	5.232235E-04	8.058344E-07
3.342013E+03	5.287439E-04	8.143198E-07
3.351989E+03	5.342581E-04	8.227950E-07
3.361965E+03	5.398312E-04	8.313600E-07
3.371941E+03	5.451940E-04	8.396003E-07
3.381917E+03	5.505748E-04	8.478677E-07
3.391893E+03	5.558684E-04	8.559999E-07
3.401870E+03	5.610511E-04	8.639607E-07
3.411846E+03	5.660983E-04	8.717121E-07
3.421822E+03	5.709841E-04	8.792142E-07
3.431798E+03	5.756818E-04	8.864261E-07
3.441774E+03	5.802456E-04	8.934311E-07
3.451750E+03	5.845651E-04	9.000596E-07
3.461726E+03	5.886929E-04	9.063923E-07
3.471703E+03	5.925190E-04	9.122602E-07
3.481679E+03	5.960955E-04	9.177434E-07
3.491655E+03	8.913141E-04	1.372225E-06
3.496643E+03	8.537231E-04	1.314335E-06
3.501631E+03	8.065634E-04	1.241716E-06
3.506619E+03	7.514741E-04	1.156890E-06
3.511607E+03	6.933849E-04	1.067449E-06
3.516595E+03	6.320427E-04	9.730025E-07
3.521583E+03	5.682476E-04	8.747821E-07
3.526571E+03	5.043088E-04	7.763429E-07
3.531560E+03	4.328359E-04	6.663082E-07
3.536548E+03	3.670663E-04	5.650559E-07
3.541536E+03	3.249403E-04	5.002019E-07
3.546524E+03	3.029756E-04	4.663849E-07
3.551512E+03	3.011086E-04	4.635058E-07
3.556500E+03	3.128120E-04	4.815159E-07
3.561488E+03	3.255290E-04	5.010860E-07
3.566476E+03	3.412993E-04	5.253558E-07
3.571464E+03	3.608211E-04	5.553996E-07
3.576452E+03	3.835711E-04	5.904121E-07
3.581440E+03	4.029620E-04	6.202537E-07
3.586428E+03	4.260948E-04	6.558545E-07
3.591417E+03	4.593351E-04	7.070125E-07
3.596405E+03	4.946953E-04	7.614328E-07
3.601393E+03	5.291036E-04	8.143873E-07
3.606381E+03	5.600757E-04	8.620525E-07
3.611369E+03	5.855806E-04	9.013026E-07
3.616357E+03	6.008067E-04	9.247319E-07
3.621345E+03	6.030498E-04	9.281786E-07
3.626333E+03	5.963170E-04	9.178108E-07
3.631321E+03	5.884465E-04	9.056925E-07
3.636309E+03	5.744574E-04	8.841577E-07
3.641297E+03	5.533072E-04	8.516018E-07
3.646285E+03	5.253949E-04	8.086390E-07
3.651273E+03	4.927458E-04	7.583867E-07
3.656262E+03	4.602176E-04	7.083211E-07
3.661250E+03	4.348321E-04	6.692495E-07
3.666238E+03	4.116291E-04	6.335375E-07
3.671226E+03	3.838401E-04	5.907676E-07
3.676214E+03	3.527794E-04	5.429624E-07
3.681202E+03	3.125515E-04	4.810483E-07
3.686190E+03	2.878132E-04	4.429742E-07
3.691178E+03	2.946338E-04	4.534727E-07
3.696166E+03	3.257161E-04	5.013131E-07
3.701154E+03	3.821644E-04	5.881950E-07
3.706142E+03	4.523598E-04	6.962361E-07
3.711130E+03	5.235746E-04	8.058473E-07
3.716118E+03	5.998485E-04	9.232464E-07
3.721107E+03	6.805417E-04	1.047449E-06
3.726095E+03	7.555351E-04	1.162879E-06
3.731083E+03	8.151068E-04	1.254575E-06
3.736071E+03	8.622050E-04	1.327074E-06
3.741059E+03	8.978389E-04	1.381928E-06
3.746047E+03	9.190970E-04	1.414655E-06
3.751035E+03	9.262671E-04	1.425700E-06
3.756023E+03	9.192790E-04	1.414953E-06
3.761011E+03	9.003600E-04	1.385841E-06
3.765999E+03	8.708871E-04	1.340484E-06
3.770987E+03	8.352717E-04	1.285673E-06
3.775975E+03	7.962237E-04	1.225577E-06
3.780963E+03	7.582784E-04	1.167178E-06
3.785952E+03	7.177539E-04	1.104808E-06
3.790940E+03	6.750559E-04	1.039091E-06
3.795928E+03	6.331364E-04	9.745725E-07
3.800916E+03	5.938620E-04	9.141242E-07
3.805904E+03	5.592435E-04	8.608420E-07
3.810892E+03	5.333817E-04	8.210384E-07
3.815880E+03	5.080161E-04	7.819980E-07
3.820868E+03	4.740489E-04	7.297163E-07
3.825856E+03	4.354721E-04	6.703383E-07
3.830844E+03	3.938272E-04	6.062364E-07
3.835832E+03	3.527602E-04	5.430234E-07
3.840820E+03	3.168611E-04	4.877647E-07
3.845809E+03	2.834936E-04	4.364026E-07
3.850797E+03	2.519076E-04	3.877820E-07
3.855785E+03	2.231749E-04	3.435533E-07
3.860773E+03	2.017697E-04	3.106040E-07
3.865761E+03	1.914177E-04	2.946697E-07
3.870749E+03	1.988171E-04	3.060618E-07
3.875737E+03	2.180742E-04	3.357081E-07
3.880725E+03	2.413524E-04	3.715446E-07
3.885713E+03	2.755594E-04	4.242057E-07
3.890701E+03	3.167084E-04	4.875538E-07
3.895689E+03	3.747017E-04	5.768332E-07
3.900677E+03	4.552183E-04	7.007868E-07
3.905665E+03	5.614299E-04	8.642972E-07
3.910654E+03	6.945903E-04	1.069295E-06
3.915642E+03	8.512107E-04	1.310410E-06
3.920630E+03	1.024666E-03	1.577442E-06
3.925618E+03	1.209889E-03	1.862591E-06
3.930606E+03	1.399759E-03	2.154894E-06
3.935594E+03	1.590625E-03	2.448732E-06
3.940582E+03	1.776349E-03	2.734652E-06
3.945570E+03	1.952281E-03	3.005498E-06
3.950558E+03	2.120211E-03	3.264026E-06
3.955546E+03	2.268654E-03	3.492551E-06
3.960534E+03	2.398961E-03	3.693156E-06
3.965522E+03	2.492163E-03	3.836638E-06
3.970510E+03	2.561330E-03	3.943115E-06
3.975499E+03	2.585431E-03	3.980213E-06
3.980487E+03	2.560596E-03	3.941974E-06
3.985475E+03	2.480420E-03	3.818538E-06
3.990463E+03	2.321514E-03	3.573897E-06
3.995451E+03	2.125810E-03	3.272609E-06
4.000439E+03	1.921582E-03	2.958197E-06
4.005427E+03	1.753739E-03	2.699800E-06
4.010415E+03	1.648039E-03	2.537071E-06
4.015403E+03	1.630850E-03	2.510598E-06
4.020391E+03	1.721296E-03	2.649822E-06
4.025379E+03	1.912727E-03	2.944502E-06
4.030367E+03	2.200746E-03	3.387867E-06
4.035356E+03	2.563430E-03	3.946165E-06
4.040344E+03	2.954979E-03	4.548890E-06
4.045332E+03	3.374525E-03	5.194704E-06
4.050320E+03	3.810826E-03	5.866297E-06
4.055308E+03	4.242557E-03	6.530844E-06
4.060296E+03	4.654108E-03	7.164312E-06
4.065284E+03	5.012677E-03	7.716211E-06
4.070272E+03	5.292971E-03	8.147604E-06
4.075260E+03	5.474278E-03	8.426614E-06
4.080248E+03	5.537344E-03	8.523608E-06
4.085236E+03	5.480862E-03	8.436578E-06
4.090224E+03	5.312016E-03	8.176588E-06
4.095212E+03	5.046649E-03	7.768030E-06
4.100201E+03	4.715259E-03	7.257854E-06
4.105189E+03	4.336434E-03	6.674675E-06
4.110177E+03	3.950831E-03	6.081074E-06
4.115165E+03	3.581280E-03	5.512192E-06
4.120153E+03	3.267592E-03	5.029305E-06
4.125141E+03	2.996772E-03	4.612408E-06
4.130129E+03	2.781965E-03	4.281729E-06
4.135117E+03	2.594221E-03	3.992711E-06
4.140105E+03	2.394934E-03	3.685935E-06
4.145093E+03	2.213366E-03	3.406437E-06
4.150081E+03	2.022837E-03	3.113155E-06
4.155069E+03	1.853417E-03	2.852368E-06
4.160057E+03	1.704566E-03	2.623244E-06
4.165046E+03	1.610109E-03	2.477833E-06
4.170034E+03	1.590467E-03	2.447560E-06
4.175022E+03	1.646345E-03	2.533502E-06
4.180010E+03	1.786079E-03	2.748480E-06
4.184998E+03	1.968388E-03	3.028961E-06
4.189986E+03	2.162976E-03	3.328324E-06
4.194974E+03	2.365048E-03	3.639191E-06
4.199962E+03	2.563455E-03	3.944402E-06
4.204950E+03	2.740963E-03	4.217441E-06
4.209938E+03	2.890926E-03	4.448083E-06
4.214926E+03	2.996851E-03	4.610955E-06
4.219914E+03	3.055287E-03	4.700754E-06
4.224902E+03	3.057763E-03	4.704448E-06
4.229891E+03	3.002307E-03	4.619013E-06
4.234879E+03	2.898543E-03	4.459262E-06
4.239867E+03	2.753570E-03	4.236119E-06
4.244855E+03	2.583498E-03	3.974373E-06
4.249843E+03	2.401512E-03	3.694313E-06
4.254831E+03	2.227531E-03	3.426580E-06
4.259819E+03	2.085823E-03	3.208504E-06
4.264807E+03	1.985158E-03	3.053570E-06
4.269795E+03	1.941741E-03	2.986700E-06
4.274783E+03	1.958970E-03	3.013114E-06
4.279771E+03	2.046432E-03	3.147547E-06
4.284759E+03	2.176276E-03	3.347155E-06
4.289748E+03	2.327959E-03	3.580338E-06
4.294736E+03	2.474674E-03	3.805864E-06
4.299724E+03	2.579305E-03	3.966654E-06
4.304712E+03	2.648372E-03	4.072741E-06
4.309700E+03	2.667257E-03	4.101651E-06
4.314688E+03	2.651655E-03	4.077527E-06
4.319676E+03	2.606923E-03	4.008608E-06
4.324664E+03	2.544451E-03	3.912417E-06
4.329652E+03	2.482263E-03	3.816666E-06
4.334640E+03	2.421888E-03	3.723709E-06
4.339628E+03	2.379983E-03	3.659153E-06
4.344616E+03	2.355653E-03	3.621621E-06
4.349604E+03	2.360183E-03	3.628458E-06
4.354593E+03	2.385580E-03	3.667375E-06
4.359581E+03	2.433309E-03	3.740616E-06
4.364569E+03	2.496490E-03	3.837605E-06
4.369557E+03	2.552663E-03	3.923813E-06
4.374545E+03	2.613528E-03	4.017227E-06
4.379533E+03	2.681569E-03	4.121664E-06
4.384521E+03	2.759648E-03	4.241519E-06
4.389509E+03	2.843235E-03	4.369832E-06
4.394497E+03	2.931253E-03	4.504944E-06
4.399485E+03	3.011882E-03	4.628691E-06
4.404473E+03	3.093261E-03	4.753582E-06
4.409461E+03	3.176678E-03	4.881595E-06
4.414449E+03	3.260939E-03	5.010896E-06
4.419438E+03	3.353888E-03	5.153538E-06
4.424426E+03	3.445022E-03	5.293382E-06
4.429414E+03	3.537103E-03	5.434671E-06
4.434402E+03	3.613812E-03	5.552335E-06
4.439390E+03	3.671365E-03	5.640559E-06
4.444378E+03	3.697120E-03	5.679929E-06
4.449366E+03	3.685914E-03	5.662515E-06
4.454354E+03	3.633675E-03	5.582070E-06
4.459342E+03	3.543034E-03	5.442642E-06
4.464330E+03	3.410661E-03	5.239121E-06
4.469318E+03	3.246224E-03	4.986364E-06
4.474306E+03	3.053726E-03	4.690526E-06
4.479294E+03	2.862448E-03	4.396583E-06
4.484283E+03	2.668929E-03	4.099220E-06
4.489271E+03	2.486250E-03	3.818527E-06
4.494259E+03	2.322378E-03	3.566739E-06
4.499247E+03	2.144753E-03	3.293846E-06
4.504235E+03	2.016711E-03	3.097117E-06
4.509223E+03	1.960845E-03	3.011243E-06
4.514211E+03	2.018786E-03	3.100143E-06
4.519199E+03	2.238978E-03	3.438198E-06
4.524187E+03	2.613991E-03	4.013981E-06
4.529175E+03	3.138812E-03	4.819779E-06
4.534163E+03	3.761317E-03	5.775544E-06
4.539151E+03	4.408100E-03	6.768561E-06
4.544140E+03	5.065474E-03	7.777815E-06
4.549128E+03	5.698514E-03	8.749686E-06
4.554116E+03	6.310921E-03	9.689863E-06
4.559104E+03	6.928869E-03	1.063854E-05
4.564092E+03	7.513491E-03	1.153605E-05
4.569080E+03	8.067042E-03	1.238586E-05
4.574068E+03	8.534093E-03	1.310288E-05
4.579056E+03	8.861060E-03	1.360484E-05
4.584044E+03	9.057715E-03	1.390675E-05
4.589032E+03	9.110552E-03	1.398789E-05
4.594020E+03	9.076051E-03	1.393495E-05
4.599008E+03	9.011838E-03	1.383643E-05
4.603996E+03	8.953480E-03	1.374693E-05
4.608985E+03	8.943686E-03	1.373201E-05
4.613973E+03	9.001490E-03	1.382091E-05
4.618961E+03	9.158582E-03	1.406228E-05
4.623949E+03	9.412938E-03	1.445303E-05
4.628937E+03	9.792485E-03	1.503603E-05
4.633925E+03	1.022994E-02	1.570800E-05
4.638913E+03	1.065515E-02	1.636121E-05
4.643901E+03	1.102256E-02	1.692570E-05
4.648889E+03	1.124390E-02	1.726594E-05
4.653877E+03	1.138384E-02	1.748122E-05
4.658865E+03	1.145583E-02	1.759217E-05
4.663853E+03	1.150827E-02	1.767313E-05
4.668841E+03	1.158578E-02	1.779260E-05
4.673830E+03	1.164858E-02	1.788950E-05
4.678818E+03	1.169956E-02	1.796828E-05
4.683806E+03	1.168523E-02	1.794677E-05
4.688794E+03	1.156955E-02	1.776960E-05
4.693782E+03	1.138157E-02	1.748139E-05
4.698770E+03	1.114751E-02	1.712237E-05
4.703758E+03	1.090041E-02	1.674334E-05
4.708746E+03	1.068315E-02	1.641011E-05
4.713734E+03	1.047626E-02	1.609280E-05
4.718722E+03	1.030025E-02	1.582293E-05
4.723710E+03	1.011130E-02	1.553315E-05
4.728698E+03	9.848930E-03	1.513056E-05
4.733686E+03	9.557778E-03	1.468374E-05
4.738675E+03	9.214315E-03	1.415652E-05
4.743663E+03	8.902265E-03	1.367753E-05
4.748651E+03	8.696612E-03	1.336198E-05
4.753639E+03	8.573437E-03	1.317315E-05
4.758627E+03	8.536009E-03	1.311606E-05
4.763615E+03	8.554010E-03	1.314413E-05
4.768603E+03	8.610282E-03	1.323102E-05
4.773591E+03	8.690965E-03	1.335542E-05
4.778579E+03	8.780732E-03	1.349378E-05
4.783567E+03	8.843917E-03	1.359130E-05
4.788555E+03	8.827148E-03	1.356595E-05
4.793543E+03	8.763237E-03	1.346814E-05
4.798532E+03	8.661561E-03	1.331227E-05
4.803520E+03	8.548906E-03	1.313952E-05
4.808508E+03	8.467609E-03	1.301495E-05
4.813496E+03	8.372891E-03	1.286974E-05
4.818484E+03	8.297313E-03	1.275394E-05
4.823472E+03	8.176270E-03	1.256823E-05
4.828460E+03	8.000764E-03	1.229879E-05
4.833448E+03	7.751058E-03	1.191527E-05
4.838436E+03	7.397152E-03	1.137153E-05
4.843424E+03	7.015906E-03	1.078573E-05
4.848412E+03	6.649859E-03	1.022326E-05
4.853400E+03	6.360504E-03	9.778665E-06
4.858388E+03	6.177452E-03	9.497473E-06
4.863377E+03	6.160104E-03	9.471030E-06
4.868365E+03	6.286824E-03	9.666086E-06
4.873353E+03	6.599678E-03	1.014733E-05
4.878341E+03	7.070165E-03	1.087097E-05
4.883329E+03	7.734844E-03	1.189323E-05
4.888317E+03	8.603481E-03	1.322914E-05
4.893305E+03	9.651157E-03	1.484039E-05
4.898293E+03	1.089934E-02	1.676002E-05
4.903281E+03	1.217920E-02	1.872843E-05
4.908269E+03	1.342235E-02	2.064045E-05
4.913257E+03	1.447754E-02	2.226348E-05
4.918245E+03	1.525507E-02	2.345955E-05
4.923233E+03	1.566634E-02	2.409240E-05
4.928222E+03	1.565502E-02	2.407535E-05
4.933210E+03	1.521650E-02	2.340130E-05
4.938198E+03	1.432771E-02	2.203476E-05
4.943186E+03	1.312837E-02	2.019054E-05
4.948174E+03	1.171228E-02	1.801290E-05
4.953162E+03	1.025105E-02	1.576579E-05
4.958150E+03	8.906508E-03	1.369808E-05
4.963138E+03	7.817692E-03	1.202361E-05
4.968126E+03	7.142440E-03	1.098518E-05
4.973114E+03	6.891882E-03	1.059991E-05
4.978102E+03	7.106576E-03	1.093019E-05
4.983090E+03	7.708982E-03	1.185680E-05
4.988078E+03	8.597143E-03	1.322292E-05
4.993067E+03	9.715480E-03	1.494306E-05
4.998055E+03	1.091931E-02	1.679471E-05
5.003043E+03	1.215327E-02	1.869270E-05
5.008031E+03	1.329113E-02	2.044288E-05
5.013019E+03	1.426799E-02	2.194541E-05
5.018007E+03	1.498603E-02	2.304986E-05
5.022995E+03	1.542811E-02	2.372982E-05
5.027983E+03	1.554510E-02	2.390975E-05
5.032971E+03	1.537323E-02	2.364538E-05
5.037959E+03	1.498839E-02	2.305341E-05
5.042947E+03	1.440437E-02	2.215508E-05
5.047935E+03	1.373465E-02	2.112491E-05
5.052924E+03	1.296096E-02	1.993483E-05
5.057912E+03	1.216272E-02	1.870698E-05
5.062900E+03	1.133998E-02	1.744145E-05
5.067888E+03	1.054977E-02	1.622595E-05
5.072876E+03	9.793981E-03	1.506341E-05
5.077864E+03	9.091898E-03	1.398346E-05
5.082852E+03	8.428017E-03	1.296228E-05
5.087840E+03	7.768849E-03	1.194836E-05
5.092828E+03	7.138492E-03	1.097876E-05
5.097816E+03	6.483658E-03	9.971530E-06
5.102804E+03	5.875048E-03	9.035405E-06
5.107792E+03	5.321263E-03	8.183612E-06
5.112780E+03	4.884449E-03	7.511725E-06
5.117769E+03	4.618360E-03	7.102403E-06
5.122757E+03	4.515250E-03	6.943723E-06
5.127745E+03	4.588123E-03	7.055672E-06
5.132733E+03	4.790167E-03	7.366249E-06
5.137721E+03	5.062477E-03	7.784862E-06
5.142709E+03	5.396795E-03	8.298802E-06
5.147697E+03	5.745779E-03	8.835270E-06
5.152685E+03	6.135547E-03	9.434421E-06
5.157673E+03	6.572444E-03	1.010601E-05
5.162661E+03	7.043856E-03	1.083063E-05
5.167649E+03	7.537868E-03	1.158995E-05
5.172637E+03	8.008857E-03	1.231384E-05
5.177625E+03	8.425056E-03	1.295344E-05
5.182614E+03	8.787693E-03	1.351066E-05
5.187602E+03	9.090364E-03	1.397564E-05
5.192590E+03	9.334706E-03	1.435091E-05
5.197578E+03	9.573978E-03	1.471836E-05
5.202566E+03	9.760948E-03	1.500538E-05
5.207554E+03	9.889625E-03	1.520276E-05
5.212542E+03	9.942019E-03	1.528286E-05
5.217530E+03	9.927781E-03	1.526052E-05
5.222518E+03	9.836560E-03	1.511985E-05
5.227506E+03	9.679903E-03	1.487859E-05
5.232494E+03	9.458390E-03	1.453765E-05
5.237482E+03	9.167103E-03	1.408949E-05
5.242470E+03	8.826940E-03	1.356623E-05
5.247459E+03	8.445563E-03	1.297966E-05
5.252447E+03	8.082900E-03	1.242188E-05
5.257435E+03	7.785847E-03	1.196497E-05
5.262423E+03	7.586171E-03	1.165771E-05
5.267411E+03	7.518111E-03	1.155272E-05
5.272399E+03	7.564147E-03	1.162306E-05
5.277387E+03	7.712562E-03	1.185069E-05
5.282375E+03	7.933926E-03	1.219039E-05
5.287363E+03	8.174169E-03	1.255907E-05
5.292351E+03	8.455033E-03	1.299013E-05
5.297339E+03	8.745455E-03	1.343584E-05
5.302327E+03	9.078927E-03	1.394765E-05
5.307316E+03	9.488131E-03	1.457576E-05
5.312304E+03	9.922614E-03	1.524265E-05
5.317292E+03	1.035942E-02	1.591307E-05
5.322280E+03	1.075157E-02	1.651485E-05
5.327268E+03	1.108134E-02	1.702075E-05
5.332256E+03	1.131785E-02	1.738340E-05
5.337244E+03	1.142754E-02	1.755123E-05
5.342232E+03	1.145654E-02	1.759513E-05
5.347220E+03	1.143308E-02	1.755847E-05
5.352208E+03	1.137224E-02	1.746440E-05
5.357196E+03	1.130025E-02	1.735324E-05
5.362184E+03	1.125642E-02	1.728533E-05
5.367172E+03	1.126406E-02	1.729646E-05
5.372161E+03	1.134081E-02	1.741373E-05
5.377149E+03	1.149777E-02	1.765414E-05
5.382137E+03	1.172080E-02	1.799601E-05
5.387125E+03	1.198092E-02	1.839480E-05
5.392113E+03	1.227804E-02	1.885041E-05
5.397101E+03	1.258234E-02	1.931702E-05
5.402089E+03	1.290124E-02	1.980603E-05
5.407077E+03	1.324404E-02	2.033173E-05
5.412065E+03	1.357071E-02	2.083266E-05
5.417053E+03	1.388129E-02	2.130889E-05
5.422041E+03	1.410803E-02	2.165643E-05
5.427029E+03	1.421949E-02	2.182703E-05
5.432017E+03	1.416484E-02	2.174268E-05
5.437006E+03	1.391280E-02	2.135539E-05
5.441994E+03	1.347574E-02	2.068415E-05
5.446982E+03	1.285022E-02	1.972371E-05
5.451970E+03	1.212355E-02	1.860807E-05
5.456958E+03	1.136434E-02	1.744257E-05
5.461946E+03	1.063184E-02	1.631812E-05
5.466934E+03	9.993486E-03	1.533823E-05
5.471922E+03	9.510127E-03	1.459628E-05
5.476910E+03	9.225508E-03	1.415939E-05
5.481898E+03	9.144057E-03	1.403436E-05
5.486886E+03	9.257290E-03	1.420818E-05
5.491874E+03	9.559500E-03	1.467207E-05
5.496862E+03	1.000721E-02	1.535933E-05
5.501851E+03	1.058182E-02	1.624139E-05
5.506839E+03	1.122420E-02	1.722753E-05
5.511827E+03	1.190942E-02	1.827948E-05
5.516815E+03	1.258313E-02	1.931384E-05
5.521803E+03	1.322327E-02	2.029674E-05
5.526791E+03	1.379494E-02	2.117462E-05
5.531779E+03	1.425594E-02	2.188267E-05
5.536767E+03	1.458249E-02	2.238442E-05
5.541755E+03	1.473707E-02	2.262226E-05
5.546743E+03	1.471989E-02	2.259645E-05
5.551731E+03	1.452193E-02	2.229316E-05
5.556719E+03	1.418194E-02	2.177184E-05
5.561708E+03	1.369547E-02	2.102562E-05
5.566696E+03	1.311491E-02	2.013496E-05
5.571684E+03	1.244037E-02	1.909995E-05
5.576672E+03	1.172143E-02	1.799673E-05
5.581660E+03	1.097826E-02	1.685625E-05
5.586648E+03	1.023745E-02	1.571933E-05
5.591636E+03	9.534704E-03	1.464078E-05
5.596624E+03	8.873251E-03	1.362559E-05
5.601612E+03	8.312094E-03	1.276434E-05
5.606600E+03	7.859553E-03	1.206985E-05
5.611588E+03	7.561997E-03	1.161332E-05
5.616576E+03	7.426427E-03	1.140555E-05
