#wls	flux	fluxerr
1.596185E+03	1.208050E-04	4.141913E-06
1.636090E+03	1.228967E-04	4.188401E-06
1.675994E+03	1.249086E-04	4.230807E-06
1.715899E+03	1.267751E-04	4.266932E-06
1.755804E+03	1.285224E-04	4.297730E-06
1.795708E+03	1.300849E-04	4.321069E-06
1.835613E+03	1.313236E-04	4.332465E-06
1.875518E+03	1.321856E-04	4.330387E-06
1.915422E+03	1.325602E-04	4.311487E-06
1.955327E+03	1.323658E-04	4.273466E-06
1.995231E+03	1.316230E-04	4.217396E-06
2.035136E+03	1.305649E-04	4.151103E-06
2.075041E+03	1.297776E-04	4.093324E-06
2.114945E+03	1.300045E-04	4.067122E-06
2.154850E+03	1.320461E-04	4.096555E-06
2.194755E+03	1.362468E-04	4.190778E-06
2.234659E+03	1.424073E-04	4.341951E-06
2.274564E+03	1.499315E-04	4.530415E-06
2.314468E+03	1.583281E-04	4.740268E-06
2.354373E+03	1.671613E-04	4.957771E-06
2.394278E+03	1.760710E-04	5.171895E-06
2.434182E+03	1.850520E-04	5.382349E-06
2.474087E+03	1.940853E-04	5.588447E-06
2.513992E+03	2.031391E-04	5.789174E-06
2.553896E+03	2.123169E-04	5.987375E-06
2.593801E+03	2.216117E-04	6.182694E-06
2.633705E+03	2.311363E-04	6.378109E-06
2.673610E+03	2.408794E-04	6.573067E-06
2.713515E+03	2.510147E-04	6.772046E-06
2.753419E+03	2.614601E-04	6.972493E-06
2.793324E+03	2.723877E-04	7.178668E-06
2.833229E+03	2.838404E-04	7.391269E-06
2.873133E+03	2.957903E-04	7.609144E-06
2.913038E+03	3.084100E-04	7.836281E-06
2.952942E+03	3.217353E-04	8.073051E-06
2.992847E+03	3.358667E-04	8.321410E-06
3.002823E+03	3.395574E-04	8.386029E-06
3.012799E+03	3.432690E-04	8.450597E-06
3.022776E+03	3.470734E-04	8.516873E-06
3.032752E+03	3.509017E-04	8.583158E-06
3.042728E+03	3.548370E-04	8.651471E-06
3.052704E+03	3.588180E-04	8.720304E-06
3.062680E+03	3.629140E-04	8.791330E-06
3.072656E+03	3.671225E-04	8.864464E-06
3.082633E+03	3.713675E-04	8.937854E-06
3.092609E+03	3.757193E-04	9.013184E-06
3.102585E+03	3.801755E-04	9.090374E-06
3.112561E+03	3.846593E-04	9.167579E-06
3.122537E+03	3.892421E-04	9.246491E-06
3.132513E+03	3.939213E-04	9.327032E-06
3.142489E+03	3.986944E-04	9.409125E-06
3.152466E+03	4.034832E-04	9.490917E-06
3.162442E+03	4.083599E-04	9.574101E-06
3.172418E+03	4.133972E-04	9.660365E-06
3.182394E+03	4.184404E-04	9.746075E-06
3.192370E+03	4.235614E-04	9.832907E-06
3.202346E+03	4.287566E-04	9.920765E-06
3.212323E+03	4.340217E-04	1.000954E-05
3.222299E+03	4.394294E-04	1.010090E-05
3.232275E+03	4.448201E-04	1.019117E-05
3.242251E+03	4.502655E-04	1.028198E-05
3.252227E+03	4.558371E-04	1.037498E-05
3.262203E+03	4.614507E-04	1.046822E-05
3.272179E+03	4.671768E-04	1.056331E-05
3.282156E+03	4.728508E-04	1.065651E-05
3.292132E+03	4.786200E-04	1.075117E-05
3.302108E+03	4.844748E-04	1.084706E-05
3.312084E+03	4.903254E-04	1.094215E-05
3.322060E+03	4.962385E-04	1.103796E-05
3.332036E+03	5.021216E-04	1.113244E-05
3.342013E+03	5.080392E-04	1.122701E-05
3.351989E+03	5.139754E-04	1.132135E-05
3.361965E+03	5.198335E-04	1.141333E-05
3.371941E+03	5.256739E-04	1.150431E-05
3.381917E+03	5.315556E-04	1.159559E-05
3.391893E+03	5.372980E-04	1.168326E-05
3.401870E+03	5.429569E-04	1.176856E-05
3.411846E+03	5.485868E-04	1.185271E-05
3.421822E+03	5.540820E-04	1.193345E-05
3.431798E+03	5.594150E-04	1.201024E-05
3.441774E+03	5.645574E-04	1.208251E-05
3.451750E+03	5.695586E-04	1.215137E-05
3.461726E+03	5.743889E-04	1.221623E-05
3.471703E+03	5.789414E-04	1.227489E-05
3.481679E+03	5.832674E-04	1.232849E-05
3.491655E+03	5.872665E-04	1.237497E-05
3.501631E+03	5.910745E-04	1.241728E-05
3.511607E+03	5.946037E-04	1.245362E-05
3.521583E+03	5.977763E-04	1.248243E-05
3.531560E+03	6.007464E-04	1.250702E-05
3.541536E+03	6.034465E-04	1.252601E-05
3.551512E+03	6.059588E-04	1.254120E-05
3.561488E+03	6.082187E-04	1.255127E-05
3.571464E+03	6.103061E-04	1.255795E-05
3.581440E+03	6.121567E-04	1.255995E-05
3.591417E+03	6.139248E-04	1.256049E-05
3.601393E+03	6.155314E-04	1.255798E-05
3.611369E+03	6.171282E-04	1.255554E-05
3.621345E+03	6.188007E-04	1.255492E-05
3.631321E+03	6.207040E-04	1.255927E-05
3.641297E+03	6.228640E-04	1.256908E-05
3.651273E+03	6.254405E-04	1.258753E-05
3.661250E+03	6.284657E-04	1.261522E-05
3.671226E+03	6.321006E-04	1.265531E-05
3.681202E+03	6.363788E-04	1.270838E-05
3.691178E+03	6.415189E-04	1.277867E-05
3.701154E+03	6.475497E-04	1.286664E-05
3.711130E+03	6.545605E-04	1.297393E-05
3.721107E+03	6.626391E-04	1.310212E-05
3.731083E+03	6.719336E-04	1.325401E-05
3.741059E+03	6.825361E-04	1.343124E-05
3.751035E+03	6.944879E-04	1.363444E-05
3.761011E+03	7.080222E-04	1.386801E-05
3.770987E+03	7.231493E-04	1.413196E-05
3.780963E+03	7.400723E-04	1.443004E-05
3.790940E+03	7.590147E-04	1.476640E-05
3.800916E+03	7.801539E-04	1.514423E-05
3.810892E+03	8.036186E-04	1.556577E-05
3.820868E+03	8.296709E-04	1.603583E-05
3.830844E+03	8.585192E-04	1.655812E-05
3.840820E+03	8.903756E-04	1.713643E-05
3.850797E+03	9.255131E-04	1.777566E-05
3.860773E+03	9.640695E-04	1.847812E-05
3.870749E+03	1.006228E-03	1.924693E-05
3.880725E+03	1.052285E-03	2.008739E-05
3.890701E+03	1.102222E-03	2.099876E-05
3.900677E+03	1.156253E-03	2.198468E-05
3.910654E+03	1.214303E-03	2.304337E-05
3.920630E+03	1.276364E-03	2.417426E-05
3.930606E+03	1.342175E-03	2.537204E-05
3.940582E+03	1.411523E-03	2.663235E-05
3.950558E+03	1.484103E-03	2.794913E-05
3.960534E+03	1.559266E-03	2.930988E-05
3.970510E+03	1.636727E-03	3.070908E-05
3.980487E+03	1.715624E-03	3.213035E-05
3.990463E+03	1.795598E-03	3.356695E-05
4.000439E+03	1.875808E-03	3.500308E-05
4.010415E+03	1.955769E-03	3.642976E-05
4.020391E+03	2.034695E-03	3.783244E-05
4.030367E+03	2.111986E-03	3.920012E-05
4.040344E+03	2.186839E-03	4.051812E-05
4.050320E+03	2.258778E-03	4.177791E-05
4.060296E+03	2.326950E-03	4.296405E-05
4.070272E+03	2.390995E-03	4.407028E-05
4.080248E+03	2.450446E-03	4.508842E-05
4.090224E+03	2.504761E-03	4.600896E-05
4.100201E+03	2.554097E-03	4.683526E-05
4.110177E+03	2.598365E-03	4.756617E-05
4.120153E+03	2.637768E-03	4.820587E-05
4.130129E+03	2.672678E-03	4.876155E-05
4.140105E+03	2.703699E-03	4.924466E-05
4.150081E+03	2.731317E-03	4.966436E-05
4.160057E+03	2.756265E-03	5.003424E-05
4.170034E+03	2.779065E-03	5.036400E-05
4.180010E+03	2.800499E-03	5.066795E-05
4.189986E+03	2.820996E-03	5.095396E-05
4.199962E+03	2.841034E-03	5.123069E-05
4.209938E+03	2.861047E-03	5.150601E-05
4.219914E+03	2.881437E-03	5.178707E-05
4.229891E+03	2.902672E-03	5.208227E-05
4.239867E+03	2.925023E-03	5.239633E-05
4.249843E+03	2.948923E-03	5.273688E-05
4.259819E+03	2.974609E-03	5.310800E-05
4.269795E+03	3.002380E-03	5.351485E-05
4.279771E+03	3.032586E-03	5.396344E-05
4.289748E+03	3.065268E-03	5.445427E-05
4.299724E+03	3.100751E-03	5.499283E-05
4.309700E+03	3.139037E-03	5.557894E-05
4.319676E+03	3.180062E-03	5.621116E-05
4.329652E+03	3.223857E-03	5.688978E-05
4.339628E+03	3.270301E-03	5.761243E-05
4.349604E+03	3.319050E-03	5.837276E-05
4.359581E+03	3.369942E-03	5.916772E-05
4.369557E+03	3.422676E-03	5.999184E-05
4.379533E+03	3.476770E-03	6.083647E-05
4.389509E+03	3.532537E-03	6.170696E-05
4.399485E+03	3.590708E-03	6.261586E-05
4.409461E+03	3.652072E-03	6.357668E-05
4.419438E+03	3.717538E-03	6.460490E-05
4.429414E+03	3.787987E-03	6.571543E-05
4.439390E+03	3.864349E-03	6.692389E-05
4.449366E+03	3.947757E-03	6.824930E-05
4.459342E+03	4.039138E-03	6.970701E-05
4.469318E+03	4.139580E-03	7.131499E-05
4.479294E+03	4.250047E-03	7.308899E-05
4.489271E+03	4.371561E-03	7.504559E-05
4.499247E+03	4.504649E-03	7.719280E-05
4.509223E+03	4.650021E-03	7.954164E-05
4.519199E+03	4.807973E-03	8.209603E-05
4.529175E+03	4.978477E-03	8.485427E-05
4.539151E+03	5.161173E-03	8.780904E-05
4.549128E+03	5.355825E-03	9.095517E-05
4.559104E+03	5.561451E-03	9.427484E-05
4.569080E+03	5.777302E-03	9.775433E-05
4.579056E+03	6.002156E-03	1.013720E-04
4.589032E+03	6.234885E-03	1.051079E-04
4.599008E+03	6.473812E-03	1.089331E-04
4.608985E+03	6.717503E-03	1.128227E-04
4.618961E+03	6.964217E-03	1.167470E-04
4.628937E+03	7.212134E-03	1.206752E-04
4.638913E+03	7.459399E-03	1.245760E-04
4.648889E+03	7.704285E-03	1.284206E-04
4.658865E+03	7.945035E-03	1.321798E-04
4.668841E+03	8.180139E-03	1.358289E-04
4.678818E+03	8.408072E-03	1.393430E-04
4.688794E+03	8.627763E-03	1.427048E-04
4.698770E+03	8.838456E-03	1.459027E-04
4.708746E+03	9.039433E-03	1.489255E-04
4.718722E+03	9.230541E-03	1.517715E-04
4.728698E+03	9.411867E-03	1.544430E-04
4.738675E+03	9.583477E-03	1.569419E-04
4.748651E+03	9.745907E-03	1.592779E-04
4.758627E+03	9.899186E-03	1.614522E-04
4.768603E+03	1.004384E-02	1.634741E-04
4.778579E+03	1.017969E-02	1.653416E-04
4.788555E+03	1.030654E-02	1.670523E-04
4.798532E+03	1.042387E-02	1.685987E-04
4.808508E+03	1.053110E-02	1.699720E-04
4.818484E+03	1.062726E-02	1.711579E-04
4.828460E+03	1.071167E-02	1.721465E-04
4.838436E+03	1.078335E-02	1.729230E-04
4.848412E+03	1.084138E-02	1.734743E-04
4.858388E+03	1.088472E-02	1.737851E-04
4.868365E+03	1.091236E-02	1.738407E-04
4.878341E+03	1.092346E-02	1.736295E-04
4.888317E+03	1.091715E-02	1.731395E-04
4.898293E+03	1.089284E-02	1.723633E-04
4.908269E+03	1.085015E-02	1.712966E-04
4.918245E+03	1.078885E-02	1.699382E-04
4.928222E+03	1.070919E-02	1.682938E-04
4.938198E+03	1.061169E-02	1.663738E-04
4.948174E+03	1.049750E-02	1.641982E-04
4.958150E+03	1.036798E-02	1.617900E-04
4.968126E+03	1.022497E-02	1.591799E-04
4.978102E+03	1.007034E-02	1.563983E-04
4.988078E+03	9.906173E-03	1.534791E-04
4.998055E+03	9.734721E-03	1.504581E-04
5.008031E+03	9.558146E-03	1.473698E-04
5.018007E+03	9.378656E-03	1.442486E-04
5.027983E+03	9.198523E-03	1.411301E-04
5.037959E+03	9.020185E-03	1.380515E-04
5.047935E+03	8.846023E-03	1.350494E-04
5.057912E+03	8.678607E-03	1.321623E-04
5.067888E+03	8.520289E-03	1.294254E-04
5.077864E+03	8.373565E-03	1.268756E-04
5.087840E+03	8.240892E-03	1.245488E-04
5.097816E+03	8.124216E-03	1.224728E-04
5.107792E+03	8.025345E-03	1.206730E-04
5.117769E+03	7.945673E-03	1.191684E-04
5.127745E+03	7.886025E-03	1.179692E-04
5.137721E+03	7.846723E-03	1.170780E-04
5.147697E+03	7.827857E-03	1.164938E-04
5.157673E+03	7.828732E-03	1.162041E-04
5.167649E+03	7.848753E-03	1.161978E-04
5.177625E+03	7.886811E-03	1.164564E-04
5.187602E+03	7.941842E-03	1.169623E-04
5.197578E+03	8.012741E-03	1.176973E-04
5.207554E+03	8.098416E-03	1.186438E-04
5.217530E+03	8.197817E-03	1.197849E-04
5.227506E+03	8.309796E-03	1.211023E-04
5.237482E+03	8.433590E-03	1.225837E-04
5.247459E+03	8.568143E-03	1.242125E-04
5.257435E+03	8.712630E-03	1.259758E-04
5.267411E+03	8.865976E-03	1.278572E-04
5.277387E+03	9.027034E-03	1.298392E-04
5.287363E+03	9.194323E-03	1.319002E-04
5.297339E+03	9.366283E-03	1.340171E-04
5.307316E+03	9.540950E-03	1.361618E-04
5.317292E+03	9.716134E-03	1.383031E-04
5.327268E+03	9.889759E-03	1.404117E-04
5.337244E+03	1.005952E-02	1.424555E-04
5.347220E+03	1.022320E-02	1.444037E-04
5.357196E+03	1.037891E-02	1.462310E-04
5.367172E+03	1.052477E-02	1.479118E-04
5.377149E+03	1.065924E-02	1.494261E-04
5.387125E+03	1.078094E-02	1.507562E-04
5.397101E+03	1.088895E-02	1.518909E-04
5.407077E+03	1.098266E-02	1.528234E-04
5.417053E+03	1.106206E-02	1.535554E-04
5.427029E+03	1.112759E-02	1.540946E-04
5.437006E+03	1.118054E-02	1.544606E-04
5.446982E+03	1.122245E-02	1.546761E-04
5.456958E+03	1.125575E-02	1.547762E-04
5.466934E+03	1.128307E-02	1.547977E-04
5.476910E+03	1.130742E-02	1.547827E-04
5.486886E+03	1.133082E-02	1.547593E-04
5.496862E+03	1.135239E-02	1.547160E-04
5.506839E+03	1.137062E-02	1.546325E-04
5.516815E+03	1.138407E-02	1.544896E-04
5.526791E+03	1.139128E-02	1.542676E-04
5.536767E+03	1.139105E-02	1.539506E-04
5.546743E+03	1.138259E-02	1.535287E-04
5.556719E+03	1.136527E-02	1.529936E-04
5.566696E+03	1.133917E-02	1.523472E-04
5.576672E+03	1.130508E-02	1.516003E-04
5.586648E+03	1.126364E-02	1.507620E-04
5.596624E+03	1.121605E-02	1.498487E-04
5.606600E+03	1.116318E-02	1.488722E-04
5.616576E+03	1.110608E-02	1.478467E-04
5.626553E+03	1.104546E-02	1.467816E-04
5.636529E+03	1.098171E-02	1.456821E-04
5.646505E+03	1.091477E-02	1.445477E-04
5.656481E+03	1.084466E-02	1.433783E-04
5.666457E+03	1.077150E-02	1.421756E-04
5.676433E+03	1.069536E-02	1.409407E-04
5.686409E+03	1.061672E-02	1.396797E-04
5.696386E+03	1.053662E-02	1.384063E-04
5.706362E+03	1.045675E-02	1.371425E-04
5.716338E+03	1.037928E-02	1.359166E-04
5.726314E+03	1.030696E-02	1.347641E-04
5.736290E+03	1.024313E-02	1.337283E-04
5.746266E+03	1.019096E-02	1.328498E-04
5.756243E+03	1.015410E-02	1.321754E-04
5.766219E+03	1.013567E-02	1.317445E-04
5.776195E+03	1.013818E-02	1.315886E-04
5.786171E+03	1.016366E-02	1.317327E-04
5.796147E+03	1.021339E-02	1.321923E-04
5.806123E+03	1.028736E-02	1.329656E-04
5.816100E+03	1.038498E-02	1.340439E-04
5.826076E+03	1.050443E-02	1.354024E-04
5.836052E+03	1.064332E-02	1.370092E-04
5.846028E+03	1.079821E-02	1.388190E-04
5.856004E+03	1.096524E-02	1.407819E-04
5.865980E+03	1.113963E-02	1.428355E-04
5.875956E+03	1.131656E-02	1.449182E-04
5.885933E+03	1.149078E-02	1.469624E-04
5.895909E+03	1.165690E-02	1.489000E-04
5.905885E+03	1.181027E-02	1.506717E-04
5.915861E+03	1.194628E-02	1.522196E-04
5.925837E+03	1.206140E-02	1.534996E-04
5.935813E+03	1.215348E-02	1.544856E-04
5.945790E+03	1.222089E-02	1.551579E-04
5.955766E+03	1.226370E-02	1.555184E-04
5.965742E+03	1.228288E-02	1.555809E-04
5.975718E+03	1.228005E-02	1.553666E-04
5.985694E+03	1.225757E-02	1.549065E-04
5.995670E+03	1.221830E-02	1.542377E-04
6.005647E+03	1.216528E-02	1.533990E-04
6.015623E+03	1.210154E-02	1.524295E-04
6.025599E+03	1.203007E-02	1.513669E-04
6.035575E+03	1.195351E-02	1.502451E-04
6.045551E+03	1.187409E-02	1.490921E-04
6.055527E+03	1.179363E-02	1.479309E-04
6.065503E+03	1.171363E-02	1.467804E-04
6.075480E+03	1.163467E-02	1.456478E-04
6.085456E+03	1.155718E-02	1.445387E-04
6.095432E+03	1.148076E-02	1.434480E-04
6.105408E+03	1.140484E-02	1.423684E-04
6.115384E+03	1.132813E-02	1.412840E-04
6.125360E+03	1.124927E-02	1.401780E-04
6.135337E+03	1.116682E-02	1.390325E-04
6.145313E+03	1.107931E-02	1.378295E-04
6.155289E+03	1.098562E-02	1.365552E-04
6.165265E+03	1.088486E-02	1.351987E-04
6.175241E+03	1.077668E-02	1.337559E-04
6.185217E+03	1.066081E-02	1.322239E-04
6.195193E+03	1.053733E-02	1.306038E-04
6.205170E+03	1.040657E-02	1.288997E-04
6.215146E+03	1.026871E-02	1.271143E-04
6.225122E+03	1.012431E-02	1.252545E-04
6.235098E+03	9.973854E-03	1.233263E-04
6.245074E+03	9.817951E-03	1.213375E-04
6.255050E+03	9.657744E-03	1.193022E-04
6.265027E+03	9.494338E-03	1.172340E-04
6.275003E+03	9.329433E-03	1.151539E-04
6.284979E+03	9.165031E-03	1.130865E-04
6.294955E+03	9.003291E-03	1.110583E-04
6.304931E+03	8.846786E-03	1.091008E-04
6.314907E+03	8.698162E-03	1.072467E-04
6.324884E+03	8.559875E-03	1.055259E-04
6.334860E+03	8.434822E-03	1.039740E-04
6.344836E+03	8.325662E-03	1.026238E-04
6.354812E+03	8.234997E-03	1.015070E-04
6.364788E+03	8.165792E-03	1.006604E-04
6.374764E+03	8.120742E-03	1.001171E-04
6.384740E+03	8.102665E-03	9.991205E-05
6.394717E+03	8.114593E-03	1.000830E-04
6.404693E+03	8.159012E-03	1.006609E-04
6.414669E+03	8.238329E-03	1.016763E-04
6.424645E+03	8.354503E-03	1.031539E-04
6.434621E+03	8.508934E-03	1.051122E-04
6.444597E+03	8.702242E-03	1.075594E-04
6.454574E+03	8.934463E-03	1.104971E-04
6.464550E+03	9.205038E-03	1.139194E-04
6.474526E+03	9.512438E-03	1.178087E-04
6.484502E+03	9.854448E-03	1.221388E-04
6.494478E+03	1.022805E-02	1.268736E-04
6.504454E+03	1.062920E-02	1.319644E-04
6.514431E+03	1.105298E-02	1.373513E-04
6.524407E+03	1.149122E-02	1.429336E-04
6.534383E+03	1.193101E-02	1.485518E-04
6.544359E+03	1.235772E-02	1.540236E-04
6.554335E+03	1.275591E-02	1.591563E-04
6.564311E+03	1.311023E-02	1.637570E-04
6.574287E+03	1.340648E-02	1.676464E-04
6.584264E+03	1.363278E-02	1.706735E-04
6.594240E+03	1.378080E-02	1.727304E-04
6.604216E+03	1.384621E-02	1.737594E-04
6.614192E+03	1.382953E-02	1.737627E-04
6.624168E+03	1.373514E-02	1.727912E-04
6.634144E+03	1.357122E-02	1.709440E-04
6.644121E+03	1.334797E-02	1.683460E-04
6.654097E+03	1.307755E-02	1.651474E-04
6.664073E+03	1.277202E-02	1.614979E-04
6.674049E+03	1.244298E-02	1.575422E-04
6.684025E+03	1.210131E-02	1.534168E-04
6.694001E+03	1.175597E-02	1.492342E-04
6.703977E+03	1.141457E-02	1.450907E-04
6.713954E+03	1.108327E-02	1.410648E-04
6.723930E+03	1.076650E-02	1.372129E-04
6.733906E+03	1.046763E-02	1.335786E-04
6.743882E+03	1.018860E-02	1.301875E-04
6.753858E+03	9.930558E-03	1.270550E-04
6.763834E+03	9.693785E-03	1.241855E-04
6.773811E+03	9.478293E-03	1.215803E-04
6.783787E+03	9.283209E-03	1.192290E-04
6.793763E+03	9.107734E-03	1.171222E-04
6.803739E+03	8.950718E-03	1.152460E-04
6.813715E+03	8.810745E-03	1.135829E-04
6.823691E+03	8.686771E-03	1.121203E-04
6.833668E+03	8.577548E-03	1.108425E-04
6.843644E+03	8.481666E-03	1.097322E-04
6.853620E+03	8.398178E-03	1.087774E-04
6.863596E+03	8.325796E-03	1.079620E-04
6.873572E+03	8.263599E-03	1.072745E-04
6.883548E+03	8.210640E-03	1.067029E-04
6.893524E+03	8.165943E-03	1.062350E-04
6.903501E+03	8.128699E-03	1.058603E-04
6.913477E+03	8.098263E-03	1.055708E-04
6.923453E+03	8.073938E-03	1.053576E-04
6.933429E+03	8.054875E-03	1.052098E-04
6.943405E+03	8.040540E-03	1.051205E-04
6.953381E+03	8.030309E-03	1.050817E-04
6.963358E+03	8.023567E-03	1.050854E-04
6.973334E+03	8.019711E-03	1.051237E-04
6.983310E+03	8.018070E-03	1.051880E-04
6.993286E+03	8.018227E-03	1.052728E-04
7.003262E+03	8.019649E-03	1.053710E-04
7.013238E+03	8.022099E-03	1.054796E-04
7.023215E+03	8.025165E-03	1.055931E-04
7.033191E+03	8.028942E-03	1.057128E-04
7.043167E+03	8.033238E-03	1.058360E-04
7.053143E+03	8.038249E-03	1.059655E-04
7.063119E+03	8.044134E-03	1.061032E-04
7.073095E+03	8.051003E-03	1.062507E-04
7.083071E+03	8.059186E-03	1.064123E-04
7.093048E+03	8.068920E-03	1.065911E-04
7.103024E+03	8.080228E-03	1.067875E-04
7.113000E+03	8.093521E-03	1.070069E-04
7.122976E+03	8.108759E-03	1.072489E-04
7.132952E+03	8.126270E-03	1.075178E-04
7.142928E+03	8.145899E-03	1.078115E-04
7.152905E+03	8.167726E-03	1.081313E-04
7.162881E+03	8.191529E-03	1.084742E-04
7.172857E+03	8.217196E-03	1.088387E-04
7.182833E+03	8.244313E-03	1.092194E-04
7.192809E+03	8.272494E-03	1.096112E-04
7.202785E+03	8.301402E-03	1.100097E-04
7.212762E+03	8.330349E-03	1.104058E-04
7.222738E+03	8.358960E-03	1.107946E-04
7.232714E+03	8.386649E-03	1.111684E-04
7.242690E+03	8.413049E-03	1.115224E-04
7.252666E+03	8.437573E-03	1.118488E-04
7.262642E+03	8.459844E-03	1.121427E-04
7.272618E+03	8.479142E-03	1.123947E-04
7.282595E+03	8.495196E-03	1.126013E-04
7.292571E+03	8.507324E-03	1.127535E-04
7.302547E+03	8.515130E-03	1.128462E-04
7.312523E+03	8.518437E-03	1.128773E-04
7.322499E+03	8.517099E-03	1.128449E-04
7.332475E+03	8.510899E-03	1.127464E-04
7.342452E+03	8.500118E-03	1.125856E-04
7.352428E+03	8.485180E-03	1.123683E-04
7.362404E+03	8.466161E-03	1.120958E-04
7.372380E+03	8.443758E-03	1.117775E-04
7.382356E+03	8.418449E-03	1.114200E-04
7.392332E+03	8.390546E-03	1.110275E-04
7.402308E+03	8.360382E-03	1.106046E-04
7.412285E+03	8.328171E-03	1.101545E-04
7.422261E+03	8.294003E-03	1.096786E-04
7.432237E+03	8.257864E-03	1.091768E-04
7.442213E+03	8.219778E-03	1.086497E-04
7.452189E+03	8.179403E-03	1.080931E-04
7.462165E+03	8.136751E-03	1.075072E-04
7.472142E+03	8.091888E-03	1.068933E-04
7.482118E+03	8.044741E-03	1.062506E-04
7.492094E+03	7.995561E-03	1.055825E-04
7.502070E+03	7.944474E-03	1.048911E-04
7.512046E+03	7.892042E-03	1.041839E-04
7.522022E+03	7.838467E-03	1.034638E-04
7.531999E+03	7.784461E-03	1.027405E-04
7.541975E+03	7.730456E-03	1.020198E-04
7.551951E+03	7.677126E-03	1.013108E-04
7.561927E+03	7.625039E-03	1.006213E-04
7.571903E+03	7.574741E-03	9.995861E-05
7.581879E+03	7.526838E-03	9.933093E-05
7.591855E+03	7.481756E-03	9.874412E-05
7.601832E+03	7.439733E-03	9.820153E-05
7.611808E+03	7.401130E-03	9.770812E-05
7.621784E+03	7.366196E-03	9.726744E-05
7.631760E+03	7.334967E-03	9.688019E-05
7.641736E+03	7.307249E-03	9.654406E-05
7.651712E+03	7.282947E-03	9.625808E-05
7.661689E+03	7.261756E-03	9.601849E-05
7.671665E+03	7.243288E-03	9.582044E-05
7.681641E+03	7.227200E-03	9.565972E-05
7.691617E+03	7.213012E-03	9.553023E-05
7.701593E+03	7.200118E-03	9.542428E-05
7.711569E+03	7.188131E-03	9.533699E-05
7.721546E+03	7.176658E-03	9.526347E-05
7.731522E+03	7.164986E-03	9.519450E-05
7.741498E+03	7.152817E-03	9.512639E-05
