#wls	flux	fluxerr
1.596185E+03	1.159570E-04	9.157678E-06
1.636090E+03	1.179597E-04	9.237125E-06
1.675994E+03	1.198192E-04	9.300982E-06
1.715899E+03	1.215634E-04	9.351594E-06
1.755804E+03	1.231678E-04	9.387233E-06
1.795708E+03	1.245690E-04	9.403313E-06
1.835613E+03	1.256416E-04	9.390840E-06
1.875518E+03	1.263282E-04	9.346232E-06
1.915422E+03	1.265242E-04	9.262668E-06
1.955327E+03	1.261939E-04	9.138677E-06
1.995231E+03	1.252788E-04	8.971345E-06
2.035136E+03	1.240447E-04	8.780926E-06
2.075041E+03	1.230054E-04	8.604219E-06
2.114945E+03	1.229089E-04	8.492472E-06
2.154850E+03	1.244237E-04	8.488881E-06
2.194755E+03	1.279287E-04	8.614708E-06
2.234659E+03	1.331769E-04	8.848103E-06
2.274564E+03	1.395936E-04	9.146490E-06
2.314468E+03	1.466450E-04	9.471909E-06
2.354373E+03	1.538651E-04	9.792657E-06
2.394278E+03	1.610436E-04	1.009482E-05
2.434182E+03	1.680685E-04	1.037136E-05
2.474087E+03	1.748667E-04	1.061808E-05
2.513992E+03	1.814480E-04	1.083608E-05
2.553896E+03	1.878846E-04	1.103013E-05
2.593801E+03	1.941646E-04	1.119988E-05
2.633705E+03	2.003629E-04	1.135004E-05
2.673610E+03	2.064122E-04	1.147713E-05
2.713515E+03	2.124227E-04	1.158772E-05
2.753419E+03	2.184078E-04	1.168278E-05
2.793324E+03	2.242792E-04	1.175799E-05
2.833229E+03	2.301321E-04	1.181889E-05
2.873133E+03	2.359617E-04	1.186569E-05
2.913038E+03	2.417573E-04	1.189844E-05
2.952942E+03	2.475503E-04	1.191937E-05
2.992847E+03	2.533658E-04	1.193040E-05
3.002823E+03	2.547890E-04	1.193010E-05
3.012799E+03	2.562477E-04	1.193086E-05
3.022776E+03	2.576925E-04	1.193036E-05
3.032752E+03	2.591738E-04	1.193097E-05
3.042728E+03	2.606497E-04	1.193075E-05
3.052704E+03	2.621275E-04	1.193006E-05
3.062680E+03	2.636530E-04	1.193098E-05
3.072656E+03	2.651739E-04	1.193114E-05
3.082633E+03	2.667363E-04	1.193264E-05
3.092609E+03	2.682882E-04	1.193315E-05
3.102585E+03	2.698759E-04	1.193474E-05
3.112561E+03	2.714477E-04	1.193514E-05
3.122537E+03	2.730501E-04	1.193642E-05
3.132513E+03	2.746316E-04	1.193634E-05
3.142489E+03	2.762387E-04	1.193695E-05
3.152466E+03	2.778693E-04	1.193817E-05
3.162442E+03	2.795209E-04	1.193991E-05
3.172418E+03	2.811421E-04	1.193999E-05
3.182394E+03	2.827798E-04	1.194044E-05
3.192370E+03	2.844318E-04	1.194120E-05
3.202346E+03	2.860958E-04	1.194219E-05
3.212323E+03	2.877696E-04	1.194334E-05
3.222299E+03	2.894019E-04	1.194256E-05
3.232275E+03	2.910886E-04	1.194386E-05
3.242251E+03	2.927784E-04	1.194514E-05
3.252227E+03	2.944202E-04	1.194435E-05
3.262203E+03	2.961095E-04	1.194543E-05
3.272179E+03	2.977952E-04	1.194633E-05
3.282156E+03	2.995239E-04	1.194896E-05
3.292132E+03	3.012444E-04	1.195129E-05
3.302108E+03	3.029545E-04	1.195330E-05
3.312084E+03	3.046520E-04	1.195494E-05
3.322060E+03	3.063834E-04	1.195809E-05
3.332036E+03	3.080979E-04	1.196080E-05
3.342013E+03	3.098418E-04	1.196492E-05
3.351989E+03	3.116130E-04	1.197039E-05
3.361965E+03	3.133614E-04	1.197535E-05
3.371941E+03	3.151334E-04	1.198161E-05
3.381917E+03	3.169271E-04	1.198915E-05
3.391893E+03	3.186937E-04	1.199617E-05
3.401870E+03	3.205266E-04	1.200625E-05
3.411846E+03	3.223306E-04	1.201585E-05
3.421822E+03	3.241989E-04	1.202852E-05
3.431798E+03	3.260841E-04	1.204252E-05
3.441774E+03	3.279864E-04	1.205791E-05
3.451750E+03	3.299525E-04	1.207647E-05
3.461726E+03	3.318909E-04	1.209489E-05
3.471703E+03	3.339410E-04	1.211830E-05
3.481679E+03	3.360127E-04	1.214347E-05
3.491655E+03	3.381090E-04	1.217057E-05
3.501631E+03	3.402782E-04	1.220139E-05
3.511607E+03	3.425241E-04	1.223611E-05
3.521583E+03	3.448508E-04	1.227491E-05
3.531560E+03	3.472636E-04	1.231803E-05
3.541536E+03	3.497685E-04	1.236573E-05
3.551512E+03	3.523724E-04	1.241830E-05
3.561488E+03	3.550835E-04	1.247608E-05
3.571464E+03	3.579542E-04	1.254095E-05
3.581440E+03	3.609506E-04	1.261178E-05
3.591417E+03	3.640853E-04	1.268905E-05
3.601393E+03	3.674210E-04	1.277500E-05
3.611369E+03	3.709811E-04	1.287050E-05
3.621345E+03	3.747907E-04	1.297646E-05
3.631321E+03	3.788340E-04	1.309240E-05
3.641297E+03	3.831810E-04	1.322079E-05
3.651273E+03	3.879023E-04	1.336414E-05
3.661250E+03	3.929860E-04	1.352209E-05
3.671226E+03	3.984215E-04	1.369434E-05
3.681202E+03	4.043658E-04	1.388629E-05
3.691178E+03	4.107270E-04	1.409484E-05
3.701154E+03	4.176638E-04	1.432547E-05
3.711130E+03	4.251280E-04	1.457658E-05
3.721107E+03	4.331555E-04	1.484947E-05
3.731083E+03	4.418663E-04	1.514836E-05
3.741059E+03	4.512144E-04	1.547177E-05
3.751035E+03	4.613218E-04	1.582401E-05
3.761011E+03	4.721854E-04	1.620511E-05
3.770987E+03	4.838439E-04	1.661657E-05
3.780963E+03	4.963792E-04	1.706139E-05
3.790940E+03	5.097867E-04	1.753963E-05
3.800916E+03	5.241474E-04	1.805430E-05
3.810892E+03	5.394979E-04	1.860695E-05
3.820868E+03	5.558725E-04	1.919904E-05
3.830844E+03	5.733026E-04	1.983196E-05
3.840820E+03	5.917694E-04	2.050542E-05
3.850797E+03	6.114334E-04	2.122534E-05
3.860773E+03	6.321727E-04	2.198789E-05
3.870749E+03	6.540900E-04	2.279704E-05
3.880725E+03	6.771890E-04	2.365336E-05
3.890701E+03	7.014627E-04	2.455708E-05
3.900677E+03	7.268428E-04	2.550626E-05
3.910654E+03	7.534024E-04	2.650394E-05
3.920630E+03	7.810501E-04	2.754740E-05
3.930606E+03	8.097323E-04	2.863522E-05
3.940582E+03	8.393820E-04	2.976552E-05
3.950558E+03	8.699740E-04	3.093786E-05
3.960534E+03	9.014165E-04	3.214943E-05
3.970510E+03	9.335509E-04	3.339498E-05
3.980487E+03	9.663741E-04	3.467479E-05
3.990463E+03	9.996480E-04	3.598067E-05
4.000439E+03	1.033355E-03	3.731228E-05
4.010415E+03	1.067301E-03	3.866283E-05
4.020391E+03	1.101402E-03	4.002955E-05
4.030367E+03	1.135460E-03	4.140532E-05
4.040344E+03	1.169334E-03	4.278507E-05
4.050320E+03	1.203015E-03	4.416847E-05
4.060296E+03	1.236253E-03	4.554634E-05
4.070272E+03	1.269062E-03	4.691904E-05
4.080248E+03	1.301217E-03	4.827810E-05
4.090224E+03	1.332760E-03	4.962486E-05
4.100201E+03	1.363565E-03	5.095437E-05
4.110177E+03	1.393647E-03	5.226693E-05
4.120153E+03	1.422922E-03	5.355899E-05
4.130129E+03	1.451383E-03	5.483001E-05
4.140105E+03	1.479175E-03	5.608507E-05
4.150081E+03	1.506208E-03	5.732045E-05
4.160057E+03	1.532664E-03	5.854272E-05
4.170034E+03	1.558494E-03	5.974965E-05
4.180010E+03	1.583850E-03	6.094682E-05
4.189986E+03	1.608902E-03	6.214048E-05
4.199962E+03	1.633644E-03	6.333020E-05
4.209938E+03	1.658394E-03	6.452813E-05
4.219914E+03	1.683107E-03	6.573242E-05
4.229891E+03	1.708056E-03	6.695370E-05
4.239867E+03	1.733338E-03	6.819576E-05
4.249843E+03	1.759175E-03	6.946739E-05
4.259819E+03	1.785735E-03	7.077541E-05
4.269795E+03	1.813131E-03	7.212448E-05
4.279771E+03	1.841655E-03	7.352662E-05
4.289748E+03	1.871369E-03	7.498458E-05
4.299724E+03	1.902513E-03	7.650846E-05
4.309700E+03	1.935273E-03	7.810623E-05
4.319676E+03	1.969835E-03	7.978605E-05
4.329652E+03	2.006391E-03	8.155636E-05
4.339628E+03	2.045195E-03	8.342821E-05
4.349604E+03	2.086388E-03	8.540824E-05
4.359581E+03	2.130232E-03	8.750810E-05
4.369557E+03	2.176880E-03	8.973500E-05
4.379533E+03	2.226662E-03	9.210366E-05
4.389509E+03	2.279689E-03	9.461988E-05
4.399485E+03	2.336323E-03	9.729988E-05
4.409461E+03	2.396753E-03	1.001529E-04
4.419438E+03	2.461350E-03	1.031958E-04
4.429414E+03	2.530251E-03	1.064360E-04
4.439390E+03	2.603830E-03	1.098907E-04
4.449366E+03	2.682340E-03	1.135723E-04
4.459342E+03	2.766089E-03	1.174957E-04
4.469318E+03	2.855316E-03	1.216728E-04
4.479294E+03	2.950243E-03	1.261151E-04
4.489271E+03	3.051203E-03	1.308387E-04
4.499247E+03	3.158378E-03	1.358536E-04
4.509223E+03	3.271923E-03	1.411685E-04
4.519199E+03	3.392090E-03	1.467964E-04
4.529175E+03	3.518964E-03	1.527431E-04
4.539151E+03	3.652581E-03	1.590123E-04
4.549128E+03	3.793002E-03	1.656087E-04
4.559104E+03	3.940089E-03	1.725283E-04
4.569080E+03	4.093719E-03	1.797677E-04
4.579056E+03	4.253555E-03	1.873138E-04
4.589032E+03	4.419420E-03	1.951604E-04
4.599008E+03	4.590849E-03	2.032887E-04
4.608985E+03	4.767303E-03	2.116758E-04
4.618961E+03	4.948345E-03	2.203035E-04
4.628937E+03	5.133319E-03	2.291432E-04
4.638913E+03	5.321601E-03	2.381678E-04
4.648889E+03	5.512437E-03	2.473438E-04
4.658865E+03	5.705124E-03	2.566394E-04
4.668841E+03	5.898845E-03	2.660177E-04
4.678818E+03	6.092757E-03	2.754401E-04
4.688794E+03	6.286096E-03	2.848711E-04
4.698770E+03	6.477909E-03	2.942664E-04
4.708746E+03	6.667517E-03	3.035937E-04
4.718722E+03	6.853870E-03	3.128035E-04
4.728698E+03	7.036202E-03	3.218590E-04
4.738675E+03	7.213663E-03	3.307189E-04
4.748651E+03	7.385406E-03	3.393421E-04
4.758627E+03	7.550492E-03	3.476828E-04
4.768603E+03	7.708089E-03	3.556998E-04
4.778579E+03	7.857366E-03	3.633519E-04
4.788555E+03	7.997508E-03	3.705980E-04
4.798532E+03	8.127717E-03	3.773978E-04
4.808508E+03	8.247005E-03	3.837021E-04
4.818484E+03	8.354710E-03	3.894762E-04
4.828460E+03	8.450026E-03	3.946789E-04
4.838436E+03	8.532481E-03	3.992844E-04
4.848412E+03	8.601478E-03	4.032607E-04
4.858388E+03	8.656696E-03	4.065890E-04
4.868365E+03	8.697824E-03	4.092510E-04
4.878341E+03	8.724641E-03	4.112324E-04
4.888317E+03	8.737280E-03	4.125358E-04
4.898293E+03	8.735798E-03	4.131605E-04
4.908269E+03	8.720512E-03	4.131181E-04
4.918245E+03	8.691884E-03	4.124274E-04
4.928222E+03	8.650558E-03	4.111160E-04
4.938198E+03	8.597310E-03	4.092184E-04
4.948174E+03	8.533191E-03	4.067821E-04
4.958150E+03	8.459266E-03	4.038560E-04
4.968126E+03	8.376648E-03	4.004915E-04
4.978102E+03	8.286832E-03	3.967589E-04
4.988078E+03	8.191121E-03	3.927196E-04
4.998055E+03	8.091125E-03	3.884502E-04
5.008031E+03	7.988241E-03	3.840175E-04
5.018007E+03	7.884050E-03	3.794974E-04
5.027983E+03	7.780169E-03	3.749684E-04
5.037959E+03	7.677870E-03	3.704921E-04
5.047935E+03	7.578835E-03	3.661508E-04
5.057912E+03	7.484198E-03	3.620002E-04
5.067888E+03	7.395312E-03	3.581072E-04
5.077864E+03	7.313276E-03	3.545263E-04
5.087840E+03	7.239297E-03	3.513177E-04
5.097816E+03	7.174104E-03	3.485184E-04
5.107792E+03	7.118671E-03	3.461775E-04
5.117769E+03	7.073712E-03	3.443315E-04
5.127745E+03	7.039686E-03	3.430044E-04
5.137721E+03	7.017221E-03	3.422287E-04
5.147697E+03	7.006701E-03	3.420249E-04
5.157673E+03	7.008263E-03	3.424014E-04
5.167649E+03	7.022233E-03	3.433758E-04
5.177625E+03	7.048698E-03	3.449538E-04
5.187602E+03	7.087586E-03	3.471336E-04
5.197578E+03	7.138878E-03	3.499155E-04
5.207554E+03	7.202327E-03	3.532888E-04
5.217530E+03	7.277740E-03	3.572452E-04
5.227506E+03	7.364768E-03	3.617686E-04
5.237482E+03	7.462898E-03	3.668349E-04
5.247459E+03	7.571673E-03	3.724224E-04
5.257435E+03	7.690470E-03	3.785013E-04
5.267411E+03	7.818649E-03	3.850406E-04
5.277387E+03	7.955241E-03	3.919931E-04
5.287363E+03	8.099411E-03	3.993182E-04
5.297339E+03	8.250155E-03	4.069664E-04
5.307316E+03	8.406286E-03	4.148795E-04
5.317292E+03	8.566799E-03	4.230079E-04
5.327268E+03	8.730348E-03	4.312850E-04
5.337244E+03	8.895513E-03	4.396406E-04
5.347220E+03	9.061020E-03	4.480115E-04
5.357196E+03	9.225466E-03	4.563279E-04
5.367172E+03	9.387330E-03	4.645142E-04
5.377149E+03	9.545217E-03	4.725010E-04
5.387125E+03	9.697749E-03	4.802197E-04
5.397101E+03	9.843703E-03	4.876090E-04
5.407077E+03	9.981537E-03	4.945921E-04
5.417053E+03	1.011043E-02	5.011278E-04
5.427029E+03	1.022903E-02	5.071488E-04
5.437006E+03	1.033658E-02	5.126164E-04
5.446982E+03	1.043222E-02	5.174882E-04
5.456958E+03	1.051536E-02	5.217344E-04
5.466934E+03	1.058550E-02	5.253293E-04
5.476910E+03	1.064246E-02	5.282640E-04
5.486886E+03	1.068594E-02	5.305231E-04
5.496862E+03	1.071595E-02	5.321075E-04
5.506839E+03	1.073238E-02	5.330108E-04
5.516815E+03	1.073547E-02	5.332454E-04
5.526791E+03	1.072530E-02	5.328144E-04
5.536767E+03	1.070255E-02	5.317514E-04
5.546743E+03	1.066759E-02	5.300745E-04
5.556719E+03	1.062137E-02	5.278315E-04
5.566696E+03	1.056457E-02	5.250553E-04
5.576672E+03	1.049816E-02	5.217945E-04
5.586648E+03	1.042335E-02	5.181092E-04
5.596624E+03	1.034125E-02	5.140545E-04
5.606600E+03	1.025311E-02	5.096929E-04
5.616576E+03	1.016018E-02	5.050867E-04
5.626553E+03	1.006387E-02	5.003057E-04
5.636529E+03	9.965501E-03	4.954163E-04
5.646505E+03	9.866637E-03	4.904962E-04
5.656481E+03	9.768567E-03	4.856098E-04
5.666457E+03	9.672752E-03	4.808299E-04
5.676433E+03	9.580643E-03	4.762288E-04
5.686409E+03	9.493486E-03	4.718686E-04
5.696386E+03	9.412742E-03	4.678221E-04
5.706362E+03	9.339519E-03	4.641445E-04
5.716338E+03	9.275132E-03	4.609012E-04
5.726314E+03	9.220417E-03	4.581338E-04
5.736290E+03	9.176531E-03	4.558998E-04
5.746266E+03	9.144045E-03	4.542274E-04
5.756243E+03	9.123620E-03	4.531494E-04
5.766219E+03	9.115718E-03	4.526886E-04
5.776195E+03	9.120439E-03	4.528497E-04
5.786171E+03	9.137814E-03	4.536341E-04
5.796147E+03	9.167554E-03	4.550272E-04
5.806123E+03	9.209211E-03	4.570063E-04
5.816100E+03	9.261821E-03	4.595233E-04
5.826076E+03	9.324522E-03	4.625352E-04
5.836052E+03	9.396040E-03	4.659784E-04
5.846028E+03	9.474795E-03	4.697743E-04
5.856004E+03	9.559181E-03	4.738431E-04
5.865980E+03	9.647357E-03	4.780932E-04
5.875956E+03	9.737366E-03	4.824276E-04
5.885933E+03	9.827309E-03	4.867521E-04
5.895909E+03	9.915088E-03	4.909629E-04
5.905885E+03	9.998780E-03	4.949648E-04
5.915861E+03	1.007659E-02	4.986691E-04
5.925837E+03	1.014707E-02	5.020050E-04
5.935813E+03	1.020869E-02	5.048965E-04
5.945790E+03	1.026053E-02	5.072993E-04
5.955766E+03	1.030162E-02	5.091651E-04
5.965742E+03	1.033165E-02	5.104803E-04
5.975718E+03	1.035048E-02	5.112375E-04
5.985694E+03	1.035821E-02	5.114435E-04
5.995670E+03	1.035522E-02	5.111168E-04
6.005647E+03	1.034209E-02	5.102877E-04
6.015623E+03	1.031976E-02	5.090025E-04
6.025599E+03	1.028903E-02	5.073016E-04
6.035575E+03	1.025090E-02	5.052350E-04
6.045551E+03	1.020625E-02	5.028463E-04
6.055527E+03	1.015627E-02	5.001953E-04
6.065503E+03	1.010184E-02	4.973258E-04
6.075480E+03	1.004367E-02	4.942726E-04
6.085456E+03	9.982635E-03	4.910796E-04
6.095432E+03	9.919424E-03	4.877810E-04
6.105408E+03	9.854608E-03	4.844054E-04
6.115384E+03	9.788485E-03	4.809675E-04
6.125360E+03	9.721644E-03	4.774966E-04
6.135337E+03	9.654395E-03	4.740082E-04
6.145313E+03	9.586930E-03	4.705119E-04
6.155289E+03	9.519596E-03	4.670251E-04
6.165265E+03	9.452532E-03	4.635547E-04
6.175241E+03	9.386170E-03	4.601221E-04
6.185217E+03	9.320787E-03	4.567410E-04
6.195193E+03	9.256643E-03	4.534244E-04
6.205170E+03	9.194356E-03	4.502025E-04
6.215146E+03	9.134237E-03	4.470908E-04
6.225122E+03	9.077058E-03	4.441270E-04
6.235098E+03	9.023267E-03	4.413332E-04
6.245074E+03	8.973797E-03	4.387549E-04
6.255050E+03	8.929412E-03	4.364295E-04
6.265027E+03	8.890942E-03	4.343974E-04
6.275003E+03	8.859444E-03	4.327102E-04
6.284979E+03	8.835780E-03	4.314098E-04
6.294955E+03	8.821175E-03	4.305558E-04
6.304931E+03	8.816560E-03	4.301935E-04
6.314907E+03	8.823199E-03	4.303843E-04
6.324884E+03	8.842031E-03	4.311736E-04
6.334860E+03	8.874218E-03	4.326179E-04
6.344836E+03	8.920799E-03	4.347677E-04
6.354812E+03	8.982759E-03	4.376705E-04
6.364788E+03	9.060995E-03	4.413698E-04
6.374764E+03	9.156211E-03	4.458998E-04
6.384740E+03	9.269228E-03	4.513003E-04
6.394717E+03	9.400446E-03	4.575906E-04
6.404693E+03	9.550214E-03	4.647876E-04
6.414669E+03	9.718402E-03	4.728852E-04
6.424645E+03	9.904911E-03	4.818786E-04
6.434621E+03	1.010906E-02	4.917353E-04
6.444597E+03	1.032990E-02	5.024088E-04
6.454574E+03	1.056603E-02	5.138316E-04
6.464550E+03	1.081551E-02	5.259099E-04
6.474526E+03	1.107615E-02	5.385373E-04
6.484502E+03	1.134487E-02	5.515633E-04
6.494478E+03	1.161836E-02	5.648285E-04
6.504454E+03	1.189309E-02	5.781608E-04
6.514431E+03	1.216453E-02	5.913406E-04
6.524407E+03	1.242823E-02	6.041518E-04
6.534383E+03	1.267895E-02	6.163395E-04
6.544359E+03	1.291127E-02	6.276410E-04
6.554335E+03	1.312011E-02	6.378092E-04
6.564311E+03	1.330088E-02	6.466210E-04
6.574287E+03	1.344952E-02	6.538784E-04
6.584264E+03	1.356244E-02	6.594072E-04
6.594240E+03	1.363772E-02	6.631128E-04
6.604216E+03	1.367367E-02	6.649134E-04
6.614192E+03	1.367054E-02	6.648199E-04
6.624168E+03	1.362882E-02	6.628557E-04
6.634144E+03	1.355091E-02	6.591360E-04
6.644121E+03	1.343918E-02	6.537757E-04
6.654097E+03	1.329748E-02	6.469608E-04
6.664073E+03	1.312987E-02	6.388882E-04
6.674049E+03	1.294060E-02	6.297635E-04
6.684025E+03	1.273415E-02	6.198039E-04
6.694001E+03	1.251510E-02	6.092320E-04
6.703977E+03	1.228752E-02	5.982448E-04
6.713954E+03	1.205544E-02	5.870378E-04
6.723930E+03	1.182216E-02	5.757716E-04
6.733906E+03	1.159065E-02	5.645909E-04
6.743882E+03	1.136353E-02	5.536221E-04
6.753858E+03	1.114264E-02	5.429547E-04
6.763834E+03	1.092948E-02	5.326626E-04
6.773811E+03	1.072512E-02	5.227971E-04
6.783787E+03	1.053036E-02	5.133975E-04
6.793763E+03	1.034530E-02	5.044680E-04
6.803739E+03	1.017008E-02	4.960167E-04
6.813715E+03	1.000456E-02	4.880362E-04
6.823691E+03	9.848359E-03	4.805077E-04
6.833668E+03	9.700892E-03	4.734031E-04
6.843644E+03	9.561785E-03	4.667043E-04
6.853620E+03	9.430082E-03	4.603646E-04
6.863596E+03	9.305347E-03	4.543629E-04
6.873572E+03	9.186928E-03	4.486673E-04
6.883548E+03	9.073986E-03	4.432371E-04
6.893524E+03	8.966151E-03	4.380541E-04
6.903501E+03	8.862786E-03	4.330874E-04
6.913477E+03	8.763422E-03	4.283139E-04
6.923453E+03	8.667656E-03	4.237143E-04
6.933429E+03	8.575048E-03	4.192668E-04
6.943405E+03	8.485431E-03	4.149635E-04
6.953381E+03	8.398592E-03	4.107940E-04
6.963358E+03	8.314284E-03	4.067461E-04
6.973334E+03	8.232408E-03	4.028153E-04
6.983310E+03	8.153011E-03	3.990036E-04
6.993286E+03	8.075983E-03	3.953059E-04
7.003262E+03	8.001247E-03	3.917185E-04
7.013238E+03	7.929043E-03	3.882531E-04
7.023215E+03	7.859339E-03	3.849083E-04
7.033191E+03	7.792118E-03	3.816832E-04
7.043167E+03	7.727560E-03	3.785869E-04
7.053143E+03	7.665654E-03	3.756188E-04
7.063119E+03	7.606577E-03	3.727878E-04
7.073095E+03	7.550308E-03	3.700928E-04
7.083071E+03	7.497001E-03	3.675416E-04
7.093048E+03	7.446608E-03	3.651319E-04
7.103024E+03	7.399157E-03	3.628652E-04
7.113000E+03	7.354565E-03	3.607375E-04
7.122976E+03	7.312999E-03	3.587572E-04
7.132952E+03	7.274331E-03	3.569181E-04
7.142928E+03	7.238502E-03	3.552175E-04
7.152905E+03	7.205340E-03	3.536469E-04
7.162881E+03	7.174832E-03	3.522059E-04
7.172857E+03	7.146855E-03	3.508887E-04
7.182833E+03	7.121268E-03	3.496884E-04
7.192809E+03	7.097822E-03	3.485929E-04
7.202785E+03	7.076440E-03	3.475985E-04
7.212762E+03	7.056937E-03	3.466964E-04
7.222738E+03	7.039037E-03	3.458731E-04
7.232714E+03	7.022639E-03	3.451237E-04
7.242690E+03	7.007455E-03	3.444343E-04
7.252666E+03	6.993389E-03	3.438002E-04
7.262642E+03	6.980253E-03	3.432124E-04
7.272618E+03	6.967782E-03	3.426579E-04
7.282595E+03	6.955900E-03	3.421331E-04
7.292571E+03	6.944365E-03	3.416263E-04
7.302547E+03	6.933223E-03	3.411399E-04
7.312523E+03	6.922171E-03	3.406591E-04
7.322499E+03	6.911291E-03	3.401881E-04
7.332475E+03	6.900317E-03	3.397139E-04
7.342452E+03	6.889276E-03	3.392380E-04
7.352428E+03	6.878119E-03	3.387582E-04
7.362404E+03	6.866816E-03	3.382730E-04
7.372380E+03	6.855441E-03	3.377863E-04
7.382356E+03	6.843812E-03	3.372894E-04
7.392332E+03	6.832122E-03	3.367917E-04
7.402308E+03	6.820303E-03	3.362902E-04
7.412285E+03	6.808384E-03	3.357865E-04
7.422261E+03	6.796407E-03	3.352828E-04
7.432237E+03	6.784510E-03	3.347861E-04
7.442213E+03	6.772564E-03	3.342901E-04
7.452189E+03	6.760811E-03	3.338071E-04
7.462165E+03	6.749130E-03	3.333312E-04
7.472142E+03	6.737774E-03	3.328751E-04
7.482118E+03	6.726723E-03	3.324380E-04
7.492094E+03	6.716049E-03	3.320239E-04
7.502070E+03	6.705830E-03	3.316366E-04
7.512046E+03	6.696237E-03	3.312848E-04
7.522022E+03	6.687254E-03	3.309681E-04
7.531999E+03	6.679052E-03	3.306952E-04
7.541975E+03	6.671609E-03	3.304651E-04
7.551951E+03	6.665089E-03	3.302864E-04
7.561927E+03	6.659461E-03	3.301577E-04
7.571903E+03	6.654780E-03	3.300821E-04
7.581879E+03	6.651185E-03	3.300668E-04
7.591855E+03	6.648708E-03	3.301137E-04
7.601832E+03	6.647277E-03	3.302195E-04
7.611808E+03	6.646895E-03	3.303847E-04
7.621784E+03	6.647649E-03	3.306141E-04
7.631760E+03	6.649418E-03	3.309019E-04
7.641736E+03	6.652254E-03	3.312511E-04
7.651712E+03	6.656005E-03	3.316546E-04
7.661689E+03	6.660693E-03	3.321137E-04
7.671665E+03	6.666133E-03	3.326197E-04
7.681641E+03	6.672321E-03	3.331727E-04
7.691617E+03	6.679045E-03	3.337626E-04
7.701593E+03	6.686283E-03	3.343885E-04
7.711569E+03	6.693903E-03	3.350444E-04
7.721546E+03	6.701675E-03	3.357190E-04
7.731522E+03	6.709557E-03	3.364106E-04
7.741498E+03	6.717416E-03	3.371127E-04
