#wls	flux	fluxerr
1.596185E+03	4.593679E-06	2.888406E-07
1.636090E+03	4.616348E-06	2.891548E-07
1.675994E+03	4.633371E-06	2.890799E-07
1.715899E+03	4.644602E-06	2.886102E-07
1.755804E+03	4.649541E-06	2.877185E-07
1.795708E+03	4.646296E-06	2.862924E-07
1.835613E+03	4.632351E-06	2.841838E-07
1.875518E+03	4.606138E-06	2.813053E-07
1.915422E+03	4.561809E-06	2.773117E-07
1.955327E+03	4.498973E-06	2.721950E-07
1.995231E+03	4.420632E-06	2.661526E-07
2.035136E+03	4.334083E-06	2.596365E-07
2.075041E+03	4.257647E-06	2.537474E-07
2.114945E+03	4.218198E-06	2.500701E-07
2.154850E+03	4.237905E-06	2.498773E-07
2.194755E+03	4.326259E-06	2.536678E-07
2.234659E+03	4.476567E-06	2.609816E-07
2.274564E+03	4.669471E-06	2.706308E-07
2.314468E+03	4.887667E-06	2.815706E-07
2.354373E+03	5.118073E-06	2.930203E-07
2.394278E+03	5.352455E-06	3.044930E-07
2.434182E+03	5.589923E-06	3.159287E-07
2.474087E+03	5.831155E-06	3.273561E-07
2.513992E+03	6.078327E-06	3.388866E-07
2.553896E+03	6.332837E-06	3.505847E-07
2.593801E+03	6.600858E-06	3.627747E-07
2.633705E+03	6.884269E-06	3.755364E-07
2.673610E+03	7.184905E-06	3.889434E-07
2.713515E+03	7.511222E-06	4.034208E-07
2.753419E+03	7.862106E-06	4.188688E-07
2.793324E+03	8.244946E-06	4.356373E-07
2.833229E+03	8.662401E-06	4.538140E-07
2.873133E+03	9.121071E-06	4.736852E-07
2.913038E+03	9.624394E-06	4.953604E-07
2.952942E+03	1.018015E-05	5.191621E-07
2.992847E+03	1.079499E-05	5.453385E-07
3.002823E+03	1.095831E-05	5.522617E-07
3.012799E+03	1.112766E-05	5.594424E-07
3.022776E+03	1.129886E-05	5.666689E-07
3.032752E+03	1.147645E-05	5.741680E-07
3.042728E+03	1.165876E-05	5.818533E-07
3.052704E+03	1.184630E-05	5.897478E-07
3.062680E+03	1.204137E-05	5.979643E-07
3.072656E+03	1.223951E-05	6.062782E-07
3.082633E+03	1.244536E-05	6.149176E-07
3.092609E+03	1.265670E-05	6.237701E-07
3.102585E+03	1.287363E-05	6.328376E-07
3.112561E+03	1.309623E-05	6.421223E-07
3.122537E+03	1.332705E-05	6.517458E-07
3.132513E+03	1.356134E-05	6.614732E-07
3.142489E+03	1.380414E-05	6.715482E-07
3.152466E+03	1.405312E-05	6.818541E-07
3.162442E+03	1.431102E-05	6.925202E-07
3.172418E+03	1.457284E-05	7.033021E-07
3.182394E+03	1.484393E-05	7.144555E-07
3.192370E+03	1.512189E-05	7.258605E-07
3.202346E+03	1.540689E-05	7.375225E-07
3.212323E+03	1.569911E-05	7.494471E-07
3.222299E+03	1.600155E-05	7.617735E-07
3.232275E+03	1.630885E-05	7.742432E-07
3.242251E+03	1.662686E-05	7.871306E-07
3.252227E+03	1.695592E-05	8.004474E-07
3.262203E+03	1.729050E-05	8.139273E-07
3.272179E+03	1.763670E-05	8.278550E-07
3.282156E+03	1.799187E-05	8.421015E-07
3.292132E+03	1.835629E-05	8.566749E-07
3.302108E+03	1.873024E-05	8.715844E-07
3.312084E+03	1.911402E-05	8.868395E-07
3.322060E+03	1.951117E-05	9.025996E-07
3.332036E+03	1.991888E-05	9.187289E-07
3.342013E+03	2.033749E-05	9.352383E-07
3.351989E+03	2.077076E-05	9.522949E-07
3.361965E+03	2.121230E-05	9.696004E-07
3.371941E+03	2.166935E-05	9.874808E-07
3.381917E+03	2.213894E-05	1.005794E-06
3.391893E+03	2.262510E-05	1.024716E-06
3.401870E+03	2.312108E-05	1.043935E-06
3.411846E+03	2.363466E-05	1.063796E-06
3.421822E+03	2.416269E-05	1.084151E-06
3.431798E+03	2.470956E-05	1.105188E-06
3.441774E+03	2.526809E-05	1.126579E-06
3.451750E+03	2.584667E-05	1.148691E-06
3.461726E+03	2.644198E-05	1.171369E-06
3.471703E+03	2.705463E-05	1.194629E-06
3.481679E+03	2.768946E-05	1.218679E-06
3.491655E+03	2.834304E-05	1.243356E-06
3.501631E+03	2.901603E-05	1.268682E-06
3.511607E+03	2.970915E-05	1.294677E-06
3.521583E+03	3.042311E-05	1.321364E-06
3.531560E+03	3.116331E-05	1.348966E-06
3.541536E+03	3.192604E-05	1.377311E-06
3.551512E+03	3.271210E-05	1.406423E-06
3.561488E+03	3.352723E-05	1.436536E-06
3.571464E+03	3.436754E-05	1.467471E-06
3.581440E+03	3.523386E-05	1.499251E-06
3.591417E+03	3.612705E-05	1.531899E-06
3.601393E+03	3.704793E-05	1.565439E-06
3.611369E+03	3.800274E-05	1.600119E-06
3.621345E+03	3.898712E-05	1.635740E-06
3.631321E+03	4.000188E-05	1.672321E-06
3.641297E+03	4.105360E-05	1.710124E-06
3.651273E+03	4.213760E-05	1.748934E-06
3.661250E+03	4.325473E-05	1.788773E-06
3.671226E+03	4.440583E-05	1.829658E-06
3.681202E+03	4.559805E-05	1.871868E-06
3.691178E+03	4.681988E-05	1.914910E-06
3.701154E+03	4.808487E-05	1.959322E-06
3.711130E+03	4.939436E-05	2.005140E-06
3.721107E+03	5.073607E-05	2.051843E-06
3.731083E+03	5.212446E-05	2.099999E-06
3.741059E+03	5.355385E-05	2.149356E-06
3.751035E+03	5.503250E-05	2.200226E-06
3.761011E+03	5.654708E-05	2.252052E-06
3.770987E+03	5.811335E-05	2.305442E-06
3.780963E+03	5.972515E-05	2.360126E-06
3.790940E+03	6.139156E-05	2.416441E-06
3.800916E+03	6.309807E-05	2.473789E-06
3.810892E+03	6.486194E-05	2.532825E-06
3.820868E+03	6.667649E-05	2.593261E-06
3.830844E+03	6.855178E-05	2.655459E-06
3.840820E+03	7.048094E-05	2.719127E-06
3.850797E+03	7.246529E-05	2.784287E-06
3.860773E+03	7.450640E-05	2.850972E-06
3.870749E+03	7.660595E-05	2.919216E-06
3.880725E+03	7.877523E-05	2.989419E-06
3.890701E+03	8.100671E-05	3.061262E-06
3.900677E+03	8.330220E-05	3.134782E-06
3.910654E+03	8.567409E-05	3.210410E-06
3.920630E+03	8.810394E-05	3.287420E-06
3.930606E+03	9.061478E-05	3.366639E-06
3.940582E+03	9.319853E-05	3.447726E-06
3.950558E+03	9.586890E-05	3.531149E-06
3.960534E+03	9.861760E-05	3.616562E-06
3.970510E+03	1.014472E-04	3.704019E-06
3.980487E+03	1.043606E-04	3.793582E-06
3.990463E+03	1.073605E-04	3.885312E-06
4.000439E+03	1.104628E-04	3.979729E-06
4.010415E+03	1.136584E-04	4.076463E-06
4.020391E+03	1.169506E-04	4.175584E-06
4.030367E+03	1.203564E-04	4.277645E-06
4.040344E+03	1.238525E-04	4.381761E-06
4.050320E+03	1.274699E-04	4.488985E-06
4.060296E+03	1.312134E-04	4.599420E-06
4.070272E+03	1.350580E-04	4.712128E-06
4.080248E+03	1.390369E-04	4.828217E-06
4.090224E+03	1.431238E-04	4.946704E-06
4.100201E+03	1.473695E-04	5.069286E-06
4.110177E+03	1.517307E-04	5.194400E-06
4.120153E+03	1.562269E-04	5.322650E-06
4.130129E+03	1.608786E-04	5.454667E-06
4.140105E+03	1.656730E-04	5.589935E-06
4.150081E+03	1.706129E-04	5.728479E-06
4.160057E+03	1.757196E-04	5.870938E-06
4.170034E+03	1.809587E-04	6.016086E-06
4.180010E+03	1.863696E-04	6.165154E-06
4.189986E+03	1.919347E-04	6.317485E-06
4.199962E+03	1.976751E-04	6.473684E-06
4.209938E+03	2.035500E-04	6.632340E-06
4.219914E+03	2.095997E-04	6.794686E-06
4.229891E+03	2.158013E-04	6.959904E-06
4.239867E+03	2.221519E-04	7.127819E-06
4.249843E+03	2.286470E-04	7.298217E-06
4.259819E+03	2.353048E-04	7.471601E-06
4.269795E+03	2.420721E-04	7.646210E-06
4.279771E+03	2.489885E-04	7.823241E-06
4.289748E+03	2.560216E-04	8.001600E-06
4.299724E+03	2.631615E-04	8.180926E-06
4.309700E+03	2.704234E-04	8.361638E-06
4.319676E+03	2.777435E-04	8.541716E-06
4.329652E+03	2.851632E-04	8.722399E-06
4.339628E+03	2.926441E-04	8.902468E-06
4.349604E+03	3.001744E-04	9.081546E-06
4.359581E+03	3.077437E-04	9.259291E-06
4.369557E+03	3.153725E-04	9.436308E-06
4.379533E+03	3.229952E-04	9.610620E-06
4.389509E+03	3.306676E-04	9.783881E-06
4.399485E+03	3.383586E-04	9.955163E-06
4.409461E+03	3.460698E-04	1.012450E-05
4.419438E+03	3.538049E-04	1.029201E-05
4.429414E+03	3.616031E-04	1.045881E-05
4.439390E+03	3.694063E-04	1.062321E-05
4.449366E+03	3.772897E-04	1.078736E-05
4.459342E+03	3.851944E-04	1.094957E-05
4.469318E+03	3.931980E-04	1.111201E-05
4.479294E+03	4.012744E-04	1.127393E-05
4.489271E+03	4.094307E-04	1.143548E-05
4.499247E+03	4.176722E-04	1.159679E-05
4.509223E+03	4.260399E-04	1.175896E-05
4.519199E+03	4.344606E-04	1.191994E-05
4.529175E+03	4.429700E-04	1.208067E-05
4.539151E+03	4.516032E-04	1.224209E-05
4.549128E+03	4.603153E-04	1.240293E-05
4.559104E+03	4.690567E-04	1.256185E-05
4.569080E+03	4.778945E-04	1.272063E-05
4.579056E+03	4.867741E-04	1.287779E-05
4.589032E+03	4.956778E-04	1.303287E-05
4.599008E+03	5.045859E-04	1.318533E-05
4.608985E+03	5.134765E-04	1.333462E-05
4.618961E+03	5.223263E-04	1.348013E-05
4.628937E+03	5.311544E-04	1.362238E-05
4.638913E+03	5.398479E-04	1.375850E-05
4.648889E+03	5.484240E-04	1.388899E-05
4.658865E+03	5.569016E-04	1.401438E-05
4.668841E+03	5.651643E-04	1.413181E-05
4.678818E+03	5.732313E-04	1.424185E-05
4.688794E+03	5.811245E-04	1.434514E-05
4.698770E+03	5.887272E-04	1.443889E-05
4.708746E+03	5.961108E-04	1.452499E-05
4.718722E+03	6.031594E-04	1.460073E-05
4.728698E+03	6.099490E-04	1.466809E-05
4.738675E+03	6.163654E-04	1.472446E-05
4.748651E+03	6.224889E-04	1.477193E-05
4.758627E+03	6.282072E-04	1.480798E-05
4.768603E+03	6.336043E-04	1.483478E-05
4.778579E+03	6.385700E-04	1.484990E-05
4.788555E+03	6.431917E-04	1.485556E-05
4.798532E+03	6.473607E-04	1.484943E-05
4.808508E+03	6.511675E-04	1.483379E-05
4.818484E+03	6.545053E-04	1.480639E-05
4.828460E+03	6.574174E-04	1.476842E-05
4.838436E+03	6.599482E-04	1.472107E-05
4.848412E+03	6.619950E-04	1.466224E-05
4.858388E+03	6.636051E-04	1.459320E-05
4.868365E+03	6.647784E-04	1.451415E-05
4.878341E+03	6.655163E-04	1.442534E-05
4.888317E+03	6.658228E-04	1.432704E-05
4.898293E+03	6.657044E-04	1.421961E-05
4.908269E+03	6.651699E-04	1.410343E-05
4.918245E+03	6.642318E-04	1.397896E-05
4.928222E+03	6.628571E-04	1.384570E-05
4.938198E+03	6.611606E-04	1.370624E-05
4.948174E+03	6.590687E-04	1.355923E-05
4.958150E+03	6.567018E-04	1.340731E-05
4.968126E+03	6.539944E-04	1.324928E-05
4.978102E+03	6.510260E-04	1.308691E-05
4.988078E+03	6.478318E-04	1.292103E-05
4.998055E+03	6.444503E-04	1.275251E-05
5.008031E+03	6.409224E-04	1.258224E-05
5.018007E+03	6.372473E-04	1.241029E-05
5.027983E+03	6.335597E-04	1.223934E-05
5.037959E+03	6.298188E-04	1.206862E-05
5.047935E+03	6.261177E-04	1.189992E-05
5.057912E+03	6.225061E-04	1.173418E-05
5.067888E+03	6.190344E-04	1.157230E-05
5.077864E+03	6.157530E-04	1.141517E-05
5.087840E+03	6.126707E-04	1.126286E-05
5.097816E+03	6.098793E-04	1.111697E-05
5.107792E+03	6.074683E-04	1.097900E-05
5.117769E+03	6.054031E-04	1.084816E-05
5.127745E+03	6.037303E-04	1.072513E-05
5.137721E+03	6.025749E-04	1.061194E-05
5.147697E+03	6.018985E-04	1.050771E-05
5.157673E+03	6.017816E-04	1.041363E-05
5.167649E+03	6.022618E-04	1.033010E-05
5.177625E+03	6.033751E-04	1.025748E-05
5.187602E+03	6.051549E-04	1.019607E-05
5.197578E+03	6.075930E-04	1.014547E-05
5.207554E+03	6.107583E-04	1.010653E-05
5.217530E+03	6.146777E-04	1.007941E-05
5.227506E+03	6.193363E-04	1.006356E-05
5.237482E+03	6.248366E-04	1.006033E-05
5.247459E+03	6.311191E-04	1.006845E-05
5.257435E+03	6.382420E-04	1.008854E-05
5.267411E+03	6.461800E-04	1.011989E-05
5.277387E+03	6.550282E-04	1.016366E-05
5.287363E+03	6.647138E-04	1.021842E-05
5.297339E+03	6.752422E-04	1.028394E-05
5.307316E+03	6.867008E-04	1.036126E-05
5.317292E+03	6.990024E-04	1.044877E-05
5.327268E+03	7.121833E-04	1.054673E-05
5.337244E+03	7.262316E-04	1.065471E-05
5.347220E+03	7.410837E-04	1.077152E-05
5.357196E+03	7.567595E-04	1.089725E-05
5.367172E+03	7.732277E-04	1.103123E-05
5.377149E+03	7.904496E-04	1.117273E-05
5.387125E+03	8.083293E-04	1.132026E-05
5.397101E+03	8.268611E-04	1.147364E-05
5.407077E+03	8.459332E-04	1.163125E-05
5.417053E+03	8.655273E-04	1.179280E-05
5.427029E+03	8.855733E-04	1.195734E-05
5.437006E+03	9.059947E-04	1.212387E-05
5.446982E+03	9.266579E-04	1.229070E-05
5.456958E+03	9.475344E-04	1.245758E-05
5.466934E+03	9.685419E-04	1.262360E-05
5.476910E+03	9.895291E-04	1.278698E-05
5.486886E+03	1.010455E-03	1.294745E-05
5.496862E+03	1.031153E-03	1.310315E-05
5.506839E+03	1.051629E-03	1.325452E-05
5.516815E+03	1.071590E-03	1.339817E-05
5.526791E+03	1.091120E-03	1.353560E-05
5.536767E+03	1.110003E-03	1.366454E-05
5.546743E+03	1.128233E-03	1.378534E-05
5.556719E+03	1.145693E-03	1.389703E-05
5.566696E+03	1.162418E-03	1.400051E-05
5.576672E+03	1.178403E-03	1.409614E-05
5.586648E+03	1.193588E-03	1.418365E-05
5.596624E+03	1.208075E-03	1.426463E-05
5.606600E+03	1.221844E-03	1.433905E-05
5.616576E+03	1.235100E-03	1.440945E-05
5.626553E+03	1.247709E-03	1.447436E-05
5.636529E+03	1.259976E-03	1.453738E-05
5.646505E+03	1.271781E-03	1.459717E-05
5.656481E+03	1.283446E-03	1.465740E-05
5.666457E+03	1.294927E-03	1.471753E-05
5.676433E+03	1.306401E-03	1.477953E-05
5.686409E+03	1.317892E-03	1.484354E-05
5.696386E+03	1.329563E-03	1.491134E-05
5.706362E+03	1.341494E-03	1.498366E-05
5.716338E+03	1.353676E-03	1.506028E-05
5.726314E+03	1.366158E-03	1.514159E-05
5.736290E+03	1.379046E-03	1.522862E-05
5.746266E+03	1.392351E-03	1.532133E-05
5.756243E+03	1.406063E-03	1.541945E-05
5.766219E+03	1.420065E-03	1.552153E-05
5.776195E+03	1.434292E-03	1.562671E-05
5.786171E+03	1.448734E-03	1.573474E-05
5.796147E+03	1.463276E-03	1.584423E-05
5.806123E+03	1.477696E-03	1.595265E-05
5.816100E+03	1.491910E-03	1.605899E-05
5.826076E+03	1.505651E-03	1.616026E-05
5.836052E+03	1.518802E-03	1.625513E-05
5.846028E+03	1.531152E-03	1.634128E-05
5.856004E+03	1.542404E-03	1.641549E-05
5.865980E+03	1.552348E-03	1.647552E-05
5.875956E+03	1.560957E-03	1.652105E-05
5.885933E+03	1.567801E-03	1.654755E-05
5.895909E+03	1.572987E-03	1.655620E-05
5.905885E+03	1.576148E-03	1.654317E-05
5.915861E+03	1.577473E-03	1.651052E-05
5.925837E+03	1.576767E-03	1.645629E-05
5.935813E+03	1.574056E-03	1.638083E-05
5.945790E+03	1.569501E-03	1.628593E-05
5.955766E+03	1.563217E-03	1.617290E-05
5.965742E+03	1.555284E-03	1.604264E-05
5.975718E+03	1.545896E-03	1.589727E-05
5.985694E+03	1.535361E-03	1.574007E-05
5.995670E+03	1.523924E-03	1.557362E-05
6.005647E+03	1.511753E-03	1.539971E-05
6.015623E+03	1.499189E-03	1.522188E-05
6.025599E+03	1.486483E-03	1.504272E-05
6.035575E+03	1.473717E-03	1.486310E-05
6.045551E+03	1.461354E-03	1.468769E-05
6.055527E+03	1.449437E-03	1.451694E-05
6.065503E+03	1.438146E-03	1.435263E-05
6.075480E+03	1.427709E-03	1.419701E-05
6.085456E+03	1.418249E-03	1.405128E-05
6.095432E+03	1.409785E-03	1.391557E-05
6.105408E+03	1.402388E-03	1.379053E-05
6.115384E+03	1.396247E-03	1.367800E-05
6.125360E+03	1.391157E-03	1.357590E-05
6.135337E+03	1.387263E-03	1.348561E-05
6.145313E+03	1.384537E-03	1.340684E-05
6.155289E+03	1.382865E-03	1.333843E-05
6.165265E+03	1.382261E-03	1.328054E-05
6.175241E+03	1.382653E-03	1.323247E-05
6.185217E+03	1.383890E-03	1.319281E-05
6.195193E+03	1.385881E-03	1.316072E-05
6.205170E+03	1.388611E-03	1.313615E-05
6.215146E+03	1.391909E-03	1.311756E-05
6.225122E+03	1.395760E-03	1.310493E-05
6.235098E+03	1.400074E-03	1.309753E-05
6.245074E+03	1.404697E-03	1.309410E-05
6.255050E+03	1.409632E-03	1.309482E-05
6.265027E+03	1.414743E-03	1.309864E-05
6.275003E+03	1.420058E-03	1.310602E-05
6.284979E+03	1.425474E-03	1.311624E-05
6.294955E+03	1.431047E-03	1.313007E-05
6.304931E+03	1.436703E-03	1.314708E-05
6.314907E+03	1.442536E-03	1.316838E-05
6.324884E+03	1.448579E-03	1.319456E-05
6.334860E+03	1.454801E-03	1.322562E-05
6.344836E+03	1.461261E-03	1.326236E-05
6.354812E+03	1.468100E-03	1.330639E-05
6.364788E+03	1.475395E-03	1.335869E-05
6.374764E+03	1.483141E-03	1.341955E-05
6.384740E+03	1.491494E-03	1.349069E-05
6.394717E+03	1.500443E-03	1.357236E-05
6.404693E+03	1.510132E-03	1.366621E-05
6.414669E+03	1.520531E-03	1.377234E-05
6.424645E+03	1.531759E-03	1.389222E-05
6.434621E+03	1.543839E-03	1.402646E-05
6.444597E+03	1.556698E-03	1.417482E-05
6.454574E+03	1.570407E-03	1.433840E-05
6.464550E+03	1.584858E-03	1.451666E-05
6.474526E+03	1.600090E-03	1.471025E-05
6.484502E+03	1.615955E-03	1.491787E-05
6.494478E+03	1.632439E-03	1.513943E-05
6.504454E+03	1.649302E-03	1.537271E-05
6.514431E+03	1.666480E-03	1.561709E-05
6.524407E+03	1.683375E-03	1.586691E-05
6.534383E+03	1.699715E-03	1.611941E-05
6.544359E+03	1.714981E-03	1.636942E-05
6.554335E+03	1.728620E-03	1.661129E-05
6.564311E+03	1.740000E-03	1.683838E-05
6.574287E+03	1.748618E-03	1.704511E-05
6.584264E+03	1.754132E-03	1.722731E-05
6.594240E+03	1.756201E-03	1.738064E-05
6.604216E+03	1.754488E-03	1.750065E-05
6.614192E+03	1.748951E-03	1.758573E-05
6.624168E+03	1.739563E-03	1.763432E-05
6.634144E+03	1.726318E-03	1.764508E-05
6.644121E+03	1.709394E-03	1.761850E-05
6.654097E+03	1.689244E-03	1.755799E-05
6.664073E+03	1.666030E-03	1.746405E-05
6.674049E+03	1.640155E-03	1.733977E-05
6.684025E+03	1.612144E-03	1.718972E-05
6.694001E+03	1.582457E-03	1.701791E-05
6.703977E+03	1.551475E-03	1.682776E-05
6.713954E+03	1.519734E-03	1.662446E-05
6.723930E+03	1.487666E-03	1.641233E-05
6.733906E+03	1.455592E-03	1.619461E-05
6.743882E+03	1.423954E-03	1.597606E-05
6.753858E+03	1.392996E-03	1.575937E-05
6.763834E+03	1.363071E-03	1.554858E-05
6.773811E+03	1.334410E-03	1.534651E-05
6.783787E+03	1.307131E-03	1.515476E-05
6.793763E+03	1.281461E-03	1.497623E-05
6.803739E+03	1.257512E-03	1.481261E-05
6.813715E+03	1.235303E-03	1.466454E-05
6.823691E+03	1.214963E-03	1.453393E-05
6.833668E+03	1.196525E-03	1.442163E-05
6.843644E+03	1.179941E-03	1.432754E-05
6.853620E+03	1.165277E-03	1.425288E-05
6.863596E+03	1.152457E-03	1.419719E-05
6.873572E+03	1.141520E-03	1.416140E-05
6.883548E+03	1.132434E-03	1.414555E-05
6.893524E+03	1.125101E-03	1.414882E-05
6.903501E+03	1.119536E-03	1.417182E-05
6.913477E+03	1.115694E-03	1.421433E-05
6.923453E+03	1.113519E-03	1.427605E-05
6.933429E+03	1.112900E-03	1.435586E-05
6.943405E+03	1.113836E-03	1.445407E-05
6.953381E+03	1.116209E-03	1.456945E-05
6.963358E+03	1.120015E-03	1.470217E-05
6.973334E+03	1.125189E-03	1.485165E-05
6.983310E+03	1.131605E-03	1.501642E-05
6.993286E+03	1.139315E-03	1.519736E-05
7.003262E+03	1.148065E-03	1.539125E-05
7.013238E+03	1.157966E-03	1.559970E-05
7.023215E+03	1.168822E-03	1.582018E-05
7.033191E+03	1.180618E-03	1.605257E-05
7.043167E+03	1.193278E-03	1.629590E-05
7.053143E+03	1.206662E-03	1.654827E-05
7.063119E+03	1.220750E-03	1.680945E-05
7.073095E+03	1.235465E-03	1.707833E-05
7.083071E+03	1.250657E-03	1.735285E-05
7.093048E+03	1.266305E-03	1.763264E-05
7.103024E+03	1.282324E-03	1.791647E-05
7.113000E+03	1.298623E-03	1.820296E-05
7.122976E+03	1.315036E-03	1.848971E-05
7.132952E+03	1.331535E-03	1.877619E-05
7.142928E+03	1.348012E-03	1.906077E-05
7.152905E+03	1.364281E-03	1.934068E-05
7.162881E+03	1.380370E-03	1.961616E-05
7.172857E+03	1.396004E-03	1.988316E-05
7.182833E+03	1.411043E-03	2.013950E-05
7.192809E+03	1.425497E-03	2.038518E-05
7.202785E+03	1.439060E-03	2.061564E-05
7.212762E+03	1.451654E-03	2.082959E-05
7.222738E+03	1.463034E-03	2.102338E-05
7.232714E+03	1.473202E-03	2.119685E-05
7.242690E+03	1.481832E-03	2.134518E-05
7.252666E+03	1.488850E-03	2.146716E-05
7.262642E+03	1.494026E-03	2.155935E-05
7.272618E+03	1.497390E-03	2.162212E-05
7.282595E+03	1.498660E-03	2.165128E-05
7.292571E+03	1.497739E-03	2.164543E-05
7.302547E+03	1.494723E-03	2.160592E-05
7.312523E+03	1.489405E-03	2.152978E-05
7.322499E+03	1.481940E-03	2.141930E-05
7.332475E+03	1.472184E-03	2.127247E-05
7.342452E+03	1.460194E-03	2.109022E-05
7.352428E+03	1.446220E-03	2.087633E-05
7.362404E+03	1.430220E-03	2.063034E-05
7.372380E+03	1.412421E-03	2.035573E-05
7.382356E+03	1.392997E-03	2.005521E-05
7.392332E+03	1.372066E-03	1.973070E-05
7.402308E+03	1.349993E-03	1.938770E-05
7.412285E+03	1.326848E-03	1.902744E-05
7.422261E+03	1.302940E-03	1.865461E-05
7.432237E+03	1.278430E-03	1.827173E-05
7.442213E+03	1.253697E-03	1.788443E-05
7.452189E+03	1.228821E-03	1.749411E-05
7.462165E+03	1.204098E-03	1.710511E-05
7.472142E+03	1.179730E-03	1.672052E-05
7.482118E+03	1.155911E-03	1.634321E-05
7.492094E+03	1.132753E-03	1.597488E-05
7.502070E+03	1.110545E-03	1.561972E-05
7.512046E+03	1.089301E-03	1.527797E-05
7.522022E+03	1.069206E-03	1.495227E-05
7.531999E+03	1.050305E-03	1.464327E-05
7.541975E+03	1.032802E-03	1.435380E-05
7.551951E+03	1.016644E-03	1.408307E-05
7.561927E+03	1.001938E-03	1.383253E-05
7.571903E+03	9.887151E-04	1.360252E-05
7.581879E+03	9.769880E-04	1.339314E-05
7.591855E+03	9.667533E-04	1.320423E-05
7.601832E+03	9.579394E-04	1.303471E-05
7.611808E+03	9.505714E-04	1.288480E-05
7.621784E+03	9.446058E-04	1.275380E-05
7.631760E+03	9.399886E-04	1.264088E-05
7.641736E+03	9.366530E-04	1.254501E-05
7.651712E+03	9.345257E-04	1.246511E-05
7.661689E+03	9.334706E-04	1.239929E-05
7.671665E+03	9.334531E-04	1.234701E-05
7.681641E+03	9.343819E-04	1.230701E-05
7.691617E+03	9.361603E-04	1.227798E-05
7.701593E+03	9.386902E-04	1.225862E-05
7.711569E+03	9.418758E-04	1.224767E-05
7.721546E+03	9.455633E-04	1.224318E-05
7.731522E+03	9.497150E-04	1.224470E-05
7.741498E+03	9.542421E-04	1.225119E-05
