#wls	flux	fluxerr
1.596185E+03	2.175740E-06	1.098697E-07
1.636090E+03	2.164530E-06	1.089207E-07
1.675994E+03	2.150875E-06	1.078438E-07
1.715899E+03	2.133961E-06	1.065999E-07
1.755804E+03	2.114491E-06	1.052256E-07
1.795708E+03	2.090902E-06	1.036451E-07
1.835613E+03	2.063008E-06	1.018517E-07
1.875518E+03	2.028879E-06	9.975337E-08
1.915422E+03	1.987445E-06	9.730184E-08
1.955327E+03	1.938915E-06	9.451220E-08
1.995231E+03	1.884248E-06	9.143614E-08
2.035136E+03	1.826652E-06	8.823329E-08
2.075041E+03	1.774553E-06	8.531140E-08
2.114945E+03	1.737752E-06	8.313625E-08
2.154850E+03	1.725303E-06	8.212853E-08
2.194755E+03	1.741394E-06	8.246922E-08
2.234659E+03	1.780735E-06	8.388769E-08
2.274564E+03	1.835342E-06	8.599170E-08
2.314468E+03	1.898060E-06	8.843516E-08
2.354373E+03	1.962907E-06	9.093337E-08
2.394278E+03	2.028459E-06	9.341775E-08
2.434182E+03	2.091896E-06	9.575736E-08
2.474087E+03	2.155506E-06	9.805670E-08
2.513992E+03	2.218751E-06	1.002900E-07
2.553896E+03	2.282661E-06	1.025026E-07
2.593801E+03	2.349809E-06	1.048073E-07
2.633705E+03	2.419908E-06	1.071869E-07
2.673610E+03	2.494091E-06	1.096872E-07
2.713515E+03	2.575064E-06	1.124207E-07
2.753419E+03	2.662534E-06	1.153665E-07
2.793324E+03	2.757781E-06	1.185715E-07
2.833229E+03	2.863864E-06	1.221561E-07
2.873133E+03	2.980750E-06	1.261058E-07
2.913038E+03	3.111079E-06	1.305174E-07
2.952942E+03	3.256031E-06	1.354230E-07
2.992847E+03	3.419843E-06	1.409784E-07
3.002823E+03	3.463297E-06	1.424476E-07
3.012799E+03	3.508997E-06	1.439994E-07
3.022776E+03	3.555059E-06	1.455559E-07
3.032752E+03	3.603518E-06	1.472002E-07
3.042728E+03	3.652565E-06	1.488577E-07
3.052704E+03	3.704368E-06	1.506163E-07
3.062680E+03	3.757963E-06	1.524363E-07
3.072656E+03	3.812349E-06	1.542763E-07
3.082633E+03	3.869626E-06	1.562209E-07
3.092609E+03	3.928814E-06	1.582298E-07
3.102585E+03	3.989962E-06	1.603042E-07
3.112561E+03	4.053124E-06	1.624457E-07
3.122537E+03	4.118357E-06	1.646559E-07
3.132513E+03	4.185727E-06	1.669366E-07
3.142489E+03	4.255303E-06	1.692900E-07
3.152466E+03	4.327159E-06	1.717183E-07
3.162442E+03	4.401374E-06	1.742237E-07
3.172418E+03	4.479218E-06	1.768556E-07
3.182394E+03	4.558430E-06	1.795238E-07
3.192370E+03	4.640276E-06	1.822775E-07
3.202346E+03	4.726094E-06	1.851682E-07
3.212323E+03	4.813539E-06	1.881030E-07
3.222299E+03	4.903945E-06	1.911331E-07
3.232275E+03	4.998731E-06	1.943128E-07
3.242251E+03	5.096771E-06	1.975970E-07
3.252227E+03	5.196866E-06	2.009381E-07
3.262203E+03	5.301817E-06	2.044434E-07
3.272179E+03	5.410464E-06	2.080666E-07
3.282156E+03	5.521552E-06	2.117582E-07
3.292132E+03	5.638060E-06	2.156314E-07
3.302108E+03	5.758777E-06	2.196380E-07
3.312084E+03	5.883895E-06	2.237839E-07
3.322060E+03	6.013611E-06	2.280749E-07
3.332036E+03	6.148147E-06	2.325179E-07
3.342013E+03	6.287719E-06	2.371191E-07
3.351989E+03	6.432558E-06	2.418856E-07
3.361965E+03	6.582922E-06	2.468251E-07
3.371941E+03	6.739066E-06	2.519452E-07
3.381917E+03	6.901261E-06	2.572538E-07
3.391893E+03	7.071551E-06	2.628247E-07
3.401870E+03	7.246775E-06	2.685380E-07
3.411846E+03	7.428966E-06	2.744668E-07
3.421822E+03	7.620322E-06	2.806897E-07
3.431798E+03	7.817512E-06	2.870808E-07
3.441774E+03	8.022729E-06	2.937185E-07
3.451750E+03	8.238360E-06	3.006868E-07
3.461726E+03	8.462918E-06	3.079279E-07
3.471703E+03	8.694731E-06	3.153777E-07
3.481679E+03	8.938401E-06	3.232001E-07
3.491655E+03	9.192363E-06	3.313341E-07
3.501631E+03	9.454859E-06	3.397128E-07
3.511607E+03	9.730869E-06	3.485114E-07
3.521583E+03	1.001874E-05	3.576658E-07
3.531560E+03	1.031906E-05	3.671923E-07
3.541536E+03	1.063240E-05	3.771070E-07
3.551512E+03	1.095941E-05	3.874273E-07
3.561488E+03	1.130074E-05	3.981712E-07
3.571464E+03	1.165705E-05	4.093567E-07
3.581440E+03	1.202905E-05	4.210027E-07
3.591417E+03	1.241747E-05	4.331288E-07
3.601393E+03	1.282304E-05	4.457537E-07
3.611369E+03	1.324955E-05	4.590026E-07
3.621345E+03	1.369172E-05	4.726853E-07
3.631321E+03	1.415332E-05	4.869247E-07
3.641297E+03	1.463848E-05	5.018559E-07
3.651273E+03	1.514143E-05	5.172720E-07
3.661250E+03	1.566626E-05	5.333052E-07
3.671226E+03	1.621752E-05	5.501014E-07
3.681202E+03	1.678882E-05	5.674349E-07
3.691178E+03	1.738857E-05	5.855803E-07
3.701154E+03	1.801401E-05	6.044344E-07
3.711130E+03	1.866191E-05	6.238785E-07
3.721107E+03	1.934145E-05	6.442100E-07
3.731083E+03	2.004957E-05	6.653144E-07
3.741059E+03	2.078725E-05	6.872132E-07
3.751035E+03	2.155072E-05	7.097701E-07
3.761011E+03	2.235038E-05	7.333161E-07
3.770987E+03	2.318262E-05	7.577186E-07
3.780963E+03	2.404847E-05	7.829981E-07
3.790940E+03	2.494895E-05	8.091739E-07
3.800916E+03	2.588509E-05	8.362655E-07
3.810892E+03	2.685789E-05	8.642907E-07
3.820868E+03	2.786838E-05	8.932673E-07
3.830844E+03	2.891756E-05	9.232121E-07
3.840820E+03	3.000643E-05	9.541406E-07
3.850797E+03	3.114265E-05	9.862795E-07
3.860773E+03	3.231403E-05	1.019225E-06
3.870749E+03	3.352798E-05	1.053195E-06
3.880725E+03	3.478541E-05	1.088200E-06
3.890701E+03	3.609488E-05	1.124489E-06
3.900677E+03	3.744218E-05	1.161600E-06
3.910654E+03	3.884376E-05	1.200024E-06
3.920630E+03	4.028432E-05	1.239270E-06
3.930606E+03	4.177258E-05	1.279586E-06
3.940582E+03	4.331834E-05	1.321253E-06
3.950558E+03	4.491393E-05	1.364012E-06
3.960534E+03	4.655043E-05	1.407574E-06
3.970510E+03	4.824765E-05	1.452517E-06
3.980487E+03	4.998668E-05	1.498249E-06
3.990463E+03	5.178864E-05	1.545382E-06
4.000439E+03	5.364440E-05	1.593618E-06
4.010415E+03	5.554350E-05	1.642625E-06
4.020391E+03	5.750935E-05	1.693073E-06
4.030367E+03	5.953204E-05	1.744643E-06
4.040344E+03	6.161290E-05	1.797351E-06
4.050320E+03	6.375340E-05	1.851213E-06
4.060296E+03	6.594202E-05	1.905872E-06
4.070272E+03	6.820696E-05	1.962117E-06
4.080248E+03	7.053772E-05	2.019615E-06
4.090224E+03	7.293726E-05	2.078423E-06
4.100201E+03	7.540895E-05	2.138606E-06
4.110177E+03	7.795670E-05	2.200244E-06
4.120153E+03	8.058517E-05	2.263436E-06
4.130129E+03	8.329970E-05	2.328295E-06
4.140105E+03	8.610649E-05	2.394959E-06
4.150081E+03	8.901249E-05	2.463578E-06
4.160057E+03	9.204360E-05	2.534826E-06
4.170034E+03	9.517305E-05	2.607914E-06
4.180010E+03	9.842792E-05	2.683541E-06
4.189986E+03	1.018187E-04	2.761935E-06
4.199962E+03	1.053567E-04	2.843348E-06
4.209938E+03	1.090540E-04	2.928037E-06
4.219914E+03	1.129451E-04	3.016859E-06
4.229891E+03	1.170006E-04	3.108950E-06
4.239867E+03	1.212553E-04	3.205162E-06
4.249843E+03	1.257234E-04	3.305781E-06
4.259819E+03	1.304440E-04	3.411742E-06
4.269795E+03	1.353827E-04	3.522042E-06
4.279771E+03	1.405775E-04	3.637572E-06
4.289748E+03	1.460696E-04	3.759287E-06
4.299724E+03	1.518178E-04	3.886005E-06
4.309700E+03	1.578606E-04	4.018599E-06
4.319676E+03	1.642392E-04	4.157986E-06
4.329652E+03	1.709021E-04	4.302728E-06
4.339628E+03	1.779181E-04	4.454432E-06
4.349604E+03	1.852262E-04	4.611426E-06
4.359581E+03	1.928581E-04	4.774376E-06
4.369557E+03	2.008468E-04	4.943954E-06
4.379533E+03	2.091116E-04	5.118042E-06
4.389509E+03	2.177429E-04	5.298718E-06
4.399485E+03	2.267023E-04	5.484906E-06
4.409461E+03	2.361145E-04	5.679467E-06
4.419438E+03	2.459399E-04	5.881266E-06
4.429414E+03	2.562661E-04	6.092212E-06
4.439390E+03	2.671882E-04	6.314349E-06
4.449366E+03	2.786591E-04	6.546322E-06
4.459342E+03	2.908242E-04	6.791299E-06
4.469318E+03	3.036265E-04	7.047672E-06
4.479294E+03	3.172155E-04	7.318628E-06
4.489271E+03	3.315183E-04	7.602173E-06
4.499247E+03	3.466832E-04	7.901393E-06
4.509223E+03	3.626136E-04	8.213747E-06
4.519199E+03	3.794490E-04	8.542069E-06
4.529175E+03	3.970594E-04	8.883079E-06
4.539151E+03	4.155683E-04	9.239213E-06
4.549128E+03	4.348026E-04	9.606288E-06
4.559104E+03	4.548637E-04	9.986240E-06
4.569080E+03	4.755292E-04	1.037389E-05
4.579056E+03	4.967897E-04	1.076881E-05
4.589032E+03	5.186314E-04	1.117047E-05
4.599008E+03	5.407585E-04	1.157232E-05
4.608985E+03	5.632203E-04	1.197532E-05
4.618961E+03	5.856818E-04	1.237229E-05
4.628937E+03	6.080848E-04	1.276202E-05
4.638913E+03	6.303823E-04	1.314360E-05
4.648889E+03	6.522097E-04	1.350954E-05
4.658865E+03	6.736377E-04	1.386152E-05
4.668841E+03	6.943030E-04	1.419233E-05
4.678818E+03	7.141916E-04	1.450201E-05
4.688794E+03	7.331943E-04	1.478871E-05
4.698770E+03	7.513465E-04	1.505350E-05
4.708746E+03	7.683245E-04	1.529030E-05
4.718722E+03	7.841974E-04	1.550098E-05
4.728698E+03	7.989296E-04	1.568528E-05
4.738675E+03	8.126372E-04	1.584593E-05
4.748651E+03	8.250452E-04	1.597804E-05
4.758627E+03	8.362956E-04	1.608486E-05
4.768603E+03	8.464039E-04	1.616716E-05
4.778579E+03	8.553936E-04	1.622583E-05
4.788555E+03	8.632922E-04	1.626186E-05
4.798532E+03	8.701293E-04	1.627623E-05
4.808508E+03	8.759329E-04	1.626988E-05
4.818484E+03	8.808735E-04	1.624637E-05
4.828460E+03	8.846875E-04	1.620121E-05
4.838436E+03	8.873936E-04	1.613518E-05
4.848412E+03	8.892974E-04	1.605424E-05
4.858388E+03	8.902664E-04	1.595633E-05
4.868365E+03	8.903100E-04	1.584198E-05
4.878341E+03	8.894365E-04	1.571170E-05
4.888317E+03	8.876521E-04	1.556594E-05
4.898293E+03	8.849631E-04	1.540518E-05
4.908269E+03	8.812375E-04	1.522747E-05
4.918245E+03	8.767685E-04	1.503825E-05
4.928222E+03	8.714286E-04	1.483564E-05
4.938198E+03	8.651003E-04	1.461797E-05
4.948174E+03	8.580848E-04	1.439067E-05
4.958150E+03	8.501402E-04	1.414998E-05
4.968126E+03	8.415740E-04	1.390133E-05
4.978102E+03	8.321650E-04	1.364132E-05
4.988078E+03	8.222285E-04	1.337540E-05
4.998055E+03	8.115642E-04	1.310054E-05
5.008031E+03	8.004959E-04	1.282218E-05
5.018007E+03	7.888474E-04	1.253767E-05
5.027983E+03	7.768262E-04	1.225050E-05
5.037959E+03	7.645227E-04	1.196222E-05
5.047935E+03	7.520319E-04	1.167441E-05
5.057912E+03	7.395683E-04	1.139042E-05
5.067888E+03	7.270028E-04	1.110827E-05
5.077864E+03	7.145569E-04	1.083136E-05
5.087840E+03	7.023335E-04	1.056118E-05
5.097816E+03	6.903257E-04	1.029754E-05
5.107792E+03	6.788426E-04	1.004493E-05
5.117769E+03	6.678631E-04	9.802860E-06
5.127745E+03	6.574663E-04	9.572289E-06
5.137721E+03	6.477215E-04	9.354009E-06
5.147697E+03	6.385907E-04	9.147243E-06
5.157673E+03	6.303171E-04	8.955233E-06
5.167649E+03	6.227460E-04	8.775499E-06
5.177625E+03	6.160947E-04	8.610834E-06
5.187602E+03	6.101950E-04	8.458596E-06
5.197578E+03	6.052420E-04	8.321218E-06
5.207554E+03	6.010575E-04	8.195951E-06
5.217530E+03	5.977311E-04	8.083762E-06
5.227506E+03	5.952570E-04	7.984299E-06
5.237482E+03	5.937141E-04	7.898342E-06
5.247459E+03	5.929135E-04	7.823114E-06
5.257435E+03	5.929308E-04	7.759383E-06
5.267411E+03	5.937515E-04	7.706721E-06
5.277387E+03	5.952727E-04	7.663575E-06
5.287363E+03	5.976544E-04	7.631802E-06
5.297339E+03	6.007928E-04	7.609851E-06
5.307316E+03	6.046713E-04	7.597321E-06
5.317292E+03	6.091830E-04	7.592700E-06
5.327268E+03	6.144871E-04	7.597814E-06
5.337244E+03	6.203835E-04	7.610025E-06
5.347220E+03	6.270290E-04	7.631129E-06
5.357196E+03	6.342144E-04	7.658446E-06
5.367172E+03	6.419990E-04	7.692603E-06
5.377149E+03	6.503462E-04	7.733069E-06
5.387125E+03	6.592140E-04	7.779275E-06
5.397101E+03	6.685541E-04	7.830600E-06
5.407077E+03	6.783126E-04	7.886379E-06
5.417053E+03	6.884298E-04	7.945911E-06
5.427029E+03	6.988413E-04	8.008465E-06
5.437006E+03	7.094794E-04	8.073302E-06
5.446982E+03	7.202754E-04	8.139696E-06
5.456958E+03	7.310566E-04	8.205783E-06
5.466934E+03	7.419668E-04	8.273283E-06
5.476910E+03	7.527382E-04	8.339315E-06
5.486886E+03	7.634077E-04	8.404433E-06
5.496862E+03	7.739711E-04	8.468729E-06
5.506839E+03	7.840950E-04	8.528718E-06
5.516815E+03	7.937908E-04	8.584723E-06
5.526791E+03	8.029755E-04	8.636048E-06
5.536767E+03	8.115893E-04	8.682256E-06
5.546743E+03	8.195925E-04	8.723126E-06
5.556719E+03	8.268534E-04	8.757422E-06
5.566696E+03	8.336120E-04	8.787785E-06
5.576672E+03	8.397846E-04	8.813393E-06
5.586648E+03	8.453046E-04	8.833607E-06
5.596624E+03	8.504816E-04	8.851703E-06
5.606600E+03	8.551693E-04	8.866169E-06
5.616576E+03	8.595899E-04	8.879315E-06
5.626553E+03	8.638585E-04	8.892306E-06
5.636529E+03	8.682170E-04	8.907589E-06
5.646505E+03	8.725520E-04	8.923940E-06
5.656481E+03	8.769897E-04	8.942594E-06
5.666457E+03	8.819018E-04	8.967263E-06
5.676433E+03	8.872910E-04	8.997879E-06
5.686409E+03	8.932817E-04	9.035606E-06
5.696386E+03	8.998640E-04	9.080242E-06
5.706362E+03	9.073974E-04	9.135313E-06
5.716338E+03	9.157336E-04	9.199211E-06
5.726314E+03	9.250886E-04	9.273999E-06
5.736290E+03	9.355400E-04	9.360345E-06
5.746266E+03	9.471497E-04	9.458753E-06
5.756243E+03	9.599584E-04	9.569523E-06
5.766219E+03	9.739829E-04	9.692711E-06
5.776195E+03	9.892077E-04	9.828059E-06
5.786171E+03	1.005583E-03	9.974969E-06
5.796147E+03	1.022876E-03	1.013105E-05
5.806123E+03	1.041229E-03	1.029761E-05
5.816100E+03	1.060173E-03	1.046993E-05
5.826076E+03	1.079761E-03	1.064846E-05
5.836052E+03	1.099419E-03	1.082748E-05
5.846028E+03	1.118965E-03	1.100514E-05
5.856004E+03	1.138037E-03	1.117785E-05
5.865980E+03	1.156252E-03	1.134181E-05
5.875956E+03	1.173217E-03	1.149315E-05
5.885933E+03	1.188389E-03	1.162655E-05
5.895909E+03	1.201734E-03	1.174171E-05
5.905885E+03	1.212789E-03	1.183411E-05
5.915861E+03	1.221153E-03	1.189989E-05
5.925837E+03	1.226833E-03	1.193916E-05
5.935813E+03	1.229930E-03	1.195300E-05
5.945790E+03	1.230148E-03	1.193857E-05
5.955766E+03	1.227781E-03	1.189881E-05
5.965742E+03	1.223042E-03	1.183587E-05
5.975718E+03	1.216064E-03	1.175109E-05
5.985694E+03	1.207525E-03	1.165112E-05
5.995670E+03	1.197660E-03	1.153826E-05
6.005647E+03	1.186735E-03	1.141512E-05
6.015623E+03	1.175501E-03	1.128898E-05
6.025599E+03	1.164068E-03	1.116090E-05
6.035575E+03	1.152998E-03	1.103629E-05
6.045551E+03	1.142662E-03	1.091868E-05
6.055527E+03	1.133388E-03	1.081117E-05
6.065503E+03	1.125452E-03	1.071637E-05
6.075480E+03	1.119078E-03	1.063636E-05
6.085456E+03	1.114434E-03	1.057266E-05
6.095432E+03	1.111486E-03	1.052489E-05
6.105408E+03	1.110584E-03	1.049630E-05
6.115384E+03	1.111442E-03	1.048410E-05
6.125360E+03	1.114166E-03	1.048922E-05
6.135337E+03	1.118673E-03	1.051081E-05
6.145313E+03	1.124993E-03	1.054911E-05
6.155289E+03	1.132534E-03	1.059849E-05
6.165265E+03	1.141570E-03	1.066148E-05
6.175241E+03	1.151762E-03	1.073492E-05
6.185217E+03	1.162910E-03	1.081691E-05
6.195193E+03	1.174652E-03	1.090410E-05
6.205170E+03	1.187085E-03	1.099743E-05
6.215146E+03	1.199690E-03	1.109213E-05
6.225122E+03	1.212424E-03	1.118788E-05
6.235098E+03	1.225094E-03	1.128297E-05
6.245074E+03	1.237529E-03	1.137594E-05
6.255050E+03	1.249571E-03	1.146543E-05
6.265027E+03	1.261089E-03	1.155040E-05
6.275003E+03	1.271979E-03	1.163001E-05
6.284979E+03	1.281998E-03	1.170220E-05
6.294955E+03	1.291441E-03	1.176981E-05
6.304931E+03	1.299965E-03	1.182987E-05
6.314907E+03	1.307770E-03	1.188438E-05
6.324884E+03	1.315093E-03	1.193566E-05
6.334860E+03	1.321692E-03	1.198163E-05
6.344836E+03	1.327866E-03	1.202521E-05
6.354812E+03	1.333596E-03	1.206633E-05
6.364788E+03	1.339399E-03	1.210986E-05
6.374764E+03	1.345282E-03	1.215600E-05
6.384740E+03	1.351252E-03	1.220497E-05
6.394717E+03	1.357838E-03	1.226168E-05
6.404693E+03	1.364847E-03	1.232456E-05
6.414669E+03	1.372594E-03	1.239662E-05
6.424645E+03	1.381190E-03	1.247902E-05
6.434621E+03	1.390714E-03	1.257269E-05
6.444597E+03	1.401207E-03	1.267819E-05
6.454574E+03	1.412677E-03	1.279581E-05
6.464550E+03	1.425096E-03	1.292551E-05
6.474526E+03	1.438219E-03	1.306533E-05
6.484502E+03	1.452343E-03	1.321822E-05
6.494478E+03	1.467000E-03	1.338017E-05
6.504454E+03	1.482291E-03	1.355237E-05
6.514431E+03	1.498136E-03	1.373430E-05
6.524407E+03	1.514159E-03	1.392253E-05
6.534383E+03	1.529537E-03	1.410950E-05
6.544359E+03	1.543444E-03	1.428747E-05
6.554335E+03	1.555117E-03	1.444917E-05
6.564311E+03	1.563877E-03	1.458797E-05
6.574287E+03	1.568954E-03	1.469624E-05
6.584264E+03	1.570324E-03	1.477321E-05
6.594240E+03	1.567303E-03	1.481182E-05
6.604216E+03	1.559978E-03	1.481217E-05
6.614192E+03	1.548397E-03	1.477393E-05
6.624168E+03	1.532758E-03	1.469821E-05
6.634144E+03	1.513390E-03	1.458737E-05
6.644121E+03	1.490737E-03	1.444492E-05
6.654097E+03	1.465317E-03	1.427518E-05
6.664073E+03	1.437518E-03	1.408126E-05
6.674049E+03	1.408305E-03	1.387206E-05
6.684025E+03	1.377894E-03	1.364926E-05
6.694001E+03	1.347202E-03	1.342155E-05
6.703977E+03	1.316381E-03	1.319022E-05
6.713954E+03	1.286058E-03	1.296138E-05
6.723930E+03	1.256616E-03	1.273880E-05
6.733906E+03	1.228370E-03	1.252569E-05
6.743882E+03	1.201567E-03	1.232464E-05
6.753858E+03	1.176242E-03	1.213615E-05
6.763834E+03	1.152834E-03	1.196491E-05
6.773811E+03	1.131270E-03	1.181038E-05
6.783787E+03	1.111451E-03	1.167179E-05
6.793763E+03	1.093539E-03	1.155105E-05
6.803739E+03	1.077662E-03	1.144980E-05
6.813715E+03	1.063509E-03	1.136502E-05
6.823691E+03	1.051183E-03	1.129807E-05
6.833668E+03	1.040640E-03	1.124873E-05
6.843644E+03	1.031696E-03	1.121529E-05
6.853620E+03	1.024576E-03	1.120042E-05
6.863596E+03	1.019099E-03	1.120245E-05
6.873572E+03	1.015094E-03	1.121969E-05
6.883548E+03	1.012788E-03	1.125492E-05
6.893524E+03	1.011884E-03	1.130505E-05
6.903501E+03	1.012483E-03	1.137143E-05
6.913477E+03	1.014689E-03	1.145544E-05
6.923453E+03	1.018207E-03	1.155397E-05
6.933429E+03	1.023139E-03	1.166836E-05
6.943405E+03	1.029453E-03	1.179843E-05
6.953381E+03	1.036979E-03	1.194239E-05
6.963358E+03	1.045948E-03	1.210307E-05
6.973334E+03	1.056181E-03	1.227856E-05
6.983310E+03	1.067491E-03	1.246683E-05
6.993286E+03	1.080104E-03	1.267062E-05
7.003262E+03	1.093683E-03	1.288610E-05
7.013238E+03	1.108303E-03	1.311425E-05
7.023215E+03	1.123904E-03	1.335441E-05
7.033191E+03	1.140568E-03	1.360765E-05
7.043167E+03	1.157929E-03	1.386966E-05
7.053143E+03	1.175911E-03	1.413953E-05
7.063119E+03	1.194752E-03	1.442014E-05
7.073095E+03	1.214228E-03	1.470880E-05
7.083071E+03	1.234270E-03	1.500468E-05
7.093048E+03	1.254641E-03	1.530486E-05
7.103024E+03	1.275594E-03	1.561240E-05
7.113000E+03	1.296721E-03	1.592224E-05
7.122976E+03	1.318101E-03	1.623530E-05
7.132952E+03	1.339643E-03	1.655039E-05
7.142928E+03	1.361422E-03	1.686837E-05
7.152905E+03	1.382965E-03	1.718327E-05
7.162881E+03	1.404311E-03	1.749549E-05
7.172857E+03	1.425117E-03	1.780061E-05
7.182833E+03	1.445581E-03	1.810098E-05
7.192809E+03	1.465315E-03	1.839164E-05
7.202785E+03	1.484097E-03	1.866961E-05
7.212762E+03	1.501480E-03	1.892912E-05
7.222738E+03	1.517597E-03	1.917166E-05
7.232714E+03	1.531765E-03	1.938843E-05
7.242690E+03	1.543892E-03	1.957807E-05
7.252666E+03	1.553685E-03	1.973668E-05
7.262642E+03	1.561067E-03	1.986309E-05
7.272618E+03	1.565352E-03	1.994838E-05
7.282595E+03	1.566504E-03	1.999191E-05
7.292571E+03	1.564107E-03	1.998819E-05
7.302547E+03	1.558422E-03	1.994042E-05
7.312523E+03	1.549135E-03	1.984444E-05
7.322499E+03	1.536205E-03	1.969961E-05
7.332475E+03	1.519449E-03	1.950353E-05
7.342452E+03	1.499370E-03	1.926258E-05
7.352428E+03	1.475716E-03	1.897351E-05
7.362404E+03	1.448905E-03	1.864170E-05
7.372380E+03	1.419393E-03	1.827304E-05
7.382356E+03	1.387100E-03	1.786658E-05
7.392332E+03	1.352557E-03	1.742926E-05
7.402308E+03	1.316125E-03	1.696579E-05
7.412285E+03	1.278173E-03	1.648110E-05
7.422261E+03	1.239075E-03	1.598011E-05
7.432237E+03	1.199205E-03	1.546781E-05
7.442213E+03	1.158928E-03	1.494904E-05
7.452189E+03	1.118449E-03	1.442661E-05
7.462165E+03	1.078424E-03	1.390911E-05
7.472142E+03	1.038886E-03	1.339710E-05
7.482118E+03	1.000437E-03	1.289850E-05
7.492094E+03	9.630975E-04	1.241367E-05
7.502070E+03	9.274110E-04	1.194974E-05
7.512046E+03	8.933707E-04	1.150672E-05
7.522022E+03	8.613311E-04	1.108924E-05
7.531999E+03	8.314848E-04	1.069985E-05
7.541975E+03	8.039923E-04	1.034067E-05
7.551951E+03	7.789803E-04	1.001336E-05
7.561927E+03	7.565416E-04	9.719137E-06
7.571903E+03	7.367358E-04	9.458775E-06
7.581879E+03	7.195901E-04	9.232622E-06
7.591855E+03	7.051011E-04	9.040626E-06
7.601832E+03	6.931407E-04	8.881129E-06
7.611808E+03	6.838420E-04	8.755818E-06
7.621784E+03	6.769289E-04	8.661134E-06
7.631760E+03	6.724802E-04	8.598067E-06
7.641736E+03	6.701774E-04	8.562524E-06
7.651712E+03	6.700543E-04	8.554924E-06
7.661689E+03	6.717537E-04	8.570700E-06
7.671665E+03	6.751811E-04	8.608647E-06
7.681641E+03	6.801349E-04	8.666206E-06
7.691617E+03	6.864995E-04	8.741925E-06
7.701593E+03	6.938667E-04	8.830638E-06
7.711569E+03	7.021112E-04	8.930797E-06
7.721546E+03	7.109158E-04	9.038423E-06
7.731522E+03	7.202678E-04	9.153423E-06
7.741498E+03	7.298709E-04	9.272106E-06
