#wls	flux	fluxerr
1.596185E+03	1.421716E-06	6.757599E-08
1.636090E+03	1.409777E-06	6.681299E-08
1.675994E+03	1.395213E-06	6.592444E-08
1.715899E+03	1.379264E-06	6.496987E-08
1.755804E+03	1.361286E-06	6.391979E-08
1.795708E+03	1.341395E-06	6.278050E-08
1.835613E+03	1.318425E-06	6.149875E-08
1.875518E+03	1.291701E-06	6.004466E-08
1.915422E+03	1.260588E-06	5.839094E-08
1.955327E+03	1.225307E-06	5.655018E-08
1.995231E+03	1.186038E-06	5.453308E-08
2.035136E+03	1.145298E-06	5.245742E-08
2.075041E+03	1.108404E-06	5.056695E-08
2.114945E+03	1.081372E-06	4.913329E-08
2.154850E+03	1.070116E-06	4.841886E-08
2.194755E+03	1.075493E-06	4.845335E-08
2.234659E+03	1.096043E-06	4.916136E-08
2.274564E+03	1.125488E-06	5.025323E-08
2.314468E+03	1.159823E-06	5.154507E-08
2.354373E+03	1.195337E-06	5.286902E-08
2.394278E+03	1.230815E-06	5.417033E-08
2.434182E+03	1.265335E-06	5.540796E-08
2.474087E+03	1.299081E-06	5.659003E-08
2.513992E+03	1.333048E-06	5.775953E-08
2.553896E+03	1.367430E-06	5.892404E-08
2.593801E+03	1.402923E-06	6.011249E-08
2.633705E+03	1.440732E-06	6.137470E-08
2.673610E+03	1.481080E-06	6.271765E-08
2.713515E+03	1.525204E-06	6.419078E-08
2.753419E+03	1.573353E-06	6.580070E-08
2.793324E+03	1.626325E-06	6.757645E-08
2.833229E+03	1.685552E-06	6.957222E-08
2.873133E+03	1.751477E-06	7.179987E-08
2.913038E+03	1.825205E-06	7.429748E-08
2.952942E+03	1.908624E-06	7.713324E-08
2.992847E+03	2.003285E-06	8.035927E-08
3.002823E+03	2.028651E-06	8.122310E-08
3.012799E+03	2.054816E-06	8.211431E-08
3.022776E+03	2.081814E-06	8.303394E-08
3.032752E+03	2.110365E-06	8.401047E-08
3.042728E+03	2.139234E-06	8.499447E-08
3.052704E+03	2.169189E-06	8.601624E-08
3.062680E+03	2.200250E-06	8.707631E-08
3.072656E+03	2.233145E-06	8.820310E-08
3.082633E+03	2.266501E-06	8.934207E-08
3.092609E+03	2.301043E-06	9.052155E-08
3.102585E+03	2.337534E-06	9.177123E-08
3.112561E+03	2.374559E-06	9.303508E-08
3.122537E+03	2.413628E-06	9.437203E-08
3.132513E+03	2.453292E-06	9.572501E-08
3.142489E+03	2.495110E-06	9.715451E-08
3.152466E+03	2.537598E-06	9.860227E-08
3.162442E+03	2.582365E-06	1.001305E-07
3.172418E+03	2.627888E-06	1.016796E-07
3.182394E+03	2.675831E-06	1.033137E-07
3.192370E+03	2.724629E-06	1.049717E-07
3.202346E+03	2.776006E-06	1.067197E-07
3.212323E+03	2.829215E-06	1.085283E-07
3.222299E+03	2.883456E-06	1.103665E-07
3.232275E+03	2.940550E-06	1.123032E-07
3.242251E+03	2.999722E-06	1.143084E-07
3.252227E+03	3.060140E-06	1.163497E-07
3.262203E+03	3.123733E-06	1.184999E-07
3.272179E+03	3.189697E-06	1.207278E-07
3.282156E+03	3.258140E-06	1.230366E-07
3.292132E+03	3.329177E-06	1.254300E-07
3.302108E+03	3.402931E-06	1.279119E-07
3.312084E+03	3.478493E-06	1.304474E-07
3.322060E+03	3.558050E-06	1.331177E-07
3.332036E+03	3.640731E-06	1.358892E-07
3.342013E+03	3.726687E-06	1.387665E-07
3.351989E+03	3.816077E-06	1.417547E-07
3.361965E+03	3.909071E-06	1.448589E-07
3.371941E+03	4.005848E-06	1.480848E-07
3.381917E+03	4.106596E-06	1.514380E-07
3.391893E+03	4.211513E-06	1.549248E-07
3.401870E+03	4.320809E-06	1.585516E-07
3.411846E+03	4.436002E-06	1.623725E-07
3.421822E+03	4.554770E-06	1.663011E-07
3.431798E+03	4.678626E-06	1.703912E-07
3.441774E+03	4.807834E-06	1.746511E-07
3.451750E+03	4.942666E-06	1.790889E-07
3.461726E+03	5.083419E-06	1.837136E-07
3.471703E+03	5.231899E-06	1.885884E-07
3.481679E+03	5.385476E-06	1.936165E-07
3.491655E+03	5.545954E-06	1.988609E-07
3.501631E+03	5.715323E-06	2.043907E-07
3.511607E+03	5.890764E-06	2.101026E-07
3.521583E+03	6.074259E-06	2.160651E-07
3.531560E+03	6.268009E-06	2.223537E-07
3.541536E+03	6.468969E-06	2.288577E-07
3.551512E+03	6.679338E-06	2.356522E-07
3.561488E+03	6.901552E-06	2.428199E-07
3.571464E+03	7.132307E-06	2.502413E-07
3.581440E+03	7.376088E-06	2.580705E-07
3.591417E+03	7.629400E-06	2.661814E-07
3.601393E+03	7.897025E-06	2.747373E-07
3.611369E+03	8.175246E-06	2.836046E-07
3.621345E+03	8.469159E-06	2.929563E-07
3.631321E+03	8.774808E-06	3.026508E-07
3.641297E+03	9.097646E-06	3.128718E-07
3.651273E+03	9.436040E-06	3.235578E-07
3.661250E+03	9.788067E-06	3.346379E-07
3.671226E+03	1.015977E-05	3.463134E-07
3.681202E+03	1.054649E-05	3.584201E-07
3.691178E+03	1.095474E-05	3.711732E-07
3.701154E+03	1.138262E-05	3.845013E-07
3.711130E+03	1.183105E-05	3.984293E-07
3.721107E+03	1.229767E-05	4.128710E-07
3.731083E+03	1.279002E-05	4.280725E-07
3.741059E+03	1.330593E-05	4.439529E-07
3.751035E+03	1.384650E-05	4.605409E-07
3.761011E+03	1.440901E-05	4.777379E-07
3.770987E+03	1.500221E-05	4.958257E-07
3.780963E+03	1.562363E-05	5.147125E-07
3.790940E+03	1.627455E-05	5.344308E-07
3.800916E+03	1.695632E-05	5.550146E-07
3.810892E+03	1.767035E-05	5.764993E-07
3.820868E+03	1.841323E-05	5.987631E-07
3.830844E+03	1.919602E-05	6.221543E-07
3.840820E+03	2.001563E-05	6.465596E-07
3.850797E+03	2.087373E-05	6.720199E-07
3.860773E+03	2.177207E-05	6.985775E-07
3.870749E+03	2.271243E-05	7.262762E-07
3.880725E+03	2.369674E-05	7.551618E-07
3.890701E+03	2.472695E-05	7.852818E-07
3.900677E+03	2.580516E-05	8.166856E-07
3.910654E+03	2.693352E-05	8.494249E-07
3.920630E+03	2.811430E-05	8.835530E-07
3.930606E+03	2.934990E-05	9.191261E-07
3.940582E+03	3.064279E-05	9.562026E-07
3.950558E+03	3.199560E-05	9.948434E-07
3.960534E+03	3.341108E-05	1.035112E-06
3.970510E+03	3.490102E-05	1.077351E-06
3.980487E+03	3.645102E-05	1.121090E-06
3.990463E+03	3.807282E-05	1.166667E-06
4.000439E+03	3.976978E-05	1.214160E-06
4.010415E+03	4.154543E-05	1.263648E-06
4.020391E+03	4.340351E-05	1.315216E-06
4.030367E+03	4.534795E-05	1.368953E-06
4.040344E+03	4.738282E-05	1.424951E-06
4.050320E+03	4.952500E-05	1.483681E-06
4.060296E+03	5.175470E-05	1.544515E-06
4.070272E+03	5.408867E-05	1.607918E-06
4.080248E+03	5.653205E-05	1.674005E-06
4.090224E+03	5.909020E-05	1.742893E-06
4.100201E+03	6.178397E-05	1.815153E-06
4.110177E+03	6.458943E-05	1.890036E-06
4.120153E+03	6.752744E-05	1.968107E-06
4.130129E+03	7.060453E-05	2.049508E-06
4.140105E+03	7.384560E-05	2.134907E-06
4.150081E+03	7.722241E-05	2.223432E-06
4.160057E+03	8.075975E-05	2.315741E-06
4.170034E+03	8.446536E-05	2.411998E-06
4.180010E+03	8.836882E-05	2.512980E-06
4.189986E+03	9.243643E-05	2.617661E-06
4.199962E+03	9.669758E-05	2.726808E-06
4.209938E+03	1.011611E-04	2.840597E-06
4.219914E+03	1.058619E-04	2.959927E-06
4.229891E+03	1.107595E-04	3.083587E-06
4.239867E+03	1.158881E-04	3.212450E-06
4.249843E+03	1.212869E-04	3.347509E-06
4.259819E+03	1.269095E-04	3.487390E-06
4.269795E+03	1.327941E-04	3.633054E-06
4.279771E+03	1.389515E-04	3.784699E-06
4.289748E+03	1.454272E-04	3.943456E-06
4.299724E+03	1.521652E-04	4.107691E-06
4.309700E+03	1.592098E-04	4.278500E-06
4.319676E+03	1.666121E-04	4.457136E-06
4.329652E+03	1.743074E-04	4.641738E-06
4.339628E+03	1.823455E-04	4.833517E-06
4.349604E+03	1.907832E-04	5.033848E-06
4.359581E+03	1.995457E-04	5.240610E-06
4.369557E+03	2.086874E-04	5.455109E-06
4.379533E+03	2.182196E-04	5.677493E-06
4.389509E+03	2.282051E-04	5.909242E-06
4.399485E+03	2.385485E-04	6.147730E-06
4.409461E+03	2.493071E-04	6.394293E-06
4.419438E+03	2.605461E-04	6.650439E-06
4.429414E+03	2.721514E-04	6.913089E-06
4.439390E+03	2.841824E-04	7.183607E-06
4.449366E+03	2.966391E-04	7.461837E-06
4.459342E+03	3.095903E-04	7.749342E-06
4.469318E+03	3.228936E-04	8.042390E-06
4.479294E+03	3.366106E-04	8.342380E-06
4.489271E+03	3.507326E-04	8.648940E-06
4.499247E+03	3.653307E-04	8.963670E-06
4.509223E+03	3.802282E-04	9.282078E-06
4.519199E+03	3.954870E-04	9.605559E-06
4.529175E+03	4.110862E-04	9.933475E-06
4.539151E+03	4.270971E-04	1.026742E-05
4.549128E+03	4.433033E-04	1.060207E-05
4.559104E+03	4.597656E-04	1.093880E-05
4.569080E+03	4.764485E-04	1.127669E-05
4.579056E+03	4.933132E-04	1.161474E-05
4.589032E+03	5.103172E-04	1.195189E-05
4.599008E+03	5.275318E-04	1.228978E-05
4.608985E+03	5.446778E-04	1.262185E-05
4.618961E+03	5.618174E-04	1.294958E-05
4.628937E+03	5.788962E-04	1.327173E-05
4.638913E+03	5.958588E-04	1.358707E-05
4.648889E+03	6.126488E-04	1.389439E-05
4.658865E+03	6.292071E-04	1.419243E-05
4.668841E+03	6.454759E-04	1.447998E-05
4.678818E+03	6.613971E-04	1.475588E-05
4.688794E+03	6.769125E-04	1.501898E-05
4.698770E+03	6.921180E-04	1.527154E-05
4.708746E+03	7.066602E-04	1.550595E-05
4.718722E+03	7.206352E-04	1.572454E-05
4.728698E+03	7.338354E-04	1.592303E-05
4.738675E+03	7.465313E-04	1.610755E-05
4.748651E+03	7.585243E-04	1.627403E-05
4.758627E+03	7.697768E-04	1.642193E-05
4.768603E+03	7.802560E-04	1.655083E-05
4.778579E+03	7.899328E-04	1.666040E-05
4.788555E+03	7.987836E-04	1.675047E-05
4.798532E+03	8.067896E-04	1.682093E-05
4.808508E+03	8.139366E-04	1.687181E-05
4.818484E+03	8.202150E-04	1.690323E-05
4.828460E+03	8.254450E-04	1.691183E-05
4.838436E+03	8.299780E-04	1.690514E-05
4.848412E+03	8.336436E-04	1.687998E-05
4.858388E+03	8.364516E-04	1.683687E-05
4.868365E+03	8.382397E-04	1.677286E-05
4.878341E+03	8.393789E-04	1.669572E-05
4.888317E+03	8.397152E-04	1.660262E-05
4.898293E+03	8.390973E-04	1.649091E-05
4.908269E+03	8.379075E-04	1.636837E-05
4.918245E+03	8.360008E-04	1.623242E-05
4.928222E+03	8.332394E-04	1.608065E-05
4.938198E+03	8.300085E-04	1.592076E-05
4.948174E+03	8.260017E-04	1.574707E-05
4.958150E+03	8.216056E-04	1.556718E-05
4.968126E+03	8.165215E-04	1.537563E-05
4.978102E+03	8.111331E-04	1.517983E-05
4.988078E+03	8.051498E-04	1.497448E-05
4.998055E+03	7.987878E-04	1.476379E-05
5.008031E+03	7.922553E-04	1.455173E-05
5.018007E+03	7.852738E-04	1.433327E-05
5.027983E+03	7.780528E-04	1.411237E-05
5.037959E+03	7.707961E-04	1.389278E-05
5.047935E+03	7.632330E-04	1.366968E-05
5.057912E+03	7.555658E-04	1.344677E-05
5.067888E+03	7.478379E-04	1.322485E-05
5.077864E+03	7.400909E-04	1.300468E-05
5.087840E+03	7.325125E-04	1.278955E-05
5.097816E+03	7.248416E-04	1.257487E-05
5.107792E+03	7.172640E-04	1.236388E-05
5.117769E+03	7.098139E-04	1.215712E-05
5.127745E+03	7.025219E-04	1.195509E-05
5.137721E+03	6.954177E-04	1.175824E-05
5.147697E+03	6.885272E-04	1.156694E-05
5.157673E+03	6.818759E-04	1.138154E-05
5.167649E+03	6.753495E-04	1.120009E-05
5.177625E+03	6.692404E-04	1.102736E-05
5.187602E+03	6.634296E-04	1.086126E-05
5.197578E+03	6.579322E-04	1.070197E-05
5.207554E+03	6.526320E-04	1.054750E-05
5.217530E+03	6.478010E-04	1.040216E-05
5.227506E+03	6.433176E-04	1.026387E-05
5.237482E+03	6.390629E-04	1.013066E-05
5.247459E+03	6.352973E-04	1.000655E-05
5.257435E+03	6.318975E-04	9.889480E-06
5.267411E+03	6.287428E-04	9.777466E-06
5.277387E+03	6.260833E-04	9.674313E-06
5.287363E+03	6.236722E-04	9.576095E-06
5.297339E+03	6.216327E-04	9.484629E-06
5.307316E+03	6.200842E-04	9.401633E-06
5.317292E+03	6.187803E-04	9.323267E-06
5.327268E+03	6.178394E-04	9.251250E-06
5.337244E+03	6.172567E-04	9.185426E-06
5.347220E+03	6.171474E-04	9.127417E-06
5.357196E+03	6.172645E-04	9.073484E-06
5.367172E+03	6.177221E-04	9.025251E-06
5.377149E+03	6.185128E-04	8.982545E-06
5.387125E+03	6.196292E-04	8.945195E-06
5.397101E+03	6.210631E-04	8.913023E-06
5.407077E+03	6.228061E-04	8.885858E-06
5.417053E+03	6.248497E-04	8.863528E-06
5.427029E+03	6.271851E-04	8.845866E-06
5.437006E+03	6.296824E-04	8.831010E-06
5.446982E+03	6.325752E-04	8.822215E-06
5.456958E+03	6.357345E-04	8.817630E-06
5.466934E+03	6.390300E-04	8.815435E-06
5.476910E+03	6.426988E-04	8.818890E-06
5.486886E+03	6.466115E-04	8.826186E-06
5.496862E+03	6.506369E-04	8.835530E-06
5.506839E+03	6.550168E-04	8.850206E-06
5.516815E+03	6.594962E-04	8.866757E-06
5.526791E+03	6.643208E-04	8.888494E-06
5.536767E+03	6.692347E-04	8.911965E-06
5.546743E+03	6.743600E-04	8.938773E-06
5.556719E+03	6.796944E-04	8.968843E-06
5.566696E+03	6.853660E-04	9.003817E-06
5.576672E+03	6.911150E-04	9.040235E-06
5.586648E+03	6.970701E-04	9.079755E-06
5.596624E+03	7.032313E-04	9.122338E-06
5.606600E+03	7.095993E-04	9.167956E-06
5.616576E+03	7.161749E-04	9.216580E-06
5.626553E+03	7.229591E-04	9.268186E-06
5.636529E+03	7.299529E-04	9.322749E-06
5.646505E+03	7.370188E-04	9.378481E-06
5.656481E+03	7.444328E-04	9.438865E-06
5.666457E+03	7.520575E-04	9.502109E-06
5.676433E+03	7.597497E-04	9.566375E-06
5.686409E+03	7.677906E-04	9.635171E-06
5.696386E+03	7.760360E-04	9.706642E-06
5.706362E+03	7.843348E-04	9.778870E-06
5.716338E+03	7.929719E-04	9.855377E-06
5.726314E+03	8.016447E-04	9.932364E-06
5.736290E+03	8.104893E-04	1.001150E-05
5.746266E+03	8.196451E-04	1.009446E-05
5.756243E+03	8.287957E-04	1.017733E-05
5.766219E+03	8.380734E-04	1.026171E-05
5.776195E+03	8.474597E-04	1.034734E-05
5.786171E+03	8.569338E-04	1.043395E-05
5.796147E+03	8.664729E-04	1.052124E-05
5.806123E+03	8.760513E-04	1.060888E-05
5.816100E+03	8.856436E-04	1.069654E-05
5.826076E+03	8.952231E-04	1.078389E-05
5.836052E+03	9.047609E-04	1.087057E-05
5.846028E+03	9.140630E-04	1.095423E-05
5.856004E+03	9.234344E-04	1.103854E-05
5.865980E+03	9.326844E-04	1.112119E-05
5.875956E+03	9.416127E-04	1.119981E-05
5.885933E+03	9.505423E-04	1.127824E-05
5.895909E+03	9.591044E-04	1.135209E-05
5.905885E+03	9.676315E-04	1.142532E-05
5.915861E+03	9.757572E-04	1.149360E-05
5.925837E+03	9.836470E-04	1.155889E-05
5.935813E+03	9.914753E-04	1.162325E-05
5.945790E+03	9.988789E-04	1.168242E-05
5.955766E+03	1.006040E-03	1.173856E-05
5.965742E+03	1.012964E-03	1.179174E-05
5.975718E+03	1.019662E-03	1.184210E-05
5.985694E+03	1.026148E-03	1.188980E-05
5.995670E+03	1.032438E-03	1.193507E-05
6.005647E+03	1.038554E-03	1.197815E-05
6.015623E+03	1.044518E-03	1.201932E-05
6.025599E+03	1.050162E-03	1.205665E-05
6.035575E+03	1.055895E-03	1.209486E-05
6.045551E+03	1.061553E-03	1.213207E-05
6.055527E+03	1.066969E-03	1.216639E-05
6.065503E+03	1.072555E-03	1.220252E-05
6.075480E+03	1.077949E-03	1.223636E-05
6.085456E+03	1.083369E-03	1.227041E-05
6.095432E+03	1.089031E-03	1.230711E-05
6.105408E+03	1.094564E-03	1.234228E-05
6.115384E+03	1.100182E-03	1.237835E-05
6.125360E+03	1.105897E-03	1.241548E-05
6.135337E+03	1.111721E-03	1.245381E-05
6.145313E+03	1.117664E-03	1.249346E-05
6.155289E+03	1.123732E-03	1.253453E-05
6.165265E+03	1.129925E-03	1.257705E-05
6.175241E+03	1.136247E-03	1.262105E-05
6.185217E+03	1.142694E-03	1.266656E-05
6.195193E+03	1.149261E-03	1.271352E-05
6.205170E+03	1.155737E-03	1.275964E-05
6.215146E+03	1.162526E-03	1.280944E-05
6.225122E+03	1.169414E-03	1.286056E-05
6.235098E+03	1.176179E-03	1.291062E-05
6.245074E+03	1.183232E-03	1.296420E-05
6.255050E+03	1.190137E-03	1.301655E-05
6.265027E+03	1.197097E-03	1.306996E-05
6.275003E+03	1.204098E-03	1.312433E-05
6.284979E+03	1.211346E-03	1.318197E-05
6.294955E+03	1.218398E-03	1.323810E-05
6.304931E+03	1.225459E-03	1.329505E-05
6.314907E+03	1.232516E-03	1.335274E-05
6.324884E+03	1.239559E-03	1.341113E-05
6.334860E+03	1.246577E-03	1.347019E-05
6.344836E+03	1.253557E-03	1.352984E-05
6.354812E+03	1.260259E-03	1.358760E-05
6.364788E+03	1.267117E-03	1.364823E-05
6.374764E+03	1.273890E-03	1.370921E-05
6.384740E+03	1.280329E-03	1.376796E-05
6.394717E+03	1.286866E-03	1.382920E-05
6.404693E+03	1.293013E-03	1.388782E-05
6.414669E+03	1.299201E-03	1.394850E-05
6.424645E+03	1.304929E-03	1.400598E-05
6.434621E+03	1.310386E-03	1.406238E-05
6.444597E+03	1.315760E-03	1.411982E-05
6.454574E+03	1.320533E-03	1.417281E-05
6.464550E+03	1.324884E-03	1.422338E-05
6.474526E+03	1.328758E-03	1.427101E-05
6.484502E+03	1.332100E-03	1.431519E-05
6.494478E+03	1.334855E-03	1.435542E-05
6.504454E+03	1.336978E-03	1.439126E-05
6.514431E+03	1.338431E-03	1.442236E-05
6.524407E+03	1.338947E-03	1.444590E-05
6.534383E+03	1.338988E-03	1.446686E-05
6.544359E+03	1.338314E-03	1.448257E-05
6.554335E+03	1.336693E-03	1.449041E-05
6.564311E+03	1.334618E-03	1.449557E-05
6.574287E+03	1.331637E-03	1.449302E-05
6.584264E+03	1.328252E-03	1.448808E-05
6.594240E+03	1.324025E-03	1.447582E-05
6.604216E+03	1.319229E-03	1.445908E-05
6.614192E+03	1.314136E-03	1.444070E-05
6.624168E+03	1.308326E-03	1.441590E-05
6.634144E+03	1.302077E-03	1.438760E-05
6.644121E+03	1.295440E-03	1.435619E-05
6.654097E+03	1.288463E-03	1.432210E-05
6.664073E+03	1.281204E-03	1.428580E-05
6.674049E+03	1.273714E-03	1.424775E-05
6.684025E+03	1.266053E-03	1.420849E-05
6.694001E+03	1.258051E-03	1.416598E-05
6.703977E+03	1.250217E-03	1.412584E-05
6.713954E+03	1.242383E-03	1.408607E-05
6.723930E+03	1.234384E-03	1.404473E-05
6.733906E+03	1.226718E-03	1.400738E-05
6.743882E+03	1.219000E-03	1.396956E-05
6.753858E+03	1.211716E-03	1.393678E-05
6.763834E+03	1.204482E-03	1.390457E-05
6.773811E+03	1.197560E-03	1.387590E-05
6.783787E+03	1.191205E-03	1.385371E-05
6.793763E+03	1.185031E-03	1.383348E-05
6.803739E+03	1.179286E-03	1.381809E-05
6.813715E+03	1.173999E-03	1.380787E-05
6.823691E+03	1.169200E-03	1.380317E-05
6.833668E+03	1.164911E-03	1.380425E-05
6.843644E+03	1.161151E-03	1.381136E-05
6.853620E+03	1.157938E-03	1.382473E-05
6.863596E+03	1.155282E-03	1.384451E-05
6.873572E+03	1.152987E-03	1.386834E-05
6.883548E+03	1.151469E-03	1.390127E-05
6.893524E+03	1.150523E-03	1.394087E-05
6.903501E+03	1.149942E-03	1.398465E-05
6.913477E+03	1.150131E-03	1.403756E-05
6.923453E+03	1.150671E-03	1.409453E-05
6.933429E+03	1.151961E-03	1.416046E-05
6.943405E+03	1.153574E-03	1.423015E-05
6.953381E+03	1.155699E-03	1.430595E-05
6.963358E+03	1.158520E-03	1.439017E-05
6.973334E+03	1.161600E-03	1.447741E-05
6.983310E+03	1.165118E-03	1.456992E-05
6.993286E+03	1.169047E-03	1.466736E-05
7.003262E+03	1.173351E-03	1.476930E-05
7.013238E+03	1.177997E-03	1.487534E-05
7.023215E+03	1.182944E-03	1.498497E-05
7.033191E+03	1.188155E-03	1.509770E-05
7.043167E+03	1.193583E-03	1.521297E-05
7.053143E+03	1.198968E-03	1.532742E-05
7.063119E+03	1.204691E-03	1.544590E-05
7.073095E+03	1.210486E-03	1.556501E-05
7.083071E+03	1.216082E-03	1.568123E-05
7.093048E+03	1.221858E-03	1.579942E-05
7.103024E+03	1.227321E-03	1.591315E-05
7.113000E+03	1.232851E-03	1.602733E-05
7.122976E+03	1.237947E-03	1.613540E-05
7.132952E+03	1.242991E-03	1.624230E-05
7.142928E+03	1.247476E-03	1.634134E-05
7.152905E+03	1.251564E-03	1.643458E-05
7.162881E+03	1.255191E-03	1.652115E-05
7.172857E+03	1.258527E-03	1.660320E-05
7.182833E+03	1.261058E-03	1.667392E-05
7.192809E+03	1.262955E-03	1.673548E-05
7.202785E+03	1.264164E-03	1.678711E-05
7.212762E+03	1.264637E-03	1.682810E-05
7.222738E+03	1.264324E-03	1.685775E-05
7.232714E+03	1.262960E-03	1.687242E-05
7.242690E+03	1.260965E-03	1.687767E-05
7.252666E+03	1.258081E-03	1.687002E-05
7.262642E+03	1.254286E-03	1.684911E-05
7.272618E+03	1.249340E-03	1.681166E-05
7.282595E+03	1.243690E-03	1.676362E-05
7.292571E+03	1.236883E-03	1.669888E-05
7.302547E+03	1.229383E-03	1.662364E-05
7.312523E+03	1.220759E-03	1.653204E-05
7.322499E+03	1.211483E-03	1.643046E-05
7.332475E+03	1.201147E-03	1.631336E-05
7.342452E+03	1.190234E-03	1.618727E-05
7.352428E+03	1.178360E-03	1.604697E-05
7.362404E+03	1.165802E-03	1.589622E-05
7.372380E+03	1.152622E-03	1.573589E-05
7.382356E+03	1.138891E-03	1.556694E-05
7.392332E+03	1.124890E-03	1.539325E-05
7.402308E+03	1.110282E-03	1.521023E-05
7.412285E+03	1.095354E-03	1.502185E-05
7.422261E+03	1.080192E-03	1.482928E-05
7.432237E+03	1.064681E-03	1.463104E-05
7.442213E+03	1.049299E-03	1.443367E-05
7.452189E+03	1.033928E-03	1.423565E-05
7.462165E+03	1.018648E-03	1.403812E-05
7.472142E+03	1.003537E-03	1.384219E-05
7.482118E+03	9.884865E-04	1.364641E-05
7.492094E+03	9.739317E-04	1.345685E-05
7.502070E+03	9.597517E-04	1.327190E-05
7.512046E+03	9.458325E-04	1.309004E-05
7.522022E+03	9.325792E-04	1.291692E-05
7.531999E+03	9.196928E-04	1.274847E-05
7.541975E+03	9.075579E-04	1.259006E-05
7.551951E+03	8.958727E-04	1.243758E-05
7.561927E+03	8.848371E-04	1.229385E-05
7.571903E+03	8.746375E-04	1.216152E-05
7.581879E+03	8.649660E-04	1.203636E-05
7.591855E+03	8.559992E-04	1.192089E-05
7.601832E+03	8.477444E-04	1.181528E-05
7.611808E+03	8.403598E-04	1.172177E-05
7.621784E+03	8.335287E-04	1.163602E-05
7.631760E+03	8.274015E-04	1.156018E-05
7.641736E+03	8.219661E-04	1.149413E-05
7.651712E+03	8.172072E-04	1.143773E-05
7.661689E+03	8.131054E-04	1.139077E-05
7.671665E+03	8.096381E-04	1.135298E-05
7.681641E+03	8.066291E-04	1.132196E-05
7.691617E+03	8.043526E-04	1.130162E-05
7.701593E+03	8.026271E-04	1.128947E-05
7.711569E+03	8.014202E-04	1.128512E-05
7.721546E+03	8.006982E-04	1.128817E-05
7.731522E+03	8.002753E-04	1.129605E-05
7.741498E+03	8.004167E-04	1.131259E-05
