#wls	flux	fluxerr
1.596185E+03	1.071232E-06	1.575624E-07
1.636090E+03	1.063712E-06	1.557065E-07
1.675994E+03	1.054256E-06	1.535626E-07
1.715899E+03	1.043854E-06	1.512789E-07
1.755804E+03	1.031985E-06	1.487824E-07
1.795708E+03	1.018306E-06	1.460275E-07
1.835613E+03	1.002360E-06	1.429539E-07
1.875518E+03	9.840507E-07	1.395535E-07
1.915422E+03	9.624226E-07	1.356982E-07
1.955327E+03	9.368394E-07	1.313077E-07
1.995231E+03	9.090283E-07	1.266337E-07
2.035136E+03	8.796819E-07	1.217790E-07
2.075041E+03	8.529502E-07	1.173198E-07
2.114945E+03	8.341924E-07	1.139827E-07
2.154850E+03	8.273415E-07	1.122805E-07
2.194755E+03	8.337947E-07	1.123687E-07
2.234659E+03	8.519148E-07	1.139899E-07
2.274564E+03	8.771731E-07	1.165077E-07
2.314468E+03	9.065770E-07	1.195050E-07
2.354373E+03	9.372411E-07	1.225900E-07
2.394278E+03	9.682792E-07	1.256419E-07
2.434182E+03	9.985549E-07	1.285113E-07
2.474087E+03	1.029025E-06	1.313206E-07
2.513992E+03	1.059730E-06	1.340726E-07
2.553896E+03	1.091222E-06	1.368334E-07
2.593801E+03	1.124091E-06	1.396718E-07
2.633705E+03	1.159398E-06	1.427115E-07
2.673610E+03	1.197338E-06	1.459656E-07
2.713515E+03	1.238563E-06	1.495007E-07
2.753419E+03	1.283760E-06	1.533847E-07
2.793324E+03	1.333678E-06	1.576884E-07
2.833229E+03	1.389665E-06	1.625487E-07
2.873133E+03	1.452171E-06	1.679913E-07
2.913038E+03	1.522273E-06	1.741102E-07
2.952942E+03	1.601217E-06	1.810120E-07
2.992847E+03	1.691075E-06	1.888883E-07
3.002823E+03	1.715353E-06	1.910159E-07
3.012799E+03	1.740415E-06	1.932117E-07
3.022776E+03	1.766293E-06	1.954784E-07
3.032752E+03	1.793033E-06	1.978202E-07
3.042728E+03	1.820726E-06	2.002459E-07
3.052704E+03	1.849466E-06	2.027650E-07
3.062680E+03	1.879276E-06	2.053786E-07
3.072656E+03	1.910183E-06	2.080886E-07
3.082633E+03	1.942216E-06	2.108967E-07
3.092609E+03	1.975407E-06	2.138052E-07
3.102585E+03	2.009791E-06	2.168164E-07
3.112561E+03	2.045406E-06	2.199331E-07
3.122537E+03	2.082292E-06	2.231581E-07
3.132513E+03	2.120495E-06	2.264948E-07
3.142489E+03	2.160060E-06	2.299466E-07
3.152466E+03	2.201040E-06	2.335173E-07
3.162442E+03	2.243487E-06	2.372109E-07
3.172418E+03	2.287459E-06	2.410317E-07
3.182394E+03	2.333019E-06	2.449844E-07
3.192370E+03	2.381065E-06	2.491612E-07
3.202346E+03	2.430013E-06	2.533940E-07
3.212323E+03	2.480754E-06	2.577744E-07
3.222299E+03	2.533369E-06	2.623083E-07
3.232275E+03	2.587938E-06	2.670019E-07
3.242251E+03	2.645467E-06	2.719563E-07
3.252227E+03	2.704230E-06	2.769911E-07
3.262203E+03	2.765224E-06	2.822066E-07
3.272179E+03	2.828553E-06	2.876105E-07
3.282156E+03	2.895324E-06	2.933124E-07
3.292132E+03	2.963677E-06	2.991201E-07
3.302108E+03	3.034710E-06	3.051422E-07
3.312084E+03	3.108553E-06	3.113885E-07
3.322060E+03	3.186434E-06	3.179780E-07
3.332036E+03	3.266337E-06	3.247054E-07
3.342013E+03	3.349481E-06	3.316891E-07
3.351989E+03	3.437200E-06	3.390563E-07
3.361965E+03	3.527348E-06	3.465909E-07
3.371941E+03	3.621248E-06	3.544192E-07
3.381917E+03	3.720352E-06	3.626781E-07
3.391893E+03	3.822370E-06	3.711389E-07
3.401870E+03	3.930071E-06	3.800658E-07
3.411846E+03	4.041062E-06	3.892211E-07
3.421822E+03	4.156872E-06	3.987475E-07
3.431798E+03	4.279191E-06	4.088004E-07
3.441774E+03	4.405446E-06	4.191269E-07
3.451750E+03	4.538846E-06	4.300260E-07
3.461726E+03	4.676685E-06	4.412337E-07
3.471703E+03	4.822364E-06	4.530637E-07
3.481679E+03	4.973051E-06	4.652415E-07
3.491655E+03	5.130664E-06	4.779392E-07
3.501631E+03	5.297327E-06	4.913450E-07
3.511607E+03	5.469980E-06	5.051653E-07
3.521583E+03	5.652614E-06	5.197592E-07
3.531560E+03	5.843914E-06	5.349938E-07
3.541536E+03	6.042374E-06	5.507209E-07
3.551512E+03	6.252405E-06	5.673316E-07
3.561488E+03	6.470486E-06	5.844932E-07
3.571464E+03	6.701345E-06	6.026205E-07
3.581440E+03	6.941245E-06	6.213628E-07
3.591417E+03	7.195248E-06	6.411597E-07
3.601393E+03	7.459375E-06	6.616401E-07
3.611369E+03	7.739066E-06	6.832714E-07
3.621345E+03	8.032665E-06	7.058883E-07
3.631321E+03	8.338206E-06	7.293011E-07
3.641297E+03	8.661751E-06	7.540219E-07
3.651273E+03	8.998591E-06	7.796197E-07
3.661250E+03	9.355277E-06	8.066423E-07
3.671226E+03	9.729883E-06	8.348989E-07
3.681202E+03	1.012009E-05	8.641684E-07
3.691178E+03	1.053325E-05	8.950555E-07
3.701154E+03	1.096726E-05	9.273524E-07
3.711130E+03	1.141954E-05	9.608157E-07
3.721107E+03	1.189838E-05	9.961150E-07
3.731083E+03	1.240145E-05	1.033023E-06
3.741059E+03	1.292589E-05	1.071270E-06
3.751035E+03	1.348106E-05	1.111601E-06
3.761011E+03	1.406438E-05	1.153763E-06
3.770987E+03	1.467264E-05	1.197460E-06
3.780963E+03	1.531642E-05	1.243517E-06
3.790940E+03	1.599284E-05	1.291655E-06
3.800916E+03	1.670356E-05	1.341965E-06
3.810892E+03	1.744482E-05	1.394102E-06
3.820868E+03	1.822915E-05	1.449022E-06
3.830844E+03	1.905319E-05	1.506403E-06
3.840820E+03	1.991893E-05	1.566349E-06
3.850797E+03	2.082196E-05	1.628461E-06
3.860773E+03	2.177713E-05	1.693846E-06
3.870749E+03	2.278051E-05	1.762130E-06
3.880725E+03	2.383448E-05	1.833434E-06
3.890701E+03	2.493381E-05	1.907292E-06
3.900677E+03	2.609617E-05	1.984988E-06
3.910654E+03	2.731690E-05	2.066086E-06
3.920630E+03	2.859882E-05	2.150723E-06
3.930606E+03	2.993570E-05	2.238352E-06
3.940582E+03	3.134860E-05	2.330467E-06
3.950558E+03	3.283192E-05	2.426554E-06
3.960534E+03	3.438903E-05	2.526768E-06
3.970510E+03	3.602341E-05	2.631267E-06
3.980487E+03	3.772721E-05	2.739379E-06
3.990463E+03	3.952665E-05	2.852906E-06
4.000439E+03	4.141469E-05	2.971216E-06
4.010415E+03	4.339539E-05	3.094484E-06
4.020391E+03	4.547299E-05	3.222889E-06
4.030367E+03	4.763754E-05	3.355602E-06
4.040344E+03	4.992166E-05	3.494795E-06
4.050320E+03	5.231629E-05	3.639679E-06
4.060296E+03	5.482641E-05	3.790454E-06
4.070272E+03	5.745696E-05	3.947311E-06
4.080248E+03	6.021320E-05	4.110450E-06
4.090224E+03	6.308163E-05	4.278792E-06
4.100201E+03	6.610465E-05	4.455049E-06
4.110177E+03	6.926988E-05	4.638191E-06
4.120153E+03	7.258327E-05	4.828429E-06
4.130129E+03	7.605069E-05	5.025960E-06
4.140105E+03	7.967836E-05	5.230992E-06
4.150081E+03	8.344790E-05	5.442120E-06
4.160057E+03	8.741393E-05	5.662700E-06
4.170034E+03	9.155938E-05	5.891382E-06
4.180010E+03	9.589092E-05	6.128360E-06
4.189986E+03	1.004153E-04	6.373827E-06
4.199962E+03	1.051086E-04	6.626025E-06
4.209938E+03	1.100378E-04	6.888941E-06
4.219914E+03	1.151806E-04	7.160875E-06
4.229891E+03	1.205437E-04	7.441989E-06
4.239867E+03	1.261343E-04	7.732430E-06
4.249843E+03	1.319592E-04	8.032335E-06
4.259819E+03	1.379853E-04	8.339410E-06
4.269795E+03	1.442975E-04	8.658504E-06
4.279771E+03	1.508643E-04	8.987378E-06
4.289748E+03	1.576921E-04	9.326097E-06
4.299724E+03	1.647871E-04	9.674706E-06
4.309700E+03	1.721058E-04	1.003034E-05
4.319676E+03	1.797505E-04	1.039866E-05
4.329652E+03	1.876790E-04	1.077684E-05
4.339628E+03	1.958962E-04	1.116482E-05
4.349604E+03	2.044062E-04	1.156248E-05
4.359581E+03	2.131518E-04	1.196628E-05
4.369557E+03	2.222551E-04	1.238274E-05
4.379533E+03	2.316595E-04	1.280831E-05
4.389509E+03	2.413660E-04	1.324271E-05
4.399485E+03	2.513745E-04	1.368558E-05
4.409461E+03	2.616094E-04	1.413250E-05
4.419438E+03	2.722132E-04	1.459088E-05
4.429414E+03	2.831105E-04	1.505628E-05
4.439390E+03	2.942962E-04	1.552812E-05
4.449366E+03	3.056773E-04	1.600124E-05
4.459342E+03	3.174144E-04	1.648379E-05
4.469318E+03	3.294148E-04	1.697061E-05
4.479294E+03	3.415713E-04	1.745598E-05
4.489271E+03	3.540588E-04	1.794863E-05
4.499247E+03	3.667701E-04	1.844286E-05
4.509223E+03	3.796889E-04	1.893765E-05
4.519199E+03	3.926879E-04	1.942654E-05
4.529175E+03	4.059620E-04	1.991909E-05
4.539151E+03	4.193841E-04	2.040888E-05
4.549128E+03	4.328115E-04	2.088895E-05
4.559104E+03	4.464555E-04	2.136949E-05
4.569080E+03	4.601737E-04	2.184362E-05
4.579056E+03	4.738084E-04	2.230394E-05
4.589032E+03	4.875883E-04	2.276132E-05
4.599008E+03	5.013566E-04	2.320848E-05
4.608985E+03	5.149415E-04	2.363766E-05
4.618961E+03	5.285899E-04	2.406045E-05
4.628937E+03	5.419841E-04	2.446256E-05
4.638913E+03	5.553837E-04	2.485605E-05
4.648889E+03	5.686112E-04	2.523318E-05
4.658865E+03	5.814753E-04	2.558585E-05
4.668841E+03	5.942560E-04	2.592685E-05
4.678818E+03	6.066023E-04	2.624117E-05
4.688794E+03	6.188085E-04	2.654198E-05
4.698770E+03	6.305127E-04	2.681408E-05
4.708746E+03	6.420237E-04	2.707107E-05
4.718722E+03	6.529701E-04	2.729767E-05
4.728698E+03	6.636739E-04	2.750783E-05
4.738675E+03	6.737566E-04	2.768630E-05
4.748651E+03	6.835539E-04	2.784742E-05
4.758627E+03	6.926805E-04	2.797594E-05
4.768603E+03	7.014862E-04	2.808655E-05
4.778579E+03	7.095808E-04	2.816411E-05
4.788555E+03	7.171358E-04	2.821610E-05
4.798532E+03	7.243309E-04	2.825006E-05
4.808508E+03	7.307731E-04	2.825116E-05
4.818484E+03	7.368414E-04	2.823468E-05
4.828460E+03	7.421408E-04	2.818596E-05
4.838436E+03	7.468641E-04	2.811303E-05
4.848412E+03	7.512096E-04	2.802383E-05
4.858388E+03	7.547839E-04	2.790418E-05
4.868365E+03	7.577884E-04	2.776219E-05
4.878341E+03	7.602320E-04	2.759873E-05
4.888317E+03	7.623232E-04	2.742182E-05
4.898293E+03	7.636740E-04	2.721797E-05
4.908269E+03	7.644972E-04	2.699538E-05
4.918245E+03	7.648081E-04	2.675508E-05
4.928222E+03	7.648242E-04	2.650509E-05
4.938198E+03	7.641636E-04	2.623256E-05
4.948174E+03	7.630462E-04	2.594561E-05
4.958150E+03	7.614934E-04	2.564539E-05
4.968126E+03	7.595282E-04	2.533306E-05
4.978102E+03	7.571723E-04	2.500972E-05
4.988078E+03	7.544514E-04	2.467660E-05
4.998055E+03	7.515829E-04	2.434106E-05
5.008031E+03	7.482028E-04	2.399157E-05
5.018007E+03	7.445315E-04	2.363562E-05
5.027983E+03	7.405947E-04	2.327430E-05
5.037959E+03	7.364177E-04	2.290866E-05
5.047935E+03	7.320252E-04	2.253969E-05
5.057912E+03	7.274423E-04	2.216838E-05
5.067888E+03	7.226947E-04	2.179570E-05
5.077864E+03	7.176222E-04	2.141704E-05
5.087840E+03	7.126174E-04	2.104434E-05
5.097816E+03	7.075184E-04	2.067282E-05
5.107792E+03	7.023470E-04	2.030325E-05
5.117769E+03	6.971259E-04	1.993637E-05
5.127745E+03	6.918752E-04	1.957284E-05
5.137721E+03	6.866147E-04	1.921329E-05
5.147697E+03	6.811904E-04	1.885352E-05
5.157673E+03	6.759687E-04	1.850377E-05
5.167649E+03	6.707919E-04	1.815964E-05
5.177625E+03	6.656763E-04	1.782158E-05
5.187602E+03	6.604701E-04	1.748561E-05
5.197578E+03	6.555238E-04	1.716104E-05
5.207554E+03	6.506828E-04	1.684372E-05
5.217530E+03	6.457964E-04	1.652979E-05
5.227506E+03	6.412037E-04	1.622796E-05
5.237482E+03	6.365916E-04	1.593023E-05
5.247459E+03	6.322920E-04	1.564492E-05
5.257435E+03	6.281529E-04	1.536817E-05
5.267411E+03	6.240270E-04	1.509638E-05
5.277387E+03	6.202364E-04	1.483737E-05
5.287363E+03	6.164771E-04	1.458379E-05
5.297339E+03	6.129124E-04	1.433956E-05
5.307316E+03	6.097009E-04	1.410833E-05
5.317292E+03	6.065434E-04	1.388312E-05
5.327268E+03	6.037488E-04	1.367104E-05
5.337244E+03	6.010210E-04	1.346533E-05
5.347220E+03	5.985159E-04	1.326955E-05
5.357196E+03	5.963862E-04	1.308707E-05
5.367172E+03	5.943395E-04	1.291145E-05
5.377149E+03	5.925287E-04	1.274609E-05
5.387125E+03	5.909577E-04	1.259112E-05
5.397101E+03	5.897761E-04	1.244973E-05
5.407077E+03	5.886959E-04	1.231586E-05
5.417053E+03	5.878669E-04	1.219276E-05
5.427029E+03	5.872926E-04	1.208056E-05
5.437006E+03	5.869765E-04	1.197941E-05
5.446982E+03	5.869219E-04	1.188946E-05
5.456958E+03	5.871318E-04	1.181087E-05
5.466934E+03	5.876086E-04	1.174377E-05
5.476910E+03	5.883538E-04	1.168832E-05
5.486886E+03	5.893673E-04	1.164463E-05
5.496862E+03	5.906479E-04	1.161279E-05
5.506839E+03	5.921934E-04	1.159289E-05
5.516815E+03	5.940006E-04	1.158499E-05
5.526791E+03	5.960654E-04	1.158893E-05
5.536767E+03	5.982374E-04	1.160154E-05
5.546743E+03	6.008031E-04	1.162810E-05
5.556719E+03	6.036123E-04	1.166545E-05
5.566696E+03	6.066605E-04	1.171323E-05
5.576672E+03	6.097949E-04	1.176821E-05
5.586648E+03	6.133063E-04	1.183575E-05
5.596624E+03	6.170427E-04	1.191265E-05
5.606600E+03	6.208493E-04	1.199564E-05
5.616576E+03	6.250214E-04	1.209015E-05
5.626553E+03	6.292529E-04	1.219001E-05
5.636529E+03	6.338427E-04	1.230072E-05
5.646505E+03	6.384808E-04	1.241600E-05
5.656481E+03	6.434700E-04	1.254147E-05
5.666457E+03	6.484963E-04	1.267073E-05
5.676433E+03	6.538665E-04	1.280952E-05
5.686409E+03	6.592622E-04	1.295134E-05
5.696386E+03	6.648347E-04	1.309886E-05
5.706362E+03	6.707402E-04	1.325491E-05
5.716338E+03	6.766527E-04	1.341279E-05
5.726314E+03	6.827268E-04	1.357529E-05
5.736290E+03	6.889573E-04	1.374202E-05
5.746266E+03	6.955055E-04	1.391596E-05
5.756243E+03	7.020341E-04	1.409010E-05
5.766219E+03	7.087029E-04	1.426737E-05
5.776195E+03	7.155060E-04	1.444738E-05
5.786171E+03	7.224379E-04	1.462976E-05
5.796147E+03	7.294929E-04	1.481414E-05
5.806123E+03	7.366651E-04	1.500013E-05
5.816100E+03	7.439488E-04	1.518736E-05
5.826076E+03	7.513383E-04	1.537546E-05
5.836052E+03	7.588278E-04	1.556404E-05
5.846028E+03	7.664116E-04	1.575275E-05
5.856004E+03	7.740844E-04	1.594120E-05
5.865980E+03	7.816548E-04	1.612522E-05
5.875956E+03	7.894872E-04	1.631205E-05
5.885933E+03	7.973927E-04	1.649755E-05
5.895909E+03	8.053662E-04	1.668140E-05
5.905885E+03	8.132106E-04	1.685924E-05
5.915861E+03	8.213047E-04	1.703870E-05
5.925837E+03	8.292576E-04	1.721144E-05
5.935813E+03	8.374557E-04	1.738526E-05
5.945790E+03	8.457011E-04	1.755581E-05
5.955766E+03	8.537890E-04	1.771864E-05
5.965742E+03	8.621176E-04	1.788180E-05
5.975718E+03	8.702792E-04	1.803662E-05
5.985694E+03	8.784729E-04	1.818704E-05
5.995670E+03	8.869054E-04	1.833715E-05
6.005647E+03	8.951591E-04	1.847812E-05
6.015623E+03	9.034381E-04	1.861401E-05
6.025599E+03	9.119569E-04	1.874906E-05
6.035575E+03	9.202863E-04	1.887428E-05
6.045551E+03	9.286375E-04	1.899389E-05
6.055527E+03	9.370100E-04	1.910772E-05
6.065503E+03	9.454010E-04	1.921561E-05
6.075480E+03	9.538118E-04	1.931747E-05
6.085456E+03	9.624651E-04	1.941767E-05
6.095432E+03	9.709102E-04	1.950705E-05
6.105408E+03	9.793698E-04	1.959001E-05
6.115384E+03	9.878430E-04	1.966650E-05
6.125360E+03	9.960938E-04	1.973179E-05
6.135337E+03	1.004586E-03	1.979505E-05
6.145313E+03	1.013083E-03	1.985161E-05
6.155289E+03	1.021585E-03	1.990143E-05
6.165265E+03	1.030087E-03	1.994448E-05
6.175241E+03	1.038586E-03	1.998075E-05
6.185217E+03	1.046834E-03	2.000557E-05
6.195193E+03	1.055313E-03	2.002829E-05
6.205170E+03	1.063776E-03	2.004428E-05
6.215146E+03	1.071965E-03	2.004891E-05
6.225122E+03	1.080375E-03	2.005161E-05
6.235098E+03	1.088496E-03	2.004314E-05
6.245074E+03	1.096824E-03	2.003294E-05
6.255050E+03	1.104846E-03	2.001187E-05
6.265027E+03	1.113065E-03	1.998942E-05
6.275003E+03	1.120953E-03	1.995647E-05
6.284979E+03	1.129023E-03	1.992260E-05
6.294955E+03	1.136740E-03	1.987880E-05
6.304931E+03	1.144355E-03	1.983005E-05
6.314907E+03	1.151855E-03	1.977670E-05
6.324884E+03	1.159500E-03	1.972379E-05
6.334860E+03	1.166738E-03	1.966258E-05
6.344836E+03	1.173827E-03	1.959819E-05
6.354812E+03	1.180752E-03	1.953118E-05
6.364788E+03	1.187501E-03	1.946219E-05
6.374764E+03	1.194061E-03	1.939187E-05
6.384740E+03	1.200419E-03	1.932097E-05
6.394717E+03	1.206561E-03	1.925028E-05
6.404693E+03	1.212476E-03	1.918065E-05
6.414669E+03	1.218149E-03	1.911295E-05
6.424645E+03	1.223572E-03	1.904817E-05
6.434621E+03	1.228732E-03	1.898729E-05
6.444597E+03	1.233618E-03	1.893134E-05
6.454574E+03	1.237936E-03	1.887704E-05
6.464550E+03	1.242251E-03	1.883426E-05
6.474526E+03	1.246269E-03	1.879973E-05
6.484502E+03	1.249988E-03	1.877460E-05
6.494478E+03	1.253111E-03	1.875566E-05
6.504454E+03	1.256218E-03	1.875271E-05
6.514431E+03	1.258726E-03	1.875816E-05
6.524407E+03	1.261213E-03	1.878164E-05
6.534383E+03	1.263093E-03	1.881538E-05
6.544359E+03	1.264951E-03	1.886896E-05
6.554335E+03	1.266201E-03	1.893432E-05
6.564311E+03	1.267432E-03	1.902009E-05
6.574287E+03	1.268064E-03	1.911692E-05
6.584264E+03	1.268396E-03	1.922847E-05
6.594240E+03	1.268437E-03	1.935402E-05
6.604216E+03	1.268493E-03	1.949731E-05
6.614192E+03	1.267985E-03	1.964848E-05
6.624168E+03	1.267224E-03	1.981120E-05
6.634144E+03	1.266221E-03	1.998458E-05
6.644121E+03	1.264994E-03	2.016779E-05
6.654097E+03	1.263559E-03	2.035997E-05
6.664073E+03	1.261932E-03	2.056026E-05
6.674049E+03	1.260132E-03	2.076790E-05
6.684025E+03	1.258177E-03	2.098209E-05
6.694001E+03	1.256084E-03	2.120211E-05
6.703977E+03	1.253872E-03	2.142723E-05
6.713954E+03	1.251559E-03	2.165681E-05
6.723930E+03	1.249162E-03	2.189023E-05
6.733906E+03	1.246700E-03	2.212694E-05
6.743882E+03	1.243902E-03	2.236122E-05
6.753858E+03	1.241359E-03	2.260288E-05
6.763834E+03	1.238800E-03	2.284634E-05
6.773811E+03	1.236240E-03	2.309122E-05
6.783787E+03	1.233407E-03	2.333171E-05
6.793763E+03	1.230887E-03	2.357826E-05
6.803739E+03	1.228120E-03	2.381964E-05
6.813715E+03	1.225686E-03	2.406656E-05
6.823691E+03	1.223029E-03	2.430763E-05
6.833668E+03	1.220723E-03	2.455382E-05
6.843644E+03	1.218211E-03	2.479358E-05
6.853620E+03	1.216063E-03	2.503807E-05
6.863596E+03	1.213721E-03	2.527554E-05
6.873572E+03	1.211471E-03	2.551149E-05
6.883548E+03	1.209595E-03	2.575167E-05
6.893524E+03	1.207534E-03	2.598393E-05
6.903501E+03	1.205568E-03	2.621397E-05
6.913477E+03	1.203697E-03	2.644154E-05
6.923453E+03	1.201918E-03	2.666637E-05
6.933429E+03	1.200227E-03	2.688818E-05
6.943405E+03	1.198898E-03	2.711298E-05
6.953381E+03	1.197368E-03	2.732790E-05
6.963358E+03	1.195907E-03	2.753887E-05
6.973334E+03	1.194510E-03	2.774555E-05
6.983310E+03	1.193166E-03	2.794757E-05
6.993286E+03	1.191589E-03	2.813803E-05
7.003262E+03	1.190321E-03	2.832953E-05
7.013238E+03	1.189074E-03	2.851519E-05
7.023215E+03	1.187836E-03	2.869454E-05
7.033191E+03	1.186594E-03	2.886716E-05
7.043167E+03	1.185334E-03	2.903259E-05
7.053143E+03	1.183767E-03	2.918356E-05
7.063119E+03	1.182430E-03	2.933315E-05
7.073095E+03	1.181032E-03	2.947409E-05
7.083071E+03	1.179285E-03	2.959905E-05
7.093048E+03	1.177723E-03	2.972125E-05
7.103024E+03	1.175782E-03	2.982642E-05
7.113000E+03	1.173996E-03	2.992793E-05
7.122976E+03	1.171804E-03	3.001143E-05
7.132952E+03	1.169738E-03	3.009043E-05
7.142928E+03	1.167240E-03	3.015049E-05
7.152905E+03	1.164842E-03	3.020527E-05
7.162881E+03	1.161989E-03	3.024030E-05
7.172857E+03	1.159210E-03	3.026932E-05
7.182833E+03	1.155956E-03	3.027792E-05
7.192809E+03	1.152490E-03	3.027290E-05
7.202785E+03	1.148802E-03	3.025401E-05
7.212762E+03	1.145154E-03	3.022814E-05
7.222738E+03	1.141004E-03	3.018101E-05
7.232714E+03	1.136619E-03	3.011964E-05
7.242690E+03	1.131995E-03	3.004399E-05
7.252666E+03	1.127132E-03	2.995406E-05
7.262642E+03	1.122029E-03	2.984992E-05
7.272618E+03	1.116690E-03	2.973177E-05
7.282595E+03	1.111119E-03	2.959973E-05
7.292571E+03	1.105321E-03	2.945409E-05
7.302547E+03	1.099302E-03	2.929513E-05
7.312523E+03	1.093071E-03	2.912322E-05
7.322499E+03	1.086638E-03	2.893873E-05
7.332475E+03	1.080013E-03	2.874215E-05
7.342452E+03	1.073209E-03	2.853396E-05
7.352428E+03	1.066239E-03	2.831468E-05
7.362404E+03	1.058868E-03	2.807830E-05
7.372380E+03	1.051613E-03	2.783870E-05
7.382356E+03	1.044237E-03	2.758984E-05
7.392332E+03	1.036759E-03	2.733238E-05
7.402308E+03	1.028952E-03	2.706064E-05
7.412285E+03	1.021323E-03	2.678814E-05
7.422261E+03	1.013404E-03	2.650286E-05
7.432237E+03	1.005696E-03	2.621814E-05
7.442213E+03	9.979740E-04	2.592830E-05
7.452189E+03	9.900236E-04	2.562805E-05
7.462165E+03	9.823323E-04	2.533024E-05
7.472142E+03	9.744506E-04	2.502351E-05
7.482118E+03	9.668594E-04	2.472046E-05
7.492094E+03	9.591144E-04	2.440995E-05
7.502070E+03	9.514625E-04	2.409852E-05
7.512046E+03	9.441428E-04	2.379245E-05
7.522022E+03	9.367190E-04	2.348093E-05
7.531999E+03	9.294299E-04	2.317022E-05
7.541975E+03	9.225072E-04	2.286629E-05
7.551951E+03	9.155211E-04	2.255866E-05
7.561927E+03	9.087025E-04	2.225331E-05
7.571903E+03	9.020599E-04	2.195065E-05
7.581879E+03	8.958150E-04	2.165625E-05
7.591855E+03	8.895448E-04	2.136007E-05
7.601832E+03	8.834699E-04	2.106769E-05
7.611808E+03	8.775944E-04	2.077941E-05
7.621784E+03	8.719213E-04	2.049553E-05
7.631760E+03	8.664522E-04	2.021630E-05
7.641736E+03	8.611881E-04	1.994199E-05
7.651712E+03	8.561287E-04	1.967282E-05
7.661689E+03	8.512728E-04	1.940903E-05
7.671665E+03	8.466183E-04	1.915081E-05
7.681641E+03	8.421621E-04	1.889837E-05
7.691617E+03	8.379004E-04	1.865193E-05
7.701593E+03	8.338287E-04	1.841168E-05
7.711569E+03	8.297418E-04	1.817345E-05
7.721546E+03	8.260346E-04	1.794626E-05
7.731522E+03	8.224998E-04	1.772592E-05
7.741498E+03	8.191307E-04	1.751266E-05
