#wls	flux	fluxerr
1.596185E+03	9.028500E-07	1.846798E-07
1.636090E+03	8.975238E-07	1.825990E-07
1.675994E+03	8.906099E-07	1.801872E-07
1.715899E+03	8.829744E-07	1.776239E-07
1.755804E+03	8.741554E-07	1.748198E-07
1.795708E+03	8.638576E-07	1.717204E-07
1.835613E+03	8.516860E-07	1.682537E-07
1.875518E+03	8.371814E-07	1.643371E-07
1.915422E+03	8.202756E-07	1.599669E-07
1.955327E+03	8.000001E-07	1.549658E-07
1.995231E+03	7.775069E-07	1.495701E-07
2.035136E+03	7.540378E-07	1.440274E-07
2.075041E+03	7.327975E-07	1.389510E-07
2.114945E+03	7.181089E-07	1.351468E-07
2.154850E+03	7.140393E-07	1.333475E-07
2.194755E+03	7.212358E-07	1.336270E-07
2.234659E+03	7.386964E-07	1.357505E-07
2.274564E+03	7.628677E-07	1.390224E-07
2.314468E+03	7.905847E-07	1.428377E-07
2.354373E+03	8.196753E-07	1.467882E-07
2.394278E+03	8.494092E-07	1.507350E-07
2.434182E+03	8.787698E-07	1.544933E-07
2.474087E+03	9.086529E-07	1.582183E-07
2.513992E+03	9.390985E-07	1.619114E-07
2.553896E+03	9.706169E-07	1.656540E-07
2.593801E+03	1.003766E-06	1.695317E-07
2.633705E+03	1.039128E-06	1.736300E-07
2.673610E+03	1.077749E-06	1.781067E-07
2.713515E+03	1.119403E-06	1.829032E-07
2.753419E+03	1.165674E-06	1.882548E-07
2.793324E+03	1.216882E-06	1.941821E-07
2.833229E+03	1.273877E-06	2.007862E-07
2.873133E+03	1.337627E-06	2.081787E-07
2.913038E+03	1.409802E-06	2.165706E-07
2.952942E+03	1.490617E-06	2.259376E-07
2.992847E+03	1.582747E-06	2.366196E-07
3.002823E+03	1.607666E-06	2.395042E-07
3.012799E+03	1.633401E-06	2.424811E-07
3.022776E+03	1.659986E-06	2.455535E-07
3.032752E+03	1.687468E-06	2.487272E-07
3.042728E+03	1.715936E-06	2.520137E-07
3.052704E+03	1.745484E-06	2.554249E-07
3.062680E+03	1.776137E-06	2.589628E-07
3.072656E+03	1.807927E-06	2.626298E-07
3.082633E+03	1.840885E-06	2.664287E-07
3.092609E+03	1.875047E-06	2.703626E-07
3.102585E+03	1.910452E-06	2.744347E-07
3.112561E+03	1.947139E-06	2.786489E-07
3.122537E+03	1.985155E-06	2.830093E-07
3.132513E+03	2.024546E-06	2.875201E-07
3.142489E+03	2.065365E-06	2.921864E-07
3.152466E+03	2.107663E-06	2.970131E-07
3.162442E+03	2.151501E-06	3.020058E-07
3.172418E+03	2.196939E-06	3.071703E-07
3.182394E+03	2.244043E-06	3.125130E-07
3.192370E+03	2.292882E-06	3.180403E-07
3.202346E+03	2.344413E-06	3.238814E-07
3.212323E+03	2.396966E-06	3.298019E-07
3.222299E+03	2.451488E-06	3.359296E-07
3.232275E+03	2.508068E-06	3.422729E-07
3.242251E+03	2.566796E-06	3.488406E-07
3.252227E+03	2.627772E-06	3.556421E-07
3.262203E+03	2.691097E-06	3.626872E-07
3.272179E+03	2.757908E-06	3.701241E-07
3.282156E+03	2.826289E-06	3.776907E-07
3.292132E+03	2.897367E-06	3.855337E-07
3.302108E+03	2.971269E-06	3.936652E-07
3.312084E+03	3.048132E-06	4.020982E-07
3.322060E+03	3.128098E-06	4.108458E-07
3.332036E+03	3.212505E-06	4.200775E-07
3.342013E+03	3.299171E-06	4.295011E-07
3.351989E+03	3.389421E-06	4.392843E-07
3.361965E+03	3.483435E-06	4.494434E-07
3.371941E+03	3.582715E-06	4.601646E-07
3.381917E+03	3.684866E-06	4.711322E-07
3.391893E+03	3.791381E-06	4.825307E-07
3.401870E+03	3.902480E-06	4.943801E-07
3.411846E+03	4.019864E-06	5.068864E-07
3.421822E+03	4.140893E-06	5.197068E-07
3.431798E+03	4.267255E-06	5.330452E-07
3.441774E+03	4.399225E-06	5.469261E-07
3.451750E+03	4.538743E-06	5.615792E-07
3.461726E+03	4.682881E-06	5.766300E-07
3.471703E+03	4.833563E-06	5.923055E-07
3.481679E+03	4.992932E-06	6.088552E-07
3.491655E+03	5.157810E-06	6.258774E-07
3.501631E+03	5.330337E-06	6.436201E-07
3.511607E+03	5.512893E-06	6.623551E-07
3.521583E+03	5.702025E-06	6.816510E-07
3.531560E+03	5.900095E-06	7.017766E-07
3.541536E+03	6.109781E-06	7.230319E-07
3.551512E+03	6.327295E-06	7.449498E-07
3.561488E+03	6.555283E-06	7.678253E-07
3.571464E+03	6.796729E-06	7.919867E-07
3.581440E+03	7.047481E-06	8.169278E-07
3.591417E+03	7.310504E-06	8.429729E-07
3.601393E+03	7.589130E-06	8.704814E-07
3.611369E+03	7.878781E-06	8.989021E-07
3.621345E+03	8.182762E-06	9.285893E-07
3.631321E+03	8.504837E-06	9.599411E-07
3.641297E+03	8.839920E-06	9.923529E-07
3.651273E+03	9.194960E-06	1.026576E-06
3.661250E+03	9.564508E-06	1.061969E-06
3.671226E+03	9.952605E-06	1.098950E-06
3.681202E+03	1.036384E-05	1.137989E-06
3.691178E+03	1.079214E-05	1.178380E-06
3.701154E+03	1.124600E-05	1.221011E-06
3.711130E+03	1.171885E-05	1.265130E-06
3.721107E+03	1.221567E-05	1.311231E-06
3.731083E+03	1.274212E-05	1.359876E-06
3.741059E+03	1.329087E-05	1.410232E-06
3.751035E+03	1.387234E-05	1.463357E-06
3.761011E+03	1.447858E-05	1.518356E-06
3.770987E+03	1.512093E-05	1.576365E-06
3.780963E+03	1.579075E-05	1.636420E-06
3.790940E+03	1.649470E-05	1.699158E-06
3.800916E+03	1.724042E-05	1.765298E-06
3.810892E+03	1.801817E-05	1.833769E-06
3.820868E+03	1.884196E-05	1.905930E-06
3.830844E+03	1.970116E-05	1.980625E-06
3.840820E+03	2.061108E-05	2.059319E-06
3.850797E+03	2.156011E-05	2.140767E-06
3.860773E+03	2.256497E-05	2.226542E-06
3.870749E+03	2.361302E-05	2.315304E-06
3.880725E+03	2.472246E-05	2.408746E-06
3.890701E+03	2.587951E-05	2.505418E-06
3.900677E+03	2.710404E-05	2.607146E-06
3.910654E+03	2.838096E-05	2.712362E-06
3.920630E+03	2.972198E-05	2.822081E-06
3.930606E+03	3.114062E-05	2.937461E-06
3.940582E+03	3.261958E-05	3.056737E-06
3.950558E+03	3.418366E-05	3.182107E-06
3.960534E+03	3.581388E-05	3.311659E-06
3.970510E+03	3.753732E-05	3.447760E-06
3.980487E+03	3.933313E-05	3.588337E-06
3.990463E+03	4.123091E-05	3.735939E-06
4.000439E+03	4.320775E-05	3.888319E-06
4.010415E+03	4.529594E-05	4.048219E-06
4.020391E+03	4.747030E-05	4.213202E-06
4.030367E+03	4.976609E-05	4.386219E-06
4.040344E+03	5.215558E-05	4.564624E-06
4.050320E+03	5.467724E-05	4.751590E-06
4.060296E+03	5.730053E-05	4.944245E-06
4.070272E+03	6.006745E-05	5.146005E-06
4.080248E+03	6.294426E-05	5.353742E-06
4.090224E+03	6.597674E-05	5.571127E-06
4.100201E+03	6.912783E-05	5.794774E-06
4.110177E+03	7.244720E-05	6.028610E-06
4.120153E+03	7.589400E-05	6.268960E-06
4.130129E+03	7.952237E-05	6.520040E-06
4.140105E+03	8.328721E-05	6.777861E-06
4.150081E+03	8.724733E-05	7.046935E-06
4.160057E+03	9.135294E-05	7.322930E-06
4.170034E+03	9.563691E-05	7.608212E-06
4.180010E+03	1.001374E-04	7.905486E-06
4.189986E+03	1.047966E-04	8.209849E-06
4.199962E+03	1.096867E-04	8.526649E-06
4.209938E+03	1.147439E-04	8.850561E-06
4.219914E+03	1.200463E-04	9.187292E-06
4.229891E+03	1.255234E-04	9.531075E-06
4.239867E+03	1.312597E-04	9.887980E-06
4.249843E+03	1.371773E-04	1.025176E-05
4.259819E+03	1.433674E-04	1.062889E-05
4.269795E+03	1.497441E-04	1.101260E-05
4.279771E+03	1.564054E-04	1.140973E-05
4.289748E+03	1.632568E-04	1.181301E-05
4.299724E+03	1.703492E-04	1.222577E-05
4.309700E+03	1.777413E-04	1.265184E-05
4.319676E+03	1.853241E-04	1.308303E-05
4.329652E+03	1.932141E-04	1.352723E-05
4.339628E+03	2.012913E-04	1.397563E-05
4.349604E+03	2.096802E-04	1.443654E-05
4.359581E+03	2.182494E-04	1.490051E-05
4.369557E+03	2.270605E-04	1.537148E-05
4.379533E+03	2.361850E-04	1.585392E-05
4.389509E+03	2.454735E-04	1.633743E-05
4.399485E+03	2.550742E-04	1.683158E-05
4.409461E+03	2.648252E-04	1.732535E-05
4.419438E+03	2.747986E-04	1.782328E-05
4.429414E+03	2.850780E-04	1.833046E-05
4.439390E+03	2.954810E-04	1.883486E-05
4.449366E+03	3.060860E-04	1.934136E-05
4.459342E+03	3.169829E-04	1.985536E-05
4.469318E+03	3.279674E-04	2.036384E-05
4.479294E+03	3.392291E-04	2.087845E-05
4.489271E+03	3.505484E-04	2.138549E-05
4.499247E+03	3.620138E-04	2.189037E-05
4.509223E+03	3.737265E-04	2.239908E-05
4.519199E+03	3.854427E-04	2.289689E-05
4.529175E+03	3.972577E-04	2.338959E-05
4.539151E+03	4.092800E-04	2.388352E-05
4.549128E+03	4.212413E-04	2.436304E-05
4.559104E+03	4.332447E-04	2.483431E-05
4.569080E+03	4.452692E-04	2.529628E-05
4.579056E+03	4.574332E-04	2.575580E-05
4.589032E+03	4.694372E-04	2.619613E-05
4.599008E+03	4.813946E-04	2.662400E-05
4.608985E+03	4.932817E-04	2.703840E-05
4.618961E+03	5.052285E-04	2.744670E-05
4.628937E+03	5.169052E-04	2.783130E-05
4.638913E+03	5.284378E-04	2.819952E-05
4.648889E+03	5.398013E-04	2.855048E-05
4.658865E+03	5.511385E-04	2.889214E-05
4.668841E+03	5.620939E-04	2.920622E-05
4.678818E+03	5.728091E-04	2.950062E-05
4.688794E+03	5.832624E-04	2.977459E-05
4.698770E+03	5.934323E-04	3.002744E-05
4.708746E+03	6.034806E-04	3.026769E-05
4.718722E+03	6.130261E-04	3.047655E-05
4.728698E+03	6.222295E-04	3.066262E-05
4.738675E+03	6.310736E-04	3.082549E-05
4.748651E+03	6.395422E-04	3.096481E-05
4.758627E+03	6.476204E-04	3.108032E-05
4.768603E+03	6.552947E-04	3.117185E-05
4.778579E+03	6.625532E-04	3.123928E-05
4.788555E+03	6.695854E-04	3.129194E-05
4.798532E+03	6.759841E-04	3.131119E-05
4.808508E+03	6.819402E-04	3.130652E-05
4.818484E+03	6.874480E-04	3.127813E-05
4.828460E+03	6.925033E-04	3.122631E-05
4.838436E+03	6.971044E-04	3.115144E-05
4.848412E+03	7.012500E-04	3.105394E-05
4.858388E+03	7.049415E-04	3.093434E-05
4.868365E+03	7.081813E-04	3.079318E-05
4.878341E+03	7.109729E-04	3.063108E-05
4.888317E+03	7.133225E-04	3.044875E-05
4.898293E+03	7.152375E-04	3.024695E-05
4.908269E+03	7.167255E-04	3.002641E-05
4.918245E+03	7.177961E-04	2.978796E-05
4.928222E+03	7.184600E-04	2.953247E-05
4.938198E+03	7.185196E-04	2.925227E-05
4.948174E+03	7.184094E-04	2.896555E-05
4.958150E+03	7.179322E-04	2.866455E-05
4.968126E+03	7.171028E-04	2.835023E-05
4.978102E+03	7.159377E-04	2.802360E-05
4.988078E+03	7.144519E-04	2.768560E-05
4.998055E+03	7.126633E-04	2.733723E-05
5.008031E+03	7.103817E-04	2.697160E-05
5.018007E+03	7.080396E-04	2.660552E-05
5.027983E+03	7.054477E-04	2.623200E-05
5.037959E+03	7.026239E-04	2.585198E-05
5.047935E+03	6.993834E-04	2.545901E-05
5.057912E+03	6.961515E-04	2.506889E-05
5.067888E+03	6.927432E-04	2.467505E-05
5.077864E+03	6.891756E-04	2.427832E-05
5.087840E+03	6.852693E-04	2.387266E-05
5.097816E+03	6.814389E-04	2.347281E-05
5.107792E+03	6.775027E-04	2.307254E-05
5.117769E+03	6.732840E-04	2.266607E-05
5.127745E+03	6.691884E-04	2.226732E-05
5.137721E+03	6.648460E-04	2.186405E-05
5.147697E+03	6.606559E-04	2.146961E-05
5.157673E+03	6.564411E-04	2.107824E-05
5.167649E+03	6.520295E-04	2.068461E-05
5.177625E+03	6.478103E-04	2.030127E-05
5.187602E+03	6.434251E-04	1.991704E-05
5.197578E+03	6.392564E-04	1.954393E-05
5.207554E+03	6.349504E-04	1.917116E-05
5.217530E+03	6.308826E-04	1.881025E-05
5.227506E+03	6.267038E-04	1.845082E-05
5.237482E+03	6.227831E-04	1.810389E-05
5.247459E+03	6.187754E-04	1.775947E-05
5.257435E+03	6.148690E-04	1.742319E-05
5.267411E+03	6.112466E-04	1.710028E-05
5.277387E+03	6.075694E-04	1.678128E-05
5.287363E+03	6.041912E-04	1.647614E-05
5.297339E+03	6.007770E-04	1.617579E-05
5.307316E+03	5.975064E-04	1.588529E-05
5.317292E+03	5.943868E-04	1.560497E-05
5.327268E+03	5.915914E-04	1.533945E-05
5.337244E+03	5.887924E-04	1.508032E-05
5.347220E+03	5.861633E-04	1.483229E-05
5.357196E+03	5.837102E-04	1.459568E-05
5.367172E+03	5.816016E-04	1.437483E-05
5.377149E+03	5.795152E-04	1.416191E-05
5.387125E+03	5.776200E-04	1.396134E-05
5.397101E+03	5.759205E-04	1.377345E-05
5.407077E+03	5.744209E-04	1.359856E-05
5.417053E+03	5.731254E-04	1.343699E-05
5.427029E+03	5.720376E-04	1.328908E-05
5.437006E+03	5.713206E-04	1.315883E-05
5.446982E+03	5.706582E-04	1.303919E-05
5.456958E+03	5.702134E-04	1.293422E-05
5.466934E+03	5.699886E-04	1.284422E-05
5.476910E+03	5.699862E-04	1.276954E-05
5.486886E+03	5.702075E-04	1.271046E-05
5.496862E+03	5.704946E-04	1.266375E-05
5.506839E+03	5.711646E-04	1.263672E-05
5.516815E+03	5.720584E-04	1.262598E-05
5.526791E+03	5.731745E-04	1.263118E-05
5.536767E+03	5.745107E-04	1.265183E-05
5.546743E+03	5.760648E-04	1.268742E-05
5.556719E+03	5.778346E-04	1.273744E-05
5.566696E+03	5.796573E-04	1.279782E-05
5.576672E+03	5.818503E-04	1.287507E-05
5.586648E+03	5.842512E-04	1.296514E-05
5.596624E+03	5.868575E-04	1.306748E-05
5.606600E+03	5.895040E-04	1.317792E-05
5.616576E+03	5.925120E-04	1.330316E-05
5.626553E+03	5.957171E-04	1.343905E-05
5.636529E+03	5.989515E-04	1.358133E-05
5.646505E+03	6.025412E-04	1.373691E-05
5.656481E+03	6.063194E-04	1.390158E-05
5.666457E+03	6.101155E-04	1.407096E-05
5.676433E+03	6.142608E-04	1.425223E-05
5.686409E+03	6.184161E-04	1.443712E-05
5.696386E+03	6.229164E-04	1.463300E-05
5.706362E+03	6.274187E-04	1.483144E-05
5.716338E+03	6.322620E-04	1.504002E-05
5.726314E+03	6.370988E-04	1.525010E-05
5.736290E+03	6.422729E-04	1.546951E-05
5.746266E+03	6.474317E-04	1.568939E-05
5.756243E+03	6.527460E-04	1.591347E-05
5.766219E+03	6.583920E-04	1.614568E-05
5.776195E+03	6.640091E-04	1.637687E-05
5.786171E+03	6.697721E-04	1.661092E-05
5.796147E+03	6.756776E-04	1.684740E-05
5.806123E+03	6.819077E-04	1.709052E-05
5.816100E+03	6.880900E-04	1.733064E-05
5.826076E+03	6.944051E-04	1.757190E-05
5.836052E+03	7.008494E-04	1.781388E-05
5.846028E+03	7.074198E-04	1.805616E-05
5.856004E+03	7.143065E-04	1.830327E-05
5.865980E+03	7.211208E-04	1.854496E-05
5.875956E+03	7.280513E-04	1.878568E-05
5.885933E+03	7.350947E-04	1.902504E-05
5.895909E+03	7.422478E-04	1.926262E-05
5.905885E+03	7.495071E-04	1.949801E-05
5.915861E+03	7.568696E-04	1.973081E-05
5.925837E+03	7.643320E-04	1.996060E-05
5.935813E+03	7.718910E-04	2.018699E-05
5.945790E+03	7.795435E-04	2.040958E-05
5.955766E+03	7.872863E-04	2.062797E-05
5.965742E+03	7.949021E-04	2.083617E-05
5.975718E+03	8.028139E-04	2.104495E-05
5.985694E+03	8.108065E-04	2.124838E-05
5.995670E+03	8.188767E-04	2.144608E-05
6.005647E+03	8.270212E-04	2.163767E-05
6.015623E+03	8.350124E-04	2.181694E-05
6.025599E+03	8.432939E-04	2.199519E-05
6.035575E+03	8.516400E-04	2.216627E-05
6.045551E+03	8.598165E-04	2.232384E-05
6.055527E+03	8.682794E-04	2.247949E-05
6.065503E+03	8.767968E-04	2.262697E-05
6.075480E+03	8.851276E-04	2.275984E-05
6.085456E+03	8.937406E-04	2.288997E-05
6.095432E+03	9.021551E-04	2.300483E-05
6.105408E+03	9.108483E-04	2.311644E-05
6.115384E+03	9.193306E-04	2.321218E-05
6.125360E+03	9.280877E-04	2.330419E-05
6.135337E+03	9.366207E-04	2.337981E-05
6.145313E+03	9.454238E-04	2.345130E-05
6.155289E+03	9.539890E-04	2.350593E-05
6.165265E+03	9.625615E-04	2.354979E-05
6.175241E+03	9.713960E-04	2.358904E-05
6.185217E+03	9.799694E-04	2.361095E-05
6.195193E+03	9.885337E-04	2.362171E-05
6.205170E+03	9.970826E-04	2.362127E-05
6.215146E+03	1.005878E-03	2.361589E-05
6.225122E+03	1.014380E-03	2.359300E-05
6.235098E+03	1.022847E-03	2.355891E-05
6.245074E+03	1.031271E-03	2.351375E-05
6.255050E+03	1.039648E-03	2.345765E-05
6.265027E+03	1.047966E-03	2.339078E-05
6.275003E+03	1.056221E-03	2.331341E-05
6.284979E+03	1.064401E-03	2.322584E-05
6.294955E+03	1.072502E-03	2.312846E-05
6.304931E+03	1.080512E-03	2.302170E-05
6.314907E+03	1.088425E-03	2.290610E-05
6.324884E+03	1.096230E-03	2.278225E-05
6.334860E+03	1.103919E-03	2.265084E-05
6.344836E+03	1.111483E-03	2.251268E-05
6.354812E+03	1.118912E-03	2.236861E-05
6.364788E+03	1.126196E-03	2.221963E-05
6.374764E+03	1.133327E-03	2.206683E-05
6.384740E+03	1.139991E-03	2.190556E-05
6.394717E+03	1.146785E-03	2.174885E-05
6.404693E+03	1.153395E-03	2.159220E-05
6.414669E+03	1.159814E-03	2.143718E-05
6.424645E+03	1.165722E-03	2.127978E-05
6.434621E+03	1.171725E-03	2.113303E-05
6.444597E+03	1.177508E-03	2.099313E-05
6.454574E+03	1.182747E-03	2.085646E-05
6.464550E+03	1.188058E-03	2.073611E-05
6.474526E+03	1.192803E-03	2.062313E-05
6.484502E+03	1.197606E-03	2.053056E-05
6.494478E+03	1.201824E-03	2.044965E-05
6.504454E+03	1.206086E-03	2.039332E-05
6.514431E+03	1.209749E-03	2.035291E-05
6.524407E+03	1.213449E-03	2.034118E-05
6.534383E+03	1.216544E-03	2.034937E-05
6.544359E+03	1.219356E-03	2.038468E-05
6.554335E+03	1.222210E-03	2.045417E-05
6.564311E+03	1.224468E-03	2.054841E-05
6.574287E+03	1.226457E-03	2.067261E-05
6.584264E+03	1.228512E-03	2.083130E-05
6.594240E+03	1.229991E-03	2.101232E-05
6.604216E+03	1.231227E-03	2.121980E-05
6.614192E+03	1.232229E-03	2.145221E-05
6.624168E+03	1.233006E-03	2.170795E-05
6.634144E+03	1.233567E-03	2.198529E-05
6.644121E+03	1.234247E-03	2.228841E-05
6.654097E+03	1.234403E-03	2.260379E-05
6.664073E+03	1.234371E-03	2.293554E-05
6.674049E+03	1.234161E-03	2.328188E-05
6.684025E+03	1.233782E-03	2.364112E-05
6.694001E+03	1.233244E-03	2.401161E-05
6.703977E+03	1.232556E-03	2.439176E-05
6.713954E+03	1.231729E-03	2.478010E-05
6.723930E+03	1.230445E-03	2.516849E-05
6.733906E+03	1.229367E-03	2.556884E-05
6.743882E+03	1.228175E-03	2.597326E-05
6.753858E+03	1.226881E-03	2.638063E-05
6.763834E+03	1.225492E-03	2.678980E-05
6.773811E+03	1.224017E-03	2.719977E-05
6.783787E+03	1.222138E-03	2.760220E-05
6.793763E+03	1.220514E-03	2.801080E-05
6.803739E+03	1.218823E-03	2.841745E-05
6.813715E+03	1.216753E-03	2.881381E-05
6.823691E+03	1.214953E-03	2.921432E-05
6.833668E+03	1.213106E-03	2.961075E-05
6.843644E+03	1.210897E-03	2.999458E-05
6.853620E+03	1.208971E-03	3.038099E-05
6.863596E+03	1.206692E-03	3.075348E-05
6.873572E+03	1.204702E-03	3.112770E-05
6.883548E+03	1.202366E-03	3.148681E-05
6.893524E+03	1.200322E-03	3.184694E-05
6.903501E+03	1.197936E-03	3.219087E-05
6.913477E+03	1.195846E-03	3.253519E-05
6.923453E+03	1.193414E-03	3.286231E-05
6.933429E+03	1.190960E-03	3.318040E-05
6.943405E+03	1.188798E-03	3.349798E-05
6.953381E+03	1.186295E-03	3.379700E-05
6.963358E+03	1.183765E-03	3.408592E-05
6.973334E+03	1.181520E-03	3.437349E-05
6.983310E+03	1.178930E-03	3.464125E-05
6.993286E+03	1.176305E-03	3.489787E-05
7.003262E+03	1.173641E-03	3.514302E-05
7.013238E+03	1.170937E-03	3.537643E-05
7.023215E+03	1.168187E-03	3.559774E-05
7.033191E+03	1.165696E-03	3.581615E-05
7.043167E+03	1.162841E-03	3.601240E-05
7.053143E+03	1.159927E-03	3.619563E-05
7.063119E+03	1.156949E-03	3.636556E-05
7.073095E+03	1.153904E-03	3.652191E-05
7.083071E+03	1.150784E-03	3.666436E-05
7.093048E+03	1.147585E-03	3.679266E-05
7.103024E+03	1.144306E-03	3.690663E-05
7.113000E+03	1.140939E-03	3.700599E-05
7.122976E+03	1.137479E-03	3.709047E-05
7.132952E+03	1.133623E-03	3.715007E-05
7.142928E+03	1.129970E-03	3.720433E-05
7.152905E+03	1.126212E-03	3.724320E-05
7.162881E+03	1.122350E-03	3.726663E-05
7.172857E+03	1.118379E-03	3.727444E-05
7.182833E+03	1.114296E-03	3.726657E-05
7.192809E+03	1.109802E-03	3.723298E-05
7.202785E+03	1.105492E-03	3.719363E-05
7.212762E+03	1.101066E-03	3.713852E-05
7.222738E+03	1.096232E-03	3.705782E-05
7.232714E+03	1.091575E-03	3.697139E-05
7.242690E+03	1.086803E-03	3.686943E-05
7.252666E+03	1.081628E-03	3.674225E-05
7.262642E+03	1.076631E-03	3.660971E-05
7.272618E+03	1.071238E-03	3.645240E-05
7.282595E+03	1.066027E-03	3.629013E-05
7.292571E+03	1.060428E-03	3.610366E-05
7.302547E+03	1.055016E-03	3.591273E-05
7.312523E+03	1.049228E-03	3.569834E-05
7.322499E+03	1.043635E-03	3.548007E-05
7.332475E+03	1.037679E-03	3.523922E-05
7.342452E+03	1.031926E-03	3.499517E-05
7.352428E+03	1.025826E-03	3.472952E-05
7.362404E+03	1.019665E-03	3.445218E-05
7.372380E+03	1.013723E-03	3.417284E-05
7.382356E+03	1.007460E-03	3.387353E-05
7.392332E+03	1.001159E-03	3.356403E-05
7.402308E+03	9.950944E-04	3.325384E-05
7.412285E+03	9.887375E-04	3.292548E-05
7.422261E+03	9.823659E-04	3.258854E-05
7.432237E+03	9.759876E-04	3.224358E-05
7.442213E+03	9.696110E-04	3.189114E-05
7.452189E+03	9.635041E-04	3.154030E-05
7.462165E+03	9.571531E-04	3.117447E-05
7.472142E+03	9.508279E-04	3.080283E-05
7.482118E+03	9.445358E-04	3.042591E-05
7.492094E+03	9.382846E-04	3.004425E-05
7.502070E+03	9.320812E-04	2.965839E-05
7.512046E+03	9.259328E-04	2.926885E-05
7.522022E+03	9.198458E-04	2.887614E-05
7.531999E+03	9.138267E-04	2.848077E-05
7.541975E+03	9.078812E-04	2.808324E-05
7.551951E+03	9.020147E-04	2.768403E-05
7.561927E+03	8.962325E-04	2.728361E-05
7.571903E+03	8.905392E-04	2.688246E-05
7.581879E+03	8.849389E-04	2.648104E-05
7.591855E+03	8.794355E-04	2.607980E-05
7.601832E+03	8.737944E-04	2.567220E-05
7.611808E+03	8.684955E-04	2.527277E-05
7.621784E+03	8.633022E-04	2.487485E-05
7.631760E+03	8.582163E-04	2.447890E-05
7.641736E+03	8.532394E-04	2.408536E-05
7.651712E+03	8.481410E-04	2.368821E-05
7.661689E+03	8.433865E-04	2.330096E-05
7.671665E+03	8.387431E-04	2.291751E-05
7.681641E+03	8.342109E-04	2.253835E-05
7.691617E+03	8.295626E-04	2.215792E-05
7.701593E+03	8.252526E-04	2.178898E-05
7.711569E+03	8.210517E-04	2.142591E-05
7.721546E+03	8.167347E-04	2.106353E-05
7.731522E+03	8.127491E-04	2.071409E-05
7.741498E+03	8.086458E-04	2.036677E-05
