#wls	flux	fluxerr
1.600000E+03	3.123862E-19	3.333381E-19
1.640000E+03	3.084519E-19	3.285212E-19
1.680000E+03	3.054762E-19	3.247169E-19
1.720000E+03	3.033655E-19	3.218186E-19
1.760000E+03	3.021592E-19	3.198612E-19
1.800000E+03	3.020221E-19	3.190105E-19
1.840000E+03	3.028827E-19	3.191811E-19
1.880000E+03	3.047993E-19	3.204238E-19
1.920000E+03	3.079580E-19	3.229218E-19
1.960000E+03	3.123162E-19	3.266155E-19
2.000000E+03	3.179615E-19	3.315805E-19
2.040000E+03	3.251177E-19	3.380308E-19
2.080000E+03	3.337797E-19	3.459385E-19
2.120000E+03	3.442075E-19	3.555468E-19
2.160000E+03	3.564283E-19	3.668529E-19
2.200000E+03	3.707487E-19	3.801364E-19
2.240000E+03	3.872345E-19	3.954218E-19
2.280000E+03	4.061041E-19	4.128830E-19
2.320000E+03	4.277549E-19	4.328652E-19
2.360000E+03	4.523217E-19	4.554347E-19
2.400000E+03	4.802789E-19	4.809869E-19
2.440000E+03	5.118153E-19	5.096128E-19
2.480000E+03	5.473063E-19	5.415727E-19
2.520000E+03	5.873630E-19	5.773359E-19
2.560000E+03	6.324713E-19	6.172181E-19
2.600000E+03	6.829324E-19	6.613244E-19
2.640000E+03	7.395161E-19	7.101799E-19
2.680000E+03	8.023066E-19	7.636089E-19
2.720000E+03	8.726858E-19	8.226299E-19
2.760000E+03	9.507838E-19	8.870120E-19
2.800000E+03	1.037239E-18	9.569543E-19
2.840000E+03	1.133059E-18	1.032928E-18
2.880000E+03	1.238981E-18	1.115078E-18
2.920000E+03	1.355328E-18	1.203102E-18
2.960000E+03	1.482735E-18	1.296906E-18
3.000000E+03	1.622293E-18	1.396713E-18
3.010000E+03	1.658956E-18	1.422402E-18
3.020000E+03	1.696905E-18	1.448853E-18
3.030000E+03	1.735130E-18	1.475189E-18
3.040000E+03	1.774142E-18	1.501835E-18
3.050000E+03	1.814492E-18	1.529241E-18
3.060000E+03	1.855111E-18	1.556488E-18
3.070000E+03	1.897104E-18	1.584494E-18
3.080000E+03	1.939357E-18	1.612309E-18
3.090000E+03	1.983019E-18	1.640878E-18
3.100000E+03	2.027530E-18	1.669717E-18
3.110000E+03	2.072284E-18	1.698315E-18
3.120000E+03	2.118499E-18	1.727655E-18
3.130000E+03	2.165579E-18	1.757233E-18
3.140000E+03	2.212881E-18	1.786513E-18
3.150000E+03	2.261692E-18	1.816522E-18
3.160000E+03	2.311382E-18	1.846732E-18
3.170000E+03	2.361952E-18	1.877128E-18
3.180000E+03	2.412705E-18	1.907144E-18
3.190000E+03	2.465031E-18	1.937866E-18
3.200000E+03	2.518244E-18	1.968732E-18
3.210000E+03	2.572345E-18	1.999729E-18
3.220000E+03	2.627335E-18	2.030842E-18
3.230000E+03	2.683215E-18	2.062054E-18
3.240000E+03	2.739982E-18	2.093351E-18
3.250000E+03	2.797637E-18	2.124717E-18
3.260000E+03	2.856178E-18	2.156136E-18
3.270000E+03	2.916428E-18	2.188213E-18
3.280000E+03	2.976746E-18	2.219697E-18
3.290000E+03	3.037940E-18	2.251187E-18
3.300000E+03	3.100007E-18	2.282665E-18
3.310000E+03	3.162940E-18	2.314116E-18
3.320000E+03	3.227636E-18	2.346179E-18
3.330000E+03	3.292299E-18	2.377533E-18
3.340000E+03	3.357808E-18	2.408812E-18
3.350000E+03	3.425107E-18	2.440678E-18
3.360000E+03	3.492299E-18	2.471766E-18
3.370000E+03	3.560311E-18	2.502733E-18
3.380000E+03	3.630130E-18	2.534261E-18
3.390000E+03	3.699763E-18	2.564946E-18
3.400000E+03	3.771212E-18	2.596179E-18
3.410000E+03	3.843465E-18	2.627245E-18
3.420000E+03	3.915440E-18	2.657409E-18
3.430000E+03	3.989238E-18	2.688098E-18
3.440000E+03	4.062693E-18	2.717847E-18
3.450000E+03	4.137972E-18	2.748111E-18
3.460000E+03	4.213973E-18	2.778149E-18
3.470000E+03	4.289520E-18	2.807194E-18
3.480000E+03	4.366886E-18	2.836741E-18
3.490000E+03	4.444911E-18	2.866033E-18
3.500000E+03	4.523572E-18	2.895059E-18
3.510000E+03	4.602845E-18	2.923813E-18
3.520000E+03	4.682705E-18	2.952288E-18
3.530000E+03	4.761864E-18	2.979686E-18
3.540000E+03	4.842799E-18	3.007575E-18
3.550000E+03	4.924238E-18	3.035166E-18
3.560000E+03	5.006151E-18	3.062453E-18
3.570000E+03	5.088507E-18	3.089432E-18
3.580000E+03	5.171274E-18	3.116099E-18
3.590000E+03	5.254418E-18	3.142449E-18
3.600000E+03	5.339294E-18	3.169304E-18
3.610000E+03	5.423107E-18	3.195015E-18
3.620000E+03	5.507192E-18	3.220400E-18
3.630000E+03	5.591511E-18	3.245454E-18
3.640000E+03	5.676025E-18	3.270174E-18
3.650000E+03	5.760697E-18	3.294557E-18
3.660000E+03	5.846982E-18	3.319447E-18
3.670000E+03	5.931865E-18	3.343146E-18
3.680000E+03	6.016784E-18	3.366494E-18
3.690000E+03	6.103246E-18	3.390347E-18
3.700000E+03	6.188129E-18	3.412981E-18
3.710000E+03	6.272921E-18	3.435245E-18
3.720000E+03	6.359184E-18	3.458005E-18
3.730000E+03	6.443688E-18	3.479512E-18
3.740000E+03	6.529612E-18	3.501502E-18
3.750000E+03	6.613658E-18	3.522214E-18
3.760000E+03	6.699075E-18	3.543395E-18
3.770000E+03	6.782499E-18	3.563268E-18
3.780000E+03	6.867246E-18	3.583591E-18
3.790000E+03	6.949888E-18	3.602575E-18
3.800000E+03	7.033809E-18	3.621986E-18
3.810000E+03	7.115517E-18	3.640023E-18
3.820000E+03	7.198465E-18	3.658461E-18
3.830000E+03	7.280883E-18	3.676391E-18
3.840000E+03	7.360942E-18	3.692893E-18
3.850000E+03	7.442192E-18	3.709754E-18
3.860000E+03	7.522824E-18	3.726057E-18
3.870000E+03	7.602812E-18	3.741786E-18
3.880000E+03	7.680278E-18	3.756018E-18
3.890000E+03	7.758900E-18	3.770551E-18
3.900000E+03	7.836819E-18	3.784465E-18
3.910000E+03	7.914023E-18	3.797746E-18
3.920000E+03	7.990499E-18	3.810383E-18
3.930000E+03	8.066241E-18	3.822365E-18
3.940000E+03	8.139309E-18	3.832770E-18
3.950000E+03	8.213562E-18	3.843416E-18
3.960000E+03	8.287080E-18	3.853386E-18
3.970000E+03	8.359870E-18	3.862676E-18
3.980000E+03	8.431941E-18	3.871287E-18
3.990000E+03	8.503309E-18	3.879218E-18
4.000000E+03	8.573990E-18	3.886477E-18
4.010000E+03	8.644007E-18	3.893068E-18
4.020000E+03	8.713383E-18	3.899003E-18
4.030000E+03	8.782149E-18	3.904295E-18
4.040000E+03	8.850335E-18	3.908959E-18
4.050000E+03	8.917977E-18	3.913015E-18
4.060000E+03	8.985113E-18	3.916486E-18
4.070000E+03	9.051784E-18	3.919398E-18
4.080000E+03	9.120126E-18	3.922680E-18
4.090000E+03	9.186012E-18	3.924562E-18
4.100000E+03	9.251571E-18	3.925983E-18
4.110000E+03	9.316855E-18	3.926983E-18
4.120000E+03	9.381917E-18	3.927605E-18
4.130000E+03	9.446808E-18	3.927897E-18
4.140000E+03	9.511586E-18	3.927908E-18
4.150000E+03	9.578462E-18	3.928581E-18
4.160000E+03	9.643185E-18	3.928199E-18
4.170000E+03	9.707959E-18	3.927713E-18
4.180000E+03	9.772839E-18	3.927190E-18
4.190000E+03	9.840075E-18	3.927576E-18
4.200000E+03	9.905336E-18	3.927190E-18
4.210000E+03	9.970860E-18	3.926991E-18
4.220000E+03	1.003670E-17	3.927060E-18
4.230000E+03	1.010512E-17	3.928351E-18
4.240000E+03	1.017173E-17	3.929218E-18
4.250000E+03	1.023877E-17	3.930624E-18
4.260000E+03	1.030856E-17	3.933530E-18
4.270000E+03	1.037661E-17	3.936311E-18
4.280000E+03	1.044520E-17	3.939934E-18
4.290000E+03	1.051436E-17	3.944507E-18
4.300000E+03	1.058643E-17	3.950997E-18
4.310000E+03	1.065682E-17	3.957798E-18
4.320000E+03	1.072785E-17	3.965880E-18
4.330000E+03	1.080187E-17	3.976212E-18
4.340000E+03	1.087426E-17	3.987189E-18
4.350000E+03	1.094735E-17	3.999776E-18
4.360000E+03	1.102353E-17	4.014935E-18
4.370000E+03	1.109813E-17	4.031047E-18
4.380000E+03	1.117355E-17	4.049059E-18
4.390000E+03	1.125225E-17	4.069912E-18
4.400000E+03	1.132958E-17	4.091941E-18
4.410000E+03	1.140805E-17	4.116053E-18
4.420000E+03	1.149026E-17	4.143153E-18
4.430000E+03	1.157156E-17	4.171519E-18
4.440000E+03	1.165458E-17	4.202035E-18
4.450000E+03	1.174197E-17	4.235596E-18
4.460000E+03	1.182905E-17	4.270434E-18
4.470000E+03	1.191850E-17	4.307432E-18
4.480000E+03	1.201305E-17	4.347492E-18
4.490000E+03	1.210795E-17	4.388807E-18
4.500000E+03	1.220592E-17	4.432272E-18
4.510000E+03	1.230976E-17	4.478808E-18
4.520000E+03	1.241463E-17	4.526574E-18
4.530000E+03	1.252333E-17	4.576487E-18
4.540000E+03	1.263868E-17	4.629500E-18
4.550000E+03	1.275579E-17	4.683730E-18
4.560000E+03	1.287748E-17	4.740130E-18
4.570000E+03	1.300403E-17	4.798713E-18
4.580000E+03	1.313837E-17	4.860485E-18
4.590000E+03	1.327545E-17	4.923505E-18
4.600000E+03	1.341820E-17	4.988775E-18
4.610000E+03	1.356691E-17	5.056328E-18
4.620000E+03	1.372461E-17	5.127229E-18
4.630000E+03	1.388612E-17	5.199465E-18
4.640000E+03	1.405446E-17	5.274098E-18
4.650000E+03	1.422993E-17	5.351174E-18
4.660000E+03	1.441286E-17	5.430741E-18
4.670000E+03	1.460647E-17	5.513947E-18
4.680000E+03	1.480530E-17	5.598665E-18
4.690000E+03	1.501256E-17	5.686033E-18
4.700000E+03	1.522859E-17	5.776105E-18
4.710000E+03	1.545374E-17	5.868939E-18
4.720000E+03	1.568835E-17	5.964588E-18
4.730000E+03	1.593278E-17	6.063108E-18
4.740000E+03	1.618739E-17	6.164550E-18
4.750000E+03	1.645256E-17	6.268963E-18
4.760000E+03	1.672863E-17	6.376392E-18
4.770000E+03	1.701599E-17	6.486876E-18
4.780000E+03	1.731501E-17	6.600449E-18
4.790000E+03	1.762604E-17	6.717136E-18
4.800000E+03	1.794947E-17	6.836954E-18
4.810000E+03	1.828564E-17	6.959909E-18
4.820000E+03	1.863493E-17	7.085998E-18
4.830000E+03	1.899767E-17	7.215201E-18
4.840000E+03	1.937421E-17	7.347487E-18
4.850000E+03	1.976110E-17	7.481375E-18
4.860000E+03	2.016615E-17	7.619642E-18
4.870000E+03	2.058594E-17	7.760794E-18
4.880000E+03	2.102076E-17	7.904726E-18
4.890000E+03	2.146680E-17	8.049785E-18
4.900000E+03	2.193238E-17	8.198855E-18
4.910000E+03	2.241372E-17	8.350260E-18
4.920000E+03	2.290669E-17	8.502196E-18
4.930000E+03	2.342004E-17	8.657625E-18
4.940000E+03	2.394967E-17	8.814715E-18
4.950000E+03	2.449110E-17	8.971505E-18
4.960000E+03	2.505353E-17	9.131026E-18
4.970000E+03	2.562772E-17	9.289548E-18
4.980000E+03	2.622318E-17	9.450149E-18
4.990000E+03	2.683024E-17	9.608933E-18
5.000000E+03	2.745366E-17	9.767207E-18
5.010000E+03	2.809857E-17	9.926355E-18
5.020000E+03	2.875458E-17	1.008223E-17
5.030000E+03	2.942666E-17	1.023613E-17
5.040000E+03	3.012024E-17	1.038941E-17
5.050000E+03	3.082414E-17	1.053770E-17
5.060000E+03	3.154360E-17	1.068228E-17
5.070000E+03	3.227840E-17	1.082250E-17
5.080000E+03	3.302829E-17	1.095771E-17
5.090000E+03	3.379301E-17	1.108721E-17
5.100000E+03	3.457226E-17	1.121028E-17
5.110000E+03	3.536575E-17	1.132619E-17
5.120000E+03	3.617314E-17	1.143416E-17
5.130000E+03	3.699410E-17	1.153340E-17
5.140000E+03	3.782828E-17	1.162312E-17
5.150000E+03	3.867530E-17	1.170247E-17
5.160000E+03	3.953478E-17	1.177061E-17
5.170000E+03	4.040633E-17	1.182669E-17
5.180000E+03	4.128213E-17	1.186769E-17
5.190000E+03	4.217647E-17	1.189699E-17
5.200000E+03	4.308164E-17	1.191159E-17
5.210000E+03	4.398936E-17	1.190845E-17
5.220000E+03	4.491477E-17	1.189096E-17
5.230000E+03	4.584153E-17	1.185398E-17
5.240000E+03	4.678540E-17	1.180088E-17
5.250000E+03	4.772941E-17	1.172662E-17
5.260000E+03	4.868991E-17	1.163456E-17
5.270000E+03	4.964931E-17	1.151979E-17
5.280000E+03	5.061562E-17	1.138368E-17
5.290000E+03	5.158834E-17	1.122559E-17
5.300000E+03	5.257627E-17	1.104691E-17
5.310000E+03	5.356053E-17	1.084327E-17
5.320000E+03	5.454973E-17	1.061636E-17
5.330000E+03	5.554337E-17	1.036607E-17
5.340000E+03	5.654095E-17	1.009251E-17
5.350000E+03	5.754195E-17	9.796098E-18
5.360000E+03	5.854588E-17	9.477625E-18
5.370000E+03	5.955223E-17	9.138366E-18
5.380000E+03	6.054998E-17	8.778700E-18
5.390000E+03	6.155957E-17	8.404481E-18
5.400000E+03	6.257018E-17	8.017925E-18
5.410000E+03	6.357036E-17	7.622939E-18
5.420000E+03	6.458160E-17	7.229312E-18
5.430000E+03	6.559270E-17	6.845113E-18
5.440000E+03	6.659188E-17	6.481644E-18
5.450000E+03	6.759006E-17	6.156002E-18
5.460000E+03	6.859887E-17	5.888529E-18
5.470000E+03	6.959474E-17	5.699054E-18
5.480000E+03	7.058920E-17	5.610586E-18
5.490000E+03	7.159437E-17	5.641915E-18
5.500000E+03	7.258560E-17	5.800203E-18
5.510000E+03	7.357452E-17	6.084484E-18
5.520000E+03	7.456049E-17	6.483712E-18
5.530000E+03	7.554285E-17	6.981832E-18
5.540000E+03	7.652093E-17	7.561573E-18
5.550000E+03	7.749409E-17	8.206838E-18
5.560000E+03	7.844842E-17	8.902231E-18
5.570000E+03	7.940986E-17	9.639150E-18
5.580000E+03	8.036473E-17	1.040685E-17
5.590000E+03	8.129883E-17	1.119588E-17
5.600000E+03	8.223904E-17	1.200375E-17
5.610000E+03	8.315734E-17	1.282147E-17
5.620000E+03	8.408122E-17	1.364907E-17
5.630000E+03	8.498209E-17	1.447855E-17
5.640000E+03	8.588796E-17	1.531165E-17
5.650000E+03	8.676967E-17	1.614075E-17
5.660000E+03	8.764103E-17	1.696600E-17
5.670000E+03	8.850147E-17	1.778538E-17
5.680000E+03	8.935041E-17	1.859704E-17
5.690000E+03	9.018717E-17	1.939932E-17
5.700000E+03	9.101099E-17	2.019065E-17
5.710000E+03	9.182105E-17	2.096959E-17
5.720000E+03	9.261642E-17	2.173475E-17
5.730000E+03	9.338057E-17	2.248111E-17
5.740000E+03	9.414334E-17	2.321474E-17
5.750000E+03	9.488813E-17	2.393082E-17
5.760000E+03	9.559786E-17	2.462407E-17
5.770000E+03	9.630275E-17	2.530138E-17
5.780000E+03	9.696966E-17	2.595337E-17
5.790000E+03	9.761301E-17	2.658300E-17
5.800000E+03	9.824754E-17	2.719369E-17
5.810000E+03	9.883946E-17	2.777553E-17
5.820000E+03	9.940345E-17	2.833188E-17
5.830000E+03	9.993808E-17	2.886178E-17
5.840000E+03	1.004420E-16	2.936431E-17
5.850000E+03	1.009139E-16	2.983859E-17
5.860000E+03	1.013526E-16	3.028383E-17
5.870000E+03	1.017571E-16	3.069928E-17
5.880000E+03	1.021098E-16	3.107922E-17
5.890000E+03	1.024433E-16	3.143318E-17
5.900000E+03	1.027405E-16	3.175569E-17
5.910000E+03	1.029844E-16	3.204115E-17
5.920000E+03	1.032084E-16	3.229972E-17
5.930000E+03	1.033792E-16	3.252080E-17
5.940000E+03	1.035140E-16	3.270962E-17
5.950000E+03	1.036139E-16	3.286630E-17
5.960000E+03	1.036965E-16	3.299647E-17
5.970000E+03	1.037297E-16	3.308977E-17
5.980000E+03	1.037319E-16	3.315207E-17
5.990000E+03	1.037052E-16	3.318396E-17
6.000000E+03	1.036516E-16	3.318616E-17
6.010000E+03	1.035570E-16	3.315413E-17
6.020000E+03	1.034575E-16	3.309951E-17
6.030000E+03	1.033395E-16	3.301792E-17
6.040000E+03	1.031892E-16	3.290509E-17
6.050000E+03	1.030435E-16	3.277278E-17
6.060000E+03	1.028725E-16	3.261151E-17
6.070000E+03	1.027130E-16	3.243301E-17
6.080000E+03	1.025355E-16	3.222795E-17
6.090000E+03	1.023605E-16	3.200276E-17
6.100000E+03	1.021918E-16	3.175857E-17
6.110000E+03	1.020333E-16	3.149647E-17
6.120000E+03	1.018888E-16	3.121752E-17
6.130000E+03	1.017622E-16	3.092269E-17
6.140000E+03	1.016573E-16	3.061287E-17
6.150000E+03	1.015781E-16	3.028886E-17
6.160000E+03	1.015281E-16	2.995136E-17
6.170000E+03	1.014949E-16	2.959623E-17
6.180000E+03	1.015147E-16	2.923347E-17
6.190000E+03	1.015585E-16	2.885400E-17
6.200000E+03	1.016623E-16	2.846733E-17
6.210000E+03	1.017970E-16	2.806433E-17
6.220000E+03	1.019823E-16	2.764955E-17
6.230000E+03	1.022377E-16	2.722709E-17
6.240000E+03	1.025339E-16	2.678778E-17
6.250000E+03	1.028904E-16	2.633546E-17
6.260000E+03	1.033104E-16	2.586941E-17
6.270000E+03	1.037969E-16	2.538869E-17
6.280000E+03	1.043364E-16	2.488826E-17
6.290000E+03	1.049651E-16	2.437483E-17
6.300000E+03	1.056694E-16	2.384289E-17
6.310000E+03	1.064355E-16	2.328705E-17
6.320000E+03	1.073000E-16	2.271293E-17
6.330000E+03	1.082318E-16	2.211113E-17
6.340000E+03	1.092680E-16	2.148647E-17
6.350000E+03	1.103769E-16	2.082950E-17
6.360000E+03	1.115782E-16	2.014101E-17
6.370000E+03	1.128746E-16	1.941803E-17
6.380000E+03	1.142685E-16	1.865743E-17
6.390000E+03	1.157621E-16	1.785584E-17
6.400000E+03	1.173573E-16	1.700978E-17
6.410000E+03	1.190561E-16	1.611562E-17
6.420000E+03	1.208599E-16	1.516973E-17
6.430000E+03	1.227700E-16	1.416857E-17
6.440000E+03	1.247674E-16	1.310684E-17
6.450000E+03	1.268921E-16	1.198631E-17
6.460000E+03	1.291045E-16	1.080178E-17
6.470000E+03	1.314452E-16	9.558095E-18
6.480000E+03	1.338729E-16	8.258243E-18
6.490000E+03	1.364080E-16	6.920590E-18
6.500000E+03	1.390505E-16	5.585991E-18
6.510000E+03	1.418005E-16	4.356823E-18
6.520000E+03	1.446808E-16	3.488238E-18
6.530000E+03	1.476229E-16	3.420427E-18
6.540000E+03	1.506941E-16	4.296127E-18
6.550000E+03	1.538696E-16	5.759642E-18
6.560000E+03	1.571464E-16	7.516314E-18
6.570000E+03	1.605217E-16	9.435302E-18
6.580000E+03	1.639667E-16	1.145910E-17
6.590000E+03	1.675300E-16	1.356485E-17
6.600000E+03	1.711565E-16	1.573493E-17
6.610000E+03	1.748695E-16	1.796325E-17
6.620000E+03	1.786942E-16	2.024800E-17
6.630000E+03	1.825719E-16	2.257964E-17
6.640000E+03	1.865268E-16	2.495830E-17
6.650000E+03	1.905552E-16	2.738167E-17
6.660000E+03	1.946531E-16	2.984757E-17
6.670000E+03	1.988160E-16	3.235389E-17
6.680000E+03	2.030390E-16	3.489843E-17
6.690000E+03	2.073168E-16	3.747886E-17
6.700000E+03	2.116103E-16	4.008635E-17
6.710000E+03	2.159796E-16	4.273050E-17
6.720000E+03	2.203857E-16	4.540253E-17
6.730000E+03	2.247863E-16	4.809180E-17
6.740000E+03	2.292448E-16	5.080984E-17
6.750000E+03	2.336825E-16	5.353765E-17
6.760000E+03	2.381275E-16	5.627924E-17
6.770000E+03	2.425725E-16	5.903093E-17
6.780000E+03	2.470491E-16	6.179867E-17
6.790000E+03	2.514725E-16	6.455947E-17
6.800000E+03	2.558737E-16	6.731868E-17
6.810000E+03	2.602041E-16	7.006120E-17
6.820000E+03	2.645383E-16	7.280471E-17
6.830000E+03	2.688288E-16	7.553455E-17
6.840000E+03	2.730687E-16	7.824671E-17
6.850000E+03	2.772079E-16	8.092447E-17
6.860000E+03	2.813271E-16	8.358915E-17
6.870000E+03	2.853775E-16	8.622465E-17
6.880000E+03	2.893078E-16	8.881331E-17
6.890000E+03	2.931577E-16	9.136495E-17
6.900000E+03	2.969699E-16	9.389123E-17
6.910000E+03	3.006470E-16	9.635978E-17
6.920000E+03	3.042322E-16	9.878232E-17
6.930000E+03	3.077228E-16	1.011563E-16
6.940000E+03	3.111169E-16	1.034796E-16
6.950000E+03	3.144129E-16	1.057501E-16
6.960000E+03	3.176102E-16	1.079662E-16
6.970000E+03	3.207088E-16	1.101267E-16
6.980000E+03	3.237092E-16	1.122304E-16
6.990000E+03	3.265609E-16	1.142585E-16
7.000000E+03	3.293690E-16	1.162467E-16
7.010000E+03	3.320848E-16	1.181769E-16
7.020000E+03	3.346582E-16	1.200304E-16
7.030000E+03	3.371452E-16	1.218261E-16
7.040000E+03	3.396042E-16	1.235846E-16
7.050000E+03	3.419322E-16	1.252678E-16
7.060000E+03	3.441881E-16	1.268965E-16
7.070000E+03	3.464324E-16	1.284925E-16
7.080000E+03	3.485609E-16	1.300169E-16
7.090000E+03	3.506344E-16	1.314916E-16
7.100000E+03	3.526589E-16	1.329187E-16
7.110000E+03	3.546406E-16	1.342999E-16
7.120000E+03	3.565285E-16	1.356158E-16
7.130000E+03	3.584423E-16	1.369114E-16
7.140000E+03	3.603310E-16	1.381672E-16
7.150000E+03	3.622002E-16	1.393852E-16
7.160000E+03	3.639967E-16	1.405445E-16
7.170000E+03	3.658415E-16	1.416916E-16
7.180000E+03	3.676218E-16	1.427828E-16
7.190000E+03	3.694589E-16	1.438647E-16
7.200000E+03	3.712376E-16	1.448925E-16
7.210000E+03	3.730190E-16	1.458897E-16
7.220000E+03	3.748048E-16	1.468565E-16
7.230000E+03	3.766563E-16	1.478170E-16
7.240000E+03	3.784526E-16	1.487232E-16
7.250000E+03	3.802530E-16	1.495982E-16
7.260000E+03	3.820556E-16	1.504408E-16
7.270000E+03	3.838576E-16	1.512496E-16
7.280000E+03	3.856553E-16	1.520226E-16
7.290000E+03	3.873815E-16	1.527330E-16
7.300000E+03	3.891552E-16	1.534272E-16
7.310000E+03	3.909077E-16	1.540776E-16
7.320000E+03	3.925680E-16	1.546557E-16
7.330000E+03	3.942545E-16	1.552076E-16
7.340000E+03	3.958947E-16	1.557043E-16
7.350000E+03	3.974141E-16	1.561159E-16
7.360000E+03	3.988660E-16	1.564628E-16
7.370000E+03	4.003038E-16	1.567655E-16
7.380000E+03	4.015860E-16	1.569679E-16
7.390000E+03	4.027648E-16	1.570901E-16
7.400000E+03	4.038274E-16	1.571266E-16
7.410000E+03	4.048266E-16	1.570976E-16
7.420000E+03	4.056175E-16	1.569464E-16
7.430000E+03	4.062527E-16	1.566932E-16
7.440000E+03	4.067188E-16	1.563328E-16
7.450000E+03	4.070029E-16	1.558601E-16
7.460000E+03	4.070260E-16	1.552449E-16
7.470000E+03	4.069091E-16	1.545336E-16
7.480000E+03	4.065743E-16	1.536969E-16
7.490000E+03	4.060108E-16	1.527311E-16
7.500000E+03	4.051426E-16	1.516081E-16
7.510000E+03	4.040939E-16	1.503756E-16
7.520000E+03	4.027244E-16	1.489820E-16
7.530000E+03	4.011602E-16	1.474753E-16
7.540000E+03	3.992642E-16	1.458061E-16
7.550000E+03	3.971645E-16	1.440230E-16
7.560000E+03	3.947275E-16	1.420791E-16
7.570000E+03	3.920185E-16	1.400000E-16
7.580000E+03	3.891025E-16	1.378109E-16
7.590000E+03	3.858528E-16	1.354690E-16
7.600000E+03	3.823379E-16	1.330012E-16
7.610000E+03	3.785632E-16	1.304121E-16
7.620000E+03	3.745355E-16	1.277067E-16
7.630000E+03	3.702629E-16	1.248910E-16
7.640000E+03	3.657551E-16	1.219712E-16
7.650000E+03	3.610229E-16	1.189544E-16
7.660000E+03	3.560783E-16	1.158478E-16
7.670000E+03	3.508760E-16	1.126404E-16
7.680000E+03	3.455480E-16	1.093787E-16
7.690000E+03	3.400501E-16	1.060517E-16
7.700000E+03	3.343982E-16	1.026680E-16
7.710000E+03	3.285537E-16	9.922002E-17
7.720000E+03	3.226448E-16	9.575037E-17
7.730000E+03	3.165799E-16	9.223536E-17
7.740000E+03	3.104841E-16	8.871542E-17
7.750000E+03	3.042699E-16	8.516894E-17
7.760000E+03	2.980086E-16	8.161998E-17
