#wls	flux	fluxerr
1.597604E+03	2.790756E-17	6.493049E-19
1.637544E+03	2.977555E-17	6.909188E-19
1.677484E+03	3.147276E-17	7.283018E-19
1.717424E+03	3.295302E-17	7.604126E-19
1.757364E+03	3.414687E-17	7.856872E-19
1.797304E+03	3.493346E-17	8.014043E-19
1.837244E+03	3.515985E-17	8.041447E-19
1.877184E+03	3.467375E-17	7.905512E-19
1.917124E+03	3.335602E-17	7.580706E-19
1.957064E+03	3.119800E-17	7.066944E-19
1.997004E+03	2.839169E-17	6.409559E-19
2.036945E+03	2.539860E-17	5.714002E-19
2.076885E+03	2.288316E-17	5.129809E-19
2.116825E+03	2.152822E-17	4.808479E-19
2.156765E+03	2.187225E-17	4.867060E-19
2.196705E+03	2.427081E-17	5.380087E-19
2.236645E+03	2.893019E-17	6.387711E-19
2.276585E+03	3.590585E-17	7.895954E-19
2.316525E+03	4.508217E-17	9.872906E-19
2.356465E+03	5.623564E-17	1.226330E-18
2.396405E+03	6.911072E-17	1.500549E-18
2.436345E+03	8.350142E-17	1.804930E-18
2.476286E+03	9.930639E-17	2.136768E-18
2.516226E+03	1.165199E-16	2.495426E-18
2.556166E+03	1.352205E-16	2.882050E-18
2.596106E+03	1.555816E-16	3.299747E-18
2.636046E+03	1.778167E-16	3.752377E-18
2.675986E+03	2.022073E-16	4.245115E-18
2.715926E+03	2.290608E-16	4.783529E-18
2.755866E+03	2.587567E-16	5.374521E-18
2.795806E+03	2.916987E-16	6.025286E-18
2.835746E+03	3.283657E-16	6.744343E-18
2.875686E+03	3.693185E-16	7.541618E-18
2.915627E+03	4.152307E-16	8.429012E-18
2.955567E+03	4.669333E-16	9.421220E-18
2.995507E+03	5.254712E-16	1.053676E-17
3.005492E+03	5.413169E-16	1.083744E-17
3.015477E+03	5.577001E-16	1.114780E-17
3.025462E+03	5.746307E-16	1.146798E-17
3.035447E+03	5.921893E-16	1.179952E-17
3.045432E+03	6.104879E-16	1.214459E-17
3.055417E+03	6.296897E-16	1.250635E-17
3.065402E+03	6.498057E-16	1.288493E-17
3.075387E+03	6.708761E-16	1.328102E-17
3.085372E+03	6.928842E-16	1.369419E-17
3.095357E+03	7.158688E-16	1.412512E-17
3.105342E+03	7.398192E-16	1.457349E-17
3.115327E+03	7.647457E-16	1.503939E-17
3.125312E+03	7.906320E-16	1.552240E-17
3.135297E+03	8.174513E-16	1.602189E-17
3.145282E+03	8.451694E-16	1.653710E-17
3.155267E+03	8.737697E-16	1.706760E-17
3.165252E+03	9.032207E-16	1.761267E-17
3.175237E+03	9.335552E-16	1.817287E-17
3.185222E+03	9.648461E-16	1.874950E-17
3.195207E+03	9.972415E-16	1.934534E-17
3.205192E+03	1.031009E-15	1.996544E-17
3.215177E+03	1.066478E-15	2.061601E-17
3.225162E+03	1.104197E-15	2.130748E-17
3.235147E+03	1.144737E-15	2.205057E-17
3.245132E+03	1.188904E-15	2.286049E-17
3.255117E+03	1.237510E-15	2.375245E-17
3.265102E+03	1.291500E-15	2.474405E-17
3.275087E+03	1.351827E-15	2.585298E-17
3.285072E+03	1.419405E-15	2.709599E-17
3.295057E+03	1.495138E-15	2.848953E-17
3.305042E+03	1.579705E-15	3.004562E-17
3.315027E+03	1.673623E-15	3.177314E-17
3.325012E+03	1.777198E-15	3.367688E-17
3.334998E+03	1.890320E-15	3.575370E-17
3.344983E+03	2.012561E-15	3.799447E-17
3.354968E+03	2.143111E-15	4.038291E-17
3.364953E+03	2.280800E-15	4.289613E-17
3.374938E+03	2.424011E-15	4.550292E-17
3.384923E+03	2.570886E-15	4.816789E-17
3.394908E+03	2.719410E-15	5.085290E-17
3.404893E+03	2.867429E-15	5.351750E-17
3.414878E+03	3.012896E-15	5.612364E-17
3.424863E+03	3.153912E-15	5.863619E-17
3.434848E+03	3.289030E-15	6.102878E-17
3.444833E+03	3.417176E-15	6.328211E-17
3.454818E+03	3.537591E-15	6.538290E-17
3.464803E+03	3.649931E-15	6.732561E-17
3.474788E+03	3.754008E-15	6.910766E-17
3.484773E+03	3.849753E-15	7.072865E-17
3.494758E+03	3.936759E-15	7.218202E-17
3.504743E+03	4.014498E-15	7.345905E-17
3.514728E+03	4.081909E-15	7.454139E-17
3.524713E+03	4.137594E-15	7.540470E-17
3.534698E+03	4.179891E-15	7.602004E-17
3.544683E+03	4.207042E-15	7.635701E-17
3.554668E+03	4.217594E-15	7.639097E-17
3.564653E+03	4.210395E-15	7.610297E-17
3.574638E+03	4.184958E-15	7.548621E-17
3.584623E+03	4.141420E-15	7.454525E-17
3.594608E+03	4.080366E-15	7.329264E-17
3.604593E+03	4.002983E-15	7.175164E-17
3.614578E+03	3.911110E-15	6.995704E-17
3.624563E+03	3.807408E-15	6.795800E-17
3.634548E+03	3.695388E-15	6.581843E-17
3.644533E+03	3.579073E-15	6.361078E-17
3.654518E+03	3.462807E-15	6.141261E-17
3.664503E+03	3.350634E-15	5.929555E-17
3.674488E+03	3.246196E-15	5.732342E-17
3.684473E+03	3.152561E-15	5.554946E-17
3.694458E+03	3.072124E-15	5.401452E-17
3.704443E+03	3.006818E-15	5.275106E-17
3.714428E+03	2.958150E-15	5.178372E-17
3.724413E+03	2.927064E-15	5.112707E-17
3.734398E+03	2.914041E-15	5.078748E-17
3.744383E+03	2.919100E-15	5.076324E-17
3.754368E+03	2.941627E-15	5.104157E-17
3.764353E+03	2.980432E-15	5.159987E-17
3.774338E+03	3.033657E-15	5.240415E-17
3.784324E+03	3.098639E-15	5.340686E-17
3.794309E+03	3.171997E-15	5.454850E-17
3.804294E+03	3.249697E-15	5.575886E-17
3.814279E+03	3.327252E-15	5.696063E-17
3.824264E+03	3.400062E-15	5.807526E-17
3.834249E+03	3.463712E-15	5.902805E-17
3.844234E+03	3.514506E-15	5.975726E-17
3.854219E+03	3.549792E-15	6.021939E-17
3.864204E+03	3.568194E-15	6.039296E-17
3.874189E+03	3.569831E-15	6.028194E-17
3.884174E+03	3.556287E-15	5.991502E-17
3.894159E+03	3.530273E-15	5.933953E-17
3.904144E+03	3.495291E-15	5.861566E-17
3.914129E+03	3.455302E-15	5.781072E-17
3.924114E+03	3.414181E-15	5.699002E-17
3.934099E+03	3.375283E-15	5.620955E-17
3.944084E+03	3.341331E-15	5.551431E-17
3.954069E+03	3.314084E-15	5.493290E-17
3.964054E+03	3.294282E-15	5.447678E-17
3.974039E+03	3.281736E-15	5.414195E-17
3.984024E+03	3.275702E-15	5.391535E-17
3.994009E+03	3.274987E-15	5.377664E-17
4.003994E+03	3.278375E-15	5.370529E-17
4.013979E+03	3.284865E-15	5.368447E-17
4.023964E+03	3.293634E-15	5.370044E-17
4.033949E+03	3.304166E-15	5.374451E-17
4.043934E+03	3.315925E-15	5.380783E-17
4.053919E+03	3.328446E-15	5.388274E-17
4.063904E+03	3.340988E-15	5.395718E-17
4.073889E+03	3.352669E-15	5.401694E-17
4.083874E+03	3.362569E-15	5.404739E-17
4.093859E+03	3.369679E-15	5.403252E-17
4.103844E+03	3.373211E-15	5.396009E-17
4.113829E+03	3.372357E-15	5.381764E-17
4.123814E+03	3.366478E-15	5.359548E-17
4.133799E+03	3.354978E-15	5.328474E-17
4.143784E+03	3.337214E-15	5.287589E-17
4.153769E+03	3.312593E-15	5.236028E-17
4.163754E+03	3.280542E-15	5.172968E-17
4.173739E+03	3.240633E-15	5.097816E-17
4.183724E+03	3.192879E-15	5.010684E-17
4.193709E+03	3.137770E-15	4.912428E-17
4.203694E+03	3.076642E-15	4.805217E-17
4.213679E+03	3.011493E-15	4.692230E-17
4.223665E+03	2.944986E-15	4.577650E-17
4.233650E+03	2.880023E-15	4.465992E-17
4.243635E+03	2.819308E-15	4.361424E-17
4.253620E+03	2.765104E-15	4.267384E-17
4.263605E+03	2.718741E-15	4.185852E-17
4.273590E+03	2.680528E-15	4.117214E-17
4.283575E+03	2.649800E-15	4.060360E-17
4.293560E+03	2.625183E-15	4.013109E-17
4.303545E+03	2.604903E-15	3.972689E-17
4.313530E+03	2.587237E-15	3.936433E-17
4.323515E+03	2.571237E-15	3.902871E-17
4.333500E+03	2.556998E-15	3.872131E-17
4.343485E+03	2.546214E-15	3.846755E-17
4.353470E+03	2.542226E-15	3.831737E-17
4.363455E+03	2.550272E-15	3.834883E-17
4.373440E+03	2.577412E-15	3.866657E-17
4.383425E+03	2.631475E-15	3.938576E-17
4.393410E+03	2.712955E-15	4.051097E-17
4.403395E+03	2.814461E-15	4.192929E-17
4.413380E+03	2.927749E-15	4.351613E-17
4.423365E+03	3.044567E-15	4.514794E-17
4.433350E+03	3.156909E-15	4.670597E-17
4.443335E+03	3.257398E-15	4.808183E-17
4.453320E+03	3.340114E-15	4.918957E-17
4.463305E+03	3.401112E-15	4.997306E-17
4.473290E+03	3.438989E-15	5.041397E-17
4.483275E+03	3.454923E-15	5.053187E-17
4.493260E+03	3.452208E-15	5.037704E-17
4.503245E+03	3.435442E-15	5.001826E-17
4.513230E+03	3.409620E-15	4.952949E-17
4.523215E+03	3.379297E-15	4.897764E-17
4.533200E+03	3.348223E-15	4.841736E-17
4.543185E+03	3.318864E-15	4.788429E-17
4.553170E+03	3.292622E-15	4.739843E-17
4.563155E+03	3.269982E-15	4.696642E-17
4.573140E+03	3.250879E-15	4.658697E-17
4.583125E+03	3.234864E-15	4.625332E-17
4.593110E+03	3.221354E-15	4.595682E-17
4.603095E+03	3.209919E-15	4.569113E-17
4.613080E+03	3.200138E-15	4.545005E-17
4.623065E+03	3.191779E-15	4.523013E-17
4.633050E+03	3.184847E-15	4.503131E-17
4.643035E+03	3.179547E-15	4.485632E-17
4.653020E+03	3.176244E-15	4.471016E-17
4.663005E+03	3.175636E-15	4.460243E-17
4.672991E+03	3.178371E-15	4.454198E-17
4.682976E+03	3.184928E-15	4.453518E-17
4.692961E+03	3.195434E-15	4.458345E-17
4.702946E+03	3.209448E-15	4.468030E-17
4.712931E+03	3.225956E-15	4.481132E-17
4.722916E+03	3.243315E-15	4.495349E-17
4.732901E+03	3.259613E-15	4.508034E-17
4.742886E+03	3.272856E-15	4.516442E-17
4.752871E+03	3.281118E-15	4.517953E-17
4.762856E+03	3.283027E-15	4.510725E-17
4.772841E+03	3.277661E-15	4.493551E-17
4.782826E+03	3.264716E-15	4.466082E-17
4.792811E+03	3.244610E-15	4.428957E-17
4.802796E+03	3.218217E-15	4.383427E-17
4.812781E+03	3.187165E-15	4.331760E-17
4.822766E+03	3.153390E-15	4.276624E-17
4.832751E+03	3.119343E-15	4.221357E-17
4.842736E+03	3.087531E-15	4.169347E-17
4.852721E+03	3.060510E-15	4.124018E-17
4.862706E+03	3.040389E-15	4.088163E-17
4.872691E+03	3.028801E-15	4.063914E-17
4.882676E+03	3.026678E-15	4.052445E-17
4.892661E+03	3.034206E-15	4.053925E-17
4.902646E+03	3.050950E-15	4.067691E-17
4.912631E+03	3.075970E-15	4.092417E-17
4.922616E+03	3.108081E-15	4.126463E-17
4.932601E+03	3.145996E-15	4.168064E-17
4.942586E+03	3.188765E-15	4.215922E-17
4.952571E+03	3.235724E-15	4.269119E-17
4.962556E+03	3.286829E-15	4.327568E-17
4.972541E+03	3.342462E-15	4.391740E-17
4.982526E+03	3.403378E-15	4.462591E-17
4.992511E+03	3.470408E-15	4.541169E-17
5.002496E+03	3.544183E-15	4.628256E-17
5.012481E+03	3.624657E-15	4.723740E-17
5.022466E+03	3.711056E-15	4.826567E-17
5.032451E+03	3.801605E-15	4.934394E-17
5.042436E+03	3.893750E-15	5.043883E-17
5.052421E+03	3.984246E-15	5.150836E-17
5.062406E+03	4.069585E-15	5.250743E-17
5.072391E+03	4.146499E-15	5.339443E-17
5.082376E+03	4.212248E-15	5.413487E-17
5.092361E+03	4.264856E-15	5.470428E-17
5.102346E+03	4.303250E-15	5.508995E-17
5.112332E+03	4.327365E-15	5.529218E-17
5.122317E+03	4.337750E-15	5.531904E-17
5.132302E+03	4.335655E-15	5.518747E-17
5.142287E+03	4.322751E-15	5.491963E-17
5.152272E+03	4.300920E-15	5.454017E-17
5.162257E+03	4.271989E-15	5.407286E-17
5.172242E+03	4.237655E-15	5.353965E-17
5.182227E+03	4.199080E-15	5.295554E-17
5.192212E+03	4.157040E-15	5.233062E-17
5.202197E+03	4.111679E-15	5.166690E-17
5.212182E+03	4.062951E-15	5.096403E-17
5.222167E+03	4.010526E-15	5.021808E-17
5.232152E+03	3.954302E-15	4.942800E-17
5.242137E+03	3.894323E-15	4.859456E-17
5.252122E+03	3.831084E-15	4.772415E-17
5.262107E+03	3.765345E-15	4.682639E-17
5.272092E+03	3.697995E-15	4.591245E-17
5.282077E+03	3.630083E-15	4.499538E-17
5.292062E+03	3.562687E-15	4.408854E-17
5.302047E+03	3.496805E-15	4.320416E-17
5.312032E+03	3.433424E-15	4.235430E-17
5.322017E+03	3.373537E-15	4.155101E-17
5.332002E+03	3.318018E-15	4.080480E-17
5.341987E+03	3.267478E-15	4.012287E-17
5.351972E+03	3.222115E-15	3.950739E-17
5.361957E+03	3.181750E-15	3.895581E-17
5.371942E+03	3.145679E-15	3.845926E-17
5.381927E+03	3.112806E-15	3.800412E-17
5.391912E+03	3.081621E-15	3.757178E-17
5.401897E+03	3.050472E-15	3.714204E-17
5.411882E+03	3.017644E-15	3.669397E-17
5.421867E+03	2.981598E-15	3.620894E-17
5.431852E+03	2.941464E-15	3.567647E-17
5.441837E+03	2.897178E-15	3.509595E-17
5.451822E+03	2.849752E-15	3.447973E-17
5.461807E+03	2.801724E-15	3.385859E-17
5.471792E+03	2.756575E-15	3.327449E-17
5.481777E+03	2.717779E-15	3.276916E-17
5.491762E+03	2.687515E-15	3.236851E-17
5.501747E+03	2.666669E-15	3.208285E-17
5.511732E+03	2.654544E-15	3.190339E-17
5.521717E+03	2.649952E-15	3.181551E-17
5.531702E+03	2.651547E-15	3.180280E-17
5.541687E+03	2.657949E-15	3.184847E-17
5.551672E+03	2.667574E-15	3.193340E-17
5.561658E+03	2.678671E-15	3.203653E-17
5.571643E+03	2.689549E-15	3.213763E-17
5.581628E+03	2.698721E-15	3.221892E-17
5.591613E+03	2.705125E-15	3.226782E-17
5.601598E+03	2.708281E-15	3.227867E-17
5.611583E+03	2.708257E-15	3.225239E-17
5.621568E+03	2.705641E-15	3.219605E-17
5.631553E+03	2.701397E-15	3.212118E-17
5.641538E+03	2.696613E-15	3.204074E-17
5.651523E+03	2.692343E-15	3.196726E-17
5.661508E+03	2.689397E-15	3.191031E-17
5.671493E+03	2.688244E-15	3.187544E-17
5.681478E+03	2.688999E-15	3.186393E-17
5.691463E+03	2.691407E-15	3.187274E-17
5.701448E+03	2.694959E-15	3.189580E-17
5.711433E+03	2.699053E-15	3.192596E-17
5.721418E+03	2.703061E-15	3.195578E-17
5.731403E+03	2.706495E-15	3.197951E-17
5.741388E+03	2.708974E-15	3.199265E-17
5.751373E+03	2.710355E-15	3.199353E-17
5.761358E+03	2.710508E-15	3.198065E-17
5.771343E+03	2.709339E-15	3.195290E-17
5.781328E+03	2.706761E-15	3.190929E-17
5.791313E+03	2.702477E-15	3.184632E-17
5.801298E+03	2.696182E-15	3.176042E-17
5.811283E+03	2.687406E-15	3.164610E-17
5.821268E+03	2.675638E-15	3.149734E-17
5.831253E+03	2.660398E-15	3.130852E-17
5.841238E+03	2.641496E-15	3.107745E-17
5.851223E+03	2.618973E-15	3.080462E-17
5.861208E+03	2.593275E-15	3.049528E-17
5.871193E+03	2.565044E-15	3.015701E-17
5.881178E+03	2.534974E-15	2.979795E-17
5.891163E+03	2.503712E-15	2.942569E-17
5.901148E+03	2.471719E-15	2.904565E-17
5.911133E+03	2.439188E-15	2.866005E-17
5.921118E+03	2.406289E-15	2.827089E-17
5.931103E+03	2.373175E-15	2.787995E-17
5.941088E+03	2.340145E-15	2.749071E-17
5.951073E+03	2.307598E-15	2.710781E-17
5.961058E+03	2.276154E-15	2.673854E-17
5.971043E+03	2.246371E-15	2.638943E-17
5.981028E+03	2.218845E-15	2.606745E-17
5.991013E+03	2.194091E-15	2.577865E-17
6.000999E+03	2.172568E-15	2.552840E-17
6.010984E+03	2.154765E-15	2.532246E-17
6.020969E+03	2.141052E-15	2.516518E-17
6.030954E+03	2.131820E-15	2.506117E-17
6.040939E+03	2.127197E-15	2.501196E-17
6.050924E+03	2.127240E-15	2.501826E-17
6.060909E+03	2.131692E-15	2.507709E-17
6.070894E+03	2.140114E-15	2.518334E-17
6.080879E+03	2.151740E-15	2.532804E-17
6.090864E+03	2.165625E-15	2.550013E-17
6.100849E+03	2.180642E-15	2.568637E-17
6.110834E+03	2.195620E-15	2.587300E-17
6.120819E+03	2.209394E-15	2.604632E-17
6.130804E+03	2.221021E-15	2.619521E-17
6.140789E+03	2.229884E-15	2.631236E-17
6.150774E+03	2.235692E-15	2.639432E-17
6.160759E+03	2.238421E-15	2.644077E-17
6.170744E+03	2.238321E-15	2.645460E-17
6.180729E+03	2.235636E-15	2.643868E-17
6.190714E+03	2.230542E-15	2.639502E-17
6.200699E+03	2.223112E-15	2.632443E-17
6.210684E+03	2.213362E-15	2.622706E-17
6.220669E+03	2.201416E-15	2.610434E-17
6.230654E+03	2.187706E-15	2.596129E-17
6.240639E+03	2.172956E-15	2.580651E-17
6.250624E+03	2.158292E-15	2.565331E-17
6.260609E+03	2.145277E-15	2.552028E-17
6.270594E+03	2.135509E-15	2.542653E-17
6.280579E+03	2.130413E-15	2.538909E-17
6.290564E+03	2.131196E-15	2.542255E-17
6.300549E+03	2.138346E-15	2.553295E-17
6.310534E+03	2.151848E-15	2.572032E-17
6.320519E+03	2.170964E-15	2.597614E-17
6.330504E+03	2.194539E-15	2.628678E-17
6.340489E+03	2.221035E-15	2.663404E-17
6.350474E+03	2.248665E-15	2.699661E-17
6.360459E+03	2.275492E-15	2.735131E-17
6.370444E+03	2.299530E-15	2.767425E-17
6.380429E+03	2.318932E-15	2.794304E-17
6.390414E+03	2.332242E-15	2.813990E-17
6.400399E+03	2.338398E-15	2.825175E-17
6.410384E+03	2.337069E-15	2.827419E-17
6.420369E+03	2.328499E-15	2.820981E-17
6.430354E+03	2.313510E-15	2.806816E-17
6.440339E+03	2.293290E-15	2.786333E-17
6.450325E+03	2.269188E-15	2.761141E-17
6.460310E+03	2.242502E-15	2.732794E-17
6.470295E+03	2.214635E-15	2.702988E-17
6.480280E+03	2.187254E-15	2.673749E-17
6.490265E+03	2.162453E-15	2.647638E-17
6.500250E+03	2.143049E-15	2.628121E-17
6.510235E+03	2.132136E-15	2.619025E-17
6.520220E+03	2.131744E-15	2.622900E-17
6.530205E+03	2.142038E-15	2.640009E-17
6.540190E+03	2.161231E-15	2.668212E-17
6.550175E+03	2.185979E-15	2.703430E-17
6.560160E+03	2.213131E-15	2.741796E-17
6.570145E+03	2.240149E-15	2.780176E-17
6.580130E+03	2.265304E-15	2.816419E-17
6.590115E+03	2.287580E-15	2.849249E-17
6.600100E+03	2.306373E-15	2.877891E-17
6.610085E+03	2.321521E-15	2.902121E-17
6.620070E+03	2.333179E-15	2.922106E-17
6.630055E+03	2.341496E-15	2.938008E-17
6.640040E+03	2.346774E-15	2.950182E-17
6.650025E+03	2.349392E-15	2.959084E-17
6.660010E+03	2.349661E-15	2.965083E-17
6.669995E+03	2.347922E-15	2.968595E-17
6.679980E+03	2.344536E-15	2.970058E-17
6.689965E+03	2.339710E-15	2.969723E-17
6.699950E+03	2.333694E-15	2.967895E-17
6.709935E+03	2.326779E-15	2.964933E-17
6.719920E+03	2.319065E-15	2.960958E-17
6.729905E+03	2.310709E-15	2.956161E-17
6.739890E+03	2.301895E-15	2.950772E-17
6.749875E+03	2.292717E-15	2.944908E-17
6.759860E+03	2.283304E-15	2.938728E-17
6.769845E+03	2.273776E-15	2.932384E-17
6.779830E+03	2.264237E-15	2.926008E-17
6.789815E+03	2.254731E-15	2.919657E-17
6.799800E+03	2.245363E-15	2.913463E-17
6.809785E+03	2.236176E-15	2.907484E-17
6.819770E+03	2.227154E-15	2.901696E-17
6.829755E+03	2.218343E-15	2.896162E-17
6.839740E+03	2.209692E-15	2.890814E-17
6.849725E+03	2.201172E-15	2.885615E-17
6.859710E+03	2.192745E-15	2.880514E-17
6.869695E+03	2.184320E-15	2.875391E-17
6.879680E+03	2.175930E-15	2.870288E-17
6.889666E+03	2.167499E-15	2.865105E-17
6.899651E+03	2.158972E-15	2.859767E-17
6.909636E+03	2.150410E-15	2.854351E-17
6.919621E+03	2.141827E-15	2.848877E-17
6.929606E+03	2.133315E-15	2.843466E-17
6.939591E+03	2.125040E-15	2.838339E-17
6.949576E+03	2.117103E-15	2.833632E-17
6.959561E+03	2.109658E-15	2.829555E-17
6.969546E+03	2.102850E-15	2.826303E-17
6.979531E+03	2.096797E-15	2.824041E-17
6.989516E+03	2.091534E-15	2.822824E-17
6.999501E+03	2.087163E-15	2.822793E-17
7.009486E+03	2.083553E-15	2.823779E-17
7.019471E+03	2.080586E-15	2.825626E-17
7.029456E+03	2.078122E-15	2.828150E-17
7.039441E+03	2.075891E-15	2.830985E-17
7.049426E+03	2.073640E-15	2.833788E-17
7.059411E+03	2.071117E-15	2.836214E-17
7.069396E+03	2.068090E-15	2.837939E-17
7.079381E+03	2.064398E-15	2.838739E-17
7.089366E+03	2.059799E-15	2.838273E-17
7.099351E+03	2.054170E-15	2.836365E-17
7.109336E+03	2.047464E-15	2.832938E-17
7.119321E+03	2.039621E-15	2.827902E-17
7.129306E+03	2.030564E-15	2.821139E-17
7.139291E+03	2.020319E-15	2.812674E-17
7.149276E+03	2.008807E-15	2.802387E-17
7.159261E+03	1.996132E-15	2.790411E-17
7.169246E+03	1.982290E-15	2.776731E-17
7.179231E+03	1.967333E-15	2.761408E-17
7.189216E+03	1.951286E-15	2.744472E-17
7.199201E+03	1.934315E-15	2.726141E-17
7.209186E+03	1.916437E-15	2.706436E-17
7.219171E+03	1.897809E-15	2.685569E-17
7.229156E+03	1.878526E-15	2.663668E-17
7.239141E+03	1.858772E-15	2.640990E-17
7.249126E+03	1.838665E-15	2.617696E-17
7.259111E+03	1.818358E-15	2.594004E-17
7.269096E+03	1.798037E-15	2.570177E-17
7.279081E+03	1.777798E-15	2.546353E-17
7.289066E+03	1.757798E-15	2.522756E-17
7.299051E+03	1.738064E-15	2.499428E-17
7.309036E+03	1.718721E-15	2.476552E-17
7.319021E+03	1.699879E-15	2.454289E-17
7.329006E+03	1.681528E-15	2.432630E-17
7.338992E+03	1.663761E-15	2.411715E-17
7.348977E+03	1.646598E-15	2.391574E-17
7.358962E+03	1.630127E-15	2.372345E-17
7.368947E+03	1.614375E-15	2.354070E-17
7.378932E+03	1.599407E-15	2.336853E-17
7.388917E+03	1.585302E-15	2.320814E-17
7.398902E+03	1.572107E-15	2.306032E-17
7.408887E+03	1.559908E-15	2.292638E-17
7.418872E+03	1.548778E-15	2.280751E-17
7.428857E+03	1.538772E-15	2.270462E-17
7.438842E+03	1.529952E-15	2.261870E-17
7.448827E+03	1.522272E-15	2.254919E-17
7.458812E+03	1.515749E-15	2.249643E-17
7.468797E+03	1.510289E-15	2.245914E-17
7.478782E+03	1.505759E-15	2.243542E-17
7.488767E+03	1.501986E-15	2.242278E-17
7.498752E+03	1.498763E-15	2.241819E-17
7.508737E+03	1.495919E-15	2.241913E-17
7.518722E+03	1.493114E-15	2.242053E-17
7.528707E+03	1.490087E-15	2.241848E-17
7.538692E+03	1.486528E-15	2.240828E-17
7.548677E+03	1.482165E-15	2.238577E-17
7.558662E+03	1.476648E-15	2.234562E-17
7.568647E+03	1.469786E-15	2.228479E-17
7.578632E+03	1.461432E-15	2.220097E-17
7.588617E+03	1.451579E-15	2.209389E-17
7.598602E+03	1.440224E-15	2.196341E-17
7.608587E+03	1.427610E-15	2.181307E-17
7.618572E+03	1.413953E-15	2.164610E-17
7.628557E+03	1.399510E-15	2.146635E-17
7.638542E+03	1.384630E-15	2.127909E-17
7.648527E+03	1.369496E-15	2.108712E-17
7.658512E+03	1.354234E-15	2.089237E-17
7.668497E+03	1.338869E-15	2.069519E-17
7.678482E+03	1.323330E-15	2.049450E-17
7.688467E+03	1.307480E-15	2.028813E-17
7.698452E+03	1.291170E-15	2.007375E-17
7.708437E+03	1.274147E-15	1.984737E-17
7.718422E+03	1.256297E-15	1.960717E-17
7.728407E+03	1.237451E-15	1.935040E-17
7.738392E+03	1.217520E-15	1.907560E-17
7.748377E+03	1.196472E-15	1.878216E-17
