#wls	flux	fluxerr
1.597604E+03	1.466635E-16	8.266876E-19
1.637544E+03	1.561047E-16	8.799042E-19
1.677484E+03	1.645794E-16	9.276723E-19
1.717424E+03	1.718371E-16	9.685815E-19
1.757364E+03	1.775414E-16	1.000734E-18
1.797304E+03	1.810641E-16	1.020590E-18
1.837244E+03	1.816364E-16	1.023815E-18
1.877184E+03	1.785071E-16	1.006177E-18
1.917124E+03	1.711074E-16	9.644674E-19
1.957064E+03	1.594311E-16	8.986522E-19
1.997004E+03	1.445456E-16	8.147480E-19
2.036945E+03	1.288154E-16	7.260830E-19
2.076885E+03	1.156086E-16	6.516409E-19
2.116825E+03	1.083686E-16	6.108322E-19
2.156765E+03	1.097192E-16	6.184449E-19
2.196705E+03	1.213617E-16	6.840690E-19
2.236645E+03	1.442273E-16	8.129534E-19
2.276585E+03	1.783851E-16	1.005487E-18
2.316525E+03	2.232307E-16	1.258264E-18
2.356465E+03	2.776029E-16	1.564739E-18
2.396405E+03	3.401866E-16	1.917498E-18
2.436345E+03	4.099034E-16	2.310464E-18
2.476286E+03	4.861362E-16	2.740158E-18
2.516226E+03	5.687357E-16	3.205738E-18
2.556166E+03	6.579225E-16	3.708448E-18
2.596106E+03	7.542673E-16	4.251505E-18
2.636046E+03	8.585704E-16	4.839419E-18
2.675986E+03	9.717862E-16	5.477571E-18
2.715926E+03	1.094978E-15	6.171952E-18
2.755866E+03	1.229354E-15	6.929375E-18
2.795806E+03	1.376001E-15	7.755964E-18
2.835746E+03	1.536027E-15	8.657964E-18
2.875686E+03	1.710672E-15	9.642368E-18
2.915627E+03	1.901317E-15	1.071695E-17
2.955567E+03	2.109751E-15	1.189181E-17
2.995507E+03	2.338099E-15	1.317892E-17
3.005492E+03	2.398550E-15	1.351965E-17
3.015477E+03	2.460424E-15	1.386841E-17
3.025462E+03	2.523800E-15	1.422564E-17
3.035447E+03	2.588840E-15	1.459223E-17
3.045432E+03	2.655996E-15	1.497077E-17
3.055417E+03	2.725943E-15	1.536503E-17
3.065402E+03	2.798565E-15	1.577437E-17
3.075387E+03	2.873934E-15	1.619919E-17
3.085372E+03	2.951953E-15	1.663895E-17
3.095357E+03	3.032656E-15	1.709385E-17
3.105342E+03	3.116021E-15	1.756373E-17
3.115327E+03	3.202072E-15	1.804877E-17
3.125312E+03	3.290623E-15	1.854790E-17
3.135297E+03	3.381189E-15	1.905838E-17
3.145282E+03	3.473158E-15	1.957677E-17
3.155267E+03	3.565727E-15	2.009854E-17
3.165252E+03	3.658302E-15	2.062035E-17
3.175237E+03	3.750128E-15	2.113794E-17
3.185222E+03	3.840815E-15	2.164910E-17
3.195207E+03	3.930377E-15	2.215392E-17
3.205192E+03	4.019243E-15	2.265482E-17
3.215177E+03	4.108561E-15	2.315827E-17
3.225162E+03	4.200502E-15	2.367650E-17
3.235147E+03	4.297953E-15	2.422579E-17
3.245132E+03	4.404675E-15	2.482734E-17
3.255117E+03	4.524688E-15	2.550380E-17
3.265102E+03	4.662994E-15	2.628338E-17
3.275087E+03	4.824256E-15	2.719235E-17
3.285072E+03	5.012860E-15	2.825542E-17
3.295057E+03	5.232953E-15	2.949600E-17
3.305042E+03	5.487779E-15	3.093235E-17
3.315027E+03	5.779104E-15	3.257443E-17
3.325012E+03	6.107103E-15	3.442322E-17
3.334998E+03	6.470577E-15	3.647197E-17
3.344983E+03	6.866516E-15	3.870371E-17
3.354968E+03	7.289912E-15	4.109022E-17
3.364953E+03	7.734300E-15	4.359505E-17
3.374938E+03	8.191879E-15	4.617423E-17
3.384923E+03	8.653892E-15	4.877841E-17
3.394908E+03	9.110351E-15	5.135127E-17
3.404893E+03	9.552154E-15	5.384154E-17
3.414878E+03	9.970735E-15	5.620090E-17
3.424863E+03	1.035863E-14	5.838730E-17
3.434848E+03	1.071312E-14	6.038539E-17
3.444833E+03	1.103384E-14	6.219319E-17
3.454818E+03	1.132225E-14	6.381882E-17
3.464803E+03	1.158345E-14	6.529111E-17
3.474788E+03	1.182314E-14	6.664214E-17
3.484773E+03	1.204675E-14	6.790250E-17
3.494758E+03	1.225802E-14	6.909334E-17
3.504743E+03	1.245812E-14	7.022126E-17
3.514728E+03	1.264513E-14	7.127532E-17
3.524713E+03	1.281151E-14	7.221314E-17
3.534698E+03	1.294612E-14	7.297189E-17
3.544683E+03	1.303753E-14	7.348710E-17
3.554668E+03	1.307629E-14	7.370559E-17
3.564653E+03	1.305556E-14	7.358877E-17
3.574638E+03	1.297740E-14	7.314816E-17
3.584623E+03	1.285668E-14	7.246775E-17
3.594608E+03	1.269772E-14	7.157175E-17
3.604593E+03	1.248411E-14	7.036772E-17
3.614578E+03	1.220442E-14	6.879119E-17
3.624563E+03	1.185479E-14	6.682051E-17
3.634548E+03	1.144064E-14	6.448609E-17
3.644533E+03	1.098402E-14	6.191230E-17
3.654518E+03	1.051305E-14	5.925768E-17
3.664503E+03	1.005211E-14	5.665953E-17
3.674488E+03	9.617233E-15	5.420831E-17
3.684473E+03	9.220145E-15	5.197009E-17
3.694458E+03	8.871720E-15	5.000616E-17
3.699451E+03	6.577277E-15	3.707335E-17
3.700919E+03	6.588811E-15	3.713836E-17
3.702386E+03	6.599740E-15	3.719997E-17
3.703854E+03	6.620161E-15	3.731507E-17
3.705322E+03	6.628897E-15	3.736431E-17
3.706790E+03	6.638988E-15	3.742119E-17
3.708258E+03	6.675246E-15	3.762556E-17
3.709725E+03	6.706836E-15	3.780362E-17
3.711193E+03	6.722888E-15	3.789410E-17
3.712661E+03	6.730261E-15	3.793566E-17
3.714129E+03	6.743215E-15	3.800867E-17
3.715597E+03	6.755035E-15	3.807530E-17
3.717064E+03	6.767835E-15	3.814745E-17
3.718532E+03	6.796275E-15	3.830775E-17
3.720000E+03	6.823966E-15	3.846383E-17
3.721468E+03	6.851210E-15	3.861739E-17
3.722936E+03	6.868704E-15	3.871600E-17
3.724403E+03	6.875762E-15	3.875579E-17
3.725871E+03	6.881985E-15	3.879086E-17
3.727339E+03	6.897359E-15	3.887752E-17
3.728807E+03	6.915535E-15	3.897997E-17
3.730275E+03	6.930762E-15	3.906579E-17
3.731742E+03	6.954470E-15	3.919943E-17
3.733210E+03	6.989320E-15	3.939586E-17
3.734678E+03	7.021832E-15	3.957912E-17
3.736146E+03	7.044425E-15	3.970646E-17
3.737614E+03	7.064295E-15	3.981846E-17
3.739081E+03	7.092433E-15	3.997706E-17
3.740549E+03	7.133929E-15	4.021096E-17
3.742017E+03	7.174376E-15	4.043894E-17
3.743485E+03	7.207553E-15	4.062595E-17
3.744953E+03	7.231405E-15	4.076039E-17
3.746420E+03	7.259211E-15	4.091712E-17
3.747888E+03	7.290290E-15	4.109230E-17
3.749356E+03	7.320089E-15	4.126027E-17
3.750824E+03	7.357495E-15	4.147111E-17
3.752292E+03	7.384653E-15	4.162419E-17
3.753759E+03	7.423832E-15	4.184502E-17
3.755227E+03	7.465381E-15	4.207921E-17
3.756695E+03	7.499492E-15	4.227148E-17
3.758163E+03	7.535746E-15	4.247583E-17
3.759631E+03	7.575588E-15	4.270040E-17
3.761098E+03	7.618185E-15	4.294051E-17
3.762566E+03	7.677089E-15	4.327252E-17
3.764034E+03	7.737540E-15	4.361326E-17
3.765502E+03	7.795731E-15	4.394126E-17
3.766970E+03	7.850138E-15	4.424793E-17
3.768437E+03	7.906089E-15	4.456330E-17
3.769905E+03	7.957492E-15	4.485304E-17
3.771373E+03	8.006629E-15	4.513000E-17
3.772841E+03	8.074084E-15	4.551022E-17
3.774309E+03	8.148434E-15	4.592929E-17
3.775776E+03	8.200691E-15	4.622385E-17
3.777244E+03	8.251444E-15	4.650992E-17
3.778712E+03	8.298404E-15	4.677461E-17
3.780180E+03	8.380498E-15	4.723734E-17
3.781648E+03	8.457282E-15	4.767014E-17
3.783115E+03	8.520352E-15	4.802564E-17
3.784583E+03	8.569700E-15	4.830379E-17
3.786051E+03	8.627473E-15	4.862943E-17
3.787519E+03	8.666928E-15	4.885182E-17
3.788987E+03	8.710222E-15	4.909586E-17
3.790454E+03	8.755829E-15	4.935292E-17
3.791922E+03	8.806808E-15	4.964027E-17
3.793390E+03	8.844806E-15	4.985445E-17
3.794858E+03	8.911895E-15	5.023260E-17
3.796326E+03	8.980544E-15	5.061955E-17
3.797793E+03	9.047693E-15	5.099804E-17
3.799261E+03	9.112577E-15	5.136376E-17
3.800729E+03	9.180552E-15	5.174690E-17
3.802197E+03	9.247026E-15	5.212159E-17
3.803665E+03	9.314295E-15	5.250076E-17
3.805132E+03	9.373165E-15	5.283259E-17
3.806600E+03	9.425164E-15	5.312568E-17
3.808068E+03	9.486385E-15	5.347076E-17
3.809536E+03	9.529230E-15	5.371225E-17
3.811003E+03	9.573627E-15	5.396250E-17
3.812471E+03	9.615744E-15	5.419990E-17
3.813939E+03	9.646368E-15	5.437251E-17
3.815407E+03	9.687754E-15	5.460579E-17
3.816875E+03	9.737605E-15	5.488678E-17
3.818342E+03	9.795930E-15	5.521553E-17
3.819810E+03	9.862730E-15	5.559205E-17
3.821278E+03	9.936478E-15	5.600774E-17
3.822746E+03	9.994121E-15	5.633265E-17
3.824214E+03	1.005948E-14	5.670105E-17
3.825681E+03	1.012026E-14	5.704362E-17
3.827149E+03	1.018183E-14	5.739070E-17
3.828617E+03	1.026498E-14	5.785934E-17
3.830085E+03	1.035432E-14	5.836292E-17
3.831553E+03	1.044447E-14	5.887107E-17
3.833020E+03	1.050849E-14	5.923194E-17
3.834488E+03	1.057563E-14	5.961035E-17
3.835956E+03	1.064357E-14	5.999329E-17
3.837424E+03	1.072772E-14	6.046761E-17
3.838892E+03	1.080420E-14	6.089873E-17
3.840359E+03	1.087764E-14	6.131268E-17
3.841827E+03	1.093647E-14	6.164429E-17
3.843295E+03	1.100459E-14	6.202822E-17
3.844763E+03	1.106734E-14	6.238191E-17
3.846231E+03	1.112858E-14	6.272709E-17
3.847698E+03	1.117673E-14	6.299851E-17
3.849166E+03	1.120639E-14	6.316567E-17
3.850634E+03	1.125459E-14	6.343736E-17
3.852102E+03	1.129664E-14	6.367438E-17
3.853570E+03	1.134643E-14	6.395505E-17
3.855037E+03	1.137926E-14	6.414009E-17
3.856505E+03	1.142524E-14	6.439927E-17
3.857973E+03	1.148285E-14	6.472395E-17
3.859441E+03	1.151265E-14	6.489193E-17
3.860909E+03	1.154324E-14	6.506437E-17
3.862376E+03	1.159396E-14	6.535026E-17
3.863844E+03	1.166018E-14	6.572352E-17
3.865312E+03	1.172102E-14	6.606645E-17
3.866780E+03	1.177493E-14	6.637031E-17
3.868248E+03	1.183506E-14	6.670925E-17
3.869715E+03	1.186890E-14	6.689997E-17
3.871183E+03	1.189966E-14	6.707335E-17
3.872651E+03	1.192346E-14	6.720752E-17
3.874119E+03	1.194108E-14	6.730685E-17
3.875587E+03	1.195639E-14	6.739315E-17
3.877054E+03	1.197869E-14	6.751884E-17
3.878522E+03	1.200566E-14	6.767085E-17
3.879990E+03	1.202489E-14	6.777924E-17
3.881458E+03	1.204957E-14	6.791832E-17
3.882926E+03	1.207116E-14	6.804000E-17
3.884393E+03	1.206559E-14	6.800862E-17
3.885861E+03	1.206701E-14	6.801665E-17
3.887329E+03	1.207776E-14	6.807725E-17
3.888797E+03	1.208619E-14	6.812477E-17
3.890265E+03	1.209619E-14	6.818110E-17
3.891732E+03	1.208676E-14	6.812796E-17
3.893200E+03	1.207112E-14	6.803978E-17
3.894668E+03	1.205469E-14	6.794720E-17
3.896136E+03	1.204371E-14	6.788530E-17
3.897604E+03	1.203506E-14	6.783654E-17
3.899071E+03	1.202485E-14	6.777903E-17
3.900539E+03	1.201309E-14	6.771273E-17
3.902007E+03	1.200678E-14	6.767716E-17
3.903475E+03	1.201138E-14	6.770307E-17
3.904943E+03	1.199729E-14	6.762364E-17
3.906410E+03	1.198319E-14	6.754420E-17
3.907878E+03	1.197533E-14	6.749990E-17
3.909346E+03	1.196981E-14	6.746878E-17
3.910814E+03	1.197210E-14	6.748165E-17
3.912282E+03	1.197595E-14	6.750334E-17
3.913749E+03	1.195640E-14	6.739315E-17
3.915217E+03	1.193372E-14	6.726535E-17
3.916685E+03	1.191417E-14	6.715512E-17
3.918153E+03	1.189226E-14	6.703165E-17
3.919621E+03	1.187192E-14	6.691697E-17
3.921088E+03	1.185781E-14	6.683749E-17
3.922556E+03	1.184762E-14	6.678002E-17
3.924024E+03	1.181788E-14	6.661241E-17
3.925492E+03	1.177641E-14	6.637865E-17
3.926960E+03	1.174978E-14	6.622857E-17
3.928427E+03	1.171376E-14	6.602552E-17
3.929895E+03	1.170824E-14	6.599440E-17
3.931363E+03	1.168238E-14	6.584861E-17
3.932831E+03	1.163928E-14	6.560569E-17
3.934299E+03	1.160556E-14	6.541565E-17
3.935766E+03	1.157497E-14	6.524321E-17
3.937234E+03	1.153418E-14	6.501329E-17
3.938702E+03	1.151767E-14	6.492023E-17
3.940170E+03	1.151370E-14	6.489785E-17
3.941638E+03	1.149875E-14	6.481361E-17
3.943105E+03	1.148146E-14	6.471611E-17
3.944573E+03	1.148377E-14	6.472914E-17
3.946041E+03	1.148609E-14	6.474221E-17
3.947509E+03	1.148135E-14	6.471551E-17
3.948977E+03	1.148525E-14	6.473750E-17
3.950444E+03	1.150173E-14	6.483038E-17
3.951912E+03	1.151430E-14	6.490121E-17
3.953380E+03	1.152609E-14	6.496768E-17
3.954848E+03	1.152060E-14	6.493675E-17
3.956316E+03	1.152691E-14	6.497232E-17
3.957783E+03	1.154739E-14	6.508774E-17
3.959251E+03	1.155687E-14	6.514118E-17
3.960719E+03	1.157030E-14	6.521687E-17
3.962187E+03	1.157902E-14	6.526601E-17
3.963655E+03	1.158853E-14	6.531965E-17
3.965122E+03	1.162011E-14	6.549766E-17
3.966590E+03	1.165487E-14	6.569356E-17
3.968058E+03	1.167547E-14	6.580967E-17
3.969526E+03	1.170003E-14	6.594809E-17
3.970994E+03	1.172776E-14	6.610441E-17
3.972461E+03	1.175788E-14	6.627418E-17
3.973929E+03	1.179039E-14	6.645743E-17
3.975397E+03	1.182608E-14	6.665861E-17
3.976865E+03	1.186496E-14	6.687774E-17
3.978333E+03	1.190623E-14	6.711039E-17
3.979800E+03	1.194991E-14	6.735656E-17
3.981268E+03	1.198729E-14	6.756729E-17
3.982736E+03	1.200969E-14	6.769355E-17
3.984204E+03	1.204002E-14	6.786448E-17
3.985671E+03	1.208064E-14	6.809347E-17
3.987139E+03	1.211656E-14	6.829590E-17
3.988607E+03	1.213351E-14	6.839146E-17
3.990075E+03	1.214890E-14	6.847819E-17
3.991543E+03	1.216430E-14	6.856502E-17
3.993010E+03	1.217101E-14	6.860283E-17
3.994478E+03	1.217298E-14	6.861393E-17
3.995946E+03	1.217654E-14	6.863400E-17
3.997414E+03	1.217932E-14	6.864966E-17
3.998882E+03	1.217576E-14	6.862962E-17
4.000349E+03	1.216349E-14	6.856043E-17
4.001817E+03	1.215756E-14	6.852702E-17
4.003285E+03	1.215243E-14	6.849810E-17
4.004753E+03	1.214175E-14	6.843788E-17
4.006221E+03	1.214377E-14	6.844927E-17
4.007688E+03	1.215612E-14	6.851890E-17
4.009156E+03	1.216690E-14	6.857966E-17
4.010624E+03	1.218325E-14	6.867183E-17
4.012092E+03	1.220360E-14	6.878651E-17
4.013560E+03	1.222317E-14	6.889682E-17
4.015027E+03	1.223799E-14	6.898033E-17
4.016495E+03	1.224566E-14	6.902357E-17
4.017963E+03	1.223902E-14	6.898614E-17
4.019431E+03	1.221964E-14	6.887693E-17
4.020899E+03	1.221061E-14	6.882604E-17
4.022366E+03	1.219043E-14	6.871230E-17
4.023834E+03	1.216388E-14	6.856260E-17
4.025302E+03	1.214448E-14	6.845329E-17
4.026770E+03	1.213465E-14	6.839787E-17
4.028238E+03	1.212482E-14	6.834245E-17
4.029705E+03	1.210382E-14	6.822409E-17
4.031173E+03	1.208760E-14	6.813268E-17
4.032641E+03	1.206899E-14	6.802775E-17
4.034109E+03	1.204158E-14	6.787329E-17
4.035577E+03	1.203174E-14	6.781782E-17
4.037044E+03	1.202190E-14	6.776235E-17
4.038512E+03	1.200647E-14	6.767535E-17
4.039980E+03	1.199263E-14	6.759735E-17
4.041448E+03	1.197159E-14	6.747876E-17
4.042916E+03	1.196894E-14	6.746386E-17
4.044383E+03	1.197111E-14	6.747604E-17
4.045851E+03	1.196847E-14	6.746120E-17
4.047319E+03	1.197705E-14	6.750957E-17
4.048787E+03	1.199126E-14	6.758962E-17
4.050255E+03	1.200387E-14	6.766071E-17
4.051722E+03	1.201890E-14	6.774546E-17
4.053190E+03	1.201631E-14	6.773085E-17
4.054658E+03	1.200892E-14	6.768916E-17
4.056126E+03	1.201596E-14	6.772888E-17
4.057594E+03	1.202141E-14	6.775960E-17
4.059061E+03	1.203651E-14	6.784469E-17
4.060529E+03	1.205162E-14	6.792987E-17
4.061997E+03	1.205631E-14	6.795628E-17
4.063465E+03	1.206020E-14	6.797821E-17
4.064933E+03	1.205445E-14	6.794582E-17
4.066400E+03	1.205594E-14	6.795423E-17
4.067868E+03	1.205584E-14	6.795363E-17
4.069336E+03	1.205815E-14	6.796666E-17
4.070804E+03	1.205966E-14	6.797520E-17
4.072272E+03	1.205233E-14	6.793385E-17
4.073739E+03	1.203936E-14	6.786074E-17
4.075207E+03	1.202558E-14	6.778308E-17
4.076675E+03	1.201019E-14	6.769632E-17
4.078143E+03	1.200124E-14	6.764589E-17
4.079611E+03	1.201487E-14	6.772273E-17
4.081078E+03	1.201723E-14	6.773601E-17
4.082546E+03	1.200507E-14	6.766745E-17
4.084014E+03	1.200097E-14	6.764438E-17
4.085482E+03	1.199850E-14	6.763044E-17
4.086950E+03	1.199522E-14	6.761197E-17
4.088417E+03	1.200326E-14	6.765729E-17
4.089885E+03	1.199757E-14	6.762522E-17
4.091353E+03	1.198946E-14	6.757947E-17
4.092821E+03	1.199510E-14	6.761126E-17
4.094289E+03	1.200155E-14	6.764765E-17
4.095756E+03	1.201207E-14	6.770691E-17
4.097224E+03	1.202826E-14	6.779820E-17
4.098692E+03	1.203719E-14	6.784850E-17
4.100160E+03	1.205017E-14	6.792169E-17
4.101628E+03	1.206317E-14	6.799498E-17
4.103095E+03	1.206241E-14	6.799065E-17
4.104563E+03	1.206327E-14	6.799549E-17
4.106031E+03	1.208360E-14	6.811013E-17
4.107499E+03	1.209260E-14	6.816084E-17
4.108967E+03	1.208131E-14	6.809720E-17
4.110434E+03	1.208951E-14	6.814343E-17
4.111902E+03	1.210097E-14	6.820803E-17
4.113370E+03	1.210757E-14	6.824523E-17
4.114838E+03	1.212313E-14	6.833290E-17
4.116306E+03	1.212406E-14	6.833814E-17
4.117773E+03	1.212093E-14	6.832050E-17
4.119241E+03	1.213489E-14	6.839921E-17
4.120709E+03	1.215457E-14	6.851013E-17
4.122177E+03	1.217101E-14	6.860280E-17
4.123645E+03	1.218502E-14	6.868179E-17
4.125112E+03	1.219498E-14	6.873789E-17
4.126580E+03	1.220576E-14	6.879867E-17
4.128048E+03	1.222390E-14	6.890089E-17
4.129516E+03	1.223552E-14	6.896644E-17
4.130984E+03	1.223900E-14	6.898605E-17
4.132451E+03	1.224168E-14	6.900112E-17
4.133919E+03	1.224599E-14	6.902543E-17
4.135387E+03	1.224704E-14	6.903137E-17
4.136855E+03	1.224075E-14	6.899588E-17
4.138323E+03	1.223282E-14	6.895119E-17
4.139790E+03	1.222407E-14	6.890188E-17
4.141258E+03	1.221287E-14	6.883875E-17
4.142726E+03	1.221312E-14	6.884018E-17
4.144194E+03	1.221912E-14	6.887396E-17
4.145662E+03	1.222839E-14	6.892625E-17
4.147129E+03	1.223359E-14	6.895553E-17
4.148597E+03	1.222732E-14	6.892017E-17
4.150065E+03	1.221695E-14	6.886172E-17
4.151533E+03	1.221068E-14	6.882638E-17
4.153000E+03	1.220769E-14	6.880954E-17
4.154468E+03	1.220224E-14	6.877884E-17
4.155936E+03	1.220090E-14	6.877129E-17
4.157404E+03	1.220450E-14	6.879155E-17
4.158872E+03	1.221303E-14	6.883964E-17
4.160339E+03	1.222157E-14	6.888781E-17
4.161807E+03	1.222766E-14	6.892213E-17
4.163275E+03	1.223870E-14	6.898433E-17
4.164743E+03	1.223741E-14	6.897704E-17
4.166211E+03	1.222541E-14	6.890944E-17
4.167678E+03	1.220518E-14	6.879542E-17
4.169146E+03	1.219318E-14	6.872777E-17
4.170614E+03	1.219107E-14	6.871585E-17
4.172082E+03	1.218484E-14	6.868073E-17
4.173550E+03	1.218520E-14	6.868279E-17
4.175017E+03	1.218475E-14	6.868024E-17
4.176485E+03	1.218348E-14	6.867307E-17
4.177953E+03	1.217395E-14	6.861938E-17
4.179421E+03	1.215452E-14	6.850982E-17
4.180889E+03	1.213920E-14	6.842350E-17
4.182356E+03	1.212223E-14	6.832783E-17
4.183824E+03	1.210773E-14	6.824610E-17
4.185292E+03	1.210398E-14	6.822495E-17
4.186760E+03	1.208616E-14	6.812454E-17
4.188228E+03	1.205427E-14	6.794475E-17
4.189695E+03	1.202649E-14	6.778820E-17
4.191163E+03	1.200367E-14	6.765959E-17
4.192631E+03	1.198830E-14	6.757295E-17
4.194099E+03	1.196298E-14	6.743019E-17
4.195567E+03	1.193349E-14	6.726399E-17
4.197034E+03	1.190565E-14	6.710705E-17
4.198502E+03	1.187032E-14	6.690792E-17
4.199970E+03	1.183331E-14	6.669931E-17
4.201438E+03	1.179295E-14	6.647184E-17
4.202906E+03	1.175174E-14	6.623955E-17
4.204373E+03	1.171300E-14	6.602117E-17
4.205841E+03	1.167839E-14	6.582609E-17
4.207309E+03	1.163710E-14	6.559339E-17
4.208777E+03	1.159829E-14	6.537461E-17
4.210245E+03	1.154863E-14	6.509469E-17
4.211712E+03	1.149727E-14	6.480520E-17
4.213180E+03	1.144921E-14	6.453430E-17
4.214648E+03	1.140028E-14	6.425853E-17
4.216116E+03	1.135633E-14	6.401078E-17
4.217584E+03	1.130734E-14	6.373465E-17
4.219051E+03	1.126082E-14	6.347245E-17
4.220519E+03	1.121678E-14	6.322419E-17
4.221987E+03	1.116018E-14	6.290518E-17
4.223455E+03	1.110605E-14	6.260006E-17
4.224923E+03	1.106693E-14	6.237954E-17
4.226390E+03	1.102945E-14	6.216830E-17
4.227858E+03	1.099362E-14	6.196636E-17
4.229326E+03	1.094773E-14	6.170769E-17
4.230794E+03	1.088591E-14	6.135921E-17
4.232262E+03	1.083074E-14	6.104824E-17
4.233729E+03	1.079647E-14	6.085511E-17
4.235197E+03	1.077141E-14	6.071382E-17
4.236665E+03	1.073375E-14	6.050157E-17
4.238133E+03	1.069355E-14	6.027499E-17
4.239601E+03	1.065249E-14	6.004355E-17
4.241068E+03	1.061476E-14	5.983087E-17
4.242536E+03	1.058120E-14	5.964172E-17
4.244004E+03	1.054594E-14	5.944298E-17
4.245472E+03	1.051739E-14	5.928202E-17
4.246940E+03	1.048797E-14	5.911621E-17
4.248407E+03	1.045349E-14	5.892187E-17
4.249875E+03	1.042572E-14	5.876533E-17
4.251343E+03	1.039878E-14	5.861346E-17
4.252811E+03	1.036761E-14	5.843776E-17
4.254279E+03	1.034821E-14	5.832842E-17
4.255746E+03	1.033217E-14	5.823803E-17
4.257214E+03	1.030264E-14	5.807157E-17
4.258682E+03	1.028068E-14	5.794780E-17
4.260150E+03	1.026630E-14	5.786676E-17
4.261618E+03	1.024770E-14	5.776190E-17
4.263085E+03	1.023838E-14	5.770935E-17
4.264553E+03	1.023243E-14	5.767583E-17
4.266021E+03	1.022226E-14	5.761851E-17
4.267489E+03	1.022139E-14	5.761359E-17
4.268957E+03	1.023490E-14	5.768977E-17
4.270424E+03	1.025097E-14	5.778034E-17
4.271892E+03	1.025775E-14	5.781854E-17
4.273360E+03	1.026539E-14	5.786159E-17
4.274828E+03	1.028066E-14	5.794768E-17
4.276296E+03	1.030104E-14	5.806255E-17
4.277763E+03	1.031296E-14	5.812975E-17
4.279231E+03	1.030624E-14	5.809186E-17
4.280699E+03	1.030715E-14	5.809702E-17
4.282167E+03	1.032166E-14	5.817879E-17
4.283635E+03	1.032685E-14	5.820801E-17
4.285102E+03	1.033034E-14	5.822773E-17
4.286570E+03	1.033470E-14	5.825228E-17
4.288038E+03	1.034162E-14	5.829127E-17
4.289506E+03	1.034429E-14	5.830636E-17
4.290974E+03	1.035720E-14	5.837907E-17
4.292441E+03	1.038118E-14	5.851429E-17
4.293909E+03	1.040946E-14	5.867367E-17
