#wls	flux	fluxerr
1.597604E+03	6.773371E-18	1.874959E-18
1.637544E+03	6.994718E-18	1.921862E-18
1.677484E+03	7.143490E-18	1.947752E-18
1.717424E+03	7.212348E-18	1.951079E-18
1.757364E+03	7.191567E-18	1.929732E-18
1.797304E+03	7.064576E-18	1.879888E-18
1.837244E+03	6.814314E-18	1.797771E-18
1.877184E+03	6.426658E-18	1.680561E-18
1.917124E+03	5.898263E-18	1.528400E-18
1.957064E+03	5.251060E-18	1.347991E-18
1.997004E+03	4.538517E-18	1.153879E-18
2.036945E+03	3.847767E-18	9.685834E-19
2.076885E+03	3.278318E-18	8.168312E-19
2.116825E+03	2.910727E-18	7.176336E-19
2.156765E+03	2.785029E-18	6.792245E-19
2.196705E+03	2.906130E-18	7.008716E-19
2.236645E+03	3.253299E-18	7.756040E-19
2.276585E+03	3.786373E-18	8.920299E-19
2.316525E+03	4.452214E-18	1.036130E-18
2.356465E+03	5.188918E-18	1.192432E-18
2.396405E+03	5.943134E-18	1.348097E-18
2.436345E+03	6.671542E-18	1.493156E-18
2.476286E+03	7.347252E-18	1.621792E-18
2.516226E+03	7.954745E-18	1.731006E-18
2.556166E+03	8.487624E-18	1.819971E-18
2.596106E+03	8.947177E-18	1.889586E-18
2.636046E+03	9.337293E-18	1.941299E-18
2.675986E+03	9.665936E-18	1.977362E-18
2.715926E+03	9.939610E-18	1.999649E-18
2.755866E+03	1.017232E-17	2.011448E-18
2.795806E+03	1.037278E-17	2.014838E-18
2.835746E+03	1.055539E-17	2.012880E-18
2.875686E+03	1.073401E-17	2.008334E-18
2.915627E+03	1.092218E-17	2.003699E-18
2.955567E+03	1.114114E-17	2.002674E-18
2.995507E+03	1.140920E-17	2.008112E-18
3.005492E+03	1.148659E-17	2.010886E-18
3.015477E+03	1.156844E-17	2.014256E-18
3.025462E+03	1.165662E-17	2.018532E-18
3.035447E+03	1.174899E-17	2.023327E-18
3.045432E+03	1.185240E-17	2.029802E-18
3.055417E+03	1.196501E-17	2.037611E-18
3.065402E+03	1.208966E-17	2.047205E-18
3.075387E+03	1.222460E-17	2.058258E-18
3.085372E+03	1.237127E-17	2.070978E-18
3.095357E+03	1.252961E-17	2.085321E-18
3.105342E+03	1.269807E-17	2.100993E-18
3.115327E+03	1.287822E-17	2.118223E-18
3.125312E+03	1.307015E-17	2.136992E-18
3.135297E+03	1.327397E-17	2.157280E-18
3.145282E+03	1.348820E-17	2.178811E-18
3.155267E+03	1.371622E-17	2.202095E-18
3.165252E+03	1.395490E-17	2.226593E-18
3.175237E+03	1.420770E-17	2.252817E-18
3.185222E+03	1.447311E-17	2.280489E-18
3.195207E+03	1.475125E-17	2.309584E-18
3.205192E+03	1.504218E-17	2.340074E-18
3.215177E+03	1.534595E-17	2.371926E-18
3.225162E+03	1.566427E-17	2.405363E-18
3.235147E+03	1.599709E-17	2.440328E-18
3.245132E+03	1.634250E-17	2.476489E-18
3.255117E+03	1.670201E-17	2.514030E-18
3.265102E+03	1.707528E-17	2.552858E-18
3.275087E+03	1.745999E-17	2.592583E-18
3.285072E+03	1.785918E-17	2.633616E-18
3.295057E+03	1.826840E-17	2.675258E-18
3.305042E+03	1.869046E-17	2.717885E-18
3.315027E+03	1.912238E-17	2.761026E-18
3.325012E+03	1.956291E-17	2.804467E-18
3.334998E+03	2.001258E-17	2.848254E-18
3.344983E+03	2.046786E-17	2.891861E-18
3.354968E+03	2.092903E-17	2.935304E-18
3.364953E+03	2.139429E-17	2.978315E-18
3.374938E+03	2.185975E-17	3.020338E-18
3.384923E+03	2.232754E-17	3.061665E-18
3.394908E+03	2.279170E-17	3.101475E-18
3.404893E+03	2.325454E-17	3.140090E-18
3.414878E+03	2.371233E-17	3.177011E-18
3.424863E+03	2.416572E-17	3.212340E-18
3.434848E+03	2.461148E-17	3.245662E-18
3.444833E+03	2.505092E-17	3.277173E-18
3.454818E+03	2.548371E-17	3.306848E-18
3.464803E+03	2.591000E-17	3.334727E-18
3.474788E+03	2.633055E-17	3.360926E-18
3.484773E+03	2.674888E-17	3.385907E-18
3.494758E+03	2.716284E-17	3.409408E-18
3.504743E+03	2.758169E-17	3.432594E-18
3.514728E+03	2.800487E-17	3.455381E-18
3.524713E+03	2.843911E-17	3.478577E-18
3.534698E+03	2.888778E-17	3.502555E-18
3.544683E+03	2.936152E-17	3.528549E-18
3.554668E+03	2.986763E-17	3.557345E-18
3.564653E+03	3.041206E-17	3.589542E-18
3.574638E+03	3.100358E-17	3.626043E-18
3.584623E+03	3.165577E-17	3.668270E-18
3.594608E+03	3.237416E-17	3.716661E-18
3.604593E+03	3.317121E-17	3.772419E-18
3.614578E+03	3.406006E-17	3.836772E-18
3.624563E+03	3.505056E-17	3.910519E-18
3.634548E+03	3.615846E-17	3.995075E-18
3.644533E+03	3.739944E-17	4.091772E-18
3.654518E+03	3.879204E-17	4.202190E-18
3.664503E+03	4.035848E-17	4.328219E-18
3.674488E+03	4.212569E-17	4.472156E-18
3.684473E+03	4.412886E-17	4.637048E-18
3.694458E+03	4.640559E-17	4.826042E-18
3.704443E+03	4.900720E-17	5.043530E-18
3.714428E+03	5.199276E-17	5.294479E-18
3.724413E+03	5.543589E-17	5.585060E-18
3.734398E+03	5.941785E-17	5.921893E-18
3.744383E+03	6.403697E-17	6.312926E-18
3.754368E+03	6.940994E-17	6.767477E-18
3.764353E+03	7.566591E-17	7.295565E-18
3.774338E+03	8.294891E-17	7.908070E-18
3.784324E+03	9.141976E-17	8.616836E-18
3.794309E+03	1.012346E-16	9.432588E-18
3.804294E+03	1.125729E-16	1.036753E-17
3.814279E+03	1.255824E-16	1.143023E-17
3.824264E+03	1.403957E-16	1.262724E-17
3.834249E+03	1.571206E-16	1.396240E-17
3.844234E+03	1.757958E-16	1.543299E-17
3.854219E+03	1.963988E-16	1.703087E-17
3.864204E+03	2.188403E-16	1.874231E-17
3.874189E+03	2.429409E-16	2.054635E-17
3.884174E+03	2.684698E-16	2.241854E-17
3.894159E+03	2.951251E-16	2.432958E-17
3.904144E+03	3.226075E-16	2.625172E-17
3.914129E+03	3.505709E-16	2.815474E-17
3.924114E+03	3.787203E-16	3.001395E-17
3.934099E+03	4.067938E-16	3.180855E-17
3.944084E+03	4.345196E-16	3.351808E-17
3.954069E+03	4.617062E-16	3.512936E-17
3.964054E+03	4.881235E-16	3.662714E-17
3.974039E+03	5.135540E-16	3.799806E-17
3.984024E+03	5.377081E-16	3.922443E-17
3.994009E+03	5.603384E-16	4.029279E-17
4.003994E+03	5.811385E-16	4.118652E-17
4.013979E+03	5.998423E-16	4.189307E-17
4.023964E+03	6.162668E-16	4.240667E-17
4.033949E+03	6.302801E-16	4.272576E-17
4.043934E+03	6.419330E-16	4.286145E-17
4.053919E+03	6.514183E-16	4.283393E-17
4.063904E+03	6.589964E-16	4.266697E-17
4.073889E+03	6.651336E-16	4.239633E-17
4.083874E+03	6.703447E-16	4.205893E-17
4.093859E+03	6.751529E-16	4.169013E-17
4.103844E+03	6.801381E-16	4.132664E-17
4.113829E+03	6.858092E-16	4.099864E-17
4.123814E+03	6.926214E-16	4.073123E-17
4.133799E+03	7.009519E-16	4.054325E-17
4.143784E+03	7.110847E-16	4.044687E-17
4.153769E+03	7.232416E-16	4.044979E-17
4.163754E+03	7.375562E-16	4.055413E-17
4.173739E+03	7.541103E-16	4.075886E-17
4.183724E+03	7.728834E-16	4.105733E-17
4.193709E+03	7.938247E-16	4.144159E-17
4.203694E+03	8.167586E-16	4.189760E-17
4.213679E+03	8.414068E-16	4.240702E-17
4.223665E+03	8.674087E-16	4.294854E-17
4.233650E+03	8.943584E-16	4.350017E-17
4.243635E+03	9.218405E-16	4.404096E-17
4.253620E+03	9.494749E-16	4.455326E-17
4.263605E+03	9.769116E-16	4.502215E-17
4.273590E+03	1.003853E-15	4.543636E-17
4.283575E+03	1.030094E-15	4.578982E-17
4.293560E+03	1.055502E-15	4.608024E-17
4.303545E+03	1.080006E-15	4.630858E-17
4.313530E+03	1.103608E-15	4.647889E-17
4.323515E+03	1.126248E-15	4.659292E-17
4.333500E+03	1.147982E-15	4.665705E-17
4.343485E+03	1.168761E-15	4.667357E-17
4.353470E+03	1.188670E-15	4.664997E-17
4.363455E+03	1.207816E-15	4.659435E-17
4.373440E+03	1.226498E-15	4.652195E-17
4.383425E+03	1.245313E-15	4.645825E-17
4.393410E+03	1.265221E-15	4.644056E-17
4.403395E+03	1.287531E-15	4.651688E-17
4.413380E+03	1.313759E-15	4.673979E-17
4.423365E+03	1.345505E-15	4.716202E-17
4.433350E+03	1.384332E-15	4.783266E-17
4.443335E+03	1.431450E-15	4.878665E-17
4.453320E+03	1.487570E-15	5.004140E-17
4.463305E+03	1.552851E-15	5.159628E-17
4.473290E+03	1.626832E-15	5.343172E-17
4.483275E+03	1.708275E-15	5.550533E-17
4.493260E+03	1.795405E-15	5.776073E-17
4.503245E+03	1.885926E-15	6.012822E-17
4.513230E+03	1.977383E-15	6.253488E-17
4.523215E+03	2.067237E-15	6.490632E-17
4.533200E+03	2.153024E-15	6.717197E-17
4.543185E+03	2.232564E-15	6.927089E-17
4.553170E+03	2.303907E-15	7.114926E-17
4.563155E+03	2.365479E-15	7.276415E-17
4.573140E+03	2.416089E-15	7.408334E-17
4.583125E+03	2.454873E-15	7.508320E-17
4.593110E+03	2.481347E-15	7.575017E-17
4.603095E+03	2.495406E-15	7.608067E-17
4.613080E+03	2.497364E-15	7.608251E-17
4.623065E+03	2.487819E-15	7.577085E-17
4.633050E+03	2.467762E-15	7.517185E-17
4.643035E+03	2.438452E-15	7.431915E-17
4.653020E+03	2.401338E-15	7.325186E-17
4.663005E+03	2.358018E-15	7.201353E-17
4.672991E+03	2.310087E-15	7.064790E-17
4.682976E+03	2.259068E-15	6.919680E-17
4.692961E+03	2.206289E-15	6.769680E-17
4.702946E+03	2.152937E-15	6.618063E-17
4.712931E+03	2.100090E-15	6.467826E-17
4.722916E+03	2.048644E-15	6.321480E-17
4.732901E+03	1.999444E-15	6.181426E-17
4.742886E+03	1.953337E-15	6.050126E-17
4.752871E+03	1.911081E-15	5.929810E-17
4.762856E+03	1.873403E-15	5.822662E-17
4.772841E+03	1.840850E-15	5.730323E-17
4.782826E+03	1.813800E-15	5.653939E-17
4.792811E+03	1.792429E-15	5.594032E-17
4.802796E+03	1.776750E-15	5.550609E-17
4.812781E+03	1.766603E-15	5.523135E-17
4.822766E+03	1.761803E-15	5.510980E-17
4.832751E+03	1.762137E-15	5.513412E-17
4.842736E+03	1.767559E-15	5.530201E-17
4.852721E+03	1.777946E-15	5.560858E-17
4.862706E+03	1.793221E-15	5.605011E-17
4.872691E+03	1.813007E-15	5.661333E-17
4.882676E+03	1.836624E-15	5.727528E-17
4.892661E+03	1.862925E-15	5.799836E-17
4.902646E+03	1.890148E-15	5.872596E-17
4.912631E+03	1.916140E-15	5.938968E-17
4.922616E+03	1.938436E-15	5.991217E-17
4.932601E+03	1.954547E-15	6.021654E-17
4.942586E+03	1.962443E-15	6.024133E-17
4.952571E+03	1.960789E-15	5.994788E-17
4.962556E+03	1.949347E-15	5.933223E-17
4.972541E+03	1.929025E-15	5.842619E-17
4.982526E+03	1.901732E-15	5.729183E-17
4.992511E+03	1.870218E-15	5.601588E-17
5.002496E+03	1.837608E-15	5.469473E-17
5.012481E+03	1.806951E-15	5.342046E-17
5.022466E+03	1.780840E-15	5.226921E-17
5.032451E+03	1.761239E-15	5.129644E-17
5.042436E+03	1.749342E-15	5.053313E-17
5.052421E+03	1.745487E-15	4.998416E-17
5.062406E+03	1.749340E-15	4.963444E-17
5.072391E+03	1.760062E-15	4.945453E-17
5.082376E+03	1.776399E-15	4.940395E-17
5.092361E+03	1.796936E-15	4.943880E-17
5.102346E+03	1.820229E-15	4.951595E-17
5.112332E+03	1.844957E-15	4.959718E-17
5.122317E+03	1.870141E-15	4.965507E-17
5.132302E+03	1.895018E-15	4.966920E-17
5.142287E+03	1.919223E-15	4.963070E-17
5.152272E+03	1.942711E-15	4.953951E-17
5.162257E+03	1.965629E-15	4.940065E-17
5.172242E+03	1.988233E-15	4.922188E-17
5.182227E+03	2.010842E-15	4.901230E-17
5.192212E+03	2.033652E-15	4.877784E-17
5.202197E+03	2.056775E-15	4.852229E-17
5.212182E+03	2.080102E-15	4.824451E-17
5.222167E+03	2.103403E-15	4.794095E-17
5.232152E+03	2.126285E-15	4.760520E-17
5.242137E+03	2.148208E-15	4.722855E-17
5.252122E+03	2.168577E-15	4.680235E-17
5.262107E+03	2.186804E-15	4.631943E-17
5.272092E+03	2.202265E-15	4.577330E-17
5.282077E+03	2.214340E-15	4.515881E-17
5.292062E+03	2.222506E-15	4.447410E-17
5.302047E+03	2.226309E-15	4.371969E-17
5.312032E+03	2.225292E-15	4.289685E-17
5.322017E+03	2.219108E-15	4.200966E-17
5.332002E+03	2.207561E-15	4.106528E-17
5.341987E+03	2.190642E-15	4.007424E-17
5.351972E+03	2.168848E-15	3.905561E-17
5.361957E+03	2.143030E-15	3.803348E-17
5.371942E+03	2.114633E-15	3.704057E-17
5.381927E+03	2.085625E-15	3.611654E-17
5.391912E+03	2.058094E-15	3.530081E-17
5.401897E+03	2.033863E-15	3.462649E-17
5.411882E+03	2.014111E-15	3.411479E-17
5.421867E+03	1.999091E-15	3.377114E-17
5.431852E+03	1.987792E-15	3.357979E-17
5.441837E+03	1.977845E-15	3.349976E-17
5.451822E+03	1.966006E-15	3.347118E-17
5.461807E+03	1.949098E-15	3.343314E-17
5.471792E+03	1.924545E-15	3.333214E-17
5.481777E+03	1.890719E-15	3.312783E-17
5.491762E+03	1.847048E-15	3.279554E-17
5.501747E+03	1.794170E-15	3.233021E-17
5.511732E+03	1.733552E-15	3.174158E-17
5.521717E+03	1.667146E-15	3.104955E-17
5.531702E+03	1.597159E-15	3.028118E-17
5.541687E+03	1.525799E-15	2.946696E-17
5.551672E+03	1.455010E-15	2.863600E-17
5.561658E+03	1.386420E-15	2.781489E-17
5.571643E+03	1.321348E-15	2.702736E-17
5.581628E+03	1.260883E-15	2.629544E-17
5.591613E+03	1.205829E-15	2.563781E-17
5.601598E+03	1.156846E-15	2.507212E-17
5.611583E+03	1.114460E-15	2.461490E-17
5.621568E+03	1.079099E-15	2.428189E-17
5.631553E+03	1.051102E-15	2.408792E-17
5.641538E+03	1.030673E-15	2.404557E-17
5.651523E+03	1.017927E-15	2.416576E-17
5.661508E+03	1.012892E-15	2.445759E-17
5.671493E+03	1.015545E-15	2.492888E-17
5.681478E+03	1.025797E-15	2.558559E-17
5.691463E+03	1.043521E-15	2.643245E-17
5.701448E+03	1.068569E-15	2.747307E-17
5.711433E+03	1.100727E-15	2.870881E-17
5.721418E+03	1.139753E-15	3.013961E-17
5.731403E+03	1.185285E-15	3.176141E-17
5.741388E+03	1.236868E-15	3.356665E-17
5.751373E+03	1.293880E-15	3.554219E-17
5.761358E+03	1.355500E-15	3.766803E-17
5.771343E+03	1.420700E-15	3.991702E-17
5.781328E+03	1.488192E-15	4.225289E-17
5.791313E+03	1.556472E-15	4.463155E-17
5.801298E+03	1.623875E-15	4.700230E-17
5.811283E+03	1.688632E-15	4.930961E-17
5.821268E+03	1.749054E-15	5.149872E-17
5.831253E+03	1.803691E-15	5.352046E-17
5.841238E+03	1.851458E-15	5.533583E-17
5.851223E+03	1.891810E-15	5.692154E-17
5.861208E+03	1.924707E-15	5.826992E-17
5.871193E+03	1.950531E-15	5.938672E-17
5.881178E+03	1.970048E-15	6.029033E-17
5.891163E+03	1.984097E-15	6.100251E-17
5.901148E+03	1.993493E-15	6.154532E-17
5.911133E+03	1.998951E-15	6.193858E-17
5.921118E+03	2.000956E-15	6.219570E-17
5.931103E+03	1.999746E-15	6.232299E-17
5.941088E+03	1.995457E-15	6.232391E-17
5.951073E+03	1.988106E-15	6.219860E-17
5.961058E+03	1.977646E-15	6.194553E-17
5.971043E+03	1.964154E-15	6.156736E-17
5.981028E+03	1.947746E-15	6.106819E-17
5.991013E+03	1.928657E-15	6.045634E-17
6.000999E+03	1.907273E-15	5.974494E-17
6.010984E+03	1.884093E-15	5.895101E-17
6.020969E+03	1.859724E-15	5.809497E-17
6.030954E+03	1.834838E-15	5.719937E-17
6.040939E+03	1.810180E-15	5.628888E-17
6.050924E+03	1.786602E-15	5.539132E-17
6.060909E+03	1.764935E-15	5.453348E-17
6.070894E+03	1.746062E-15	5.374330E-17
6.080879E+03	1.730856E-15	5.304784E-17
6.090864E+03	1.720133E-15	5.247172E-17
6.100849E+03	1.714596E-15	5.203537E-17
6.110834E+03	1.714772E-15	5.175316E-17
6.120819E+03	1.720929E-15	5.163105E-17
6.130804E+03	1.733070E-15	5.166647E-17
6.140789E+03	1.750820E-15	5.184547E-17
6.150774E+03	1.773465E-15	5.214410E-17
6.160759E+03	1.799949E-15	5.252892E-17
6.170744E+03	1.828948E-15	5.295952E-17
6.180729E+03	1.858959E-15	5.339159E-17
6.190714E+03	1.888512E-15	5.378321E-17
6.200699E+03	1.916198E-15	5.409593E-17
6.210684E+03	1.940877E-15	5.430037E-17
6.220669E+03	1.961783E-15	5.437899E-17
6.230654E+03	1.978467E-15	5.432408E-17
6.240639E+03	1.990859E-15	5.413896E-17
6.250624E+03	1.999207E-15	5.383593E-17
6.260609E+03	2.003968E-15	5.343269E-17
6.270594E+03	2.005728E-15	5.295020E-17
6.280579E+03	2.005135E-15	5.241048E-17
6.290564E+03	2.002854E-15	5.183546E-17
6.300549E+03	1.999487E-15	5.124487E-17
6.310534E+03	1.995577E-15	5.065648E-17
6.320519E+03	1.991542E-15	5.008442E-17
6.330504E+03	1.987672E-15	4.953940E-17
6.340489E+03	1.984143E-15	4.902917E-17
6.350474E+03	1.981013E-15	4.855851E-17
6.360459E+03	1.978224E-15	4.812949E-17
6.370444E+03	1.975647E-15	4.774254E-17
6.380429E+03	1.973141E-15	4.739802E-17
6.390414E+03	1.970493E-15	4.709459E-17
6.400399E+03	1.967496E-15	4.683115E-17
6.410384E+03	1.963940E-15	4.660641E-17
6.420369E+03	1.959696E-15	4.642094E-17
6.430354E+03	1.954669E-15	4.627573E-17
6.440339E+03	1.948867E-15	4.617391E-17
6.450325E+03	1.942388E-15	4.612024E-17
6.460310E+03	1.935373E-15	4.612005E-17
6.470295E+03	1.928109E-15	4.618038E-17
6.480280E+03	1.920831E-15	4.630419E-17
6.490265E+03	1.913838E-15	4.649565E-17
6.500250E+03	1.907456E-15	4.675954E-17
6.510235E+03	1.901971E-15	4.709989E-17
6.520220E+03	1.897456E-15	4.751569E-17
6.530205E+03	1.893735E-15	4.799979E-17
6.540190E+03	1.890267E-15	4.853548E-17
6.550175E+03	1.886382E-15	4.910208E-17
6.560160E+03	1.881407E-15	4.967789E-17
6.570145E+03	1.874818E-15	5.024406E-17
6.580130E+03	1.866182E-15	5.078341E-17
6.590115E+03	1.855314E-15	5.128477E-17
6.600100E+03	1.842208E-15	5.174162E-17
6.610085E+03	1.827008E-15	5.215169E-17
6.620070E+03	1.810096E-15	5.251989E-17
6.630055E+03	1.791880E-15	5.285268E-17
6.640040E+03	1.772874E-15	5.316065E-17
6.650025E+03	1.753559E-15	5.345451E-17
6.660010E+03	1.734353E-15	5.374417E-17
6.669995E+03	1.715576E-15	5.403750E-17
6.679980E+03	1.697416E-15	5.433898E-17
6.689965E+03	1.680005E-15	5.465191E-17
6.699950E+03	1.663323E-15	5.497497E-17
6.709935E+03	1.647283E-15	5.530475E-17
6.719920E+03	1.631820E-15	5.563852E-17
6.729905E+03	1.616815E-15	5.597168E-17
6.739890E+03	1.602215E-15	5.630189E-17
6.749875E+03	1.587970E-15	5.662686E-17
6.759860E+03	1.574189E-15	5.695009E-17
6.769845E+03	1.560964E-15	5.727475E-17
6.779830E+03	1.548493E-15	5.760820E-17
6.789815E+03	1.537044E-15	5.796094E-17
6.799800E+03	1.526900E-15	5.834471E-17
6.809785E+03	1.518356E-15	5.877219E-17
6.819770E+03	1.511690E-15	5.925607E-17
6.829755E+03	1.507136E-15	5.980784E-17
6.839740E+03	1.504844E-15	6.043596E-17
6.849725E+03	1.504926E-15	6.114766E-17
6.859710E+03	1.507337E-15	6.194389E-17
6.869695E+03	1.511943E-15	6.282164E-17
6.879680E+03	1.518502E-15	6.377309E-17
6.889666E+03	1.526699E-15	6.478688E-17
6.899651E+03	1.536104E-15	6.584593E-17
6.909636E+03	1.546324E-15	6.693417E-17
6.919621E+03	1.556921E-15	6.803262E-17
6.929606E+03	1.567514E-15	6.912431E-17
6.939591E+03	1.577817E-15	7.019573E-17
6.949576E+03	1.587602E-15	7.123561E-17
6.959561E+03	1.596769E-15	7.223815E-17
6.969546E+03	1.605332E-15	7.320260E-17
6.979531E+03	1.613432E-15	7.413422E-17
6.989516E+03	1.621271E-15	7.504118E-17
6.999501E+03	1.629148E-15	7.593668E-17
7.009486E+03	1.637448E-15	7.683812E-17
7.019471E+03	1.646551E-15	7.776329E-17
7.029456E+03	1.656874E-15	7.873216E-17
7.039441E+03	1.668837E-15	7.976516E-17
7.049426E+03	1.682841E-15	8.088225E-17
7.059411E+03	1.699283E-15	8.210344E-17
7.069396E+03	1.718484E-15	8.344530E-17
7.079381E+03	1.740739E-15	8.492330E-17
7.089366E+03	1.766295E-15	8.655048E-17
7.099351E+03	1.795332E-15	8.833661E-17
7.109336E+03	1.827950E-15	9.028743E-17
7.119321E+03	1.864154E-15	9.240362E-17
7.129306E+03	1.903854E-15	9.468103E-17
7.139291E+03	1.946756E-15	9.710484E-17
7.149276E+03	1.992504E-15	9.965675E-17
7.159261E+03	2.040471E-15	1.023045E-16
7.169246E+03	2.089953E-15	1.050111E-16
7.179231E+03	2.139967E-15	1.077256E-16
7.189216E+03	2.189485E-15	1.103939E-16
7.199201E+03	2.237272E-15	1.129512E-16
7.209186E+03	2.282170E-15	1.153366E-16
7.219171E+03	2.322956E-15	1.174857E-16
7.229156E+03	2.358666E-15	1.193472E-16
7.239141E+03	2.388432E-15	1.208753E-16
7.249126E+03	2.411777E-15	1.220442E-16
7.259111E+03	2.428400E-15	1.228375E-16
7.269096E+03	2.438407E-15	1.232603E-16
7.279081E+03	2.442020E-15	1.233238E-16
7.289066E+03	2.439758E-15	1.230549E-16
7.299051E+03	2.432115E-15	1.224795E-16
7.309036E+03	2.419730E-15	1.216313E-16
7.319021E+03	2.403084E-15	1.205361E-16
7.329006E+03	2.382700E-15	1.192223E-16
7.338992E+03	2.358913E-15	1.177086E-16
7.348977E+03	2.331960E-15	1.160092E-16
7.358962E+03	2.302089E-15	1.141392E-16
7.368947E+03	2.269414E-15	1.121068E-16
7.378932E+03	2.234029E-15	1.099196E-16
7.388917E+03	2.196106E-15	1.075893E-16
7.398902E+03	2.155828E-15	1.051279E-16
7.408887E+03	2.113404E-15	1.025491E-16
7.418872E+03	2.069158E-15	9.987204E-17
7.428857E+03	2.023416E-15	9.711559E-17
7.438842E+03	1.976599E-15	9.430326E-17
7.448827E+03	1.929135E-15	9.145830E-17
7.458812E+03	1.881416E-15	8.860194E-17
7.468797E+03	1.833960E-15	8.576087E-17
7.478782E+03	1.787152E-15	8.295480E-17
7.488767E+03	1.741400E-15	8.020404E-17
7.498752E+03	1.697127E-15	7.752889E-17
7.508737E+03	1.654607E-15	7.494204E-17
7.518722E+03	1.614204E-15	7.245988E-17
7.528707E+03	1.576138E-15	7.009144E-17
7.538692E+03	1.540656E-15	6.784644E-17
7.548677E+03	1.507932E-15	6.573077E-17
7.558662E+03	1.478151E-15	6.375026E-17
7.568647E+03	1.451429E-15	6.190726E-17
7.578632E+03	1.427877E-15	6.020330E-17
7.588617E+03	1.407590E-15	5.863894E-17
7.598602E+03	1.390592E-15	5.721121E-17
7.608587E+03	1.376885E-15	5.591610E-17
7.618572E+03	1.366454E-15	5.474843E-17
7.628557E+03	1.359180E-15	5.369897E-17
7.638542E+03	1.354981E-15	5.275976E-17
7.648527E+03	1.353679E-15	5.191916E-17
7.658512E+03	1.355078E-15	5.116516E-17
7.668497E+03	1.358957E-15	5.048504E-17
7.678482E+03	1.365072E-15	4.986564E-17
7.688467E+03	1.373185E-15	4.929456E-17
7.698452E+03	1.383002E-15	4.875784E-17
7.708437E+03	1.394284E-15	4.824425E-17
7.718422E+03	1.406807E-15	4.774362E-17
7.728407E+03	1.420308E-15	4.724509E-17
7.738392E+03	1.434624E-15	4.674183E-17
7.748377E+03	1.449543E-15	4.622600E-17
