#wls	flux	fluxerr
1.597604E+03	1.726224E-19	7.270964E-20
1.637544E+03	1.751321E-19	7.323691E-20
1.677484E+03	1.758228E-19	7.297993E-20
1.717424E+03	1.746897E-19	7.195333E-20
1.757364E+03	1.715833E-19	7.011351E-20
1.797304E+03	1.662150E-19	6.736343E-20
1.837244E+03	1.582874E-19	6.360746E-20
1.877184E+03	1.475479E-19	5.877316E-20
1.917124E+03	1.340564E-19	5.291638E-20
1.957064E+03	1.183073E-19	4.626355E-20
1.997004E+03	1.015290E-19	3.931934E-20
2.036945E+03	8.558574E-20	3.281451E-20
2.076885E+03	7.263708E-20	2.756297E-20
2.116825E+03	6.436761E-20	2.416506E-20
2.156765E+03	6.158599E-20	2.286654E-20
2.196705E+03	6.439646E-20	2.363840E-20
2.236645E+03	7.238254E-20	2.625801E-20
2.276585E+03	8.476115E-20	3.037564E-20
2.316525E+03	1.004995E-19	3.556445E-20
2.356465E+03	1.183540E-19	4.134048E-20
2.396405E+03	1.372658E-19	4.730484E-20
2.436345E+03	1.563768E-19	5.314593E-20
2.476286E+03	1.750757E-19	5.865099E-20
2.516226E+03	1.930274E-19	6.371037E-20
2.556166E+03	2.100389E-19	6.826769E-20
2.596106E+03	2.260495E-19	7.231330E-20
2.636046E+03	2.410597E-19	7.585865E-20
2.675986E+03	2.549980E-19	7.889356E-20
2.715926E+03	2.679703E-19	8.146391E-20
2.755866E+03	2.799907E-19	8.358661E-20
2.795806E+03	2.910786E-19	8.528030E-20
2.835746E+03	3.012653E-19	8.656731E-20
2.875686E+03	3.106813E-19	8.749772E-20
2.915627E+03	3.193810E-19	8.809829E-20
2.955567E+03	3.275853E-19	8.843980E-20
2.995507E+03	3.355100E-19	8.858701E-20
3.005492E+03	3.374956E-19	8.860659E-20
3.015477E+03	3.394596E-19	8.861314E-20
3.025462E+03	3.414848E-19	8.862826E-20
3.035447E+03	3.435196E-19	8.863832E-20
3.045432E+03	3.456642E-19	8.866897E-20
3.055417E+03	3.479967E-19	8.873965E-20
3.065402E+03	3.505065E-19	8.884679E-20
3.075387E+03	3.531471E-19	8.897785E-20
3.085372E+03	3.559889E-19	8.914987E-20
3.095357E+03	3.589903E-19	8.935155E-20
3.105342E+03	3.621116E-19	8.957231E-20
3.115327E+03	3.653921E-19	8.982125E-20
3.125312E+03	3.688735E-19	9.010783E-20
3.135297E+03	3.724840E-19	9.041367E-20
3.145282E+03	3.762699E-19	9.074928E-20
3.155267E+03	3.802798E-19	9.112553E-20
3.165252E+03	3.844480E-19	9.152569E-20
3.175237E+03	3.888279E-19	9.196164E-20
3.185222E+03	3.934363E-19	9.243633E-20
3.195207E+03	3.983325E-19	9.296250E-20
3.205192E+03	4.034594E-19	9.352552E-20
3.215177E+03	4.089214E-19	9.414835E-20
3.225162E+03	4.146663E-19	9.481745E-20
3.235147E+03	4.208059E-19	9.555685E-20
3.245132E+03	4.273347E-19	9.636340E-20
3.255117E+03	4.342906E-19	9.724374E-20
3.265102E+03	4.417163E-19	9.820531E-20
3.275087E+03	4.496584E-19	9.925612E-20
3.285072E+03	4.581687E-19	1.004050E-19
3.295057E+03	4.673475E-19	1.016711E-19
3.305042E+03	4.772156E-19	1.030557E-19
3.315027E+03	4.878430E-19	1.045704E-19
3.325012E+03	4.993072E-19	1.062281E-19
3.334998E+03	5.117398E-19	1.080525E-19
3.344983E+03	5.251452E-19	1.100397E-19
3.354968E+03	5.397218E-19	1.122265E-19
3.364953E+03	5.555910E-19	1.146320E-19
3.374938E+03	5.727883E-19	1.172574E-19
3.384923E+03	5.915599E-19	1.201462E-19
3.394908E+03	6.120224E-19	1.233142E-19
3.404893E+03	6.344155E-19	1.268011E-19
3.414878E+03	6.588973E-19	1.306289E-19
3.424863E+03	6.857034E-19	1.348338E-19
3.434848E+03	7.151586E-19	1.394677E-19
3.444833E+03	7.475084E-19	1.445653E-19
3.454818E+03	7.830934E-19	1.501779E-19
3.464803E+03	8.223664E-19	1.563757E-19
3.474788E+03	8.657052E-19	1.632121E-19
3.484773E+03	9.136820E-19	1.707743E-19
3.494758E+03	9.668006E-19	1.791330E-19
3.504743E+03	1.025790E-18	1.883972E-19
3.514728E+03	1.091320E-18	1.986603E-19
3.524713E+03	1.164327E-18	2.100595E-19
3.534698E+03	1.245701E-18	2.227175E-19
3.544683E+03	1.336649E-18	2.368078E-19
3.554668E+03	1.438458E-18	2.525096E-19
3.564653E+03	1.552367E-18	2.699860E-19
3.574638E+03	1.680374E-18	2.895230E-19
3.584623E+03	1.824156E-18	3.113382E-19
3.594608E+03	1.985865E-18	3.357194E-19
3.604593E+03	2.168258E-18	3.630420E-19
3.614578E+03	2.373689E-18	3.935966E-19
3.624563E+03	2.605819E-18	4.278735E-19
3.634548E+03	2.867911E-18	4.662749E-19
3.644533E+03	3.163991E-18	5.093057E-19
3.654518E+03	3.499056E-18	5.575992E-19
3.664503E+03	3.877789E-18	6.117080E-19
3.674488E+03	4.305864E-18	6.723098E-19
3.684473E+03	4.789897E-18	7.401925E-19
3.694458E+03	5.336979E-18	8.161750E-19
3.704443E+03	5.954934E-18	9.011428E-19
3.714428E+03	6.651960E-18	9.959887E-19
3.724413E+03	7.437839E-18	1.101790E-18
3.734398E+03	8.322332E-18	1.219559E-18
3.744383E+03	9.317021E-18	1.350514E-18
3.754368E+03	1.043394E-17	1.495867E-18
3.764353E+03	1.168599E-17	1.656878E-18
3.774338E+03	1.308613E-17	1.834739E-18
3.784324E+03	1.464949E-17	2.030866E-18
3.794309E+03	1.639029E-17	2.246458E-18
3.804294E+03	1.832612E-17	2.483088E-18
3.814279E+03	2.046983E-17	2.741588E-18
3.824264E+03	2.284091E-17	3.023603E-18
3.834249E+03	2.545297E-17	3.329888E-18
3.844234E+03	2.832283E-17	3.661543E-18
3.854219E+03	3.146343E-17	4.019072E-18
3.864204E+03	3.488963E-17	4.403162E-18
3.874189E+03	3.861321E-17	4.814030E-18
3.884174E+03	4.264147E-17	5.251285E-18
3.894159E+03	4.698328E-17	5.714699E-18
3.904144E+03	5.163978E-17	6.203074E-18
3.914129E+03	5.661387E-17	6.715431E-18
3.924114E+03	6.190258E-17	7.250105E-18
3.934099E+03	6.749587E-17	7.804647E-18
3.944084E+03	7.338274E-17	8.376578E-18
3.954069E+03	7.955295E-17	8.963584E-18
3.964054E+03	8.598560E-17	9.562249E-18
3.974039E+03	9.266568E-17	1.016994E-17
3.984024E+03	9.956785E-17	1.078302E-17
3.994009E+03	1.066754E-16	1.139892E-17
4.003994E+03	1.139627E-16	1.201426E-17
4.013979E+03	1.214101E-16	1.262644E-17
4.023964E+03	1.290015E-16	1.323336E-17
4.033949E+03	1.367316E-16	1.383409E-17
4.043934E+03	1.445877E-16	1.442705E-17
4.053919E+03	1.525693E-16	1.501192E-17
4.063904E+03	1.606827E-16	1.558907E-17
4.073889E+03	1.689485E-16	1.616018E-17
4.083874E+03	1.773703E-16	1.672530E-17
4.093859E+03	1.859802E-16	1.728708E-17
4.103844E+03	1.948165E-16	1.784859E-17
4.113829E+03	2.038944E-16	1.841066E-17
4.123814E+03	2.132567E-16	1.897650E-17
4.133799E+03	2.229381E-16	1.954842E-17
4.143784E+03	2.329721E-16	2.012850E-17
4.153769E+03	2.433895E-16	2.071842E-17
4.163754E+03	2.542067E-16	2.131859E-17
4.173739E+03	2.654563E-16	2.193067E-17
4.183724E+03	2.771549E-16	2.255494E-17
4.193709E+03	2.893018E-16	2.319027E-17
4.203694E+03	3.019011E-16	2.383593E-17
4.213679E+03	3.149640E-16	2.449183E-17
4.223665E+03	3.284845E-16	2.515656E-17
4.233650E+03	3.424391E-16	2.582747E-17
4.243635E+03	3.567981E-16	2.650166E-17
4.253620E+03	3.715861E-16	2.718038E-17
4.263605E+03	3.867403E-16	2.785857E-17
4.273590E+03	4.022533E-16	2.853544E-17
4.283575E+03	4.181189E-16	2.921038E-17
4.293560E+03	4.342834E-16	2.987966E-17
4.303545E+03	4.507415E-16	3.054309E-17
4.313530E+03	4.674926E-16	3.120092E-17
4.323515E+03	4.844883E-16	3.185035E-17
4.333500E+03	5.017221E-16	3.249154E-17
4.343485E+03	5.192193E-16	3.312681E-17
4.353470E+03	5.370067E-16	3.375855E-17
4.363455E+03	5.551368E-16	3.439075E-17
4.373440E+03	5.736762E-16	3.502817E-17
4.383425E+03	5.927468E-16	3.567877E-17
4.393410E+03	6.124519E-16	3.634912E-17
4.403395E+03	6.328037E-16	3.704026E-17
4.413380E+03	6.538507E-16	3.775546E-17
4.423365E+03	6.756495E-16	3.849846E-17
4.433350E+03	6.982761E-16	3.927411E-17
4.443335E+03	7.217151E-16	4.008219E-17
4.453320E+03	7.460119E-16	4.092602E-17
4.463305E+03	7.710636E-16	4.180101E-17
4.473290E+03	7.967792E-16	4.270366E-17
4.483275E+03	8.230014E-16	4.362739E-17
4.493260E+03	8.494209E-16	4.455816E-17
4.503245E+03	8.757105E-16	4.548179E-17
4.513230E+03	9.015417E-16	4.638476E-17
4.523215E+03	9.264244E-16	4.724591E-17
4.533200E+03	9.499029E-16	4.804654E-17
4.543185E+03	9.715582E-16	4.877026E-17
4.553170E+03	9.909744E-16	4.940019E-17
4.563155E+03	1.007761E-15	4.992012E-17
4.573140E+03	1.021635E-15	5.031898E-17
4.583125E+03	1.032442E-15	5.059158E-17
4.593110E+03	1.040067E-15	5.073424E-17
4.603095E+03	1.044566E-15	5.075102E-17
4.613080E+03	1.046000E-15	5.064554E-17
4.623065E+03	1.044644E-15	5.043128E-17
4.633050E+03	1.040749E-15	5.011982E-17
4.643035E+03	1.034644E-15	4.972622E-17
4.653020E+03	1.026723E-15	4.926803E-17
4.663005E+03	1.017294E-15	4.875847E-17
4.672991E+03	1.006751E-15	4.821474E-17
4.682976E+03	9.954675E-16	4.765281E-17
4.692961E+03	9.836963E-16	4.708295E-17
4.702946E+03	9.717728E-16	4.651935E-17
4.712931E+03	9.599057E-16	4.597025E-17
4.722916E+03	9.482663E-16	4.544218E-17
4.732901E+03	9.370431E-16	4.494266E-17
4.742886E+03	9.263891E-16	4.447760E-17
4.752871E+03	9.163443E-16	4.404767E-17
4.762856E+03	9.070014E-16	4.365619E-17
4.772841E+03	8.984023E-16	4.330417E-17
4.782826E+03	8.905662E-16	4.299161E-17
4.792811E+03	8.834943E-16	4.271777E-17
4.802796E+03	8.771706E-16	4.248115E-17
4.812781E+03	8.715398E-16	4.227842E-17
4.822766E+03	8.666067E-16	4.210923E-17
4.832751E+03	8.622661E-16	4.196792E-17
4.842736E+03	8.584743E-16	4.185185E-17
4.852721E+03	8.551526E-16	4.175672E-17
4.862706E+03	8.522143E-16	4.167784E-17
4.872691E+03	8.495649E-16	4.161018E-17
4.882676E+03	8.471057E-16	4.154848E-17
4.892661E+03	8.447125E-16	4.148627E-17
4.902646E+03	8.423331E-16	4.142060E-17
4.912631E+03	8.398297E-16	4.134435E-17
4.922616E+03	8.371449E-16	4.125438E-17
4.932601E+03	8.342377E-16	4.114836E-17
4.942586E+03	8.310217E-16	4.102179E-17
4.952571E+03	8.275040E-16	4.087481E-17
4.962556E+03	8.236981E-16	4.070791E-17
4.972541E+03	8.196473E-16	4.052314E-17
4.982526E+03	8.154235E-16	4.032396E-17
4.992511E+03	8.111024E-16	4.011410E-17
5.002496E+03	8.068425E-16	3.990142E-17
5.012481E+03	8.027511E-16	3.969128E-17
5.022466E+03	7.989602E-16	3.949026E-17
5.032451E+03	7.955971E-16	3.930475E-17
5.042436E+03	7.927750E-16	3.914041E-17
5.052421E+03	7.905863E-16	3.900190E-17
5.062406E+03	7.890762E-16	3.889152E-17
5.072391E+03	7.883193E-16	3.881301E-17
5.082376E+03	7.883158E-16	3.876644E-17
5.092361E+03	7.889908E-16	3.874820E-17
5.102346E+03	7.902988E-16	3.875613E-17
5.112332E+03	7.921633E-16	3.878657E-17
5.122317E+03	7.944221E-16	3.883173E-17
5.132302E+03	7.969750E-16	3.888689E-17
5.142287E+03	7.996464E-16	3.894372E-17
5.152272E+03	8.022737E-16	3.899464E-17
5.162257E+03	8.046946E-16	3.903214E-17
5.172242E+03	8.067510E-16	3.904906E-17
5.182227E+03	8.083178E-16	3.903991E-17
5.192212E+03	8.092235E-16	3.899707E-17
5.202197E+03	8.094001E-16	3.891799E-17
5.212182E+03	8.087400E-16	3.879831E-17
5.222167E+03	8.072016E-16	3.863688E-17
5.232152E+03	8.047285E-16	3.843190E-17
5.242137E+03	8.012885E-16	3.818276E-17
5.252122E+03	7.969533E-16	3.789379E-17
5.262107E+03	7.916951E-16	3.756459E-17
5.272092E+03	7.856043E-16	3.720034E-17
5.282077E+03	7.787249E-16	3.680397E-17
5.292062E+03	7.711317E-16	3.637982E-17
5.302047E+03	7.629262E-16	3.593341E-17
5.312032E+03	7.541731E-16	3.546846E-17
5.322017E+03	7.449743E-16	3.499037E-17
5.332002E+03	7.353718E-16	3.450165E-17
5.341987E+03	7.254728E-16	3.400779E-17
5.351972E+03	7.153360E-16	3.351193E-17
5.361957E+03	7.049872E-16	3.301561E-17
5.371942E+03	6.944541E-16	3.252037E-17
5.381927E+03	6.837608E-16	3.202754E-17
5.391912E+03	6.728767E-16	3.153580E-17
5.401897E+03	6.617669E-16	3.104354E-17
5.411882E+03	6.503928E-16	3.054887E-17
5.421867E+03	6.386809E-16	3.004759E-17
5.431852E+03	6.265273E-16	2.953360E-17
5.441837E+03	6.138371E-16	2.900118E-17
5.451822E+03	6.005339E-16	2.844537E-17
5.461807E+03	5.865255E-16	2.786046E-17
5.471792E+03	5.717740E-16	2.724323E-17
5.481777E+03	5.562613E-16	2.659140E-17
5.491762E+03	5.400088E-16	2.590458E-17
5.501747E+03	5.231406E-16	2.518733E-17
5.511732E+03	5.057954E-16	2.444507E-17
5.521717E+03	4.881680E-16	2.368607E-17
5.531702E+03	4.704494E-16	2.291863E-17
5.541687E+03	4.528656E-16	2.215297E-17
5.551672E+03	4.356335E-16	2.139916E-17
5.561658E+03	4.189530E-16	2.066664E-17
5.571643E+03	4.030419E-16	1.996604E-17
5.581628E+03	3.880482E-16	1.930473E-17
5.591613E+03	3.741567E-16	1.869215E-17
5.601598E+03	3.614798E-16	1.813429E-17
5.611583E+03	3.501334E-16	1.763750E-17
5.621568E+03	3.401995E-16	1.720652E-17
5.631553E+03	3.317402E-16	1.684517E-17
5.641538E+03	3.247897E-16	1.655591E-17
5.651523E+03	3.193915E-16	1.634170E-17
5.661508E+03	3.155430E-16	1.620316E-17
5.671493E+03	3.132554E-16	1.614155E-17
5.681478E+03	3.125231E-16	1.615726E-17
5.691463E+03	3.133320E-16	1.625016E-17
5.701448E+03	3.156612E-16	1.641970E-17
5.711433E+03	3.194724E-16	1.666433E-17
5.721418E+03	3.247423E-16	1.698320E-17
5.731403E+03	3.314121E-16	1.737347E-17
5.741388E+03	3.394171E-16	1.783189E-17
5.751373E+03	3.486672E-16	1.835374E-17
5.761358E+03	3.590790E-16	1.893453E-17
5.771343E+03	3.705225E-16	1.956718E-17
5.781328E+03	3.828534E-16	2.024373E-17
5.791313E+03	3.959051E-16	2.095491E-17
5.801298E+03	4.094896E-16	2.169023E-17
5.811283E+03	4.234106E-16	2.243865E-17
5.821268E+03	4.374272E-16	2.318672E-17
5.831253E+03	4.513321E-16	2.392275E-17
5.841238E+03	4.648871E-16	2.463337E-17
5.851223E+03	4.778710E-16	2.530621E-17
5.861208E+03	4.900804E-16	2.592984E-17
5.871193E+03	5.013358E-16	2.649426E-17
5.881178E+03	5.115035E-16	2.699197E-17
5.891163E+03	5.204621E-16	2.741630E-17
5.901148E+03	5.281443E-16	2.776354E-17
5.911133E+03	5.345416E-16	2.803324E-17
5.921118E+03	5.396624E-16	2.822598E-17
5.931103E+03	5.435727E-16	2.834546E-17
5.941088E+03	5.463774E-16	2.839748E-17
5.951073E+03	5.482325E-16	2.839055E-17
5.961058E+03	5.492974E-16	2.833334E-17
5.971043E+03	5.497853E-16	2.823724E-17
5.981028E+03	5.499022E-16	2.811316E-17
5.991013E+03	5.498842E-16	2.797341E-17
6.000999E+03	5.499781E-16	2.783064E-17
6.010984E+03	5.504528E-16	2.769834E-17
6.020969E+03	5.515670E-16	2.758917E-17
6.030954E+03	5.535690E-16	2.751494E-17
6.040939E+03	5.567205E-16	2.748776E-17
6.050924E+03	5.612978E-16	2.751998E-17
6.060909E+03	5.675474E-16	2.762209E-17
6.070894E+03	5.757434E-16	2.780536E-17
6.080879E+03	5.861266E-16	2.807898E-17
6.090864E+03	5.989630E-16	2.845279E-17
6.100849E+03	6.144790E-16	2.893416E-17
6.110834E+03	6.329003E-16	2.952991E-17
6.120819E+03	6.544634E-16	3.024678E-17
6.130804E+03	6.792879E-16	3.108557E-17
6.140789E+03	7.075258E-16	3.204818E-17
6.150774E+03	7.392302E-16	3.313163E-17
6.160759E+03	7.743451E-16	3.432788E-17
6.170744E+03	8.127418E-16	3.562570E-17
6.180729E+03	8.541379E-16	3.700743E-17
6.190714E+03	8.980521E-16	3.844740E-17
6.200699E+03	9.439450E-16	3.991859E-17
6.210684E+03	9.909922E-16	4.138325E-17
6.220669E+03	1.038276E-15	4.280175E-17
6.230654E+03	1.084689E-15	4.412890E-17
6.240639E+03	1.129080E-15	4.532048E-17
6.250624E+03	1.170235E-15	4.633255E-17
6.260609E+03	1.206937E-15	4.712412E-17
6.270594E+03	1.238138E-15	4.766367E-17
6.280579E+03	1.262938E-15	4.792795E-17
6.290564E+03	1.280647E-15	4.790367E-17
6.300549E+03	1.290926E-15	4.759220E-17
6.310534E+03	1.293710E-15	4.700561E-17
6.320519E+03	1.289203E-15	4.616568E-17
6.330504E+03	1.277952E-15	4.510556E-17
6.340489E+03	1.260693E-15	4.386361E-17
6.350474E+03	1.238328E-15	4.248191E-17
6.360459E+03	1.211822E-15	4.100248E-17
6.370444E+03	1.182267E-15	3.946918E-17
6.380429E+03	1.150604E-15	3.791831E-17
6.390414E+03	1.117787E-15	3.638458E-17
6.400399E+03	1.084604E-15	3.489525E-17
6.410384E+03	1.051795E-15	3.347454E-17
6.420369E+03	1.019847E-15	3.213730E-17
6.430354E+03	9.892164E-16	3.089663E-17
6.440339E+03	9.601220E-16	2.975760E-17
6.450325E+03	9.327458E-16	2.872390E-17
6.460310E+03	9.071450E-16	2.779525E-17
6.470295E+03	8.833004E-16	2.696907E-17
6.480280E+03	8.611384E-16	2.624119E-17
6.490265E+03	8.405530E-16	2.560656E-17
6.500250E+03	8.214247E-16	2.505980E-17
6.510235E+03	8.036388E-16	2.459468E-17
6.520220E+03	7.870978E-16	2.420445E-17
6.530205E+03	7.716341E-16	2.388035E-17
6.540190E+03	7.570056E-16	2.361148E-17
6.550175E+03	7.429544E-16	2.338645E-17
6.560160E+03	7.293390E-16	2.319750E-17
6.570145E+03	7.160668E-16	2.303846E-17
6.580130E+03	7.030303E-16	2.290273E-17
6.590115E+03	6.902351E-16	2.278746E-17
6.600100E+03	6.776568E-16	2.268902E-17
6.610085E+03	6.653111E-16	2.260529E-17
6.620070E+03	6.532258E-16	2.253481E-17
6.630055E+03	6.414545E-16	2.247733E-17
6.640040E+03	6.300009E-16	2.243112E-17
6.650025E+03	6.189372E-16	2.239718E-17
6.660010E+03	6.082978E-16	2.237551E-17
6.669995E+03	5.980791E-16	2.236495E-17
6.679980E+03	5.883388E-16	2.236686E-17
6.689965E+03	5.790795E-16	2.238080E-17
6.699950E+03	5.703136E-16	2.240688E-17
6.709935E+03	5.620659E-16	2.244588E-17
6.719920E+03	5.543242E-16	2.249729E-17
6.729905E+03	5.471050E-16	2.256186E-17
6.739890E+03	5.403777E-16	2.263850E-17
6.749875E+03	5.341708E-16	2.272866E-17
6.759860E+03	5.284828E-16	2.283267E-17
6.769845E+03	5.232990E-16	2.295030E-17
6.779830E+03	5.186215E-16	2.308213E-17
6.789815E+03	5.144689E-16	2.322949E-17
6.799800E+03	5.108342E-16	2.339267E-17
6.809785E+03	5.077261E-16	2.357267E-17
6.819770E+03	5.051720E-16	2.377141E-17
6.829755E+03	5.031865E-16	2.399032E-17
6.839740E+03	5.017581E-16	2.422955E-17
6.849725E+03	5.009476E-16	2.449282E-17
6.859710E+03	5.007337E-16	2.477989E-17
6.869695E+03	5.011667E-16	2.509405E-17
6.879680E+03	5.022701E-16	2.543730E-17
6.889666E+03	5.040554E-16	2.581112E-17
6.899651E+03	5.065505E-16	2.621776E-17
6.909636E+03	5.098003E-16	2.666042E-17
6.919621E+03	5.138242E-16	2.714101E-17
6.929606E+03	5.186758E-16	2.766322E-17
6.939591E+03	5.243844E-16	2.822951E-17
6.949576E+03	5.309988E-16	2.884338E-17
6.959561E+03	5.385911E-16	2.950965E-17
6.969546E+03	5.472252E-16	3.023271E-17
6.979531E+03	5.569586E-16	3.101664E-17
6.989516E+03	5.678702E-16	3.186673E-17
6.999501E+03	5.800471E-16	3.278874E-17
7.009486E+03	5.935999E-16	3.378982E-17
7.019471E+03	6.086121E-16	3.487558E-17
7.029456E+03	6.252041E-16	3.605377E-17
7.039441E+03	6.434621E-16	3.733017E-17
7.049426E+03	6.634860E-16	3.871129E-17
7.059411E+03	6.853886E-16	4.020435E-17
7.069396E+03	7.092291E-16	4.181339E-17
7.079381E+03	7.350656E-16	4.354221E-17
7.089366E+03	7.629497E-16	4.539410E-17
7.099351E+03	7.928520E-16	4.736733E-17
7.109336E+03	8.247170E-16	4.945836E-17
7.119321E+03	8.584309E-16	5.165986E-17
7.129306E+03	8.938125E-16	5.396013E-17
7.139291E+03	9.306319E-16	5.634418E-17
7.149276E+03	9.685251E-16	5.878857E-17
7.159261E+03	1.007067E-15	6.126574E-17
7.169246E+03	1.045748E-15	6.374269E-17
7.179231E+03	1.084011E-15	6.618318E-17
7.189216E+03	1.121139E-15	6.854111E-17
7.199201E+03	1.156493E-15	7.077483E-17
7.209186E+03	1.189276E-15	7.283329E-17
7.219171E+03	1.218833E-15	7.467397E-17
7.229156E+03	1.244436E-15	7.625034E-17
7.239141E+03	1.265459E-15	7.752246E-17
7.249126E+03	1.281330E-15	7.845432E-17
7.259111E+03	1.291712E-15	7.902480E-17
7.269096E+03	1.296295E-15	7.921514E-17
7.279081E+03	1.294919E-15	7.901658E-17
7.289066E+03	1.287691E-15	7.843728E-17
7.299051E+03	1.274719E-15	7.748609E-17
7.309036E+03	1.256395E-15	7.618975E-17
7.319021E+03	1.233083E-15	7.457363E-17
7.329006E+03	1.205353E-15	7.267600E-17
7.338992E+03	1.173808E-15	7.053714E-17
7.348977E+03	1.139064E-15	6.819803E-17
7.358962E+03	1.101857E-15	6.570681E-17
7.368947E+03	1.062788E-15	6.310301E-17
7.378932E+03	1.022536E-15	6.043050E-17
7.388917E+03	9.817067E-16	5.772826E-17
7.398902E+03	9.408302E-16	5.503016E-17
7.408887E+03	9.004350E-16	5.236934E-17
7.418872E+03	8.609577E-16	4.977290E-17
7.428857E+03	8.227432E-16	4.726198E-17
7.438842E+03	7.861249E-16	4.485638E-17
7.448827E+03	7.513465E-16	4.257017E-17
7.458812E+03	7.185720E-16	4.041233E-17
7.468797E+03	6.879577E-16	3.839094E-17
7.478782E+03	6.595692E-16	3.650853E-17
7.488767E+03	6.334732E-16	3.476737E-17
7.498752E+03	6.096787E-16	3.316618E-17
7.508737E+03	5.881481E-16	3.170097E-17
7.518722E+03	5.688401E-16	3.036737E-17
7.528707E+03	5.517088E-16	2.916062E-17
7.538692E+03	5.366750E-16	2.807416E-17
7.548677E+03	5.236329E-16	2.709999E-17
7.558662E+03	5.124828E-16	2.623052E-17
7.568647E+03	5.031340E-16	2.545865E-17
7.578632E+03	4.954745E-16	2.477632E-17
7.588617E+03	4.893576E-16	2.417391E-17
7.598602E+03	4.847088E-16	2.364557E-17
7.608587E+03	4.813627E-16	2.318118E-17
7.618572E+03	4.792245E-16	2.277434E-17
7.628557E+03	4.781551E-16	2.241677E-17
7.638542E+03	4.780426E-16	2.210181E-17
7.648527E+03	4.787474E-16	2.182182E-17
7.658512E+03	4.801445E-16	2.157020E-17
7.668497E+03	4.821256E-16	2.134149E-17
7.678482E+03	4.845567E-16	2.112943E-17
7.688467E+03	4.873241E-16	2.092908E-17
7.698452E+03	4.903361E-16	2.073680E-17
7.708437E+03	4.934794E-16	2.054841E-17
7.718422E+03	4.966682E-16	2.036126E-17
7.728407E+03	4.998457E-16	2.017423E-17
7.738392E+03	5.029229E-16	1.998514E-17
7.748377E+03	5.059080E-16	1.979600E-17
