#wls	flux	fluxerr
1.597604E+03	3.012043E-18	9.661125E-20
1.637544E+03	3.161096E-18	1.013111E-19
1.677484E+03	3.284770E-18	1.051883E-19
1.717424E+03	3.378835E-18	1.081093E-19
1.757364E+03	3.438109E-18	1.099106E-19
1.797304E+03	3.452624E-18	1.102766E-19
1.837244E+03	3.410287E-18	1.088250E-19
1.877184E+03	3.298468E-18	1.051583E-19
1.917124E+03	3.111484E-18	9.910178E-20
1.957064E+03	2.853325E-18	9.078979E-20
1.997004E+03	2.545788E-18	8.092241E-20
2.036945E+03	2.232834E-18	7.090100E-20
2.076885E+03	1.973004E-18	6.258374E-20
2.116825E+03	1.821382E-18	5.771127E-20
2.156765E+03	1.817220E-18	5.751498E-20
2.196705E+03	1.983306E-18	6.269959E-20
2.236645E+03	2.328450E-18	7.352429E-20
2.276585E+03	2.851736E-18	8.993928E-20
2.316525E+03	3.539250E-18	1.114845E-19
2.356465E+03	4.369795E-18	1.374719E-19
2.396405E+03	5.320311E-18	1.671575E-19
2.436345E+03	6.371068E-18	1.999049E-19
2.476286E+03	7.510023E-18	2.353210E-19
2.516226E+03	8.733878E-18	2.732878E-19
2.556166E+03	1.004287E-17	3.137979E-19
2.596106E+03	1.144474E-17	3.570775E-19
2.636046E+03	1.294914E-17	4.034102E-19
2.675986E+03	1.456278E-17	4.529849E-19
2.715926E+03	1.630445E-17	5.063653E-19
2.755866E+03	1.818110E-17	5.637415E-19
2.795806E+03	2.020241E-17	6.253875E-19
2.835746E+03	2.237869E-17	6.915929E-19
2.875686E+03	2.471281E-17	7.624141E-19
2.915627E+03	2.719594E-17	8.375467E-19
2.955567E+03	2.981225E-17	9.164711E-19
2.995507E+03	3.253706E-17	9.983988E-19
3.005492E+03	3.323068E-17	1.019208E-18
3.015477E+03	3.392699E-17	1.040077E-18
3.025462E+03	3.462491E-17	1.060973E-18
3.035447E+03	3.532515E-17	1.081917E-18
3.045432E+03	3.603220E-17	1.103047E-18
3.055417E+03	3.675239E-17	1.124555E-18
3.065402E+03	3.748272E-17	1.146350E-18
3.075387E+03	3.822013E-17	1.168338E-18
3.085372E+03	3.896150E-17	1.190421E-18
3.095357E+03	3.970364E-17	1.212503E-18
3.105342E+03	4.044327E-17	1.234484E-18
3.115327E+03	4.117710E-17	1.256262E-18
3.125312E+03	4.190847E-17	1.277940E-18
3.135297E+03	4.262067E-17	1.299009E-18
3.145282E+03	4.331693E-17	1.319567E-18
3.155267E+03	4.399387E-17	1.339512E-18
3.165252E+03	4.465531E-17	1.358962E-18
3.175237E+03	4.528397E-17	1.377391E-18
3.185222E+03	4.588387E-17	1.394923E-18
3.195207E+03	4.645968E-17	1.411700E-18
3.205192E+03	4.699431E-17	1.427206E-18
3.215177E+03	4.750059E-17	1.441830E-18
3.225162E+03	4.796200E-17	1.455074E-18
3.235147E+03	4.838504E-17	1.467136E-18
3.245132E+03	4.877699E-17	1.478239E-18
3.255117E+03	4.913051E-17	1.488161E-18
3.265102E+03	4.943868E-17	1.496696E-18
3.275087E+03	4.971857E-17	1.504362E-18
3.285072E+03	4.995670E-17	1.510751E-18
3.295057E+03	5.017147E-17	1.516423E-18
3.305042E+03	5.035823E-17	1.521239E-18
3.315027E+03	5.051267E-17	1.525068E-18
3.325012E+03	5.065452E-17	1.528509E-18
3.334998E+03	5.077997E-17	1.531447E-18
3.344983E+03	5.089327E-17	1.534010E-18
3.354968E+03	5.099067E-17	1.536088E-18
3.364953E+03	5.109224E-17	1.538283E-18
3.374938E+03	5.119400E-17	1.540477E-18
3.384923E+03	5.129970E-17	1.542782E-18
3.394908E+03	5.141285E-17	1.545304E-18
3.404893E+03	5.153667E-17	1.548138E-18
3.414878E+03	5.167402E-17	1.551371E-18
3.424863E+03	5.181950E-17	1.554839E-18
3.434848E+03	5.199143E-17	1.559092E-18
3.444833E+03	5.218384E-17	1.563948E-18
3.454818E+03	5.239858E-17	1.569463E-18
3.464803E+03	5.263733E-17	1.575685E-18
3.474788E+03	5.290162E-17	1.582658E-18
3.484773E+03	5.320112E-17	1.590671E-18
3.494758E+03	5.352097E-17	1.599278E-18
3.504743E+03	5.387082E-17	1.608765E-18
3.514728E+03	5.425224E-17	1.619178E-18
3.524713E+03	5.466691E-17	1.630564E-18
3.534698E+03	5.511667E-17	1.642978E-18
3.544683E+03	5.560350E-17	1.656476E-18
3.554668E+03	5.612953E-17	1.671118E-18
3.564653E+03	5.670575E-17	1.687231E-18
3.574638E+03	5.731743E-17	1.704373E-18
3.584623E+03	5.797579E-17	1.722876E-18
3.594608E+03	5.868359E-17	1.742818E-18
3.604593E+03	5.944374E-17	1.764283E-18
3.614578E+03	6.026835E-17	1.787627E-18
3.624563E+03	6.114229E-17	1.812398E-18
3.634548E+03	6.207760E-17	1.838950E-18
3.644533E+03	6.308687E-17	1.867651E-18
3.654518E+03	6.415410E-17	1.898025E-18
3.664503E+03	6.529151E-17	1.930428E-18
3.674488E+03	6.651185E-17	1.965233E-18
3.684473E+03	6.779774E-17	2.001922E-18
3.694458E+03	6.916136E-17	2.040850E-18
3.704443E+03	7.061541E-17	2.082387E-18
3.714428E+03	7.214076E-17	2.125965E-18
3.724413E+03	7.374946E-17	2.171932E-18
3.734398E+03	7.545423E-17	2.220658E-18
3.744383E+03	7.723397E-17	2.271517E-18
3.754368E+03	7.911265E-17	2.325209E-18
3.764353E+03	8.106783E-17	2.381067E-18
3.774338E+03	8.311184E-17	2.439450E-18
3.784324E+03	8.525807E-17	2.500744E-18
3.794309E+03	8.748200E-17	2.564224E-18
3.804294E+03	8.980976E-17	2.630649E-18
3.814279E+03	9.221520E-17	2.699249E-18
3.824264E+03	9.471129E-17	2.770397E-18
3.834249E+03	9.731202E-17	2.844497E-18
3.844234E+03	9.998813E-17	2.920685E-18
3.854219E+03	1.027674E-16	2.999770E-18
3.864204E+03	1.056178E-16	3.080808E-18
3.874189E+03	1.085671E-16	3.164606E-18
3.884174E+03	1.115798E-16	3.250122E-18
3.894159E+03	1.146664E-16	3.337657E-18
3.904144E+03	1.178379E-16	3.427524E-18
3.914129E+03	1.210524E-16	3.518504E-18
3.924114E+03	1.243359E-16	3.611347E-18
3.934099E+03	1.276422E-16	3.704704E-18
3.944084E+03	1.309965E-16	3.799306E-18
3.954069E+03	1.343481E-16	3.893683E-18
3.964054E+03	1.377023E-16	3.987985E-18
3.974039E+03	1.410658E-16	4.082405E-18
3.984024E+03	1.443841E-16	4.175365E-18
3.994009E+03	1.476855E-16	4.267688E-18
4.003994E+03	1.509156E-16	4.357801E-18
4.013979E+03	1.540852E-16	4.446023E-18
4.023964E+03	1.572093E-16	4.532787E-18
4.033949E+03	1.602378E-16	4.616652E-18
4.043934E+03	1.631907E-16	4.698201E-18
4.053919E+03	1.660930E-16	4.778157E-18
4.063904E+03	1.689008E-16	4.855261E-18
4.073889E+03	1.716440E-16	4.930378E-18
4.083874E+03	1.743558E-16	5.004461E-18
4.093859E+03	1.769949E-16	5.076336E-18
4.103844E+03	1.795962E-16	5.146997E-18
4.113829E+03	1.821945E-16	5.217452E-18
4.123814E+03	1.847459E-16	5.286437E-18
4.133799E+03	1.872824E-16	5.354876E-18
4.143784E+03	1.898085E-16	5.422895E-18
4.153769E+03	1.923258E-16	5.490540E-18
4.163754E+03	1.948619E-16	5.558601E-18
4.173739E+03	1.973594E-16	5.625436E-18
4.183724E+03	1.998419E-16	5.691726E-18
4.193709E+03	2.023046E-16	5.757327E-18
4.203694E+03	2.047424E-16	5.822102E-18
4.213679E+03	2.071506E-16	5.885918E-18
4.223665E+03	2.095555E-16	5.949519E-18
4.233650E+03	2.118960E-16	6.011176E-18
4.243635E+03	2.142022E-16	6.071745E-18
4.253620E+03	2.164772E-16	6.131314E-18
4.263605E+03	2.187276E-16	6.190076E-18
4.273590E+03	2.209630E-16	6.248302E-18
4.283575E+03	2.231956E-16	6.306335E-18
4.293560E+03	2.254406E-16	6.364610E-18
4.303545E+03	2.277156E-16	6.423617E-18
4.313530E+03	2.300071E-16	6.482975E-18
4.323515E+03	2.323999E-16	6.545072E-18
4.333500E+03	2.348821E-16	6.609568E-18
4.343485E+03	2.374743E-16	6.677032E-18
4.353470E+03	2.401957E-16	6.747996E-18
4.363455E+03	2.430637E-16	6.822943E-18
4.373440E+03	2.460595E-16	6.901330E-18
4.383425E+03	2.492636E-16	6.985410E-18
4.393410E+03	2.526457E-16	7.074316E-18
4.403395E+03	2.561652E-16	7.166898E-18
4.413380E+03	2.598827E-16	7.264845E-18
4.423365E+03	2.637480E-16	7.366741E-18
4.433350E+03	2.677038E-16	7.470972E-18
4.443335E+03	2.717988E-16	7.578891E-18
4.453320E+03	2.759267E-16	7.687530E-18
4.463305E+03	2.801275E-16	7.797994E-18
4.473290E+03	2.842830E-16	7.906996E-18
4.483275E+03	2.884261E-16	8.015446E-18
4.493260E+03	2.924287E-16	8.119796E-18
4.503245E+03	2.962811E-16	8.219779E-18
4.513230E+03	2.999747E-16	8.315170E-18
4.523215E+03	3.033807E-16	8.402415E-18
4.533200E+03	3.064984E-16	8.481509E-18
4.543185E+03	3.092925E-16	8.551503E-18
4.553170E+03	3.117799E-16	8.612885E-18
4.563155E+03	3.138597E-16	8.662886E-18
4.573140E+03	3.155686E-16	8.702555E-18
4.583125E+03	3.169127E-16	8.732080E-18
4.593110E+03	3.179078E-16	8.751927E-18
4.603095E+03	3.185784E-16	8.762791E-18
4.613080E+03	3.189566E-16	8.765579E-18
4.623065E+03	3.190789E-16	8.761315E-18
4.633050E+03	3.189857E-16	8.751124E-18
4.643035E+03	3.187176E-16	8.736137E-18
4.653020E+03	3.182711E-16	8.716269E-18
4.663005E+03	3.177705E-16	8.694934E-18
4.672991E+03	3.172059E-16	8.671865E-18
4.682976E+03	3.166062E-16	8.647858E-18
4.692961E+03	3.159522E-16	8.622391E-18
4.702946E+03	3.153487E-16	8.598324E-18
4.712931E+03	3.147239E-16	8.573700E-18
4.722916E+03	3.141733E-16	8.551117E-18
4.732901E+03	3.136172E-16	8.528406E-18
4.742886E+03	3.131447E-16	8.507987E-18
4.752871E+03	3.126725E-16	8.487594E-18
4.762856E+03	3.122861E-16	8.469545E-18
4.772841E+03	3.119019E-16	8.451567E-18
4.782826E+03	3.115637E-16	8.434846E-18
4.792811E+03	3.113155E-16	8.420573E-18
4.802796E+03	3.110767E-16	8.406558E-18
4.812781E+03	3.108941E-16	8.394070E-18
4.822766E+03	3.107733E-16	8.383252E-18
4.832751E+03	3.107200E-16	8.374256E-18
4.842736E+03	3.107404E-16	8.367242E-18
4.852721E+03	3.108398E-16	8.362346E-18
4.862706E+03	3.110225E-16	8.359683E-18
4.872691E+03	3.112915E-16	8.359324E-18
4.882676E+03	3.116483E-16	8.361304E-18
4.892661E+03	3.120919E-16	8.365591E-18
4.902646E+03	3.125786E-16	8.371008E-18
4.912631E+03	3.131886E-16	8.379697E-18
4.922616E+03	3.138758E-16	8.390419E-18
4.932601E+03	3.145934E-16	8.401916E-18
4.942586E+03	3.154210E-16	8.416313E-18
4.952571E+03	3.162698E-16	8.431234E-18
4.962556E+03	3.172210E-16	8.448840E-18
4.972541E+03	3.181867E-16	8.466784E-18
4.982526E+03	3.192497E-16	8.487268E-18
4.992511E+03	3.203231E-16	8.507975E-18
5.002496E+03	3.214469E-16	8.529968E-18
5.012481E+03	3.226620E-16	8.554328E-18
5.022466E+03	3.238784E-16	8.578665E-18
5.032451E+03	3.251344E-16	8.603991E-18
5.042436E+03	3.264227E-16	8.630113E-18
5.052421E+03	3.277349E-16	8.656805E-18
5.062406E+03	3.290603E-16	8.683787E-18
5.072391E+03	3.303863E-16	8.710721E-18
5.082376E+03	3.316994E-16	8.737256E-18
5.092361E+03	3.329855E-16	8.763022E-18
5.102346E+03	3.342302E-16	8.787640E-18
5.112332E+03	3.354195E-16	8.810747E-18
5.122317E+03	3.364965E-16	8.830857E-18
5.132302E+03	3.375396E-16	8.850030E-18
5.142287E+03	3.384957E-16	8.866883E-18
5.152272E+03	3.393148E-16	8.880112E-18
5.162257E+03	3.400840E-16	8.892004E-18
5.172242E+03	3.407594E-16	8.901416E-18
5.182227E+03	3.412999E-16	8.907285E-18
5.192212E+03	3.417566E-16	8.910955E-18
5.202197E+03	3.421839E-16	8.913845E-18
5.212182E+03	3.425021E-16	8.913886E-18
5.222167E+03	3.427676E-16	8.912554E-18
5.232152E+03	3.430365E-16	8.911310E-18
5.242137E+03	3.432287E-16	8.908078E-18
5.252122E+03	3.433973E-16	8.904234E-18
5.262107E+03	3.435469E-16	8.899907E-18
5.272092E+03	3.436800E-16	8.895159E-18
5.282077E+03	3.437938E-16	8.889924E-18
5.292062E+03	3.438838E-16	8.884085E-18
5.302047E+03	3.439423E-16	8.877443E-18
5.312032E+03	3.439597E-16	8.869758E-18
5.322017E+03	3.439267E-16	8.860792E-18
5.332002E+03	3.437905E-16	8.849189E-18
5.341987E+03	3.436355E-16	8.837129E-18
5.351972E+03	3.434142E-16	8.823396E-18
5.361957E+03	3.431290E-16	8.808052E-18
5.371942E+03	3.427403E-16	8.790091E-18
5.381927E+03	3.423474E-16	8.772061E-18
5.391912E+03	3.418715E-16	8.751948E-18
5.401897E+03	3.414144E-16	8.732362E-18
5.411882E+03	3.408971E-16	8.711285E-18
5.421867E+03	3.403724E-16	8.690069E-18
5.431852E+03	3.398892E-16	8.669964E-18
5.441837E+03	3.393577E-16	8.648674E-18
5.451822E+03	3.388170E-16	8.627201E-18
5.461807E+03	3.383018E-16	8.606434E-18
5.471792E+03	3.377112E-16	8.583800E-18
5.481777E+03	3.370756E-16	8.560081E-18
5.491762E+03	3.363787E-16	8.534862E-18
5.501747E+03	3.355953E-16	8.507512E-18
5.511732E+03	3.347033E-16	8.477476E-18
5.521717E+03	3.336868E-16	8.444355E-18
5.531702E+03	3.325365E-16	8.407925E-18
5.541687E+03	3.312517E-16	8.368180E-18
5.551672E+03	3.297971E-16	8.324230E-18
5.561658E+03	3.282747E-16	8.278666E-18
5.571643E+03	3.266646E-16	8.230985E-18
5.581628E+03	3.249976E-16	8.181969E-18
5.591613E+03	3.232680E-16	8.131479E-18
5.601598E+03	3.216012E-16	8.082671E-18
5.611583E+03	3.199571E-16	8.034533E-18
5.621568E+03	3.184642E-16	7.990285E-18
5.631553E+03	3.170830E-16	7.948932E-18
5.641538E+03	3.159389E-16	7.913601E-18
5.651523E+03	3.149873E-16	7.883166E-18
5.661508E+03	3.143440E-16	7.860509E-18
5.671493E+03	3.139548E-16	7.844256E-18
5.681478E+03	3.138810E-16	7.835921E-18
5.691463E+03	3.141352E-16	7.835799E-18
5.701448E+03	3.147630E-16	7.845010E-18
5.711433E+03	3.156782E-16	7.861380E-18
5.721418E+03	3.169082E-16	7.885576E-18
5.731403E+03	3.184302E-16	7.917014E-18
5.741388E+03	3.202130E-16	7.954898E-18
5.751373E+03	3.222159E-16	7.998203E-18
5.761358E+03	3.243900E-16	8.045709E-18
5.771343E+03	3.266796E-16	8.096022E-18
5.781328E+03	3.290238E-16	8.147630E-18
5.791313E+03	3.313573E-16	8.198913E-18
5.801298E+03	3.336146E-16	8.248253E-18
5.811283E+03	3.356867E-16	8.292967E-18
5.821268E+03	3.376008E-16	8.333733E-18
5.831253E+03	3.392594E-16	8.368160E-18
5.841238E+03	3.405749E-16	8.394101E-18
5.851223E+03	3.416026E-16	8.412942E-18
5.861208E+03	3.422784E-16	8.423121E-18
5.871193E+03	3.425505E-16	8.423386E-18
5.881178E+03	3.425138E-16	8.416088E-18
5.891163E+03	3.420949E-16	8.399449E-18
5.901148E+03	3.414097E-16	8.376328E-18
5.911133E+03	3.404031E-16	8.345394E-18
5.921118E+03	3.392038E-16	8.309817E-18
5.931103E+03	3.377678E-16	8.268527E-18
5.941088E+03	3.361862E-16	8.223769E-18
5.951073E+03	3.345512E-16	8.177802E-18
5.961058E+03	3.328248E-16	8.129700E-18
5.971043E+03	3.311012E-16	8.081772E-18
5.981028E+03	3.294311E-16	8.035250E-18
5.991013E+03	3.279081E-16	7.992416E-18
6.000999E+03	3.264991E-16	7.952451E-18
6.010984E+03	3.253005E-16	7.917700E-18
6.020969E+03	3.243675E-16	7.889493E-18
6.030954E+03	3.237584E-16	7.869232E-18
6.040939E+03	3.235340E-16	7.858384E-18
6.050924E+03	3.237584E-16	7.858480E-18
6.060909E+03	3.245005E-16	7.871172E-18
6.070894E+03	3.258321E-16	7.898178E-18
6.080879E+03	3.278287E-16	7.941295E-18
6.090864E+03	3.305690E-16	8.002400E-18
6.100849E+03	3.341304E-16	8.083332E-18
6.110834E+03	3.385457E-16	8.184850E-18
6.120819E+03	3.439723E-16	8.310714E-18
6.130804E+03	3.504256E-16	8.461257E-18
6.140789E+03	3.579497E-16	8.637495E-18
6.150774E+03	3.665156E-16	8.838690E-18
6.160759E+03	3.762080E-16	9.066839E-18
6.170744E+03	3.869326E-16	9.319624E-18
6.180729E+03	3.985461E-16	9.593560E-18
6.190714E+03	4.110099E-16	9.887683E-18
6.200699E+03	4.240809E-16	1.019612E-17
6.210684E+03	4.374582E-16	1.051163E-17
6.220669E+03	4.509610E-16	1.082986E-17
6.230654E+03	4.641435E-16	1.114011E-17
6.240639E+03	4.767695E-16	1.143674E-17
6.250624E+03	4.883531E-16	1.170813E-17
6.260609E+03	4.986061E-16	1.194743E-17
6.270594E+03	5.072795E-16	1.214873E-17
6.280579E+03	5.139829E-16	1.230275E-17
6.290564E+03	5.186622E-16	1.240828E-17
6.300549E+03	5.210808E-16	1.245975E-17
6.310534E+03	5.212936E-16	1.245855E-17
6.320519E+03	5.193782E-16	1.240661E-17
6.330504E+03	5.155595E-16	1.230938E-17
6.340489E+03	5.099283E-16	1.216910E-17
6.350474E+03	5.028271E-16	1.199400E-17
6.360459E+03	4.945600E-16	1.179136E-17
6.370444E+03	4.854429E-16	1.156876E-17
6.380429E+03	4.758449E-16	1.133501E-17
6.390414E+03	4.659257E-16	1.109392E-17
6.400399E+03	4.559997E-16	1.085298E-17
6.410384E+03	4.462755E-16	1.061714E-17
6.420369E+03	4.369168E-16	1.039030E-17
6.430354E+03	4.280413E-16	1.017522E-17
6.440339E+03	4.197223E-16	9.973638E-18
6.450325E+03	4.119935E-16	9.786326E-18
6.460310E+03	4.048549E-16	9.613266E-18
6.470295E+03	3.982819E-16	9.453848E-18
6.480280E+03	3.922317E-16	9.307040E-18
6.490265E+03	3.866030E-16	9.170419E-18
6.500250E+03	3.814493E-16	9.045236E-18
6.510235E+03	3.766801E-16	8.929335E-18
6.520220E+03	3.722741E-16	8.822196E-18
6.530205E+03	3.681657E-16	8.722253E-18
6.540190E+03	3.641747E-16	8.625228E-18
6.550175E+03	3.602928E-16	8.530918E-18
6.560160E+03	3.564008E-16	8.436496E-18
6.570145E+03	3.524587E-16	8.341013E-18
6.580130E+03	3.484057E-16	8.243025E-18
6.590115E+03	3.443389E-16	8.144831E-18
6.600100E+03	3.402328E-16	8.045823E-18
6.610085E+03	3.360736E-16	7.945671E-18
6.620070E+03	3.319844E-16	7.847283E-18
6.630055E+03	3.279565E-16	7.750451E-18
6.640040E+03	3.239812E-16	7.654964E-18
6.650025E+03	3.201729E-16	7.563520E-18
6.660010E+03	3.164711E-16	7.474683E-18
6.669995E+03	3.129763E-16	7.390827E-18
6.679980E+03	3.096181E-16	7.310280E-18
6.689965E+03	3.064840E-16	7.235106E-18
6.699950E+03	3.034953E-16	7.163441E-18
6.709935E+03	3.007299E-16	7.097120E-18
6.719920E+03	2.981045E-16	7.034173E-18
6.729905E+03	2.956527E-16	6.975390E-18
6.739890E+03	2.934058E-16	6.921506E-18
6.749875E+03	2.912796E-16	6.870528E-18
6.759860E+03	2.893433E-16	6.824090E-18
6.769845E+03	2.875142E-16	6.780236E-18
6.779830E+03	2.858245E-16	6.739723E-18
6.789815E+03	2.843063E-16	6.703308E-18
6.799800E+03	2.828812E-16	6.669137E-18
6.809785E+03	2.815839E-16	6.638029E-18
6.819770E+03	2.804134E-16	6.609955E-18
6.829755E+03	2.794066E-16	6.585788E-18
6.839740E+03	2.784923E-16	6.563844E-18
6.849725E+03	2.777109E-16	6.545074E-18
6.859710E+03	2.770675E-16	6.529601E-18
6.869695E+03	2.765688E-16	6.517579E-18
6.879680E+03	2.762227E-16	6.509193E-18
6.889666E+03	2.760380E-16	6.504649E-18
6.899651E+03	2.760605E-16	6.505025E-18
6.909636E+03	2.762277E-16	6.508851E-18
6.919621E+03	2.765863E-16	6.517224E-18
6.929606E+03	2.771470E-16	6.530396E-18
6.939591E+03	2.779210E-16	6.548630E-18
6.949576E+03	2.789201E-16	6.572205E-18
6.959561E+03	2.801571E-16	6.601425E-18
6.969546E+03	2.816468E-16	6.636636E-18
6.979531E+03	2.834063E-16	6.678243E-18
6.989516E+03	2.854560E-16	6.726726E-18
6.999501E+03	2.878202E-16	6.782662E-18
7.009486E+03	2.904900E-16	6.845840E-18
7.019471E+03	2.935761E-16	6.918869E-18
7.029456E+03	2.970805E-16	7.001804E-18
7.039441E+03	3.010489E-16	7.095718E-18
7.049426E+03	3.055312E-16	7.201796E-18
7.059411E+03	3.105807E-16	7.321294E-18
7.069396E+03	3.162100E-16	7.454517E-18
7.079381E+03	3.225540E-16	7.604648E-18
7.089366E+03	3.296183E-16	7.771826E-18
7.099351E+03	3.374393E-16	7.956914E-18
7.109336E+03	3.459918E-16	8.159327E-18
7.119321E+03	3.553655E-16	8.381189E-18
7.129306E+03	3.654884E-16	8.620811E-18
7.139291E+03	3.762513E-16	8.875624E-18
7.149276E+03	3.876563E-16	9.145686E-18
7.159261E+03	3.995201E-16	9.426685E-18
7.169246E+03	4.116147E-16	9.713244E-18
7.179231E+03	4.238367E-16	1.000293E-17
7.189216E+03	4.358359E-16	1.028749E-17
7.199201E+03	4.474647E-16	1.056344E-17
7.209186E+03	4.583370E-16	1.082165E-17
7.219171E+03	4.683075E-16	1.105871E-17
7.229156E+03	4.770091E-16	1.126592E-17
7.239141E+03	4.843541E-16	1.144121E-17
7.249126E+03	4.900464E-16	1.157758E-17
7.259111E+03	4.940963E-16	1.167524E-17
7.269096E+03	4.963095E-16	1.172960E-17
7.279081E+03	4.968073E-16	1.174348E-17
7.289066E+03	4.954966E-16	1.171468E-17
7.299051E+03	4.925262E-16	1.164669E-17
7.309036E+03	4.880789E-16	1.154380E-17
7.319021E+03	4.821691E-16	1.140634E-17
7.329006E+03	4.750260E-16	1.123970E-17
7.338992E+03	4.668872E-16	1.104949E-17
7.348977E+03	4.578070E-16	1.083698E-17
7.358962E+03	4.480296E-16	1.060792E-17
7.368947E+03	4.377300E-16	1.036646E-17
7.378932E+03	4.271337E-16	1.011792E-17
7.388917E+03	4.162829E-16	9.863280E-18
7.398902E+03	4.053796E-16	9.607335E-18
7.408887E+03	3.945547E-16	9.353177E-18
7.418872E+03	3.839226E-16	9.103515E-18
7.428857E+03	3.735818E-16	8.860685E-18
7.438842E+03	3.636148E-16	8.626646E-18
7.448827E+03	3.540883E-16	8.402986E-18
7.458812E+03	3.450541E-16	8.190941E-18
7.468797E+03	3.365506E-16	7.991423E-18
7.478782E+03	3.286033E-16	7.805050E-18
7.488767E+03	3.212269E-16	7.632180E-18
7.498752E+03	3.144265E-16	7.472943E-18
7.508737E+03	3.081990E-16	7.327276E-18
7.518722E+03	3.025347E-16	7.194958E-18
7.528707E+03	2.974180E-16	7.075629E-18
7.538692E+03	2.928289E-16	6.968826E-18
7.548677E+03	2.887438E-16	6.873996E-18
7.558662E+03	2.851365E-16	6.790527E-18
7.568647E+03	2.819786E-16	6.717753E-18
7.578632E+03	2.792031E-16	6.654088E-18
7.588617E+03	2.768552E-16	6.600620E-18
7.598602E+03	2.748670E-16	6.555738E-18
7.608587E+03	2.732090E-16	6.518747E-18
7.618572E+03	2.718161E-16	6.488108E-18
7.628557E+03	2.707349E-16	6.464935E-18
7.638542E+03	2.699035E-16	6.447764E-18
7.648527E+03	2.692627E-16	6.435183E-18
7.658512E+03	2.688640E-16	6.428430E-18
7.668497E+03	2.686155E-16	6.425315E-18
7.678482E+03	2.685715E-16	6.427147E-18
7.688467E+03	2.686789E-16	6.432659E-18
7.698452E+03	2.688849E-16	6.440589E-18
7.708437E+03	2.692455E-16	6.452288E-18
7.718422E+03	2.696712E-16	6.465615E-18
7.728407E+03	2.702179E-16	6.481912E-18
7.738392E+03	2.707954E-16	6.499022E-18
7.748377E+03	2.714232E-16	6.517417E-18
