#wls	flux	fluxerr
1.597604E+03	2.077163E-18	7.294546E-20
1.637544E+03	2.192091E-18	7.692249E-20
1.677484E+03	2.291334E-18	8.034171E-20
1.717424E+03	2.372667E-18	8.312628E-20
1.757364E+03	2.431870E-18	8.512977E-20
1.797304E+03	2.461098E-18	8.607954E-20
1.837244E+03	2.451085E-18	8.565441E-20
1.877184E+03	2.392603E-18	8.353575E-20
1.917124E+03	2.279246E-18	7.950474E-20
1.957064E+03	2.112598E-18	7.362211E-20
1.997004E+03	1.906571E-18	6.637786E-20
2.036945E+03	1.693389E-18	5.889728E-20
2.076885E+03	1.516352E-18	5.268603E-20
2.116825E+03	1.420387E-18	4.930010E-20
2.156765E+03	1.439663E-18	4.991555E-20
2.196705E+03	1.597663E-18	5.533277E-20
2.236645E+03	1.910098E-18	6.607894E-20
2.276585E+03	2.385197E-18	8.241938E-20
2.316525E+03	3.022679E-18	1.043235E-19
2.356465E+03	3.816636E-18	1.315659E-19
2.396405E+03	4.758236E-18	1.638203E-19
2.436345E+03	5.845447E-18	2.009951E-19
2.476286E+03	7.079847E-18	2.431217E-19
2.516226E+03	8.475215E-18	2.906491E-19
2.556166E+03	1.004994E-17	3.441803E-19
2.596106E+03	1.183090E-17	4.046040E-19
2.636046E+03	1.385196E-17	4.730409E-19
2.675986E+03	1.615364E-17	5.508306E-19
2.715926E+03	1.878280E-17	6.395185E-19
2.755866E+03	2.179585E-17	7.409623E-19
2.795806E+03	2.524292E-17	8.567927E-19
2.835746E+03	2.919211E-17	9.892349E-19
2.875686E+03	3.369253E-17	1.139854E-18
2.915627E+03	3.880703E-17	1.310664E-18
2.955567E+03	4.456658E-17	1.502583E-18
2.995507E+03	5.097866E-17	1.715731E-18
3.005492E+03	5.267583E-17	1.772055E-18
3.015477E+03	5.441971E-17	1.829895E-18
3.025462E+03	5.619013E-17	1.888570E-18
3.035447E+03	5.800763E-17	1.948767E-18
3.045432E+03	5.985981E-17	2.010069E-18
3.055417E+03	6.177815E-17	2.073530E-18
3.065402E+03	6.373685E-17	2.138280E-18
3.075387E+03	6.575278E-17	2.204884E-18
3.085372E+03	6.779788E-17	2.272396E-18
3.095357E+03	6.988942E-17	2.341395E-18
3.105342E+03	7.199692E-17	2.410857E-18
3.115327E+03	7.413803E-17	2.481370E-18
3.125312E+03	7.627978E-17	2.551831E-18
3.135297E+03	7.844026E-17	2.622843E-18
3.145282E+03	8.059800E-17	2.693688E-18
3.155267E+03	8.272966E-17	2.763585E-18
3.165252E+03	8.485433E-17	2.833172E-18
3.175237E+03	8.693333E-17	2.901159E-18
3.185222E+03	8.898693E-17	2.968223E-18
3.195207E+03	9.097501E-17	3.033028E-18
3.205192E+03	9.291960E-17	3.096310E-18
3.215177E+03	9.479647E-17	3.157265E-18
3.225162E+03	9.658086E-17	3.215070E-18
3.235147E+03	9.829893E-17	3.270601E-18
3.245132E+03	9.991097E-17	3.322539E-18
3.255117E+03	1.014468E-16	3.371883E-18
3.265102E+03	1.028685E-16	3.417371E-18
3.275087E+03	1.042098E-16	3.460136E-18
3.285072E+03	1.054532E-16	3.499596E-18
3.295057E+03	1.065817E-16	3.535190E-18
3.305042E+03	1.076347E-16	3.568237E-18
3.315027E+03	1.085792E-16	3.597644E-18
3.325012E+03	1.094577E-16	3.624822E-18
3.334998E+03	1.102573E-16	3.649347E-18
3.344983E+03	1.109650E-16	3.670796E-18
3.354968E+03	1.116256E-16	3.690652E-18
3.364953E+03	1.122264E-16	3.708501E-18
3.374938E+03	1.127543E-16	3.723911E-18
3.384923E+03	1.132541E-16	3.738363E-18
3.394908E+03	1.136920E-16	3.750747E-18
3.404893E+03	1.141119E-16	3.762514E-18
3.414878E+03	1.144984E-16	3.773153E-18
3.424863E+03	1.148349E-16	3.782123E-18
3.434848E+03	1.151637E-16	3.790818E-18
3.444833E+03	1.154671E-16	3.798655E-18
3.454818E+03	1.157268E-16	3.805034E-18
3.464803E+03	1.159838E-16	3.811305E-18
3.474788E+03	1.162192E-16	3.816848E-18
3.484773E+03	1.164137E-16	3.821032E-18
3.494758E+03	1.166084E-16	3.825202E-18
3.504743E+03	1.167842E-16	3.828736E-18
3.514728E+03	1.169222E-16	3.831016E-18
3.524713E+03	1.170641E-16	3.833411E-18
3.534698E+03	1.171919E-16	3.835326E-18
3.544683E+03	1.172876E-16	3.836178E-18
3.554668E+03	1.173944E-16	3.837377E-18
3.564653E+03	1.174950E-16	3.838362E-18
3.574638E+03	1.175728E-16	3.838588E-18
3.584623E+03	1.176718E-16	3.839495E-18
3.594608E+03	1.177757E-16	3.840549E-18
3.604593E+03	1.178684E-16	3.841222E-18
3.614578E+03	1.179944E-16	3.842964E-18
3.624563E+03	1.181373E-16	3.845246E-18
3.634548E+03	1.182809E-16	3.847531E-18
3.644533E+03	1.184691E-16	3.851254E-18
3.654518E+03	1.186850E-16	3.855858E-18
3.664503E+03	1.189111E-16	3.860776E-18
3.674488E+03	1.191906E-16	3.867404E-18
3.684473E+03	1.195049E-16	3.875142E-18
3.694458E+03	1.198349E-16	3.883368E-18
3.704443E+03	1.202226E-16	3.893437E-18
3.714428E+03	1.206480E-16	3.904700E-18
3.724413E+03	1.210904E-16	3.916486E-18
3.734398E+03	1.215910E-16	3.930124E-18
3.744383E+03	1.221287E-16	3.944930E-18
3.754368E+03	1.226820E-16	3.960207E-18
3.764353E+03	1.232922E-16	3.977286E-18
3.774338E+03	1.239378E-16	3.995471E-18
3.784324E+03	1.245971E-16	4.014060E-18
3.794309E+03	1.253121E-16	4.034403E-18
3.804294E+03	1.260612E-16	4.055805E-18
3.814279E+03	1.268226E-16	4.077556E-18
3.824264E+03	1.276388E-16	4.101026E-18
3.834249E+03	1.284877E-16	4.125502E-18
3.844234E+03	1.293463E-16	4.150242E-18
3.854219E+03	1.302572E-16	4.176609E-18
3.864204E+03	1.311963E-16	4.203834E-18
3.874189E+03	1.321386E-16	4.231104E-18
3.884174E+03	1.331251E-16	4.259739E-18
3.894159E+03	1.341288E-16	4.288871E-18
3.904144E+03	1.351212E-16	4.317584E-18
3.914129E+03	1.361411E-16	4.347123E-18
3.924114E+03	1.371579E-16	4.376506E-18
3.934099E+03	1.381393E-16	4.404702E-18
3.944084E+03	1.391222E-16	4.432896E-18
3.954069E+03	1.400733E-16	4.460017E-18
3.964054E+03	1.409579E-16	4.484971E-18
3.974039E+03	1.418136E-16	4.508953E-18
3.984024E+03	1.426068E-16	4.530902E-18
3.994009E+03	1.433049E-16	4.549783E-18
4.003994E+03	1.439497E-16	4.566932E-18
4.013979E+03	1.445127E-16	4.581445E-18
4.023964E+03	1.449674E-16	4.592492E-18
4.033949E+03	1.453640E-16	4.601668E-18
4.043934E+03	1.456573E-16	4.607545E-18
4.053919E+03	1.459030E-16	4.611897E-18
4.063904E+03	1.460856E-16	4.614231E-18
4.073889E+03	1.461907E-16	4.614102E-18
4.083874E+03	1.462795E-16	4.613443E-18
4.093859E+03	1.463143E-16	4.611066E-18
4.103844E+03	1.463557E-16	4.608888E-18
4.113829E+03	1.463892E-16	4.606446E-18
4.123814E+03	1.463981E-16	4.603220E-18
4.133799E+03	1.464379E-16	4.600957E-18
4.143784E+03	1.464630E-16	4.598218E-18
4.153769E+03	1.465242E-16	4.596601E-18
4.163754E+03	1.465960E-16	4.595304E-18
4.173739E+03	1.466512E-16	4.593473E-18
4.183724E+03	1.467356E-16	4.592544E-18
4.193709E+03	1.467953E-16	4.590830E-18
4.203694E+03	1.468755E-16	4.589744E-18
4.213679E+03	1.469229E-16	4.587618E-18
4.223665E+03	1.469843E-16	4.585921E-18
4.233650E+03	1.470341E-16	4.583848E-18
4.243635E+03	1.470486E-16	4.580664E-18
4.253620E+03	1.470809E-16	4.578023E-18
4.263605E+03	1.470871E-16	4.574560E-18
4.273590E+03	1.471250E-16	4.572075E-18
4.283575E+03	1.471554E-16	4.569347E-18
4.293560E+03	1.472402E-16	4.568295E-18
4.303545E+03	1.473434E-16	4.567802E-18
4.313530E+03	1.475294E-16	4.569859E-18
4.323515E+03	1.477638E-16	4.573395E-18
4.333500E+03	1.481115E-16	4.580418E-18
4.343485E+03	1.485378E-16	4.589842E-18
4.353470E+03	1.491064E-16	4.603630E-18
4.363455E+03	1.497798E-16	4.620615E-18
4.373440E+03	1.506184E-16	4.642650E-18
4.383425E+03	1.515786E-16	4.668379E-18
4.393410E+03	1.527136E-16	4.699428E-18
4.403395E+03	1.539699E-16	4.734143E-18
4.413380E+03	1.553928E-16	4.773905E-18
4.423365E+03	1.569207E-16	4.816807E-18
4.433350E+03	1.585930E-16	4.864053E-18
4.443335E+03	1.603409E-16	4.913519E-18
4.453320E+03	1.621716E-16	4.965421E-18
4.463305E+03	1.640903E-16	5.019917E-18
4.473290E+03	1.660175E-16	5.074560E-18
4.483275E+03	1.679809E-16	5.130201E-18
4.493260E+03	1.698951E-16	5.184232E-18
4.503245E+03	1.717865E-16	5.237458E-18
4.513230E+03	1.735678E-16	5.287224E-18
4.523215E+03	1.752392E-16	5.333539E-18
4.533200E+03	1.768047E-16	5.376541E-18
4.543185E+03	1.781845E-16	5.413809E-18
4.553170E+03	1.793923E-16	5.445776E-18
4.563155E+03	1.804491E-16	5.473091E-18
4.573140E+03	1.812921E-16	5.493861E-18
4.583125E+03	1.819552E-16	5.509132E-18
4.593110E+03	1.824791E-16	5.520147E-18
4.603095E+03	1.828181E-16	5.525538E-18
4.613080E+03	1.830219E-16	5.526823E-18
4.623065E+03	1.831435E-16	5.525606E-18
4.633050E+03	1.831453E-16	5.520762E-18
4.643035E+03	1.830814E-16	5.513933E-18
4.653020E+03	1.830051E-16	5.506728E-18
4.663005E+03	1.828759E-16	5.497928E-18
4.672991E+03	1.827423E-16	5.488992E-18
4.682976E+03	1.826492E-16	5.481274E-18
4.692961E+03	1.825470E-16	5.473281E-18
4.702946E+03	1.824740E-16	5.466159E-18
4.712931E+03	1.824349E-16	5.460049E-18
4.722916E+03	1.824620E-16	5.455916E-18
4.732901E+03	1.824944E-16	5.451931E-18
4.742886E+03	1.825607E-16	5.448950E-18
4.752871E+03	1.826582E-16	5.446889E-18
4.762856E+03	1.827840E-16	5.445659E-18
4.772841E+03	1.829658E-16	5.446084E-18
4.782826E+03	1.831408E-16	5.446290E-18
4.792811E+03	1.833384E-16	5.447150E-18
4.802796E+03	1.835587E-16	5.448670E-18
4.812781E+03	1.838031E-16	5.450887E-18
4.822766E+03	1.841045E-16	5.454771E-18
4.832751E+03	1.844044E-16	5.458591E-18
4.842736E+03	1.847366E-16	5.463343E-18
4.852721E+03	1.851038E-16	5.469109E-18
4.862706E+03	1.855085E-16	5.475954E-18
4.872691E+03	1.859519E-16	5.483914E-18
4.882676E+03	1.864342E-16	5.492992E-18
4.892661E+03	1.869544E-16	5.503155E-18
4.902646E+03	1.875106E-16	5.514341E-18
4.912631E+03	1.881309E-16	5.527379E-18
4.922616E+03	1.887498E-16	5.540335E-18
4.932601E+03	1.893948E-16	5.554021E-18
4.942586E+03	1.900628E-16	5.568340E-18
4.952571E+03	1.907510E-16	5.583214E-18
4.962556E+03	1.914577E-16	5.598586E-18
4.972541E+03	1.921820E-16	5.614429E-18
4.982526E+03	1.929236E-16	5.630735E-18
4.992511E+03	1.936830E-16	5.647520E-18
5.002496E+03	1.944613E-16	5.664807E-18
5.012481E+03	1.952593E-16	5.682624E-18
5.022466E+03	1.960777E-16	5.700991E-18
5.032451E+03	1.969168E-16	5.719911E-18
5.042436E+03	1.977760E-16	5.739368E-18
5.052421E+03	1.986542E-16	5.759327E-18
5.062406E+03	1.995493E-16	5.779727E-18
5.072391E+03	2.004590E-16	5.800498E-18
5.082376E+03	2.013805E-16	5.821563E-18
5.092361E+03	2.023115E-16	5.842849E-18
5.102346E+03	2.032498E-16	5.864299E-18
5.112332E+03	2.041607E-16	5.884905E-18
5.122317E+03	2.051113E-16	5.906610E-18
5.132302E+03	2.060691E-16	5.928470E-18
5.142287E+03	2.070363E-16	5.950547E-18
5.152272E+03	2.080157E-16	5.972927E-18
5.162257E+03	2.090109E-16	5.995709E-18
5.172242E+03	2.100256E-16	6.018997E-18
5.182227E+03	2.110630E-16	6.042884E-18
5.192212E+03	2.120905E-16	6.066437E-18
5.202197E+03	2.131793E-16	6.091689E-18
5.212182E+03	2.142941E-16	6.117628E-18
5.222167E+03	2.154326E-16	6.144189E-18
5.232152E+03	2.165906E-16	6.171248E-18
5.242137E+03	2.177259E-16	6.197604E-18
5.252122E+03	2.189021E-16	6.225070E-18
5.262107E+03	2.200738E-16	6.252351E-18
5.272092E+03	2.212299E-16	6.279134E-18
5.282077E+03	2.223219E-16	6.304045E-18
5.292062E+03	2.234110E-16	6.328824E-18
5.302047E+03	2.244490E-16	6.352107E-18
5.312032E+03	2.254252E-16	6.373598E-18
5.322017E+03	2.262933E-16	6.391994E-18
5.332002E+03	2.271210E-16	6.409215E-18
5.341987E+03	2.278670E-16	6.424098E-18
5.351972E+03	2.284917E-16	6.435542E-18
5.361957E+03	2.290717E-16	6.445703E-18
5.371942E+03	2.295724E-16	6.453622E-18
5.381927E+03	2.299989E-16	6.459443E-18
5.391912E+03	2.303191E-16	6.462274E-18
5.401897E+03	2.306149E-16	6.464423E-18
5.411882E+03	2.308159E-16	6.463915E-18
5.421867E+03	2.310023E-16	6.463006E-18
5.431852E+03	2.311384E-16	6.460699E-18
5.441837E+03	2.311864E-16	6.455946E-18
5.451822E+03	2.312210E-16	6.450834E-18
5.461807E+03	2.311628E-16	6.443151E-18
5.471792E+03	2.310835E-16	6.434907E-18
5.481777E+03	2.309401E-16	6.424906E-18
5.491762E+03	2.306896E-16	6.411955E-18
5.501747E+03	2.304031E-16	6.398037E-18
5.511732E+03	2.300009E-16	6.380949E-18
5.521717E+03	2.295578E-16	6.362766E-18
5.531702E+03	2.289995E-16	6.341438E-18
5.541687E+03	2.284061E-16	6.319191E-18
5.551672E+03	2.277100E-16	6.294156E-18
5.561658E+03	2.269970E-16	6.268708E-18
5.571643E+03	2.262052E-16	6.241148E-18
5.581628E+03	2.254251E-16	6.213967E-18
5.591613E+03	2.245994E-16	6.185593E-18
5.601598E+03	2.238206E-16	6.158574E-18
5.611583E+03	2.230341E-16	6.131402E-18
5.621568E+03	2.223323E-16	6.106616E-18
5.631553E+03	2.216600E-16	6.082699E-18
5.641538E+03	2.211075E-16	6.062117E-18
5.651523E+03	2.206170E-16	6.043285E-18
5.661508E+03	2.202380E-16	6.027552E-18
5.671493E+03	2.200175E-16	6.016192E-18
5.681478E+03	2.198909E-16	6.007429E-18
5.691463E+03	2.199356E-16	6.003371E-18
5.701448E+03	2.200812E-16	6.002088E-18
5.711433E+03	2.203631E-16	6.004531E-18
5.721418E+03	2.208133E-16	6.011569E-18
5.731403E+03	2.213523E-16	6.021024E-18
5.741388E+03	2.220066E-16	6.033608E-18
5.751373E+03	2.228000E-16	6.049966E-18
5.761358E+03	2.236445E-16	6.067698E-18
5.771343E+03	2.245596E-16	6.087327E-18
5.781328E+03	2.255638E-16	6.109352E-18
5.791313E+03	2.265635E-16	6.131235E-18
5.801298E+03	2.275758E-16	6.153440E-18
5.811283E+03	2.286190E-16	6.176459E-18
5.821268E+03	2.296001E-16	6.197779E-18
5.831253E+03	2.305401E-16	6.217978E-18
5.841238E+03	2.314255E-16	6.236687E-18
5.851223E+03	2.322835E-16	6.254649E-18
5.861208E+03	2.330301E-16	6.269604E-18
5.871193E+03	2.336985E-16	6.282453E-18
5.881178E+03	2.342870E-16	6.293154E-18
5.891163E+03	2.348347E-16	6.302767E-18
5.901148E+03	2.352678E-16	6.309311E-18
5.911133E+03	2.356299E-16	6.313965E-18
5.921118E+03	2.359280E-16	6.316922E-18
5.931103E+03	2.361710E-16	6.318423E-18
5.941088E+03	2.364079E-16	6.319784E-18
5.951073E+03	2.365732E-16	6.319255E-18
5.961058E+03	2.367193E-16	6.318240E-18
5.971043E+03	2.368615E-16	6.317145E-18
5.981028E+03	2.370164E-16	6.316421E-18
5.991013E+03	2.372027E-16	6.316559E-18
6.000999E+03	2.374794E-16	6.319131E-18
6.010984E+03	2.377902E-16	6.322635E-18
6.020969E+03	2.381974E-16	6.328723E-18
6.030954E+03	2.387260E-16	6.338056E-18
6.040939E+03	2.394028E-16	6.351335E-18
6.050924E+03	2.402560E-16	6.369305E-18
6.060909E+03	2.413159E-16	6.392755E-18
6.070894E+03	2.426137E-16	6.422502E-18
6.080879E+03	2.441819E-16	6.459393E-18
6.090864E+03	2.460528E-16	6.504269E-18
6.100849E+03	2.482989E-16	6.559026E-18
6.110834E+03	2.508680E-16	6.622270E-18
6.120819E+03	2.538251E-16	6.695702E-18
6.130804E+03	2.571885E-16	6.779780E-18
6.140789E+03	2.609672E-16	6.874726E-18
6.150774E+03	2.651587E-16	6.980452E-18
6.160759E+03	2.697463E-16	7.096503E-18
6.170744E+03	2.746971E-16	7.221992E-18
6.180729E+03	2.799599E-16	7.355562E-18
6.190714E+03	2.854649E-16	7.495367E-18
6.200699E+03	2.911236E-16	7.639077E-18
6.210684E+03	2.968305E-16	7.783920E-18
6.220669E+03	3.024658E-16	7.926762E-18
6.230654E+03	3.079000E-16	8.064218E-18
6.240639E+03	3.129993E-16	8.192798E-18
6.250624E+03	3.176320E-16	8.309077E-18
6.260609E+03	3.216222E-16	8.408485E-18
6.270594E+03	3.249678E-16	8.490997E-18
6.280579E+03	3.275308E-16	8.553046E-18
6.290564E+03	3.292520E-16	8.593121E-18
6.300549E+03	3.301013E-16	8.610481E-18
6.310534E+03	3.300794E-16	8.605179E-18
6.320519E+03	3.292165E-16	8.578044E-18
6.330504E+03	3.275697E-16	8.530597E-18
6.340489E+03	3.252187E-16	8.464946E-18
6.350474E+03	3.222601E-16	8.383635E-18
6.360459E+03	3.188017E-16	8.289486E-18
6.370444E+03	3.149042E-16	8.184094E-18
6.380429E+03	3.107832E-16	8.073076E-18
6.390414E+03	3.064915E-16	7.957814E-18
6.400399E+03	3.021246E-16	7.840782E-18
6.410384E+03	2.977645E-16	7.724113E-18
6.420369E+03	2.934783E-16	7.609546E-18
6.430354E+03	2.893178E-16	7.498411E-18
6.440339E+03	2.852721E-16	7.390427E-18
6.450325E+03	2.814579E-16	7.288603E-18
6.460310E+03	2.778374E-16	7.191952E-18
6.470295E+03	2.744107E-16	7.100467E-18
6.480280E+03	2.711711E-16	7.013963E-18
6.490265E+03	2.680634E-16	6.931006E-18
6.500250E+03	2.651633E-16	6.853542E-18
6.510235E+03	2.624115E-16	6.780035E-18
6.520220E+03	2.597909E-16	6.710033E-18
6.530205E+03	2.572790E-16	6.642949E-18
6.540190E+03	2.548076E-16	6.577017E-18
6.550175E+03	2.524351E-16	6.513741E-18
6.560160E+03	2.500991E-16	6.451506E-18
6.570145E+03	2.477865E-16	6.389972E-18
6.580130E+03	2.454514E-16	6.327949E-18
6.590115E+03	2.431754E-16	6.267544E-18
6.600100E+03	2.409233E-16	6.207841E-18
6.610085E+03	2.386645E-16	6.148052E-18
6.620070E+03	2.364882E-16	6.090470E-18
6.630055E+03	2.343655E-16	6.034350E-18
6.640040E+03	2.323069E-16	5.979958E-18
6.650025E+03	2.302837E-16	5.926552E-18
6.660010E+03	2.283797E-16	5.876286E-18
6.669995E+03	2.265628E-16	5.828329E-18
6.679980E+03	2.248004E-16	5.781840E-18
6.689965E+03	2.231695E-16	5.738797E-18
6.699950E+03	2.216345E-16	5.698281E-18
6.709935E+03	2.201596E-16	5.659370E-18
6.719920E+03	2.188174E-16	5.623925E-18
6.729905E+03	2.175705E-16	5.590987E-18
6.739890E+03	2.163825E-16	5.559612E-18
6.749875E+03	2.153235E-16	5.531603E-18
6.759860E+03	2.143565E-16	5.506004E-18
6.769845E+03	2.134451E-16	5.481883E-18
6.779830E+03	2.126587E-16	5.461015E-18
6.789815E+03	2.119259E-16	5.441570E-18
6.799800E+03	2.113158E-16	5.425314E-18
6.809785E+03	2.107922E-16	5.411322E-18
6.819770E+03	2.103197E-16	5.398684E-18
6.829755E+03	2.099668E-16	5.389154E-18
6.839740E+03	2.096636E-16	5.380936E-18
6.849725E+03	2.094785E-16	5.375786E-18
6.859710E+03	2.093419E-16	5.371921E-18
6.869695E+03	2.093227E-16	5.371100E-18
6.879680E+03	2.093862E-16	5.372439E-18
6.889666E+03	2.094985E-16	5.375061E-18
6.899651E+03	2.097291E-16	5.380755E-18
6.909636E+03	2.100101E-16	5.387775E-18
6.919621E+03	2.104123E-16	5.397940E-18
6.929606E+03	2.108688E-16	5.409529E-18
6.939591E+03	2.114519E-16	5.424400E-18
6.949576E+03	2.120957E-16	5.440859E-18
6.959561E+03	2.128746E-16	5.460819E-18
6.969546E+03	2.137242E-16	5.482624E-18
6.979531E+03	2.147218E-16	5.508259E-18
6.989516E+03	2.158050E-16	5.536124E-18
6.999501E+03	2.170549E-16	5.568298E-18
7.009486E+03	2.184116E-16	5.603249E-18
7.019471E+03	2.199604E-16	5.643163E-18
7.029456E+03	2.216442E-16	5.686575E-18
7.039441E+03	2.235524E-16	5.735780E-18
7.049426E+03	2.256286E-16	5.789337E-18
7.059411E+03	2.279647E-16	5.849599E-18
7.069396E+03	2.305021E-16	5.915069E-18
7.079381E+03	2.333307E-16	5.988053E-18
7.089366E+03	2.363841E-16	6.066853E-18
7.099351E+03	2.397445E-16	6.153578E-18
7.109336E+03	2.433303E-16	6.246139E-18
7.119321E+03	2.471683E-16	6.345226E-18
7.129306E+03	2.512770E-16	6.451316E-18
7.139291E+03	2.555393E-16	6.561407E-18
7.149276E+03	2.599915E-16	6.676436E-18
7.159261E+03	2.644891E-16	6.792695E-18
7.169246E+03	2.690484E-16	6.910602E-18
7.179231E+03	2.735019E-16	7.025860E-18
7.189216E+03	2.778079E-16	7.137395E-18
7.199201E+03	2.819249E-16	7.244146E-18
7.209186E+03	2.856741E-16	7.341517E-18
7.219171E+03	2.890207E-16	7.428610E-18
7.229156E+03	2.919417E-16	7.504828E-18
7.239141E+03	2.942821E-16	7.566189E-18
7.249126E+03	2.960950E-16	7.614045E-18
7.259111E+03	2.972546E-16	7.645161E-18
7.269096E+03	2.977980E-16	7.660481E-18
7.279081E+03	2.977782E-16	7.661362E-18
7.289066E+03	2.971142E-16	7.645711E-18
7.299051E+03	2.958848E-16	7.615545E-18
7.309036E+03	2.941776E-16	7.573114E-18
7.319021E+03	2.919416E-16	7.517095E-18
7.329006E+03	2.892777E-16	7.450078E-18
7.338992E+03	2.862888E-16	7.374705E-18
7.348977E+03	2.829374E-16	7.290003E-18
7.358962E+03	2.793296E-16	7.198701E-18
7.368947E+03	2.755234E-16	7.102289E-18
7.378932E+03	2.716205E-16	7.003380E-18
7.388917E+03	2.675846E-16	6.901034E-18
7.398902E+03	2.635124E-16	6.797746E-18
7.408887E+03	2.594941E-16	6.695839E-18
7.418872E+03	2.554859E-16	6.594181E-18
7.428857E+03	2.515693E-16	6.494877E-18
7.438842E+03	2.477768E-16	6.398765E-18
7.448827E+03	2.441760E-16	6.307594E-18
7.458812E+03	2.407073E-16	6.219824E-18
7.468797E+03	2.374283E-16	6.136947E-18
7.478782E+03	2.343507E-16	6.059270E-18
7.488767E+03	2.315202E-16	5.987975E-18
7.498752E+03	2.288627E-16	5.921154E-18
7.508737E+03	2.264166E-16	5.859802E-18
7.518722E+03	2.241783E-16	5.803830E-18
7.528707E+03	2.221783E-16	5.754036E-18
7.538692E+03	2.203344E-16	5.708289E-18
7.548677E+03	2.186731E-16	5.667287E-18
7.558662E+03	2.171830E-16	5.630735E-18
7.568647E+03	2.158515E-16	5.598310E-18
7.578632E+03	2.146653E-16	5.569675E-18
7.588617E+03	2.136468E-16	5.545413E-18
7.598602E+03	2.127119E-16	5.523347E-18
7.608587E+03	2.118841E-16	5.504088E-18
7.618572E+03	2.111521E-16	5.487346E-18
7.628557E+03	2.105058E-16	5.472861E-18
7.638542E+03	2.099712E-16	5.461315E-18
7.648527E+03	2.094712E-16	5.450703E-18
7.658512E+03	2.090345E-16	5.441778E-18
7.668497E+03	2.086562E-16	5.434410E-18
7.678482E+03	2.083321E-16	5.428493E-18
7.688467E+03	2.080585E-16	5.423931E-18
7.698452E+03	2.078317E-16	5.420636E-18
7.708437E+03	2.076482E-16	5.418514E-18
7.718422E+03	2.075384E-16	5.418365E-18
7.728407E+03	2.074294E-16	5.418281E-18
7.738392E+03	2.073509E-16	5.419045E-18
7.748377E+03	2.072985E-16	5.420543E-18
