#wls	flux	fluxerr
1.592040E+03	6.523867E-05	5.235410E-06
1.631841E+03	6.636334E-05	5.289620E-06
1.671642E+03	6.754568E-05	5.346362E-06
1.711443E+03	6.878773E-05	5.405646E-06
1.751244E+03	7.009180E-05	5.467492E-06
1.791045E+03	7.147360E-05	5.532946E-06
1.830846E+03	7.292413E-05	5.601117E-06
1.870647E+03	7.447419E-05	5.674157E-06
1.910448E+03	7.610340E-05	5.750271E-06
1.950249E+03	7.783200E-05	5.830748E-06
1.990050E+03	7.968248E-05	5.916985E-06
2.029851E+03	8.166582E-05	6.009464E-06
2.069652E+03	8.378075E-05	6.107732E-06
2.109453E+03	8.607088E-05	6.214570E-06
2.149254E+03	8.853957E-05	6.329744E-06
2.189055E+03	9.123714E-05	6.456318E-06
2.228856E+03	9.415680E-05	6.593194E-06
2.268657E+03	9.735508E-05	6.743659E-06
2.308458E+03	1.008775E-04	6.910054E-06
2.348259E+03	1.047401E-04	7.092555E-06
2.388060E+03	1.089934E-04	7.293573E-06
2.427861E+03	1.136738E-04	7.514374E-06
2.467662E+03	1.188541E-04	7.758467E-06
2.507463E+03	1.245557E-04	8.025758E-06
2.547264E+03	1.308727E-04	8.320656E-06
2.587065E+03	1.378044E-04	8.641263E-06
2.626866E+03	1.454415E-04	8.991259E-06
2.666667E+03	1.538097E-04	9.370023E-06
2.706468E+03	1.629434E-04	9.777268E-06
2.746269E+03	1.728824E-04	1.021287E-05
2.786070E+03	1.835988E-04	1.067255E-05
2.825871E+03	1.950762E-04	1.115271E-05
2.865672E+03	2.072305E-04	1.164600E-05
2.905473E+03	2.199697E-04	1.214489E-05
2.945274E+03	2.330526E-04	1.263409E-05
2.985075E+03	2.462239E-04	1.309853E-05
2.995025E+03	2.494882E-04	1.320843E-05
3.004975E+03	2.527364E-04	1.331563E-05
3.014925E+03	2.559603E-04	1.341967E-05
3.024876E+03	2.591235E-04	1.351868E-05
3.034826E+03	2.622437E-04	1.361362E-05
3.044776E+03	2.653109E-04	1.370400E-05
3.054726E+03	2.682871E-04	1.378790E-05
3.064677E+03	2.712163E-04	1.386764E-05
3.074627E+03	2.740318E-04	1.393985E-05
3.084577E+03	2.767768E-04	1.400681E-05
3.094527E+03	2.793836E-04	1.406516E-05
3.104478E+03	2.818944E-04	1.411711E-05
3.114428E+03	2.842684E-04	1.416072E-05
3.124378E+03	2.864643E-04	1.419403E-05
3.134328E+03	2.885506E-04	1.422056E-05
3.144279E+03	2.904307E-04	1.423567E-05
3.154229E+03	2.921447E-04	1.424147E-05
3.164179E+03	2.936510E-04	1.423607E-05
3.174129E+03	2.949356E-04	1.421898E-05
3.184080E+03	2.960128E-04	1.419105E-05
3.194030E+03	2.968739E-04	1.415203E-05
3.203980E+03	2.974962E-04	1.410104E-05
3.213930E+03	2.979276E-04	1.404051E-05
3.223881E+03	2.981782E-04	1.397108E-05
3.233831E+03	2.983468E-04	1.389752E-05
3.243781E+03	2.984409E-04	1.382021E-05
3.253731E+03	2.985502E-04	1.374339E-05
3.263682E+03	2.987377E-04	1.366989E-05
3.273632E+03	2.990602E-04	1.360226E-05
3.283582E+03	2.995694E-04	1.354272E-05
3.293532E+03	3.003350E-04	1.349424E-05
3.303483E+03	3.013480E-04	1.345623E-05
3.313433E+03	3.026895E-04	1.343206E-05
3.323383E+03	3.043642E-04	1.342168E-05
3.333333E+03	3.064182E-04	1.342684E-05
3.343284E+03	3.088485E-04	1.344708E-05
3.353234E+03	3.116987E-04	1.348398E-05
3.363184E+03	3.149918E-04	1.353817E-05
3.373134E+03	3.187286E-04	1.360932E-05
3.383085E+03	3.229763E-04	1.369989E-05
3.393035E+03	3.277042E-04	1.380818E-05
3.402985E+03	3.329410E-04	1.393496E-05
3.412935E+03	3.386740E-04	1.407929E-05
3.422886E+03	3.448871E-04	1.424008E-05
3.432836E+03	3.514929E-04	1.441332E-05
3.442786E+03	3.584043E-04	1.459516E-05
3.452736E+03	3.655367E-04	1.478189E-05
3.462687E+03	3.727376E-04	1.496722E-05
3.472637E+03	3.798798E-04	1.514601E-05
3.482587E+03	3.868292E-04	1.531300E-05
3.492537E+03	3.934804E-04	1.546422E-05
3.502488E+03	3.997684E-04	1.559739E-05
3.512438E+03	4.056625E-04	1.571164E-05
3.522388E+03	4.112484E-04	1.581060E-05
3.532338E+03	4.165869E-04	1.589685E-05
3.542289E+03	4.217052E-04	1.597165E-05
3.552239E+03	4.267244E-04	1.603973E-05
3.562189E+03	4.316869E-04	1.610277E-05
3.572139E+03	4.365833E-04	1.616048E-05
3.582090E+03	4.413401E-04	1.621021E-05
3.592040E+03	4.459051E-04	1.625019E-05
3.601990E+03	4.502093E-04	1.627810E-05
3.611940E+03	4.541277E-04	1.628969E-05
3.621891E+03	4.575721E-04	1.628215E-05
3.631841E+03	4.604779E-04	1.625363E-05
3.641791E+03	4.628243E-04	1.620387E-05
3.651741E+03	4.645644E-04	1.613173E-05
3.661692E+03	4.657363E-04	1.603905E-05
3.671642E+03	4.663043E-04	1.592511E-05
3.681592E+03	4.663311E-04	1.579258E-05
3.691542E+03	4.658041E-04	1.564149E-05
3.701493E+03	4.648073E-04	1.547514E-05
3.711443E+03	4.633810E-04	1.529527E-05
3.721393E+03	4.616310E-04	1.510572E-05
3.731343E+03	4.596543E-04	1.490993E-05
3.741294E+03	4.576565E-04	1.471472E-05
3.751244E+03	4.558276E-04	1.452616E-05
3.761194E+03	4.544615E-04	1.435342E-05
3.771144E+03	4.538542E-04	1.420537E-05
3.781095E+03	4.543353E-04	1.409161E-05
3.791045E+03	4.561845E-04	1.401982E-05
3.800995E+03	4.597530E-04	1.399955E-05
3.810945E+03	4.652715E-04	1.403634E-05
3.820896E+03	4.729822E-04	1.413579E-05
3.830846E+03	4.831281E-04	1.430328E-05
3.840796E+03	4.958301E-04	1.454035E-05
3.850746E+03	5.112340E-04	1.484912E-05
3.860697E+03	5.293658E-04	1.522814E-05
3.870647E+03	5.502397E-04	1.567558E-05
3.880597E+03	5.737368E-04	1.618589E-05
3.890547E+03	5.996856E-04	1.675218E-05
3.900498E+03	6.277580E-04	1.736345E-05
3.910448E+03	6.575323E-04	1.800650E-05
3.920398E+03	6.885418E-04	1.866742E-05
3.930348E+03	7.201508E-04	1.932825E-05
3.940299E+03	7.518121E-04	1.997413E-05
3.950249E+03	7.829008E-04	2.058874E-05
3.960199E+03	8.129810E-04	2.116136E-05
3.970149E+03	8.416156E-04	2.168172E-05
3.980100E+03	8.684838E-04	2.214297E-05
3.990050E+03	8.932759E-04	2.253889E-05
4.000000E+03	9.156863E-04	2.286367E-05
4.009950E+03	9.355080E-04	2.311426E-05
4.019900E+03	9.524601E-04	2.328598E-05
4.029851E+03	9.663937E-04	2.337764E-05
4.039801E+03	9.772564E-04	2.339047E-05
4.049751E+03	9.851608E-04	2.332964E-05
4.059701E+03	9.903287E-04	2.320274E-05
4.069652E+03	9.931161E-04	2.302020E-05
4.079602E+03	9.938611E-04	2.279168E-05
4.089552E+03	9.930386E-04	2.252957E-05
4.099502E+03	9.909488E-04	2.224185E-05
4.109453E+03	9.879153E-04	2.193672E-05
4.119403E+03	9.841635E-04	2.161988E-05
4.129353E+03	9.799294E-04	2.129705E-05
4.139303E+03	9.753963E-04	2.097260E-05
4.149254E+03	9.706899E-04	2.064946E-05
4.159204E+03	9.659675E-04	2.033115E-05
4.169154E+03	9.613903E-04	2.002110E-05
4.179104E+03	9.570401E-04	1.972097E-05
4.189055E+03	9.530143E-04	1.943268E-05
4.199005E+03	9.493124E-04	1.915607E-05
4.208955E+03	9.459163E-04	1.889068E-05
4.218905E+03	9.428762E-04	1.863738E-05
4.228856E+03	9.403257E-04	1.839865E-05
4.238806E+03	9.384330E-04	1.817757E-05
4.248756E+03	9.374614E-04	1.797888E-05
4.258706E+03	9.376247E-04	1.780625E-05
4.268657E+03	9.391780E-04	1.766395E-05
4.278607E+03	9.421273E-04	1.755149E-05
4.288557E+03	9.461941E-04	1.746315E-05
4.298507E+03	9.509608E-04	1.739090E-05
4.308458E+03	9.559256E-04	1.732550E-05
4.318408E+03	9.605865E-04	1.725802E-05
4.328358E+03	9.645039E-04	1.718098E-05
4.338308E+03	9.672554E-04	1.708745E-05
4.348259E+03	9.684517E-04	1.697129E-05
4.358209E+03	9.678333E-04	1.682878E-05
4.368159E+03	9.652043E-04	1.665739E-05
4.378109E+03	9.607026E-04	1.646032E-05
4.388060E+03	9.547444E-04	1.624536E-05
4.398010E+03	9.478172E-04	1.602128E-05
4.407960E+03	9.404878E-04	1.579776E-05
4.417910E+03	9.333158E-04	1.558400E-05
4.427861E+03	9.269005E-04	1.538960E-05
4.437811E+03	9.217883E-04	1.522307E-05
4.447761E+03	9.185171E-04	1.509263E-05
4.457711E+03	9.176665E-04	1.500707E-05
4.467662E+03	9.198039E-04	1.497486E-05
4.477612E+03	9.255111E-04	1.500459E-05
4.487562E+03	9.352724E-04	1.510325E-05
4.497512E+03	9.493427E-04	1.527407E-05
4.507463E+03	9.677878E-04	1.551733E-05
4.517413E+03	9.903421E-04	1.582804E-05
4.527363E+03	1.016248E-03	1.619355E-05
4.537313E+03	1.044445E-03	1.659657E-05
4.547264E+03	1.073614E-03	1.701594E-05
4.557214E+03	1.102389E-03	1.742997E-05
4.567164E+03	1.129387E-03	1.781692E-05
4.577114E+03	1.153322E-03	1.815669E-05
4.587065E+03	1.173267E-03	1.843494E-05
4.597015E+03	1.188580E-03	1.864185E-05
4.606965E+03	1.199035E-03	1.877415E-05
4.616915E+03	1.204845E-03	1.883534E-05
4.626866E+03	1.206568E-03	1.883426E-05
4.636816E+03	1.204829E-03	1.878074E-05
4.646766E+03	1.200193E-03	1.868352E-05
4.656716E+03	1.193152E-03	1.855024E-05
4.666667E+03	1.184009E-03	1.838547E-05
4.676617E+03	1.172876E-03	1.819087E-05
4.686567E+03	1.159724E-03	1.796587E-05
4.696517E+03	1.144502E-03	1.770958E-05
4.706468E+03	1.127227E-03	1.742220E-05
4.716418E+03	1.107982E-03	1.710494E-05
4.726368E+03	1.086952E-03	1.676057E-05
4.736318E+03	1.064402E-03	1.639319E-05
4.746269E+03	1.040626E-03	1.600724E-05
4.756219E+03	1.015964E-03	1.560795E-05
4.766169E+03	9.906692E-04	1.519915E-05
4.776119E+03	9.649768E-04	1.478444E-05
4.786070E+03	9.391961E-04	1.436855E-05
4.796020E+03	9.136351E-04	1.395615E-05
4.805970E+03	8.886921E-04	1.355330E-05
4.815920E+03	8.648023E-04	1.316659E-05
4.825871E+03	8.425084E-04	1.280421E-05
4.835821E+03	8.223587E-04	1.247435E-05
4.845771E+03	8.048688E-04	1.218467E-05
4.855721E+03	7.905228E-04	1.194227E-05
4.865672E+03	7.797457E-04	1.175326E-05
4.875622E+03	7.729684E-04	1.162377E-05
4.885572E+03	7.706277E-04	1.155992E-05
4.895522E+03	7.731729E-04	1.156791E-05
4.905473E+03	7.810705E-04	1.165408E-05
4.915423E+03	7.947818E-04	1.182456E-05
4.925373E+03	8.146697E-04	1.208386E-05
4.935323E+03	8.407047E-04	1.243058E-05
4.945274E+03	8.721607E-04	1.285296E-05
4.955224E+03	9.077530E-04	1.333114E-05
4.965174E+03	9.457600E-04	1.383905E-05
4.975124E+03	9.842538E-04	1.434796E-05
4.985075E+03	1.021131E-03	1.482698E-05
4.995025E+03	1.054433E-03	1.524785E-05
5.004975E+03	1.082702E-03	1.559000E-05
5.014925E+03	1.104979E-03	1.584045E-05
5.024876E+03	1.120885E-03	1.599480E-05
5.034826E+03	1.130636E-03	1.605732E-05
5.044776E+03	1.134919E-03	1.603891E-05
5.054726E+03	1.134721E-03	1.595462E-05
5.064677E+03	1.131175E-03	1.582129E-05
5.074627E+03	1.125430E-03	1.565570E-05
5.084577E+03	1.118458E-03	1.547191E-05
5.094527E+03	1.110934E-03	1.527955E-05
5.104478E+03	1.103300E-03	1.508493E-05
5.114428E+03	1.095798E-03	1.489144E-05
5.124378E+03	1.088528E-03	1.470053E-05
5.134328E+03	1.081479E-03	1.451210E-05
5.144279E+03	1.074611E-03	1.432567E-05
5.154229E+03	1.067926E-03	1.414134E-05
5.164179E+03	1.061436E-03	1.395935E-05
5.174129E+03	1.055244E-03	1.378110E-05
5.184080E+03	1.049480E-03	1.360834E-05
5.194030E+03	1.044346E-03	1.344366E-05
5.203980E+03	1.039992E-03	1.328896E-05
5.213930E+03	1.036551E-03	1.314580E-05
5.223881E+03	1.034048E-03	1.301438E-05
5.233831E+03	1.032526E-03	1.289513E-05
5.243781E+03	1.031965E-03	1.278763E-05
5.253731E+03	1.032286E-03	1.269078E-05
5.263682E+03	1.033344E-03	1.260270E-05
5.273632E+03	1.034936E-03	1.252088E-05
5.283582E+03	1.036752E-03	1.244161E-05
5.293532E+03	1.038479E-03	1.236127E-05
5.303483E+03	1.039757E-03	1.227580E-05
5.313433E+03	1.040299E-03	1.218217E-05
5.323383E+03	1.039887E-03	1.207823E-05
5.333333E+03	1.038531E-03	1.196457E-05
5.343284E+03	1.036297E-03	1.184240E-05
5.353234E+03	1.033259E-03	1.171300E-05
5.363184E+03	1.029355E-03	1.157606E-05
5.373134E+03	1.024520E-03	1.143129E-05
5.383085E+03	1.018663E-03	1.127811E-05
5.393035E+03	1.011818E-03	1.111732E-05
5.402985E+03	1.004137E-03	1.095098E-05
5.412935E+03	9.961187E-04	1.078485E-05
5.422886E+03	9.886460E-04	1.062863E-05
5.432836E+03	9.828970E-04	1.049490E-05
5.442786E+03	9.800923E-04	1.039639E-05
5.452736E+03	9.814038E-04	1.034497E-05
5.462687E+03	9.879251E-04	1.035148E-05
5.472637E+03	1.000018E-03	1.041894E-05
5.482587E+03	1.016096E-03	1.053003E-05
5.492537E+03	1.034040E-03	1.066220E-05
5.502488E+03	1.051577E-03	1.079176E-05
5.512438E+03	1.066576E-03	1.089696E-05
5.522388E+03	1.077086E-03	1.095815E-05
5.532338E+03	1.081666E-03	1.096115E-05
5.542289E+03	1.079578E-03	1.089899E-05
5.552239E+03	1.070810E-03	1.077204E-05
5.562189E+03	1.056036E-03	1.058746E-05
5.572139E+03	1.036564E-03	1.035861E-05
5.582090E+03	1.014022E-03	1.010182E-05
5.592040E+03	9.898861E-04	9.831720E-06
5.601990E+03	9.652423E-04	9.558893E-06
5.611940E+03	9.407784E-04	9.289901E-06
5.621891E+03	9.166317E-04	9.025826E-06
5.631841E+03	8.923926E-04	8.762397E-06
5.641791E+03	8.673994E-04	8.492946E-06
5.651741E+03	8.413091E-04	8.214016E-06
5.661692E+03	8.142551E-04	7.926857E-06
5.671642E+03	7.868830E-04	7.637702E-06
5.681592E+03	7.603809E-04	7.357993E-06
5.691542E+03	7.364909E-04	7.104392E-06
5.701493E+03	7.171400E-04	6.895143E-06
5.711443E+03	7.040145E-04	6.745936E-06
5.721393E+03	6.983885E-04	6.668281E-06
5.731343E+03	7.013184E-04	6.671398E-06
5.741294E+03	7.136524E-04	6.762324E-06
5.751244E+03	7.360185E-04	6.945813E-06
5.761194E+03	7.689102E-04	7.225161E-06
5.771144E+03	8.127469E-04	7.602782E-06
5.781095E+03	8.677029E-04	8.078622E-06
5.791045E+03	9.336301E-04	8.649482E-06
5.800995E+03	1.009780E-03	9.306528E-06
5.810945E+03	1.094470E-03	1.003240E-05
5.820896E+03	1.184932E-03	1.080006E-05
5.830846E+03	1.277207E-03	1.157220E-05
5.840796E+03	1.366334E-03	1.230333E-05
5.850746E+03	1.446680E-03	1.294308E-05
5.860697E+03	1.512892E-03	1.344503E-05
5.870647E+03	1.561043E-03	1.377676E-05
5.880597E+03	1.588927E-03	1.392214E-05
5.890547E+03	1.596131E-03	1.388143E-05
5.900498E+03	1.584010E-03	1.367051E-05
5.910448E+03	1.555317E-03	1.331706E-05
5.920398E+03	1.513507E-03	1.285415E-05
5.930348E+03	1.462355E-03	1.231672E-05
5.940299E+03	1.405500E-03	1.173756E-05
5.950249E+03	1.346143E-03	1.114483E-05
5.960199E+03	1.286897E-03	1.056092E-05
5.970149E+03	1.229809E-03	1.000288E-05
5.980100E+03	1.176361E-03	9.482521E-06
5.990050E+03	1.127586E-03	9.007640E-06
6.000000E+03	1.084096E-03	8.582363E-06
6.009950E+03	1.046138E-03	8.207772E-06
6.019900E+03	1.013591E-03	7.882002E-06
6.029851E+03	9.861489E-04	7.601830E-06
6.039801E+03	9.634546E-04	7.363737E-06
6.049751E+03	9.451359E-04	7.164240E-06
6.059701E+03	9.308487E-04	7.000212E-06
6.069652E+03	9.202509E-04	6.868688E-06
6.079602E+03	9.130209E-04	6.767003E-06
6.089552E+03	9.088109E-04	6.692451E-06
6.099502E+03	9.072469E-04	6.642281E-06
6.109453E+03	9.079316E-04	6.613726E-06
6.119403E+03	9.104860E-04	6.604289E-06
6.129353E+03	9.147902E-04	6.613468E-06
6.139303E+03	9.210354E-04	6.643092E-06
6.149254E+03	9.296362E-04	6.696663E-06
6.159204E+03	9.410620E-04	6.778162E-06
6.169154E+03	9.556985E-04	6.891093E-06
6.179104E+03	9.738242E-04	7.038348E-06
6.189055E+03	9.955017E-04	7.221447E-06
6.199005E+03	1.020515E-03	7.439910E-06
6.208955E+03	1.048447E-03	7.691450E-06
6.218905E+03	1.078413E-03	7.970276E-06
6.228856E+03	1.108800E-03	8.265017E-06
6.238806E+03	1.137919E-03	8.563267E-06
6.248756E+03	1.164099E-03	8.852172E-06
6.258706E+03	1.185845E-03	9.119538E-06
6.268657E+03	1.201919E-03	9.354403E-06
6.278607E+03	1.211595E-03	9.549166E-06
6.288557E+03	1.214957E-03	9.702142E-06
6.298507E+03	1.212620E-03	9.815769E-06
6.308458E+03	1.205675E-03	9.896498E-06
6.318408E+03	1.195484E-03	9.953414E-06
6.328358E+03	1.183556E-03	9.997447E-06
6.338308E+03	1.171214E-03	1.003864E-05
6.348259E+03	1.159603E-03	1.008616E-05
6.358209E+03	1.149551E-03	1.014705E-05
6.368159E+03	1.141669E-03	1.022685E-05
6.378109E+03	1.136196E-03	1.032810E-05
6.388060E+03	1.133205E-03	1.045200E-05
6.398010E+03	1.132507E-03	1.059739E-05
6.407960E+03	1.133683E-03	1.076083E-05
6.417910E+03	1.136165E-03	1.093725E-05
6.427861E+03	1.139241E-03	1.111992E-05
6.437811E+03	1.142017E-03	1.129992E-05
6.447761E+03	1.143625E-03	1.146811E-05
6.457711E+03	1.143226E-03	1.161522E-05
6.467662E+03	1.140183E-03	1.173364E-05
6.477612E+03	1.134103E-03	1.181800E-05
6.487562E+03	1.124905E-03	1.186606E-05
6.497512E+03	1.112957E-03	1.188038E-05
6.507463E+03	1.098989E-03	1.186768E-05
6.517413E+03	1.083959E-03	1.183754E-05
6.527363E+03	1.069073E-03	1.180284E-05
6.537313E+03	1.055605E-03	1.177777E-05
6.547264E+03	1.044578E-03	1.177433E-05
6.557214E+03	1.036663E-03	1.180092E-05
6.567164E+03	1.032210E-03	1.186256E-05
6.577114E+03	1.031118E-03	1.195910E-05
6.587065E+03	1.032788E-03	1.208450E-05
6.597015E+03	1.036240E-03	1.222792E-05
6.606965E+03	1.040299E-03	1.237578E-05
6.616915E+03	1.043626E-03	1.251206E-05
6.626866E+03	1.044886E-03	1.262028E-05
6.636816E+03	1.042841E-03	1.268475E-05
6.646766E+03	1.036567E-03	1.269325E-05
6.656716E+03	1.025394E-03	1.263645E-05
6.666667E+03	1.009061E-03	1.251005E-05
6.676617E+03	9.877090E-04	1.231476E-05
6.686567E+03	9.618153E-04	1.205572E-05
6.696517E+03	9.321878E-04	1.174243E-05
6.706468E+03	8.998623E-04	1.138763E-05
6.716418E+03	8.659699E-04	1.100556E-05
6.726368E+03	8.316223E-04	1.061055E-05
6.736318E+03	7.978064E-04	1.021555E-05
6.746269E+03	7.653608E-04	9.831801E-06
6.756219E+03	7.349473E-04	9.468398E-06
6.766169E+03	7.070140E-04	9.131720E-06
6.776119E+03	6.818970E-04	8.826705E-06
6.786070E+03	6.598532E-04	8.557236E-06
6.796020E+03	6.411038E-04	8.326683E-06
6.805970E+03	6.258533E-04	8.138136E-06
6.815920E+03	6.143510E-04	7.995191E-06
6.825871E+03	6.068329E-04	7.901189E-06
6.835821E+03	6.036045E-04	7.860278E-06
6.845771E+03	6.049979E-04	7.876845E-06
6.855721E+03	6.113600E-04	7.955350E-06
6.865672E+03	6.230632E-04	8.100444E-06
6.875622E+03	6.404891E-04	8.316744E-06
6.885572E+03	6.639914E-04	8.608331E-06
6.895522E+03	6.938448E-04	8.978084E-06
6.905473E+03	7.303117E-04	9.428530E-06
6.915423E+03	7.734646E-04	9.959552E-06
6.925373E+03	8.232228E-04	1.056889E-05
6.935323E+03	8.792597E-04	1.125098E-05
6.945274E+03	9.409503E-04	1.199636E-05
6.955224E+03	1.007270E-03	1.279046E-05
6.965174E+03	1.076737E-03	1.361305E-05
6.975124E+03	1.147408E-03	1.443833E-05
6.985075E+03	1.216841E-03	1.523468E-05
6.995025E+03	1.282270E-03	1.596712E-05
7.004975E+03	1.340759E-03	1.659943E-05
7.014925E+03	1.389396E-03	1.709666E-05
7.024876E+03	1.425771E-03	1.743113E-05
7.034826E+03	1.448255E-03	1.758568E-05
7.044776E+03	1.456129E-03	1.755503E-05
7.054726E+03	1.449827E-03	1.734823E-05
7.064677E+03	1.430873E-03	1.698744E-05
7.074627E+03	1.401694E-03	1.650520E-05
7.084577E+03	1.365218E-03	1.593911E-05
7.094527E+03	1.324661E-03	1.532914E-05
7.104478E+03	1.283179E-03	1.471332E-05
7.114428E+03	1.243617E-03	1.412483E-05
7.124378E+03	1.208373E-03	1.359054E-05
7.134328E+03	1.179385E-03	1.313113E-05
7.144279E+03	1.157956E-03	1.275928E-05
7.154229E+03	1.144786E-03	1.248042E-05
7.164179E+03	1.140140E-03	1.229490E-05
7.174129E+03	1.143848E-03	1.219823E-05
7.184080E+03	1.155277E-03	1.218109E-05
7.194030E+03	1.173396E-03	1.223031E-05
7.203980E+03	1.196872E-03	1.233016E-05
7.213930E+03	1.224006E-03	1.246184E-05
7.223881E+03	1.252732E-03	1.260380E-05
7.233831E+03	1.280856E-03	1.273429E-05
7.243781E+03	1.306168E-03	1.283255E-05
7.253731E+03	1.326510E-03	1.287942E-05
7.263682E+03	1.340027E-03	1.285968E-05
7.273632E+03	1.345296E-03	1.276304E-05
7.283582E+03	1.341481E-03	1.258527E-05
7.293532E+03	1.328307E-03	1.232749E-05
7.303483E+03	1.306254E-03	1.199770E-05
7.313433E+03	1.276319E-03	1.160807E-05
7.323383E+03	1.239990E-03	1.117453E-05
7.333333E+03	1.199071E-03	1.071501E-05
7.343284E+03	1.155486E-03	1.024761E-05
7.353234E+03	1.111081E-03	9.788920E-06
7.363184E+03	1.067447E-03	9.352712E-06
7.373134E+03	1.025886E-03	8.949752E-06
7.383085E+03	9.873256E-04	8.587317E-06
7.393035E+03	9.522917E-04	8.269145E-06
7.402985E+03	9.209283E-04	7.995722E-06
7.412935E+03	8.931760E-04	7.765909E-06
7.422886E+03	8.686889E-04	7.576234E-06
7.432836E+03	8.470475E-04	7.422707E-06
7.442786E+03	8.278912E-04	7.301924E-06
7.452736E+03	8.110580E-04	7.212057E-06
7.462687E+03	7.964996E-04	7.152186E-06
7.472637E+03	7.842788E-04	7.122539E-06
7.482587E+03	7.746111E-04	7.124949E-06
7.492537E+03	7.677442E-04	7.161843E-06
7.502488E+03	7.639295E-04	7.236021E-06
7.512438E+03	7.633304E-04	7.349798E-06
7.522388E+03	7.659779E-04	7.504531E-06
7.532338E+03	7.715465E-04	7.698261E-06
7.542289E+03	7.791866E-04	7.923664E-06
7.552239E+03	7.876601E-04	8.168879E-06
7.562189E+03	7.954372E-04	8.418026E-06
7.572139E+03	8.007390E-04	8.651214E-06
7.582090E+03	8.021810E-04	8.851233E-06
7.592040E+03	8.006660E-04	9.025207E-06
7.601990E+03	7.976779E-04	9.187670E-06
7.611940E+03	7.945907E-04	9.353253E-06
7.621891E+03	7.924670E-04	9.534227E-06
7.631841E+03	7.918413E-04	9.737526E-06
7.641791E+03	7.929278E-04	9.966695E-06
7.651741E+03	7.956804E-04	1.022225E-05
7.661692E+03	7.998663E-04	1.050226E-05
7.671642E+03	8.050846E-04	1.080235E-05
7.681592E+03	8.108635E-04	1.111676E-05
7.691542E+03	8.166381E-04	1.143789E-05
7.701493E+03	8.217710E-04	1.175645E-05
7.711443E+03	8.256021E-04	1.206206E-05
7.721393E+03	8.274830E-04	1.234368E-05
