#wls	flux	fluxerr
1.592040E+03	3.585422E-05	1.707745E-06
1.631841E+03	3.657058E-05	1.733742E-06
1.671642E+03	3.732548E-05	1.761050E-06
1.711443E+03	3.812102E-05	1.789728E-06
1.751244E+03	3.896612E-05	1.820147E-06
1.791045E+03	3.984992E-05	1.851752E-06
1.830846E+03	4.078844E-05	1.885237E-06
1.870647E+03	4.177062E-05	1.920035E-06
1.910448E+03	4.281328E-05	1.956862E-06
1.950249E+03	4.391979E-05	1.995804E-06
1.990050E+03	4.508610E-05	2.036604E-06
2.029851E+03	4.631528E-05	2.079328E-06
2.069652E+03	4.761824E-05	2.124388E-06
2.109453E+03	4.899036E-05	2.171489E-06
2.149254E+03	5.044267E-05	2.221029E-06
2.189055E+03	5.197814E-05	2.273039E-06
2.228856E+03	5.359924E-05	2.327519E-06
2.268657E+03	5.529890E-05	2.384054E-06
2.308458E+03	5.708655E-05	2.442938E-06
2.348259E+03	5.897111E-05	2.504430E-06
2.388060E+03	6.093229E-05	2.567544E-06
2.427861E+03	6.298521E-05	2.632795E-06
2.467662E+03	6.511450E-05	2.699412E-06
2.507463E+03	6.731126E-05	2.766908E-06
2.547264E+03	6.956358E-05	2.834682E-06
2.587065E+03	7.186677E-05	2.902442E-06
2.626866E+03	7.420228E-05	2.969345E-06
2.666667E+03	7.653623E-05	3.033967E-06
2.706468E+03	7.885307E-05	3.095654E-06
2.746269E+03	8.112300E-05	3.153226E-06
2.786070E+03	8.331366E-05	3.205451E-06
2.825871E+03	8.537947E-05	3.250649E-06
2.865672E+03	8.731206E-05	3.288622E-06
2.905473E+03	8.907093E-05	3.317993E-06
2.945274E+03	9.062237E-05	3.337711E-06
2.985075E+03	9.199408E-05	3.349029E-06
2.995025E+03	9.230260E-05	3.350341E-06
3.004975E+03	9.259654E-05	3.351025E-06
3.014925E+03	9.287621E-05	3.351097E-06
3.024876E+03	9.315467E-05	3.351031E-06
3.034826E+03	9.341982E-05	3.350394E-06
3.044776E+03	9.367237E-05	3.349215E-06
3.054726E+03	9.391296E-05	3.347521E-06
3.064677E+03	9.415497E-05	3.345791E-06
3.074627E+03	9.438675E-05	3.343613E-06
3.084577E+03	9.460934E-05	3.341026E-06
3.094527E+03	9.482384E-05	3.338073E-06
3.104478E+03	9.503148E-05	3.334799E-06
3.114428E+03	9.524600E-05	3.331687E-06
3.124378E+03	9.545635E-05	3.328349E-06
3.134328E+03	9.566409E-05	3.324842E-06
3.144279E+03	9.587077E-05	3.321220E-06
3.154229E+03	9.607815E-05	3.317544E-06
3.164179E+03	9.630041E-05	3.314302E-06
3.174129E+03	9.652705E-05	3.311130E-06
3.184080E+03	9.676001E-05	3.308091E-06
3.194030E+03	9.700140E-05	3.305256E-06
3.203980E+03	9.726569E-05	3.303114E-06
3.213930E+03	9.754277E-05	3.301315E-06
3.223881E+03	9.783493E-05	3.299931E-06
3.233831E+03	9.814449E-05	3.299037E-06
3.243781E+03	9.848634E-05	3.299123E-06
3.253731E+03	9.883818E-05	3.299436E-06
3.263682E+03	9.922730E-05	3.300879E-06
3.273632E+03	9.964392E-05	3.303116E-06
3.283582E+03	1.001031E-04	3.306634E-06
3.293532E+03	1.005828E-04	3.310693E-06
3.303483E+03	1.011105E-04	3.316186E-06
3.313433E+03	1.016765E-04	3.322785E-06
3.323383E+03	1.022837E-04	3.330565E-06
3.333333E+03	1.029475E-04	3.340009E-06
3.343284E+03	1.036581E-04	3.350790E-06
3.353234E+03	1.044186E-04	3.362982E-06
3.363184E+03	1.052318E-04	3.376659E-06
3.373134E+03	1.061006E-04	3.391898E-06
3.383085E+03	1.070406E-04	3.409178E-06
3.393035E+03	1.080294E-04	3.427757E-06
3.402985E+03	1.091085E-04	3.448930E-06
3.412935E+03	1.102422E-04	3.471544E-06
3.422886E+03	1.114464E-04	3.496078E-06
3.432836E+03	1.127372E-04	3.523008E-06
3.442786E+03	1.141047E-04	3.551994E-06
3.452736E+03	1.155518E-04	3.583102E-06
3.462687E+03	1.170816E-04	3.616395E-06
3.472637E+03	1.187108E-04	3.652358E-06
3.482587E+03	1.204289E-04	3.690636E-06
3.492537E+03	1.222392E-04	3.731294E-06
3.502488E+03	1.241446E-04	3.774390E-06
3.512438E+03	1.261483E-04	3.819985E-06
3.522388E+03	1.282679E-04	3.868578E-06
3.532338E+03	1.304927E-04	3.919799E-06
3.542289E+03	1.328258E-04	3.973706E-06
3.552239E+03	1.352705E-04	4.030362E-06
3.562189E+03	1.378302E-04	4.089825E-06
3.572139E+03	1.405240E-04	4.152615E-06
3.582090E+03	1.433401E-04	4.218342E-06
3.592040E+03	1.462823E-04	4.287067E-06
3.601990E+03	1.493538E-04	4.358848E-06
3.611940E+03	1.525584E-04	4.433741E-06
3.621891E+03	1.559165E-04	4.512292E-06
3.631841E+03	1.594153E-04	4.594077E-06
3.641791E+03	1.630583E-04	4.679147E-06
3.651741E+03	1.668487E-04	4.767542E-06
3.661692E+03	1.707897E-04	4.859303E-06
3.671642E+03	1.749028E-04	4.954987E-06
3.681592E+03	1.791728E-04	5.054102E-06
3.691542E+03	1.836020E-04	5.156658E-06
3.701493E+03	1.881920E-04	5.262649E-06
3.711443E+03	1.929441E-04	5.372053E-06
3.721393E+03	1.978588E-04	5.484828E-06
3.731343E+03	2.029569E-04	5.601495E-06
3.741294E+03	2.082170E-04	5.721402E-06
3.751244E+03	2.136366E-04	5.844430E-06
3.761194E+03	2.192123E-04	5.970431E-06
3.771144E+03	2.249392E-04	6.099223E-06
3.781095E+03	2.308108E-04	6.230582E-06
3.791045E+03	2.368432E-04	6.364896E-06
3.800995E+03	2.429789E-04	6.500574E-06
3.810945E+03	2.492549E-04	6.638575E-06
3.820896E+03	2.556336E-04	6.777857E-06
3.830846E+03	2.620992E-04	6.917979E-06
3.840796E+03	2.686342E-04	7.058459E-06
3.850746E+03	2.752463E-04	7.199485E-06
3.860697E+03	2.818600E-04	7.339072E-06
3.870647E+03	2.885075E-04	7.478066E-06
3.880597E+03	2.951076E-04	7.614377E-06
3.890547E+03	3.016922E-04	7.748848E-06
3.900498E+03	3.082060E-04	7.880085E-06
3.910448E+03	3.146216E-04	8.007433E-06
3.920398E+03	3.209117E-04	8.130247E-06
3.930348E+03	3.270491E-04	8.247899E-06
3.940299E+03	3.330072E-04	8.359790E-06
3.950249E+03	3.387930E-04	8.466173E-06
3.960199E+03	3.443181E-04	8.564924E-06
3.970149E+03	3.495925E-04	8.656397E-06
3.980100E+03	3.546298E-04	8.741029E-06
3.990050E+03	3.593801E-04	8.817690E-06
4.000000E+03	3.637948E-04	8.885310E-06
4.009950E+03	3.679309E-04	8.945402E-06
4.019900E+03	3.717468E-04	8.997067E-06
4.029851E+03	3.752382E-04	9.040330E-06
4.039801E+03	3.784046E-04	9.075296E-06
4.049751E+03	3.812138E-04	9.101320E-06
4.059701E+03	3.837421E-04	9.120350E-06
4.069652E+03	3.859639E-04	9.131884E-06
4.079602E+03	3.878913E-04	9.136323E-06
4.089552E+03	3.895391E-04	9.134117E-06
4.099502E+03	3.909235E-04	9.125753E-06
4.109453E+03	3.920626E-04	9.111745E-06
4.119403E+03	3.929756E-04	9.092625E-06
4.129353E+03	3.936822E-04	9.068933E-06
4.139303E+03	3.942025E-04	9.041204E-06
4.149254E+03	3.945568E-04	9.009969E-06
4.159204E+03	3.947651E-04	8.975745E-06
4.169154E+03	3.948470E-04	8.939033E-06
4.179104E+03	3.948220E-04	8.900318E-06
4.189055E+03	3.947087E-04	8.860061E-06
4.199005E+03	3.945253E-04	8.818706E-06
4.208955E+03	3.942554E-04	8.775914E-06
4.218905E+03	3.939844E-04	8.733618E-06
4.228856E+03	3.936946E-04	8.691433E-06
4.238806E+03	3.933680E-04	8.648985E-06
4.248756E+03	3.930879E-04	8.608112E-06
4.258706E+03	3.928019E-04	8.567670E-06
4.268657E+03	3.925915E-04	8.529445E-06
4.278607E+03	3.924040E-04	8.492285E-06
4.288557E+03	3.922865E-04	8.457211E-06
4.298507E+03	3.922525E-04	8.424505E-06
4.308458E+03	3.923146E-04	8.394431E-06
4.318408E+03	3.924854E-04	8.367241E-06
4.328358E+03	3.927766E-04	8.343175E-06
4.338308E+03	3.931668E-04	8.321760E-06
4.348259E+03	3.937314E-04	8.304581E-06
4.358209E+03	3.944136E-04	8.290415E-06
4.368159E+03	3.952512E-04	8.280047E-06
4.378109E+03	3.962450E-04	8.273474E-06
4.388060E+03	3.973909E-04	8.270591E-06
4.398010E+03	3.986815E-04	8.271233E-06
4.407960E+03	4.000750E-04	8.274523E-06
4.417910E+03	4.016256E-04	8.281564E-06
4.427861E+03	4.032562E-04	8.290740E-06
4.437811E+03	4.049863E-04	8.302431E-06
4.447761E+03	4.068019E-04	8.316329E-06
4.457711E+03	4.086882E-04	8.332116E-06
4.467662E+03	4.105969E-04	8.348792E-06
4.477612E+03	4.125773E-04	8.367348E-06
4.487562E+03	4.145470E-04	8.386105E-06
4.497512E+03	4.165216E-04	8.405374E-06
4.507463E+03	4.184838E-04	8.424799E-06
4.517413E+03	4.203830E-04	8.443362E-06
4.527363E+03	4.222348E-04	8.461380E-06
4.537313E+03	4.240223E-04	8.478513E-06
4.547264E+03	4.257294E-04	8.494441E-06
4.557214E+03	4.273406E-04	8.508861E-06
4.567164E+03	4.288088E-04	8.520839E-06
4.577114E+03	4.301548E-04	8.530795E-06
4.587065E+03	4.313681E-04	8.538527E-06
4.597015E+03	4.324401E-04	8.543872E-06
4.606965E+03	4.333316E-04	8.546060E-06
4.616915E+03	4.341052E-04	8.546334E-06
4.626866E+03	4.346937E-04	8.543368E-06
4.636816E+03	4.350985E-04	8.537203E-06
4.646766E+03	4.353903E-04	8.529225E-06
4.656716E+03	4.355098E-04	8.518272E-06
4.666667E+03	4.354996E-04	8.505177E-06
4.676617E+03	4.353389E-04	8.489536E-06
4.686567E+03	4.350752E-04	8.472272E-06
4.696517E+03	4.347254E-04	8.453705E-06
4.706468E+03	4.343086E-04	8.434202E-06
4.716418E+03	4.338461E-04	8.414164E-06
4.726368E+03	4.333286E-04	8.393406E-06
4.736318E+03	4.328136E-04	8.373025E-06
4.746269E+03	4.322955E-04	8.352901E-06
4.756219E+03	4.318339E-04	8.334174E-06
4.766169E+03	4.314573E-04	8.317372E-06
4.776119E+03	4.311944E-04	8.303033E-06
4.786070E+03	4.310421E-04	8.291076E-06
4.796020E+03	4.310599E-04	8.282627E-06
4.805970E+03	4.312741E-04	8.278167E-06
4.815920E+03	4.317085E-04	8.278133E-06
4.825871E+03	4.323528E-04	8.282302E-06
4.835821E+03	4.332555E-04	8.291584E-06
4.845771E+03	4.343982E-04	8.305600E-06
4.855721E+03	4.358202E-04	8.325083E-06
4.865672E+03	4.375242E-04	8.350058E-06
4.875622E+03	4.395074E-04	8.380449E-06
4.885572E+03	4.417293E-04	8.415466E-06
4.895522E+03	4.442071E-04	8.455418E-06
4.905473E+03	4.468892E-04	8.499300E-06
4.915423E+03	4.498145E-04	8.547839E-06
4.925373E+03	4.528568E-04	8.598619E-06
4.935323E+03	4.560791E-04	8.652824E-06
4.945274E+03	4.593796E-04	8.708511E-06
4.955224E+03	4.627519E-04	8.765549E-06
4.965174E+03	4.661561E-04	8.823174E-06
4.975124E+03	4.695200E-04	8.880014E-06
4.985075E+03	4.728383E-04	8.935965E-06
4.995025E+03	4.760770E-04	8.990383E-06
5.004975E+03	4.791719E-04	9.042053E-06
5.014925E+03	4.821308E-04	9.091122E-06
5.024876E+03	4.849009E-04	9.136599E-06
5.034826E+03	4.875351E-04	9.179479E-06
5.044776E+03	4.899577E-04	9.218344E-06
5.054726E+03	4.921634E-04	9.253097E-06
5.064677E+03	4.942218E-04	9.285049E-06
5.074627E+03	4.960667E-04	9.312957E-06
5.084577E+03	4.977023E-04	9.336909E-06
5.094527E+03	4.991690E-04	9.357666E-06
5.104478E+03	5.004717E-04	9.375324E-06
5.114428E+03	5.016154E-04	9.389978E-06
5.124378E+03	5.025691E-04	9.401053E-06
5.134328E+03	5.033695E-04	9.409241E-06
5.144279E+03	5.040182E-04	9.414575E-06
5.154229E+03	5.044810E-04	9.416422E-06
5.164179E+03	5.047918E-04	9.415420E-06
5.174129E+03	5.049509E-04	9.411579E-06
5.184080E+03	5.049232E-04	9.404250E-06
5.194030E+03	5.047443E-04	9.394106E-06
5.203980E+03	5.044170E-04	9.381201E-06
5.213930E+03	5.039102E-04	9.364966E-06
5.223881E+03	5.032650E-04	9.346170E-06
5.233831E+03	5.024900E-04	9.324982E-06
5.243781E+03	5.015970E-04	9.301622E-06
5.253731E+03	5.005641E-04	9.275696E-06
5.263682E+03	4.994087E-04	9.247530E-06
5.273632E+03	4.982167E-04	9.218722E-06
5.283582E+03	4.969386E-04	9.188358E-06
5.293532E+03	4.956295E-04	9.157464E-06
5.303483E+03	4.942757E-04	9.125792E-06
5.313433E+03	4.929655E-04	9.094973E-06
5.323383E+03	4.916514E-04	9.064135E-06
5.333333E+03	4.903512E-04	9.033611E-06
5.343284E+03	4.891486E-04	9.004939E-06
5.353234E+03	4.879900E-04	8.977139E-06
5.363184E+03	4.868873E-04	8.950427E-06
5.373134E+03	4.859132E-04	8.926145E-06
5.383085E+03	4.850068E-04	8.903171E-06
5.393035E+03	4.841995E-04	8.882086E-06
5.402985E+03	4.834558E-04	8.862238E-06
5.412935E+03	4.828001E-04	8.844078E-06
5.422886E+03	4.822207E-04	8.827393E-06
5.432836E+03	4.817017E-04	8.811894E-06
5.442786E+03	4.812252E-04	8.797258E-06
5.452736E+03	4.807361E-04	8.782485E-06
5.462687E+03	4.802111E-04	8.767148E-06
5.472637E+03	4.796880E-04	8.751940E-06
5.482587E+03	4.790742E-04	8.735165E-06
5.492537E+03	4.783753E-04	8.716924E-06
5.502488E+03	4.775653E-04	8.696743E-06
5.512438E+03	4.766247E-04	8.674269E-06
5.522388E+03	4.755069E-04	8.648653E-06
5.532338E+03	4.742362E-04	8.620340E-06
5.542289E+03	4.727810E-04	8.588758E-06
5.552239E+03	4.712128E-04	8.555206E-06
5.562189E+03	4.694837E-04	8.518817E-06
5.572139E+03	4.676477E-04	8.480571E-06
5.582090E+03	4.657331E-04	8.440987E-06
5.592040E+03	4.637425E-04	8.400104E-06
5.601990E+03	4.617440E-04	8.359162E-06
5.611940E+03	4.597769E-04	8.318869E-06
5.621891E+03	4.578821E-04	8.279959E-06
5.631841E+03	4.560695E-04	8.242611E-06
5.641791E+03	4.544099E-04	8.208099E-06
5.651741E+03	4.529418E-04	8.177111E-06
5.661692E+03	4.517010E-04	8.150290E-06
5.671642E+03	4.507209E-04	8.128229E-06
5.681592E+03	4.500007E-04	8.110907E-06
5.691542E+03	4.495955E-04	8.099311E-06
5.701493E+03	4.495249E-04	8.093784E-06
5.711443E+03	4.497722E-04	8.094015E-06
5.721393E+03	4.504031E-04	8.101183E-06
5.731343E+03	4.513552E-04	8.114152E-06
5.741294E+03	4.526463E-04	8.133239E-06
5.751244E+03	4.542544E-04	8.158040E-06
5.761194E+03	4.561160E-04	8.187410E-06
5.771144E+03	4.582478E-04	8.221646E-06
5.781095E+03	4.605340E-04	8.258665E-06
5.791045E+03	4.629399E-04	8.297849E-06
5.800995E+03	4.653608E-04	8.337318E-06
5.810945E+03	4.677777E-04	8.376741E-06
5.820896E+03	4.700430E-04	8.413479E-06
5.830846E+03	4.721008E-04	8.446540E-06
5.840796E+03	4.738658E-04	8.474409E-06
5.850746E+03	4.752574E-04	8.495660E-06
5.860697E+03	4.762039E-04	8.509023E-06
5.870647E+03	4.766131E-04	8.512869E-06
5.880597E+03	4.765034E-04	8.507543E-06
5.890547E+03	4.757813E-04	8.491393E-06
5.900498E+03	4.744686E-04	8.464825E-06
5.910448E+03	4.725412E-04	8.427428E-06
5.920398E+03	4.700892E-04	8.380823E-06
5.930348E+03	4.670931E-04	8.324679E-06
5.940299E+03	4.636748E-04	8.261179E-06
5.950249E+03	4.598438E-04	8.190505E-06
5.960199E+03	4.557133E-04	8.114682E-06
5.970149E+03	4.513417E-04	8.034755E-06
5.980100E+03	4.468816E-04	7.953450E-06
5.990050E+03	4.423954E-04	7.871879E-06
6.000000E+03	4.379445E-04	7.791137E-06
6.009950E+03	4.336457E-04	7.713303E-06
6.019900E+03	4.295798E-04	7.639817E-06
6.029851E+03	4.258211E-04	7.571998E-06
6.039801E+03	4.224362E-04	7.511033E-06
6.049751E+03	4.194839E-04	7.457969E-06
6.059701E+03	4.169874E-04	7.413217E-06
6.069652E+03	4.150182E-04	7.378054E-06
6.079602E+03	4.136402E-04	7.353619E-06
6.089552E+03	4.128268E-04	7.339445E-06
6.099502E+03	4.126280E-04	7.336430E-06
6.109453E+03	4.130593E-04	7.344858E-06
6.119403E+03	4.141292E-04	7.364896E-06
6.129353E+03	4.158113E-04	7.396085E-06
6.139303E+03	4.181549E-04	7.439321E-06
6.149254E+03	4.210888E-04	7.493358E-06
6.159204E+03	4.246160E-04	7.558272E-06
6.169154E+03	4.287295E-04	7.633960E-06
6.179104E+03	4.333232E-04	7.718564E-06
6.189055E+03	4.383634E-04	7.811506E-06
6.199005E+03	4.437727E-04	7.911425E-06
6.208955E+03	4.494579E-04	8.016669E-06
6.218905E+03	4.552796E-04	8.124756E-06
6.228856E+03	4.611761E-04	8.234590E-06
6.238806E+03	4.669551E-04	8.342738E-06
6.248756E+03	4.725468E-04	8.447948E-06
6.258706E+03	4.777615E-04	8.546819E-06
6.268657E+03	4.825144E-04	8.637815E-06
6.278607E+03	4.867423E-04	8.719785E-06
6.288557E+03	4.903038E-04	8.790166E-06
6.298507E+03	4.931819E-04	8.848623E-06
6.308458E+03	4.953530E-04	8.894695E-06
6.318408E+03	4.967863E-04	8.927789E-06
6.328358E+03	4.975739E-04	8.949518E-06
6.338308E+03	4.977273E-04	8.960054E-06
6.348259E+03	4.972724E-04	8.959817E-06
6.358209E+03	4.963476E-04	8.951267E-06
6.368159E+03	4.949598E-04	8.934492E-06
6.378109E+03	4.932520E-04	8.912040E-06
6.388060E+03	4.912285E-04	8.883961E-06
6.398010E+03	4.890218E-04	8.852624E-06
6.407960E+03	4.866209E-04	8.817813E-06
6.417910E+03	4.841051E-04	8.780940E-06
6.427861E+03	4.815108E-04	8.742653E-06
6.437811E+03	4.788634E-04	8.703396E-06
6.447761E+03	4.761794E-04	8.663456E-06
6.457711E+03	4.734683E-04	8.622994E-06
6.467662E+03	4.707320E-04	8.582036E-06
6.477612E+03	4.679688E-04	8.540540E-06
6.487562E+03	4.651405E-04	8.497796E-06
6.497512E+03	4.623023E-04	8.454805E-06
6.507463E+03	4.594125E-04	8.410793E-06
6.517413E+03	4.564283E-04	8.364966E-06
6.527363E+03	4.534002E-04	8.318240E-06
6.537313E+03	4.502843E-04	8.269795E-06
6.547264E+03	4.470368E-04	8.218820E-06
6.557214E+03	4.437061E-04	8.166190E-06
6.567164E+03	4.402177E-04	8.110524E-06
6.577114E+03	4.365894E-04	8.052134E-06
6.587065E+03	4.328382E-04	7.991324E-06
6.597015E+03	4.288928E-04	7.926764E-06
6.606965E+03	4.247732E-04	7.858809E-06
6.616915E+03	4.204717E-04	7.787306E-06
6.626866E+03	4.160125E-04	7.712687E-06
6.636816E+03	4.113372E-04	7.633861E-06
6.646766E+03	4.064793E-04	7.551433E-06
6.656716E+03	4.014488E-04	7.465578E-06
6.666667E+03	3.962618E-04	7.376588E-06
6.676617E+03	3.909415E-04	7.284881E-06
6.686567E+03	3.855174E-04	7.191005E-06
6.696517E+03	3.800259E-04	7.095631E-06
6.706468E+03	3.745093E-04	6.999547E-06
6.716418E+03	3.690149E-04	6.903638E-06
6.726368E+03	3.635691E-04	6.808401E-06
6.736318E+03	3.582772E-04	6.715813E-06
6.746269E+03	3.531695E-04	6.626456E-06
6.756219E+03	3.483028E-04	6.541405E-06
6.766169E+03	3.437328E-04	6.461722E-06
6.776119E+03	3.394898E-04	6.387999E-06
6.786070E+03	3.356730E-04	6.322119E-06
6.796020E+03	3.323063E-04	6.264563E-06
6.805970E+03	3.294111E-04	6.215756E-06
6.815920E+03	3.270731E-04	6.177347E-06
6.825871E+03	3.252813E-04	6.149159E-06
6.835821E+03	3.241108E-04	6.132644E-06
6.845771E+03	3.235397E-04	6.127420E-06
6.855721E+03	3.236304E-04	6.134708E-06
6.865672E+03	3.243474E-04	6.153867E-06
6.875622E+03	3.257377E-04	6.185827E-06
6.885572E+03	3.277481E-04	6.229614E-06
6.895522E+03	3.303836E-04	6.285360E-06
6.905473E+03	3.336384E-04	6.352990E-06
6.915423E+03	3.374248E-04	6.430866E-06
6.925373E+03	3.417118E-04	6.518430E-06
6.935323E+03	3.464322E-04	6.614430E-06
6.945274E+03	3.515062E-04	6.717371E-06
6.955224E+03	3.568678E-04	6.826012E-06
6.965174E+03	3.623664E-04	6.937493E-06
6.975124E+03	3.679198E-04	7.050251E-06
6.985075E+03	3.734181E-04	7.162193E-06
6.995025E+03	3.787537E-04	7.271256E-06
7.004975E+03	3.838256E-04	7.375501E-06
7.014925E+03	3.885452E-04	7.473219E-06
7.024876E+03	3.928401E-04	7.563010E-06
7.034826E+03	3.966309E-04	7.643326E-06
7.044776E+03	3.999450E-04	7.714683E-06
7.054726E+03	4.027509E-04	7.776453E-06
7.064677E+03	4.050687E-04	7.829009E-06
7.074627E+03	4.069116E-04	7.872591E-06
7.084577E+03	4.083983E-04	7.909477E-06
7.094527E+03	4.095747E-04	7.940550E-06
7.104478E+03	4.104951E-04	7.966855E-06
7.114428E+03	4.113039E-04	7.991196E-06
7.124378E+03	4.120261E-04	8.014059E-06
7.134328E+03	4.127656E-04	8.037476E-06
7.144279E+03	4.136135E-04	8.063235E-06
7.154229E+03	4.145550E-04	8.091069E-06
7.164179E+03	4.156435E-04	8.122042E-06
7.174129E+03	4.168809E-04	8.156209E-06
7.184080E+03	4.182459E-04	8.193184E-06
7.194030E+03	4.197256E-04	8.232734E-06
7.203980E+03	4.211657E-04	8.271856E-06
7.213930E+03	4.225759E-04	8.310748E-06
7.223881E+03	4.238320E-04	8.346982E-06
7.233831E+03	4.248324E-04	8.378557E-06
7.243781E+03	4.254739E-04	8.403427E-06
7.253731E+03	4.256578E-04	8.419625E-06
7.263682E+03	4.252659E-04	8.424782E-06
7.273632E+03	4.242886E-04	8.418669E-06
7.283582E+03	4.226155E-04	8.399047E-06
7.293532E+03	4.202528E-04	8.365984E-06
7.303483E+03	4.172327E-04	8.320058E-06
7.313433E+03	4.135226E-04	8.260556E-06
7.323383E+03	4.092050E-04	8.189061E-06
7.333333E+03	4.043526E-04	8.106964E-06
7.343284E+03	3.990539E-04	8.015982E-06
7.353234E+03	3.934084E-04	7.918060E-06
7.363184E+03	3.875206E-04	7.815260E-06
7.373134E+03	3.814951E-04	7.709659E-06
7.383085E+03	3.754052E-04	7.602716E-06
7.393035E+03	3.693987E-04	7.497411E-06
7.402985E+03	3.635301E-04	7.394852E-06
7.412935E+03	3.578435E-04	7.295949E-06
7.422886E+03	3.524232E-04	7.202439E-06
7.432836E+03	3.473140E-04	7.115266E-06
7.442786E+03	3.425731E-04	7.035641E-06
7.452736E+03	3.381706E-04	6.962996E-06
7.462687E+03	3.341419E-04	6.898108E-06
7.472637E+03	3.304626E-04	6.840525E-06
7.482587E+03	3.271731E-04	6.791134E-06
7.492537E+03	3.242319E-04	6.749137E-06
7.502488E+03	3.215918E-04	6.713606E-06
7.512438E+03	3.192711E-04	6.684972E-06
7.522388E+03	3.171884E-04	6.661585E-06
7.532338E+03	3.153306E-04	6.643210E-06
7.542289E+03	3.136603E-04	6.629082E-06
7.552239E+03	3.121415E-04	6.618462E-06
7.562189E+03	3.107423E-04	6.610684E-06
7.572139E+03	3.094366E-04	6.605202E-06
7.582090E+03	3.082052E-04	6.601611E-06
7.592040E+03	3.070135E-04	6.599167E-06
7.601990E+03	3.058788E-04	6.598242E-06
7.611940E+03	3.048230E-04	6.599309E-06
7.621891E+03	3.038019E-04	6.601409E-06
7.631841E+03	3.028391E-04	6.605058E-06
7.641791E+03	3.019334E-04	6.610226E-06
7.651741E+03	3.010791E-04	6.616789E-06
7.661692E+03	3.002431E-04	6.624022E-06
7.671642E+03	2.994549E-04	6.632570E-06
7.681592E+03	2.986497E-04	6.640992E-06
7.691542E+03	2.978496E-04	6.649762E-06
7.701493E+03	2.969851E-04	6.657318E-06
7.711443E+03	2.960543E-04	6.663585E-06
7.721393E+03	2.950349E-04	6.668029E-06
