#wls	flux	fluxerr
1.592040E+03	3.881151E-05	1.825443E-06
1.631841E+03	3.959773E-05	1.853631E-06
1.671642E+03	4.042583E-05	1.883217E-06
1.711443E+03	4.129812E-05	1.914264E-06
1.751244E+03	4.221715E-05	1.946841E-06
1.791045E+03	4.318550E-05	1.981015E-06
1.830846E+03	4.421360E-05	2.017209E-06
1.870647E+03	4.529725E-05	2.055166E-06
1.910448E+03	4.644755E-05	2.095323E-06
1.950249E+03	4.766044E-05	2.137425E-06
1.990050E+03	4.894763E-05	2.181919E-06
2.029851E+03	5.031335E-05	2.228907E-06
2.069652E+03	5.175341E-05	2.278112E-06
2.109453E+03	5.328025E-05	2.329987E-06
2.149254E+03	5.490693E-05	2.384993E-06
2.189055E+03	5.661976E-05	2.442419E-06
2.228856E+03	5.843097E-05	2.502677E-06
2.268657E+03	6.035284E-05	2.566163E-06
2.308458E+03	6.237815E-05	2.632428E-06
2.348259E+03	6.450740E-05	2.701356E-06
2.388060E+03	6.674976E-05	2.773181E-06
2.427861E+03	6.909197E-05	2.847202E-06
2.467662E+03	7.153881E-05	2.923465E-06
2.507463E+03	7.408172E-05	3.001466E-06
2.547264E+03	7.670822E-05	3.080554E-06
2.587065E+03	7.940136E-05	3.159913E-06
2.626866E+03	8.213912E-05	3.238549E-06
2.666667E+03	8.490643E-05	3.315773E-06
2.706468E+03	8.765843E-05	3.389762E-06
2.746269E+03	9.035666E-05	3.459012E-06
2.786070E+03	9.297112E-05	3.522399E-06
2.825871E+03	9.545621E-05	3.578267E-06
2.865672E+03	9.775195E-05	3.624506E-06
2.905473E+03	9.984103E-05	3.660677E-06
2.945274E+03	1.016594E-04	3.684683E-06
2.985075E+03	1.032095E-04	3.696931E-06
2.995025E+03	1.035602E-04	3.698377E-06
3.004975E+03	1.038760E-04	3.698465E-06
3.014925E+03	1.041842E-04	3.698178E-06
3.024876E+03	1.044852E-04	3.697529E-06
3.034826E+03	1.047521E-04	3.695577E-06
3.044776E+03	1.050128E-04	3.693312E-06
3.054726E+03	1.052544E-04	3.690281E-06
3.064677E+03	1.054777E-04	3.686519E-06
3.074627E+03	1.056971E-04	3.682537E-06
3.084577E+03	1.059002E-04	3.677902E-06
3.094527E+03	1.060882E-04	3.672666E-06
3.104478E+03	1.062625E-04	3.666877E-06
3.114428E+03	1.064380E-04	3.661054E-06
3.124378E+03	1.066029E-04	3.654791E-06
3.134328E+03	1.067722E-04	3.648607E-06
3.144279E+03	1.069211E-04	3.641658E-06
3.154229E+03	1.070785E-04	3.634924E-06
3.164179E+03	1.072329E-04	3.628022E-06
3.174129E+03	1.074000E-04	3.621479E-06
3.184080E+03	1.075689E-04	3.614923E-06
3.194030E+03	1.077421E-04	3.608437E-06
3.203980E+03	1.079221E-04	3.602108E-06
3.213930E+03	1.081248E-04	3.596460E-06
3.223881E+03	1.083399E-04	3.591141E-06
3.233831E+03	1.085701E-04	3.586243E-06
3.243781E+03	1.088316E-04	3.582286E-06
3.253731E+03	1.091142E-04	3.578932E-06
3.263682E+03	1.094210E-04	3.576272E-06
3.273632E+03	1.097681E-04	3.574823E-06
3.283582E+03	1.101458E-04	3.574255E-06
3.293532E+03	1.105572E-04	3.574660E-06
3.303483E+03	1.110057E-04	3.576131E-06
3.313433E+03	1.115073E-04	3.579177E-06
3.323383E+03	1.120526E-04	3.583470E-06
3.333333E+03	1.126576E-04	3.589513E-06
3.343284E+03	1.133000E-04	3.596570E-06
3.353234E+03	1.140089E-04	3.605550E-06
3.363184E+03	1.147877E-04	3.616539E-06
3.373134E+03	1.156136E-04	3.628798E-06
3.383085E+03	1.165161E-04	3.643229E-06
3.393035E+03	1.174987E-04	3.659912E-06
3.402985E+03	1.185381E-04	3.678100E-06
3.412935E+03	1.196641E-04	3.698693E-06
3.422886E+03	1.208666E-04	3.721348E-06
3.432836E+03	1.221623E-04	3.746550E-06
3.442786E+03	1.235410E-04	3.773952E-06
3.452736E+03	1.250057E-04	3.803620E-06
3.462687E+03	1.265595E-04	3.835614E-06
3.472637E+03	1.282195E-04	3.870416E-06
3.482587E+03	1.299749E-04	3.907668E-06
3.492537E+03	1.318289E-04	3.947429E-06
3.502488E+03	1.337988E-04	3.990182E-06
3.512438E+03	1.358738E-04	4.035561E-06
3.522388E+03	1.380571E-04	4.083621E-06
3.532338E+03	1.403667E-04	4.134857E-06
3.542289E+03	1.427913E-04	4.188895E-06
3.552239E+03	1.453345E-04	4.245791E-06
3.562189E+03	1.480152E-04	4.306055E-06
3.572139E+03	1.508062E-04	4.368854E-06
3.582090E+03	1.537425E-04	4.435154E-06
3.592040E+03	1.568287E-04	4.505033E-06
3.601990E+03	1.600367E-04	4.577639E-06
3.611940E+03	1.634033E-04	4.653971E-06
3.621891E+03	1.669335E-04	4.734119E-06
3.631841E+03	1.705982E-04	4.817202E-06
3.641791E+03	1.744359E-04	4.904255E-06
3.651741E+03	1.784344E-04	4.994872E-06
3.661692E+03	1.825981E-04	5.089121E-06
3.671642E+03	1.869499E-04	5.187580E-06
3.681592E+03	1.914763E-04	5.289808E-06
3.691542E+03	1.961812E-04	5.395856E-06
3.701493E+03	2.010685E-04	5.505763E-06
3.711443E+03	2.061612E-04	5.620099E-06
3.721393E+03	2.114429E-04	5.738342E-06
3.731343E+03	2.169153E-04	5.860477E-06
3.741294E+03	2.226007E-04	5.987038E-06
3.751244E+03	2.284565E-04	6.116814E-06
3.761194E+03	2.345244E-04	6.250859E-06
3.771144E+03	2.407799E-04	6.388450E-06
3.781095E+03	2.472412E-04	6.530010E-06
3.791045E+03	2.538555E-04	6.674082E-06
3.800995E+03	2.606606E-04	6.821606E-06
3.810945E+03	2.676215E-04	6.971615E-06
3.820896E+03	2.747493E-04	7.124347E-06
3.830846E+03	2.819769E-04	7.278018E-06
3.840796E+03	2.893354E-04	7.433407E-06
3.850746E+03	2.967769E-04	7.589248E-06
3.860697E+03	3.042755E-04	7.744868E-06
3.870647E+03	3.118030E-04	7.899544E-06
3.880597E+03	3.193576E-04	8.053231E-06
3.890547E+03	3.268497E-04	8.203689E-06
3.900498E+03	3.343033E-04	8.351549E-06
3.910448E+03	3.416544E-04	8.495255E-06
3.920398E+03	3.488985E-04	8.634742E-06
3.930348E+03	3.559395E-04	8.767698E-06
3.940299E+03	3.627729E-04	8.894103E-06
3.950249E+03	3.693979E-04	9.014023E-06
3.960199E+03	3.757519E-04	9.126028E-06
3.970149E+03	3.818056E-04	9.229524E-06
3.980100E+03	3.875329E-04	9.323998E-06
3.990050E+03	3.929106E-04	9.409030E-06
4.000000E+03	3.979195E-04	9.484294E-06
4.009950E+03	4.025785E-04	9.550385E-06
4.019900E+03	4.068096E-04	9.605592E-06
4.029851E+03	4.106756E-04	9.651554E-06
4.039801E+03	4.141080E-04	9.686805E-06
4.049751E+03	4.171808E-04	9.713231E-06
4.059701E+03	4.198700E-04	9.730409E-06
4.069652E+03	4.221904E-04	9.738822E-06
4.079602E+03	4.241610E-04	9.739039E-06
4.089552E+03	4.258038E-04	9.731690E-06
4.099502E+03	4.271430E-04	9.717447E-06
4.109453E+03	4.282044E-04	9.697003E-06
4.119403E+03	4.290143E-04	9.671052E-06
4.129353E+03	4.295990E-04	9.640278E-06
4.139303E+03	4.299847E-04	9.605343E-06
4.149254E+03	4.302304E-04	9.567637E-06
4.159204E+03	4.302919E-04	9.526235E-06
4.169154E+03	4.302265E-04	9.482467E-06
4.179104E+03	4.300562E-04	9.436865E-06
4.189055E+03	4.298020E-04	9.389929E-06
4.199005E+03	4.294839E-04	9.342130E-06
4.208955E+03	4.291208E-04	9.293906E-06
4.218905E+03	4.287309E-04	9.245675E-06
4.228856E+03	4.283316E-04	9.197829E-06
4.238806E+03	4.279396E-04	9.150736E-06
4.248756E+03	4.275384E-04	9.104056E-06
4.258706E+03	4.272088E-04	9.059516E-06
4.268657E+03	4.269331E-04	9.016733E-06
4.278607E+03	4.266937E-04	8.975332E-06
4.288557E+03	4.265369E-04	8.936290E-06
4.298507E+03	4.265083E-04	8.900547E-06
4.308458E+03	4.265574E-04	8.867033E-06
4.318408E+03	4.267293E-04	8.836675E-06
4.328358E+03	4.270048E-04	8.809063E-06
4.338308E+03	4.274590E-04	8.785730E-06
4.348259E+03	4.280716E-04	8.766229E-06
4.358209E+03	4.288206E-04	8.750094E-06
4.368159E+03	4.297437E-04	8.738076E-06
4.378109E+03	4.308422E-04	8.730180E-06
4.388060E+03	4.321124E-04	8.726310E-06
4.398010E+03	4.335467E-04	8.726299E-06
4.407960E+03	4.351046E-04	8.729313E-06
4.417910E+03	4.368055E-04	8.735725E-06
4.427861E+03	4.386365E-04	8.745241E-06
4.437811E+03	4.405830E-04	8.757542E-06
4.447761E+03	4.425975E-04	8.771666E-06
4.457711E+03	4.447254E-04	8.788490E-06
4.467662E+03	4.468856E-04	8.806394E-06
4.477612E+03	4.490584E-04	8.824980E-06
4.487562E+03	4.512859E-04	8.845066E-06
4.497512E+03	4.534839E-04	8.864994E-06
4.507463E+03	4.556616E-04	8.884940E-06
4.517413E+03	4.577648E-04	8.903848E-06
4.527363E+03	4.598326E-04	8.922481E-06
4.537313E+03	4.617797E-04	8.939185E-06
4.547264E+03	4.636146E-04	8.954134E-06
4.557214E+03	4.652833E-04	8.966291E-06
4.567164E+03	4.667978E-04	8.975902E-06
4.577114E+03	4.681401E-04	8.982630E-06
4.587065E+03	4.692633E-04	8.985586E-06
4.597015E+03	4.702179E-04	8.985751E-06
4.606965E+03	4.709007E-04	8.981161E-06
4.616915E+03	4.714017E-04	8.973546E-06
4.626866E+03	4.716558E-04	8.961680E-06
4.636816E+03	4.716969E-04	8.946212E-06
4.646766E+03	4.714989E-04	8.926658E-06
4.656716E+03	4.711034E-04	8.903810E-06
4.666667E+03	4.704908E-04	8.877304E-06
4.676617E+03	4.697399E-04	8.848627E-06
4.686567E+03	4.688069E-04	8.816952E-06
4.696517E+03	4.677150E-04	8.782715E-06
4.706468E+03	4.665189E-04	8.746936E-06
4.716418E+03	4.652464E-04	8.710131E-06
4.726368E+03	4.638984E-04	8.672306E-06
4.736318E+03	4.625376E-04	8.634618E-06
4.746269E+03	4.611702E-04	8.597172E-06
4.756219E+03	4.598649E-04	8.561228E-06
4.766169E+03	4.586613E-04	8.527506E-06
4.776119E+03	4.575726E-04	8.496228E-06
4.786070E+03	4.566718E-04	8.468722E-06
4.796020E+03	4.559732E-04	8.445229E-06
4.805970E+03	4.555484E-04	8.427048E-06
4.815920E+03	4.554374E-04	8.414885E-06
4.825871E+03	4.556473E-04	8.408839E-06
4.835821E+03	4.562370E-04	8.409966E-06
4.845771E+03	4.572011E-04	8.418131E-06
4.855721E+03	4.585837E-04	8.434110E-06
4.865672E+03	4.603624E-04	8.457460E-06
4.875622E+03	4.625639E-04	8.488636E-06
4.885572E+03	4.651475E-04	8.526860E-06
4.895522E+03	4.681228E-04	8.572279E-06
4.905473E+03	4.714598E-04	8.624313E-06
4.915423E+03	4.750934E-04	8.681745E-06
4.925373E+03	4.790072E-04	8.744252E-06
4.935323E+03	4.831189E-04	8.810312E-06
4.945274E+03	4.873702E-04	8.878845E-06
4.955224E+03	4.917570E-04	8.949764E-06
4.965174E+03	4.961540E-04	9.020778E-06
4.975124E+03	5.004948E-04	9.090673E-06
4.985075E+03	5.047468E-04	9.158856E-06
4.995025E+03	5.088228E-04	9.223747E-06
5.004975E+03	5.127061E-04	9.285044E-06
5.014925E+03	5.163605E-04	9.342101E-06
5.024876E+03	5.197309E-04	9.393927E-06
5.034826E+03	5.228370E-04	9.440888E-06
5.044776E+03	5.256483E-04	9.482442E-06
5.054726E+03	5.282044E-04	9.519317E-06
5.064677E+03	5.304908E-04	9.551257E-06
5.074627E+03	5.325579E-04	9.579181E-06
5.084577E+03	5.343943E-04	9.602890E-06
5.094527E+03	5.360492E-04	9.623278E-06
5.104478E+03	5.375052E-04	9.640038E-06
5.114428E+03	5.388054E-04	9.653950E-06
5.124378E+03	5.399544E-04	9.665103E-06
5.134328E+03	5.409217E-04	9.672955E-06
5.144279E+03	5.417369E-04	9.678046E-06
5.154229E+03	5.423626E-04	9.679712E-06
5.164179E+03	5.428233E-04	9.678402E-06
5.174129E+03	5.430787E-04	9.673404E-06
5.184080E+03	5.431539E-04	9.665175E-06
5.194030E+03	5.430098E-04	9.653031E-06
5.203980E+03	5.426739E-04	9.637473E-06
5.213930E+03	5.421456E-04	9.618498E-06
5.223881E+03	5.413956E-04	9.595602E-06
5.233831E+03	5.404322E-04	9.568944E-06
5.243781E+03	5.393325E-04	9.539901E-06
5.253731E+03	5.380509E-04	9.507677E-06
5.263682E+03	5.366108E-04	9.472695E-06
5.273632E+03	5.350705E-04	9.435999E-06
5.283582E+03	5.334282E-04	9.397561E-06
5.293532E+03	5.317789E-04	9.359066E-06
5.303483E+03	5.300607E-04	9.319427E-06
5.313433E+03	5.283692E-04	9.280333E-06
5.323383E+03	5.267351E-04	9.242323E-06
5.333333E+03	5.251874E-04	9.205908E-06
5.343284E+03	5.237219E-04	9.171016E-06
5.353234E+03	5.223609E-04	9.138034E-06
5.363184E+03	5.211837E-04	9.108351E-06
5.373134E+03	5.201115E-04	9.080586E-06
5.383085E+03	5.192422E-04	9.056446E-06
5.393035E+03	5.185171E-04	9.034906E-06
5.402985E+03	5.179604E-04	9.016381E-06
5.412935E+03	5.175297E-04	9.000137E-06
5.422886E+03	5.172370E-04	8.986379E-06
5.432836E+03	5.170272E-04	8.974153E-06
5.442786E+03	5.168976E-04	8.963414E-06
5.452736E+03	5.168125E-04	8.953546E-06
5.462687E+03	5.166975E-04	8.943266E-06
5.472637E+03	5.165341E-04	8.932253E-06
5.482587E+03	5.162701E-04	8.919602E-06
5.492537E+03	5.158215E-04	8.903864E-06
5.502488E+03	5.151694E-04	8.884716E-06
5.512438E+03	5.142424E-04	8.860933E-06
5.522388E+03	5.130696E-04	8.833024E-06
5.532338E+03	5.115452E-04	8.799177E-06
5.542289E+03	5.097572E-04	8.760915E-06
5.552239E+03	5.076592E-04	8.717450E-06
5.562189E+03	5.053100E-04	8.669799E-06
5.572139E+03	5.027213E-04	8.618171E-06
5.582090E+03	4.999744E-04	8.563967E-06
5.592040E+03	4.971275E-04	8.508184E-06
5.601990E+03	4.942153E-04	8.451418E-06
5.611940E+03	4.913312E-04	8.395267E-06
5.621891E+03	4.885386E-04	8.340807E-06
5.631841E+03	4.858998E-04	8.289097E-06
5.641791E+03	4.834464E-04	8.240668E-06
5.651741E+03	4.812622E-04	8.196936E-06
5.661692E+03	4.793732E-04	8.158334E-06
5.671642E+03	4.778584E-04	8.126193E-06
5.681592E+03	4.767637E-04	8.101277E-06
5.691542E+03	4.761337E-04	8.084327E-06
5.701493E+03	4.759798E-04	8.075520E-06
5.711443E+03	4.763608E-04	8.075834E-06
5.721393E+03	4.773000E-04	8.085644E-06
5.731343E+03	4.787818E-04	8.104667E-06
5.741294E+03	4.808597E-04	8.133792E-06
5.751244E+03	4.834323E-04	8.171282E-06
5.761194E+03	4.865458E-04	8.217905E-06
5.771144E+03	4.900883E-04	8.271755E-06
5.781095E+03	4.940389E-04	8.332470E-06
5.791045E+03	4.982151E-04	8.396963E-06
5.800995E+03	5.025852E-04	8.464697E-06
5.810945E+03	5.069594E-04	8.532478E-06
5.820896E+03	5.112226E-04	8.598379E-06
5.830846E+03	5.152235E-04	8.659863E-06
5.840796E+03	5.188114E-04	8.714418E-06
5.850746E+03	5.218113E-04	8.759127E-06
5.860697E+03	5.241207E-04	8.792298E-06
5.870647E+03	5.256285E-04	8.812097E-06
5.880597E+03	5.262470E-04	8.817088E-06
5.890547E+03	5.258896E-04	8.805855E-06
5.900498E+03	5.245921E-04	8.779036E-06
5.910448E+03	5.223046E-04	8.735825E-06
5.920398E+03	5.190714E-04	8.677000E-06
5.930348E+03	5.150270E-04	8.604837E-06
5.940299E+03	5.102141E-04	8.520074E-06
5.950249E+03	5.047863E-04	8.425302E-06
5.960199E+03	4.988826E-04	8.322854E-06
5.970149E+03	4.926515E-04	8.215220E-06
5.980100E+03	4.862429E-04	8.104910E-06
5.990050E+03	4.797777E-04	7.993941E-06
6.000000E+03	4.734233E-04	7.885103E-06
6.009950E+03	4.673098E-04	7.780561E-06
6.019900E+03	4.615530E-04	7.682240E-06
6.029851E+03	4.562552E-04	7.591835E-06
6.039801E+03	4.514784E-04	7.510375E-06
6.049751E+03	4.473240E-04	7.439539E-06
6.059701E+03	4.438803E-04	7.380791E-06
6.069652E+03	4.411222E-04	7.333711E-06
6.079602E+03	4.391697E-04	7.300292E-06
6.089552E+03	4.380320E-04	7.280687E-06
6.099502E+03	4.377120E-04	7.274948E-06
6.109453E+03	4.382823E-04	7.284287E-06
6.119403E+03	4.397080E-04	7.308135E-06
6.129353E+03	4.420235E-04	7.347077E-06
6.139303E+03	4.452306E-04	7.401160E-06
6.149254E+03	4.493220E-04	7.470282E-06
6.159204E+03	4.542531E-04	7.553728E-06
6.169154E+03	4.600444E-04	7.651869E-06
6.179104E+03	4.665945E-04	7.763050E-06
6.189055E+03	4.738601E-04	7.886587E-06
6.199005E+03	4.817726E-04	8.021362E-06
6.208955E+03	4.901432E-04	8.164247E-06
6.218905E+03	4.987938E-04	8.312292E-06
6.228856E+03	5.075626E-04	8.462808E-06
6.238806E+03	5.161757E-04	8.611237E-06
6.248756E+03	5.243490E-04	8.752834E-06
6.258706E+03	5.319044E-04	8.884612E-06
6.268657E+03	5.385697E-04	9.002000E-06
6.278607E+03	5.442097E-04	9.102706E-06
6.288557E+03	5.487402E-04	9.185279E-06
6.298507E+03	5.520389E-04	9.247619E-06
6.308458E+03	5.541327E-04	9.290123E-06
6.318408E+03	5.550380E-04	9.313004E-06
6.328358E+03	5.549100E-04	9.318807E-06
6.338308E+03	5.538414E-04	9.309028E-06
6.348259E+03	5.519462E-04	9.285533E-06
6.358209E+03	5.494468E-04	9.252009E-06
6.368159E+03	5.464345E-04	9.209951E-06
6.378109E+03	5.431201E-04	9.162877E-06
6.388060E+03	5.395694E-04	9.111864E-06
6.398010E+03	5.359216E-04	9.059241E-06
6.407960E+03	5.322585E-04	9.006369E-06
6.417910E+03	5.286704E-04	8.954763E-06
6.427861E+03	5.251288E-04	8.903932E-06
6.437811E+03	5.216810E-04	8.854665E-06
6.447761E+03	5.182962E-04	8.806432E-06
6.457711E+03	5.150229E-04	8.760049E-06
6.467662E+03	5.118125E-04	8.714684E-06
6.477612E+03	5.086424E-04	8.669942E-06
6.487562E+03	5.054891E-04	8.625416E-06
6.497512E+03	5.023012E-04	8.580217E-06
6.507463E+03	4.991173E-04	8.534998E-06
6.517413E+03	4.958595E-04	8.488412E-06
6.527363E+03	4.925693E-04	8.441160E-06
6.537313E+03	4.891707E-04	8.391929E-06
6.547264E+03	4.857052E-04	8.341420E-06
6.557214E+03	4.820966E-04	8.288309E-06
6.567164E+03	4.783543E-04	8.232747E-06
6.577114E+03	4.744875E-04	8.174880E-06
6.587065E+03	4.704164E-04	8.113317E-06
6.597015E+03	4.661484E-04	8.048170E-06
6.606965E+03	4.616866E-04	7.979482E-06
6.616915E+03	4.569547E-04	7.905917E-06
6.626866E+03	4.519607E-04	7.827594E-06
6.636816E+03	4.466889E-04	7.744229E-06
6.646766E+03	4.411306E-04	7.655650E-06
6.656716E+03	4.352851E-04	7.561833E-06
6.666667E+03	4.291624E-04	7.462934E-06
6.676617E+03	4.227843E-04	7.359320E-06
6.686567E+03	4.161853E-04	7.251578E-06
6.696517E+03	4.094123E-04	7.140516E-06
6.706468E+03	4.025238E-04	7.027149E-06
6.716418E+03	3.955882E-04	6.912667E-06
6.726368E+03	3.886815E-04	6.798403E-06
6.736318E+03	3.818851E-04	6.685783E-06
6.746269E+03	3.752829E-04	6.576286E-06
6.756219E+03	3.689591E-04	6.471404E-06
6.766169E+03	3.629741E-04	6.372212E-06
6.776119E+03	3.574511E-04	6.280896E-06
6.786070E+03	3.524422E-04	6.198399E-06
6.796020E+03	3.480167E-04	6.125965E-06
6.805970E+03	3.442174E-04	6.064382E-06
6.815920E+03	3.411446E-04	6.015448E-06
6.825871E+03	3.388298E-04	5.979758E-06
6.835821E+03	3.373204E-04	5.958185E-06
6.845771E+03	3.366371E-04	5.951137E-06
6.855721E+03	3.368557E-04	5.959994E-06
6.865672E+03	3.379830E-04	5.984918E-06
6.875622E+03	3.400162E-04	6.025905E-06
6.885572E+03	3.430032E-04	6.083847E-06
6.895522E+03	3.468948E-04	6.157917E-06
6.905473E+03	3.517090E-04	6.248478E-06
6.915423E+03	3.573593E-04	6.354036E-06
6.925373E+03	3.638223E-04	6.474213E-06
6.935323E+03	3.709619E-04	6.606632E-06
6.945274E+03	3.787050E-04	6.750020E-06
6.955224E+03	3.868610E-04	6.901014E-06
6.965174E+03	3.953083E-04	7.057467E-06
6.975124E+03	4.038112E-04	7.215189E-06
6.985075E+03	4.121935E-04	7.371041E-06
6.995025E+03	4.202786E-04	7.521871E-06
7.004975E+03	4.278222E-04	7.663298E-06
7.014925E+03	4.346772E-04	7.792673E-06
7.024876E+03	4.407311E-04	7.907960E-06
7.034826E+03	4.458325E-04	8.006417E-06
7.044776E+03	4.499601E-04	8.087630E-06
7.054726E+03	4.531183E-04	8.151646E-06
7.064677E+03	4.553635E-04	8.199450E-06
7.074627E+03	4.567985E-04	8.232859E-06
7.084577E+03	4.575649E-04	8.254405E-06
7.094527E+03	4.578343E-04	8.267164E-06
7.104478E+03	4.577925E-04	8.274482E-06
7.114428E+03	4.576321E-04	8.279839E-06
7.124378E+03	4.575068E-04	8.286027E-06
7.134328E+03	4.576390E-04	8.297094E-06
7.144279E+03	4.581360E-04	8.315016E-06
7.154229E+03	4.590977E-04	8.341643E-06
7.164179E+03	4.605534E-04	8.377554E-06
7.174129E+03	4.625732E-04	8.424071E-06
7.184080E+03	4.650649E-04	8.479569E-06
7.194030E+03	4.679745E-04	8.543114E-06
7.203980E+03	4.712073E-04	8.613023E-06
7.213930E+03	4.745401E-04	8.685258E-06
7.223881E+03	4.778086E-04	8.756839E-06
7.233831E+03	4.807989E-04	8.823859E-06
7.243781E+03	4.832899E-04	8.882258E-06
7.253731E+03	4.850689E-04	8.928105E-06
7.263682E+03	4.859431E-04	8.957812E-06
7.273632E+03	4.857563E-04	8.968437E-06
7.283582E+03	4.843990E-04	8.957883E-06
7.293532E+03	4.817852E-04	8.924465E-06
7.303483E+03	4.779791E-04	8.869266E-06
7.313433E+03	4.729796E-04	8.792157E-06
7.323383E+03	4.669566E-04	8.696186E-06
7.333333E+03	4.600022E-04	8.582963E-06
7.343284E+03	4.523256E-04	8.456294E-06
7.353234E+03	4.441245E-04	8.319790E-06
7.363184E+03	4.355980E-04	8.177117E-06
7.373134E+03	4.269382E-04	8.031833E-06
7.383085E+03	4.182939E-04	7.886711E-06
7.393035E+03	4.098714E-04	7.745630E-06
7.402985E+03	4.017700E-04	7.610478E-06
7.412935E+03	3.940639E-04	7.482691E-06
7.422886E+03	3.868532E-04	7.364207E-06
7.432836E+03	3.801886E-04	7.256047E-06
7.442786E+03	3.741011E-04	7.158868E-06
7.452736E+03	3.686051E-04	7.073019E-06
7.462687E+03	3.637010E-04	6.998586E-06
7.472637E+03	3.593774E-04	6.935434E-06
7.482587E+03	3.555894E-04	6.882781E-06
7.492537E+03	3.523509E-04	6.840984E-06
7.502488E+03	3.495745E-04	6.808432E-06
7.512438E+03	3.472313E-04	6.784643E-06
7.522388E+03	3.452598E-04	6.768483E-06
7.532338E+03	3.435890E-04	6.758613E-06
7.542289E+03	3.421405E-04	6.753524E-06
7.552239E+03	3.408104E-04	6.751187E-06
7.562189E+03	3.395651E-04	6.750943E-06
7.572139E+03	3.382990E-04	6.750685E-06
7.582090E+03	3.370011E-04	6.750173E-06
7.592040E+03	3.356734E-04	6.749422E-06
7.601990E+03	3.343452E-04	6.749000E-06
7.611940E+03	3.330371E-04	6.749308E-06
7.621891E+03	3.318337E-04	6.752056E-06
7.631841E+03	3.307232E-04	6.757011E-06
7.641791E+03	3.297435E-04	6.764961E-06
7.651741E+03	3.288944E-04	6.775919E-06
7.661692E+03	3.281590E-04	6.789555E-06
7.671642E+03	3.275054E-04	6.805224E-06
7.681592E+03	3.268684E-04	6.821572E-06
7.691542E+03	3.262389E-04	6.838400E-06
7.701493E+03	3.255179E-04	6.853614E-06
7.711443E+03	3.246715E-04	6.866459E-06
7.721393E+03	3.236494E-04	6.875818E-06
