#wls	flux	fluxerr
1.592040E+03	2.551058E-05	6.094353E-07
1.631841E+03	2.594712E-05	6.185652E-07
1.671642E+03	2.641229E-05	6.283018E-07
1.711443E+03	2.689324E-05	6.383336E-07
1.751244E+03	2.740019E-05	6.488980E-07
1.791045E+03	2.792938E-05	6.598996E-07
1.830846E+03	2.848665E-05	6.714699E-07
1.870647E+03	2.906805E-05	6.835090E-07
1.910448E+03	2.967959E-05	6.961509E-07
1.950249E+03	3.031706E-05	7.092895E-07
1.990050E+03	3.098655E-05	7.230588E-07
2.029851E+03	3.168352E-05	7.373445E-07
2.069652E+03	3.240845E-05	7.521493E-07
2.109453E+03	3.317302E-05	7.677354E-07
2.149254E+03	3.396061E-05	7.837077E-07
2.189055E+03	3.478851E-05	8.004557E-07
2.228856E+03	3.563880E-05	8.175570E-07
2.268657E+03	3.652888E-05	8.354007E-07
2.308458E+03	3.744563E-05	8.536756E-07
2.348259E+03	3.838738E-05	8.723340E-07
2.388060E+03	3.936518E-05	8.916166E-07
2.427861E+03	4.035689E-05	9.110114E-07
2.467662E+03	4.137960E-05	9.308955E-07
2.507463E+03	4.241634E-05	9.508769E-07
2.547264E+03	4.347015E-05	9.710165E-07
2.587065E+03	4.452965E-05	9.910522E-07
2.626866E+03	4.559769E-05	1.011042E-06
2.666667E+03	4.667017E-05	1.030889E-06
2.706468E+03	4.773558E-05	1.050336E-06
2.746269E+03	4.879849E-05	1.069480E-06
2.786070E+03	4.985737E-05	1.088286E-06
2.825871E+03	5.090421E-05	1.106577E-06
2.865672E+03	5.194980E-05	1.124587E-06
2.905473E+03	5.299167E-05	1.142261E-06
2.945274E+03	5.405662E-05	1.160172E-06
2.985075E+03	5.514211E-05	1.178259E-06
2.995025E+03	5.541887E-05	1.182853E-06
3.004975E+03	5.569844E-05	1.187490E-06
3.014925E+03	5.598124E-05	1.192179E-06
3.024876E+03	5.626767E-05	1.196928E-06
3.034826E+03	5.655815E-05	1.201745E-06
3.044776E+03	5.686209E-05	1.206829E-06
3.054726E+03	5.716209E-05	1.211812E-06
3.064677E+03	5.746757E-05	1.216893E-06
3.074627E+03	5.778821E-05	1.222275E-06
3.084577E+03	5.810634E-05	1.227585E-06
3.094527E+03	5.844083E-05	1.233221E-06
3.104478E+03	5.877399E-05	1.238808E-06
3.114428E+03	5.912475E-05	1.244747E-06
3.124378E+03	5.947543E-05	1.250662E-06
3.134328E+03	5.984518E-05	1.256957E-06
3.144279E+03	6.022551E-05	1.263452E-06
3.154229E+03	6.060768E-05	1.269964E-06
3.164179E+03	6.101136E-05	1.276903E-06
3.174129E+03	6.142786E-05	1.284086E-06
3.184080E+03	6.185811E-05	1.291532E-06
3.194030E+03	6.229325E-05	1.299055E-06
3.203980E+03	6.275338E-05	1.307073E-06
3.213930E+03	6.322987E-05	1.315405E-06
3.223881E+03	6.372361E-05	1.324068E-06
3.233831E+03	6.423550E-05	1.333080E-06
3.243781E+03	6.476661E-05	1.342461E-06
3.253731E+03	6.531791E-05	1.352230E-06
3.263682E+03	6.589039E-05	1.362405E-06
3.273632E+03	6.648517E-05	1.373009E-06
3.283582E+03	6.711351E-05	1.384272E-06
3.293532E+03	6.775610E-05	1.395793E-06
3.303483E+03	6.842426E-05	1.407805E-06
3.313433E+03	6.911908E-05	1.420327E-06
3.323383E+03	6.985238E-05	1.433600E-06
3.333333E+03	7.060417E-05	1.447212E-06
3.343284E+03	7.138612E-05	1.461400E-06
3.353234E+03	7.221050E-05	1.476413E-06
3.363184E+03	7.305668E-05	1.491825E-06
3.373134E+03	7.393676E-05	1.507883E-06
3.383085E+03	7.486331E-05	1.524839E-06
3.393035E+03	7.581507E-05	1.542258E-06
3.402985E+03	7.681611E-05	1.560626E-06
3.412935E+03	7.785638E-05	1.579736E-06
3.422886E+03	7.892531E-05	1.599371E-06
3.432836E+03	8.004776E-05	1.620031E-06
3.442786E+03	8.120112E-05	1.641256E-06
3.452736E+03	8.241091E-05	1.663558E-06
3.462687E+03	8.366627E-05	1.686714E-06
3.472637E+03	8.496854E-05	1.710747E-06
3.482587E+03	8.630605E-05	1.735419E-06
3.492537E+03	8.770550E-05	1.761264E-06
3.502488E+03	8.915546E-05	1.788047E-06
3.512438E+03	9.065698E-05	1.815787E-06
3.522388E+03	9.221112E-05	1.844499E-06
3.532338E+03	9.380506E-05	1.873924E-06
3.542289E+03	9.546730E-05	1.904628E-06
3.552239E+03	9.718502E-05	1.936350E-06
3.562189E+03	9.895909E-05	1.969103E-06
3.572139E+03	1.007901E-04	2.002894E-06
3.582090E+03	1.026788E-04	2.037734E-06
3.592040E+03	1.046255E-04	2.073627E-06
3.601990E+03	1.066307E-04	2.110575E-06
3.611940E+03	1.086946E-04	2.148579E-06
3.621891E+03	1.108173E-04	2.187636E-06
3.631841E+03	1.129985E-04	2.227739E-06
3.641791E+03	1.152382E-04	2.268880E-06
3.651741E+03	1.175358E-04	2.311044E-06
3.661692E+03	1.199080E-04	2.354557E-06
3.671642E+03	1.223195E-04	2.398716E-06
3.681592E+03	1.247861E-04	2.443834E-06
3.691542E+03	1.273065E-04	2.489879E-06
3.701493E+03	1.298791E-04	2.536815E-06
3.711443E+03	1.325020E-04	2.584603E-06
3.721393E+03	1.351925E-04	2.633576E-06
3.731343E+03	1.379093E-04	2.682927E-06
3.741294E+03	1.406689E-04	2.732974E-06
3.751244E+03	1.434683E-04	2.783655E-06
3.761194E+03	1.463251E-04	2.835311E-06
3.771144E+03	1.491938E-04	2.887057E-06
3.781095E+03	1.520913E-04	2.939218E-06
3.791045E+03	1.550130E-04	2.991709E-06
3.800995E+03	1.579774E-04	3.044878E-06
3.810945E+03	1.609345E-04	3.097765E-06
3.820896E+03	1.639016E-04	3.150705E-06
3.830846E+03	1.668734E-04	3.203593E-06
3.840796E+03	1.698686E-04	3.256790E-06
3.850746E+03	1.728335E-04	3.309269E-06
3.860697E+03	1.757862E-04	3.361377E-06
3.870647E+03	1.787462E-04	3.413487E-06
3.880597E+03	1.816571E-04	3.464528E-06
3.890547E+03	1.845379E-04	3.514865E-06
3.900498E+03	1.874093E-04	3.564894E-06
3.910448E+03	1.902126E-04	3.613504E-06
3.920398E+03	1.929684E-04	3.661091E-06
3.930348E+03	1.956710E-04	3.707552E-06
3.940299E+03	1.983429E-04	3.753320E-06
3.950249E+03	2.009237E-04	3.797253E-06
3.960199E+03	2.034360E-04	3.839792E-06
3.970149E+03	2.059044E-04	3.881401E-06
3.980100E+03	2.082674E-04	3.920929E-06
3.990050E+03	2.105500E-04	3.958855E-06
4.000000E+03	2.127490E-04	3.995127E-06
4.009950E+03	2.148917E-04	4.030265E-06
4.019900E+03	2.169163E-04	4.063118E-06
4.029851E+03	2.188511E-04	4.094220E-06
4.039801E+03	2.206948E-04	4.123560E-06
4.049751E+03	2.224780E-04	4.151714E-06
4.059701E+03	2.241392E-04	4.177542E-06
4.069652E+03	2.257095E-04	4.201635E-06
4.079602E+03	2.271902E-04	4.224023E-06
4.089552E+03	2.285830E-04	4.244744E-06
4.099502E+03	2.298901E-04	4.263848E-06
4.109453E+03	2.311459E-04	4.281980E-06
4.119403E+03	2.322900E-04	4.298028E-06
4.129353E+03	2.333578E-04	4.312652E-06
4.139303E+03	2.343532E-04	4.325932E-06
4.149254E+03	2.352805E-04	4.337955E-06
4.159204E+03	2.361444E-04	4.348810E-06
4.169154E+03	2.369498E-04	4.358595E-06
4.179104E+03	2.377019E-04	4.367411E-06
4.189055E+03	2.384060E-04	4.375359E-06
4.199005E+03	2.390679E-04	4.382550E-06
4.208955E+03	2.396931E-04	4.389088E-06
4.218905E+03	2.402875E-04	4.395086E-06
4.228856E+03	2.408571E-04	4.400654E-06
4.238806E+03	2.413748E-04	4.405304E-06
4.248756E+03	2.419121E-04	4.410342E-06
4.258706E+03	2.424421E-04	4.415277E-06
4.268657E+03	2.429705E-04	4.420217E-06
4.278607E+03	2.435030E-04	4.425267E-06
4.288557E+03	2.440122E-04	4.429929E-06
4.298507E+03	2.445691E-04	4.435493E-06
4.308458E+03	2.451460E-04	4.441456E-06
4.318408E+03	2.457146E-04	4.447308E-06
4.328358E+03	2.463452E-04	4.454323E-06
4.338308E+03	2.469761E-04	4.461380E-06
4.348259E+03	2.476768E-04	4.469739E-06
4.358209E+03	2.483843E-04	4.478259E-06
4.368159E+03	2.491671E-04	4.488179E-06
4.378109E+03	2.499604E-04	4.498326E-06
4.388060E+03	2.508313E-04	4.509910E-06
4.398010E+03	2.517129E-04	4.521727E-06
4.407960E+03	2.526377E-04	4.534363E-06
4.417910E+03	2.536383E-04	4.548400E-06
4.427861E+03	2.546458E-04	4.562603E-06
4.437811E+03	2.556918E-04	4.577538E-06
4.447761E+03	2.567742E-04	4.593165E-06
4.457711E+03	2.578906E-04	4.609438E-06
4.467662E+03	2.590383E-04	4.626310E-06
4.477612E+03	2.602487E-04	4.644340E-06
4.487562E+03	2.614507E-04	4.662254E-06
4.497512E+03	2.626753E-04	4.680610E-06
4.507463E+03	2.638848E-04	4.698734E-06
4.517413E+03	2.651457E-04	4.717808E-06
4.527363E+03	2.664202E-04	4.737161E-06
4.537313E+03	2.677057E-04	4.756743E-06
4.547264E+03	2.689991E-04	4.776502E-06
4.557214E+03	2.702625E-04	4.795764E-06
4.567164E+03	2.715639E-04	4.815735E-06
4.577114E+03	2.728658E-04	4.835750E-06
4.587065E+03	2.741302E-04	4.855137E-06
4.597015E+03	2.754266E-04	4.875125E-06
4.606965E+03	2.766816E-04	4.894417E-06
4.616915E+03	2.779656E-04	4.914258E-06
4.626866E+03	2.792052E-04	4.933350E-06
4.636816E+03	2.804356E-04	4.952314E-06
4.646766E+03	2.816558E-04	4.971138E-06
4.656716E+03	2.829021E-04	4.990457E-06
4.666667E+03	2.841012E-04	5.008979E-06
4.676617E+03	2.852894E-04	5.027347E-06
4.686567E+03	2.864670E-04	5.045566E-06
4.696517E+03	2.876344E-04	5.063642E-06
4.706468E+03	2.887921E-04	5.081585E-06
4.716418E+03	2.899409E-04	5.099408E-06
4.726368E+03	2.910816E-04	5.117124E-06
4.736318E+03	2.922150E-04	5.134751E-06
4.746269E+03	2.933043E-04	5.151640E-06
4.756219E+03	2.944259E-04	5.169134E-06
4.766169E+03	2.955431E-04	5.186585E-06
4.776119E+03	2.966187E-04	5.203345E-06
4.786070E+03	2.977293E-04	5.220755E-06
4.796020E+03	2.987996E-04	5.237495E-06
4.805970E+03	2.999062E-04	5.254910E-06
4.815920E+03	3.009730E-04	5.271661E-06
4.825871E+03	3.020383E-04	5.288423E-06
4.835821E+03	3.031019E-04	5.305190E-06
4.845771E+03	3.042020E-04	5.322633E-06
4.855721E+03	3.052606E-04	5.339385E-06
4.865672E+03	3.063154E-04	5.356106E-06
4.875622E+03	3.073650E-04	5.372772E-06
4.885572E+03	3.084080E-04	5.389357E-06
4.895522E+03	3.094424E-04	5.405827E-06
4.905473E+03	3.104664E-04	5.422150E-06
4.915423E+03	3.114380E-04	5.437592E-06
4.925373E+03	3.124335E-04	5.453488E-06
4.935323E+03	3.134110E-04	5.469103E-06
4.945274E+03	3.143276E-04	5.483692E-06
4.955224E+03	3.152600E-04	5.498589E-06
4.965174E+03	3.161254E-04	5.512352E-06
4.975124E+03	3.170004E-04	5.526320E-06
4.985075E+03	3.178021E-04	5.539042E-06
4.995025E+03	3.185672E-04	5.551163E-06
5.004975E+03	3.193329E-04	5.563330E-06
5.014925E+03	3.200161E-04	5.574093E-06
5.024876E+03	3.206541E-04	5.584104E-06
5.034826E+03	3.212443E-04	5.593317E-06
5.044776E+03	3.217843E-04	5.601692E-06
5.054726E+03	3.222720E-04	5.609192E-06
5.064677E+03	3.227055E-04	5.615784E-06
5.074627E+03	3.230832E-04	5.621440E-06
5.084577E+03	3.234038E-04	5.626137E-06
5.094527E+03	3.236256E-04	5.629152E-06
5.104478E+03	3.238290E-04	5.631881E-06
5.114428E+03	3.239731E-04	5.633614E-06
5.124378E+03	3.240171E-04	5.633644E-06
5.134328E+03	3.240425E-04	5.633383E-06
5.144279E+03	3.239685E-04	5.631431E-06
5.154229E+03	3.238367E-04	5.628508E-06
5.164179E+03	3.236883E-04	5.625333E-06
5.174129E+03	3.234441E-04	5.620527E-06
5.184080E+03	3.231460E-04	5.614819E-06
5.194030E+03	3.227959E-04	5.608244E-06
5.203980E+03	3.223960E-04	5.600836E-06
5.213930E+03	3.219485E-04	5.592637E-06
5.223881E+03	3.214561E-04	5.583689E-06
5.233831E+03	3.209212E-04	5.574040E-06
5.243781E+03	3.203469E-04	5.563738E-06
5.253731E+03	3.196963E-04	5.552145E-06
5.263682E+03	3.190520E-04	5.540695E-06
5.273632E+03	3.183774E-04	5.528751E-06
5.283582E+03	3.176363E-04	5.515684E-06
5.293532E+03	3.169107E-04	5.502920E-06
5.303483E+03	3.161253E-04	5.489148E-06
5.313433E+03	3.153617E-04	5.475787E-06
5.323383E+03	3.145450E-04	5.461534E-06
5.333333E+03	3.137172E-04	5.447122E-06
5.343284E+03	3.129203E-04	5.433276E-06
5.353234E+03	3.120798E-04	5.418703E-06
5.363184E+03	3.112371E-04	5.404123E-06
5.373134E+03	3.103951E-04	5.389585E-06
5.383085E+03	3.095563E-04	5.375134E-06
5.393035E+03	3.087233E-04	5.360813E-06
5.402985E+03	3.078983E-04	5.346660E-06
5.412935E+03	3.070835E-04	5.332713E-06
5.422886E+03	3.062431E-04	5.318351E-06
5.432836E+03	3.054545E-04	5.304919E-06
5.442786E+03	3.046816E-04	5.291788E-06
5.452736E+03	3.038882E-04	5.278331E-06
5.462687E+03	3.031504E-04	5.265868E-06
5.472637E+03	3.023943E-04	5.253113E-06
5.482587E+03	3.016943E-04	5.241362E-06
5.492537E+03	3.009761E-04	5.229320E-06
5.502488E+03	3.003134E-04	5.218270E-06
5.512438E+03	2.996318E-04	5.206916E-06
5.522388E+03	2.989678E-04	5.195893E-06
5.532338E+03	2.983209E-04	5.185192E-06
5.542289E+03	2.976906E-04	5.174804E-06
5.552239E+03	2.970765E-04	5.164721E-06
5.562189E+03	2.964781E-04	5.154936E-06
5.572139E+03	2.958953E-04	5.145443E-06
5.582090E+03	2.953276E-04	5.136236E-06
5.592040E+03	2.947748E-04	5.127311E-06
5.601990E+03	2.942365E-04	5.118662E-06
5.611940E+03	2.937127E-04	5.110285E-06
5.621891E+03	2.931670E-04	5.101549E-06
5.631841E+03	2.926710E-04	5.093698E-06
5.641791E+03	2.921882E-04	5.086099E-06
5.651741E+03	2.916823E-04	5.078119E-06
5.661692E+03	2.912242E-04	5.070991E-06
5.671642E+03	2.907414E-04	5.063454E-06
5.681592E+03	2.902687E-04	5.056113E-06
5.691542E+03	2.898404E-04	5.049564E-06
5.701493E+03	2.893838E-04	5.042543E-06
5.711443E+03	2.889328E-04	5.035640E-06
5.721393E+03	2.884855E-04	5.028821E-06
5.731343E+03	2.880752E-04	5.022665E-06
5.741294E+03	2.876290E-04	5.015903E-06
5.751244E+03	2.871799E-04	5.009109E-06
5.761194E+03	2.867253E-04	5.002239E-06
5.771144E+03	2.862628E-04	4.995250E-06
5.781095E+03	2.857899E-04	4.988098E-06
5.791045E+03	2.853041E-04	4.980740E-06
5.800995E+03	2.847684E-04	4.972527E-06
5.810945E+03	2.842503E-04	4.964641E-06
5.820896E+03	2.837131E-04	4.956438E-06
5.830846E+03	2.831552E-04	4.947892E-06
5.840796E+03	2.825409E-04	4.938378E-06
5.850746E+03	2.819386E-04	4.929091E-06
5.860697E+03	2.813136E-04	4.919423E-06
5.870647E+03	2.806317E-04	4.908778E-06
5.880597E+03	2.799625E-04	4.898371E-06
5.890547E+03	2.792389E-04	4.887028E-06
5.900498E+03	2.784972E-04	4.875384E-06
5.910448E+03	2.777738E-04	4.864076E-06
5.920398E+03	2.770039E-04	4.851970E-06
5.930348E+03	2.762251E-04	4.839724E-06
5.940299E+03	2.754752E-04	4.827999E-06
5.950249E+03	2.746913E-04	4.815693E-06
5.960199E+03	2.739119E-04	4.803482E-06
5.970149E+03	2.731421E-04	4.791456E-06
5.980100E+03	2.723874E-04	4.779710E-06
5.990050E+03	2.716532E-04	4.768338E-06
6.000000E+03	2.709448E-04	4.757437E-06
6.009950E+03	2.702677E-04	4.747102E-06
6.019900E+03	2.696271E-04	4.737425E-06
6.029851E+03	2.690280E-04	4.728496E-06
6.039801E+03	2.684751E-04	4.720396E-06
6.049751E+03	2.679725E-04	4.713201E-06
6.059701E+03	2.674915E-04	4.706404E-06
6.069652E+03	2.671006E-04	4.701214E-06
6.079602E+03	2.667698E-04	4.697103E-06
6.089552E+03	2.665010E-04	4.694107E-06
6.099502E+03	2.662631E-04	4.691679E-06
6.109453E+03	2.661218E-04	4.690979E-06
6.119403E+03	2.660120E-04	4.690859E-06
6.129353E+03	2.659980E-04	4.692456E-06
6.139303E+03	2.660132E-04	4.694598E-06
6.149254E+03	2.661207E-04	4.698397E-06
6.159204E+03	2.662526E-04	4.702659E-06
6.169154E+03	2.664707E-04	4.708475E-06
6.179104E+03	2.667059E-04	4.714627E-06
6.189055E+03	2.669864E-04	4.721615E-06
6.199005E+03	2.673400E-04	4.729930E-06
6.208955E+03	2.676957E-04	4.738320E-06
6.218905E+03	2.680802E-04	4.747252E-06
6.228856E+03	2.685194E-04	4.757189E-06
6.238806E+03	2.689405E-04	4.766840E-06
6.248756E+03	2.693688E-04	4.776653E-06
6.258706E+03	2.697970E-04	4.786499E-06
6.268657E+03	2.702179E-04	4.796249E-06
6.278607E+03	2.706245E-04	4.805779E-06
6.288557E+03	2.710100E-04	4.814967E-06
6.298507E+03	2.713683E-04	4.823703E-06
6.308458E+03	2.716935E-04	4.831879E-06
6.318408E+03	2.719801E-04	4.839400E-06
6.328358E+03	2.722233E-04	4.846177E-06
6.338308E+03	2.724186E-04	4.852129E-06
6.348259E+03	2.725623E-04	4.857186E-06
6.358209E+03	2.726509E-04	4.861287E-06
6.368159E+03	2.726483E-04	4.863785E-06
6.378109E+03	2.726190E-04	4.865826E-06
6.388060E+03	2.725279E-04	4.866783E-06
6.398010E+03	2.723733E-04	4.866626E-06
6.407960E+03	2.721212E-04	4.864741E-06
6.417910E+03	2.718376E-04	4.862309E-06
6.427861E+03	2.714889E-04	4.858726E-06
6.437811E+03	2.710422E-04	4.853397E-06
6.447761E+03	2.705642E-04	4.847519E-06
6.457711E+03	2.700225E-04	4.840506E-06
6.467662E+03	2.693849E-04	4.831779E-06
6.477612E+03	2.687187E-04	4.822544E-06
6.487562E+03	2.679592E-04	4.811637E-06
6.497512E+03	2.671740E-04	4.800268E-06
6.507463E+03	2.662991E-04	4.787287E-06
6.517413E+03	2.653694E-04	4.773316E-06
6.527363E+03	2.644195E-04	4.758979E-06
6.537313E+03	2.633867E-04	4.743144E-06
6.547264E+03	2.623384E-04	4.727023E-06
6.557214E+03	2.612129E-04	4.709499E-06
6.567164E+03	2.600453E-04	4.691209E-06
6.577114E+03	2.588709E-04	4.672784E-06
6.587065E+03	2.576293E-04	4.653132E-06
6.597015E+03	2.563561E-04	4.632896E-06
6.606965E+03	2.550553E-04	4.612145E-06
6.616915E+03	2.537310E-04	4.590954E-06
6.626866E+03	2.524187E-04	4.569964E-06
6.636816E+03	2.510608E-04	4.548131E-06
6.646766E+03	2.496933E-04	4.526105E-06
6.656716E+03	2.483213E-04	4.503978E-06
6.666667E+03	2.469498E-04	4.481842E-06
6.676617E+03	2.455841E-04	4.459792E-06
6.686567E+03	2.442298E-04	4.437928E-06
6.696517E+03	2.428921E-04	4.416348E-06
6.706468E+03	2.415765E-04	4.395150E-06
6.716418E+03	2.402884E-04	4.374433E-06
6.726368E+03	2.390331E-04	4.354295E-06
6.736318E+03	2.378156E-04	4.334828E-06
6.746269E+03	2.366410E-04	4.316124E-06
6.756219E+03	2.355138E-04	4.298269E-06
6.766169E+03	2.344383E-04	4.281343E-06
6.776119E+03	2.334186E-04	4.265421E-06
6.786070E+03	2.324294E-04	4.250043E-06
6.796020E+03	2.315313E-04	4.236318E-06
6.805970E+03	2.306980E-04	4.223769E-06
6.815920E+03	2.299316E-04	4.212435E-06
6.825871E+03	2.292051E-04	4.201822E-06
6.835821E+03	2.285760E-04	4.192992E-06
6.845771E+03	2.280162E-04	4.185427E-06
6.855721E+03	2.275252E-04	4.179121E-06
6.865672E+03	2.270737E-04	4.173541E-06
6.875622E+03	2.267165E-04	4.169694E-06
6.885572E+03	2.263950E-04	4.166504E-06
6.895522E+03	2.261624E-04	4.164955E-06
6.905473E+03	2.259873E-04	4.164468E-06
6.915423E+03	2.258377E-04	4.164458E-06
6.925373E+03	2.257653E-04	4.165880E-06
6.935323E+03	2.257093E-04	4.167612E-06
6.945274E+03	2.257207E-04	4.170599E-06
6.955224E+03	2.257379E-04	4.173704E-06
6.965174E+03	2.258116E-04	4.177865E-06
6.975124E+03	2.258799E-04	4.181940E-06
6.985075E+03	2.259652E-04	4.186341E-06
6.995025E+03	2.260897E-04	4.191483E-06
7.004975E+03	2.261917E-04	4.196222E-06
7.014925E+03	2.263217E-04	4.201495E-06
7.024876E+03	2.264182E-04	4.206161E-06
7.034826E+03	2.265041E-04	4.210645E-06
7.044776E+03	2.265746E-04	4.214857E-06
7.054726E+03	2.266534E-04	4.219235E-06
7.064677E+03	2.266795E-04	4.222649E-06
7.074627E+03	2.266774E-04	4.225550E-06
7.084577E+03	2.266432E-04	4.227866E-06
7.094527E+03	2.265737E-04	4.229534E-06
7.104478E+03	2.264940E-04	4.231024E-06
7.114428E+03	2.263447E-04	4.231226E-06
7.124378E+03	2.261516E-04	4.230618E-06
7.134328E+03	2.259122E-04	4.229154E-06
7.144279E+03	2.256247E-04	4.226797E-06
7.154229E+03	2.252871E-04	4.223506E-06
7.164179E+03	2.248977E-04	4.219252E-06
7.174129E+03	2.244552E-04	4.214004E-06
7.184080E+03	2.239583E-04	4.207738E-06
7.194030E+03	2.234060E-04	4.200434E-06
7.203980E+03	2.227976E-04	4.192076E-06
7.213930E+03	2.221326E-04	4.182652E-06
7.223881E+03	2.214109E-04	4.172158E-06
7.233831E+03	2.206328E-04	4.160597E-06
7.243781E+03	2.197710E-04	4.147453E-06
7.253731E+03	2.188820E-04	4.133788E-06
7.263682E+03	2.179392E-04	4.119100E-06
7.273632E+03	2.169446E-04	4.103423E-06
7.283582E+03	2.158731E-04	4.086282E-06
7.293532E+03	2.147820E-04	4.068757E-06
7.303483E+03	2.136471E-04	4.050388E-06
7.313433E+03	2.124719E-04	4.031242E-06
7.323383E+03	2.112339E-04	4.010887E-06
7.333333E+03	2.099907E-04	3.990419E-06
7.343284E+03	2.086941E-04	3.968917E-06
7.353234E+03	2.074018E-04	3.947479E-06
7.363184E+03	2.060926E-04	3.925700E-06
7.373134E+03	2.047461E-04	3.903193E-06
7.383085E+03	2.034198E-04	3.881050E-06
7.393035E+03	2.020677E-04	3.858396E-06
7.402985E+03	2.007468E-04	3.836316E-06
7.412935E+03	1.994117E-04	3.813947E-06
7.422886E+03	1.980936E-04	3.791883E-06
7.432836E+03	1.968226E-04	3.770703E-06
7.442786E+03	1.955541E-04	3.749553E-06
7.452736E+03	1.943180E-04	3.729007E-06
7.462687E+03	1.931436E-04	3.709629E-06
7.472637E+03	1.919862E-04	3.690562E-06
7.482587E+03	1.908745E-04	3.672361E-06
7.492537E+03	1.898123E-04	3.655100E-06
7.502488E+03	1.888270E-04	3.639310E-06
7.512438E+03	1.878736E-04	3.624127E-06
7.522388E+03	1.869789E-04	3.610070E-06
7.532338E+03	1.861451E-04	3.597185E-06
7.542289E+03	1.853741E-04	3.585510E-06
7.552239E+03	1.846672E-04	3.575076E-06
7.562189E+03	1.840252E-04	3.565901E-06
7.572139E+03	1.834483E-04	3.557992E-06
7.582090E+03	1.829362E-04	3.551347E-06
7.592040E+03	1.824876E-04	3.545943E-06
7.601990E+03	1.821007E-04	3.541748E-06
7.611940E+03	1.817733E-04	3.538721E-06
7.621891E+03	1.815028E-04	3.536814E-06
7.631841E+03	1.812861E-04	3.535972E-06
7.641791E+03	1.811204E-04	3.536140E-06
7.651741E+03	1.810026E-04	3.537260E-06
7.661692E+03	1.809063E-04	3.538819E-06
7.671642E+03	1.808748E-04	3.541663E-06
7.681592E+03	1.808819E-04	3.545285E-06
7.691542E+03	1.809015E-04	3.549173E-06
7.701493E+03	1.809773E-04	3.554185E-06
7.711443E+03	1.810835E-04	3.559818E-06
7.721393E+03	1.811945E-04	3.565569E-06
