#wls	flux	fluxerr
1.592040E+03	8.725225E-06	2.111758E-07
1.631841E+03	8.835332E-06	2.134209E-07
1.671642E+03	8.950021E-06	2.157566E-07
1.711443E+03	9.069478E-06	2.181862E-07
1.751244E+03	9.193884E-06	2.207127E-07
1.791045E+03	9.323424E-06	2.233393E-07
1.830846E+03	9.458299E-06	2.260696E-07
1.870647E+03	9.598717E-06	2.289070E-07
1.910448E+03	9.744888E-06	2.318551E-07
1.950249E+03	9.898827E-06	2.349602E-07
1.990050E+03	1.005723E-05	2.381420E-07
2.029851E+03	1.022211E-05	2.414468E-07
2.069652E+03	1.039372E-05	2.448789E-07
2.109453E+03	1.057237E-05	2.484435E-07
2.149254E+03	1.076030E-05	2.521911E-07
2.189055E+03	1.095402E-05	2.560378E-07
2.228856E+03	1.115581E-05	2.600349E-07
2.268657E+03	1.136813E-05	2.642373E-07
2.308458E+03	1.158740E-05	2.685592E-07
2.348259E+03	1.181615E-05	2.730570E-07
2.388060E+03	1.205715E-05	2.777917E-07
2.427861E+03	1.230678E-05	2.826772E-07
2.467662E+03	1.257021E-05	2.878287E-07
2.507463E+03	1.284387E-05	2.931611E-07
2.547264E+03	1.313333E-05	2.987985E-07
2.587065E+03	1.343751E-05	3.047117E-07
2.626866E+03	1.375529E-05	3.108715E-07
2.666667E+03	1.409308E-05	3.174184E-07
2.706468E+03	1.444764E-05	3.242742E-07
2.746269E+03	1.482607E-05	3.315929E-07
2.786070E+03	1.522810E-05	3.393623E-07
2.825871E+03	1.565628E-05	3.476323E-07
2.865672E+03	1.611058E-05	3.563957E-07
2.905473E+03	1.659988E-05	3.658404E-07
2.945274E+03	1.712490E-05	3.759738E-07
2.985075E+03	1.768957E-05	3.868717E-07
2.995025E+03	1.783583E-05	3.896903E-07
3.004975E+03	1.798488E-05	3.925628E-07
3.014925E+03	1.814003E-05	3.955610E-07
3.024876E+03	1.829489E-05	3.985455E-07
3.034826E+03	1.845607E-05	4.016600E-07
3.044776E+03	1.861705E-05	4.047625E-07
3.054726E+03	1.878454E-05	4.079988E-07
3.064677E+03	1.895195E-05	4.112252E-07
3.074627E+03	1.912609E-05	4.145897E-07
3.084577E+03	1.930025E-05	4.179461E-07
3.094527E+03	1.948136E-05	4.214447E-07
3.104478E+03	1.966260E-05	4.249373E-07
3.114428E+03	1.985103E-05	4.285768E-07
3.124378E+03	2.003969E-05	4.322121E-07
3.134328E+03	2.023217E-05	4.359210E-07
3.144279E+03	2.043222E-05	4.397835E-07
3.154229E+03	2.063265E-05	4.436449E-07
3.164179E+03	2.084090E-05	4.476650E-07
3.174129E+03	2.104965E-05	4.516859E-07
3.184080E+03	2.126647E-05	4.558702E-07
3.194030E+03	2.148391E-05	4.600574E-07
3.203980E+03	2.170969E-05	4.644131E-07
3.213930E+03	2.193619E-05	4.687737E-07
3.223881E+03	2.217131E-05	4.733076E-07
3.233831E+03	2.240727E-05	4.778486E-07
3.243781E+03	2.265211E-05	4.825680E-07
3.253731E+03	2.289790E-05	4.872963E-07
3.263682E+03	2.315286E-05	4.922082E-07
3.273632E+03	2.340887E-05	4.971309E-07
3.283582E+03	2.367434E-05	5.022423E-07
3.293532E+03	2.394096E-05	5.073662E-07
3.303483E+03	2.421733E-05	5.126843E-07
3.313433E+03	2.449495E-05	5.180162E-07
3.323383E+03	2.477818E-05	5.234543E-07
3.333333E+03	2.507159E-05	5.290944E-07
3.343284E+03	2.536639E-05	5.347504E-07
3.353234E+03	2.567165E-05	5.406137E-07
3.363184E+03	2.597838E-05	5.464942E-07
3.373134E+03	2.629585E-05	5.525869E-07
3.383085E+03	2.661486E-05	5.586977E-07
3.393035E+03	2.694492E-05	5.650261E-07
3.402985E+03	2.727655E-05	5.713730E-07
3.412935E+03	2.761951E-05	5.779423E-07
3.422886E+03	2.796410E-05	5.845306E-07
3.432836E+03	2.832029E-05	5.913462E-07
3.442786E+03	2.867813E-05	5.981807E-07
3.452736E+03	2.904784E-05	6.052472E-07
3.462687E+03	2.941921E-05	6.123322E-07
3.472637E+03	2.980271E-05	6.196537E-07
3.482587E+03	3.018786E-05	6.269930E-07
3.492537E+03	3.058539E-05	6.345728E-07
3.502488E+03	3.098454E-05	6.421693E-07
3.512438E+03	3.139631E-05	6.500103E-07
3.522388E+03	3.180963E-05	6.578662E-07
3.532338E+03	3.223580E-05	6.659704E-07
3.542289E+03	3.266344E-05	6.740874E-07
3.552239E+03	3.310414E-05	6.824558E-07
3.562189E+03	3.354621E-05	6.908344E-07
3.572139E+03	3.400151E-05	6.994675E-07
3.582090E+03	3.445806E-05	7.081076E-07
3.592040E+03	3.492801E-05	7.170045E-07
3.601990E+03	3.539903E-05	7.259047E-07
3.611940E+03	3.588362E-05	7.350641E-07
3.621891E+03	3.636907E-05	7.442222E-07
3.631841E+03	3.686822E-05	7.536412E-07
3.641791E+03	3.736801E-05	7.630541E-07
3.651741E+03	3.788159E-05	7.727292E-07
3.661692E+03	3.839556E-05	7.823925E-07
3.671642E+03	3.892341E-05	7.923190E-07
3.681592E+03	3.945135E-05	8.022273E-07
3.691542E+03	3.998612E-05	8.122550E-07
3.701493E+03	4.053486E-05	8.225465E-07
3.711443E+03	4.108316E-05	8.328093E-07
3.721393E+03	4.164547E-05	8.433358E-07
3.731343E+03	4.220696E-05	8.538258E-07
3.741294E+03	4.278245E-05	8.645789E-07
3.751244E+03	4.335672E-05	8.752873E-07
3.761194E+03	4.394496E-05	8.862578E-07
3.771144E+03	4.453154E-05	8.971748E-07
3.781095E+03	4.513205E-05	9.083524E-07
3.791045E+03	4.573042E-05	9.194673E-07
3.800995E+03	4.634266E-05	9.308412E-07
3.810945E+03	4.695227E-05	9.421426E-07
3.820896E+03	4.757565E-05	9.537006E-07
3.830846E+03	4.819593E-05	9.651773E-07
3.840796E+03	4.882981E-05	9.769072E-07
3.850746E+03	4.946003E-05	9.885446E-07
3.860697E+03	5.010385E-05	1.000435E-06
3.870647E+03	5.074333E-05	1.012220E-06
3.880597E+03	5.139632E-05	1.024257E-06
3.890547E+03	5.204445E-05	1.036178E-06
3.900498E+03	5.270585E-05	1.048346E-06
3.910448E+03	5.336186E-05	1.060389E-06
3.920398E+03	5.403100E-05	1.072675E-06
3.930348E+03	5.469408E-05	1.084825E-06
3.940299E+03	5.537025E-05	1.097217E-06
3.950249E+03	5.603969E-05	1.109461E-06
3.960199E+03	5.672202E-05	1.121943E-06
3.970149E+03	5.739710E-05	1.134267E-06
3.980100E+03	5.807457E-05	1.146624E-06
3.990050E+03	5.876474E-05	1.159217E-06
4.000000E+03	5.944666E-05	1.171633E-06
4.009950E+03	6.014114E-05	1.184284E-06
4.019900E+03	6.082674E-05	1.196747E-06
4.029851E+03	6.152471E-05	1.209440E-06
4.039801E+03	6.221324E-05	1.221937E-06
4.049751E+03	6.291399E-05	1.234662E-06
4.059701E+03	6.360463E-05	1.247179E-06
4.069652E+03	6.430743E-05	1.259924E-06
4.079602E+03	6.499947E-05	1.272450E-06
4.089552E+03	6.570348E-05	1.285200E-06
4.099502E+03	6.639614E-05	1.297722E-06
4.109453E+03	6.710064E-05	1.310467E-06
4.119403E+03	6.779318E-05	1.322972E-06
4.129353E+03	6.848529E-05	1.335464E-06
4.139303E+03	6.918899E-05	1.348176E-06
4.149254E+03	6.987973E-05	1.360632E-06
4.159204E+03	7.058191E-05	1.373308E-06
4.169154E+03	7.127051E-05	1.385716E-06
4.179104E+03	7.197032E-05	1.398341E-06
4.189055E+03	7.265579E-05	1.410687E-06
4.199005E+03	7.335222E-05	1.423245E-06
4.208955E+03	7.403364E-05	1.435513E-06
4.218905E+03	7.472569E-05	1.447990E-06
4.228856E+03	7.540188E-05	1.460161E-06
4.238806E+03	7.607493E-05	1.472276E-06
4.248756E+03	7.675809E-05	1.484591E-06
4.258706E+03	7.742395E-05	1.496577E-06
4.268657E+03	7.809930E-05	1.508753E-06
4.278607E+03	7.875627E-05	1.520582E-06
4.288557E+03	7.942205E-05	1.532590E-06
4.298507E+03	8.006803E-05	1.544225E-06
4.308458E+03	8.072182E-05	1.556022E-06
4.318408E+03	8.135424E-05	1.567419E-06
4.328358E+03	8.197853E-05	1.578672E-06
4.338308E+03	8.260826E-05	1.590044E-06
4.348259E+03	8.321325E-05	1.600955E-06
4.358209E+03	8.382144E-05	1.611944E-06
4.368159E+03	8.440228E-05	1.622425E-06
4.378109E+03	8.498538E-05	1.632967E-06
4.388060E+03	8.554141E-05	1.643010E-06
4.398010E+03	8.608627E-05	1.652858E-06
4.407960E+03	8.663604E-05	1.662823E-06
4.417910E+03	8.716112E-05	1.672337E-06
4.427861E+03	8.769277E-05	1.682002E-06
4.437811E+03	8.820072E-05	1.691237E-06
4.447761E+03	8.870086E-05	1.700348E-06
4.457711E+03	8.920943E-05	1.709648E-06
4.467662E+03	8.969529E-05	1.718540E-06
4.477612E+03	9.019047E-05	1.727637E-06
4.487562E+03	9.066348E-05	1.736337E-06
4.497512E+03	9.114652E-05	1.745257E-06
4.507463E+03	9.160775E-05	1.753788E-06
4.517413E+03	9.206341E-05	1.762240E-06
4.527363E+03	9.253006E-05	1.770930E-06
4.537313E+03	9.297523E-05	1.779238E-06
4.547264E+03	9.343186E-05	1.787793E-06
4.557214E+03	9.386717E-05	1.795969E-06
4.567164E+03	9.429780E-05	1.804083E-06
4.577114E+03	9.474045E-05	1.812457E-06
4.587065E+03	9.516197E-05	1.820455E-06
4.597015E+03	9.557905E-05	1.828396E-06
4.606965E+03	9.600872E-05	1.836607E-06
4.616915E+03	9.641722E-05	1.844442E-06
4.626866E+03	9.683858E-05	1.852551E-06
4.636816E+03	9.723877E-05	1.860284E-06
4.646766E+03	9.763480E-05	1.867966E-06
4.656716E+03	9.804404E-05	1.875930E-06
4.666667E+03	9.843196E-05	1.883513E-06
4.676617E+03	9.881577E-05	1.891047E-06
4.686567E+03	9.921307E-05	1.898867E-06
4.696517E+03	9.958886E-05	1.906304E-06
4.706468E+03	9.997818E-05	1.914028E-06
4.716418E+03	1.003459E-04	1.921367E-06
4.726368E+03	1.007095E-04	1.928655E-06
4.736318E+03	1.010869E-04	1.936233E-06
4.746269E+03	1.014423E-04	1.943419E-06
4.756219E+03	1.017935E-04	1.950552E-06
4.766169E+03	1.021585E-04	1.957977E-06
4.776119E+03	1.025014E-04	1.965004E-06
4.786070E+03	1.028399E-04	1.971976E-06
4.796020E+03	1.031922E-04	1.979240E-06
4.805970E+03	1.035221E-04	1.986099E-06
4.815920E+03	1.038475E-04	1.992898E-06
4.825871E+03	1.041868E-04	1.999991E-06
4.835821E+03	1.045032E-04	2.006671E-06
4.845771E+03	1.048151E-04	2.013288E-06
4.855721E+03	1.051407E-04	2.020197E-06
4.865672E+03	1.054432E-04	2.026686E-06
4.875622E+03	1.057410E-04	2.033108E-06
4.885572E+03	1.060525E-04	2.039821E-06
4.895522E+03	1.063406E-04	2.046107E-06
4.905473E+03	1.066237E-04	2.052321E-06
4.915423E+03	1.069206E-04	2.058826E-06
4.925373E+03	1.071936E-04	2.064896E-06
4.935323E+03	1.074616E-04	2.070890E-06
4.945274E+03	1.077433E-04	2.077174E-06
4.955224E+03	1.080009E-04	2.083015E-06
4.965174E+03	1.082531E-04	2.088776E-06
4.975124E+03	1.085192E-04	2.094825E-06
4.985075E+03	1.087608E-04	2.100425E-06
4.995025E+03	1.089970E-04	2.105942E-06
5.004975E+03	1.092469E-04	2.111746E-06
5.014925E+03	1.094720E-04	2.117093E-06
5.024876E+03	1.096917E-04	2.122353E-06
5.034826E+03	1.099057E-04	2.127526E-06
5.044776E+03	1.101334E-04	2.132985E-06
5.054726E+03	1.103362E-04	2.137979E-06
5.064677E+03	1.105332E-04	2.142883E-06
5.074627E+03	1.107440E-04	2.148071E-06
5.084577E+03	1.109295E-04	2.152790E-06
5.094527E+03	1.111093E-04	2.157414E-06
5.104478E+03	1.112831E-04	2.161943E-06
5.114428E+03	1.114708E-04	2.166757E-06
5.124378E+03	1.116330E-04	2.171095E-06
5.134328E+03	1.117892E-04	2.175333E-06
5.144279E+03	1.119395E-04	2.179474E-06
5.154229E+03	1.121035E-04	2.183897E-06
5.164179E+03	1.122419E-04	2.187837E-06
5.174129E+03	1.123742E-04	2.191674E-06
5.184080E+03	1.125004E-04	2.195409E-06
5.194030E+03	1.126403E-04	2.199426E-06
5.203980E+03	1.127543E-04	2.202950E-06
5.213930E+03	1.128620E-04	2.206367E-06
5.223881E+03	1.129634E-04	2.209676E-06
5.233831E+03	1.130783E-04	2.213262E-06
5.243781E+03	1.131670E-04	2.216347E-06
5.253731E+03	1.132491E-04	2.219317E-06
5.263682E+03	1.133245E-04	2.222168E-06
5.273632E+03	1.134131E-04	2.225290E-06
5.283582E+03	1.134748E-04	2.227897E-06
5.293532E+03	1.135294E-04	2.230376E-06
5.303483E+03	1.135768E-04	2.232724E-06
5.313433E+03	1.136367E-04	2.235327E-06
5.323383E+03	1.136688E-04	2.237397E-06
5.333333E+03	1.136929E-04	2.239318E-06
5.343284E+03	1.137087E-04	2.241084E-06
5.353234E+03	1.137158E-04	2.242688E-06
5.363184E+03	1.137338E-04	2.244515E-06
5.373134E+03	1.137222E-04	2.245768E-06
5.383085E+03	1.137005E-04	2.246829E-06
5.393035E+03	1.136682E-04	2.247687E-06
5.402985E+03	1.136245E-04	2.248327E-06
5.412935E+03	1.135887E-04	2.249131E-06
5.422886E+03	1.135202E-04	2.249291E-06
5.432836E+03	1.134379E-04	2.249184E-06
5.442786E+03	1.133409E-04	2.248792E-06
5.452736E+03	1.132284E-04	2.248094E-06
5.462687E+03	1.131194E-04	2.247472E-06
5.472637E+03	1.129741E-04	2.246129E-06
5.482587E+03	1.128129E-04	2.244475E-06
5.492537E+03	1.126371E-04	2.242530E-06
5.502488E+03	1.124478E-04	2.240319E-06
5.512438E+03	1.122464E-04	2.237865E-06
5.522388E+03	1.120535E-04	2.235583E-06
5.532338E+03	1.118309E-04	2.232707E-06
5.542289E+03	1.115994E-04	2.229651E-06
5.552239E+03	1.113597E-04	2.226430E-06
5.562189E+03	1.111127E-04	2.223063E-06
5.572139E+03	1.108592E-04	2.219561E-06
5.582090E+03	1.106193E-04	2.216330E-06
5.592040E+03	1.103546E-04	2.212601E-06
5.601990E+03	1.100853E-04	2.208774E-06
5.611940E+03	1.098119E-04	2.204862E-06
5.621891E+03	1.095349E-04	2.200873E-06
5.631841E+03	1.092547E-04	2.196815E-06
5.641791E+03	1.089717E-04	2.192697E-06
5.651741E+03	1.087054E-04	2.188910E-06
5.661692E+03	1.084179E-04	2.184692E-06
5.671642E+03	1.081287E-04	2.180434E-06
5.681592E+03	1.078381E-04	2.176142E-06
5.691542E+03	1.075463E-04	2.171821E-06
5.701493E+03	1.072536E-04	2.167475E-06
5.711443E+03	1.069602E-04	2.163111E-06
5.721393E+03	1.066665E-04	2.158732E-06
5.731343E+03	1.063912E-04	2.154721E-06
5.741294E+03	1.060971E-04	2.150324E-06
5.751244E+03	1.058031E-04	2.145923E-06
5.761194E+03	1.055095E-04	2.141522E-06
5.771144E+03	1.052164E-04	2.137124E-06
5.781095E+03	1.049239E-04	2.132732E-06
5.791045E+03	1.046321E-04	2.128348E-06
5.800995E+03	1.043412E-04	2.123975E-06
5.810945E+03	1.040514E-04	2.119617E-06
5.820896E+03	1.037808E-04	2.115645E-06
5.830846E+03	1.034933E-04	2.111320E-06
5.840796E+03	1.032071E-04	2.107015E-06
5.850746E+03	1.029223E-04	2.102731E-06
5.860697E+03	1.026390E-04	2.098472E-06
5.870647E+03	1.023573E-04	2.094237E-06
5.880597E+03	1.020772E-04	2.090029E-06
5.890547E+03	1.017989E-04	2.085850E-06
5.900498E+03	1.015224E-04	2.081699E-06
5.910448E+03	1.012476E-04	2.077579E-06
5.920398E+03	1.009748E-04	2.073489E-06
5.930348E+03	1.007038E-04	2.069432E-06
5.940299E+03	1.004348E-04	2.065406E-06
5.950249E+03	1.001853E-04	2.061776E-06
5.960199E+03	9.992007E-05	2.057815E-06
5.970149E+03	9.965686E-05	2.053889E-06
5.980100E+03	9.939556E-05	2.049995E-06
5.990050E+03	9.913616E-05	2.046132E-06
6.000000E+03	9.887862E-05	2.042301E-06
6.009950E+03	9.862289E-05	2.038501E-06
6.019900E+03	9.836893E-05	2.034730E-06
6.029851E+03	9.811659E-05	2.030986E-06
6.039801E+03	9.786584E-05	2.027267E-06
6.049751E+03	9.761651E-05	2.023571E-06
6.059701E+03	9.736849E-05	2.019896E-06
6.069652E+03	9.712157E-05	2.016236E-06
6.079602E+03	9.687563E-05	2.012590E-06
6.089552E+03	9.663032E-05	2.008950E-06
6.099502E+03	9.638551E-05	2.005313E-06
6.109453E+03	9.614083E-05	2.001673E-06
6.119403E+03	9.589594E-05	1.998021E-06
6.129353E+03	9.565052E-05	1.994352E-06
6.139303E+03	9.540406E-05	1.990653E-06
6.149254E+03	9.515608E-05	1.986917E-06
6.159204E+03	9.490607E-05	1.983131E-06
6.169154E+03	9.465337E-05	1.979282E-06
6.179104E+03	9.439724E-05	1.975354E-06
6.189055E+03	9.413702E-05	1.971332E-06
6.199005E+03	9.387182E-05	1.967199E-06
6.208955E+03	9.360113E-05	1.962943E-06
6.218905E+03	9.332477E-05	1.958560E-06
6.228856E+03	9.304319E-05	1.954059E-06
6.238806E+03	9.275707E-05	1.949454E-06
6.248756E+03	9.246720E-05	1.944761E-06
6.258706E+03	9.217423E-05	1.939994E-06
6.268657E+03	9.187865E-05	1.935162E-06
6.278607E+03	9.158105E-05	1.930279E-06
6.288557E+03	9.128182E-05	1.925352E-06
6.298507E+03	9.098138E-05	1.920389E-06
6.308458E+03	9.067992E-05	1.915395E-06
6.318408E+03	9.037780E-05	1.910378E-06
6.328358E+03	9.007518E-05	1.905340E-06
6.338308E+03	8.977229E-05	1.900286E-06
6.348259E+03	8.946927E-05	1.895219E-06
6.358209E+03	8.916617E-05	1.890140E-06
6.368159E+03	8.886321E-05	1.885055E-06
6.378109E+03	8.856037E-05	1.879961E-06
6.388060E+03	8.825777E-05	1.874862E-06
6.398010E+03	8.795550E-05	1.869760E-06
6.407960E+03	8.765349E-05	1.864653E-06
6.417910E+03	8.735191E-05	1.859545E-06
6.427861E+03	8.705067E-05	1.854433E-06
6.437811E+03	8.674987E-05	1.849320E-06
6.447761E+03	8.644951E-05	1.844206E-06
6.457711E+03	8.614953E-05	1.839090E-06
6.467662E+03	8.585009E-05	1.833975E-06
6.477612E+03	8.555108E-05	1.828858E-06
6.487562E+03	8.525256E-05	1.823741E-06
6.497512E+03	8.495457E-05	1.818625E-06
6.507463E+03	8.464219E-05	1.813190E-06
6.517413E+03	8.434522E-05	1.808074E-06
6.527363E+03	8.404882E-05	1.802960E-06
6.537313E+03	8.375296E-05	1.797847E-06
6.547264E+03	8.345764E-05	1.792735E-06
6.557214E+03	8.316294E-05	1.787625E-06
6.567164E+03	8.286881E-05	1.782518E-06
6.577114E+03	8.257537E-05	1.777414E-06
6.587065E+03	8.228255E-05	1.772313E-06
6.597015E+03	8.199041E-05	1.767216E-06
6.606965E+03	8.169903E-05	1.762125E-06
6.616915E+03	8.140838E-05	1.757039E-06
6.626866E+03	8.111849E-05	1.751959E-06
6.636816E+03	8.082942E-05	1.746886E-06
6.646766E+03	8.052706E-05	1.741515E-06
6.656716E+03	8.023981E-05	1.736461E-06
6.666667E+03	7.995343E-05	1.731414E-06
6.676617E+03	7.966809E-05	1.726380E-06
6.686567E+03	7.938371E-05	1.721356E-06
6.696517E+03	7.910037E-05	1.716345E-06
6.706468E+03	7.881814E-05	1.711347E-06
6.716418E+03	7.853700E-05	1.706363E-06
6.726368E+03	7.825705E-05	1.701394E-06
6.736318E+03	7.797834E-05	1.696442E-06
6.746269E+03	7.768719E-05	1.691209E-06
6.756219E+03	7.741100E-05	1.686292E-06
6.766169E+03	7.713618E-05	1.681395E-06
6.776119E+03	7.686265E-05	1.676515E-06
6.786070E+03	7.659059E-05	1.671658E-06
6.796020E+03	7.631990E-05	1.666821E-06
6.805970E+03	7.605064E-05	1.662005E-06
6.815920E+03	7.578289E-05	1.657213E-06
6.825871E+03	7.550342E-05	1.652154E-06
6.835821E+03	7.523875E-05	1.647410E-06
6.845771E+03	7.497569E-05	1.642692E-06
6.855721E+03	7.471419E-05	1.637998E-06
6.865672E+03	7.445435E-05	1.633331E-06
6.875622E+03	7.419612E-05	1.628690E-06
6.885572E+03	7.393954E-05	1.624077E-06
6.895522E+03	7.368466E-05	1.619491E-06
6.905473E+03	7.341858E-05	1.614650E-06
6.915423E+03	7.316715E-05	1.610123E-06
6.925373E+03	7.291742E-05	1.605623E-06
6.935323E+03	7.266949E-05	1.601155E-06
6.945274E+03	7.242335E-05	1.596717E-06
6.955224E+03	7.217895E-05	1.592309E-06
6.965174E+03	7.193635E-05	1.587932E-06
6.975124E+03	7.168298E-05	1.583309E-06
6.985075E+03	7.144410E-05	1.578997E-06
6.995025E+03	7.120707E-05	1.574718E-06
7.004975E+03	7.097192E-05	1.570472E-06
7.014925E+03	7.073865E-05	1.566260E-06
7.024876E+03	7.050732E-05	1.562083E-06
7.034826E+03	7.026554E-05	1.557666E-06
7.044776E+03	7.003811E-05	1.553559E-06
7.054726E+03	6.981271E-05	1.549490E-06
7.064677E+03	6.958934E-05	1.545457E-06
7.074627E+03	6.936798E-05	1.541462E-06
7.084577E+03	6.914875E-05	1.537507E-06
7.094527E+03	6.891949E-05	1.533321E-06
7.104478E+03	6.870457E-05	1.529447E-06
7.114428E+03	6.849182E-05	1.525614E-06
7.124378E+03	6.828137E-05	1.521825E-06
7.134328E+03	6.807322E-05	1.518080E-06
7.144279E+03	6.786742E-05	1.514381E-06
7.154229E+03	6.765211E-05	1.510463E-06
7.164179E+03	6.745123E-05	1.506860E-06
7.174129E+03	6.725289E-05	1.503308E-06
7.184080E+03	6.705712E-05	1.499806E-06
7.194030E+03	6.686402E-05	1.496358E-06
7.203980E+03	6.666198E-05	1.492703E-06
7.213930E+03	6.647446E-05	1.489368E-06
7.223881E+03	6.628988E-05	1.486092E-06
7.233831E+03	6.610821E-05	1.482875E-06
7.243781E+03	6.592962E-05	1.479722E-06
7.253731E+03	6.574264E-05	1.476375E-06
7.263682E+03	6.557046E-05	1.473355E-06
7.273632E+03	6.540155E-05	1.470403E-06
7.283582E+03	6.523605E-05	1.467522E-06
7.293532E+03	6.507405E-05	1.464715E-06
7.303483E+03	6.490422E-05	1.461726E-06
7.313433E+03	6.474950E-05	1.459073E-06
7.323383E+03	6.459847E-05	1.456499E-06
7.333333E+03	6.445132E-05	1.454007E-06
7.343284E+03	6.429675E-05	1.451343E-06
7.353234E+03	6.415752E-05	1.449022E-06
7.363184E+03	6.402235E-05	1.446788E-06
7.373134E+03	6.389133E-05	1.444643E-06
7.383085E+03	6.376446E-05	1.442589E-06
7.393035E+03	6.363068E-05	1.440375E-06
7.402985E+03	6.351238E-05	1.438508E-06
7.412935E+03	6.339842E-05	1.436735E-06
7.422886E+03	6.328883E-05	1.435058E-06
7.432836E+03	6.317244E-05	1.433224E-06
7.442786E+03	6.307156E-05	1.431739E-06
7.452736E+03	6.297501E-05	1.430350E-06
7.462687E+03	6.288270E-05	1.429054E-06
7.472637E+03	6.279468E-05	1.427853E-06
7.482587E+03	6.269966E-05	1.426491E-06
7.492537E+03	6.261970E-05	1.425470E-06
7.502488E+03	6.254359E-05	1.424534E-06
7.512438E+03	6.247113E-05	1.423679E-06
7.522388E+03	6.239102E-05	1.422648E-06
7.532338E+03	6.232508E-05	1.421939E-06
7.542289E+03	6.226185E-05	1.421289E-06
7.552239E+03	6.220104E-05	1.420694E-06
7.562189E+03	6.213121E-05	1.419892E-06
7.572139E+03	6.207395E-05	1.419375E-06
7.582090E+03	6.201806E-05	1.418889E-06
7.592040E+03	6.196372E-05	1.418436E-06
7.601990E+03	6.190039E-05	1.417777E-06
7.611940E+03	6.185034E-05	1.417421E-06
7.621891E+03	6.180299E-05	1.417125E-06
7.631841E+03	6.174781E-05	1.416648E-06
7.641791E+03	6.170683E-05	1.416496E-06
7.651741E+03	6.166943E-05	1.416425E-06
7.661692E+03	6.163574E-05	1.416438E-06
7.671642E+03	6.159511E-05	1.416291E-06
7.681592E+03	6.156932E-05	1.416483E-06
7.691542E+03	6.154762E-05	1.416769E-06
7.701493E+03	6.152999E-05	1.417149E-06
7.711443E+03	6.150570E-05	1.417374E-06
7.721393E+03	6.149638E-05	1.417943E-06
