#wls	flux	fluxerr
1.570167E+03	3.359359E-02	5.160879E-04
1.609421E+03	3.568999E-02	5.471690E-04
1.648675E+03	3.780016E-02	5.782961E-04
1.687929E+03	3.990301E-02	6.091395E-04
1.727184E+03	4.197047E-02	6.392662E-04
1.766438E+03	4.395636E-02	6.679712E-04
1.805692E+03	4.580068E-02	6.943475E-04
1.844946E+03	4.743027E-02	7.172973E-04
1.884200E+03	4.876331E-02	7.356047E-04
1.923454E+03	4.972395E-02	7.481570E-04
1.962709E+03	5.027458E-02	7.544296E-04
2.001963E+03	5.046454E-02	7.552071E-04
2.041217E+03	5.047255E-02	7.531993E-04
2.080471E+03	5.059074E-02	7.527748E-04
2.119725E+03	5.108630E-02	7.578817E-04
2.158979E+03	5.202023E-02	7.693691E-04
2.198234E+03	5.318660E-02	7.841363E-04
2.237488E+03	5.424373E-02	7.971245E-04
2.276742E+03	5.498334E-02	8.052940E-04
2.315996E+03	5.531505E-02	8.073680E-04
2.355250E+03	5.524118E-02	8.034395E-04
2.394504E+03	5.482823E-02	7.945337E-04
2.433759E+03	5.417327E-02	7.821063E-04
2.473013E+03	5.337982E-02	7.676866E-04
2.512267E+03	5.253649E-02	7.525688E-04
2.551521E+03	5.170080E-02	7.375843E-04
2.590775E+03	5.090296E-02	7.231631E-04
2.630029E+03	5.015825E-02	7.095166E-04
2.669284E+03	4.947433E-02	6.967452E-04
2.708538E+03	4.885555E-02	6.849000E-04
2.747792E+03	4.830468E-02	6.740089E-04
2.787046E+03	4.782375E-02	6.640880E-04
2.826300E+03	4.741391E-02	6.551400E-04
2.865554E+03	4.707585E-02	6.471608E-04
2.904809E+03	4.680971E-02	6.401375E-04
2.944063E+03	4.661471E-02	6.340443E-04
2.953876E+03	4.657696E-02	6.326629E-04
2.963690E+03	4.654354E-02	6.313368E-04
2.973503E+03	4.651445E-02	6.300659E-04
2.983317E+03	4.648999E-02	6.288537E-04
2.993131E+03	4.647161E-02	6.277198E-04
3.002944E+03	4.646078E-02	6.266836E-04
3.012758E+03	4.645677E-02	6.257347E-04
3.022571E+03	4.645925E-02	6.248684E-04
3.032385E+03	4.646760E-02	6.240758E-04
3.042198E+03	4.648141E-02	6.233513E-04
3.052012E+03	4.650030E-02	6.226892E-04
3.061825E+03	4.652378E-02	6.220828E-04
3.071639E+03	4.655157E-02	6.215281E-04
3.081452E+03	4.658345E-02	6.210218E-04
3.091266E+03	4.661892E-02	6.205569E-04
3.101079E+03	4.665776E-02	6.201304E-04
3.110893E+03	4.669968E-02	6.197381E-04
3.120707E+03	4.674442E-02	6.193764E-04
3.130520E+03	4.679177E-02	6.190422E-04
3.140334E+03	4.684152E-02	6.187327E-04
3.150147E+03	4.689343E-02	6.184444E-04
3.159961E+03	4.694719E-02	6.181733E-04
3.169774E+03	4.700268E-02	6.179175E-04
3.179588E+03	4.705954E-02	6.176721E-04
3.189401E+03	4.711775E-02	6.174367E-04
3.199215E+03	4.717688E-02	6.172056E-04
3.209028E+03	4.723683E-02	6.169775E-04
3.218842E+03	4.729749E-02	6.167509E-04
3.228656E+03	4.735849E-02	6.165207E-04
3.238469E+03	4.741951E-02	6.162829E-04
3.248283E+03	4.748062E-02	6.160381E-04
3.258096E+03	4.754137E-02	6.157808E-04
3.267910E+03	4.760151E-02	6.155074E-04
3.277723E+03	4.766080E-02	6.152151E-04
3.287537E+03	4.771909E-02	6.149018E-04
3.297350E+03	4.777598E-02	6.145625E-04
3.307164E+03	4.783143E-02	6.141968E-04
3.316977E+03	4.788486E-02	6.137970E-04
3.326791E+03	4.793625E-02	6.133635E-04
3.336605E+03	4.798512E-02	6.128897E-04
3.346418E+03	4.803120E-02	6.123727E-04
3.356232E+03	4.807416E-02	6.118084E-04
3.366045E+03	4.811371E-02	6.111933E-04
3.375859E+03	4.814948E-02	6.105227E-04
3.385672E+03	4.818150E-02	6.097976E-04
3.395486E+03	4.820941E-02	6.090134E-04
3.405299E+03	4.823312E-02	6.081694E-04
3.415113E+03	4.825238E-02	6.072627E-04
3.424926E+03	4.826728E-02	6.062946E-04
3.434740E+03	4.827761E-02	6.052630E-04
3.444553E+03	4.828323E-02	6.041664E-04
3.454367E+03	4.828403E-02	6.030036E-04
3.464181E+03	4.827975E-02	6.017718E-04
3.473994E+03	4.827068E-02	6.004751E-04
3.483808E+03	4.825678E-02	5.991132E-04
3.493621E+03	4.823774E-02	5.976827E-04
3.503435E+03	4.821382E-02	5.961870E-04
3.513248E+03	4.818529E-02	5.946303E-04
3.523062E+03	4.815208E-02	5.930115E-04
3.532875E+03	4.811442E-02	5.913342E-04
3.542689E+03	4.807265E-02	5.896026E-04
3.552502E+03	4.802688E-02	5.878186E-04
3.562316E+03	4.797755E-02	5.859879E-04
3.572130E+03	4.792493E-02	5.841139E-04
3.581943E+03	4.786936E-02	5.822012E-04
3.591757E+03	4.781130E-02	5.802555E-04
3.601570E+03	4.775137E-02	5.782847E-04
3.611384E+03	4.768985E-02	5.762921E-04
3.621197E+03	4.762714E-02	5.742829E-04
3.631011E+03	4.756379E-02	5.722636E-04
3.640824E+03	4.750030E-02	5.702406E-04
3.650638E+03	4.743706E-02	5.682182E-04
3.660451E+03	4.737488E-02	5.662065E-04
3.670265E+03	4.731379E-02	5.642055E-04
3.680079E+03	4.725456E-02	5.622245E-04
3.689892E+03	4.719765E-02	5.602686E-04
3.699706E+03	4.714310E-02	5.583383E-04
3.709519E+03	4.709162E-02	5.564418E-04
3.719333E+03	4.704356E-02	5.545831E-04
3.729146E+03	4.699915E-02	5.527644E-04
3.738960E+03	4.695852E-02	5.509872E-04
3.748773E+03	4.692209E-02	5.492559E-04
3.758587E+03	4.688985E-02	5.475702E-04
3.768400E+03	4.686203E-02	5.459324E-04
3.778214E+03	4.683860E-02	5.443419E-04
3.788027E+03	4.681970E-02	5.427998E-04
3.797841E+03	4.680500E-02	5.413019E-04
3.807655E+03	4.679445E-02	5.398475E-04
3.817468E+03	4.678797E-02	5.384353E-04
3.827282E+03	4.678528E-02	5.370617E-04
3.837095E+03	4.678613E-02	5.357234E-04
3.846909E+03	4.678994E-02	5.344138E-04
3.856722E+03	4.679635E-02	5.331282E-04
3.866536E+03	4.680518E-02	5.318646E-04
3.876349E+03	4.681557E-02	5.306129E-04
3.886163E+03	4.682722E-02	5.293698E-04
3.895976E+03	4.683966E-02	5.281296E-04
3.905790E+03	4.685209E-02	5.268835E-04
3.915604E+03	4.686401E-02	5.256258E-04
3.925417E+03	4.687497E-02	5.243517E-04
3.935231E+03	4.688431E-02	5.230538E-04
3.945044E+03	4.689134E-02	5.217245E-04
3.954858E+03	4.689571E-02	5.203603E-04
3.964671E+03	4.689695E-02	5.189563E-04
3.974485E+03	4.689456E-02	5.175071E-04
3.984298E+03	4.688802E-02	5.160076E-04
3.994112E+03	4.687704E-02	5.144548E-04
4.003925E+03	4.686101E-02	5.128427E-04
4.013739E+03	4.684024E-02	5.111749E-04
4.023553E+03	4.681396E-02	5.094438E-04
4.033366E+03	4.678212E-02	5.076492E-04
4.043180E+03	4.674483E-02	5.057929E-04
4.052993E+03	4.670184E-02	5.038728E-04
4.062807E+03	4.665292E-02	5.018871E-04
4.072620E+03	4.659828E-02	4.998384E-04
4.082434E+03	4.653810E-02	4.977295E-04
4.092247E+03	4.647202E-02	4.955570E-04
4.102061E+03	4.640049E-02	4.933264E-04
4.111874E+03	4.632324E-02	4.910353E-04
4.121688E+03	4.624064E-02	4.886883E-04
4.131501E+03	4.615235E-02	4.862825E-04
4.141315E+03	4.605872E-02	4.838220E-04
4.151129E+03	4.595972E-02	4.813072E-04
4.160942E+03	4.585502E-02	4.787352E-04
4.170756E+03	4.574455E-02	4.761060E-04
4.180569E+03	4.562798E-02	4.734168E-04
4.190383E+03	4.550543E-02	4.706694E-04
4.200196E+03	4.537586E-02	4.678538E-04
4.210010E+03	4.523932E-02	4.649714E-04
4.219823E+03	4.509447E-02	4.620092E-04
4.229637E+03	4.494070E-02	4.589618E-04
4.239450E+03	4.477705E-02	4.558206E-04
4.249264E+03	4.460235E-02	4.525745E-04
4.259078E+03	4.441823E-02	4.492414E-04
4.268891E+03	4.422557E-02	4.458313E-04
4.278705E+03	4.402603E-02	4.423616E-04
4.288518E+03	4.382057E-02	4.388429E-04
4.298332E+03	4.361016E-02	4.352855E-04
4.308145E+03	4.339558E-02	4.316978E-04
4.317959E+03	4.317759E-02	4.280880E-04
4.327772E+03	4.295702E-02	4.244645E-04
4.337586E+03	4.273418E-02	4.208309E-04
4.347399E+03	4.250966E-02	4.171935E-04
4.357213E+03	4.228408E-02	4.135583E-04
4.367026E+03	4.205756E-02	4.099269E-04
4.376840E+03	4.183048E-02	4.063033E-04
4.386654E+03	4.160323E-02	4.026912E-04
4.396467E+03	4.137595E-02	3.990924E-04
4.406281E+03	4.114880E-02	3.955083E-04
4.416094E+03	4.092216E-02	3.919429E-04
4.425908E+03	4.069593E-02	3.883952E-04
4.435721E+03	4.047003E-02	3.848644E-04
4.445535E+03	4.024484E-02	3.813544E-04
4.455348E+03	4.002025E-02	3.778641E-04
4.465162E+03	3.979566E-02	3.743879E-04
4.474975E+03	3.957145E-02	3.709296E-04
4.484789E+03	3.934700E-02	3.674835E-04
4.494603E+03	3.912195E-02	3.640463E-04
4.504416E+03	3.889643E-02	3.606195E-04
4.514230E+03	3.866932E-02	3.571928E-04
4.524043E+03	3.844024E-02	3.537630E-04
4.533857E+03	3.820907E-02	3.503294E-04
4.543670E+03	3.797492E-02	3.468843E-04
4.553484E+03	3.773792E-02	3.434292E-04
4.563297E+03	3.749868E-02	3.399701E-04
4.573111E+03	3.725809E-02	3.365153E-04
4.582924E+03	3.701700E-02	3.330728E-04
4.592738E+03	3.677603E-02	3.296483E-04
4.602552E+03	3.653576E-02	3.262471E-04
4.612365E+03	3.629650E-02	3.228721E-04
4.622179E+03	3.605907E-02	3.195303E-04
4.631992E+03	3.582345E-02	3.162218E-04
4.641806E+03	3.558989E-02	3.129486E-04
4.651619E+03	3.535858E-02	3.097122E-04
4.661433E+03	3.512914E-02	3.065093E-04
4.671246E+03	3.490171E-02	3.033409E-04
4.681060E+03	3.467608E-02	3.002052E-04
4.690873E+03	3.445203E-02	2.971003E-04
4.700687E+03	3.422931E-02	2.940238E-04
4.710500E+03	3.400734E-02	2.909710E-04
4.720314E+03	3.378582E-02	2.879391E-04
4.730128E+03	3.356438E-02	2.849252E-04
4.739941E+03	3.334240E-02	2.819241E-04
4.749755E+03	3.311978E-02	2.789352E-04
4.759568E+03	3.289563E-02	2.759511E-04
4.769382E+03	3.266984E-02	2.729712E-04
4.779195E+03	3.244157E-02	2.699888E-04
4.789009E+03	3.221103E-02	2.670060E-04
4.798822E+03	3.197719E-02	2.640145E-04
4.808636E+03	3.174010E-02	2.610153E-04
4.818449E+03	3.149934E-02	2.580053E-04
4.828263E+03	3.125483E-02	2.549842E-04
4.838077E+03	3.100655E-02	2.519525E-04
4.847890E+03	3.075404E-02	2.489067E-04
4.857704E+03	3.049793E-02	2.458526E-04
4.867517E+03	3.023766E-02	2.427860E-04
4.877331E+03	2.997403E-02	2.397137E-04
4.887144E+03	2.970686E-02	2.366348E-04
4.896958E+03	2.943657E-02	2.335529E-04
4.906771E+03	2.916361E-02	2.304720E-04
4.916585E+03	2.888851E-02	2.273964E-04
4.926398E+03	2.861134E-02	2.243271E-04
4.936212E+03	2.833292E-02	2.212707E-04
4.946026E+03	2.805387E-02	2.182321E-04
4.955839E+03	2.777435E-02	2.152126E-04
4.965653E+03	2.749523E-02	2.122190E-04
4.975466E+03	2.721714E-02	2.092562E-04
4.985280E+03	2.694021E-02	2.063250E-04
4.995093E+03	2.666554E-02	2.034337E-04
5.004907E+03	2.639297E-02	2.005810E-04
5.014720E+03	2.612352E-02	1.977743E-04
5.024534E+03	2.585746E-02	1.950155E-04
5.034347E+03	2.559502E-02	1.923059E-04
5.044161E+03	2.533662E-02	1.896482E-04
5.053974E+03	2.508262E-02	1.870451E-04
5.063788E+03	2.483314E-02	1.844967E-04
5.073602E+03	2.458890E-02	1.820082E-04
5.083415E+03	2.434946E-02	1.795759E-04
5.093229E+03	2.411526E-02	1.772024E-04
5.103042E+03	2.388623E-02	1.748868E-04
5.112856E+03	2.366271E-02	1.726313E-04
5.122669E+03	2.344457E-02	1.704344E-04
5.132483E+03	2.323188E-02	1.682961E-04
5.142296E+03	2.302467E-02	1.662163E-04
5.152110E+03	2.282273E-02	1.641929E-04
5.161923E+03	2.262607E-02	1.622256E-04
5.171737E+03	2.243489E-02	1.603155E-04
5.181551E+03	2.224872E-02	1.584587E-04
5.191364E+03	2.206776E-02	1.566563E-04
5.201178E+03	2.189216E-02	1.549089E-04
5.210991E+03	2.172126E-02	1.532115E-04
5.220805E+03	2.155564E-02	1.515678E-04
5.230618E+03	2.139484E-02	1.499742E-04
5.240432E+03	2.123883E-02	1.484302E-04
5.250245E+03	2.108778E-02	1.469365E-04
5.260059E+03	2.094167E-02	1.454928E-04
5.269872E+03	2.080026E-02	1.440970E-04
5.279686E+03	2.066378E-02	1.427504E-04
5.289500E+03	2.053200E-02	1.414511E-04
5.299313E+03	2.040517E-02	1.402005E-04
5.309127E+03	2.028391E-02	1.390026E-04
5.318940E+03	2.016848E-02	1.378587E-04
5.328754E+03	2.006034E-02	1.367786E-04
5.338567E+03	1.995794E-02	1.357512E-04
5.348381E+03	1.986019E-02	1.347686E-04
5.358194E+03	1.976598E-02	1.338228E-04
5.368008E+03	1.967523E-02	1.329128E-04
5.377821E+03	1.958763E-02	1.320358E-04
5.387635E+03	1.950322E-02	1.311920E-04
5.397448E+03	1.942220E-02	1.303822E-04
5.407262E+03	1.934450E-02	1.296053E-04
5.417076E+03	1.926980E-02	1.288590E-04
5.426889E+03	1.919813E-02	1.281431E-04
5.436703E+03	1.912953E-02	1.274574E-04
5.446516E+03	1.906383E-02	1.268005E-04
5.456330E+03	1.900066E-02	1.261695E-04
5.466143E+03	1.894029E-02	1.255658E-04
5.475957E+03	1.888257E-02	1.249882E-04
5.485770E+03	1.882719E-02	1.244344E-04
5.495584E+03	1.877445E-02	1.239058E-04
5.505397E+03	1.872403E-02	1.234003E-04
5.515211E+03	1.867586E-02	1.229169E-04
5.525025E+03	1.863025E-02	1.224575E-04
5.534838E+03	1.858691E-02	1.220198E-04
5.544652E+03	1.854598E-02	1.216045E-04
5.554465E+03	1.850735E-02	1.212108E-04
5.564279E+03	1.847119E-02	1.208392E-04
5.574092E+03	1.843699E-02	1.204864E-04
5.583906E+03	1.840529E-02	1.201556E-04
5.593719E+03	1.837582E-02	1.198447E-04
5.603533E+03	1.834848E-02	1.195529E-04
5.613346E+03	1.832342E-02	1.192810E-04
5.623160E+03	1.830053E-02	1.190280E-04
5.632974E+03	1.827973E-02	1.187932E-04
5.642787E+03	1.826092E-02	1.185757E-04
5.652601E+03	1.824443E-02	1.183775E-04
5.662414E+03	1.822971E-02	1.181948E-04
5.672228E+03	1.821709E-02	1.180295E-04
5.682041E+03	1.820621E-02	1.178792E-04
5.691855E+03	1.819717E-02	1.177442E-04
5.701668E+03	1.818982E-02	1.176235E-04
5.711482E+03	1.818402E-02	1.175160E-04
5.721295E+03	1.817981E-02	1.174217E-04
5.731109E+03	1.817704E-02	1.173396E-04
5.740922E+03	1.817532E-02	1.172670E-04
5.750736E+03	1.817491E-02	1.172053E-04
5.760550E+03	1.817540E-02	1.171519E-04
5.770363E+03	1.817684E-02	1.171068E-04
5.780177E+03	1.817904E-02	1.170688E-04
5.789990E+03	1.818158E-02	1.170349E-04
5.799804E+03	1.818473E-02	1.170069E-04
5.809617E+03	1.818832E-02	1.169834E-04
5.819431E+03	1.819193E-02	1.169617E-04
5.829244E+03	1.819540E-02	1.169405E-04
5.839058E+03	1.819903E-02	1.169218E-04
5.848871E+03	1.820243E-02	1.169029E-04
5.858685E+03	1.820524E-02	1.168814E-04
5.868499E+03	1.820802E-02	1.168607E-04
5.878312E+03	1.820995E-02	1.168356E-04
5.888126E+03	1.821140E-02	1.168082E-04
5.897939E+03	1.821205E-02	1.167764E-04
5.907753E+03	1.821204E-02	1.167411E-04
5.917566E+03	1.821108E-02	1.167002E-04
5.927380E+03	1.820936E-02	1.166549E-04
5.937193E+03	1.820635E-02	1.166018E-04
5.947007E+03	1.820250E-02	1.165436E-04
5.956820E+03	1.819732E-02	1.164771E-04
5.966634E+03	1.819103E-02	1.164036E-04
5.976447E+03	1.818316E-02	1.163201E-04
5.986261E+03	1.817370E-02	1.162265E-04
5.996075E+03	1.816295E-02	1.161244E-04
6.005888E+03	1.815017E-02	1.160093E-04
6.015702E+03	1.813542E-02	1.158814E-04
6.025515E+03	1.811873E-02	1.157409E-04
6.035329E+03	1.810019E-02	1.155881E-04
6.045142E+03	1.807936E-02	1.154204E-04
6.054956E+03	1.805656E-02	1.152397E-04
6.064769E+03	1.803165E-02	1.150450E-04
6.074583E+03	1.800497E-02	1.148386E-04
6.084396E+03	1.797615E-02	1.146179E-04
6.094210E+03	1.794583E-02	1.143870E-04
6.104024E+03	1.791418E-02	1.141471E-04
6.113837E+03	1.788139E-02	1.138991E-04
6.123651E+03	1.784772E-02	1.136448E-04
6.133464E+03	1.781357E-02	1.133864E-04
6.143278E+03	1.777975E-02	1.131292E-04
6.153091E+03	1.774715E-02	1.128787E-04
6.162905E+03	1.771589E-02	1.126354E-04
6.172718E+03	1.768683E-02	1.124050E-04
6.182532E+03	1.766084E-02	1.121928E-04
6.192345E+03	1.763850E-02	1.120022E-04
6.202159E+03	1.762002E-02	1.118347E-04
6.211973E+03	1.760586E-02	1.116930E-04
6.221786E+03	1.759695E-02	1.115829E-04
6.231600E+03	1.759305E-02	1.115027E-04
6.241413E+03	1.759469E-02	1.114557E-04
6.251227E+03	1.760200E-02	1.114427E-04
6.261040E+03	1.761477E-02	1.114621E-04
6.270854E+03	1.763352E-02	1.115171E-04
6.280667E+03	1.765784E-02	1.116050E-04
6.290481E+03	1.768749E-02	1.117242E-04
6.300294E+03	1.772240E-02	1.118741E-04
6.310108E+03	1.776211E-02	1.120516E-04
6.319921E+03	1.780605E-02	1.122531E-04
6.329735E+03	1.785383E-02	1.124759E-04
6.339549E+03	1.790436E-02	1.127132E-04
6.349362E+03	1.795734E-02	1.129628E-04
6.359176E+03	1.801117E-02	1.132147E-04
6.368989E+03	1.806537E-02	1.134659E-04
6.378803E+03	1.811848E-02	1.137070E-04
6.388616E+03	1.816928E-02	1.139303E-04
6.398430E+03	1.821682E-02	1.141300E-04
6.408243E+03	1.825981E-02	1.142979E-04
6.418057E+03	1.829667E-02	1.144241E-04
6.427870E+03	1.832642E-02	1.145028E-04
6.437684E+03	1.834788E-02	1.145265E-04
6.447498E+03	1.835988E-02	1.144882E-04
6.457311E+03	1.836107E-02	1.143795E-04
6.467125E+03	1.835081E-02	1.141967E-04
6.476938E+03	1.832865E-02	1.139372E-04
6.486752E+03	1.829293E-02	1.135910E-04
6.496565E+03	1.824416E-02	1.131615E-04
6.506379E+03	1.818169E-02	1.126449E-04
6.516192E+03	1.810503E-02	1.120387E-04
6.526006E+03	1.801455E-02	1.113454E-04
6.535819E+03	1.791011E-02	1.105645E-04
6.545633E+03	1.779273E-02	1.097028E-04
6.555447E+03	1.766195E-02	1.087577E-04
6.565260E+03	1.751939E-02	1.077395E-04
6.575074E+03	1.736516E-02	1.066496E-04
6.584887E+03	1.720015E-02	1.054935E-04
6.594701E+03	1.702564E-02	1.042795E-04
6.604514E+03	1.684232E-02	1.030122E-04
6.614328E+03	1.665158E-02	1.017005E-04
6.624141E+03	1.645389E-02	1.003475E-04
6.633955E+03	1.625098E-02	9.896405E-05
6.643768E+03	1.604363E-02	9.755523E-05
6.653582E+03	1.583323E-02	9.612964E-05
6.663395E+03	1.562020E-02	9.469016E-05
6.673209E+03	1.540588E-02	9.324494E-05
6.683023E+03	1.519119E-02	9.179987E-05
6.692836E+03	1.497704E-02	9.036051E-05
6.702650E+03	1.476424E-02	8.893194E-05
6.712463E+03	1.455357E-02	8.751882E-05
6.722277E+03	1.434544E-02	8.612372E-05
6.732090E+03	1.414075E-02	8.475214E-05
6.741904E+03	1.393979E-02	8.340580E-05
6.751717E+03	1.374331E-02	8.208925E-05
6.761531E+03	1.355177E-02	8.080510E-05
6.771344E+03	1.336495E-02	7.955215E-05
6.781158E+03	1.318400E-02	7.833711E-05
6.790972E+03	1.300836E-02	7.715658E-05
6.800785E+03	1.283876E-02	7.601491E-05
6.810599E+03	1.267482E-02	7.490975E-05
6.820412E+03	1.251718E-02	7.384481E-05
6.830226E+03	1.236566E-02	7.281889E-05
6.840039E+03	1.222029E-02	7.183211E-05
6.849853E+03	1.208082E-02	7.088288E-05
6.859666E+03	1.194773E-02	6.997399E-05
6.869480E+03	1.182048E-02	6.910207E-05
6.879293E+03	1.169924E-02	6.826815E-05
6.889107E+03	1.158392E-02	6.747159E-05
6.898921E+03	1.147420E-02	6.671032E-05
6.908734E+03	1.136994E-02	6.598360E-05
6.918548E+03	1.127128E-02	6.529204E-05
6.928361E+03	1.117809E-02	6.463486E-05
6.938175E+03	1.108999E-02	6.400982E-05
6.947988E+03	1.100685E-02	6.341606E-05
6.957802E+03	1.092853E-02	6.285279E-05
6.967615E+03	1.085492E-02	6.231921E-05
6.977429E+03	1.078587E-02	6.181448E-05
6.987242E+03	1.072150E-02	6.133926E-05
6.997056E+03	1.066121E-02	6.089012E-05
7.006869E+03	1.060513E-02	6.046770E-05
7.016683E+03	1.055339E-02	6.007278E-05
7.026497E+03	1.050518E-02	5.970071E-05
7.036310E+03	1.046112E-02	5.935504E-05
7.046124E+03	1.042065E-02	5.903261E-05
7.055937E+03	1.038395E-02	5.873442E-05
7.065751E+03	1.035071E-02	5.845876E-05
7.075564E+03	1.032112E-02	5.820669E-05
7.085378E+03	1.029489E-02	5.797671E-05
7.095191E+03	1.027199E-02	5.776858E-05
7.105005E+03	1.025263E-02	5.758357E-05
7.114818E+03	1.023654E-02	5.742027E-05
7.124632E+03	1.022372E-02	5.727870E-05
7.134446E+03	1.021440E-02	5.716019E-05
7.144259E+03	1.020808E-02	5.706215E-05
7.154073E+03	1.020504E-02	5.698607E-05
7.163886E+03	1.020525E-02	5.693201E-05
7.173700E+03	1.020873E-02	5.690013E-05
7.183513E+03	1.021549E-02	5.689061E-05
7.193327E+03	1.022554E-02	5.690361E-05
7.203140E+03	1.023863E-02	5.693792E-05
7.212954E+03	1.025476E-02	5.699369E-05
7.222767E+03	1.027417E-02	5.707237E-05
7.232581E+03	1.029685E-02	5.717408E-05
7.242395E+03	1.032228E-02	5.729613E-05
7.252208E+03	1.035091E-02	5.744121E-05
7.262022E+03	1.038244E-02	5.760783E-05
7.271835E+03	1.041681E-02	5.779589E-05
7.281649E+03	1.045367E-02	5.800367E-05
7.291462E+03	1.049343E-02	5.823369E-05
7.301276E+03	1.053545E-02	5.848260E-05
7.311089E+03	1.057983E-02	5.875130E-05
7.320903E+03	1.062640E-02	5.903901E-05
7.330716E+03	1.067471E-02	5.934355E-05
7.340530E+03	1.072506E-02	5.966684E-05
7.350343E+03	1.077666E-02	6.000485E-05
7.360157E+03	1.082980E-02	6.035941E-05
7.369971E+03	1.088392E-02	6.072772E-05
7.379784E+03	1.093871E-02	6.110835E-05
7.389598E+03	1.099413E-02	6.150135E-05
7.399411E+03	1.104957E-02	6.190360E-05
7.409225E+03	1.110498E-02	6.231516E-05
7.419038E+03	1.116004E-02	6.273441E-05
7.428852E+03	1.121443E-02	6.315986E-05
7.438665E+03	1.126788E-02	6.359020E-05
7.448479E+03	1.131986E-02	6.402260E-05
7.458292E+03	1.137082E-02	6.445957E-05
7.468106E+03	1.142047E-02	6.489936E-05
7.477920E+03	1.146913E-02	6.534379E-05
7.487733E+03	1.151572E-02	6.578659E-05
7.497547E+03	1.156032E-02	6.622811E-05
7.507360E+03	1.160226E-02	6.666433E-05
7.517174E+03	1.164157E-02	6.709534E-05
7.526987E+03	1.167776E-02	6.751795E-05
7.536801E+03	1.171099E-02	6.793301E-05
7.546614E+03	1.174086E-02	6.833780E-05
7.556428E+03	1.176730E-02	6.873169E-05
7.566241E+03	1.179058E-02	6.911596E-05
7.576055E+03	1.181070E-02	6.949028E-05
7.585868E+03	1.182734E-02	6.985241E-05
7.595682E+03	1.184083E-02	7.020402E-05
7.605496E+03	1.185088E-02	7.054293E-05
7.615309E+03	1.185784E-02	7.087097E-05
