#wls	flux	fluxerr
1.570167E+03	2.454711E-04	2.421428E-05
1.609421E+03	2.489809E-04	2.446704E-05
1.648675E+03	2.524098E-04	2.470679E-05
1.687929E+03	2.554051E-04	2.489911E-05
1.727184E+03	2.582472E-04	2.507157E-05
1.766438E+03	2.605844E-04	2.519023E-05
1.805692E+03	2.623504E-04	2.524923E-05
1.844946E+03	2.633341E-04	2.522896E-05
1.884200E+03	2.633142E-04	2.510926E-05
1.923454E+03	2.621332E-04	2.487650E-05
1.962709E+03	2.599492E-04	2.454718E-05
2.001963E+03	2.571507E-04	2.415925E-05
2.041217E+03	2.549566E-04	2.382757E-05
2.080471E+03	2.549927E-04	2.370239E-05
2.119725E+03	2.588024E-04	2.392297E-05
2.158979E+03	2.670917E-04	2.454817E-05
2.198234E+03	2.795561E-04	2.554273E-05
2.237488E+03	2.949918E-04	2.679006E-05
2.276742E+03	3.124144E-04	2.819577E-05
2.315996E+03	3.308380E-04	2.966740E-05
2.355250E+03	3.497513E-04	3.115691E-05
2.394504E+03	3.689367E-04	3.264342E-05
2.433759E+03	3.884787E-04	3.413307E-05
2.473013E+03	4.083239E-04	3.561975E-05
2.512267E+03	4.287016E-04	3.712192E-05
2.551521E+03	4.496093E-04	3.863752E-05
2.590775E+03	4.712969E-04	4.018595E-05
2.630029E+03	4.938862E-04	4.177506E-05
2.669284E+03	5.173572E-04	4.340042E-05
2.708538E+03	5.422280E-04	4.510235E-05
2.747792E+03	5.681967E-04	4.685199E-05
2.787046E+03	5.957900E-04	4.868901E-05
2.826300E+03	6.249797E-04	5.060647E-05
2.865554E+03	6.560250E-04	5.262051E-05
2.904809E+03	6.888981E-04	5.472355E-05
2.944063E+03	7.241766E-04	5.695560E-05
2.953876E+03	7.332883E-04	5.752641E-05
2.963690E+03	7.427834E-04	5.812300E-05
2.973503E+03	7.522015E-04	5.870922E-05
2.983317E+03	7.618605E-04	5.930981E-05
2.993131E+03	7.717880E-04	5.992678E-05
3.002944E+03	7.818566E-04	6.055007E-05
3.012758E+03	7.922190E-04	6.119137E-05
3.022571E+03	8.028717E-04	6.185021E-05
3.032385E+03	8.136547E-04	6.251409E-05
3.042198E+03	8.247227E-04	6.319477E-05
3.052012E+03	8.360756E-04	6.389206E-05
3.061825E+03	8.475511E-04	6.459338E-05
3.071639E+03	8.593080E-04	6.531070E-05
3.081452E+03	8.713478E-04	6.604395E-05
3.091266E+03	8.835061E-04	6.678049E-05
3.101079E+03	8.961112E-04	6.754499E-05
3.110893E+03	9.088364E-04	6.831257E-05
3.120707E+03	9.220124E-04	6.910793E-05
3.130520E+03	9.353109E-04	6.990623E-05
3.140334E+03	9.488985E-04	7.071979E-05
3.150147E+03	9.627784E-04	7.154863E-05
3.159961E+03	9.771233E-04	7.240535E-05
3.169774E+03	9.915987E-04	7.326491E-05
3.179588E+03	1.006548E-03	7.415251E-05
3.189401E+03	1.021805E-03	7.505562E-05
3.199215E+03	1.037376E-03	7.597444E-05
3.209028E+03	1.053264E-03	7.690904E-05
3.218842E+03	1.069651E-03	7.787232E-05
3.228656E+03	1.086367E-03	7.885173E-05
3.238469E+03	1.103596E-03	7.986032E-05
3.248283E+03	1.121170E-03	8.088553E-05
3.258096E+03	1.139273E-03	8.194047E-05
3.267910E+03	1.157737E-03	8.301261E-05
3.277723E+03	1.176929E-03	8.412802E-05
3.287537E+03	1.196321E-03	8.524846E-05
3.297350E+03	1.216464E-03	8.641303E-05
3.307164E+03	1.237190E-03	8.760925E-05
3.316977E+03	1.258512E-03	8.883772E-05
3.326791E+03	1.280445E-03	9.009892E-05
3.336605E+03	1.303001E-03	9.139346E-05
3.346418E+03	1.326197E-03	9.272196E-05
3.356232E+03	1.350049E-03	9.408507E-05
3.366045E+03	1.374762E-03	9.549669E-05
3.375859E+03	1.400359E-03	9.695769E-05
3.385672E+03	1.426477E-03	9.844253E-05
3.395486E+03	1.453712E-03	9.999178E-05
3.405299E+03	1.481705E-03	1.015800E-04
3.415113E+03	1.510866E-03	1.032348E-04
3.424926E+03	1.540836E-03	1.049309E-04
3.434740E+03	1.571837E-03	1.066827E-04
3.444553E+03	1.603899E-03	1.084916E-04
3.454367E+03	1.637254E-03	1.103725E-04
3.464181E+03	1.671537E-03	1.123000E-04
3.473994E+03	1.707386E-03	1.143163E-04
3.483808E+03	1.744439E-03	1.163959E-04
3.493621E+03	1.782735E-03	1.185408E-04
3.503435E+03	1.822521E-03	1.207664E-04
3.513248E+03	1.864050E-03	1.230885E-04
3.523062E+03	1.906958E-03	1.254818E-04
3.532875E+03	1.951502E-03	1.279624E-04
3.542689E+03	1.997944E-03	1.305462E-04
3.552502E+03	2.046132E-03	1.332220E-04
3.562316E+03	2.096119E-03	1.359922E-04
3.572130E+03	2.148180E-03	1.388732E-04
3.581943E+03	2.202379E-03	1.418679E-04
3.591757E+03	2.258557E-03	1.449645E-04
3.601570E+03	2.316998E-03	1.481800E-04
3.611384E+03	2.377989E-03	1.515311E-04
3.621197E+03	2.441375E-03	1.550063E-04
3.631011E+03	2.507219E-03	1.586080E-04
3.640824E+03	2.575582E-03	1.623384E-04
3.650638E+03	2.646989E-03	1.662289E-04
3.660451E+03	2.721041E-03	1.702525E-04
3.670265E+03	2.798026E-03	1.744255E-04
3.680079E+03	2.877759E-03	1.787345E-04
3.689892E+03	2.961005E-03	1.832251E-04
3.699706E+03	3.047088E-03	1.878533E-04
3.709519E+03	3.136524E-03	1.926491E-04
3.719333E+03	3.229094E-03	1.975970E-04
3.729146E+03	3.325309E-03	2.027262E-04
3.738960E+03	3.424674E-03	2.080044E-04
3.748773E+03	3.527424E-03	2.134440E-04
3.758587E+03	3.633789E-03	2.190567E-04
3.768400E+03	3.743467E-03	2.248223E-04
3.778214E+03	3.856389E-03	2.307346E-04
3.788027E+03	3.972727E-03	2.368023E-04
3.797841E+03	4.092371E-03	2.430167E-04
3.807655E+03	4.215183E-03	2.493680E-04
3.817468E+03	4.340995E-03	2.558445E-04
3.827282E+03	4.469610E-03	2.624330E-04
3.837095E+03	4.601076E-03	2.691352E-04
3.846909E+03	4.735137E-03	2.759346E-04
3.856722E+03	4.871221E-03	2.827970E-04
3.866536E+03	5.009283E-03	2.897190E-04
3.876349E+03	5.149255E-03	2.966960E-04
3.886163E+03	5.290177E-03	3.036724E-04
3.895976E+03	5.432207E-03	3.106572E-04
3.905790E+03	5.574909E-03	3.176256E-04
3.915604E+03	5.717527E-03	3.245351E-04
3.925417E+03	5.859877E-03	3.313761E-04
3.935231E+03	6.001461E-03	3.381215E-04
3.945044E+03	6.141788E-03	3.447453E-04
3.954858E+03	6.280658E-03	3.512377E-04
3.964671E+03	6.416997E-03	3.575408E-04
3.974485E+03	6.551223E-03	3.636803E-04
3.984298E+03	6.682292E-03	3.696008E-04
3.994112E+03	6.809801E-03	3.752829E-04
4.003925E+03	6.933953E-03	3.807410E-04
4.013739E+03	7.053835E-03	3.859280E-04
4.023553E+03	7.169733E-03	3.908632E-04
4.033366E+03	7.281127E-03	3.955216E-04
4.043180E+03	7.387551E-03	3.998818E-04
4.052993E+03	7.489731E-03	4.039867E-04
4.062807E+03	7.586742E-03	4.077901E-04
4.072620E+03	7.679139E-03	4.113259E-04
4.082434E+03	7.766959E-03	4.145993E-04
4.092247E+03	7.850018E-03	4.176044E-04
4.102061E+03	7.928470E-03	4.203529E-04
4.111874E+03	8.002784E-03	4.228731E-04
4.121688E+03	8.073195E-03	4.251806E-04
4.131501E+03	8.139725E-03	4.272796E-04
4.141315E+03	8.202699E-03	4.291900E-04
4.151129E+03	8.262725E-03	4.309465E-04
4.160942E+03	8.320174E-03	4.325709E-04
4.170756E+03	8.375203E-03	4.340735E-04
4.180569E+03	8.428225E-03	4.354778E-04
4.190383E+03	8.479917E-03	4.368206E-04
4.200196E+03	8.530474E-03	4.381137E-04
4.210010E+03	8.580328E-03	4.393805E-04
4.219823E+03	8.629915E-03	4.406448E-04
4.229637E+03	8.679447E-03	4.419184E-04
4.239450E+03	8.729784E-03	4.432460E-04
4.249264E+03	8.780888E-03	4.446265E-04
4.259078E+03	8.833367E-03	4.460913E-04
4.268891E+03	8.887160E-03	4.476379E-04
4.278705E+03	8.943262E-03	4.493168E-04
4.288518E+03	9.001354E-03	4.511124E-04
4.298332E+03	9.061749E-03	4.530407E-04
4.308145E+03	9.125136E-03	4.551364E-04
4.317959E+03	9.191427E-03	4.573954E-04
4.327772E+03	9.260987E-03	4.598362E-04
4.337586E+03	9.334353E-03	4.624857E-04
4.347399E+03	9.411434E-03	4.653394E-04
4.357213E+03	9.492720E-03	4.684219E-04
4.367026E+03	9.578447E-03	4.717452E-04
4.376840E+03	9.668653E-03	4.753114E-04
4.386654E+03	9.763517E-03	4.791297E-04
4.396467E+03	9.863379E-03	4.832173E-04
4.406281E+03	9.967980E-03	4.875622E-04
4.416094E+03	1.007758E-02	4.921774E-04
4.425908E+03	1.019203E-02	4.970554E-04
4.435721E+03	1.031151E-02	5.022047E-04
4.445535E+03	1.043578E-02	5.076138E-04
4.455348E+03	1.056440E-02	5.132607E-04
4.465162E+03	1.069742E-02	5.191484E-04
4.474975E+03	1.083432E-02	5.252514E-04
4.484789E+03	1.097472E-02	5.315513E-04
4.494603E+03	1.111837E-02	5.380372E-04
4.504416E+03	1.126485E-02	5.446881E-04
4.514230E+03	1.141367E-02	5.514817E-04
4.524043E+03	1.156453E-02	5.584034E-04
4.533857E+03	1.171658E-02	5.654126E-04
4.543670E+03	1.186982E-02	5.725101E-04
4.553484E+03	1.202339E-02	5.796554E-04
4.563297E+03	1.217679E-02	5.868243E-04
4.573111E+03	1.232988E-02	5.940105E-04
4.582924E+03	1.248180E-02	6.011741E-04
4.592738E+03	1.263230E-02	6.083023E-04
4.602552E+03	1.278093E-02	6.153745E-04
4.612365E+03	1.292745E-02	6.223794E-04
4.622179E+03	1.307114E-02	6.292822E-04
4.631992E+03	1.321197E-02	6.360825E-04
4.641806E+03	1.334946E-02	6.427560E-04
4.651619E+03	1.348326E-02	6.492873E-04
4.661433E+03	1.361310E-02	6.556619E-04
4.671246E+03	1.373883E-02	6.618732E-04
4.681060E+03	1.386000E-02	6.678990E-04
4.690873E+03	1.397631E-02	6.737240E-04
4.700687E+03	1.408761E-02	6.793413E-04
4.710500E+03	1.419325E-02	6.847184E-04
4.720314E+03	1.429323E-02	6.898542E-04
4.730128E+03	1.438683E-02	6.947140E-04
4.739941E+03	1.447402E-02	6.992946E-04
4.749755E+03	1.455421E-02	7.035669E-04
4.759568E+03	1.462716E-02	7.075173E-04
4.769382E+03	1.469273E-02	7.111388E-04
4.779195E+03	1.475047E-02	7.144077E-04
4.789009E+03	1.480009E-02	7.173084E-04
4.798822E+03	1.484130E-02	7.198250E-04
4.808636E+03	1.487381E-02	7.219419E-04
4.818449E+03	1.489754E-02	7.236535E-04
4.828263E+03	1.491211E-02	7.249392E-04
4.838077E+03	1.491734E-02	7.257885E-04
4.847890E+03	1.491313E-02	7.261942E-04
4.857704E+03	1.489960E-02	7.261604E-04
4.867517E+03	1.487679E-02	7.256863E-04
4.877331E+03	1.484466E-02	7.247683E-04
4.887144E+03	1.480357E-02	7.234216E-04
4.896958E+03	1.475365E-02	7.216508E-04
4.906771E+03	1.469577E-02	7.194953E-04
4.916585E+03	1.462990E-02	7.169524E-04
4.926398E+03	1.455704E-02	7.140690E-04
4.936212E+03	1.447749E-02	7.108579E-04
4.946026E+03	1.439237E-02	7.073716E-04
4.955839E+03	1.430209E-02	7.036291E-04
4.965653E+03	1.420769E-02	6.996803E-04
4.975466E+03	1.410983E-02	6.955557E-04
4.985280E+03	1.400959E-02	6.913079E-04
4.995093E+03	1.390781E-02	6.869763E-04
5.004907E+03	1.380529E-02	6.826006E-04
5.014720E+03	1.370300E-02	6.782274E-04
5.024534E+03	1.360172E-02	6.738944E-04
5.034347E+03	1.350248E-02	6.696525E-04
5.044161E+03	1.340584E-02	6.655298E-04
5.053974E+03	1.331275E-02	6.615722E-04
5.063788E+03	1.322377E-02	6.578085E-04
5.073602E+03	1.313944E-02	6.542654E-04
5.083415E+03	1.306048E-02	6.509783E-04
5.093229E+03	1.298723E-02	6.479653E-04
5.103042E+03	1.291998E-02	6.452411E-04
5.112856E+03	1.285920E-02	6.428291E-04
5.122669E+03	1.280499E-02	6.407356E-04
5.132483E+03	1.275739E-02	6.389630E-04
5.142296E+03	1.271663E-02	6.375226E-04
5.152110E+03	1.268258E-02	6.364096E-04
5.161923E+03	1.265520E-02	6.356218E-04
5.171737E+03	1.263425E-02	6.351474E-04
5.181551E+03	1.261955E-02	6.349786E-04
5.191364E+03	1.261088E-02	6.351046E-04
5.201178E+03	1.260785E-02	6.355057E-04
5.210991E+03	1.261014E-02	6.361669E-04
5.220805E+03	1.261741E-02	6.370708E-04
5.230618E+03	1.262928E-02	6.381988E-04
5.240432E+03	1.264512E-02	6.395186E-04
5.250245E+03	1.266461E-02	6.410149E-04
5.260059E+03	1.268720E-02	6.426598E-04
5.269872E+03	1.271246E-02	6.444306E-04
5.279686E+03	1.273994E-02	6.463055E-04
5.289500E+03	1.276895E-02	6.482486E-04
5.299313E+03	1.279918E-02	6.502446E-04
5.309127E+03	1.283010E-02	6.522659E-04
5.318940E+03	1.286132E-02	6.542926E-04
5.328754E+03	1.289221E-02	6.562923E-04
5.338567E+03	1.292272E-02	6.582614E-04
5.348381E+03	1.295215E-02	6.601646E-04
5.358194E+03	1.298037E-02	6.619949E-04
5.368008E+03	1.300705E-02	6.637347E-04
5.377821E+03	1.303203E-02	6.653750E-04
5.387635E+03	1.305503E-02	6.669022E-04
5.397448E+03	1.307601E-02	6.683123E-04
5.407262E+03	1.309491E-02	6.696028E-04
5.417076E+03	1.311176E-02	6.707743E-04
5.426889E+03	1.312622E-02	6.718088E-04
5.436703E+03	1.313839E-02	6.727110E-04
5.446516E+03	1.314827E-02	6.734806E-04
5.456330E+03	1.315592E-02	6.741195E-04
5.466143E+03	1.316128E-02	6.746249E-04
5.475957E+03	1.316461E-02	6.750092E-04
5.485770E+03	1.316604E-02	6.752793E-04
5.495584E+03	1.316564E-02	6.754379E-04
5.505397E+03	1.316360E-02	6.754949E-04
5.515211E+03	1.316030E-02	6.754688E-04
5.525025E+03	1.315571E-02	6.753584E-04
5.534838E+03	1.315010E-02	6.751771E-04
5.544652E+03	1.314373E-02	6.749381E-04
5.554465E+03	1.313689E-02	6.746555E-04
5.564279E+03	1.312982E-02	6.743425E-04
5.574092E+03	1.312254E-02	6.739991E-04
5.583906E+03	1.311543E-02	6.736451E-04
5.593719E+03	1.310860E-02	6.732859E-04
5.603533E+03	1.310228E-02	6.729330E-04
5.613346E+03	1.309668E-02	6.725975E-04
5.623160E+03	1.309176E-02	6.722763E-04
5.632974E+03	1.308769E-02	6.719789E-04
5.642787E+03	1.308466E-02	6.717144E-04
5.652601E+03	1.308270E-02	6.714844E-04
5.662414E+03	1.308195E-02	6.712957E-04
5.672228E+03	1.308243E-02	6.711488E-04
5.682041E+03	1.308422E-02	6.710488E-04
5.691855E+03	1.308730E-02	6.709938E-04
5.701668E+03	1.309161E-02	6.709799E-04
5.711482E+03	1.309730E-02	6.710156E-04
5.721295E+03	1.310400E-02	6.710817E-04
5.731109E+03	1.311181E-02	6.711823E-04
5.740922E+03	1.312053E-02	6.713076E-04
5.750736E+03	1.313005E-02	6.714516E-04
5.760550E+03	1.313998E-02	6.715944E-04
5.770363E+03	1.315013E-02	6.717261E-04
5.780177E+03	1.316030E-02	6.718356E-04
5.789990E+03	1.317009E-02	6.719035E-04
5.799804E+03	1.317900E-02	6.719036E-04
5.809617E+03	1.318684E-02	6.718268E-04
5.819431E+03	1.319321E-02	6.716518E-04
5.829244E+03	1.319779E-02	6.713633E-04
5.839058E+03	1.319994E-02	6.709288E-04
5.848871E+03	1.319965E-02	6.703475E-04
5.858685E+03	1.319645E-02	6.695963E-04
5.868499E+03	1.319004E-02	6.686605E-04
5.878312E+03	1.318031E-02	6.675348E-04
5.888126E+03	1.316720E-02	6.662173E-04
5.897939E+03	1.315051E-02	6.646972E-04
5.907753E+03	1.313043E-02	6.629859E-04
5.917566E+03	1.310691E-02	6.610809E-04
5.927380E+03	1.308018E-02	6.589948E-04
5.937193E+03	1.305056E-02	6.567444E-04
5.947007E+03	1.301819E-02	6.543374E-04
5.956820E+03	1.298363E-02	6.518027E-04
5.966634E+03	1.294725E-02	6.491596E-04
5.976447E+03	1.290948E-02	6.464296E-04
5.986261E+03	1.287100E-02	6.436478E-04
5.996075E+03	1.283206E-02	6.408274E-04
6.005888E+03	1.279365E-02	6.380172E-04
6.015702E+03	1.275593E-02	6.352261E-04
6.025515E+03	1.271991E-02	6.325040E-04
6.035329E+03	1.268589E-02	6.298658E-04
6.045142E+03	1.265464E-02	6.273498E-04
6.054956E+03	1.262671E-02	6.249824E-04
6.064769E+03	1.260286E-02	6.228012E-04
6.074583E+03	1.258351E-02	6.208259E-04
6.084396E+03	1.256957E-02	6.190997E-04
6.094210E+03	1.256141E-02	6.176413E-04
6.104024E+03	1.255972E-02	6.164816E-04
6.113837E+03	1.256536E-02	6.156620E-04
6.123651E+03	1.257898E-02	6.152129E-04
6.133464E+03	1.260139E-02	6.151709E-04
6.143278E+03	1.263355E-02	6.155809E-04
6.153091E+03	1.267619E-02	6.164761E-04
6.162905E+03	1.273044E-02	6.179078E-04
6.172718E+03	1.279693E-02	6.199034E-04
6.182532E+03	1.287692E-02	6.225200E-04
6.192345E+03	1.297106E-02	6.257853E-04
6.202159E+03	1.308040E-02	6.297449E-04
6.211973E+03	1.320600E-02	6.344443E-04
6.221786E+03	1.334865E-02	6.399161E-04
6.231600E+03	1.350956E-02	6.462120E-04
6.241413E+03	1.368937E-02	6.533564E-04
6.251227E+03	1.388913E-02	6.613922E-04
6.261040E+03	1.410985E-02	6.703600E-04
6.270854E+03	1.435221E-02	6.802839E-04
6.280667E+03	1.461709E-02	6.911975E-04
6.290481E+03	1.490498E-02	7.031151E-04
6.300294E+03	1.521637E-02	7.160504E-04
6.310108E+03	1.555173E-02	7.300161E-04
6.319921E+03	1.591118E-02	7.450076E-04
6.329735E+03	1.629421E-02	7.609918E-04
6.339549E+03	1.670052E-02	7.779434E-04
6.349362E+03	1.712906E-02	7.958046E-04
6.359176E+03	1.757857E-02	8.145060E-04
6.368989E+03	1.804709E-02	8.339478E-04
6.378803E+03	1.853234E-02	8.540158E-04
6.388616E+03	1.903128E-02	8.745613E-04
6.398430E+03	1.954004E-02	8.954002E-04
6.408243E+03	2.005455E-02	9.163406E-04
6.418057E+03	2.056994E-02	9.371556E-04
6.427870E+03	2.108075E-02	9.575957E-04
6.437684E+03	2.158104E-02	9.773914E-04
6.447498E+03	2.206423E-02	9.962473E-04
6.457311E+03	2.252414E-02	1.013892E-03
6.467125E+03	2.295383E-02	1.030020E-03
6.476938E+03	2.334636E-02	1.044334E-03
6.486752E+03	2.369561E-02	1.056574E-03
6.496565E+03	2.399543E-02	1.066485E-03
6.506379E+03	2.424087E-02	1.073869E-03
6.516192E+03	2.442763E-02	1.078557E-03
6.526006E+03	2.455187E-02	1.080409E-03
6.535819E+03	2.461202E-02	1.079381E-03
6.545633E+03	2.460660E-02	1.075438E-03
6.555447E+03	2.453647E-02	1.068648E-03
6.565260E+03	2.440259E-02	1.059083E-03
6.575074E+03	2.420785E-02	1.046899E-03
6.584887E+03	2.395587E-02	1.032280E-03
6.594701E+03	2.365081E-02	1.015433E-03
6.604514E+03	2.329780E-02	9.966054E-04
6.614328E+03	2.290246E-02	9.760601E-04
6.624141E+03	2.247096E-02	9.540819E-04
6.633955E+03	2.200884E-02	9.309241E-04
6.643768E+03	2.152239E-02	9.068688E-04
6.653582E+03	2.101749E-02	8.821772E-04
6.663395E+03	2.049951E-02	8.570843E-04
6.673209E+03	1.997394E-02	8.318275E-04
6.683023E+03	1.944535E-02	8.066026E-04
6.692836E+03	1.891810E-02	7.815930E-04
6.702650E+03	1.839625E-02	7.569676E-04
6.712463E+03	1.788272E-02	7.328449E-04
6.722277E+03	1.738057E-02	7.093480E-04
6.732090E+03	1.689221E-02	6.865702E-04
6.741904E+03	1.641936E-02	6.645766E-04
6.751717E+03	1.596377E-02	6.434310E-04
6.761531E+03	1.552640E-02	6.231651E-04
6.771344E+03	1.510829E-02	6.038122E-04
6.781158E+03	1.470961E-02	5.853711E-04
6.790972E+03	1.433104E-02	5.678594E-04
6.800785E+03	1.397231E-02	5.512577E-04
6.810599E+03	1.363349E-02	5.355599E-04
6.820412E+03	1.331434E-02	5.207473E-04
6.830226E+03	1.301434E-02	5.067903E-04
6.840039E+03	1.273318E-02	4.936682E-04
6.849853E+03	1.247000E-02	4.813389E-04
6.859666E+03	1.222452E-02	4.697833E-04
6.869480E+03	1.199592E-02	4.589618E-04
6.879293E+03	1.178352E-02	4.488409E-04
6.889107E+03	1.158662E-02	4.393863E-04
6.898921E+03	1.140435E-02	4.305584E-04
6.908734E+03	1.123614E-02	4.223286E-04
6.918548E+03	1.108113E-02	4.146586E-04
6.928361E+03	1.093860E-02	4.075157E-04
6.938175E+03	1.080784E-02	4.008683E-04
6.947988E+03	1.068830E-02	3.946909E-04
6.957802E+03	1.057905E-02	3.889442E-04
6.967615E+03	1.047954E-02	3.836045E-04
6.977429E+03	1.038915E-02	3.786450E-04
6.987242E+03	1.030726E-02	3.740397E-04
6.997056E+03	1.023301E-02	3.697546E-04
7.006869E+03	1.016610E-02	3.657756E-04
7.016683E+03	1.010583E-02	3.620760E-04
7.026497E+03	1.005168E-02	3.586347E-04
7.036310E+03	1.000326E-02	3.554363E-04
7.046124E+03	9.959826E-03	3.524527E-04
7.055937E+03	9.920887E-03	3.496660E-04
7.065751E+03	9.886117E-03	3.470636E-04
7.075564E+03	9.855078E-03	3.446299E-04
7.085378E+03	9.827201E-03	3.423447E-04
7.095191E+03	9.802211E-03	3.401983E-04
7.105005E+03	9.779563E-03	3.381721E-04
7.114818E+03	9.758758E-03	3.362494E-04
7.124632E+03	9.739670E-03	3.344265E-04
7.134446E+03	9.721820E-03	3.326878E-04
7.144259E+03	9.704862E-03	3.310225E-04
7.154073E+03	9.688471E-03	3.294205E-04
7.163886E+03	9.672219E-03	3.278688E-04
7.173700E+03	9.655944E-03	3.263631E-04
7.183513E+03	9.639385E-03	3.248962E-04
7.193327E+03	9.622287E-03	3.234609E-04
7.203140E+03	9.604306E-03	3.220474E-04
7.212954E+03	9.585371E-03	3.206547E-04
7.222767E+03	9.565178E-03	3.192745E-04
7.232581E+03	9.543714E-03	3.179079E-04
7.242395E+03	9.520853E-03	3.165522E-04
7.252208E+03	9.496370E-03	3.152016E-04
7.262022E+03	9.470333E-03	3.138596E-04
7.271835E+03	9.442701E-03	3.125264E-04
7.281649E+03	9.413330E-03	3.111984E-04
7.291462E+03	9.382492E-03	3.098858E-04
7.301276E+03	9.349967E-03	3.085825E-04
7.311089E+03	9.315941E-03	3.072955E-04
7.320903E+03	9.280627E-03	3.060327E-04
7.330716E+03	9.244000E-03	3.047939E-04
7.340530E+03	9.206177E-03	3.035837E-04
7.350343E+03	9.167295E-03	3.024070E-04
7.360157E+03	9.127624E-03	3.012732E-04
7.369971E+03	9.087204E-03	3.001837E-04
7.379784E+03	9.046192E-03	2.991440E-04
7.389598E+03	9.004759E-03	2.981599E-04
7.399411E+03	8.963219E-03	2.972416E-04
7.409225E+03	8.921605E-03	2.963894E-04
7.419038E+03	8.880103E-03	2.956076E-04
7.428852E+03	8.839003E-03	2.949039E-04
7.438665E+03	8.798335E-03	2.942774E-04
7.448479E+03	8.758389E-03	2.937359E-04
7.458292E+03	8.719296E-03	2.932819E-04
7.468106E+03	8.681193E-03	2.929183E-04
7.477920E+03	8.644195E-03	2.926473E-04
7.487733E+03	8.608409E-03	2.924708E-04
7.497547E+03	8.574060E-03	2.923950E-04
7.507360E+03	8.540979E-03	2.924127E-04
7.517174E+03	8.509609E-03	2.925376E-04
7.526987E+03	8.479754E-03	2.927619E-04
7.536801E+03	8.451571E-03	2.930897E-04
7.546614E+03	8.424951E-03	2.935161E-04
7.556428E+03	8.400158E-03	2.940494E-04
7.566241E+03	8.377066E-03	2.946844E-04
7.576055E+03	8.355786E-03	2.954239E-04
7.585868E+03	8.336158E-03	2.962618E-04
7.595682E+03	8.318276E-03	2.972006E-04
7.605496E+03	8.302087E-03	2.982377E-04
7.615309E+03	8.287545E-03	2.993711E-04
