#wls	flux	fluxerr
1.570167E+03	1.899138E-04	7.011894E-06
1.609421E+03	1.925663E-04	7.090030E-06
1.648675E+03	1.950870E-04	7.162324E-06
1.687929E+03	1.974587E-04	7.228168E-06
1.727184E+03	1.996467E-04	7.286312E-06
1.766438E+03	2.015498E-04	7.333119E-06
1.805692E+03	2.030333E-04	7.363775E-06
1.844946E+03	2.039343E-04	7.372513E-06
1.884200E+03	2.041667E-04	7.356433E-06
1.923454E+03	2.035195E-04	7.308180E-06
1.962709E+03	2.021155E-04	7.232477E-06
2.001963E+03	2.004121E-04	7.145916E-06
2.041217E+03	1.991146E-04	7.073682E-06
2.080471E+03	1.996583E-04	7.066413E-06
2.119725E+03	2.031891E-04	7.163770E-06
2.158979E+03	2.103675E-04	7.387691E-06
2.198234E+03	2.209955E-04	7.729673E-06
2.237488E+03	2.340791E-04	8.153535E-06
2.276742E+03	2.488710E-04	8.632177E-06
2.315996E+03	2.646956E-04	9.141380E-06
2.355250E+03	2.810754E-04	9.664130E-06
2.394504E+03	2.979441E-04	1.019775E-05
2.433759E+03	3.151937E-04	1.073819E-05
2.473013E+03	3.329873E-04	1.129064E-05
2.512267E+03	3.515362E-04	1.186182E-05
2.551521E+03	3.708618E-04	1.245190E-05
2.590775E+03	3.910890E-04	1.306451E-05
2.630029E+03	4.125677E-04	1.371064E-05
2.669284E+03	4.353228E-04	1.439027E-05
2.708538E+03	4.596037E-04	1.511074E-05
2.747792E+03	4.854319E-04	1.587174E-05
2.787046E+03	5.133149E-04	1.668872E-05
2.826300E+03	5.432962E-04	1.756172E-05
2.865554E+03	5.756746E-04	1.849894E-05
2.904809E+03	6.105111E-04	1.950071E-05
2.944063E+03	6.484085E-04	2.058450E-05
2.953876E+03	6.583262E-04	2.086691E-05
2.963690E+03	6.684967E-04	2.115624E-05
2.973503E+03	6.789245E-04	2.145258E-05
2.983317E+03	6.894832E-04	2.175190E-05
2.993131E+03	7.003368E-04	2.205936E-05
3.002944E+03	7.115142E-04	2.237580E-05
3.012758E+03	7.228749E-04	2.269676E-05
3.022571E+03	7.345581E-04	2.302658E-05
3.032385E+03	7.465641E-04	2.336520E-05
3.042198E+03	7.588947E-04	2.371264E-05
3.052012E+03	7.714076E-04	2.406440E-05
3.061825E+03	7.843928E-04	2.442947E-05
3.071639E+03	7.975629E-04	2.479885E-05
3.081452E+03	8.110668E-04	2.517712E-05
3.091266E+03	8.249067E-04	2.556429E-05
3.101079E+03	8.390882E-04	2.596049E-05
3.110893E+03	8.534648E-04	2.636113E-05
3.120707E+03	8.683416E-04	2.677558E-05
3.130520E+03	8.835747E-04	2.719933E-05
3.140334E+03	8.991699E-04	2.763250E-05
3.150147E+03	9.151342E-04	2.807523E-05
3.159961E+03	9.314742E-04	2.852768E-05
3.169774E+03	9.483540E-04	2.899478E-05
3.179588E+03	9.656270E-04	2.947198E-05
3.189401E+03	9.833016E-04	2.995947E-05
3.199215E+03	1.001387E-03	3.045746E-05
3.209028E+03	1.020215E-03	3.097593E-05
3.218842E+03	1.039314E-03	3.150051E-05
3.228656E+03	1.059019E-03	3.204126E-05
3.238469E+03	1.079345E-03	3.259850E-05
3.248283E+03	1.100306E-03	3.317261E-05
3.258096E+03	1.121751E-03	3.375889E-05
3.267910E+03	1.144029E-03	3.436776E-05
3.277723E+03	1.166822E-03	3.498955E-05
3.287537E+03	1.190314E-03	3.562966E-05
3.297350E+03	1.214697E-03	3.629371E-05
3.307164E+03	1.239644E-03	3.697182E-05
3.316977E+03	1.265522E-03	3.767482E-05
3.326791E+03	1.292180E-03	3.839802E-05
3.336605E+03	1.319815E-03	3.914719E-05
3.346418E+03	1.348275E-03	3.991763E-05
3.356232E+03	1.377763E-03	4.071520E-05
3.366045E+03	1.408307E-03	4.154055E-05
3.375859E+03	1.439750E-03	4.238890E-05
3.385672E+03	1.472304E-03	4.326631E-05
3.395486E+03	1.506185E-03	4.417895E-05
3.405299E+03	1.541053E-03	4.511660E-05
3.415113E+03	1.577315E-03	4.609102E-05
3.424926E+03	1.614816E-03	4.709747E-05
3.434740E+03	1.653786E-03	4.814237E-05
3.444553E+03	1.694262E-03	4.922662E-05
3.454367E+03	1.736089E-03	5.034544E-05
3.464181E+03	1.779502E-03	5.150541E-05
3.473994E+03	1.824545E-03	5.270751E-05
3.483808E+03	1.871261E-03	5.395272E-05
3.493621E+03	1.919694E-03	5.524204E-05
3.503435E+03	1.970098E-03	5.658246E-05
3.513248E+03	2.022525E-03	5.797515E-05
3.523062E+03	2.076817E-03	5.941524E-05
3.532875E+03	2.133236E-03	6.090990E-05
3.542689E+03	2.191837E-03	6.246035E-05
3.552502E+03	2.252457E-03	6.406162E-05
3.562316E+03	2.315808E-03	6.573351E-05
3.572130E+03	2.381290E-03	6.745862E-05
3.581943E+03	2.449402E-03	6.925069E-05
3.591757E+03	2.519978E-03	7.110462E-05
3.601570E+03	2.593530E-03	7.303437E-05
3.611384E+03	2.669658E-03	7.502826E-05
3.621197E+03	2.748646E-03	7.709379E-05
3.631011E+03	2.830543E-03	7.923190E-05
3.640824E+03	2.915636E-03	8.145011E-05
3.650638E+03	3.003733E-03	8.374254E-05
3.660451E+03	3.094869E-03	8.610968E-05
3.670265E+03	3.189565E-03	8.856549E-05
3.680079E+03	3.287358E-03	9.109659E-05
3.689892E+03	3.388510E-03	9.370971E-05
3.699706E+03	3.493283E-03	9.641154E-05
3.709519E+03	3.601423E-03	9.919449E-05
3.719333E+03	3.712911E-03	1.020575E-04
3.729146E+03	3.827978E-03	1.050065E-04
3.738960E+03	3.946582E-03	1.080396E-04
3.748773E+03	4.068667E-03	1.111548E-04
3.758587E+03	4.193885E-03	1.143420E-04
3.768400E+03	4.322952E-03	1.176204E-04
3.778214E+03	4.454938E-03	1.209639E-04
3.788027E+03	4.590256E-03	1.243834E-04
3.797841E+03	4.728750E-03	1.278743E-04
3.807655E+03	4.870243E-03	1.314311E-04
3.817468E+03	5.014539E-03	1.350482E-04
3.827282E+03	5.161407E-03	1.387191E-04
3.837095E+03	5.310604E-03	1.424368E-04
3.846909E+03	5.462148E-03	1.462015E-04
3.856722E+03	5.615465E-03	1.499976E-04
3.866536E+03	5.770527E-03	1.538242E-04
3.876349E+03	5.927016E-03	1.576726E-04
3.886163E+03	6.084583E-03	1.615333E-04
3.895976E+03	6.242874E-03	1.653970E-04
3.905790E+03	6.401818E-03	1.692618E-04
3.915604E+03	6.560432E-03	1.731017E-04
3.925417E+03	6.719246E-03	1.769309E-04
3.935231E+03	6.877274E-03	1.807235E-04
3.945044E+03	7.034436E-03	1.844777E-04
3.954858E+03	7.190058E-03	1.881762E-04
3.964671E+03	7.344395E-03	1.918259E-04
3.974485E+03	7.496497E-03	1.954025E-04
3.984298E+03	7.646646E-03	1.989137E-04
3.994112E+03	7.794250E-03	2.023448E-04
4.003925E+03	7.939038E-03	2.056892E-04
4.013739E+03	8.080777E-03	2.089414E-04
4.023553E+03	8.219569E-03	2.121048E-04
4.033366E+03	8.354952E-03	2.151681E-04
4.043180E+03	8.487100E-03	2.181364E-04
4.052993E+03	8.615642E-03	2.210008E-04
4.062807E+03	8.740530E-03	2.237610E-04
4.072620E+03	8.862069E-03	2.264253E-04
4.082434E+03	8.980294E-03	2.289953E-04
4.092247E+03	9.095005E-03	2.314667E-04
4.102061E+03	9.206319E-03	2.338431E-04
4.111874E+03	9.314682E-03	2.361365E-04
4.121688E+03	9.419997E-03	2.383450E-04
4.131501E+03	9.522765E-03	2.404819E-04
4.141315E+03	9.622674E-03	2.425400E-04
4.151129E+03	9.720548E-03	2.445404E-04
4.160942E+03	9.816387E-03	2.464838E-04
4.170756E+03	9.910493E-03	2.483781E-04
4.180569E+03	1.000291E-02	2.502249E-04
4.190383E+03	1.009420E-02	2.520388E-04
4.200196E+03	1.018468E-02	2.538276E-04
4.210010E+03	1.027440E-02	2.555932E-04
4.219823E+03	1.036390E-02	2.573493E-04
4.229637E+03	1.045298E-02	2.590910E-04
4.239450E+03	1.054216E-02	2.608317E-04
4.249264E+03	1.063172E-02	2.625782E-04
4.259078E+03	1.072167E-02	2.643310E-04
4.268891E+03	1.081226E-02	2.660966E-04
4.278705E+03	1.090374E-02	2.678811E-04
4.288518E+03	1.099636E-02	2.696908E-04
4.298332E+03	1.109016E-02	2.715266E-04
4.308145E+03	1.118540E-02	2.733951E-04
4.317959E+03	1.128217E-02	2.752986E-04
4.327772E+03	1.138078E-02	2.772445E-04
4.337586E+03	1.148155E-02	2.792410E-04
4.347399E+03	1.158462E-02	2.812909E-04
4.357213E+03	1.169031E-02	2.834025E-04
4.367026E+03	1.179873E-02	2.855782E-04
4.376840E+03	1.191019E-02	2.878255E-04
4.386654E+03	1.202477E-02	2.901461E-04
4.396467E+03	1.214249E-02	2.925408E-04
4.406281E+03	1.226359E-02	2.950149E-04
4.416094E+03	1.238803E-02	2.975676E-04
4.425908E+03	1.251595E-02	3.002022E-04
4.435721E+03	1.264725E-02	3.029157E-04
4.445535E+03	1.278199E-02	3.057095E-04
4.455348E+03	1.291998E-02	3.085789E-04
4.465162E+03	1.306098E-02	3.115180E-04
4.474975E+03	1.320515E-02	3.145304E-04
4.484789E+03	1.335198E-02	3.176036E-04
4.494603E+03	1.350152E-02	3.207390E-04
4.504416E+03	1.365322E-02	3.239233E-04
4.514230E+03	1.380688E-02	3.271515E-04
4.524043E+03	1.396207E-02	3.304137E-04
4.533857E+03	1.411855E-02	3.337042E-04
4.543670E+03	1.427587E-02	3.370120E-04
4.553484E+03	1.443334E-02	3.403214E-04
4.563297E+03	1.459109E-02	3.436352E-04
4.573111E+03	1.474802E-02	3.469277E-04
4.582924E+03	1.490424E-02	3.502017E-04
4.592738E+03	1.505904E-02	3.534410E-04
4.602552E+03	1.521195E-02	3.566343E-04
4.612365E+03	1.536248E-02	3.597704E-04
4.622179E+03	1.551032E-02	3.628427E-04
4.631992E+03	1.565500E-02	3.658403E-04
4.641806E+03	1.579606E-02	3.687527E-04
4.651619E+03	1.593284E-02	3.715650E-04
4.661433E+03	1.606525E-02	3.742754E-04
4.671246E+03	1.619287E-02	3.768742E-04
4.681060E+03	1.631502E-02	3.793467E-04
4.690873E+03	1.643149E-02	3.816876E-04
4.700687E+03	1.654182E-02	3.838870E-04
4.710500E+03	1.664558E-02	3.859354E-04
4.720314E+03	1.674233E-02	3.878233E-04
4.730128E+03	1.683187E-02	3.895459E-04
4.739941E+03	1.691377E-02	3.910941E-04
4.749755E+03	1.698801E-02	3.924677E-04
4.759568E+03	1.705400E-02	3.936538E-04
4.769382E+03	1.711175E-02	3.946529E-04
4.779195E+03	1.716109E-02	3.954616E-04
4.789009E+03	1.720189E-02	3.960770E-04
4.798822E+03	1.723401E-02	3.964970E-04
4.808636E+03	1.725738E-02	3.967198E-04
4.818449E+03	1.727176E-02	3.967405E-04
4.828263E+03	1.727751E-02	3.965679E-04
4.838077E+03	1.727450E-02	3.961992E-04
4.847890E+03	1.726299E-02	3.956406E-04
4.857704E+03	1.724293E-02	3.948917E-04
4.867517E+03	1.721488E-02	3.939654E-04
4.877331E+03	1.717872E-02	3.928592E-04
4.887144E+03	1.713529E-02	3.915926E-04
4.896958E+03	1.708456E-02	3.901654E-04
4.906771E+03	1.702731E-02	3.885952E-04
4.916585E+03	1.696395E-02	3.868921E-04
4.926398E+03	1.689499E-02	3.850672E-04
4.936212E+03	1.682110E-02	3.831365E-04
4.946026E+03	1.674284E-02	3.811125E-04
4.955839E+03	1.666095E-02	3.790121E-04
4.965653E+03	1.657601E-02	3.768487E-04
4.975466E+03	1.648896E-02	3.746436E-04
4.985280E+03	1.640006E-02	3.724025E-04
4.995093E+03	1.631041E-02	3.701504E-04
5.004907E+03	1.622041E-02	3.678965E-04
5.014720E+03	1.613080E-02	3.656573E-04
5.024534E+03	1.604227E-02	3.634483E-04
5.034347E+03	1.595532E-02	3.612808E-04
5.044161E+03	1.587060E-02	3.591691E-04
5.053974E+03	1.578852E-02	3.571224E-04
5.063788E+03	1.570977E-02	3.551565E-04
5.073602E+03	1.563454E-02	3.532749E-04
5.083415E+03	1.556327E-02	3.514875E-04
5.093229E+03	1.549633E-02	3.498027E-04
5.103042E+03	1.543407E-02	3.482278E-04
5.112856E+03	1.537659E-02	3.467651E-04
5.122669E+03	1.532396E-02	3.454161E-04
5.132483E+03	1.527651E-02	3.441876E-04
5.142296E+03	1.523406E-02	3.430755E-04
5.152110E+03	1.519681E-02	3.420841E-04
5.161923E+03	1.516464E-02	3.412107E-04
5.171737E+03	1.513737E-02	3.404508E-04
5.181551E+03	1.511494E-02	3.398030E-04
5.191364E+03	1.509725E-02	3.392648E-04
5.201178E+03	1.508417E-02	3.388333E-04
5.210991E+03	1.507524E-02	3.384977E-04
5.220805E+03	1.507026E-02	3.382538E-04
5.230618E+03	1.506905E-02	3.380970E-04
5.240432E+03	1.507136E-02	3.380220E-04
5.250245E+03	1.507667E-02	3.380168E-04
5.260059E+03	1.508489E-02	3.380792E-04
5.269872E+03	1.509547E-02	3.381971E-04
5.279686E+03	1.510832E-02	3.383681E-04
5.289500E+03	1.512289E-02	3.385802E-04
5.299313E+03	1.513911E-02	3.388316E-04
5.309127E+03	1.515646E-02	3.391105E-04
5.318940E+03	1.517489E-02	3.394158E-04
5.328754E+03	1.519374E-02	3.397331E-04
5.338567E+03	1.521315E-02	3.400653E-04
5.348381E+03	1.523268E-02	3.404025E-04
5.358194E+03	1.525204E-02	3.407382E-04
5.368008E+03	1.527112E-02	3.410699E-04
5.377821E+03	1.528968E-02	3.413925E-04
5.387635E+03	1.530763E-02	3.417041E-04
5.397448E+03	1.532463E-02	3.419967E-04
5.407262E+03	1.534049E-02	3.422660E-04
5.417076E+03	1.535520E-02	3.425117E-04
5.426889E+03	1.536860E-02	3.427304E-04
5.436703E+03	1.538043E-02	3.429159E-04
5.446516E+03	1.539089E-02	3.430729E-04
5.456330E+03	1.539946E-02	3.431894E-04
5.466143E+03	1.540642E-02	3.432713E-04
5.475957E+03	1.541174E-02	3.433184E-04
5.485770E+03	1.541513E-02	3.433241E-04
5.495584E+03	1.541682E-02	3.432929E-04
5.505397E+03	1.541685E-02	3.432261E-04
5.515211E+03	1.541519E-02	3.431228E-04
5.525025E+03	1.541196E-02	3.429854E-04
5.534838E+03	1.540714E-02	3.428136E-04
5.544652E+03	1.540119E-02	3.426176E-04
5.554465E+03	1.539385E-02	3.423911E-04
5.564279E+03	1.538558E-02	3.421447E-04
5.574092E+03	1.537614E-02	3.418727E-04
5.583906E+03	1.536603E-02	3.415861E-04
5.593719E+03	1.535529E-02	3.412859E-04
5.603533E+03	1.534383E-02	3.409699E-04
5.613346E+03	1.533214E-02	3.406489E-04
5.623160E+03	1.532014E-02	3.403211E-04
5.632974E+03	1.530816E-02	3.399935E-04
5.642787E+03	1.529593E-02	3.396603E-04
5.652601E+03	1.528394E-02	3.393321E-04
5.662414E+03	1.527220E-02	3.390090E-04
5.672228E+03	1.526071E-02	3.386911E-04
5.682041E+03	1.524946E-02	3.383781E-04
5.691855E+03	1.523875E-02	3.380761E-04
5.701668E+03	1.522837E-02	3.377810E-04
5.711482E+03	1.521843E-02	3.374949E-04
5.721295E+03	1.520916E-02	3.372226E-04
5.731109E+03	1.520018E-02	3.369559E-04
5.740922E+03	1.519169E-02	3.366991E-04
5.750736E+03	1.518373E-02	3.364529E-04
5.760550E+03	1.517589E-02	3.362081E-04
5.770363E+03	1.516860E-02	3.359744E-04
5.780177E+03	1.516130E-02	3.357389E-04
5.789990E+03	1.515425E-02	3.355079E-04
5.799804E+03	1.514732E-02	3.352779E-04
5.809617E+03	1.514018E-02	3.350418E-04
5.819431E+03	1.513311E-02	3.348057E-04
5.829244E+03	1.512566E-02	3.345597E-04
5.839058E+03	1.511797E-02	3.343066E-04
5.848871E+03	1.511004E-02	3.340464E-04
5.858685E+03	1.510158E-02	3.337730E-04
5.868499E+03	1.509278E-02	3.334902E-04
5.878312E+03	1.508353E-02	3.331956E-04
5.888126E+03	1.507376E-02	3.328877E-04
5.897939E+03	1.506369E-02	3.325712E-04
5.907753E+03	1.505329E-02	3.322457E-04
5.917566E+03	1.504270E-02	3.319139E-04
5.927380E+03	1.503193E-02	3.315762E-04
5.937193E+03	1.502117E-02	3.312367E-04
5.947007E+03	1.501062E-02	3.308999E-04
5.956820E+03	1.500053E-02	3.305709E-04
5.966634E+03	1.499113E-02	3.302553E-04
5.976447E+03	1.498270E-02	3.299588E-04
5.986261E+03	1.497541E-02	3.296853E-04
5.996075E+03	1.496969E-02	3.294442E-04
6.005888E+03	1.496574E-02	3.292397E-04
6.015702E+03	1.496417E-02	3.290855E-04
6.025515E+03	1.496506E-02	3.289828E-04
6.035329E+03	1.496905E-02	3.289461E-04
6.045142E+03	1.497637E-02	3.289801E-04
6.054956E+03	1.498769E-02	3.290993E-04
6.064769E+03	1.500313E-02	3.293063E-04
6.074583E+03	1.502351E-02	3.296191E-04
6.084396E+03	1.504913E-02	3.300443E-04
6.094210E+03	1.508045E-02	3.305914E-04
6.104024E+03	1.511826E-02	3.312777E-04
6.113837E+03	1.516297E-02	3.321121E-04
6.123651E+03	1.521536E-02	3.331112E-04
6.133464E+03	1.527610E-02	3.342899E-04
6.143278E+03	1.534585E-02	3.356620E-04
6.153091E+03	1.542560E-02	3.372488E-04
6.162905E+03	1.551624E-02	3.390697E-04
6.172718E+03	1.561870E-02	3.411444E-04
6.182532E+03	1.573406E-02	3.434963E-04
6.192345E+03	1.586325E-02	3.461451E-04
6.202159E+03	1.600702E-02	3.491068E-04
6.211973E+03	1.616657E-02	3.524068E-04
6.221786E+03	1.634255E-02	3.560587E-04
6.231600E+03	1.653590E-02	3.600825E-04
6.241413E+03	1.674731E-02	3.644925E-04
6.251227E+03	1.697756E-02	3.693048E-04
6.261040E+03	1.722697E-02	3.745259E-04
6.270854E+03	1.749609E-02	3.801669E-04
6.280667E+03	1.778517E-02	3.862322E-04
6.290481E+03	1.809426E-02	3.927223E-04
6.300294E+03	1.842342E-02	3.996373E-04
6.310108E+03	1.877230E-02	4.069693E-04
6.319921E+03	1.914031E-02	4.147044E-04
6.329735E+03	1.952659E-02	4.228230E-04
6.339549E+03	1.993016E-02	4.313032E-04
6.349362E+03	2.034932E-02	4.401074E-04
6.359176E+03	2.078263E-02	4.492041E-04
6.368989E+03	2.122767E-02	4.585398E-04
6.378803E+03	2.168250E-02	4.680723E-04
6.388616E+03	2.214393E-02	4.777323E-04
6.398430E+03	2.260883E-02	4.874520E-04
6.408243E+03	2.307371E-02	4.971560E-04
6.418057E+03	2.353477E-02	5.067623E-04
6.427870E+03	2.398740E-02	5.161717E-04
6.437684E+03	2.442774E-02	5.253019E-04
6.447498E+03	2.485077E-02	5.340450E-04
6.457311E+03	2.525186E-02	5.423027E-04
6.467125E+03	2.562612E-02	5.499707E-04
6.476938E+03	2.596903E-02	5.569534E-04
6.486752E+03	2.627598E-02	5.631534E-04
6.496565E+03	2.654296E-02	5.684866E-04
6.506379E+03	2.676580E-02	5.728653E-04
6.516192E+03	2.694142E-02	5.762258E-04
6.526006E+03	2.706704E-02	5.785111E-04
6.535819E+03	2.714089E-02	5.796853E-04
6.545633E+03	2.716128E-02	5.797151E-04
6.555447E+03	2.712760E-02	5.785902E-04
6.565260E+03	2.704065E-02	5.763299E-04
6.575074E+03	2.690073E-02	5.729434E-04
6.584887E+03	2.670948E-02	5.684682E-04
6.594701E+03	2.646955E-02	5.629630E-04
6.604514E+03	2.618384E-02	5.564919E-04
6.614328E+03	2.585578E-02	5.491302E-04
6.624141E+03	2.548923E-02	5.409616E-04
6.633955E+03	2.508805E-02	5.320700E-04
6.643768E+03	2.465661E-02	5.225501E-04
6.653582E+03	2.419973E-02	5.125049E-04
6.663395E+03	2.372191E-02	5.020314E-04
6.673209E+03	2.322705E-02	4.912129E-04
6.683023E+03	2.272005E-02	4.801542E-04
6.692836E+03	2.220503E-02	4.689425E-04
6.702650E+03	2.168535E-02	4.576491E-04
6.712463E+03	2.116486E-02	4.463560E-04
6.722277E+03	2.064685E-02	4.351324E-04
6.732090E+03	2.013429E-02	4.240407E-04
6.741904E+03	1.962954E-02	4.131303E-04
6.751717E+03	1.913514E-02	4.024545E-04
6.761531E+03	1.865281E-02	3.920490E-04
6.771344E+03	1.818420E-02	3.819478E-04
6.781158E+03	1.773090E-02	3.721837E-04
6.790972E+03	1.729353E-02	3.627692E-04
6.800785E+03	1.687315E-02	3.537257E-04
6.810599E+03	1.647035E-02	3.450651E-04
6.820412E+03	1.608534E-02	3.367906E-04
6.830226E+03	1.571852E-02	3.289102E-04
6.840039E+03	1.536976E-02	3.214204E-04
6.849853E+03	1.503918E-02	3.143226E-04
6.859666E+03	1.472620E-02	3.076044E-04
6.869480E+03	1.443071E-02	3.012627E-04
6.879293E+03	1.415235E-02	2.952893E-04
6.889107E+03	1.389049E-02	2.896704E-04
6.898921E+03	1.364482E-02	2.843989E-04
6.908734E+03	1.341462E-02	2.794594E-04
6.918548E+03	1.319934E-02	2.748395E-04
6.928361E+03	1.299853E-02	2.705299E-04
6.938175E+03	1.281126E-02	2.665104E-04
6.947988E+03	1.263708E-02	2.627713E-04
6.957802E+03	1.247537E-02	2.592993E-04
6.967615E+03	1.232533E-02	2.560779E-04
6.977429E+03	1.218652E-02	2.530969E-04
6.987242E+03	1.205816E-02	2.503403E-04
6.997056E+03	1.193964E-02	2.477954E-04
7.006869E+03	1.183039E-02	2.454496E-04
7.016683E+03	1.172981E-02	2.432909E-04
7.026497E+03	1.163735E-02	2.413072E-04
7.036310E+03	1.155244E-02	2.394871E-04
7.046124E+03	1.147440E-02	2.378162E-04
7.055937E+03	1.140286E-02	2.362868E-04
7.065751E+03	1.133717E-02	2.348853E-04
7.075564E+03	1.127682E-02	2.336014E-04
7.085378E+03	1.122150E-02	2.324286E-04
7.095191E+03	1.117045E-02	2.313512E-04
7.105005E+03	1.112354E-02	2.303664E-04
7.114818E+03	1.108003E-02	2.294592E-04
7.124632E+03	1.103983E-02	2.286278E-04
7.134446E+03	1.100209E-02	2.278545E-04
7.144259E+03	1.096689E-02	2.271414E-04
7.154073E+03	1.093359E-02	2.264751E-04
7.163886E+03	1.090202E-02	2.258520E-04
7.173700E+03	1.087169E-02	2.252626E-04
7.183513E+03	1.084234E-02	2.247013E-04
7.193327E+03	1.081382E-02	2.241652E-04
7.203140E+03	1.078575E-02	2.236467E-04
7.212954E+03	1.075791E-02	2.231409E-04
7.222767E+03	1.073023E-02	2.226469E-04
7.232581E+03	1.070223E-02	2.221548E-04
7.242395E+03	1.067406E-02	2.216676E-04
7.252208E+03	1.064527E-02	2.211762E-04
7.262022E+03	1.061605E-02	2.206846E-04
7.271835E+03	1.058600E-02	2.201845E-04
7.281649E+03	1.055533E-02	2.196806E-04
7.291462E+03	1.052371E-02	2.191659E-04
7.301276E+03	1.049124E-02	2.186422E-04
7.311089E+03	1.045805E-02	2.181129E-04
7.320903E+03	1.042368E-02	2.175680E-04
7.330716E+03	1.038862E-02	2.170177E-04
7.340530E+03	1.035256E-02	2.164560E-04
7.350343E+03	1.031571E-02	2.158868E-04
7.360157E+03	1.027812E-02	2.153113E-04
7.369971E+03	1.023985E-02	2.147307E-04
7.379784E+03	1.020111E-02	2.141497E-04
7.389598E+03	1.016168E-02	2.135632E-04
7.399411E+03	1.012193E-02	2.129791E-04
7.409225E+03	1.008196E-02	2.123988E-04
7.419038E+03	1.004170E-02	2.118209E-04
7.428852E+03	1.000153E-02	2.112532E-04
7.438665E+03	9.961121E-03	2.106881E-04
7.448479E+03	9.920999E-03	2.101368E-04
7.458292E+03	9.881112E-03	2.095977E-04
7.468106E+03	9.841705E-03	2.090760E-04
7.477920E+03	9.802571E-03	2.085669E-04
7.487733E+03	9.764068E-03	2.080779E-04
7.497547E+03	9.726272E-03	2.076105E-04
7.507360E+03	9.689086E-03	2.071623E-04
7.517174E+03	9.652712E-03	2.067375E-04
7.526987E+03	9.617203E-03	2.063371E-04
7.536801E+03	9.582599E-03	2.059619E-04
7.546614E+03	9.548936E-03	2.056124E-04
7.556428E+03	9.516255E-03	2.052895E-04
7.566241E+03	9.484718E-03	2.049965E-04
7.576055E+03	9.454206E-03	2.047307E-04
7.585868E+03	9.424714E-03	2.044921E-04
7.595682E+03	9.396553E-03	2.042872E-04
7.605496E+03	9.369408E-03	2.041092E-04
7.615309E+03	9.343420E-03	2.039611E-04
