#wls	flux	fluxerr
1.570167E+03	3.518773E-04	1.170141E-04
1.609421E+03	3.558585E-04	1.177484E-04
1.648675E+03	3.593275E-04	1.182825E-04
1.687929E+03	3.622493E-04	1.186069E-04
1.727184E+03	3.647014E-04	1.187485E-04
1.766438E+03	3.664994E-04	1.186495E-04
1.805692E+03	3.674014E-04	1.182349E-04
1.844946E+03	3.669845E-04	1.173740E-04
1.884200E+03	3.652329E-04	1.160691E-04
1.923454E+03	3.616783E-04	1.141806E-04
1.962709E+03	3.565615E-04	1.117952E-04
2.001963E+03	3.507095E-04	1.091812E-04
2.041217E+03	3.454097E-04	1.067419E-04
2.080471E+03	3.430907E-04	1.052188E-04
2.119725E+03	3.456389E-04	1.051649E-04
2.158979E+03	3.539959E-04	1.068280E-04
2.198234E+03	3.674914E-04	1.099621E-04
2.237488E+03	3.844225E-04	1.140194E-04
2.276742E+03	4.031289E-04	1.184806E-04
2.315996E+03	4.225119E-04	1.230070E-04
2.355250E+03	4.420072E-04	1.274254E-04
2.394504E+03	4.610546E-04	1.315699E-04
2.433759E+03	4.795843E-04	1.354198E-04
2.473013E+03	4.979277E-04	1.390673E-04
2.512267E+03	5.159195E-04	1.424633E-04
2.551521E+03	5.339617E-04	1.457161E-04
2.590775E+03	5.518868E-04	1.487747E-04
2.630029E+03	5.700858E-04	1.517392E-04
2.669284E+03	5.883596E-04	1.545492E-04
2.708538E+03	6.070756E-04	1.572938E-04
2.747792E+03	6.263012E-04	1.599797E-04
2.787046E+03	6.459429E-04	1.625722E-04
2.826300E+03	6.663466E-04	1.651463E-04
2.865554E+03	6.875542E-04	1.676973E-04
2.904809E+03	7.096001E-04	1.702174E-04
2.944063E+03	7.328187E-04	1.727689E-04
2.953876E+03	7.387951E-04	1.734064E-04
2.963690E+03	7.447798E-04	1.740290E-04
2.973503E+03	7.509264E-04	1.746724E-04
2.983317E+03	7.572425E-04	1.753375E-04
2.993131E+03	7.635985E-04	1.759940E-04
3.002944E+03	7.700193E-04	1.766473E-04
3.012758E+03	7.766521E-04	1.773306E-04
3.022571E+03	7.834919E-04	1.780420E-04
3.032385E+03	7.905318E-04	1.787791E-04
3.042198E+03	7.974553E-04	1.794699E-04
3.052012E+03	8.047248E-04	1.802183E-04
3.061825E+03	8.120238E-04	1.809524E-04
3.071639E+03	8.196613E-04	1.817406E-04
3.081452E+03	8.271632E-04	1.824769E-04
3.091266E+03	8.349968E-04	1.832642E-04
3.101079E+03	8.428444E-04	1.840319E-04
3.110893E+03	8.510192E-04	1.848478E-04
3.120707E+03	8.592029E-04	1.856419E-04
3.130520E+03	8.675511E-04	1.864475E-04
3.140334E+03	8.760614E-04	1.872633E-04
3.150147E+03	8.847332E-04	1.880885E-04
3.159961E+03	8.935636E-04	1.889217E-04
3.169774E+03	9.025520E-04	1.897622E-04
3.179588E+03	9.116974E-04	1.906089E-04
3.189401E+03	9.211582E-04	1.914942E-04
3.199215E+03	9.306144E-04	1.923505E-04
3.209028E+03	9.403849E-04	1.932432E-04
3.218842E+03	9.503085E-04	1.941382E-04
3.228656E+03	9.603859E-04	1.950349E-04
3.238469E+03	9.707765E-04	1.959646E-04
3.248283E+03	9.813198E-04	1.968938E-04
3.258096E+03	9.921767E-04	1.978540E-04
3.267910E+03	1.003186E-03	1.988118E-04
3.277723E+03	1.014510E-03	1.997983E-04
3.287537E+03	1.025986E-03	2.007807E-04
3.297350E+03	1.037778E-03	2.017897E-04
3.307164E+03	1.049886E-03	2.028240E-04
3.316977E+03	1.062311E-03	2.038826E-04
3.326791E+03	1.074891E-03	2.049332E-04
3.336605E+03	1.087954E-03	2.060369E-04
3.346418E+03	1.101177E-03	2.071309E-04
3.356232E+03	1.114887E-03	2.082757E-04
3.366045E+03	1.128923E-03	2.094393E-04
3.375859E+03	1.143292E-03	2.106211E-04
3.385672E+03	1.157995E-03	2.118204E-04
3.395486E+03	1.173203E-03	2.130662E-04
3.405299E+03	1.188759E-03	2.143283E-04
3.415113E+03	1.204834E-03	2.156355E-04
3.424926E+03	1.221274E-03	2.169582E-04
3.434740E+03	1.238255E-03	2.183256E-04
3.444553E+03	1.255787E-03	2.197375E-04
3.454367E+03	1.273888E-03	2.211941E-04
3.464181E+03	1.292410E-03	2.226676E-04
3.473994E+03	1.311702E-03	2.242155E-04
3.483808E+03	1.331622E-03	2.258105E-04
3.493621E+03	1.352195E-03	2.274539E-04
3.503435E+03	1.373615E-03	2.291751E-04
3.513248E+03	1.395749E-03	2.309483E-04
3.523062E+03	1.418631E-03	2.327759E-04
3.532875E+03	1.442465E-03	2.346877E-04
3.542689E+03	1.467294E-03	2.366863E-04
3.552502E+03	1.493165E-03	2.387747E-04
3.562316E+03	1.520125E-03	2.409560E-04
3.572130E+03	1.548230E-03	2.432338E-04
3.581943E+03	1.577536E-03	2.456116E-04
3.591757E+03	1.608101E-03	2.480932E-04
3.601570E+03	1.640160E-03	2.507085E-04
3.611384E+03	1.673608E-03	2.534352E-04
3.621197E+03	1.708686E-03	2.563028E-04
3.631011E+03	1.745468E-03	2.593151E-04
3.640824E+03	1.783857E-03	2.624502E-04
3.650638E+03	1.824276E-03	2.657622E-04
3.660451E+03	1.866633E-03	2.692287E-04
3.670265E+03	1.911012E-03	2.728527E-04
3.680079E+03	1.957495E-03	2.766367E-04
3.689892E+03	2.006344E-03	2.806076E-04
3.699706E+03	2.057644E-03	2.847664E-04
3.709519E+03	2.111304E-03	2.890893E-04
3.719333E+03	2.167586E-03	2.936010E-04
3.729146E+03	2.226754E-03	2.983248E-04
3.738960E+03	2.288710E-03	3.032346E-04
3.748773E+03	2.353527E-03	3.083269E-04
3.758587E+03	2.421461E-03	3.136217E-04
3.768400E+03	2.492386E-03	3.190886E-04
3.778214E+03	2.566541E-03	3.247439E-04
3.788027E+03	2.643962E-03	3.305773E-04
3.797841E+03	2.724863E-03	3.366002E-04
3.807655E+03	2.809052E-03	3.427728E-04
3.817468E+03	2.896495E-03	3.490762E-04
3.827282E+03	2.987330E-03	3.555118E-04
3.837095E+03	3.081462E-03	3.620526E-04
3.846909E+03	3.178749E-03	3.686672E-04
3.856722E+03	3.279001E-03	3.753191E-04
3.866536E+03	3.381968E-03	3.819669E-04
3.876349E+03	3.487766E-03	3.886110E-04
3.886163E+03	3.595389E-03	3.951280E-04
3.895976E+03	3.705033E-03	4.015313E-04
3.905790E+03	3.815980E-03	4.077351E-04
3.915604E+03	3.927654E-03	4.136734E-04
3.925417E+03	4.039418E-03	4.192773E-04
3.935231E+03	4.151029E-03	4.245225E-04
3.945044E+03	4.261318E-03	4.292927E-04
3.954858E+03	4.369758E-03	4.335431E-04
3.964671E+03	4.475591E-03	4.372094E-04
3.974485E+03	4.578309E-03	4.402560E-04
3.984298E+03	4.676998E-03	4.426126E-04
3.994112E+03	4.771252E-03	4.442618E-04
4.003925E+03	4.860506E-03	4.451742E-04
4.013739E+03	4.944294E-03	4.453329E-04
4.023553E+03	5.022442E-03	4.447502E-04
4.033366E+03	5.094422E-03	4.434084E-04
4.043180E+03	5.160238E-03	4.413389E-04
4.052993E+03	5.219545E-03	4.385437E-04
4.062807E+03	5.272734E-03	4.350878E-04
4.072620E+03	5.319644E-03	4.309894E-04
4.082434E+03	5.360406E-03	4.262908E-04
4.092247E+03	5.395462E-03	4.210579E-04
4.102061E+03	5.424917E-03	4.153282E-04
4.111874E+03	5.449368E-03	4.091757E-04
4.121688E+03	5.469276E-03	4.026608E-04
4.131501E+03	5.485364E-03	3.958603E-04
4.141315E+03	5.497832E-03	3.888100E-04
4.151129E+03	5.507679E-03	3.815998E-04
4.160942E+03	5.515555E-03	3.742905E-04
4.170756E+03	5.521954E-03	3.669288E-04
4.180569E+03	5.527552E-03	3.595712E-04
4.190383E+03	5.533208E-03	3.522819E-04
4.200196E+03	5.539577E-03	3.451083E-04
4.210010E+03	5.547302E-03	3.380938E-04
4.219823E+03	5.556831E-03	3.312675E-04
4.229637E+03	5.568911E-03	3.246743E-04
4.239450E+03	5.584093E-03	3.183446E-04
4.249264E+03	5.602877E-03	3.123042E-04
4.259078E+03	5.625593E-03	3.065683E-04
4.268891E+03	5.652824E-03	3.011653E-04
4.278705E+03	5.684829E-03	2.961052E-04
4.288518E+03	5.721991E-03	2.914048E-04
4.298332E+03	5.764664E-03	2.870795E-04
4.308145E+03	5.813181E-03	2.831441E-04
4.317959E+03	5.867733E-03	2.796073E-04
4.327772E+03	5.928784E-03	2.764922E-04
4.337586E+03	5.996256E-03	2.737979E-04
4.347399E+03	6.070738E-03	2.715561E-04
4.357213E+03	6.152432E-03	2.697824E-04
4.367026E+03	6.241531E-03	2.684945E-04
4.376840E+03	6.338240E-03	2.677127E-04
4.386654E+03	6.442743E-03	2.674592E-04
4.396467E+03	6.555219E-03	2.677584E-04
4.406281E+03	6.675928E-03	2.686408E-04
4.416094E+03	6.804972E-03	2.701328E-04
4.425908E+03	6.942127E-03	2.722506E-04
4.435721E+03	7.087340E-03	2.750198E-04
4.445535E+03	7.240601E-03	2.784697E-04
4.455348E+03	7.401632E-03	2.826154E-04
4.465162E+03	7.570162E-03	2.874585E-04
4.474975E+03	7.745755E-03	2.929905E-04
4.484789E+03	7.927982E-03	2.992022E-04
4.494603E+03	8.116119E-03	3.060713E-04
4.504416E+03	8.309302E-03	3.135682E-04
4.514230E+03	8.506542E-03	3.216560E-04
4.524043E+03	8.706745E-03	3.302911E-04
4.533857E+03	8.908608E-03	3.394187E-04
4.543670E+03	9.111084E-03	3.489901E-04
4.553484E+03	9.312708E-03	3.589370E-04
4.563297E+03	9.512232E-03	3.691956E-04
4.573111E+03	9.708950E-03	3.797196E-04
4.582924E+03	9.901604E-03	3.904377E-04
4.592738E+03	1.008944E-02	4.012954E-04
4.602552E+03	1.027222E-02	4.122559E-04
4.612365E+03	1.044938E-02	4.232679E-04
4.622179E+03	1.062119E-02	4.343126E-04
4.631992E+03	1.078758E-02	4.453573E-04
4.641806E+03	1.094913E-02	4.563952E-04
4.651619E+03	1.110647E-02	4.674228E-04
4.661433E+03	1.126017E-02	4.784362E-04
4.671246E+03	1.141104E-02	4.894418E-04
4.681060E+03	1.156003E-02	5.004545E-04
4.690873E+03	1.170742E-02	5.114626E-04
4.700687E+03	1.185413E-02	5.224830E-04
4.710500E+03	1.200048E-02	5.335076E-04
4.720314E+03	1.214671E-02	5.445270E-04
4.730128E+03	1.229270E-02	5.555155E-04
4.739941E+03	1.243837E-02	5.664504E-04
4.749755E+03	1.258309E-02	5.772836E-04
4.759568E+03	1.272627E-02	5.879696E-04
4.769382E+03	1.286691E-02	5.984430E-04
4.779195E+03	1.300394E-02	6.086345E-04
4.789009E+03	1.313605E-02	6.184643E-04
4.798822E+03	1.326176E-02	6.278427E-04
4.808636E+03	1.337913E-02	6.366587E-04
4.818449E+03	1.348672E-02	6.448246E-04
4.828263E+03	1.358248E-02	6.522232E-04
4.838077E+03	1.366498E-02	6.587686E-04
4.847890E+03	1.373237E-02	6.643535E-04
4.857704E+03	1.378339E-02	6.689027E-04
4.867517E+03	1.381711E-02	6.723567E-04
4.877331E+03	1.383242E-02	6.746501E-04
4.887144E+03	1.382899E-02	6.757585E-04
4.896958E+03	1.380687E-02	6.756775E-04
4.906771E+03	1.376610E-02	6.744065E-04
4.916585E+03	1.370736E-02	6.719778E-04
4.926398E+03	1.363145E-02	6.684331E-04
4.936212E+03	1.353941E-02	6.638280E-04
4.946026E+03	1.343263E-02	6.582390E-04
4.955839E+03	1.331258E-02	6.517472E-04
4.965653E+03	1.318090E-02	6.444440E-04
4.975466E+03	1.303956E-02	6.364386E-04
4.985280E+03	1.289055E-02	6.278426E-04
4.995093E+03	1.273618E-02	6.187824E-04
5.004907E+03	1.257876E-02	6.093857E-04
5.014720E+03	1.242083E-02	5.997889E-04
5.024534E+03	1.226483E-02	5.901245E-04
5.034347E+03	1.211333E-02	5.805277E-04
5.044161E+03	1.196876E-02	5.711264E-04
5.053974E+03	1.183339E-02	5.620378E-04
5.063788E+03	1.170902E-02	5.533548E-04
5.073602E+03	1.159753E-02	5.451710E-04
5.083415E+03	1.150024E-02	5.375515E-04
5.093229E+03	1.141826E-02	5.305490E-04
5.103042E+03	1.135235E-02	5.241993E-04
5.112856E+03	1.130295E-02	5.185211E-04
5.122669E+03	1.127010E-02	5.135123E-04
5.132483E+03	1.125375E-02	5.091690E-04
5.142296E+03	1.125330E-02	5.054598E-04
5.152110E+03	1.126825E-02	5.023605E-04
5.161923E+03	1.129773E-02	4.998300E-04
5.171737E+03	1.134096E-02	4.978330E-04
5.181551E+03	1.139671E-02	4.963172E-04
5.191364E+03	1.146406E-02	4.952444E-04
5.201178E+03	1.154188E-02	4.945720E-04
5.210991E+03	1.162903E-02	4.942588E-04
5.220805E+03	1.172412E-02	4.942553E-04
5.230618E+03	1.182606E-02	4.945297E-04
5.240432E+03	1.193365E-02	4.950483E-04
5.250245E+03	1.204555E-02	4.957745E-04
5.260059E+03	1.216053E-02	4.966807E-04
5.269872E+03	1.227738E-02	4.977428E-04
5.279686E+03	1.239476E-02	4.989355E-04
5.289500E+03	1.251161E-02	5.002475E-04
5.299313E+03	1.262654E-02	5.016568E-04
5.309127E+03	1.273846E-02	5.031568E-04
5.318940E+03	1.284651E-02	5.047504E-04
5.328754E+03	1.294953E-02	5.064315E-04
5.338567E+03	1.304689E-02	5.082141E-04
5.348381E+03	1.313768E-02	5.101025E-04
5.358194E+03	1.322154E-02	5.121205E-04
5.368008E+03	1.329787E-02	5.142821E-04
5.377821E+03	1.336659E-02	5.166189E-04
5.387635E+03	1.342738E-02	5.191504E-04
5.397448E+03	1.348040E-02	5.219055E-04
5.407262E+03	1.352584E-02	5.248851E-04
5.417076E+03	1.356370E-02	5.280741E-04
5.426889E+03	1.359430E-02	5.314659E-04
5.436703E+03	1.361759E-02	5.350373E-04
5.446516E+03	1.363424E-02	5.387899E-04
5.456330E+03	1.364428E-02	5.426981E-04
5.466143E+03	1.364803E-02	5.467463E-04
5.475957E+03	1.364614E-02	5.509309E-04
5.485770E+03	1.363876E-02	5.552280E-04
5.495584E+03	1.362641E-02	5.596276E-04
5.505397E+03	1.360977E-02	5.641276E-04
5.515211E+03	1.358933E-02	5.687180E-04
5.525025E+03	1.356576E-02	5.733980E-04
5.534838E+03	1.353960E-02	5.781626E-04
5.544652E+03	1.351163E-02	5.830184E-04
5.554465E+03	1.348232E-02	5.879608E-04
5.564279E+03	1.345204E-02	5.929832E-04
5.574092E+03	1.342133E-02	5.980876E-04
5.583906E+03	1.339024E-02	6.032557E-04
5.593719E+03	1.335911E-02	6.084849E-04
5.603533E+03	1.332797E-02	6.137589E-04
5.613346E+03	1.329696E-02	6.190678E-04
5.623160E+03	1.326598E-02	6.243921E-04
5.632974E+03	1.323538E-02	6.297342E-04
5.642787E+03	1.320532E-02	6.350897E-04
5.652601E+03	1.317622E-02	6.404675E-04
5.662414E+03	1.314849E-02	6.458779E-04
5.672228E+03	1.312263E-02	6.513381E-04
5.682041E+03	1.309938E-02	6.568781E-04
5.691855E+03	1.307940E-02	6.625268E-04
5.701668E+03	1.306348E-02	6.683221E-04
5.711482E+03	1.305228E-02	6.742964E-04
5.721295E+03	1.304638E-02	6.804810E-04
5.731109E+03	1.304647E-02	6.869143E-04
5.740922E+03	1.305260E-02	6.936017E-04
5.750736E+03	1.306506E-02	7.005635E-04
5.760550E+03	1.308366E-02	7.077940E-04
5.770363E+03	1.310804E-02	7.152780E-04
5.780177E+03	1.313729E-02	7.229695E-04
5.789990E+03	1.317041E-02	7.308173E-04
5.799804E+03	1.320598E-02	7.387445E-04
5.809617E+03	1.324245E-02	7.466638E-04
5.819431E+03	1.327802E-02	7.544727E-04
5.829244E+03	1.331037E-02	7.620355E-04
5.839058E+03	1.333773E-02	7.692446E-04
5.848871E+03	1.335774E-02	7.759565E-04
5.858685E+03	1.336868E-02	7.820606E-04
5.868499E+03	1.336878E-02	7.874428E-04
5.878312E+03	1.335660E-02	7.920057E-04
5.888126E+03	1.333107E-02	7.956722E-04
5.897939E+03	1.329174E-02	7.984024E-04
5.907753E+03	1.323821E-02	8.001595E-04
5.917566E+03	1.317073E-02	8.009457E-04
5.927380E+03	1.308980E-02	8.007802E-04
5.937193E+03	1.299637E-02	7.997119E-04
5.947007E+03	1.289145E-02	7.977946E-04
5.956820E+03	1.277662E-02	7.951195E-04
5.966634E+03	1.265340E-02	7.917764E-04
5.976447E+03	1.252347E-02	7.878694E-04
5.986261E+03	1.238837E-02	7.834940E-04
5.996075E+03	1.224979E-02	7.787598E-04
6.005888E+03	1.210941E-02	7.737749E-04
6.015702E+03	1.196853E-02	7.686285E-04
6.025515E+03	1.182869E-02	7.634251E-04
6.035329E+03	1.169106E-02	7.582471E-04
6.045142E+03	1.155654E-02	7.531619E-04
6.054956E+03	1.142612E-02	7.482423E-04
6.064769E+03	1.130063E-02	7.435522E-04
6.074583E+03	1.118068E-02	7.391420E-04
6.084396E+03	1.106666E-02	7.350487E-04
6.094210E+03	1.095921E-02	7.313248E-04
6.104024E+03	1.085851E-02	7.279935E-04
6.113837E+03	1.076519E-02	7.251086E-04
6.123651E+03	1.067948E-02	7.226964E-04
6.133464E+03	1.060189E-02	7.208042E-04
6.143278E+03	1.053293E-02	7.194782E-04
6.153091E+03	1.047342E-02	7.187872E-04
6.162905E+03	1.042382E-02	7.187762E-04
6.172718E+03	1.038482E-02	7.195064E-04
6.182532E+03	1.035742E-02	7.210545E-04
6.192345E+03	1.034230E-02	7.234748E-04
6.202159E+03	1.034049E-02	7.268461E-04
6.211973E+03	1.035330E-02	7.312677E-04
6.221786E+03	1.038193E-02	7.368353E-04
6.231600E+03	1.042820E-02	7.436880E-04
6.241413E+03	1.049365E-02	7.519493E-04
6.251227E+03	1.058037E-02	7.617829E-04
6.261040E+03	1.069076E-02	7.733783E-04
6.270854E+03	1.082703E-02	7.869139E-04
6.280667E+03	1.099200E-02	8.026156E-04
6.290481E+03	1.118846E-02	8.207100E-04
6.300294E+03	1.141937E-02	8.414380E-04
6.310108E+03	1.168764E-02	8.650415E-04
6.319921E+03	1.199657E-02	8.917936E-04
6.329735E+03	1.234900E-02	9.219341E-04
6.339549E+03	1.274797E-02	9.557212E-04
6.349362E+03	1.319613E-02	9.933862E-04
6.359176E+03	1.369546E-02	1.035108E-03
6.368989E+03	1.424753E-02	1.081036E-03
6.378803E+03	1.485288E-02	1.131239E-03
6.388616E+03	1.551074E-02	1.185683E-03
6.398430E+03	1.621912E-02	1.244237E-03
6.408243E+03	1.697411E-02	1.306616E-03
6.418057E+03	1.776952E-02	1.372350E-03
6.427870E+03	1.859693E-02	1.440787E-03
6.437684E+03	1.944557E-02	1.511081E-03
6.447498E+03	2.030140E-02	1.582119E-03
6.457311E+03	2.114823E-02	1.652604E-03
6.467125E+03	2.196792E-02	1.721073E-03
6.476938E+03	2.274063E-02	1.785912E-03
6.486752E+03	2.344568E-02	1.845434E-03
6.496565E+03	2.406296E-02	1.897979E-03
6.506379E+03	2.457489E-02	1.942084E-03
6.516192E+03	2.496613E-02	1.976457E-03
6.526006E+03	2.522548E-02	2.000135E-03
6.535819E+03	2.534636E-02	2.012527E-03
6.545633E+03	2.532705E-02	2.013436E-03
6.555447E+03	2.517064E-02	2.003063E-03
6.565260E+03	2.488434E-02	1.981944E-03
6.575074E+03	2.447963E-02	1.950975E-03
6.584887E+03	2.397056E-02	1.911269E-03
6.594701E+03	2.337313E-02	1.864108E-03
6.604514E+03	2.270433E-02	1.810863E-03
6.614328E+03	2.198111E-02	1.752912E-03
6.624141E+03	2.122031E-02	1.691628E-03
6.633955E+03	2.043713E-02	1.628260E-03
6.643768E+03	1.964570E-02	1.563970E-03
6.653582E+03	1.885805E-02	1.499751E-03
6.663395E+03	1.808428E-02	1.436444E-03
6.673209E+03	1.733218E-02	1.374698E-03
6.683023E+03	1.660872E-02	1.315094E-03
6.692836E+03	1.591801E-02	1.257981E-03
6.702650E+03	1.526365E-02	1.203665E-03
6.712463E+03	1.464761E-02	1.152314E-03
6.722277E+03	1.407046E-02	1.103983E-03
6.732090E+03	1.353263E-02	1.058711E-03
6.741904E+03	1.303323E-02	1.016432E-03
6.751717E+03	1.257154E-02	9.770872E-04
6.761531E+03	1.214598E-02	9.405501E-04
6.771344E+03	1.175481E-02	9.066777E-04
6.781158E+03	1.139642E-02	8.753368E-04
6.790972E+03	1.106898E-02	8.463751E-04
6.800785E+03	1.077052E-02	8.196299E-04
6.810599E+03	1.049937E-02	7.949594E-04
6.820412E+03	1.025367E-02	7.722064E-04
6.830226E+03	1.003173E-02	7.512290E-04
6.840039E+03	9.832094E-03	7.319002E-04
6.849853E+03	9.653145E-03	7.140824E-04
6.859666E+03	9.493351E-03	6.976443E-04
6.869480E+03	9.351602E-03	6.824864E-04
6.879293E+03	9.226415E-03	6.684821E-04
6.889107E+03	9.116708E-03	6.555347E-04
6.898921E+03	9.021347E-03	6.435444E-04
6.908734E+03	8.939137E-03	6.324081E-04
6.918548E+03	8.869049E-03	6.220353E-04
6.928361E+03	8.810208E-03	6.123474E-04
6.938175E+03	8.761552E-03	6.032538E-04
6.947988E+03	8.722190E-03	5.946772E-04
6.957802E+03	8.691268E-03	5.865440E-04
6.967615E+03	8.667876E-03	5.787783E-04
6.977429E+03	8.651481E-03	5.713309E-04
6.987242E+03	8.641155E-03	5.641275E-04
6.997056E+03	8.636356E-03	5.571211E-04
7.006869E+03	8.636365E-03	5.502544E-04
7.016683E+03	8.640627E-03	5.434824E-04
7.026497E+03	8.648744E-03	5.367710E-04
7.036310E+03	8.660129E-03	5.300760E-04
7.046124E+03	8.674357E-03	5.233645E-04
7.055937E+03	8.691031E-03	5.166068E-04
7.065751E+03	8.709781E-03	5.097763E-04
7.075564E+03	8.730143E-03	5.028421E-04
7.085378E+03	8.751999E-03	4.957951E-04
7.095191E+03	8.774673E-03	4.885957E-04
7.105005E+03	8.798058E-03	4.812382E-04
7.114818E+03	8.821813E-03	4.737055E-04
7.124632E+03	8.845355E-03	4.659694E-04
7.134446E+03	8.868575E-03	4.580292E-04
7.144259E+03	8.891016E-03	4.498679E-04
7.154073E+03	8.912335E-03	4.414768E-04
7.163886E+03	8.932096E-03	4.328451E-04
7.173700E+03	8.950101E-03	4.239767E-04
7.183513E+03	8.965942E-03	4.148672E-04
7.193327E+03	8.979453E-03	4.055270E-04
7.203140E+03	8.990250E-03	3.959590E-04
7.212954E+03	8.998100E-03	3.861760E-04
7.222767E+03	9.002781E-03	3.761947E-04
7.232581E+03	9.003985E-03	3.660312E-04
7.242395E+03	9.001691E-03	3.557170E-04
7.252208E+03	8.995534E-03	3.452734E-04
7.262022E+03	8.985701E-03	3.347470E-04
7.271835E+03	8.971921E-03	3.241705E-04
7.281649E+03	8.954354E-03	3.135966E-04
7.291462E+03	8.932974E-03	3.030755E-04
7.301276E+03	8.907786E-03	2.926630E-04
7.311089E+03	8.878978E-03	2.824261E-04
7.320903E+03	8.846880E-03	2.724403E-04
7.330716E+03	8.811498E-03	2.627762E-04
7.340530E+03	8.773213E-03	2.535211E-04
7.350343E+03	8.732314E-03	2.447636E-04
7.360157E+03	8.689222E-03	2.366002E-04
7.369971E+03	8.644238E-03	2.291270E-04
7.379784E+03	8.597688E-03	2.224419E-04
7.389598E+03	8.550130E-03	2.166475E-04
7.399411E+03	8.501764E-03	2.118324E-04
7.409225E+03	8.453053E-03	2.080838E-04
7.419038E+03	8.404310E-03	2.054719E-04
7.428852E+03	8.355872E-03	2.040511E-04
7.438665E+03	8.308302E-03	2.038602E-04
7.448479E+03	8.261795E-03	2.048879E-04
7.458292E+03	8.216669E-03	2.070863E-04
7.468106E+03	8.173210E-03	2.103914E-04
7.477920E+03	8.131926E-03	2.147342E-04
7.487733E+03	8.092826E-03	2.200277E-04
7.497547E+03	8.056354E-03	2.261960E-04
7.507360E+03	8.022595E-03	2.331564E-04
7.517174E+03	7.991835E-03	2.408379E-04
7.526987E+03	7.964109E-03	2.491694E-04
7.536801E+03	7.939678E-03	2.580952E-04
7.546614E+03	7.918658E-03	2.675641E-04
7.556428E+03	7.901136E-03	2.775324E-04
7.566241E+03	7.887190E-03	2.879641E-04
7.576055E+03	7.876983E-03	2.988334E-04
7.585868E+03	7.870415E-03	3.101119E-04
7.595682E+03	7.867465E-03	3.217790E-04
7.605496E+03	7.868198E-03	3.338226E-04
7.615309E+03	7.872539E-03	3.462292E-04
