#wls	flux	fluxerr
1.570167E+03	9.009330E-05	8.389230E-06
1.609421E+03	9.433165E-05	8.758548E-06
1.648675E+03	9.865161E-05	9.132559E-06
1.687929E+03	1.030405E-04	9.509940E-06
1.727184E+03	1.074383E-04	9.885019E-06
1.766438E+03	1.118162E-04	1.025507E-05
1.805692E+03	1.160850E-04	1.061185E-05
1.844946E+03	1.201285E-04	1.094479E-05
1.884200E+03	1.237733E-04	1.123826E-05
1.923454E+03	1.269821E-04	1.148920E-05
1.962709E+03	1.296943E-04	1.169247E-05
2.001963E+03	1.320744E-04	1.186326E-05
2.041217E+03	1.347278E-04	1.205605E-05
2.080471E+03	1.386061E-04	1.235531E-05
2.119725E+03	1.445888E-04	1.283778E-05
2.158979E+03	1.533408E-04	1.355991E-05
2.198234E+03	1.647456E-04	1.450828E-05
2.237488E+03	1.784196E-04	1.564610E-05
2.276742E+03	1.937209E-04	1.691451E-05
2.315996E+03	2.101694E-04	1.826961E-05
2.355250E+03	2.274754E-04	1.968464E-05
2.394504E+03	2.455805E-04	2.115322E-05
2.433759E+03	2.643403E-04	2.266162E-05
2.473013E+03	2.839431E-04	2.422475E-05
2.512267E+03	3.044857E-04	2.584935E-05
2.551521E+03	3.259972E-04	2.753631E-05
2.590775E+03	3.485846E-04	2.929293E-05
2.630029E+03	3.724499E-04	3.113427E-05
2.669284E+03	3.976180E-04	3.306025E-05
2.708538E+03	4.242998E-04	3.508610E-05
2.747792E+03	4.525089E-04	3.721040E-05
2.787046E+03	4.824642E-04	3.944844E-05
2.826300E+03	5.142848E-04	4.180696E-05
2.865554E+03	5.479640E-04	4.428226E-05
2.904809E+03	5.838617E-04	4.690007E-05
2.944063E+03	6.218332E-04	4.964510E-05
2.953876E+03	6.316388E-04	5.034991E-05
2.963690E+03	6.415718E-04	5.106222E-05
2.973503E+03	6.517749E-04	5.179332E-05
2.983317E+03	6.619720E-04	5.252120E-05
2.993131E+03	6.724723E-04	5.327033E-05
3.002944E+03	6.831571E-04	5.403119E-05
3.012758E+03	6.940213E-04	5.480335E-05
3.022571E+03	7.050603E-04	5.558632E-05
3.032385E+03	7.162707E-04	5.637978E-05
3.042198E+03	7.278023E-04	5.719545E-05
3.052012E+03	7.393451E-04	5.800884E-05
3.061825E+03	7.512052E-04	5.884394E-05
3.071639E+03	7.632265E-04	5.968841E-05
3.081452E+03	7.752427E-04	6.052920E-05
3.091266E+03	7.875735E-04	6.139122E-05
3.101079E+03	8.000558E-04	6.226165E-05
3.110893E+03	8.128548E-04	6.315327E-05
3.120707E+03	8.256353E-04	6.403994E-05
3.130520E+03	8.385595E-04	6.493423E-05
3.140334E+03	8.518000E-04	6.584942E-05
3.150147E+03	8.651838E-04	6.677202E-05
3.159961E+03	8.785319E-04	6.768820E-05
3.169774E+03	8.921958E-04	6.862498E-05
3.179588E+03	9.059975E-04	6.956858E-05
3.189401E+03	9.201183E-04	7.053284E-05
3.199215E+03	9.341922E-04	7.148962E-05
3.209028E+03	9.485862E-04	7.246697E-05
3.218842E+03	9.629244E-04	7.343610E-05
3.228656E+03	9.775836E-04	7.442570E-05
3.238469E+03	9.923735E-04	7.542120E-05
3.248283E+03	1.007293E-03	7.642242E-05
3.258096E+03	1.022339E-03	7.742918E-05
3.267910E+03	1.037511E-03	7.844123E-05
3.277723E+03	1.052806E-03	7.945845E-05
3.287537E+03	1.068426E-03	8.049594E-05
3.297350E+03	1.084170E-03	8.153841E-05
3.307164E+03	1.099827E-03	8.257004E-05
3.316977E+03	1.115810E-03	8.362174E-05
3.326791E+03	1.131908E-03	8.467773E-05
3.336605E+03	1.148336E-03	8.575390E-05
3.346418E+03	1.164662E-03	8.681800E-05
3.356232E+03	1.181098E-03	8.788578E-05
3.366045E+03	1.197860E-03	8.897329E-05
3.375859E+03	1.214730E-03	9.006421E-05
3.385672E+03	1.231704E-03	9.115827E-05
3.395486E+03	1.248778E-03	9.225508E-05
3.405299E+03	1.265950E-03	9.335449E-05
3.415113E+03	1.283216E-03	9.445612E-05
3.424926E+03	1.300571E-03	9.555965E-05
3.434740E+03	1.318247E-03	9.668210E-05
3.444553E+03	1.336010E-03	9.780605E-05
3.454367E+03	1.353614E-03	9.891368E-05
3.464181E+03	1.371532E-03	1.000395E-04
3.473994E+03	1.389522E-03	1.011658E-04
3.483808E+03	1.407825E-03	1.023100E-04
3.493621E+03	1.425946E-03	1.034361E-04
3.503435E+03	1.444373E-03	1.045797E-04
3.513248E+03	1.462600E-03	1.057039E-04
3.523062E+03	1.481127E-03	1.068450E-04
3.532875E+03	1.499695E-03	1.079842E-04
3.542689E+03	1.518299E-03	1.091212E-04
3.552502E+03	1.536931E-03	1.102553E-04
3.562316E+03	1.555847E-03	1.114051E-04
3.572130E+03	1.574516E-03	1.125322E-04
3.581943E+03	1.593458E-03	1.136742E-04
3.591757E+03	1.612133E-03	1.147923E-04
3.601570E+03	1.631070E-03	1.159244E-04
3.611384E+03	1.649993E-03	1.170507E-04
3.621197E+03	1.669167E-03	1.181901E-04
3.631011E+03	1.688037E-03	1.193032E-04
3.640824E+03	1.706866E-03	1.204088E-04
3.650638E+03	1.725925E-03	1.215261E-04
3.660451E+03	1.744927E-03	1.226348E-04
3.670265E+03	1.763580E-03	1.237143E-04
3.680079E+03	1.782438E-03	1.248039E-04
3.689892E+03	1.801495E-03	1.259030E-04
3.699706E+03	1.820170E-03	1.269709E-04
3.709519E+03	1.838736E-03	1.280270E-04
3.719333E+03	1.857475E-03	1.290909E-04
3.729146E+03	1.875792E-03	1.301213E-04
3.738960E+03	1.894262E-03	1.311582E-04
3.748773E+03	1.912581E-03	1.321806E-04
3.758587E+03	1.930737E-03	1.331878E-04
3.768400E+03	1.948718E-03	1.341792E-04
3.778214E+03	1.966813E-03	1.351745E-04
3.788027E+03	1.984408E-03	1.361319E-04
3.797841E+03	2.002096E-03	1.370921E-04
3.807655E+03	2.019562E-03	1.380335E-04
3.817468E+03	2.036487E-03	1.389347E-04
3.827282E+03	2.053470E-03	1.398365E-04
3.837095E+03	2.070501E-03	1.407385E-04
3.846909E+03	2.086952E-03	1.415980E-04
3.856722E+03	2.103117E-03	1.424352E-04
3.866536E+03	2.119296E-03	1.432706E-04
3.876349E+03	2.134852E-03	1.440613E-04
3.886163E+03	2.150397E-03	1.448487E-04
3.895976E+03	2.165608E-03	1.456113E-04
3.905790E+03	2.180471E-03	1.463482E-04
3.915604E+03	2.194975E-03	1.470589E-04
3.925417E+03	2.209105E-03	1.477427E-04
3.935231E+03	2.223168E-03	1.484203E-04
3.945044E+03	2.236518E-03	1.490486E-04
3.954858E+03	2.249777E-03	1.496693E-04
3.964671E+03	2.262618E-03	1.502610E-04
3.974485E+03	2.274709E-03	1.508017E-04
3.984298E+03	2.286677E-03	1.513334E-04
3.994112E+03	2.298193E-03	1.518343E-04
4.003925E+03	2.309564E-03	1.523250E-04
4.013739E+03	2.320145E-03	1.527631E-04
4.023553E+03	2.330243E-03	1.531691E-04
4.033366E+03	2.340168E-03	1.535637E-04
4.043180E+03	2.349273E-03	1.539045E-04
4.052993E+03	2.358188E-03	1.542332E-04
4.062807E+03	2.366585E-03	1.545284E-04
4.072620E+03	2.374457E-03	1.547899E-04
4.082434E+03	2.381797E-03	1.550176E-04
4.092247E+03	2.388599E-03	1.552112E-04
4.102061E+03	2.394856E-03	1.553705E-04
4.111874E+03	2.400878E-03	1.555159E-04
4.121688E+03	2.406030E-03	1.556064E-04
4.131501E+03	2.410936E-03	1.556827E-04
4.141315E+03	2.414965E-03	1.557042E-04
4.151129E+03	2.418740E-03	1.557114E-04
4.160942E+03	2.421945E-03	1.556841E-04
4.170756E+03	2.424578E-03	1.556223E-04
4.180569E+03	2.426638E-03	1.555263E-04
4.190383E+03	2.428123E-03	1.553961E-04
4.200196E+03	2.429034E-03	1.552321E-04
4.210010E+03	2.429678E-03	1.550540E-04
4.219823E+03	2.429442E-03	1.548229E-04
4.229637E+03	2.428637E-03	1.545588E-04
4.239450E+03	2.427565E-03	1.542813E-04
4.249264E+03	2.425626E-03	1.539522E-04
4.259078E+03	2.423425E-03	1.536103E-04
4.268891E+03	2.420666E-03	1.532369E-04
4.278705E+03	2.417353E-03	1.528323E-04
4.288518E+03	2.413493E-03	1.523971E-04
4.298332E+03	2.408800E-03	1.519135E-04
4.308145E+03	2.404158E-03	1.514372E-04
4.317959E+03	2.398700E-03	1.509134E-04
4.327772E+03	2.392728E-03	1.503614E-04
4.337586E+03	2.386251E-03	1.497818E-04
4.347399E+03	2.379281E-03	1.491753E-04
4.357213E+03	2.372110E-03	1.485602E-04
4.367026E+03	2.364186E-03	1.479020E-04
4.376840E+03	2.355805E-03	1.472192E-04
4.386654E+03	2.347252E-03	1.465297E-04
4.396467E+03	2.337992E-03	1.458001E-04
4.406281E+03	2.328582E-03	1.450651E-04
4.416094E+03	2.318764E-03	1.443085E-04
4.425908E+03	2.308286E-03	1.435148E-04
4.435721E+03	2.297695E-03	1.427179E-04
4.445535E+03	2.286738E-03	1.419021E-04
4.455348E+03	2.275172E-03	1.410523E-04
4.465162E+03	2.263530E-03	1.402016E-04
4.474975E+03	2.251568E-03	1.393346E-04
4.484789E+03	2.239301E-03	1.384525E-04
4.494603E+03	2.226744E-03	1.375560E-04
4.504416E+03	2.213912E-03	1.366460E-04
4.514230E+03	2.200822E-03	1.357236E-04
4.524043E+03	2.187247E-03	1.347748E-04
4.533857E+03	2.173689E-03	1.338304E-04
4.543670E+03	2.159919E-03	1.328762E-04
4.553484E+03	2.145953E-03	1.319132E-04
4.563297E+03	2.131806E-03	1.309424E-04
4.573111E+03	2.117494E-03	1.299645E-04
4.582924E+03	2.103033E-03	1.289805E-04
4.592738E+03	2.088436E-03	1.279913E-04
4.602552E+03	2.073720E-03	1.269977E-04
4.612365E+03	2.058900E-03	1.260006E-04
4.622179E+03	2.043989E-03	1.250008E-04
4.631992E+03	2.029004E-03	1.239992E-04
4.641806E+03	2.013957E-03	1.229966E-04
4.651619E+03	1.998863E-03	1.219937E-04
4.661433E+03	1.983736E-03	1.209914E-04
4.671246E+03	1.968589E-03	1.199905E-04
4.681060E+03	1.953436E-03	1.189916E-04
4.690873E+03	1.938291E-03	1.179956E-04
4.700687E+03	1.923165E-03	1.170030E-04
4.710500E+03	1.908071E-03	1.160148E-04
4.720314E+03	1.892827E-03	1.150196E-04
4.730128E+03	1.877836E-03	1.140420E-04
4.739941E+03	1.862913E-03	1.130706E-04
4.749755E+03	1.848069E-03	1.121061E-04
4.759568E+03	1.833130E-03	1.111378E-04
4.769382E+03	1.818478E-03	1.101888E-04
4.779195E+03	1.803757E-03	1.092376E-04
4.789009E+03	1.789340E-03	1.083066E-04
4.798822E+03	1.774877E-03	1.073746E-04
4.808636E+03	1.760732E-03	1.064635E-04
4.818449E+03	1.746565E-03	1.055528E-04
4.828263E+03	1.732559E-03	1.046534E-04
4.838077E+03	1.718891E-03	1.037761E-04
4.847890E+03	1.705232E-03	1.029008E-04
4.857704E+03	1.691758E-03	1.020382E-04
4.867517E+03	1.678477E-03	1.011887E-04
4.877331E+03	1.665398E-03	1.003528E-04
4.887144E+03	1.652526E-03	9.953062E-05
4.896958E+03	1.639710E-03	9.871320E-05
4.906771E+03	1.627275E-03	9.791993E-05
4.916585E+03	1.615066E-03	9.714149E-05
4.926398E+03	1.602936E-03	9.636907E-05
4.936212E+03	1.591199E-03	9.562135E-05
4.946026E+03	1.579556E-03	9.488042E-05
4.955839E+03	1.568165E-03	9.415568E-05
4.965653E+03	1.557029E-03	9.344737E-05
4.975466E+03	1.546156E-03	9.275576E-05
4.985280E+03	1.535547E-03	9.208104E-05
4.995093E+03	1.525208E-03	9.142342E-05
5.004907E+03	1.515143E-03	9.078311E-05
5.014720E+03	1.505217E-03	9.015203E-05
5.024534E+03	1.495712E-03	8.954700E-05
5.034347E+03	1.486356E-03	8.895172E-05
5.044161E+03	1.477425E-03	8.838272E-05
5.053974E+03	1.468653E-03	8.782392E-05
5.063788E+03	1.460178E-03	8.728363E-05
5.073602E+03	1.452003E-03	8.676200E-05
5.083415E+03	1.444000E-03	8.625139E-05
5.093229E+03	1.436435E-03	8.576754E-05
5.103042E+03	1.429179E-03	8.530278E-05
5.112856E+03	1.422106E-03	8.484959E-05
5.122669E+03	1.415349E-03	8.441584E-05
5.132483E+03	1.408910E-03	8.400162E-05
5.142296E+03	1.402792E-03	8.360710E-05
5.152110E+03	1.396996E-03	8.323233E-05
5.161923E+03	1.391525E-03	8.287746E-05
5.171737E+03	1.386260E-03	8.253530E-05
5.181551E+03	1.381447E-03	8.222054E-05
5.191364E+03	1.376845E-03	8.191881E-05
5.201178E+03	1.372578E-03	8.163749E-05
5.210991E+03	1.368649E-03	8.137667E-05
5.220805E+03	1.364941E-03	8.112937E-05
5.230618E+03	1.361693E-03	8.090989E-05
5.240432E+03	1.358672E-03	8.070425E-05
5.250245E+03	1.355997E-03	8.051953E-05
5.260059E+03	1.353788E-03	8.036284E-05
5.269872E+03	1.351696E-03	8.021350E-05
5.279686E+03	1.350074E-03	8.009233E-05
5.289500E+03	1.348806E-03	7.999254E-05
5.299313E+03	1.347781E-03	7.990742E-05
5.309127E+03	1.347115E-03	7.984390E-05
5.318940E+03	1.346810E-03	7.980211E-05
5.328754E+03	1.346868E-03	7.978212E-05
5.338567E+03	1.347178E-03	7.977730E-05
5.348381E+03	1.347968E-03	7.980124E-05
5.358194E+03	1.349014E-03	7.984053E-05
5.368008E+03	1.350429E-03	7.990200E-05
5.377821E+03	1.352217E-03	7.998575E-05
5.387635E+03	1.354265E-03	8.008515E-05
5.397448E+03	1.356800E-03	8.021360E-05
5.407262E+03	1.359596E-03	8.035775E-05
5.417076E+03	1.362766E-03	8.052423E-05
5.426889E+03	1.366309E-03	8.071302E-05
5.436703E+03	1.370225E-03	8.092406E-05
5.446516E+03	1.374400E-03	8.115055E-05
5.456330E+03	1.378944E-03	8.139906E-05
5.466143E+03	1.383858E-03	8.166953E-05
5.475957E+03	1.389138E-03	8.196181E-05
5.485770E+03	1.394671E-03	8.226912E-05
5.495584E+03	1.400681E-03	8.260469E-05
5.505397E+03	1.406939E-03	8.295503E-05
5.515211E+03	1.413558E-03	8.332669E-05
5.525025E+03	1.420419E-03	8.371275E-05
5.534838E+03	1.427751E-03	8.412658E-05
5.544652E+03	1.435321E-03	8.455449E-05
5.554465E+03	1.443242E-03	8.500314E-05
5.564279E+03	1.451509E-03	8.547225E-05
5.574092E+03	1.460006E-03	8.595488E-05
5.583906E+03	1.468845E-03	8.645761E-05
5.593719E+03	1.478021E-03	8.698027E-05
5.603533E+03	1.487533E-03	8.752264E-05
5.613346E+03	1.497378E-03	8.808458E-05
5.623160E+03	1.507431E-03	8.865874E-05
5.632974E+03	1.517808E-03	8.925194E-05
5.642787E+03	1.528505E-03	8.986391E-05
5.652601E+03	1.539395E-03	9.048722E-05
5.662414E+03	1.550718E-03	9.113590E-05
5.672228E+03	1.562224E-03	9.179531E-05
5.682041E+03	1.574032E-03	9.247235E-05
5.691855E+03	1.586009E-03	9.315935E-05
5.701668E+03	1.598400E-03	9.387057E-05
5.711482E+03	1.610950E-03	9.459103E-05
5.721295E+03	1.623776E-03	9.532766E-05
5.731109E+03	1.636745E-03	9.607264E-05
5.740922E+03	1.650104E-03	9.684045E-05
5.750736E+03	1.663591E-03	9.761567E-05
5.760550E+03	1.677326E-03	9.840542E-05
5.770363E+03	1.691170E-03	9.920148E-05
5.780177E+03	1.705375E-03	1.000187E-04
5.789990E+03	1.719672E-03	1.008413E-04
5.799804E+03	1.734049E-03	1.016685E-04
5.809617E+03	1.748762E-03	1.025154E-04
5.819431E+03	1.763535E-03	1.033658E-04
5.829244E+03	1.778491E-03	1.042269E-04
5.839058E+03	1.793619E-03	1.050980E-04
5.848871E+03	1.808910E-03	1.059788E-04
5.858685E+03	1.824213E-03	1.068602E-04
5.868499E+03	1.839654E-03	1.077497E-04
5.878312E+03	1.855220E-03	1.086467E-04
5.888126E+03	1.870758E-03	1.095421E-04
5.897939E+03	1.886396E-03	1.104433E-04
5.907753E+03	1.902120E-03	1.113498E-04
5.917566E+03	1.917919E-03	1.122606E-04
5.927380E+03	1.933630E-03	1.131666E-04
5.937193E+03	1.949385E-03	1.140752E-04
5.947007E+03	1.965170E-03	1.149858E-04
5.956820E+03	1.980970E-03	1.158975E-04
5.966634E+03	1.996620E-03	1.168006E-04
5.976447E+03	2.012255E-03	1.177031E-04
5.986261E+03	2.027856E-03	1.186039E-04
5.996075E+03	2.043258E-03	1.194934E-04
6.005888E+03	2.058593E-03	1.203793E-04
6.015702E+03	2.073849E-03	1.212610E-04
6.025515E+03	2.089008E-03	1.221373E-04
6.035329E+03	2.104054E-03	1.230075E-04
6.045142E+03	2.118813E-03	1.238615E-04
6.054956E+03	2.133425E-03	1.247073E-04
6.064769E+03	2.147714E-03	1.255348E-04
6.074583E+03	2.161984E-03	1.263618E-04
6.084396E+03	2.175897E-03	1.271685E-04
6.094210E+03	2.189434E-03	1.279539E-04
6.104024E+03	2.202908E-03	1.287364E-04
6.113837E+03	2.215974E-03	1.294957E-04
6.123651E+03	2.228782E-03	1.302407E-04
6.133464E+03	2.241316E-03	1.309707E-04
6.143278E+03	2.253400E-03	1.316751E-04
6.153091E+03	2.265185E-03	1.323629E-04
6.162905E+03	2.276661E-03	1.330338E-04
6.172718E+03	2.287818E-03	1.336869E-04
6.182532E+03	2.298474E-03	1.343119E-04
6.192345E+03	2.308790E-03	1.349180E-04
6.202159E+03	2.318757E-03	1.355047E-04
6.211973E+03	2.328367E-03	1.360716E-04
6.221786E+03	2.337437E-03	1.366081E-04
6.231600E+03	2.346135E-03	1.371239E-04
6.241413E+03	2.354453E-03	1.376185E-04
6.251227E+03	2.362210E-03	1.380813E-04
6.261040E+03	2.369749E-03	1.385325E-04
6.270854E+03	2.376717E-03	1.389512E-04
6.280667E+03	2.383105E-03	1.393371E-04
6.290481E+03	2.389264E-03	1.397106E-04
6.300294E+03	2.394835E-03	1.400508E-04
6.310108E+03	2.399993E-03	1.403678E-04
6.319921E+03	2.404558E-03	1.406511E-04
6.329735E+03	2.408881E-03	1.409212E-04
6.339549E+03	2.412607E-03	1.411574E-04
6.349362E+03	2.415911E-03	1.413699E-04
6.359176E+03	2.418615E-03	1.415482E-04
6.368989E+03	2.420896E-03	1.417027E-04
6.378803E+03	2.422934E-03	1.418440E-04
6.388616E+03	2.424193E-03	1.419406E-04
6.398430E+03	2.425211E-03	1.420240E-04
6.408243E+03	2.425631E-03	1.420733E-04
6.418057E+03	2.425635E-03	1.420991E-04
6.427870E+03	2.425224E-03	1.421016E-04
6.437684E+03	2.424223E-03	1.420704E-04
6.447498E+03	2.422993E-03	1.420266E-04
6.457311E+03	2.421180E-03	1.419495E-04
6.467125E+03	2.418789E-03	1.418394E-04
6.476938E+03	2.416180E-03	1.417174E-04
6.486752E+03	2.413001E-03	1.415628E-04
6.496565E+03	2.409436E-03	1.413864E-04
6.506379E+03	2.405491E-03	1.411885E-04
6.516192E+03	2.400994E-03	1.409590E-04
6.526006E+03	2.396305E-03	1.407191E-04
6.535819E+03	2.391076E-03	1.404483E-04
6.545633E+03	2.385315E-03	1.401470E-04
6.555447E+03	2.379380E-03	1.398363E-04
6.565260E+03	2.372928E-03	1.394960E-04
6.575074E+03	2.366142E-03	1.391368E-04
6.584887E+03	2.359028E-03	1.387591E-04
6.594701E+03	2.351594E-03	1.383633E-04
6.604514E+03	2.343674E-03	1.379397E-04
6.614328E+03	2.335450E-03	1.374990E-04
6.624141E+03	2.326932E-03	1.370416E-04
6.633955E+03	2.317954E-03	1.365579E-04
6.643768E+03	2.308868E-03	1.360686E-04
6.653582E+03	2.299341E-03	1.355540E-04
6.663395E+03	2.289553E-03	1.350246E-04
6.673209E+03	2.279342E-03	1.344711E-04
6.683023E+03	2.269056E-03	1.339138E-04
6.692836E+03	2.258366E-03	1.333334E-04
6.702650E+03	2.247450E-03	1.327403E-04
6.712463E+03	2.236316E-03	1.321350E-04
6.722277E+03	2.224807E-03	1.315082E-04
6.732090E+03	2.213099E-03	1.308703E-04
6.741904E+03	2.201365E-03	1.302315E-04
6.751717E+03	2.189120E-03	1.295632E-04
6.761531E+03	2.176866E-03	1.288949E-04
6.771344E+03	2.164286E-03	1.282080E-04
6.781158E+03	2.151710E-03	1.275219E-04
6.790972E+03	2.138827E-03	1.268183E-04
6.800785E+03	2.125646E-03	1.260976E-04
6.810599E+03	2.112494E-03	1.253793E-04
6.820412E+03	2.099064E-03	1.246450E-04
6.830226E+03	2.085521E-03	1.239047E-04
6.840039E+03	2.071873E-03	1.231586E-04
6.849853E+03	2.058128E-03	1.224075E-04
6.859666E+03	2.044140E-03	1.216424E-04
6.869480E+03	2.030226E-03	1.208823E-04
6.879293E+03	2.016085E-03	1.201092E-04
6.889107E+03	2.001728E-03	1.193239E-04
6.898921E+03	1.987465E-03	1.185446E-04
6.908734E+03	1.973150E-03	1.177629E-04
6.918548E+03	1.958644E-03	1.169702E-04
6.928361E+03	1.944101E-03	1.161759E-04
6.938175E+03	1.929530E-03	1.153804E-04
6.947988E+03	1.914791E-03	1.145754E-04
6.957802E+03	1.900181E-03	1.137785E-04
6.967615E+03	1.885417E-03	1.129730E-04
6.977429E+03	1.870650E-03	1.121678E-04
6.987242E+03	1.855886E-03	1.113632E-04
6.997056E+03	1.841131E-03	1.105595E-04
7.006869E+03	1.826250E-03	1.097488E-04
7.016683E+03	1.811528E-03	1.089481E-04
7.026497E+03	1.796693E-03	1.081410E-04
7.036310E+03	1.781888E-03	1.073362E-04
7.046124E+03	1.766985E-03	1.065258E-04
7.055937E+03	1.752256E-03	1.057264E-04
7.065751E+03	1.737440E-03	1.049220E-04
7.075564E+03	1.722804E-03	1.041290E-04
7.085378E+03	1.708091E-03	1.033316E-04
7.095191E+03	1.693306E-03	1.025302E-04
7.105005E+03	1.678714E-03	1.017408E-04
7.114818E+03	1.664186E-03	1.009557E-04
7.124632E+03	1.649601E-03	1.001674E-04
7.134446E+03	1.635089E-03	9.938380E-05
7.144259E+03	1.620654E-03	9.860520E-05
7.154073E+03	1.606298E-03	9.783169E-05
7.163886E+03	1.592025E-03	9.706348E-05
7.173700E+03	1.577715E-03	9.629326E-05
7.183513E+03	1.563494E-03	9.552869E-05
7.193327E+03	1.549484E-03	9.477724E-05
7.203140E+03	1.535448E-03	9.402436E-05
7.212954E+03	1.521388E-03	9.327025E-05
7.222767E+03	1.507545E-03	9.252957E-05
7.232581E+03	1.493685E-03	9.178800E-05
7.242395E+03	1.480043E-03	9.105995E-05
7.252208E+03	1.466389E-03	9.033128E-05
7.262022E+03	1.452840E-03	8.960920E-05
7.271835E+03	1.439398E-03	8.889378E-05
7.281649E+03	1.426063E-03	8.818508E-05
7.291462E+03	1.412727E-03	8.747629E-05
7.301276E+03	1.399612E-03	8.678124E-05
7.311089E+03	1.386498E-03	8.608627E-05
7.320903E+03	1.373497E-03	8.539824E-05
7.330716E+03	1.360609E-03	8.471704E-05
7.340530E+03	1.347835E-03	8.404272E-05
7.350343E+03	1.335174E-03	8.337518E-05
7.360157E+03	1.322523E-03	8.270786E-05
7.369971E+03	1.309988E-03	8.204735E-05
7.379784E+03	1.297672E-03	8.140003E-05
7.389598E+03	1.285368E-03	8.075294E-05
7.399411E+03	1.273180E-03	8.011246E-05
7.409225E+03	1.261108E-03	7.947860E-05
7.419038E+03	1.249052E-03	7.884496E-05
7.428852E+03	1.237211E-03	7.822413E-05
7.438665E+03	1.225388E-03	7.760351E-05
7.448479E+03	1.213778E-03	7.699555E-05
7.458292E+03	1.202186E-03	7.638771E-05
7.468106E+03	1.190710E-03	7.578619E-05
7.477920E+03	1.179348E-03	7.519095E-05
7.487733E+03	1.168101E-03	7.460189E-05
7.497547E+03	1.156875E-03	7.401304E-05
7.507360E+03	1.145858E-03	7.343628E-05
7.517174E+03	1.134862E-03	7.285971E-05
7.526987E+03	1.124072E-03	7.229509E-05
7.536801E+03	1.113305E-03	7.173061E-05
7.546614E+03	1.102651E-03	7.117209E-05
7.556428E+03	1.092110E-03	7.061950E-05
7.566241E+03	1.081682E-03	7.007280E-05
7.576055E+03	1.071278E-03	6.952620E-05
7.585868E+03	1.061074E-03	6.899114E-05
7.595682E+03	1.050895E-03	6.845616E-05
7.605496E+03	1.040913E-03	6.793249E-05
7.615309E+03	1.030955E-03	6.740883E-05
