#wls	flux	fluxerr
1.592674E+03	3.843092E-05	1.550446E-06
1.632491E+03	3.809132E-05	1.535406E-06
1.672307E+03	3.739363E-05	1.505933E-06
1.712124E+03	3.632468E-05	1.461539E-06
1.751941E+03	3.488884E-05	1.402442E-06
1.791758E+03	3.309695E-05	1.329123E-06
1.831575E+03	3.098708E-05	1.243155E-06
1.871392E+03	2.861805E-05	1.146940E-06
1.911208E+03	2.607173E-05	1.043794E-06
1.951025E+03	2.345494E-05	9.380185E-07
1.990842E+03	2.089634E-05	8.347708E-07
2.030659E+03	1.854072E-05	7.398281E-07
2.070476E+03	1.652622E-05	6.586768E-07
2.110293E+03	1.496799E-05	5.958589E-07
2.150109E+03	1.391981E-05	5.534537E-07
2.189926E+03	1.336238E-05	5.306230E-07
2.229743E+03	1.323344E-05	5.248258E-07
2.269560E+03	1.346201E-05	5.331854E-07
2.309377E+03	1.400250E-05	5.538412E-07
2.349194E+03	1.484037E-05	5.861664E-07
2.389011E+03	1.598784E-05	6.305904E-07
2.428827E+03	1.747898E-05	6.883976E-07
2.468644E+03	1.936261E-05	7.614426E-07
2.508461E+03	2.170951E-05	8.524268E-07
2.548278E+03	2.461214E-05	9.648818E-07
2.588095E+03	2.817891E-05	1.102934E-06
2.627912E+03	3.251978E-05	1.270741E-06
2.667728E+03	3.771198E-05	1.471144E-06
2.707545E+03	4.377214E-05	1.704600E-06
2.747362E+03	5.063679E-05	1.968438E-06
2.787179E+03	5.816659E-05	2.257054E-06
2.826996E+03	6.615933E-05	2.562440E-06
2.866813E+03	7.438057E-05	2.875395E-06
2.906630E+03	8.257935E-05	3.186146E-06
2.946446E+03	9.051096E-05	3.485237E-06
2.986263E+03	9.796548E-05	3.764622E-06
2.996217E+03	9.973378E-05	3.830600E-06
3.006172E+03	1.014580E-04	3.894803E-06
3.016126E+03	1.031355E-04	3.957139E-06
3.026080E+03	1.047675E-04	4.017648E-06
3.036034E+03	1.063554E-04	4.076393E-06
3.045988E+03	1.079013E-04	4.133453E-06
3.055943E+03	1.094023E-04	4.188722E-06
3.065897E+03	1.108558E-04	4.242099E-06
3.075851E+03	1.122592E-04	4.293491E-06
3.085805E+03	1.136128E-04	4.342905E-06
3.095760E+03	1.149142E-04	4.390263E-06
3.105714E+03	1.161595E-04	4.435409E-06
3.115668E+03	1.173516E-04	4.478458E-06
3.125622E+03	1.184842E-04	4.519182E-06
3.135576E+03	1.195586E-04	4.557624E-06
3.145531E+03	1.205760E-04	4.593833E-06
3.155485E+03	1.215330E-04	4.627692E-06
3.165439E+03	1.224314E-04	4.659266E-06
3.175393E+03	1.232685E-04	4.688452E-06
3.185347E+03	1.240460E-04	4.715328E-06
3.195302E+03	1.247640E-04	4.739895E-06
3.205256E+03	1.254203E-04	4.762077E-06
3.215210E+03	1.260174E-04	4.781970E-06
3.225164E+03	1.265559E-04	4.799601E-06
3.235118E+03	1.270365E-04	4.814999E-06
3.245073E+03	1.274601E-04	4.828204E-06
3.255027E+03	1.278279E-04	4.839264E-06
3.264981E+03	1.281414E-04	4.848238E-06
3.274935E+03	1.284001E-04	4.855114E-06
3.284890E+03	1.286102E-04	4.860130E-06
3.294844E+03	1.287700E-04	4.863220E-06
3.304798E+03	1.288840E-04	4.864565E-06
3.314752E+03	1.289535E-04	4.864211E-06
3.324706E+03	1.289839E-04	4.862363E-06
3.334661E+03	1.289790E-04	4.859174E-06
3.344615E+03	1.289395E-04	4.854666E-06
3.354569E+03	1.288741E-04	4.849174E-06
3.364523E+03	1.287846E-04	4.842766E-06
3.374477E+03	1.286791E-04	4.835742E-06
3.384432E+03	1.285639E-04	4.828352E-06
3.394386E+03	1.284428E-04	4.820730E-06
3.404340E+03	1.283269E-04	4.813293E-06
3.414294E+03	1.282203E-04	4.806200E-06
3.424248E+03	1.281309E-04	4.799744E-06
3.434203E+03	1.280666E-04	4.794214E-06
3.444157E+03	1.280326E-04	4.789813E-06
3.454111E+03	1.280375E-04	4.786850E-06
3.464065E+03	1.280837E-04	4.785418E-06
3.474020E+03	1.281764E-04	4.785707E-06
3.483974E+03	1.283187E-04	4.787827E-06
3.493928E+03	1.285164E-04	4.791993E-06
3.503882E+03	1.287708E-04	4.798251E-06
3.513836E+03	1.290854E-04	4.806724E-06
3.523791E+03	1.294678E-04	4.817689E-06
3.533745E+03	1.299205E-04	4.831236E-06
3.543699E+03	1.304525E-04	4.847693E-06
3.553653E+03	1.310746E-04	4.867452E-06
3.563607E+03	1.317964E-04	4.890872E-06
3.573562E+03	1.326332E-04	4.918501E-06
3.583516E+03	1.335993E-04	4.950866E-06
3.593470E+03	1.347131E-04	4.988639E-06
3.603424E+03	1.359973E-04	5.032641E-06
3.613378E+03	1.374725E-04	5.083630E-06
3.623333E+03	1.391685E-04	5.142685E-06
3.633287E+03	1.411137E-04	5.210837E-06
3.643241E+03	1.433411E-04	5.289288E-06
3.653195E+03	1.458862E-04	5.379317E-06
3.663150E+03	1.487910E-04	5.482453E-06
3.673104E+03	1.521007E-04	5.600325E-06
3.683058E+03	1.558634E-04	5.734671E-06
3.693012E+03	1.601354E-04	5.887525E-06
3.702966E+03	1.649772E-04	6.061063E-06
3.712921E+03	1.704531E-04	6.257604E-06
3.722875E+03	1.766406E-04	6.479931E-06
3.732829E+03	1.836147E-04	6.730738E-06
3.742783E+03	1.914614E-04	7.013105E-06
3.752737E+03	2.002736E-04	7.330361E-06
3.762692E+03	2.101402E-04	7.685673E-06
3.772646E+03	2.211604E-04	8.082579E-06
3.782600E+03	2.334226E-04	8.524205E-06
3.792554E+03	2.470126E-04	9.013577E-06
3.802508E+03	2.619982E-04	9.553047E-06
3.812463E+03	2.784196E-04	1.014396E-05
3.822417E+03	2.962818E-04	1.078638E-05
3.832371E+03	3.155420E-04	1.147861E-05
3.842325E+03	3.360879E-04	1.221645E-05
3.852280E+03	3.577337E-04	1.299304E-05
3.862234E+03	3.801970E-04	1.379803E-05
3.872188E+03	4.031036E-04	1.461777E-05
3.882142E+03	4.259785E-04	1.543500E-05
3.892096E+03	4.482582E-04	1.622933E-05
3.902051E+03	4.693171E-04	1.697816E-05
3.912005E+03	4.884884E-04	1.765750E-05
3.921959E+03	5.051231E-04	1.824406E-05
3.931913E+03	5.186329E-04	1.871683E-05
3.941867E+03	5.285249E-04	1.905830E-05
3.951822E+03	5.344813E-04	1.925735E-05
3.961776E+03	5.363495E-04	1.930883E-05
3.971730E+03	5.341781E-04	1.921485E-05
3.981684E+03	5.282105E-04	1.898450E-05
3.991638E+03	5.188481E-04	1.863256E-05
4.001593E+03	5.066341E-04	1.817882E-05
4.011547E+03	4.921848E-04	1.764562E-05
4.021501E+03	4.761503E-04	1.705647E-05
4.031455E+03	4.591663E-04	1.643426E-05
4.041410E+03	4.418334E-04	1.580056E-05
4.051364E+03	4.246718E-04	1.517399E-05
4.061318E+03	4.081142E-04	1.457000E-05
4.071272E+03	3.925014E-04	1.400068E-05
4.081226E+03	3.780842E-04	1.347489E-05
4.091181E+03	3.650355E-04	1.299869E-05
4.101135E+03	3.534502E-04	1.257532E-05
4.111089E+03	3.433708E-04	1.220617E-05
4.121043E+03	3.347898E-04	1.189084E-05
4.130997E+03	3.276627E-04	1.162760E-05
4.140952E+03	3.219187E-04	1.141383E-05
4.150906E+03	3.174681E-04	1.124620E-05
4.160860E+03	3.142115E-04	1.112109E-05
4.170814E+03	3.120341E-04	1.103433E-05
4.180768E+03	3.108260E-04	1.098192E-05
4.190723E+03	3.104783E-04	1.095995E-05
4.200677E+03	3.108771E-04	1.096431E-05
4.210631E+03	3.119215E-04	1.099137E-05
4.220585E+03	3.135119E-04	1.103757E-05
4.230540E+03	3.155617E-04	1.109982E-05
4.240494E+03	3.179868E-04	1.117511E-05
4.250448E+03	3.207098E-04	1.126069E-05
4.260402E+03	3.236675E-04	1.135432E-05
4.270356E+03	3.267882E-04	1.145345E-05
4.280311E+03	3.300171E-04	1.155616E-05
4.290265E+03	3.332942E-04	1.166033E-05
4.300219E+03	3.365630E-04	1.176400E-05
4.310173E+03	3.397669E-04	1.186517E-05
4.320127E+03	3.428595E-04	1.196224E-05
4.330082E+03	3.458000E-04	1.205380E-05
4.340036E+03	3.485608E-04	1.213890E-05
4.349990E+03	3.511509E-04	1.221787E-05
4.359944E+03	3.536064E-04	1.229199E-05
4.369898E+03	3.560242E-04	1.236462E-05
4.379853E+03	3.585540E-04	1.244098E-05
4.389807E+03	3.614047E-04	1.252829E-05
4.399761E+03	3.648109E-04	1.263464E-05
4.409715E+03	3.690324E-04	1.276897E-05
4.419670E+03	3.743095E-04	1.293952E-05
4.429624E+03	3.808565E-04	1.315357E-05
4.439578E+03	3.888577E-04	1.341738E-05
4.449532E+03	3.984381E-04	1.373509E-05
4.459486E+03	4.096695E-04	1.410905E-05
4.469441E+03	4.225612E-04	1.453940E-05
4.479395E+03	4.370540E-04	1.502395E-05
4.489349E+03	4.530115E-04	1.555787E-05
4.499303E+03	4.702279E-04	1.613394E-05
4.509257E+03	4.884118E-04	1.674207E-05
4.519212E+03	5.071863E-04	1.736924E-05
4.529166E+03	5.260949E-04	1.799979E-05
4.539120E+03	5.446195E-04	1.861599E-05
4.549074E+03	5.621817E-04	1.919814E-05
4.559028E+03	5.781578E-04	1.972504E-05
4.568983E+03	5.919384E-04	2.017608E-05
4.578937E+03	6.029155E-04	2.053077E-05
4.588891E+03	6.105685E-04	2.077167E-05
4.598845E+03	6.144772E-04	2.088483E-05
4.608800E+03	6.143550E-04	2.086088E-05
4.618754E+03	6.100900E-04	2.069641E-05
4.628708E+03	6.017436E-04	2.039390E-05
4.638662E+03	5.895854E-04	1.996289E-05
4.648616E+03	5.740286E-04	1.941771E-05
4.658571E+03	5.556514E-04	1.877823E-05
4.668525E+03	5.351207E-04	1.806724E-05
4.678479E+03	5.131617E-04	1.730941E-05
4.688433E+03	4.904928E-04	1.652908E-05
4.698387E+03	4.678025E-04	1.574951E-05
4.708342E+03	4.456960E-04	1.499104E-05
4.718296E+03	4.246940E-04	1.427112E-05
4.728250E+03	4.051937E-04	1.360296E-05
4.738204E+03	3.874977E-04	1.299659E-05
4.748158E+03	3.718062E-04	1.245853E-05
4.758113E+03	3.582299E-04	1.199229E-05
4.768067E+03	3.468163E-04	1.159927E-05
4.778021E+03	3.375496E-04	1.127872E-05
4.787975E+03	3.303729E-04	1.102856E-05
4.797930E+03	3.251947E-04	1.084551E-05
4.807884E+03	3.218936E-04	1.072536E-05
4.817838E+03	3.203200E-04	1.066295E-05
4.827792E+03	3.203087E-04	1.065263E-05
4.837746E+03	3.216537E-04	1.068739E-05
4.847701E+03	3.241416E-04	1.076004E-05
4.857655E+03	3.275265E-04	1.086233E-05
4.867609E+03	3.315519E-04	1.098565E-05
4.877563E+03	3.359430E-04	1.112087E-05
4.887517E+03	3.404372E-04	1.125927E-05
4.897472E+03	3.447863E-04	1.139264E-05
4.907426E+03	3.487733E-04	1.151384E-05
4.917380E+03	3.522368E-04	1.161756E-05
4.927334E+03	3.550690E-04	1.170032E-05
4.937288E+03	3.572371E-04	1.176109E-05
4.947243E+03	3.587632E-04	1.180066E-05
4.957197E+03	3.597428E-04	1.182223E-05
4.967151E+03	3.603031E-04	1.183002E-05
4.977105E+03	3.606110E-04	1.182955E-05
4.987060E+03	3.608398E-04	1.182653E-05
4.997014E+03	3.611655E-04	1.182671E-05
5.006968E+03	3.617467E-04	1.183530E-05
5.016922E+03	3.627106E-04	1.185642E-05
5.026876E+03	3.641685E-04	1.189367E-05
5.036831E+03	3.662020E-04	1.194969E-05
5.046785E+03	3.688686E-04	1.202630E-05
5.056739E+03	3.721999E-04	1.212447E-05
5.066693E+03	3.762293E-04	1.224525E-05
5.076647E+03	3.809744E-04	1.238915E-05
5.086602E+03	3.864357E-04	1.255612E-05
5.096556E+03	3.926337E-04	1.274680E-05
5.106510E+03	3.995663E-04	1.296104E-05
5.116464E+03	4.072330E-04	1.319878E-05
5.126418E+03	4.156259E-04	1.345971E-05
5.136373E+03	4.247208E-04	1.374300E-05
5.146327E+03	4.344863E-04	1.404758E-05
5.156281E+03	4.448647E-04	1.437155E-05
5.166235E+03	4.557803E-04	1.471243E-05
5.176190E+03	4.671344E-04	1.506698E-05
5.186144E+03	4.787921E-04	1.543087E-05
5.196098E+03	4.906119E-04	1.579949E-05
5.206052E+03	5.024125E-04	1.616703E-05
5.216006E+03	5.139870E-04	1.652684E-05
5.225961E+03	5.251140E-04	1.687183E-05
5.235915E+03	5.355568E-04	1.719446E-05
5.245869E+03	5.450673E-04	1.748682E-05
5.255823E+03	5.534115E-04	1.774149E-05
5.265777E+03	5.603549E-04	1.795105E-05
5.275732E+03	5.657090E-04	1.810956E-05
5.285686E+03	5.693107E-04	1.821193E-05
5.295640E+03	5.710693E-04	1.825539E-05
5.305594E+03	5.709470E-04	1.823885E-05
5.315548E+03	5.689813E-04	1.816365E-05
5.325503E+03	5.652821E-04	1.803340E-05
5.335457E+03	5.600155E-04	1.785351E-05
5.345411E+03	5.534242E-04	1.763182E-05
5.355365E+03	5.457885E-04	1.737733E-05
5.365320E+03	5.374279E-04	1.710027E-05
5.375274E+03	5.286702E-04	1.681108E-05
5.385228E+03	5.198672E-04	1.652099E-05
5.395182E+03	5.113313E-04	1.623989E-05
5.405136E+03	5.033633E-04	1.597732E-05
5.415091E+03	4.962238E-04	1.574149E-05
5.425045E+03	4.901020E-04	1.553836E-05
5.434999E+03	4.851394E-04	1.537235E-05
5.444953E+03	4.814295E-04	1.524634E-05
5.454907E+03	4.790553E-04	1.516289E-05
5.464862E+03	4.780307E-04	1.512238E-05
5.474816E+03	4.782847E-04	1.512249E-05
5.484770E+03	4.796697E-04	1.515848E-05
5.494724E+03	4.819733E-04	1.522360E-05
5.504678E+03	4.849301E-04	1.530942E-05
5.514633E+03	4.882734E-04	1.540750E-05
5.524587E+03	4.917181E-04	1.550882E-05
5.534541E+03	4.950033E-04	1.560518E-05
5.544495E+03	4.979130E-04	1.568976E-05
5.554450E+03	5.002614E-04	1.575674E-05
5.564404E+03	5.019249E-04	1.580224E-05
5.574358E+03	5.028339E-04	1.582411E-05
5.584312E+03	5.029654E-04	1.582165E-05
5.594266E+03	5.023460E-04	1.579573E-05
5.604221E+03	5.010351E-04	1.574825E-05
5.614175E+03	4.991200E-04	1.568196E-05
5.624129E+03	4.967131E-04	1.560043E-05
5.634083E+03	4.939285E-04	1.550724E-05
5.644037E+03	4.909065E-04	1.540681E-05
5.653992E+03	4.877635E-04	1.530280E-05
5.663946E+03	4.846325E-04	1.519939E-05
5.673900E+03	4.816311E-04	1.510024E-05
5.683854E+03	4.788635E-04	1.500862E-05
5.693808E+03	4.764383E-04	1.492793E-05
5.703763E+03	4.744369E-04	1.486070E-05
5.713717E+03	4.729361E-04	1.480932E-05
5.723671E+03	4.719909E-04	1.477549E-05
5.733625E+03	4.716419E-04	1.476048E-05
5.743580E+03	4.718996E-04	1.476460E-05
5.753534E+03	4.727661E-04	1.478788E-05
5.763488E+03	4.741980E-04	1.482897E-05
5.773442E+03	4.761427E-04	1.488621E-05
5.783396E+03	4.785207E-04	1.495709E-05
5.793351E+03	4.812231E-04	1.503822E-05
5.803305E+03	4.841150E-04	1.512536E-05
5.813259E+03	4.870549E-04	1.521411E-05
5.823213E+03	4.898917E-04	1.529973E-05
5.833167E+03	4.924559E-04	1.537695E-05
5.843122E+03	4.946013E-04	1.544120E-05
5.853076E+03	4.961953E-04	1.548836E-05
5.863030E+03	4.971117E-04	1.551449E-05
5.872984E+03	4.972736E-04	1.551721E-05
5.882938E+03	4.966248E-04	1.549477E-05
5.892893E+03	4.951329E-04	1.544617E-05
5.902847E+03	4.928160E-04	1.537199E-05
5.912801E+03	4.897254E-04	1.527384E-05
5.922755E+03	4.859264E-04	1.515375E-05
5.932710E+03	4.815280E-04	1.501512E-05
5.942664E+03	4.766528E-04	1.486180E-05
5.952618E+03	4.714324E-04	1.469786E-05
5.962572E+03	4.660100E-04	1.452779E-05
5.972526E+03	4.605264E-04	1.435596E-05
5.982481E+03	4.551089E-04	1.418633E-05
5.992435E+03	4.498801E-04	1.402273E-05
6.002389E+03	4.449325E-04	1.386804E-05
6.012343E+03	4.403420E-04	1.372461E-05
6.022297E+03	4.361511E-04	1.359376E-05
6.032252E+03	4.324001E-04	1.347675E-05
6.042206E+03	4.290826E-04	1.337336E-05
6.052160E+03	4.261981E-04	1.328360E-05
6.062114E+03	4.237015E-04	1.320604E-05
6.072068E+03	4.215570E-04	1.313957E-05
6.082023E+03	4.196867E-04	1.308176E-05
6.091977E+03	4.180176E-04	1.303034E-05
6.101931E+03	4.164588E-04	1.298246E-05
6.111885E+03	4.149031E-04	1.293480E-05
6.121840E+03	4.132382E-04	1.288384E-05
6.131794E+03	4.113661E-04	1.282653E-05
6.141748E+03	4.092004E-04	1.276017E-05
6.151702E+03	4.066935E-04	1.268328E-05
6.161656E+03	4.038620E-04	1.259636E-05
6.171611E+03	4.008132E-04	1.250276E-05
6.181565E+03	3.977278E-04	1.240811E-05
6.191519E+03	3.948211E-04	1.231912E-05
6.201473E+03	3.923432E-04	1.224360E-05
6.211427E+03	3.905152E-04	1.218845E-05
6.221382E+03	3.895323E-04	1.215977E-05
6.231336E+03	3.895599E-04	1.216273E-05
6.241290E+03	3.907109E-04	1.220088E-05
6.251244E+03	3.930610E-04	1.227660E-05
6.261198E+03	3.966408E-04	1.239086E-05
6.271153E+03	4.014417E-04	1.254343E-05
6.281107E+03	4.074368E-04	1.273348E-05
6.291061E+03	4.145374E-04	1.295827E-05
6.301015E+03	4.226463E-04	1.321479E-05
6.310970E+03	4.316193E-04	1.349855E-05
6.320924E+03	4.413035E-04	1.380480E-05
6.330878E+03	4.515050E-04	1.412749E-05
6.340832E+03	4.620225E-04	1.446034E-05
6.350786E+03	4.726417E-04	1.479665E-05
6.360741E+03	4.831216E-04	1.512889E-05
6.370695E+03	4.932462E-04	1.545028E-05
6.380649E+03	5.027954E-04	1.575394E-05
6.390603E+03	5.115638E-04	1.603340E-05
6.400557E+03	5.193759E-04	1.628316E-05
6.410512E+03	5.260862E-04	1.649862E-05
6.420466E+03	5.315834E-04	1.667626E-05
6.430420E+03	5.357860E-04	1.681349E-05
6.440374E+03	5.386520E-04	1.690896E-05
6.450328E+03	5.401852E-04	1.696274E-05
6.460283E+03	5.404015E-04	1.697530E-05
6.470237E+03	5.393822E-04	1.694913E-05
6.480191E+03	5.372192E-04	1.688709E-05
6.490145E+03	5.340266E-04	1.679273E-05
6.500100E+03	5.299332E-04	1.667005E-05
6.510054E+03	5.250762E-04	1.652335E-05
6.520008E+03	5.196038E-04	1.635725E-05
6.529962E+03	5.136442E-04	1.617578E-05
6.539916E+03	5.073355E-04	1.598325E-05
6.549871E+03	5.007961E-04	1.578338E-05
6.559825E+03	4.941226E-04	1.557921E-05
6.569779E+03	4.874120E-04	1.537378E-05
6.579733E+03	4.807371E-04	1.516938E-05
6.589687E+03	4.741534E-04	1.496777E-05
6.599642E+03	4.677000E-04	1.477019E-05
6.609596E+03	4.614000E-04	1.457735E-05
6.619550E+03	4.552637E-04	1.438958E-05
6.629504E+03	4.492818E-04	1.420660E-05
6.639458E+03	4.434533E-04	1.402839E-05
6.649413E+03	4.377565E-04	1.385424E-05
6.659367E+03	4.321840E-04	1.368394E-05
6.669321E+03	4.267224E-04	1.351705E-05
6.679275E+03	4.213541E-04	1.335303E-05
6.689230E+03	4.160737E-04	1.319170E-05
6.699184E+03	4.108885E-04	1.303330E-05
6.709138E+03	4.057891E-04	1.287752E-05
6.719092E+03	4.007980E-04	1.272509E-05
6.729046E+03	3.959188E-04	1.257612E-05
6.739001E+03	3.911562E-04	1.243076E-05
6.748955E+03	3.865282E-04	1.228958E-05
6.758909E+03	3.820446E-04	1.215291E-05
6.768863E+03	3.777056E-04	1.202076E-05
6.778817E+03	3.735228E-04	1.189349E-05
6.788772E+03	3.694923E-04	1.177098E-05
6.798726E+03	3.656212E-04	1.165348E-05
6.808680E+03	3.618960E-04	1.154055E-05
6.818634E+03	3.583305E-04	1.143265E-05
6.828588E+03	3.549126E-04	1.132938E-05
6.838543E+03	3.516590E-04	1.123130E-05
6.848497E+03	3.485632E-04	1.113819E-05
6.858451E+03	3.456403E-04	1.105055E-05
6.868405E+03	3.428950E-04	1.096854E-05
6.878360E+03	3.403465E-04	1.089277E-05
6.888314E+03	3.379998E-04	1.082342E-05
6.898268E+03	3.358717E-04	1.076104E-05
6.908222E+03	3.339550E-04	1.070540E-05
6.918176E+03	3.322628E-04	1.065693E-05
6.928131E+03	3.307822E-04	1.061523E-05
6.938085E+03	3.294926E-04	1.057965E-05
6.948039E+03	3.283866E-04	1.054997E-05
6.957993E+03	3.274234E-04	1.052487E-05
6.967947E+03	3.265775E-04	1.050355E-05
6.977902E+03	3.258071E-04	1.048467E-05
6.987856E+03	3.250823E-04	1.046727E-05
6.997810E+03	3.243615E-04	1.045000E-05
7.007764E+03	3.236197E-04	1.043208E-05
7.017718E+03	3.228173E-04	1.041220E-05
7.027673E+03	3.219471E-04	1.039015E-05
7.037627E+03	3.209842E-04	1.036511E-05
7.047581E+03	3.199378E-04	1.033737E-05
7.057535E+03	3.187997E-04	1.030667E-05
7.067490E+03	3.175887E-04	1.027360E-05
7.077444E+03	3.163178E-04	1.023858E-05
7.087398E+03	3.150179E-04	1.020262E-05
7.097352E+03	3.137154E-04	1.016655E-05
7.107306E+03	3.124254E-04	1.013088E-05
7.117261E+03	3.111850E-04	1.009680E-05
7.127215E+03	3.100143E-04	1.006498E-05
7.137169E+03	3.089145E-04	1.003545E-05
7.147123E+03	3.078989E-04	1.000865E-05
7.157077E+03	3.069670E-04	9.984566E-06
7.167032E+03	3.061058E-04	9.962787E-06
7.176986E+03	3.053163E-04	9.943345E-06
7.186940E+03	3.045719E-04	9.925377E-06
7.196894E+03	3.038573E-04	9.908387E-06
7.206848E+03	3.031651E-04	9.892139E-06
7.216803E+03	3.024710E-04	9.875837E-06
7.226757E+03	3.017792E-04	9.859621E-06
7.236711E+03	3.010780E-04	9.843104E-06
7.246665E+03	3.003640E-04	9.826179E-06
7.256620E+03	2.996281E-04	9.808546E-06
7.266574E+03	2.988670E-04	9.790096E-06
7.276528E+03	2.980815E-04	9.770851E-06
7.286482E+03	2.972556E-04	9.750288E-06
7.296436E+03	2.963696E-04	9.727755E-06
7.306391E+03	2.954042E-04	9.702617E-06
7.316345E+03	2.943359E-04	9.674091E-06
7.326299E+03	2.931369E-04	9.641263E-06
7.336253E+03	2.917721E-04	9.602960E-06
7.346207E+03	2.902057E-04	9.558001E-06
7.356162E+03	2.884128E-04	9.505547E-06
7.366116E+03	2.863644E-04	9.444623E-06
7.376070E+03	2.840673E-04	9.375436E-06
7.386024E+03	2.815135E-04	9.297710E-06
7.395978E+03	2.787334E-04	9.212423E-06
7.405933E+03	2.757841E-04	9.121455E-06
7.415887E+03	2.727443E-04	9.027388E-06
7.425841E+03	2.697002E-04	8.933079E-06
7.435795E+03	2.667717E-04	8.842495E-06
7.445750E+03	2.640756E-04	8.759521E-06
7.455704E+03	2.617405E-04	8.688438E-06
7.465658E+03	2.598633E-04	8.632497E-06
7.475612E+03	2.585313E-04	8.594627E-06
7.485566E+03	2.577805E-04	8.576067E-06
7.495521E+03	2.576051E-04	8.576667E-06
7.505475E+03	2.579709E-04	8.595327E-06
7.515429E+03	2.588103E-04	8.629839E-06
7.525383E+03	2.600609E-04	8.678147E-06
7.535337E+03	2.616379E-04	8.737456E-06
7.545292E+03	2.634606E-04	8.805094E-06
7.555246E+03	2.654572E-04	8.878678E-06
7.565200E+03	2.675540E-04	8.955752E-06
7.575154E+03	2.696824E-04	9.034030E-06
7.585109E+03	2.717750E-04	9.111250E-06
7.595063E+03	2.737899E-04	9.186005E-06
7.605017E+03	2.756675E-04	9.256290E-06
7.614971E+03	2.773809E-04	9.321188E-06
7.624925E+03	2.788861E-04	9.379204E-06
7.634880E+03	2.801714E-04	9.429929E-06
7.644834E+03	2.812066E-04	9.472329E-06
7.654788E+03	2.819951E-04	9.506497E-06
7.664742E+03	2.825267E-04	9.532068E-06
7.674696E+03	2.828032E-04	9.549081E-06
7.684651E+03	2.828249E-04	9.557525E-06
7.694605E+03	2.826151E-04	9.558166E-06
7.704559E+03	2.821792E-04	9.551167E-06
7.714513E+03	2.815287E-04	9.536901E-06
7.724467E+03	2.806679E-04	9.515490E-06
