#wls	flux	fluxerr
1.592674E+03	7.372204E-05	3.416480E-06
1.632491E+03	7.344648E-05	3.387106E-06
1.672307E+03	7.244572E-05	3.324220E-06
1.712124E+03	7.069744E-05	3.227316E-06
1.751941E+03	6.816861E-05	3.095446E-06
1.791758E+03	6.485959E-05	2.929225E-06
1.831575E+03	6.082219E-05	2.731603E-06
1.871392E+03	5.615512E-05	2.507596E-06
1.911208E+03	5.102861E-05	2.265317E-06
1.951025E+03	4.567948E-05	2.015654E-06
1.990842E+03	4.039739E-05	1.771573E-06
2.030659E+03	3.551803E-05	1.547729E-06
2.070476E+03	3.135213E-05	1.357317E-06
2.110293E+03	2.813313E-05	1.209837E-06
2.150109E+03	2.595952E-05	1.108727E-06
2.189926E+03	2.478764E-05	1.051248E-06
2.229743E+03	2.449257E-05	1.031260E-06
2.269560E+03	2.495956E-05	1.043168E-06
2.309377E+03	2.611800E-05	1.083324E-06
2.349194E+03	2.796441E-05	1.150911E-06
2.389011E+03	3.054296E-05	1.247038E-06
2.428827E+03	3.393341E-05	1.374173E-06
2.468644E+03	3.825181E-05	1.536112E-06
2.508461E+03	4.365499E-05	1.738088E-06
2.548278E+03	5.037545E-05	1.988071E-06
2.588095E+03	5.871578E-05	2.296411E-06
2.627912E+03	6.900782E-05	2.674115E-06
2.667728E+03	8.147860E-05	3.127637E-06
2.707545E+03	9.614496E-05	3.655047E-06
2.747362E+03	1.127879E-04	4.245453E-06
2.787179E+03	1.309987E-04	4.881167E-06
2.826996E+03	1.502534E-04	5.540839E-06
2.866813E+03	1.699684E-04	6.201723E-06
2.906630E+03	1.895769E-04	6.842590E-06
2.946446E+03	2.085737E-04	7.445307E-06
2.986263E+03	2.265444E-04	7.995797E-06
2.996217E+03	2.308363E-04	8.123958E-06
3.006172E+03	2.350404E-04	8.248120E-06
3.016126E+03	2.391521E-04	8.368140E-06
3.026080E+03	2.431750E-04	8.484175E-06
3.036034E+03	2.471085E-04	8.596228E-06
3.045988E+03	2.509586E-04	8.704534E-06
3.055943E+03	2.547301E-04	8.809280E-06
3.065897E+03	2.584075E-04	8.909958E-06
3.075851E+03	2.619965E-04	9.006790E-06
3.085805E+03	2.654871E-04	9.099460E-06
3.095760E+03	2.688750E-04	9.187851E-06
3.105714E+03	2.721676E-04	9.272244E-06
3.115668E+03	2.753501E-04	9.352168E-06
3.125622E+03	2.784249E-04	9.427740E-06
3.135576E+03	2.813891E-04	9.498890E-06
3.145531E+03	2.842453E-04	9.565743E-06
3.155485E+03	2.869858E-04	9.628073E-06
3.165439E+03	2.896136E-04	9.686022E-06
3.175393E+03	2.921272E-04	9.739567E-06
3.185347E+03	2.945195E-04	9.788517E-06
3.195302E+03	2.967943E-04	9.833032E-06
3.205256E+03	2.989561E-04	9.873299E-06
3.215210E+03	3.009931E-04	9.908963E-06
3.225164E+03	3.029150E-04	9.940392E-06
3.235118E+03	3.047112E-04	9.967266E-06
3.245073E+03	3.063968E-04	9.990125E-06
3.255027E+03	3.079565E-04	1.000850E-05
3.264981E+03	3.093952E-04	1.002261E-05
3.274935E+03	3.107187E-04	1.003266E-05
3.284890E+03	3.119227E-04	1.003856E-05
3.294844E+03	3.130133E-04	1.004055E-05
3.304798E+03	3.139819E-04	1.003839E-05
3.314752E+03	3.148359E-04	1.003235E-05
3.324706E+03	3.155773E-04	1.002254E-05
3.334661E+03	3.162098E-04	1.000911E-05
3.344615E+03	3.167377E-04	9.992237E-06
3.354569E+03	3.171616E-04	9.971970E-06
3.364523E+03	3.174888E-04	9.948580E-06
3.374477E+03	3.177282E-04	9.922373E-06
3.384432E+03	3.178911E-04	9.893734E-06
3.394386E+03	3.179866E-04	9.862974E-06
3.404340E+03	3.180324E-04	9.830659E-06
3.414294E+03	3.180482E-04	9.797418E-06
3.424248E+03	3.180535E-04	9.763859E-06
3.434203E+03	3.180727E-04	9.730739E-06
3.444157E+03	3.181304E-04	9.698805E-06
3.454111E+03	3.182385E-04	9.668407E-06
3.464065E+03	3.184133E-04	9.640027E-06
3.474020E+03	3.186538E-04	9.613618E-06
3.483974E+03	3.189520E-04	9.588920E-06
3.493928E+03	3.193002E-04	9.565689E-06
3.503882E+03	3.196842E-04	9.543484E-06
3.513836E+03	3.201016E-04	9.522229E-06
3.523791E+03	3.205519E-04	9.501902E-06
3.533745E+03	3.210422E-04	9.482699E-06
3.543699E+03	3.215872E-04	9.465044E-06
3.553653E+03	3.222088E-04	9.449565E-06
3.563607E+03	3.229334E-04	9.437010E-06
3.573562E+03	3.238020E-04	9.428539E-06
3.583516E+03	3.248556E-04	9.425304E-06
3.593470E+03	3.261504E-04	9.428869E-06
3.603424E+03	3.277384E-04	9.440663E-06
3.613378E+03	3.296945E-04	9.462741E-06
3.623333E+03	3.320832E-04	9.496842E-06
3.633287E+03	3.349915E-04	9.545309E-06
3.643241E+03	3.385086E-04	9.610517E-06
3.653195E+03	3.427394E-04	9.695249E-06
3.663150E+03	3.477901E-04	9.802284E-06
3.673104E+03	3.537892E-04	9.934979E-06
3.683058E+03	3.608717E-04	1.009682E-05
3.693012E+03	3.691961E-04	1.029191E-05
3.702966E+03	3.789320E-04	1.052458E-05
3.712921E+03	3.902824E-04	1.080002E-05
3.722875E+03	4.034600E-04	1.112362E-05
3.732829E+03	4.187218E-04	1.150188E-05
3.742783E+03	4.363501E-04	1.194192E-05
3.752737E+03	4.566682E-04	1.245184E-05
3.762692E+03	4.800349E-04	1.304060E-05
3.772646E+03	5.068569E-04	1.371830E-05
3.782600E+03	5.375634E-04	1.449551E-05
3.792554E+03	5.726210E-04	1.538363E-05
3.802508E+03	6.124982E-04	1.639391E-05
3.812463E+03	6.576381E-04	1.753679E-05
3.822417E+03	7.084164E-04	1.882072E-05
3.832371E+03	7.650766E-04	2.025052E-05
3.842325E+03	8.276841E-04	2.182626E-05
3.852280E+03	8.960047E-04	2.354008E-05
3.862234E+03	9.694121E-04	2.537400E-05
3.872188E+03	1.046817E-03	2.729822E-05
3.882142E+03	1.126578E-03	2.926902E-05
3.892096E+03	1.206500E-03	3.122899E-05
3.902051E+03	1.283859E-03	3.310795E-05
3.912005E+03	1.355601E-03	3.482830E-05
3.921959E+03	1.418514E-03	3.630955E-05
3.931913E+03	1.469593E-03	3.747767E-05
3.941867E+03	1.506285E-03	3.827125E-05
3.951822E+03	1.526816E-03	3.864951E-05
3.961776E+03	1.530409E-03	3.859748E-05
3.971730E+03	1.517310E-03	3.812610E-05
3.981684E+03	1.488810E-03	3.727238E-05
3.991638E+03	1.447052E-03	3.609395E-05
4.001593E+03	1.394795E-03	3.466307E-05
4.011547E+03	1.335103E-03	3.305835E-05
4.021501E+03	1.271054E-03	3.135772E-05
4.031455E+03	1.205511E-03	2.963262E-05
4.041410E+03	1.140933E-03	2.794357E-05
4.051364E+03	1.079258E-03	2.633757E-05
4.061318E+03	1.021968E-03	2.484972E-05
4.071272E+03	9.700295E-04	2.350221E-05
4.081226E+03	9.240401E-04	2.230799E-05
4.091181E+03	8.842455E-04	2.127135E-05
4.101135E+03	8.506527E-04	2.039079E-05
4.111089E+03	8.230710E-04	1.966012E-05
4.121043E+03	8.011769E-04	1.907006E-05
4.130997E+03	7.845557E-04	1.860932E-05
4.140952E+03	7.727373E-04	1.826546E-05
4.150906E+03	7.652264E-04	1.802560E-05
4.160860E+03	7.615095E-04	1.787663E-05
4.170814E+03	7.610671E-04	1.780550E-05
4.180768E+03	7.633987E-04	1.779975E-05
4.190723E+03	7.680232E-04	1.784758E-05
4.200677E+03	7.744966E-04	1.793818E-05
4.210631E+03	7.824040E-04	1.806158E-05
4.220585E+03	7.913892E-04	1.820930E-05
4.230540E+03	8.011451E-04	1.837409E-05
4.240494E+03	8.114333E-04	1.855037E-05
4.250448E+03	8.220467E-04	1.873335E-05
4.260402E+03	8.328169E-04	1.891918E-05
4.270356E+03	8.435956E-04	1.910452E-05
4.280311E+03	8.542281E-04	1.928592E-05
4.290265E+03	8.645817E-04	1.946048E-05
4.300219E+03	8.744781E-04	1.962430E-05
4.310173E+03	8.837165E-04	1.977304E-05
4.320127E+03	8.920341E-04	1.990101E-05
4.330082E+03	8.991237E-04	2.000160E-05
4.340036E+03	9.045896E-04	2.006632E-05
4.349990E+03	9.080823E-04	2.008777E-05
4.359944E+03	9.093766E-04	2.006139E-05
4.369898E+03	9.086055E-04	1.999051E-05
4.379853E+03	9.065283E-04	1.989217E-05
4.389807E+03	9.044624E-04	1.979539E-05
4.399761E+03	9.039678E-04	1.973422E-05
4.409715E+03	9.065543E-04	1.974125E-05
4.419670E+03	9.135862E-04	1.984560E-05
4.429624E+03	9.261496E-04	2.007011E-05
4.439578E+03	9.450600E-04	2.043156E-05
4.449532E+03	9.708794E-04	2.094116E-05
4.459486E+03	1.003874E-03	2.160366E-05
4.469441E+03	1.044116E-03	2.241965E-05
4.479395E+03	1.091386E-03	2.338348E-05
4.489349E+03	1.145263E-03	2.448532E-05
4.499303E+03	1.205039E-03	2.570929E-05
4.509257E+03	1.269732E-03	2.703383E-05
4.519212E+03	1.338047E-03	2.843097E-05
4.529166E+03	1.408335E-03	2.986543E-05
4.539120E+03	1.478661E-03	3.129623E-05
4.549074E+03	1.546742E-03	3.267527E-05
4.559028E+03	1.610080E-03	3.395033E-05
4.568983E+03	1.666044E-03	3.506675E-05
4.578937E+03	1.712012E-03	3.597038E-05
4.588891E+03	1.745517E-03	3.661071E-05
4.598845E+03	1.764448E-03	3.694499E-05
4.608800E+03	1.767253E-03	3.694231E-05
4.618754E+03	1.753091E-03	3.658682E-05
4.628708E+03	1.721980E-03	3.588055E-05
4.638662E+03	1.674835E-03	3.484412E-05
4.648616E+03	1.613534E-03	3.351795E-05
4.658571E+03	1.540711E-03	3.195787E-05
4.668525E+03	1.459567E-03	3.023103E-05
4.678479E+03	1.373585E-03	2.841006E-05
4.688433E+03	1.286200E-03	2.656606E-05
4.698387E+03	1.200524E-03	2.476318E-05
4.708342E+03	1.119152E-03	2.305452E-05
4.718296E+03	1.044057E-03	2.148014E-05
4.728250E+03	9.765745E-04	2.006682E-05
4.738204E+03	9.174726E-04	1.882957E-05
4.748158E+03	8.670586E-04	1.777395E-05
4.758113E+03	8.252989E-04	1.689853E-05
4.768067E+03	7.919605E-04	1.619783E-05
4.778021E+03	7.666635E-04	1.566346E-05
4.787975E+03	7.490032E-04	1.528656E-05
4.797930E+03	7.385232E-04	1.505729E-05
4.807884E+03	7.347775E-04	1.496610E-05
4.817838E+03	7.372876E-04	1.500282E-05
4.827792E+03	7.455035E-04	1.515593E-05
4.837746E+03	7.588077E-04	1.541255E-05
4.847701E+03	7.764208E-04	1.575663E-05
4.857655E+03	7.974054E-04	1.616895E-05
4.867609E+03	8.206065E-04	1.662597E-05
4.877563E+03	8.447525E-04	1.710191E-05
4.887517E+03	8.684305E-04	1.756815E-05
4.897472E+03	8.902590E-04	1.799686E-05
4.907426E+03	9.089837E-04	1.836280E-05
4.917380E+03	9.236614E-04	1.864711E-05
4.927334E+03	9.337425E-04	1.883887E-05
4.937288E+03	9.391940E-04	1.893763E-05
4.947243E+03	9.404692E-04	1.895269E-05
4.957197E+03	9.383948E-04	1.890085E-05
4.967151E+03	9.340753E-04	1.880445E-05
4.977105E+03	9.287259E-04	1.868801E-05
4.987060E+03	9.235051E-04	1.857486E-05
4.997014E+03	9.193914E-04	1.848465E-05
5.006968E+03	9.171595E-04	1.843292E-05
5.016922E+03	9.173156E-04	1.842981E-05
5.026876E+03	9.201178E-04	1.848046E-05
5.036831E+03	9.256073E-04	1.858565E-05
5.046785E+03	9.336903E-04	1.874347E-05
5.056739E+03	9.442122E-04	1.895082E-05
5.066693E+03	9.569926E-04	1.920406E-05
5.076647E+03	9.719356E-04	1.950129E-05
5.086602E+03	9.890108E-04	1.984193E-05
5.096556E+03	1.008285E-03	2.022733E-05
5.106510E+03	1.029885E-03	2.066010E-05
5.116464E+03	1.053958E-03	2.114322E-05
5.126418E+03	1.080615E-03	2.167901E-05
5.136373E+03	1.109935E-03	2.226912E-05
5.146327E+03	1.141893E-03	2.291315E-05
5.156281E+03	1.176417E-03	2.360978E-05
5.166235E+03	1.213329E-03	2.435551E-05
5.176190E+03	1.252367E-03	2.514527E-05
5.186144E+03	1.293174E-03	2.597198E-05
5.196098E+03	1.335283E-03	2.682645E-05
5.206052E+03	1.378089E-03	2.769666E-05
5.216006E+03	1.420925E-03	2.856931E-05
5.225961E+03	1.462928E-03	2.942724E-05
5.235915E+03	1.503197E-03	3.025235E-05
5.245869E+03	1.540668E-03	3.102335E-05
5.255823E+03	1.574266E-03	3.171860E-05
5.265777E+03	1.602883E-03	3.231572E-05
5.275732E+03	1.625479E-03	3.279367E-05
5.285686E+03	1.641203E-03	3.313509E-05
5.295640E+03	1.649390E-03	3.332634E-05
5.305594E+03	1.649730E-03	3.336082E-05
5.315548E+03	1.642231E-03	3.323832E-05
5.325503E+03	1.627263E-03	3.296593E-05
5.335457E+03	1.605563E-03	3.255818E-05
5.345411E+03	1.578177E-03	3.203580E-05
5.355365E+03	1.546384E-03	3.142443E-05
5.365320E+03	1.511588E-03	3.075222E-05
5.375274E+03	1.475301E-03	3.004967E-05
5.385228E+03	1.438975E-03	2.934619E-05
5.395182E+03	1.404000E-03	2.867001E-05
5.405136E+03	1.371576E-03	2.804564E-05
5.415091E+03	1.342746E-03	2.749450E-05
5.425045E+03	1.318236E-03	2.703169E-05
5.434999E+03	1.298710E-03	2.667113E-05
5.444953E+03	1.284703E-03	2.642414E-05
5.454907E+03	1.276631E-03	2.629981E-05
5.464862E+03	1.274749E-03	2.630391E-05
5.474816E+03	1.278862E-03	2.643300E-05
5.484770E+03	1.288102E-03	2.666972E-05
5.494724E+03	1.301075E-03	2.698569E-05
5.504678E+03	1.316245E-03	2.734942E-05
5.514633E+03	1.331964E-03	2.772686E-05
5.524587E+03	1.346718E-03	2.808651E-05
5.534541E+03	1.359216E-03	2.840129E-05
5.544495E+03	1.368477E-03	2.865042E-05
5.554450E+03	1.373856E-03	2.881996E-05
5.564404E+03	1.375103E-03	2.890412E-05
5.574358E+03	1.372294E-03	2.890402E-05
5.584312E+03	1.365753E-03	2.882590E-05
5.594266E+03	1.355977E-03	2.867974E-05
5.604221E+03	1.343576E-03	2.847803E-05
5.614175E+03	1.329146E-03	2.823299E-05
5.624129E+03	1.313286E-03	2.795706E-05
5.634083E+03	1.296540E-03	2.766159E-05
5.644037E+03	1.279417E-03	2.735727E-05
5.653992E+03	1.262370E-03	2.705373E-05
5.663946E+03	1.245819E-03	2.675995E-05
5.673900E+03	1.230171E-03	2.648467E-05
5.683854E+03	1.215806E-03	2.623625E-05
5.693808E+03	1.203055E-03	2.602194E-05
5.703763E+03	1.192241E-03	2.584897E-05
5.713717E+03	1.183635E-03	2.572350E-05
5.723671E+03	1.177460E-03	2.565069E-05
5.733625E+03	1.173908E-03	2.563508E-05
5.743580E+03	1.173055E-03	2.567874E-05
5.753534E+03	1.174950E-03	2.578319E-05
5.763488E+03	1.179514E-03	2.594707E-05
5.773442E+03	1.186581E-03	2.616715E-05
5.783396E+03	1.195843E-03	2.643704E-05
5.793351E+03	1.206850E-03	2.674714E-05
5.803305E+03	1.219025E-03	2.708490E-05
5.813259E+03	1.231644E-03	2.743439E-05
5.823213E+03	1.243934E-03	2.777842E-05
5.833167E+03	1.255097E-03	2.809910E-05
5.843122E+03	1.264378E-03	2.837926E-05
5.853076E+03	1.271167E-03	2.860488E-05
5.863030E+03	1.274942E-03	2.876372E-05
5.872984E+03	1.275391E-03	2.884820E-05
5.882938E+03	1.272315E-03	2.885323E-05
5.892893E+03	1.265676E-03	2.877728E-05
5.902847E+03	1.255580E-03	2.862217E-05
5.912801E+03	1.242222E-03	2.839169E-05
5.922755E+03	1.225963E-03	2.809349E-05
5.932710E+03	1.207280E-03	2.773804E-05
5.942664E+03	1.186718E-03	2.733738E-05
5.952618E+03	1.164940E-03	2.690650E-05
5.962572E+03	1.142635E-03	2.646109E-05
5.972526E+03	1.120461E-03	2.601633E-05
5.982481E+03	1.099020E-03	2.558619E-05
5.992435E+03	1.078796E-03	2.518210E-05
6.002389E+03	1.060122E-03	2.481207E-05
6.012343E+03	1.043201E-03	2.448113E-05
6.022297E+03	1.028123E-03	2.419172E-05
6.032252E+03	1.014829E-03	2.394277E-05
6.042206E+03	1.003253E-03	2.373302E-05
6.052160E+03	9.932236E-04	2.355877E-05
6.062114E+03	9.846052E-04	2.341703E-05
6.072068E+03	9.771812E-04	2.330292E-05
6.082023E+03	9.707544E-04	2.321195E-05
6.091977E+03	9.650537E-04	2.313779E-05
6.101931E+03	9.597867E-04	2.307356E-05
6.111885E+03	9.545632E-04	2.300992E-05
6.121840E+03	9.489453E-04	2.293631E-05
6.131794E+03	9.424833E-04	2.284173E-05
6.141748E+03	9.346986E-04	2.271439E-05
6.151702E+03	9.252218E-04	2.254502E-05
6.161656E+03	9.138771E-04	2.232898E-05
6.171611E+03	9.010617E-04	2.207563E-05
6.181565E+03	8.878127E-04	2.181014E-05
6.191519E+03	8.753214E-04	2.156174E-05
6.201473E+03	8.646432E-04	2.135663E-05
6.211427E+03	8.566586E-04	2.121698E-05
6.221382E+03	8.520435E-04	2.116009E-05
6.231336E+03	8.513032E-04	2.119922E-05
6.241290E+03	8.547287E-04	2.134241E-05
6.251244E+03	8.624839E-04	2.159459E-05
6.261198E+03	8.746134E-04	2.195778E-05
6.271153E+03	8.910369E-04	2.243083E-05
6.281107E+03	9.115560E-04	2.300960E-05
6.291061E+03	9.358706E-04	2.368736E-05
6.301015E+03	9.636097E-04	2.445544E-05
6.310970E+03	9.942662E-04	2.530166E-05
6.320924E+03	1.027266E-03	2.621195E-05
6.330878E+03	1.061934E-03	2.716954E-05
6.340832E+03	1.097521E-03	2.815555E-05
6.350786E+03	1.133225E-03	2.914951E-05
6.360741E+03	1.168213E-03	3.013001E-05
6.370695E+03	1.201660E-03	3.107550E-05
6.380649E+03	1.232760E-03	3.196480E-05
6.390603E+03	1.260814E-03	3.277921E-05
6.400557E+03	1.285209E-03	3.350214E-05
6.410512E+03	1.305477E-03	3.412060E-05
6.420466E+03	1.321296E-03	3.462525E-05
6.430420E+03	1.332453E-03	3.500961E-05
6.440374E+03	1.338948E-03	3.527268E-05
6.450328E+03	1.340886E-03	3.541625E-05
6.460283E+03	1.338526E-03	3.544625E-05
6.470237E+03	1.332203E-03	3.537064E-05
6.480191E+03	1.322400E-03	3.520152E-05
6.490145E+03	1.309608E-03	3.495119E-05
6.500100E+03	1.294388E-03	3.463409E-05
6.510054E+03	1.277266E-03	3.426381E-05
6.520008E+03	1.258786E-03	3.385458E-05
6.529962E+03	1.239452E-03	3.341971E-05
6.539916E+03	1.219657E-03	3.296963E-05
6.549871E+03	1.199797E-03	3.251502E-05
6.559825E+03	1.180212E-03	3.206505E-05
6.569779E+03	1.161126E-03	3.162591E-05
6.579733E+03	1.142778E-03	3.120424E-05
6.589687E+03	1.125272E-03	3.080300E-05
6.599642E+03	1.108715E-03	3.042534E-05
6.609596E+03	1.093070E-03	3.007041E-05
6.619550E+03	1.078287E-03	2.973703E-05
6.629504E+03	1.064241E-03	2.942191E-05
6.639458E+03	1.050750E-03	2.912018E-05
6.649413E+03	1.037658E-03	2.882758E-05
6.659367E+03	1.024783E-03	2.853916E-05
6.669321E+03	1.011997E-03	2.825141E-05
6.679275E+03	9.992410E-04	2.796265E-05
6.689230E+03	9.864717E-04	2.767171E-05
6.699184E+03	9.736956E-04	2.737876E-05
6.709138E+03	9.610077E-04	2.708648E-05
6.719092E+03	9.484567E-04	2.679627E-05
6.729046E+03	9.361509E-04	2.651123E-05
6.739001E+03	9.241782E-04	2.623389E-05
6.748955E+03	9.125976E-04	2.596603E-05
6.758909E+03	9.014657E-04	2.570933E-05
6.768863E+03	8.908180E-04	2.546489E-05
6.778817E+03	8.806811E-04	2.523358E-05
6.788772E+03	8.710274E-04	2.501473E-05
6.798726E+03	8.618114E-04	2.480710E-05
6.808680E+03	8.530061E-04	2.461002E-05
6.818634E+03	8.445664E-04	2.442227E-05
6.828588E+03	8.364547E-04	2.424284E-05
6.838543E+03	8.286356E-04	2.407076E-05
6.848497E+03	8.211168E-04	2.390632E-05
6.858451E+03	8.139515E-04	2.375113E-05
6.868405E+03	8.071938E-04	2.360686E-05
6.878360E+03	8.009369E-04	2.347631E-05
6.888314E+03	7.952878E-04	2.336274E-05
6.898268E+03	7.903511E-04	2.326934E-05
6.908222E+03	7.862127E-04	2.319879E-05
6.918176E+03	7.829243E-04	2.315279E-05
6.928131E+03	7.804777E-04	2.313125E-05
6.938085E+03	7.788281E-04	2.313302E-05
6.948039E+03	7.778964E-04	2.315590E-05
6.957993E+03	7.775459E-04	2.319595E-05
6.967947E+03	7.775801E-04	2.324742E-05
6.977902E+03	7.778462E-04	2.330580E-05
6.987856E+03	7.781447E-04	2.336516E-05
6.997810E+03	7.783014E-04	2.342026E-05
7.007764E+03	7.781472E-04	2.346598E-05
7.017718E+03	7.775708E-04	2.349889E-05
7.027673E+03	7.764768E-04	2.351604E-05
7.037627E+03	7.748067E-04	2.351554E-05
7.047581E+03	7.725261E-04	2.349625E-05
7.057535E+03	7.696618E-04	2.345887E-05
7.067490E+03	7.663021E-04	2.340599E-05
7.077444E+03	7.625501E-04	2.334066E-05
7.087398E+03	7.585458E-04	2.326711E-05
7.097352E+03	7.544993E-04	2.319176E-05
7.107306E+03	7.505805E-04	2.311984E-05
7.117261E+03	7.469595E-04	2.305662E-05
7.127215E+03	7.437547E-04	2.300583E-05
7.137169E+03	7.410661E-04	2.297066E-05
7.147123E+03	7.389199E-04	2.295201E-05
7.157077E+03	7.372691E-04	2.294855E-05
7.167032E+03	7.360328E-04	2.295784E-05
7.176986E+03	7.351124E-04	2.297690E-05
7.186940E+03	7.343652E-04	2.300131E-05
7.196894E+03	7.336733E-04	2.302742E-05
7.206848E+03	7.329465E-04	2.305240E-05
7.216803E+03	7.321338E-04	2.307465E-05
7.226757E+03	7.312127E-04	2.309344E-05
7.236711E+03	7.302442E-04	2.311069E-05
7.246665E+03	7.292691E-04	2.312769E-05
7.256620E+03	7.283245E-04	2.314561E-05
7.266574E+03	7.275191E-04	2.316794E-05
7.276528E+03	7.268536E-04	2.319473E-05
7.286482E+03	7.263794E-04	2.322765E-05
7.296436E+03	7.260687E-04	2.326586E-05
7.306391E+03	7.258749E-04	2.330790E-05
7.316345E+03	7.256970E-04	2.335054E-05
7.326299E+03	7.254121E-04	2.338984E-05
7.336253E+03	7.248607E-04	2.342062E-05
7.346207E+03	7.238510E-04	2.343663E-05
7.356162E+03	7.221387E-04	2.342985E-05
7.366116E+03	7.195215E-04	2.339357E-05
7.376070E+03	7.157712E-04	2.332017E-05
7.386024E+03	7.107285E-04	2.320423E-05
7.395978E+03	7.043197E-04	2.304308E-05
7.405933E+03	6.966174E-04	2.283881E-05
7.415887E+03	6.878126E-04	2.259743E-05
7.425841E+03	6.782662E-04	2.233060E-05
7.435795E+03	6.684659E-04	2.205426E-05
7.445750E+03	6.589521E-04	2.178621E-05
7.455704E+03	6.503515E-04	2.154727E-05
7.465658E+03	6.433048E-04	2.135892E-05
7.475612E+03	6.383030E-04	2.123780E-05
7.485566E+03	6.355904E-04	2.119250E-05
7.495521E+03	6.350296E-04	2.121889E-05
7.505475E+03	6.363474E-04	2.130829E-05
7.515429E+03	6.392251E-04	2.145040E-05
7.525383E+03	6.433312E-04	2.163440E-05
7.535337E+03	6.483565E-04	2.185014E-05
7.545292E+03	6.539819E-04	2.208703E-05
7.555246E+03	6.599459E-04	2.233636E-05
7.565200E+03	6.659920E-04	2.258950E-05
7.575154E+03	6.719311E-04	2.284004E-05
7.585109E+03	6.775943E-04	2.308220E-05
7.595063E+03	6.828294E-04	2.331073E-05
7.605017E+03	6.875413E-04	2.352227E-05
7.614971E+03	6.916415E-04	2.371368E-05
7.624925E+03	6.950440E-04	2.388186E-05
7.634880E+03	6.977123E-04	2.402539E-05
7.644834E+03	6.995993E-04	2.414248E-05
7.654788E+03	7.007299E-04	2.423383E-05
7.664742E+03	7.010905E-04	2.429877E-05
7.674696E+03	7.007423E-04	2.433926E-05
7.684651E+03	6.997361E-04	2.435691E-05
7.694605E+03	6.981748E-04	2.435514E-05
7.704559E+03	6.961520E-04	2.433711E-05
7.714513E+03	6.937637E-04	2.430606E-05
7.724467E+03	6.910786E-04	2.426432E-05
