#wls	flux	fluxerr
1.600000E+03	3.303586E-18	2.422776E-18
1.640000E+03	3.495946E-18	2.542017E-18
1.680000E+03	3.708529E-18	2.670651E-18
1.720000E+03	3.943278E-18	2.808858E-18
1.760000E+03	4.202639E-18	2.956911E-18
1.800000E+03	4.488845E-18	3.114615E-18
1.840000E+03	4.805010E-18	3.282017E-18
1.880000E+03	5.154005E-18	3.458544E-18
1.920000E+03	5.538340E-18	3.642875E-18
1.960000E+03	5.960447E-18	3.833085E-18
2.000000E+03	6.422552E-18	4.026514E-18
2.040000E+03	6.926972E-18	4.219908E-18
2.080000E+03	7.473092E-18	4.407602E-18
2.120000E+03	8.060633E-18	4.583675E-18
2.160000E+03	8.686964E-18	4.740536E-18
2.200000E+03	9.345442E-18	4.868515E-18
2.240000E+03	1.002945E-17	4.958704E-18
2.280000E+03	1.072835E-17	5.001619E-18
2.320000E+03	1.143067E-17	4.990013E-18
2.360000E+03	1.212215E-17	4.919383E-18
2.400000E+03	1.278531E-17	4.789891E-18
2.440000E+03	1.339969E-17	4.609105E-18
2.480000E+03	1.393795E-17	4.393505E-18
2.520000E+03	1.437109E-17	4.172116E-18
2.560000E+03	1.466914E-17	3.983668E-18
2.600000E+03	1.480597E-17	3.865829E-18
2.640000E+03	1.476926E-17	3.837429E-18
2.680000E+03	1.456441E-17	3.885159E-18
2.720000E+03	1.421485E-17	3.971130E-18
2.760000E+03	1.375353E-17	4.052654E-18
2.800000E+03	1.321632E-17	4.097796E-18
2.840000E+03	1.263652E-17	4.089539E-18
2.880000E+03	1.204425E-17	4.023977E-18
2.920000E+03	1.146376E-17	3.905473E-18
2.960000E+03	1.091428E-17	3.743038E-18
3.000000E+03	1.041204E-17	3.548080E-18
3.010000E+03	1.029546E-17	3.495645E-18
3.020000E+03	1.018271E-17	3.442050E-18
3.030000E+03	1.007394E-17	3.387459E-18
3.040000E+03	9.969481E-18	3.332107E-18
3.050000E+03	9.869463E-18	3.276148E-18
3.060000E+03	9.773996E-18	3.219732E-18
3.070000E+03	9.683191E-18	3.163006E-18
3.080000E+03	9.597160E-18	3.106117E-18
3.090000E+03	9.516017E-18	3.049207E-18
3.100000E+03	9.440068E-18	2.992476E-18
3.110000E+03	9.369419E-18	2.936058E-18
3.120000E+03	9.303992E-18	2.880025E-18
3.130000E+03	9.244277E-18	2.824623E-18
3.140000E+03	9.190023E-18	2.769866E-18
3.150000E+03	9.141539E-18	2.715938E-18
3.160000E+03	9.099125E-18	2.663014E-18
3.170000E+03	9.062735E-18	2.611163E-18
3.180000E+03	9.032676E-18	2.560556E-18
3.190000E+03	9.008918E-18	2.511264E-18
3.200000E+03	8.991771E-18	2.463448E-18
3.210000E+03	8.981376E-18	2.417222E-18
3.220000E+03	8.977718E-18	2.372651E-18
3.230000E+03	8.981102E-18	2.329886E-18
3.240000E+03	8.991665E-18	2.289025E-18
3.250000E+03	9.009535E-18	2.250159E-18
3.260000E+03	9.034826E-18	2.213370E-18
3.270000E+03	9.067635E-18	2.178730E-18
3.280000E+03	9.108031E-18	2.146298E-18
3.290000E+03	9.155901E-18	2.116083E-18
3.300000E+03	9.211532E-18	2.088178E-18
3.310000E+03	9.274570E-18	2.062523E-18
3.320000E+03	9.345032E-18	2.039137E-18
3.330000E+03	9.422572E-18	2.017949E-18
3.340000E+03	9.507043E-18	1.998931E-18
3.350000E+03	9.598055E-18	1.981995E-18
3.360000E+03	9.694820E-18	1.966973E-18
3.370000E+03	9.797007E-18	1.953791E-18
3.380000E+03	9.903590E-18	1.942236E-18
3.390000E+03	1.001385E-17	1.932164E-18
3.400000E+03	1.012680E-17	1.923385E-18
3.410000E+03	1.024106E-17	1.915645E-18
3.420000E+03	1.035576E-17	1.908795E-18
3.430000E+03	1.046937E-17	1.902581E-18
3.440000E+03	1.058062E-17	1.896814E-18
3.450000E+03	1.068829E-17	1.891323E-18
3.460000E+03	1.079104E-17	1.885941E-18
3.470000E+03	1.088795E-17	1.880586E-18
3.480000E+03	1.097781E-17	1.875145E-18
3.490000E+03	1.105987E-17	1.869596E-18
3.500000E+03	1.113346E-17	1.863941E-18
3.510000E+03	1.119839E-17	1.858264E-18
3.520000E+03	1.125426E-17	1.852610E-18
3.530000E+03	1.130096E-17	1.847063E-18
3.540000E+03	1.133880E-17	1.841746E-18
3.550000E+03	1.136760E-17	1.836669E-18
3.560000E+03	1.138757E-17	1.831861E-18
3.570000E+03	1.139890E-17	1.827295E-18
3.580000E+03	1.140145E-17	1.822851E-18
3.590000E+03	1.139529E-17	1.818408E-18
3.600000E+03	1.138027E-17	1.813781E-18
3.610000E+03	1.135637E-17	1.808800E-18
3.620000E+03	1.132379E-17	1.803317E-18
3.630000E+03	1.128247E-17	1.797153E-18
3.640000E+03	1.123301E-17	1.790239E-18
3.650000E+03	1.117587E-17	1.782495E-18
3.660000E+03	1.111191E-17	1.773918E-18
3.670000E+03	1.104216E-17	1.764555E-18
3.680000E+03	1.096827E-17	1.754561E-18
3.690000E+03	1.089213E-17	1.744150E-18
3.700000E+03	1.081592E-17	1.733597E-18
3.710000E+03	1.074238E-17	1.723284E-18
3.720000E+03	1.067451E-17	1.713646E-18
3.730000E+03	1.061547E-17	1.705155E-18
3.740000E+03	1.056906E-17	1.698398E-18
3.750000E+03	1.053870E-17	1.693909E-18
3.760000E+03	1.052820E-17	1.692285E-18
3.770000E+03	1.054145E-17	1.694143E-18
3.780000E+03	1.058184E-17	1.700020E-18
3.790000E+03	1.065311E-17	1.710507E-18
3.800000E+03	1.075839E-17	1.726092E-18
3.810000E+03	1.090081E-17	1.747262E-18
3.820000E+03	1.108306E-17	1.774424E-18
3.830000E+03	1.130731E-17	1.807896E-18
3.840000E+03	1.157531E-17	1.847923E-18
3.850000E+03	1.188834E-17	1.894670E-18
3.860000E+03	1.224677E-17	1.948148E-18
3.870000E+03	1.265040E-17	2.008271E-18
3.880000E+03	1.309787E-17	2.074772E-18
3.890000E+03	1.358702E-17	2.147254E-18
3.900000E+03	1.411452E-17	2.225133E-18
3.910000E+03	1.467585E-17	2.307649E-18
3.920000E+03	1.526553E-17	2.393891E-18
3.930000E+03	1.587672E-17	2.482751E-18
3.940000E+03	1.650198E-17	2.573031E-18
3.950000E+03	1.713315E-17	2.663442E-18
3.960000E+03	1.776124E-17	2.752580E-18
3.970000E+03	1.837798E-17	2.839162E-18
3.980000E+03	1.897478E-17	2.921879E-18
3.990000E+03	1.954394E-17	2.999562E-18
4.000000E+03	2.007892E-17	3.071242E-18
4.010000E+03	2.057423E-17	3.136105E-18
4.020000E+03	2.102638E-17	3.193659E-18
4.030000E+03	2.143321E-17	3.243604E-18
4.040000E+03	2.179417E-17	3.285885E-18
4.050000E+03	2.211007E-17	3.320643E-18
4.060000E+03	2.238363E-17	3.348298E-18
4.070000E+03	2.261830E-17	3.369367E-18
4.080000E+03	2.281840E-17	3.384479E-18
4.090000E+03	2.298873E-17	3.394324E-18
4.100000E+03	2.313438E-17	3.399612E-18
4.110000E+03	2.326058E-17	3.401063E-18
4.120000E+03	2.337190E-17	3.399282E-18
4.130000E+03	2.347289E-17	3.394851E-18
4.140000E+03	2.356730E-17	3.388225E-18
4.150000E+03	2.365821E-17	3.379750E-18
4.160000E+03	2.374804E-17	3.369660E-18
4.170000E+03	2.383849E-17	3.358084E-18
4.180000E+03	2.393087E-17	3.345084E-18
4.190000E+03	2.402531E-17	3.330559E-18
4.200000E+03	2.412213E-17	3.314434E-18
4.210000E+03	2.422125E-17	3.296593E-18
4.220000E+03	2.432174E-17	3.276818E-18
4.230000E+03	2.442310E-17	3.254974E-18
4.240000E+03	2.452423E-17	3.230892E-18
4.250000E+03	2.462437E-17	3.204492E-18
4.260000E+03	2.472219E-17	3.175697E-18
4.270000E+03	2.481624E-17	3.144501E-18
4.280000E+03	2.490555E-17	3.111078E-18
4.290000E+03	2.498799E-17	3.075589E-18
4.300000E+03	2.506232E-17	3.038478E-18
4.310000E+03	2.512662E-17	3.000290E-18
4.320000E+03	2.517921E-17	2.961802E-18
4.330000E+03	2.521832E-17	2.923989E-18
4.340000E+03	2.524292E-17	2.888103E-18
4.350000E+03	2.525225E-17	2.855560E-18
4.360000E+03	2.524604E-17	2.827876E-18
4.370000E+03	2.522577E-17	2.806675E-18
4.380000E+03	2.519320E-17	2.793322E-18
4.390000E+03	2.515188E-17	2.788868E-18
4.400000E+03	2.510591E-17	2.793689E-18
4.410000E+03	2.506048E-17	2.807578E-18
4.420000E+03	2.502062E-17	2.829864E-18
4.430000E+03	2.499225E-17	2.859776E-18
4.440000E+03	2.498014E-17	2.896402E-18
4.450000E+03	2.498814E-17	2.938838E-18
4.460000E+03	2.501959E-17	2.986302E-18
4.470000E+03	2.507579E-17	3.037975E-18
4.480000E+03	2.515680E-17	3.093085E-18
4.490000E+03	2.526119E-17	3.150859E-18
4.500000E+03	2.538614E-17	3.210492E-18
4.510000E+03	2.552731E-17	3.271100E-18
4.520000E+03	2.567969E-17	3.331800E-18
4.530000E+03	2.583713E-17	3.391618E-18
4.540000E+03	2.599259E-17	3.449505E-18
4.550000E+03	2.613862E-17	3.504378E-18
4.560000E+03	2.626813E-17	3.555221E-18
4.570000E+03	2.637401E-17	3.601016E-18
4.580000E+03	2.644910E-17	3.640753E-18
4.590000E+03	2.648796E-17	3.673656E-18
4.600000E+03	2.648489E-17	3.698922E-18
4.610000E+03	2.643634E-17	3.716047E-18
4.620000E+03	2.633980E-17	3.724681E-18
4.630000E+03	2.619385E-17	3.724635E-18
4.640000E+03	2.599868E-17	3.715956E-18
4.650000E+03	2.575529E-17	3.698810E-18
4.660000E+03	2.546684E-17	3.673684E-18
4.670000E+03	2.513634E-17	3.641046E-18
4.680000E+03	2.476861E-17	3.601634E-18
4.690000E+03	2.436874E-17	3.556226E-18
4.700000E+03	2.394251E-17	3.505711E-18
4.710000E+03	2.349564E-17	3.450965E-18
4.720000E+03	2.303447E-17	3.392965E-18
4.730000E+03	2.256493E-17	3.332628E-18
4.740000E+03	2.209354E-17	3.270959E-18
4.750000E+03	2.162571E-17	3.208806E-18
4.760000E+03	2.116721E-17	3.147069E-18
4.770000E+03	2.072314E-17	3.086557E-18
4.780000E+03	2.029791E-17	3.027977E-18
4.790000E+03	1.989575E-17	2.972010E-18
4.800000E+03	1.951985E-17	2.919188E-18
4.810000E+03	1.917292E-17	2.869971E-18
4.820000E+03	1.885697E-17	2.824716E-18
4.830000E+03	1.857327E-17	2.783671E-18
4.840000E+03	1.832223E-17	2.746950E-18
4.850000E+03	1.810409E-17	2.714644E-18
4.860000E+03	1.791754E-17	2.686604E-18
4.870000E+03	1.776154E-17	2.662722E-18
4.880000E+03	1.763398E-17	2.642720E-18
4.890000E+03	1.753258E-17	2.626297E-18
4.900000E+03	1.745419E-17	2.613009E-18
4.910000E+03	1.739589E-17	2.602448E-18
4.920000E+03	1.735446E-17	2.594155E-18
4.930000E+03	1.732653E-17	2.587648E-18
4.940000E+03	1.730928E-17	2.582517E-18
4.950000E+03	1.729986E-17	2.578353E-18
4.960000E+03	1.729628E-17	2.574866E-18
4.970000E+03	1.729661E-17	2.571774E-18
4.980000E+03	1.730028E-17	2.568994E-18
4.990000E+03	1.730671E-17	2.566437E-18
5.000000E+03	1.731646E-17	2.564181E-18
5.010000E+03	1.733031E-17	2.562328E-18
5.020000E+03	1.734981E-17	2.561092E-18
5.030000E+03	1.737661E-17	2.560695E-18
5.040000E+03	1.741213E-17	2.561319E-18
5.050000E+03	1.745831E-17	2.563214E-18
5.060000E+03	1.751673E-17	2.566576E-18
5.070000E+03	1.758875E-17	2.571557E-18
5.080000E+03	1.767503E-17	2.578199E-18
5.090000E+03	1.777657E-17	2.586592E-18
5.100000E+03	1.789365E-17	2.596707E-18
5.110000E+03	1.802559E-17	2.608375E-18
5.120000E+03	1.817246E-17	2.621521E-18
5.130000E+03	1.833305E-17	2.635884E-18
5.140000E+03	1.850616E-17	2.651195E-18
5.150000E+03	1.869032E-17	2.667137E-18
5.160000E+03	1.888353E-17	2.683316E-18
5.170000E+03	1.908394E-17	2.699346E-18
5.180000E+03	1.928904E-17	2.714746E-18
5.190000E+03	1.949630E-17	2.729029E-18
5.200000E+03	1.970303E-17	2.741678E-18
5.210000E+03	1.990601E-17	2.752102E-18
5.220000E+03	2.010276E-17	2.759811E-18
5.230000E+03	2.029025E-17	2.764236E-18
5.240000E+03	2.046551E-17	2.764825E-18
5.250000E+03	2.062594E-17	2.761079E-18
5.260000E+03	2.076922E-17	2.752540E-18
5.270000E+03	2.089310E-17	2.738769E-18
5.280000E+03	2.099610E-17	2.719443E-18
5.290000E+03	2.107650E-17	2.694216E-18
5.300000E+03	2.113361E-17	2.662892E-18
5.310000E+03	2.116649E-17	2.625265E-18
5.320000E+03	2.117520E-17	2.581280E-18
5.330000E+03	2.115970E-17	2.530905E-18
5.340000E+03	2.112048E-17	2.474211E-18
5.350000E+03	2.105827E-17	2.411359E-18
5.360000E+03	2.097361E-17	2.342566E-18
5.370000E+03	2.086787E-17	2.268243E-18
5.380000E+03	2.074223E-17	2.188903E-18
5.390000E+03	2.059823E-17	2.105272E-18
5.400000E+03	2.043725E-17	2.018261E-18
5.410000E+03	2.026170E-17	1.929146E-18
5.420000E+03	2.007320E-17	1.839440E-18
5.430000E+03	1.987421E-17	1.751103E-18
5.440000E+03	1.966737E-17	1.666517E-18
5.450000E+03	1.945452E-17	1.588403E-18
5.460000E+03	1.923764E-17	1.519818E-18
5.470000E+03	1.901888E-17	1.463926E-18
5.480000E+03	1.880220E-17	1.423702E-18
5.490000E+03	1.859128E-17	1.401168E-18
5.500000E+03	1.838830E-17	1.396653E-18
5.510000E+03	1.819360E-17	1.408541E-18
5.520000E+03	1.800689E-17	1.433939E-18
5.530000E+03	1.782770E-17	1.469468E-18
5.540000E+03	1.765657E-17	1.511928E-18
5.550000E+03	1.749367E-17	1.558518E-18
5.560000E+03	1.733966E-17	1.607034E-18
5.570000E+03	1.719594E-17	1.655908E-18
5.580000E+03	1.706383E-17	1.704065E-18
5.590000E+03	1.694541E-17	1.750923E-18
5.600000E+03	1.684311E-17	1.796272E-18
5.610000E+03	1.675950E-17	1.840177E-18
5.620000E+03	1.669746E-17	1.882934E-18
5.630000E+03	1.665975E-17	1.924967E-18
5.640000E+03	1.664898E-17	1.966781E-18
5.650000E+03	1.666766E-17	2.008940E-18
5.660000E+03	1.671755E-17	2.051949E-18
5.670000E+03	1.680057E-17	2.096353E-18
5.680000E+03	1.691715E-17	2.142513E-18
5.690000E+03	1.706775E-17	2.190776E-18
5.700000E+03	1.725178E-17	2.241339E-18
5.710000E+03	1.746777E-17	2.294251E-18
5.720000E+03	1.771415E-17	2.349519E-18
5.730000E+03	1.798819E-17	2.406962E-18
5.740000E+03	1.828702E-17	2.466345E-18
5.750000E+03	1.860715E-17	2.527318E-18
5.760000E+03	1.894500E-17	2.589481E-18
5.770000E+03	1.929632E-17	2.652316E-18
5.780000E+03	1.965738E-17	2.715341E-18
5.790000E+03	2.002352E-17	2.777920E-18
5.800000E+03	2.039071E-17	2.839480E-18
5.810000E+03	2.075500E-17	2.899430E-18
5.820000E+03	2.111226E-17	2.957144E-18
5.830000E+03	2.145828E-17	3.011962E-18
5.840000E+03	2.178944E-17	3.063298E-18
5.850000E+03	2.210235E-17	3.110593E-18
5.860000E+03	2.239314E-17	3.153219E-18
5.870000E+03	2.265896E-17	3.190700E-18
5.880000E+03	2.289736E-17	3.222624E-18
5.890000E+03	2.310559E-17	3.248548E-18
5.900000E+03	2.328236E-17	3.268255E-18
5.910000E+03	2.342640E-17	3.281546E-18
5.920000E+03	2.353641E-17	3.288234E-18
5.930000E+03	2.361238E-17	3.288323E-18
5.940000E+03	2.365472E-17	3.281889E-18
5.950000E+03	2.366347E-17	3.268958E-18
5.960000E+03	2.363976E-17	3.249710E-18
5.970000E+03	2.358469E-17	3.224317E-18
5.980000E+03	2.349931E-17	3.192938E-18
5.990000E+03	2.338502E-17	3.155773E-18
6.000000E+03	2.324332E-17	3.113026E-18
6.010000E+03	2.307546E-17	3.064863E-18
6.020000E+03	2.288323E-17	3.011518E-18
6.030000E+03	2.266790E-17	2.953152E-18
6.040000E+03	2.243095E-17	2.889959E-18
6.050000E+03	2.217337E-17	2.822076E-18
6.060000E+03	2.189715E-17	2.749783E-18
6.070000E+03	2.160303E-17	2.673222E-18
6.080000E+03	2.129308E-17	2.592730E-18
6.090000E+03	2.096818E-17	2.508531E-18
6.100000E+03	2.063058E-17	2.421071E-18
6.110000E+03	2.028144E-17	2.330721E-18
6.120000E+03	1.992305E-17	2.238067E-18
6.130000E+03	1.955758E-17	2.143778E-18
6.140000E+03	1.918709E-17	2.048629E-18
6.150000E+03	1.881372E-17	1.953547E-18
6.160000E+03	1.844009E-17	1.859687E-18
6.170000E+03	1.806856E-17	1.768366E-18
6.180000E+03	1.770146E-17	1.681108E-18
6.190000E+03	1.734102E-17	1.599635E-18
6.200000E+03	1.698988E-17	1.525871E-18
6.210000E+03	1.665039E-17	1.461782E-18
6.220000E+03	1.632424E-17	1.409171E-18
6.230000E+03	1.601393E-17	1.369548E-18
6.240000E+03	1.572091E-17	1.343638E-18
6.250000E+03	1.544551E-17	1.331056E-18
6.260000E+03	1.518693E-17	1.330296E-18
6.270000E+03	1.494352E-17	1.339185E-18
6.280000E+03	1.471393E-17	1.355391E-18
6.290000E+03	1.449684E-17	1.376696E-18
6.300000E+03	1.429107E-17	1.401168E-18
6.310000E+03	1.409613E-17	1.427289E-18
6.320000E+03	1.391064E-17	1.453793E-18
6.330000E+03	1.373404E-17	1.479800E-18
6.340000E+03	1.356525E-17	1.504633E-18
6.350000E+03	1.340384E-17	1.527887E-18
6.360000E+03	1.324890E-17	1.549262E-18
6.370000E+03	1.310004E-17	1.568631E-18
6.380000E+03	1.295700E-17	1.585973E-18
6.390000E+03	1.281912E-17	1.601279E-18
6.400000E+03	1.268664E-17	1.614691E-18
6.410000E+03	1.255954E-17	1.626348E-18
6.420000E+03	1.243789E-17	1.636417E-18
6.430000E+03	1.232200E-17	1.645104E-18
6.440000E+03	1.221217E-17	1.652617E-18
6.450000E+03	1.210864E-17	1.659154E-18
6.460000E+03	1.201141E-17	1.664875E-18
6.470000E+03	1.192035E-17	1.669909E-18
6.480000E+03	1.183537E-17	1.674386E-18
6.490000E+03	1.175572E-17	1.678327E-18
6.500000E+03	1.168121E-17	1.681822E-18
6.510000E+03	1.161118E-17	1.684882E-18
6.520000E+03	1.154487E-17	1.687494E-18
6.530000E+03	1.148145E-17	1.689625E-18
6.540000E+03	1.142006E-17	1.691224E-18
6.550000E+03	1.136000E-17	1.692262E-18
6.560000E+03	1.130026E-17	1.692651E-18
6.570000E+03	1.124023E-17	1.692357E-18
6.580000E+03	1.117920E-17	1.691327E-18
6.590000E+03	1.111638E-17	1.689488E-18
6.600000E+03	1.105142E-17	1.686832E-18
6.610000E+03	1.098390E-17	1.683336E-18
6.620000E+03	1.091352E-17	1.678986E-18
6.630000E+03	1.084005E-17	1.673783E-18
6.640000E+03	1.076338E-17	1.667736E-18
6.650000E+03	1.068348E-17	1.660865E-18
6.660000E+03	1.060022E-17	1.653173E-18
6.670000E+03	1.051392E-17	1.644728E-18
6.680000E+03	1.042465E-17	1.635553E-18
6.690000E+03	1.033288E-17	1.625738E-18
6.700000E+03	1.023903E-17	1.615356E-18
6.710000E+03	1.014339E-17	1.604463E-18
6.720000E+03	1.004653E-17	1.593155E-18
6.730000E+03	9.949241E-18	1.581566E-18
6.740000E+03	9.851864E-18	1.569755E-18
6.750000E+03	9.755466E-18	1.557898E-18
6.760000E+03	9.660619E-18	1.546093E-18
6.770000E+03	9.567892E-18	1.534436E-18
6.780000E+03	9.478183E-18	1.523079E-18
6.790000E+03	9.392170E-18	1.512136E-18
6.800000E+03	9.310304E-18	1.501685E-18
6.810000E+03	9.233297E-18	1.491850E-18
6.820000E+03	9.161434E-18	1.482681E-18
6.830000E+03	9.095237E-18	1.474271E-18
6.840000E+03	9.034626E-18	1.466612E-18
6.850000E+03	8.980086E-18	1.459791E-18
6.860000E+03	8.931340E-18	1.453771E-18
6.870000E+03	8.888688E-18	1.448608E-18
6.880000E+03	8.851688E-18	1.444238E-18
6.890000E+03	8.820333E-18	1.440669E-18
6.900000E+03	8.794238E-18	1.437845E-18
6.910000E+03	8.773314E-18	1.435760E-18
6.920000E+03	8.757121E-18	1.434349E-18
6.930000E+03	8.745543E-18	1.433599E-18
6.940000E+03	8.737962E-18	1.433415E-18
6.950000E+03	8.734437E-18	1.433808E-18
6.960000E+03	8.734531E-18	1.434707E-18
6.970000E+03	8.737813E-18	1.436042E-18
6.980000E+03	8.744359E-18	1.437822E-18
6.990000E+03	8.753567E-18	1.439941E-18
7.000000E+03	8.765337E-18	1.442377E-18
7.010000E+03	8.779209E-18	1.445044E-18
7.020000E+03	8.795053E-18	1.447910E-18
7.030000E+03	8.812371E-18	1.450880E-18
7.040000E+03	8.830997E-18	1.453915E-18
7.050000E+03	8.850225E-18	1.456884E-18
7.060000E+03	8.870044E-18	1.459772E-18
7.070000E+03	8.889740E-18	1.462450E-18
7.080000E+03	8.909318E-18	1.464904E-18
7.090000E+03	8.928097E-18	1.467013E-18
7.100000E+03	8.945959E-18	1.468746E-18
7.110000E+03	8.962471E-18	1.470024E-18
7.120000E+03	8.977608E-18	1.470835E-18
7.130000E+03	8.991219E-18	1.471147E-18
7.140000E+03	9.002844E-18	1.470880E-18
7.150000E+03	9.012810E-18	1.470081E-18
7.160000E+03	9.021134E-18	1.468750E-18
7.170000E+03	9.027517E-18	1.466833E-18
7.180000E+03	9.032251E-18	1.464371E-18
7.190000E+03	9.035482E-18	1.461382E-18
7.200000E+03	9.037196E-18	1.457856E-18
7.210000E+03	9.037948E-18	1.453872E-18
7.220000E+03	9.037559E-18	1.449389E-18
7.230000E+03	9.036217E-18	1.444423E-18
7.240000E+03	9.034286E-18	1.439014E-18
7.250000E+03	9.031556E-18	1.433110E-18
7.260000E+03	9.028548E-18	1.426770E-18
7.270000E+03	9.025202E-18	1.419959E-18
7.280000E+03	9.021627E-18	1.412664E-18
7.290000E+03	9.017725E-18	1.404840E-18
7.300000E+03	9.013565E-18	1.396463E-18
7.310000E+03	9.009389E-18	1.387531E-18
7.320000E+03	9.005040E-18	1.377978E-18
7.330000E+03	9.000341E-18	1.367731E-18
7.340000E+03	8.995285E-18	1.356735E-18
7.350000E+03	8.989845E-18	1.344932E-18
7.360000E+03	8.983979E-18	1.332252E-18
7.370000E+03	8.977435E-18	1.318591E-18
7.380000E+03	8.969952E-18	1.303839E-18
7.390000E+03	8.961448E-18	1.287908E-18
7.400000E+03	8.951451E-18	1.270654E-18
7.410000E+03	8.940251E-18	1.252040E-18
7.420000E+03	8.927175E-18	1.231895E-18
7.430000E+03	8.912123E-18	1.210139E-18
7.440000E+03	8.895181E-18	1.186722E-18
7.450000E+03	8.876437E-18	1.161610E-18
7.460000E+03	8.855594E-18	1.134737E-18
7.470000E+03	8.832938E-18	1.106140E-18
7.480000E+03	8.808385E-18	1.075840E-18
7.490000E+03	8.782259E-18	1.043958E-18
7.500000E+03	8.754349E-18	1.010605E-18
7.510000E+03	8.725081E-18	9.760427E-19
7.520000E+03	8.694579E-18	9.405893E-19
7.530000E+03	8.663070E-18	9.046912E-19
7.540000E+03	8.631104E-18	8.689689E-19
7.550000E+03	8.598996E-18	8.341835E-19
7.560000E+03	8.567808E-18	8.013545E-19
7.570000E+03	8.538201E-18	7.716500E-19
7.580000E+03	8.511217E-18	7.464364E-19
7.590000E+03	8.488264E-18	7.271944E-19
7.600000E+03	8.470706E-18	7.153319E-19
7.610000E+03	8.459927E-18	7.119691E-19
7.620000E+03	8.456682E-18	7.176124E-19
7.630000E+03	8.461353E-18	7.320090E-19
7.640000E+03	8.473001E-18	7.542094E-19
7.650000E+03	8.491382E-18	7.830132E-19
7.660000E+03	8.515506E-18	8.170695E-19
7.670000E+03	8.545204E-18	8.551739E-19
7.680000E+03	8.579545E-18	8.961999E-19
7.690000E+03	8.618401E-18	9.392803E-19
7.700000E+03	8.661048E-18	9.836599E-19
7.710000E+03	8.706949E-18	1.028754E-18
7.720000E+03	8.755346E-18	1.074075E-18
7.730000E+03	8.806073E-18	1.119308E-18
7.740000E+03	8.858333E-18	1.164138E-18
7.750000E+03	8.911510E-18	1.208331E-18
7.760000E+03	8.964765E-18	1.251664E-18
