#wls	flux	fluxerr
1.600000E+03	1.194410E-17	8.753274E-18
1.640000E+03	1.262945E-17	9.175557E-18
1.680000E+03	1.338603E-17	9.630227E-18
1.720000E+03	1.422349E-17	1.011976E-17
1.760000E+03	1.514816E-17	1.064329E-17
1.800000E+03	1.617095E-17	1.120198E-17
1.840000E+03	1.730058E-17	1.179408E-17
1.880000E+03	1.854907E-17	1.241846E-17
1.920000E+03	1.992737E-17	1.307130E-17
1.960000E+03	2.144646E-17	1.374656E-17
2.000000E+03	2.311358E-17	1.443342E-17
2.040000E+03	2.493800E-17	1.511982E-17
2.080000E+03	2.692545E-17	1.578879E-17
2.120000E+03	2.907306E-17	1.641596E-17
2.160000E+03	3.137286E-17	1.697248E-17
2.200000E+03	3.380418E-17	1.742230E-17
2.240000E+03	3.633488E-17	1.772554E-17
2.280000E+03	3.892935E-17	1.784570E-17
2.320000E+03	4.154311E-17	1.775092E-17
2.360000E+03	4.413839E-17	1.742592E-17
2.400000E+03	4.665943E-17	1.686859E-17
2.440000E+03	4.902988E-17	1.610124E-17
2.480000E+03	5.115828E-17	1.518778E-17
2.520000E+03	5.292925E-17	1.424468E-17
2.560000E+03	5.421543E-17	1.344322E-17
2.600000E+03	5.491102E-17	1.297077E-17
2.640000E+03	5.495002E-17	1.293029E-17
2.680000E+03	5.434967E-17	1.326451E-17
2.720000E+03	5.319415E-17	1.378834E-17
2.760000E+03	5.161510E-17	1.430209E-17
2.800000E+03	4.974612E-17	1.466199E-17
2.840000E+03	4.771407E-17	1.479577E-17
2.880000E+03	4.562882E-17	1.468623E-17
2.920000E+03	4.358255E-17	1.435119E-17
2.960000E+03	4.165160E-17	1.382748E-17
3.000000E+03	3.989869E-17	1.315976E-17
3.010000E+03	3.949415E-17	1.297557E-17
3.020000E+03	3.910510E-17	1.278605E-17
3.030000E+03	3.873114E-17	1.259151E-17
3.040000E+03	3.837446E-17	1.239311E-17
3.050000E+03	3.803468E-17	1.219115E-17
3.060000E+03	3.771224E-17	1.198622E-17
3.070000E+03	3.740762E-17	1.177886E-17
3.080000E+03	3.712284E-17	1.157013E-17
3.090000E+03	3.685678E-17	1.136006E-17
3.100000E+03	3.661143E-17	1.114964E-17
3.110000E+03	3.638650E-17	1.093916E-17
3.120000E+03	3.618321E-17	1.072934E-17
3.130000E+03	3.600207E-17	1.052067E-17
3.140000E+03	3.584359E-17	1.031366E-17
3.150000E+03	3.570836E-17	1.010879E-17
3.160000E+03	3.559763E-17	9.906749E-18
3.170000E+03	3.551137E-17	9.707854E-18
3.180000E+03	3.545091E-17	9.512786E-18
3.190000E+03	3.541696E-17	9.322046E-18
3.200000E+03	3.541023E-17	9.136140E-18
3.210000E+03	3.543214E-17	8.955735E-18
3.220000E+03	3.548225E-17	8.781026E-18
3.230000E+03	3.556322E-17	8.612974E-18
3.240000E+03	3.567406E-17	8.451630E-18
3.250000E+03	3.581741E-17	8.297903E-18
3.260000E+03	3.599287E-17	8.151963E-18
3.270000E+03	3.620180E-17	8.014368E-18
3.280000E+03	3.644485E-17	7.885487E-18
3.290000E+03	3.672201E-17	7.765513E-18
3.300000E+03	3.703481E-17	7.654934E-18
3.310000E+03	3.738227E-17	7.553673E-18
3.320000E+03	3.776429E-17	7.461807E-18
3.330000E+03	3.818155E-17	7.379523E-18
3.340000E+03	3.863202E-17	7.306452E-18
3.350000E+03	3.911436E-17	7.242333E-18
3.360000E+03	3.962662E-17	7.186783E-18
3.370000E+03	4.016681E-17	7.139395E-18
3.380000E+03	4.073054E-17	7.099341E-18
3.390000E+03	4.131383E-17	7.065891E-18
3.400000E+03	4.191254E-17	7.038306E-18
3.410000E+03	4.252068E-17	7.015576E-18
3.420000E+03	4.313225E-17	6.996734E-18
3.430000E+03	4.373960E-17	6.980615E-18
3.440000E+03	4.433652E-17	6.966352E-18
3.450000E+03	4.491615E-17	6.953056E-18
3.460000E+03	4.547076E-17	6.939787E-18
3.470000E+03	4.599426E-17	6.925957E-18
3.480000E+03	4.648084E-17	6.911110E-18
3.490000E+03	4.692684E-17	6.895200E-18
3.500000E+03	4.732759E-17	6.878110E-18
3.510000E+03	4.768201E-17	6.860294E-18
3.520000E+03	4.798861E-17	6.842166E-18
3.530000E+03	4.824757E-17	6.824347E-18
3.540000E+03	4.845990E-17	6.807481E-18
3.550000E+03	4.862644E-17	6.792000E-18
3.560000E+03	4.874881E-17	6.778175E-18
3.570000E+03	4.882635E-17	6.765627E-18
3.580000E+03	4.885881E-17	6.753764E-18
3.590000E+03	4.884606E-17	6.741830E-18
3.600000E+03	4.878673E-17	6.728799E-18
3.610000E+03	4.867996E-17	6.713672E-18
3.620000E+03	4.852453E-17	6.695413E-18
3.630000E+03	4.831968E-17	6.673084E-18
3.640000E+03	4.806584E-17	6.645969E-18
3.650000E+03	4.776351E-17	6.613437E-18
3.660000E+03	4.741599E-17	6.575326E-18
3.670000E+03	4.702687E-17	6.531601E-18
3.680000E+03	4.660269E-17	6.482715E-18
3.690000E+03	4.615259E-17	6.429574E-18
3.700000E+03	4.568668E-17	6.373292E-18
3.710000E+03	4.521822E-17	6.315497E-18
3.720000E+03	4.476334E-17	6.258281E-18
3.730000E+03	4.433860E-17	6.203859E-18
3.740000E+03	4.396232E-17	6.154733E-18
3.750000E+03	4.365443E-17	6.113668E-18
3.760000E+03	4.343397E-17	6.083327E-18
3.770000E+03	4.332063E-17	6.066475E-18
3.780000E+03	4.333390E-17	6.065850E-18
3.790000E+03	4.349157E-17	6.083937E-18
3.800000E+03	4.381055E-17	6.123080E-18
3.810000E+03	4.430627E-17	6.185387E-18
3.820000E+03	4.499239E-17	6.272680E-18
3.830000E+03	4.588089E-17	6.386514E-18
3.840000E+03	4.698053E-17	6.527959E-18
3.850000E+03	4.829800E-17	6.697759E-18
3.860000E+03	4.983659E-17	6.896158E-18
3.870000E+03	5.159473E-17	7.122702E-18
3.880000E+03	5.356653E-17	7.376329E-18
3.890000E+03	5.574167E-17	7.655365E-18
3.900000E+03	5.810307E-17	7.957216E-18
3.910000E+03	6.062689E-17	8.278391E-18
3.920000E+03	6.328444E-17	8.614779E-18
3.930000E+03	6.604067E-17	8.961457E-18
3.940000E+03	6.885376E-17	9.312652E-18
3.950000E+03	7.168017E-17	9.662440E-18
3.960000E+03	7.447376E-17	1.000463E-17
3.970000E+03	7.718781E-17	1.033304E-17
3.980000E+03	7.977717E-17	1.064177E-17
3.990000E+03	8.220374E-17	1.092594E-17
4.000000E+03	8.443337E-17	1.118124E-17
4.010000E+03	8.644066E-17	1.140457E-17
4.020000E+03	8.821073E-17	1.159419E-17
4.030000E+03	8.973611E-17	1.174938E-17
4.040000E+03	9.102072E-17	1.187084E-17
4.050000E+03	9.207391E-17	1.195996E-17
4.060000E+03	9.291580E-17	1.201946E-17
4.070000E+03	9.356900E-17	1.205230E-17
4.080000E+03	9.406053E-17	1.206196E-17
4.090000E+03	9.442085E-17	1.205225E-17
4.100000E+03	9.467762E-17	1.202659E-17
4.110000E+03	9.486109E-17	1.198859E-17
4.120000E+03	9.499528E-17	1.194104E-17
4.130000E+03	9.510315E-17	1.188651E-17
4.140000E+03	9.520373E-17	1.182700E-17
4.150000E+03	9.531033E-17	1.176374E-17
4.160000E+03	9.543358E-17	1.169759E-17
4.170000E+03	9.557946E-17	1.162876E-17
4.180000E+03	9.574976E-17	1.155695E-17
4.190000E+03	9.594582E-17	1.148175E-17
4.200000E+03	9.616391E-17	1.140215E-17
4.210000E+03	9.640201E-17	1.131736E-17
4.220000E+03	9.665433E-17	1.122618E-17
4.230000E+03	9.691712E-17	1.112771E-17
4.240000E+03	9.718584E-17	1.102107E-17
4.250000E+03	9.745439E-17	1.090538E-17
4.260000E+03	9.771967E-17	1.078031E-17
4.270000E+03	9.797583E-17	1.064554E-17
4.280000E+03	9.821631E-17	1.050111E-17
4.290000E+03	9.843366E-17	1.034750E-17
4.300000E+03	9.862100E-17	1.018597E-17
4.310000E+03	9.876985E-17	1.001842E-17
4.320000E+03	9.886890E-17	9.847474E-18
4.330000E+03	9.891109E-17	9.677245E-18
4.340000E+03	9.888645E-17	9.512667E-18
4.350000E+03	9.879121E-17	9.360256E-18
4.360000E+03	9.862163E-17	9.227186E-18
4.370000E+03	9.838080E-17	9.121320E-18
4.380000E+03	9.807754E-17	9.050103E-18
4.390000E+03	9.772801E-17	9.019100E-18
4.400000E+03	9.735596E-17	9.029852E-18
4.410000E+03	9.699202E-17	9.080083E-18
4.420000E+03	9.666972E-17	9.165774E-18
4.430000E+03	9.642088E-17	9.282399E-18
4.440000E+03	9.627440E-17	9.425745E-18
4.450000E+03	9.625188E-17	9.591958E-18
4.460000E+03	9.637035E-17	9.777951E-18
4.470000E+03	9.663676E-17	9.980796E-18
4.480000E+03	9.705092E-17	1.019784E-17
4.490000E+03	9.760489E-17	1.042643E-17
4.500000E+03	9.828341E-17	1.066372E-17
4.510000E+03	9.906463E-17	1.090660E-17
4.520000E+03	9.992104E-17	1.115157E-17
4.530000E+03	1.008188E-16	1.139460E-17
4.540000E+03	1.017240E-16	1.163172E-17
4.550000E+03	1.025976E-16	1.185836E-17
4.560000E+03	1.034013E-16	1.207005E-17
4.570000E+03	1.040973E-16	1.226233E-17
4.580000E+03	1.046516E-16	1.243118E-17
4.590000E+03	1.050326E-16	1.257281E-17
4.600000E+03	1.052126E-16	1.268392E-17
4.610000E+03	1.051740E-16	1.276236E-17
4.620000E+03	1.049019E-16	1.280639E-17
4.630000E+03	1.043894E-16	1.281521E-17
4.640000E+03	1.036386E-16	1.278914E-17
4.650000E+03	1.026570E-16	1.272920E-17
4.660000E+03	1.014554E-16	1.263684E-17
4.670000E+03	1.000541E-16	1.251469E-17
4.680000E+03	9.847477E-17	1.236557E-17
4.690000E+03	9.674212E-17	1.219271E-17
4.700000E+03	9.488394E-17	1.199971E-17
4.710000E+03	9.292852E-17	1.179026E-17
4.720000E+03	9.090565E-17	1.156825E-17
4.730000E+03	8.884268E-17	1.133726E-17
4.740000E+03	8.676903E-17	1.110113E-17
4.750000E+03	8.471312E-17	1.086361E-17
4.760000E+03	8.269874E-17	1.062787E-17
4.770000E+03	8.075173E-17	1.039734E-17
4.780000E+03	7.889320E-17	1.017490E-17
4.790000E+03	7.714156E-17	9.963083E-18
4.800000E+03	7.551435E-17	9.764336E-18
4.810000E+03	7.402215E-17	9.580235E-18
4.820000E+03	7.267643E-17	9.412481E-18
4.830000E+03	7.148094E-17	9.261791E-18
4.840000E+03	7.043946E-17	9.128884E-18
4.850000E+03	6.954966E-17	9.013683E-18
4.860000E+03	6.880861E-17	8.916023E-18
4.870000E+03	6.820761E-17	8.834971E-18
4.880000E+03	6.773701E-17	8.769458E-18
4.890000E+03	6.738391E-17	8.717967E-18
4.900000E+03	6.713255E-17	8.678594E-18
4.910000E+03	6.696620E-17	8.649290E-18
4.920000E+03	6.686722E-17	8.627878E-18
4.930000E+03	6.681861E-17	8.612246E-18
4.940000E+03	6.680240E-17	8.600145E-18
4.950000E+03	6.680514E-17	8.589906E-18
4.960000E+03	6.681368E-17	8.579880E-18
4.970000E+03	6.682040E-17	8.569126E-18
4.980000E+03	6.682042E-17	8.557037E-18
4.990000E+03	6.681360E-17	8.543603E-18
5.000000E+03	6.680364E-17	8.529287E-18
5.010000E+03	6.679814E-17	8.515028E-18
5.020000E+03	6.680507E-17	8.501795E-18
5.030000E+03	6.683580E-17	8.490963E-18
5.040000E+03	6.690073E-17	8.483762E-18
5.050000E+03	6.701112E-17	8.481503E-18
5.060000E+03	6.717563E-17	8.485146E-18
5.070000E+03	6.740121E-17	8.495407E-18
5.080000E+03	6.769406E-17	8.512884E-18
5.090000E+03	6.805762E-17	8.537798E-18
5.100000E+03	6.849255E-17	8.570000E-18
5.110000E+03	6.899760E-17	8.609074E-18
5.120000E+03	6.957180E-17	8.654614E-18
5.130000E+03	7.020991E-17	8.705656E-18
5.140000E+03	7.090662E-17	8.761203E-18
5.150000E+03	7.165530E-17	8.820070E-18
5.160000E+03	7.244808E-17	8.880894E-18
5.170000E+03	7.327511E-17	8.942048E-18
5.180000E+03	7.412683E-17	9.001920E-18
5.190000E+03	7.499042E-17	9.058480E-18
5.200000E+03	7.585433E-17	9.109840E-18
5.210000E+03	7.670412E-17	9.153753E-18
5.220000E+03	7.752799E-17	9.188285E-18
5.230000E+03	7.831116E-17	9.211143E-18
5.240000E+03	7.904158E-17	9.220368E-18
5.250000E+03	7.970574E-17	9.213839E-18
5.260000E+03	8.029369E-17	9.189871E-18
5.270000E+03	8.079632E-17	9.146892E-18
5.280000E+03	8.120470E-17	9.083377E-18
5.290000E+03	8.151343E-17	8.998226E-18
5.300000E+03	8.171991E-17	8.890676E-18
5.310000E+03	8.182178E-17	8.760017E-18
5.320000E+03	8.181838E-17	8.605769E-18
5.330000E+03	8.171128E-17	8.427749E-18
5.340000E+03	8.150323E-17	8.225981E-18
5.350000E+03	8.119783E-17	8.000707E-18
5.360000E+03	8.079852E-17	7.752350E-18
5.370000E+03	8.031087E-17	7.481827E-18
5.380000E+03	7.973934E-17	7.190345E-18
5.390000E+03	7.909057E-17	6.879864E-18
5.400000E+03	7.837040E-17	6.553020E-18
5.410000E+03	7.758800E-17	6.213728E-18
5.420000E+03	7.675294E-17	5.867222E-18
5.430000E+03	7.587451E-17	5.520396E-18
5.440000E+03	7.496617E-17	5.182557E-18
5.450000E+03	7.403984E-17	4.865388E-18
5.460000E+03	7.310483E-17	4.583047E-18
5.470000E+03	7.217537E-17	4.352094E-18
5.480000E+03	7.126156E-17	4.188967E-18
5.490000E+03	7.037334E-17	4.106317E-18
5.500000E+03	6.951789E-17	4.106824E-18
5.510000E+03	6.869328E-17	4.179919E-18
5.520000E+03	6.789615E-17	4.307964E-18
5.530000E+03	6.712493E-17	4.472510E-18
5.540000E+03	6.637701E-17	4.657385E-18
5.550000E+03	6.565266E-17	4.850122E-18
5.560000E+03	6.495306E-17	5.041803E-18
5.570000E+03	6.428099E-17	5.226571E-18
5.580000E+03	6.364322E-17	5.401188E-18
5.590000E+03	6.304859E-17	5.564337E-18
5.600000E+03	6.250844E-17	5.716197E-18
5.610000E+03	6.203669E-17	5.858114E-18
5.620000E+03	6.164782E-17	5.992145E-18
5.630000E+03	6.135665E-17	6.120827E-18
5.640000E+03	6.117805E-17	6.246987E-18
5.650000E+03	6.112480E-17	6.373406E-18
5.660000E+03	6.120810E-17	6.502761E-18
5.670000E+03	6.143568E-17	6.637355E-18
5.680000E+03	6.181195E-17	6.779071E-18
5.690000E+03	6.233845E-17	6.929369E-18
5.700000E+03	6.301244E-17	7.089116E-18
5.710000E+03	6.382768E-17	7.258637E-18
5.720000E+03	6.477540E-17	7.437825E-18
5.730000E+03	6.584340E-17	7.626028E-18
5.740000E+03	6.701789E-17	7.822266E-18
5.750000E+03	6.828206E-17	8.025064E-18
5.760000E+03	6.962012E-17	8.232933E-18
5.770000E+03	7.101360E-17	8.443938E-18
5.780000E+03	7.244460E-17	8.656089E-18
5.790000E+03	7.389699E-17	8.867488E-18
5.800000E+03	7.535190E-17	9.075806E-18
5.810000E+03	7.679408E-17	9.279043E-18
5.820000E+03	7.820716E-17	9.474979E-18
5.830000E+03	7.957523E-17	9.661379E-18
5.840000E+03	8.088197E-17	9.835908E-18
5.850000E+03	8.211434E-17	9.996597E-18
5.860000E+03	8.325753E-17	1.014127E-17
5.870000E+03	8.429973E-17	1.026815E-17
5.880000E+03	8.522982E-17	1.037559E-17
5.890000E+03	8.603766E-17	1.046216E-17
5.900000E+03	8.671721E-17	1.052701E-17
5.910000E+03	8.726488E-17	1.056967E-17
5.920000E+03	8.767660E-17	1.058973E-17
5.930000E+03	8.795347E-17	1.058743E-17
5.940000E+03	8.809767E-17	1.056323E-17
5.950000E+03	8.811402E-17	1.051787E-17
5.960000E+03	8.800558E-17	1.045190E-17
5.970000E+03	8.778024E-17	1.036638E-17
5.980000E+03	8.744236E-17	1.026191E-17
5.990000E+03	8.699950E-17	1.013940E-17
6.000000E+03	8.645819E-17	9.999568E-18
6.010000E+03	8.582378E-17	9.842936E-18
6.020000E+03	8.510337E-17	9.670181E-18
6.030000E+03	8.430076E-17	9.481568E-18
6.040000E+03	8.342334E-17	9.277749E-18
6.050000E+03	8.247324E-17	9.058790E-18
6.060000E+03	8.145721E-17	8.825282E-18
6.070000E+03	8.037796E-17	8.577412E-18
6.080000E+03	7.924110E-17	8.315747E-18
6.090000E+03	7.804974E-17	8.040674E-18
6.100000E+03	7.680943E-17	7.752972E-18
6.110000E+03	7.552564E-17	7.453585E-18
6.120000E+03	7.420570E-17	7.143887E-18
6.130000E+03	7.285613E-17	6.825503E-18
6.140000E+03	7.148521E-17	6.500666E-18
6.150000E+03	7.010263E-17	6.172310E-18
6.160000E+03	6.871734E-17	5.844035E-18
6.170000E+03	6.733643E-17	5.520213E-18
6.180000E+03	6.596904E-17	5.206512E-18
6.190000E+03	6.462284E-17	4.909757E-18
6.200000E+03	6.330573E-17	4.638116E-18
6.210000E+03	6.202613E-17	4.400899E-18
6.220000E+03	6.079251E-17	4.207843E-18
6.230000E+03	5.961444E-17	4.067814E-18
6.240000E+03	5.850264E-17	3.986535E-18
6.250000E+03	5.745974E-17	3.962781E-18
6.260000E+03	5.647986E-17	3.987979E-18
6.270000E+03	5.555959E-17	4.050740E-18
6.280000E+03	5.469453E-17	4.139549E-18
6.290000E+03	5.387981E-17	4.244298E-18
6.300000E+03	5.311455E-17	4.357190E-18
6.310000E+03	5.239358E-17	4.472101E-18
6.320000E+03	5.171506E-17	4.584904E-18
6.330000E+03	5.107404E-17	4.692595E-18
6.340000E+03	5.046687E-17	4.793319E-18
6.350000E+03	4.988934E-17	4.885926E-18
6.360000E+03	4.933766E-17	4.969840E-18
6.370000E+03	4.880872E-17	5.044919E-18
6.380000E+03	4.829963E-17	5.111283E-18
6.390000E+03	4.780848E-17	5.169305E-18
6.400000E+03	4.733567E-17	5.219699E-18
6.410000E+03	4.688042E-17	5.263093E-18
6.420000E+03	4.644455E-17	5.300424E-18
6.430000E+03	4.602891E-17	5.332506E-18
6.440000E+03	4.563501E-17	5.360209E-18
6.450000E+03	4.526482E-17	5.384416E-18
6.460000E+03	4.492044E-17	5.405992E-18
6.470000E+03	4.460195E-17	5.425514E-18
6.480000E+03	4.430931E-17	5.443493E-18
6.490000E+03	4.404164E-17	5.460289E-18
6.500000E+03	4.379593E-17	5.475948E-18
6.510000E+03	4.357048E-17	5.490631E-18
6.520000E+03	4.336171E-17	5.504221E-18
6.530000E+03	4.316501E-17	5.516430E-18
6.540000E+03	4.297758E-17	5.527164E-18
6.550000E+03	4.279463E-17	5.536045E-18
6.560000E+03	4.261154E-17	5.542685E-18
6.570000E+03	4.242603E-17	5.546977E-18
6.580000E+03	4.223419E-17	5.548589E-18
6.590000E+03	4.203328E-17	5.547319E-18
6.600000E+03	4.182174E-17	5.543109E-18
6.610000E+03	4.159647E-17	5.535680E-18
6.620000E+03	4.135615E-17	5.524981E-18
6.630000E+03	4.110128E-17	5.511183E-18
6.640000E+03	4.083000E-17	5.494132E-18
6.650000E+03	4.054212E-17	5.473884E-18
6.660000E+03	4.023849E-17	5.450615E-18
6.670000E+03	3.991890E-17	5.424349E-18
6.680000E+03	3.958418E-17	5.395232E-18
6.690000E+03	3.923617E-17	5.363542E-18
6.700000E+03	3.887512E-17	5.329329E-18
6.710000E+03	3.850301E-17	5.292875E-18
6.720000E+03	3.812355E-17	5.254697E-18
6.730000E+03	3.773819E-17	5.214999E-18
6.740000E+03	3.735002E-17	5.174218E-18
6.750000E+03	3.696304E-17	5.132914E-18
6.760000E+03	3.658007E-17	5.091494E-18
6.770000E+03	3.620466E-17	5.050463E-18
6.780000E+03	3.584024E-17	5.010320E-18
6.790000E+03	3.549009E-17	4.971539E-18
6.800000E+03	3.515654E-17	4.934463E-18
6.810000E+03	3.484280E-17	4.899562E-18
6.820000E+03	3.455099E-17	4.867155E-18
6.830000E+03	3.428211E-17	4.837400E-18
6.840000E+03	3.403789E-17	4.810564E-18
6.850000E+03	3.381828E-17	4.786666E-18
6.860000E+03	3.362338E-17	4.765748E-18
6.870000E+03	3.345285E-17	4.747791E-18
6.880000E+03	3.330538E-17	4.732644E-18
6.890000E+03	3.318118E-17	4.720376E-18
6.900000E+03	3.307845E-17	4.710769E-18
6.910000E+03	3.299523E-17	4.703584E-18
6.920000E+03	3.293079E-17	4.698754E-18
6.930000E+03	3.288316E-17	4.696032E-18
6.940000E+03	3.285107E-17	4.695265E-18
6.950000E+03	3.283399E-17	4.696395E-18
6.960000E+03	3.283021E-17	4.699190E-18
6.970000E+03	3.283875E-17	4.703510E-18
6.980000E+03	3.285867E-17	4.709207E-18
6.990000E+03	3.288904E-17	4.716125E-18
7.000000E+03	3.292822E-17	4.723999E-18
7.010000E+03	3.297643E-17	4.732814E-18
7.020000E+03	3.303117E-17	4.742166E-18
7.030000E+03	3.309111E-17	4.751806E-18
7.040000E+03	3.315542E-17	4.761558E-18
7.050000E+03	3.322187E-17	4.771042E-18
7.060000E+03	3.328881E-17	4.779965E-18
7.070000E+03	3.335457E-17	4.788032E-18
7.080000E+03	3.341753E-17	4.794964E-18
7.090000E+03	3.347683E-17	4.800596E-18
7.100000E+03	3.352980E-17	4.804508E-18
7.110000E+03	3.357526E-17	4.806508E-18
7.120000E+03	3.361298E-17	4.806543E-18
7.130000E+03	3.364234E-17	4.804511E-18
7.140000E+03	3.366230E-17	4.800262E-18
7.150000E+03	3.367348E-17	4.793882E-18
7.160000E+03	3.367472E-17	4.785209E-18
7.170000E+03	3.366785E-17	4.774508E-18
7.180000E+03	3.365287E-17	4.761779E-18
7.190000E+03	3.363060E-17	4.747137E-18
7.200000E+03	3.360129E-17	4.730607E-18
7.210000E+03	3.356731E-17	4.712508E-18
7.220000E+03	3.352825E-17	4.692753E-18
7.230000E+03	3.348572E-17	4.671531E-18
7.240000E+03	3.343988E-17	4.648814E-18
7.250000E+03	3.339214E-17	4.624741E-18
7.260000E+03	3.334243E-17	4.599232E-18
7.270000E+03	3.329128E-17	4.572282E-18
7.280000E+03	3.323982E-17	4.543959E-18
7.290000E+03	3.318771E-17	4.514120E-18
7.300000E+03	3.313594E-17	4.482794E-18
7.310000E+03	3.308331E-17	4.449702E-18
7.320000E+03	3.303066E-17	4.414830E-18
7.330000E+03	3.297878E-17	4.378134E-18
7.340000E+03	3.292621E-17	4.339253E-18
7.350000E+03	3.287355E-17	4.298078E-18
7.360000E+03	3.281990E-17	4.254272E-18
7.370000E+03	3.276572E-17	4.207649E-18
7.380000E+03	3.271001E-17	4.157806E-18
7.390000E+03	3.265245E-17	4.104399E-18
7.400000E+03	3.259270E-17	4.047059E-18
7.410000E+03	3.252974E-17	3.985315E-18
7.420000E+03	3.246322E-17	3.918772E-18
7.430000E+03	3.239281E-17	3.847036E-18
7.440000E+03	3.231813E-17	3.769723E-18
7.450000E+03	3.223948E-17	3.686557E-18
7.460000E+03	3.215568E-17	3.597131E-18
7.470000E+03	3.206764E-17	3.501351E-18
7.480000E+03	3.197477E-17	3.399049E-18
7.490000E+03	3.187651E-17	3.290197E-18
7.500000E+03	3.177234E-17	3.174961E-18
7.510000E+03	3.166190E-17	3.053774E-18
7.520000E+03	3.154654E-17	2.927562E-18
7.530000E+03	3.142512E-17	2.797439E-18
7.540000E+03	3.129915E-17	2.665339E-18
7.550000E+03	3.117010E-17	2.533897E-18
7.560000E+03	3.104087E-17	2.406755E-18
7.570000E+03	3.091304E-17	2.288496E-18
7.580000E+03	3.079122E-17	2.185049E-18
7.590000E+03	3.068012E-17	2.103266E-18
7.600000E+03	3.058601E-17	2.050386E-18
7.610000E+03	3.051353E-17	2.032519E-18
7.620000E+03	3.046886E-17	2.052761E-18
7.630000E+03	3.045115E-17	2.108968E-18
7.640000E+03	3.045755E-17	2.195550E-18
7.650000E+03	3.048754E-17	2.305967E-18
7.660000E+03	3.053860E-17	2.433796E-18
7.670000E+03	3.060906E-17	2.573591E-18
7.680000E+03	3.069730E-17	2.721012E-18
7.690000E+03	3.080166E-17	2.872746E-18
7.700000E+03	3.092040E-17	3.026329E-18
7.710000E+03	3.105241E-17	3.180034E-18
7.720000E+03	3.119419E-17	3.332392E-18
7.730000E+03	3.134515E-17	3.482597E-18
7.740000E+03	3.150228E-17	3.629853E-18
7.750000E+03	3.166323E-17	3.773613E-18
7.760000E+03	3.182557E-17	3.913438E-18
