#wls	flux	fluxerr
1.600000E+03	1.640540E-17	1.266908E-17
1.640000E+03	1.650999E-17	1.273537E-17
1.680000E+03	1.661529E-17	1.280076E-17
1.720000E+03	1.672077E-17	1.286474E-17
1.760000E+03	1.682584E-17	1.292674E-17
1.800000E+03	1.693278E-17	1.298839E-17
1.840000E+03	1.703519E-17	1.304464E-17
1.880000E+03	1.713817E-17	1.309927E-17
1.920000E+03	1.724105E-17	1.315163E-17
1.960000E+03	1.734026E-17	1.319881E-17
2.000000E+03	1.743511E-17	1.324012E-17
2.040000E+03	1.752786E-17	1.327710E-17
2.080000E+03	1.761498E-17	1.330685E-17
2.120000E+03	1.770170E-17	1.333310E-17
2.160000E+03	1.778172E-17	1.335083E-17
2.200000E+03	1.785755E-17	1.336164E-17
2.240000E+03	1.792889E-17	1.336496E-17
2.280000E+03	1.799559E-17	1.336034E-17
2.320000E+03	1.805767E-17	1.334735E-17
2.360000E+03	1.811532E-17	1.332572E-17
2.400000E+03	1.817183E-17	1.329734E-17
2.440000E+03	1.822499E-17	1.326003E-17
2.480000E+03	1.827574E-17	1.321391E-17
2.520000E+03	1.832811E-17	1.316126E-17
2.560000E+03	1.838364E-17	1.310248E-17
2.600000E+03	1.844143E-17	1.303624E-17
2.640000E+03	1.850655E-17	1.296539E-17
2.680000E+03	1.858441E-17	1.289295E-17
2.720000E+03	1.867269E-17	1.281655E-17
2.760000E+03	1.877778E-17	1.273986E-17
2.800000E+03	1.890655E-17	1.266682E-17
2.840000E+03	1.906106E-17	1.259813E-17
2.880000E+03	1.924672E-17	1.253676E-17
2.920000E+03	1.947228E-17	1.248792E-17
2.960000E+03	1.974451E-17	1.245551E-17
3.000000E+03	2.006822E-17	1.244229E-17
3.010000E+03	2.015822E-17	1.244261E-17
3.020000E+03	2.025156E-17	1.244422E-17
3.030000E+03	2.035109E-17	1.244885E-17
3.040000E+03	2.045425E-17	1.245493E-17
3.050000E+03	2.056117E-17	1.246254E-17
3.060000E+03	2.067199E-17	1.247179E-17
3.070000E+03	2.078956E-17	1.248440E-17
3.080000E+03	2.091133E-17	1.249881E-17
3.090000E+03	2.103742E-17	1.251512E-17
3.100000E+03	2.116798E-17	1.253343E-17
3.110000E+03	2.130589E-17	1.255545E-17
3.120000E+03	2.144579E-17	1.257803E-17
3.130000E+03	2.159610E-17	1.260611E-17
3.140000E+03	2.174868E-17	1.263493E-17
3.150000E+03	2.190640E-17	1.266620E-17
3.160000E+03	2.207220E-17	1.270162E-17
3.170000E+03	2.224340E-17	1.273965E-17
3.180000E+03	2.242297E-17	1.278199E-17
3.190000E+03	2.260535E-17	1.282550E-17
3.200000E+03	2.279632E-17	1.287346E-17
3.210000E+03	2.299314E-17	1.292434E-17
3.220000E+03	2.319878E-17	1.297980E-17
3.230000E+03	2.340755E-17	1.303669E-17
3.240000E+03	2.362530E-17	1.309826E-17
3.250000E+03	2.384918E-17	1.316296E-17
3.260000E+03	2.408218E-17	1.323242E-17
3.270000E+03	2.431843E-17	1.330343E-17
3.280000E+03	2.456385E-17	1.337923E-17
3.290000E+03	2.481846E-17	1.345984E-17
3.300000E+03	2.507624E-17	1.354199E-17
3.310000E+03	2.534316E-17	1.362890E-17
3.320000E+03	2.561613E-17	1.371891E-17
3.330000E+03	2.589504E-17	1.381196E-17
3.340000E+03	2.617977E-17	1.390796E-17
3.350000E+03	2.647329E-17	1.400850E-17
3.360000E+03	2.677234E-17	1.411181E-17
3.370000E+03	2.707989E-17	1.421945E-17
3.380000E+03	2.738940E-17	1.432794E-17
3.390000E+03	2.770699E-17	1.444048E-17
3.400000E+03	2.802921E-17	1.455522E-17
3.410000E+03	2.835577E-17	1.467199E-17
3.420000E+03	2.868966E-17	1.479228E-17
3.430000E+03	2.902730E-17	1.491420E-17
3.440000E+03	2.936835E-17	1.503753E-17
3.450000E+03	2.971246E-17	1.516202E-17
3.460000E+03	3.006268E-17	1.528918E-17
3.470000E+03	3.041530E-17	1.541704E-17
3.480000E+03	3.076995E-17	1.554536E-17
3.490000E+03	3.112630E-17	1.567388E-17
3.500000E+03	3.148752E-17	1.580413E-17
3.510000E+03	3.184984E-17	1.593412E-17
3.520000E+03	3.221299E-17	1.606362E-17
3.530000E+03	3.258031E-17	1.619421E-17
3.540000E+03	3.294447E-17	1.632213E-17
3.550000E+03	3.331251E-17	1.645078E-17
3.560000E+03	3.368442E-17	1.658004E-17
3.570000E+03	3.405290E-17	1.670619E-17
3.580000E+03	3.442536E-17	1.683275E-17
3.590000E+03	3.479829E-17	1.695787E-17
3.600000E+03	3.517194E-17	1.708155E-17
3.610000E+03	3.554664E-17	1.720382E-17
3.620000E+03	3.592665E-17	1.732659E-17
3.630000E+03	3.630877E-17	1.744815E-17
3.640000E+03	3.669367E-17	1.756867E-17
3.650000E+03	3.708214E-17	1.768837E-17
3.660000E+03	3.747900E-17	1.780937E-17
3.670000E+03	3.788142E-17	1.793011E-17
3.680000E+03	3.829055E-17	1.805096E-17
3.690000E+03	3.870766E-17	1.817229E-17
3.700000E+03	3.913412E-17	1.829453E-17
3.710000E+03	3.957546E-17	1.842002E-17
3.720000E+03	4.002928E-17	1.854736E-17
3.730000E+03	4.049728E-17	1.867707E-17
3.740000E+03	4.098123E-17	1.880965E-17
3.750000E+03	4.148712E-17	1.894753E-17
3.760000E+03	4.201277E-17	1.908934E-17
3.770000E+03	4.256016E-17	1.923560E-17
3.780000E+03	4.313128E-17	1.938680E-17
3.790000E+03	4.372816E-17	1.954341E-17
3.800000E+03	4.435718E-17	1.970780E-17
3.810000E+03	4.501172E-17	1.987648E-17
3.820000E+03	4.570254E-17	2.005368E-17
3.830000E+03	4.642725E-17	2.023770E-17
3.840000E+03	4.718777E-17	2.042874E-17
3.850000E+03	4.799057E-17	2.062889E-17
3.860000E+03	4.882822E-17	2.083419E-17
3.870000E+03	4.971166E-17	2.104852E-17
3.880000E+03	5.063782E-17	2.126968E-17
3.890000E+03	5.160807E-17	2.149734E-17
3.900000E+03	5.262365E-17	2.173103E-17
3.910000E+03	5.368559E-17	2.197014E-17
3.920000E+03	5.479987E-17	2.221600E-17
3.930000E+03	5.595701E-17	2.246357E-17
3.940000E+03	5.716773E-17	2.271596E-17
3.950000E+03	5.842716E-17	2.296988E-17
3.960000E+03	5.973524E-17	2.322395E-17
3.970000E+03	6.109171E-17	2.347665E-17
3.980000E+03	6.249602E-17	2.372628E-17
3.990000E+03	6.394737E-17	2.397099E-17
4.000000E+03	6.545061E-17	2.421098E-17
4.010000E+03	6.699274E-17	2.443974E-17
4.020000E+03	6.858412E-17	2.465937E-17
4.030000E+03	7.021079E-17	2.486309E-17
4.040000E+03	7.188311E-17	2.505279E-17
4.050000E+03	7.359271E-17	2.522367E-17
4.060000E+03	7.533051E-17	2.537080E-17
4.070000E+03	7.710701E-17	2.549588E-17
4.080000E+03	7.891296E-17	2.559390E-17
4.090000E+03	8.074543E-17	2.566203E-17
4.100000E+03	8.260142E-17	2.569744E-17
4.110000E+03	8.447784E-17	2.569733E-17
4.120000E+03	8.637156E-17	2.565893E-17
4.130000E+03	8.827942E-17	2.557953E-17
4.140000E+03	9.019826E-17	2.545653E-17
4.150000E+03	9.212495E-17	2.528743E-17
4.160000E+03	9.405644E-17	2.506988E-17
4.170000E+03	9.598972E-17	2.480169E-17
4.180000E+03	9.792191E-17	2.448088E-17
4.190000E+03	9.985022E-17	2.410572E-17
4.200000E+03	1.017720E-16	2.367475E-17
4.210000E+03	1.036847E-16	2.318685E-17
4.220000E+03	1.055860E-16	2.264127E-17
4.230000E+03	1.074736E-16	2.203776E-17
4.240000E+03	1.093455E-16	2.137663E-17
4.250000E+03	1.111996E-16	2.065889E-17
4.260000E+03	1.130251E-16	1.988481E-17
4.270000E+03	1.148385E-16	1.906073E-17
4.280000E+03	1.166196E-16	1.818795E-17
4.290000E+03	1.183858E-16	1.727590E-17
4.300000E+03	1.201166E-16	1.633067E-17
4.310000E+03	1.218201E-16	1.536616E-17
4.320000E+03	1.235047E-16	1.440063E-17
4.330000E+03	1.251496E-16	1.345510E-17
4.340000E+03	1.267533E-16	1.256142E-17
4.350000E+03	1.283343E-16	1.176320E-17
4.360000E+03	1.298815E-16	1.111133E-17
4.370000E+03	1.313833E-16	1.066410E-17
4.380000E+03	1.328594E-16	1.048006E-17
4.390000E+03	1.342885E-16	1.059682E-17
4.400000E+03	1.356810E-16	1.102334E-17
4.410000E+03	1.370376E-16	1.173550E-17
4.420000E+03	1.383488E-16	1.268785E-17
4.430000E+03	1.396369E-16	1.383199E-17
4.440000E+03	1.408822E-16	1.511949E-17
4.450000E+03	1.420964E-16	1.651269E-17
4.460000E+03	1.432808E-16	1.798107E-17
4.470000E+03	1.444363E-16	1.950102E-17
4.480000E+03	1.455529E-16	2.105277E-17
4.490000E+03	1.466419E-16	2.262359E-17
4.500000E+03	1.477148E-16	2.420425E-17
4.510000E+03	1.487385E-16	2.578056E-17
4.520000E+03	1.497462E-16	2.735086E-17
4.530000E+03	1.507154E-16	2.890539E-17
4.540000E+03	1.516566E-16	3.044123E-17
4.550000E+03	1.525692E-16	3.195428E-17
4.560000E+03	1.534526E-16	3.344104E-17
4.570000E+03	1.542944E-16	3.489589E-17
4.580000E+03	1.551050E-16	3.631852E-17
4.590000E+03	1.558834E-16	3.770658E-17
4.600000E+03	1.566286E-16	3.905798E-17
4.610000E+03	1.573282E-16	4.036796E-17
4.620000E+03	1.579929E-16	4.163764E-17
4.630000E+03	1.586103E-16	4.286251E-17
4.640000E+03	1.592028E-16	4.404745E-17
4.650000E+03	1.597472E-16	4.518521E-17
4.660000E+03	1.602434E-16	4.627475E-17
4.670000E+03	1.607144E-16	4.732200E-17
4.680000E+03	1.611378E-16	4.831989E-17
4.690000E+03	1.615258E-16	4.927153E-17
4.700000E+03	1.618684E-16	5.017342E-17
4.710000E+03	1.621783E-16	5.102923E-17
4.720000E+03	1.624576E-16	5.183943E-17
4.730000E+03	1.627086E-16	5.260470E-17
4.740000E+03	1.629226E-16	5.332222E-17
4.750000E+03	1.631141E-16	5.399672E-17
4.760000E+03	1.632752E-16	5.462571E-17
4.770000E+03	1.634210E-16	5.521439E-17
4.780000E+03	1.635556E-16	5.576441E-17
4.790000E+03	1.636834E-16	5.627756E-17
4.800000E+03	1.637976E-16	5.675186E-17
4.810000E+03	1.639030E-16	5.718927E-17
4.820000E+03	1.640272E-16	5.759970E-17
4.830000E+03	1.641525E-16	5.797744E-17
4.840000E+03	1.642842E-16	5.832462E-17
4.850000E+03	1.644496E-16	5.865134E-17
4.860000E+03	1.646314E-16	5.895177E-17
4.870000E+03	1.648346E-16	5.922795E-17
4.880000E+03	1.650751E-16	5.948585E-17
4.890000E+03	1.653576E-16	5.972735E-17
4.900000E+03	1.656751E-16	5.995013E-17
4.910000E+03	1.660431E-16	6.015980E-17
4.920000E+03	1.664653E-16	6.035773E-17
4.930000E+03	1.669342E-16	6.054109E-17
4.940000E+03	1.674641E-16	6.071487E-17
4.950000E+03	1.680579E-16	6.087985E-17
4.960000E+03	1.687068E-16	6.103249E-17
4.970000E+03	1.694243E-16	6.117713E-17
4.980000E+03	1.702009E-16	6.130975E-17
4.990000E+03	1.710493E-16	6.143420E-17
5.000000E+03	1.719593E-16	6.154598E-17
5.010000E+03	1.729544E-16	6.165253E-17
5.020000E+03	1.740009E-16	6.174076E-17
5.030000E+03	1.751333E-16	6.182170E-17
5.040000E+03	1.763285E-16	6.188588E-17
5.050000E+03	1.775863E-16	6.193174E-17
5.060000E+03	1.789293E-16	6.196562E-17
5.070000E+03	1.803218E-16	6.197341E-17
5.080000E+03	1.817980E-16	6.196512E-17
5.090000E+03	1.833334E-16	6.193036E-17
5.100000E+03	1.849386E-16	6.187070E-17
5.110000E+03	1.866004E-16	6.177951E-17
5.120000E+03	1.883294E-16	6.165802E-17
5.130000E+03	1.901118E-16	6.149935E-17
5.140000E+03	1.919706E-16	6.130840E-17
5.150000E+03	1.938670E-16	6.107010E-17
5.160000E+03	1.958363E-16	6.079299E-17
5.170000E+03	1.978517E-16	6.046577E-17
5.180000E+03	1.999107E-16	6.008493E-17
5.190000E+03	2.020236E-16	5.965069E-17
5.200000E+03	2.041880E-16	5.915923E-17
5.210000E+03	2.064011E-16	5.860662E-17
5.220000E+03	2.086466E-16	5.798512E-17
5.230000E+03	2.109341E-16	5.729440E-17
5.240000E+03	2.132462E-16	5.652666E-17
5.250000E+03	2.155920E-16	5.568138E-17
5.260000E+03	2.179529E-16	5.475082E-17
5.270000E+03	2.203510E-16	5.373780E-17
5.280000E+03	2.227386E-16	5.262791E-17
5.290000E+03	2.251508E-16	5.142737E-17
5.300000E+03	2.275520E-16	5.012578E-17
5.310000E+03	2.299481E-16	4.872298E-17
5.320000E+03	2.323156E-16	4.721289E-17
5.330000E+03	2.346590E-16	4.559618E-17
5.340000E+03	2.369677E-16	4.387107E-17
5.350000E+03	2.392151E-16	4.203411E-17
5.360000E+03	2.414037E-16	4.008867E-17
5.370000E+03	2.435202E-16	3.803686E-17
5.380000E+03	2.455351E-16	3.588074E-17
5.390000E+03	2.474491E-16	3.363004E-17
5.400000E+03	2.492310E-16	3.129393E-17
5.410000E+03	2.508965E-16	2.889310E-17
5.420000E+03	2.523981E-16	2.644811E-17
5.430000E+03	2.537196E-16	2.399508E-17
5.440000E+03	2.548612E-16	2.158823E-17
5.450000E+03	2.558081E-16	1.930486E-17
5.460000E+03	2.565464E-16	1.725765E-17
5.470000E+03	2.570481E-16	1.560181E-17
5.480000E+03	2.573193E-16	1.452758E-17
5.490000E+03	2.573373E-16	1.420121E-17
5.500000E+03	2.571319E-16	1.467963E-17
5.510000E+03	2.566731E-16	1.586475E-17
5.520000E+03	2.559673E-16	1.757095E-17
5.530000E+03	2.550401E-16	1.961174E-17
5.540000E+03	2.539032E-16	2.183979E-17
5.550000E+03	2.525704E-16	2.415100E-17
5.560000E+03	2.510411E-16	2.647286E-17
5.570000E+03	2.493630E-16	2.876069E-17
5.580000E+03	2.475063E-16	3.097671E-17
5.590000E+03	2.455352E-16	3.310441E-17
5.600000E+03	2.434366E-16	3.512520E-17
5.610000E+03	2.412435E-16	3.703164E-17
5.620000E+03	2.389586E-16	3.881576E-17
5.630000E+03	2.366289E-16	4.047959E-17
5.640000E+03	2.342416E-16	4.201772E-17
5.650000E+03	2.318277E-16	4.343376E-17
5.660000E+03	2.293886E-16	4.472747E-17
5.670000E+03	2.269535E-16	4.590499E-17
5.680000E+03	2.245367E-16	4.697063E-17
5.690000E+03	2.221513E-16	4.792925E-17
5.700000E+03	2.197960E-16	4.878304E-17
5.710000E+03	2.174961E-16	4.954042E-17
5.720000E+03	2.152621E-16	5.020696E-17
5.730000E+03	2.131034E-16	5.078824E-17
5.740000E+03	2.110155E-16	5.128654E-17
5.750000E+03	2.090191E-16	5.171027E-17
5.760000E+03	2.071208E-16	5.206444E-17
5.770000E+03	2.053259E-16	5.235376E-17
5.780000E+03	2.036265E-16	5.257929E-17
5.790000E+03	2.020513E-16	5.275147E-17
5.800000E+03	2.005656E-16	5.286396E-17
5.810000E+03	1.992085E-16	5.292961E-17
5.820000E+03	1.979685E-16	5.294769E-17
5.830000E+03	1.968334E-16	5.291698E-17
5.840000E+03	1.958148E-16	5.284236E-17
5.850000E+03	1.949112E-16	5.272496E-17
5.860000E+03	1.941085E-16	5.256216E-17
5.870000E+03	1.934280E-16	5.236072E-17
5.880000E+03	1.928424E-16	5.211394E-17
5.890000E+03	1.923597E-16	5.182449E-17
5.900000E+03	1.919755E-16	5.149141E-17
5.910000E+03	1.916734E-16	5.111027E-17
5.920000E+03	1.914599E-16	5.068271E-17
5.930000E+03	1.913415E-16	5.021004E-17
5.940000E+03	1.912889E-16	4.968397E-17
5.950000E+03	1.912960E-16	4.910237E-17
5.960000E+03	1.913805E-16	4.846904E-17
5.970000E+03	1.915125E-16	4.777550E-17
5.980000E+03	1.917095E-16	4.702525E-17
5.990000E+03	1.919414E-16	4.620988E-17
6.000000E+03	1.922138E-16	4.532990E-17
6.010000E+03	1.925085E-16	4.438017E-17
6.020000E+03	1.928429E-16	4.336397E-17
6.030000E+03	1.931871E-16	4.227371E-17
6.040000E+03	1.935467E-16	4.111023E-17
6.050000E+03	1.939157E-16	3.987183E-17
6.060000E+03	1.942879E-16	3.855713E-17
6.070000E+03	1.946571E-16	3.716507E-17
6.080000E+03	1.950174E-16	3.569507E-17
6.090000E+03	1.953504E-16	3.414489E-17
6.100000E+03	1.956619E-16	3.251742E-17
6.110000E+03	1.959580E-16	3.081598E-17
6.120000E+03	1.962075E-16	2.903901E-17
6.130000E+03	1.964162E-16	2.719230E-17
6.140000E+03	1.965648E-16	2.527984E-17
6.150000E+03	1.966709E-16	2.331301E-17
6.160000E+03	1.967025E-16	2.130050E-17
6.170000E+03	1.966768E-16	1.926220E-17
6.180000E+03	1.965617E-16	1.722100E-17
6.190000E+03	1.963619E-16	1.521694E-17
6.200000E+03	1.960701E-16	1.331024E-17
6.210000E+03	1.956791E-16	1.159544E-17
6.220000E+03	1.951828E-16	1.021561E-17
6.230000E+03	1.945637E-16	9.357842E-18
6.240000E+03	1.938431E-16	9.190714E-18
6.250000E+03	1.929960E-16	9.743076E-18
6.260000E+03	1.920492E-16	1.088008E-17
6.270000E+03	1.909831E-16	1.240306E-17
6.280000E+03	1.898158E-16	1.414737E-17
6.290000E+03	1.885537E-16	1.600083E-17
6.300000E+03	1.872037E-16	1.789236E-17
6.310000E+03	1.857727E-16	1.977724E-17
6.320000E+03	1.842561E-16	2.162557E-17
6.330000E+03	1.826839E-16	2.342141E-17
6.340000E+03	1.810506E-16	2.515135E-17
6.350000E+03	1.793511E-16	2.680569E-17
6.360000E+03	1.776138E-16	2.838255E-17
6.370000E+03	1.758217E-16	2.987531E-17
6.380000E+03	1.739911E-16	3.128396E-17
6.390000E+03	1.721268E-16	3.260789E-17
6.400000E+03	1.702335E-16	3.384728E-17
6.410000E+03	1.683153E-16	3.500297E-17
6.420000E+03	1.663763E-16	3.607626E-17
6.430000E+03	1.644202E-16	3.706887E-17
6.440000E+03	1.624509E-16	3.798282E-17
6.450000E+03	1.604717E-16	3.882036E-17
6.460000E+03	1.584859E-16	3.958395E-17
6.470000E+03	1.564867E-16	4.027364E-17
6.480000E+03	1.544972E-16	4.089724E-17
6.490000E+03	1.525005E-16	4.145241E-17
6.500000E+03	1.505188E-16	4.194725E-17
6.510000E+03	1.485354E-16	4.237939E-17
6.520000E+03	1.465719E-16	4.275713E-17
6.530000E+03	1.446119E-16	4.307797E-17
6.540000E+03	1.426670E-16	4.334754E-17
6.550000E+03	1.407394E-16	4.356873E-17
6.560000E+03	1.388399E-16	4.374720E-17
6.570000E+03	1.369526E-16	4.388016E-17
6.580000E+03	1.350883E-16	4.397316E-17
6.590000E+03	1.332487E-16	4.402886E-17
6.600000E+03	1.314354E-16	4.404989E-17
6.610000E+03	1.296498E-16	4.403878E-17
6.620000E+03	1.278934E-16	4.399799E-17
6.630000E+03	1.261675E-16	4.392990E-17
6.640000E+03	1.244734E-16	4.383680E-17
6.650000E+03	1.228044E-16	4.371812E-17
6.660000E+03	1.211775E-16	4.358161E-17
6.670000E+03	1.195857E-16	4.342652E-17
6.680000E+03	1.180302E-16	4.325483E-17
6.690000E+03	1.165043E-16	4.306567E-17
6.700000E+03	1.150242E-16	4.286644E-17
6.710000E+03	1.135833E-16	4.265611E-17
6.720000E+03	1.121751E-16	4.243364E-17
6.730000E+03	1.108152E-16	4.220614E-17
6.740000E+03	1.094901E-16	4.196971E-17
6.750000E+03	1.082149E-16	4.173130E-17
6.760000E+03	1.069763E-16	4.148693E-17
6.770000E+03	1.057892E-16	4.124337E-17
6.780000E+03	1.046406E-16	4.099658E-17
6.790000E+03	1.035451E-16	4.075314E-17
6.800000E+03	1.024899E-16	4.050897E-17
6.810000E+03	1.014828E-16	4.026786E-17
6.820000E+03	1.005310E-16	4.003350E-17
6.830000E+03	9.962228E-17	3.980169E-17
6.840000E+03	9.876389E-17	3.957600E-17
6.850000E+03	9.796297E-17	3.935989E-17
6.860000E+03	9.720743E-17	3.914903E-17
6.870000E+03	9.650432E-17	3.894677E-17
6.880000E+03	9.585425E-17	3.875377E-17
6.890000E+03	9.525775E-17	3.857065E-17
6.900000E+03	9.472150E-17	3.840045E-17
6.910000E+03	9.423347E-17	3.823857E-17
6.920000E+03	9.380023E-17	3.808792E-17
6.930000E+03	9.342203E-17	3.794878E-17
6.940000E+03	9.309904E-17	3.782134E-17
6.950000E+03	9.283135E-17	3.770572E-17
6.960000E+03	9.261894E-17	3.760194E-17
6.970000E+03	9.246173E-17	3.750994E-17
6.980000E+03	9.235954E-17	3.742957E-17
6.990000E+03	9.230603E-17	3.735813E-17
7.000000E+03	9.231296E-17	3.730021E-17
7.010000E+03	9.237383E-17	3.725293E-17
7.020000E+03	9.248811E-17	3.721580E-17
7.030000E+03	9.265518E-17	3.718823E-17
7.040000E+03	9.286823E-17	3.716710E-17
7.050000E+03	9.313875E-17	3.715657E-17
7.060000E+03	9.345979E-17	3.715336E-17
7.070000E+03	9.382426E-17	3.715410E-17
7.080000E+03	9.424363E-17	3.716274E-17
7.090000E+03	9.470442E-17	3.717330E-17
7.100000E+03	9.521815E-17	3.718960E-17
7.110000E+03	9.577112E-17	3.720552E-17
7.120000E+03	9.637491E-17	3.722475E-17
7.130000E+03	9.701561E-17	3.724102E-17
7.140000E+03	9.769840E-17	3.725543E-17
7.150000E+03	9.842208E-17	3.726655E-17
7.160000E+03	9.919204E-17	3.727535E-17
7.170000E+03	9.999384E-17	3.727532E-17
7.180000E+03	1.008328E-16	3.726731E-17
7.190000E+03	1.017075E-16	3.724965E-17
7.200000E+03	1.026167E-16	3.722059E-17
7.210000E+03	1.035589E-16	3.717832E-17
7.220000E+03	1.045328E-16	3.712099E-17
7.230000E+03	1.055296E-16	3.704417E-17
7.240000E+03	1.065621E-16	3.695085E-17
7.250000E+03	1.076214E-16	3.683649E-17
7.260000E+03	1.086987E-16	3.669649E-17
7.270000E+03	1.098065E-16	3.653363E-17
7.280000E+03	1.109284E-16	3.634075E-17
7.290000E+03	1.120770E-16	3.612047E-17
7.300000E+03	1.132354E-16	3.586556E-17
7.310000E+03	1.144086E-16	3.557610E-17
7.320000E+03	1.155943E-16	3.524968E-17
7.330000E+03	1.167898E-16	3.488385E-17
7.340000E+03	1.179926E-16	3.447617E-17
7.350000E+03	1.191996E-16	3.402418E-17
7.360000E+03	1.204079E-16	3.352544E-17
7.370000E+03	1.216143E-16	3.297754E-17
7.380000E+03	1.228070E-16	3.237591E-17
7.390000E+03	1.239992E-16	3.172271E-17
7.400000E+03	1.251702E-16	3.101140E-17
7.410000E+03	1.263331E-16	3.024419E-17
7.420000E+03	1.274667E-16	2.941501E-17
7.430000E+03	1.285753E-16	2.852428E-17
7.440000E+03	1.296543E-16	2.757056E-17
7.450000E+03	1.306991E-16	2.655271E-17
7.460000E+03	1.317048E-16	2.546995E-17
7.470000E+03	1.326665E-16	2.432192E-17
7.480000E+03	1.335789E-16	2.310885E-17
7.490000E+03	1.344275E-16	2.183012E-17
7.500000E+03	1.352249E-16	2.049059E-17
7.510000E+03	1.359471E-16	1.909026E-17
7.520000E+03	1.365975E-16	1.763508E-17
7.530000E+03	1.371701E-16	1.613164E-17
7.540000E+03	1.376591E-16	1.458969E-17
7.550000E+03	1.380586E-16	1.302381E-17
7.560000E+03	1.383630E-16	1.145642E-17
7.570000E+03	1.385572E-16	9.922545E-18
7.580000E+03	1.386555E-16	8.482630E-18
7.590000E+03	1.386345E-16	7.234047E-18
7.600000E+03	1.385100E-16	6.332817E-18
7.610000E+03	1.382609E-16	5.965845E-18
7.620000E+03	1.378965E-16	6.235639E-18
7.630000E+03	1.374092E-16	7.055022E-18
7.640000E+03	1.368216E-16	8.235942E-18
7.650000E+03	1.361291E-16	9.614886E-18
7.660000E+03	1.353277E-16	1.108611E-17
7.670000E+03	1.344333E-16	1.258780E-17
7.680000E+03	1.334616E-16	1.408374E-17
7.690000E+03	1.324002E-16	1.554914E-17
7.700000E+03	1.312557E-16	1.696914E-17
7.710000E+03	1.300529E-16	1.833655E-17
7.720000E+03	1.287885E-16	1.964408E-17
7.730000E+03	1.274590E-16	2.088622E-17
7.740000E+03	1.260877E-16	2.206329E-17
7.750000E+03	1.246618E-16	2.317083E-17
7.760000E+03	1.231948E-16	2.420969E-17
