#wls	flux	fluxerr
1.600000E+03	1.062666E-17	8.249833E-18
1.640000E+03	1.066200E-17	8.272461E-18
1.680000E+03	1.069629E-17	8.293810E-18
1.720000E+03	1.073126E-17	8.315182E-18
1.760000E+03	1.076491E-17	8.334974E-18
1.800000E+03	1.079897E-17	8.354489E-18
1.840000E+03	1.083332E-17	8.373578E-18
1.880000E+03	1.086409E-17	8.389193E-18
1.920000E+03	1.089683E-17	8.405558E-18
1.960000E+03	1.092768E-17	8.419642E-18
2.000000E+03	1.095850E-17	8.432788E-18
2.040000E+03	1.098738E-17	8.443457E-18
2.080000E+03	1.101623E-17	8.453028E-18
2.120000E+03	1.104323E-17	8.460019E-18
2.160000E+03	1.107039E-17	8.465868E-18
2.200000E+03	1.109790E-17	8.470602E-18
2.240000E+03	1.112601E-17	8.474295E-18
2.280000E+03	1.115317E-17	8.475639E-18
2.320000E+03	1.118167E-17	8.476251E-18
2.360000E+03	1.121203E-17	8.476370E-18
2.400000E+03	1.124299E-17	8.474896E-18
2.440000E+03	1.127715E-17	8.473641E-18
2.480000E+03	1.131536E-17	8.473076E-18
2.520000E+03	1.135861E-17	8.473768E-18
2.560000E+03	1.140801E-17	8.476378E-18
2.600000E+03	1.146298E-17	8.480291E-18
2.640000E+03	1.152682E-17	8.487786E-18
2.680000E+03	1.160114E-17	8.499862E-18
2.720000E+03	1.168772E-17	8.517646E-18
2.760000E+03	1.178854E-17	8.542392E-18
2.800000E+03	1.190387E-17	8.574115E-18
2.840000E+03	1.203988E-17	8.617073E-18
2.880000E+03	1.219533E-17	8.670170E-18
2.920000E+03	1.237491E-17	8.736540E-18
2.960000E+03	1.258162E-17	8.818058E-18
3.000000E+03	1.281866E-17	8.916692E-18
3.010000E+03	1.288174E-17	8.943349E-18
3.020000E+03	1.294886E-17	8.972538E-18
3.030000E+03	1.301808E-17	9.002904E-18
3.040000E+03	1.308742E-17	9.033078E-18
3.050000E+03	1.316098E-17	9.065888E-18
3.060000E+03	1.323681E-17	9.099970E-18
3.070000E+03	1.331496E-17	9.135355E-18
3.080000E+03	1.339549E-17	9.172077E-18
3.090000E+03	1.347845E-17	9.210165E-18
3.100000E+03	1.356390E-17	9.249652E-18
3.110000E+03	1.365191E-17	9.290568E-18
3.120000E+03	1.374253E-17	9.332945E-18
3.130000E+03	1.383794E-17	9.378246E-18
3.140000E+03	1.393397E-17	9.423638E-18
3.150000E+03	1.403280E-17	9.470580E-18
3.160000E+03	1.413448E-17	9.519100E-18
3.170000E+03	1.424124E-17	9.570683E-18
3.180000E+03	1.434883E-17	9.622450E-18
3.190000E+03	1.446165E-17	9.677346E-18
3.200000E+03	1.457539E-17	9.732468E-18
3.210000E+03	1.469452E-17	9.790784E-18
3.220000E+03	1.481691E-17	9.850850E-18
3.230000E+03	1.494037E-17	9.911197E-18
3.240000E+03	1.506946E-17	9.974831E-18
3.250000E+03	1.520200E-17	1.004028E-17
3.260000E+03	1.533807E-17	1.010758E-17
3.270000E+03	1.547774E-17	1.017674E-17
3.280000E+03	1.562107E-17	1.024778E-17
3.290000E+03	1.576813E-17	1.032073E-17
3.300000E+03	1.591900E-17	1.039559E-17
3.310000E+03	1.607375E-17	1.047239E-17
3.320000E+03	1.623246E-17	1.055114E-17
3.330000E+03	1.639519E-17	1.063186E-17
3.340000E+03	1.656204E-17	1.071455E-17
3.350000E+03	1.673307E-17	1.079924E-17
3.360000E+03	1.691088E-17	1.088755E-17
3.370000E+03	1.709057E-17	1.097627E-17
3.380000E+03	1.727471E-17	1.106702E-17
3.390000E+03	1.746596E-17	1.116145E-17
3.400000E+03	1.765931E-17	1.125630E-17
3.410000E+03	1.786001E-17	1.135487E-17
3.420000E+03	1.806296E-17	1.145385E-17
3.430000E+03	1.827353E-17	1.155659E-17
3.440000E+03	1.848922E-17	1.166144E-17
3.450000E+03	1.870743E-17	1.176669E-17
3.460000E+03	1.893372E-17	1.187577E-17
3.470000E+03	1.916550E-17	1.198698E-17
3.480000E+03	1.940012E-17	1.209858E-17
3.490000E+03	1.964333E-17	1.221407E-17
3.500000E+03	1.989249E-17	1.233172E-17
3.510000E+03	2.014777E-17	1.245154E-17
3.520000E+03	2.040935E-17	1.257353E-17
3.530000E+03	2.067742E-17	1.269772E-17
3.540000E+03	2.095216E-17	1.282410E-17
3.550000E+03	2.123379E-17	1.295269E-17
3.560000E+03	2.152252E-17	1.308351E-17
3.570000E+03	2.181858E-17	1.321655E-17
3.580000E+03	2.212222E-17	1.335183E-17
3.590000E+03	2.243367E-17	1.348936E-17
3.600000E+03	2.275322E-17	1.362915E-17
3.610000E+03	2.308442E-17	1.377316E-17
3.620000E+03	2.342103E-17	1.391751E-17
3.630000E+03	2.376661E-17	1.406412E-17
3.640000E+03	2.412146E-17	1.421302E-17
3.650000E+03	2.448939E-17	1.436622E-17
3.660000E+03	2.486386E-17	1.451968E-17
3.670000E+03	2.524863E-17	1.467541E-17
3.680000E+03	2.564770E-17	1.483546E-17
3.690000E+03	2.605428E-17	1.499566E-17
3.700000E+03	2.647603E-17	1.516019E-17
3.710000E+03	2.690599E-17	1.532476E-17
3.720000E+03	2.735205E-17	1.549361E-17
3.730000E+03	2.780707E-17	1.566236E-17
3.740000E+03	2.827918E-17	1.583529E-17
3.750000E+03	2.876101E-17	1.600793E-17
3.760000E+03	2.926096E-17	1.618461E-17
3.770000E+03	2.977143E-17	1.636073E-17
3.780000E+03	3.030108E-17	1.654068E-17
3.790000E+03	3.084206E-17	1.671975E-17
3.800000E+03	3.140330E-17	1.690234E-17
3.810000E+03	3.198109E-17	1.708598E-17
3.820000E+03	3.257144E-17	1.726805E-17
3.830000E+03	3.318370E-17	1.745303E-17
3.840000E+03	3.381394E-17	1.763827E-17
3.850000E+03	3.445790E-17	1.782102E-17
3.860000E+03	3.512541E-17	1.800576E-17
3.870000E+03	3.581226E-17	1.818970E-17
3.880000E+03	3.651393E-17	1.836991E-17
3.890000E+03	3.724068E-17	1.855088E-17
3.900000E+03	3.798803E-17	1.872963E-17
3.910000E+03	3.875112E-17	1.890303E-17
3.920000E+03	3.954070E-17	1.907558E-17
3.930000E+03	4.035194E-17	1.924408E-17
3.940000E+03	4.117960E-17	1.940521E-17
3.950000E+03	4.203495E-17	1.956344E-17
3.960000E+03	4.291277E-17	1.971535E-17
3.970000E+03	4.381325E-17	1.986008E-17
3.980000E+03	4.473056E-17	1.999403E-17
3.990000E+03	4.567669E-17	2.012158E-17
4.000000E+03	4.664582E-17	2.023904E-17
4.010000E+03	4.763160E-17	2.034261E-17
4.020000E+03	4.864660E-17	2.043656E-17
4.030000E+03	4.968447E-17	2.051702E-17
4.040000E+03	5.073834E-17	2.058000E-17
4.050000E+03	5.182132E-17	2.062967E-17
4.060000E+03	5.292653E-17	2.066198E-17
4.070000E+03	5.404649E-17	2.067281E-17
4.080000E+03	5.519492E-17	2.066620E-17
4.090000E+03	5.635689E-17	2.063525E-17
4.100000E+03	5.754656E-17	2.058393E-17
4.110000E+03	5.875598E-17	2.050802E-17
4.120000E+03	5.997658E-17	2.040332E-17
4.130000E+03	6.122312E-17	2.027369E-17
4.140000E+03	6.247881E-17	2.011232E-17
4.150000E+03	6.375888E-17	1.992301E-17
4.160000E+03	6.504575E-17	1.969913E-17
4.170000E+03	6.635506E-17	1.944447E-17
4.180000E+03	6.766844E-17	1.915267E-17
4.190000E+03	6.899303E-17	1.882517E-17
4.200000E+03	7.033651E-17	1.846338E-17
4.210000E+03	7.167927E-17	1.806168E-17
4.220000E+03	7.302866E-17	1.762199E-17
4.230000E+03	7.439257E-17	1.714634E-17
4.240000E+03	7.575016E-17	1.663048E-17
4.250000E+03	7.710899E-17	1.607746E-17
4.260000E+03	7.847719E-17	1.549074E-17
4.270000E+03	7.983271E-17	1.486863E-17
4.280000E+03	8.118337E-17	1.421672E-17
4.290000E+03	8.252702E-17	1.354006E-17
4.300000E+03	8.386145E-17	1.284573E-17
4.310000E+03	8.518439E-17	1.214343E-17
4.320000E+03	8.649359E-17	1.144634E-17
4.330000E+03	8.778676E-17	1.077212E-17
4.340000E+03	8.906164E-17	1.014396E-17
4.350000E+03	9.031601E-17	9.591326E-18
4.360000E+03	9.154771E-17	9.149694E-18
4.370000E+03	9.275469E-17	8.858077E-18
4.380000E+03	9.392315E-17	8.752357E-18
4.390000E+03	9.507497E-17	8.861611E-18
4.400000E+03	9.619708E-17	9.191224E-18
4.410000E+03	9.727643E-17	9.725393E-18
4.420000E+03	9.833677E-17	1.043960E-17
4.430000E+03	9.935312E-17	1.129963E-17
4.440000E+03	1.003501E-16	1.227744E-17
4.450000E+03	1.013027E-16	1.334310E-17
4.460000E+03	1.022363E-16	1.447750E-17
4.470000E+03	1.031257E-16	1.565913E-17
4.480000E+03	1.039841E-16	1.687530E-17
4.490000E+03	1.048250E-16	1.811679E-17
4.500000E+03	1.056232E-16	1.937006E-17
4.510000E+03	1.063923E-16	2.062978E-17
4.520000E+03	1.071331E-16	2.188986E-17
4.530000E+03	1.078466E-16	2.314531E-17
4.540000E+03	1.085337E-16	2.439197E-17
4.550000E+03	1.091955E-16	2.562637E-17
4.560000E+03	1.098330E-16	2.684557E-17
4.570000E+03	1.104474E-16	2.804712E-17
4.580000E+03	1.110261E-16	2.922533E-17
4.590000E+03	1.115977E-16	3.038551E-17
4.600000E+03	1.121498E-16	3.152271E-17
4.610000E+03	1.126697E-16	3.263169E-17
4.620000E+03	1.131864E-16	3.371929E-17
4.630000E+03	1.136735E-16	3.477654E-17
4.640000E+03	1.141600E-16	3.581115E-17
4.650000E+03	1.146194E-16	3.681394E-17
4.660000E+03	1.150670E-16	3.778878E-17
4.670000E+03	1.155041E-16	3.873538E-17
4.680000E+03	1.159462E-16	3.965839E-17
4.690000E+03	1.163665E-16	4.054815E-17
4.700000E+03	1.167803E-16	4.140939E-17
4.710000E+03	1.171892E-16	4.224217E-17
4.720000E+03	1.175801E-16	4.304139E-17
4.730000E+03	1.179829E-16	4.381758E-17
4.740000E+03	1.183848E-16	4.456585E-17
4.750000E+03	1.187871E-16	4.528647E-17
4.760000E+03	1.191767E-16	4.597418E-17
4.770000E+03	1.195839E-16	4.664034E-17
4.780000E+03	1.199809E-16	4.727412E-17
4.790000E+03	1.203982E-16	4.788722E-17
4.800000E+03	1.208079E-16	4.846854E-17
4.810000E+03	1.212259E-16	4.902416E-17
4.820000E+03	1.216533E-16	4.955445E-17
4.830000E+03	1.220914E-16	5.005976E-17
4.840000E+03	1.225415E-16	5.054044E-17
4.850000E+03	1.230046E-16	5.099681E-17
4.860000E+03	1.234819E-16	5.142916E-17
4.870000E+03	1.239746E-16	5.183775E-17
4.880000E+03	1.244836E-16	5.222279E-17
4.890000E+03	1.249951E-16	5.257821E-17
4.900000E+03	1.255398E-16	5.291662E-17
4.910000E+03	1.260888E-16	5.322555E-17
4.920000E+03	1.266729E-16	5.351765E-17
4.930000E+03	1.272629E-16	5.378019E-17
4.940000E+03	1.278746E-16	5.401942E-17
4.950000E+03	1.285238E-16	5.424159E-17
4.960000E+03	1.291808E-16	5.443363E-17
4.970000E+03	1.298614E-16	5.460165E-17
4.980000E+03	1.305660E-16	5.474525E-17
4.990000E+03	1.312951E-16	5.486398E-17
5.000000E+03	1.320334E-16	5.495078E-17
5.010000E+03	1.328123E-16	5.501803E-17
5.020000E+03	1.336165E-16	5.505850E-17
5.030000E+03	1.344303E-16	5.506493E-17
5.040000E+03	1.352852E-16	5.504939E-17
5.050000E+03	1.361493E-16	5.499796E-17
5.060000E+03	1.370545E-16	5.492254E-17
5.070000E+03	1.379684E-16	5.480906E-17
5.080000E+03	1.389065E-16	5.466278E-17
5.090000E+03	1.398683E-16	5.448240E-17
5.100000E+03	1.408533E-16	5.426654E-17
5.110000E+03	1.418607E-16	5.401376E-17
5.120000E+03	1.428897E-16	5.372253E-17
5.130000E+03	1.439392E-16	5.339126E-17
5.140000E+03	1.449914E-16	5.301212E-17
5.150000E+03	1.460787E-16	5.259585E-17
5.160000E+03	1.471829E-16	5.213446E-17
5.170000E+03	1.482853E-16	5.162015E-17
5.180000E+03	1.494187E-16	5.106322E-17
5.190000E+03	1.505468E-16	5.044989E-17
5.200000E+03	1.516848E-16	4.978437E-17
5.210000E+03	1.528308E-16	4.906489E-17
5.220000E+03	1.539827E-16	4.828968E-17
5.230000E+03	1.551381E-16	4.745702E-17
5.240000E+03	1.562947E-16	4.656528E-17
5.250000E+03	1.574500E-16	4.561292E-17
5.260000E+03	1.586013E-16	4.459850E-17
5.270000E+03	1.597459E-16	4.352074E-17
5.280000E+03	1.608622E-16	4.237364E-17
5.290000E+03	1.619845E-16	4.116629E-17
5.300000E+03	1.630725E-16	3.988840E-17
5.310000E+03	1.641606E-16	3.854910E-17
5.320000E+03	1.652079E-16	3.713942E-17
5.330000E+03	1.662300E-16	3.566457E-17
5.340000E+03	1.672239E-16	3.412573E-17
5.350000E+03	1.682057E-16	3.252853E-17
5.360000E+03	1.691337E-16	3.086802E-17
5.370000E+03	1.700239E-16	2.915205E-17
5.380000E+03	1.708537E-16	2.738281E-17
5.390000E+03	1.716596E-16	2.557416E-17
5.400000E+03	1.724189E-16	2.373270E-17
5.410000E+03	1.731292E-16	2.187215E-17
5.420000E+03	1.737679E-16	2.000919E-17
5.430000E+03	1.743726E-16	1.817538E-17
5.440000E+03	1.749011E-16	1.640433E-17
5.450000E+03	1.753718E-16	1.475269E-17
5.460000E+03	1.758031E-16	1.329854E-17
5.470000E+03	1.761534E-16	1.214082E-17
5.480000E+03	1.764420E-16	1.140078E-17
5.490000E+03	1.766681E-16	1.118389E-17
5.500000E+03	1.768315E-16	1.152764E-17
5.510000E+03	1.769326E-16	1.236943E-17
5.520000E+03	1.769719E-16	1.359375E-17
5.530000E+03	1.769505E-16	1.508196E-17
5.540000E+03	1.768697E-16	1.673722E-17
5.550000E+03	1.767109E-16	1.848619E-17
5.560000E+03	1.765164E-16	2.028265E-17
5.570000E+03	1.762478E-16	2.208690E-17
5.580000E+03	1.759480E-16	2.387887E-17
5.590000E+03	1.755791E-16	2.563541E-17
5.600000E+03	1.751640E-16	2.734606E-17
5.610000E+03	1.747255E-16	2.900458E-17
5.620000E+03	1.742265E-16	3.059743E-17
5.630000E+03	1.736902E-16	3.212248E-17
5.640000E+03	1.731196E-16	3.357588E-17
5.650000E+03	1.725179E-16	3.495482E-17
5.660000E+03	1.718883E-16	3.625735E-17
5.670000E+03	1.712339E-16	3.748220E-17
5.680000E+03	1.705579E-16	3.862861E-17
5.690000E+03	1.698439E-16	3.969175E-17
5.700000E+03	1.691337E-16	4.068064E-17
5.710000E+03	1.684109E-16	4.159121E-17
5.720000E+03	1.676591E-16	4.241920E-17
5.730000E+03	1.669193E-16	4.317500E-17
5.740000E+03	1.661558E-16	4.384977E-17
5.750000E+03	1.653903E-16	4.444941E-17
5.760000E+03	1.646437E-16	4.498022E-17
5.770000E+03	1.638805E-16	4.543318E-17
5.780000E+03	1.631215E-16	4.581460E-17
5.790000E+03	1.623683E-16	4.612572E-17
5.800000E+03	1.616225E-16	4.636779E-17
5.810000E+03	1.608855E-16	4.654202E-17
5.820000E+03	1.601585E-16	4.664961E-17
5.830000E+03	1.594425E-16	4.669169E-17
5.840000E+03	1.587383E-16	4.666935E-17
5.850000E+03	1.580465E-16	4.658363E-17
5.860000E+03	1.573676E-16	4.643548E-17
5.870000E+03	1.566840E-16	4.622053E-17
5.880000E+03	1.560317E-16	4.595017E-17
5.890000E+03	1.553749E-16	4.561468E-17
5.900000E+03	1.547489E-16	4.522518E-17
5.910000E+03	1.541179E-16	4.477197E-17
5.920000E+03	1.535167E-16	4.426587E-17
5.930000E+03	1.529095E-16	4.369728E-17
5.940000E+03	1.523130E-16	4.307178E-17
5.950000E+03	1.517436E-16	4.239465E-17
5.960000E+03	1.511656E-16	4.165660E-17
5.970000E+03	1.505952E-16	4.086293E-17
5.980000E+03	1.500310E-16	4.001407E-17
5.990000E+03	1.494717E-16	3.911045E-17
6.000000E+03	1.489158E-16	3.815251E-17
6.010000E+03	1.483617E-16	3.714077E-17
6.020000E+03	1.478077E-16	3.607581E-17
6.030000E+03	1.472523E-16	3.495828E-17
6.040000E+03	1.466937E-16	3.378897E-17
6.050000E+03	1.461300E-16	3.256879E-17
6.060000E+03	1.455430E-16	3.129529E-17
6.070000E+03	1.449640E-16	2.997709E-17
6.080000E+03	1.443745E-16	2.861206E-17
6.090000E+03	1.437565E-16	2.719906E-17
6.100000E+03	1.431408E-16	2.574681E-17
6.110000E+03	1.424932E-16	2.425222E-17
6.120000E+03	1.418445E-16	2.272460E-17
6.130000E+03	1.411607E-16	2.116317E-17
6.140000E+03	1.404565E-16	1.957651E-17
6.150000E+03	1.397464E-16	1.797428E-17
6.160000E+03	1.389972E-16	1.636239E-17
6.170000E+03	1.382236E-16	1.475706E-17
6.180000E+03	1.374404E-16	1.317963E-17
6.190000E+03	1.366152E-16	1.165593E-17
6.200000E+03	1.357630E-16	1.023115E-17
6.210000E+03	1.348832E-16	8.970791E-18
6.220000E+03	1.339756E-16	7.969579E-18
6.230000E+03	1.330399E-16	7.346378E-18
6.240000E+03	1.320763E-16	7.205510E-18
6.250000E+03	1.310850E-16	7.563566E-18
6.260000E+03	1.300668E-16	8.328934E-18
6.270000E+03	1.290227E-16	9.373521E-18
6.280000E+03	1.279392E-16	1.058611E-17
6.290000E+03	1.268470E-16	1.189148E-17
6.300000E+03	1.257326E-16	1.323788E-17
6.310000E+03	1.245976E-16	1.459266E-17
6.320000E+03	1.234296E-16	1.593279E-17
6.330000E+03	1.222585E-16	1.724778E-17
6.340000E+03	1.210720E-16	1.852662E-17
6.350000E+03	1.198580E-16	1.976075E-17
6.360000E+03	1.186461E-16	2.095038E-17
6.370000E+03	1.174109E-16	2.208811E-17
6.380000E+03	1.161811E-16	2.317720E-17
6.390000E+03	1.149320E-16	2.421157E-17
6.400000E+03	1.136918E-16	2.519633E-17
6.410000E+03	1.124363E-16	2.612596E-17
6.420000E+03	1.111805E-16	2.700375E-17
6.430000E+03	1.099386E-16	2.783365E-17
6.440000E+03	1.086871E-16	2.861037E-17
6.450000E+03	1.074403E-16	2.933819E-17
6.460000E+03	1.061999E-16	3.001841E-17
6.470000E+03	1.049795E-16	3.065599E-17
6.480000E+03	1.037564E-16	3.124546E-17
6.490000E+03	1.025441E-16	3.179186E-17
6.500000E+03	1.013440E-16	3.229682E-17
6.510000E+03	1.001574E-16	3.276200E-17
6.520000E+03	9.898541E-17	3.318909E-17
6.530000E+03	9.782930E-17	3.357979E-17
6.540000E+03	9.669009E-17	3.393581E-17
6.550000E+03	9.556879E-17	3.425884E-17
6.560000E+03	9.446635E-17	3.455056E-17
6.570000E+03	9.338366E-17	3.481264E-17
6.580000E+03	9.232152E-17	3.504671E-17
6.590000E+03	9.128069E-17	3.525439E-17
6.600000E+03	9.026189E-17	3.543723E-17
6.610000E+03	8.925549E-17	3.559269E-17
6.620000E+03	8.828272E-17	3.573042E-17
6.630000E+03	8.733375E-17	3.584780E-17
6.640000E+03	8.640909E-17	3.594625E-17
6.650000E+03	8.549934E-17	3.602296E-17
6.660000E+03	8.462470E-17	3.608754E-17
6.670000E+03	8.377560E-17	3.613712E-17
6.680000E+03	8.294283E-17	3.616873E-17
6.690000E+03	8.214587E-17	3.619186E-17
6.700000E+03	8.136598E-17	3.619931E-17
6.710000E+03	8.062224E-17	3.620047E-17
6.720000E+03	7.989618E-17	3.618801E-17
6.730000E+03	7.920648E-17	3.617124E-17
6.740000E+03	7.853497E-17	3.614273E-17
6.750000E+03	7.789996E-17	3.611168E-17
6.760000E+03	7.728353E-17	3.607058E-17
6.770000E+03	7.670367E-17	3.602852E-17
6.780000E+03	7.614269E-17	3.597789E-17
6.790000E+03	7.560956E-17	3.592353E-17
6.800000E+03	7.511301E-17	3.587021E-17
6.810000E+03	7.463564E-17	3.581022E-17
6.820000E+03	7.418621E-17	3.574823E-17
6.830000E+03	7.377325E-17	3.568887E-17
6.840000E+03	7.337964E-17	3.562432E-17
6.850000E+03	7.301394E-17	3.555911E-17
6.860000E+03	7.267611E-17	3.549360E-17
6.870000E+03	7.236610E-17	3.542811E-17
6.880000E+03	7.208387E-17	3.536289E-17
6.890000E+03	7.182935E-17	3.529819E-17
6.900000E+03	7.161076E-17	3.523827E-17
6.910000E+03	7.141141E-17	3.517511E-17
6.920000E+03	7.123952E-17	3.511289E-17
6.930000E+03	7.109498E-17	3.505168E-17
6.940000E+03	7.097768E-17	3.499150E-17
6.950000E+03	7.088750E-17	3.493232E-17
6.960000E+03	7.081608E-17	3.487004E-17
6.970000E+03	7.077970E-17	3.481264E-17
6.980000E+03	7.076999E-17	3.475594E-17
6.990000E+03	7.078676E-17	3.469973E-17
7.000000E+03	7.082982E-17	3.464380E-17
7.010000E+03	7.089897E-17	3.458786E-17
7.020000E+03	7.099397E-17	3.453159E-17
7.030000E+03	7.110631E-17	3.447063E-17
7.040000E+03	7.125226E-17	3.441260E-17
7.050000E+03	7.142328E-17	3.435303E-17
7.060000E+03	7.161070E-17	3.428743E-17
7.070000E+03	7.183087E-17	3.422328E-17
7.080000E+03	7.207510E-17	3.415597E-17
7.090000E+03	7.233456E-17	3.408091E-17
7.100000E+03	7.262569E-17	3.400539E-17
7.110000E+03	7.293962E-17	3.392470E-17
7.120000E+03	7.326731E-17	3.383412E-17
7.130000E+03	7.362531E-17	3.374076E-17
7.140000E+03	7.399589E-17	3.363587E-17
7.150000E+03	7.439569E-17	3.352642E-17
7.160000E+03	7.480672E-17	3.340362E-17
7.170000E+03	7.523691E-17	3.327041E-17
7.180000E+03	7.569438E-17	3.312965E-17
7.190000E+03	7.616065E-17	3.297247E-17
7.200000E+03	7.664365E-17	3.280167E-17
7.210000E+03	7.715151E-17	3.261993E-17
7.220000E+03	7.766522E-17	3.241837E-17
7.230000E+03	7.819271E-17	3.219963E-17
7.240000E+03	7.873285E-17	3.196245E-17
7.250000E+03	7.929380E-17	3.170929E-17
7.260000E+03	7.985570E-17	3.143135E-17
7.270000E+03	8.042649E-17	3.113107E-17
7.280000E+03	8.100475E-17	3.080711E-17
7.290000E+03	8.158899E-17	3.045814E-17
7.300000E+03	8.217764E-17	3.008280E-17
7.310000E+03	8.276905E-17	2.967977E-17
7.320000E+03	8.336150E-17	2.924771E-17
7.330000E+03	8.395317E-17	2.878533E-17
7.340000E+03	8.454217E-17	2.829136E-17
7.350000E+03	8.512654E-17	2.776457E-17
7.360000E+03	8.570423E-17	2.720380E-17
7.370000E+03	8.627313E-17	2.660794E-17
7.380000E+03	8.683104E-17	2.597599E-17
7.390000E+03	8.736537E-17	2.530402E-17
7.400000E+03	8.789443E-17	2.459730E-17
7.410000E+03	8.840557E-17	2.385209E-17
7.420000E+03	8.889639E-17	2.306788E-17
7.430000E+03	8.935386E-17	2.224170E-17
7.440000E+03	8.979664E-17	2.137880E-17
7.450000E+03	9.021170E-17	2.047658E-17
7.460000E+03	9.058581E-17	1.953311E-17
7.470000E+03	9.093795E-17	1.855390E-17
7.480000E+03	9.124414E-17	1.753558E-17
7.490000E+03	9.152362E-17	1.648408E-17
7.500000E+03	9.175233E-17	1.539763E-17
7.510000E+03	9.194979E-17	1.428312E-17
7.520000E+03	9.209198E-17	1.314116E-17
7.530000E+03	9.218777E-17	1.197931E-17
7.540000E+03	9.224625E-17	1.080677E-17
7.550000E+03	9.224365E-17	9.632209E-18
7.560000E+03	9.218940E-17	8.473935E-18
7.570000E+03	9.209310E-17	7.358929E-18
7.580000E+03	9.193157E-17	6.327050E-18
7.590000E+03	9.171492E-17	5.446506E-18
7.600000E+03	9.144248E-17	4.818083E-18
7.610000E+03	9.111392E-17	4.559322E-18
7.620000E+03	9.072924E-17	4.733265E-18
7.630000E+03	9.028917E-17	5.281529E-18
7.640000E+03	8.979479E-17	6.082785E-18
7.650000E+03	8.924749E-17	7.029888E-18
7.660000E+03	8.864888E-17	8.051045E-18
7.670000E+03	8.800077E-17	9.102072E-18
7.680000E+03	8.730518E-17	1.015585E-17
7.690000E+03	8.656425E-17	1.119526E-17
7.700000E+03	8.578029E-17	1.220916E-17
7.710000E+03	8.495567E-17	1.319009E-17
7.720000E+03	8.408273E-17	1.413123E-17
7.730000E+03	8.318439E-17	1.503240E-17
7.740000E+03	8.225299E-17	1.588962E-17
7.750000E+03	8.128131E-17	1.669934E-17
7.760000E+03	8.029170E-17	1.746457E-17
