#wls	flux	fluxerr
1.600000E+03	1.731061E-17	1.821870E-19
1.640000E+03	1.758724E-17	1.850984E-19
1.680000E+03	1.788566E-17	1.882392E-19
1.720000E+03	1.820630E-17	1.916137E-19
1.760000E+03	1.854953E-17	1.952261E-19
1.800000E+03	1.892396E-17	1.991668E-19
1.840000E+03	1.931369E-17	2.032685E-19
1.880000E+03	1.973556E-17	2.077085E-19
1.920000E+03	2.018173E-17	2.124042E-19
1.960000E+03	2.066106E-17	2.174489E-19
2.000000E+03	2.118275E-17	2.229395E-19
2.040000E+03	2.173018E-17	2.287009E-19
2.080000E+03	2.231238E-17	2.348283E-19
2.120000E+03	2.293867E-17	2.414197E-19
2.160000E+03	2.360971E-17	2.484821E-19
2.200000E+03	2.431703E-17	2.559264E-19
2.240000E+03	2.507920E-17	2.639479E-19
2.280000E+03	2.588764E-17	2.724563E-19
2.320000E+03	2.675199E-17	2.815532E-19
2.360000E+03	2.766329E-17	2.911442E-19
2.400000E+03	2.862155E-17	3.012295E-19
2.440000E+03	2.963626E-17	3.119088E-19
2.480000E+03	3.070732E-17	3.231813E-19
2.520000E+03	3.183448E-17	3.350441E-19
2.560000E+03	3.301722E-17	3.474919E-19
2.600000E+03	3.425474E-17	3.605163E-19
2.640000E+03	3.555595E-17	3.742109E-19
2.680000E+03	3.692972E-17	3.886691E-19
2.720000E+03	3.836455E-17	4.037701E-19
2.760000E+03	3.986866E-17	4.196002E-19
2.800000E+03	4.145004E-17	4.362435E-19
2.840000E+03	4.310611E-17	4.536729E-19
2.880000E+03	4.483373E-17	4.718552E-19
2.920000E+03	4.664991E-17	4.909697E-19
2.960000E+03	4.855049E-17	5.109724E-19
3.000000E+03	5.053056E-17	5.318117E-19
3.010000E+03	5.104453E-17	5.372211E-19
3.020000E+03	5.155651E-17	5.426094E-19
3.030000E+03	5.207682E-17	5.480855E-19
3.040000E+03	5.260538E-17	5.536483E-19
3.050000E+03	5.313163E-17	5.591868E-19
3.060000E+03	5.367635E-17	5.649198E-19
3.070000E+03	5.421855E-17	5.706262E-19
3.080000E+03	5.476855E-17	5.764147E-19
3.090000E+03	5.532624E-17	5.822841E-19
3.100000E+03	5.588105E-17	5.881232E-19
3.110000E+03	5.645375E-17	5.941506E-19
3.120000E+03	5.702329E-17	6.001448E-19
3.130000E+03	5.761047E-17	6.063245E-19
3.140000E+03	5.819423E-17	6.124684E-19
3.150000E+03	5.878489E-17	6.186848E-19
3.160000E+03	5.939274E-17	6.250821E-19
3.170000E+03	5.999674E-17	6.314390E-19
3.180000E+03	6.060720E-17	6.378637E-19
3.190000E+03	6.123436E-17	6.444643E-19
3.200000E+03	6.186763E-17	6.511292E-19
3.210000E+03	6.250685E-17	6.578567E-19
3.220000E+03	6.315183E-17	6.646448E-19
3.230000E+03	6.381281E-17	6.716013E-19
3.240000E+03	6.447919E-17	6.786147E-19
3.250000E+03	6.516116E-17	6.857921E-19
3.260000E+03	6.584813E-17	6.930221E-19
3.270000E+03	6.653989E-17	7.003026E-19
3.280000E+03	6.724663E-17	7.077407E-19
3.290000E+03	6.796808E-17	7.153336E-19
3.300000E+03	6.870400E-17	7.230788E-19
3.310000E+03	6.945415E-17	7.309738E-19
3.320000E+03	7.020795E-17	7.389072E-19
3.330000E+03	7.097548E-17	7.469851E-19
3.340000E+03	7.176673E-17	7.553127E-19
3.350000E+03	7.257113E-17	7.637786E-19
3.360000E+03	7.337815E-17	7.722721E-19
3.370000E+03	7.421820E-17	7.811133E-19
3.380000E+03	7.506028E-17	7.899758E-19
3.390000E+03	7.592452E-17	7.990714E-19
3.400000E+03	7.681052E-17	8.083961E-19
3.410000E+03	7.770776E-17	8.178392E-19
3.420000E+03	7.862606E-17	8.275040E-19
3.430000E+03	7.956501E-17	8.373860E-19
3.440000E+03	8.052422E-17	8.474812E-19
3.450000E+03	8.150327E-17	8.577852E-19
3.460000E+03	8.250172E-17	8.682935E-19
3.470000E+03	8.351917E-17	8.790016E-19
3.480000E+03	8.456516E-17	8.900102E-19
3.490000E+03	8.563917E-17	9.013136E-19
3.500000E+03	8.673073E-17	9.128018E-19
3.510000E+03	8.784930E-17	9.245743E-19
3.520000E+03	8.899433E-17	9.366252E-19
3.530000E+03	9.016526E-17	9.489487E-19
3.540000E+03	9.136152E-17	9.615387E-19
3.550000E+03	9.258253E-17	9.743893E-19
3.560000E+03	9.383749E-17	9.875972E-19
3.570000E+03	9.512573E-17	1.001155E-18
3.580000E+03	9.643682E-17	1.014954E-18
3.590000E+03	9.778955E-17	1.029191E-18
3.600000E+03	9.916379E-17	1.043654E-18
3.610000E+03	1.005782E-16	1.058540E-18
3.620000E+03	1.020222E-16	1.073738E-18
3.630000E+03	1.034954E-16	1.089242E-18
3.640000E+03	1.050063E-16	1.105144E-18
3.650000E+03	1.065541E-16	1.121434E-18
3.660000E+03	1.081286E-16	1.138005E-18
3.670000E+03	1.097478E-16	1.155046E-18
3.680000E+03	1.114014E-16	1.172449E-18
3.690000E+03	1.130885E-16	1.190205E-18
3.700000E+03	1.148176E-16	1.208403E-18
3.710000E+03	1.165784E-16	1.226934E-18
3.720000E+03	1.183793E-16	1.245888E-18
3.730000E+03	1.202191E-16	1.265252E-18
3.740000E+03	1.220973E-16	1.285018E-18
3.750000E+03	1.240125E-16	1.305175E-18
3.760000E+03	1.259638E-16	1.325712E-18
3.770000E+03	1.279685E-16	1.346810E-18
3.780000E+03	1.299981E-16	1.368171E-18
3.790000E+03	1.320789E-16	1.390071E-18
3.800000E+03	1.342006E-16	1.412401E-18
3.810000E+03	1.363535E-16	1.435058E-18
3.820000E+03	1.385541E-16	1.458219E-18
3.830000E+03	1.408012E-16	1.481869E-18
3.840000E+03	1.430852E-16	1.505906E-18
3.850000E+03	1.454134E-16	1.530410E-18
3.860000E+03	1.477849E-16	1.555369E-18
3.870000E+03	1.501986E-16	1.580772E-18
3.880000E+03	1.526533E-16	1.606606E-18
3.890000E+03	1.551565E-16	1.632952E-18
3.900000E+03	1.576986E-16	1.659706E-18
3.910000E+03	1.602868E-16	1.686945E-18
3.920000E+03	1.629201E-16	1.714659E-18
3.930000E+03	1.655889E-16	1.742748E-18
3.940000E+03	1.683090E-16	1.771376E-18
3.950000E+03	1.710710E-16	1.800444E-18
3.960000E+03	1.738817E-16	1.830026E-18
3.970000E+03	1.767321E-16	1.860024E-18
3.980000E+03	1.796292E-16	1.890515E-18
3.990000E+03	1.825639E-16	1.921401E-18
3.998000E+03	2.171063E-16	2.284944E-18
4.000000E+03	2.175062E-16	2.289153E-18
4.002000E+03	2.248778E-16	2.366736E-18
4.004000E+03	2.263755E-16	2.382498E-18
4.006000E+03	2.208781E-16	2.324640E-18
4.008000E+03	2.219464E-16	2.335885E-18
4.010000E+03	2.227668E-16	2.344518E-18
4.018000E+03	2.233379E-16	2.350529E-18
4.020000E+03	2.194429E-16	2.309536E-18
4.022000E+03	2.160450E-16	2.273775E-18
4.026000E+03	2.274104E-16	2.393390E-18
4.028000E+03	2.231412E-16	2.348459E-18
4.038000E+03	2.258387E-16	2.376849E-18
4.040000E+03	2.294629E-16	2.414992E-18
4.042000E+03	2.341081E-16	2.463880E-18
4.044000E+03	2.300070E-16	2.420719E-18
4.046000E+03	2.457721E-16	2.586639E-18
4.048000E+03	2.560675E-16	2.694993E-18
4.050000E+03	2.712523E-16	2.854806E-18
4.052000E+03	2.743894E-16	2.887822E-18
4.054000E+03	2.769267E-16	2.914526E-18
4.056000E+03	2.755409E-16	2.899941E-18
4.060000E+03	2.684347E-16	2.825152E-18
4.064000E+03	2.776227E-16	2.921852E-18
4.066000E+03	2.781443E-16	2.927341E-18
4.068000E+03	2.758737E-16	2.903444E-18
4.070000E+03	2.732051E-16	2.875359E-18
4.074000E+03	2.767601E-16	2.912773E-18
4.076000E+03	2.779880E-16	2.925696E-18
4.078000E+03	2.684792E-16	2.825621E-18
4.080000E+03	2.664907E-16	2.804692E-18
4.084000E+03	2.804627E-16	2.951741E-18
4.088000E+03	2.778993E-16	2.924762E-18
4.090000E+03	2.849659E-16	2.999135E-18
4.092000E+03	2.990203E-16	3.147052E-18
4.094000E+03	2.974238E-16	3.130249E-18
4.096000E+03	2.948598E-16	3.103264E-18
4.098000E+03	2.955845E-16	3.110892E-18
4.100000E+03	2.946934E-16	3.101513E-18
4.102000E+03	2.931988E-16	3.085783E-18
4.104000E+03	2.872512E-16	3.023187E-18
4.106000E+03	2.817117E-16	2.964886E-18
4.108000E+03	2.772187E-16	2.917599E-18
4.110000E+03	2.786039E-16	2.932178E-18
4.112000E+03	2.800699E-16	2.947607E-18
4.116000E+03	2.822975E-16	2.971052E-18
4.118000E+03	2.661931E-16	2.801560E-18
4.120000E+03	2.619905E-16	2.757330E-18
4.122000E+03	2.579917E-16	2.715245E-18
4.124000E+03	2.597426E-16	2.733672E-18
4.126000E+03	2.585729E-16	2.721361E-18
4.128000E+03	2.581335E-16	2.716737E-18
4.130000E+03	2.634371E-16	2.772554E-18
4.132000E+03	2.677039E-16	2.817461E-18
4.134000E+03	2.608938E-16	2.745787E-18
4.136000E+03	2.470554E-16	2.600145E-18
4.138000E+03	2.423300E-16	2.550411E-18
4.140000E+03	2.408715E-16	2.535062E-18
4.142000E+03	2.321197E-16	2.442953E-18
4.146000E+03	2.267735E-16	2.386687E-18
4.148000E+03	2.264441E-16	2.383220E-18
4.152000E+03	2.206018E-16	2.321732E-18
4.156000E+03	2.218192E-16	2.334545E-18
4.158000E+03	2.205736E-16	2.321436E-18
4.162000E+03	2.215872E-16	2.332103E-18
4.164000E+03	2.153343E-16	2.266295E-18
4.166000E+03	2.032569E-16	2.139186E-18
4.168000E+03	1.931919E-16	2.033256E-18
4.170000E+03	1.882365E-16	1.981102E-18
4.172000E+03	1.851254E-16	1.948360E-18
4.174000E+03	1.836076E-16	1.932386E-18
4.176000E+03	1.878033E-16	1.976543E-18
4.180000E+03	1.956733E-16	2.059372E-18
4.182000E+03	2.034578E-16	2.141300E-18
4.184000E+03	2.128885E-16	2.240554E-18
4.186000E+03	2.152478E-16	2.265384E-18
4.188000E+03	2.103584E-16	2.213925E-18
4.190000E+03	2.139370E-16	2.251588E-18
4.192000E+03	2.206902E-16	2.322663E-18
4.198000E+03	2.191948E-16	2.306924E-18
4.200000E+03	2.179715E-16	2.294050E-18
4.202000E+03	2.253800E-16	2.372021E-18
4.204000E+03	2.290394E-16	2.410535E-18
4.206000E+03	2.291427E-16	2.411622E-18
4.208000E+03	2.326674E-16	2.448717E-18
4.210000E+03	2.315971E-16	2.437452E-18
4.214000E+03	2.327526E-16	2.449614E-18
4.216000E+03	2.457950E-16	2.586880E-18
4.218000E+03	2.508870E-16	2.640470E-18
4.220000E+03	2.523941E-16	2.656331E-18
4.226000E+03	2.608360E-16	2.745179E-18
4.228000E+03	2.497382E-16	2.628379E-18
4.234000E+03	2.543078E-16	2.676472E-18
4.236000E+03	2.542033E-16	2.675372E-18
4.238000E+03	2.591061E-16	2.726972E-18
4.240000E+03	2.572107E-16	2.707024E-18
4.242000E+03	2.485576E-16	2.615955E-18
4.244000E+03	2.429323E-16	2.556751E-18
4.246000E+03	2.404415E-16	2.530536E-18
4.250000E+03	2.373330E-16	2.497821E-18
4.252000E+03	2.397984E-16	2.523767E-18
4.254000E+03	2.463796E-16	2.593032E-18
4.256000E+03	2.478759E-16	2.608779E-18
4.258000E+03	2.516228E-16	2.648214E-18
4.260000E+03	2.344237E-16	2.467202E-18
4.262000E+03	2.342828E-16	2.465718E-18
4.264000E+03	2.288148E-16	2.408170E-18
4.268000E+03	2.228522E-16	2.345416E-18
4.270000E+03	2.255898E-16	2.374228E-18
4.272000E+03	2.308391E-16	2.429475E-18
4.276000E+03	2.278845E-16	2.398379E-18
4.278000E+03	2.248944E-16	2.366909E-18
4.280000E+03	2.246948E-16	2.364809E-18
4.282000E+03	2.254963E-16	2.373244E-18
4.284000E+03	2.220031E-16	2.336480E-18
4.286000E+03	2.255995E-16	2.374331E-18
4.290000E+03	2.256575E-16	2.374941E-18
4.292000E+03	2.255530E-16	2.373841E-18
4.294000E+03	2.261949E-16	2.380597E-18
4.298000E+03	2.193844E-16	2.308920E-18
4.300000E+03	2.087527E-16	2.197026E-18
4.302000E+03	2.049437E-16	2.156937E-18
4.304000E+03	2.051729E-16	2.159350E-18
4.306000E+03	2.051689E-16	2.159308E-18
4.308000E+03	2.111830E-16	2.222603E-18
4.310000E+03	2.158569E-16	2.271795E-18
4.312000E+03	2.324023E-16	2.445927E-18
4.316000E+03	2.418219E-16	2.545064E-18
4.318000E+03	2.646667E-16	2.785495E-18
4.322000E+03	2.757940E-16	2.902604E-18
4.324000E+03	2.849781E-16	2.999263E-18
4.326000E+03	2.920476E-16	3.073666E-18
4.330000E+03	3.000451E-16	3.157836E-18
4.332000E+03	3.075388E-16	3.236704E-18
4.334000E+03	3.257529E-16	3.428399E-18
4.336000E+03	3.222259E-16	3.391279E-18
4.338000E+03	3.362426E-16	3.538798E-18
4.340000E+03	3.414113E-16	3.593197E-18
4.342000E+03	3.426355E-16	3.606081E-18
4.344000E+03	3.533719E-16	3.719076E-18
4.348000E+03	3.631396E-16	3.821876E-18
4.350000E+03	3.682824E-16	3.876003E-18
4.354000E+03	3.764255E-16	3.961705E-18
4.356000E+03	3.820044E-16	4.020420E-18
4.360000E+03	3.884129E-16	4.087866E-18
4.362000E+03	3.919045E-16	4.124614E-18
4.364000E+03	3.968151E-16	4.176296E-18
4.368000E+03	4.010877E-16	4.221263E-18
4.370000E+03	3.969256E-16	4.177458E-18
4.372000E+03	3.971330E-16	4.179641E-18
4.382000E+03	3.975774E-16	4.184319E-18
4.384000E+03	3.953731E-16	4.161119E-18
4.386000E+03	3.899095E-16	4.103617E-18
4.388000E+03	3.861253E-16	4.063791E-18
4.390000E+03	3.884452E-16	4.088206E-18
4.392000E+03	3.874697E-16	4.077940E-18
4.394000E+03	3.865180E-16	4.067923E-18
4.396000E+03	3.827170E-16	4.027919E-18
4.398000E+03	3.866564E-16	4.069380E-18
4.400000E+03	3.820932E-16	4.021354E-18
4.402000E+03	3.711686E-16	3.906377E-18
4.404000E+03	3.590229E-16	3.778550E-18
4.406000E+03	3.463449E-16	3.645120E-18
4.408000E+03	3.500543E-16	3.684160E-18
4.410000E+03	3.512436E-16	3.696676E-18
4.412000E+03	3.434431E-16	3.614580E-18
4.414000E+03	3.367448E-16	3.544083E-18
4.416000E+03	3.192431E-16	3.359886E-18
4.418000E+03	3.218903E-16	3.387747E-18
4.420000E+03	3.302302E-16	3.475520E-18
4.422000E+03	3.432077E-16	3.612102E-18
4.424000E+03	3.597541E-16	3.786245E-18
4.426000E+03	3.647297E-16	3.838612E-18
4.428000E+03	3.637598E-16	3.828403E-18
4.430000E+03	3.525693E-16	3.710629E-18
4.432000E+03	3.522761E-16	3.707543E-18
4.434000E+03	3.488487E-16	3.671471E-18
4.440000E+03	3.647503E-16	3.838828E-18
4.442000E+03	3.708041E-16	3.902542E-18
4.444000E+03	3.846088E-16	4.047830E-18
4.446000E+03	3.893103E-16	4.097310E-18
4.448000E+03	3.994884E-16	4.204430E-18
4.450000E+03	4.069628E-16	4.283095E-18
4.452000E+03	4.139399E-16	4.356526E-18
4.454000E+03	4.269799E-16	4.493766E-18
4.460000E+03	4.349867E-16	4.578033E-18
4.462000E+03	4.423924E-16	4.655976E-18
4.464000E+03	4.422306E-16	4.654272E-18
4.466000E+03	4.379248E-16	4.608956E-18
4.470000E+03	4.296894E-16	4.522282E-18
4.472000E+03	4.266287E-16	4.490069E-18
4.474000E+03	4.110371E-16	4.325975E-18
4.476000E+03	4.041866E-16	4.253877E-18
4.478000E+03	4.072974E-16	4.286616E-18
4.480000E+03	4.060002E-16	4.272963E-18
4.482000E+03	3.982085E-16	4.190960E-18
4.484000E+03	3.953584E-16	4.160964E-18
4.486000E+03	3.943097E-16	4.149927E-18
4.488000E+03	4.042683E-16	4.254737E-18
4.490000E+03	4.021338E-16	4.232272E-18
4.492000E+03	4.015251E-16	4.225865E-18
4.494000E+03	3.977633E-16	4.186275E-18
4.498000E+03	3.875726E-16	4.079022E-18
4.500000E+03	3.681465E-16	3.874571E-18
4.506000E+03	3.700702E-16	3.894818E-18
4.508000E+03	3.677327E-16	3.870217E-18
4.510000E+03	3.741587E-16	3.937847E-18
4.512000E+03	3.675468E-16	3.868260E-18
4.514000E+03	3.702391E-16	3.896594E-18
4.516000E+03	3.657411E-16	3.849255E-18
4.518000E+03	3.697658E-16	3.891613E-18
4.520000E+03	3.674121E-16	3.866842E-18
4.522000E+03	3.607341E-16	3.796560E-18
4.524000E+03	3.524862E-16	3.709754E-18
4.526000E+03	3.490095E-16	3.673163E-18
4.528000E+03	3.418000E-16	3.597287E-18
4.530000E+03	3.369328E-16	3.546062E-18
4.532000E+03	3.280459E-16	3.452531E-18
4.536000E+03	3.250243E-16	3.420730E-18
4.540000E+03	3.245498E-16	3.415736E-18
4.542000E+03	3.189248E-16	3.356536E-18
4.544000E+03	3.220743E-16	3.389683E-18
4.546000E+03	3.204605E-16	3.372698E-18
4.548000E+03	3.113965E-16	3.277303E-18
4.550000E+03	3.039960E-16	3.199416E-18
4.552000E+03	3.007717E-16	3.165483E-18
4.554000E+03	3.037740E-16	3.197080E-18
4.558000E+03	3.030847E-16	3.189826E-18
4.560000E+03	3.056995E-16	3.217346E-18
4.562000E+03	3.110811E-16	3.273984E-18
4.564000E+03	3.055442E-16	3.215711E-18
4.566000E+03	2.870826E-16	3.021411E-18
4.568000E+03	2.810209E-16	2.957614E-18
4.570000E+03	2.682269E-16	2.822963E-18
4.572000E+03	2.663057E-16	2.802744E-18
4.574000E+03	2.660041E-16	2.799569E-18
4.576000E+03	2.569840E-16	2.704638E-18
4.578000E+03	2.606674E-16	2.743404E-18
4.580000E+03	2.544991E-16	2.678485E-18
4.582000E+03	2.576772E-16	2.711933E-18
4.584000E+03	2.771549E-16	2.916927E-18
4.586000E+03	2.863971E-16	3.014196E-18
4.588000E+03	2.929161E-16	3.082806E-18
4.590000E+03	2.929160E-16	3.082805E-18
4.592000E+03	2.889608E-16	3.041178E-18
4.594000E+03	2.953560E-16	3.108485E-18
4.596000E+03	3.011235E-16	3.169185E-18
4.598000E+03	3.142488E-16	3.307323E-18
4.600000E+03	3.258805E-16	3.429741E-18
4.602000E+03	3.402572E-16	3.581049E-18
4.604000E+03	3.458018E-16	3.639403E-18
4.606000E+03	3.541000E-16	3.726738E-18
4.608000E+03	3.607588E-16	3.796818E-18
4.610000E+03	3.759512E-16	3.956712E-18
4.612000E+03	3.815922E-16	4.016080E-18
4.614000E+03	3.888919E-16	4.092907E-18
4.616000E+03	3.992056E-16	4.201453E-18
4.618000E+03	4.028907E-16	4.240237E-18
4.620000E+03	4.094512E-16	4.309283E-18
4.622000E+03	4.169728E-16	4.388445E-18
4.624000E+03	4.241771E-16	4.464267E-18
4.626000E+03	4.266052E-16	4.489822E-18
4.628000E+03	4.315871E-16	4.542254E-18
4.630000E+03	4.212994E-16	4.433980E-18
4.632000E+03	4.244606E-16	4.467251E-18
4.634000E+03	4.354677E-16	4.583095E-18
4.636000E+03	4.258454E-16	4.481825E-18
4.638000E+03	4.242647E-16	4.465189E-18
4.640000E+03	4.197194E-16	4.417352E-18
4.642000E+03	4.182855E-16	4.402260E-18
4.644000E+03	4.225055E-16	4.446674E-18
4.646000E+03	4.149332E-16	4.366979E-18
4.648000E+03	4.104615E-16	4.319916E-18
4.650000E+03	4.139138E-16	4.356250E-18
4.652000E+03	4.081335E-16	4.295415E-18
4.654000E+03	3.983457E-16	4.192404E-18
4.656000E+03	4.037740E-16	4.249534E-18
4.658000E+03	3.996514E-16	4.206146E-18
4.660000E+03	3.960569E-16	4.168315E-18
4.662000E+03	3.928264E-16	4.134315E-18
4.664000E+03	3.844241E-16	4.045885E-18
4.666000E+03	3.765712E-16	3.963236E-18
4.668000E+03	3.741758E-16	3.938026E-18
4.670000E+03	3.564621E-16	3.751597E-18
4.672000E+03	3.427112E-16	3.606876E-18
4.674000E+03	3.265499E-16	3.436786E-18
4.676000E+03	3.204750E-16	3.372851E-18
4.678000E+03	3.077881E-16	3.239326E-18
4.680000E+03	2.993602E-16	3.150627E-18
4.682000E+03	2.960799E-16	3.116103E-18
4.684000E+03	2.996174E-16	3.153333E-18
4.686000E+03	2.951577E-16	3.106398E-18
4.688000E+03	2.898615E-16	3.050658E-18
4.690000E+03	2.864274E-16	3.014515E-18
4.692000E+03	2.775345E-16	2.920922E-18
4.694000E+03	2.761776E-16	2.906640E-18
4.696000E+03	2.869344E-16	3.019851E-18
4.698000E+03	2.931119E-16	3.084866E-18
4.700000E+03	3.031221E-16	3.190219E-18
4.702000E+03	3.094455E-16	3.256770E-18
4.704000E+03	3.119728E-16	3.283369E-18
4.706000E+03	3.135001E-16	3.299443E-18
4.708000E+03	3.153254E-16	3.318653E-18
4.710000E+03	3.101618E-16	3.264308E-18
4.712000E+03	3.077619E-16	3.239051E-18
4.714000E+03	3.054364E-16	3.214575E-18
4.716000E+03	3.045916E-16	3.205684E-18
4.718000E+03	3.113736E-16	3.277062E-18
4.720000E+03	3.242081E-16	3.412140E-18
4.722000E+03	3.248467E-16	3.418860E-18
4.724000E+03	3.223828E-16	3.392929E-18
4.726000E+03	3.296586E-16	3.469503E-18
4.728000E+03	3.365680E-16	3.542222E-18
4.732000E+03	3.319671E-16	3.493800E-18
4.736000E+03	3.346750E-16	3.522299E-18
4.738000E+03	3.378432E-16	3.555642E-18
4.742000E+03	3.392634E-16	3.570590E-18
4.744000E+03	3.441970E-16	3.622513E-18
4.746000E+03	3.485249E-16	3.668062E-18
4.748000E+03	3.488849E-16	3.671851E-18
4.752000E+03	3.565847E-16	3.752888E-18
4.754000E+03	3.558543E-16	3.745200E-18
4.756000E+03	3.560503E-16	3.747263E-18
4.758000E+03	3.574226E-16	3.761706E-18
4.760000E+03	3.621833E-16	3.811810E-18
4.762000E+03	3.643462E-16	3.834574E-18
4.764000E+03	3.665382E-16	3.857643E-18
4.766000E+03	3.607940E-16	3.797189E-18
4.768000E+03	3.644284E-16	3.835439E-18
4.770000E+03	3.619812E-16	3.809684E-18
4.772000E+03	3.555935E-16	3.742456E-18
4.774000E+03	3.453104E-16	3.634231E-18
4.776000E+03	3.351457E-16	3.527253E-18
4.778000E+03	3.166315E-16	3.332398E-18
4.780000E+03	3.050148E-16	3.210139E-18
4.782000E+03	2.901185E-16	3.053362E-18
4.784000E+03	2.871658E-16	3.022286E-18
4.786000E+03	2.791998E-16	2.938448E-18
4.788000E+03	2.601696E-16	2.738164E-18
4.790000E+03	2.463952E-16	2.593195E-18
4.792000E+03	2.346903E-16	2.470006E-18
4.794000E+03	2.269353E-16	2.388388E-18
4.796000E+03	2.207178E-16	2.322952E-18
4.798000E+03	2.156569E-16	2.269689E-18
4.800000E+03	2.110927E-16	2.221653E-18
4.802000E+03	2.127502E-16	2.239096E-18
4.804000E+03	2.039358E-16	2.146329E-18
4.806000E+03	2.020619E-16	2.126607E-18
4.808000E+03	2.131949E-16	2.243777E-18
4.810000E+03	2.146186E-16	2.258761E-18
4.812000E+03	2.181310E-16	2.295727E-18
4.814000E+03	2.258240E-16	2.376693E-18
4.816000E+03	2.246366E-16	2.364195E-18
4.818000E+03	2.270833E-16	2.389946E-18
4.820000E+03	2.357960E-16	2.481643E-18
4.822000E+03	2.330124E-16	2.452347E-18
4.824000E+03	2.380708E-16	2.505584E-18
4.826000E+03	2.422810E-16	2.549895E-18
4.828000E+03	2.538310E-16	2.671453E-18
4.830000E+03	2.602355E-16	2.738858E-18
4.832000E+03	2.653507E-16	2.792692E-18
4.836000E+03	2.757208E-16	2.901833E-18
4.838000E+03	2.808688E-16	2.956013E-18
4.840000E+03	2.837168E-16	2.985986E-18
4.842000E+03	2.996922E-16	3.154120E-18
4.844000E+03	3.148957E-16	3.314130E-18
4.846000E+03	3.399406E-16	3.577716E-18
4.848000E+03	3.658913E-16	3.850836E-18
4.850000E+03	3.814486E-16	4.014568E-18
4.852000E+03	4.019527E-16	4.230364E-18
4.854000E+03	4.189670E-16	4.409433E-18
4.856000E+03	4.337924E-16	4.565463E-18
4.858000E+03	4.437135E-16	4.669878E-18
4.860000E+03	4.560765E-16	4.799992E-18
4.862000E+03	4.713858E-16	4.961116E-18
4.864000E+03	4.777820E-16	5.028432E-18
4.866000E+03	4.946524E-16	5.205986E-18
