#wls	flux	fluxerr
1.596074E+03	2.786069E-03	1.700050E-04
1.635976E+03	2.783179E-03	1.686546E-04
1.675877E+03	2.779389E-03	1.672259E-04
1.715779E+03	2.774867E-03	1.657297E-04
1.755681E+03	2.769954E-03	1.641870E-04
1.795583E+03	2.765535E-03	1.626500E-04
1.835485E+03	2.761785E-03	1.611281E-04
1.875387E+03	2.759421E-03	1.596612E-04
1.915288E+03	2.759162E-03	1.582884E-04
1.955190E+03	2.761380E-03	1.570272E-04
1.995092E+03	2.766807E-03	1.559147E-04
2.034994E+03	2.776360E-03	1.549965E-04
2.074896E+03	2.790426E-03	1.542867E-04
2.114798E+03	2.810116E-03	1.538380E-04
2.154699E+03	2.836189E-03	1.536812E-04
2.194601E+03	2.869223E-03	1.538353E-04
2.234503E+03	2.909985E-03	1.543274E-04
2.274405E+03	2.959608E-03	1.552017E-04
2.314307E+03	3.018498E-03	1.564611E-04
2.354209E+03	3.087242E-03	1.581165E-04
2.394110E+03	3.166240E-03	1.601667E-04
2.434012E+03	3.255699E-03	1.625995E-04
2.473914E+03	3.355632E-03	1.653915E-04
2.513816E+03	3.466787E-03	1.685544E-04
2.553718E+03	3.589152E-03	1.720606E-04
2.593620E+03	3.723446E-03	1.759159E-04
2.633522E+03	3.870001E-03	1.801056E-04
2.673423E+03	4.029874E-03	1.846460E-04
2.713325E+03	4.203724E-03	1.895316E-04
2.753227E+03	4.392748E-03	1.947776E-04
2.793129E+03	4.598108E-03	2.003930E-04
2.833031E+03	4.821303E-03	2.063965E-04
2.872933E+03	5.063594E-03	2.127908E-04
2.912834E+03	5.326753E-03	2.195942E-04
2.952736E+03	5.612481E-03	2.268152E-04
2.992638E+03	5.922210E-03	2.344442E-04
3.002614E+03	6.003337E-03	2.364047E-04
3.012589E+03	6.086168E-03	2.383931E-04
3.022564E+03	6.170507E-03	2.404006E-04
3.032540E+03	6.256529E-03	2.424328E-04
3.042515E+03	6.344038E-03	2.444807E-04
3.052491E+03	6.433022E-03	2.465430E-04
3.062466E+03	6.523469E-03	2.486178E-04
3.072442E+03	6.615556E-03	2.507108E-04
3.082417E+03	6.709271E-03	2.528203E-04
3.092393E+03	6.804413E-03	2.549376E-04
3.102368E+03	6.900971E-03	2.570608E-04
3.112344E+03	6.998929E-03	2.591886E-04
3.122319E+03	7.098462E-03	2.613260E-04
3.132295E+03	7.199182E-03	2.634577E-04
3.142270E+03	7.301450E-03	2.655958E-04
3.152245E+03	7.405062E-03	2.677317E-04
3.162221E+03	7.510006E-03	2.698637E-04
3.172196E+03	7.616077E-03	2.719836E-04
3.182172E+03	7.723635E-03	2.741031E-04
3.192147E+03	7.832291E-03	2.762072E-04
3.202123E+03	7.942030E-03	2.782945E-04
3.212098E+03	8.052836E-03	2.803634E-04
3.222074E+03	8.164879E-03	2.824189E-04
3.232049E+03	8.277773E-03	2.844467E-04
3.242025E+03	8.391874E-03	2.864580E-04
3.252000E+03	8.506608E-03	2.884325E-04
3.261976E+03	8.622332E-03	2.903815E-04
3.271951E+03	8.738847E-03	2.922973E-04
3.281926E+03	8.856138E-03	2.941788E-04
3.291902E+03	8.974192E-03	2.960247E-04
3.301877E+03	9.092811E-03	2.978279E-04
3.311853E+03	9.211982E-03	2.995873E-04
3.321828E+03	9.331697E-03	3.013021E-04
3.331804E+03	9.451943E-03	3.029712E-04
3.341779E+03	9.572529E-03	3.045880E-04
3.351755E+03	9.693449E-03	3.061520E-04
3.361730E+03	9.814514E-03	3.076566E-04
3.371706E+03	9.936086E-03	3.091130E-04
3.381681E+03	1.005780E-02	3.105093E-04
3.391657E+03	1.017947E-02	3.118396E-04
3.401632E+03	1.030147E-02	3.131150E-04
3.411607E+03	1.042344E-02	3.143244E-04
3.421583E+03	1.054557E-02	3.154733E-04
3.431558E+03	1.066753E-02	3.165514E-04
3.441534E+03	1.078967E-02	3.175696E-04
3.451509E+03	1.091167E-02	3.185176E-04
3.461485E+03	1.103375E-02	3.194022E-04
3.471460E+03	1.115573E-02	3.202180E-04
3.481436E+03	1.127786E-02	3.209718E-04
3.491411E+03	1.139999E-02	3.216596E-04
3.501387E+03	1.152218E-02	3.222828E-04
3.511362E+03	1.164449E-02	3.228427E-04
3.521338E+03	1.176697E-02	3.233410E-04
3.531313E+03	1.188972E-02	3.237799E-04
3.541288E+03	1.201264E-02	3.241566E-04
3.551264E+03	1.213617E-02	3.244827E-04
3.561239E+03	1.225989E-02	3.247464E-04
3.571215E+03	1.238426E-02	3.249600E-04
3.581190E+03	1.250922E-02	3.251215E-04
3.591166E+03	1.263493E-02	3.252340E-04
3.601141E+03	1.276132E-02	3.252960E-04
3.611117E+03	1.288858E-02	3.253112E-04
3.621092E+03	1.301687E-02	3.252833E-04
3.631068E+03	1.314618E-02	3.252113E-04
3.641043E+03	1.327671E-02	3.250996E-04
3.651018E+03	1.340868E-02	3.249525E-04
3.660994E+03	1.354210E-02	3.247695E-04
3.670969E+03	1.367739E-02	3.245596E-04
3.680945E+03	1.381444E-02	3.243187E-04
3.690920E+03	1.395365E-02	3.240552E-04
3.700896E+03	1.409527E-02	3.237738E-04
3.710871E+03	1.423919E-02	3.234698E-04
3.720847E+03	1.438600E-02	3.231555E-04
3.730822E+03	1.453558E-02	3.228258E-04
3.740798E+03	1.468812E-02	3.224838E-04
3.750773E+03	1.484382E-02	3.221315E-04
3.760749E+03	1.500300E-02	3.217737E-04
3.770724E+03	1.516540E-02	3.214031E-04
3.780699E+03	1.533106E-02	3.210186E-04
3.790675E+03	1.550018E-02	3.206218E-04
3.800650E+03	1.567247E-02	3.202055E-04
3.810626E+03	1.584781E-02	3.197648E-04
3.820601E+03	1.602575E-02	3.192897E-04
3.830577E+03	1.620617E-02	3.187762E-04
3.840552E+03	1.638848E-02	3.182122E-04
3.850528E+03	1.657237E-02	3.175908E-04
3.860503E+03	1.675709E-02	3.168979E-04
3.870479E+03	1.694181E-02	3.161181E-04
3.880454E+03	1.712598E-02	3.152426E-04
3.890430E+03	1.730880E-02	3.142585E-04
3.900405E+03	1.748928E-02	3.131502E-04
3.910380E+03	1.766653E-02	3.119054E-04
3.920356E+03	1.783984E-02	3.105153E-04
3.930331E+03	1.800812E-02	3.089658E-04
3.940307E+03	1.817029E-02	3.072442E-04
3.950282E+03	1.832583E-02	3.053478E-04
3.960258E+03	1.847352E-02	3.032635E-04
3.970233E+03	1.861278E-02	3.009896E-04
3.980209E+03	1.874265E-02	2.985191E-04
3.990184E+03	1.886251E-02	2.958510E-04
4.000160E+03	1.897197E-02	2.929889E-04
4.010135E+03	1.907034E-02	2.899323E-04
4.020111E+03	1.915728E-02	2.866862E-04
4.030086E+03	1.923269E-02	2.832602E-04
4.040061E+03	1.929607E-02	2.796573E-04
4.050037E+03	1.934758E-02	2.758911E-04
4.060012E+03	1.938729E-02	2.719736E-04
4.069988E+03	1.941542E-02	2.679189E-04
4.079963E+03	1.943209E-02	2.637395E-04
4.089939E+03	1.943812E-02	2.594570E-04
4.099914E+03	1.943366E-02	2.550836E-04
4.109890E+03	1.941935E-02	2.506376E-04
4.119865E+03	1.939622E-02	2.461419E-04
4.129841E+03	1.936452E-02	2.416083E-04
4.139816E+03	1.932561E-02	2.370625E-04
4.149792E+03	1.927996E-02	2.325180E-04
4.159767E+03	1.922864E-02	2.279951E-04
4.169742E+03	1.917232E-02	2.235087E-04
4.179718E+03	1.911207E-02	2.190775E-04
4.189693E+03	1.904872E-02	2.147170E-04
4.199669E+03	1.898292E-02	2.104397E-04
4.209644E+03	1.891578E-02	2.062631E-04
4.219620E+03	1.884772E-02	2.021963E-04
4.229595E+03	1.877960E-02	1.982527E-04
4.239571E+03	1.871194E-02	1.944418E-04
4.249546E+03	1.864571E-02	1.907773E-04
4.259522E+03	1.858138E-02	1.872674E-04
4.269497E+03	1.851954E-02	1.839212E-04
4.279472E+03	1.846066E-02	1.807462E-04
4.289448E+03	1.840567E-02	1.777545E-04
4.299423E+03	1.835501E-02	1.749526E-04
4.309399E+03	1.830933E-02	1.723492E-04
4.319374E+03	1.826928E-02	1.699523E-04
4.329350E+03	1.823548E-02	1.677699E-04
4.339325E+03	1.820878E-02	1.658113E-04
4.349301E+03	1.818949E-02	1.640811E-04
4.359276E+03	1.817839E-02	1.625876E-04
4.369252E+03	1.817624E-02	1.613388E-04
4.379227E+03	1.818326E-02	1.603380E-04
4.389203E+03	1.819987E-02	1.595882E-04
4.399178E+03	1.822568E-02	1.590810E-04
4.409153E+03	1.826031E-02	1.588079E-04
4.419129E+03	1.830329E-02	1.587595E-04
4.429104E+03	1.835422E-02	1.589268E-04
4.439080E+03	1.841224E-02	1.592969E-04
4.449055E+03	1.847674E-02	1.598592E-04
4.459031E+03	1.854680E-02	1.606002E-04
4.469006E+03	1.862116E-02	1.615034E-04
4.478982E+03	1.869909E-02	1.625567E-04
4.488957E+03	1.877933E-02	1.637434E-04
4.498933E+03	1.886078E-02	1.650478E-04
4.508908E+03	1.894234E-02	1.664542E-04
4.518884E+03	1.902278E-02	1.679454E-04
4.528859E+03	1.910107E-02	1.695059E-04
4.538834E+03	1.917628E-02	1.711207E-04
4.548810E+03	1.924743E-02	1.727743E-04
4.558785E+03	1.931365E-02	1.744518E-04
4.568761E+03	1.937456E-02	1.761429E-04
4.578736E+03	1.942925E-02	1.778322E-04
4.588712E+03	1.947765E-02	1.795119E-04
4.598687E+03	1.951948E-02	1.811726E-04
4.608663E+03	1.955464E-02	1.828062E-04
4.618638E+03	1.958317E-02	1.844067E-04
4.628614E+03	1.960507E-02	1.859673E-04
4.638589E+03	1.962076E-02	1.874858E-04
4.648565E+03	1.963042E-02	1.889579E-04
4.658540E+03	1.963447E-02	1.903818E-04
4.668515E+03	1.963351E-02	1.917581E-04
4.678491E+03	1.962764E-02	1.930827E-04
4.688466E+03	1.961733E-02	1.943554E-04
4.698442E+03	1.960327E-02	1.955787E-04
4.708417E+03	1.958580E-02	1.967520E-04
4.718393E+03	1.956535E-02	1.978759E-04
4.728368E+03	1.954241E-02	1.989519E-04
4.738344E+03	1.951755E-02	1.999829E-04
4.748319E+03	1.949090E-02	2.009673E-04
4.758295E+03	1.946285E-02	2.019066E-04
4.768270E+03	1.943366E-02	2.028014E-04
4.778246E+03	1.940338E-02	2.036502E-04
4.788221E+03	1.937197E-02	2.044505E-04
4.798196E+03	1.933950E-02	2.052015E-04
4.808172E+03	1.930568E-02	2.058985E-04
4.818147E+03	1.927065E-02	2.065417E-04
4.828123E+03	1.923395E-02	2.071247E-04
4.838098E+03	1.919573E-02	2.076481E-04
4.848074E+03	1.915551E-02	2.081057E-04
4.858049E+03	1.911337E-02	2.084974E-04
4.868025E+03	1.906906E-02	2.088195E-04
4.878000E+03	1.902275E-02	2.090735E-04
4.887976E+03	1.897434E-02	2.092575E-04
4.897951E+03	1.892377E-02	2.093703E-04
4.907927E+03	1.887137E-02	2.094157E-04
4.917902E+03	1.881708E-02	2.093924E-04
4.927877E+03	1.876134E-02	2.093057E-04
4.937853E+03	1.870421E-02	2.091558E-04
4.947828E+03	1.864622E-02	2.089493E-04
4.957804E+03	1.858749E-02	2.086877E-04
4.967779E+03	1.852865E-02	2.083784E-04
4.977755E+03	1.846987E-02	2.080240E-04
4.987730E+03	1.841162E-02	2.076301E-04
4.997706E+03	1.835423E-02	2.072015E-04
5.007681E+03	1.829817E-02	2.067438E-04
5.017657E+03	1.824374E-02	2.062615E-04
5.027632E+03	1.819121E-02	2.057583E-04
5.037607E+03	1.814079E-02	2.052376E-04
5.047583E+03	1.809301E-02	2.047062E-04
5.057558E+03	1.804784E-02	2.041646E-04
5.067534E+03	1.800540E-02	2.036151E-04
5.077509E+03	1.796588E-02	2.030610E-04
5.087485E+03	1.792930E-02	2.025031E-04
5.097460E+03	1.789576E-02	2.019439E-04
5.107436E+03	1.786500E-02	2.013812E-04
5.117411E+03	1.783704E-02	2.008163E-04
5.127387E+03	1.781172E-02	2.002483E-04
5.137362E+03	1.778879E-02	1.996755E-04
5.147338E+03	1.776817E-02	1.990983E-04
5.157313E+03	1.774944E-02	1.985127E-04
5.167288E+03	1.773260E-02	1.979202E-04
5.177264E+03	1.771718E-02	1.973167E-04
5.187239E+03	1.770285E-02	1.966995E-04
5.197215E+03	1.768945E-02	1.960685E-04
5.207190E+03	1.767646E-02	1.954192E-04
5.217166E+03	1.766391E-02	1.947533E-04
5.227141E+03	1.765132E-02	1.940671E-04
5.237117E+03	1.763837E-02	1.933586E-04
5.247092E+03	1.762479E-02	1.926268E-04
5.257068E+03	1.761049E-02	1.918720E-04
5.267043E+03	1.759540E-02	1.910956E-04
5.277019E+03	1.757895E-02	1.902931E-04
5.286994E+03	1.756112E-02	1.894663E-04
5.296969E+03	1.754174E-02	1.886154E-04
5.306945E+03	1.752082E-02	1.877426E-04
5.316920E+03	1.749805E-02	1.868464E-04
5.326896E+03	1.747350E-02	1.859300E-04
5.336871E+03	1.744706E-02	1.849942E-04
5.346847E+03	1.741845E-02	1.840384E-04
5.356822E+03	1.738776E-02	1.830658E-04
5.366798E+03	1.735495E-02	1.820780E-04
5.376773E+03	1.731992E-02	1.810763E-04
5.386749E+03	1.728262E-02	1.800625E-04
5.396724E+03	1.724300E-02	1.790383E-04
5.406700E+03	1.720101E-02	1.780052E-04
5.416675E+03	1.715659E-02	1.769651E-04
5.426650E+03	1.710939E-02	1.759163E-04
5.436626E+03	1.705939E-02	1.748608E-04
5.446601E+03	1.700640E-02	1.737987E-04
5.456577E+03	1.695062E-02	1.727336E-04
5.466552E+03	1.689208E-02	1.716654E-04
5.476528E+03	1.683084E-02	1.705931E-04
5.486503E+03	1.676707E-02	1.695171E-04
5.496479E+03	1.670117E-02	1.684402E-04
5.506454E+03	1.663340E-02	1.673636E-04
5.516430E+03	1.656427E-02	1.662907E-04
5.526405E+03	1.649407E-02	1.652231E-04
5.536381E+03	1.642330E-02	1.641643E-04
5.546356E+03	1.635260E-02	1.631194E-04
5.556331E+03	1.628215E-02	1.620884E-04
5.566307E+03	1.621242E-02	1.610747E-04
5.576282E+03	1.614388E-02	1.600816E-04
5.586258E+03	1.607682E-02	1.591105E-04
5.596233E+03	1.601186E-02	1.581663E-04
5.606209E+03	1.594925E-02	1.572501E-04
5.616184E+03	1.588923E-02	1.563630E-04
5.626160E+03	1.583219E-02	1.555076E-04
5.636135E+03	1.577849E-02	1.546864E-04
5.646111E+03	1.572830E-02	1.538997E-04
5.656086E+03	1.568192E-02	1.531497E-04
5.666061E+03	1.563961E-02	1.524378E-04
5.676037E+03	1.560147E-02	1.517640E-04
5.686012E+03	1.556785E-02	1.511309E-04
5.695988E+03	1.553844E-02	1.505345E-04
5.705963E+03	1.551367E-02	1.499784E-04
5.715939E+03	1.549347E-02	1.494613E-04
5.725914E+03	1.547787E-02	1.489826E-04
5.735890E+03	1.546655E-02	1.485388E-04
5.745865E+03	1.545977E-02	1.481319E-04
5.755841E+03	1.545698E-02	1.477563E-04
5.765816E+03	1.545834E-02	1.474132E-04
5.775792E+03	1.546355E-02	1.470994E-04
5.785767E+03	1.547222E-02	1.468112E-04
5.795742E+03	1.548414E-02	1.465464E-04
5.805718E+03	1.549902E-02	1.463025E-04
5.815693E+03	1.551659E-02	1.460770E-04
5.825669E+03	1.553635E-02	1.458656E-04
5.835644E+03	1.555785E-02	1.456643E-04
5.845620E+03	1.558086E-02	1.454718E-04
5.855595E+03	1.560490E-02	1.452841E-04
5.865571E+03	1.562959E-02	1.450985E-04
5.875546E+03	1.565459E-02	1.449126E-04
5.885522E+03	1.567933E-02	1.447226E-04
5.895497E+03	1.570362E-02	1.445277E-04
5.905473E+03	1.572677E-02	1.443229E-04
5.915448E+03	1.574871E-02	1.441093E-04
5.925423E+03	1.576874E-02	1.438819E-04
5.935399E+03	1.578651E-02	1.436394E-04
5.945374E+03	1.580181E-02	1.433818E-04
5.955350E+03	1.581391E-02	1.431045E-04
5.965325E+03	1.582281E-02	1.428096E-04
5.975301E+03	1.582797E-02	1.424945E-04
5.985276E+03	1.582899E-02	1.421582E-04
5.995252E+03	1.582537E-02	1.417983E-04
6.005227E+03	1.581708E-02	1.414174E-04
6.015203E+03	1.580340E-02	1.410113E-04
6.025178E+03	1.578434E-02	1.405830E-04
6.035154E+03	1.575919E-02	1.401285E-04
6.045129E+03	1.572778E-02	1.396492E-04
6.055104E+03	1.568993E-02	1.391458E-04
6.065080E+03	1.564517E-02	1.386169E-04
6.075055E+03	1.559333E-02	1.380632E-04
6.085031E+03	1.553412E-02	1.374846E-04
6.095006E+03	1.546709E-02	1.368792E-04
6.104982E+03	1.539232E-02	1.362497E-04
6.114957E+03	1.530958E-02	1.355959E-04
6.124933E+03	1.521853E-02	1.349161E-04
6.134908E+03	1.511918E-02	1.342119E-04
6.144884E+03	1.501166E-02	1.334851E-04
6.154859E+03	1.489594E-02	1.327364E-04
6.164835E+03	1.477197E-02	1.319648E-04
6.174810E+03	1.464050E-02	1.311738E-04
6.184785E+03	1.450159E-02	1.303599E-04
6.194761E+03	1.435612E-02	1.295271E-04
6.204736E+03	1.420482E-02	1.286777E-04
6.214712E+03	1.404861E-02	1.278161E-04
6.224687E+03	1.388859E-02	1.269480E-04
6.234663E+03	1.372574E-02	1.260788E-04
6.244638E+03	1.356099E-02	1.252129E-04
6.254614E+03	1.339474E-02	1.243504E-04
6.264589E+03	1.322832E-02	1.235005E-04
6.274565E+03	1.306257E-02	1.226677E-04
6.284540E+03	1.289863E-02	1.218598E-04
6.294515E+03	1.273752E-02	1.210838E-04
6.304491E+03	1.258019E-02	1.203468E-04
6.314466E+03	1.242771E-02	1.196568E-04
6.324442E+03	1.228102E-02	1.190216E-04
6.334417E+03	1.214064E-02	1.184448E-04
6.344393E+03	1.200714E-02	1.179311E-04
6.354368E+03	1.188125E-02	1.174871E-04
6.364344E+03	1.176298E-02	1.171121E-04
6.374319E+03	1.165291E-02	1.168115E-04
6.384295E+03	1.155064E-02	1.165809E-04
6.394270E+03	1.145657E-02	1.164240E-04
6.404246E+03	1.137028E-02	1.163365E-04
6.414221E+03	1.129186E-02	1.163192E-04
6.424196E+03	1.122092E-02	1.163680E-04
6.434172E+03	1.115715E-02	1.164799E-04
6.444147E+03	1.110038E-02	1.166531E-04
6.454123E+03	1.105041E-02	1.168856E-04
6.464098E+03	1.100672E-02	1.171721E-04
6.474074E+03	1.096909E-02	1.175101E-04
6.484049E+03	1.093725E-02	1.178970E-04
6.494025E+03	1.091080E-02	1.183282E-04
6.504000E+03	1.088928E-02	1.187991E-04
6.513976E+03	1.087225E-02	1.193045E-04
6.523951E+03	1.085922E-02	1.198389E-04
6.533927E+03	1.084922E-02	1.203915E-04
6.543902E+03	1.084155E-02	1.209539E-04
6.553877E+03	1.083536E-02	1.215164E-04
6.563853E+03	1.082970E-02	1.220676E-04
6.573828E+03	1.082412E-02	1.226016E-04
6.583804E+03	1.081759E-02	1.231061E-04
6.593779E+03	1.080965E-02	1.235750E-04
6.603755E+03	1.079993E-02	1.240030E-04
6.613730E+03	1.078751E-02	1.243788E-04
6.623706E+03	1.077252E-02	1.247029E-04
6.633681E+03	1.075441E-02	1.249681E-04
6.643657E+03	1.073319E-02	1.251737E-04
6.653632E+03	1.070868E-02	1.253167E-04
6.663608E+03	1.068106E-02	1.253987E-04
6.673583E+03	1.065030E-02	1.254186E-04
6.683558E+03	1.061660E-02	1.253783E-04
6.693534E+03	1.058021E-02	1.252802E-04
6.703509E+03	1.054159E-02	1.251295E-04
6.713485E+03	1.050076E-02	1.249262E-04
6.723460E+03	1.045825E-02	1.246765E-04
6.733436E+03	1.041429E-02	1.243831E-04
6.743411E+03	1.036942E-02	1.240524E-04
6.753387E+03	1.032390E-02	1.236876E-04
6.763362E+03	1.027826E-02	1.232953E-04
6.773338E+03	1.023273E-02	1.228784E-04
6.783313E+03	1.018751E-02	1.224396E-04
6.793289E+03	1.014325E-02	1.219870E-04
6.803264E+03	1.009995E-02	1.215209E-04
6.813239E+03	1.005805E-02	1.210468E-04
6.823215E+03	1.001764E-02	1.205665E-04
6.833190E+03	9.978952E-03	1.200828E-04
6.843166E+03	9.942324E-03	1.196003E-04
6.853141E+03	9.907757E-03	1.191194E-04
6.863117E+03	9.875383E-03	1.186419E-04
6.873092E+03	9.845137E-03	1.181676E-04
6.883068E+03	9.817245E-03	1.176995E-04
6.893043E+03	9.791751E-03	1.172384E-04
6.903019E+03	9.768509E-03	1.167829E-04
6.912994E+03	9.747510E-03	1.163333E-04
6.922969E+03	9.728726E-03	1.158897E-04
6.932945E+03	9.712261E-03	1.154537E-04
6.942920E+03	9.697733E-03	1.150209E-04
6.952896E+03	9.685214E-03	1.145928E-04
6.962871E+03	9.674606E-03	1.141686E-04
6.972847E+03	9.665639E-03	1.137455E-04
6.982822E+03	9.658352E-03	1.133245E-04
6.992798E+03	9.652454E-03	1.129027E-04
7.002773E+03	9.647808E-03	1.124790E-04
7.012749E+03	9.644434E-03	1.120542E-04
7.022724E+03	9.641858E-03	1.116235E-04
7.032700E+03	9.640256E-03	1.111897E-04
7.042675E+03	9.639150E-03	1.107480E-04
7.052650E+03	9.638547E-03	1.102994E-04
7.062626E+03	9.638129E-03	1.098412E-04
7.072601E+03	9.637905E-03	1.093744E-04
7.082577E+03	9.637723E-03	1.088985E-04
7.092552E+03	9.637266E-03	1.084110E-04
7.102528E+03	9.636385E-03	1.079115E-04
7.112503E+03	9.635098E-03	1.074016E-04
7.122479E+03	9.632929E-03	1.068774E-04
7.132454E+03	9.630073E-03	1.063427E-04
7.142430E+03	9.626224E-03	1.057956E-04
7.152405E+03	9.621253E-03	1.052366E-04
7.162381E+03	9.615036E-03	1.046660E-04
7.172356E+03	9.607451E-03	1.040845E-04
7.182331E+03	9.598382E-03	1.034929E-04
7.192307E+03	9.587556E-03	1.028902E-04
7.202282E+03	9.575210E-03	1.022812E-04
7.212258E+03	9.560913E-03	1.016636E-04
7.222233E+03	9.544919E-03	1.010423E-04
7.232209E+03	9.526813E-03	1.004154E-04
7.242184E+03	9.506698E-03	9.978634E-05
7.252160E+03	9.484518E-03	9.915699E-05
7.262135E+03	9.460052E-03	9.852757E-05
7.272111E+03	9.433606E-03	9.790375E-05
7.282086E+03	9.404808E-03	9.728419E-05
7.292062E+03	9.373985E-03	9.667478E-05
7.302037E+03	9.340785E-03	9.607435E-05
7.312012E+03	9.305550E-03	9.548885E-05
7.321988E+03	9.267951E-03	9.491727E-05
7.331963E+03	9.228176E-03	9.436386E-05
7.341939E+03	9.186426E-03	9.383283E-05
7.351914E+03	9.142562E-03	9.332489E-05
7.361890E+03	9.096626E-03	9.284242E-05
7.371865E+03	9.048665E-03	9.238771E-05
7.381841E+03	8.998727E-03	9.196294E-05
7.391816E+03	8.947037E-03	9.157189E-05
7.401792E+03	8.893308E-03	9.121291E-05
7.411767E+03	8.838101E-03	9.089288E-05
7.421743E+03	8.780959E-03	9.060798E-05
7.431718E+03	8.722266E-03	9.036281E-05
7.441693E+03	8.662064E-03	9.015737E-05
7.451669E+03	8.600230E-03	8.998840E-05
7.461644E+03	8.536809E-03	8.985413E-05
7.471620E+03	8.472166E-03	8.975598E-05
7.481595E+03	8.405822E-03	8.968641E-05
7.491571E+03	8.338111E-03	8.964632E-05
7.501546E+03	8.268852E-03	8.963103E-05
7.511522E+03	8.198177E-03	8.963915E-05
7.521497E+03	8.125877E-03	8.966552E-05
7.531473E+03	8.052047E-03	8.970818E-05
7.541448E+03	7.976451E-03	8.976146E-05
7.551423E+03	7.898995E-03	8.982118E-05
7.561399E+03	7.819742E-03	8.988484E-05
7.571374E+03	7.738580E-03	8.994798E-05
7.581350E+03	7.655393E-03	9.000595E-05
7.591325E+03	7.569759E-03	9.005044E-05
7.601301E+03	7.482098E-03	9.008302E-05
7.611276E+03	7.392434E-03	9.010067E-05
7.621252E+03	7.301330E-03	9.010706E-05
7.631227E+03	7.209165E-03	9.010394E-05
7.641203E+03	7.116284E-03	9.009290E-05
7.651178E+03	7.022848E-03	9.007346E-05
7.661154E+03	6.929276E-03	9.004866E-05
7.671129E+03	6.835796E-03	9.001937E-05
7.681104E+03	6.742743E-03	8.998815E-05
7.691080E+03	6.649988E-03	8.995158E-05
7.701055E+03	6.557792E-03	8.991160E-05
7.711031E+03	6.466246E-03	8.986803E-05
7.721006E+03	6.375407E-03	8.982042E-05
7.730982E+03	6.285450E-03	8.977006E-05
7.740957E+03	6.196253E-03	8.971420E-05
