#wls	flux	fluxerr
1.596074E+03	3.099135E-04	8.208649E-05
1.635976E+03	3.101208E-04	8.172695E-05
1.675877E+03	3.105270E-04	8.140667E-05
1.715779E+03	3.109912E-04	8.108773E-05
1.755681E+03	3.116431E-04	8.080321E-05
1.795583E+03	3.123440E-04	8.051614E-05
1.835485E+03	3.133528E-04	8.029219E-05
1.875387E+03	3.143996E-04	8.006084E-05
1.915288E+03	3.157389E-04	7.988579E-05
1.955190E+03	3.172330E-04	7.973052E-05
1.995092E+03	3.188757E-04	7.959217E-05
2.034994E+03	3.207858E-04	7.949884E-05
2.074896E+03	3.228298E-04	7.941564E-05
2.114798E+03	3.252475E-04	7.939977E-05
2.154699E+03	3.279042E-04	7.941575E-05
2.194601E+03	3.307911E-04	7.945935E-05
2.234503E+03	3.340188E-04	7.955472E-05
2.274405E+03	3.374575E-04	7.966826E-05
2.314307E+03	3.413330E-04	7.985054E-05
2.354209E+03	3.455155E-04	8.006763E-05
2.394110E+03	3.501091E-04	8.034034E-05
2.434012E+03	3.549878E-04	8.063604E-05
2.473914E+03	3.602554E-04	8.097489E-05
2.513816E+03	3.657905E-04	8.132573E-05
2.553718E+03	3.715871E-04	8.168392E-05
2.593620E+03	3.778580E-04	8.209223E-05
2.633522E+03	3.843788E-04	8.249728E-05
2.673423E+03	3.912553E-04	8.291788E-05
2.713325E+03	3.985905E-04	8.337095E-05
2.753227E+03	4.062780E-04	8.382889E-05
2.793129E+03	4.145271E-04	8.432936E-05
2.833031E+03	4.231356E-04	8.482486E-05
2.872933E+03	4.323153E-04	8.535189E-05
2.912834E+03	4.420759E-04	8.590484E-05
2.952736E+03	4.524315E-04	8.647858E-05
2.992638E+03	4.635007E-04	8.708714E-05
3.002614E+03	4.664552E-04	8.725775E-05
3.012589E+03	4.694073E-04	8.742092E-05
3.022564E+03	4.723577E-04	8.757672E-05
3.032540E+03	4.754042E-04	8.774315E-05
3.042515E+03	4.785470E-04	8.791997E-05
3.052491E+03	4.816899E-04	8.808931E-05
3.062466E+03	4.849301E-04	8.826881E-05
3.072442E+03	4.882679E-04	8.845821E-05
3.082417E+03	4.916079E-04	8.864003E-05
3.092393E+03	4.950467E-04	8.883152E-05
3.102368E+03	4.985850E-04	8.903253E-05
3.112344E+03	5.021278E-04	8.922585E-05
3.122319E+03	5.057714E-04	8.942844E-05
3.132295E+03	5.095167E-04	8.964013E-05
3.142270E+03	5.132692E-04	8.984409E-05
3.152245E+03	5.172197E-04	9.007344E-05
3.162221E+03	5.211793E-04	9.029489E-05
3.172196E+03	5.253384E-04	9.054113E-05
3.182172E+03	5.295086E-04	9.077931E-05
3.192147E+03	5.337858E-04	9.102566E-05
3.202123E+03	5.381708E-04	9.127997E-05
3.212098E+03	5.427585E-04	9.155790E-05
3.222074E+03	5.473626E-04	9.182755E-05
3.232049E+03	5.521715E-04	9.212026E-05
3.242025E+03	5.570930E-04	9.242007E-05
3.252000E+03	5.621282E-04	9.272681E-05
3.261976E+03	5.672790E-04	9.304037E-05
3.271951E+03	5.726397E-04	9.337572E-05
3.281926E+03	5.782118E-04	9.373247E-05
3.291902E+03	5.838109E-04	9.408018E-05
3.301877E+03	5.897175E-04	9.446365E-05
3.311853E+03	5.957476E-04	9.485262E-05
3.321828E+03	6.019032E-04	9.524693E-05
3.331804E+03	6.083715E-04	9.567560E-05
3.341779E+03	6.149692E-04	9.610898E-05
3.351755E+03	6.217913E-04	9.656133E-05
3.361730E+03	6.288397E-04	9.703221E-05
3.371706E+03	6.361169E-04	9.752122E-05
3.381681E+03	6.436254E-04	9.802796E-05
3.391657E+03	6.514601E-04	9.856599E-05
3.401632E+03	6.594388E-04	9.910685E-05
3.411607E+03	6.677492E-04	9.967801E-05
3.421583E+03	6.763941E-04	1.002788E-04
3.431558E+03	6.852842E-04	1.008949E-04
3.441534E+03	6.944224E-04	1.015258E-04
3.451509E+03	7.039972E-04	1.021981E-04
3.461485E+03	7.138266E-04	1.028841E-04
3.471460E+03	7.240067E-04	1.035965E-04
3.481436E+03	7.344486E-04	1.043216E-04
3.491411E+03	7.453409E-04	1.050849E-04
3.501387E+03	7.566877E-04	1.058855E-04
3.511362E+03	7.683069E-04	1.066965E-04
3.521338E+03	7.803883E-04	1.075431E-04
3.531313E+03	7.928425E-04	1.084114E-04
3.541288E+03	8.057667E-04	1.093132E-04
3.551264E+03	8.191647E-04	1.102475E-04
3.561239E+03	8.330404E-04	1.112129E-04
3.571215E+03	8.473043E-04	1.121961E-04
3.581190E+03	8.621468E-04	1.132205E-04
3.591166E+03	8.774781E-04	1.142723E-04
3.601141E+03	8.933014E-04	1.153503E-04
3.611117E+03	9.096199E-04	1.164530E-04
3.621092E+03	9.265303E-04	1.175909E-04
3.631068E+03	9.440355E-04	1.187621E-04
3.641043E+03	9.621378E-04	1.199649E-04
3.651018E+03	9.807440E-04	1.211855E-04
3.660994E+03	9.999499E-04	1.224337E-04
3.670969E+03	1.019851E-03	1.237189E-04
3.680945E+03	1.040353E-03	1.250272E-04
3.690920E+03	1.061453E-03	1.263562E-04
3.700896E+03	1.083247E-03	1.277146E-04
3.710871E+03	1.105731E-03	1.290997E-04
3.720847E+03	1.128902E-03	1.305085E-04
3.730822E+03	1.152658E-03	1.319266E-04
3.740798E+03	1.177188E-03	1.333732E-04
3.750773E+03	1.202386E-03	1.348337E-04
3.760749E+03	1.228243E-03	1.363046E-04
3.770724E+03	1.254848E-03	1.377928E-04
3.780699E+03	1.282187E-03	1.392944E-04
3.790675E+03	1.310152E-03	1.407948E-04
3.800650E+03	1.338921E-03	1.423105E-04
3.810626E+03	1.368283E-03	1.438165E-04
3.820601E+03	1.398416E-03	1.453287E-04
3.830577E+03	1.429300E-03	1.468424E-04
3.840552E+03	1.460814E-03	1.483423E-04
3.850528E+03	1.492936E-03	1.498239E-04
3.860503E+03	1.525838E-03	1.513019E-04
3.870479E+03	1.559394E-03	1.527610E-04
3.880454E+03	1.593575E-03	1.541960E-04
3.890430E+03	1.628353E-03	1.556018E-04
3.900405E+03	1.663796E-03	1.569826E-04
3.910380E+03	1.699872E-03	1.583328E-04
3.920356E+03	1.736545E-03	1.596469E-04
3.930331E+03	1.773685E-03	1.609109E-04
3.940307E+03	1.811453E-03	1.621376E-04
3.950282E+03	1.849717E-03	1.633130E-04
3.960258E+03	1.888440E-03	1.644320E-04
3.970233E+03	1.927684E-03	1.654985E-04
3.980209E+03	1.967417E-03	1.665080E-04
3.990184E+03	2.007504E-03	1.674475E-04
4.000160E+03	2.048107E-03	1.683294E-04
4.010135E+03	2.088996E-03	1.691333E-04
4.020111E+03	2.130339E-03	1.698718E-04
4.030086E+03	2.172003E-03	1.705334E-04
4.040061E+03	2.214062E-03	1.711227E-04
4.050037E+03	2.256388E-03	1.716293E-04
4.060012E+03	2.299056E-03	1.720582E-04
4.069988E+03	2.342043E-03	1.724071E-04
4.079963E+03	2.385233E-03	1.726671E-04
4.089939E+03	2.428804E-03	1.728509E-04
4.099914E+03	2.472645E-03	1.729503E-04
4.109890E+03	2.516650E-03	1.729578E-04
4.119865E+03	2.561004E-03	1.728865E-04
4.129841E+03	2.605607E-03	1.727296E-04
4.139816E+03	2.650556E-03	1.724938E-04
4.149792E+03	2.695663E-03	1.721673E-04
4.159767E+03	2.741125E-03	1.717634E-04
4.169742E+03	2.786861E-03	1.712777E-04
4.179718E+03	2.832981E-03	1.707177E-04
4.189693E+03	2.879408E-03	1.700795E-04
4.199669E+03	2.926171E-03	1.693660E-04
4.209644E+03	2.973295E-03	1.685800E-04
4.219620E+03	3.020909E-03	1.677301E-04
4.229595E+03	3.068865E-03	1.668097E-04
4.239571E+03	3.117393E-03	1.658330E-04
4.249546E+03	3.166447E-03	1.647993E-04
4.259522E+03	3.215993E-03	1.637091E-04
4.269497E+03	3.266269E-03	1.625770E-04
4.279472E+03	3.317160E-03	1.613996E-04
4.289448E+03	3.368736E-03	1.601837E-04
4.299423E+03	3.421162E-03	1.589402E-04
4.309399E+03	3.474517E-03	1.576764E-04
4.319374E+03	3.528709E-03	1.563922E-04
4.329350E+03	3.583916E-03	1.551001E-04
4.339325E+03	3.640228E-03	1.538094E-04
4.349301E+03	3.697741E-03	1.525295E-04
4.359276E+03	3.756464E-03	1.512675E-04
4.369252E+03	3.816497E-03	1.500346E-04
4.379227E+03	3.877936E-03	1.488426E-04
4.389203E+03	3.940820E-03	1.477023E-04
4.399178E+03	4.005045E-03	1.466201E-04
4.409153E+03	4.070755E-03	1.456130E-04
4.419129E+03	4.137658E-03	1.446836E-04
4.429104E+03	4.205883E-03	1.438514E-04
4.439080E+03	4.275293E-03	1.431277E-04
4.449055E+03	4.345835E-03	1.425284E-04
4.459031E+03	4.417530E-03	1.420730E-04
4.469006E+03	4.490227E-03	1.417768E-04
4.478982E+03	4.563939E-03	1.416613E-04
4.488957E+03	4.638591E-03	1.417461E-04
4.498933E+03	4.714105E-03	1.420511E-04
4.508908E+03	4.790485E-03	1.425989E-04
4.518884E+03	4.867565E-03	1.434069E-04
4.528859E+03	4.945177E-03	1.444918E-04
4.538834E+03	5.023155E-03	1.458691E-04
4.548810E+03	5.101247E-03	1.475446E-04
4.558785E+03	5.179449E-03	1.495232E-04
4.568761E+03	5.257427E-03	1.517975E-04
4.578736E+03	5.335015E-03	1.543622E-04
4.588712E+03	5.412134E-03	1.572122E-04
4.598687E+03	5.488625E-03	1.603378E-04
4.608663E+03	5.564250E-03	1.637245E-04
4.618638E+03	5.638947E-03	1.673611E-04
4.628614E+03	5.712408E-03	1.712276E-04
4.638589E+03	5.784746E-03	1.753147E-04
4.648565E+03	5.855668E-03	1.796002E-04
4.658540E+03	5.925055E-03	1.840658E-04
4.668515E+03	5.992878E-03	1.886956E-04
4.678491E+03	6.058953E-03	1.934682E-04
4.688466E+03	6.123185E-03	1.983646E-04
4.698442E+03	6.185568E-03	2.033687E-04
4.708417E+03	6.245944E-03	2.084594E-04
4.718393E+03	6.304245E-03	2.136185E-04
4.728368E+03	6.360488E-03	2.188310E-04
4.738344E+03	6.414541E-03	2.240771E-04
4.748319E+03	6.466353E-03	2.293401E-04
4.758295E+03	6.515888E-03	2.346040E-04
4.768270E+03	6.563192E-03	2.398566E-04
4.778246E+03	6.608155E-03	2.450801E-04
4.788221E+03	6.650756E-03	2.502608E-04
4.798196E+03	6.691056E-03	2.553882E-04
4.808172E+03	6.729042E-03	2.604500E-04
4.818147E+03	6.764782E-03	2.654371E-04
4.828123E+03	6.798192E-03	2.703356E-04
4.838098E+03	6.829346E-03	2.751380E-04
4.848074E+03	6.858321E-03	2.798375E-04
4.858049E+03	6.885198E-03	2.844282E-04
4.868025E+03	6.909977E-03	2.889018E-04
4.878000E+03	6.932819E-03	2.932567E-04
4.887976E+03	6.953652E-03	2.974824E-04
4.897951E+03	6.972791E-03	3.015856E-04
4.907927E+03	6.990090E-03	3.055534E-04
4.917902E+03	7.005786E-03	3.093904E-04
4.927877E+03	7.019965E-03	3.130951E-04
4.937853E+03	7.032636E-03	3.166629E-04
4.947828E+03	7.044035E-03	3.201000E-04
4.957804E+03	7.054095E-03	3.233995E-04
4.967779E+03	7.063050E-03	3.265685E-04
4.977755E+03	7.070982E-03	3.296077E-04
4.987730E+03	7.077973E-03	3.325181E-04
4.997706E+03	7.084175E-03	3.353046E-04
5.007681E+03	7.089590E-03	3.379652E-04
5.017657E+03	7.094441E-03	3.405088E-04
5.027632E+03	7.098724E-03	3.429337E-04
5.037607E+03	7.102652E-03	3.452493E-04
5.047583E+03	7.106215E-03	3.474541E-04
5.057558E+03	7.109616E-03	3.495574E-04
5.067534E+03	7.112833E-03	3.515577E-04
5.077509E+03	7.115986E-03	3.534608E-04
5.087485E+03	7.119189E-03	3.552722E-04
5.097460E+03	7.122474E-03	3.569936E-04
5.107436E+03	7.125941E-03	3.586303E-04
5.117411E+03	7.129681E-03	3.601873E-04
5.127387E+03	7.133704E-03	3.616657E-04
5.137362E+03	7.138087E-03	3.630699E-04
5.147338E+03	7.142828E-03	3.644004E-04
5.157313E+03	7.147984E-03	3.656610E-04
5.167288E+03	7.153610E-03	3.668552E-04
5.177264E+03	7.159749E-03	3.679862E-04
5.187239E+03	7.166293E-03	3.690493E-04
5.197215E+03	7.173416E-03	3.700545E-04
5.207190E+03	7.180924E-03	3.709927E-04
5.217166E+03	7.188976E-03	3.718732E-04
5.227141E+03	7.197438E-03	3.726902E-04
5.237117E+03	7.206383E-03	3.734486E-04
5.247092E+03	7.215737E-03	3.741456E-04
5.257068E+03	7.225492E-03	3.747821E-04
5.267043E+03	7.235566E-03	3.753551E-04
5.277019E+03	7.246011E-03	3.758685E-04
5.286994E+03	7.256667E-03	3.763153E-04
5.296969E+03	7.267510E-03	3.766957E-04
5.306945E+03	7.278588E-03	3.770136E-04
5.316920E+03	7.289732E-03	3.772617E-04
5.326896E+03	7.300914E-03	3.774403E-04
5.336871E+03	7.312182E-03	3.775532E-04
5.346847E+03	7.323363E-03	3.775933E-04
5.356822E+03	7.334433E-03	3.775612E-04
5.366798E+03	7.345367E-03	3.774573E-04
5.376773E+03	7.356071E-03	3.772788E-04
5.386749E+03	7.366600E-03	3.770304E-04
5.396724E+03	7.376719E-03	3.767022E-04
5.406700E+03	7.386568E-03	3.763034E-04
5.416675E+03	7.395991E-03	3.758284E-04
5.426650E+03	7.405065E-03	3.752832E-04
5.436626E+03	7.413650E-03	3.746632E-04
5.446601E+03	7.421689E-03	3.739678E-04
5.456577E+03	7.429281E-03	3.732045E-04
5.466552E+03	7.436386E-03	3.723737E-04
5.476528E+03	7.442899E-03	3.714727E-04
5.486503E+03	7.448805E-03	3.705033E-04
5.496479E+03	7.454101E-03	3.694679E-04
5.506454E+03	7.458953E-03	3.683761E-04
5.516430E+03	7.463469E-03	3.672317E-04
5.526405E+03	7.467618E-03	3.660312E-04
5.536381E+03	7.471529E-03	3.647791E-04
5.546356E+03	7.475185E-03	3.634726E-04
5.556331E+03	7.478801E-03	3.621199E-04
5.566307E+03	7.482298E-03	3.607155E-04
5.576282E+03	7.485823E-03	3.592642E-04
5.586258E+03	7.489383E-03	3.577642E-04
5.596233E+03	7.493054E-03	3.562173E-04
5.606209E+03	7.496920E-03	3.546251E-04
5.616184E+03	7.500988E-03	3.529860E-04
5.626160E+03	7.505342E-03	3.513018E-04
5.636135E+03	7.510138E-03	3.495777E-04
5.646111E+03	7.515309E-03	3.478083E-04
5.656086E+03	7.520864E-03	3.459920E-04
5.666061E+03	7.527030E-03	3.441370E-04
5.676037E+03	7.533734E-03	3.422379E-04
5.686012E+03	7.541051E-03	3.402959E-04
5.695988E+03	7.548979E-03	3.383089E-04
5.705963E+03	7.557587E-03	3.362777E-04
5.715939E+03	7.566863E-03	3.341998E-04
5.725914E+03	7.576940E-03	3.320790E-04
5.735890E+03	7.587727E-03	3.299093E-04
5.745865E+03	7.599275E-03	3.276908E-04
5.755841E+03	7.611553E-03	3.254204E-04
5.765816E+03	7.624604E-03	3.230981E-04
5.775792E+03	7.638387E-03	3.207203E-04
5.785767E+03	7.653005E-03	3.182897E-04
5.795742E+03	7.668261E-03	3.157966E-04
5.805718E+03	7.684249E-03	3.132432E-04
5.815693E+03	7.700907E-03	3.106259E-04
5.825669E+03	7.718169E-03	3.079410E-04
5.835644E+03	7.736114E-03	3.051905E-04
5.845620E+03	7.754519E-03	3.023650E-04
5.855595E+03	7.773453E-03	2.994667E-04
5.865571E+03	7.792831E-03	2.964922E-04
5.875546E+03	7.812571E-03	2.934384E-04
5.885522E+03	7.832655E-03	2.903051E-04
5.895497E+03	7.852993E-03	2.870897E-04
5.905473E+03	7.873494E-03	2.837900E-04
5.915448E+03	7.894209E-03	2.804094E-04
5.925423E+03	7.914899E-03	2.769414E-04
5.935399E+03	7.935617E-03	2.733905E-04
5.945374E+03	7.956271E-03	2.697562E-04
5.955350E+03	7.976841E-03	2.660417E-04
5.965325E+03	7.997168E-03	2.622457E-04
5.975301E+03	8.017237E-03	2.583724E-04
5.985276E+03	8.037115E-03	2.544296E-04
5.995252E+03	8.056575E-03	2.504160E-04
6.005227E+03	8.075691E-03	2.463412E-04
6.015203E+03	8.094321E-03	2.422084E-04
6.025178E+03	8.112627E-03	2.380311E-04
6.035154E+03	8.130401E-03	2.338128E-04
6.045129E+03	8.147747E-03	2.295671E-04
6.055104E+03	8.164621E-03	2.253043E-04
6.065080E+03	8.180989E-03	2.210362E-04
6.075055E+03	8.196976E-03	2.167801E-04
6.085031E+03	8.212491E-03	2.125488E-04
6.095006E+03	8.227674E-03	2.083625E-04
6.104982E+03	8.242451E-03	2.042372E-04
6.114957E+03	8.256983E-03	2.001963E-04
6.124933E+03	8.271289E-03	1.962610E-04
6.134908E+03	8.285473E-03	1.924563E-04
6.144884E+03	8.299572E-03	1.888067E-04
6.154859E+03	8.313707E-03	1.853403E-04
6.164835E+03	8.328009E-03	1.820867E-04
6.174810E+03	8.342462E-03	1.790732E-04
6.184785E+03	8.357368E-03	1.763349E-04
6.194761E+03	8.372722E-03	1.739008E-04
6.204736E+03	8.388682E-03	1.718036E-04
6.214712E+03	8.405491E-03	1.700769E-04
6.224687E+03	8.423315E-03	1.687519E-04
6.234663E+03	8.442505E-03	1.678616E-04
6.244638E+03	8.463069E-03	1.674300E-04
6.254614E+03	8.485028E-03	1.674737E-04
6.264589E+03	8.508443E-03	1.679893E-04
6.274565E+03	8.533366E-03	1.689652E-04
6.284540E+03	8.559685E-03	1.703838E-04
6.294515E+03	8.587364E-03	1.722264E-04
6.304491E+03	8.616524E-03	1.744754E-04
6.314466E+03	8.647035E-03	1.771070E-04
6.324442E+03	8.678835E-03	1.800980E-04
6.334417E+03	8.711853E-03	1.834244E-04
6.344393E+03	8.746175E-03	1.870658E-04
6.354368E+03	8.781535E-03	1.909949E-04
6.364344E+03	8.817904E-03	1.951899E-04
6.374319E+03	8.855241E-03	1.996299E-04
6.384295E+03	8.893404E-03	2.042927E-04
6.394270E+03	8.932229E-03	2.091567E-04
6.404246E+03	8.971537E-03	2.142007E-04
6.414221E+03	9.011127E-03	2.194043E-04
6.424196E+03	9.050972E-03	2.247519E-04
6.434172E+03	9.090752E-03	2.302221E-04
6.444147E+03	9.130289E-03	2.357960E-04
6.454123E+03	9.169455E-03	2.414542E-04
6.464098E+03	9.208110E-03	2.471768E-04
6.474074E+03	9.246109E-03	2.529449E-04
6.484049E+03	9.282902E-03	2.587284E-04
6.494025E+03	9.318517E-03	2.645134E-04
6.504000E+03	9.352384E-03	2.702697E-04
6.513976E+03	9.384222E-03	2.759752E-04
6.523951E+03	9.413763E-03	2.816080E-04
6.533927E+03	9.440754E-03	2.871471E-04
6.543902E+03	9.464948E-03	2.925718E-04
6.553877E+03	9.485903E-03	2.978553E-04
6.563853E+03	9.503603E-03	3.029843E-04
6.573828E+03	9.517631E-03	3.079331E-04
6.583804E+03	9.527901E-03	3.126866E-04
6.593779E+03	9.534247E-03	3.172276E-04
6.603755E+03	9.536420E-03	3.215366E-04
6.613730E+03	9.534302E-03	3.255983E-04
6.623706E+03	9.527802E-03	3.293992E-04
6.633681E+03	9.516969E-03	3.329310E-04
6.643657E+03	9.501665E-03	3.361795E-04
6.653632E+03	9.481778E-03	3.391318E-04
6.663608E+03	9.457555E-03	3.417886E-04
6.673583E+03	9.428945E-03	3.441404E-04
6.683558E+03	9.395925E-03	3.461796E-04
6.693534E+03	9.358821E-03	3.479121E-04
6.703509E+03	9.317554E-03	3.493293E-04
6.713485E+03	9.272390E-03	3.504366E-04
6.723460E+03	9.223399E-03	3.512325E-04
6.733436E+03	9.170884E-03	3.517253E-04
6.743411E+03	9.114952E-03	3.519164E-04
6.753387E+03	9.055931E-03	3.518164E-04
6.763362E+03	8.993949E-03	3.514290E-04
6.773338E+03	8.929246E-03	3.507629E-04
6.783313E+03	8.862067E-03	3.498276E-04
6.793289E+03	8.792662E-03	3.486332E-04
6.803264E+03	8.721381E-03	3.471947E-04
6.813239E+03	8.648263E-03	3.455149E-04
6.823215E+03	8.573548E-03	3.436052E-04
6.833190E+03	8.497678E-03	3.414855E-04
6.843166E+03	8.420677E-03	3.391593E-04
6.853141E+03	8.342764E-03	3.366382E-04
6.863117E+03	8.264250E-03	3.339380E-04
6.873092E+03	8.185235E-03	3.310659E-04
6.883068E+03	8.105906E-03	3.280329E-04
6.893043E+03	8.026441E-03	3.248500E-04
6.903019E+03	7.947098E-03	3.215315E-04
6.912994E+03	7.867740E-03	3.180755E-04
6.922969E+03	7.788795E-03	3.145035E-04
6.932945E+03	7.710201E-03	3.108168E-04
6.942920E+03	7.632165E-03	3.070279E-04
6.952896E+03	7.554699E-03	3.031413E-04
6.962871E+03	7.477894E-03	2.991646E-04
6.972847E+03	7.401833E-03	2.951053E-04
6.982822E+03	7.326589E-03	2.909702E-04
6.992798E+03	7.252312E-03	2.867694E-04
7.002773E+03	7.178785E-03	2.824980E-04
7.012749E+03	7.106323E-03	2.781726E-04
7.022724E+03	7.034783E-03	2.737913E-04
7.032700E+03	6.964194E-03	2.693592E-04
7.042675E+03	6.894670E-03	2.648843E-04
7.052650E+03	6.826137E-03	2.603678E-04
7.062626E+03	6.758523E-03	2.558107E-04
7.072601E+03	6.692008E-03	2.512234E-04
7.082577E+03	6.626422E-03	2.466035E-04
7.092552E+03	6.561851E-03	2.419578E-04
7.102528E+03	6.498291E-03	2.372900E-04
7.112503E+03	6.435650E-03	2.326006E-04
7.122479E+03	6.373923E-03	2.278932E-04
7.132454E+03	6.313182E-03	2.231743E-04
7.142430E+03	6.253332E-03	2.184446E-04
7.152405E+03	6.194280E-03	2.137048E-04
7.162381E+03	6.136178E-03	2.089644E-04
7.172356E+03	6.078850E-03	2.042217E-04
7.182331E+03	6.022365E-03	1.994835E-04
7.192307E+03	5.966632E-03	1.947513E-04
7.202282E+03	5.911718E-03	1.900321E-04
7.212258E+03	5.857534E-03	1.853281E-04
7.222233E+03	5.804151E-03	1.806467E-04
7.232209E+03	5.751482E-03	1.759907E-04
7.242184E+03	5.699446E-03	1.713634E-04
7.252160E+03	5.648191E-03	1.667755E-04
7.262135E+03	5.597713E-03	1.622330E-04
7.272111E+03	5.547788E-03	1.577366E-04
7.282086E+03	5.498641E-03	1.532999E-04
7.292062E+03	5.450201E-03	1.489288E-04
7.302037E+03	5.402475E-03	1.446317E-04
7.312012E+03	5.355396E-03	1.404158E-04
7.321988E+03	5.309048E-03	1.362930E-04
7.331963E+03	5.263442E-03	1.322738E-04
7.341939E+03	5.218594E-03	1.283695E-04
7.351914E+03	5.174447E-03	1.245905E-04
7.361890E+03	5.131159E-03	1.209534E-04
7.371865E+03	5.088608E-03	1.174684E-04
7.381841E+03	5.046887E-03	1.141519E-04
7.391816E+03	5.006015E-03	1.110193E-04
7.401792E+03	4.966014E-03	1.080865E-04
7.411767E+03	4.926908E-03	1.053701E-04
7.421743E+03	4.888718E-03	1.028866E-04
7.431718E+03	4.851469E-03	1.006526E-04
7.441693E+03	4.815181E-03	9.868451E-05
7.451669E+03	4.779946E-03	9.699892E-05
7.461644E+03	4.745716E-03	9.560843E-05
7.471620E+03	4.712509E-03	9.452517E-05
7.481595E+03	4.680346E-03	9.375896E-05
7.491571E+03	4.649304E-03	9.331333E-05
7.501546E+03	4.619318E-03	9.317660E-05
7.511522E+03	4.590449E-03	9.333636E-05
7.521497E+03	4.562625E-03	9.377573E-05
7.531473E+03	4.535831E-03	9.447779E-05
7.541448E+03	4.510124E-03	9.542623E-05
7.551423E+03	4.485489E-03	9.660300E-05
7.561399E+03	4.461842E-03	9.798870E-05
7.571374E+03	4.439294E-03	9.956854E-05
7.581350E+03	4.417694E-03	1.013228E-04
7.591325E+03	4.397086E-03	1.032369E-04
7.601301E+03	4.377442E-03	1.052959E-04
7.611276E+03	4.358725E-03	1.074857E-04
7.621252E+03	4.340958E-03	1.097949E-04
7.631227E+03	4.324032E-03	1.122100E-04
7.641203E+03	4.307903E-03	1.147203E-04
7.651178E+03	4.292587E-03	1.173175E-04
7.661154E+03	4.278033E-03	1.199928E-04
7.671129E+03	4.264185E-03	1.227380E-04
7.681104E+03	4.250988E-03	1.255459E-04
7.691080E+03	4.238383E-03	1.284096E-04
7.701055E+03	4.226370E-03	1.313250E-04
7.711031E+03	4.214820E-03	1.342842E-04
7.721006E+03	4.203727E-03	1.372839E-04
7.730982E+03	4.192962E-03	1.403170E-04
7.740957E+03	4.182578E-03	1.433830E-04
