#wls	flux	fluxerr
1.597540E+03	1.356928E-14	1.780487E-16
1.637478E+03	1.477461E-14	1.929835E-16
1.677417E+03	1.609727E-14	2.092781E-16
1.717355E+03	1.755163E-14	2.270912E-16
1.757294E+03	1.915343E-14	2.465946E-16
1.797232E+03	2.091627E-14	2.679270E-16
1.837171E+03	2.285220E-14	2.912025E-16
1.877109E+03	2.497051E-14	3.164954E-16
1.917048E+03	2.727646E-14	3.438249E-16
1.956986E+03	2.977164E-14	3.731612E-16
1.996925E+03	3.245676E-14	4.044609E-16
2.036863E+03	3.532608E-14	4.375988E-16
2.076802E+03	3.829999E-14	4.715401E-16
2.116740E+03	4.128825E-14	5.051426E-16
2.156679E+03	4.462738E-14	5.424792E-16
2.196617E+03	4.853720E-14	5.861049E-16
2.236556E+03	5.276209E-14	6.327973E-16
2.276494E+03	5.646952E-14	6.725428E-16
2.316433E+03	5.935967E-14	7.019078E-16
2.356371E+03	6.158232E-14	7.228449E-16
2.396310E+03	6.299157E-14	7.338171E-16
2.436248E+03	6.330528E-14	7.317719E-16
2.476187E+03	6.221840E-14	7.135056E-16
2.516125E+03	5.946368E-14	6.763689E-16
2.556064E+03	5.486378E-14	6.188419E-16
2.596002E+03	4.840600E-14	5.413305E-16
2.635941E+03	4.058186E-14	4.498523E-16
2.675879E+03	3.279243E-14	3.602386E-16
2.715818E+03	2.627592E-14	2.859931E-16
2.755756E+03	2.139060E-14	2.306230E-16
2.795695E+03	1.797890E-14	1.919661E-16
2.835633E+03	1.572512E-14	1.662400E-16
2.875572E+03	1.431965E-14	1.498483E-16
2.915510E+03	1.350568E-14	1.398654E-16
2.955449E+03	1.307866E-14	1.340071E-16
2.995387E+03	1.287873E-14	1.305282E-16
3.005372E+03	1.285036E-14	1.298813E-16
3.015356E+03	1.282816E-14	1.292975E-16
3.025341E+03	1.281151E-14	1.287696E-16
3.035326E+03	1.280006E-14	1.282938E-16
3.045310E+03	1.279355E-14	1.278672E-16
3.055295E+03	1.279258E-14	1.274952E-16
3.065279E+03	1.279733E-14	1.271795E-16
3.075264E+03	1.280804E-14	1.269215E-16
3.085249E+03	1.282519E-14	1.267257E-16
3.095233E+03	1.284931E-14	1.265968E-16
3.105218E+03	1.288096E-14	1.265397E-16
3.115203E+03	1.292081E-14	1.265604E-16
3.125187E+03	1.296948E-14	1.266642E-16
3.135172E+03	1.302765E-14	1.268569E-16
3.145156E+03	1.309591E-14	1.271434E-16
3.155141E+03	1.317483E-14	1.275285E-16
3.165126E+03	1.326488E-14	1.280158E-16
3.175110E+03	1.336646E-14	1.286080E-16
3.185095E+03	1.347984E-14	1.293069E-16
3.195080E+03	1.360524E-14	1.301136E-16
3.205064E+03	1.374275E-14	1.310277E-16
3.215049E+03	1.389251E-14	1.320497E-16
3.225033E+03	1.405453E-14	1.331785E-16
3.235018E+03	1.422893E-14	1.344142E-16
3.245003E+03	1.441584E-14	1.357570E-16
3.254987E+03	1.461556E-14	1.372085E-16
3.264972E+03	1.482839E-14	1.387705E-16
3.274957E+03	1.505461E-14	1.404444E-16
3.284941E+03	1.529467E-14	1.422333E-16
3.294926E+03	1.554867E-14	1.441369E-16
3.304910E+03	1.581669E-14	1.461546E-16
3.314895E+03	1.609825E-14	1.482809E-16
3.324880E+03	1.639236E-14	1.505054E-16
3.334864E+03	1.669738E-14	1.528122E-16
3.344849E+03	1.701068E-14	1.551762E-16
3.354834E+03	1.732855E-14	1.575631E-16
3.364818E+03	1.764601E-14	1.599272E-16
3.374803E+03	1.795664E-14	1.622107E-16
3.384787E+03	1.825259E-14	1.643436E-16
3.394772E+03	1.852429E-14	1.662415E-16
3.404757E+03	1.876117E-14	1.678117E-16
3.414741E+03	1.895277E-14	1.689645E-16
3.424726E+03	1.909187E-14	1.696395E-16
3.434711E+03	1.917711E-14	1.698295E-16
3.444695E+03	1.921123E-14	1.695637E-16
3.454680E+03	1.919920E-14	1.688902E-16
3.464664E+03	1.914689E-14	1.678648E-16
3.474649E+03	1.906073E-14	1.665471E-16
3.484634E+03	1.894693E-14	1.649944E-16
3.494618E+03	1.881110E-14	1.632578E-16
3.504603E+03	1.865850E-14	1.613848E-16
3.514588E+03	1.849396E-14	1.594187E-16
3.524572E+03	1.832161E-14	1.573959E-16
3.534557E+03	1.814502E-14	1.553479E-16
3.544541E+03	1.796752E-14	1.533034E-16
3.554526E+03	1.779166E-14	1.512841E-16
3.564511E+03	1.762026E-14	1.493140E-16
3.574495E+03	1.745710E-14	1.474246E-16
3.584480E+03	1.730618E-14	1.456488E-16
3.594465E+03	1.716888E-14	1.439974E-16
3.604449E+03	1.704316E-14	1.424519E-16
3.614434E+03	1.692486E-14	1.409770E-16
3.624418E+03	1.680972E-14	1.395366E-16
3.634403E+03	1.669456E-14	1.381041E-16
3.644388E+03	1.657777E-14	1.366664E-16
3.654372E+03	1.645907E-14	1.352212E-16
3.664357E+03	1.633900E-14	1.337735E-16
3.674342E+03	1.621820E-14	1.323283E-16
3.684326E+03	1.609754E-14	1.308930E-16
3.694311E+03	1.597775E-14	1.294735E-16
3.704295E+03	1.585876E-14	1.280691E-16
3.714280E+03	1.573962E-14	1.266723E-16
3.724265E+03	1.561952E-14	1.252765E-16
3.734249E+03	1.549704E-14	1.238706E-16
3.744234E+03	1.537067E-14	1.224427E-16
3.754219E+03	1.523940E-14	1.209852E-16
3.764203E+03	1.510346E-14	1.195003E-16
3.774188E+03	1.496383E-14	1.179962E-16
3.784172E+03	1.482301E-14	1.164927E-16
3.794157E+03	1.468486E-14	1.150203E-16
3.804142E+03	1.455351E-14	1.136110E-16
3.814126E+03	1.443151E-14	1.122842E-16
3.824111E+03	1.431939E-14	1.110432E-16
3.834095E+03	1.421520E-14	1.098722E-16
3.844080E+03	1.411453E-14	1.087368E-16
3.854065E+03	1.401174E-14	1.075933E-16
3.864049E+03	1.390073E-14	1.063951E-16
3.874034E+03	1.377654E-14	1.051052E-16
3.884019E+03	1.363638E-14	1.037033E-16
3.894003E+03	1.348054E-14	1.021928E-16
3.903988E+03	1.331131E-14	1.005920E-16
3.913972E+03	1.313239E-14	9.892986E-17
3.923957E+03	1.294886E-14	9.724503E-17
3.933942E+03	1.276693E-14	9.558435E-17
3.943926E+03	1.259269E-14	9.399307E-17
3.953911E+03	1.243174E-14	9.251225E-17
3.963896E+03	1.228881E-14	9.117620E-17
3.973880E+03	1.216792E-14	9.001324E-17
3.983865E+03	1.207153E-14	8.904019E-17
3.993849E+03	1.200116E-14	8.826655E-17
4.003834E+03	1.195802E-14	8.769959E-17
4.013819E+03	1.194234E-14	8.733936E-17
4.023803E+03	1.195141E-14	8.716454E-17
4.033788E+03	1.197885E-14	8.712723E-17
4.043773E+03	1.201583E-14	8.716245E-17
4.053757E+03	1.205216E-14	8.719611E-17
4.063742E+03	1.207615E-14	8.714391E-17
4.073726E+03	1.207630E-14	8.692404E-17
4.083711E+03	1.204380E-14	8.647459E-17
4.093696E+03	1.197427E-14	8.576598E-17
4.103680E+03	1.186629E-14	8.479009E-17
4.113665E+03	1.172144E-14	8.356003E-17
4.123650E+03	1.154436E-14	8.211062E-17
4.133634E+03	1.134096E-14	8.048519E-17
4.143619E+03	1.111762E-14	7.873003E-17
4.153603E+03	1.088110E-14	7.689360E-17
4.163588E+03	1.063764E-14	7.502020E-17
4.173573E+03	1.039349E-14	7.315386E-17
4.183557E+03	1.015563E-14	7.134350E-17
4.193542E+03	9.930582E-15	6.963426E-17
4.203527E+03	9.724443E-15	6.806805E-17
4.213511E+03	9.543852E-15	6.669034E-17
4.223496E+03	9.394800E-15	6.554180E-17
4.233480E+03	9.281300E-15	6.464917E-17
4.243465E+03	9.205114E-15	6.402343E-17
4.253450E+03	9.166748E-15	6.366688E-17
4.263434E+03	9.162636E-15	6.355370E-17
4.273419E+03	9.182567E-15	6.361225E-17
4.283404E+03	9.214062E-15	6.375566E-17
4.293388E+03	9.244972E-15	6.389978E-17
4.303373E+03	9.263410E-15	6.396254E-17
4.313357E+03	9.259516E-15	6.387617E-17
4.323342E+03	9.228513E-15	6.360809E-17
4.333327E+03	9.171530E-15	6.316645E-17
4.343311E+03	9.093646E-15	6.258644E-17
4.353296E+03	9.003616E-15	6.192841E-17
4.363281E+03	8.914769E-15	6.128393E-17
4.373265E+03	8.842925E-15	6.076147E-17
4.383250E+03	8.805025E-15	6.047708E-17
4.393234E+03	8.800739E-15	6.042806E-17
4.403219E+03	8.814184E-15	6.050510E-17
4.413204E+03	8.831442E-15	6.061252E-17
4.423188E+03	8.840890E-15	6.067051E-17
4.433173E+03	8.833146E-15	6.061465E-17
4.443158E+03	8.802245E-15	6.040394E-17
4.453142E+03	8.747044E-15	6.003041E-17
4.463127E+03	8.670251E-15	5.951247E-17
4.473111E+03	8.576090E-15	5.887887E-17
4.483096E+03	8.468969E-15	5.815962E-17
4.493081E+03	8.354132E-15	5.739045E-17
4.503065E+03	8.237295E-15	5.661041E-17
4.513050E+03	8.123657E-15	5.585499E-17
4.523035E+03	8.018483E-15	5.516024E-17
4.533019E+03	7.926747E-15	5.456032E-17
4.543004E+03	7.851976E-15	5.407949E-17
4.552988E+03	7.796029E-15	5.373064E-17
4.562973E+03	7.758983E-15	5.351444E-17
4.572958E+03	7.737968E-15	5.341128E-17
4.582942E+03	7.727764E-15	5.338526E-17
4.592927E+03	7.721562E-15	5.338941E-17
4.602912E+03	7.711133E-15	5.336679E-17
4.612896E+03	7.687733E-15	5.325669E-17
4.622881E+03	7.644216E-15	5.300920E-17
4.632865E+03	7.576728E-15	5.259704E-17
4.642850E+03	7.484055E-15	5.201113E-17
4.652835E+03	7.367927E-15	5.126278E-17
4.662819E+03	7.233348E-15	5.038614E-17
4.672804E+03	7.086554E-15	4.942407E-17
4.682789E+03	6.934476E-15	4.842450E-17
4.692773E+03	6.785254E-15	4.744401E-17
4.702758E+03	6.646620E-15	4.653667E-17
4.712742E+03	6.526112E-15	4.575546E-17
4.722727E+03	6.431593E-15	4.515597E-17
4.732712E+03	6.370152E-15	4.478872E-17
4.742696E+03	6.345655E-15	4.468182E-17
4.752681E+03	6.357862E-15	4.483468E-17
4.762665E+03	6.404016E-15	4.522893E-17
4.772650E+03	6.478562E-15	4.582637E-17
4.782635E+03	6.572141E-15	4.656165E-17
4.792619E+03	6.674075E-15	4.735963E-17
4.802604E+03	6.773996E-15	4.814695E-17
4.812589E+03	6.861249E-15	4.884767E-17
4.822573E+03	6.926651E-15	4.939588E-17
4.832558E+03	6.963733E-15	4.974460E-17
4.842542E+03	6.968929E-15	4.986724E-17
4.852527E+03	6.941745E-15	4.975906E-17
4.862512E+03	6.885476E-15	4.944247E-17
4.872496E+03	6.806816E-15	4.896445E-17
4.882481E+03	6.714043E-15	4.838373E-17
4.892466E+03	6.615183E-15	4.775764E-17
4.902450E+03	6.517077E-15	4.713533E-17
4.912435E+03	6.424580E-15	4.655195E-17
4.922419E+03	6.340321E-15	4.602674E-17
4.932404E+03	6.264339E-15	4.556026E-17
4.942389E+03	6.195410E-15	4.514385E-17
4.952373E+03	6.131663E-15	4.476412E-17
4.962358E+03	6.070833E-15	4.440464E-17
4.972343E+03	6.011043E-15	4.405176E-17
4.982327E+03	5.951354E-15	4.369857E-17
4.992312E+03	5.891899E-15	4.334601E-17
5.002296E+03	5.833399E-15	4.299937E-17
5.012281E+03	5.777044E-15	4.266744E-17
5.022266E+03	5.724312E-15	4.236121E-17
5.032250E+03	5.676449E-15	4.209006E-17
5.042235E+03	5.633807E-15	4.185677E-17
5.052220E+03	5.595489E-15	4.165487E-17
5.062204E+03	5.560134E-15	4.147438E-17
5.072189E+03	5.525700E-15	4.130014E-17
5.082173E+03	5.489984E-15	4.111567E-17
5.092158E+03	5.450966E-15	4.090573E-17
5.102143E+03	5.407260E-15	4.065973E-17
5.112127E+03	5.358186E-15	4.037231E-17
5.122112E+03	5.303656E-15	4.004252E-17
5.132097E+03	5.244175E-15	3.967394E-17
5.142081E+03	5.180448E-15	3.927164E-17
5.152066E+03	5.113407E-15	3.884250E-17
5.162050E+03	5.044132E-15	3.839455E-17
5.172035E+03	4.973446E-15	3.793395E-17
5.182020E+03	4.902342E-15	3.746820E-17
5.192004E+03	4.831504E-15	3.700250E-17
5.201989E+03	4.761357E-15	3.654010E-17
5.211974E+03	4.692133E-15	3.608282E-17
5.221958E+03	4.624026E-15	3.563216E-17
5.231943E+03	4.557091E-15	3.518860E-17
5.241927E+03	4.491358E-15	3.475240E-17
5.251912E+03	4.426883E-15	3.432405E-17
5.261897E+03	4.363882E-15	3.390526E-17
5.271881E+03	4.302544E-15	3.349758E-17
5.281866E+03	4.243379E-15	3.310505E-17
5.291851E+03	4.187069E-15	3.273309E-17
5.301835E+03	4.134140E-15	3.238595E-17
5.311820E+03	4.084996E-15	3.206696E-17
5.321804E+03	4.039642E-15	3.177633E-17
5.331789E+03	3.997903E-15	3.151287E-17
5.341774E+03	3.959317E-15	3.127309E-17
5.351758E+03	3.923253E-15	3.105214E-17
5.361743E+03	3.889084E-15	3.084518E-17
5.371728E+03	3.856012E-15	3.064595E-17
5.381712E+03	3.823068E-15	3.044679E-17
5.391697E+03	3.789395E-15	3.024084E-17
5.401681E+03	3.754392E-15	3.002327E-17
5.411666E+03	3.717739E-15	2.979143E-17
5.421651E+03	3.679316E-15	2.954426E-17
5.431635E+03	3.639429E-15	2.928414E-17
5.441620E+03	3.598600E-15	2.901518E-17
5.451605E+03	3.556837E-15	2.873741E-17
5.461589E+03	3.513517E-15	2.844572E-17
5.471574E+03	3.467850E-15	2.813361E-17
5.481558E+03	3.420550E-15	2.780677E-17
5.491543E+03	3.373505E-15	2.748049E-17
5.501528E+03	3.325513E-15	2.714496E-17
5.511512E+03	3.277463E-15	2.680740E-17
5.521497E+03	3.231714E-15	2.648714E-17
5.531482E+03	3.190430E-15	2.620205E-17
5.541466E+03	3.155339E-15	2.596658E-17
5.551451E+03	3.127719E-15	2.579157E-17
5.561435E+03	3.108127E-15	2.568200E-17
5.571420E+03	3.096616E-15	2.563870E-17
5.581405E+03	3.092695E-15	2.565801E-17
5.591389E+03	3.094986E-15	2.572884E-17
5.601374E+03	3.101510E-15	2.583503E-17
5.611359E+03	3.110083E-15	2.595855E-17
5.621343E+03	3.118177E-15	2.607836E-17
5.631328E+03	3.123227E-15	2.617294E-17
5.641312E+03	3.122944E-15	2.622293E-17
5.651297E+03	3.115551E-15	2.621309E-17
5.661282E+03	3.099802E-15	2.613256E-17
5.671266E+03	3.075356E-15	2.597805E-17
5.681251E+03	3.042928E-15	2.575517E-17
5.691235E+03	3.004218E-15	2.547792E-17
5.701220E+03	2.961964E-15	2.516926E-17
5.711205E+03	2.920022E-15	2.486185E-17
5.721189E+03	2.882790E-15	2.459321E-17
5.731174E+03	2.854315E-15	2.439818E-17
5.741159E+03	2.838131E-15	2.430747E-17
5.751143E+03	2.837018E-15	2.434555E-17
5.761128E+03	2.852089E-15	2.452276E-17
5.771112E+03	2.882173E-15	2.482980E-17
5.781097E+03	2.924638E-15	2.524474E-17
5.791082E+03	2.975812E-15	2.573643E-17
5.801066E+03	3.031055E-15	2.626511E-17
5.811051E+03	3.085178E-15	2.678593E-17
5.821036E+03	3.133456E-15	2.725773E-17
5.831020E+03	3.171818E-15	2.764475E-17
5.841005E+03	3.197436E-15	2.792179E-17
5.850989E+03	3.208942E-15	2.807623E-17
5.860974E+03	3.206786E-15	2.811133E-17
5.870959E+03	3.192699E-15	2.804158E-17
5.880943E+03	3.168937E-15	2.788625E-17
5.890928E+03	3.137830E-15	2.766538E-17
5.900913E+03	3.101562E-15	2.739791E-17
5.910897E+03	3.061694E-15	2.709738E-17
5.920882E+03	3.019357E-15	2.677366E-17
5.930866E+03	2.975316E-15	2.643341E-17
5.940851E+03	2.930112E-15	2.608135E-17
5.950836E+03	2.884507E-15	2.572423E-17
5.960820E+03	2.839073E-15	2.536714E-17
5.970805E+03	2.794438E-15	2.501571E-17
5.980790E+03	2.751077E-15	2.467426E-17
5.990774E+03	2.709511E-15	2.434750E-17
6.000759E+03	2.670080E-15	2.403862E-17
6.010743E+03	2.633139E-15	2.375090E-17
6.020728E+03	2.598873E-15	2.348617E-17
6.030713E+03	2.567480E-15	2.324634E-17
6.040697E+03	2.538739E-15	2.302957E-17
6.050682E+03	2.512419E-15	2.283388E-17
6.060667E+03	2.488191E-15	2.265641E-17
6.070651E+03	2.465645E-15	2.249353E-17
6.080636E+03	2.444378E-15	2.234165E-17
6.090620E+03	2.424069E-15	2.219788E-17
6.100605E+03	2.404376E-15	2.205916E-17
6.110590E+03	2.385007E-15	2.192281E-17
6.120574E+03	2.365783E-15	2.178723E-17
6.130559E+03	2.346526E-15	2.165076E-17
6.140544E+03	2.327221E-15	2.151328E-17
6.150528E+03	2.307968E-15	2.137571E-17
6.160513E+03	2.289035E-15	2.124054E-17
6.170497E+03	2.270710E-15	2.111046E-17
6.180482E+03	2.253368E-15	2.098901E-17
6.190467E+03	2.237319E-15	2.087913E-17
6.200451E+03	2.222694E-15	2.078210E-17
6.210436E+03	2.209341E-15	2.069660E-17
6.220421E+03	2.196978E-15	2.062004E-17
6.230405E+03	2.185115E-15	2.054786E-17
6.240390E+03	2.173112E-15	2.047408E-17
6.250374E+03	2.160525E-15	2.039448E-17
6.260359E+03	2.146984E-15	2.030554E-17
6.270344E+03	2.132047E-15	2.020303E-17
6.280328E+03	2.114908E-15	2.007922E-17
6.290313E+03	2.094957E-15	1.992818E-17
6.300298E+03	2.071583E-15	1.974393E-17
6.310282E+03	2.044208E-15	1.952077E-17
6.320267E+03	2.012423E-15	1.925455E-17
6.330251E+03	1.976338E-15	1.894609E-17
6.340236E+03	1.936716E-15	1.860248E-17
6.350221E+03	1.894742E-15	1.823489E-17
6.360205E+03	1.852342E-15	1.786179E-17
6.370190E+03	1.812274E-15	1.750977E-17
6.380175E+03	1.777721E-15	1.720977E-17
6.390159E+03	1.751748E-15	1.699182E-17
6.400144E+03	1.737201E-15	1.688407E-17
6.410128E+03	1.736126E-15	1.690709E-17
6.420113E+03	1.749014E-15	1.706645E-17
6.430098E+03	1.773960E-15	1.734434E-17
6.440082E+03	1.807179E-15	1.770437E-17
6.450067E+03	1.843224E-15	1.809358E-17
6.460052E+03	1.875099E-15	1.844330E-17
6.470036E+03	1.896447E-15	1.869065E-17
6.480021E+03	1.904143E-15	1.880414E-17
6.490005E+03	1.899602E-15	1.879697E-17
6.499990E+03	1.889575E-15	1.873534E-17
6.509975E+03	1.885821E-15	1.873574E-17
6.519959E+03	1.902447E-15	1.893899E-17
6.529944E+03	1.944534E-15	1.939697E-17
6.539929E+03	2.003928E-15	2.002974E-17
6.549913E+03	2.070951E-15	2.074141E-17
6.559898E+03	2.136966E-15	2.144577E-17
6.569882E+03	2.195229E-15	2.207494E-17
6.579867E+03	2.241836E-15	2.258914E-17
6.589852E+03	2.275188E-15	2.297149E-17
6.599836E+03	2.295530E-15	2.322366E-17
6.609821E+03	2.304745E-15	2.336396E-17
6.619805E+03	2.305335E-15	2.341711E-17
6.629790E+03	2.299681E-15	2.340681E-17
6.639775E+03	2.289547E-15	2.335066E-17
6.649759E+03	2.276101E-15	2.326033E-17
6.659744E+03	2.260015E-15	2.314247E-17
6.669729E+03	2.241755E-15	2.300172E-17
6.679713E+03	2.221523E-15	2.283998E-17
6.689698E+03	2.199527E-15	2.265929E-17
6.699682E+03	2.176166E-15	2.246365E-17
6.709667E+03	2.151841E-15	2.225713E-17
6.719652E+03	2.126957E-15	2.204383E-17
6.729636E+03	2.101854E-15	2.182728E-17
6.739621E+03	2.076819E-15	2.161042E-17
6.749606E+03	2.052038E-15	2.139519E-17
6.759590E+03	2.027560E-15	2.118214E-17
6.769575E+03	2.003380E-15	2.097120E-17
6.779559E+03	1.979278E-15	2.076009E-17
6.789544E+03	1.955038E-15	2.054655E-17
6.799529E+03	1.930340E-15	2.032718E-17
6.809513E+03	1.905082E-15	2.010089E-17
6.819498E+03	1.879201E-15	1.986696E-17
6.829483E+03	1.852938E-15	1.962792E-17
6.839467E+03	1.826664E-15	1.938767E-17
6.849452E+03	1.801035E-15	1.915317E-17
6.859436E+03	1.776741E-15	1.893183E-17
6.869421E+03	1.754487E-15	1.873124E-17
6.879406E+03	1.734740E-15	1.855655E-17
6.889390E+03	1.717911E-15	1.841230E-17
6.899375E+03	1.704176E-15	1.830055E-17
6.909360E+03	1.693706E-15	1.822334E-17
6.919344E+03	1.686461E-15	1.818045E-17
6.929329E+03	1.682326E-15	1.817083E-17
6.939313E+03	1.681071E-15	1.819218E-17
6.949298E+03	1.682245E-15	1.823979E-17
6.959283E+03	1.685378E-15	1.830871E-17
6.969267E+03	1.689794E-15	1.839169E-17
6.979252E+03	1.694696E-15	1.848012E-17
6.989237E+03	1.699407E-15	1.856664E-17
6.999221E+03	1.703153E-15	1.864276E-17
7.009206E+03	1.705369E-15	1.870221E-17
7.019190E+03	1.705727E-15	1.874130E-17
7.029175E+03	1.704096E-15	1.875847E-17
7.039160E+03	1.700542E-15	1.875433E-17
7.049144E+03	1.695392E-15	1.873237E-17
7.059129E+03	1.689007E-15	1.869646E-17
7.069114E+03	1.681830E-15	1.865148E-17
7.079098E+03	1.674262E-15	1.860180E-17
7.089083E+03	1.666560E-15	1.855028E-17
7.099067E+03	1.658889E-15	1.849872E-17
7.109052E+03	1.651218E-15	1.844681E-17
7.119037E+03	1.643412E-15	1.839303E-17
7.129021E+03	1.635411E-15	1.833668E-17
7.139006E+03	1.627042E-15	1.827581E-17
7.148991E+03	1.618317E-15	1.821055E-17
7.158975E+03	1.609280E-15	1.814135E-17
7.168960E+03	1.600003E-15	1.806903E-17
7.178944E+03	1.590518E-15	1.799390E-17
7.188929E+03	1.580905E-15	1.791689E-17
7.198914E+03	1.571191E-15	1.783829E-17
7.208898E+03	1.561361E-15	1.775791E-17
7.218883E+03	1.551472E-15	1.767640E-17
7.228868E+03	1.541512E-15	1.759363E-17
7.238852E+03	1.531738E-15	1.751251E-17
7.248837E+03	1.522254E-15	1.743426E-17
7.258821E+03	1.513235E-15	1.736091E-17
7.268806E+03	1.504851E-15	1.729443E-17
7.278791E+03	1.497228E-15	1.723630E-17
7.288775E+03	1.490474E-15	1.718783E-17
7.298760E+03	1.484607E-15	1.714928E-17
7.308745E+03	1.479590E-15	1.712026E-17
7.318729E+03	1.475424E-15	1.710083E-17
7.328714E+03	1.471951E-15	1.708921E-17
7.338698E+03	1.469013E-15	1.708360E-17
7.348683E+03	1.466431E-15	1.708196E-17
7.358668E+03	1.464035E-15	1.708231E-17
7.368652E+03	1.461645E-15	1.708257E-17
7.378637E+03	1.459239E-15	1.708247E-17
7.388622E+03	1.456732E-15	1.708102E-17
7.398606E+03	1.454083E-15	1.707772E-17
7.408591E+03	1.451368E-15	1.707347E-17
7.418575E+03	1.448522E-15	1.706750E-17
7.428560E+03	1.445436E-15	1.705850E-17
7.438545E+03	1.442000E-15	1.704517E-17
7.448529E+03	1.437887E-15	1.702362E-17
7.458514E+03	1.432639E-15	1.698838E-17
7.468499E+03	1.426012E-15	1.693647E-17
7.478483E+03	1.417590E-15	1.686289E-17
7.488468E+03	1.407260E-15	1.676618E-17
7.498452E+03	1.394927E-15	1.664510E-17
7.508437E+03	1.380836E-15	1.650248E-17
7.518422E+03	1.365145E-15	1.634010E-17
7.528406E+03	1.348338E-15	1.616369E-17
7.538391E+03	1.330941E-15	1.597950E-17
7.548376E+03	1.313584E-15	1.579507E-17
7.558360E+03	1.296984E-15	1.561906E-17
7.568345E+03	1.282017E-15	1.546205E-17
7.578329E+03	1.269442E-15	1.533332E-17
7.588314E+03	1.259832E-15	1.523993E-17
7.598299E+03	1.253545E-15	1.518637E-17
7.608283E+03	1.250624E-15	1.517334E-17
7.618268E+03	1.250898E-15	1.519896E-17
7.628252E+03	1.253966E-15	1.525850E-17
7.638237E+03	1.259284E-15	1.534549E-17
7.648222E+03	1.266143E-15	1.545140E-17
7.658206E+03	1.273884E-15	1.556824E-17
7.668191E+03	1.281761E-15	1.568695E-17
7.678176E+03	1.289214E-15	1.580065E-17
7.688160E+03	1.295702E-15	1.590269E-17
7.698145E+03	1.300785E-15	1.598759E-17
7.708129E+03	1.304357E-15	1.605400E-17
7.718114E+03	1.306416E-15	1.610179E-17
7.728099E+03	1.307054E-15	1.613204E-17
7.738083E+03	1.306625E-15	1.614902E-17
7.748068E+03	1.305381E-15	1.615583E-17
