#wls	flux	fluxerr
1.597540E+03	4.979741E-18	1.159669E-18
1.637478E+03	4.524687E-18	1.052245E-18
1.677417E+03	4.120272E-18	9.568330E-19
1.717355E+03	3.762152E-18	8.723851E-19
1.757294E+03	3.448613E-18	7.984675E-19
1.797232E+03	3.175807E-18	7.341527E-19
1.837171E+03	2.939965E-18	6.785348E-19
1.877109E+03	2.737535E-18	6.307609E-19
1.917048E+03	2.565345E-18	5.900691E-19
1.956986E+03	2.420193E-18	5.556933E-19
1.996925E+03	2.302562E-18	5.277155E-19
2.036863E+03	2.212969E-18	5.062232E-19
2.076802E+03	2.155475E-18	4.921096E-19
2.116740E+03	2.139269E-18	4.874271E-19
2.156679E+03	2.172013E-18	4.938608E-19
2.196617E+03	2.261244E-18	5.130495E-19
2.236556E+03	2.410921E-18	5.458022E-19
2.276494E+03	2.624282E-18	5.927526E-19
2.316433E+03	2.906483E-18	6.549536E-19
2.356371E+03	3.269287E-18	7.349267E-19
2.396310E+03	3.730526E-18	8.365207E-19
2.436248E+03	4.314931E-18	9.650784E-19
2.476187E+03	5.057491E-18	1.128162E-18
2.516125E+03	6.006615E-18	1.336222E-18
2.556064E+03	7.223821E-18	1.602477E-18
2.596002E+03	8.791817E-18	1.944653E-18
2.635941E+03	1.082165E-17	2.386475E-18
2.675879E+03	1.345031E-17	2.957035E-18
2.715818E+03	1.686510E-17	3.696008E-18
2.755756E+03	2.129310E-17	4.651158E-18
2.795695E+03	2.701646E-17	5.881470E-18
2.835633E+03	3.436983E-17	7.456344E-18
2.875572E+03	4.373940E-17	9.455123E-18
2.915510E+03	5.551617E-17	1.195674E-17
2.955449E+03	7.009709E-17	1.503989E-17
2.995387E+03	8.777528E-17	1.875940E-17
3.005372E+03	9.269814E-17	1.979180E-17
3.015356E+03	9.781916E-17	2.086424E-17
3.025341E+03	1.031555E-16	2.198024E-17
3.035326E+03	1.086871E-16	2.313535E-17
3.045310E+03	1.144303E-16	2.433290E-17
3.055295E+03	1.203425E-16	2.556366E-17
3.065279E+03	1.264826E-16	2.684005E-17
3.075264E+03	1.327747E-16	2.814573E-17
3.085249E+03	1.392554E-16	2.948837E-17
3.095233E+03	1.459153E-16	3.086583E-17
3.105218E+03	1.527164E-16	3.226988E-17
3.115203E+03	1.596428E-16	3.369709E-17
3.125187E+03	1.667070E-16	3.514997E-17
3.135172E+03	1.738940E-16	3.662522E-17
3.145156E+03	1.811871E-16	3.811922E-17
3.155141E+03	1.885356E-16	3.962119E-17
3.165126E+03	1.959174E-16	4.112645E-17
3.175110E+03	2.033800E-16	4.264488E-17
3.185095E+03	2.108337E-16	4.415760E-17
3.195080E+03	2.182917E-16	4.566736E-17
3.205064E+03	2.257328E-16	4.716969E-17
3.215049E+03	2.331359E-16	4.866016E-17
3.225033E+03	2.404797E-16	5.013431E-17
3.235018E+03	2.477435E-16	5.158786E-17
3.245003E+03	2.548648E-16	5.300783E-17
3.254987E+03	2.619080E-16	5.440767E-17
3.264972E+03	2.688137E-16	5.577506E-17
3.274957E+03	2.756094E-16	5.711580E-17
3.284941E+03	2.821906E-16	5.840829E-17
3.294926E+03	2.886339E-16	5.966851E-17
3.304910E+03	2.948818E-16	6.088467E-17
3.314895E+03	3.009240E-16	6.205474E-17
3.324880E+03	3.067999E-16	6.318696E-17
3.334864E+03	3.125043E-16	6.428039E-17
3.344849E+03	3.179850E-16	6.532440E-17
3.354834E+03	3.232389E-16	6.631851E-17
3.364818E+03	3.283150E-16	6.727289E-17
3.374803E+03	3.332153E-16	6.818806E-17
3.384787E+03	3.379431E-16	6.906486E-17
3.394772E+03	3.425036E-16	6.990441E-17
3.404757E+03	3.469029E-16	7.070810E-17
3.414741E+03	3.510980E-16	7.146728E-17
3.424726E+03	3.551989E-16	7.220446E-17
3.434711E+03	3.591646E-16	7.291134E-17
3.444695E+03	3.630057E-16	7.359020E-17
3.454680E+03	3.667841E-16	7.425363E-17
3.464664E+03	3.704607E-16	7.489376E-17
3.474649E+03	3.740469E-16	7.551299E-17
3.484634E+03	3.776063E-16	7.612414E-17
3.494618E+03	3.811504E-16	7.672957E-17
3.504603E+03	3.846912E-16	7.733170E-17
3.514588E+03	3.881899E-16	7.792266E-17
3.524572E+03	3.917086E-16	7.851499E-17
3.534557E+03	3.952583E-16	7.911080E-17
3.544541E+03	3.988993E-16	7.972214E-17
3.554526E+03	4.025421E-16	8.033100E-17
3.564511E+03	4.062961E-16	8.095917E-17
3.574495E+03	4.101203E-16	8.159840E-17
3.584480E+03	4.140238E-16	8.225039E-17
3.594465E+03	4.180642E-16	8.292648E-17
3.604449E+03	4.222490E-16	8.362802E-17
3.614434E+03	4.265373E-16	8.434674E-17
3.624418E+03	4.310336E-16	8.510317E-17
3.634403E+03	4.356485E-16	8.587946E-17
3.644388E+03	4.404383E-16	8.668656E-17
3.654372E+03	4.454105E-16	8.752578E-17
3.664357E+03	4.505740E-16	8.839861E-17
3.674342E+03	4.559849E-16	8.931588E-17
3.684326E+03	4.616055E-16	9.026991E-17
3.694311E+03	4.674938E-16	9.127184E-17
3.704295E+03	4.736141E-16	9.231439E-17
3.714280E+03	4.800269E-16	9.340907E-17
3.724265E+03	4.867463E-16	9.455833E-17
3.734249E+03	4.937413E-16	9.575580E-17
3.744234E+03	5.011231E-16	9.702270E-17
3.754219E+03	5.088636E-16	9.835316E-17
3.764203E+03	5.169832E-16	9.975076E-17
3.774188E+03	5.255036E-16	1.012192E-16
3.784172E+03	5.344939E-16	1.027714E-16
3.794157E+03	5.439312E-16	1.044024E-16
3.804142E+03	5.538856E-16	1.061251E-16
3.814126E+03	5.643805E-16	1.079434E-16
3.824111E+03	5.754388E-16	1.098611E-16
3.834095E+03	5.870818E-16	1.118815E-16
3.844080E+03	5.993752E-16	1.140166E-16
3.854065E+03	6.122422E-16	1.162510E-16
3.864049E+03	6.257883E-16	1.186040E-16
3.874034E+03	6.400214E-16	1.210763E-16
3.884019E+03	6.548973E-16	1.236588E-16
3.894003E+03	6.704592E-16	1.263589E-16
3.903988E+03	6.866970E-16	1.291737E-16
3.913972E+03	7.035937E-16	1.320995E-16
3.923957E+03	7.211249E-16	1.351306E-16
3.933942E+03	7.393072E-16	1.382695E-16
3.943926E+03	7.580540E-16	1.414993E-16
3.953911E+03	7.773692E-16	1.448198E-16
3.963896E+03	7.971543E-16	1.482120E-16
3.973880E+03	8.174532E-16	1.516836E-16
3.983865E+03	8.381113E-16	1.552051E-16
3.993849E+03	8.591207E-16	1.587746E-16
4.003834E+03	8.804760E-16	1.623905E-16
4.013819E+03	9.020758E-16	1.660338E-16
4.023803E+03	9.239250E-16	1.697048E-16
4.033788E+03	9.459371E-16	1.733874E-16
4.043773E+03	9.681377E-16	1.770859E-16
4.053757E+03	9.905164E-16	1.807981E-16
4.063742E+03	1.013079E-15	1.845246E-16
4.073726E+03	1.035848E-15	1.882695E-16
4.083711E+03	1.058919E-15	1.920494E-16
4.093696E+03	1.082255E-15	1.958571E-16
4.103680E+03	1.106091E-15	1.997351E-16
4.113665E+03	1.130382E-15	2.036738E-16
4.123650E+03	1.155402E-15	2.077225E-16
4.133634E+03	1.181190E-15	2.118867E-16
4.143619E+03	1.207950E-15	2.162022E-16
4.153603E+03	1.235846E-15	2.206967E-16
4.163588E+03	1.265100E-15	2.254083E-16
4.173573E+03	1.295776E-15	2.303468E-16
4.183557E+03	1.328146E-15	2.355582E-16
4.193542E+03	1.362313E-15	2.410585E-16
4.203527E+03	1.398468E-15	2.468794E-16
4.213511E+03	1.436678E-15	2.530296E-16
4.223496E+03	1.477081E-15	2.595307E-16
4.233480E+03	1.519674E-15	2.663794E-16
4.243465E+03	1.564569E-15	2.735920E-16
4.253450E+03	1.611608E-15	2.811381E-16
4.263434E+03	1.660737E-15	2.890053E-16
4.273419E+03	1.711780E-15	2.971600E-16
4.283404E+03	1.764487E-15	3.055562E-16
4.293388E+03	1.818535E-15	3.141357E-16
4.303373E+03	1.873581E-15	3.228374E-16
4.313357E+03	1.929045E-15	3.315601E-16
4.323342E+03	1.984512E-15	3.402318E-16
4.333327E+03	2.039414E-15	3.487550E-16
4.343311E+03	2.093104E-15	3.570197E-16
4.353296E+03	2.145058E-15	3.649384E-16
4.363281E+03	2.194681E-15	3.724118E-16
4.373265E+03	2.241583E-15	3.793769E-16
4.383250E+03	2.285453E-15	3.857846E-16
4.393234E+03	2.326229E-15	3.916282E-16
4.403219E+03	2.363935E-15	3.969158E-16
4.413204E+03	2.398836E-15	4.016956E-16
4.423188E+03	2.431398E-15	4.060491E-16
4.433173E+03	2.462140E-15	4.100656E-16
4.443158E+03	2.491722E-15	4.138574E-16
4.453142E+03	2.520802E-15	4.175347E-16
4.463127E+03	2.550059E-15	4.212103E-16
4.473111E+03	2.580236E-15	4.250061E-16
4.483096E+03	2.611997E-15	4.290299E-16
4.493081E+03	2.646023E-15	4.333906E-16
4.503065E+03	2.682996E-15	4.381968E-16
4.513050E+03	2.723312E-15	4.435082E-16
4.523035E+03	2.767621E-15	4.494259E-16
4.533019E+03	2.816213E-15	4.559906E-16
4.543004E+03	2.869398E-15	4.632465E-16
4.552988E+03	2.927393E-15	4.712216E-16
4.562973E+03	2.990206E-15	4.799100E-16
4.572958E+03	3.057752E-15	4.892911E-16
4.582942E+03	3.129902E-15	4.993372E-16
4.592927E+03	3.206268E-15	5.099797E-16
4.602912E+03	3.286540E-15	5.211625E-16
4.612896E+03	3.370266E-15	5.328085E-16
4.622881E+03	3.456862E-15	5.448201E-16
4.632865E+03	3.545737E-15	5.570999E-16
4.642850E+03	3.636189E-15	5.695340E-16
4.652835E+03	3.727536E-15	5.820132E-16
4.662819E+03	3.819070E-15	5.944257E-16
4.672804E+03	3.909906E-15	6.066332E-16
4.682789E+03	3.999463E-15	6.185464E-16
4.692773E+03	4.086891E-15	6.300360E-16
4.702758E+03	4.171625E-15	6.410177E-16
4.712742E+03	4.252974E-15	6.513892E-16
4.722727E+03	4.330432E-15	6.610781E-16
4.732712E+03	4.403445E-15	6.700057E-16
4.742696E+03	4.471590E-15	6.781140E-16
4.752681E+03	4.534514E-15	6.853567E-16
4.762665E+03	4.591923E-15	6.916972E-16
4.772650E+03	4.643580E-15	6.971080E-16
4.782635E+03	4.689166E-15	7.015501E-16
4.792619E+03	4.728576E-15	7.050169E-16
4.802604E+03	4.761600E-15	7.074866E-16
4.812589E+03	4.788100E-15	7.089484E-16
4.822573E+03	4.807875E-15	7.093828E-16
4.832558E+03	4.820723E-15	7.087703E-16
4.842542E+03	4.826547E-15	7.071077E-16
4.852527E+03	4.825244E-15	7.043908E-16
4.862512E+03	4.816760E-15	7.006231E-16
4.872496E+03	4.801046E-15	6.958087E-16
4.882481E+03	4.778068E-15	6.899545E-16
4.892466E+03	4.747716E-15	6.830563E-16
4.902450E+03	4.710192E-15	6.751550E-16
4.912435E+03	4.665497E-15	6.662623E-16
4.922419E+03	4.613817E-15	6.564164E-16
4.932404E+03	4.555523E-15	6.456814E-16
4.942389E+03	4.490884E-15	6.341064E-16
4.952373E+03	4.420463E-15	6.217810E-16
4.962358E+03	4.344815E-15	6.087927E-16
4.972343E+03	4.264580E-15	5.952399E-16
4.982327E+03	4.180469E-15	5.812292E-16
4.992312E+03	4.093333E-15	5.668852E-16
5.002296E+03	4.003886E-15	5.523118E-16
5.012281E+03	3.913067E-15	5.376423E-16
5.022266E+03	3.821686E-15	5.229901E-16
5.032250E+03	3.730502E-15	5.084603E-16
5.042235E+03	3.640398E-15	4.941727E-16
5.052220E+03	3.552096E-15	4.802237E-16
5.062204E+03	3.466272E-15	4.667016E-16
5.072189E+03	3.383581E-15	4.536905E-16
5.082173E+03	3.304650E-15	4.412694E-16
5.092158E+03	3.229966E-15	4.294972E-16
5.102143E+03	3.159958E-15	4.184239E-16
5.112127E+03	3.095078E-15	4.081016E-16
5.122112E+03	3.035587E-15	3.985564E-16
5.132097E+03	2.981805E-15	3.898212E-16
5.142081E+03	2.933867E-15	3.819041E-16
5.152066E+03	2.891945E-15	3.748181E-16
5.162050E+03	2.856124E-15	3.685642E-16
5.172035E+03	2.826449E-15	3.631378E-16
5.182020E+03	2.802889E-15	3.585250E-16
5.192004E+03	2.785469E-15	3.547185E-16
5.201989E+03	2.774099E-15	3.516969E-16
5.211974E+03	2.768693E-15	3.494389E-16
5.221958E+03	2.769150E-15	3.479221E-16
5.231943E+03	2.775382E-15	3.471254E-16
5.241927E+03	2.787210E-15	3.470169E-16
5.251912E+03	2.804563E-15	3.475782E-16
5.261897E+03	2.827308E-15	3.487839E-16
5.271881E+03	2.855287E-15	3.506051E-16
5.281866E+03	2.888369E-15	3.530171E-16
5.291851E+03	2.926452E-15	3.559990E-16
5.301835E+03	2.969379E-15	3.595233E-16
5.311820E+03	3.017023E-15	3.635664E-16
5.321804E+03	3.069286E-15	3.681088E-16
5.331789E+03	3.126010E-15	3.731238E-16
5.341774E+03	3.187094E-15	3.785919E-16
5.351758E+03	3.252340E-15	3.844826E-16
5.361743E+03	3.321668E-15	3.907795E-16
5.371728E+03	3.394896E-15	3.974546E-16
5.381712E+03	3.471864E-15	4.044828E-16
5.391697E+03	3.552363E-15	4.118339E-16
5.401681E+03	3.636243E-15	4.194847E-16
5.411666E+03	3.723264E-15	4.274025E-16
5.421651E+03	3.813207E-15	4.355572E-16
5.431635E+03	3.905829E-15	4.439168E-16
5.441620E+03	4.000863E-15	4.524470E-16
5.451605E+03	4.097968E-15	4.611057E-16
5.461589E+03	4.196799E-15	4.698516E-16
5.471574E+03	4.296920E-15	4.786339E-16
5.481558E+03	4.397842E-15	4.873966E-16
5.491543E+03	4.499114E-15	4.960896E-16
5.501528E+03	4.600069E-15	5.046399E-16
5.511512E+03	4.700187E-15	5.129919E-16
5.521497E+03	4.798842E-15	5.210801E-16
5.531482E+03	4.895411E-15	5.288405E-16
5.541466E+03	4.989311E-15	5.362148E-16
5.551451E+03	5.080021E-15	5.431528E-16
5.561435E+03	5.167114E-15	5.496154E-16
5.571420E+03	5.250222E-15	5.555703E-16
5.581405E+03	5.329254E-15	5.610152E-16
5.591389E+03	5.403977E-15	5.659330E-16
5.601374E+03	5.474477E-15	5.703403E-16
5.611359E+03	5.540887E-15	5.742581E-16
5.621343E+03	5.603360E-15	5.777094E-16
5.631328E+03	5.662097E-15	5.807219E-16
5.641312E+03	5.717447E-15	5.833375E-16
5.651297E+03	5.769668E-15	5.855885E-16
5.661282E+03	5.819031E-15	5.875078E-16
5.671266E+03	5.865878E-15	5.891346E-16
5.681251E+03	5.910457E-15	5.904984E-16
5.691235E+03	5.953277E-15	5.916536E-16
5.701220E+03	5.994597E-15	5.926294E-16
5.711205E+03	6.034958E-15	5.934817E-16
5.721189E+03	6.074769E-15	5.942526E-16
5.731174E+03	6.114657E-15	5.950044E-16
5.741159E+03	6.155037E-15	5.957780E-16
5.751143E+03	6.196555E-15	5.966352E-16
5.761128E+03	6.239704E-15	5.976222E-16
5.771112E+03	6.284901E-15	5.987769E-16
5.781097E+03	6.332386E-15	6.001197E-16
5.791082E+03	6.382473E-15	6.016775E-16
5.801066E+03	6.434920E-15	6.034247E-16
5.811051E+03	6.489605E-15	6.053470E-16
5.821036E+03	6.545854E-15	6.073796E-16
5.831020E+03	6.602900E-15	6.094504E-16
5.841005E+03	6.659659E-15	6.114597E-16
5.850989E+03	6.714812E-15	6.132886E-16
5.860974E+03	6.766859E-15	6.148041E-16
5.870959E+03	6.814242E-15	6.158710E-16
5.880943E+03	6.855251E-15	6.163433E-16
5.890928E+03	6.888304E-15	6.160895E-16
5.900913E+03	6.912048E-15	6.150016E-16
5.910897E+03	6.925334E-15	6.129917E-16
5.920882E+03	6.927293E-15	6.099987E-16
5.930866E+03	6.917578E-15	6.060084E-16
5.940851E+03	6.896198E-15	6.010382E-16
5.950836E+03	6.863581E-15	5.951414E-16
5.960820E+03	6.820461E-15	5.883968E-16
5.970805E+03	6.768067E-15	5.809239E-16
5.980790E+03	6.707730E-15	5.728490E-16
5.990774E+03	6.640812E-15	5.642978E-16
6.000759E+03	6.569021E-15	5.554232E-16
6.010743E+03	6.493750E-15	5.463486E-16
6.020728E+03	6.416487E-15	5.372025E-16
6.030713E+03	6.338578E-15	5.280994E-16
6.040697E+03	6.261095E-15	5.191288E-16
6.050682E+03	6.185086E-15	5.103760E-16
6.060667E+03	6.111186E-15	5.018915E-16
6.070651E+03	6.040106E-15	4.937303E-16
6.080636E+03	5.972161E-15	4.859148E-16
6.090620E+03	5.907548E-15	4.784570E-16
6.100605E+03	5.846420E-15	4.713653E-16
6.110590E+03	5.788743E-15	4.646331E-16
6.120574E+03	5.734284E-15	4.582378E-16
6.130559E+03	5.682828E-15	4.521588E-16
6.140544E+03	5.634152E-15	4.463754E-16
6.150528E+03	5.587952E-15	4.408607E-16
6.160513E+03	5.543867E-15	4.355839E-16
6.170497E+03	5.501590E-15	4.305190E-16
6.180482E+03	5.460884E-15	4.256458E-16
6.190467E+03	5.421494E-15	4.209433E-16
6.200451E+03	5.383247E-15	4.163967E-16
6.210436E+03	5.345912E-15	4.119877E-16
6.220421E+03	5.309434E-15	4.077111E-16
6.230405E+03	5.273697E-15	4.035575E-16
6.240390E+03	5.238614E-15	3.995197E-16
6.250374E+03	5.204216E-15	3.955996E-16
6.260359E+03	5.170516E-15	3.917979E-16
6.270344E+03	5.137463E-15	3.881101E-16
6.280328E+03	5.105221E-15	3.845482E-16
6.290313E+03	5.073855E-15	3.811166E-16
6.300298E+03	5.043517E-15	3.778261E-16
6.310282E+03	5.014452E-15	3.746944E-16
6.320267E+03	4.986911E-15	3.717395E-16
6.330251E+03	4.961199E-15	3.689834E-16
6.340236E+03	4.937669E-15	3.664512E-16
6.350221E+03	4.916764E-15	3.641748E-16
6.360205E+03	4.898909E-15	3.621848E-16
6.370190E+03	4.884590E-15	3.605157E-16
6.380175E+03	4.874237E-15	3.591983E-16
6.390159E+03	4.868245E-15	3.582607E-16
6.400144E+03	4.866990E-15	3.577296E-16
6.410128E+03	4.870753E-15	3.576240E-16
6.420113E+03	4.879651E-15	3.579503E-16
6.430098E+03	4.893652E-15	3.587039E-16
6.440082E+03	4.912642E-15	3.598747E-16
6.450067E+03	4.936138E-15	3.614256E-16
6.460052E+03	4.963688E-15	3.633227E-16
6.470036E+03	4.994461E-15	3.655038E-16
6.480021E+03	5.027426E-15	3.678929E-16
6.490005E+03	5.061488E-15	3.704092E-16
6.499990E+03	5.095219E-15	3.729474E-16
6.509975E+03	5.127212E-15	3.754040E-16
6.519959E+03	5.156069E-15	3.776754E-16
6.529944E+03	5.180459E-15	3.796630E-16
6.539929E+03	5.199287E-15	3.812850E-16
6.549913E+03	5.211592E-15	3.824687E-16
6.559898E+03	5.216700E-15	3.831622E-16
6.569882E+03	5.214024E-15	3.833194E-16
6.579867E+03	5.203193E-15	3.829099E-16
6.589852E+03	5.184113E-15	3.819230E-16
6.599836E+03	5.156978E-15	3.803690E-16
6.609821E+03	5.122149E-15	3.782706E-16
6.619805E+03	5.080091E-15	3.756578E-16
6.629790E+03	5.031611E-15	3.725860E-16
6.639775E+03	4.977610E-15	3.691178E-16
6.649759E+03	4.919091E-15	3.653239E-16
6.659744E+03	4.857069E-15	3.612761E-16
6.669729E+03	4.792680E-15	3.570555E-16
6.679713E+03	4.726985E-15	3.527386E-16
6.689698E+03	4.660935E-15	3.483937E-16
6.699682E+03	4.595496E-15	3.440914E-16
6.709667E+03	4.531425E-15	3.398868E-16
6.719652E+03	4.469408E-15	3.358303E-16
6.729636E+03	4.410053E-15	3.319669E-16
6.739621E+03	4.353743E-15	3.283249E-16
6.749606E+03	4.300831E-15	3.249311E-16
6.759590E+03	4.251414E-15	3.217928E-16
6.769575E+03	4.205679E-15	3.189245E-16
6.779559E+03	4.163530E-15	3.163192E-16
6.789544E+03	4.124991E-15	3.139794E-16
6.799529E+03	4.089841E-15	3.118886E-16
6.809513E+03	4.058005E-15	3.100418E-16
6.819498E+03	4.029200E-15	3.084176E-16
6.829483E+03	4.003229E-15	3.070016E-16
6.839467E+03	3.979985E-15	3.057859E-16
6.849452E+03	3.959193E-15	3.047497E-16
6.859436E+03	3.940691E-15	3.038809E-16
6.869421E+03	3.924340E-15	3.031691E-16
6.879406E+03	3.910070E-15	3.026090E-16
6.889390E+03	3.897746E-15	3.021903E-16
6.899375E+03	3.887296E-15	3.019077E-16
6.909360E+03	3.878664E-15	3.017571E-16
6.919344E+03	3.871805E-15	3.017349E-16
6.929329E+03	3.866674E-15	3.018379E-16
6.939313E+03	3.863182E-15	3.020592E-16
6.949298E+03	3.861324E-15	3.023986E-16
6.959283E+03	3.861042E-15	3.028514E-16
6.969267E+03	3.862177E-15	3.034054E-16
6.979252E+03	3.864745E-15	3.040617E-16
6.989237E+03	3.868669E-15	3.048141E-16
6.999221E+03	3.873778E-15	3.056494E-16
7.009206E+03	3.880050E-15	3.065655E-16
7.019190E+03	3.887428E-15	3.075578E-16
7.029175E+03	3.895872E-15	3.086230E-16
7.039160E+03	3.905364E-15	3.097595E-16
7.049144E+03	3.915858E-15	3.109635E-16
7.059129E+03	3.927423E-15	3.122402E-16
7.069114E+03	3.940043E-15	3.135882E-16
7.079098E+03	3.953811E-15	3.150146E-16
7.089083E+03	3.968718E-15	3.165185E-16
7.099067E+03	3.984801E-15	3.181027E-16
7.109052E+03	4.002077E-15	3.197682E-16
7.119037E+03	4.020544E-15	3.215147E-16
7.129021E+03	4.040170E-15	3.233392E-16
7.139006E+03	4.060894E-15	3.252367E-16
7.148991E+03	4.082616E-15	3.271988E-16
7.158975E+03	4.105153E-15	3.292104E-16
7.168960E+03	4.128433E-15	3.312654E-16
7.178944E+03	4.152147E-15	3.333386E-16
7.188929E+03	4.176054E-15	3.354099E-16
7.198914E+03	4.199931E-15	3.374612E-16
7.208898E+03	4.223481E-15	3.394679E-16
7.218883E+03	4.246384E-15	3.414040E-16
7.228868E+03	4.268198E-15	3.432332E-16
7.238852E+03	4.288742E-15	3.449406E-16
7.248837E+03	4.307565E-15	3.464893E-16
7.258821E+03	4.324328E-15	3.478517E-16
7.268806E+03	4.338764E-15	3.490059E-16
7.278791E+03	4.350519E-15	3.499233E-16
7.288775E+03	4.359385E-15	3.505868E-16
7.298760E+03	4.365140E-15	3.509786E-16
7.308745E+03	4.367562E-15	3.510808E-16
7.318729E+03	4.366601E-15	3.508895E-16
7.328714E+03	4.362162E-15	3.503975E-16
7.338698E+03	4.354336E-15	3.496122E-16
7.348683E+03	4.343219E-15	3.485421E-16
7.358668E+03	4.328972E-15	3.472005E-16
7.368652E+03	4.311802E-15	3.456047E-16
7.378637E+03	4.291946E-15	3.437746E-16
7.388622E+03	4.269661E-15	3.417313E-16
7.398606E+03	4.245201E-15	3.394961E-16
7.408591E+03	4.218809E-15	3.370892E-16
7.418575E+03	4.190702E-15	3.345290E-16
7.428560E+03	4.161128E-15	3.318360E-16
7.438545E+03	4.130191E-15	3.290193E-16
7.448529E+03	4.097971E-15	3.260864E-16
7.458514E+03	4.064702E-15	3.230566E-16
7.468499E+03	4.030439E-15	3.199354E-16
7.478483E+03	3.995356E-15	3.167374E-16
7.488468E+03	3.959474E-15	3.134652E-16
7.498452E+03	3.923054E-15	3.101403E-16
7.508437E+03	3.886216E-15	3.067732E-16
7.518422E+03	3.849170E-15	3.033811E-16
7.528406E+03	3.812203E-15	2.999874E-16
7.538391E+03	3.775520E-15	2.966090E-16
7.548376E+03	3.739400E-15	2.932682E-16
7.558360E+03	3.704188E-15	2.899925E-16
7.568345E+03	3.670069E-15	2.867969E-16
7.578329E+03	3.637436E-15	2.837119E-16
7.588314E+03	3.606503E-15	2.807542E-16
7.598299E+03	3.577509E-15	2.779425E-16
7.608283E+03	3.550659E-15	2.752921E-16
7.618268E+03	3.526158E-15	2.728186E-16
7.628252E+03	3.504014E-15	2.705221E-16
7.638237E+03	3.484378E-15	2.684134E-16
7.648222E+03	3.467199E-15	2.664878E-16
7.658206E+03	3.452418E-15	2.647401E-16
7.668191E+03	3.439979E-15	2.631652E-16
7.678176E+03	3.429628E-15	2.617428E-16
7.688160E+03	3.421271E-15	2.604652E-16
7.698145E+03	3.414688E-15	2.593148E-16
7.708129E+03	3.409530E-15	2.582647E-16
7.718114E+03	3.405688E-15	2.573060E-16
7.728099E+03	3.402741E-15	2.564070E-16
7.738083E+03	3.400571E-15	2.555583E-16
7.748068E+03	3.398815E-15	2.547329E-16
