#wls	flux	fluxerr
1.597540E+03	1.345196E-18	1.679821E-20
1.637478E+03	1.284884E-18	1.604505E-20
1.677417E+03	1.230080E-18	1.536069E-20
1.717355E+03	1.181924E-18	1.475933E-20
1.757294E+03	1.139685E-18	1.423187E-20
1.797232E+03	1.103459E-18	1.377950E-20
1.837171E+03	1.072650E-18	1.339477E-20
1.877109E+03	1.047503E-18	1.308074E-20
1.917048E+03	1.027131E-18	1.282635E-20
1.956986E+03	1.011922E-18	1.263642E-20
1.996925E+03	1.001675E-18	1.250846E-20
2.036863E+03	9.982469E-19	1.246565E-20
2.076802E+03	1.004338E-18	1.254171E-20
2.116740E+03	1.024330E-18	1.279137E-20
2.156679E+03	1.064175E-18	1.328893E-20
2.196617E+03	1.127230E-18	1.407633E-20
2.236556E+03	1.216069E-18	1.518572E-20
2.276494E+03	1.331577E-18	1.662813E-20
2.316433E+03	1.474657E-18	1.841484E-20
2.356371E+03	1.648258E-18	2.058269E-20
2.396310E+03	1.856979E-18	2.318911E-20
2.436248E+03	2.107420E-18	2.631650E-20
2.476187E+03	2.408205E-18	3.007256E-20
2.516125E+03	2.770614E-18	3.459816E-20
2.556064E+03	3.207305E-18	4.005135E-20
2.596002E+03	3.734609E-18	4.663608E-20
2.635941E+03	4.371250E-18	5.458617E-20
2.675879E+03	5.139939E-18	6.418520E-20
2.715818E+03	6.064965E-18	7.573650E-20
2.755756E+03	7.176740E-18	8.961983E-20
2.795695E+03	8.505469E-18	1.062124E-19
2.835633E+03	1.008407E-17	1.259253E-19
2.875572E+03	1.194968E-17	1.492222E-19
2.915510E+03	1.413591E-17	1.765228E-19
2.955449E+03	1.667286E-17	2.082030E-19
2.995387E+03	1.959007E-17	2.446318E-19
3.005372E+03	2.037979E-17	2.544934E-19
3.015356E+03	2.119274E-17	2.646451E-19
3.025341E+03	2.203520E-17	2.751654E-19
3.035326E+03	2.290130E-17	2.859808E-19
3.045310E+03	2.379084E-17	2.970890E-19
3.055295E+03	2.470813E-17	3.085437E-19
3.065279E+03	2.565314E-17	3.203446E-19
3.075264E+03	2.662209E-17	3.324444E-19
3.085249E+03	2.761832E-17	3.448848E-19
3.095233E+03	2.863769E-17	3.576143E-19
3.105218E+03	2.968366E-17	3.706758E-19
3.115203E+03	3.075589E-17	3.840653E-19
3.125187E+03	3.185400E-17	3.977781E-19
3.135172E+03	3.297313E-17	4.117533E-19
3.145156E+03	3.411696E-17	4.260368E-19
3.155141E+03	3.528491E-17	4.406216E-19
3.165126E+03	3.647157E-17	4.554401E-19
3.175110E+03	2.935412E-17	3.665607E-19
3.185095E+03	3.891189E-17	4.859137E-19
3.195080E+03	4.016403E-17	5.015499E-19
3.205064E+03	4.143113E-17	5.173728E-19
3.215049E+03	3.326976E-17	4.154574E-19
3.225033E+03	4.402726E-17	5.497921E-19
3.235018E+03	4.534903E-17	5.662977E-19
3.245003E+03	4.668705E-17	5.830063E-19
3.254987E+03	4.803441E-17	5.998314E-19
3.264972E+03	4.940173E-17	6.169059E-19
3.274957E+03	5.077604E-17	6.340677E-19
3.284941E+03	5.216841E-17	6.514550E-19
3.294926E+03	5.356535E-17	6.688993E-19
3.304910E+03	5.497836E-17	6.865443E-19
3.314895E+03	5.639348E-17	7.042157E-19
3.324880E+03	5.781597E-17	7.219791E-19
3.334864E+03	5.924469E-17	7.398203E-19
3.344849E+03	6.068547E-17	7.578121E-19
3.354834E+03	6.212344E-17	7.757687E-19
3.364818E+03	6.357145E-17	7.938508E-19
3.374803E+03	6.501422E-17	8.118675E-19
3.384787E+03	6.646507E-17	8.299850E-19
3.394772E+03	6.791576E-17	8.481006E-19
3.404757E+03	6.935769E-17	8.661067E-19
3.414741E+03	7.081246E-17	8.842732E-19
3.424726E+03	7.225633E-17	9.023035E-19
3.434711E+03	7.369594E-17	9.202807E-19
3.444695E+03	7.513806E-17	9.382893E-19
3.454680E+03	7.657404E-17	9.562211E-19
3.464664E+03	6.061370E-17	7.569158E-19
3.474649E+03	7.942356E-17	9.918045E-19
3.484634E+03	8.084336E-17	1.009534E-18
3.494618E+03	6.389020E-17	7.978312E-19
3.504603E+03	8.365226E-17	1.044611E-18
3.514588E+03	8.504779E-17	1.062037E-18
3.524572E+03	8.643060E-17	1.079305E-18
3.534557E+03	8.779980E-17	1.096403E-18
3.544541E+03	8.916287E-17	1.113424E-18
3.554526E+03	9.051894E-17	1.130359E-18
3.564511E+03	9.184995E-17	1.146979E-18
3.574495E+03	9.318072E-17	1.163598E-18
3.584480E+03	9.448427E-17	1.179876E-18
3.594465E+03	9.578566E-17	1.196127E-18
3.604449E+03	9.705762E-17	1.212010E-18
3.614434E+03	9.832543E-17	1.227842E-18
3.624418E+03	9.957021E-17	1.243386E-18
3.634403E+03	1.007909E-16	1.258630E-18
3.644388E+03	1.019950E-16	1.273666E-18
3.654372E+03	1.031813E-16	1.288481E-18
3.664357E+03	1.043485E-16	1.303055E-18
3.674342E+03	1.054862E-16	1.317263E-18
3.684326E+03	1.066020E-16	1.331196E-18
3.694311E+03	1.076854E-16	1.344725E-18
3.704295E+03	1.087437E-16	1.357941E-18
3.714280E+03	1.097844E-16	1.370937E-18
3.724265E+03	1.107788E-16	1.383355E-18
3.734249E+03	1.117522E-16	1.395510E-18
3.744234E+03	1.126849E-16	1.407157E-18
3.754219E+03	1.135928E-16	1.418495E-18
3.764203E+03	1.144566E-16	1.429280E-18
3.774188E+03	8.906191E-17	1.112164E-18
3.784172E+03	1.160705E-16	1.449434E-18
3.794157E+03	9.019618E-17	1.126328E-18
3.804142E+03	9.071895E-17	1.132856E-18
3.814126E+03	1.181737E-16	1.475698E-18
3.824111E+03	1.187898E-16	1.483391E-18
3.834095E+03	1.193603E-16	1.490515E-18
3.844080E+03	1.198763E-16	1.496960E-18
3.854065E+03	1.203552E-16	1.502940E-18
3.864049E+03	1.207889E-16	1.508355E-18
3.874034E+03	1.211698E-16	1.513112E-18
3.884019E+03	1.215164E-16	1.517440E-18
3.894003E+03	1.218219E-16	1.521255E-18
3.903988E+03	1.220883E-16	1.524581E-18
3.913972E+03	1.223177E-16	1.527447E-18
3.923957E+03	1.225125E-16	1.529878E-18
3.933942E+03	1.226751E-16	1.531909E-18
3.943926E+03	1.228161E-16	1.533670E-18
3.953911E+03	1.229227E-16	1.535001E-18
3.963896E+03	1.230140E-16	1.536141E-18
3.973880E+03	1.230864E-16	1.537045E-18
3.983865E+03	1.231451E-16	1.537779E-18
3.991242E+03	9.115280E-17	1.138274E-18
3.995476E+03	8.853302E-17	1.105559E-18
3.999710E+03	9.147009E-17	1.142236E-18
4.003945E+03	9.393478E-17	1.173014E-18
4.008178E+03	9.816116E-17	1.225791E-18
4.012413E+03	1.025354E-16	1.280414E-18
4.016647E+03	1.055009E-16	1.317446E-18
4.020882E+03	1.055513E-16	1.318075E-18
4.025115E+03	1.033101E-16	1.290088E-18
4.029350E+03	1.010218E-16	1.261512E-18
4.033584E+03	9.979903E-17	1.246244E-18
4.037819E+03	9.664389E-17	1.206844E-18
4.042052E+03	9.454694E-17	1.180658E-18
4.046287E+03	9.473817E-17	1.183046E-18
4.050521E+03	9.228982E-17	1.152472E-18
4.054755E+03	9.154720E-17	1.143199E-18
4.058989E+03	9.349244E-17	1.167490E-18
4.063224E+03	9.398114E-17	1.173593E-18
4.067458E+03	9.449348E-17	1.179990E-18
4.071693E+03	9.299870E-17	1.161324E-18
4.075926E+03	8.779656E-17	1.096362E-18
4.080161E+03	8.210961E-17	1.025346E-18
4.084395E+03	7.825287E-17	9.771852E-19
4.088629E+03	7.641209E-17	9.541985E-19
4.092863E+03	7.442010E-17	9.293235E-19
4.097097E+03	7.493972E-17	9.358122E-19
4.101332E+03	7.803300E-17	9.744396E-19
4.105565E+03	7.780092E-17	9.715415E-19
4.109800E+03	7.923500E-17	9.894496E-19
4.114034E+03	8.189454E-17	1.022661E-18
4.118269E+03	8.487106E-17	1.059830E-18
4.122502E+03	9.024746E-17	1.126968E-18
4.126737E+03	8.871308E-17	1.107808E-18
4.130971E+03	8.151314E-17	1.017898E-18
4.135206E+03	8.107687E-17	1.012450E-18
4.139439E+03	8.700170E-17	1.086437E-18
4.143674E+03	8.839603E-17	1.103848E-18
4.147908E+03	8.907015E-17	1.112266E-18
4.152143E+03	9.313531E-17	1.163030E-18
4.156376E+03	9.567493E-17	1.194744E-18
4.160611E+03	9.795618E-17	1.223231E-18
4.164845E+03	9.733734E-17	1.215503E-18
4.169079E+03	9.654082E-17	1.205557E-18
4.173313E+03	1.013797E-16	1.265983E-18
4.177548E+03	1.071197E-16	1.337660E-18
4.181782E+03	1.095708E-16	1.368269E-18
4.186016E+03	1.105036E-16	1.379917E-18
4.190250E+03	1.107886E-16	1.383477E-18
4.194484E+03	1.071842E-16	1.338466E-18
4.198719E+03	1.051233E-16	1.312731E-18
4.202952E+03	1.053832E-16	1.315976E-18
4.207187E+03	1.053880E-16	1.316036E-18
4.211421E+03	1.035866E-16	1.293541E-18
4.215656E+03	1.032185E-16	1.288944E-18
4.219889E+03	1.063126E-16	1.327582E-18
4.224124E+03	1.084090E-16	1.353760E-18
4.228358E+03	1.099486E-16	1.372987E-18
4.232592E+03	1.087447E-16	1.357953E-18
4.236826E+03	1.078508E-16	1.346790E-18
4.241061E+03	1.137478E-16	1.420430E-18
4.245295E+03	1.182657E-16	1.476847E-18
4.249529E+03	1.210896E-16	1.512110E-18
4.253763E+03	1.305511E-16	1.630261E-18
4.257998E+03	1.359413E-16	1.697571E-18
4.262232E+03	1.361734E-16	1.700469E-18
4.266466E+03	1.361637E-16	1.700348E-18
4.270700E+03	1.330005E-16	1.660848E-18
4.274935E+03	1.338662E-16	1.671658E-18
4.279169E+03	1.410570E-16	1.761454E-18
4.283403E+03	1.412007E-16	1.763248E-18
4.287637E+03	1.378607E-16	1.721540E-18
4.291872E+03	1.411045E-16	1.762047E-18
4.296105E+03	1.495625E-16	1.867667E-18
4.300339E+03	1.554770E-16	1.941524E-18
4.304574E+03	1.535944E-16	1.918015E-18
4.308808E+03	1.491029E-16	1.861927E-18
4.313043E+03	1.488131E-16	1.858308E-18
4.317276E+03	1.533487E-16	1.914947E-18
4.321511E+03	1.598161E-16	1.995709E-18
4.325745E+03	1.681958E-16	2.100351E-18
4.329979E+03	1.693494E-16	2.114756E-18
4.334213E+03	1.634040E-16	2.040513E-18
4.338448E+03	1.642633E-16	2.051244E-18
4.342682E+03	1.685843E-16	2.105202E-18
4.346916E+03	1.668416E-16	2.083439E-18
4.351150E+03	1.654374E-16	2.065904E-18
4.355385E+03	1.676974E-16	2.094126E-18
4.359619E+03	1.716043E-16	2.142914E-18
4.363853E+03	1.752149E-16	2.188001E-18
4.368087E+03	1.786237E-16	2.230568E-18
4.372322E+03	1.808595E-16	2.258488E-18
4.376556E+03	1.762099E-16	2.200426E-18
4.380790E+03	1.688678E-16	2.108742E-18
4.385024E+03	1.664198E-16	2.078172E-18
4.389259E+03	1.701849E-16	2.125189E-18
4.393492E+03	1.753847E-16	2.190121E-18
4.397727E+03	1.790970E-16	2.236480E-18
4.401961E+03	1.791035E-16	2.236561E-18
4.406195E+03	1.748441E-16	2.183371E-18
4.410429E+03	1.659651E-16	2.072495E-18
4.414663E+03	1.593816E-16	1.990283E-18
4.418898E+03	1.561166E-16	1.949511E-18
4.423132E+03	1.469078E-16	1.834516E-18
4.427366E+03	1.330356E-16	1.661286E-18
4.431600E+03	1.251392E-16	1.562680E-18
4.435835E+03	1.226681E-16	1.531821E-18
4.440069E+03	1.216818E-16	1.519506E-18
4.444303E+03	1.173919E-16	1.465935E-18
4.448537E+03	1.128862E-16	1.409670E-18
4.452772E+03	1.111076E-16	1.387460E-18
4.457005E+03	1.153218E-16	1.440084E-18
4.461240E+03	1.272283E-16	1.588767E-18
4.465474E+03	1.409357E-16	1.759939E-18
4.469709E+03	1.521701E-16	1.900228E-18
4.473943E+03	1.549794E-16	1.935311E-18
4.478177E+03	1.606656E-16	2.006317E-18
4.482411E+03	1.774243E-16	2.215591E-18
4.486646E+03	1.904174E-16	2.377843E-18
4.490879E+03	1.961090E-16	2.448917E-18
4.495114E+03	2.015708E-16	2.517121E-18
4.499348E+03	2.053404E-16	2.564194E-18
4.503582E+03	2.082596E-16	2.600648E-18
4.507816E+03	2.108389E-16	2.632857E-18
4.512050E+03	2.142249E-16	2.675139E-18
4.516285E+03	2.165952E-16	2.704739E-18
4.520519E+03	2.153985E-16	2.689795E-18
4.524753E+03	2.150132E-16	2.684984E-18
4.528987E+03	2.207326E-16	2.756405E-18
4.533222E+03	2.300537E-16	2.872802E-18
4.537456E+03	2.367045E-16	2.955855E-18
4.541690E+03	2.425671E-16	3.029064E-18
4.545924E+03	2.475911E-16	3.091801E-18
4.550159E+03	2.495101E-16	3.115765E-18
4.554392E+03	2.482460E-16	3.099980E-18
4.558627E+03	2.487529E-16	3.106310E-18
4.562861E+03	2.535953E-16	3.166779E-18
4.567096E+03	2.627050E-16	3.280537E-18
4.571329E+03	2.712283E-16	3.386972E-18
4.575564E+03	2.772462E-16	3.462121E-18
4.579798E+03	2.853720E-16	3.563592E-18
4.584033E+03	2.921381E-16	3.648084E-18
4.588266E+03	2.951717E-16	3.685965E-18
4.592501E+03	2.994265E-16	3.739097E-18
4.596735E+03	3.021120E-16	3.772633E-18
4.600970E+03	3.068410E-16	3.831686E-18
4.605203E+03	3.117583E-16	3.893091E-18
4.609437E+03	3.122126E-16	3.898764E-18
4.613672E+03	3.116691E-16	3.891977E-18
4.617905E+03	3.092721E-16	3.862044E-18
4.622140E+03	3.111646E-16	3.885677E-18
4.626374E+03	3.143554E-16	3.925522E-18
4.630609E+03	3.150928E-16	3.934730E-18
4.634842E+03	3.159762E-16	3.945763E-18
4.639077E+03	3.183069E-16	3.974867E-18
4.643311E+03	3.234449E-16	4.039028E-18
4.647546E+03	3.298353E-16	4.118828E-18
4.651779E+03	3.307721E-16	4.130526E-18
4.656014E+03	3.292846E-16	4.111952E-18
4.660248E+03	3.370597E-16	4.209043E-18
4.664483E+03	3.525283E-16	4.402208E-18
4.668716E+03	3.643981E-16	4.550432E-18
4.672951E+03	3.752072E-16	4.685411E-18
4.677185E+03	3.923628E-16	4.899642E-18
4.681419E+03	4.107529E-16	5.129289E-18
4.685653E+03	4.267391E-16	5.328917E-18
4.689888E+03	4.398496E-16	5.492635E-18
4.694122E+03	4.495049E-16	5.613206E-18
4.698357E+03	4.551007E-16	5.683083E-18
4.702590E+03	4.570971E-16	5.708014E-18
4.706824E+03	4.603492E-16	5.748625E-18
4.711059E+03	4.656839E-16	5.815242E-18
4.715292E+03	4.614605E-16	5.762502E-18
4.719527E+03	4.566487E-16	5.702415E-18
4.723761E+03	4.581088E-16	5.720647E-18
4.727996E+03	4.597017E-16	5.740539E-18
4.732229E+03	4.625853E-16	5.776548E-18
4.736464E+03	4.700518E-16	5.869786E-18
4.740698E+03	4.802758E-16	5.997458E-18
4.744933E+03	4.900325E-16	6.119296E-18
4.749166E+03	4.986103E-16	6.226411E-18
4.753401E+03	5.059923E-16	6.318593E-18
4.757635E+03	5.105802E-16	6.375886E-18
4.761870E+03	5.118017E-16	6.391139E-18
4.766103E+03	5.118159E-16	6.391317E-18
4.770338E+03	5.121547E-16	6.395546E-18
4.774572E+03	5.149056E-16	6.429899E-18
4.778807E+03	5.166981E-16	6.452283E-18
4.783040E+03	5.215925E-16	6.513402E-18
4.787275E+03	5.292343E-16	6.608829E-18
4.791509E+03	5.351154E-16	6.682269E-18
4.795743E+03	5.415816E-16	6.763016E-18
4.799977E+03	5.471074E-16	6.832019E-18
4.804212E+03	5.496930E-16	6.864307E-18
4.808446E+03	5.477518E-16	6.840067E-18
4.812679E+03	5.358695E-16	6.691686E-18
4.816914E+03	5.217759E-16	6.515692E-18
4.821148E+03	5.098871E-16	6.367230E-18
4.825383E+03	4.926961E-16	6.152557E-18
4.829616E+03	4.773269E-16	5.960633E-18
4.833851E+03	4.677278E-16	5.840765E-18
4.838085E+03	4.568879E-16	5.705401E-18
4.842319E+03	4.481235E-16	5.595955E-18
4.846553E+03	4.430744E-16	5.532904E-18
4.850788E+03	4.446388E-16	5.552440E-18
4.855022E+03	4.469559E-16	5.581375E-18
4.859256E+03	4.413861E-16	5.511822E-18
4.863490E+03	4.325771E-16	5.401820E-18
4.867725E+03	4.222997E-16	5.273480E-18
4.871959E+03	4.126270E-16	5.152692E-18
4.876193E+03	4.027926E-16	5.029884E-18
4.880427E+03	3.944718E-16	4.925979E-18
4.884662E+03	3.900098E-16	4.870259E-18
4.888896E+03	3.848218E-16	4.805473E-18
4.893130E+03	3.770041E-16	4.707849E-18
4.897364E+03	3.745852E-16	4.677643E-18
4.901599E+03	3.806611E-16	4.753517E-18
4.905833E+03	3.892008E-16	4.860156E-18
4.910066E+03	3.966802E-16	4.953555E-18
4.914301E+03	4.062171E-16	5.072647E-18
4.918535E+03	4.197966E-16	5.242222E-18
4.922769E+03	4.315662E-16	5.389195E-18
4.927003E+03	4.427464E-16	5.528809E-18
4.931238E+03	4.503636E-16	5.623928E-18
4.935472E+03	4.594825E-16	5.737801E-18
4.939707E+03	4.770210E-16	5.956813E-18
4.943940E+03	4.885075E-16	6.100252E-18
4.948175E+03	4.881956E-16	6.096356E-18
4.952409E+03	4.892978E-16	6.110121E-18
4.956643E+03	4.897420E-16	6.115667E-18
4.960877E+03	4.870990E-16	6.082663E-18
4.965112E+03	4.780017E-16	5.969060E-18
4.969346E+03	4.601779E-16	5.746484E-18
4.973580E+03	4.418687E-16	5.517848E-18
4.977814E+03	4.247906E-16	5.304585E-18
4.982049E+03	4.031412E-16	5.034237E-18
4.986283E+03	3.832757E-16	4.786167E-18
4.990517E+03	3.764381E-16	4.700782E-18
4.994751E+03	3.785490E-16	4.727142E-18
4.998986E+03	3.796359E-16	4.740714E-18
5.003220E+03	3.836676E-16	4.791060E-18
5.007454E+03	3.909027E-16	4.881408E-18
5.011688E+03	3.991991E-16	4.985011E-18
5.015922E+03	4.066040E-16	5.077479E-18
5.020156E+03	4.117187E-16	5.141349E-18
5.024390E+03	4.164033E-16	5.199848E-18
5.028625E+03	4.199618E-16	5.244285E-18
5.032859E+03	4.198044E-16	5.242319E-18
5.037093E+03	4.147520E-16	5.179227E-18
5.041327E+03	4.131294E-16	5.158965E-18
5.045562E+03	4.116619E-16	5.140639E-18
5.049796E+03	4.027435E-16	5.029271E-18
5.054030E+03	3.904878E-16	4.876228E-18
5.058264E+03	3.802719E-16	4.748657E-18
5.062499E+03	3.764654E-16	4.701122E-18
5.066733E+03	3.772391E-16	4.710784E-18
5.070967E+03	3.747387E-16	4.679561E-18
5.075201E+03	3.705465E-16	4.627210E-18
5.079436E+03	3.726290E-16	4.653215E-18
5.083669E+03	3.820104E-16	4.770366E-18
5.087904E+03	3.864256E-16	4.825501E-18
5.092138E+03	3.857770E-16	4.817401E-18
5.096373E+03	3.855174E-16	4.814159E-18
5.100607E+03	3.849866E-16	4.807531E-18
5.104841E+03	3.850691E-16	4.808561E-18
5.109075E+03	3.807606E-16	4.754759E-18
5.113310E+03	3.739178E-16	4.669309E-18
5.117543E+03	3.687730E-16	4.605063E-18
5.121777E+03	3.602770E-16	4.498969E-18
5.126012E+03	3.450286E-16	4.308555E-18
5.130246E+03	3.265081E-16	4.077279E-18
5.134480E+03	3.117184E-16	3.892593E-18
5.138714E+03	2.978223E-16	3.719064E-18
5.142949E+03	2.810011E-16	3.509010E-18
5.147183E+03	2.676889E-16	3.342772E-18
5.151417E+03	2.608204E-16	3.257002E-18
5.155651E+03	2.539327E-16	3.170992E-18
5.159886E+03	2.464166E-16	3.077134E-18
5.164120E+03	2.455044E-16	3.065743E-18
5.168354E+03	2.527667E-16	3.156432E-18
5.172588E+03	2.662051E-16	3.324243E-18
5.176823E+03	2.869824E-16	3.583700E-18
5.181056E+03	3.144490E-16	3.926691E-18
5.185291E+03	3.452491E-16	4.311308E-18
5.189525E+03	3.710022E-16	4.632900E-18
5.193760E+03	3.873521E-16	4.837070E-18
5.197993E+03	3.951380E-16	4.934297E-18
5.202228E+03	3.942006E-16	4.922591E-18
5.206462E+03	3.881445E-16	4.846965E-18
5.210697E+03	3.777363E-16	4.716993E-18
5.214930E+03	3.603598E-16	4.500003E-18
5.219164E+03	3.471495E-16	4.335039E-18
5.223399E+03	3.422907E-16	4.274365E-18
5.227633E+03	3.493338E-16	4.362316E-18
5.231867E+03	3.687544E-16	4.604831E-18
5.236101E+03	3.948144E-16	4.930255E-18
5.240336E+03	4.274221E-16	5.337445E-18
5.244569E+03	4.734655E-16	5.912414E-18
5.248804E+03	5.284371E-16	6.598874E-18
5.253038E+03	5.816762E-16	7.263697E-18
5.257273E+03	6.320978E-16	7.893339E-18
5.261506E+03	6.771911E-16	8.456443E-18
5.265741E+03	7.115254E-16	8.885193E-18
5.269975E+03	7.361623E-16	9.192847E-18
5.274210E+03	7.500611E-16	9.366409E-18
5.278443E+03	7.500197E-16	9.365891E-18
5.282678E+03	7.380705E-16	9.216676E-18
5.286912E+03	7.176329E-16	8.961460E-18
5.291147E+03	6.909268E-16	8.627967E-18
5.295380E+03	6.611672E-16	8.256343E-18
5.299615E+03	6.234063E-16	7.784803E-18
5.303849E+03	5.828425E-16	7.278262E-18
5.308083E+03	5.457080E-16	6.814544E-18
5.312317E+03	5.107547E-16	6.378063E-18
5.316552E+03	4.782359E-16	5.971984E-18
5.320786E+03	4.576437E-16	5.714839E-18
5.325020E+03	4.532373E-16	5.659813E-18
5.329254E+03	4.568336E-16	5.704723E-18
5.333488E+03	4.664560E-16	5.824883E-18
5.337723E+03	4.808851E-16	6.005066E-18
5.341956E+03	5.026247E-16	6.276540E-18
5.346191E+03	5.287327E-16	6.602565E-18
5.350425E+03	5.504144E-16	6.873315E-18
5.354660E+03	5.660860E-16	7.069015E-18
5.358893E+03	5.738782E-16	7.166320E-18
5.363128E+03	5.733235E-16	7.159393E-18
5.367362E+03	5.669364E-16	7.079634E-18
5.371597E+03	5.589959E-16	6.980476E-18
5.375830E+03	5.483358E-16	6.847358E-18
5.380065E+03	5.291510E-16	6.607788E-18
5.384299E+03	5.082559E-16	6.346860E-18
5.388534E+03	4.991913E-16	6.233666E-18
5.392767E+03	4.958357E-16	6.191762E-18
5.397002E+03	4.902388E-16	6.121871E-18
5.401236E+03	4.864122E-16	6.074086E-18
5.405470E+03	4.916416E-16	6.139388E-18
5.409704E+03	5.103112E-16	6.372525E-18
5.413939E+03	5.391641E-16	6.732827E-18
5.418173E+03	5.735038E-16	7.161645E-18
5.422406E+03	6.066638E-16	7.575731E-18
5.426641E+03	6.384971E-16	7.973250E-18
5.430875E+03	6.689974E-16	8.354123E-18
5.435110E+03	6.893361E-16	8.608103E-18
5.439343E+03	7.038179E-16	8.788945E-18
5.443578E+03	7.129388E-16	8.902843E-18
5.447812E+03	7.222649E-16	9.019302E-18
5.452047E+03	7.391473E-16	9.230122E-18
5.456280E+03	7.604818E-16	9.496537E-18
5.460515E+03	7.834705E-16	9.783610E-18
5.464749E+03	8.065417E-16	1.007171E-17
5.468983E+03	8.257382E-16	1.031143E-17
5.473217E+03	8.429135E-16	1.052590E-17
5.477452E+03	8.643496E-16	1.079359E-17
5.481686E+03	8.979919E-16	1.121370E-17
5.485920E+03	9.626695E-16	1.202136E-17
5.490154E+03	1.054300E-15	1.316560E-17
5.494389E+03	1.160744E-15	1.449482E-17
5.498623E+03	1.284799E-15	1.604396E-17
5.502857E+03	1.411127E-15	1.762149E-17
5.507091E+03	1.527508E-15	1.907480E-17
5.511326E+03	1.633214E-15	2.039480E-17
5.515560E+03	1.715932E-15	2.142774E-17
5.519794E+03	1.770497E-15	2.210913E-17
5.524028E+03	1.800887E-15	2.248862E-17
5.528262E+03	1.810910E-15	2.261378E-17
5.532497E+03	1.808600E-15	2.258495E-17
5.536730E+03	1.785680E-15	2.229872E-17
5.540965E+03	1.737361E-15	2.169534E-17
5.545199E+03	1.670224E-15	2.085696E-17
5.549434E+03	1.591772E-15	1.987729E-17
5.553667E+03	1.507872E-15	1.882960E-17
5.557902E+03	1.422452E-15	1.776291E-17
5.562136E+03	1.345773E-15	1.680538E-17
5.566371E+03	1.291010E-15	1.612152E-17
5.570604E+03	1.263186E-15	1.577407E-17
5.574839E+03	1.258136E-15	1.571101E-17
5.579073E+03	1.277123E-15	1.594811E-17
5.583307E+03	1.313177E-15	1.639833E-17
