#wls	flux	fluxerr
1.597540E+03	2.735073E-19	2.943499E-20
1.637478E+03	2.702560E-19	2.905631E-20
1.677417E+03	2.675450E-19	2.873547E-20
1.717355E+03	2.653037E-19	2.846472E-20
1.757294E+03	2.636574E-19	2.825732E-20
1.797232E+03	2.624734E-19	2.809885E-20
1.837171E+03	2.617966E-19	2.799395E-20
1.877109E+03	2.614508E-19	2.792358E-20
1.917048E+03	2.613501E-19	2.787842E-20
1.956986E+03	2.615316E-19	2.786231E-20
1.996925E+03	2.620480E-19	2.788071E-20
2.036863E+03	2.631190E-19	2.795680E-20
2.076802E+03	2.655709E-19	2.817795E-20
2.116740E+03	2.704507E-19	2.865442E-20
2.156679E+03	2.789765E-19	2.951388E-20
2.196617E+03	2.921221E-19	3.085731E-20
2.236556E+03	3.097680E-19	3.266965E-20
2.276494E+03	3.314905E-19	3.490374E-20
2.316433E+03	3.569091E-19	3.751712E-20
2.356371E+03	3.856249E-19	4.046555E-20
2.396310E+03	4.178951E-19	4.377366E-20
2.436248E+03	4.535506E-19	4.742123E-20
2.476187E+03	4.934132E-19	5.149138E-20
2.516125E+03	5.376972E-19	5.600322E-20
2.556064E+03	5.869645E-19	6.101160E-20
2.596002E+03	6.422304E-19	6.661777E-20
2.635941E+03	7.038196E-19	7.285034E-20
2.675879E+03	7.724350E-19	7.977648E-20
2.715818E+03	8.493213E-19	8.751821E-20
2.755756E+03	9.348111E-19	9.610230E-20
2.795695E+03	1.029685E-18	1.056007E-19
2.835633E+03	1.135389E-18	1.161523E-19
2.875572E+03	1.252152E-18	1.277699E-19
2.915510E+03	1.381131E-18	1.405596E-19
2.955449E+03	1.522721E-18	1.545489E-19
2.995387E+03	1.678525E-18	1.698861E-19
3.005372E+03	1.719408E-18	1.738998E-19
3.015356E+03	1.761653E-18	1.780445E-19
3.025341E+03	1.804306E-18	1.822234E-19
3.035326E+03	1.848372E-18	1.865378E-19
3.045310E+03	1.892851E-18	1.908863E-19
3.055295E+03	1.938859E-18	1.953815E-19
3.065279E+03	1.985887E-18	1.999714E-19
3.075264E+03	2.033377E-18	2.045998E-19
3.085249E+03	2.082427E-18	2.093767E-19
3.095233E+03	2.132489E-18	2.142468E-19
3.105218E+03	2.183561E-18	2.192096E-19
3.115203E+03	2.235644E-18	2.242647E-19
3.125187E+03	2.288731E-18	2.294112E-19
3.135172E+03	2.342820E-18	2.346485E-19
3.145156E+03	2.397908E-18	2.399760E-19
3.155141E+03	2.453990E-18	2.453930E-19
3.165126E+03	2.511062E-18	2.508986E-19
3.175110E+03	2.569797E-18	2.565597E-19
3.185095E+03	2.628846E-18	2.622412E-19
3.195080E+03	2.688868E-18	2.680087E-19
3.205064E+03	2.750578E-18	2.739330E-19
3.215049E+03	2.812540E-18	2.798707E-19
3.225033E+03	2.875456E-18	2.858913E-19
3.235018E+03	2.940077E-18	2.920693E-19
3.245003E+03	3.005664E-18	2.983306E-19
3.254987E+03	3.071413E-18	3.045953E-19
3.264972E+03	3.138886E-18	3.110177E-19
3.274957E+03	3.207295E-18	3.175195E-19
3.284941E+03	3.275790E-18	3.240161E-19
3.294926E+03	3.346020E-18	3.306705E-19
3.304910E+03	3.417151E-18	3.373996E-19
3.314895E+03	3.489168E-18	3.442016E-19
3.324880E+03	3.562058E-18	3.510749E-19
3.334864E+03	3.635807E-18	3.580176E-19
3.344849E+03	3.710398E-18	3.650279E-19
3.354834E+03	3.785815E-18	3.721036E-19
3.364818E+03	3.862041E-18	3.792428E-19
3.374803E+03	3.939056E-18	3.864432E-19
3.384787E+03	4.016842E-18	3.937027E-19
3.394772E+03	4.096391E-18	4.011179E-19
3.404757E+03	4.175674E-18	4.084896E-19
3.414741E+03	4.255661E-18	4.159129E-19
3.424726E+03	4.337396E-18	4.234891E-19
3.434711E+03	4.418741E-18	4.310091E-19
3.444695E+03	4.500719E-18	4.385724E-19
3.454680E+03	4.584417E-18	4.462845E-19
3.464664E+03	4.668724E-18	4.540369E-19
3.474649E+03	4.752466E-18	4.617150E-19
3.484634E+03	4.837889E-18	4.695368E-19
3.494618E+03	4.923831E-18	4.773889E-19
3.504603E+03	5.009060E-18	4.851518E-19
3.514588E+03	5.095920E-18	4.930523E-19
3.524572E+03	5.183195E-18	5.009721E-19
3.534557E+03	5.270847E-18	5.089072E-19
3.544541E+03	5.358837E-18	5.168538E-19
3.554526E+03	5.447125E-18	5.248074E-19
3.564511E+03	5.535670E-18	5.327640E-19
3.574495E+03	5.624426E-18	5.407189E-19
3.584480E+03	5.713352E-18	5.486678E-19
3.594465E+03	5.802401E-18	5.566060E-19
3.604449E+03	5.891525E-18	5.645287E-19
3.614434E+03	5.982061E-18	5.725636E-19
3.624418E+03	6.071207E-18	5.804422E-19
3.634403E+03	6.160281E-18	5.882906E-19
3.644388E+03	6.250662E-18	5.962401E-19
3.654372E+03	6.339450E-18	6.040138E-19
3.664357E+03	6.428007E-18	6.117418E-19
3.674342E+03	6.517759E-18	6.195593E-19
3.684326E+03	6.605707E-18	6.271810E-19
3.694311E+03	6.694769E-18	6.348842E-19
3.704295E+03	6.783411E-18	6.425228E-19
3.714280E+03	6.870035E-18	6.499456E-19
3.724265E+03	6.957652E-18	6.574377E-19
3.734249E+03	7.044679E-18	6.648492E-19
3.744234E+03	7.131060E-18	6.721746E-19
3.754219E+03	7.215143E-18	6.792586E-19
3.764203E+03	7.300056E-18	6.863958E-19
3.774188E+03	7.384162E-18	6.934319E-19
3.784172E+03	7.467409E-18	7.003623E-19
3.794157E+03	7.549746E-18	7.071823E-19
3.804142E+03	7.631125E-18	7.138874E-19
3.814126E+03	7.711502E-18	7.204736E-19
3.824111E+03	7.790830E-18	7.269369E-19
3.834095E+03	7.869070E-18	7.332737E-19
3.844080E+03	7.946183E-18	7.394806E-19
3.854065E+03	8.023858E-18	7.457148E-19
3.864049E+03	8.098627E-18	7.516540E-19
3.874034E+03	8.172172E-18	7.574550E-19
3.884019E+03	8.244472E-18	7.631161E-19
3.894003E+03	8.317271E-18	7.687989E-19
3.903988E+03	8.387032E-18	7.741764E-19
3.913972E+03	8.457282E-18	7.795748E-19
3.923957E+03	8.524458E-18	7.846655E-19
3.933942E+03	8.590329E-18	7.896125E-19
3.943926E+03	8.656710E-18	7.945824E-19
3.953911E+03	8.721814E-18	7.994112E-19
3.963896E+03	8.783829E-18	8.039334E-19
3.973880E+03	8.846413E-18	8.084843E-19
3.983865E+03	8.905934E-18	8.127320E-19
3.993849E+03	8.966090E-18	8.170145E-19
4.003834E+03	9.025081E-18	8.211678E-19
4.013819E+03	9.081086E-18	8.250267E-19
4.023803E+03	9.137861E-18	8.289328E-19
4.033788E+03	9.193598E-18	8.327221E-19
4.043773E+03	9.248351E-18	8.363995E-19
4.053757E+03	9.302176E-18	8.399706E-19
4.063742E+03	9.353249E-18	8.432710E-19
4.073726E+03	9.405401E-18	8.466465E-19
4.083711E+03	9.456820E-18	8.499337E-19
4.093696E+03	9.507578E-18	8.531393E-19
4.103680E+03	9.557750E-18	8.562701E-19
4.113665E+03	9.607414E-18	8.593331E-19
4.123650E+03	9.656648E-18	8.623354E-19
4.133634E+03	9.705535E-18	8.652844E-19
4.143619E+03	9.754158E-18	8.681876E-19
4.153603E+03	9.802598E-18	8.710519E-19
4.163588E+03	9.852868E-18	8.740561E-19
4.173573E+03	9.901195E-18	8.768650E-19
4.183557E+03	9.949590E-18	8.796570E-19
4.193542E+03	9.998133E-18	8.824391E-19
4.203527E+03	1.004690E-17	8.852179E-19
4.213511E+03	1.009596E-17	8.879990E-19
4.223496E+03	1.014735E-17	8.909607E-19
4.233480E+03	1.019723E-17	8.937658E-19
4.243465E+03	1.024761E-17	8.965896E-19
4.253450E+03	1.029855E-17	8.994391E-19
4.263434E+03	1.035208E-17	9.024885E-19
4.273419E+03	1.040431E-17	9.053990E-19
4.283404E+03	1.045725E-17	9.083458E-19
4.293388E+03	1.051291E-17	9.115026E-19
4.303373E+03	1.056739E-17	9.145302E-19
4.313357E+03	1.062268E-17	9.176002E-19
4.323342E+03	1.068081E-17	9.208883E-19
4.333327E+03	1.073781E-17	9.240507E-19
4.343311E+03	1.079771E-17	9.274336E-19
4.353296E+03	1.085653E-17	9.306957E-19
4.363281E+03	1.091631E-17	9.340096E-19
4.373265E+03	1.097911E-17	9.375523E-19
4.383250E+03	1.104098E-17	9.409839E-19
4.393234E+03	1.110606E-17	9.446586E-19
4.403219E+03	1.117043E-17	9.482408E-19
4.413204E+03	1.123833E-17	9.520900E-19
4.423188E+03	1.130586E-17	9.558744E-19
4.433173E+03	1.137525E-17	9.597822E-19
4.443158E+03	1.144877E-17	9.640037E-19
4.453142E+03	1.152250E-17	9.682066E-19
4.463127E+03	1.160079E-17	9.727552E-19
4.473111E+03	1.167970E-17	9.773178E-19
4.483096E+03	1.176362E-17	9.822596E-19
4.493081E+03	1.184856E-17	9.872463E-19
4.503065E+03	1.193896E-17	9.926458E-19
4.513050E+03	1.203082E-17	9.981225E-19
4.523035E+03	1.212861E-17	1.004046E-18
4.533019E+03	1.222828E-17	1.010078E-18
4.543004E+03	1.233434E-17	1.016588E-18
4.552988E+03	1.244272E-17	1.023239E-18
4.562973E+03	1.255798E-17	1.030403E-18
4.572958E+03	1.267600E-17	1.037738E-18
4.582942E+03	1.279918E-17	1.045439E-18
4.592927E+03	1.293002E-17	1.053707E-18
4.602912E+03	1.306432E-17	1.062193E-18
4.612896E+03	1.320681E-17	1.071281E-18
4.622881E+03	1.335325E-17	1.080623E-18
4.632865E+03	1.350615E-17	1.090417E-18
4.642850E+03	1.366815E-17	1.100872E-18
4.652835E+03	1.383488E-17	1.111631E-18
4.662819E+03	1.401134E-17	1.123094E-18
4.672804E+03	1.419310E-17	1.134897E-18
4.682789E+03	1.438283E-17	1.147252E-18
4.692773E+03	1.458089E-17	1.160180E-18
4.702758E+03	1.479008E-17	1.173901E-18
4.712742E+03	1.500581E-17	1.188041E-18
4.722727E+03	1.523090E-17	1.202819E-18
4.732712E+03	1.546570E-17	1.218258E-18
4.742696E+03	1.571320E-17	1.234585E-18
4.752681E+03	1.596859E-17	1.251415E-18
4.762665E+03	1.623481E-17	1.268972E-18
4.772650E+03	1.651223E-17	1.287277E-18
4.782635E+03	1.680124E-17	1.306353E-18
4.792619E+03	1.710220E-17	1.326220E-18
4.802604E+03	1.741548E-17	1.346899E-18
4.812589E+03	1.774142E-17	1.368406E-18
4.822573E+03	1.808331E-17	1.390987E-18
4.832558E+03	1.843564E-17	1.414207E-18
4.842542E+03	1.879855E-17	1.438069E-18
4.852527E+03	1.917837E-17	1.463049E-18
4.862512E+03	1.957238E-17	1.488927E-18
4.872496E+03	1.998079E-17	1.515709E-18
4.882481E+03	2.040382E-17	1.543402E-18
4.892466E+03	2.084164E-17	1.572007E-18
4.902450E+03	2.129436E-17	1.601523E-18
4.912435E+03	2.175862E-17	1.631685E-18
4.922419E+03	2.224138E-17	1.663005E-18
4.932404E+03	2.273923E-17	1.695216E-18
4.942389E+03	2.324846E-17	1.728030E-18
4.952373E+03	2.377634E-17	1.761977E-18
4.962358E+03	2.431529E-17	1.796483E-18
4.972343E+03	2.487279E-17	1.832089E-18
4.982327E+03	2.544090E-17	1.868200E-18
4.992312E+03	2.602733E-17	1.905369E-18
5.002296E+03	2.662374E-17	1.942974E-18
5.012281E+03	2.723810E-17	1.981588E-18
5.022266E+03	2.786169E-17	2.020562E-18
5.032250E+03	2.849833E-17	2.060165E-18
5.042235E+03	2.914766E-17	2.100361E-18
5.052220E+03	2.980929E-17	2.141110E-18
5.062204E+03	3.048752E-17	2.182710E-18
5.072189E+03	3.117262E-17	2.224453E-18
5.082173E+03	3.186877E-17	2.266630E-18
5.092158E+03	3.257552E-17	2.309198E-18
5.102143E+03	3.328732E-17	2.351757E-18
5.112127E+03	3.401382E-17	2.394980E-18
5.122112E+03	3.474956E-17	2.438471E-18
5.132097E+03	3.549410E-17	2.482191E-18
5.142081E+03	3.624695E-17	2.526097E-18
5.152066E+03	3.700208E-17	2.569763E-18
5.162050E+03	3.777013E-17	2.613921E-18
5.172035E+03	3.853935E-17	2.657749E-18
5.182020E+03	3.932084E-17	2.702006E-18
5.192004E+03	4.010241E-17	2.745848E-18
5.201989E+03	4.089561E-17	2.790061E-18
5.211974E+03	4.168785E-17	2.833777E-18
5.221958E+03	4.248476E-17	2.877376E-18
5.231943E+03	4.328596E-17	2.920827E-18
5.241927E+03	4.409763E-17	2.964541E-18
5.251912E+03	4.490638E-17	3.007611E-18
5.261897E+03	4.571830E-17	3.050442E-18
5.271881E+03	4.653306E-17	3.093009E-18
5.281866E+03	4.734331E-17	3.134822E-18
5.291851E+03	4.816262E-17	3.176775E-18
5.301835E+03	4.898376E-17	3.218387E-18
5.311820E+03	4.980645E-17	3.259633E-18
5.321804E+03	5.062294E-17	3.300008E-18
5.331789E+03	5.144769E-17	3.340451E-18
5.341774E+03	5.226546E-17	3.379971E-18
5.351758E+03	5.309114E-17	3.419528E-18
5.361743E+03	5.390908E-17	3.458111E-18
5.371728E+03	5.472669E-17	3.496198E-18
5.381712E+03	5.554372E-17	3.533772E-18
5.391697E+03	5.635998E-17	3.570819E-18
5.401681E+03	5.717530E-17	3.607327E-18
5.411666E+03	5.798952E-17	3.643286E-18
5.421651E+03	5.880257E-17	3.678690E-18
5.431635E+03	5.961439E-17	3.713536E-18
5.441620E+03	6.042500E-17	3.747823E-18
5.451605E+03	6.123447E-17	3.781557E-18
5.461589E+03	6.203404E-17	3.814198E-18
5.471574E+03	6.284152E-17	3.846842E-18
5.481558E+03	6.363912E-17	3.878398E-18
5.491543E+03	6.443559E-17	3.909403E-18
5.501528E+03	6.523978E-17	3.940393E-18
5.511512E+03	6.603259E-17	3.970211E-18
5.521497E+03	6.682252E-17	3.999374E-18
5.531482E+03	6.760887E-17	4.027842E-18
5.541466E+03	6.839102E-17	4.055580E-18
5.551451E+03	6.916838E-17	4.082556E-18
5.561435E+03	6.993060E-17	4.108166E-18
5.571420E+03	7.069684E-17	4.133541E-18
5.581405E+03	7.145697E-17	4.158088E-18
5.591389E+03	7.220053E-17	4.181207E-18
5.601374E+03	7.294741E-17	4.204056E-18
5.611359E+03	7.367698E-17	4.225449E-18
5.621343E+03	7.439910E-17	4.245963E-18
5.631328E+03	7.511353E-17	4.265588E-18
5.641312E+03	7.583051E-17	4.284907E-18
5.651297E+03	7.652866E-17	4.302717E-18
5.661282E+03	7.720732E-17	4.318994E-18
5.671266E+03	7.788737E-17	4.334916E-18
5.681251E+03	7.855752E-17	4.349855E-18
5.691235E+03	7.921705E-17	4.363780E-18
5.701220E+03	7.985402E-17	4.376044E-18
5.711205E+03	8.048941E-17	4.387808E-18
5.721189E+03	8.109991E-17	4.397810E-18
5.731174E+03	8.169517E-17	4.406592E-18
5.741159E+03	8.227372E-17	4.414085E-18
5.751143E+03	8.283394E-17	4.420218E-18
5.761128E+03	8.337401E-17	4.424910E-18
5.771112E+03	8.389202E-17	4.428077E-18
5.781097E+03	8.438591E-17	4.429631E-18
5.791082E+03	8.485365E-17	4.429484E-18
5.801066E+03	8.528138E-17	4.426943E-18
5.811051E+03	8.569009E-17	4.423124E-18
5.821036E+03	8.605441E-17	4.416743E-18
5.831020E+03	8.639543E-17	4.408916E-18
5.841005E+03	8.668769E-17	4.398372E-18
5.850989E+03	8.694093E-17	4.385645E-18
5.860974E+03	8.715344E-17	4.370687E-18
5.870959E+03	8.732360E-17	4.353452E-18
5.880943E+03	8.744998E-17	4.333910E-18
5.890928E+03	8.751976E-17	4.311468E-18
5.900913E+03	8.755583E-17	4.287300E-18
5.910897E+03	8.754600E-17	4.260843E-18
5.920882E+03	8.747833E-17	4.231564E-18
5.930866E+03	8.736506E-17	4.200104E-18
5.940851E+03	8.721863E-17	4.167101E-18
5.950836E+03	8.701671E-17	4.131527E-18
5.960820E+03	8.677262E-17	4.094061E-18
5.970805E+03	8.648827E-17	4.054835E-18
5.980790E+03	8.615459E-17	4.013464E-18
5.990774E+03	8.579723E-17	3.971184E-18
6.000759E+03	8.540776E-17	3.927630E-18
6.010743E+03	8.497806E-17	3.882464E-18
6.020728E+03	8.453452E-17	3.836922E-18
6.030713E+03	8.405828E-17	3.790171E-18
6.040697E+03	8.356484E-17	3.742937E-18
6.050682E+03	8.305809E-17	3.695413E-18
6.060667E+03	8.254253E-17	3.647813E-18
6.070651E+03	8.202221E-17	3.600326E-18
6.080636E+03	8.150150E-17	3.553151E-18
6.090620E+03	8.098461E-17	3.506475E-18
6.100605E+03	8.046515E-17	3.460023E-18
6.110590E+03	7.996863E-17	3.414891E-18
6.120574E+03	7.947768E-17	3.370326E-18
6.130559E+03	7.900681E-17	3.326939E-18
6.140544E+03	7.855983E-17	3.284875E-18
6.150528E+03	7.815050E-17	3.244689E-18
6.160513E+03	7.775122E-17	3.205214E-18
6.170497E+03	7.739603E-17	3.167840E-18
6.180482E+03	7.707783E-17	3.132245E-18
6.190467E+03	7.679926E-17	3.098507E-18
6.200451E+03	7.655299E-17	3.066305E-18
6.210436E+03	7.636186E-17	3.036523E-18
6.220421E+03	7.620805E-17	3.008417E-18
6.230405E+03	7.610396E-17	2.982448E-18
6.240390E+03	7.605186E-17	2.958667E-18
6.250374E+03	7.605385E-17	2.937118E-18
6.260359E+03	7.611208E-17	2.917846E-18
6.270344E+03	7.622860E-17	2.900889E-18
6.280328E+03	7.640559E-17	2.886291E-18
6.290313E+03	7.663517E-17	2.873714E-18
6.300298E+03	7.693944E-17	2.863948E-18
6.310282E+03	7.730059E-17	2.856285E-18
6.320267E+03	7.773090E-17	2.851142E-18
6.330251E+03	7.824295E-17	2.848933E-18
6.340236E+03	7.881881E-17	2.848960E-18
6.350221E+03	7.947112E-17	2.851641E-18
6.360205E+03	8.019195E-17	2.856650E-18
6.370190E+03	8.100466E-17	2.864779E-18
6.380175E+03	8.190147E-17	2.875704E-18
6.390159E+03	8.287390E-17	2.889086E-18
6.400144E+03	8.394572E-17	2.905717E-18
6.410128E+03	8.509720E-17	2.924869E-18
6.420113E+03	8.634072E-17	2.946935E-18
6.430098E+03	8.767727E-17	2.971914E-18
6.440082E+03	8.910743E-17	2.999790E-18
6.450067E+03	9.063079E-17	3.030522E-18
6.460052E+03	9.224615E-17	3.064044E-18
6.470036E+03	9.395136E-17	3.100263E-18
6.480021E+03	9.573066E-17	3.138650E-18
6.490005E+03	9.760453E-17	3.179872E-18
6.499990E+03	9.954256E-17	3.222934E-18
6.509975E+03	1.015515E-16	3.268069E-18
6.519959E+03	1.036262E-16	3.315125E-18
6.529944E+03	1.057633E-16	3.364021E-18
6.539929E+03	1.079622E-16	3.414763E-18
6.549913E+03	1.102240E-16	3.467417E-18
6.559898E+03	1.125496E-16	3.522056E-18
6.569882E+03	1.149404E-16	3.578758E-18
6.579867E+03	1.173817E-16	3.637117E-18
6.589852E+03	1.199038E-16	3.698124E-18
6.599836E+03	1.224752E-16	3.760862E-18
6.609821E+03	1.251095E-16	3.825815E-18
6.619805E+03	1.278048E-16	3.892986E-18
6.629790E+03	1.305577E-16	3.962351E-18
6.639775E+03	1.333646E-16	4.033878E-18
6.649759E+03	1.362210E-16	4.107517E-18
6.659744E+03	1.391219E-16	4.183207E-18
6.669729E+03	1.420435E-16	4.260331E-18
6.679713E+03	1.450166E-16	4.339914E-18
6.689698E+03	1.479975E-16	4.420758E-18
6.699682E+03	1.510184E-16	4.503928E-18
6.709667E+03	1.540337E-16	4.588183E-18
6.719652E+03	1.570562E-16	4.674019E-18
6.729636E+03	1.600794E-16	4.761361E-18
6.739621E+03	1.630970E-16	4.850134E-18
6.749606E+03	1.661023E-16	4.940265E-18
6.759590E+03	1.690673E-16	5.031029E-18
6.769575E+03	1.720294E-16	5.123637E-18
6.779559E+03	1.749608E-16	5.217332E-18
6.789544E+03	1.778327E-16	5.311314E-18
6.799529E+03	1.806617E-16	5.406138E-18
6.809513E+03	1.834664E-16	5.502405E-18
6.819498E+03	1.861940E-16	5.598581E-18
6.829483E+03	1.888633E-16	5.695256E-18
6.839467E+03	1.914695E-16	5.792316E-18
6.849452E+03	1.939829E-16	5.888877E-18
6.859436E+03	1.964500E-16	5.986351E-18
6.869421E+03	1.988421E-16	6.083876E-18
6.879406E+03	2.011298E-16	6.180539E-18
6.889390E+03	2.033626E-16	6.277842E-18
6.899375E+03	2.054855E-16	6.374067E-18
6.909360E+03	2.075230E-16	6.469936E-18
6.919344E+03	2.095015E-16	6.566238E-18
6.929329E+03	2.113658E-16	6.661203E-18
6.939313E+03	2.131431E-16	6.755627E-18
6.949298E+03	2.148342E-16	6.849478E-18
6.959283E+03	2.164119E-16	6.941827E-18
6.969267E+03	2.179348E-16	7.034477E-18
6.979252E+03	2.193772E-16	7.126545E-18
6.989237E+03	2.207133E-16	7.217117E-18
6.999221E+03	2.220048E-16	7.308127E-18
7.009206E+03	2.231978E-16	7.397740E-18
7.019190E+03	2.243262E-16	7.486991E-18
7.029175E+03	2.253954E-16	7.575987E-18
7.039160E+03	2.264408E-16	7.665860E-18
7.049144E+03	2.274095E-16	7.754752E-18
7.059129E+03	2.283073E-16	7.842778E-18
7.069114E+03	2.292010E-16	7.932165E-18
7.079098E+03	2.300676E-16	8.022072E-18
7.089083E+03	2.309139E-16	8.112693E-18
7.099067E+03	2.317166E-16	8.203144E-18
7.109052E+03	2.325434E-16	8.295785E-18
7.119037E+03	2.333400E-16	8.388646E-18
7.129021E+03	2.341435E-16	8.483014E-18
7.139006E+03	2.349600E-16	8.579095E-18
7.148991E+03	2.358269E-16	8.678239E-18
7.158975E+03	2.366873E-16	8.778353E-18
7.168960E+03	2.375773E-16	8.880755E-18
7.178944E+03	2.384698E-16	8.984417E-18
7.188929E+03	2.394316E-16	9.091859E-18
7.198914E+03	2.404346E-16	9.202036E-18
7.208898E+03	2.414812E-16	9.315056E-18
7.218883E+03	2.425410E-16	9.429752E-18
7.228868E+03	2.436793E-16	9.548668E-18
7.238852E+03	2.448317E-16	9.669314E-18
7.248837E+03	2.460297E-16	9.792934E-18
7.258821E+03	2.472718E-16	9.919488E-18
7.268806E+03	2.485888E-16	1.005024E-17
7.278791E+03	2.499114E-16	1.018242E-17
7.288775E+03	2.512682E-16	1.031719E-17
7.298760E+03	2.526204E-16	1.045295E-17
7.308745E+03	2.540296E-16	1.059225E-17
7.318729E+03	2.554552E-16	1.073342E-17
7.328714E+03	2.568897E-16	1.087614E-17
7.338698E+03	2.582899E-16	1.101856E-17
7.348683E+03	2.597156E-16	1.116319E-17
7.358668E+03	2.610873E-16	1.130661E-17
7.368652E+03	2.624292E-16	1.144979E-17
7.378637E+03	2.637655E-16	1.159377E-17
7.388622E+03	2.650137E-16	1.173485E-17
7.398606E+03	2.661970E-16	1.187398E-17
7.408591E+03	2.673032E-16	1.201052E-17
7.418575E+03	2.683196E-16	1.214382E-17
7.428560E+03	2.692336E-16	1.227319E-17
7.438545E+03	2.700327E-16	1.239794E-17
7.448529E+03	2.707048E-16	1.251738E-17
7.458514E+03	2.712007E-16	1.262910E-17
7.468499E+03	2.715827E-16	1.273581E-17
7.478483E+03	2.717659E-16	1.283339E-17
7.488468E+03	2.718144E-16	1.292467E-17
7.498452E+03	2.716445E-16	1.300550E-17
7.508437E+03	2.713221E-16	1.307883E-17
7.518422E+03	2.707656E-16	1.314055E-17
7.528406E+03	2.700057E-16	1.319190E-17
7.538391E+03	2.690375E-16	1.323245E-17
7.548376E+03	2.678571E-16	1.326177E-17
7.558360E+03	2.664620E-16	1.327953E-17
7.568345E+03	2.648507E-16	1.328544E-17
7.578329E+03	2.630233E-16	1.327929E-17
7.588314E+03	2.609810E-16	1.326091E-17
7.598299E+03	2.587263E-16	1.323023E-17
7.608283E+03	2.562277E-16	1.318540E-17
7.618268E+03	2.535611E-16	1.313012E-17
7.628252E+03	2.506624E-16	1.306088E-17
7.638237E+03	2.476084E-16	1.298149E-17
7.648222E+03	2.443387E-16	1.288860E-17
7.658206E+03	2.409308E-16	1.278612E-17
7.668191E+03	2.373274E-16	1.267086E-17
7.678176E+03	2.335738E-16	1.254507E-17
7.688160E+03	2.296819E-16	1.240925E-17
7.698145E+03	2.256958E-16	1.226565E-17
7.708129E+03	2.215652E-16	1.211146E-17
7.718114E+03	2.173358E-16	1.194906E-17
7.728099E+03	2.129919E-16	1.177747E-17
7.738083E+03	2.086082E-16	1.160076E-17
7.748068E+03	2.041688E-16	1.141801E-17
