#wls	flux	fluxerr
1.596504E+03	3.131595E-04	2.477661E-06
1.636416E+03	3.138841E-04	2.483394E-06
1.676329E+03	3.142412E-04	2.486219E-06
1.716241E+03	3.134122E-04	2.479661E-06
1.756154E+03	3.114465E-04	2.464108E-06
1.796067E+03	3.079896E-04	2.436758E-06
1.835979E+03	3.025177E-04	2.393465E-06
1.875892E+03	2.949022E-04	2.333213E-06
1.915804E+03	2.849778E-04	2.254693E-06
1.955717E+03	2.726826E-04	2.157415E-06
1.995630E+03	2.584635E-04	2.044916E-06
2.035542E+03	2.433862E-04	1.925628E-06
2.075455E+03	2.283044E-04	1.806303E-06
2.115367E+03	2.146526E-04	1.698293E-06
2.155280E+03	2.036994E-04	1.611632E-06
2.195193E+03	1.969435E-04	1.558181E-06
2.235105E+03	1.954366E-04	1.546258E-06
2.275018E+03	2.001422E-04	1.583489E-06
2.314930E+03	2.118236E-04	1.675909E-06
2.354843E+03	2.310798E-04	1.828261E-06
2.394755E+03	2.583869E-04	2.044310E-06
2.434668E+03	2.939513E-04	2.325689E-06
2.474581E+03	3.379104E-04	2.673485E-06
2.514493E+03	3.898135E-04	3.084133E-06
2.554406E+03	4.483098E-04	3.546945E-06
2.594318E+03	5.116607E-04	4.048165E-06
2.634231E+03	5.771352E-04	4.566188E-06
2.674144E+03	6.422928E-04	5.081702E-06
2.714056E+03	7.046011E-04	5.574674E-06
2.753969E+03	7.623453E-04	6.031536E-06
2.793881E+03	8.144882E-04	6.444081E-06
2.833794E+03	8.598736E-04	6.803162E-06
2.873707E+03	8.982331E-04	7.106655E-06
2.913619E+03	9.299135E-04	7.357305E-06
2.953532E+03	9.550272E-04	7.556000E-06
2.993444E+03	9.748117E-04	7.712531E-06
3.003423E+03	9.789171E-04	7.745012E-06
3.013401E+03	9.830869E-04	7.778003E-06
3.023379E+03	9.870783E-04	7.809582E-06
3.033357E+03	9.906596E-04	7.837917E-06
3.043335E+03	9.943499E-04	7.867113E-06
3.053313E+03	9.981666E-04	7.897311E-06
3.063291E+03	1.001654E-03	7.924903E-06
3.073270E+03	1.005566E-03	7.955856E-06
3.083248E+03	1.009460E-03	7.986666E-06
3.093226E+03	1.013614E-03	8.019524E-06
3.103204E+03	1.017844E-03	8.052995E-06
3.113182E+03	1.022662E-03	8.091116E-06
3.123160E+03	1.027895E-03	8.132515E-06
3.133138E+03	1.033607E-03	8.177706E-06
3.143117E+03	1.040086E-03	8.228968E-06
3.153095E+03	1.047400E-03	8.286833E-06
3.163073E+03	1.055413E-03	8.350231E-06
3.173051E+03	1.064633E-03	8.423177E-06
3.183029E+03	1.074721E-03	8.502996E-06
3.193007E+03	1.086187E-03	8.593715E-06
3.202985E+03	1.099120E-03	8.696037E-06
3.212964E+03	1.113407E-03	8.809074E-06
3.222942E+03	1.129348E-03	8.935196E-06
3.232920E+03	1.147239E-03	9.076741E-06
3.242898E+03	1.166973E-03	9.232876E-06
3.252876E+03	1.188845E-03	9.405923E-06
3.262854E+03	1.212749E-03	9.595044E-06
3.272832E+03	1.239170E-03	9.804081E-06
3.282811E+03	1.268189E-03	1.003368E-05
3.292789E+03	1.299691E-03	1.028292E-05
3.302767E+03	1.333943E-03	1.055392E-05
3.312745E+03	1.371200E-03	1.084868E-05
3.322723E+03	1.411312E-03	1.116604E-05
3.332701E+03	1.454504E-03	1.150777E-05
3.342680E+03	1.500786E-03	1.187394E-05
3.352658E+03	1.550345E-03	1.226604E-05
3.362636E+03	1.602953E-03	1.268227E-05
3.372614E+03	1.658951E-03	1.312531E-05
3.382592E+03	1.718021E-03	1.359267E-05
3.392570E+03	1.779928E-03	1.408246E-05
3.402548E+03	1.844676E-03	1.459474E-05
3.412527E+03	1.911262E-03	1.512156E-05
3.422505E+03	1.979321E-03	1.566002E-05
3.432483E+03	2.047911E-03	1.620270E-05
3.442461E+03	2.115996E-03	1.674137E-05
3.452439E+03	2.182768E-03	1.726966E-05
3.462417E+03	2.247138E-03	1.777894E-05
3.472395E+03	2.308667E-03	1.826575E-05
3.482374E+03	2.366986E-03	1.872716E-05
3.492352E+03	2.422242E-03	1.916434E-05
3.502330E+03	2.474436E-03	1.957728E-05
3.512308E+03	2.524343E-03	1.997214E-05
3.522286E+03	2.571990E-03	2.034911E-05
3.532264E+03	2.618198E-03	2.071470E-05
3.542242E+03	2.663140E-03	2.107027E-05
3.552221E+03	2.707120E-03	2.141823E-05
3.562199E+03	2.750802E-03	2.176384E-05
3.572177E+03	2.794160E-03	2.210688E-05
3.582155E+03	2.837702E-03	2.245138E-05
3.592133E+03	2.882595E-03	2.280656E-05
3.602111E+03	2.930146E-03	2.318277E-05
3.612090E+03	2.982648E-03	2.359816E-05
3.622068E+03	3.042083E-03	2.406840E-05
3.632046E+03	3.110420E-03	2.460907E-05
3.642024E+03	3.189163E-03	2.523207E-05
3.652002E+03	3.278905E-03	2.594209E-05
3.661980E+03	3.379328E-03	2.673662E-05
3.671958E+03	3.488696E-03	2.760192E-05
3.681937E+03	3.603738E-03	2.851211E-05
3.691915E+03	3.719160E-03	2.942531E-05
3.701893E+03	3.829215E-03	3.029604E-05
3.711871E+03	3.926934E-03	3.106918E-05
3.721849E+03	4.005398E-03	3.168997E-05
3.731827E+03	4.059452E-03	3.211764E-05
3.741805E+03	4.085768E-03	3.232584E-05
3.751784E+03	4.083756E-03	3.230992E-05
3.761762E+03	4.056699E-03	3.209586E-05
3.771740E+03	4.010148E-03	3.172755E-05
3.781718E+03	3.952792E-03	3.127376E-05
3.791696E+03	3.894798E-03	3.081492E-05
3.801674E+03	3.847323E-03	3.043931E-05
3.811652E+03	3.821842E-03	3.023771E-05
3.821631E+03	3.829986E-03	3.030214E-05
3.831609E+03	3.882723E-03	3.071939E-05
3.841587E+03	3.990877E-03	3.157509E-05
3.851565E+03	4.164604E-03	3.294958E-05
3.861543E+03	4.414301E-03	3.492513E-05
3.871521E+03	4.749333E-03	3.757584E-05
3.881500E+03	5.177758E-03	4.096547E-05
3.891478E+03	5.705121E-03	4.513787E-05
3.901456E+03	6.332539E-03	5.010188E-05
3.911434E+03	7.054274E-03	5.581211E-05
3.921412E+03	7.856129E-03	6.215624E-05
3.931390E+03	8.715428E-03	6.895486E-05
3.941368E+03	9.601105E-03	7.596217E-05
3.951347E+03	1.047768E-02	8.289745E-05
3.961325E+03	1.130992E-02	8.948200E-05
3.971303E+03	1.206709E-02	9.547257E-05
3.981281E+03	1.272839E-02	1.007046E-04
3.991259E+03	1.328476E-02	1.051066E-04
4.001237E+03	1.373730E-02	1.086870E-04
4.011215E+03	1.409612E-02	1.115259E-04
4.021194E+03	1.437437E-02	1.137274E-04
4.031172E+03	1.458362E-02	1.153829E-04
4.041150E+03	1.473120E-02	1.165505E-04
4.051128E+03	1.481800E-02	1.172373E-04
4.061106E+03	1.483803E-02	1.173958E-04
4.071084E+03	1.478061E-02	1.169415E-04
4.081062E+03	1.463433E-02	1.157841E-04
4.091041E+03	1.438971E-02	1.138487E-04
4.101019E+03	1.404292E-02	1.111050E-04
4.110997E+03	1.359742E-02	1.075802E-04
4.120975E+03	1.306480E-02	1.033663E-04
4.130953E+03	1.246336E-02	9.860782E-05
4.140931E+03	1.181639E-02	9.348907E-05
4.150910E+03	1.114976E-02	8.821481E-05
4.160888E+03	1.048950E-02	8.299100E-05
4.170866E+03	9.859018E-03	7.800272E-05
4.180844E+03	9.278531E-03	7.341002E-05
4.190822E+03	8.764053E-03	6.933956E-05
4.200800E+03	8.327463E-03	6.588535E-05
4.210778E+03	7.977324E-03	6.311511E-05
4.220757E+03	7.719864E-03	6.107814E-05
4.230735E+03	7.560145E-03	5.981447E-05
4.240713E+03	7.501848E-03	5.935323E-05
4.250691E+03	7.547676E-03	5.971582E-05
4.260669E+03	7.697801E-03	6.090357E-05
4.270647E+03	7.948982E-03	6.289087E-05
4.280625E+03	8.293964E-03	6.562031E-05
4.290604E+03	8.721724E-03	6.900466E-05
4.300582E+03	9.216067E-03	7.291581E-05
4.310560E+03	9.756423E-03	7.719101E-05
4.320538E+03	1.031628E-02	8.162053E-05
4.330516E+03	1.086390E-02	8.595316E-05
4.340494E+03	1.136285E-02	8.990075E-05
4.350472E+03	1.177128E-02	9.313219E-05
4.360451E+03	1.205108E-02	9.534592E-05
4.370429E+03	1.218288E-02	9.638866E-05
4.380407E+03	1.215835E-02	9.619464E-05
4.390385E+03	1.199725E-02	9.492003E-05
4.400363E+03	1.174439E-02	9.291941E-05
4.410341E+03	1.144794E-02	9.057398E-05
4.420320E+03	1.115624E-02	8.826609E-05
4.430298E+03	1.091422E-02	8.635129E-05
4.440276E+03	1.076357E-02	8.515941E-05
4.450254E+03	1.074188E-02	8.498776E-05
4.460232E+03	1.088240E-02	8.609957E-05
4.470210E+03	1.121425E-02	8.872506E-05
4.480188E+03	1.176112E-02	9.305183E-05
4.490167E+03	1.253987E-02	9.921314E-05
4.500145E+03	1.355744E-02	1.072639E-04
4.510123E+03	1.480433E-02	1.171291E-04
4.520101E+03	1.625219E-02	1.285843E-04
4.530079E+03	1.785490E-02	1.412647E-04
4.540057E+03	1.955121E-02	1.546855E-04
4.550035E+03	2.126905E-02	1.682768E-04
4.560014E+03	2.293376E-02	1.814476E-04
4.569992E+03	2.447194E-02	1.936174E-04
4.579970E+03	2.581739E-02	2.042624E-04
4.589948E+03	2.690952E-02	2.129031E-04
4.599926E+03	2.769554E-02	2.191220E-04
4.609904E+03	2.813283E-02	2.225817E-04
4.619882E+03	2.819331E-02	2.230603E-04
4.629861E+03	2.786746E-02	2.204822E-04
4.639839E+03	2.717083E-02	2.149705E-04
4.649817E+03	2.614740E-02	2.068734E-04
4.659795E+03	2.486575E-02	1.967332E-04
4.669773E+03	2.341040E-02	1.852187E-04
4.679751E+03	2.186896E-02	1.730232E-04
4.689729E+03	2.032336E-02	1.607946E-04
4.699708E+03	1.884270E-02	1.490799E-04
4.709686E+03	1.747895E-02	1.382902E-04
4.719664E+03	1.628885E-02	1.288743E-04
4.729642E+03	1.534780E-02	1.214290E-04
4.739620E+03	1.470473E-02	1.163411E-04
4.749598E+03	1.438633E-02	1.138220E-04
4.759577E+03	1.440434E-02	1.139645E-04
4.769555E+03	1.475895E-02	1.167701E-04
4.779533E+03	1.543812E-02	1.221436E-04
4.789511E+03	1.641406E-02	1.298650E-04
4.799489E+03	1.763767E-02	1.395460E-04
4.809467E+03	1.903283E-02	1.505842E-04
4.819445E+03	2.049650E-02	1.621645E-04
4.829424E+03	2.077411E-02	1.643609E-04
4.829747E+03	2.079246E-02	1.645061E-04
4.830071E+03	2.081079E-02	1.646511E-04
4.830394E+03	2.083143E-02	1.648144E-04
4.830719E+03	2.084977E-02	1.649595E-04
4.831042E+03	2.087041E-02	1.651229E-04
4.831366E+03	2.089336E-02	1.653044E-04
4.831690E+03	2.091746E-02	1.654951E-04
4.832013E+03	2.093811E-02	1.656584E-04
4.832337E+03	2.095990E-02	1.658308E-04
4.832660E+03	2.098170E-02	1.660033E-04
4.832985E+03	2.100233E-02	1.661665E-04
4.833308E+03	2.102413E-02	1.663390E-04
4.833631E+03	2.104592E-02	1.665114E-04
4.833956E+03	2.107117E-02	1.667112E-04
4.834279E+03	2.109527E-02	1.669018E-04
4.834603E+03	2.111936E-02	1.670925E-04
4.834927E+03	2.114461E-02	1.672922E-04
4.835251E+03	2.116986E-02	1.674920E-04
4.835574E+03	2.119510E-02	1.676917E-04
4.835897E+03	2.121805E-02	1.678733E-04
4.836222E+03	2.124330E-02	1.680730E-04
4.836545E+03	2.126970E-02	1.682819E-04
4.836869E+03	2.129610E-02	1.684908E-04
4.837193E+03	2.132365E-02	1.687087E-04
4.837516E+03	2.135235E-02	1.689358E-04
4.837840E+03	2.138220E-02	1.691720E-04
4.838163E+03	2.141206E-02	1.694082E-04
4.838488E+03	2.144191E-02	1.696444E-04
4.838811E+03	2.147292E-02	1.698898E-04
4.839135E+03	2.150392E-02	1.701350E-04
4.839459E+03	2.153608E-02	1.703895E-04
4.839782E+03	2.156824E-02	1.706439E-04
4.840106E+03	2.160039E-02	1.708983E-04
4.840429E+03	2.163255E-02	1.711527E-04
4.840754E+03	2.166470E-02	1.714071E-04
4.841077E+03	2.169686E-02	1.716615E-04
4.841400E+03	2.172901E-02	1.719159E-04
4.841725E+03	2.176116E-02	1.721703E-04
4.842048E+03	2.179447E-02	1.724338E-04
4.842372E+03	2.182663E-02	1.726882E-04
4.842695E+03	2.186224E-02	1.729700E-04
4.843020E+03	2.189670E-02	1.732426E-04
4.843343E+03	2.193000E-02	1.735061E-04
4.843666E+03	2.196445E-02	1.737787E-04
4.843991E+03	2.199891E-02	1.740513E-04
4.844314E+03	2.203336E-02	1.743239E-04
4.844638E+03	2.206552E-02	1.745783E-04
4.844962E+03	2.209883E-02	1.748418E-04
4.845285E+03	2.213443E-02	1.751235E-04
4.845609E+03	2.217119E-02	1.754143E-04
4.845932E+03	2.220680E-02	1.756961E-04
4.846257E+03	2.224355E-02	1.759869E-04
4.846580E+03	2.228146E-02	1.762868E-04
4.846904E+03	2.231937E-02	1.765867E-04
4.847228E+03	2.235958E-02	1.769048E-04
4.847551E+03	2.239979E-02	1.772230E-04
4.847875E+03	2.243770E-02	1.775229E-04
4.848198E+03	2.247445E-02	1.778137E-04
4.848523E+03	2.251121E-02	1.781045E-04
4.848846E+03	2.254797E-02	1.783953E-04
4.849169E+03	2.258587E-02	1.786952E-04
4.849494E+03	2.262493E-02	1.790042E-04
4.849817E+03	2.266399E-02	1.793132E-04
4.850141E+03	2.270304E-02	1.796223E-04
4.850464E+03	2.274095E-02	1.799221E-04
4.850789E+03	2.278000E-02	1.802312E-04
4.851112E+03	2.282021E-02	1.805493E-04
4.851435E+03	2.286041E-02	1.808673E-04
4.851760E+03	2.289947E-02	1.811764E-04
4.852083E+03	2.293853E-02	1.814854E-04
4.852407E+03	2.297873E-02	1.818034E-04
4.852731E+03	2.302009E-02	1.821307E-04
4.853054E+03	2.305914E-02	1.824396E-04
4.853378E+03	2.309589E-02	1.827304E-04
4.853701E+03	2.313149E-02	1.830120E-04
4.854026E+03	2.317053E-02	1.833210E-04
4.854349E+03	2.321189E-02	1.836482E-04
4.854673E+03	2.325094E-02	1.839571E-04
4.854997E+03	2.328884E-02	1.842570E-04
4.855320E+03	2.332674E-02	1.845568E-04
4.855644E+03	2.336349E-02	1.848476E-04
4.855967E+03	2.340139E-02	1.851474E-04
4.856292E+03	2.344158E-02	1.854654E-04
4.856615E+03	2.348063E-02	1.857744E-04
4.856938E+03	2.351853E-02	1.860743E-04
4.857263E+03	2.355412E-02	1.863558E-04
4.857586E+03	2.358971E-02	1.866374E-04
4.857910E+03	2.362761E-02	1.869373E-04
4.858233E+03	2.366550E-02	1.872371E-04
4.858558E+03	2.370225E-02	1.875278E-04
4.858881E+03	2.373899E-02	1.878185E-04
4.859204E+03	2.377458E-02	1.881001E-04
4.859529E+03	2.381017E-02	1.883817E-04
4.859852E+03	2.384576E-02	1.886632E-04
4.860176E+03	2.388250E-02	1.889539E-04
4.860500E+03	2.391809E-02	1.892355E-04
4.860823E+03	2.395253E-02	1.895080E-04
4.861147E+03	2.398466E-02	1.897621E-04
4.861470E+03	2.401795E-02	1.900255E-04
4.861795E+03	2.405123E-02	1.902889E-04
4.862118E+03	2.408451E-02	1.905522E-04
4.862442E+03	2.411550E-02	1.907973E-04
4.862766E+03	2.414648E-02	1.910424E-04
4.863089E+03	2.417860E-02	1.912966E-04
4.863413E+03	2.421073E-02	1.915508E-04
4.863736E+03	2.424287E-02	1.918051E-04
4.864061E+03	2.427385E-02	1.920502E-04
4.864384E+03	2.430367E-02	1.922861E-04
4.864708E+03	2.433350E-02	1.925221E-04
4.865032E+03	2.436332E-02	1.927581E-04
4.865355E+03	2.439315E-02	1.929941E-04
4.865679E+03	2.442413E-02	1.932392E-04
4.866002E+03	2.445280E-02	1.934660E-04
4.866327E+03	2.448147E-02	1.936928E-04
4.866650E+03	2.451014E-02	1.939197E-04
4.866973E+03	2.453767E-02	1.941375E-04
4.867298E+03	2.456633E-02	1.943643E-04
4.867621E+03	2.459270E-02	1.945729E-04
4.867945E+03	2.461677E-02	1.947633E-04
4.868268E+03	2.464199E-02	1.949628E-04
4.868593E+03	2.466490E-02	1.951441E-04
4.868916E+03	2.468666E-02	1.953163E-04
4.869239E+03	2.471188E-02	1.955158E-04
4.869564E+03	2.473594E-02	1.957062E-04
4.869887E+03	2.475885E-02	1.958874E-04
4.870211E+03	2.477946E-02	1.960505E-04
4.870535E+03	2.479892E-02	1.962044E-04
4.870858E+03	2.481722E-02	1.963493E-04
4.871182E+03	2.483553E-02	1.964941E-04
4.871505E+03	2.485498E-02	1.966480E-04
4.871830E+03	2.487214E-02	1.967838E-04
4.872153E+03	2.489044E-02	1.969286E-04
4.872477E+03	2.490875E-02	1.970734E-04
4.872801E+03	2.492705E-02	1.972182E-04
4.873124E+03	2.494306E-02	1.973448E-04
4.873448E+03	2.495445E-02	1.974350E-04
4.873771E+03	2.496585E-02	1.975252E-04
4.874096E+03	2.497954E-02	1.976335E-04
4.874419E+03	2.499324E-02	1.977419E-04
4.874742E+03	2.500693E-02	1.978502E-04
4.875067E+03	2.501948E-02	1.979495E-04
4.875390E+03	2.503203E-02	1.980488E-04
4.875714E+03	2.504342E-02	1.981389E-04
4.876037E+03	2.505597E-02	1.982382E-04
4.876362E+03	2.506736E-02	1.983283E-04
4.876685E+03	2.507645E-02	1.984002E-04
4.877009E+03	2.508324E-02	1.984539E-04
4.877333E+03	2.509118E-02	1.985168E-04
4.877656E+03	2.510142E-02	1.985978E-04
4.877980E+03	2.511051E-02	1.986697E-04
4.878304E+03	2.511960E-02	1.987416E-04
4.878627E+03	2.512409E-02	1.987771E-04
4.878951E+03	2.512627E-02	1.987944E-04
4.879274E+03	2.512845E-02	1.988116E-04
4.879599E+03	2.513293E-02	1.988471E-04
4.879922E+03	2.513742E-02	1.988826E-04
4.880246E+03	2.513730E-02	1.988816E-04
4.880570E+03	2.513602E-02	1.988715E-04
4.880894E+03	2.513591E-02	1.988706E-04
4.881217E+03	2.513578E-02	1.988697E-04
4.881540E+03	2.513451E-02	1.988595E-04
4.881865E+03	2.513438E-02	1.988586E-04
4.882188E+03	2.513311E-02	1.988485E-04
4.882512E+03	2.512839E-02	1.988111E-04
4.882836E+03	2.512250E-02	1.987646E-04
4.883159E+03	2.511433E-02	1.986999E-04
4.883483E+03	2.510614E-02	1.986352E-04
4.883806E+03	2.509797E-02	1.985705E-04
4.884131E+03	2.508864E-02	1.984967E-04
4.884454E+03	2.508045E-02	1.984319E-04
4.884777E+03	2.506882E-02	1.983399E-04
4.885102E+03	2.505719E-02	1.982478E-04
4.885425E+03	2.504786E-02	1.981740E-04
4.885749E+03	2.503737E-02	1.980910E-04
4.886073E+03	2.502574E-02	1.979990E-04
4.886397E+03	2.501410E-02	1.979069E-04
4.886720E+03	2.500017E-02	1.977967E-04
4.887043E+03	2.498623E-02	1.976864E-04
4.887368E+03	2.497114E-02	1.975671E-04
4.887691E+03	2.495491E-02	1.974386E-04
4.888015E+03	2.493982E-02	1.973193E-04
4.888339E+03	2.492473E-02	1.971999E-04
4.888662E+03	2.490504E-02	1.970441E-04
4.888986E+03	2.488766E-02	1.969065E-04
4.889309E+03	2.486796E-02	1.967507E-04
4.889634E+03	2.484482E-02	1.965676E-04
4.889957E+03	2.482398E-02	1.964027E-04
4.890281E+03	2.480544E-02	1.962560E-04
4.890605E+03	2.478230E-02	1.960729E-04
4.890928E+03	2.475915E-02	1.958898E-04
4.891252E+03	2.473486E-02	1.956976E-04
4.891575E+03	2.470595E-02	1.954689E-04
4.891900E+03	2.467475E-02	1.952220E-04
4.892223E+03	2.464586E-02	1.949935E-04
4.892546E+03	2.461811E-02	1.947739E-04
4.892871E+03	2.458921E-02	1.945453E-04
4.893194E+03	2.455801E-02	1.942984E-04
4.893518E+03	2.452566E-02	1.940424E-04
4.893841E+03	2.449331E-02	1.937865E-04
4.894166E+03	2.446210E-02	1.935396E-04
4.894489E+03	2.442745E-02	1.932655E-04
4.894812E+03	2.439050E-02	1.929731E-04
4.895137E+03	2.435585E-02	1.926990E-04
4.895460E+03	2.432120E-02	1.924248E-04
4.895784E+03	2.428309E-02	1.921233E-04
4.896108E+03	2.424153E-02	1.917945E-04
4.896431E+03	2.420228E-02	1.914839E-04
4.896755E+03	2.416188E-02	1.911643E-04
4.897078E+03	2.412032E-02	1.908355E-04
4.897403E+03	2.407877E-02	1.905067E-04
4.897726E+03	2.403951E-02	1.901962E-04
4.898050E+03	2.399680E-02	1.898582E-04
4.898374E+03	2.395064E-02	1.894930E-04
4.898698E+03	2.390564E-02	1.891370E-04
4.899021E+03	2.386064E-02	1.887809E-04
4.899344E+03	2.381908E-02	1.884522E-04
4.899669E+03	2.377522E-02	1.881052E-04
4.899992E+03	2.372907E-02	1.877400E-04
4.900316E+03	2.368176E-02	1.873657E-04
4.900640E+03	2.363445E-02	1.869914E-04
4.900963E+03	2.358600E-02	1.866080E-04
4.901287E+03	2.353754E-02	1.862246E-04
4.901610E+03	2.349138E-02	1.858595E-04
4.901935E+03	2.344292E-02	1.854761E-04
4.902258E+03	2.339562E-02	1.851018E-04
4.902582E+03	2.334832E-02	1.847276E-04
4.902906E+03	2.330102E-02	1.843533E-04
4.903229E+03	2.325256E-02	1.839699E-04
4.903553E+03	2.320295E-02	1.835775E-04
4.903877E+03	2.315220E-02	1.831759E-04
4.904201E+03	2.310489E-02	1.828016E-04
4.904524E+03	2.305644E-02	1.824183E-04
4.904847E+03	2.300684E-02	1.820259E-04
4.905172E+03	2.295724E-02	1.816334E-04
4.905495E+03	2.290533E-02	1.812228E-04
4.905819E+03	2.285113E-02	1.807939E-04
4.906143E+03	2.279922E-02	1.803832E-04
4.906467E+03	2.274502E-02	1.799544E-04
4.906790E+03	2.269082E-02	1.795256E-04
4.907113E+03	2.263892E-02	1.791149E-04
4.907438E+03	2.258471E-02	1.786861E-04
4.907761E+03	2.253051E-02	1.782572E-04
4.908085E+03	2.247976E-02	1.778557E-04
4.908409E+03	2.242786E-02	1.774451E-04
4.908732E+03	2.237367E-02	1.770163E-04
4.909056E+03	2.231832E-02	1.765784E-04
4.909379E+03	2.226411E-02	1.761495E-04
4.909704E+03	2.221106E-02	1.757298E-04
4.910027E+03	2.215802E-02	1.753101E-04
4.910351E+03	2.210267E-02	1.748722E-04
4.910675E+03	2.205192E-02	1.744707E-04
4.910998E+03	2.200118E-02	1.740692E-04
4.911322E+03	2.194928E-02	1.736586E-04
4.911645E+03	2.189969E-02	1.732663E-04
4.911970E+03	2.184779E-02	1.728557E-04
4.912293E+03	2.179475E-02	1.724360E-04
4.912616E+03	2.174055E-02	1.720072E-04
4.912941E+03	2.168636E-02	1.715785E-04
4.913264E+03	2.163562E-02	1.711770E-04
4.913588E+03	2.158487E-02	1.707755E-04
4.913912E+03	2.153414E-02	1.703741E-04
4.914236E+03	2.148224E-02	1.699635E-04
4.914559E+03	2.143151E-02	1.695621E-04
4.914882E+03	2.138421E-02	1.691879E-04
4.915207E+03	2.133923E-02	1.688320E-04
4.915530E+03	2.129425E-02	1.684761E-04
4.915854E+03	2.124927E-02	1.681202E-04
4.916178E+03	2.120543E-02	1.677734E-04
4.916502E+03	2.116160E-02	1.674267E-04
4.916825E+03	2.111777E-02	1.670798E-04
4.917148E+03	2.107739E-02	1.667604E-04
4.917473E+03	2.103816E-02	1.664500E-04
4.917796E+03	2.099663E-02	1.661214E-04
4.918120E+03	2.095395E-02	1.657838E-04
4.918444E+03	2.091127E-02	1.654461E-04
4.918767E+03	2.087089E-02	1.651266E-04
4.919091E+03	2.083166E-02	1.648162E-04
4.919414E+03	2.079128E-02	1.644968E-04
4.919739E+03	2.074861E-02	1.641591E-04
4.920062E+03	2.070364E-02	1.638033E-04
4.920386E+03	2.066210E-02	1.634747E-04
4.920710E+03	2.062403E-02	1.631735E-04
4.921033E+03	2.058251E-02	1.628450E-04
4.921357E+03	2.054328E-02	1.625347E-04
4.921681E+03	2.050521E-02	1.622334E-04
4.922005E+03	2.046944E-02	1.619504E-04
4.922328E+03	2.043481E-02	1.616764E-04
4.922651E+03	2.039789E-02	1.613843E-04
4.922976E+03	2.036327E-02	1.611105E-04
4.923299E+03	2.033095E-02	1.608547E-04
4.923623E+03	2.029633E-02	1.605808E-04
4.923947E+03	2.026402E-02	1.603252E-04
