#wls	flux	fluxerr
1.596504E+03	1.844852E-04	1.322100E-05
1.636416E+03	1.817073E-04	1.296752E-05
1.676329E+03	1.785523E-04	1.268755E-05
1.716241E+03	1.746607E-04	1.235606E-05
1.756154E+03	1.702445E-04	1.198873E-05
1.796067E+03	1.650053E-04	1.156523E-05
1.835979E+03	1.592073E-04	1.110492E-05
1.875892E+03	1.527884E-04	1.060416E-05
1.915804E+03	1.458888E-04	1.007344E-05
1.955717E+03	1.387265E-04	9.528368E-06
1.995630E+03	1.316861E-04	8.995687E-06
2.035542E+03	1.250110E-04	8.491965E-06
2.075455E+03	1.191675E-04	8.048427E-06
2.115367E+03	1.145388E-04	7.689975E-06
2.155280E+03	1.114367E-04	7.436065E-06
2.195193E+03	1.103119E-04	7.314782E-06
2.235105E+03	1.115884E-04	7.351580E-06
2.275018E+03	1.155431E-04	7.561449E-06
2.314930E+03	1.225283E-04	7.963624E-06
2.354843E+03	1.329778E-04	8.581797E-06
2.394755E+03	1.472505E-04	9.433853E-06
2.434668E+03	1.656611E-04	1.053397E-05
2.474581E+03	1.885151E-04	1.189489E-05
2.514493E+03	2.157281E-04	1.350403E-05
2.554406E+03	2.472498E-04	1.535084E-05
2.594318E+03	2.824730E-04	1.739029E-05
2.634231E+03	3.205794E-04	1.956545E-05
2.674144E+03	3.606086E-04	2.181233E-05
2.714056E+03	4.014047E-04	2.405714E-05
2.753969E+03	4.421634E-04	2.624946E-05
2.793881E+03	4.819846E-04	2.833502E-05
2.833794E+03	5.200790E-04	3.026811E-05
2.873707E+03	5.560287E-04	3.202638E-05
2.913619E+03	5.896331E-04	3.360100E-05
2.953532E+03	6.209427E-04	3.499794E-05
2.993444E+03	6.505098E-04	3.625117E-05
3.003423E+03	6.575738E-04	3.653921E-05
3.013401E+03	6.647077E-04	3.682836E-05
3.023379E+03	6.717130E-04	3.710763E-05
3.033357E+03	6.788071E-04	3.738902E-05
3.043335E+03	6.860009E-04	3.767309E-05
3.053313E+03	6.931046E-04	3.794936E-05
3.063291E+03	7.001362E-04	3.821886E-05
3.073270E+03	7.075154E-04	3.850445E-05
3.083248E+03	7.148590E-04	3.878515E-05
3.093226E+03	7.223880E-04	3.907291E-05
3.103204E+03	7.301236E-04	3.936877E-05
3.113182E+03	7.380885E-04	3.967382E-05
3.123160E+03	7.463072E-04	3.998926E-05
3.133138E+03	7.548053E-04	4.031629E-05
3.143117E+03	7.638005E-04	4.066635E-05
3.153095E+03	7.729375E-04	4.102032E-05
3.163073E+03	7.826254E-04	4.139974E-05
3.173051E+03	7.927024E-04	4.179577E-05
3.183029E+03	8.033836E-04	4.221950E-05
3.193007E+03	8.146948E-04	4.267194E-05
3.202985E+03	8.264770E-04	4.314443E-05
3.212964E+03	8.387575E-04	4.363815E-05
3.222942E+03	8.519268E-04	4.417302E-05
3.232920E+03	8.656401E-04	4.473076E-05
3.242898E+03	8.802805E-04	4.533077E-05
3.252876E+03	8.955008E-04	4.595470E-05
3.262854E+03	9.116748E-04	4.662134E-05
3.272832E+03	9.288083E-04	4.733042E-05
3.282811E+03	9.465446E-04	4.806330E-05
3.292789E+03	9.654171E-04	4.884659E-05
3.302767E+03	9.848797E-04	4.965212E-05
3.312745E+03	1.005449E-03	5.050545E-05
3.322723E+03	1.026918E-03	5.139563E-05
3.332701E+03	1.049252E-03	5.232034E-05
3.342680E+03	1.072404E-03	5.327673E-05
3.352658E+03	1.096490E-03	5.427009E-05
3.362636E+03	1.121260E-03	5.528750E-05
3.372614E+03	1.146623E-03	5.632403E-05
3.382592E+03	1.172824E-03	5.739139E-05
3.392570E+03	1.199560E-03	5.847417E-05
3.402548E+03	1.226686E-03	5.956505E-05
3.412527E+03	1.254217E-03	6.066446E-05
3.422505E+03	1.281809E-03	6.175555E-05
3.432483E+03	1.309468E-03	6.283856E-05
3.442461E+03	1.337034E-03	6.390574E-05
3.452439E+03	1.364370E-03	6.495054E-05
3.462417E+03	1.391542E-03	6.597622E-05
3.472395E+03	1.418314E-03	6.697164E-05
3.482374E+03	1.445009E-03	6.795227E-05
3.492352E+03	1.471318E-03	6.890355E-05
3.502330E+03	1.497487E-03	6.983715E-05
3.512308E+03	1.523794E-03	7.076609E-05
3.522286E+03	1.550379E-03	7.169666E-05
3.532264E+03	1.577408E-03	7.263631E-05
3.542242E+03	1.604900E-03	7.358565E-05
3.552221E+03	1.633381E-03	7.456834E-05
3.562199E+03	1.663057E-03	7.559318E-05
3.572177E+03	1.693984E-03	7.666186E-05
3.582155E+03	1.726539E-03	7.779064E-05
3.592133E+03	1.760934E-03	7.898799E-05
3.602111E+03	1.797204E-03	8.025439E-05
3.612090E+03	1.835813E-03	8.160920E-05
3.622068E+03	1.876687E-03	8.304775E-05
3.632046E+03	1.919807E-03	8.456776E-05
3.642024E+03	1.965174E-03	8.616785E-05
3.652002E+03	2.012166E-03	8.781949E-05
3.661980E+03	2.060436E-03	8.950654E-05
3.671958E+03	2.109296E-03	9.119844E-05
3.681937E+03	2.158039E-03	9.286435E-05
3.691915E+03	2.205393E-03	9.444975E-05
3.701893E+03	2.250352E-03	9.591270E-05
3.711871E+03	2.292145E-03	9.722186E-05
3.721849E+03	2.330090E-03	9.835036E-05
3.731827E+03	2.363605E-03	9.927616E-05
3.741805E+03	2.393199E-03	1.000232E-04
3.751784E+03	2.419555E-03	1.006224E-04
3.761762E+03	2.444016E-03	1.011313E-04
3.771740E+03	2.468843E-03	1.016442E-04
3.781718E+03	2.496734E-03	1.022713E-04
3.791696E+03	2.530758E-03	1.031358E-04
3.801674E+03	2.574544E-03	1.043811E-04
3.811652E+03	2.632050E-03	1.061605E-04
3.821631E+03	2.707370E-03	1.086297E-04
3.831609E+03	2.805051E-03	1.119591E-04
3.841587E+03	2.929616E-03	1.163138E-04
3.851565E+03	3.085436E-03	1.218496E-04
3.861543E+03	3.276696E-03	1.287110E-04
3.871521E+03	3.507580E-03	1.370389E-04
3.881500E+03	3.780893E-03	1.469170E-04
3.891478E+03	4.098592E-03	1.583940E-04
3.901456E+03	4.460436E-03	1.714323E-04
3.911434E+03	4.864044E-03	1.859127E-04
3.921412E+03	5.303565E-03	2.015861E-04
3.931390E+03	5.770702E-03	2.181159E-04
3.941368E+03	6.254366E-03	2.350677E-04
3.951347E+03	6.741555E-03	2.519450E-04
3.961325E+03	7.219574E-03	2.682738E-04
3.971303E+03	7.676742E-03	2.836284E-04
3.981281E+03	8.104283E-03	2.976999E-04
3.991259E+03	8.496609E-03	3.103032E-04
4.001237E+03	8.851097E-03	3.213658E-04
4.011215E+03	9.166688E-03	3.308737E-04
4.021194E+03	9.443296E-03	3.388490E-04
4.031172E+03	9.678089E-03	3.452159E-04
4.041150E+03	9.866256E-03	3.498305E-04
4.051128E+03	1.000037E-02	3.524613E-04
4.061106E+03	1.007011E-02	3.527814E-04
4.071084E+03	1.006517E-02	3.504731E-04
4.081062E+03	9.977905E-03	3.453199E-04
4.091041E+03	9.804647E-03	3.372479E-04
4.101019E+03	9.548841E-03	3.264297E-04
4.110997E+03	9.219576E-03	3.132266E-04
4.120975E+03	8.830829E-03	2.981570E-04
4.130953E+03	8.400893E-03	2.818721E-04
4.140931E+03	7.949408E-03	2.650526E-04
4.150910E+03	7.495069E-03	2.483313E-04
4.160888E+03	7.054833E-03	2.322679E-04
4.170866E+03	6.642983E-03	2.173205E-04
4.180844E+03	6.270348E-03	2.038229E-04
4.190822E+03	5.945007E-03	1.920112E-04
4.200800E+03	5.672712E-03	1.820401E-04
4.210778E+03	5.457255E-03	1.739974E-04
4.220757E+03	5.301244E-03	1.679300E-04
4.230735E+03	5.207198E-03	1.638805E-04
4.240713E+03	5.177029E-03	1.618704E-04
4.250691E+03	5.212871E-03	1.619269E-04
4.260669E+03	5.315795E-03	1.640428E-04
4.270647E+03	5.485761E-03	1.681765E-04
4.280625E+03	5.720516E-03	1.742191E-04
4.290604E+03	6.015300E-03	1.819884E-04
4.300582E+03	6.360903E-03	1.911722E-04
4.310560E+03	6.743507E-03	2.013289E-04
4.320538E+03	7.142946E-03	2.118396E-04
4.330516E+03	7.533202E-03	2.219293E-04
4.340494E+03	7.883405E-03	2.307016E-04
4.350472E+03	8.162182E-03	2.372695E-04
4.360451E+03	8.345355E-03	2.409779E-04
4.370429E+03	8.423274E-03	2.416066E-04
4.380407E+03	8.401679E-03	2.393806E-04
4.390385E+03	8.299150E-03	2.348830E-04
4.400363E+03	8.142627E-03	2.289173E-04
4.410341E+03	7.962284E-03	2.223565E-04
4.420320E+03	7.787154E-03	2.160189E-04
4.430298E+03	7.643816E-03	2.106337E-04
4.440276E+03	7.555640E-03	2.068227E-04
4.450254E+03	7.543490E-03	2.051229E-04
4.460232E+03	7.625856E-03	2.059927E-04
4.470210E+03	7.820237E-03	2.098514E-04
4.480188E+03	8.142520E-03	2.170637E-04
4.490167E+03	8.607191E-03	2.279475E-04
4.500145E+03	9.225974E-03	2.427392E-04
4.510123E+03	1.000550E-02	2.615354E-04
4.520101E+03	1.094524E-02	2.842442E-04
4.530079E+03	1.203436E-02	3.105097E-04
4.540057E+03	1.324976E-02	3.396704E-04
4.550035E+03	1.455556E-02	3.707556E-04
4.560014E+03	1.590449E-02	4.025317E-04
4.569992E+03	1.724104E-02	4.335887E-04
4.579970E+03	1.850614E-02	4.624638E-04
4.589948E+03	1.964025E-02	4.877192E-04
4.599926E+03	2.058722E-02	5.080377E-04
4.609904E+03	2.129669E-02	5.222759E-04
4.619882E+03	2.172770E-02	5.295493E-04
4.629861E+03	2.185080E-02	5.292738E-04
4.639839E+03	2.165162E-02	5.212426E-04
4.649817E+03	2.113504E-02	5.057149E-04
4.659795E+03	2.032601E-02	4.834204E-04
4.669773E+03	1.926891E-02	4.555308E-04
4.679751E+03	1.802499E-02	4.235862E-04
4.689729E+03	1.666633E-02	3.893425E-04
4.699708E+03	1.527072E-02	3.546466E-04
4.709686E+03	1.391773E-02	3.213433E-04
4.719664E+03	1.268355E-02	2.911566E-04
4.729642E+03	1.163568E-02	2.655731E-04
4.739620E+03	1.082326E-02	2.456286E-04
4.749598E+03	1.027662E-02	2.319114E-04
4.759577E+03	1.001133E-02	2.246663E-04
4.769555E+03	1.003276E-02	2.239056E-04
4.779533E+03	1.033977E-02	2.294978E-04
4.789511E+03	1.092457E-02	2.411684E-04
4.799489E+03	1.176972E-02	2.584384E-04
4.809467E+03	1.284165E-02	2.804873E-04
4.819445E+03	1.408721E-02	3.060881E-04
4.829424E+03	1.543456E-02	3.336353E-04
4.839402E+03	1.680146E-02	3.613333E-04
4.849380E+03	1.810513E-02	3.874115E-04
4.859358E+03	1.927238E-02	4.103380E-04
4.869336E+03	2.024813E-02	4.289950E-04
4.879314E+03	2.100210E-02	4.428083E-04
4.889292E+03	2.153048E-02	4.517693E-04
4.899271E+03	2.185436E-02	4.563886E-04
4.909249E+03	2.201580E-02	4.576023E-04
4.919227E+03	2.206956E-02	4.565906E-04
4.929205E+03	2.207302E-02	4.545658E-04
4.939183E+03	2.207347E-02	4.525108E-04
4.949161E+03	2.209434E-02	4.509038E-04
4.959139E+03	2.212820E-02	4.495872E-04
4.969118E+03	2.213559E-02	4.477588E-04
4.979096E+03	2.205320E-02	4.441497E-04
4.989074E+03	2.180643E-02	4.372868E-04
4.999052E+03	2.133145E-02	4.259362E-04
5.009030E+03	2.059579E-02	4.095092E-04
5.019008E+03	1.961425E-02	3.883610E-04
5.028987E+03	1.844538E-02	3.637037E-04
5.038965E+03	1.717746E-02	3.373126E-04
5.048943E+03	1.590844E-02	3.111226E-04
5.058921E+03	1.472933E-02	2.869020E-04
5.068899E+03	1.371150E-02	2.660105E-04
5.078877E+03	1.290403E-02	2.493550E-04
5.088855E+03	1.233371E-02	2.374004E-04
5.098834E+03	1.200871E-02	2.302475E-04
5.108812E+03	1.192239E-02	2.277132E-04
5.118790E+03	1.205663E-02	2.293994E-04
5.128768E+03	1.238329E-02	2.347251E-04
5.138746E+03	1.286362E-02	2.429178E-04
5.148724E+03	1.344870E-02	2.530257E-04
5.158702E+03	1.408384E-02	2.640031E-04
5.168681E+03	1.471352E-02	2.748045E-04
5.178659E+03	1.528905E-02	2.845267E-04
5.188637E+03	1.577515E-02	2.925281E-04
5.198615E+03	1.615481E-02	2.985132E-04
5.208593E+03	1.642997E-02	3.025401E-04
5.218571E+03	1.661889E-02	3.049649E-04
5.228549E+03	1.675043E-02	3.063323E-04
5.238528E+03	1.685814E-02	3.072653E-04
5.248506E+03	1.697349E-02	3.083404E-04
5.258484E+03	1.712183E-02	3.100160E-04
5.268462E+03	1.731982E-02	3.125872E-04
5.278440E+03	1.757479E-02	3.161786E-04
5.288418E+03	1.788452E-02	3.207415E-04
5.298397E+03	1.823822E-02	3.260750E-04
5.308375E+03	1.861864E-02	3.318660E-04
5.318353E+03	1.900375E-02	3.377206E-04
5.328331E+03	1.936817E-02	3.431898E-04
5.338309E+03	1.968611E-02	3.478231E-04
5.348287E+03	1.993229E-02	3.511839E-04
5.358265E+03	2.008613E-02	3.529230E-04
5.368244E+03	2.013492E-02	3.528320E-04
5.378222E+03	2.007682E-02	3.508946E-04
5.388200E+03	1.992340E-02	3.473277E-04
5.398178E+03	1.970090E-02	3.426002E-04
5.408156E+03	1.944786E-02	3.373897E-04
5.418134E+03	1.920836E-02	3.324625E-04
5.428112E+03	1.902178E-02	3.284964E-04
5.438091E+03	1.891460E-02	3.259417E-04
5.448069E+03	1.890283E-02	3.250643E-04
5.458047E+03	1.899663E-02	3.260282E-04
5.468025E+03	1.919763E-02	3.288508E-04
5.478003E+03	1.949469E-02	3.333318E-04
5.487981E+03	1.985148E-02	3.388438E-04
5.497959E+03	2.020370E-02	3.442863E-04
5.507938E+03	2.047530E-02	3.483663E-04
5.517916E+03	2.060415E-02	3.500343E-04
5.527894E+03	2.055976E-02	3.487829E-04
5.537872E+03	2.035061E-02	3.447667E-04
5.547850E+03	2.001937E-02	3.387171E-04
5.557828E+03	1.963133E-02	3.317429E-04
5.567807E+03	1.925853E-02	3.250610E-04
5.577785E+03	1.896426E-02	3.197352E-04
5.587763E+03	1.879336E-02	3.165143E-04
5.597741E+03	1.876798E-02	3.157624E-04
5.607719E+03	1.888655E-02	3.174447E-04
5.617697E+03	1.912341E-02	3.211220E-04
5.627675E+03	1.943213E-02	3.260090E-04
5.637654E+03	1.975087E-02	3.310653E-04
5.647632E+03	2.000945E-02	3.351147E-04
5.657610E+03	2.013913E-02	3.370086E-04
5.667588E+03	2.008301E-02	3.358001E-04
5.677566E+03	1.980626E-02	3.309140E-04
5.687544E+03	1.930041E-02	3.222159E-04
5.697522E+03	1.858417E-02	3.100257E-04
5.707501E+03	1.769945E-02	2.950487E-04
5.717479E+03	1.670519E-02	2.782717E-04
5.727457E+03	1.567023E-02	2.608433E-04
5.737435E+03	1.466414E-02	2.439216E-04
5.747413E+03	1.375198E-02	2.285860E-04
5.757391E+03	1.298851E-02	2.157424E-04
5.767369E+03	1.241789E-02	2.061180E-04
5.777348E+03	1.207245E-02	2.002418E-04
5.787326E+03	1.197431E-02	1.984723E-04
5.797304E+03	1.213647E-02	2.010161E-04
5.807282E+03	1.256367E-02	2.079420E-04
5.817260E+03	1.324949E-02	2.191338E-04
5.827238E+03	1.417142E-02	2.342102E-04
5.837216E+03	1.528745E-02	2.524686E-04
5.847195E+03	1.653418E-02	2.728551E-04
5.857173E+03	1.783096E-02	2.940346E-04
5.867151E+03	1.908712E-02	3.145108E-04
5.877129E+03	2.021434E-02	3.328310E-04
5.887107E+03	2.113996E-02	3.478043E-04
5.897085E+03	2.181776E-02	3.586787E-04
5.907064E+03	2.223051E-02	3.651805E-04
5.917042E+03	2.238967E-02	3.675082E-04
5.927020E+03	2.232709E-02	3.661946E-04
5.936998E+03	2.208776E-02	3.619859E-04
5.946976E+03	2.172009E-02	3.556823E-04
5.956954E+03	2.127035E-02	3.480462E-04
5.966932E+03	2.077789E-02	3.397247E-04
5.976911E+03	2.027404E-02	3.312320E-04
5.986889E+03	1.978154E-02	3.229401E-04
5.996867E+03	1.931716E-02	3.151226E-04
6.006845E+03	1.889225E-02	3.079643E-04
6.016823E+03	1.851560E-02	3.016072E-04
6.026801E+03	1.819352E-02	2.961529E-04
6.036779E+03	1.793170E-02	2.916926E-04
6.046758E+03	1.773342E-02	2.882782E-04
6.056736E+03	1.760035E-02	2.859356E-04
6.066714E+03	1.753107E-02	2.846403E-04
6.076692E+03	1.752164E-02	2.843278E-04
6.086670E+03	1.756602E-02	2.848989E-04
6.096648E+03	1.765666E-02	2.862314E-04
6.106626E+03	1.778619E-02	2.882061E-04
6.116605E+03	1.794776E-02	2.907123E-04
6.126583E+03	1.813625E-02	2.936683E-04
6.136561E+03	1.834627E-02	2.969883E-04
6.146539E+03	1.857006E-02	3.005479E-04
6.156517E+03	1.879507E-02	3.041460E-04
6.166495E+03	1.900407E-02	3.075059E-04
6.176474E+03	1.917881E-02	3.103345E-04
6.186452E+03	1.931088E-02	3.124973E-04
6.196430E+03	1.940480E-02	3.140696E-04
6.206408E+03	1.946789E-02	3.151712E-04
6.216386E+03	1.950083E-02	3.158139E-04
6.226364E+03	1.949464E-02	3.158515E-04
6.236342E+03	1.943146E-02	3.149937E-04
6.246321E+03	1.928859E-02	3.128701E-04
6.256299E+03	1.904083E-02	3.090687E-04
6.266277E+03	1.866338E-02	3.031817E-04
6.276255E+03	1.813519E-02	2.948599E-04
6.286233E+03	1.744431E-02	2.839003E-04
6.296211E+03	1.659289E-02	2.703270E-04
6.306189E+03	1.560088E-02	2.544534E-04
6.316168E+03	1.450676E-02	2.368960E-04
6.326146E+03	1.336425E-02	2.185224E-04
6.336124E+03	1.223556E-02	2.003433E-04
6.346102E+03	1.118190E-02	1.833587E-04
6.356080E+03	1.025576E-02	1.684316E-04
6.366058E+03	9.497745E-03	1.562359E-04
6.376036E+03	8.936118E-03	1.472475E-04
6.386015E+03	8.590638E-03	1.418069E-04
6.395993E+03	8.476732E-03	1.401867E-04
6.405971E+03	8.609771E-03	1.426625E-04
6.415949E+03	9.006190E-03	1.495313E-04
6.425927E+03	9.683484E-03	1.611120E-04
6.435905E+03	1.065531E-02	1.776644E-04
6.445884E+03	1.192426E-02	1.992670E-04
6.455862E+03	1.347266E-02	2.256615E-04
6.465840E+03	1.525690E-02	2.561524E-04
6.475818E+03	1.721354E-02	2.897048E-04
6.485796E+03	1.927799E-02	3.252550E-04
6.495774E+03	2.141034E-02	3.621453E-04
6.505752E+03	2.361329E-02	4.004343E-04
6.515731E+03	2.591245E-02	4.405698E-04
6.525709E+03	2.827821E-02	4.820622E-04
6.535687E+03	3.057297E-02	5.225711E-04
6.545665E+03	3.259285E-02	5.585932E-04
6.555643E+03	3.413930E-02	5.866790E-04
6.565621E+03	3.507522E-02	6.043995E-04
6.575599E+03	3.535557E-02	6.108888E-04
6.585578E+03	3.502577E-02	6.068392E-04
6.595556E+03	3.419580E-02	5.940725E-04
6.605534E+03	3.300630E-02	5.749651E-04
6.615512E+03	3.159594E-02	5.518860E-04
6.625490E+03	3.008342E-02	5.268809E-04
6.635468E+03	2.855852E-02	5.015106E-04
6.645446E+03	2.708023E-02	4.768114E-04
6.655425E+03	2.568563E-02	4.534434E-04
6.665403E+03	2.439280E-02	4.317383E-04
6.675381E+03	2.320920E-02	4.118427E-04
6.685359E+03	2.213631E-02	3.937978E-04
6.695337E+03	2.117211E-02	3.775829E-04
6.705315E+03	2.031332E-02	3.631545E-04
6.715294E+03	1.955580E-02	3.504527E-04
6.725272E+03	1.889372E-02	3.393865E-04
6.735250E+03	1.831987E-02	3.298386E-04
6.745228E+03	1.782476E-02	3.216490E-04
6.755206E+03	1.739669E-02	3.146167E-04
6.765184E+03	1.702141E-02	3.084912E-04
6.775162E+03	1.668418E-02	3.030117E-04
6.785141E+03	1.637010E-02	2.979116E-04
6.795119E+03	1.606580E-02	2.929499E-04
6.805097E+03	1.576085E-02	2.879375E-04
6.815075E+03	1.544959E-02	2.827712E-04
6.825053E+03	1.513104E-02	2.774328E-04
6.835031E+03	1.480891E-02	2.719907E-04
6.845009E+03	1.449132E-02	2.665946E-04
6.854988E+03	1.418944E-02	2.614511E-04
6.864966E+03	1.391520E-02	2.567829E-04
6.874944E+03	1.368041E-02	2.528110E-04
6.884922E+03	1.349490E-02	2.497212E-04
6.894900E+03	1.336602E-02	2.476538E-04
6.904878E+03	1.329693E-02	2.466716E-04
6.914856E+03	1.328692E-02	2.467658E-04
6.924835E+03	1.333175E-02	2.478608E-04
6.934813E+03	1.342332E-02	2.498091E-04
6.944791E+03	1.355019E-02	2.523994E-04
6.954769E+03	1.369875E-02	2.553793E-04
6.964747E+03	1.385407E-02	2.584704E-04
6.974725E+03	1.400024E-02	2.613753E-04
6.984703E+03	1.412279E-02	2.638226E-04
6.994682E+03	1.420877E-02	2.655690E-04
7.004660E+03	1.424845E-02	2.664312E-04
7.014638E+03	1.423687E-02	2.663150E-04
7.024616E+03	1.417321E-02	2.652042E-04
7.034594E+03	1.406202E-02	2.631832E-04
7.044572E+03	1.391258E-02	2.604258E-04
7.054551E+03	1.373737E-02	2.571663E-04
7.064529E+03	1.355118E-02	2.536818E-04
7.074507E+03	1.336844E-02	2.502439E-04
7.084485E+03	1.320224E-02	2.470982E-04
7.094463E+03	1.306265E-02	2.444339E-04
7.104441E+03	1.295648E-02	2.423791E-04
7.114419E+03	1.288579E-02	2.409724E-04
7.124398E+03	1.284943E-02	2.401920E-04
7.134376E+03	1.284318E-02	2.399588E-04
7.144354E+03	1.286071E-02	2.401541E-04
7.154332E+03	1.289511E-02	2.406486E-04
7.164310E+03	1.294026E-02	2.413277E-04
7.174288E+03	1.299132E-02	2.421012E-04
7.184266E+03	1.304563E-02	2.429195E-04
7.194245E+03	1.310330E-02	2.437847E-04
7.204223E+03	1.316562E-02	2.447211E-04
7.214201E+03	1.323484E-02	2.457705E-04
7.224179E+03	1.331309E-02	2.469722E-04
7.234157E+03	1.340072E-02	2.483326E-04
7.244135E+03	1.349550E-02	2.498104E-04
7.254113E+03	1.359273E-02	2.513185E-04
7.264092E+03	1.368533E-02	2.527264E-04
7.274070E+03	1.376429E-02	2.538685E-04
7.284048E+03	1.382070E-02	2.545825E-04
7.294026E+03	1.384724E-02	2.547358E-04
7.304004E+03	1.383958E-02	2.542516E-04
7.313982E+03	1.379746E-02	2.531286E-04
7.323961E+03	1.372474E-02	2.514410E-04
7.333939E+03	1.362911E-02	2.493328E-04
7.343917E+03	1.352001E-02	2.469788E-04
7.353895E+03	1.340689E-02	2.445538E-04
7.363873E+03	1.329840E-02	2.422166E-04
7.373851E+03	1.320055E-02	2.400770E-04
7.383829E+03	1.311661E-02	2.381942E-04
7.393808E+03	1.304696E-02	2.365751E-04
7.403786E+03	1.298982E-02	2.351870E-04
7.413764E+03	1.294108E-02	2.339558E-04
7.423742E+03	1.289629E-02	2.328013E-04
7.433720E+03	1.285019E-02	2.316291E-04
7.443698E+03	1.279803E-02	2.303549E-04
7.453676E+03	1.273590E-02	2.289095E-04
7.463655E+03	1.266132E-02	2.272492E-04
7.473633E+03	1.257253E-02	2.253434E-04
7.483611E+03	1.246940E-02	2.231911E-04
7.493589E+03	1.235124E-02	2.207805E-04
7.503567E+03	1.221481E-02	2.180553E-04
7.513545E+03	1.205543E-02	2.149332E-04
7.523523E+03	1.186735E-02	2.113130E-04
7.533502E+03	1.164707E-02	2.071347E-04
7.543480E+03	1.139367E-02	2.023838E-04
7.553458E+03	1.110962E-02	1.971060E-04
7.563436E+03	1.080094E-02	1.914098E-04
7.573414E+03	1.047726E-02	1.854667E-04
7.583392E+03	1.015096E-02	1.794962E-04
7.593371E+03	9.837135E-03	1.737650E-04
7.603349E+03	9.552098E-03	1.685596E-04
7.613327E+03	9.312872E-03	1.641785E-04
7.623305E+03	9.135082E-03	1.608942E-04
7.633283E+03	9.032831E-03	1.589518E-04
7.643261E+03	9.016751E-03	1.585347E-04
7.653239E+03	9.093243E-03	1.597520E-04
7.663218E+03	9.264622E-03	1.626407E-04
7.673196E+03	9.527574E-03	1.671400E-04
7.683174E+03	9.872462E-03	1.730785E-04
7.693152E+03	1.028274E-02	1.801651E-04
7.703130E+03	1.073480E-02	1.879862E-04
7.713108E+03	1.119883E-02	1.960205E-04
7.723086E+03	1.164124E-02	2.036822E-04
7.733065E+03	1.202913E-02	2.103986E-04
7.743043E+03	1.233541E-02	2.156988E-04
