#wls	flux	fluxerr
1.596504E+03	1.951908E-05	5.502090E-06
1.636416E+03	1.916044E-05	5.374575E-06
1.676329E+03	1.880083E-05	5.247060E-06
1.716241E+03	1.844559E-05	5.121060E-06
1.756154E+03	1.810103E-05	4.998324E-06
1.796067E+03	1.776541E-05	4.878351E-06
1.835979E+03	1.746510E-05	4.768332E-06
1.875892E+03	1.719136E-05	4.665744E-06
1.915804E+03	1.697095E-05	4.577700E-06
1.955717E+03	1.680549E-05	4.504381E-06
1.995630E+03	1.670584E-05	4.448402E-06
2.035542E+03	1.669104E-05	4.414458E-06
2.075455E+03	1.677267E-05	4.405116E-06
2.115367E+03	1.695540E-05	4.421035E-06
2.155280E+03	1.725972E-05	4.466905E-06
2.195193E+03	1.769905E-05	4.545403E-06
2.235105E+03	1.828723E-05	4.659171E-06
2.275018E+03	1.904624E-05	4.812750E-06
2.314930E+03	1.998250E-05	5.006543E-06
2.354843E+03	2.111763E-05	5.244621E-06
2.394755E+03	2.246436E-05	5.528606E-06
2.434668E+03	2.404228E-05	5.861619E-06
2.474581E+03	2.585035E-05	6.241534E-06
2.514493E+03	2.790164E-05	6.669533E-06
2.554406E+03	3.020629E-05	7.145888E-06
2.594318E+03	3.274891E-05	7.664708E-06
2.634231E+03	3.553057E-05	8.223982E-06
2.674144E+03	3.853817E-05	8.818353E-06
2.714056E+03	4.176891E-05	9.444846E-06
2.753969E+03	4.522087E-05	1.010063E-05
2.793881E+03	4.887966E-05	1.078005E-05
2.833794E+03	5.273158E-05	1.147771E-05
2.873707E+03	5.678074E-05	1.219208E-05
2.913619E+03	6.103678E-05	1.292272E-05
2.953532E+03	6.549879E-05	1.366677E-05
2.993444E+03	7.022285E-05	1.443303E-05
3.003423E+03	7.143962E-05	1.462661E-05
3.013401E+03	7.266036E-05	1.481880E-05
3.023379E+03	7.392085E-05	1.501683E-05
3.033357E+03	7.518579E-05	1.521347E-05
3.043335E+03	7.647332E-05	1.541233E-05
3.053313E+03	7.778382E-05	1.561343E-05
3.063291E+03	7.909930E-05	1.581309E-05
3.073270E+03	8.045681E-05	1.601867E-05
3.083248E+03	8.181986E-05	1.622282E-05
3.093226E+03	8.320725E-05	1.642921E-05
3.103204E+03	8.461938E-05	1.663785E-05
3.113182E+03	8.605665E-05	1.684874E-05
3.123160E+03	8.751946E-05	1.706187E-05
3.133138E+03	8.898897E-05	1.727352E-05
3.143117E+03	9.050390E-05	1.749113E-05
3.153095E+03	9.204549E-05	1.771096E-05
3.163073E+03	9.359450E-05	1.792924E-05
3.173051E+03	9.519029E-05	1.815343E-05
3.183029E+03	9.681369E-05	1.837977E-05
3.193007E+03	9.844503E-05	1.860445E-05
3.202985E+03	1.001242E-04	1.883493E-05
3.212964E+03	1.018317E-04	1.906740E-05
3.222942E+03	1.035675E-04	1.930180E-05
3.232920E+03	1.053318E-04	1.953806E-05
3.242898E+03	1.071450E-04	1.977983E-05
3.252876E+03	1.089663E-04	2.001949E-05
3.262854E+03	1.108363E-04	2.026443E-05
3.272832E+03	1.127348E-04	2.051078E-05
3.282811E+03	1.146820E-04	2.076216E-05
3.292789E+03	1.166570E-04	2.101461E-05
3.302767E+03	1.186590E-04	2.126793E-05
3.312745E+03	1.206878E-04	2.152195E-05
3.322723E+03	1.227634E-04	2.178016E-05
3.332701E+03	1.248641E-04	2.203856E-05
3.342680E+03	1.270101E-04	2.230062E-05
3.352658E+03	1.291789E-04	2.256227E-05
3.362636E+03	1.313907E-04	2.282691E-05
3.372614E+03	1.336222E-04	2.309041E-05
3.382592E+03	1.358933E-04	2.335608E-05
3.392570E+03	1.382022E-04	2.362350E-05
3.402548E+03	1.405245E-04	2.388841E-05
3.412527E+03	1.428796E-04	2.415400E-05
3.422505E+03	1.452426E-04	2.441599E-05
3.432483E+03	1.476543E-04	2.468116E-05
3.442461E+03	1.500668E-04	2.494139E-05
3.452439E+03	1.524982E-04	2.519964E-05
3.462417E+03	1.549441E-04	2.545512E-05
3.472395E+03	1.573997E-04	2.570698E-05
3.482374E+03	1.598594E-04	2.595429E-05
3.492352E+03	1.622951E-04	2.619246E-05
3.502330E+03	1.647451E-04	2.642769E-05
3.512308E+03	1.671798E-04	2.665523E-05
3.522286E+03	1.695916E-04	2.687387E-05
3.532264E+03	1.719722E-04	2.708236E-05
3.542242E+03	1.743351E-04	2.728292E-05
3.552221E+03	1.766490E-04	2.747069E-05
3.562199E+03	1.789045E-04	2.764437E-05
3.572177E+03	1.810936E-04	2.780289E-05
3.582155E+03	1.832313E-04	2.794874E-05
3.592133E+03	1.852898E-04	2.807782E-05
3.602111E+03	1.872868E-04	2.819307E-05
3.612090E+03	1.891976E-04	2.829094E-05
3.622068E+03	1.910421E-04	2.837467E-05
3.632046E+03	1.927959E-04	2.844083E-05
3.642024E+03	1.944770E-04	2.849235E-05
3.652002E+03	1.960791E-04	2.852853E-05
3.661980E+03	1.975933E-04	2.854832E-05
3.671958E+03	1.989870E-04	2.854732E-05
3.681937E+03	2.002702E-04	2.852734E-05
3.691915E+03	2.014552E-04	2.849045E-05
3.701893E+03	2.024995E-04	2.843100E-05
3.711871E+03	2.034347E-04	2.835383E-05
3.721849E+03	2.043082E-04	2.826585E-05
3.731827E+03	2.051268E-04	2.816819E-05
3.741805E+03	2.059976E-04	2.807563E-05
3.751784E+03	2.069878E-04	2.799713E-05
3.761762E+03	2.082023E-04	2.794641E-05
3.771740E+03	2.097804E-04	2.794133E-05
3.781718E+03	2.118349E-04	2.799571E-05
3.791696E+03	2.145263E-04	2.812910E-05
3.801674E+03	2.179827E-04	2.835623E-05
3.811652E+03	2.223729E-04	2.869650E-05
3.821631E+03	2.278263E-04	2.916359E-05
3.831609E+03	2.345039E-04	2.977465E-05
3.841587E+03	2.425351E-04	3.054215E-05
3.851565E+03	2.520277E-04	3.147538E-05
3.861543E+03	2.630596E-04	3.257943E-05
3.871521E+03	2.756455E-04	3.385137E-05
3.881500E+03	2.898105E-04	3.528940E-05
3.891478E+03	3.054333E-04	3.687402E-05
3.901456E+03	3.224153E-04	3.858893E-05
3.911434E+03	3.405244E-04	4.040243E-05
3.921412E+03	3.594593E-04	4.227565E-05
3.931390E+03	3.789626E-04	4.417613E-05
3.941368E+03	3.985768E-04	4.604936E-05
3.951347E+03	4.179362E-04	4.785325E-05
3.961325E+03	4.365674E-04	4.953503E-05
3.971303E+03	4.540424E-04	5.104902E-05
3.981281E+03	4.698885E-04	5.234632E-05
3.991259E+03	4.837341E-04	5.339112E-05
4.001237E+03	4.952494E-04	5.415374E-05
4.011215E+03	5.041677E-04	5.461266E-05
4.021194E+03	5.103614E-04	5.476233E-05
4.031172E+03	5.138747E-04	5.461599E-05
4.041150E+03	5.147258E-04	5.418389E-05
4.051128E+03	5.130940E-04	5.349297E-05
4.061106E+03	5.091724E-04	5.257082E-05
4.071084E+03	5.031774E-04	5.144659E-05
4.081062E+03	4.953345E-04	5.014942E-05
4.091041E+03	4.858476E-04	4.870534E-05
4.101019E+03	4.750122E-04	4.714860E-05
4.110997E+03	4.630698E-04	4.550692E-05
4.120975E+03	4.502998E-04	4.381071E-05
4.130953E+03	4.370815E-04	4.209890E-05
4.140931E+03	4.237470E-04	4.040435E-05
4.150910E+03	4.106617E-04	3.876180E-05
4.160888E+03	3.981838E-04	3.720388E-05
4.170866E+03	3.866468E-04	3.575960E-05
4.180844E+03	3.763468E-04	3.445327E-05
4.190822E+03	3.675316E-04	3.330376E-05
4.200800E+03	3.604097E-04	3.232558E-05
4.210778E+03	3.551001E-04	3.152455E-05
4.220757E+03	3.516702E-04	3.090163E-05
4.230735E+03	3.501842E-04	3.045737E-05
4.240713E+03	3.506180E-04	3.018458E-05
4.250691E+03	3.529295E-04	3.007474E-05
4.260669E+03	3.570667E-04	3.011879E-05
4.270647E+03	3.629131E-04	3.030259E-05
4.280625E+03	3.703673E-04	3.061375E-05
4.290604E+03	3.792716E-04	3.103579E-05
4.300582E+03	3.894122E-04	3.154831E-05
4.310560E+03	4.005173E-04	3.212712E-05
4.320538E+03	4.121854E-04	3.273866E-05
4.330516E+03	4.239694E-04	3.334718E-05
4.340494E+03	4.353145E-04	3.390993E-05
4.350472E+03	4.456679E-04	3.438605E-05
4.360451E+03	4.544334E-04	3.473289E-05
4.370429E+03	4.611637E-04	3.492076E-05
4.380407E+03	4.656960E-04	3.494234E-05
4.390385E+03	4.682820E-04	3.482144E-05
4.400363E+03	4.695898E-04	3.461162E-05
4.410341E+03	4.705759E-04	3.438562E-05
4.420320E+03	4.723360E-04	3.422377E-05
4.430298E+03	4.759418E-04	3.420203E-05
4.440276E+03	4.824776E-04	3.439489E-05
4.450254E+03	4.928996E-04	3.486563E-05
4.460232E+03	5.080637E-04	3.566883E-05
4.470210E+03	5.287387E-04	3.685181E-05
4.480188E+03	5.555384E-04	3.845031E-05
4.490167E+03	5.888849E-04	4.048659E-05
4.500145E+03	6.289850E-04	4.296832E-05
4.510123E+03	6.757573E-04	4.588430E-05
4.520101E+03	7.287032E-04	4.919625E-05
4.530079E+03	7.868809E-04	5.283749E-05
4.540057E+03	8.489425E-04	5.671604E-05
4.550035E+03	9.129944E-04	6.070593E-05
4.560014E+03	9.768214E-04	6.466248E-05
4.569992E+03	1.037906E-03	6.842362E-05
4.579970E+03	1.093701E-03	7.182752E-05
4.589948E+03	1.141694E-03	7.471652E-05
4.599926E+03	1.179772E-03	7.696031E-05
4.609904E+03	1.206336E-03	7.846258E-05
4.619882E+03	1.220326E-03	7.916172E-05
4.629861E+03	1.221563E-03	7.905257E-05
4.639839E+03	1.210557E-03	7.817313E-05
4.649817E+03	1.188443E-03	7.660015E-05
4.659795E+03	1.157018E-03	7.445132E-05
4.669773E+03	1.118335E-03	7.185930E-05
4.679751E+03	1.074692E-03	6.897097E-05
4.689729E+03	1.028325E-03	6.592830E-05
4.699708E+03	9.813509E-04	6.286488E-05
4.709686E+03	9.356743E-04	5.990026E-05
4.719664E+03	8.928636E-04	5.713240E-05
4.729642E+03	8.542795E-04	5.464607E-05
4.739620E+03	8.210181E-04	5.250934E-05
4.749598E+03	7.939379E-04	5.077545E-05
4.759577E+03	7.736986E-04	4.948531E-05
4.769555E+03	7.607641E-04	4.866770E-05
4.779533E+03	7.553517E-04	4.833603E-05
4.789511E+03	7.575161E-04	4.849362E-05
4.799489E+03	7.671367E-04	4.913289E-05
4.809467E+03	7.837923E-04	5.022719E-05
4.819445E+03	8.068867E-04	5.173880E-05
4.829424E+03	8.355124E-04	5.361004E-05
4.839402E+03	8.685097E-04	5.576697E-05
4.849380E+03	9.044987E-04	5.812132E-05
4.859358E+03	9.419695E-04	6.057619E-05
4.869336E+03	9.794650E-04	6.303776E-05
4.879314E+03	1.015731E-03	6.542489E-05
4.889292E+03	1.049798E-03	6.767455E-05
4.899271E+03	1.081111E-03	6.975017E-05
4.909249E+03	1.109452E-03	7.163676E-05
4.919227E+03	1.134762E-03	7.332952E-05
4.929205E+03	1.156938E-03	7.482084E-05
4.939183E+03	1.175584E-03	7.608422E-05
4.949161E+03	1.189983E-03	7.707212E-05
4.959139E+03	1.198851E-03	7.770026E-05
4.969118E+03	1.200642E-03	7.786737E-05
4.979096E+03	1.193858E-03	7.747485E-05
4.989074E+03	1.177419E-03	7.645131E-05
4.999052E+03	1.151013E-03	7.477541E-05
5.009030E+03	1.115347E-03	7.249207E-05
5.019008E+03	1.072186E-03	6.971537E-05
5.028987E+03	1.024134E-03	6.661429E-05
5.038965E+03	9.742467E-04	6.338780E-05
5.048943E+03	9.256759E-04	6.024135E-05
5.058921E+03	8.812230E-04	5.735782E-05
5.068899E+03	8.431243E-04	5.488338E-05
5.078877E+03	8.129172E-04	5.291866E-05
5.088855E+03	7.914877E-04	5.152171E-05
5.098834E+03	7.791877E-04	5.071564E-05
5.108812E+03	7.759267E-04	5.049450E-05
5.118790E+03	7.812367E-04	5.082755E-05
5.128768E+03	7.943909E-04	5.166705E-05
5.138746E+03	8.143870E-04	5.294717E-05
5.148724E+03	8.399950E-04	5.458723E-05
5.158702E+03	8.697925E-04	5.649404E-05
5.168681E+03	9.021879E-04	5.856350E-05
5.178659E+03	9.355569E-04	6.068960E-05
5.188637E+03	9.683822E-04	6.277351E-05
5.198615E+03	9.993665E-04	6.473097E-05
5.208593E+03	1.027576E-03	6.650155E-05
5.218571E+03	1.052497E-03	6.805234E-05
5.228549E+03	1.074008E-03	6.937593E-05
5.238528E+03	1.092294E-03	7.048477E-05
5.248506E+03	1.107838E-03	7.141076E-05
5.258484E+03	1.121160E-03	7.218790E-05
5.268462E+03	1.132830E-03	7.285343E-05
5.278440E+03	1.143403E-03	7.344357E-05
5.288418E+03	1.153273E-03	7.398401E-05
5.298397E+03	1.162815E-03	7.449909E-05
5.308375E+03	1.172212E-03	7.500096E-05
5.318353E+03	1.181585E-03	7.549747E-05
5.328331E+03	1.190920E-03	7.598813E-05
5.338309E+03	1.200106E-03	7.646611E-05
5.348287E+03	1.208948E-03	7.691942E-05
5.358265E+03	1.217219E-03	7.733401E-05
5.368244E+03	1.224714E-03	7.769742E-05
5.378222E+03	1.231315E-03	7.800273E-05
5.388200E+03	1.237025E-03	7.825088E-05
5.398178E+03	1.242010E-03	7.845293E-05
5.408156E+03	1.246608E-03	7.863087E-05
5.418134E+03	1.251260E-03	7.881304E-05
5.428112E+03	1.256496E-03	7.903317E-05
5.438091E+03	1.262852E-03	7.932529E-05
5.448069E+03	1.270823E-03	7.972055E-05
5.458047E+03	1.280731E-03	8.023925E-05
5.468025E+03	1.292595E-03	8.088268E-05
5.478003E+03	1.305987E-03	8.162407E-05
5.487981E+03	1.319772E-03	8.239292E-05
5.497959E+03	1.332217E-03	8.308152E-05
5.507938E+03	1.341350E-03	8.356803E-05
5.517916E+03	1.345580E-03	8.375456E-05
5.527894E+03	1.344200E-03	8.359847E-05
5.537872E+03	1.337470E-03	8.311718E-05
5.547850E+03	1.326490E-03	8.237972E-05
5.557828E+03	1.312891E-03	8.148720E-05
5.567807E+03	1.298501E-03	8.055265E-05
5.577785E+03	1.284790E-03	7.966663E-05
5.587763E+03	1.272674E-03	7.888518E-05
5.597741E+03	1.262207E-03	7.821103E-05
5.607719E+03	1.252616E-03	7.759553E-05
5.617697E+03	1.242249E-03	7.693583E-05
5.627675E+03	1.228762E-03	7.608629E-05
5.637654E+03	1.209432E-03	7.487782E-05
5.647632E+03	1.181572E-03	7.314379E-05
5.657610E+03	1.143076E-03	7.075338E-05
5.667588E+03	1.092957E-03	6.764528E-05
5.677566E+03	1.031740E-03	6.385163E-05
5.687544E+03	9.615434E-04	5.950316E-05
5.697522E+03	8.858344E-04	5.481423E-05
5.707501E+03	8.088880E-04	5.004914E-05
5.717479E+03	7.350788E-04	4.547840E-05
5.727457E+03	6.682722E-04	4.134102E-05
5.737435E+03	6.115074E-04	3.782485E-05
5.747413E+03	5.668549E-04	3.505779E-05
5.757391E+03	5.356284E-04	3.312079E-05
5.767369E+03	5.186365E-04	3.206343E-05
5.777348E+03	5.165424E-04	3.192613E-05
5.787326E+03	5.300695E-04	3.275280E-05
5.797304E+03	5.600564E-04	3.459416E-05
5.807282E+03	6.074922E-04	3.750989E-05
5.817260E+03	6.733125E-04	4.155590E-05
5.827238E+03	7.579913E-04	4.675919E-05
5.837216E+03	8.610078E-04	5.308487E-05
5.847195E+03	9.802616E-04	6.040037E-05
5.857173E+03	1.111646E-03	6.844941E-05
5.867151E+03	1.248940E-03	7.684599E-05
5.877129E+03	1.384204E-03	8.509929E-05
5.887107E+03	1.508680E-03	9.266969E-05
5.897085E+03	1.614115E-03	9.905072E-05
5.907064E+03	1.693985E-03	1.038443E-04
5.917042E+03	1.744515E-03	1.068228E-04
5.927020E+03	1.765021E-03	1.079497E-04
5.936998E+03	1.757639E-03	1.073615E-04
5.946976E+03	1.726527E-03	1.053186E-04
5.956954E+03	1.677036E-03	1.021530E-04
5.966932E+03	1.614906E-03	9.821948E-05
5.976911E+03	1.545513E-03	9.384889E-05
5.986889E+03	1.473577E-03	8.933050E-05
5.996867E+03	1.403000E-03	8.490230E-05
6.006845E+03	1.336857E-03	8.075070E-05
6.016823E+03	1.277458E-03	7.701448E-05
6.026801E+03	1.226528E-03	7.379609E-05
6.036779E+03	1.185248E-03	7.116404E-05
6.046758E+03	1.154476E-03	6.916698E-05
6.056736E+03	1.134815E-03	6.783729E-05
6.066714E+03	1.126711E-03	6.719757E-05
6.076692E+03	1.130512E-03	6.726406E-05
6.086670E+03	1.146532E-03	6.805048E-05
6.096648E+03	1.174991E-03	6.956452E-05
6.106626E+03	1.215905E-03	7.180163E-05
6.116605E+03	1.268885E-03	7.473307E-05
6.126583E+03	1.332903E-03	7.829262E-05
6.136561E+03	1.405894E-03	8.235401E-05
6.146539E+03	1.484482E-03	8.671547E-05
6.156517E+03	1.563873E-03	9.109497E-05
6.166495E+03	1.638364E-03	9.516089E-05
6.176474E+03	1.702620E-03	9.860703E-05
6.186452E+03	1.753264E-03	1.012438E-04
6.196430E+03	1.789773E-03	1.030485E-04
6.206408E+03	1.813816E-03	1.041248E-04
6.216386E+03	1.827765E-03	1.046156E-04
6.226364E+03	1.833633E-03	1.046417E-04
6.236342E+03	1.832652E-03	1.042780E-04
6.246321E+03	1.825086E-03	1.035438E-04
6.256299E+03	1.810422E-03	1.024142E-04
6.266277E+03	1.787813E-03	1.008457E-04
6.276255E+03	1.756357E-03	9.879218E-05
6.286233E+03	1.715577E-03	9.623165E-05
6.296211E+03	1.665617E-03	9.317708E-05
6.306189E+03	1.607465E-03	8.968788E-05
6.316168E+03	1.543042E-03	8.587472E-05
6.326146E+03	1.475175E-03	8.189705E-05
6.336124E+03	1.407429E-03	7.795338E-05
6.346102E+03	1.343840E-03	7.426624E-05
6.356080E+03	1.288579E-03	7.106353E-05
6.366058E+03	1.245854E-03	6.857337E-05
6.376036E+03	1.219763E-03	6.701654E-05
6.386015E+03	1.214346E-03	6.660954E-05
6.395993E+03	1.233785E-03	6.757629E-05
6.405971E+03	1.282756E-03	7.016763E-05
6.415949E+03	1.366544E-03	7.466824E-05
6.425927E+03	1.491208E-03	8.140582E-05
6.435905E+03	1.663714E-03	9.075911E-05
6.445884E+03	1.891720E-03	1.031469E-04
6.455862E+03	2.182999E-03	1.189973E-04
6.465840E+03	2.544190E-03	1.386815E-04
6.475818E+03	2.979140E-03	1.624237E-04
6.485796E+03	3.487022E-03	1.902000E-04
6.495774E+03	4.061090E-03	2.216696E-04
6.505752E+03	4.688679E-03	2.561744E-04
6.515731E+03	5.350411E-03	2.926918E-04
6.525709E+03	6.015537E-03	3.295754E-04
6.535687E+03	6.640332E-03	3.644583E-04
6.545665E+03	7.175922E-03	3.946668E-04
6.555643E+03	7.579225E-03	4.178152E-04
6.565621E+03	7.819571E-03	4.321706E-04
6.575599E+03	7.884055E-03	4.369536E-04
6.585578E+03	7.777010E-03	4.323210E-04
6.595556E+03	7.517227E-03	4.192258E-04
6.605534E+03	7.132845E-03	3.991469E-04
6.615512E+03	6.656635E-03	3.738360E-04
6.625490E+03	6.122312E-03	3.451193E-04
6.635468E+03	5.561459E-03	3.147278E-04
6.645446E+03	5.001463E-03	2.841811E-04
6.655425E+03	4.464333E-03	2.547183E-04
6.665403E+03	3.966088E-03	2.272581E-04
6.675381E+03	3.516642E-03	2.023863E-04
6.685359E+03	3.120340E-03	1.803797E-04
6.695337E+03	2.777096E-03	1.612656E-04
6.705315E+03	2.483831E-03	1.448987E-04
6.715294E+03	2.235627E-03	1.310255E-04
6.725272E+03	2.026827E-03	1.193449E-04
6.735250E+03	1.851642E-03	1.095439E-04
6.745228E+03	1.704678E-03	1.013271E-04
6.755206E+03	1.581134E-03	9.442956E-05
6.765184E+03	1.476827E-03	8.861868E-05
6.775162E+03	1.388200E-03	8.369516E-05
6.785141E+03	1.312335E-03	7.949474E-05
6.795119E+03	1.246861E-03	7.588325E-05
6.805097E+03	1.189932E-03	7.275623E-05
6.815075E+03	1.140175E-03	7.003618E-05
6.825053E+03	1.096667E-03	6.767185E-05
6.835031E+03	1.058827E-03	6.563230E-05
6.845009E+03	1.026368E-03	6.390413E-05
6.854988E+03	9.992179E-04	6.248721E-05
6.864966E+03	9.774490E-04	6.139021E-05
6.874944E+03	9.612001E-04	6.062613E-05
6.884922E+03	9.506085E-04	6.020789E-05
6.894900E+03	9.457327E-04	6.014348E-05
6.904878E+03	9.464964E-04	6.043219E-05
6.914856E+03	9.526737E-04	6.106351E-05
6.924835E+03	9.638328E-04	6.201331E-05
6.934813E+03	9.794000E-04	6.324770E-05
6.944791E+03	9.986043E-04	6.471929E-05
6.954769E+03	1.020550E-03	6.637174E-05
6.964747E+03	1.044265E-03	6.814279E-05
6.974725E+03	1.068687E-03	6.996329E-05
6.984703E+03	1.092828E-03	7.176803E-05
6.994682E+03	1.115678E-03	7.348963E-05
7.004660E+03	1.136411E-03	7.507195E-05
7.014638E+03	1.154315E-03	7.646588E-05
7.024616E+03	1.168912E-03	7.763756E-05
7.034594E+03	1.179950E-03	7.856784E-05
7.044572E+03	1.187563E-03	7.926342E-05
7.054551E+03	1.192164E-03	7.974982E-05
7.064529E+03	1.194546E-03	8.007868E-05
7.074507E+03	1.195848E-03	8.032524E-05
7.084485E+03	1.197441E-03	8.058111E-05
7.094463E+03	1.200870E-03	8.095032E-05
7.104441E+03	1.207649E-03	8.153555E-05
7.114419E+03	1.219209E-03	8.243431E-05
7.124398E+03	1.236751E-03	8.372878E-05
7.134376E+03	1.261230E-03	8.548459E-05
7.144354E+03	1.293241E-03	8.774306E-05
7.154332E+03	1.333068E-03	9.052390E-05
7.164310E+03	1.380625E-03	9.382147E-05
7.174288E+03	1.435457E-03	9.760442E-05
7.184266E+03	1.496806E-03	1.018203E-04
7.194245E+03	1.563587E-03	1.063941E-04
7.204223E+03	1.634499E-03	1.112355E-04
7.214201E+03	1.707948E-03	1.162339E-04
7.224179E+03	1.781997E-03	1.212553E-04
7.234157E+03	1.854387E-03	1.261437E-04
7.244135E+03	1.922391E-03	1.307116E-04
7.254113E+03	1.982935E-03	1.347483E-04
7.264092E+03	2.032534E-03	1.380164E-04
7.274070E+03	2.067763E-03	1.402836E-04
7.284048E+03	2.085720E-03	1.413547E-04
7.294026E+03	2.084472E-03	1.411021E-04
7.304004E+03	2.063470E-03	1.394933E-04
7.313982E+03	2.023753E-03	1.366047E-04
7.323961E+03	1.967837E-03	1.326125E-04
7.333939E+03	1.899343E-03	1.277675E-04
7.343917E+03	1.822275E-03	1.223453E-04
7.353895E+03	1.740589E-03	1.166165E-04
7.363873E+03	1.657592E-03	1.108068E-04
7.373851E+03	1.575847E-03	1.050902E-04
7.383829E+03	1.496972E-03	9.957613E-05
7.393808E+03	1.421844E-03	9.432376E-05
7.403786E+03	1.350610E-03	8.934308E-05
7.413764E+03	1.283008E-03	8.461675E-05
7.423742E+03	1.218474E-03	8.010738E-05
7.433720E+03	1.156326E-03	7.577028E-05
7.443698E+03	1.095903E-03	7.156234E-05
7.453676E+03	1.036641E-03	6.744750E-05
7.463655E+03	9.782021E-04	6.340462E-05
7.473633E+03	9.205202E-04	5.943053E-05
7.483611E+03	8.638550E-04	5.554300E-05
7.493589E+03	8.089516E-04	5.179056E-05
7.503567E+03	7.570237E-04	4.825070E-05
7.513545E+03	7.095729E-04	4.501767E-05
7.523523E+03	6.680357E-04	4.217958E-05
7.533502E+03	6.335398E-04	3.980313E-05
7.543480E+03	6.068747E-04	3.793206E-05
7.553458E+03	5.884590E-04	3.658559E-05
7.563436E+03	5.784406E-04	3.576523E-05
7.573414E+03	5.767535E-04	3.545863E-05
7.583392E+03	5.831856E-04	3.564417E-05
7.593371E+03	5.973252E-04	3.628795E-05
7.603349E+03	6.185947E-04	3.734624E-05
7.613327E+03	6.462410E-04	3.876531E-05
7.623305E+03	6.793202E-04	4.048086E-05
7.633283E+03	7.166921E-04	4.241820E-05
7.643261E+03	7.570520E-04	4.449463E-05
7.653239E+03	7.989857E-04	4.662306E-05
7.663218E+03	8.410247E-04	4.871557E-05
7.673196E+03	8.817196E-04	5.068790E-05
7.683174E+03	9.196632E-04	5.246081E-05
7.693152E+03	9.536227E-04	5.396760E-05
7.703130E+03	9.824908E-04	5.515104E-05
7.713108E+03	1.005375E-03	5.596811E-05
7.723086E+03	1.021632E-03	5.639160E-05
7.733065E+03	1.030841E-03	5.640785E-05
7.743043E+03	1.032941E-03	5.602394E-05
