#wls	flux	fluxerr
1.596504E+03	1.523863E-05	3.060357E-06
1.636416E+03	1.511988E-05	3.021891E-06
1.676329E+03	1.500023E-05	2.983103E-06
1.716241E+03	1.489950E-05	2.947920E-06
1.756154E+03	1.481383E-05	2.915524E-06
1.796067E+03	1.474802E-05	2.886808E-06
1.835979E+03	1.471472E-05	2.864167E-06
1.875892E+03	1.471215E-05	2.847146E-06
1.915804E+03	1.474665E-05	2.836856E-06
1.955717E+03	1.483903E-05	2.837134E-06
1.995630E+03	1.497534E-05	2.845112E-06
2.035542E+03	1.518422E-05	2.866018E-06
2.075455E+03	1.546000E-05	2.898491E-06
2.115367E+03	1.582519E-05	2.946437E-06
2.155280E+03	1.627521E-05	3.008623E-06
2.195193E+03	1.683367E-05	3.088993E-06
2.235105E+03	1.750377E-05	3.187624E-06
2.275018E+03	1.829579E-05	3.305840E-06
2.314930E+03	1.922755E-05	3.446229E-06
2.354843E+03	2.030975E-05	3.609981E-06
2.394755E+03	2.154460E-05	3.796701E-06
2.434668E+03	2.295736E-05	4.009968E-06
2.474581E+03	2.454853E-05	4.248887E-06
2.514493E+03	2.632473E-05	4.513568E-06
2.554406E+03	2.830028E-05	4.805347E-06
2.594318E+03	3.046915E-05	5.121998E-06
2.634231E+03	3.284241E-05	5.464143E-06
2.674144E+03	3.543126E-05	5.832297E-06
2.714056E+03	3.822422E-05	6.223161E-06
2.753969E+03	4.123080E-05	6.636847E-06
2.793881E+03	4.443644E-05	7.069523E-06
2.833794E+03	4.786382E-05	7.523271E-06
2.873707E+03	5.149865E-05	7.994216E-06
2.913619E+03	5.535360E-05	8.482679E-06
2.953532E+03	5.942910E-05	8.986982E-06
2.993444E+03	6.372599E-05	9.505459E-06
3.003423E+03	6.484376E-05	9.638410E-06
3.013401E+03	6.596963E-05	9.771242E-06
3.023379E+03	6.710345E-05	9.903915E-06
3.033357E+03	6.826122E-05	1.003876E-05
3.043335E+03	6.942689E-05	1.017338E-05
3.053313E+03	7.061673E-05	1.031013E-05
3.063291E+03	7.181439E-05	1.044659E-05
3.073270E+03	7.303640E-05	1.058513E-05
3.083248E+03	7.426611E-05	1.072329E-05
3.093226E+03	7.552029E-05	1.086348E-05
3.103204E+03	7.678197E-05	1.100321E-05
3.113182E+03	7.805092E-05	1.114242E-05
3.123160E+03	7.934424E-05	1.128354E-05
3.133138E+03	8.066204E-05	1.142652E-05
3.143117E+03	8.198670E-05	1.156883E-05
3.153095E+03	8.331789E-05	1.171041E-05
3.163073E+03	8.467313E-05	1.185368E-05
3.173051E+03	8.605240E-05	1.199861E-05
3.183029E+03	8.743739E-05	1.214258E-05
3.193007E+03	8.882762E-05	1.228553E-05
3.202985E+03	9.024097E-05	1.242989E-05
3.212964E+03	9.167722E-05	1.257559E-05
3.222942E+03	9.311737E-05	1.271999E-05
3.232920E+03	9.457952E-05	1.286552E-05
3.242898E+03	9.604430E-05	1.300953E-05
3.252876E+03	9.752993E-05	1.315445E-05
3.262854E+03	9.901665E-05	1.329759E-05
3.272832E+03	1.005228E-04	1.344138E-05
3.282811E+03	1.020476E-04	1.358569E-05
3.292789E+03	1.035707E-04	1.372778E-05
3.302767E+03	1.050909E-04	1.386747E-05
3.312745E+03	1.066464E-04	1.400979E-05
3.322723E+03	1.081967E-04	1.414936E-05
3.332701E+03	1.097401E-04	1.428598E-05
3.342680E+03	1.112953E-04	1.442206E-05
3.352658E+03	1.128609E-04	1.455740E-05
3.362636E+03	1.144150E-04	1.468915E-05
3.372614E+03	1.159761E-04	1.481970E-05
3.382592E+03	1.175425E-04	1.494881E-05
3.392570E+03	1.190922E-04	1.507366E-05
3.402548E+03	1.206432E-04	1.519658E-05
3.412527E+03	1.221940E-04	1.531734E-05
3.422505E+03	1.237218E-04	1.543310E-05
3.432483E+03	1.252451E-04	1.554619E-05
3.442461E+03	1.267620E-04	1.565638E-05
3.452439E+03	1.282495E-04	1.576085E-05
3.462417E+03	1.297266E-04	1.586198E-05
3.472395E+03	1.311913E-04	1.595953E-05
3.482374E+03	1.326211E-04	1.605079E-05
3.492352E+03	1.340351E-04	1.613814E-05
3.502330E+03	1.354321E-04	1.622144E-05
3.512308E+03	1.368108E-04	1.630058E-05
3.522286E+03	1.381494E-04	1.637300E-05
3.532264E+03	1.394683E-04	1.644117E-05
3.542242E+03	1.407670E-04	1.650509E-05
3.552221E+03	1.420244E-04	1.656230E-05
3.562199E+03	1.432822E-04	1.661774E-05
3.572177E+03	1.444980E-04	1.666652E-05
3.582155E+03	1.456927E-04	1.671111E-05
3.592133E+03	1.468454E-04	1.674916E-05
3.602111E+03	1.479985E-04	1.678555E-05
3.612090E+03	1.491115E-04	1.681573E-05
3.622068E+03	1.502071E-04	1.684232E-05
3.632046E+03	1.512876E-04	1.686561E-05
3.642024E+03	1.523345E-04	1.688358E-05
3.652002E+03	1.533905E-04	1.690099E-05
3.661980E+03	1.544147E-04	1.691336E-05
3.671958E+03	1.554264E-04	1.692286E-05
3.681937E+03	1.564242E-04	1.692935E-05
3.691915E+03	1.574068E-04	1.693273E-05
3.701893E+03	1.583565E-04	1.693113E-05
3.711871E+03	1.593215E-04	1.692976E-05
3.721849E+03	1.602782E-04	1.692608E-05
3.731827E+03	1.612740E-04	1.692511E-05
3.741805E+03	1.623475E-04	1.693078E-05
3.751784E+03	1.635480E-04	1.694808E-05
3.761762E+03	1.649342E-04	1.698277E-05
3.771740E+03	1.665714E-04	1.704120E-05
3.781718E+03	1.685101E-04	1.712799E-05
3.791696E+03	1.708623E-04	1.725388E-05
3.801674E+03	1.736612E-04	1.742136E-05
3.811652E+03	1.769973E-04	1.763858E-05
3.821631E+03	1.809380E-04	1.791114E-05
3.831609E+03	1.855439E-04	1.824381E-05
3.841587E+03	1.908681E-04	1.864046E-05
3.851565E+03	1.969513E-04	1.910360E-05
3.861543E+03	2.038200E-04	1.963430E-05
3.871521E+03	2.114828E-04	2.023181E-05
3.881500E+03	2.199040E-04	2.089116E-05
3.891478E+03	2.290944E-04	2.161190E-05
3.901456E+03	2.389468E-04	2.238245E-05
3.911434E+03	2.494263E-04	2.319829E-05
3.921412E+03	2.603742E-04	2.404351E-05
3.931390E+03	2.716843E-04	2.490751E-05
3.941368E+03	2.832327E-04	2.577829E-05
3.951347E+03	2.947913E-04	2.663485E-05
3.961325E+03	3.061987E-04	2.746271E-05
3.971303E+03	3.172530E-04	2.824426E-05
3.981281E+03	3.277485E-04	2.896207E-05
3.991259E+03	3.374855E-04	2.959981E-05
4.001237E+03	3.462839E-04	3.014334E-05
4.011215E+03	3.539958E-04	3.058182E-05
4.021194E+03	3.605159E-04	3.090843E-05
4.031172E+03	3.657873E-04	3.112074E-05
4.041150E+03	3.697990E-04	3.122032E-05
4.051128E+03	3.725460E-04	3.120930E-05
4.061106E+03	3.741524E-04	3.110052E-05
4.071084E+03	3.746608E-04	3.089977E-05
4.081062E+03	3.741585E-04	3.061638E-05
4.091041E+03	3.727083E-04	3.025746E-05
4.101019E+03	3.704776E-04	2.983835E-05
4.110997E+03	3.675165E-04	2.936459E-05
4.120975E+03	3.640163E-04	2.885278E-05
4.130953E+03	3.600618E-04	2.831064E-05
4.140931E+03	3.558778E-04	2.775660E-05
4.150910E+03	3.515858E-04	2.720050E-05
4.160888E+03	3.474075E-04	2.665957E-05
4.170866E+03	3.435388E-04	2.614852E-05
4.180844E+03	3.401986E-04	2.568331E-05
4.190822E+03	3.375113E-04	2.527230E-05
4.200800E+03	3.356626E-04	2.492809E-05
4.210778E+03	3.347823E-04	2.465874E-05
4.220757E+03	3.349431E-04	2.446782E-05
4.230735E+03	3.362602E-04	2.436187E-05
4.240713E+03	3.387392E-04	2.433925E-05
4.250691E+03	3.423831E-04	2.439820E-05
4.260669E+03	3.471467E-04	2.453357E-05
4.270647E+03	3.530414E-04	2.474430E-05
4.280625E+03	3.599586E-04	2.502101E-05
4.290604E+03	3.678438E-04	2.535835E-05
4.300582E+03	3.765873E-04	2.574736E-05
4.310560E+03	3.860395E-04	2.617661E-05
4.320538E+03	3.959981E-04	2.663157E-05
4.330516E+03	4.061993E-04	2.709403E-05
4.340494E+03	4.162871E-04	2.754030E-05
4.350472E+03	4.259360E-04	2.794948E-05
4.360451E+03	4.346847E-04	2.829252E-05
4.370429E+03	4.421980E-04	2.854946E-05
4.380407E+03	4.482719E-04	2.870943E-05
4.390385E+03	4.530102E-04	2.878148E-05
4.400363E+03	4.568107E-04	2.879292E-05
4.410341E+03	4.603301E-04	2.878640E-05
4.420320E+03	4.642878E-04	2.880715E-05
4.430298E+03	4.694269E-04	2.890047E-05
4.440276E+03	4.764685E-04	2.910891E-05
4.450254E+03	4.860455E-04	2.946843E-05
4.460232E+03	4.987608E-04	3.001209E-05
4.470210E+03	5.150677E-04	3.076310E-05
4.480188E+03	5.352710E-04	3.173522E-05
4.490167E+03	5.594680E-04	3.292966E-05
4.500145E+03	5.876212E-04	3.433981E-05
4.510123E+03	6.194060E-04	3.594271E-05
4.520101E+03	6.543327E-04	3.770658E-05
4.530079E+03	6.916431E-04	3.958508E-05
4.540057E+03	7.303620E-04	4.152081E-05
4.550035E+03	7.692918E-04	4.344528E-05
4.560014E+03	8.071995E-04	4.528988E-05
4.569992E+03	8.427256E-04	4.698061E-05
4.579970E+03	8.746449E-04	4.845277E-05
4.589948E+03	9.017713E-04	4.964532E-05
4.599926E+03	9.232186E-04	5.051505E-05
4.609904E+03	9.383256E-04	5.103191E-05
4.619882E+03	9.466887E-04	5.118037E-05
4.629861E+03	9.483365E-04	5.096840E-05
4.639839E+03	9.435254E-04	5.041583E-05
4.649817E+03	9.328541E-04	4.956015E-05
4.659795E+03	9.172158E-04	4.845345E-05
4.669773E+03	8.976259E-04	4.715305E-05
4.679751E+03	8.751061E-04	4.571525E-05
4.689729E+03	8.509226E-04	4.420785E-05
4.699708E+03	8.260287E-04	4.268095E-05
4.709686E+03	8.014968E-04	4.118976E-05
4.719664E+03	7.781852E-04	3.977731E-05
4.729642E+03	7.567477E-04	3.847540E-05
4.739620E+03	7.378667E-04	3.731658E-05
4.749598E+03	7.219976E-04	3.632134E-05
4.759577E+03	7.095585E-04	3.550785E-05
4.769555E+03	7.007900E-04	3.488511E-05
4.779533E+03	6.958577E-04	3.445818E-05
4.789511E+03	6.948126E-04	3.422637E-05
4.799489E+03	6.976189E-04	3.418473E-05
4.809467E+03	7.040191E-04	3.431755E-05
4.819445E+03	7.137576E-04	3.460952E-05
4.829424E+03	7.263580E-04	3.503495E-05
4.839402E+03	7.412642E-04	3.556483E-05
4.849380E+03	7.578359E-04	3.616667E-05
4.859358E+03	7.753906E-04	3.680663E-05
4.869336E+03	7.932904E-04	3.745370E-05
4.879314E+03	8.108575E-04	3.807560E-05
4.889292E+03	8.276601E-04	3.865223E-05
4.899271E+03	8.432510E-04	3.916323E-05
4.909249E+03	8.574338E-04	3.960028E-05
4.919227E+03	8.699244E-04	3.995124E-05
4.929205E+03	8.805331E-04	4.020858E-05
4.939183E+03	8.889748E-04	4.036067E-05
4.949161E+03	8.947080E-04	4.038461E-05
4.959139E+03	8.971515E-04	4.025633E-05
4.969118E+03	8.956071E-04	3.994721E-05
4.979096E+03	8.894296E-04	3.943174E-05
4.989074E+03	8.781467E-04	3.869284E-05
4.999052E+03	8.617499E-04	3.773430E-05
5.009030E+03	8.405523E-04	3.657397E-05
5.019008E+03	8.154417E-04	3.525432E-05
5.028987E+03	7.876719E-04	3.383260E-05
5.038965E+03	7.587161E-04	3.237406E-05
5.048943E+03	7.301790E-04	3.094793E-05
5.058921E+03	7.035280E-04	2.961581E-05
5.068899E+03	6.799908E-04	2.842758E-05
5.078877E+03	6.604555E-04	2.741757E-05
5.088855E+03	6.455290E-04	2.660744E-05
5.098834E+03	6.354776E-04	2.600414E-05
5.108812E+03	6.302699E-04	2.560213E-05
5.118790E+03	6.296750E-04	2.538783E-05
5.128768E+03	6.333317E-04	2.534264E-05
5.138746E+03	6.406246E-04	2.543830E-05
5.148724E+03	6.509766E-04	2.564874E-05
5.158702E+03	6.636237E-04	2.594127E-05
5.168681E+03	6.778156E-04	2.628469E-05
5.178659E+03	6.928375E-04	2.665008E-05
5.188637E+03	7.079839E-04	2.700977E-05
5.198615E+03	7.227060E-04	2.734296E-05
5.208593E+03	7.365502E-04	2.763310E-05
5.218571E+03	7.492561E-04	2.787144E-05
5.228549E+03	7.607586E-04	2.805681E-05
5.238528E+03	7.710835E-04	2.819147E-05
5.248506E+03	7.804113E-04	2.828325E-05
5.258484E+03	7.889239E-04	2.833986E-05
5.268462E+03	7.968452E-04	2.837027E-05
5.278440E+03	8.044115E-04	2.838365E-05
5.288418E+03	8.117717E-04	2.838580E-05
5.298397E+03	8.190590E-04	2.838185E-05
5.308375E+03	8.263596E-04	2.837514E-05
5.318353E+03	8.337409E-04	2.836830E-05
5.328331E+03	8.411358E-04	2.835937E-05
5.338309E+03	8.485412E-04	2.834862E-05
5.348287E+03	8.558528E-04	2.833301E-05
5.358265E+03	8.628802E-04	2.830686E-05
5.368244E+03	8.695334E-04	2.826795E-05
5.378222E+03	8.756243E-04	2.821105E-05
5.388200E+03	8.811179E-04	2.813606E-05
5.398178E+03	8.859565E-04	2.804219E-05
5.408156E+03	8.901982E-04	2.793236E-05
5.418134E+03	8.939979E-04	2.781241E-05
5.428112E+03	8.976098E-04	2.769112E-05
5.438091E+03	9.014188E-04	2.758096E-05
5.448069E+03	9.058086E-04	2.749397E-05
5.458047E+03	9.113157E-04	2.744645E-05
5.468025E+03	9.184805E-04	2.745438E-05
5.478003E+03	9.275837E-04	2.752563E-05
5.487981E+03	9.384072E-04	2.765326E-05
5.497959E+03	9.497617E-04	2.780218E-05
5.507938E+03	9.601655E-04	2.792985E-05
5.517916E+03	9.683004E-04	2.799947E-05
5.527894E+03	9.731989E-04	2.798513E-05
5.537872E+03	9.745243E-04	2.787939E-05
5.547850E+03	9.724273E-04	2.768857E-05
5.557828E+03	9.674742E-04	2.743041E-05
5.567807E+03	9.603469E-04	2.712502E-05
5.577785E+03	9.517828E-04	2.679302E-05
5.587763E+03	9.423994E-04	2.645122E-05
5.597741E+03	9.324318E-04	2.610542E-05
5.607719E+03	9.217977E-04	2.575249E-05
5.617697E+03	9.100553E-04	2.537922E-05
5.627675E+03	8.965625E-04	2.496691E-05
5.637654E+03	8.805283E-04	2.449274E-05
5.647632E+03	8.611954E-04	2.393485E-05
5.657610E+03	8.380137E-04	2.327714E-05
5.667588E+03	8.107927E-04	2.251341E-05
5.677566E+03	7.797848E-04	2.164966E-05
5.687544E+03	7.457889E-04	2.070707E-05
5.697522E+03	7.100522E-04	1.971923E-05
5.707501E+03	6.740701E-04	1.872672E-05
5.717479E+03	6.396215E-04	1.777814E-05
5.727457E+03	6.083761E-04	1.691926E-05
5.737435E+03	5.819297E-04	1.619406E-05
5.747413E+03	5.615825E-04	1.563849E-05
5.757391E+03	5.484260E-04	1.528295E-05
5.767369E+03	5.433742E-04	1.515300E-05
5.777348E+03	5.471335E-04	1.526856E-05
5.787326E+03	5.603662E-04	1.564835E-05
5.797304E+03	5.836483E-04	1.630869E-05
5.807282E+03	6.174371E-04	1.726252E-05
5.817260E+03	6.620255E-04	1.851808E-05
5.827238E+03	7.173388E-04	2.007312E-05
5.837216E+03	7.827556E-04	2.190990E-05
5.847195E+03	8.568919E-04	2.398901E-05
5.857173E+03	9.375312E-04	2.624751E-05
5.867151E+03	1.021552E-03	2.859686E-05
5.877129E+03	1.105086E-03	3.092745E-05
5.887107E+03	1.183994E-03	3.312221E-05
5.897085E+03	1.254140E-03	3.506432E-05
5.907064E+03	1.312091E-03	3.665711E-05
5.917042E+03	1.355528E-03	3.783551E-05
5.927020E+03	1.383408E-03	3.857075E-05
5.936998E+03	1.396000E-03	3.887119E-05
5.946976E+03	1.394674E-03	3.877626E-05
5.956954E+03	1.381696E-03	3.835053E-05
5.966932E+03	1.359780E-03	3.767102E-05
5.976911E+03	1.331781E-03	3.681837E-05
5.986889E+03	1.300580E-03	3.587359E-05
5.996867E+03	1.268653E-03	3.490599E-05
6.006845E+03	1.238351E-03	3.398084E-05
6.016823E+03	1.211497E-03	3.314821E-05
6.026801E+03	1.189653E-03	3.245048E-05
6.036779E+03	1.173996E-03	3.191890E-05
6.046758E+03	1.165496E-03	3.157851E-05
6.056736E+03	1.164868E-03	3.144700E-05
6.066714E+03	1.172656E-03	3.153689E-05
6.076692E+03	1.189226E-03	3.185566E-05
6.086670E+03	1.214869E-03	3.240837E-05
6.096648E+03	1.249642E-03	3.319365E-05
6.106626E+03	1.293424E-03	3.420523E-05
6.116605E+03	1.345692E-03	3.542630E-05
6.126583E+03	1.405377E-03	3.682594E-05
6.136561E+03	1.470619E-03	3.835308E-05
6.146539E+03	1.538679E-03	3.993496E-05
6.156517E+03	1.605779E-03	4.147340E-05
6.166495E+03	1.667331E-03	4.285150E-05
6.176474E+03	1.718994E-03	4.396125E-05
6.186452E+03	1.758290E-03	4.474439E-05
6.196430E+03	1.785365E-03	4.521041E-05
6.206408E+03	1.801912E-03	4.540782E-05
6.216386E+03	1.809785E-03	4.538831E-05
6.226364E+03	1.810432E-03	4.519242E-05
6.236342E+03	1.804640E-03	4.484355E-05
6.246321E+03	1.792705E-03	4.435244E-05
6.256299E+03	1.774460E-03	4.371816E-05
6.266277E+03	1.749507E-03	4.293393E-05
6.276255E+03	1.717595E-03	4.199645E-05
6.286233E+03	1.678693E-03	4.090747E-05
6.296211E+03	1.633179E-03	3.967836E-05
6.306189E+03	1.581903E-03	3.833119E-05
6.316168E+03	1.526306E-03	3.690174E-05
6.326146E+03	1.468254E-03	3.543506E-05
6.336124E+03	1.409934E-03	3.398266E-05
6.346102E+03	1.353838E-03	3.260279E-05
6.356080E+03	1.302501E-03	3.135457E-05
6.366058E+03	1.258395E-03	3.029573E-05
6.376036E+03	1.223809E-03	2.948011E-05
6.386015E+03	1.200755E-03	2.895545E-05
6.395993E+03	1.191054E-03	2.876592E-05
6.405971E+03	1.196285E-03	2.895095E-05
6.415949E+03	1.217893E-03	2.954807E-05
6.425927E+03	1.257224E-03	3.059382E-05
6.435905E+03	1.315663E-03	3.212731E-05
6.445884E+03	1.394573E-03	3.418898E-05
6.455862E+03	1.495324E-03	3.682130E-05
6.465840E+03	1.619331E-03	4.007006E-05
6.475818E+03	1.768168E-03	4.398723E-05
6.485796E+03	1.944154E-03	4.864598E-05
6.495774E+03	2.150754E-03	5.415159E-05
6.505752E+03	2.393487E-03	6.066545E-05
6.515731E+03	2.678153E-03	6.836101E-05
6.525709E+03	3.004091E-03	7.725136E-05
6.535687E+03	3.358827E-03	8.704463E-05
6.545665E+03	3.719927E-03	9.717979E-05
6.555643E+03	4.060201E-03	1.069515E-04
6.565621E+03	4.351918E-03	1.156150E-04
6.575599E+03	4.570780E-03	1.224899E-04
6.585578E+03	4.700076E-03	1.270749E-04
6.595556E+03	4.732068E-03	1.290942E-04
6.605534E+03	4.668769E-03	1.285295E-04
6.615512E+03	4.519946E-03	1.255772E-04
6.625490E+03	4.301283E-03	1.206074E-04
6.635468E+03	4.032066E-03	1.141074E-04
6.645446E+03	3.731839E-03	1.065912E-04
6.655425E+03	3.419019E-03	9.856109E-05
6.665403E+03	3.109038E-03	9.045264E-05
6.675381E+03	2.813341E-03	8.260127E-05
6.685359E+03	2.539755E-03	7.524829E-05
6.695337E+03	2.292541E-03	6.853736E-05
6.705315E+03	2.073183E-03	6.253347E-05
6.715294E+03	1.881165E-03	5.724275E-05
6.725272E+03	1.714741E-03	5.263329E-05
6.735250E+03	1.571356E-03	4.864630E-05
6.745228E+03	1.448339E-03	4.521681E-05
6.755206E+03	1.343007E-03	4.227667E-05
6.765184E+03	1.252870E-03	3.976087E-05
6.775162E+03	1.175705E-03	3.761042E-05
6.785141E+03	1.109587E-03	3.577345E-05
6.795119E+03	1.052909E-03	3.420642E-05
6.805097E+03	1.004252E-03	3.287023E-05
6.815075E+03	9.625269E-04	3.173516E-05
6.825053E+03	9.268577E-04	3.077740E-05
6.835031E+03	8.964849E-04	2.997610E-05
6.845009E+03	8.709034E-04	2.931815E-05
6.854988E+03	8.496668E-04	2.879190E-05
6.864966E+03	8.324297E-04	2.838864E-05
6.874944E+03	8.189806E-04	2.810384E-05
6.884922E+03	8.090840E-04	2.793190E-05
6.894900E+03	8.025410E-04	2.786818E-05
6.904878E+03	7.991673E-04	2.790829E-05
6.914856E+03	7.986931E-04	2.804462E-05
6.924835E+03	8.008987E-04	2.827104E-05
6.934813E+03	8.054435E-04	2.857687E-05
6.944791E+03	8.120345E-04	2.895282E-05
6.954769E+03	8.202885E-04	2.938609E-05
6.964747E+03	8.298489E-04	2.986454E-05
6.974725E+03	8.402934E-04	3.037338E-05
6.984703E+03	8.513019E-04	3.090123E-05
6.994682E+03	8.624985E-04	3.143447E-05
7.004660E+03	8.736431E-04	3.196421E-05
7.014638E+03	8.845118E-04	3.248207E-05
7.024616E+03	8.949064E-04	3.298048E-05
7.034594E+03	9.048032E-04	3.345824E-05
7.044572E+03	9.142005E-04	3.391500E-05
7.054551E+03	9.232156E-04	3.435486E-05
7.064529E+03	9.320629E-04	3.478563E-05
7.074507E+03	9.410730E-04	3.521955E-05
7.084485E+03	9.506045E-04	3.567008E-05
7.094463E+03	9.610949E-04	3.615381E-05
7.104441E+03	9.730319E-04	3.668935E-05
7.114419E+03	9.868423E-04	3.729315E-05
7.124398E+03	1.002934E-03	3.798107E-05
7.134376E+03	1.021630E-03	3.876588E-05
7.144354E+03	1.043177E-03	3.965741E-05
7.154332E+03	1.067628E-03	4.065819E-05
7.164310E+03	1.094912E-03	4.176598E-05
7.174288E+03	1.124826E-03	4.297343E-05
7.184266E+03	1.156939E-03	4.426443E-05
7.194245E+03	1.190718E-03	4.561873E-05
7.204223E+03	1.225401E-03	4.700734E-05
7.214201E+03	1.260108E-03	4.839653E-05
7.224179E+03	1.293827E-03	4.974729E-05
7.234157E+03	1.325472E-03	5.101775E-05
7.244135E+03	1.353856E-03	5.216201E-05
7.254113E+03	1.377706E-03	5.313074E-05
7.264092E+03	1.395989E-03	5.388377E-05
7.274070E+03	1.407595E-03	5.437787E-05
7.284048E+03	1.411828E-03	5.458582E-05
7.294026E+03	1.408228E-03	5.448944E-05
7.304004E+03	1.396618E-03	5.408158E-05
7.313982E+03	1.377392E-03	5.337719E-05
7.323961E+03	1.351113E-03	5.239784E-05
7.333939E+03	1.318717E-03	5.117961E-05
7.343917E+03	1.281343E-03	4.976660E-05
7.353895E+03	1.240305E-03	4.820971E-05
7.363873E+03	1.196744E-03	4.655333E-05
7.373851E+03	1.151899E-03	4.484564E-05
7.383829E+03	1.106795E-03	4.312665E-05
7.393808E+03	1.062260E-03	4.142868E-05
7.403786E+03	1.018997E-03	3.977929E-05
7.413764E+03	9.774713E-04	3.819683E-05
7.423742E+03	9.380225E-04	3.669445E-05
7.433720E+03	9.008769E-04	3.528085E-05
7.443698E+03	8.661256E-04	3.395948E-05
7.453676E+03	8.337515E-04	3.272965E-05
7.463655E+03	8.037274E-04	3.159029E-05
7.473633E+03	7.759490E-04	3.053736E-05
7.483611E+03	7.503492E-04	2.956829E-05
7.493589E+03	7.268469E-04	2.868000E-05
7.503567E+03	7.053457E-04	2.786879E-05
7.513545E+03	6.857798E-04	2.713220E-05
7.523523E+03	6.681243E-04	2.646939E-05
7.533502E+03	6.523562E-04	2.587963E-05
7.543480E+03	6.384455E-04	2.536190E-05
7.553458E+03	6.263988E-04	2.491665E-05
7.563436E+03	6.161933E-04	2.454318E-05
7.573414E+03	6.077717E-04	2.423938E-05
7.583392E+03	6.010901E-04	2.400372E-05
7.593371E+03	5.960463E-04	2.383228E-05
7.603349E+03	5.925485E-04	2.372157E-05
7.613327E+03	5.904654E-04	2.366648E-05
7.623305E+03	5.896278E-04	2.366034E-05
7.633283E+03	5.898839E-04	2.369715E-05
7.643261E+03	5.910340E-04	2.376897E-05
7.653239E+03	5.929217E-04	2.386953E-05
7.663218E+03	5.953179E-04	2.398962E-05
7.673196E+03	5.980295E-04	2.412143E-05
7.683174E+03	6.008892E-04	2.425819E-05
7.693152E+03	6.037253E-04	2.439289E-05
7.703130E+03	6.063850E-04	2.451930E-05
7.713108E+03	6.087210E-04	2.463138E-05
7.723086E+03	6.106486E-04	2.472562E-05
7.733065E+03	6.120952E-04	2.479901E-05
7.743043E+03	6.130007E-04	2.484904E-05
