#wls	flux	fluxerr
1.596504E+03	5.939342E-06	6.002435E-07
1.636416E+03	5.939844E-06	5.989266E-07
1.676329E+03	5.949624E-06	5.985063E-07
1.716241E+03	5.960478E-06	5.981517E-07
1.756154E+03	5.982059E-06	5.988271E-07
1.796067E+03	6.010710E-06	6.001583E-07
1.835979E+03	6.047264E-06	6.022212E-07
1.875892E+03	6.092579E-06	6.050933E-07
1.915804E+03	6.147540E-06	6.088533E-07
1.955717E+03	6.217496E-06	6.140193E-07
1.995630E+03	6.294513E-06	6.197950E-07
2.035542E+03	6.388463E-06	6.271406E-07
2.075455E+03	6.495885E-06	6.356992E-07
2.115367E+03	6.617769E-06	6.455515E-07
2.155280E+03	6.755117E-06	6.567775E-07
2.195193E+03	6.913668E-06	6.699138E-07
2.235105E+03	7.085030E-06	6.841243E-07
2.275018E+03	7.279781E-06	7.004084E-07
2.314930E+03	7.489177E-06	7.178974E-07
2.354843E+03	7.724154E-06	7.376135E-07
2.394755E+03	7.980787E-06	7.591478E-07
2.434668E+03	8.260045E-06	7.825600E-07
2.474581E+03	8.568465E-06	8.084318E-07
2.514493E+03	8.895989E-06	8.357741E-07
2.554406E+03	9.254901E-06	8.657023E-07
2.594318E+03	9.640573E-06	8.977352E-07
2.634231E+03	1.004761E-05	9.313256E-07
2.674144E+03	1.048945E-05	9.676727E-07
2.714056E+03	1.096778E-05	1.006870E-06
2.753969E+03	1.147026E-05	1.047725E-06
2.793881E+03	1.200457E-05	1.090885E-06
2.833794E+03	1.257963E-05	1.137093E-06
2.873707E+03	1.318977E-05	1.185757E-06
2.913619E+03	1.383661E-05	1.236952E-06
2.953532E+03	1.452203E-05	1.290764E-06
2.993444E+03	1.524828E-05	1.347309E-06
3.003423E+03	1.543426E-05	1.361688E-06
3.013401E+03	1.562294E-05	1.376245E-06
3.023379E+03	1.582368E-05	1.391800E-06
3.033357E+03	1.601804E-05	1.406730E-06
3.043335E+03	1.621527E-05	1.421847E-06
3.053313E+03	1.642502E-05	1.437994E-06
3.063291E+03	1.662826E-05	1.453504E-06
3.073270E+03	1.683457E-05	1.469213E-06
3.083248E+03	1.705388E-05	1.485985E-06
3.093226E+03	1.726659E-05	1.502110E-06
3.103204E+03	1.749267E-05	1.519324E-06
3.113182E+03	1.771210E-05	1.535885E-06
3.123160E+03	1.793495E-05	1.552667E-06
3.133138E+03	1.817176E-05	1.570578E-06
3.143117E+03	1.840186E-05	1.587830E-06
3.153095E+03	1.864632E-05	1.606239E-06
3.163073E+03	1.888405E-05	1.623984E-06
3.173051E+03	1.913661E-05	1.642920E-06
3.183029E+03	1.938243E-05	1.661191E-06
3.193007E+03	1.963243E-05	1.679731E-06
3.202985E+03	1.989799E-05	1.699513E-06
3.212964E+03	2.015685E-05	1.718630E-06
3.222942E+03	2.043183E-05	1.739027E-06
3.232920E+03	2.070017E-05	1.758761E-06
3.242898E+03	2.098521E-05	1.779816E-06
3.252876E+03	2.126369E-05	1.800213E-06
3.262854E+03	2.155952E-05	1.821976E-06
3.272832E+03	2.184892E-05	1.843090E-06
3.282811E+03	2.215636E-05	1.865617E-06
3.292789E+03	2.245751E-05	1.887504E-06
3.302767E+03	2.277748E-05	1.910859E-06
3.312745E+03	2.310417E-05	1.934659E-06
3.322723E+03	2.342489E-05	1.957841E-06
3.332701E+03	2.376570E-05	1.982580E-06
3.342680E+03	2.410081E-05	2.006718E-06
3.352658E+03	2.445696E-05	2.032480E-06
3.362636E+03	2.480776E-05	2.057666E-06
3.372614E+03	2.518063E-05	2.084546E-06
3.382592E+03	2.556251E-05	2.112031E-06
3.392570E+03	2.593966E-05	2.138984E-06
3.402548E+03	2.634064E-05	2.167754E-06
3.412527E+03	2.673740E-05	2.196025E-06
3.422505E+03	2.715929E-05	2.226206E-06
3.432483E+03	2.759247E-05	2.257150E-06
3.442461E+03	2.802237E-05	2.287661E-06
3.452439E+03	2.847959E-05	2.320232E-06
3.462417E+03	2.894982E-05	2.353687E-06
3.472395E+03	2.941789E-05	2.386785E-06
3.482374E+03	2.991585E-05	2.422121E-06
3.492352E+03	3.042879E-05	2.458476E-06
3.502330E+03	3.094096E-05	2.494570E-06
3.512308E+03	3.148591E-05	2.533101E-06
3.522286E+03	3.204819E-05	2.572811E-06
3.532264E+03	3.261134E-05	2.612372E-06
3.542242E+03	3.321062E-05	2.654599E-06
3.552221E+03	3.382992E-05	2.698188E-06
3.562199E+03	3.445207E-05	2.741760E-06
3.572177E+03	3.511413E-05	2.788256E-06
3.582155E+03	3.579934E-05	2.836324E-06
3.592133E+03	3.650884E-05	2.886040E-06
3.602111E+03	3.722430E-05	2.935945E-06
3.612090E+03	3.798561E-05	2.989172E-06
3.622068E+03	3.877491E-05	3.044294E-06
3.632046E+03	3.957297E-05	3.099785E-06
3.642024E+03	4.042198E-05	3.158938E-06
3.652002E+03	4.130321E-05	3.220262E-06
3.661980E+03	4.221817E-05	3.283854E-06
3.671958E+03	4.316843E-05	3.349817E-06
3.681937E+03	4.413291E-05	3.416495E-06
3.691915E+03	4.515831E-05	3.487486E-06
3.701893E+03	4.622408E-05	3.561171E-06
3.711871E+03	4.733207E-05	3.637666E-06
3.721849E+03	4.845934E-05	3.715186E-06
3.731827E+03	4.965682E-05	3.797613E-06
3.741805E+03	5.090227E-05	3.883208E-06
3.751784E+03	5.219771E-05	3.972094E-06
3.761762E+03	5.354523E-05	4.064399E-06
3.771740E+03	5.491914E-05	4.158144E-06
3.781718E+03	5.637657E-05	4.257627E-06
3.791696E+03	5.789260E-05	4.360917E-06
3.801674E+03	5.946948E-05	4.468147E-06
3.811652E+03	6.110951E-05	4.579450E-06
3.821631E+03	6.281502E-05	4.694960E-06
3.831609E+03	6.455606E-05	4.812401E-06
3.841587E+03	6.639879E-05	4.936669E-06
3.851565E+03	6.831411E-05	5.065541E-06
3.861543E+03	7.030446E-05	5.199150E-06
3.871521E+03	7.237223E-05	5.337624E-06
3.881500E+03	7.451986E-05	5.481091E-06
3.891478E+03	7.671178E-05	5.626889E-06
3.901456E+03	7.902530E-05	5.780642E-06
3.911434E+03	8.142584E-05	5.939749E-06
3.921412E+03	8.391578E-05	6.104326E-06
3.931390E+03	8.649744E-05	6.274482E-06
3.941368E+03	8.917305E-05	6.450315E-06
3.951347E+03	9.194500E-05	6.631935E-06
3.961325E+03	9.481525E-05	6.819419E-06
3.971303E+03	9.773850E-05	7.009450E-06
3.981281E+03	1.008105E-04	7.208837E-06
3.991259E+03	1.039870E-04	7.414324E-06
4.001237E+03	1.072698E-04	7.625976E-06
4.011215E+03	1.106607E-04	7.843837E-06
4.021194E+03	1.141613E-04	8.067949E-06
4.031172E+03	1.177731E-04	8.298345E-06
4.041150E+03	1.214975E-04	8.535044E-06
4.051128E+03	1.253357E-04	8.778046E-06
4.061106E+03	1.292266E-04	9.023011E-06
4.071084E+03	1.332932E-04	9.278467E-06
4.081062E+03	1.374761E-04	9.540154E-06
4.091041E+03	1.417753E-04	9.808009E-06
4.101019E+03	1.461913E-04	1.008197E-05
4.110997E+03	1.507237E-04	1.036193E-05
4.120975E+03	1.553722E-04	1.064779E-05
4.130953E+03	1.601359E-04	1.093940E-05
4.140931E+03	1.650138E-04	1.123661E-05
4.150910E+03	1.700042E-04	1.153923E-05
4.160888E+03	1.750230E-04	1.184146E-05
4.170866E+03	1.802301E-04	1.215410E-05
4.180844E+03	1.855426E-04	1.247140E-05
4.190822E+03	1.909570E-04	1.279309E-05
4.200800E+03	1.964695E-04	1.311881E-05
4.210778E+03	2.020754E-04	1.344819E-05
4.220757E+03	2.077695E-04	1.378081E-05
4.230735E+03	2.135461E-04	1.411622E-05
4.240713E+03	2.193985E-04	1.445392E-05
4.250691E+03	2.253193E-04	1.479337E-05
4.260669E+03	2.313003E-04	1.513398E-05
4.270647E+03	2.373326E-04	1.547512E-05
4.280625E+03	2.432944E-04	1.580883E-05
4.290604E+03	2.493965E-04	1.614881E-05
4.300582E+03	2.555177E-04	1.648712E-05
4.310560E+03	2.616459E-04	1.682299E-05
4.320538E+03	2.677680E-04	1.715554E-05
4.330516E+03	2.738701E-04	1.748390E-05
4.340494E+03	2.799381E-04	1.780718E-05
4.350472E+03	2.859575E-04	1.812447E-05
4.360451E+03	2.919136E-04	1.843489E-05
4.370429E+03	2.977921E-04	1.873756E-05
4.380407E+03	3.035796E-04	1.903169E-05
4.390385E+03	3.091237E-04	1.930784E-05
4.400363E+03	3.146898E-04	1.958267E-05
4.410341E+03	3.201305E-04	1.984704E-05
4.420320E+03	3.254361E-04	2.010044E-05
4.430298E+03	3.305986E-04	2.034244E-05
4.440276E+03	3.356100E-04	2.057269E-05
4.450254E+03	3.404635E-04	2.079085E-05
4.460232E+03	3.451526E-04	2.099666E-05
4.470210E+03	3.496716E-04	2.118986E-05
4.480188E+03	3.538578E-04	2.136078E-05
4.490167E+03	3.580194E-04	2.152817E-05
4.500145E+03	3.619964E-04	2.168247E-05
4.510123E+03	3.657850E-04	2.182359E-05
4.520101E+03	3.693817E-04	2.195145E-05
4.530079E+03	3.727839E-04	2.206605E-05
4.540057E+03	3.759892E-04	2.216737E-05
4.550035E+03	3.789963E-04	2.225547E-05
4.560014E+03	3.816368E-04	2.232065E-05
4.569992E+03	3.842441E-04	2.238259E-05
4.579970E+03	3.866523E-04	2.243167E-05
4.589948E+03	3.888624E-04	2.246809E-05
4.599926E+03	3.908758E-04	2.249209E-05
4.609904E+03	3.926947E-04	2.250391E-05
4.619882E+03	3.941511E-04	2.249411E-05
4.629861E+03	3.955901E-04	2.248256E-05
4.639839E+03	3.968449E-04	2.245984E-05
4.649817E+03	3.979203E-04	2.242633E-05
4.659795E+03	3.988211E-04	2.238245E-05
4.669773E+03	3.995529E-04	2.232862E-05
4.679751E+03	3.999497E-04	2.225574E-05
4.689729E+03	4.003615E-04	2.218344E-05
4.699708E+03	4.006232E-04	2.210260E-05
4.709686E+03	4.007415E-04	2.201369E-05
4.719664E+03	4.007235E-04	2.191721E-05
4.729642E+03	4.004058E-04	2.180436E-05
4.739620E+03	4.001374E-04	2.169428E-05
4.749598E+03	3.997547E-04	2.157812E-05
4.759577E+03	3.992653E-04	2.145635E-05
4.769555E+03	3.985079E-04	2.132043E-05
4.779533E+03	3.978279E-04	2.118897E-05
4.789511E+03	3.970634E-04	2.105331E-05
4.799489E+03	3.962216E-04	2.091391E-05
4.809467E+03	3.951433E-04	2.076247E-05
4.819445E+03	3.941690E-04	2.061696E-05
4.829424E+03	3.931383E-04	2.046896E-05
4.839402E+03	3.918938E-04	2.031038E-05
4.849380E+03	3.907711E-04	2.015867E-05
4.859358E+03	3.896116E-04	2.000562E-05
4.869336E+03	3.884216E-04	1.985157E-05
4.879314E+03	3.870457E-04	1.968866E-05
4.889292E+03	3.858130E-04	1.953368E-05
4.899271E+03	3.845672E-04	1.937867E-05
4.909249E+03	3.831550E-04	1.921595E-05
4.919227E+03	3.819001E-04	1.906181E-05
4.929205E+03	3.806484E-04	1.890849E-05
4.939183E+03	3.792482E-04	1.874850E-05
4.949161E+03	3.780184E-04	1.859764E-05
4.959139E+03	3.766516E-04	1.844074E-05
4.969118E+03	3.754633E-04	1.829329E-05
4.979096E+03	3.743023E-04	1.814784E-05
4.989074E+03	3.730203E-04	1.799723E-05
4.999052E+03	3.719281E-04	1.785647E-05
5.009030E+03	3.707251E-04	1.771107E-05
5.019008E+03	3.697188E-04	1.757575E-05
5.028987E+03	3.687613E-04	1.744339E-05
5.038965E+03	3.677070E-04	1.730710E-05
5.048943E+03	3.668591E-04	1.718117E-05
5.058921E+03	3.659230E-04	1.705173E-05
5.068899E+03	3.651993E-04	1.693280E-05
5.078877E+03	3.643952E-04	1.681074E-05
5.088855E+03	3.638090E-04	1.669931E-05
5.098834E+03	3.631495E-04	1.658507E-05
5.108812E+03	3.627127E-04	1.648154E-05
5.118790E+03	3.622089E-04	1.637548E-05
5.128768E+03	3.619322E-04	1.628019E-05
5.138746E+03	3.615940E-04	1.618261E-05
5.148724E+03	3.613420E-04	1.608938E-05
5.158702E+03	3.613225E-04	1.600694E-05
5.168681E+03	3.612483E-04	1.592249E-05
5.178659E+03	3.614096E-04	1.584881E-05
5.188637E+03	3.615197E-04	1.577327E-05
5.198615E+03	3.618679E-04	1.570847E-05
5.208593E+03	3.621677E-04	1.564190E-05
5.218571E+03	3.625642E-04	1.557986E-05
5.228549E+03	3.632021E-04	1.552850E-05
5.238528E+03	3.637948E-04	1.547549E-05
5.248506E+03	3.644869E-04	1.542701E-05
5.258484E+03	3.654235E-04	1.538913E-05
5.268462E+03	3.663174E-04	1.534970E-05
5.278440E+03	3.673132E-04	1.531480E-05
5.288418E+03	3.684121E-04	1.528445E-05
5.298397E+03	3.697599E-04	1.526465E-05
5.308375E+03	3.710682E-04	1.524341E-05
5.318353E+03	3.724829E-04	1.522678E-05
5.328331E+03	3.741517E-04	1.522073E-05
5.338309E+03	3.757844E-04	1.521340E-05
5.348287E+03	3.775287E-04	1.521082E-05
5.358265E+03	3.793871E-04	1.521305E-05
5.368244E+03	3.813623E-04	1.522019E-05
5.378222E+03	3.834575E-04	1.523235E-05
5.388200E+03	3.858262E-04	1.525558E-05
5.398178E+03	3.881742E-04	1.527819E-05
5.408156E+03	3.906555E-04	1.530630E-05
5.418134E+03	3.932760E-04	1.534012E-05
5.428112E+03	3.960426E-04	1.537989E-05
5.438091E+03	3.989626E-04	1.542590E-05
5.448069E+03	4.020446E-04	1.547846E-05
5.458047E+03	4.052982E-04	1.553792E-05
5.468025E+03	4.087329E-04	1.560464E-05
5.478003E+03	4.123592E-04	1.567900E-05
5.487981E+03	4.161853E-04	1.576130E-05
5.497959E+03	4.202133E-04	1.585161E-05
5.507938E+03	4.244439E-04	1.594996E-05
5.517916E+03	4.288781E-04	1.605638E-05
5.527894E+03	4.335172E-04	1.617093E-05
5.537872E+03	4.383629E-04	1.629369E-05
5.547850E+03	4.434178E-04	1.642478E-05
5.557828E+03	4.486852E-04	1.656433E-05
5.567807E+03	4.541692E-04	1.671254E-05
5.577785E+03	4.598746E-04	1.686961E-05
5.587763E+03	4.658070E-04	1.703579E-05
5.597741E+03	4.719724E-04	1.721136E-05
5.607719E+03	4.783769E-04	1.739658E-05
5.617697E+03	4.848439E-04	1.758504E-05
5.627675E+03	4.917442E-04	1.779023E-05
5.637654E+03	4.989039E-04	1.800582E-05
5.647632E+03	5.063304E-04	1.823210E-05
5.657610E+03	5.140312E-04	1.846935E-05
5.667588E+03	5.218174E-04	1.871082E-05
5.677566E+03	5.300859E-04	1.897078E-05
5.687544E+03	5.386503E-04	1.924256E-05
5.697522E+03	5.475175E-04	1.952643E-05
5.707501E+03	5.564853E-04	1.981525E-05
5.717479E+03	5.659729E-04	2.012398E-05
5.727457E+03	5.757801E-04	2.044553E-05
5.737435E+03	5.856921E-04	2.077235E-05
5.747413E+03	5.961459E-04	2.111999E-05
5.757391E+03	6.067019E-04	2.147295E-05
5.767369E+03	6.178088E-04	2.184717E-05
5.777348E+03	6.292434E-04	2.223483E-05
5.787326E+03	6.407649E-04	2.262751E-05
5.797304E+03	6.528405E-04	2.304180E-05
5.807282E+03	6.649833E-04	2.346061E-05
5.817260E+03	6.776732E-04	2.390096E-05
5.827238E+03	6.904015E-04	2.434502E-05
5.837216E+03	7.036613E-04	2.481028E-05
5.847195E+03	7.169206E-04	2.527811E-05
5.857173E+03	7.304163E-04	2.575697E-05
5.867151E+03	7.444010E-04	2.625590E-05
5.877129E+03	7.583065E-04	2.675497E-05
5.887107E+03	7.726595E-04	2.727289E-05
5.897085E+03	7.868660E-04	2.778883E-05
5.907064E+03	8.011726E-04	2.831161E-05
5.917042E+03	8.158426E-04	2.885066E-05
5.927020E+03	8.302435E-04	2.938376E-05
5.936998E+03	8.446293E-04	2.991998E-05
5.946976E+03	8.592687E-04	3.046897E-05
5.956954E+03	8.734933E-04	3.100715E-05
5.966932E+03	8.875629E-04	3.154380E-05
5.976911E+03	9.014273E-04	3.207724E-05
5.986889E+03	9.150353E-04	3.260571E-05
5.996867E+03	9.286715E-04	3.313945E-05
6.006845E+03	9.416101E-04	3.365261E-05
6.016823E+03	9.541298E-04	3.415515E-05
6.026801E+03	9.661754E-04	3.464513E-05
6.036779E+03	9.776937E-04	3.512061E-05
6.046758E+03	9.886316E-04	3.557968E-05
6.056736E+03	9.989374E-04	3.602043E-05
6.066714E+03	1.008561E-03	3.644100E-05
6.076692E+03	1.017456E-03	3.683961E-05
6.086670E+03	1.025578E-03	3.721456E-05
6.096648E+03	1.032886E-03	3.756421E-05
6.106626E+03	1.039344E-03	3.788714E-05
6.116605E+03	1.044920E-03	3.818197E-05
6.126583E+03	1.049587E-03	3.844753E-05
6.136561E+03	1.053323E-03	3.868276E-05
6.146539E+03	1.056110E-03	3.888681E-05
6.156517E+03	1.057938E-03	3.905903E-05
6.166495E+03	1.058802E-03	3.919894E-05
6.176474E+03	1.058701E-03	3.930623E-05
6.186452E+03	1.057641E-03	3.938079E-05
6.196430E+03	1.055252E-03	3.940853E-05
6.206408E+03	1.052313E-03	3.941811E-05
6.216386E+03	1.048464E-03	3.939581E-05
6.226364E+03	1.043731E-03	3.934228E-05
6.236342E+03	1.037773E-03	3.924421E-05
6.246321E+03	1.031370E-03	3.913078E-05
6.256299E+03	1.024187E-03	3.898894E-05
6.266277E+03	1.015899E-03	3.880597E-05
6.276255E+03	1.007283E-03	3.861112E-05
6.286233E+03	9.980154E-04	3.839177E-05
6.296211E+03	9.877895E-04	3.813572E-05
6.306189E+03	9.773640E-04	3.787189E-05
6.316168E+03	9.660843E-04	3.757466E-05
6.326146E+03	9.546915E-04	3.727250E-05
6.336124E+03	9.425489E-04	3.694030E-05
6.346102E+03	9.303786E-04	3.660605E-05
6.356080E+03	9.175582E-04	3.624505E-05
6.366058E+03	9.047898E-04	3.588467E-05
6.376036E+03	8.914671E-04	3.550061E-05
6.386015E+03	8.782688E-04	3.511957E-05
6.395993E+03	8.646031E-04	3.471767E-05
6.405971E+03	8.511253E-04	3.432092E-05
6.415949E+03	8.372588E-04	3.390591E-05
6.425927E+03	8.233424E-04	3.348606E-05
6.435905E+03	8.096926E-04	3.307410E-05
6.445884E+03	7.957572E-04	3.264737E-05
6.455862E+03	7.818544E-04	3.221868E-05
6.465840E+03	7.680088E-04	3.178892E-05
6.475818E+03	7.545106E-04	3.137005E-05
6.485796E+03	7.408426E-04	3.094052E-05
6.495774E+03	7.272980E-04	3.051241E-05
6.505752E+03	7.138965E-04	3.008651E-05
6.515731E+03	7.006562E-04	2.966352E-05
6.525709E+03	6.878290E-04	2.925416E-05
6.535687E+03	6.749216E-04	2.883747E-05
6.545665E+03	6.621788E-04	2.842381E-05
6.555643E+03	6.495985E-04	2.801309E-05
6.565621E+03	6.371798E-04	2.760527E-05
6.575599E+03	6.249232E-04	2.720038E-05
6.585578E+03	6.128303E-04	2.679850E-05
6.595556E+03	6.009042E-04	2.639978E-05
6.605534E+03	5.891490E-04	2.600444E-05
6.615512E+03	5.775697E-04	2.561272E-05
6.625490E+03	5.661721E-04	2.522492E-05
6.635468E+03	5.549626E-04	2.484137E-05
6.645446E+03	5.439480E-04	2.446243E-05
6.655425E+03	5.329478E-04	2.408002E-05
6.665403E+03	5.223481E-04	2.371161E-05
6.675381E+03	5.119649E-04	2.334901E-05
6.685359E+03	5.018053E-04	2.299264E-05
6.695337E+03	4.918765E-04	2.264292E-05
6.705315E+03	4.820158E-04	2.229243E-05
6.715294E+03	4.725716E-04	2.195735E-05
6.725272E+03	4.633769E-04	2.163015E-05
6.735250E+03	4.544372E-04	2.131117E-05
6.745228E+03	4.456007E-04	2.099342E-05
6.755206E+03	4.371874E-04	2.069208E-05
6.765184E+03	4.290411E-04	2.039996E-05
6.775162E+03	4.210170E-04	2.011029E-05
6.785141E+03	4.134152E-04	1.983753E-05
6.795119E+03	4.059440E-04	1.956787E-05
6.805097E+03	3.988914E-04	1.931533E-05
6.815075E+03	3.919748E-04	1.906641E-05
6.825053E+03	3.854706E-04	1.883469E-05
6.835031E+03	3.791049E-04	1.860697E-05
6.845009E+03	3.731434E-04	1.839645E-05
6.854988E+03	3.673198E-04	1.819017E-05
6.864966E+03	3.618905E-04	1.800097E-05
6.874944E+03	3.565960E-04	1.781614E-05
6.884922E+03	3.516841E-04	1.764819E-05
6.894900E+03	3.469019E-04	1.748462E-05
6.904878E+03	3.423697E-04	1.733158E-05
6.914856E+03	3.382000E-04	1.719497E-05
6.924835E+03	3.341493E-04	1.706257E-05
6.934813E+03	3.303315E-04	1.694029E-05
6.944791E+03	3.267404E-04	1.682798E-05
6.954769E+03	3.234832E-04	1.673130E-05
6.964747E+03	3.203257E-04	1.663832E-05
6.974725E+03	3.173760E-04	1.655474E-05
6.984703E+03	3.146273E-04	1.648031E-05
6.994682E+03	3.120730E-04	1.641484E-05
7.004660E+03	3.098147E-04	1.636381E-05
7.014638E+03	3.076282E-04	1.631551E-05
7.024616E+03	3.056161E-04	1.627545E-05
7.034594E+03	3.037712E-04	1.624338E-05
7.044572E+03	3.020872E-04	1.621903E-05
7.054551E+03	3.005572E-04	1.620215E-05
7.064529E+03	2.991746E-04	1.619248E-05
7.074507E+03	2.979329E-04	1.618975E-05
7.084485E+03	2.968255E-04	1.619371E-05
7.094463E+03	2.958460E-04	1.620406E-05
7.104441E+03	2.949881E-04	1.622056E-05
7.114419E+03	2.942455E-04	1.624294E-05
7.124398E+03	2.936121E-04	1.627091E-05
7.134376E+03	2.930821E-04	1.630423E-05
7.144354E+03	2.925471E-04	1.633692E-05
7.154332E+03	2.922064E-04	1.638013E-05
7.164310E+03	2.919519E-04	1.642790E-05
7.174288E+03	2.917783E-04	1.647999E-05
7.184266E+03	2.916806E-04	1.653616E-05
7.194245E+03	2.915516E-04	1.659037E-05
7.204223E+03	2.915908E-04	1.665397E-05
7.214201E+03	2.916917E-04	1.672097E-05
7.224179E+03	2.917480E-04	1.678529E-05
7.234157E+03	2.919597E-04	1.685845E-05
7.244135E+03	2.922213E-04	1.693444E-05
7.254113E+03	2.924271E-04	1.700711E-05
7.264092E+03	2.927784E-04	1.708821E-05
7.274070E+03	2.931703E-04	1.717166E-05
7.284048E+03	2.934973E-04	1.725129E-05
7.294026E+03	2.939629E-04	1.733906E-05
7.304004E+03	2.943593E-04	1.742276E-05
7.313982E+03	2.948910E-04	1.751448E-05
7.323961E+03	2.953504E-04	1.760193E-05
7.333939E+03	2.959433E-04	1.769738E-05
7.343917E+03	2.964616E-04	1.778842E-05
7.353895E+03	2.971129E-04	1.788750E-05
7.363873E+03	2.976887E-04	1.798210E-05
7.373851E+03	2.983976E-04	1.808482E-05
7.383829E+03	2.990312E-04	1.818307E-05
7.393808E+03	2.996941E-04	1.828317E-05
7.403786E+03	3.004929E-04	1.839168E-05
7.413764E+03	3.012176E-04	1.849577E-05
7.423742E+03	3.019746E-04	1.860195E-05
7.433720E+03	3.028713E-04	1.871689E-05
7.443698E+03	3.036969E-04	1.882758E-05
7.453676E+03	3.045588E-04	1.894068E-05
7.463655E+03	3.054585E-04	1.905628E-05
7.473633E+03	3.065054E-04	1.918126E-05
7.483611E+03	3.074860E-04	1.930230E-05
7.493589E+03	3.085093E-04	1.942622E-05
7.503567E+03	3.095772E-04	1.955318E-05
7.513545E+03	3.106917E-04	1.968331E-05
7.523523E+03	3.118544E-04	1.981675E-05
7.533502E+03	3.130675E-04	1.995366E-05
7.543480E+03	3.144432E-04	2.010124E-05
7.553458E+03	3.157623E-04	2.024554E-05
7.563436E+03	3.171367E-04	2.039370E-05
7.573414E+03	3.185677E-04	2.054586E-05
7.583392E+03	3.200567E-04	2.070211E-05
7.593371E+03	3.216047E-04	2.086258E-05
7.603349E+03	3.232127E-04	2.102735E-05
7.613327E+03	3.248814E-04	2.119649E-05
7.623305E+03	3.266113E-04	2.137008E-05
7.633283E+03	3.284028E-04	2.154818E-05
7.643261E+03	3.301391E-04	2.172312E-05
7.653239E+03	3.320530E-04	2.191025E-05
7.663218E+03	3.340282E-04	2.210195E-05
7.673196E+03	3.360638E-04	2.229822E-05
7.683174E+03	3.381594E-04	2.249904E-05
7.693152E+03	3.403137E-04	2.270437E-05
7.703130E+03	3.425255E-04	2.291415E-05
7.713108E+03	3.446712E-04	2.312013E-05
7.723086E+03	3.469927E-04	2.333854E-05
7.733065E+03	3.493667E-04	2.356115E-05
7.743043E+03	3.517910E-04	2.378785E-05
