#wls	flux	fluxerr
1.596504E+03	6.084222E-06	6.109773E-07
1.636416E+03	6.086553E-06	6.098098E-07
1.676329E+03	6.093783E-06	6.090936E-07
1.716241E+03	6.111151E-06	6.093465E-07
1.756154E+03	6.130501E-06	6.097487E-07
1.796067E+03	6.157168E-06	6.108268E-07
1.835979E+03	6.196468E-06	6.130998E-07
1.875892E+03	6.244864E-06	6.162071E-07
1.915804E+03	6.303306E-06	6.202328E-07
1.955717E+03	6.372765E-06	6.252618E-07
1.995630E+03	6.454241E-06	6.313799E-07
2.035542E+03	6.553281E-06	6.391151E-07
2.075455E+03	6.661889E-06	6.476708E-07
2.115367E+03	6.790234E-06	6.580205E-07
2.155280E+03	6.934855E-06	6.698071E-07
2.195193E+03	7.096830E-06	6.831140E-07
2.235105E+03	7.277231E-06	6.980221E-07
2.275018E+03	7.477125E-06	7.146088E-07
2.314930E+03	7.702621E-06	7.334296E-07
2.354843E+03	7.949935E-06	7.540912E-07
2.394755E+03	8.220116E-06	7.766610E-07
2.434668E+03	8.514185E-06	8.012012E-07
2.474581E+03	8.833140E-06	8.277685E-07
2.514493E+03	9.177946E-06	8.564137E-07
2.554406E+03	9.555539E-06	8.877388E-07
2.594318E+03	9.955065E-06	9.206876E-07
2.634231E+03	1.038964E-05	9.564265E-07
2.674144E+03	1.085424E-05	9.944356E-07
2.714056E+03	1.134982E-05	1.034747E-06
2.753969E+03	1.188456E-05	1.078044E-06
2.793881E+03	1.244547E-05	1.123082E-06
2.833794E+03	1.304833E-05	1.171221E-06
2.873707E+03	1.368733E-05	1.221859E-06
2.913619E+03	1.436395E-05	1.275055E-06
2.953532E+03	1.507995E-05	1.330881E-06
2.993444E+03	1.583740E-05	1.389432E-06
3.003423E+03	1.603811E-05	1.404911E-06
3.013401E+03	1.623242E-05	1.419767E-06
3.023379E+03	1.643885E-05	1.435616E-06
3.033357E+03	1.664826E-05	1.451658E-06
3.043335E+03	1.685111E-05	1.467061E-06
3.053313E+03	1.706654E-05	1.483490E-06
3.063291E+03	1.727533E-05	1.499272E-06
3.073270E+03	1.749700E-05	1.516099E-06
3.083248E+03	1.772194E-05	1.533136E-06
3.093226E+03	1.794014E-05	1.549515E-06
3.103204E+03	1.817172E-05	1.566974E-06
3.113182E+03	1.840680E-05	1.584656E-06
3.123160E+03	1.864544E-05	1.602564E-06
3.133138E+03	1.887723E-05	1.619802E-06
3.143117E+03	1.912317E-05	1.638174E-06
3.153095E+03	1.937295E-05	1.656789E-06
3.163073E+03	1.962669E-05	1.675656E-06
3.173051E+03	1.987351E-05	1.693845E-06
3.183029E+03	2.013535E-05	1.713226E-06
3.193007E+03	2.040151E-05	1.732881E-06
3.202985E+03	2.067209E-05	1.752818E-06
3.212964E+03	2.093575E-05	1.772075E-06
3.222942E+03	2.121548E-05	1.792595E-06
3.232920E+03	2.150009E-05	1.813426E-06
3.242898E+03	2.178973E-05	1.834581E-06
3.252876E+03	2.208459E-05	1.856070E-06
3.262854E+03	2.237271E-05	1.876888E-06
3.272832E+03	2.267844E-05	1.899075E-06
3.282811E+03	2.298998E-05	1.921638E-06
3.292789E+03	2.330756E-05	1.944591E-06
3.302767E+03	2.363142E-05	1.967951E-06
3.312745E+03	2.396181E-05	1.991737E-06
3.322723E+03	2.429902E-05	2.015965E-06
3.332701E+03	2.464331E-05	2.040656E-06
3.342680E+03	2.498167E-05	2.064730E-06
3.352658E+03	2.534092E-05	2.090400E-06
3.362636E+03	2.570822E-05	2.116600E-06
3.372614E+03	2.608395E-05	2.143354E-06
3.382592E+03	2.646848E-05	2.170691E-06
3.392570E+03	2.686223E-05	2.198636E-06
3.402548E+03	2.726562E-05	2.227222E-06
3.412527E+03	2.767912E-05	2.256478E-06
3.422505E+03	2.810321E-05	2.286440E-06
3.432483E+03	2.853840E-05	2.317141E-06
3.442461E+03	2.898522E-05	2.348619E-06
3.452439E+03	2.944427E-05	2.380914E-06
3.462417E+03	2.991613E-05	2.414068E-06
3.472395E+03	3.040144E-05	2.448124E-06
3.482374E+03	3.090088E-05	2.483127E-06
3.492352E+03	3.141516E-05	2.519128E-06
3.502330E+03	3.194504E-05	2.556177E-06
3.512308E+03	3.249127E-05	2.594327E-06
3.522286E+03	3.305472E-05	2.633636E-06
3.532264E+03	3.363624E-05	2.674162E-06
3.542242E+03	3.423676E-05	2.715967E-06
3.552221E+03	3.485722E-05	2.759116E-06
3.562199E+03	3.549867E-05	2.803677E-06
3.572177E+03	3.616213E-05	2.849721E-06
3.582155E+03	3.684873E-05	2.897323E-06
3.592133E+03	3.755963E-05	2.946560E-06
3.602111E+03	3.831541E-05	2.999027E-06
3.612090E+03	3.907897E-05	3.051802E-06
3.622068E+03	3.987065E-05	3.106464E-06
3.632046E+03	4.069185E-05	3.163104E-06
3.642024E+03	4.154401E-05	3.221817E-06
3.652002E+03	4.242862E-05	3.282698E-06
3.661980E+03	4.334725E-05	3.345851E-06
3.671958E+03	4.430152E-05	3.411377E-06
3.681937E+03	4.529309E-05	3.479384E-06
3.691915E+03	4.634672E-05	3.551745E-06
3.701893E+03	4.741869E-05	3.625082E-06
3.711871E+03	4.853339E-05	3.701241E-06
3.721849E+03	4.969273E-05	3.780342E-06
3.731827E+03	5.089868E-05	3.862506E-06
3.741805E+03	5.215325E-05	3.947857E-06
3.751784E+03	5.348473E-05	4.038500E-06
3.761762E+03	5.484345E-05	4.130649E-06
3.771740E+03	5.625720E-05	4.226370E-06
3.781718E+03	5.772818E-05	4.325795E-06
3.791696E+03	5.925866E-05	4.429058E-06
3.801674E+03	6.088044E-05	4.538491E-06
3.811652E+03	6.253755E-05	4.649876E-06
3.821631E+03	6.426114E-05	4.765500E-06
3.831609E+03	6.605359E-05	4.885494E-06
3.841587E+03	6.794996E-05	5.012402E-06
3.851565E+03	6.988815E-05	5.141588E-06
3.861543E+03	7.190242E-05	5.275539E-06
3.871521E+03	7.399516E-05	5.414379E-06
3.881500E+03	7.616877E-05	5.558233E-06
3.891478E+03	7.846298E-05	5.709939E-06
3.901456E+03	8.080648E-05	5.864243E-06
3.911434E+03	8.323793E-05	6.023911E-06
3.921412E+03	8.575969E-05	6.189052E-06
3.931390E+03	8.841562E-05	6.362765E-06
3.941368E+03	9.112569E-05	6.539219E-06
3.951347E+03	9.393272E-05	6.721439E-06
3.961325E+03	9.688404E-05	6.912737E-06
3.971303E+03	9.989225E-05	7.106800E-06
3.981281E+03	1.030032E-04	7.306843E-06
3.991259E+03	1.062189E-04	7.512933E-06
4.001237E+03	1.095920E-04	7.728712E-06
4.011215E+03	1.130236E-04	7.947119E-06
4.021194E+03	1.165646E-04	8.171689E-06
4.031172E+03	1.202721E-04	8.406333E-06
4.041150E+03	1.240376E-04	8.643372E-06
4.051128E+03	1.279161E-04	8.886592E-06
4.061106E+03	1.319085E-04	9.135974E-06
4.071084E+03	1.360779E-04	9.395794E-06
4.081062E+03	1.403016E-04	9.657484E-06
4.091041E+03	1.446405E-04	9.925180E-06
4.101019E+03	1.491627E-04	1.020347E-05
4.110997E+03	1.537336E-04	1.048303E-05
4.120975E+03	1.584188E-04	1.076830E-05
4.130953E+03	1.632914E-04	1.106414E-05
4.140931E+03	1.682041E-04	1.136048E-05
4.150910E+03	1.732272E-04	1.166201E-05
4.160888E+03	1.784395E-04	1.197393E-05
4.170866E+03	1.836793E-04	1.228531E-05
4.180844E+03	1.890222E-04	1.260116E-05
4.190822E+03	1.945520E-04	1.292697E-05
4.200800E+03	2.000926E-04	1.325095E-05
4.210778E+03	2.057244E-04	1.357838E-05
4.220757E+03	2.115366E-04	1.391507E-05
4.230735E+03	2.173372E-04	1.424831E-05
4.240713E+03	2.232117E-04	1.458367E-05
4.250691E+03	2.292548E-04	1.492727E-05
4.260669E+03	2.352576E-04	1.526543E-05
4.270647E+03	2.413109E-04	1.560405E-05
4.280625E+03	2.475145E-04	1.594951E-05
4.290604E+03	2.536424E-04	1.628719E-05
4.300582E+03	2.597907E-04	1.662329E-05
4.310560E+03	2.660643E-04	1.696448E-05
4.320538E+03	2.722204E-04	1.729524E-05
4.330516E+03	2.783605E-04	1.762207E-05
4.340494E+03	2.845955E-04	1.795197E-05
4.350472E+03	2.906665E-04	1.826859E-05
4.360451E+03	2.966819E-04	1.857885E-05
4.370429E+03	3.027597E-04	1.889012E-05
4.380407E+03	3.086270E-04	1.918541E-05
4.390385E+03	3.144002E-04	1.947206E-05
4.400363E+03	3.202057E-04	1.975793E-05
4.410341E+03	3.257584E-04	2.002548E-05
4.420320E+03	3.311838E-04	2.028256E-05
4.430298E+03	3.364721E-04	2.052866E-05
4.440276E+03	3.417608E-04	2.077224E-05
4.450254E+03	3.467507E-04	2.099517E-05
4.460232E+03	3.515785E-04	2.120592E-05
4.470210E+03	3.563885E-04	2.141326E-05
4.480188E+03	3.608725E-04	2.159877E-05
4.490167E+03	3.651742E-04	2.177123E-05
4.500145E+03	3.694444E-04	2.193974E-05
4.510123E+03	3.733668E-04	2.208562E-05
4.520101E+03	3.770919E-04	2.221796E-05
4.530079E+03	3.807759E-04	2.234610E-05
4.540057E+03	3.840965E-04	2.245120E-05
4.550035E+03	3.872103E-04	2.254265E-05
4.560014E+03	3.901157E-04	2.262049E-05
4.569992E+03	3.929759E-04	2.269429E-05
4.579970E+03	3.954632E-04	2.274524E-05
4.589948E+03	3.977413E-04	2.278296E-05
4.599926E+03	3.998117E-04	2.280770E-05
4.609904E+03	4.018432E-04	2.282918E-05
4.619882E+03	4.035054E-04	2.282875E-05
4.629861E+03	4.049680E-04	2.281621E-05
4.639839E+03	4.064029E-04	2.280136E-05
4.649817E+03	4.074795E-04	2.276575E-05
4.659795E+03	4.083706E-04	2.271924E-05
4.669773E+03	4.090822E-04	2.266230E-05
4.679751E+03	4.096205E-04	2.259539E-05
4.689729E+03	4.101600E-04	2.252824E-05
4.699708E+03	4.103722E-04	2.244285E-05
4.709686E+03	4.104321E-04	2.234903E-05
4.719664E+03	4.103478E-04	2.224728E-05
4.729642E+03	4.102935E-04	2.214715E-05
4.739620E+03	4.099435E-04	2.203109E-05
4.749598E+03	4.094728E-04	2.190869E-05
4.759577E+03	4.088894E-04	2.178047E-05
4.769555E+03	4.082014E-04	2.164693E-05
4.779533E+03	4.074168E-04	2.150858E-05
4.789511E+03	4.067069E-04	2.137450E-05
4.799489E+03	4.057518E-04	2.122789E-05
4.809467E+03	4.047230E-04	2.107787E-05
4.819445E+03	4.036281E-04	2.092490E-05
4.829424E+03	4.024742E-04	2.076939E-05
4.839402E+03	4.012683E-04	2.061175E-05
4.849380E+03	4.000173E-04	2.045237E-05
4.859358E+03	3.988864E-04	2.029970E-05
4.869336E+03	3.975641E-04	2.013789E-05
4.879314E+03	3.962157E-04	1.997542E-05
4.889292E+03	3.948475E-04	1.981261E-05
4.899271E+03	3.934655E-04	1.964980E-05
4.909249E+03	3.920751E-04	1.948727E-05
4.919227E+03	3.906820E-04	1.932533E-05
4.929205E+03	3.892917E-04	1.916423E-05
4.939183E+03	3.879095E-04	1.900427E-05
4.949161E+03	3.865406E-04	1.884568E-05
4.959139E+03	3.851899E-04	1.868872E-05
4.969118E+03	3.838625E-04	1.853361E-05
4.979096E+03	3.825633E-04	1.838060E-05
4.989074E+03	3.812970E-04	1.822989E-05
4.999052E+03	3.800681E-04	1.808169E-05
5.009030E+03	3.788813E-04	1.793621E-05
5.019008E+03	3.777410E-04	1.779362E-05
5.028987E+03	3.766513E-04	1.765412E-05
5.038965E+03	3.756167E-04	1.751787E-05
5.048943E+03	3.746409E-04	1.738503E-05
5.058921E+03	3.737279E-04	1.725575E-05
5.068899E+03	3.728814E-04	1.713017E-05
5.078877E+03	3.721050E-04	1.700842E-05
5.088855E+03	3.714020E-04	1.689063E-05
5.098834E+03	3.707758E-04	1.677690E-05
5.108812E+03	3.702291E-04	1.666732E-05
5.118790E+03	3.696236E-04	1.655567E-05
5.128768E+03	3.692447E-04	1.645470E-05
5.138746E+03	3.689533E-04	1.635812E-05
5.148724E+03	3.687515E-04	1.626599E-05
5.158702E+03	3.686413E-04	1.617834E-05
5.168681E+03	3.686247E-04	1.609521E-05
5.178659E+03	3.685635E-04	1.601058E-05
5.188637E+03	3.687387E-04	1.593662E-05
5.198615E+03	3.690116E-04	1.586725E-05
5.208593E+03	3.693836E-04	1.580247E-05
5.218571E+03	3.698555E-04	1.574229E-05
5.228549E+03	3.702891E-04	1.568081E-05
5.238528E+03	3.709636E-04	1.562984E-05
5.248506E+03	3.717404E-04	1.558346E-05
5.258484E+03	3.724808E-04	1.553583E-05
5.268462E+03	3.734643E-04	1.549861E-05
5.278440E+03	3.745520E-04	1.546594E-05
5.288418E+03	3.756048E-04	1.543208E-05
5.298397E+03	3.769033E-04	1.540855E-05
5.308375E+03	3.783084E-04	1.538958E-05
5.318353E+03	3.796805E-04	1.536949E-05
5.328331E+03	3.813023E-04	1.535973E-05
5.338309E+03	3.830347E-04	1.535462E-05
5.348287E+03	3.847374E-04	1.534853E-05
5.358265E+03	3.866968E-04	1.535289E-05
5.368244E+03	3.886303E-04	1.535646E-05
5.378222E+03	3.908275E-04	1.537066E-05
5.388200E+03	3.930047E-04	1.538430E-05
5.398178E+03	3.954551E-04	1.540888E-05
5.408156E+03	3.978942E-04	1.543325E-05
5.418134E+03	4.006193E-04	1.546898E-05
5.428112E+03	4.033448E-04	1.550497E-05
5.438091E+03	4.063730E-04	1.555288E-05
5.448069E+03	4.094170E-04	1.560168E-05
5.458047E+03	4.127847E-04	1.566310E-05
5.468025E+03	4.161862E-04	1.572613E-05
5.478003E+03	4.197808E-04	1.579679E-05
5.487981E+03	4.237297E-04	1.588114E-05
5.497959E+03	4.277301E-04	1.596778E-05
5.507938E+03	4.319360E-04	1.606250E-05
5.517916E+03	4.365063E-04	1.617119E-05
5.527894E+03	4.411277E-04	1.628223E-05
5.537872E+03	4.459586E-04	1.640153E-05
5.547850E+03	4.511641E-04	1.653514E-05
5.557828E+03	4.564240E-04	1.667134E-05
5.567807E+03	4.619039E-04	1.681625E-05
5.577785E+03	4.676089E-04	1.697009E-05
5.587763E+03	4.737150E-04	1.713927E-05
5.597741E+03	4.798908E-04	1.731182E-05
5.607719E+03	4.863116E-04	1.749415E-05
5.617697E+03	4.929846E-04	1.768654E-05
5.627675E+03	4.999178E-04	1.788926E-05
5.637654E+03	5.071193E-04	1.810262E-05
5.647632E+03	5.145978E-04	1.832694E-05
5.657610E+03	5.223619E-04	1.856253E-05
5.667588E+03	5.306092E-04	1.881642E-05
5.677566E+03	5.389738E-04	1.907565E-05
5.687544E+03	5.476505E-04	1.934716E-05
5.697522E+03	5.566475E-04	1.963127E-05
5.707501E+03	5.659726E-04	1.992828E-05
5.717479E+03	5.756333E-04	2.023852E-05
5.727457E+03	5.856359E-04	2.056223E-05
5.737435E+03	5.959862E-04	2.089968E-05
5.747413E+03	6.064745E-04	2.124358E-05
5.757391E+03	6.175286E-04	2.160898E-05
5.767369E+03	6.289396E-04	2.198864E-05
5.777348E+03	6.407078E-04	2.238263E-05
5.787326E+03	6.528316E-04	2.279099E-05
5.797304E+03	6.653073E-04	2.321366E-05
5.807282E+03	6.781291E-04	2.365056E-05
5.817260E+03	6.910466E-04	2.409305E-05
5.827238E+03	7.045291E-04	2.455760E-05
5.837216E+03	7.183254E-04	2.503556E-05
5.847195E+03	7.324194E-04	2.552650E-05
5.857173E+03	7.465315E-04	2.602078E-05
5.867151E+03	7.611557E-04	2.653577E-05
5.877129E+03	7.760108E-04	2.706178E-05
5.887107E+03	7.907932E-04	2.758836E-05
5.897085E+03	8.060164E-04	2.813356E-05
5.907064E+03	8.213746E-04	2.868684E-05
5.917042E+03	8.365399E-04	2.923688E-05
5.927020E+03	8.520456E-04	2.980244E-05
5.936998E+03	8.672619E-04	3.036163E-05
5.946976E+03	8.827358E-04	3.093372E-05
5.956954E+03	8.978123E-04	3.149587E-05
5.966932E+03	9.130538E-04	3.206791E-05
5.976911E+03	9.277778E-04	3.262597E-05
5.986889E+03	9.425647E-04	3.319055E-05
5.996867E+03	9.567100E-04	3.373692E-05
6.006845E+03	9.708075E-04	3.428606E-05
6.016823E+03	9.841328E-04	3.481244E-05
6.026801E+03	9.969560E-04	3.532560E-05
6.036779E+03	1.009562E-03	3.583568E-05
6.046758E+03	1.021204E-03	3.631611E-05
6.056736E+03	1.032166E-03	3.677696E-05
6.066714E+03	1.042749E-03	3.722892E-05
6.076692E+03	1.052190E-03	3.764464E-05
6.086670E+03	1.060793E-03	3.803490E-05
6.096648E+03	1.068514E-03	3.839789E-05
6.106626E+03	1.075679E-03	3.874524E-05
6.116605E+03	1.081519E-03	3.904909E-05
6.126583E+03	1.086369E-03	3.932128E-05
6.136561E+03	1.090205E-03	3.956069E-05
6.146539E+03	1.093010E-03	3.976643E-05
6.156517E+03	1.094771E-03	3.993776E-05
6.166495E+03	1.095485E-03	4.007423E-05
6.176474E+03	1.095150E-03	4.017551E-05
6.186452E+03	1.093775E-03	4.024160E-05
6.196430E+03	1.091375E-03	4.027264E-05
6.206408E+03	1.087969E-03	4.026902E-05
6.216386E+03	1.083581E-03	4.023127E-05
6.226364E+03	1.078244E-03	4.016023E-05
6.236342E+03	1.071995E-03	4.005685E-05
6.246321E+03	1.064870E-03	3.992220E-05
6.256299E+03	1.056917E-03	3.975765E-05
6.266277E+03	1.048183E-03	3.956455E-05
6.276255E+03	1.038715E-03	3.934441E-05
6.286233E+03	1.028222E-03	3.908570E-05
6.296211E+03	1.017454E-03	3.881660E-05
6.306189E+03	1.006114E-03	3.852547E-05
6.316168E+03	9.942545E-04	3.821410E-05
6.326146E+03	9.816008E-04	3.787149E-05
6.336124E+03	9.688711E-04	3.752503E-05
6.346102E+03	9.557816E-04	3.716356E-05
6.356080E+03	9.420651E-04	3.677635E-05
6.366058E+03	9.284080E-04	3.638986E-05
6.376036E+03	9.145352E-04	3.599309E-05
6.386015E+03	9.001871E-04	3.557550E-05
6.395993E+03	8.860130E-04	3.516245E-05
6.405971E+03	8.714523E-04	3.473148E-05
6.415949E+03	8.571294E-04	3.430724E-05
6.425927E+03	8.424979E-04	3.386770E-05
6.435905E+03	8.281579E-04	3.343676E-05
6.445884E+03	8.135783E-04	3.299289E-05
6.455862E+03	7.993355E-04	3.255928E-05
6.465840E+03	7.849147E-04	3.211489E-05
6.475818E+03	7.706115E-04	3.167164E-05
6.485796E+03	7.567008E-04	3.124080E-05
6.495774E+03	7.426925E-04	3.080213E-05
6.505752E+03	7.288619E-04	3.036692E-05
6.515731E+03	7.154613E-04	2.994570E-05
6.525709E+03	7.020137E-04	2.951855E-05
6.535687E+03	6.887597E-04	2.909549E-05
6.545665E+03	6.756932E-04	2.867627E-05
6.555643E+03	6.628077E-04	2.826062E-05
6.565621E+03	6.503145E-04	2.785760E-05
6.575599E+03	6.377732E-04	2.744841E-05
6.585578E+03	6.254031E-04	2.704240E-05
6.595556E+03	6.132043E-04	2.663960E-05
6.605534E+03	6.011786E-04	2.624011E-05
6.615512E+03	5.893295E-04	2.584412E-05
6.625490E+03	5.776614E-04	2.545186E-05
6.635468E+03	5.661801E-04	2.506362E-05
6.645446E+03	5.548921E-04	2.467976E-05
6.655425E+03	5.438047E-04	2.430065E-05
6.665403E+03	5.329256E-04	2.392671E-05
6.675381E+03	5.222629E-04	2.355838E-05
6.685359E+03	5.118245E-04	2.319611E-05
6.695337E+03	5.016187E-04	2.284036E-05
6.705315E+03	4.914901E-04	2.248415E-05
6.715294E+03	4.817758E-04	2.214295E-05
6.725272E+03	4.723162E-04	2.180964E-05
6.735250E+03	4.631180E-04	2.148465E-05
6.745228E+03	4.540367E-04	2.116137E-05
6.755206E+03	4.453811E-04	2.085432E-05
6.765184E+03	4.370021E-04	2.055673E-05
6.775162E+03	4.289035E-04	2.026893E-05
6.785141E+03	4.209489E-04	1.998459E-05
6.795119E+03	4.134212E-04	1.971728E-05
6.805097E+03	4.060455E-04	1.945410E-05
6.815075E+03	3.990931E-04	1.920816E-05
6.825053E+03	3.924268E-04	1.897311E-05
6.835031E+03	3.859180E-04	1.874287E-05
6.845009E+03	3.798220E-04	1.852997E-05
6.854988E+03	3.738831E-04	1.832214E-05
6.864966E+03	3.683471E-04	1.813159E-05
6.874944E+03	3.629650E-04	1.794623E-05
6.884922E+03	3.578558E-04	1.777208E-05
6.894900E+03	3.531313E-04	1.761488E-05
6.904878E+03	3.485515E-04	1.746285E-05
6.914856E+03	3.442288E-04	1.732173E-05
6.924835E+03	3.402694E-04	1.719706E-05
6.934813E+03	3.364414E-04	1.707729E-05
6.944791E+03	3.328516E-04	1.696794E-05
6.954769E+03	3.296024E-04	1.687441E-05
6.964747E+03	3.264682E-04	1.678531E-05
6.974725E+03	3.235517E-04	1.670603E-05
6.984703E+03	3.208460E-04	1.663633E-05
6.994682E+03	3.183438E-04	1.657598E-05
7.004660E+03	3.161420E-04	1.653016E-05
7.014638E+03	3.140242E-04	1.648771E-05
7.024616E+03	3.120882E-04	1.645384E-05
7.034594E+03	3.103264E-04	1.642825E-05
7.044572E+03	3.087319E-04	1.641068E-05
7.054551E+03	3.072970E-04	1.640085E-05
7.064529E+03	3.060148E-04	1.639847E-05
7.074507E+03	3.048780E-04	1.640324E-05
7.084485E+03	3.038794E-04	1.641488E-05
7.094463E+03	3.030123E-04	1.643309E-05
7.104441E+03	3.022694E-04	1.645757E-05
7.114419E+03	3.015447E-04	1.648260E-05
7.124398E+03	3.010305E-04	1.651874E-05
7.134376E+03	3.006204E-04	1.656026E-05
7.144354E+03	3.003083E-04	1.660688E-05
7.154332E+03	3.000878E-04	1.665831E-05
7.164310E+03	2.999527E-04	1.671427E-05
7.174288E+03	2.997983E-04	1.676894E-05
7.184266E+03	2.998168E-04	1.683310E-05
7.194245E+03	2.999036E-04	1.690097E-05
7.204223E+03	2.999549E-04	1.696671E-05
7.214201E+03	3.001632E-04	1.704123E-05
7.224179E+03	3.004253E-04	1.711874E-05
7.234157E+03	3.006373E-04	1.719333E-05
7.244135E+03	3.009938E-04	1.727613E-05
7.254113E+03	3.012921E-04	1.735557E-05
7.264092E+03	3.017279E-04	1.744291E-05
7.274070E+03	3.021987E-04	1.753229E-05
7.284048E+03	3.026019E-04	1.761775E-05
7.294026E+03	3.031349E-04	1.771079E-05
7.304004E+03	3.035955E-04	1.779963E-05
7.313982E+03	3.040821E-04	1.789000E-05
7.323961E+03	3.046943E-04	1.798781E-05
7.333939E+03	3.052297E-04	1.808114E-05
7.343917E+03	3.058894E-04	1.818189E-05
7.353895E+03	3.064713E-04	1.827808E-05
7.363873E+03	3.070761E-04	1.837570E-05
7.373851E+03	3.078063E-04	1.848090E-05
7.383829E+03	3.084589E-04	1.858153E-05
7.393808E+03	3.091363E-04	1.868374E-05
7.403786E+03	3.098398E-04	1.878761E-05
7.413764E+03	3.106736E-04	1.889949E-05
7.423742E+03	3.114335E-04	1.900701E-05
7.433720E+03	3.122237E-04	1.911650E-05
7.443698E+03	3.130462E-04	1.922809E-05
7.453676E+03	3.139027E-04	1.934190E-05
7.463655E+03	3.147952E-04	1.945809E-05
7.473633E+03	3.158305E-04	1.958328E-05
7.483611E+03	3.168013E-04	1.970468E-05
7.493589E+03	3.178143E-04	1.982890E-05
7.503567E+03	3.188718E-04	1.995609E-05
7.513545E+03	3.199759E-04	2.008643E-05
7.523523E+03	3.211291E-04	2.022010E-05
7.533502E+03	3.223335E-04	2.035725E-05
7.543480E+03	3.235913E-04	2.049805E-05
7.553458E+03	3.249047E-04	2.064267E-05
7.563436E+03	3.262753E-04	2.079124E-05
7.573414E+03	3.275960E-04	2.093695E-05
7.583392E+03	3.290859E-04	2.109382E-05
7.593371E+03	3.306377E-04	2.125504E-05
7.603349E+03	3.322526E-04	2.142071E-05
7.613327E+03	3.339312E-04	2.159092E-05
7.623305E+03	3.356744E-04	2.176576E-05
7.633283E+03	3.373699E-04	2.193795E-05
7.643261E+03	3.392425E-04	2.212213E-05
7.653239E+03	3.411801E-04	2.231107E-05
7.663218E+03	3.431823E-04	2.250478E-05
7.673196E+03	3.451331E-04	2.269565E-05
7.683174E+03	3.472618E-04	2.289879E-05
7.693152E+03	3.494527E-04	2.310663E-05
7.703130E+03	3.515865E-04	2.331131E-05
7.713108E+03	3.538966E-04	2.352829E-05
7.723086E+03	3.561447E-04	2.374180E-05
7.733065E+03	3.585667E-04	2.396757E-05
7.743043E+03	3.610417E-04	2.419759E-05
