#wls	flux	fluxerr
1.600000E+03	2.322498E-16	1.337299E-17
1.640000E+03	2.251963E-16	1.282573E-17
1.680000E+03	2.190500E-16	1.233623E-17
1.720000E+03	2.138950E-16	1.190767E-17
1.760000E+03	2.096951E-16	1.153630E-17
1.800000E+03	2.064501E-16	1.122038E-17
1.840000E+03	2.040286E-16	1.095110E-17
1.880000E+03	2.021284E-16	1.071088E-17
1.920000E+03	2.001789E-16	1.046892E-17
1.960000E+03	1.972459E-16	1.017721E-17
2.000000E+03	1.920418E-16	9.772451E-18
2.040000E+03	1.832554E-16	9.193865E-18
2.080000E+03	1.701697E-16	8.413988E-18
2.120000E+03	1.535380E-16	7.479227E-18
2.160000E+03	1.356005E-16	6.505251E-18
2.200000E+03	1.191766E-16	5.628531E-18
2.240000E+03	1.067162E-16	4.959905E-18
2.280000E+03	9.987297E-17	4.566321E-18
2.320000E+03	9.941565E-17	4.469764E-18
2.360000E+03	1.059966E-16	4.684555E-18
2.400000E+03	1.210798E-16	5.258079E-18
2.440000E+03	1.473184E-16	6.283728E-18
2.480000E+03	1.886540E-16	7.900452E-18
2.520000E+03	2.496011E-16	1.025822E-17
2.560000E+03	3.322131E-16	1.339339E-17
2.600000E+03	4.311643E-16	1.704385E-17
2.640000E+03	5.335901E-16	2.067194E-17
2.680000E+03	6.337403E-16	2.405060E-17
2.720000E+03	7.424760E-16	2.758838E-17
2.760000E+03	8.789003E-16	3.195926E-17
2.800000E+03	1.059873E-15	3.769689E-17
2.840000E+03	1.294918E-15	4.502645E-17
2.880000E+03	1.582606E-15	5.377128E-17
2.920000E+03	1.904533E-15	6.319656E-17
2.960000E+03	2.213975E-15	7.170935E-17
3.000000E+03	2.441469E-15	7.714722E-17
3.010000E+03	2.477965E-15	7.781157E-17
3.020000E+03	2.505119E-15	7.817049E-17
3.030000E+03	2.523152E-15	7.823639E-17
3.040000E+03	2.531885E-15	7.800916E-17
3.050000E+03	2.531887E-15	7.751177E-17
3.060000E+03	2.523765E-15	7.676788E-17
3.070000E+03	2.508283E-15	7.580538E-17
3.080000E+03	2.486304E-15	7.465451E-17
3.090000E+03	2.458581E-15	7.334163E-17
3.100000E+03	2.426457E-15	7.190988E-17
3.110000E+03	2.390330E-15	7.037358E-17
3.120000E+03	2.351114E-15	6.876182E-17
3.130000E+03	2.309607E-15	6.709956E-17
3.140000E+03	2.266233E-15	6.540037E-17
3.150000E+03	2.221581E-15	6.368227E-17
3.160000E+03	2.175909E-15	6.195329E-17
3.170000E+03	2.129659E-15	6.022652E-17
3.180000E+03	2.083007E-15	5.850721E-17
3.190000E+03	2.036348E-15	5.680663E-17
3.200000E+03	1.989987E-15	5.513319E-17
3.210000E+03	1.944176E-15	5.349362E-17
3.220000E+03	1.899437E-15	5.190186E-17
3.230000E+03	1.856269E-15	5.037078E-17
3.240000E+03	1.815259E-15	4.891534E-17
3.250000E+03	1.777089E-15	4.755249E-17
3.260000E+03	1.742454E-15	4.629907E-17
3.270000E+03	1.712383E-15	4.518026E-17
3.280000E+03	1.687750E-15	4.421634E-17
3.290000E+03	1.669607E-15	4.343168E-17
3.300000E+03	1.659114E-15	4.285262E-17
3.310000E+03	1.657545E-15	4.250762E-17
3.320000E+03	1.666306E-15	4.242763E-17
3.330000E+03	1.687015E-15	4.264796E-17
3.340000E+03	1.721297E-15	4.320298E-17
3.350000E+03	1.770997E-15	4.413145E-17
3.360000E+03	1.838173E-15	4.547615E-17
3.370000E+03	1.924849E-15	4.727767E-17
3.380000E+03	2.033216E-15	4.957937E-17
3.390000E+03	2.165198E-15	5.241672E-17
3.400000E+03	2.322490E-15	5.581850E-17
3.410000E+03	2.505923E-15	5.979188E-17
3.420000E+03	2.714852E-15	6.430873E-17
3.430000E+03	2.946706E-15	6.929623E-17
3.440000E+03	3.195960E-15	7.461463E-17
3.450000E+03	3.453743E-15	8.005050E-17
3.460000E+03	3.708111E-15	8.532574E-17
3.470000E+03	3.945880E-15	9.014195E-17
3.480000E+03	4.157608E-15	9.429426E-17
3.490000E+03	4.341127E-15	9.774767E-17
3.500000E+03	4.501308E-15	1.006257E-16
3.510000E+03	4.646150E-15	1.031179E-16
3.520000E+03	4.783840E-15	1.054129E-16
3.530000E+03	4.920335E-15	1.076449E-16
3.540000E+03	5.058439E-15	1.098762E-16
3.550000E+03	5.196687E-15	1.120751E-16
3.560000E+03	5.329112E-15	1.141144E-16
3.570000E+03	5.444465E-15	1.157583E-16
3.580000E+03	5.529642E-15	1.167387E-16
3.590000E+03	5.573242E-15	1.168305E-16
3.600000E+03	5.573190E-15	1.160094E-16
3.610000E+03	5.542389E-15	1.145615E-16
3.620000E+03	5.504627E-15	1.129884E-16
3.630000E+03	5.487563E-15	1.118564E-16
3.640000E+03	5.518032E-15	1.116995E-16
3.650000E+03	5.620215E-15	1.129837E-16
3.660000E+03	5.816495E-15	1.161259E-16
3.670000E+03	6.127258E-15	1.214920E-16
3.680000E+03	6.571342E-15	1.294070E-16
3.690000E+03	7.162082E-15	1.400788E-16
3.700000E+03	7.901050E-15	1.534808E-16
3.710000E+03	8.768977E-15	1.691846E-16
3.720000E+03	9.716206E-15	1.861901E-16
3.730000E+03	1.066269E-14	2.029456E-16
3.740000E+03	1.150604E-14	2.175183E-16
3.750000E+03	1.213634E-14	2.278862E-16
3.760000E+03	1.246578E-14	2.324945E-16
3.770000E+03	1.245802E-14	2.307850E-16
3.780000E+03	1.213612E-14	2.233081E-16
3.790000E+03	1.156905E-14	2.114407E-16
3.800000E+03	1.085333E-14	1.970244E-16
3.810000E+03	1.009068E-14	1.819460E-16
3.820000E+03	9.371021E-15	1.678309E-16
3.830000E+03	8.762382E-15	1.558719E-16
3.840000E+03	8.311789E-15	1.468580E-16
3.850000E+03	8.051420E-15	1.412958E-16
3.860000E+03	8.005220E-15	1.395338E-16
3.870000E+03	8.194968E-15	1.418723E-16
3.880000E+03	8.643319E-15	1.486175E-16
3.890000E+03	9.374032E-15	1.600844E-16
3.900000E+03	1.040701E-14	1.765125E-16
3.910000E+03	1.175068E-14	1.979397E-16
3.920000E+03	1.338620E-14	2.239445E-16
3.930000E+03	1.525090E-14	2.533872E-16
3.940000E+03	1.723241E-14	2.843374E-16
3.950000E+03	1.918172E-14	3.143164E-16
3.960000E+03	2.093133E-14	3.406121E-16
3.970000E+03	2.233655E-14	3.609572E-16
3.980000E+03	2.332199E-14	3.742608E-16
3.990000E+03	2.389121E-14	3.807229E-16
4.000000E+03	2.410086E-14	3.813806E-16
4.010000E+03	2.403667E-14	3.777019E-16
4.020000E+03	2.379176E-14	3.712311E-16
4.030000E+03	2.344846E-14	3.633036E-16
4.040000E+03	2.306584E-14	3.548604E-16
4.050000E+03	2.267961E-14	3.464600E-16
4.060000E+03	2.230519E-14	3.383374E-16
4.070000E+03	2.194131E-14	3.304694E-16
4.080000E+03	2.157619E-14	3.226769E-16
4.090000E+03	2.119471E-14	3.147353E-16
4.100000E+03	2.078207E-14	3.064320E-16
4.110000E+03	2.032802E-14	2.976266E-16
4.120000E+03	1.982571E-14	2.882321E-16
4.130000E+03	1.927377E-14	2.782434E-16
4.140000E+03	1.867311E-14	2.676884E-16
4.150000E+03	1.802465E-14	2.565937E-16
4.160000E+03	1.732836E-14	2.449726E-16
4.170000E+03	1.658915E-14	2.329068E-16
4.180000E+03	1.582237E-14	2.206213E-16
4.190000E+03	1.505562E-14	2.085042E-16
4.200000E+03	1.432484E-14	1.970482E-16
4.210000E+03	1.366808E-14	1.867606E-16
4.220000E+03	1.312344E-14	1.781368E-16
4.230000E+03	1.272356E-14	1.715848E-16
4.240000E+03	1.249078E-14	1.673647E-16
4.250000E+03	1.243751E-14	1.655982E-16
4.260000E+03	1.256715E-14	1.662858E-16
4.270000E+03	1.287571E-14	1.693315E-16
4.280000E+03	1.334923E-14	1.745131E-16
4.290000E+03	1.396486E-14	1.814989E-16
4.300000E+03	1.469197E-14	1.898669E-16
4.310000E+03	1.549234E-14	1.991079E-16
4.320000E+03	1.632023E-14	2.086291E-16
4.330000E+03	1.712228E-14	2.177547E-16
4.340000E+03	1.784082E-14	2.257681E-16
4.350000E+03	1.841591E-14	2.319384E-16
4.360000E+03	1.878971E-14	2.355730E-16
4.370000E+03	1.892332E-14	2.362264E-16
4.380000E+03	1.881523E-14	2.339214E-16
4.390000E+03	1.848761E-14	2.289695E-16
4.400000E+03	1.796888E-14	2.217493E-16
4.410000E+03	1.729357E-14	2.127054E-16
4.420000E+03	1.651454E-14	2.024980E-16
4.430000E+03	1.570439E-14	1.920176E-16
4.440000E+03	1.494267E-14	1.822281E-16
4.450000E+03	1.430493E-14	1.740353E-16
4.460000E+03	1.385645E-14	1.682135E-16
4.470000E+03	1.364887E-14	1.653681E-16
4.480000E+03	1.371444E-14	1.658684E-16
4.490000E+03	1.406616E-14	1.698521E-16
4.500000E+03	1.470140E-14	1.772714E-16
4.510000E+03	1.560474E-14	1.879280E-16
4.520000E+03	1.674176E-14	2.013985E-16
4.530000E+03	1.805623E-14	2.170017E-16
4.540000E+03	1.947319E-14	2.338351E-16
4.550000E+03	2.090452E-14	2.508421E-16
4.560000E+03	2.225601E-14	2.668959E-16
4.570000E+03	2.343799E-14	2.809253E-16
4.580000E+03	2.438182E-14	2.921125E-16
4.590000E+03	2.504571E-14	2.999602E-16
4.600000E+03	2.541666E-14	3.043152E-16
4.610000E+03	2.551187E-14	3.053843E-16
4.620000E+03	2.536781E-14	3.036037E-16
4.630000E+03	2.502966E-14	2.995125E-16
4.640000E+03	2.454100E-14	2.936304E-16
4.650000E+03	2.393945E-14	2.864049E-16
4.660000E+03	2.325204E-14	2.781572E-16
4.670000E+03	2.249353E-14	2.690616E-16
4.680000E+03	2.167396E-14	2.592366E-16
4.690000E+03	2.080603E-14	2.488324E-16
4.700000E+03	1.990866E-14	2.380740E-16
4.710000E+03	1.900751E-14	2.272678E-16
4.720000E+03	1.813790E-14	2.168351E-16
4.730000E+03	1.734842E-14	2.073565E-16
4.740000E+03	1.669711E-14	1.995246E-16
4.750000E+03	1.623392E-14	1.939352E-16
4.760000E+03	1.599088E-14	1.909682E-16
4.770000E+03	1.598180E-14	1.907846E-16
4.780000E+03	1.620462E-14	1.933556E-16
4.790000E+03	1.664067E-14	1.984521E-16
4.800000E+03	1.725758E-14	2.056821E-16
4.810000E+03	1.801273E-14	2.145307E-16
4.820000E+03	1.885455E-14	2.243770E-16
4.830000E+03	1.972430E-14	2.345157E-16
4.840000E+03	2.056054E-14	2.442120E-16
4.850000E+03	2.130613E-14	2.527846E-16
4.860000E+03	2.191332E-14	2.596672E-16
4.870000E+03	2.235101E-14	2.644940E-16
4.880000E+03	2.261058E-14	2.671686E-16
4.890000E+03	2.270617E-14	2.678652E-16
4.900000E+03	2.267439E-14	2.670228E-16
4.910000E+03	2.257260E-14	2.653231E-16
4.920000E+03	2.246448E-14	2.635173E-16
4.930000E+03	2.240656E-14	2.622679E-16
4.940000E+03	2.243896E-14	2.620393E-16
4.950000E+03	2.258111E-14	2.630498E-16
4.960000E+03	2.282646E-14	2.652131E-16
4.970000E+03	2.313732E-14	2.680816E-16
4.980000E+03	2.344855E-14	2.708949E-16
4.990000E+03	2.367185E-14	2.726346E-16
5.000000E+03	2.370096E-14	2.720891E-16
5.010000E+03	2.344344E-14	2.682226E-16
5.020000E+03	2.286525E-14	2.606823E-16
5.030000E+03	2.201329E-14	2.500429E-16
5.040000E+03	2.098973E-14	2.375000E-16
5.050000E+03	1.991864E-14	2.244798E-16
5.060000E+03	1.892132E-14	2.123558E-16
5.070000E+03	1.809662E-14	2.022276E-16
5.080000E+03	1.750697E-14	1.947693E-16
5.090000E+03	1.717993E-14	1.902545E-16
5.100000E+03	1.711735E-14	1.886659E-16
5.110000E+03	1.729979E-14	1.897499E-16
5.120000E+03	1.768683E-14	1.930267E-16
5.130000E+03	1.821923E-14	1.978197E-16
5.140000E+03	1.882425E-14	2.033184E-16
5.150000E+03	1.941950E-14	2.086251E-16
5.160000E+03	1.992493E-14	2.128866E-16
5.170000E+03	2.028568E-14	2.155366E-16
5.180000E+03	2.048876E-14	2.164647E-16
5.190000E+03	2.055883E-14	2.159604E-16
5.200000E+03	2.054047E-14	2.145157E-16
5.210000E+03	2.048815E-14	2.127149E-16
5.220000E+03	2.045321E-14	2.110966E-16
5.230000E+03	2.047562E-14	2.100706E-16
5.240000E+03	2.057595E-14	2.098390E-16
5.250000E+03	2.075737E-14	2.104226E-16
5.260000E+03	2.100906E-14	2.117008E-16
5.270000E+03	2.130610E-14	2.134150E-16
5.280000E+03	2.161600E-14	2.152374E-16
5.290000E+03	2.190378E-14	2.168241E-16
5.300000E+03	2.214006E-14	2.178942E-16
5.310000E+03	2.230265E-14	2.182440E-16
5.320000E+03	2.237984E-14	2.177769E-16
5.330000E+03	2.237069E-14	2.165020E-16
5.340000E+03	2.228171E-14	2.144999E-16
5.350000E+03	2.212219E-14	2.118755E-16
5.360000E+03	2.189819E-14	2.087001E-16
5.370000E+03	2.161647E-14	2.050498E-16
5.380000E+03	2.128502E-14	2.010096E-16
5.390000E+03	2.091639E-14	1.967053E-16
5.400000E+03	2.052766E-14	1.923021E-16
5.410000E+03	2.014025E-14	1.880023E-16
5.420000E+03	1.977764E-14	1.840241E-16
5.430000E+03	1.946078E-14	1.805583E-16
5.440000E+03	1.920282E-14	1.777203E-16
5.450000E+03	1.900614E-14	1.755264E-16
5.460000E+03	1.886789E-14	1.739451E-16
5.470000E+03	1.878618E-14	1.729535E-16
5.480000E+03	1.876258E-14	1.725595E-16
5.490000E+03	1.879448E-14	1.727337E-16
5.500000E+03	1.886484E-14	1.733150E-16
5.510000E+03	1.894173E-14	1.740064E-16
5.520000E+03	1.898627E-14	1.744474E-16
5.530000E+03	1.896789E-14	1.743533E-16
5.540000E+03	1.887567E-14	1.736188E-16
5.550000E+03	1.871593E-14	1.722965E-16
5.560000E+03	1.850583E-14	1.705381E-16
5.570000E+03	1.826647E-14	1.685322E-16
5.580000E+03	1.802010E-14	1.664789E-16
5.590000E+03	1.778603E-14	1.645520E-16
5.600000E+03	1.757850E-14	1.628799E-16
5.610000E+03	1.740655E-14	1.615440E-16
5.620000E+03	1.727414E-14	1.605791E-16
5.630000E+03	1.717944E-14	1.599668E-16
5.640000E+03	1.711635E-14	1.596490E-16
5.650000E+03	1.707552E-14	1.595372E-16
5.660000E+03	1.704558E-14	1.595232E-16
5.670000E+03	1.701385E-14	1.594862E-16
5.680000E+03	1.696742E-14	1.593026E-16
5.690000E+03	1.689429E-14	1.588567E-16
5.700000E+03	1.678516E-14	1.580578E-16
5.710000E+03	1.663496E-14	1.568550E-16
5.720000E+03	1.644507E-14	1.552582E-16
5.730000E+03	1.622233E-14	1.533295E-16
5.740000E+03	1.598098E-14	1.512018E-16
5.750000E+03	1.574139E-14	1.490669E-16
5.760000E+03	1.552690E-14	1.471458E-16
5.770000E+03	1.536057E-14	1.456572E-16
5.780000E+03	1.526242E-14	1.447917E-16
5.790000E+03	1.524709E-14	1.446887E-16
5.800000E+03	1.532013E-14	1.454008E-16
5.810000E+03	1.547666E-14	1.468810E-16
5.820000E+03	1.570148E-14	1.489837E-16
5.830000E+03	1.597271E-14	1.514996E-16
5.840000E+03	1.626380E-14	1.541747E-16
5.850000E+03	1.654624E-14	1.567371E-16
5.860000E+03	1.679607E-14	1.589587E-16
5.870000E+03	1.699960E-14	1.607097E-16
5.880000E+03	1.715245E-14	1.619494E-16
5.890000E+03	1.725622E-14	1.626943E-16
5.900000E+03	1.731798E-14	1.630129E-16
5.910000E+03	1.734699E-14	1.629943E-16
5.920000E+03	1.735121E-14	1.627155E-16
5.930000E+03	1.733637E-14	1.622324E-16
5.940000E+03	1.730441E-14	1.615652E-16
5.950000E+03	1.725586E-14	1.607212E-16
5.960000E+03	1.718993E-14	1.596957E-16
5.970000E+03	1.710631E-14	1.584888E-16
5.980000E+03	1.700783E-14	1.571297E-16
5.990000E+03	1.690240E-14	1.556944E-16
6.000000E+03	1.680022E-14	1.542794E-16
6.010000E+03	1.671083E-14	1.529736E-16
6.020000E+03	1.664135E-14	1.518435E-16
6.030000E+03	1.659495E-14	1.509182E-16
6.040000E+03	1.657094E-14	1.501917E-16
6.050000E+03	1.656374E-14	1.496141E-16
6.060000E+03	1.656513E-14	1.491123E-16
6.070000E+03	1.656703E-14	1.486157E-16
6.080000E+03	1.656351E-14	1.480741E-16
6.090000E+03	1.655218E-14	1.474694E-16
6.100000E+03	1.653475E-14	1.468207E-16
6.110000E+03	1.651897E-14	1.462002E-16
6.120000E+03	1.651654E-14	1.457139E-16
6.130000E+03	1.653959E-14	1.454710E-16
6.140000E+03	1.659983E-14	1.455755E-16
6.150000E+03	1.670248E-14	1.460737E-16
6.160000E+03	1.684023E-14	1.469030E-16
6.170000E+03	1.698652E-14	1.478343E-16
6.180000E+03	1.710187E-14	1.485288E-16
6.190000E+03	1.714019E-14	1.485929E-16
6.200000E+03	1.706144E-14	1.476878E-16
6.210000E+03	1.684868E-14	1.456742E-16
6.220000E+03	1.650766E-14	1.426049E-16
6.230000E+03	1.605632E-14	1.386346E-16
6.240000E+03	1.551756E-14	1.339580E-16
6.250000E+03	1.491877E-14	1.288074E-16
6.260000E+03	1.428923E-14	1.234300E-16
6.270000E+03	1.365552E-14	1.180496E-16
6.280000E+03	1.303542E-14	1.128144E-16
6.290000E+03	1.243697E-14	1.077890E-16
6.300000E+03	1.186110E-14	1.029771E-16
6.310000E+03	1.130358E-14	9.833797E-17
6.320000E+03	1.075716E-14	9.380465E-17
6.330000E+03	1.021826E-14	8.934183E-17
6.340000E+03	9.692911E-15	8.499848E-17
6.350000E+03	9.198601E-15	8.092509E-17
6.360000E+03	8.761640E-15	7.735258E-17
6.370000E+03	8.416205E-15	7.458558E-17
6.380000E+03	8.203067E-15	7.299329E-17
6.390000E+03	8.164549E-15	7.296655E-17
6.400000E+03	8.337834E-15	7.485901E-17
6.410000E+03	8.753477E-15	7.897374E-17
6.420000E+03	9.438908E-15	8.559427E-17
6.430000E+03	1.041587E-14	9.496124E-17
6.440000E+03	1.168904E-14	1.071673E-16
6.450000E+03	1.323169E-14	1.220205E-16
6.460000E+03	1.497153E-14	1.389028E-16
6.470000E+03	1.678034E-14	1.566586E-16
6.480000E+03	1.848618E-14	1.736922E-16
6.490000E+03	1.992859E-14	1.884731E-16
6.500000E+03	2.103168E-14	2.002332E-16
6.510000E+03	2.183825E-14	2.093191E-16
6.520000E+03	2.251617E-14	2.172924E-16
6.530000E+03	2.329023E-14	2.263099E-16
6.540000E+03	2.424240E-14	2.371905E-16
6.550000E+03	2.524954E-14	2.487543E-16
6.560000E+03	2.613385E-14	2.592459E-16
6.570000E+03	2.675247E-14	2.672096E-16
6.580000E+03	2.702123E-14	2.717405E-16
6.590000E+03	2.693099E-14	2.726700E-16
6.600000E+03	2.653000E-14	2.704124E-16
6.610000E+03	2.589281E-14	2.656658E-16
6.620000E+03	2.509592E-14	2.591697E-16
6.630000E+03	2.420868E-14	2.516106E-16
6.640000E+03	2.328767E-14	2.435615E-16
6.650000E+03	2.237469E-14	2.354549E-16
6.660000E+03	2.149886E-14	2.276006E-16
6.670000E+03	2.067822E-14	2.201985E-16
6.680000E+03	1.992050E-14	2.133422E-16
6.690000E+03	1.922745E-14	2.070632E-16
6.700000E+03	1.859808E-14	2.013633E-16
6.710000E+03	1.802918E-14	1.962199E-16
6.720000E+03	1.751757E-14	1.916094E-16
6.730000E+03	1.706051E-14	1.875124E-16
6.740000E+03	1.665439E-14	1.838988E-16
6.750000E+03	1.629570E-14	1.807385E-16
6.760000E+03	1.597985E-14	1.779882E-16
6.770000E+03	1.569988E-14	1.755772E-16
6.780000E+03	1.544656E-14	1.734074E-16
6.790000E+03	1.520723E-14	1.713403E-16
6.800000E+03	1.496632E-14	1.692024E-16
6.810000E+03	1.470932E-14	1.668299E-16
6.820000E+03	1.442943E-14	1.641448E-16
6.830000E+03	1.413079E-14	1.611934E-16
6.840000E+03	1.382582E-14	1.581175E-16
6.850000E+03	1.352951E-14	1.550902E-16
6.860000E+03	1.325742E-14	1.522927E-16
6.870000E+03	1.302321E-14	1.498858E-16
6.880000E+03	1.283738E-14	1.479942E-16
6.890000E+03	1.270611E-14	1.466936E-16
6.900000E+03	1.263064E-14	1.460017E-16
6.910000E+03	1.260795E-14	1.458864E-16
6.920000E+03	1.262936E-14	1.462492E-16
6.930000E+03	1.268190E-14	1.469407E-16
6.940000E+03	1.275022E-14	1.477833E-16
6.950000E+03	1.281811E-14	1.485889E-16
6.960000E+03	1.287090E-14	1.491870E-16
6.970000E+03	1.289839E-14	1.494591E-16
6.980000E+03	1.289813E-14	1.493774E-16
6.990000E+03	1.287326E-14	1.489788E-16
7.000000E+03	1.282867E-14	1.483209E-16
7.010000E+03	1.277004E-14	1.474709E-16
7.020000E+03	1.270277E-14	1.464922E-16
7.030000E+03	1.263262E-14	1.454528E-16
7.040000E+03	1.256473E-14	1.444127E-16
7.050000E+03	1.250339E-14	1.434220E-16
7.060000E+03	1.245115E-14	1.425105E-16
7.070000E+03	1.240748E-14	1.416726E-16
7.080000E+03	1.236920E-14	1.408722E-16
7.090000E+03	1.233091E-14	1.400486E-16
7.100000E+03	1.228536E-14	1.391208E-16
7.110000E+03	1.222493E-14	1.380045E-16
7.120000E+03	1.214503E-14	1.366510E-16
7.130000E+03	1.204536E-14	1.350606E-16
7.140000E+03	1.192949E-14	1.332768E-16
7.150000E+03	1.180405E-14	1.313772E-16
7.160000E+03	1.167700E-14	1.294530E-16
7.170000E+03	1.155722E-14	1.276040E-16
7.180000E+03	1.145163E-14	1.259072E-16
7.190000E+03	1.136483E-14	1.244126E-16
7.200000E+03	1.129873E-14	1.231399E-16
7.210000E+03	1.125280E-14	1.220819E-16
7.220000E+03	1.122471E-14	1.212122E-16
7.230000E+03	1.121043E-14	1.204861E-16
7.240000E+03	1.120579E-14	1.198586E-16
7.250000E+03	1.120693E-14	1.192888E-16
7.260000E+03	1.121119E-14	1.187491E-16
7.270000E+03	1.121725E-14	1.182271E-16
7.280000E+03	1.122691E-14	1.177430E-16
7.290000E+03	1.124287E-14	1.173264E-16
7.300000E+03	1.126666E-14	1.169940E-16
7.310000E+03	1.129707E-14	1.167344E-16
7.320000E+03	1.133160E-14	1.165227E-16
7.330000E+03	1.136745E-14	1.163319E-16
7.340000E+03	1.140226E-14	1.161401E-16
7.350000E+03	1.143502E-14	1.159395E-16
7.360000E+03	1.146411E-14	1.157162E-16
7.370000E+03	1.148851E-14	1.154633E-16
7.380000E+03	1.150692E-14	1.151706E-16
7.390000E+03	1.151802E-14	1.148280E-16
7.400000E+03	1.152136E-14	1.144346E-16
7.410000E+03	1.151598E-14	1.139839E-16
7.420000E+03	1.150100E-14	1.134704E-16
7.430000E+03	1.147464E-14	1.128799E-16
7.440000E+03	1.143516E-14	1.121980E-16
7.450000E+03	1.138010E-14	1.114037E-16
7.460000E+03	1.130810E-14	1.104861E-16
7.470000E+03	1.121838E-14	1.094388E-16
7.480000E+03	1.111405E-14	1.082910E-16
7.490000E+03	1.100168E-14	1.071046E-16
7.500000E+03	1.088689E-14	1.059319E-16
7.510000E+03	1.076966E-14	1.047705E-16
7.520000E+03	1.063847E-14	1.035055E-16
7.530000E+03	1.047134E-14	1.019205E-16
7.540000E+03	1.024742E-14	9.980904E-17
7.550000E+03	9.959921E-15	9.710064E-17
7.560000E+03	9.615845E-15	9.385832E-17
7.570000E+03	9.231858E-15	9.023918E-17
7.580000E+03	8.829912E-15	8.645263E-17
7.590000E+03	8.434159E-15	8.273094E-17
7.600000E+03	8.068797E-15	7.930880E-17
7.610000E+03	7.755499E-15	7.639847E-17
7.620000E+03	7.514161E-15	7.419719E-17
7.630000E+03	7.361419E-15	7.287261E-17
7.640000E+03	7.311129E-15	7.256733E-17
7.650000E+03	7.373097E-15	7.338599E-17
7.660000E+03	7.548993E-15	7.535395E-17
7.670000E+03	7.826094E-15	7.835349E-17
7.680000E+03	8.180485E-15	8.215354E-17
7.690000E+03	8.581668E-15	8.645423E-17
7.700000E+03	8.996272E-15	9.092297E-17
7.710000E+03	9.390645E-15	9.522005E-17
7.720000E+03	9.737989E-15	9.907089E-17
7.730000E+03	1.002497E-14	1.023346E-16
7.740000E+03	1.024948E-14	1.049831E-16
7.750000E+03	1.041629E-14	1.070587E-16
7.760000E+03	1.053342E-14	1.086377E-16
