#wls	flux	fluxerr
1.600000E+03	1.155309E-16	7.616175E-18
1.640000E+03	1.135812E-16	7.447341E-18
1.680000E+03	1.116145E-16	7.277926E-18
1.720000E+03	1.096358E-16	7.108306E-18
1.760000E+03	1.076975E-16	6.941913E-18
1.800000E+03	1.058142E-16	6.779670E-18
1.840000E+03	1.040112E-16	6.623161E-18
1.880000E+03	1.022890E-16	6.472351E-18
1.920000E+03	1.007798E-16	6.335499E-18
1.960000E+03	9.948146E-17	6.212227E-18
2.000000E+03	9.852477E-17	6.110414E-18
2.040000E+03	9.805785E-17	6.038759E-18
2.080000E+03	9.814638E-17	6.000644E-18
2.120000E+03	9.901555E-17	6.008989E-18
2.160000E+03	1.008095E-16	6.071386E-18
2.200000E+03	1.037617E-16	6.200458E-18
2.240000E+03	1.080933E-16	6.407607E-18
2.280000E+03	1.140081E-16	6.702713E-18
2.320000E+03	1.217516E-16	7.097620E-18
2.360000E+03	1.316003E-16	7.605390E-18
2.400000E+03	1.438041E-16	8.236888E-18
2.440000E+03	1.584034E-16	8.990476E-18
2.480000E+03	1.753518E-16	9.859409E-18
2.520000E+03	1.944413E-16	1.082794E-17
2.560000E+03	2.148510E-16	1.184685E-17
2.600000E+03	2.353801E-16	1.284793E-17
2.640000E+03	2.539964E-16	1.372069E-17
2.680000E+03	2.697993E-16	1.441979E-17
2.720000E+03	2.825867E-16	1.493902E-17
2.760000E+03	2.924751E-16	1.528945E-17
2.800000E+03	2.994863E-16	1.547713E-17
2.840000E+03	3.036596E-16	1.550910E-17
2.880000E+03	3.053654E-16	1.540918E-17
2.920000E+03	3.049589E-16	1.519962E-17
2.960000E+03	3.029201E-16	1.490806E-17
3.000000E+03	2.999661E-16	1.457252E-17
3.010000E+03	2.991552E-16	1.448540E-17
3.020000E+03	2.983123E-16	1.439687E-17
3.030000E+03	2.975108E-16	1.431049E-17
3.040000E+03	2.967612E-16	1.422673E-17
3.050000E+03	2.960139E-16	1.414321E-17
3.060000E+03	2.952815E-16	1.406052E-17
3.070000E+03	2.946352E-16	1.398205E-17
3.080000E+03	2.940862E-16	1.390827E-17
3.090000E+03	2.936454E-16	1.383966E-17
3.100000E+03	2.932090E-16	1.377130E-17
3.110000E+03	2.929620E-16	1.371183E-17
3.120000E+03	2.928012E-16	1.365637E-17
3.130000E+03	2.928512E-16	1.361065E-17
3.140000E+03	2.929551E-16	1.356731E-17
3.150000E+03	2.932923E-16	1.353460E-17
3.160000E+03	2.937633E-16	1.350784E-17
3.170000E+03	2.944896E-16	1.349253E-17
3.180000E+03	2.953732E-16	1.348406E-17
3.190000E+03	2.964805E-16	1.348538E-17
3.200000E+03	2.978229E-16	1.349690E-17
3.210000E+03	2.994123E-16	1.351904E-17
3.220000E+03	3.012602E-16	1.355219E-17
3.230000E+03	3.033788E-16	1.359677E-17
3.240000E+03	3.057798E-16	1.365316E-17
3.250000E+03	3.085290E-16	1.372416E-17
3.260000E+03	3.115316E-16	1.380539E-17
3.270000E+03	3.149072E-16	1.390199E-17
3.280000E+03	3.186150E-16	1.401199E-17
3.290000E+03	3.226678E-16	1.413578E-17
3.300000E+03	3.271327E-16	1.427611E-17
3.310000E+03	3.319689E-16	1.443100E-17
3.320000E+03	3.372446E-16	1.460321E-17
3.330000E+03	3.429191E-16	1.479077E-17
3.340000E+03	3.490609E-16	1.499641E-17
3.350000E+03	3.556287E-16	1.521814E-17
3.360000E+03	3.626923E-16	1.545869E-17
3.370000E+03	3.702661E-16	1.571844E-17
3.380000E+03	3.783645E-16	1.599773E-17
3.390000E+03	3.869433E-16	1.629444E-17
3.400000E+03	3.961323E-16	1.661375E-17
3.410000E+03	4.058266E-16	1.695098E-17
3.420000E+03	4.161577E-16	1.731134E-17
3.430000E+03	4.270773E-16	1.769250E-17
3.440000E+03	4.385951E-16	1.809456E-17
3.450000E+03	4.507192E-16	1.851754E-17
3.460000E+03	4.635211E-16	1.896406E-17
3.470000E+03	4.769432E-16	1.943143E-17
3.480000E+03	4.910564E-16	1.992220E-17
3.490000E+03	5.057996E-16	2.043355E-17
3.500000E+03	5.212448E-16	2.096804E-17
3.510000E+03	5.373992E-16	2.152559E-17
3.520000E+03	5.542711E-16	2.210617E-17
3.530000E+03	5.717984E-16	2.270695E-17
3.540000E+03	5.901399E-16	2.333386E-17
3.550000E+03	6.092423E-16	2.398437E-17
3.560000E+03	6.291266E-16	2.465893E-17
3.570000E+03	6.498870E-16	2.536079E-17
3.580000E+03	6.714452E-16	2.608646E-17
3.590000E+03	6.937649E-16	2.683413E-17
3.600000E+03	7.168839E-16	2.760484E-17
3.610000E+03	7.408142E-16	2.839866E-17
3.620000E+03	7.656146E-16	2.921740E-17
3.630000E+03	7.913529E-16	3.006318E-17
3.640000E+03	8.181027E-16	3.093831E-17
3.650000E+03	8.459498E-16	3.184548E-17
3.660000E+03	8.749993E-16	3.278808E-17
3.670000E+03	9.054705E-16	3.377366E-17
3.680000E+03	9.374234E-16	3.480371E-17
3.690000E+03	9.711313E-16	3.588756E-17
3.700000E+03	1.006802E-15	3.703194E-17
3.710000E+03	1.044570E-15	3.824081E-17
3.720000E+03	1.084900E-15	3.952995E-17
3.730000E+03	1.127990E-15	4.090527E-17
3.740000E+03	1.174168E-15	4.237717E-17
3.750000E+03	1.223800E-15	4.395723E-17
3.760000E+03	1.277402E-15	4.566203E-17
3.770000E+03	1.335420E-15	4.750552E-17
3.780000E+03	1.398231E-15	4.949866E-17
3.790000E+03	1.466479E-15	5.166173E-17
3.800000E+03	1.540871E-15	5.401671E-17
3.810000E+03	1.621911E-15	5.657801E-17
3.820000E+03	1.710262E-15	5.936525E-17
3.830000E+03	1.806767E-15	6.240380E-17
3.840000E+03	1.912026E-15	6.571009E-17
3.850000E+03	2.026941E-15	6.931048E-17
3.860000E+03	2.152286E-15	7.322634E-17
3.870000E+03	2.288980E-15	7.748354E-17
3.880000E+03	2.437593E-15	8.209541E-17
3.890000E+03	2.598769E-15	8.707749E-17
3.900000E+03	2.773223E-15	9.244723E-17
3.910000E+03	2.961349E-15	9.821095E-17
3.920000E+03	3.163321E-15	1.043675E-16
3.930000E+03	3.379035E-15	1.109065E-16
3.940000E+03	3.608038E-15	1.178063E-16
3.950000E+03	3.849923E-15	1.250469E-16
3.960000E+03	4.102641E-15	1.325559E-16
3.970000E+03	4.364983E-15	1.402888E-16
3.980000E+03	4.634150E-15	1.481518E-16
3.990000E+03	4.906869E-15	1.560374E-16
4.000000E+03	5.179075E-15	1.638155E-16
4.010000E+03	5.446402E-15	1.713493E-16
4.020000E+03	5.702326E-15	1.784375E-16
4.030000E+03	5.940008E-15	1.848734E-16
4.040000E+03	6.151166E-15	1.904100E-16
4.050000E+03	6.326984E-15	1.947897E-16
4.060000E+03	6.457841E-15	1.977359E-16
4.070000E+03	6.535511E-15	1.990212E-16
4.080000E+03	6.553509E-15	1.984759E-16
4.090000E+03	6.508783E-15	1.960381E-16
4.100000E+03	6.403079E-15	1.917916E-16
4.110000E+03	6.242491E-15	1.859482E-16
4.120000E+03	6.038302E-15	1.788693E-16
4.130000E+03	5.804593E-15	1.709911E-16
4.140000E+03	5.557271E-15	1.627939E-16
4.150000E+03	5.310292E-15	1.546907E-16
4.160000E+03	5.075232E-15	1.470165E-16
4.170000E+03	4.860783E-15	1.400153E-16
4.180000E+03	4.672337E-15	1.338314E-16
4.190000E+03	4.513278E-15	1.285483E-16
4.200000E+03	4.385140E-15	1.241951E-16
4.210000E+03	4.288681E-15	1.207781E-16
4.220000E+03	4.223789E-15	1.182788E-16
4.230000E+03	4.190866E-15	1.166935E-16
4.240000E+03	4.190122E-15	1.160126E-16
4.250000E+03	4.221806E-15	1.162280E-16
4.260000E+03	4.286443E-15	1.173391E-16
4.270000E+03	4.384683E-15	1.193484E-16
4.280000E+03	4.516861E-15	1.222496E-16
4.290000E+03	4.682938E-15	1.260266E-16
4.300000E+03	4.882106E-15	1.306426E-16
4.310000E+03	5.112834E-15	1.360427E-16
4.320000E+03	5.371996E-15	1.421304E-16
4.330000E+03	5.654316E-15	1.487553E-16
4.340000E+03	5.951332E-15	1.556865E-16
4.350000E+03	6.250722E-15	1.625981E-16
4.360000E+03	6.534504E-15	1.690252E-16
4.370000E+03	6.779119E-15	1.743699E-16
4.380000E+03	6.957514E-15	1.779581E-16
4.390000E+03	7.046852E-15	1.792386E-16
4.400000E+03	7.040776E-15	1.780892E-16
4.410000E+03	6.951910E-15	1.748681E-16
4.420000E+03	6.801346E-15	1.701375E-16
4.430000E+03	6.613185E-15	1.645224E-16
4.440000E+03	6.410445E-15	1.586072E-16
4.450000E+03	6.214429E-15	1.529215E-16
4.460000E+03	6.044318E-15	1.479313E-16
4.470000E+03	5.917188E-15	1.440414E-16
4.480000E+03	5.848307E-15	1.416042E-16
4.490000E+03	5.851560E-15	1.409313E-16
4.500000E+03	5.939130E-15	1.422868E-16
4.510000E+03	6.120854E-15	1.458739E-16
4.520000E+03	6.404229E-15	1.518359E-16
4.530000E+03	6.794490E-15	1.602602E-16
4.540000E+03	7.294610E-15	1.711797E-16
4.550000E+03	7.905176E-15	1.845712E-16
4.560000E+03	8.623288E-15	2.003312E-16
4.570000E+03	9.441417E-15	2.182514E-16
4.580000E+03	1.034574E-14	2.379829E-16
4.590000E+03	1.131504E-14	2.590145E-16
4.600000E+03	1.232015E-14	2.806642E-16
4.610000E+03	1.332441E-14	3.020930E-16
4.620000E+03	1.428513E-14	3.223417E-16
4.630000E+03	1.515718E-14	3.404143E-16
4.640000E+03	1.589564E-14	3.553377E-16
4.650000E+03	1.646029E-14	3.662611E-16
4.660000E+03	1.681940E-14	3.725370E-16
4.670000E+03	1.695080E-14	3.737404E-16
4.680000E+03	1.684658E-14	3.697656E-16
4.690000E+03	1.651515E-14	3.608660E-16
4.700000E+03	1.598017E-14	3.476217E-16
4.710000E+03	1.528062E-14	3.309333E-16
4.720000E+03	1.446543E-14	3.119010E-16
4.730000E+03	1.359031E-14	2.917507E-16
4.740000E+03	1.271138E-14	2.716956E-16
4.750000E+03	1.188032E-14	2.528338E-16
4.760000E+03	1.114053E-14	2.360691E-16
4.770000E+03	1.052323E-14	2.220327E-16
4.780000E+03	1.004486E-14	2.110348E-16
4.790000E+03	9.709977E-15	2.031317E-16
4.800000E+03	9.514556E-15	1.982001E-16
4.810000E+03	9.450858E-15	1.960416E-16
4.820000E+03	9.509839E-15	1.964341E-16
4.830000E+03	9.682732E-15	1.991650E-16
4.840000E+03	9.960935E-15	2.040284E-16
4.850000E+03	1.033620E-14	2.108288E-16
4.860000E+03	1.079950E-14	2.193582E-16
4.870000E+03	1.134039E-14	2.293834E-16
4.880000E+03	1.194609E-14	2.406272E-16
4.890000E+03	1.260104E-14	2.527619E-16
4.900000E+03	1.328671E-14	2.654052E-16
4.910000E+03	1.398303E-14	2.781508E-16
4.920000E+03	1.466819E-14	2.905640E-16
4.930000E+03	1.532100E-14	3.022304E-16
4.940000E+03	1.592097E-14	3.127552E-16
4.950000E+03	1.644996E-14	3.217973E-16
4.960000E+03	1.689187E-14	3.290603E-16
4.970000E+03	1.723187E-14	3.342782E-16
4.980000E+03	1.745739E-14	3.372329E-16
4.990000E+03	1.755738E-14	3.377398E-16
5.000000E+03	1.752240E-14	3.356486E-16
5.010000E+03	1.734666E-14	3.308809E-16
5.020000E+03	1.702920E-14	3.234530E-16
5.030000E+03	1.657607E-14	3.135130E-16
5.040000E+03	1.600217E-14	3.013740E-16
5.050000E+03	1.533164E-14	2.875173E-16
5.060000E+03	1.459691E-14	2.725717E-16
5.070000E+03	1.383555E-14	2.572503E-16
5.080000E+03	1.308585E-14	2.422687E-16
5.090000E+03	1.238343E-14	2.282797E-16
5.100000E+03	1.175759E-14	2.158101E-16
5.110000E+03	1.122973E-14	2.052324E-16
5.120000E+03	1.081279E-14	1.967585E-16
5.130000E+03	1.051239E-14	1.904638E-16
5.140000E+03	1.032774E-14	1.863068E-16
5.150000E+03	1.025270E-14	1.841495E-16
5.160000E+03	1.027651E-14	1.837742E-16
5.170000E+03	1.038522E-14	1.849093E-16
5.180000E+03	1.056186E-14	1.872345E-16
5.190000E+03	1.078804E-14	1.904097E-16
5.200000E+03	1.104582E-14	1.941087E-16
5.210000E+03	1.131992E-14	1.980574E-16
5.220000E+03	1.159920E-14	2.020585E-16
5.230000E+03	1.187842E-14	2.060205E-16
5.240000E+03	1.215805E-14	2.099523E-16
5.250000E+03	1.244381E-14	2.139528E-16
5.260000E+03	1.274381E-14	2.181605E-16
5.270000E+03	1.306664E-14	2.227193E-16
5.280000E+03	1.341894E-14	2.277380E-16
5.290000E+03	1.380457E-14	2.332763E-16
5.300000E+03	1.422303E-14	2.393198E-16
5.310000E+03	1.466924E-14	2.457778E-16
5.320000E+03	1.513353E-14	2.524842E-16
5.330000E+03	1.560278E-14	2.592195E-16
5.340000E+03	1.606074E-14	2.657150E-16
5.350000E+03	1.648899E-14	2.716720E-16
5.360000E+03	1.686842E-14	2.767846E-16
5.370000E+03	1.717980E-14	2.807506E-16
5.380000E+03	1.740443E-14	2.832806E-16
5.390000E+03	1.752586E-14	2.841269E-16
5.400000E+03	1.753122E-14	2.831029E-16
5.410000E+03	1.741518E-14	2.801459E-16
5.420000E+03	1.718359E-14	2.753729E-16
5.430000E+03	1.685603E-14	2.691174E-16
5.440000E+03	1.646649E-14	2.619373E-16
5.450000E+03	1.605812E-14	2.545266E-16
5.460000E+03	1.568007E-14	2.476637E-16
5.470000E+03	1.538081E-14	2.421057E-16
5.480000E+03	1.520321E-14	2.385115E-16
5.490000E+03	1.517705E-14	2.373274E-16
5.500000E+03	1.530784E-14	2.386167E-16
5.510000E+03	1.556900E-14	2.419443E-16
5.520000E+03	1.591296E-14	2.465557E-16
5.530000E+03	1.628494E-14	2.515941E-16
5.540000E+03	1.663094E-14	2.562246E-16
5.550000E+03	1.690803E-14	2.597914E-16
5.560000E+03	1.709234E-14	2.619377E-16
5.570000E+03	1.718507E-14	2.626929E-16
5.580000E+03	1.720796E-14	2.623981E-16
5.590000E+03	1.719153E-14	2.615250E-16
5.600000E+03	1.716616E-14	2.605377E-16
5.610000E+03	1.715561E-14	2.597959E-16
5.620000E+03	1.717295E-14	2.594945E-16
5.630000E+03	1.721921E-14	2.596457E-16
5.640000E+03	1.728279E-14	2.600712E-16
5.650000E+03	1.734046E-14	2.604200E-16
5.660000E+03	1.735808E-14	2.601800E-16
5.670000E+03	1.729412E-14	2.587326E-16
5.680000E+03	1.710556E-14	2.554414E-16
5.690000E+03	1.675507E-14	2.497589E-16
5.700000E+03	1.622205E-14	2.413901E-16
5.710000E+03	1.551101E-14	2.304148E-16
5.720000E+03	1.465494E-14	2.173337E-16
5.730000E+03	1.370923E-14	2.029756E-16
5.740000E+03	1.274178E-14	1.883489E-16
5.750000E+03	1.182073E-14	1.744586E-16
5.760000E+03	1.100488E-14	1.621664E-16
5.770000E+03	1.033813E-14	1.521097E-16
5.780000E+03	9.849554E-15	1.447043E-16
5.790000E+03	9.556528E-15	1.401927E-16
5.800000E+03	9.468068E-15	1.386936E-16
5.810000E+03	9.588233E-15	1.402531E-16
5.820000E+03	9.918603E-15	1.448811E-16
5.830000E+03	1.045923E-14	1.525656E-16
5.840000E+03	1.120698E-14	1.632484E-16
5.850000E+03	1.215096E-14	1.767591E-16
5.860000E+03	1.326764E-14	1.927452E-16
5.870000E+03	1.451457E-14	2.105813E-16
5.880000E+03	1.582739E-14	2.293287E-16
5.890000E+03	1.712139E-14	2.477586E-16
5.900000E+03	1.830088E-14	2.644904E-16
5.910000E+03	1.927450E-14	2.782128E-16
5.920000E+03	1.997471E-14	2.879643E-16
5.930000E+03	2.037249E-14	2.933425E-16
5.940000E+03	2.047894E-14	2.945237E-16
5.950000E+03	2.033743E-14	2.921460E-16
5.960000E+03	2.000761E-14	2.870784E-16
5.970000E+03	1.955362E-14	2.802496E-16
5.980000E+03	1.903248E-14	2.724816E-16
5.990000E+03	1.848858E-14	2.644124E-16
6.000000E+03	1.795272E-14	2.564830E-16
6.010000E+03	1.744431E-14	2.489698E-16
6.020000E+03	1.697378E-14	2.420203E-16
6.030000E+03	1.654776E-14	2.357271E-16
6.040000E+03	1.617269E-14	2.301799E-16
6.050000E+03	1.585688E-14	2.254952E-16
6.060000E+03	1.560879E-14	2.217910E-16
6.070000E+03	1.543495E-14	2.191579E-16
6.080000E+03	1.533726E-14	2.176207E-16
6.090000E+03	1.531269E-14	2.171351E-16
6.100000E+03	1.535299E-14	2.175826E-16
6.110000E+03	1.544543E-14	2.187823E-16
6.120000E+03	1.557336E-14	2.204984E-16
6.130000E+03	1.571719E-14	2.224544E-16
6.140000E+03	1.585733E-14	2.243738E-16
6.150000E+03	1.597651E-14	2.260141E-16
6.160000E+03	1.606375E-14	2.272213E-16
6.170000E+03	1.611669E-14	2.279636E-16
6.180000E+03	1.614013E-14	2.283097E-16
6.190000E+03	1.614241E-14	2.283790E-16
6.200000E+03	1.613241E-14	2.282979E-16
6.210000E+03	1.611776E-14	2.281748E-16
6.220000E+03	1.610228E-14	2.280643E-16
6.230000E+03	1.608637E-14	2.279714E-16
6.240000E+03	1.606578E-14	2.278351E-16
6.250000E+03	1.603323E-14	2.275512E-16
6.260000E+03	1.597935E-14	2.269856E-16
6.270000E+03	1.589540E-14	2.260122E-16
6.280000E+03	1.577431E-14	2.245282E-16
6.290000E+03	1.561147E-14	2.224652E-16
6.300000E+03	1.540123E-14	2.197396E-16
6.310000E+03	1.513143E-14	2.161735E-16
6.320000E+03	1.478276E-14	2.114858E-16
6.330000E+03	1.433297E-14	2.053517E-16
6.340000E+03	1.376420E-14	1.975064E-16
6.350000E+03	1.307184E-14	1.878732E-16
6.360000E+03	1.226923E-14	1.766333E-16
6.370000E+03	1.139068E-14	1.642709E-16
6.380000E+03	1.048672E-14	1.515071E-16
6.390000E+03	9.613650E-15	1.391522E-16
6.400000E+03	8.824466E-15	1.279745E-16
6.410000E+03	8.161798E-15	1.185982E-16
6.420000E+03	7.655566E-15	1.114679E-16
6.430000E+03	7.324069E-15	1.068629E-16
6.440000E+03	7.178599E-15	1.049633E-16
6.450000E+03	7.228580E-15	1.059239E-16
6.460000E+03	7.486710E-15	1.099499E-16
6.470000E+03	7.971477E-15	1.173340E-16
6.480000E+03	8.708362E-15	1.284752E-16
6.490000E+03	9.729683E-15	1.438779E-16
6.500000E+03	1.107142E-14	1.641054E-16
6.510000E+03	1.276706E-14	1.896902E-16
6.520000E+03	1.483749E-14	2.209816E-16
6.530000E+03	1.727103E-14	2.578464E-16
6.540000E+03	1.998917E-14	2.991493E-16
6.550000E+03	2.282112E-14	3.423593E-16
6.560000E+03	2.551820E-14	3.837481E-16
6.570000E+03	2.780015E-14	4.190752E-16
6.580000E+03	2.942416E-14	4.446242E-16
6.590000E+03	3.024920E-14	4.581849E-16
6.600000E+03	3.026475E-14	4.595090E-16
6.610000E+03	2.957632E-14	4.501132E-16
6.620000E+03	2.836293E-14	4.326514E-16
6.630000E+03	2.682725E-14	4.101665E-16
6.640000E+03	2.515198E-14	3.854242E-16
6.650000E+03	2.347813E-14	3.605769E-16
6.660000E+03	2.190024E-14	3.370810E-16
6.670000E+03	2.047220E-14	3.157788E-16
6.680000E+03	1.921690E-14	2.970406E-16
6.690000E+03	1.813649E-14	2.809179E-16
6.700000E+03	1.722177E-14	2.672863E-16
6.710000E+03	1.645752E-14	2.559256E-16
6.720000E+03	1.582629E-14	2.465788E-16
6.730000E+03	1.531046E-14	2.389838E-16
6.740000E+03	1.489312E-14	2.328865E-16
6.750000E+03	1.455860E-14	2.280509E-16
6.760000E+03	1.429175E-14	2.242458E-16
6.770000E+03	1.407793E-14	2.212474E-16
6.780000E+03	1.390220E-14	2.188245E-16
6.790000E+03	1.374907E-14	2.167358E-16
6.800000E+03	1.360288E-14	2.147361E-16
6.810000E+03	1.345088E-14	2.126242E-16
6.820000E+03	1.328414E-14	2.102589E-16
6.830000E+03	1.310072E-14	2.076088E-16
6.840000E+03	1.290407E-14	2.047279E-16
6.850000E+03	1.270121E-14	2.017278E-16
6.860000E+03	1.250196E-14	1.987644E-16
6.870000E+03	1.231607E-14	1.959940E-16
6.880000E+03	1.215331E-14	1.935730E-16
6.890000E+03	1.202155E-14	1.916287E-16
6.900000E+03	1.192662E-14	1.902555E-16
6.910000E+03	1.187228E-14	1.895150E-16
6.920000E+03	1.185947E-14	1.894238E-16
6.930000E+03	1.188657E-14	1.899572E-16
6.940000E+03	1.194998E-14	1.910587E-16
6.950000E+03	1.204392E-14	1.926367E-16
6.960000E+03	1.216133E-14	1.945786E-16
6.970000E+03	1.229441E-14	1.967596E-16
6.980000E+03	1.243467E-14	1.990438E-16
6.990000E+03	1.257348E-14	2.012929E-16
7.000000E+03	1.270277E-14	2.033777E-16
7.010000E+03	1.281436E-14	2.051668E-16
7.020000E+03	1.290182E-14	2.065572E-16
7.030000E+03	1.296056E-14	2.074759E-16
7.040000E+03	1.298839E-14	2.078878E-16
7.050000E+03	1.298538E-14	2.077947E-16
7.060000E+03	1.295312E-14	2.072230E-16
7.070000E+03	1.289351E-14	2.062036E-16
7.080000E+03	1.280886E-14	2.047747E-16
7.090000E+03	1.270178E-14	2.029788E-16
7.100000E+03	1.257512E-14	2.008630E-16
7.110000E+03	1.243314E-14	1.984961E-16
7.120000E+03	1.228076E-14	1.959581E-16
7.130000E+03	1.212476E-14	1.933581E-16
7.140000E+03	1.197232E-14	1.908115E-16
7.150000E+03	1.183058E-14	1.884326E-16
7.160000E+03	1.170578E-14	1.863214E-16
7.170000E+03	1.160255E-14	1.845516E-16
7.180000E+03	1.152405E-14	1.831733E-16
7.190000E+03	1.147196E-14	1.822134E-16
7.200000E+03	1.144679E-14	1.816798E-16
7.210000E+03	1.144811E-14	1.815652E-16
7.220000E+03	1.147552E-14	1.818629E-16
7.230000E+03	1.152758E-14	1.825502E-16
7.240000E+03	1.160336E-14	1.836121E-16
7.250000E+03	1.170130E-14	1.850239E-16
7.260000E+03	1.181880E-14	1.867444E-16
7.270000E+03	1.195271E-14	1.887244E-16
7.280000E+03	1.209782E-14	1.908817E-16
7.290000E+03	1.224709E-14	1.931062E-16
7.300000E+03	1.239135E-14	1.952541E-16
7.310000E+03	1.252011E-14	1.971618E-16
7.320000E+03	1.262229E-14	1.986562E-16
7.330000E+03	1.268861E-14	1.995933E-16
7.340000E+03	1.271278E-14	1.998763E-16
7.350000E+03	1.269317E-14	1.994815E-16
7.360000E+03	1.263323E-14	1.984648E-16
7.370000E+03	1.254085E-14	1.969517E-16
7.380000E+03	1.242723E-14	1.951194E-16
7.390000E+03	1.230364E-14	1.931455E-16
7.400000E+03	1.218057E-14	1.911951E-16
7.410000E+03	1.206485E-14	1.893762E-16
7.420000E+03	1.195992E-14	1.877431E-16
7.430000E+03	1.186492E-14	1.862828E-16
7.440000E+03	1.177605E-14	1.849361E-16
7.450000E+03	1.168839E-14	1.836263E-16
7.460000E+03	1.159731E-14	1.822812E-16
7.470000E+03	1.149895E-14	1.808404E-16
7.480000E+03	1.139188E-14	1.792803E-16
7.490000E+03	1.127669E-14	1.776091E-16
7.500000E+03	1.115579E-14	1.758630E-16
7.510000E+03	1.103066E-14	1.740637E-16
7.520000E+03	1.089764E-14	1.721521E-16
7.530000E+03	1.074861E-14	1.699979E-16
7.540000E+03	1.057643E-14	1.674860E-16
7.550000E+03	1.037963E-14	1.645898E-16
7.560000E+03	1.016203E-14	1.613675E-16
7.570000E+03	9.931498E-15	1.579411E-16
7.580000E+03	9.698592E-15	1.544764E-16
7.590000E+03	9.474312E-15	1.511473E-16
7.600000E+03	9.269506E-15	1.481265E-16
7.610000E+03	9.093966E-15	1.455712E-16
7.620000E+03	8.956299E-15	1.436206E-16
7.630000E+03	8.862914E-15	1.423801E-16
7.640000E+03	8.818723E-15	1.419317E-16
7.650000E+03	8.825671E-15	1.423106E-16
7.660000E+03	8.882672E-15	1.435033E-16
7.670000E+03	8.984955E-15	1.454366E-16
7.680000E+03	9.125607E-15	1.480023E-16
7.690000E+03	9.296923E-15	1.510784E-16
7.700000E+03	9.491792E-15	1.545517E-16
7.710000E+03	9.703889E-15	1.583209E-16
7.720000E+03	9.927283E-15	1.622903E-16
7.730000E+03	1.015542E-14	1.663531E-16
7.740000E+03	1.038109E-14	1.703910E-16
7.750000E+03	1.059626E-14	1.742712E-16
7.760000E+03	1.079200E-14	1.778448E-16
