#wls	flux	fluxerr
1.600000E+03	8.678350E-17	3.042467E-17
1.640000E+03	8.729587E-17	3.033234E-17
1.680000E+03	8.791833E-17	3.026734E-17
1.720000E+03	8.866442E-17	3.023294E-17
1.760000E+03	8.957440E-17	3.024123E-17
1.800000E+03	9.063840E-17	3.028688E-17
1.840000E+03	9.192412E-17	3.039030E-17
1.880000E+03	9.337326E-17	3.052961E-17
1.920000E+03	9.508035E-17	3.073308E-17
1.960000E+03	9.701344E-17	3.098706E-17
2.000000E+03	9.924186E-17	3.131019E-17
2.040000E+03	1.017320E-16	3.168782E-17
2.080000E+03	1.045245E-16	3.212853E-17
2.120000E+03	1.076314E-16	3.263138E-17
2.160000E+03	1.110602E-16	3.319367E-17
2.200000E+03	1.148392E-16	3.381859E-17
2.240000E+03	1.189358E-16	3.449090E-17
2.280000E+03	1.233341E-16	3.520063E-17
2.320000E+03	1.280358E-16	3.594284E-17
2.360000E+03	1.329738E-16	3.669338E-17
2.400000E+03	1.381522E-16	3.744866E-17
2.440000E+03	1.434395E-16	3.816878E-17
2.480000E+03	1.487664E-16	3.883265E-17
2.520000E+03	1.540279E-16	3.941154E-17
2.560000E+03	1.589718E-16	3.984202E-17
2.600000E+03	1.634391E-16	4.008908E-17
2.640000E+03	1.671049E-16	4.008161E-17
2.680000E+03	1.699816E-16	3.983507E-17
2.720000E+03	1.721355E-16	3.937754E-17
2.760000E+03	1.737664E-16	3.876579E-17
2.800000E+03	1.749850E-16	3.803319E-17
2.840000E+03	1.758879E-16	3.720782E-17
2.880000E+03	1.765994E-16	3.632156E-17
2.920000E+03	1.771914E-16	3.539308E-17
2.960000E+03	1.778087E-16	3.445350E-17
3.000000E+03	1.786095E-16	3.353308E-17
3.010000E+03	1.788319E-16	3.330449E-17
3.020000E+03	1.791205E-16	3.308708E-17
3.030000E+03	1.793953E-16	3.286588E-17
3.040000E+03	1.797140E-16	3.265146E-17
3.050000E+03	1.800790E-16	3.244409E-17
3.060000E+03	1.804659E-16	3.223922E-17
3.070000E+03	1.808780E-16	3.203734E-17
3.080000E+03	1.813453E-16	3.184365E-17
3.090000E+03	1.818439E-16	3.165377E-17
3.100000E+03	1.824041E-16	3.147278E-17
3.110000E+03	1.830291E-16	3.130099E-17
3.120000E+03	1.836960E-16	3.113426E-17
3.130000E+03	1.844087E-16	3.097306E-17
3.140000E+03	1.851975E-16	3.082228E-17
3.150000E+03	1.860403E-16	3.067794E-17
3.160000E+03	1.869676E-16	3.054482E-17
3.170000E+03	1.879841E-16	3.042333E-17
3.180000E+03	1.890683E-16	3.030966E-17
3.190000E+03	1.902518E-16	3.020854E-17
3.200000E+03	1.915136E-16	3.011626E-17
3.210000E+03	1.928858E-16	3.003751E-17
3.220000E+03	1.943482E-16	2.996872E-17
3.230000E+03	1.959335E-16	2.991454E-17
3.240000E+03	1.976489E-16	2.987551E-17
3.250000E+03	1.994752E-16	2.984825E-17
3.260000E+03	2.014467E-16	2.983740E-17
3.270000E+03	2.035453E-16	2.983971E-17
3.280000E+03	2.058065E-16	2.985981E-17
3.290000E+03	2.082398E-16	2.989842E-17
3.300000E+03	2.108287E-16	2.995249E-17
3.310000E+03	2.136108E-16	3.002669E-17
3.320000E+03	2.165975E-16	3.012185E-17
3.330000E+03	2.197740E-16	3.023510E-17
3.340000E+03	2.231804E-16	3.037117E-17
3.350000E+03	2.268024E-16	3.052722E-17
3.360000E+03	2.307101E-16	3.071175E-17
3.370000E+03	2.348625E-16	3.091827E-17
3.380000E+03	2.393031E-16	3.115148E-17
3.390000E+03	2.440188E-16	3.140861E-17
3.400000E+03	2.490836E-16	3.169806E-17
3.410000E+03	2.544552E-16	3.201317E-17
3.420000E+03	2.601477E-16	3.235460E-17
3.430000E+03	2.662362E-16	3.273040E-17
3.440000E+03	2.726723E-16	3.313328E-17
3.450000E+03	2.794974E-16	3.356698E-17
3.460000E+03	2.867184E-16	3.403098E-17
3.470000E+03	2.943381E-16	3.452426E-17
3.480000E+03	3.023191E-16	3.504119E-17
3.490000E+03	3.107172E-16	3.558702E-17
3.500000E+03	3.194431E-16	3.615034E-17
3.510000E+03	3.284981E-16	3.673040E-17
3.520000E+03	3.378360E-16	3.732122E-17
3.530000E+03	3.473583E-16	3.791143E-17
3.540000E+03	3.570620E-16	3.850050E-17
3.550000E+03	3.667798E-16	3.907042E-17
3.560000E+03	3.764444E-16	3.961465E-17
3.570000E+03	3.859435E-16	4.012233E-17
3.580000E+03	3.952052E-16	4.058729E-17
3.590000E+03	4.040049E-16	4.098828E-17
3.600000E+03	4.123924E-16	4.133260E-17
3.610000E+03	4.203012E-16	4.161581E-17
3.620000E+03	4.277501E-16	4.184209E-17
3.630000E+03	4.347877E-16	4.201837E-17
3.640000E+03	4.414381E-16	4.214897E-17
3.650000E+03	4.478665E-16	4.225142E-17
3.660000E+03	4.540696E-16	4.232671E-17
3.670000E+03	4.602173E-16	4.239180E-17
3.680000E+03	4.662994E-16	4.244650E-17
3.690000E+03	4.724743E-16	4.250566E-17
3.700000E+03	4.787142E-16	4.256649E-17
3.710000E+03	4.851604E-16	4.264110E-17
3.720000E+03	4.917660E-16	4.272468E-17
3.730000E+03	4.986558E-16	4.282733E-17
3.740000E+03	5.057658E-16	4.294261E-17
3.750000E+03	5.132068E-16	4.307901E-17
3.760000E+03	5.209007E-16	4.322888E-17
3.770000E+03	5.289472E-16	4.339947E-17
3.780000E+03	5.373032E-16	4.358604E-17
3.790000E+03	5.459195E-16	4.378353E-17
3.800000E+03	5.548846E-16	4.399796E-17
3.810000E+03	5.641423E-16	4.422365E-17
3.820000E+03	5.736798E-16	4.445851E-17
3.830000E+03	5.834820E-16	4.470027E-17
3.840000E+03	5.935305E-16	4.494643E-17
3.850000E+03	6.038548E-16	4.519817E-17
3.860000E+03	6.143335E-16	4.544533E-17
3.870000E+03	6.249913E-16	4.568884E-17
3.880000E+03	6.358532E-16	4.592959E-17
3.890000E+03	6.468416E-16	4.616098E-17
3.900000E+03	6.578759E-16	4.637648E-17
3.910000E+03	6.690295E-16	4.658053E-17
3.920000E+03	6.802204E-16	4.676662E-17
3.930000E+03	6.914177E-16	4.693197E-17
3.940000E+03	7.026432E-16	4.707744E-17
3.950000E+03	7.137590E-16	4.719323E-17
3.960000E+03	7.248410E-16	4.728398E-17
3.970000E+03	7.357503E-16	4.734024E-17
3.980000E+03	7.465656E-16	4.736686E-17
3.990000E+03	7.572035E-16	4.735826E-17
4.000000E+03	7.676359E-16	4.731264E-17
4.010000E+03	7.778365E-16	4.722836E-17
4.020000E+03	7.878363E-16	4.710739E-17
4.030000E+03	7.975006E-16	4.694183E-17
4.040000E+03	8.069207E-16	4.673742E-17
4.050000E+03	8.160219E-16	4.649016E-17
4.060000E+03	8.247312E-16	4.619645E-17
4.070000E+03	8.331477E-16	4.586254E-17
4.080000E+03	8.412603E-16	4.548837E-17
4.090000E+03	8.489466E-16	4.506811E-17
4.100000E+03	8.562569E-16	4.460549E-17
4.110000E+03	8.632442E-16	4.410425E-17
4.120000E+03	8.697934E-16	4.355961E-17
4.130000E+03	8.760187E-16	4.297861E-17
4.140000E+03	8.818665E-16	4.235985E-17
4.150000E+03	8.873418E-16	4.170507E-17
4.160000E+03	8.924517E-16	4.101619E-17
4.170000E+03	8.972049E-16	4.029531E-17
4.180000E+03	9.016673E-16	3.954717E-17
4.190000E+03	9.057389E-16	3.876932E-17
4.200000E+03	9.094885E-16	3.796692E-17
4.210000E+03	9.129850E-16	3.714508E-17
4.220000E+03	9.161332E-16	3.630232E-17
4.230000E+03	9.190581E-16	3.544633E-17
4.240000E+03	9.217219E-16	3.457839E-17
4.250000E+03	9.240882E-16	3.370032E-17
4.260000E+03	9.262831E-16	3.282018E-17
4.270000E+03	9.282731E-16	3.194037E-17
4.280000E+03	9.300793E-16	3.106567E-17
4.290000E+03	9.316734E-16	3.019963E-17
4.300000E+03	9.331865E-16	2.935137E-17
4.310000E+03	9.345953E-16	2.852536E-17
4.320000E+03	9.358820E-16	2.772687E-17
4.330000E+03	9.371864E-16	2.696635E-17
4.340000E+03	9.384481E-16	2.624877E-17
4.350000E+03	9.398141E-16	2.558551E-17
4.360000E+03	9.412338E-16	2.498281E-17
4.370000E+03	9.428116E-16	2.445151E-17
4.380000E+03	9.446028E-16	2.400121E-17
4.390000E+03	9.466491E-16	2.364116E-17
4.400000E+03	9.489500E-16	2.337934E-17
4.410000E+03	9.514634E-16	2.322221E-17
4.420000E+03	9.540862E-16	2.317396E-17
4.430000E+03	9.568130E-16	2.323988E-17
4.440000E+03	9.595938E-16	2.342004E-17
4.450000E+03	9.623836E-16	2.370920E-17
4.460000E+03	9.651413E-16	2.410043E-17
4.470000E+03	9.677842E-16	2.458456E-17
4.480000E+03	9.703282E-16	2.515402E-17
4.490000E+03	9.727463E-16	2.579968E-17
4.500000E+03	9.749697E-16	2.651107E-17
4.510000E+03	9.770257E-16	2.728032E-17
4.520000E+03	9.788529E-16	2.809736E-17
4.530000E+03	9.805293E-16	2.895649E-17
4.540000E+03	9.819092E-16	2.984594E-17
4.550000E+03	9.831201E-16	3.076253E-17
4.560000E+03	9.840669E-16	3.169691E-17
4.570000E+03	9.847474E-16	3.264298E-17
4.580000E+03	9.852051E-16	3.359670E-17
4.590000E+03	9.854415E-16	3.455320E-17
4.600000E+03	9.854177E-16	3.550660E-17
4.610000E+03	9.851410E-16	3.645298E-17
4.620000E+03	9.846637E-16	3.739050E-17
4.630000E+03	9.839552E-16	3.831466E-17
4.640000E+03	9.830722E-16	3.922460E-17
4.650000E+03	9.819901E-16	4.011663E-17
4.660000E+03	9.807286E-16	4.098906E-17
4.670000E+03	9.793097E-16	4.184061E-17
4.680000E+03	9.777976E-16	4.267208E-17
4.690000E+03	9.761769E-16	4.348118E-17
4.700000E+03	9.745141E-16	4.426940E-17
4.710000E+03	9.727579E-16	4.503316E-17
4.720000E+03	9.710151E-16	4.577630E-17
4.730000E+03	9.692752E-16	4.649747E-17
4.740000E+03	9.675664E-16	4.719728E-17
4.750000E+03	9.659542E-16	4.787836E-17
4.760000E+03	9.643896E-16	4.853785E-17
4.770000E+03	9.629360E-16	4.917853E-17
4.780000E+03	9.616536E-16	4.980327E-17
4.790000E+03	9.604901E-16	5.040920E-17
4.800000E+03	9.595378E-16	5.100107E-17
4.810000E+03	9.587409E-16	5.157590E-17
4.820000E+03	9.581858E-16	5.213831E-17
4.830000E+03	9.578125E-16	5.268511E-17
4.840000E+03	9.577009E-16	5.322074E-17
4.850000E+03	9.577874E-16	5.374173E-17
4.860000E+03	9.581113E-16	5.425033E-17
4.870000E+03	9.586750E-16	5.474675E-17
4.880000E+03	9.594788E-16	5.523105E-17
4.890000E+03	9.604877E-16	5.570123E-17
4.900000E+03	9.617675E-16	5.616112E-17
4.910000E+03	9.632478E-16	5.660660E-17
4.920000E+03	9.649592E-16	5.703943E-17
4.930000E+03	9.668991E-16	5.745938E-17
4.940000E+03	9.690317E-16	5.786426E-17
4.950000E+03	9.713892E-16	5.825586E-17
4.960000E+03	9.739390E-16	5.863208E-17
4.970000E+03	9.767492E-16	5.899690E-17
4.980000E+03	9.797579E-16	5.934640E-17
4.990000E+03	9.829723E-16	5.968080E-17
5.000000E+03	9.864344E-16	6.000245E-17
5.010000E+03	9.901561E-16	6.031184E-17
5.020000E+03	9.941200E-16	6.060765E-17
5.030000E+03	9.983765E-16	6.089265E-17
5.040000E+03	1.002914E-15	6.116582E-17
5.050000E+03	1.007755E-15	6.142821E-17
5.060000E+03	1.012960E-15	6.168303E-17
5.070000E+03	1.018555E-15	6.193149E-17
5.080000E+03	1.024538E-15	6.217295E-17
5.090000E+03	1.030942E-15	6.240887E-17
5.100000E+03	1.037831E-15	6.264250E-17
5.110000E+03	1.045208E-15	6.287337E-17
5.120000E+03	1.053109E-15	6.310269E-17
5.130000E+03	1.061599E-15	6.333366E-17
5.140000E+03	1.070680E-15	6.356542E-17
5.150000E+03	1.080390E-15	6.379904E-17
5.160000E+03	1.090793E-15	6.403720E-17
5.170000E+03	1.101891E-15	6.427866E-17
5.180000E+03	1.113714E-15	6.452383E-17
5.190000E+03	1.126292E-15	6.477291E-17
5.200000E+03	1.139688E-15	6.502786E-17
5.210000E+03	1.153863E-15	6.528464E-17
5.220000E+03	1.168907E-15	6.554656E-17
5.230000E+03	1.184810E-15	6.581104E-17
5.240000E+03	1.201595E-15	6.607716E-17
5.250000E+03	1.219313E-15	6.634563E-17
5.260000E+03	1.237912E-15	6.661125E-17
5.270000E+03	1.257477E-15	6.687621E-17
5.280000E+03	1.277947E-15	6.713484E-17
5.290000E+03	1.299405E-15	6.738900E-17
5.300000E+03	1.321819E-15	6.763443E-17
5.310000E+03	1.345192E-15	6.786875E-17
5.320000E+03	1.369485E-15	6.808747E-17
5.330000E+03	1.394771E-15	6.829168E-17
5.340000E+03	1.421003E-15	6.847657E-17
5.350000E+03	1.448168E-15	6.863912E-17
5.360000E+03	1.476247E-15	6.877625E-17
5.370000E+03	1.505176E-15	6.888293E-17
5.380000E+03	1.535012E-15	6.895994E-17
5.390000E+03	1.565677E-15	6.900220E-17
5.400000E+03	1.597092E-15	6.900502E-17
5.410000E+03	1.629297E-15	6.896943E-17
5.420000E+03	1.662157E-15	6.888928E-17
5.430000E+03	1.695665E-15	6.876457E-17
5.440000E+03	1.729761E-15	6.859374E-17
5.450000E+03	1.764381E-15	6.837581E-17
5.460000E+03	1.799457E-15	6.811042E-17
5.470000E+03	1.834906E-15	6.779780E-17
5.480000E+03	1.870589E-15	6.743708E-17
5.490000E+03	1.906459E-15	6.703212E-17
5.500000E+03	1.942487E-15	6.658857E-17
5.510000E+03	1.978469E-15	6.610739E-17
5.520000E+03	2.014522E-15	6.560194E-17
5.530000E+03	2.050507E-15	6.507837E-17
5.540000E+03	2.086497E-15	6.455119E-17
5.550000E+03	2.122295E-15	6.402804E-17
5.560000E+03	2.158031E-15	6.352833E-17
5.570000E+03	2.193573E-15	6.306496E-17
5.580000E+03	2.228960E-15	6.265762E-17
5.590000E+03	2.264185E-15	6.232590E-17
5.600000E+03	2.299199E-15	6.208936E-17
5.610000E+03	2.334072E-15	6.197172E-17
5.620000E+03	2.368832E-15	6.199586E-17
5.630000E+03	2.403453E-15	6.218316E-17
5.640000E+03	2.438040E-15	6.255768E-17
5.650000E+03	2.472648E-15	6.314079E-17
5.660000E+03	2.507274E-15	6.394787E-17
5.670000E+03	2.542049E-15	6.498405E-17
5.680000E+03	2.577050E-15	6.624734E-17
5.690000E+03	2.612293E-15	6.773147E-17
5.700000E+03	2.647864E-15	6.942967E-17
5.710000E+03	2.683917E-15	7.133529E-17
5.720000E+03	2.720542E-15	7.343888E-17
5.730000E+03	2.757761E-15	7.572847E-17
5.740000E+03	2.795728E-15	7.819540E-17
5.750000E+03	2.834528E-15	8.082918E-17
5.760000E+03	2.874099E-15	8.361549E-17
5.770000E+03	2.914720E-15	8.655021E-17
5.780000E+03	2.956311E-15	8.961950E-17
5.790000E+03	2.998921E-15	9.281381E-17
5.800000E+03	3.042659E-15	9.612608E-17
5.810000E+03	3.087476E-15	9.954495E-17
5.820000E+03	3.133456E-15	1.030637E-16
5.830000E+03	3.180515E-15	1.066709E-16
5.840000E+03	3.228710E-15	1.103597E-16
5.850000E+03	3.277924E-15	1.141180E-16
5.860000E+03	3.328102E-15	1.179357E-16
5.870000E+03	3.379256E-15	1.218052E-16
5.880000E+03	3.431222E-15	1.257128E-16
5.890000E+03	3.483983E-15	1.296500E-16
5.900000E+03	3.537350E-15	1.336019E-16
5.910000E+03	3.591286E-15	1.375591E-16
5.920000E+03	3.645578E-15	1.415054E-16
5.930000E+03	3.700088E-15	1.454272E-16
5.940000E+03	3.754757E-15	1.493139E-16
5.950000E+03	3.809347E-15	1.531479E-16
5.960000E+03	3.863700E-15	1.569140E-16
5.970000E+03	3.917741E-15	1.606010E-16
5.980000E+03	3.971206E-15	1.641895E-16
5.990000E+03	4.024010E-15	1.676674E-16
6.000000E+03	4.075862E-15	1.710143E-16
6.010000E+03	4.126554E-15	1.742129E-16
6.020000E+03	4.175951E-15	1.772493E-16
6.030000E+03	4.223702E-15	1.801006E-16
6.040000E+03	4.269517E-15	1.827466E-16
6.050000E+03	4.313169E-15	1.851700E-16
6.060000E+03	4.354087E-15	1.873392E-16
6.070000E+03	4.392145E-15	1.892422E-16
6.080000E+03	4.426557E-15	1.908392E-16
6.090000E+03	4.456980E-15	1.921100E-16
6.100000E+03	4.482801E-15	1.930240E-16
6.110000E+03	4.503141E-15	1.935401E-16
6.120000E+03	4.517480E-15	1.936344E-16
6.130000E+03	4.525054E-15	1.932739E-16
6.140000E+03	4.524886E-15	1.924184E-16
6.150000E+03	4.516438E-15	1.910493E-16
6.160000E+03	4.498942E-15	1.891401E-16
6.170000E+03	4.471973E-15	1.866816E-16
6.180000E+03	4.435111E-15	1.836677E-16
6.190000E+03	4.388438E-15	1.801155E-16
6.200000E+03	4.332135E-15	1.760482E-16
6.210000E+03	4.267183E-15	1.715234E-16
6.220000E+03	4.194642E-15	1.666019E-16
6.230000E+03	4.115627E-15	1.613467E-16
6.240000E+03	4.031417E-15	1.558261E-16
6.250000E+03	3.943281E-15	1.501069E-16
6.260000E+03	3.852519E-15	1.442549E-16
6.270000E+03	3.760243E-15	1.383265E-16
6.280000E+03	3.667284E-15	1.323657E-16
6.290000E+03	3.574777E-15	1.264248E-16
6.300000E+03	3.483226E-15	1.205315E-16
6.310000E+03	3.393428E-15	1.147213E-16
6.320000E+03	3.305902E-15	1.090182E-16
6.330000E+03	3.220987E-15	1.034380E-16
6.340000E+03	3.139010E-15	9.799470E-17
6.350000E+03	3.060281E-15	9.270014E-17
6.360000E+03	2.984897E-15	8.755822E-17
6.370000E+03	2.913020E-15	8.257396E-17
6.380000E+03	2.844617E-15	7.774597E-17
6.390000E+03	2.779732E-15	7.307460E-17
6.400000E+03	2.718226E-15	6.855530E-17
6.410000E+03	2.660035E-15	6.418586E-17
6.420000E+03	2.604926E-15	5.996059E-17
6.430000E+03	2.552747E-15	5.587709E-17
6.440000E+03	2.503247E-15	5.193244E-17
6.450000E+03	2.456096E-15	4.812467E-17
6.460000E+03	2.411073E-15	4.445728E-17
6.470000E+03	2.367871E-15	4.093617E-17
6.480000E+03	2.326363E-15	3.757546E-17
6.490000E+03	2.286444E-15	3.439565E-17
6.500000E+03	2.248328E-15	3.142931E-17
6.510000E+03	2.212451E-15	2.872047E-17
6.520000E+03	2.179518E-15	2.632623E-17
6.530000E+03	2.150125E-15	2.431293E-17
6.540000E+03	2.124224E-15	2.274958E-17
6.550000E+03	2.100836E-15	2.169923E-17
6.560000E+03	2.078944E-15	2.121339E-17
6.570000E+03	2.057777E-15	2.130985E-17
6.580000E+03	2.036891E-15	2.194281E-17
6.590000E+03	2.016092E-15	2.302726E-17
6.600000E+03	1.995296E-15	2.446630E-17
6.610000E+03	1.974600E-15	2.616940E-17
6.620000E+03	1.954092E-15	2.805986E-17
6.630000E+03	1.933875E-15	3.007736E-17
6.640000E+03	1.914049E-15	3.217639E-17
6.650000E+03	1.894660E-15	3.432271E-17
6.660000E+03	1.875871E-15	3.649364E-17
6.670000E+03	1.857661E-15	3.867029E-17
6.680000E+03	1.840129E-15	4.084134E-17
6.690000E+03	1.823323E-15	4.299857E-17
6.700000E+03	1.807326E-15	4.513761E-17
6.710000E+03	1.792092E-15	4.725330E-17
6.720000E+03	1.777698E-15	4.934508E-17
6.730000E+03	1.764176E-15	5.141277E-17
6.740000E+03	1.751558E-15	5.345723E-17
6.750000E+03	1.739875E-15	5.548012E-17
6.760000E+03	1.729157E-15	5.748375E-17
6.770000E+03	1.719433E-15	5.947096E-17
6.780000E+03	1.710733E-15	6.144504E-17
6.790000E+03	1.703085E-15	6.340963E-17
6.800000E+03	1.696555E-15	6.537012E-17
6.810000E+03	1.691091E-15	6.732761E-17
6.820000E+03	1.686800E-15	6.928945E-17
6.830000E+03	1.683665E-15	7.125845E-17
6.840000E+03	1.681711E-15	7.323910E-17
6.850000E+03	1.680960E-15	7.523579E-17
6.860000E+03	1.681435E-15	7.725302E-17
6.870000E+03	1.683158E-15	7.929530E-17
6.880000E+03	1.686186E-15	8.136886E-17
6.890000E+03	1.690500E-15	8.347632E-17
6.900000E+03	1.696117E-15	8.562185E-17
6.910000E+03	1.703097E-15	8.781178E-17
6.920000E+03	1.711373E-15	9.004599E-17
6.930000E+03	1.721043E-15	9.233263E-17
6.940000E+03	1.732083E-15	9.467347E-17
6.950000E+03	1.744547E-15	9.707443E-17
6.960000E+03	1.758409E-15	9.953688E-17
6.970000E+03	1.773684E-15	1.020642E-16
6.980000E+03	1.790386E-15	1.046596E-16
6.990000E+03	1.808572E-15	1.073287E-16
7.000000E+03	1.828258E-15	1.100748E-16
7.010000E+03	1.849371E-15	1.128954E-16
7.020000E+03	1.872016E-15	1.157986E-16
7.030000E+03	1.896210E-15	1.187872E-16
7.040000E+03	1.921881E-15	1.218581E-16
7.050000E+03	1.949185E-15	1.250224E-16
7.060000E+03	1.978004E-15	1.282737E-16
7.070000E+03	2.008455E-15	1.316202E-16
7.080000E+03	2.040561E-15	1.350643E-16
7.090000E+03	2.074300E-15	1.386051E-16
7.100000E+03	2.109698E-15	1.422444E-16
7.110000E+03	2.146836E-15	1.459878E-16
7.120000E+03	2.185748E-15	1.498374E-16
7.130000E+03	2.226411E-15	1.537915E-16
7.140000E+03	2.268861E-15	1.578518E-16
7.150000E+03	2.313188E-15	1.620238E-16
7.160000E+03	2.359431E-15	1.663093E-16
7.170000E+03	2.407571E-15	1.707056E-16
7.180000E+03	2.457707E-15	1.752183E-16
7.190000E+03	2.509816E-15	1.798439E-16
7.200000E+03	2.563938E-15	1.845832E-16
7.210000E+03	2.620240E-15	1.894461E-16
7.220000E+03	2.678631E-15	1.944234E-16
7.230000E+03	2.739148E-15	1.995149E-16
7.240000E+03	2.801892E-15	2.047249E-16
7.250000E+03	2.866898E-15	2.100525E-16
7.260000E+03	2.934122E-15	2.154908E-16
7.270000E+03	3.003661E-15	2.210428E-16
7.280000E+03	3.075534E-15	2.267056E-16
7.290000E+03	3.149672E-15	2.324695E-16
7.300000E+03	3.226070E-15	2.383292E-16
7.310000E+03	3.304882E-15	2.442906E-16
7.320000E+03	3.385909E-15	2.503336E-16
7.330000E+03	3.469187E-15	2.564549E-16
7.340000E+03	3.554547E-15	2.626359E-16
7.350000E+03	3.641970E-15	2.688686E-16
7.360000E+03	3.731308E-15	2.751356E-16
7.370000E+03	3.822264E-15	2.814082E-16
7.380000E+03	3.914677E-15	2.876675E-16
7.390000E+03	4.008217E-15	2.938826E-16
7.400000E+03	4.102476E-15	3.000165E-16
7.410000E+03	4.196841E-15	3.060180E-16
7.420000E+03	4.290808E-15	3.118441E-16
7.430000E+03	4.383545E-15	3.174287E-16
7.440000E+03	4.474326E-15	3.227149E-16
7.450000E+03	4.562215E-15	3.276315E-16
7.460000E+03	4.646180E-15	3.321022E-16
7.470000E+03	4.725008E-15	3.360400E-16
7.480000E+03	4.797848E-15	3.393860E-16
7.490000E+03	4.863406E-15	3.420524E-16
7.500000E+03	4.920776E-15	3.439818E-16
7.510000E+03	4.969584E-15	3.451562E-16
7.520000E+03	5.009334E-15	3.455515E-16
7.530000E+03	5.040366E-15	3.452030E-16
7.540000E+03	5.063098E-15	3.441518E-16
7.550000E+03	5.078582E-15	3.424823E-16
7.560000E+03	5.087468E-15	3.402506E-16
7.570000E+03	5.090885E-15	3.375443E-16
7.580000E+03	5.089699E-15	3.344316E-16
7.590000E+03	5.085157E-15	3.310046E-16
7.600000E+03	5.077889E-15	3.273129E-16
7.610000E+03	5.068861E-15	3.234261E-16
7.620000E+03	5.058807E-15	3.193974E-16
7.630000E+03	5.048231E-15	3.152637E-16
7.640000E+03	5.037963E-15	3.110809E-16
7.650000E+03	5.028195E-15	3.068637E-16
7.660000E+03	5.019466E-15	3.026469E-16
7.670000E+03	5.011964E-15	2.984433E-16
7.680000E+03	5.006243E-15	2.942866E-16
7.690000E+03	5.002248E-15	2.901734E-16
7.700000E+03	5.000304E-15	2.861225E-16
7.710000E+03	5.000564E-15	2.821418E-16
7.720000E+03	5.003152E-15	2.782376E-16
7.730000E+03	5.008036E-15	2.744071E-16
7.740000E+03	5.015446E-15	2.706619E-16
7.750000E+03	5.025605E-15	2.670128E-16
7.760000E+03	5.038155E-15	2.634399E-16
