#wls	flux	fluxerr
1.600000E+03	4.660988E-17	1.070731E-17
1.640000E+03	4.746093E-17	1.082443E-17
1.680000E+03	4.841360E-17	1.095957E-17
1.720000E+03	4.947776E-17	1.111427E-17
1.760000E+03	5.064710E-17	1.128634E-17
1.800000E+03	5.195003E-17	1.148130E-17
1.840000E+03	5.339914E-17	1.170095E-17
1.880000E+03	5.500791E-17	1.194714E-17
1.920000E+03	5.677227E-17	1.221779E-17
1.960000E+03	5.874349E-17	1.252261E-17
2.000000E+03	6.091890E-17	1.285942E-17
2.040000E+03	6.329418E-17	1.322569E-17
2.080000E+03	6.590283E-17	1.362664E-17
2.120000E+03	6.877927E-17	1.406734E-17
2.160000E+03	7.189351E-17	1.453943E-17
2.200000E+03	7.529564E-17	1.505076E-17
2.240000E+03	7.894376E-17	1.559042E-17
2.280000E+03	8.287728E-17	1.616373E-17
2.320000E+03	8.705709E-17	1.676035E-17
2.360000E+03	9.145187E-17	1.737178E-17
2.400000E+03	9.601207E-17	1.798633E-17
2.440000E+03	1.006938E-16	1.859381E-17
2.480000E+03	1.053474E-16	1.916525E-17
2.520000E+03	1.099102E-16	1.968883E-17
2.560000E+03	1.142481E-16	2.014098E-17
2.600000E+03	1.181941E-16	2.049393E-17
2.640000E+03	1.216370E-16	2.073151E-17
2.680000E+03	1.245749E-16	2.085737E-17
2.720000E+03	1.270241E-16	2.087832E-17
2.760000E+03	1.291074E-16	2.081835E-17
2.800000E+03	1.309084E-16	2.069387E-17
2.840000E+03	1.325824E-16	2.053146E-17
2.880000E+03	1.342542E-16	2.035117E-17
2.920000E+03	1.360142E-16	2.016633E-17
2.960000E+03	1.380409E-16	2.000190E-17
3.000000E+03	1.403843E-16	1.986219E-17
3.010000E+03	1.410276E-16	1.983184E-17
3.020000E+03	1.416971E-16	1.980368E-17
3.030000E+03	1.424258E-16	1.978218E-17
3.040000E+03	1.431528E-16	1.975881E-17
3.050000E+03	1.439423E-16	1.974237E-17
3.060000E+03	1.447647E-16	1.972864E-17
3.070000E+03	1.456215E-16	1.971778E-17
3.080000E+03	1.465145E-16	1.970991E-17
3.090000E+03	1.474452E-16	1.970513E-17
3.100000E+03	1.484466E-16	1.970773E-17
3.110000E+03	1.494574E-16	1.970944E-17
3.120000E+03	1.505422E-16	1.971869E-17
3.130000E+03	1.516711E-16	1.973139E-17
3.140000E+03	1.528135E-16	1.974347E-17
3.150000E+03	1.540348E-16	1.976328E-17
3.160000E+03	1.553045E-16	1.978672E-17
3.170000E+03	1.566563E-16	1.981794E-17
3.180000E+03	1.580272E-16	1.984878E-17
3.190000E+03	1.594506E-16	1.988335E-17
3.200000E+03	1.609604E-16	1.992573E-17
3.210000E+03	1.625255E-16	1.997184E-17
3.220000E+03	1.641139E-16	2.001763E-17
3.230000E+03	1.657927E-16	2.007116E-17
3.240000E+03	1.675298E-16	2.012833E-17
3.250000E+03	1.693602E-16	2.019314E-17
3.260000E+03	1.712170E-16	2.025744E-17
3.270000E+03	1.731687E-16	2.032918E-17
3.280000E+03	1.751478E-16	2.040025E-17
3.290000E+03	1.772236E-16	2.047858E-17
3.300000E+03	1.793619E-16	2.055998E-17
3.310000E+03	1.815632E-16	2.064433E-17
3.320000E+03	1.838276E-16	2.073149E-17
3.330000E+03	1.861551E-16	2.082126E-17
3.340000E+03	1.885456E-16	2.091348E-17
3.350000E+03	1.910356E-16	2.101199E-17
3.360000E+03	1.935890E-16	2.111258E-17
3.370000E+03	1.961685E-16	2.121103E-17
3.380000E+03	1.988477E-16	2.131519E-17
3.390000E+03	2.015900E-16	2.142088E-17
3.400000E+03	2.044334E-16	2.153195E-17
3.410000E+03	2.073020E-16	2.164019E-17
3.420000E+03	2.102341E-16	2.174951E-17
3.430000E+03	2.132696E-16	2.186384E-17
3.440000E+03	2.163712E-16	2.197909E-17
3.450000E+03	2.195403E-16	2.209526E-17
3.460000E+03	2.227790E-16	2.221238E-17
3.470000E+03	2.260902E-16	2.233055E-17
3.480000E+03	2.294774E-16	2.244992E-17
3.490000E+03	2.329448E-16	2.257072E-17
3.500000E+03	2.365400E-16	2.269731E-17
3.510000E+03	2.402276E-16	2.282599E-17
3.520000E+03	2.439712E-16	2.295311E-17
3.530000E+03	2.478649E-16	2.308729E-17
3.540000E+03	2.518744E-16	2.322499E-17
3.550000E+03	2.560535E-16	2.337081E-17
3.560000E+03	2.603227E-16	2.351715E-17
3.570000E+03	2.647816E-16	2.367269E-17
3.580000E+03	2.693477E-16	2.382964E-17
3.590000E+03	2.741214E-16	2.399652E-17
3.600000E+03	2.790621E-16	2.416930E-17
3.610000E+03	2.841727E-16	2.434779E-17
3.620000E+03	2.894533E-16	2.453159E-17
3.630000E+03	2.949514E-16	2.472427E-17
3.640000E+03	3.005639E-16	2.491673E-17
3.650000E+03	3.063862E-16	2.511652E-17
3.660000E+03	3.123099E-16	2.531436E-17
3.670000E+03	3.184315E-16	2.551777E-17
3.680000E+03	3.246923E-16	2.572161E-17
3.690000E+03	3.311388E-16	2.592917E-17
3.700000E+03	3.376548E-16	2.613096E-17
3.710000E+03	3.442861E-16	2.633029E-17
3.720000E+03	3.510822E-16	2.653060E-17
3.730000E+03	3.579807E-16	2.672678E-17
3.740000E+03	3.649161E-16	2.691373E-17
3.750000E+03	3.719987E-16	2.709938E-17
3.760000E+03	3.792254E-16	2.728311E-17
3.770000E+03	3.864709E-16	2.745564E-17
3.780000E+03	3.937900E-16	2.762074E-17
3.790000E+03	4.012414E-16	2.778230E-17
3.800000E+03	4.086959E-16	2.793111E-17
3.810000E+03	4.162772E-16	2.807551E-17
3.820000E+03	4.239186E-16	2.821072E-17
3.830000E+03	4.316174E-16	2.833639E-17
3.840000E+03	4.393708E-16	2.845219E-17
3.850000E+03	4.472445E-16	2.856216E-17
3.860000E+03	4.551000E-16	2.865727E-17
3.870000E+03	4.630729E-16	2.874596E-17
3.880000E+03	4.710920E-16	2.882359E-17
3.890000E+03	4.790832E-16	2.888556E-17
3.900000E+03	4.871870E-16	2.894031E-17
3.910000E+03	4.954036E-16	2.898754E-17
3.920000E+03	5.035837E-16	2.901838E-17
3.930000E+03	5.117974E-16	2.903693E-17
3.940000E+03	5.201184E-16	2.904722E-17
3.950000E+03	5.283917E-16	2.904048E-17
3.960000E+03	5.367677E-16	2.902503E-17
3.970000E+03	5.451668E-16	2.899639E-17
3.980000E+03	5.535854E-16	2.895438E-17
3.990000E+03	5.620199E-16	2.889881E-17
4.000000E+03	5.704664E-16	2.882952E-17
4.010000E+03	5.790033E-16	2.875048E-17
4.020000E+03	5.874625E-16	2.865333E-17
4.030000E+03	5.960051E-16	2.854613E-17
4.040000E+03	6.045442E-16	2.842469E-17
4.050000E+03	6.129891E-16	2.828500E-17
4.060000E+03	6.215055E-16	2.813499E-17
4.070000E+03	6.300035E-16	2.797066E-17
4.080000E+03	6.385655E-16	2.779588E-17
4.090000E+03	6.470104E-16	2.760301E-17
4.100000E+03	6.554194E-16	2.739604E-17
4.110000E+03	6.638769E-16	2.717881E-17
4.120000E+03	6.721959E-16	2.694407E-17
4.130000E+03	6.805511E-16	2.669943E-17
4.140000E+03	6.888447E-16	2.644148E-17
4.150000E+03	6.970688E-16	2.617056E-17
4.160000E+03	7.052150E-16	2.588710E-17
4.170000E+03	7.132743E-16	2.559157E-17
4.180000E+03	7.212372E-16	2.528452E-17
4.190000E+03	7.291896E-16	2.496988E-17
4.200000E+03	7.369293E-16	2.464174E-17
4.210000E+03	7.446372E-16	2.430741E-17
4.220000E+03	7.521072E-16	2.396141E-17
4.230000E+03	7.595209E-16	2.361105E-17
4.240000E+03	7.667672E-16	2.325429E-17
4.250000E+03	7.738312E-16	2.289239E-17
4.260000E+03	7.806974E-16	2.252678E-17
4.270000E+03	7.873493E-16	2.215898E-17
4.280000E+03	7.937698E-16	2.179070E-17
4.290000E+03	8.000422E-16	2.142650E-17
4.300000E+03	8.059474E-16	2.106295E-17
4.310000E+03	8.115674E-16	2.070500E-17
4.320000E+03	8.169859E-16	2.035754E-17
4.330000E+03	8.219818E-16	2.001794E-17
4.340000E+03	8.267412E-16	1.969386E-17
4.350000E+03	8.311459E-16	1.938554E-17
4.360000E+03	8.351809E-16	1.909582E-17
4.370000E+03	8.388327E-16	1.882761E-17
4.380000E+03	8.419884E-16	1.858154E-17
4.390000E+03	8.449471E-16	1.836726E-17
4.400000E+03	8.474010E-16	1.818079E-17
4.410000E+03	8.494554E-16	1.802704E-17
4.420000E+03	8.511177E-16	1.790838E-17
4.430000E+03	8.523983E-16	1.782686E-17
4.440000E+03	8.534108E-16	1.778617E-17
4.450000E+03	8.539689E-16	1.778212E-17
4.460000E+03	8.541910E-16	1.781543E-17
4.470000E+03	8.541956E-16	1.788639E-17
4.480000E+03	8.538019E-16	1.798865E-17
4.490000E+03	8.532288E-16	1.812398E-17
4.500000E+03	8.523965E-16	1.828770E-17
4.510000E+03	8.512269E-16	1.847498E-17
4.520000E+03	8.499361E-16	1.868728E-17
4.530000E+03	8.484451E-16	1.891976E-17
4.540000E+03	8.466772E-16	1.916756E-17
4.550000E+03	8.448436E-16	1.943245E-17
4.560000E+03	8.428655E-16	1.970981E-17
4.570000E+03	8.407605E-16	1.999736E-17
4.580000E+03	8.385456E-16	2.029298E-17
4.590000E+03	8.362369E-16	2.059472E-17
4.600000E+03	8.338500E-16	2.090081E-17
4.610000E+03	8.313083E-16	2.120731E-17
4.620000E+03	8.288103E-16	2.151744E-17
4.630000E+03	8.262774E-16	2.182762E-17
4.640000E+03	8.237233E-16	2.213672E-17
4.650000E+03	8.211608E-16	2.244379E-17
4.660000E+03	8.186021E-16	2.274798E-17
4.670000E+03	8.160594E-16	2.304856E-17
4.680000E+03	8.135444E-16	2.334495E-17
4.690000E+03	8.110680E-16	2.363664E-17
4.700000E+03	8.086414E-16	2.392324E-17
4.710000E+03	8.062748E-16	2.420441E-17
4.720000E+03	8.039784E-16	2.447993E-17
4.730000E+03	8.017623E-16	2.474962E-17
4.740000E+03	7.996358E-16	2.501339E-17
4.750000E+03	7.976083E-16	2.527118E-17
4.760000E+03	7.956889E-16	2.552299E-17
4.770000E+03	7.938864E-16	2.576888E-17
4.780000E+03	7.922093E-16	2.600891E-17
4.790000E+03	7.906661E-16	2.624322E-17
4.800000E+03	7.892649E-16	2.647196E-17
4.810000E+03	7.879333E-16	2.669257E-17
4.820000E+03	7.868403E-16	2.691068E-17
4.830000E+03	7.859130E-16	2.712382E-17
4.840000E+03	7.851588E-16	2.733219E-17
4.850000E+03	7.845062E-16	2.753329E-17
4.860000E+03	7.841210E-16	2.773289E-17
4.870000E+03	7.838528E-16	2.792571E-17
4.880000E+03	7.838657E-16	2.811760E-17
4.890000E+03	7.840107E-16	2.830324E-17
4.900000E+03	7.844507E-16	2.848852E-17
4.910000E+03	7.850378E-16	2.866810E-17
4.920000E+03	7.858568E-16	2.884506E-17
4.930000E+03	7.869922E-16	2.902254E-17
4.940000E+03	7.882972E-16	2.919513E-17
4.950000E+03	7.898564E-16	2.936595E-17
4.960000E+03	7.916774E-16	2.953528E-17
4.970000E+03	7.937679E-16	2.970339E-17
4.980000E+03	7.961359E-16	2.987053E-17
4.990000E+03	7.987128E-16	3.003410E-17
5.000000E+03	8.016600E-16	3.020009E-17
5.010000E+03	8.049091E-16	3.036589E-17
5.020000E+03	8.083923E-16	3.052882E-17
5.030000E+03	8.122714E-16	3.069490E-17
5.040000E+03	8.164019E-16	3.085855E-17
5.050000E+03	8.208696E-16	3.102286E-17
5.060000E+03	8.256835E-16	3.118802E-17
5.070000E+03	8.308534E-16	3.135422E-17
5.080000E+03	8.363886E-16	3.152160E-17
5.090000E+03	8.422988E-16	3.169031E-17
5.100000E+03	8.485940E-16	3.186047E-17
5.110000E+03	8.552050E-16	3.202923E-17
5.120000E+03	8.622995E-16	3.220256E-17
5.130000E+03	8.697291E-16	3.237462E-17
5.140000E+03	8.776628E-16	3.255135E-17
5.150000E+03	8.859507E-16	3.272681E-17
5.160000E+03	8.946824E-16	3.290396E-17
5.170000E+03	9.038676E-16	3.308275E-17
5.180000E+03	9.134332E-16	3.326006E-17
5.190000E+03	9.235532E-16	3.344181E-17
5.200000E+03	9.341544E-16	3.362484E-17
5.210000E+03	9.451609E-16	3.380593E-17
5.220000E+03	9.566641E-16	3.398789E-17
5.230000E+03	9.686712E-16	3.417045E-17
5.240000E+03	9.811900E-16	3.435336E-17
5.250000E+03	9.942267E-16	3.453628E-17
5.260000E+03	1.007787E-15	3.471886E-17
5.270000E+03	1.021785E-15	3.489764E-17
5.280000E+03	1.036404E-15	3.507834E-17
5.290000E+03	1.051466E-15	3.525440E-17
5.300000E+03	1.067063E-15	3.542843E-17
5.310000E+03	1.083196E-15	3.559994E-17
5.320000E+03	1.099768E-15	3.576536E-17
5.330000E+03	1.116966E-15	3.593037E-17
5.340000E+03	1.134597E-15	3.608832E-17
5.350000E+03	1.152751E-15	3.624181E-17
5.360000E+03	1.171522E-15	3.639351E-17
5.370000E+03	1.190601E-15	3.653366E-17
5.380000E+03	1.210280E-15	3.667123E-17
5.390000E+03	1.230450E-15	3.680281E-17
5.400000E+03	1.250993E-15	3.692505E-17
5.410000E+03	1.272000E-15	3.704096E-17
5.420000E+03	1.293457E-15	3.715052E-17
5.430000E+03	1.315349E-15	3.725384E-17
5.440000E+03	1.337552E-15	3.734812E-17
5.450000E+03	1.360271E-15	3.744004E-17
5.460000E+03	1.383267E-15	3.752405E-17
5.470000E+03	1.406638E-15	3.760419E-17
5.480000E+03	1.430372E-15	3.768161E-17
5.490000E+03	1.454335E-15	3.775462E-17
5.500000E+03	1.478762E-15	3.783133E-17
5.510000E+03	1.503406E-15	3.790758E-17
5.520000E+03	1.528389E-15	3.798901E-17
5.530000E+03	1.553714E-15	3.807846E-17
5.540000E+03	1.579390E-15	3.817911E-17
5.550000E+03	1.605294E-15	3.829129E-17
5.560000E+03	1.631565E-15	3.842191E-17
5.570000E+03	1.658220E-15	3.857505E-17
5.580000E+03	1.685273E-15	3.875507E-17
5.590000E+03	1.712603E-15	3.896339E-17
5.600000E+03	1.740507E-15	3.921117E-17
5.610000E+03	1.768726E-15	3.949703E-17
5.620000E+03	1.797421E-15	3.982931E-17
5.630000E+03	1.826469E-15	4.021000E-17
5.640000E+03	1.856185E-15	4.065084E-17
5.650000E+03	1.886297E-15	4.115055E-17
5.660000E+03	1.916976E-15	4.171625E-17
5.670000E+03	1.948247E-15	4.234880E-17
5.680000E+03	1.979976E-15	4.304492E-17
5.690000E+03	2.012338E-15	4.380765E-17
5.700000E+03	2.045355E-15	4.463643E-17
5.710000E+03	2.079047E-15	4.553026E-17
5.720000E+03	2.113431E-15	4.648790E-17
5.730000E+03	2.148353E-15	4.750399E-17
5.740000E+03	2.183989E-15	4.858033E-17
5.750000E+03	2.220351E-15	4.971482E-17
5.760000E+03	2.257265E-15	5.090109E-17
5.770000E+03	2.295088E-15	5.214457E-17
5.780000E+03	2.333457E-15	5.343436E-17
5.790000E+03	2.372545E-15	5.477149E-17
5.800000E+03	2.412147E-15	5.614835E-17
5.810000E+03	2.452620E-15	5.757020E-17
5.820000E+03	2.493558E-15	5.902454E-17
5.830000E+03	2.535116E-15	6.051183E-17
5.840000E+03	2.577053E-15	6.202310E-17
5.850000E+03	2.619719E-15	6.356351E-17
5.860000E+03	2.662650E-15	6.511858E-17
5.870000E+03	2.705980E-15	6.668815E-17
5.880000E+03	2.749419E-15	6.826159E-17
5.890000E+03	2.793301E-15	6.984375E-17
5.900000E+03	2.837099E-15	7.141795E-17
5.910000E+03	2.880693E-15	7.297752E-17
5.920000E+03	2.924402E-15	7.452693E-17
5.930000E+03	2.967648E-15	7.604777E-17
5.940000E+03	3.010506E-15	7.753835E-17
5.950000E+03	3.052821E-15	7.899093E-17
5.960000E+03	3.094424E-15	8.039756E-17
5.970000E+03	3.134896E-15	8.174369E-17
5.980000E+03	3.174283E-15	8.302688E-17
5.990000E+03	3.212386E-15	8.423848E-17
6.000000E+03	3.248752E-15	8.536316E-17
6.010000E+03	3.283408E-15	8.639843E-17
6.020000E+03	3.316138E-15	8.733551E-17
6.030000E+03	3.346718E-15	8.816568E-17
6.040000E+03	3.374672E-15	8.887375E-17
6.050000E+03	3.400031E-15	8.945825E-17
6.060000E+03	3.422577E-15	8.991149E-17
6.070000E+03	3.442103E-15	9.022636E-17
6.080000E+03	3.458147E-15	9.038960E-17
6.090000E+03	3.470785E-15	9.040241E-17
6.100000E+03	3.479848E-15	9.026015E-17
6.110000E+03	3.484925E-15	8.995236E-17
6.120000E+03	3.486154E-15	8.948338E-17
6.130000E+03	3.483438E-15	8.885196E-17
6.140000E+03	3.476704E-15	8.805808E-17
6.150000E+03	3.465912E-15	8.710308E-17
6.160000E+03	3.450797E-15	8.598316E-17
6.170000E+03	3.431644E-15	8.470901E-17
6.180000E+03	3.408258E-15	8.327974E-17
6.190000E+03	3.381245E-15	8.171458E-17
6.200000E+03	3.350222E-15	8.000899E-17
6.210000E+03	3.315352E-15	7.817230E-17
6.220000E+03	3.277321E-15	7.622619E-17
6.230000E+03	3.235848E-15	7.416980E-17
6.240000E+03	3.191413E-15	7.202029E-17
6.250000E+03	3.144270E-15	6.978950E-17
6.260000E+03	3.094455E-15	6.748449E-17
6.270000E+03	3.042486E-15	6.512297E-17
6.280000E+03	2.988649E-15	6.271722E-17
6.290000E+03	2.933232E-15	6.027945E-17
6.300000E+03	2.876311E-15	5.781724E-17
6.310000E+03	2.818394E-15	5.534686E-17
6.320000E+03	2.759757E-15	5.287938E-17
6.330000E+03	2.700672E-15	5.042541E-17
6.340000E+03	2.641200E-15	4.799142E-17
6.350000E+03	2.581789E-15	4.559076E-17
6.360000E+03	2.522668E-15	4.323227E-17
6.370000E+03	2.463869E-15	4.092124E-17
6.380000E+03	2.405955E-15	3.867167E-17
6.390000E+03	2.348746E-15	3.648500E-17
6.400000E+03	2.292416E-15	3.436867E-17
6.410000E+03	2.237451E-15	3.233465E-17
6.420000E+03	2.183643E-15	3.038462E-17
6.430000E+03	2.131273E-15	2.852772E-17
6.440000E+03	2.080280E-15	2.676879E-17
6.450000E+03	2.031053E-15	2.511905E-17
6.460000E+03	1.983354E-15	2.358225E-17
6.470000E+03	1.937388E-15	2.216853E-17
6.480000E+03	1.893050E-15	2.088502E-17
6.490000E+03	1.850513E-15	1.974254E-17
6.500000E+03	1.809923E-15	1.875163E-17
6.510000E+03	1.770883E-15	1.791675E-17
6.520000E+03	1.733785E-15	1.724937E-17
6.530000E+03	1.698348E-15	1.675187E-17
6.540000E+03	1.664677E-15	1.642731E-17
6.550000E+03	1.632733E-15	1.627173E-17
6.560000E+03	1.602353E-15	1.627025E-17
6.570000E+03	1.573725E-15	1.640792E-17
6.580000E+03	1.546564E-15	1.666399E-17
6.590000E+03	1.520821E-15	1.702034E-17
6.600000E+03	1.496672E-15	1.746252E-17
6.610000E+03	1.473838E-15	1.797280E-17
6.620000E+03	1.452384E-15	1.853931E-17
6.630000E+03	1.432258E-15	1.915097E-17
6.640000E+03	1.413311E-15	1.979720E-17
6.650000E+03	1.395708E-15	2.047347E-17
6.660000E+03	1.379201E-15	2.117098E-17
6.670000E+03	1.363755E-15	2.188496E-17
6.680000E+03	1.349538E-15	2.261510E-17
6.690000E+03	1.336317E-15	2.335549E-17
6.700000E+03	1.324163E-15	2.410586E-17
6.710000E+03	1.313052E-15	2.486495E-17
6.720000E+03	1.302959E-15	2.563194E-17
6.730000E+03	1.293769E-15	2.640454E-17
6.740000E+03	1.285562E-15	2.718454E-17
6.750000E+03	1.278322E-15	2.797218E-17
6.760000E+03	1.271945E-15	2.876584E-17
6.770000E+03	1.266607E-15	2.957035E-17
6.780000E+03	1.262114E-15	3.038227E-17
6.790000E+03	1.258555E-15	3.120471E-17
6.800000E+03	1.255831E-15	3.203640E-17
6.810000E+03	1.254130E-15	3.288324E-17
6.820000E+03	1.253263E-15	3.374170E-17
6.830000E+03	1.253327E-15	3.461556E-17
6.840000E+03	1.254324E-15	3.550625E-17
6.850000E+03	1.256167E-15	3.641259E-17
6.860000E+03	1.258956E-15	3.733871E-17
6.870000E+03	1.262791E-15	3.828907E-17
6.880000E+03	1.267400E-15	3.925675E-17
6.890000E+03	1.273076E-15	4.025203E-17
6.900000E+03	1.279641E-15	4.127070E-17
6.910000E+03	1.287298E-15	4.232059E-17
6.920000E+03	1.295872E-15	4.339726E-17
6.930000E+03	1.305373E-15	4.450227E-17
6.940000E+03	1.316014E-15	4.564403E-17
6.950000E+03	1.327615E-15	4.681763E-17
6.960000E+03	1.340292E-15	4.802826E-17
6.970000E+03	1.354064E-15	4.927782E-17
6.980000E+03	1.368952E-15	5.056813E-17
6.990000E+03	1.384871E-15	5.189720E-17
7.000000E+03	1.402052E-15	5.327463E-17
7.010000E+03	1.420305E-15	5.469434E-17
7.020000E+03	1.439649E-15	5.615784E-17
7.030000E+03	1.460322E-15	5.767533E-17
7.040000E+03	1.482241E-15	5.924446E-17
7.050000E+03	1.505314E-15	6.086238E-17
7.060000E+03	1.529677E-15	6.253519E-17
7.070000E+03	1.555350E-15	6.426445E-17
7.080000E+03	1.582238E-15	6.604675E-17
7.090000E+03	1.610598E-15	6.789340E-17
7.100000E+03	1.640211E-15	6.979565E-17
7.110000E+03	1.671214E-15	7.175968E-17
7.120000E+03	1.703628E-15	7.378664E-17
7.130000E+03	1.737465E-15	7.587738E-17
7.140000E+03	1.772607E-15	7.802677E-17
7.150000E+03	1.809330E-15	8.024704E-17
7.160000E+03	1.847372E-15	8.252646E-17
7.170000E+03	1.886869E-15	8.487095E-17
7.180000E+03	1.927676E-15	8.727364E-17
7.190000E+03	1.970079E-15	8.974710E-17
7.200000E+03	2.013769E-15	9.227681E-17
7.210000E+03	2.059038E-15	9.487546E-17
7.220000E+03	2.105550E-15	9.752698E-17
7.230000E+03	2.153265E-15	1.002285E-16
7.240000E+03	2.202474E-15	1.029927E-16
7.250000E+03	2.252971E-15	1.058087E-16
7.260000E+03	2.304525E-15	1.086647E-16
7.270000E+03	2.357242E-15	1.115642E-16
7.280000E+03	2.411051E-15	1.145023E-16
7.290000E+03	2.465867E-15	1.174738E-16
7.300000E+03	2.521599E-15	1.204724E-16
7.310000E+03	2.577944E-15	1.234820E-16
7.320000E+03	2.634977E-15	1.265045E-16
7.330000E+03	2.692784E-15	1.295419E-16
7.340000E+03	2.750816E-15	1.325662E-16
7.350000E+03	2.808915E-15	1.355675E-16
7.360000E+03	2.867359E-15	1.385574E-16
7.370000E+03	2.925546E-15	1.415047E-16
7.380000E+03	2.983760E-15	1.444213E-16
7.390000E+03	3.041364E-15	1.472742E-16
7.400000E+03	3.098412E-15	1.500643E-16
7.410000E+03	3.154724E-15	1.527809E-16
7.420000E+03	3.210121E-15	1.554136E-16
7.430000E+03	3.264171E-15	1.579400E-16
7.440000E+03	3.317209E-15	1.603747E-16
7.450000E+03	3.368554E-15	1.626834E-16
7.460000E+03	3.418304E-15	1.648697E-16
7.470000E+03	3.466315E-15	1.669258E-16
7.480000E+03	3.512450E-15	1.688442E-16
7.490000E+03	3.556590E-15	1.706185E-16
7.500000E+03	3.598340E-15	1.722297E-16
7.510000E+03	3.637882E-15	1.736861E-16
7.520000E+03	3.675419E-15	1.749978E-16
7.530000E+03	3.710287E-15	1.761333E-16
7.540000E+03	3.742706E-15	1.771036E-16
7.550000E+03	3.772622E-15	1.779072E-16
7.560000E+03	3.799693E-15	1.785289E-16
7.570000E+03	3.824504E-15	1.789975E-16
7.580000E+03	3.846443E-15	1.792859E-16
7.590000E+03	3.866142E-15	1.794252E-16
7.600000E+03	3.883014E-15	1.793900E-16
7.610000E+03	3.897415E-15	1.791989E-16
7.620000E+03	3.909408E-15	1.788569E-16
7.630000E+03	3.919066E-15	1.783699E-16
7.640000E+03	3.926156E-15	1.777296E-16
7.650000E+03	3.931405E-15	1.769715E-16
7.660000E+03	3.934278E-15	1.760743E-16
7.670000E+03	3.935517E-15	1.750737E-16
7.680000E+03	3.934591E-15	1.739489E-16
7.690000E+03	3.931928E-15	1.727216E-16
7.700000E+03	3.927639E-15	1.713997E-16
7.710000E+03	3.921834E-15	1.699906E-16
7.720000E+03	3.914297E-15	1.684879E-16
7.730000E+03	3.905775E-15	1.669268E-16
7.740000E+03	3.895729E-15	1.652868E-16
7.750000E+03	3.884896E-15	1.636020E-16
7.760000E+03	3.872731E-15	1.618522E-16
