#wls	flux	fluxerr
1.600000E+03	3.812791E-17	5.536358E-18
1.640000E+03	3.902643E-17	5.628794E-18
1.680000E+03	4.002030E-17	5.732167E-18
1.720000E+03	4.111810E-17	5.847323E-18
1.760000E+03	4.231222E-17	5.972770E-18
1.800000E+03	4.361158E-17	6.109346E-18
1.840000E+03	4.502554E-17	6.257895E-18
1.880000E+03	4.658198E-17	6.421753E-18
1.920000E+03	4.829245E-17	6.601875E-18
1.960000E+03	5.013048E-17	6.793983E-18
2.000000E+03	5.214403E-17	7.003899E-18
2.040000E+03	5.434454E-17	7.232319E-18
2.080000E+03	5.672156E-17	7.476968E-18
2.120000E+03	5.928204E-17	7.737860E-18
2.160000E+03	6.205311E-17	8.017546E-18
2.200000E+03	6.501448E-17	8.312334E-18
2.240000E+03	6.818670E-17	8.623765E-18
2.280000E+03	7.153672E-17	8.946528E-18
2.320000E+03	7.507278E-17	9.280565E-18
2.360000E+03	7.874258E-17	9.618337E-18
2.400000E+03	8.250731E-17	9.954212E-18
2.440000E+03	8.634603E-17	1.028490E-17
2.480000E+03	9.019943E-17	1.060270E-17
2.520000E+03	9.396619E-17	1.089542E-17
2.560000E+03	9.756740E-17	1.115409E-17
2.600000E+03	1.009590E-16	1.137418E-17
2.640000E+03	1.040812E-16	1.154978E-17
2.680000E+03	1.068814E-16	1.167619E-17
2.720000E+03	1.093826E-16	1.175728E-17
2.760000E+03	1.116687E-16	1.180326E-17
2.800000E+03	1.138050E-16	1.182186E-17
2.840000E+03	1.158297E-16	1.181758E-17
2.880000E+03	1.178567E-16	1.180228E-17
2.920000E+03	1.199286E-16	1.177996E-17
2.960000E+03	1.221224E-16	1.175762E-17
3.000000E+03	1.245866E-16	1.174839E-17
3.010000E+03	1.252137E-16	1.174499E-17
3.020000E+03	1.258960E-16	1.174589E-17
3.030000E+03	1.265972E-16	1.174761E-17
3.040000E+03	1.272807E-16	1.174674E-17
3.050000E+03	1.280227E-16	1.175032E-17
3.060000E+03	1.287867E-16	1.175490E-17
3.070000E+03	1.295737E-16	1.176056E-17
3.080000E+03	1.303847E-16	1.176733E-17
3.090000E+03	1.311821E-16	1.177182E-17
3.100000E+03	1.320437E-16	1.178096E-17
3.110000E+03	1.329321E-16	1.179135E-17
3.120000E+03	1.338482E-16	1.180302E-17
3.130000E+03	1.347929E-16	1.181600E-17
3.140000E+03	1.358064E-16	1.183375E-17
3.150000E+03	1.368114E-16	1.184945E-17
3.160000E+03	1.378478E-16	1.186655E-17
3.170000E+03	1.389162E-16	1.188505E-17
3.180000E+03	1.400179E-16	1.190501E-17
3.190000E+03	1.411534E-16	1.192642E-17
3.200000E+03	1.423643E-16	1.195269E-17
3.210000E+03	1.435707E-16	1.197705E-17
3.220000E+03	1.448136E-16	1.200290E-17
3.230000E+03	1.461351E-16	1.203364E-17
3.240000E+03	1.474540E-16	1.206250E-17
3.250000E+03	1.488539E-16	1.209626E-17
3.260000E+03	1.502524E-16	1.212815E-17
3.270000E+03	1.516919E-16	1.216156E-17
3.280000E+03	1.532160E-16	1.219988E-17
3.290000E+03	1.547835E-16	1.223972E-17
3.300000E+03	1.563523E-16	1.227770E-17
3.310000E+03	1.580095E-16	1.232061E-17
3.320000E+03	1.597133E-16	1.236505E-17
3.330000E+03	1.614203E-16	1.240760E-17
3.340000E+03	1.632201E-16	1.245510E-17
3.350000E+03	1.650698E-16	1.250413E-17
3.360000E+03	1.669707E-16	1.255470E-17
3.370000E+03	1.688779E-16	1.260338E-17
3.380000E+03	1.708842E-16	1.265702E-17
3.390000E+03	1.729455E-16	1.271221E-17
3.400000E+03	1.750632E-16	1.276895E-17
3.410000E+03	1.772385E-16	1.282724E-17
3.420000E+03	1.794729E-16	1.288707E-17
3.430000E+03	1.817681E-16	1.294846E-17
3.440000E+03	1.841253E-16	1.301139E-17
3.450000E+03	1.865460E-16	1.307587E-17
3.460000E+03	1.890319E-16	1.314188E-17
3.470000E+03	1.915844E-16	1.320941E-17
3.480000E+03	1.942562E-16	1.328195E-17
3.490000E+03	1.969467E-16	1.335248E-17
3.500000E+03	1.997081E-16	1.342445E-17
3.510000E+03	2.025415E-16	1.349783E-17
3.520000E+03	2.055019E-16	1.357611E-17
3.530000E+03	2.084835E-16	1.365216E-17
3.540000E+03	2.115405E-16	1.372945E-17
3.550000E+03	2.147293E-16	1.381146E-17
3.560000E+03	2.179400E-16	1.389097E-17
3.570000E+03	2.212853E-16	1.397507E-17
3.580000E+03	2.246524E-16	1.405645E-17
3.590000E+03	2.281569E-16	1.414224E-17
3.600000E+03	2.316831E-16	1.422510E-17
3.610000E+03	2.353502E-16	1.431225E-17
3.620000E+03	2.390408E-16	1.439636E-17
3.630000E+03	2.428773E-16	1.448471E-17
3.640000E+03	2.468018E-16	1.457361E-17
3.650000E+03	2.507526E-16	1.465932E-17
3.660000E+03	2.548573E-16	1.474917E-17
3.670000E+03	2.590549E-16	1.483942E-17
3.680000E+03	2.633471E-16	1.492998E-17
3.690000E+03	2.676681E-16	1.501701E-17
3.700000E+03	2.721516E-16	1.510788E-17
3.710000E+03	2.767326E-16	1.519873E-17
3.720000E+03	2.814116E-16	1.528942E-17
3.730000E+03	2.861892E-16	1.537981E-17
3.740000E+03	2.910656E-16	1.546974E-17
3.750000E+03	2.960410E-16	1.555904E-17
3.760000E+03	3.011151E-16	1.564755E-17
3.770000E+03	3.062878E-16	1.573508E-17
3.780000E+03	3.115587E-16	1.582143E-17
3.790000E+03	3.169272E-16	1.590644E-17
3.800000E+03	3.223927E-16	1.598988E-17
3.810000E+03	3.279541E-16	1.607156E-17
3.820000E+03	3.336106E-16	1.615129E-17
3.830000E+03	3.393611E-16	1.622884E-17
3.840000E+03	3.452869E-16	1.630792E-17
3.850000E+03	3.512225E-16	1.638052E-17
3.860000E+03	3.572480E-16	1.645032E-17
3.870000E+03	3.633616E-16	1.651713E-17
3.880000E+03	3.696493E-16	1.658465E-17
3.890000E+03	3.759351E-16	1.664484E-17
3.900000E+03	3.823036E-16	1.670141E-17
3.910000E+03	3.888438E-16	1.675809E-17
3.920000E+03	3.953722E-16	1.680683E-17
3.930000E+03	4.019764E-16	1.685137E-17
3.940000E+03	4.087490E-16	1.689545E-17
3.950000E+03	4.154983E-16	1.693101E-17
3.960000E+03	4.224134E-16	1.696575E-17
3.970000E+03	4.292968E-16	1.699163E-17
3.980000E+03	4.363426E-16	1.701634E-17
3.990000E+03	4.433476E-16	1.703189E-17
4.000000E+03	4.505111E-16	1.704595E-17
4.010000E+03	4.576243E-16	1.705057E-17
4.020000E+03	4.648913E-16	1.705343E-17
4.030000E+03	4.720976E-16	1.704662E-17
4.040000E+03	4.794526E-16	1.703780E-17
4.050000E+03	4.867356E-16	1.701913E-17
4.060000E+03	4.941615E-16	1.699827E-17
4.070000E+03	5.016165E-16	1.697126E-17
4.080000E+03	5.089815E-16	1.693426E-17
4.090000E+03	5.164787E-16	1.689487E-17
4.100000E+03	5.239896E-16	1.684924E-17
4.110000E+03	5.313904E-16	1.679364E-17
4.120000E+03	5.389105E-16	1.673559E-17
4.130000E+03	5.464268E-16	1.667137E-17
4.140000E+03	5.539327E-16	1.660106E-17
4.150000E+03	5.612979E-16	1.652110E-17
4.160000E+03	5.687613E-16	1.643892E-17
4.170000E+03	5.761932E-16	1.635099E-17
4.180000E+03	5.835857E-16	1.625748E-17
4.190000E+03	5.909309E-16	1.615861E-17
4.200000E+03	5.980898E-16	1.605110E-17
4.210000E+03	6.053130E-16	1.594225E-17
4.220000E+03	6.124622E-16	1.582882E-17
4.230000E+03	6.195280E-16	1.571117E-17
4.240000E+03	6.265003E-16	1.558966E-17
4.250000E+03	6.333688E-16	1.546472E-17
4.260000E+03	6.399856E-16	1.533351E-17
4.270000E+03	6.466134E-16	1.520315E-17
4.280000E+03	6.531046E-16	1.507085E-17
4.290000E+03	6.594479E-16	1.493720E-17
4.300000E+03	6.656315E-16	1.480283E-17
4.310000E+03	6.716438E-16	1.466841E-17
4.320000E+03	6.774729E-16	1.453465E-17
4.330000E+03	6.831072E-16	1.440230E-17
4.340000E+03	6.885348E-16	1.427215E-17
4.350000E+03	6.937444E-16	1.414502E-17
4.360000E+03	6.987250E-16	1.402175E-17
4.370000E+03	7.033194E-16	1.390032E-17
4.380000E+03	7.078110E-16	1.378745E-17
4.390000E+03	7.120452E-16	1.368109E-17
4.400000E+03	7.160183E-16	1.358222E-17
4.410000E+03	7.197318E-16	1.349187E-17
4.420000E+03	7.231885E-16	1.341103E-17
4.430000E+03	7.263924E-16	1.334065E-17
4.440000E+03	7.293483E-16	1.328162E-17
4.450000E+03	7.320619E-16	1.323476E-17
4.460000E+03	7.345397E-16	1.320079E-17
4.470000E+03	7.367888E-16	1.318010E-17
4.480000E+03	7.388177E-16	1.317253E-17
4.490000E+03	7.406348E-16	1.317777E-17
4.500000E+03	7.420996E-16	1.319276E-17
4.510000E+03	7.435215E-16	1.322237E-17
4.520000E+03	7.447604E-16	1.326338E-17
4.530000E+03	7.458260E-16	1.331518E-17
4.540000E+03	7.467285E-16	1.337712E-17
4.550000E+03	7.474780E-16	1.344851E-17
4.560000E+03	7.480845E-16	1.352863E-17
4.570000E+03	7.485584E-16	1.361677E-17
4.580000E+03	7.489098E-16	1.371221E-17
4.590000E+03	7.490007E-16	1.381147E-17
4.600000E+03	7.491378E-16	1.391933E-17
4.610000E+03	7.491825E-16	1.403236E-17
4.620000E+03	7.491449E-16	1.414991E-17
4.630000E+03	7.490348E-16	1.427135E-17
4.640000E+03	7.487154E-16	1.439329E-17
4.650000E+03	7.484895E-16	1.452076E-17
4.660000E+03	7.482197E-16	1.465045E-17
4.670000E+03	7.479154E-16	1.478189E-17
4.680000E+03	7.475858E-16	1.491464E-17
4.690000E+03	7.470954E-16	1.504537E-17
4.700000E+03	7.467424E-16	1.517952E-17
4.710000E+03	7.463908E-16	1.531388E-17
4.720000E+03	7.459060E-16	1.544520E-17
4.730000E+03	7.455833E-16	1.557912E-17
4.740000E+03	7.452875E-16	1.571248E-17
4.750000E+03	7.448847E-16	1.584206E-17
4.760000E+03	7.446675E-16	1.597372E-17
4.770000E+03	7.443601E-16	1.610127E-17
4.780000E+03	7.442536E-16	1.623069E-17
4.790000E+03	7.442136E-16	1.635887E-17
4.800000E+03	7.441076E-16	1.648262E-17
4.810000E+03	7.442241E-16	1.660810E-17
4.820000E+03	7.442901E-16	1.672906E-17
4.830000E+03	7.444530E-16	1.684860E-17
4.840000E+03	7.448594E-16	1.696991E-17
4.850000E+03	7.452373E-16	1.708666E-17
4.860000E+03	7.458721E-16	1.720526E-17
4.870000E+03	7.464929E-16	1.731937E-17
4.880000E+03	7.472453E-16	1.743223E-17
4.890000E+03	7.482745E-16	1.754715E-17
4.900000E+03	7.493101E-16	1.765772E-17
4.910000E+03	7.504972E-16	1.776726E-17
4.920000E+03	7.518424E-16	1.787585E-17
4.930000E+03	7.534902E-16	1.798689E-17
4.940000E+03	7.551706E-16	1.809387E-17
4.950000E+03	7.570282E-16	1.820018E-17
4.960000E+03	7.590692E-16	1.830593E-17
4.970000E+03	7.613000E-16	1.841120E-17
4.980000E+03	7.637266E-16	1.851611E-17
4.990000E+03	7.663554E-16	1.862074E-17
5.000000E+03	7.691925E-16	1.872520E-17
5.010000E+03	7.722441E-16	1.882959E-17
5.020000E+03	7.755161E-16	1.893399E-17
5.030000E+03	7.790148E-16	1.903852E-17
5.040000E+03	7.827460E-16	1.914325E-17
5.050000E+03	7.865751E-16	1.924482E-17
5.060000E+03	7.907891E-16	1.935021E-17
5.070000E+03	7.952537E-16	1.945605E-17
5.080000E+03	7.998322E-16	1.955893E-17
5.090000E+03	8.048147E-16	1.966589E-17
5.100000E+03	8.100649E-16	1.977350E-17
5.110000E+03	8.154442E-16	1.987830E-17
5.120000E+03	8.212463E-16	1.998738E-17
5.130000E+03	8.271867E-16	2.009372E-17
5.140000E+03	8.335621E-16	2.020445E-17
5.150000E+03	8.400845E-16	2.031248E-17
5.160000E+03	8.469050E-16	2.042139E-17
5.170000E+03	8.541778E-16	2.053479E-17
5.180000E+03	8.616092E-16	2.064552E-17
5.190000E+03	8.693523E-16	2.075715E-17
5.200000E+03	8.774110E-16	2.086969E-17
5.210000E+03	8.859431E-16	2.098678E-17
5.220000E+03	8.946455E-16	2.110111E-17
5.230000E+03	9.036740E-16	2.121631E-17
5.240000E+03	9.130316E-16	2.133235E-17
5.250000E+03	9.227210E-16	2.144921E-17
5.260000E+03	9.327441E-16	2.156684E-17
5.270000E+03	9.429404E-16	2.168150E-17
5.280000E+03	9.536339E-16	2.180058E-17
5.290000E+03	9.646659E-16	2.192037E-17
5.300000E+03	9.760341E-16	2.204077E-17
5.310000E+03	9.875724E-16	2.215804E-17
5.320000E+03	9.996135E-16	2.227966E-17
5.330000E+03	1.011817E-15	2.239803E-17
5.340000E+03	1.024523E-15	2.252075E-17
5.350000E+03	1.037383E-15	2.264020E-17
5.360000E+03	1.050742E-15	2.276402E-17
5.370000E+03	1.064242E-15	2.288456E-17
5.380000E+03	1.078053E-15	2.300566E-17
5.390000E+03	1.092353E-15	2.313132E-17
5.400000E+03	1.106769E-15	2.325380E-17
5.410000E+03	1.121473E-15	2.337709E-17
5.420000E+03	1.136457E-15	2.350131E-17
5.430000E+03	1.151711E-15	2.362664E-17
5.440000E+03	1.167226E-15	2.375330E-17
5.450000E+03	1.182992E-15	2.388156E-17
5.460000E+03	1.198998E-15	2.401172E-17
5.470000E+03	1.215034E-15	2.414018E-17
5.480000E+03	1.231496E-15	2.427546E-17
5.490000E+03	1.248178E-15	2.441413E-17
5.500000E+03	1.264867E-15	2.455278E-17
5.510000E+03	1.281980E-15	2.470034E-17
5.520000E+03	1.299094E-15	2.484950E-17
5.530000E+03	1.316642E-15	2.500942E-17
5.540000E+03	1.334198E-15	2.517294E-17
5.550000E+03	1.351982E-15	2.534527E-17
5.560000E+03	1.370230E-15	2.553181E-17
5.570000E+03	1.388505E-15	2.572547E-17
5.580000E+03	1.407039E-15	2.593168E-17
5.590000E+03	1.425843E-15	2.615179E-17
5.600000E+03	1.444928E-15	2.638716E-17
5.610000E+03	1.464304E-15	2.663913E-17
5.620000E+03	1.483984E-15	2.690911E-17
5.630000E+03	1.503730E-15	2.719390E-17
5.640000E+03	1.524039E-15	2.750275E-17
5.650000E+03	1.544677E-15	2.783121E-17
5.660000E+03	1.565396E-15	2.817453E-17
5.670000E+03	1.586706E-15	2.854155E-17
5.680000E+03	1.608101E-15	2.892274E-17
5.690000E+03	1.630100E-15	2.932699E-17
5.700000E+03	1.652180E-15	2.974437E-17
5.710000E+03	1.674601E-15	3.017897E-17
5.720000E+03	1.697363E-15	3.063013E-17
5.730000E+03	1.720738E-15	3.110211E-17
5.740000E+03	1.744168E-15	3.158411E-17
5.750000E+03	1.767921E-15	3.208021E-17
5.760000E+03	1.791699E-15	3.258415E-17
5.770000E+03	1.816061E-15	3.310528E-17
5.780000E+03	1.840707E-15	3.363727E-17
5.790000E+03	1.865621E-15	3.417892E-17
5.800000E+03	1.890480E-15	3.472336E-17
5.810000E+03	1.915859E-15	3.528021E-17
5.820000E+03	1.941127E-15	3.583684E-17
5.830000E+03	1.966869E-15	3.640304E-17
5.840000E+03	1.992430E-15	3.696566E-17
5.850000E+03	2.018082E-15	3.752869E-17
5.860000E+03	2.044112E-15	3.809642E-17
5.870000E+03	2.069832E-15	3.865496E-17
5.880000E+03	2.095519E-15	3.920834E-17
5.890000E+03	2.121121E-15	3.975455E-17
5.900000E+03	2.146590E-15	4.029154E-17
5.910000E+03	2.171524E-15	4.081071E-17
5.920000E+03	2.196551E-15	4.132273E-17
5.930000E+03	2.221270E-15	4.181900E-17
5.940000E+03	2.245264E-15	4.229058E-17
5.950000E+03	2.269173E-15	4.274849E-17
5.960000E+03	2.292218E-15	4.317701E-17
5.970000E+03	2.315048E-15	4.358739E-17
5.980000E+03	2.336867E-15	4.396369E-17
5.990000E+03	2.357968E-15	4.431049E-17
6.000000E+03	2.378276E-15	4.462556E-17
6.010000E+03	2.397722E-15	4.490676E-17
6.020000E+03	2.416234E-15	4.515201E-17
6.030000E+03	2.433742E-15	4.535934E-17
6.040000E+03	2.450177E-15	4.552687E-17
6.050000E+03	2.465473E-15	4.565285E-17
6.060000E+03	2.479565E-15	4.573567E-17
6.070000E+03	2.492003E-15	4.576675E-17
6.080000E+03	2.503508E-15	4.575911E-17
6.090000E+03	2.513245E-15	4.569738E-17
6.100000E+03	2.521557E-15	4.558786E-17
6.110000E+03	2.528795E-15	4.543700E-17
6.120000E+03	2.534135E-15	4.523017E-17
6.130000E+03	2.537941E-15	4.497433E-17
6.140000E+03	2.540185E-15	4.466950E-17
6.150000E+03	2.540852E-15	4.431603E-17
6.160000E+03	2.539932E-15	4.391448E-17
6.170000E+03	2.537421E-15	4.346565E-17
6.180000E+03	2.533323E-15	4.297061E-17
6.190000E+03	2.527259E-15	4.242411E-17
6.200000E+03	2.520033E-15	4.184096E-17
6.210000E+03	2.510892E-15	4.120991E-17
6.220000E+03	2.500650E-15	4.054585E-17
6.230000E+03	2.488573E-15	3.983837E-17
6.240000E+03	2.475097E-15	3.909626E-17
6.250000E+03	2.460659E-15	3.832807E-17
6.260000E+03	2.444553E-15	3.752457E-17
6.270000E+03	2.427226E-15	3.669466E-17
6.280000E+03	2.408745E-15	3.584137E-17
6.290000E+03	2.389182E-15	3.496781E-17
6.300000E+03	2.368244E-15	3.407190E-17
6.310000E+03	2.346740E-15	3.316755E-17
6.320000E+03	2.324378E-15	3.225272E-17
6.330000E+03	2.300882E-15	3.132593E-17
6.340000E+03	2.277039E-15	3.040040E-17
6.350000E+03	2.252221E-15	2.947006E-17
6.360000E+03	2.227201E-15	2.854763E-17
6.370000E+03	2.201362E-15	2.762767E-17
6.380000E+03	2.175121E-15	2.671826E-17
6.390000E+03	2.148545E-15	2.582294E-17
6.400000E+03	2.121698E-15	2.494532E-17
6.410000E+03	2.094641E-15	2.408901E-17
6.420000E+03	2.067430E-15	2.325769E-17
6.430000E+03	2.040118E-15	2.245504E-17
6.440000E+03	2.012444E-15	2.168148E-17
6.450000E+03	1.985077E-15	2.094757E-17
6.460000E+03	1.957443E-15	2.025048E-17
6.470000E+03	1.930191E-15	1.960030E-17
6.480000E+03	1.902761E-15	1.899456E-17
6.490000E+03	1.875779E-15	1.844274E-17
6.500000E+03	1.848705E-15	1.794240E-17
6.510000E+03	1.821869E-15	1.749945E-17
6.520000E+03	1.795309E-15	1.711645E-17
6.530000E+03	1.769064E-15	1.679544E-17
6.540000E+03	1.743175E-15	1.653782E-17
6.550000E+03	1.717694E-15	1.634442E-17
6.560000E+03	1.692408E-15	1.621202E-17
6.570000E+03	1.667888E-15	1.614207E-17
6.580000E+03	1.643917E-15	1.612764E-17
6.590000E+03	1.620290E-15	1.616163E-17
6.600000E+03	1.597551E-15	1.624423E-17
6.610000E+03	1.575246E-15	1.636584E-17
6.620000E+03	1.553661E-15	1.652444E-17
6.630000E+03	1.533064E-15	1.671841E-17
6.640000E+03	1.513010E-15	1.693880E-17
6.650000E+03	1.493763E-15	1.718466E-17
6.660000E+03	1.475346E-15	1.745295E-17
6.670000E+03	1.457777E-15	1.774098E-17
6.680000E+03	1.440851E-15	1.804373E-17
6.690000E+03	1.425023E-15	1.836474E-17
6.700000E+03	1.410082E-15	1.869976E-17
6.710000E+03	1.395822E-15	1.904458E-17
6.720000E+03	1.382679E-15	1.940401E-17
6.730000E+03	1.370233E-15	1.977145E-17
6.740000E+03	1.358908E-15	2.015238E-17
6.750000E+03	1.348290E-15	2.054038E-17
6.760000E+03	1.338591E-15	2.093834E-17
6.770000E+03	1.329811E-15	2.134626E-17
6.780000E+03	1.322156E-15	2.176763E-17
6.790000E+03	1.315217E-15	2.219610E-17
6.800000E+03	1.309002E-15	2.263183E-17
6.810000E+03	1.303909E-15	2.308211E-17
6.820000E+03	1.299741E-15	2.354406E-17
6.830000E+03	1.296496E-15	2.401825E-17
6.840000E+03	1.293975E-15	2.450152E-17
6.850000E+03	1.292580E-15	2.500202E-17
6.860000E+03	1.291910E-15	2.551279E-17
6.870000E+03	1.292365E-15	2.604234E-17
6.880000E+03	1.293548E-15	2.658350E-17
6.890000E+03	1.295659E-15	2.714091E-17
6.900000E+03	1.298896E-15	2.771960E-17
6.910000E+03	1.302863E-15	2.831192E-17
6.920000E+03	1.307758E-15	2.892278E-17
6.930000E+03	1.313583E-15	2.955294E-17
6.940000E+03	1.320337E-15	3.020316E-17
6.950000E+03	1.327816E-15	3.086940E-17
6.960000E+03	1.336427E-15	3.156174E-17
6.970000E+03	1.345967E-15	3.227623E-17
6.980000E+03	1.356224E-15	3.300843E-17
6.990000E+03	1.367613E-15	3.376897E-17
7.000000E+03	1.379712E-15	3.454814E-17
7.010000E+03	1.392940E-15	3.535696E-17
7.020000E+03	1.406864E-15	3.618511E-17
7.030000E+03	1.421693E-15	3.703829E-17
7.040000E+03	1.437639E-15	3.792269E-17
7.050000E+03	1.454254E-15	3.882697E-17
7.060000E+03	1.471747E-15	3.975700E-17
7.070000E+03	1.490106E-15	4.071288E-17
7.080000E+03	1.509317E-15	4.169457E-17
7.090000E+03	1.529365E-15	4.270196E-17
7.100000E+03	1.549992E-15	4.372806E-17
7.110000E+03	1.571657E-15	4.478592E-17
7.120000E+03	1.594098E-15	4.586846E-17
7.130000E+03	1.617042E-15	4.696782E-17
7.140000E+03	1.640960E-15	4.809774E-17
7.150000E+03	1.665316E-15	4.924260E-17
7.160000E+03	1.690592E-15	5.041653E-17
7.170000E+03	1.716233E-15	5.160301E-17
7.180000E+03	1.742458E-15	5.280837E-17
7.190000E+03	1.769504E-15	5.403968E-17
7.200000E+03	1.796780E-15	5.527877E-17
7.210000E+03	1.824516E-15	5.653227E-17
7.220000E+03	1.852661E-15	5.779833E-17
7.230000E+03	1.881167E-15	5.907507E-17
7.240000E+03	1.909981E-15	6.036047E-17
7.250000E+03	1.938748E-15	6.164276E-17
7.260000E+03	1.968014E-15	6.293879E-17
7.270000E+03	1.997423E-15	6.423675E-17
7.280000E+03	2.026600E-15	6.552401E-17
7.290000E+03	2.056120E-15	6.681846E-17
7.300000E+03	2.085280E-15	6.809678E-17
7.310000E+03	2.114674E-15	6.937765E-17
7.320000E+03	2.143584E-15	7.063691E-17
7.330000E+03	2.172620E-15	7.189397E-17
7.340000E+03	2.201050E-15	7.312396E-17
7.350000E+03	2.229155E-15	7.433549E-17
7.360000E+03	2.256884E-15	7.552611E-17
7.370000E+03	2.284185E-15	7.669348E-17
7.380000E+03	2.311014E-15	7.783538E-17
7.390000E+03	2.337324E-15	7.894966E-17
7.400000E+03	2.363078E-15	8.003433E-17
7.410000E+03	2.388238E-15	8.108754E-17
7.420000E+03	2.412772E-15	8.210760E-17
7.430000E+03	2.436650E-15	8.309292E-17
7.440000E+03	2.459460E-15	8.402885E-17
7.450000E+03	2.481957E-15	8.494064E-17
7.460000E+03	2.503341E-15	8.580053E-17
7.470000E+03	2.524392E-15	8.663468E-17
7.480000E+03	2.544301E-15	8.741504E-17
7.490000E+03	2.563870E-15	8.816869E-17
7.500000E+03	2.582282E-15	8.886726E-17
7.510000E+03	2.599940E-15	8.952429E-17
7.520000E+03	2.617256E-15	9.015374E-17
7.530000E+03	2.633391E-15	9.072644E-17
7.540000E+03	2.648750E-15	9.125625E-17
7.550000E+03	2.663327E-15	9.174278E-17
7.560000E+03	2.677118E-15	9.218577E-17
7.570000E+03	2.690119E-15	9.258502E-17
7.580000E+03	2.702327E-15	9.294047E-17
7.590000E+03	2.713743E-15	9.325212E-17
7.600000E+03	2.723933E-15	9.350515E-17
7.610000E+03	2.733775E-15	9.372983E-17
7.620000E+03	2.742842E-15	9.391159E-17
7.630000E+03	2.751145E-15	9.405096E-17
7.640000E+03	2.758247E-15	9.413329E-17
7.650000E+03	2.765053E-15	9.418971E-17
7.660000E+03	2.770689E-15	9.419065E-17
7.670000E+03	2.776066E-15	9.416750E-17
7.680000E+03	2.780307E-15	9.409073E-17
7.690000E+03	2.783880E-15	9.397665E-17
7.700000E+03	2.787262E-15	9.384173E-17
7.710000E+03	2.789570E-15	9.365658E-17
7.720000E+03	2.791282E-15	9.343780E-17
7.730000E+03	2.792422E-15	9.318662E-17
7.740000E+03	2.793017E-15	9.290445E-17
7.750000E+03	2.793091E-15	9.259257E-17
7.760000E+03	2.792672E-15	9.225242E-17
