#wls	flux	fluxerr
1.596488E+03	4.503102E-04	1.932507E-08
1.636400E+03	4.291525E-04	1.841709E-08
1.676312E+03	4.095098E-04	1.757412E-08
1.716224E+03	3.914740E-04	1.680011E-08
1.756136E+03	3.750526E-04	1.609539E-08
1.796049E+03	3.603189E-04	1.546309E-08
1.835961E+03	3.473333E-04	1.490581E-08
1.875873E+03	3.361841E-04	1.442735E-08
1.915785E+03	3.269329E-04	1.403033E-08
1.955697E+03	3.197434E-04	1.372179E-08
1.995610E+03	3.147448E-04	1.350728E-08
2.035522E+03	3.121749E-04	1.339699E-08
2.075434E+03	3.123046E-04	1.340256E-08
2.115346E+03	3.155442E-04	1.354158E-08
2.155258E+03	3.224081E-04	1.383615E-08
2.195171E+03	3.336344E-04	1.431793E-08
2.235083E+03	3.502579E-04	1.503132E-08
2.274995E+03	3.737040E-04	1.603751E-08
2.314907E+03	4.060246E-04	1.742455E-08
2.354819E+03	4.502426E-04	1.932217E-08
2.394732E+03	5.107714E-04	2.191976E-08
2.434644E+03	5.943456E-04	2.550635E-08
2.474556E+03	7.107586E-04	3.050221E-08
2.514468E+03	8.737343E-04	3.749631E-08
2.554380E+03	1.107158E-03	4.751368E-08
2.594293E+03	1.445466E-03	6.203217E-08
2.634205E+03	1.919143E-03	8.236002E-08
2.674117E+03	2.541376E-03	1.090631E-07
2.714029E+03	3.305394E-03	1.418510E-07
2.753941E+03	4.172204E-03	1.790501E-07
2.793854E+03	5.056787E-03	2.170120E-07
2.833766E+03	5.886270E-03	2.526092E-07
2.873678E+03	6.660039E-03	2.858155E-07
2.913590E+03	7.497386E-03	3.217502E-07
2.953502E+03	8.503705E-03	3.649363E-07
2.993414E+03	9.629811E-03	4.132631E-07
3.003393E+03	9.915490E-03	4.255230E-07
3.013371E+03	1.019991E-02	4.377290E-07
3.023349E+03	1.048304E-02	4.498794E-07
3.033327E+03	1.076435E-02	4.619520E-07
3.043305E+03	1.104320E-02	4.739189E-07
3.053283E+03	1.131940E-02	4.857718E-07
3.063261E+03	1.159161E-02	4.974534E-07
3.073239E+03	1.185785E-02	5.088791E-07
3.083217E+03	1.211602E-02	5.199587E-07
3.093195E+03	1.236322E-02	5.305674E-07
3.103173E+03	1.259719E-02	5.406081E-07
3.113151E+03	1.281601E-02	5.499987E-07
3.123129E+03	1.301762E-02	5.586508E-07
3.133107E+03	1.320088E-02	5.665155E-07
3.143085E+03	1.336499E-02	5.735582E-07
3.153063E+03	1.350931E-02	5.797514E-07
3.163041E+03	1.363229E-02	5.850293E-07
3.173019E+03	1.373292E-02	5.893479E-07
3.182997E+03	1.380996E-02	5.926540E-07
3.192975E+03	1.386192E-02	5.948836E-07
3.202954E+03	1.388775E-02	5.959924E-07
3.212932E+03	1.388637E-02	5.959331E-07
3.222910E+03	1.385774E-02	5.947042E-07
3.232888E+03	1.380166E-02	5.922977E-07
3.242866E+03	1.371942E-02	5.887681E-07
3.252844E+03	1.361388E-02	5.842390E-07
3.262822E+03	1.348875E-02	5.788692E-07
3.272800E+03	1.334867E-02	5.728576E-07
3.282778E+03	1.320101E-02	5.665208E-07
3.292756E+03	1.305399E-02	5.602111E-07
3.302734E+03	1.291516E-02	5.542533E-07
3.312712E+03	1.279310E-02	5.490152E-07
3.322690E+03	1.269564E-02	5.448328E-07
3.332668E+03	1.262958E-02	5.419976E-07
3.342646E+03	1.259947E-02	5.407055E-07
3.352624E+03	1.260889E-02	5.411099E-07
3.362602E+03	1.266054E-02	5.433262E-07
3.372580E+03	1.275663E-02	5.474501E-07
3.382558E+03	1.289861E-02	5.535429E-07
3.392536E+03	1.308726E-02	5.616391E-07
3.402514E+03	1.332379E-02	5.717896E-07
3.412493E+03	1.360851E-02	5.840082E-07
3.422471E+03	1.394139E-02	5.982936E-07
3.432449E+03	1.432181E-02	6.146193E-07
3.442427E+03	1.474820E-02	6.329177E-07
3.452405E+03	1.521818E-02	6.530870E-07
3.462383E+03	1.573077E-02	6.750848E-07
3.472361E+03	1.628433E-02	6.988407E-07
3.482339E+03	1.687485E-02	7.241826E-07
3.492317E+03	1.749793E-02	7.509222E-07
3.502295E+03	1.814654E-02	7.787572E-07
3.512273E+03	1.881140E-02	8.072895E-07
3.522251E+03	1.948187E-02	8.360626E-07
3.532229E+03	2.014598E-02	8.645630E-07
3.542207E+03	2.079110E-02	8.922481E-07
3.552185E+03	2.140804E-02	9.187238E-07
3.562163E+03	2.198998E-02	9.436979E-07
3.572141E+03	2.253394E-02	9.670418E-07
3.582119E+03	2.304529E-02	9.889865E-07
3.592097E+03	2.353066E-02	1.009816E-06
3.602075E+03	2.397813E-02	1.029019E-06
3.612053E+03	2.437298E-02	1.045964E-06
3.622032E+03	2.470633E-02	1.060269E-06
3.632010E+03	2.497215E-02	1.071677E-06
3.641988E+03	2.517209E-02	1.080257E-06
3.651966E+03	2.530998E-02	1.086175E-06
3.661944E+03	2.539066E-02	1.089637E-06
3.671922E+03	2.542097E-02	1.090938E-06
3.681900E+03	2.540928E-02	1.090436E-06
3.691878E+03	2.536430E-02	1.088506E-06
3.701856E+03	2.529606E-02	1.085577E-06
3.711834E+03	2.521498E-02	1.082098E-06
3.721812E+03	2.513174E-02	1.078526E-06
3.731790E+03	2.505457E-02	1.075214E-06
3.741768E+03	2.499049E-02	1.072463E-06
3.751746E+03	2.494469E-02	1.070498E-06
3.761724E+03	2.491790E-02	1.069348E-06
3.771702E+03	2.490999E-02	1.069009E-06
3.781680E+03	2.492053E-02	1.069461E-06
3.791658E+03	2.494832E-02	1.070654E-06
3.801636E+03	2.499332E-02	1.072585E-06
3.811614E+03	2.505586E-02	1.075268E-06
3.821592E+03	2.513449E-02	1.078643E-06
3.831571E+03	2.522855E-02	1.082680E-06
3.841549E+03	2.533633E-02	1.087305E-06
3.851527E+03	2.545454E-02	1.092378E-06
3.861505E+03	2.558100E-02	1.097805E-06
3.871483E+03	2.571502E-02	1.103556E-06
3.881461E+03	2.585383E-02	1.109513E-06
3.891439E+03	2.599827E-02	1.115712E-06
3.901417E+03	2.615169E-02	1.122295E-06
3.911395E+03	2.631454E-02	1.129284E-06
3.921373E+03	2.648811E-02	1.136733E-06
3.931351E+03	2.667332E-02	1.144681E-06
3.941329E+03	2.686490E-02	1.152903E-06
3.951307E+03	2.705629E-02	1.161116E-06
3.961285E+03	2.723922E-02	1.168966E-06
3.971263E+03	2.740428E-02	1.176050E-06
3.981241E+03	2.754564E-02	1.182116E-06
3.991219E+03	2.235352E-02	9.592973E-07
3.994818E+03	2.251177E-02	9.660886E-07
3.998417E+03	2.267765E-02	9.732072E-07
4.002017E+03	2.293298E-02	9.841644E-07
4.005615E+03	2.319592E-02	9.954484E-07
4.009214E+03	2.342810E-02	1.005412E-06
4.012813E+03	2.370752E-02	1.017404E-06
4.016412E+03	2.397792E-02	1.029008E-06
4.020011E+03	2.423164E-02	1.039896E-06
4.023610E+03	2.451595E-02	1.052097E-06
4.027209E+03	2.479636E-02	1.064131E-06
4.030808E+03	2.507286E-02	1.075997E-06
4.034406E+03	2.529813E-02	1.085664E-06
4.038005E+03	2.547473E-02	1.093243E-06
4.041604E+03	2.568322E-02	1.102190E-06
4.045204E+03	2.585200E-02	1.109433E-06
4.048803E+03	2.595806E-02	1.113985E-06
4.052402E+03	2.609599E-02	1.119904E-06
4.056001E+03	2.624919E-02	1.126479E-06
4.059600E+03	2.638313E-02	1.132227E-06
4.063198E+03	2.652977E-02	1.138520E-06
4.066797E+03	2.668015E-02	1.144973E-06
4.070396E+03	2.677422E-02	1.149010E-06
4.073995E+03	2.686310E-02	1.152824E-06
4.077594E+03	2.698639E-02	1.158115E-06
4.081193E+03	2.707893E-02	1.162087E-06
4.084792E+03	2.719948E-02	1.167260E-06
4.088392E+03	2.734038E-02	1.173307E-06
4.091990E+03	2.740710E-02	1.176170E-06
4.095589E+03	2.750949E-02	1.180564E-06
4.099188E+03	2.768331E-02	1.188024E-06
4.102787E+03	2.788382E-02	1.196628E-06
4.106386E+03	2.817232E-02	1.209009E-06
4.109985E+03	2.842878E-02	1.220015E-06
4.113584E+03	2.853319E-02	1.224496E-06
4.117182E+03	2.867068E-02	1.230396E-06
4.120781E+03	2.886423E-02	1.238702E-06
4.124380E+03	2.904744E-02	1.246565E-06
4.127979E+03	2.913482E-02	1.250314E-06
4.131579E+03	2.921062E-02	1.253567E-06
4.135178E+03	2.935392E-02	1.259717E-06
4.138777E+03	2.955196E-02	1.268216E-06
4.142376E+03	2.975877E-02	1.277091E-06
4.145975E+03	2.994378E-02	1.285031E-06
4.149573E+03	3.019239E-02	1.295700E-06
4.153172E+03	3.051096E-02	1.309371E-06
4.156771E+03	3.073375E-02	1.318932E-06
4.160370E+03	3.094237E-02	1.327885E-06
4.163969E+03	3.123239E-02	1.340331E-06
4.167568E+03	3.146616E-02	1.350363E-06
4.171167E+03	3.163862E-02	1.357764E-06
4.174766E+03	3.179691E-02	1.364557E-06
4.178365E+03	3.192704E-02	1.370142E-06
4.181964E+03	3.204046E-02	1.375009E-06
4.185563E+03	3.211556E-02	1.378232E-06
4.189162E+03	3.217524E-02	1.380793E-06
4.192761E+03	3.222335E-02	1.382858E-06
4.196360E+03	3.218989E-02	1.381422E-06
4.199959E+03	3.214487E-02	1.379490E-06
4.203558E+03	3.222316E-02	1.382849E-06
4.207156E+03	3.231022E-02	1.386586E-06
4.210755E+03	3.227887E-02	1.385240E-06
4.214354E+03	3.221436E-02	1.382472E-06
4.217954E+03	3.214596E-02	1.379536E-06
4.221553E+03	3.200502E-02	1.373488E-06
4.225152E+03	3.190088E-02	1.369018E-06
4.228751E+03	3.184748E-02	1.366727E-06
4.232349E+03	3.177112E-02	1.363450E-06
4.235948E+03	3.172262E-02	1.361368E-06
4.239547E+03	3.172607E-02	1.361517E-06
4.243146E+03	3.180430E-02	1.364874E-06
4.246745E+03	3.190014E-02	1.368987E-06
4.250344E+03	3.195142E-02	1.371187E-06
4.253943E+03	3.200889E-02	1.373654E-06
4.257541E+03	3.207383E-02	1.376441E-06
4.261140E+03	3.211452E-02	1.378187E-06
4.264740E+03	3.218676E-02	1.381287E-06
4.268339E+03	3.225124E-02	1.384054E-06
4.271938E+03	3.225475E-02	1.384205E-06
4.275537E+03	3.227206E-02	1.384947E-06
4.279136E+03	3.233102E-02	1.387478E-06
4.282735E+03	3.242654E-02	1.391577E-06
4.286334E+03	3.248518E-02	1.394093E-06
4.289932E+03	3.251961E-02	1.395571E-06
4.293531E+03	3.258678E-02	1.398454E-06
4.297130E+03	3.261459E-02	1.399647E-06
4.300729E+03	3.264982E-02	1.401159E-06
4.304328E+03	3.262423E-02	1.400060E-06
4.307928E+03	3.257450E-02	1.397927E-06
4.311527E+03	3.264847E-02	1.401101E-06
4.315125E+03	3.276772E-02	1.406218E-06
4.318724E+03	3.278197E-02	1.406830E-06
4.322323E+03	3.266481E-02	1.401802E-06
4.325922E+03	3.252487E-02	1.395796E-06
4.329521E+03	3.246181E-02	1.393090E-06
4.333120E+03	3.243648E-02	1.392003E-06
4.336719E+03	3.240849E-02	1.390802E-06
4.340318E+03	3.237031E-02	1.389163E-06
4.343917E+03	3.237105E-02	1.389195E-06
4.347515E+03	3.243208E-02	1.391814E-06
4.351115E+03	3.256091E-02	1.397343E-06
4.354714E+03	3.274614E-02	1.405292E-06
4.358313E+03	3.289585E-02	1.411717E-06
4.361912E+03	3.296483E-02	1.414677E-06
4.365511E+03	3.301348E-02	1.416765E-06
4.369110E+03	3.305440E-02	1.418521E-06
4.372708E+03	3.299591E-02	1.416010E-06
4.376307E+03	3.294607E-02	1.413872E-06
4.379906E+03	3.292499E-02	1.412967E-06
4.383505E+03	3.289246E-02	1.411571E-06
4.387104E+03	3.290120E-02	1.411946E-06
4.390703E+03	3.298249E-02	1.415435E-06
4.394303E+03	3.313123E-02	1.421818E-06
4.397902E+03	3.323207E-02	1.426145E-06
4.401500E+03	3.324751E-02	1.426808E-06
4.405099E+03	3.325149E-02	1.426979E-06
4.408698E+03	3.324905E-02	1.426874E-06
4.412297E+03	3.322392E-02	1.425795E-06
4.415896E+03	3.315362E-02	1.422779E-06
4.419495E+03	3.305323E-02	1.418470E-06
4.423094E+03	3.306266E-02	1.418875E-06
4.426692E+03	3.321177E-02	1.425274E-06
4.430291E+03	3.339802E-02	1.433267E-06
4.433890E+03	3.350906E-02	1.438032E-06
4.437490E+03	3.351134E-02	1.438130E-06
4.441089E+03	3.356328E-02	1.440359E-06
4.444688E+03	3.369349E-02	1.445947E-06
4.448287E+03	3.375117E-02	1.448422E-06
4.451886E+03	3.375633E-02	1.448643E-06
4.455485E+03	3.371029E-02	1.446668E-06
4.459083E+03	3.373375E-02	1.447674E-06
4.462682E+03	3.386263E-02	1.453205E-06
4.466281E+03	3.387691E-02	1.453818E-06
4.469880E+03	3.380034E-02	1.450532E-06
4.473479E+03	3.365292E-02	1.444206E-06
4.477078E+03	3.352159E-02	1.438570E-06
4.480678E+03	3.346458E-02	1.436123E-06
4.484276E+03	3.340620E-02	1.433617E-06
4.487875E+03	3.329567E-02	1.428874E-06
4.491474E+03	3.320734E-02	1.425084E-06
4.495073E+03	3.316717E-02	1.423360E-06
4.498672E+03	3.313550E-02	1.422001E-06
4.502271E+03	3.318153E-02	1.423976E-06
4.505870E+03	3.322732E-02	1.425941E-06
4.509469E+03	3.326052E-02	1.427366E-06
4.513068E+03	3.325403E-02	1.427087E-06
4.516666E+03	3.323010E-02	1.426060E-06
4.520265E+03	3.320601E-02	1.425026E-06
4.523864E+03	3.318668E-02	1.424197E-06
4.527464E+03	3.319551E-02	1.424576E-06
4.531063E+03	3.311927E-02	1.421304E-06
4.534662E+03	3.301712E-02	1.416920E-06
4.538261E+03	3.297758E-02	1.415223E-06
4.541859E+03	3.297351E-02	1.415049E-06
4.545458E+03	3.301099E-02	1.416657E-06
4.549057E+03	3.296607E-02	1.414729E-06
4.552656E+03	3.290389E-02	1.412061E-06
4.556255E+03	3.285262E-02	1.409861E-06
4.559854E+03	3.278167E-02	1.406816E-06
4.563453E+03	3.269962E-02	1.403295E-06
4.567052E+03	3.260894E-02	1.399403E-06
4.570651E+03	3.254998E-02	1.396873E-06
4.574250E+03	3.252267E-02	1.395701E-06
4.577849E+03	3.251962E-02	1.395570E-06
4.581448E+03	3.250666E-02	1.395014E-06
4.585047E+03	3.241557E-02	1.391105E-06
4.588646E+03	3.235243E-02	1.388395E-06
4.592245E+03	3.241577E-02	1.391114E-06
4.595843E+03	3.247643E-02	1.393716E-06
4.599442E+03	3.244448E-02	1.392346E-06
4.603041E+03	3.241364E-02	1.391022E-06
4.606640E+03	3.234384E-02	1.388026E-06
4.610239E+03	3.228489E-02	1.385497E-06
4.613839E+03	3.224162E-02	1.383640E-06
4.617438E+03	3.213890E-02	1.379232E-06
4.621037E+03	3.207249E-02	1.376382E-06
4.624636E+03	3.198425E-02	1.372595E-06
4.628234E+03	3.189355E-02	1.368702E-06
4.631833E+03	3.182216E-02	1.365639E-06
4.635432E+03	3.174709E-02	1.362417E-06
4.639031E+03	3.165631E-02	1.358521E-06
4.642630E+03	3.159202E-02	1.355762E-06
4.646229E+03	3.152646E-02	1.352949E-06
4.649828E+03	3.146447E-02	1.350288E-06
4.653426E+03	3.147815E-02	1.350875E-06
4.657026E+03	3.144841E-02	1.349599E-06
4.660625E+03	3.135257E-02	1.345486E-06
4.664224E+03	3.124232E-02	1.340755E-06
4.667823E+03	3.117405E-02	1.337825E-06
4.671422E+03	3.109017E-02	1.334225E-06
4.675021E+03	3.101944E-02	1.331190E-06
4.678620E+03	3.091998E-02	1.326922E-06
4.682218E+03	3.074885E-02	1.319578E-06
4.685817E+03	3.064470E-02	1.315108E-06
4.689416E+03	3.063362E-02	1.314633E-06
4.693015E+03	3.063077E-02	1.314510E-06
4.696614E+03	3.060991E-02	1.313615E-06
4.700214E+03	3.055325E-02	1.311184E-06
4.703813E+03	3.052866E-02	1.310128E-06
4.707411E+03	3.048259E-02	1.308151E-06
4.711010E+03	3.046850E-02	1.307547E-06
4.714609E+03	3.048633E-02	1.308312E-06
4.718208E+03	3.040919E-02	1.305001E-06
4.721807E+03	3.030125E-02	1.300369E-06
4.725406E+03	3.023478E-02	1.297516E-06
4.729005E+03	3.023567E-02	1.297555E-06
4.732604E+03	3.022934E-02	1.297283E-06
4.736203E+03	3.017568E-02	1.294980E-06
4.739801E+03	3.017742E-02	1.295055E-06
4.743401E+03	3.022968E-02	1.297298E-06
4.747000E+03	3.025113E-02	1.298218E-06
4.750599E+03	3.028418E-02	1.299636E-06
4.754198E+03	3.032996E-02	1.301601E-06
4.757797E+03	3.031918E-02	1.301139E-06
4.761396E+03	3.031417E-02	1.300923E-06
4.764994E+03	3.034655E-02	1.302313E-06
4.768593E+03	3.037758E-02	1.303645E-06
4.772192E+03	3.036748E-02	1.303211E-06
4.775791E+03	3.032686E-02	1.301468E-06
4.779390E+03	3.030140E-02	1.300375E-06
4.782989E+03	3.029919E-02	1.300280E-06
4.786589E+03	3.030503E-02	1.300531E-06
4.790188E+03	3.031423E-02	1.300926E-06
4.793787E+03	3.030236E-02	1.300416E-06
4.797385E+03	3.026130E-02	1.298654E-06
4.800984E+03	3.022602E-02	1.297140E-06
4.804583E+03	3.024756E-02	1.298065E-06
4.808182E+03	3.021444E-02	1.296643E-06
4.811781E+03	3.011174E-02	1.292236E-06
4.815380E+03	3.002184E-02	1.288378E-06
4.818979E+03	2.994240E-02	1.284969E-06
4.822578E+03	2.987918E-02	1.282256E-06
4.826176E+03	2.985637E-02	1.281277E-06
4.829775E+03	2.981503E-02	1.279503E-06
4.833375E+03	2.975408E-02	1.276887E-06
4.836974E+03	2.976565E-02	1.277383E-06
4.840573E+03	2.981966E-02	1.279701E-06
4.844172E+03	2.982175E-02	1.279791E-06
4.847771E+03	2.981683E-02	1.279580E-06
4.851369E+03	2.985426E-02	1.281186E-06
4.854968E+03	2.991673E-02	1.283867E-06
4.858567E+03	2.998355E-02	1.286734E-06
4.862166E+03	3.009017E-02	1.291310E-06
4.865765E+03	3.018734E-02	1.295480E-06
4.869364E+03	3.022600E-02	1.297139E-06
4.872963E+03	3.029528E-02	1.300112E-06
4.876563E+03	3.039281E-02	1.304298E-06
4.880161E+03	3.051282E-02	1.309448E-06
4.883760E+03	3.056767E-02	1.311802E-06
4.887359E+03	3.057119E-02	1.311953E-06
4.890958E+03	3.063135E-02	1.314535E-06
4.894557E+03	3.073324E-02	1.318907E-06
4.898156E+03	3.081446E-02	1.322393E-06
4.901755E+03	3.085353E-02	1.324070E-06
4.905353E+03	3.090714E-02	1.326370E-06
4.908952E+03	3.098199E-02	1.329582E-06
4.912551E+03	3.104306E-02	1.332203E-06
4.916150E+03	3.111181E-02	1.335153E-06
4.919750E+03	3.118144E-02	1.338142E-06
4.923349E+03	3.121035E-02	1.339382E-06
4.926948E+03	3.122673E-02	1.340085E-06
4.930547E+03	3.127105E-02	1.341987E-06
4.934146E+03	3.133315E-02	1.344652E-06
4.937744E+03	3.139167E-02	1.347163E-06
4.941343E+03	3.144885E-02	1.349617E-06
4.944942E+03	3.149912E-02	1.351774E-06
4.948541E+03	3.154249E-02	1.353636E-06
4.952140E+03	3.161693E-02	1.356830E-06
4.955739E+03	3.172013E-02	1.361259E-06
4.959338E+03	3.176956E-02	1.363380E-06
4.962937E+03	3.181324E-02	1.365255E-06
4.966536E+03	3.192345E-02	1.369984E-06
4.970135E+03	3.207443E-02	1.376464E-06
4.973734E+03	3.226607E-02	1.384688E-06
4.977333E+03	3.245946E-02	1.392987E-06
4.980932E+03	3.263132E-02	1.400362E-06
4.984531E+03	3.281381E-02	1.408194E-06
4.988130E+03	3.300137E-02	1.416243E-06
4.991728E+03	3.317191E-02	1.423561E-06
4.995327E+03	3.332877E-02	1.430293E-06
4.998926E+03	3.349956E-02	1.437622E-06
5.002525E+03	3.366881E-02	1.444886E-06
5.006125E+03	3.382113E-02	1.451422E-06
5.009724E+03	3.397526E-02	1.458037E-06
5.013323E+03	3.413557E-02	1.464916E-06
5.016921E+03	3.426479E-02	1.470462E-06
5.020520E+03	3.438051E-02	1.475428E-06
5.024119E+03	3.447623E-02	1.479536E-06
5.027718E+03	3.452797E-02	1.481756E-06
5.031317E+03	3.454570E-02	1.482517E-06
5.034916E+03	3.453278E-02	1.481962E-06
5.038515E+03	3.453614E-02	1.482107E-06
5.042114E+03	3.457316E-02	1.483695E-06
5.045713E+03	3.457959E-02	1.483971E-06
5.049312E+03	3.455336E-02	1.482846E-06
5.052911E+03	3.454772E-02	1.482603E-06
5.056510E+03	3.459512E-02	1.484638E-06
5.060109E+03	3.464992E-02	1.486989E-06
5.063708E+03	3.472184E-02	1.490076E-06
5.067307E+03	3.482378E-02	1.494450E-06
5.070906E+03	3.492221E-02	1.498675E-06
5.074504E+03	3.499127E-02	1.501638E-06
5.078103E+03	3.505149E-02	1.504223E-06
5.081702E+03	3.513305E-02	1.507723E-06
5.085301E+03	3.523478E-02	1.512088E-06
5.088900E+03	3.533195E-02	1.516258E-06
5.092500E+03	3.541706E-02	1.519911E-06
5.096099E+03	3.549122E-02	1.523093E-06
5.099698E+03	3.555233E-02	1.525716E-06
5.103297E+03	3.558974E-02	1.527321E-06
5.106895E+03	3.559498E-02	1.527546E-06
5.110494E+03	3.558203E-02	1.526990E-06
5.114093E+03	3.558610E-02	1.527165E-06
5.117692E+03	3.561246E-02	1.528296E-06
5.121291E+03	3.563446E-02	1.529240E-06
5.124890E+03	3.565530E-02	1.530135E-06
5.128489E+03	3.566014E-02	1.530342E-06
5.132087E+03	3.565327E-02	1.530048E-06
5.135686E+03	3.564425E-02	1.529660E-06
5.139286E+03	3.560348E-02	1.527910E-06
5.142885E+03	3.555747E-02	1.525936E-06
5.146484E+03	3.551574E-02	1.524145E-06
5.150083E+03	3.546457E-02	1.521949E-06
5.153682E+03	3.540609E-02	1.519440E-06
5.157281E+03	3.534035E-02	1.516618E-06
5.160879E+03	3.529258E-02	1.514568E-06
5.164478E+03	3.525957E-02	1.513152E-06
5.168077E+03	3.520772E-02	1.510926E-06
5.171676E+03	3.514548E-02	1.508255E-06
5.175275E+03	3.509590E-02	1.506128E-06
5.178874E+03	3.503909E-02	1.503690E-06
5.182474E+03	3.497088E-02	1.500762E-06
5.186072E+03	3.491532E-02	1.498378E-06
5.189671E+03	3.484213E-02	1.495237E-06
5.193270E+03	3.473160E-02	1.490494E-06
5.196869E+03	3.462232E-02	1.485804E-06
5.200468E+03	3.454028E-02	1.482283E-06
5.204067E+03	3.446150E-02	1.478903E-06
5.207666E+03	3.435696E-02	1.474416E-06
5.211265E+03	3.423710E-02	1.469272E-06
5.214864E+03	3.411851E-02	1.464183E-06
5.218462E+03	3.398983E-02	1.458661E-06
5.222061E+03	3.386864E-02	1.453460E-06
5.225661E+03	3.376626E-02	1.449067E-06
5.229260E+03	3.366307E-02	1.444638E-06
5.232859E+03	3.355186E-02	1.439866E-06
5.236458E+03	3.343369E-02	1.434794E-06
5.240057E+03	3.332603E-02	1.430174E-06
5.243655E+03	3.322579E-02	1.425872E-06
5.247254E+03	3.308990E-02	1.420040E-06
5.250853E+03	3.291129E-02	1.412376E-06
5.254452E+03	3.272386E-02	1.404332E-06
5.258051E+03	3.256749E-02	1.397622E-06
5.261650E+03	3.245228E-02	1.392677E-06
5.265249E+03	3.232916E-02	1.387394E-06
5.268849E+03	3.220020E-02	1.381859E-06
5.272448E+03	3.212037E-02	1.378434E-06
5.276046E+03	3.204581E-02	1.375233E-06
5.279645E+03	3.192674E-02	1.370124E-06
5.283244E+03	3.182417E-02	1.365722E-06
5.286843E+03	3.174110E-02	1.362157E-06
5.290442E+03	3.162481E-02	1.357167E-06
5.294041E+03	3.150375E-02	1.351971E-06
5.297640E+03	3.142134E-02	1.348435E-06
5.301238E+03	3.133814E-02	1.344864E-06
5.304837E+03	3.121681E-02	1.339657E-06
5.308436E+03	3.107866E-02	1.333729E-06
5.312036E+03	3.100119E-02	1.330404E-06
5.315635E+03	3.095106E-02	1.328253E-06
5.319234E+03	3.082576E-02	1.322876E-06
5.322833E+03	3.066465E-02	1.315961E-06
5.326432E+03	3.052997E-02	1.310182E-06
5.330030E+03	3.041562E-02	1.305274E-06
5.333629E+03	3.029654E-02	1.300164E-06
5.337228E+03	3.018676E-02	1.295453E-06
5.340827E+03	3.008423E-02	1.291053E-06
5.344426E+03	2.998396E-02	1.286750E-06
