#wls	flux	fluxerr
1.596488E+03	3.679554E-04	1.647539E-06
1.636400E+03	3.469977E-04	1.553083E-06
1.676312E+03	3.275874E-04	1.465628E-06
1.716224E+03	3.097101E-04	1.385100E-06
1.756136E+03	2.933753E-04	1.311534E-06
1.796049E+03	2.785704E-04	1.244864E-06
1.835961E+03	2.653263E-04	1.185221E-06
1.875873E+03	2.536382E-04	1.132574E-06
1.915785E+03	2.435475E-04	1.087100E-06
1.955697E+03	2.350589E-04	1.048812E-06
1.995610E+03	2.282775E-04	1.018168E-06
2.035522E+03	2.232440E-04	9.953431E-07
2.075434E+03	2.201134E-04	9.810188E-07
2.115346E+03	2.190778E-04	9.760405E-07
2.155258E+03	2.203774E-04	9.814679E-07
2.195171E+03	2.243827E-04	9.989392E-07
2.235083E+03	2.315971E-04	1.030681E-06
2.274995E+03	2.427554E-04	1.079948E-06
2.314907E+03	2.588646E-04	1.151199E-06
2.354819E+03	2.813585E-04	1.250785E-06
2.394732E+03	3.123081E-04	1.387879E-06
2.434644E+03	3.546079E-04	1.575301E-06
2.474556E+03	4.123399E-04	1.831127E-06
2.514468E+03	4.911133E-04	2.180187E-06
2.554380E+03	5.982106E-04	2.654705E-06
2.594293E+03	7.416733E-04	3.290228E-06
2.634205E+03	9.273664E-04	4.112605E-06
2.674117E+03	1.155425E-03	5.122251E-06
2.714029E+03	1.417039E-03	6.279938E-06
2.753941E+03	1.694000E-03	7.504860E-06
2.793854E+03	1.963128E-03	8.694301E-06
2.833766E+03	2.206224E-03	9.767729E-06
2.873678E+03	2.419585E-03	1.070888E-05
2.913590E+03	2.611653E-03	1.155524E-05
2.953502E+03	2.789677E-03	1.233897E-05
2.993414E+03	2.948219E-03	1.303609E-05
3.003393E+03	2.983046E-03	1.318905E-05
3.013371E+03	3.015436E-03	1.333121E-05
3.023349E+03	3.045101E-03	1.346131E-05
3.033327E+03	3.071678E-03	1.357773E-05
3.043305E+03	3.094973E-03	1.367964E-05
3.053283E+03	3.114641E-03	1.376550E-05
3.063261E+03	3.130594E-03	1.383493E-05
3.073239E+03	3.142433E-03	1.388618E-05
3.083217E+03	3.150027E-03	1.391866E-05
3.093195E+03	3.153108E-03	1.393120E-05
3.103173E+03	3.151600E-03	1.392347E-05
3.113151E+03	3.145468E-03	1.389531E-05
3.123129E+03	3.134485E-03	1.384574E-05
3.133107E+03	3.118715E-03	1.377502E-05
3.143085E+03	3.098122E-03	1.368303E-05
3.153063E+03	3.072959E-03	1.357086E-05
3.163041E+03	3.043244E-03	1.343861E-05
3.173019E+03	3.009360E-03	1.328798E-05
3.182997E+03	2.971476E-03	1.311972E-05
3.192975E+03	2.930056E-03	1.293586E-05
3.202954E+03	2.885640E-03	1.273881E-05
3.212932E+03	2.838656E-03	1.253047E-05
3.222910E+03	2.789824E-03	1.231399E-05
3.232888E+03	2.739883E-03	1.209265E-05
3.242866E+03	2.689663E-03	1.187012E-05
3.252844E+03	2.640074E-03	1.165041E-05
3.262822E+03	2.592102E-03	1.143787E-05
3.272800E+03	2.546745E-03	1.123689E-05
3.282778E+03	2.505200E-03	1.105277E-05
3.292756E+03	2.468506E-03	1.089009E-05
3.302734E+03	2.437653E-03	1.075319E-05
3.312712E+03	2.413634E-03	1.064646E-05
3.322690E+03	2.397375E-03	1.057396E-05
3.332668E+03	2.389611E-03	1.053895E-05
3.342646E+03	2.391148E-03	1.054497E-05
3.352624E+03	2.402898E-03	1.059602E-05
3.362602E+03	2.425634E-03	1.069551E-05
3.372580E+03	2.460341E-03	1.084777E-05
3.382558E+03	2.508079E-03	1.105745E-05
3.392536E+03	2.570016E-03	1.132971E-05
3.402514E+03	2.647600E-03	1.167089E-05
3.412493E+03	2.742393E-03	1.208789E-05
3.422471E+03	2.856266E-03	1.258892E-05
3.432449E+03	2.991213E-03	1.318277E-05
3.442427E+03	3.149345E-03	1.387870E-05
3.452405E+03	3.332888E-03	1.468652E-05
3.462383E+03	3.543982E-03	1.561562E-05
3.472361E+03	3.784619E-03	1.667475E-05
3.482339E+03	4.056166E-03	1.786992E-05
3.492317E+03	4.359444E-03	1.920471E-05
3.502295E+03	4.694046E-03	2.067730E-05
3.512273E+03	5.058301E-03	2.228030E-05
3.522251E+03	5.448801E-03	2.399867E-05
3.532229E+03	5.860633E-03	2.581077E-05
3.542207E+03	6.286879E-03	2.768609E-05
3.552185E+03	6.719358E-03	2.958862E-05
3.562163E+03	7.148924E-03	3.147806E-05
3.572141E+03	7.565836E-03	3.331153E-05
3.582119E+03	7.960744E-03	3.504788E-05
3.592097E+03	8.326046E-03	3.665368E-05
3.602075E+03	8.656383E-03	3.810534E-05
3.612053E+03	8.948398E-03	3.938814E-05
3.622032E+03	9.200980E-03	4.049721E-05
3.632010E+03	9.413777E-03	4.143105E-05
3.641988E+03	9.586478E-03	4.218831E-05
3.651966E+03	9.717856E-03	4.276363E-05
3.661944E+03	9.806120E-03	4.314918E-05
3.671922E+03	9.848380E-03	4.333227E-05
3.681900E+03	9.842665E-03	4.330427E-05
3.691878E+03	9.375031E-03	4.124413E-05
3.693873E+03	9.380246E-03	4.126653E-05
3.695869E+03	9.392977E-03	4.132200E-05
3.697865E+03	9.399571E-03	4.135047E-05
3.699860E+03	9.401822E-03	4.135983E-05
3.701856E+03	9.406187E-03	4.137848E-05
3.703852E+03	9.411178E-03	4.139990E-05
3.705847E+03	9.419134E-03	4.143436E-05
3.707843E+03	9.417148E-03	4.142508E-05
3.709838E+03	9.409977E-03	4.139299E-05
3.711834E+03	9.418873E-03	4.143159E-05
3.713830E+03	9.419207E-03	4.143252E-05
3.715825E+03	9.417848E-03	4.142600E-05
3.717821E+03	9.413945E-03	4.140829E-05
3.719816E+03	9.412363E-03	4.140079E-05
3.721812E+03	9.401805E-03	4.135382E-05
3.723808E+03	9.374857E-03	4.123475E-05
3.725803E+03	9.344837E-03	4.110217E-05
3.727799E+03	9.313240E-03	4.096266E-05
3.729794E+03	9.277093E-03	4.080315E-05
3.731790E+03	9.248354E-03	4.067622E-05
3.733786E+03	9.212530E-03	4.051813E-05
3.735781E+03	9.181463E-03	4.038097E-05
3.737777E+03	9.150816E-03	4.024566E-05
3.739773E+03	9.115413E-03	4.008944E-05
3.741768E+03	9.079491E-03	3.993094E-05
3.743764E+03	9.044832E-03	3.977800E-05
3.745759E+03	9.007746E-03	3.961439E-05
3.747755E+03	8.964006E-03	3.942152E-05
3.749751E+03	8.908332E-03	3.917617E-05
3.751746E+03	8.856252E-03	3.894664E-05
3.753742E+03	8.815053E-03	3.876496E-05
3.755737E+03	8.775125E-03	3.858888E-05
3.757733E+03	8.729706E-03	3.838865E-05
3.759729E+03	8.686930E-03	3.820005E-05
3.761724E+03	8.652393E-03	3.804769E-05
3.763720E+03	8.617435E-03	3.789348E-05
3.765715E+03	8.576354E-03	3.771235E-05
3.767711E+03	8.542032E-03	3.756095E-05
3.769707E+03	8.522283E-03	3.747363E-05
3.771702E+03	8.500105E-03	3.737563E-05
3.773698E+03	8.489752E-03	3.732963E-05
3.775693E+03	8.489427E-03	3.732772E-05
3.777689E+03	8.470203E-03	3.724272E-05
3.779685E+03	8.458053E-03	3.718882E-05
3.781680E+03	8.452234E-03	3.716276E-05
3.783676E+03	8.447681E-03	3.714227E-05
3.785672E+03	8.455474E-03	3.717606E-05
3.787667E+03	8.479624E-03	3.728176E-05
3.789663E+03	8.507461E-03	3.740368E-05
3.791658E+03	8.536982E-03	3.753299E-05
3.793654E+03	8.569136E-03	3.767388E-05
3.795650E+03	8.589362E-03	3.776232E-05
3.797645E+03	8.639020E-03	3.798015E-05
3.799641E+03	8.699854E-03	3.824712E-05
3.801636E+03	8.753400E-03	3.848203E-05
3.803632E+03	8.803351E-03	3.870114E-05
3.805628E+03	8.862155E-03	3.895916E-05
3.807623E+03	8.924537E-03	3.923290E-05
3.809619E+03	8.987117E-03	3.950751E-05
3.811614E+03	9.059503E-03	3.982521E-05
3.813610E+03	9.138625E-03	4.017252E-05
3.815606E+03	9.229129E-03	4.056986E-05
3.817601E+03	9.332377E-03	4.102320E-05
3.819597E+03	9.442038E-03	4.150472E-05
3.821592E+03	9.562866E-03	4.203532E-05
3.823588E+03	9.684948E-03	4.257142E-05
3.825584E+03	9.804369E-03	4.309581E-05
3.827579E+03	9.917037E-03	4.359050E-05
3.829575E+03	1.003242E-02	4.409711E-05
3.831571E+03	1.016708E-02	4.468846E-05
3.833566E+03	1.030931E-02	4.531305E-05
3.835562E+03	1.044858E-02	4.592459E-05
3.837557E+03	1.059182E-02	4.655360E-05
3.839553E+03	1.073769E-02	4.719412E-05
3.841549E+03	1.088880E-02	4.785769E-05
3.843544E+03	1.104305E-02	4.853502E-05
3.845540E+03	1.119517E-02	4.920300E-05
3.847535E+03	1.135149E-02	4.988943E-05
3.849531E+03	1.151621E-02	5.061271E-05
3.851527E+03	1.168828E-02	5.136833E-05
3.853522E+03	1.186561E-02	5.214699E-05
3.855518E+03	1.204185E-02	5.292087E-05
3.857513E+03	1.222965E-02	5.374554E-05
3.859509E+03	1.242269E-02	5.459320E-05
3.861505E+03	1.260096E-02	5.537595E-05
3.863500E+03	1.277815E-02	5.615391E-05
3.865496E+03	1.295426E-02	5.692713E-05
3.867492E+03	1.312719E-02	5.768636E-05
3.869487E+03	1.328851E-02	5.839456E-05
3.871483E+03	1.344138E-02	5.906559E-05
3.873478E+03	1.359002E-02	5.971803E-05
3.875474E+03	1.373865E-02	6.037037E-05
3.877470E+03	1.388513E-02	6.101329E-05
3.879465E+03	1.402739E-02	6.163766E-05
3.881461E+03	1.414963E-02	6.217402E-05
3.883456E+03	1.428237E-02	6.275649E-05
3.885452E+03	1.440984E-02	6.331580E-05
3.887448E+03	1.452991E-02	6.384259E-05
3.889443E+03	1.464365E-02	6.434155E-05
3.891439E+03	1.475421E-02	6.482657E-05
3.893434E+03	1.485635E-02	6.527451E-05
3.895430E+03	1.494898E-02	6.568073E-05
3.897426E+03	1.504582E-02	6.610539E-05
3.899421E+03	1.515526E-02	6.658540E-05
3.901417E+03	1.525732E-02	6.703298E-05
3.903412E+03	1.534464E-02	6.741578E-05
3.905408E+03	1.542457E-02	6.776616E-05
3.907404E+03	1.551502E-02	6.816267E-05
3.909399E+03	1.559808E-02	6.852676E-05
3.911395E+03	1.566431E-02	6.881687E-05
3.913391E+03	1.573472E-02	6.912534E-05
3.915386E+03	1.581773E-02	6.948921E-05
3.917382E+03	1.588708E-02	6.979298E-05
3.919377E+03	1.594168E-02	7.003200E-05
3.921373E+03	1.600153E-02	7.029406E-05
3.923369E+03	1.606872E-02	7.058838E-05
3.925364E+03	1.612119E-02	7.081801E-05
3.927360E+03	1.617154E-02	7.103831E-05
3.929355E+03	1.622608E-02	7.127706E-05
3.931351E+03	1.628586E-02	7.153878E-05
3.933347E+03	1.634669E-02	7.180509E-05
3.935342E+03	1.640224E-02	7.204827E-05
3.937338E+03	1.644939E-02	7.225446E-05
3.939333E+03	1.649546E-02	7.245597E-05
3.941329E+03	1.654888E-02	7.268972E-05
3.943325E+03	1.659913E-02	7.290959E-05
3.945320E+03	1.665673E-02	7.316166E-05
3.947316E+03	1.670380E-02	7.336755E-05
3.949312E+03	1.674772E-02	7.355956E-05
3.951307E+03	1.679058E-02	7.374691E-05
3.953303E+03	1.683027E-02	7.392038E-05
3.955298E+03	1.686786E-02	7.408456E-05
3.957294E+03	1.690753E-02	7.425790E-05
3.959290E+03	1.694510E-02	7.442200E-05
3.961285E+03	1.697845E-02	7.456760E-05
3.963281E+03	1.701599E-02	7.473157E-05
3.965276E+03	1.705247E-02	7.489090E-05
3.967272E+03	1.708265E-02	7.502253E-05
3.969268E+03	1.710967E-02	7.514028E-05
3.971263E+03	1.713038E-02	7.523034E-05
3.973259E+03	1.715424E-02	7.533420E-05
3.975254E+03	1.717913E-02	7.544263E-05
3.977250E+03	1.720191E-02	7.554176E-05
3.979246E+03	1.721211E-02	7.558565E-05
3.981241E+03	1.720446E-02	7.555116E-05
3.983237E+03	1.720625E-02	7.555812E-05
3.985232E+03	1.720175E-02	7.553744E-05
3.987228E+03	1.719199E-02	7.549371E-05
3.989224E+03	1.717699E-02	7.542695E-05
3.991219E+03	1.715885E-02	7.534638E-05
3.993215E+03	1.713546E-02	7.524278E-05
3.995211E+03	1.710682E-02	7.511613E-05
3.997206E+03	1.708029E-02	7.499874E-05
3.999202E+03	1.705689E-02	7.489510E-05
4.001197E+03	1.702931E-02	7.477311E-05
4.003193E+03	1.699858E-02	7.463728E-05
4.005189E+03	1.696261E-02	7.447846E-05
4.007184E+03	1.692454E-02	7.431044E-05
4.009180E+03	1.688647E-02	7.414242E-05
4.011175E+03	1.684632E-02	7.396525E-05
4.013171E+03	1.680930E-02	7.380185E-05
4.015167E+03	1.676705E-02	7.361549E-05
4.017162E+03	1.671957E-02	7.340614E-05
4.019158E+03	1.666372E-02	7.316007E-05
4.021153E+03	1.660472E-02	7.290018E-05
4.023149E+03	1.654991E-02	7.265872E-05
4.025145E+03	1.649093E-02	7.239892E-05
4.027140E+03	1.642358E-02	7.210237E-05
4.029136E+03	1.635936E-02	7.181962E-05
4.031132E+03	1.630877E-02	7.159668E-05
4.033127E+03	1.625504E-02	7.135994E-05
4.035123E+03	1.620026E-02	7.111865E-05
4.037118E+03	1.614758E-02	7.088656E-05
4.039114E+03	1.610223E-02	7.068664E-05
4.041110E+03	1.606002E-02	7.050052E-05
4.043105E+03	1.601991E-02	7.032360E-05
4.045101E+03	1.598502E-02	7.016965E-05
4.047096E+03	1.594805E-02	7.000654E-05
4.049092E+03	1.591003E-02	6.983884E-05
4.051088E+03	1.587724E-02	6.969409E-05
4.053083E+03	1.584864E-02	6.956771E-05
4.055079E+03	1.582526E-02	6.946428E-05
4.057074E+03	1.579560E-02	6.933331E-05
4.059070E+03	1.577222E-02	6.922989E-05
4.061066E+03	1.575930E-02	6.917234E-05
4.063061E+03	1.574219E-02	6.909644E-05
4.065057E+03	1.571880E-02	6.899299E-05
4.067052E+03	1.570482E-02	6.893085E-05
4.069048E+03	1.569711E-02	6.889618E-05
4.071044E+03	1.569670E-02	6.889359E-05
4.073039E+03	1.569420E-02	6.888183E-05
4.075035E+03	1.569483E-02	6.888380E-05
4.077031E+03	1.570067E-02	6.890864E-05
4.079026E+03	1.571174E-02	6.895642E-05
4.081022E+03	1.571966E-02	6.899038E-05
4.083017E+03	1.572966E-02	6.903349E-05
4.085013E+03	1.574279E-02	6.909031E-05
4.087009E+03	1.575591E-02	6.914710E-05
4.089004E+03	1.576902E-02	6.920384E-05
4.091000E+03	1.578107E-02	6.925594E-05
4.092995E+03	1.579521E-02	6.931721E-05
4.094991E+03	1.580934E-02	6.937843E-05
4.096987E+03	1.582243E-02	6.943505E-05
4.098982E+03	1.583863E-02	6.950534E-05
4.100978E+03	1.585691E-02	6.958479E-05
4.102973E+03	1.587518E-02	6.966416E-05
4.104969E+03	1.589553E-02	6.975265E-05
4.106965E+03	1.591691E-02	6.984569E-05
4.108960E+03	1.594037E-02	6.994784E-05
4.110956E+03	1.596069E-02	7.003620E-05
4.112952E+03	1.597683E-02	7.010621E-05
4.114947E+03	1.600339E-02	7.022195E-05
4.116943E+03	1.602993E-02	7.033761E-05
4.118938E+03	1.605647E-02	7.045327E-05
4.120934E+03	1.608403E-02	7.057341E-05
4.122930E+03	1.611158E-02	7.069350E-05
4.124925E+03	1.613809E-02	7.080899E-05
4.126921E+03	1.616145E-02	7.091070E-05
4.128916E+03	1.618793E-02	7.102607E-05
4.130912E+03	1.621752E-02	7.115511E-05
4.132908E+03	1.624398E-02	7.127040E-05
4.134903E+03	1.627147E-02	7.139020E-05
4.136899E+03	1.630207E-02	7.152363E-05
4.138894E+03	1.632745E-02	7.163420E-05
4.140890E+03	1.635178E-02	7.174013E-05
4.142886E+03	1.638130E-02	7.186884E-05
4.144881E+03	1.641289E-02	7.200662E-05
4.146877E+03	1.644239E-02	7.213525E-05
4.148872E+03	1.646771E-02	7.224553E-05
4.150868E+03	1.649095E-02	7.234666E-05
4.152864E+03	1.651729E-02	7.246141E-05
4.154859E+03	1.654570E-02	7.258524E-05
4.156855E+03	1.657411E-02	7.270902E-05
4.158851E+03	1.660353E-02	7.283728E-05
4.160846E+03	1.663710E-02	7.298376E-05
4.162842E+03	1.667483E-02	7.314842E-05
4.164837E+03	1.671462E-02	7.332216E-05
4.166833E+03	1.675854E-02	7.351403E-05
4.168829E+03	1.680558E-02	7.371953E-05
4.170824E+03	1.685676E-02	7.394321E-05
4.172820E+03	1.690896E-02	7.417136E-05
4.174815E+03	1.696425E-02	7.441309E-05
4.176811E+03	1.702680E-02	7.468663E-05
4.178807E+03	1.709350E-02	7.497835E-05
4.180802E+03	1.716328E-02	7.528361E-05
4.182798E+03	1.723511E-02	7.559786E-05
4.184793E+03	1.730901E-02	7.592117E-05
4.186789E+03	1.738599E-02	7.625798E-05
4.188785E+03	1.746711E-02	7.661293E-05
4.190780E+03	1.755029E-02	7.697690E-05
4.192776E+03	1.763551E-02	7.734982E-05
4.194772E+03	1.772277E-02	7.773172E-05
4.196767E+03	1.781209E-02	7.812261E-05
4.198763E+03	1.790139E-02	7.851340E-05
4.200758E+03	1.798962E-02	7.889948E-05
4.202754E+03	1.807678E-02	7.928091E-05
4.204750E+03	1.816288E-02	7.965762E-05
4.206745E+03	1.824791E-02	8.002969E-05
4.208741E+03	1.833396E-02	8.040619E-05
4.210736E+03	1.841687E-02	8.076890E-05
4.212732E+03	1.849456E-02	8.110875E-05
4.214728E+03	1.857120E-02	8.144395E-05
4.216723E+03	1.864780E-02	8.177899E-05
4.218719E+03	1.872128E-02	8.210033E-05
4.220714E+03	1.879058E-02	8.240335E-05
4.222710E+03	1.885260E-02	8.267445E-05
4.224706E+03	1.891357E-02	8.294091E-05
4.226701E+03	1.897348E-02	8.320270E-05
4.228697E+03	1.903026E-02	8.345081E-05
4.230692E+03	1.907976E-02	8.366696E-05
4.232688E+03	1.912718E-02	8.387400E-05
4.234684E+03	1.917562E-02	8.408547E-05
4.236679E+03	1.922092E-02	8.428324E-05
4.238675E+03	1.926414E-02	8.447181E-05
4.240671E+03	1.930837E-02	8.466486E-05
4.242666E+03	1.934948E-02	8.484420E-05
4.244662E+03	1.938643E-02	8.500532E-05
4.246657E+03	1.942752E-02	8.518453E-05
4.248653E+03	1.946546E-02	8.535001E-05
4.250649E+03	1.950030E-02	8.550181E-05
4.252644E+03	1.953408E-02	8.564903E-05
4.254640E+03	1.956681E-02	8.579160E-05
4.256635E+03	1.959953E-02	8.593414E-05
4.258631E+03	1.963637E-02	8.609473E-05
4.260627E+03	1.967422E-02	8.625975E-05
4.262622E+03	1.971412E-02	8.643380E-05
4.264618E+03	1.975091E-02	8.659414E-05
4.266613E+03	1.978663E-02	8.674985E-05
4.268609E+03	1.982132E-02	8.690100E-05
4.270605E+03	1.986012E-02	8.707017E-05
4.272600E+03	1.990407E-02	8.726190E-05
4.274596E+03	1.995006E-02	8.746262E-05
4.276591E+03	1.999914E-02	8.767683E-05
4.278587E+03	2.004818E-02	8.789092E-05
4.280583E+03	2.010444E-02	8.813660E-05
4.282578E+03	2.016481E-02	8.840033E-05
4.284574E+03	2.022825E-02	8.867748E-05
4.286570E+03	2.028856E-02	8.894096E-05
4.288565E+03	2.034886E-02	8.920433E-05
4.290561E+03	2.040706E-02	8.945854E-05
4.292556E+03	2.046318E-02	8.970360E-05
4.294552E+03	2.051515E-02	8.993044E-05
4.296548E+03	2.056400E-02	9.014363E-05
4.298543E+03	2.061283E-02	9.035673E-05
4.300539E+03	2.066267E-02	9.057426E-05
4.302534E+03	2.070939E-02	9.077809E-05
4.304530E+03	2.075300E-02	9.096830E-05
4.306526E+03	2.079556E-02	9.115388E-05
4.308521E+03	2.083912E-02	9.134388E-05
4.310517E+03	2.088061E-02	9.152478E-05
4.312512E+03	2.091590E-02	9.167848E-05
4.314508E+03	2.094911E-02	9.182308E-05
4.316504E+03	2.098126E-02	9.196304E-05
4.318499E+03	2.101237E-02	9.209845E-05
4.320495E+03	2.104140E-02	9.222471E-05
4.322491E+03	2.106939E-02	9.234642E-05
4.324486E+03	2.109426E-02	9.245447E-05
4.326482E+03	2.112015E-02	9.256700E-05
4.328477E+03	2.114603E-02	9.267944E-05
4.330473E+03	2.117087E-02	9.278733E-05
4.332469E+03	2.119671E-02	9.289961E-05
4.334464E+03	2.122768E-02	9.303441E-05
4.336460E+03	2.126377E-02	9.319161E-05
4.338455E+03	2.130397E-02	9.336682E-05
4.340451E+03	2.134517E-02	9.354642E-05
4.342447E+03	2.138944E-02	9.373944E-05
4.344442E+03	2.144190E-02	9.396838E-05
4.346438E+03	2.149641E-02	9.420627E-05
4.348433E+03	2.155087E-02	9.444400E-05
4.350429E+03	2.161354E-02	9.471766E-05
4.352425E+03	2.168441E-02	9.502724E-05
4.354420E+03	2.176038E-02	9.535919E-05
4.356416E+03	2.183940E-02	9.570446E-05
4.358411E+03	2.192044E-02	9.605863E-05
4.360407E+03	2.200658E-02	9.643512E-05
4.362403E+03	2.209783E-02	9.683396E-05
4.364398E+03	2.219416E-02	9.725511E-05
4.366394E+03	2.229355E-02	9.768963E-05
4.368390E+03	2.239596E-02	9.813740E-05
4.370385E+03	2.249834E-02	9.858500E-05
4.372381E+03	2.260478E-02	9.905040E-05
4.374376E+03	2.271837E-02	9.954709E-05
4.376372E+03	2.283396E-02	1.000526E-04
4.378368E+03	2.294950E-02	1.005578E-04
4.380363E+03	2.306910E-02	1.010808E-04
4.382359E+03	2.319276E-02	1.016216E-04
4.384354E+03	2.331330E-02	1.021487E-04
4.386350E+03	2.343685E-02	1.026891E-04
4.388346E+03	2.355626E-02	1.032112E-04
4.390341E+03	2.367564E-02	1.037332E-04
4.392337E+03	2.379700E-02	1.042639E-04
4.394332E+03	2.391730E-02	1.047899E-04
4.396328E+03	2.403857E-02	1.053201E-04
4.398324E+03	2.415876E-02	1.058457E-04
4.400319E+03	2.428199E-02	1.063845E-04
4.402315E+03	2.441028E-02	1.069455E-04
4.404311E+03	2.454262E-02	1.075242E-04
4.406306E+03	2.467490E-02	1.081026E-04
4.408302E+03	2.480712E-02	1.086808E-04
4.410297E+03	2.494032E-02	1.092633E-04
4.412293E+03	2.507142E-02	1.098365E-04
4.414289E+03	2.520554E-02	1.104230E-04
4.416284E+03	2.534164E-02	1.110181E-04
4.418280E+03	2.548689E-02	1.116533E-04
4.420275E+03	2.563515E-02	1.123017E-04
4.422271E+03	2.578540E-02	1.129588E-04
4.424267E+03	2.593763E-02	1.136245E-04
4.426262E+03	2.609286E-02	1.143034E-04
4.428258E+03	2.625314E-02	1.150043E-04
4.430253E+03	2.641335E-02	1.157050E-04
4.432249E+03	2.657554E-02	1.164143E-04
4.434245E+03	2.674176E-02	1.171413E-04
4.436240E+03	2.691403E-02	1.178948E-04
4.438236E+03	2.709031E-02	1.186658E-04
4.440231E+03	2.727469E-02	1.194722E-04
4.442227E+03	2.746715E-02	1.203141E-04
4.444223E+03	2.766465E-02	1.211780E-04
4.446218E+03	2.786818E-02	1.220683E-04
4.448214E+03	2.807878E-02	1.229895E-04
4.450210E+03	2.829439E-02	1.239327E-04
4.452205E+03	2.851501E-02	1.248978E-04
4.454201E+03	2.874166E-02	1.258893E-04
4.456196E+03	2.897331E-02	1.269027E-04
4.458192E+03	2.920793E-02	1.279291E-04
4.460188E+03	2.944043E-02	1.289462E-04
4.462183E+03	2.967384E-02	1.299672E-04
4.464179E+03	2.990819E-02	1.309923E-04
4.466174E+03	3.014243E-02	1.320170E-04
4.468170E+03	3.037455E-02	1.330323E-04
4.470166E+03	3.060352E-02	1.340338E-04
4.472161E+03	3.083240E-02	1.350349E-04
4.474157E+03	3.106220E-02	1.360400E-04
4.476152E+03	3.129087E-02	1.370402E-04
4.478148E+03	3.151540E-02	1.380221E-04
4.480144E+03	3.173881E-02	1.389992E-04
4.482139E+03	3.196213E-02	1.399759E-04
4.484135E+03	3.218230E-02	1.409387E-04
4.486131E+03	3.239730E-02	1.418789E-04
4.488126E+03	3.260611E-02	1.427920E-04
4.490122E+03	3.281584E-02	1.437091E-04
4.492117E+03	3.302549E-02	1.446258E-04
4.494113E+03	3.322792E-02	1.455109E-04
4.496109E+03	3.342825E-02	1.463867E-04
4.498104E+03	3.363051E-02	1.472710E-04
4.500100E+03	3.382862E-02	1.481371E-04
4.502095E+03	3.402157E-02	1.489806E-04
