#wls	flux	fluxerr
1.596488E+03	3.967555E-05	1.152641E-06
1.636400E+03	3.844541E-05	1.115190E-06
1.676312E+03	3.728763E-05	1.079899E-06
1.716224E+03	3.620458E-05	1.046828E-06
1.756136E+03	3.520072E-05	1.016099E-06
1.796049E+03	3.427573E-05	9.876933E-07
1.835961E+03	3.343571E-05	9.617785E-07
1.875873E+03	3.268020E-05	9.383301E-07
1.915785E+03	3.201096E-05	9.173875E-07
1.955697E+03	3.143162E-05	8.990423E-07
1.995610E+03	3.094391E-05	8.833309E-07
2.035522E+03	3.054979E-05	8.702939E-07
2.075434E+03	3.025140E-05	8.599773E-07
2.115346E+03	3.005286E-05	8.524805E-07
2.155258E+03	2.995538E-05	8.478195E-07
2.195171E+03	2.996385E-05	8.461127E-07
2.235083E+03	3.008064E-05	8.474048E-07
2.274995E+03	3.031485E-05	8.519282E-07
2.314907E+03	3.066743E-05	8.596833E-07
2.354819E+03	3.114789E-05	8.709078E-07
2.394732E+03	3.176403E-05	8.857877E-07
2.434644E+03	3.252531E-05	9.045517E-07
2.474556E+03	3.344319E-05	9.274786E-07
2.514468E+03	3.453160E-05	9.549109E-07
2.554380E+03	3.580761E-05	9.872704E-07
2.594293E+03	3.729368E-05	1.025119E-06
2.634205E+03	3.901568E-05	1.069103E-06
2.674117E+03	4.100554E-05	1.120020E-06
2.714029E+03	4.330108E-05	1.178816E-06
2.753941E+03	4.595445E-05	1.246806E-06
2.793854E+03	4.902273E-05	1.325413E-06
2.833766E+03	5.258433E-05	1.416612E-06
2.873678E+03	5.673210E-05	1.522723E-06
2.913590E+03	6.157646E-05	1.646493E-06
2.953502E+03	6.726262E-05	1.791541E-06
2.993414E+03	7.396208E-05	1.962110E-06
3.003393E+03	7.581892E-05	2.009323E-06
3.013371E+03	7.775656E-05	2.058563E-06
3.023349E+03	7.977898E-05	2.109927E-06
3.033327E+03	8.188769E-05	2.163448E-06
3.043305E+03	8.409239E-05	2.219373E-06
3.053283E+03	8.639222E-05	2.277671E-06
3.063261E+03	8.879488E-05	2.338536E-06
3.073239E+03	9.130231E-05	2.402008E-06
3.083217E+03	9.392279E-05	2.468295E-06
3.093195E+03	9.666191E-05	2.537533E-06
3.103173E+03	9.952541E-05	2.609862E-06
3.113151E+03	1.025196E-04	2.685434E-06
3.123129E+03	1.056475E-04	2.764314E-06
3.133107E+03	1.089189E-04	2.846748E-06
3.143085E+03	1.123409E-04	2.932904E-06
3.153063E+03	1.159207E-04	3.022958E-06
3.163041E+03	1.196625E-04	3.117002E-06
3.173019E+03	1.235777E-04	3.215313E-06
3.182997E+03	1.276745E-04	3.318093E-06
3.192975E+03	1.319615E-04	3.425545E-06
3.202954E+03	1.364438E-04	3.537777E-06
3.212932E+03	1.411344E-04	3.655113E-06
3.222910E+03	1.460431E-04	3.777780E-06
3.232888E+03	1.511756E-04	3.905904E-06
3.242866E+03	1.565463E-04	4.039833E-06
3.252844E+03	1.621661E-04	4.179824E-06
3.262822E+03	1.680460E-04	4.326135E-06
3.272800E+03	1.741925E-04	4.478904E-06
3.282778E+03	1.806221E-04	4.638526E-06
3.292756E+03	1.873469E-04	4.805284E-06
3.302734E+03	1.943792E-04	4.979460E-06
3.312712E+03	2.017264E-04	5.161207E-06
3.322690E+03	2.094065E-04	5.350955E-06
3.332668E+03	2.174268E-04	5.548853E-06
3.342646E+03	2.258129E-04	5.755516E-06
3.352624E+03	2.345659E-04	5.970933E-06
3.362602E+03	2.436993E-04	6.195404E-06
3.372580E+03	2.532402E-04	6.429576E-06
3.382558E+03	2.631892E-04	6.673419E-06
3.392536E+03	2.735596E-04	6.927224E-06
3.402514E+03	2.843803E-04	7.191673E-06
3.412493E+03	2.956504E-04	7.466691E-06
3.422471E+03	3.073831E-04	7.752562E-06
3.432449E+03	3.195999E-04	8.049772E-06
3.442427E+03	3.323145E-04	8.358612E-06
3.452405E+03	3.455404E-04	8.679359E-06
3.462383E+03	3.592810E-04	9.012041E-06
3.472361E+03	3.735577E-04	9.357134E-06
3.482339E+03	3.883724E-04	9.714619E-06
3.492317E+03	4.037461E-04	1.008496E-05
3.502295E+03	4.196893E-04	1.046834E-05
3.512273E+03	4.362008E-04	1.086468E-05
3.522251E+03	4.533001E-04	1.127438E-05
3.532229E+03	4.709832E-04	1.169727E-05
3.542207E+03	4.892681E-04	1.213372E-05
3.552185E+03	5.081476E-04	1.258349E-05
3.562163E+03	5.276383E-04	1.304691E-05
3.572141E+03	5.477428E-04	1.352396E-05
3.582119E+03	5.684484E-04	1.401426E-05
3.592097E+03	5.897677E-04	1.451803E-05
3.602075E+03	6.116835E-04	1.503477E-05
3.612053E+03	6.342057E-04	1.556465E-05
3.622032E+03	6.573115E-04	1.610703E-05
3.632010E+03	6.810075E-04	1.666199E-05
3.641988E+03	7.052651E-04	1.722875E-05
3.651966E+03	7.300864E-04	1.780729E-05
3.661944E+03	7.554366E-04	1.839668E-05
3.671922E+03	7.813125E-04	1.899677E-05
3.681900E+03	8.076719E-04	1.960645E-05
3.691878E+03	8.344861E-04	2.022497E-05
3.701856E+03	8.617439E-04	2.085198E-05
3.711834E+03	8.894103E-04	2.148657E-05
3.721812E+03	9.174036E-04	2.212671E-05
3.731790E+03	9.457425E-04	2.277280E-05
3.741768E+03	9.743145E-04	2.342206E-05
3.751746E+03	1.003109E-03	2.407422E-05
3.761724E+03	1.032068E-03	2.472781E-05
3.771702E+03	1.061103E-03	2.538072E-05
3.781680E+03	1.090145E-03	2.603124E-05
3.791658E+03	1.119117E-03	2.667754E-05
3.801636E+03	1.147963E-03	2.731829E-05
3.811614E+03	1.176572E-03	2.795081E-05
3.821592E+03	1.204879E-03	2.857361E-05
3.831571E+03	1.232760E-03	2.918377E-05
3.841549E+03	1.260113E-03	2.977892E-05
3.851527E+03	1.286833E-03	3.035661E-05
3.861505E+03	1.312838E-03	3.091500E-05
3.871483E+03	1.337990E-03	3.145089E-05
3.881461E+03	1.362173E-03	3.196170E-05
3.891439E+03	1.385274E-03	3.244486E-05
3.901417E+03	1.407210E-03	3.289856E-05
3.911395E+03	1.427841E-03	3.331968E-05
3.921373E+03	1.447061E-03	3.370589E-05
3.931351E+03	1.464768E-03	3.405500E-05
3.941329E+03	1.480871E-03	3.436512E-05
3.951307E+03	1.495320E-03	3.463523E-05
3.961285E+03	1.507984E-03	3.486254E-05
3.971263E+03	1.518874E-03	3.504754E-05
3.981241E+03	1.527924E-03	3.518894E-05
3.991219E+03	1.535123E-03	3.528669E-05
4.001197E+03	1.540478E-03	3.534124E-05
4.011175E+03	1.544024E-03	3.535362E-05
4.021153E+03	1.545821E-03	3.532544E-05
4.031132E+03	1.545984E-03	3.525954E-05
4.041110E+03	1.544559E-03	3.515722E-05
4.051088E+03	1.541739E-03	3.502305E-05
4.061066E+03	1.537611E-03	3.485922E-05
4.071044E+03	1.532373E-03	3.467037E-05
4.081022E+03	1.526233E-03	3.446138E-05
4.091000E+03	1.519315E-03	3.423517E-05
4.100978E+03	1.511841E-03	3.399680E-05
4.110956E+03	1.503999E-03	3.375061E-05
4.120934E+03	1.496004E-03	3.350147E-05
4.130912E+03	1.487975E-03	3.325206E-05
4.140890E+03	1.480109E-03	3.300679E-05
4.150868E+03	1.472564E-03	3.276915E-05
4.160846E+03	1.465456E-03	3.254166E-05
4.170824E+03	1.458972E-03	3.232844E-05
4.180802E+03	1.453175E-03	3.213078E-05
4.190780E+03	1.448202E-03	3.195161E-05
4.200758E+03	1.444153E-03	3.179300E-05
4.210736E+03	1.441120E-03	3.165689E-05
4.220714E+03	1.439196E-03	3.154513E-05
4.230692E+03	1.438448E-03	3.145903E-05
4.240671E+03	1.438999E-03	3.140112E-05
4.250649E+03	1.440955E-03	3.137354E-05
4.260627E+03	1.444436E-03	3.137865E-05
4.270605E+03	1.449547E-03	3.141851E-05
4.280583E+03	1.456465E-03	3.149674E-05
4.290561E+03	1.465332E-03	3.161609E-05
4.300539E+03	1.476389E-03	3.178150E-05
4.310517E+03	1.489765E-03	3.199537E-05
4.320495E+03	1.505761E-03	3.226383E-05
4.330473E+03	1.524565E-03	3.259051E-05
4.340451E+03	1.546456E-03	3.298090E-05
4.350429E+03	1.571663E-03	3.343942E-05
4.360407E+03	1.600472E-03	3.397162E-05
4.370385E+03	1.633106E-03	3.458167E-05
4.380363E+03	1.669823E-03	3.527444E-05
4.390341E+03	1.710824E-03	3.605354E-05
4.400319E+03	1.756232E-03	3.692085E-05
4.410297E+03	1.806127E-03	3.787738E-05
4.420275E+03	1.860526E-03	3.892278E-05
4.430253E+03	1.919263E-03	4.005290E-05
4.440231E+03	1.982082E-03	4.126167E-05
4.450210E+03	2.048474E-03	4.253790E-05
4.460188E+03	2.117782E-03	4.386740E-05
4.470166E+03	2.189004E-03	4.522900E-05
4.480144E+03	2.261071E-03	4.660033E-05
4.490122E+03	2.332490E-03	4.795054E-05
4.500100E+03	2.401626E-03	4.924622E-05
4.510078E+03	2.466693E-03	5.045114E-05
4.520056E+03	2.525872E-03	5.152885E-05
4.530034E+03	2.577253E-03	5.244137E-05
4.540012E+03	2.619292E-03	5.315860E-05
4.549990E+03	2.650457E-03	5.365100E-05
4.559968E+03	2.669814E-03	5.390143E-05
4.569946E+03	2.676759E-03	5.389961E-05
4.579924E+03	2.671239E-03	5.364646E-05
4.589902E+03	2.653752E-03	5.315394E-05
4.599880E+03	2.625132E-03	5.244062E-05
4.609858E+03	2.586772E-03	5.153609E-05
4.619836E+03	2.540224E-03	5.047275E-05
4.629814E+03	2.487255E-03	4.928693E-05
4.639792E+03	2.429687E-03	4.801572E-05
4.649771E+03	2.369302E-03	4.669498E-05
4.659749E+03	2.307792E-03	4.535846E-05
4.669727E+03	2.246559E-03	4.403382E-05
4.679705E+03	2.186932E-03	4.274703E-05
4.689683E+03	2.129902E-03	4.151717E-05
4.699661E+03	2.076237E-03	4.035874E-05
4.709639E+03	2.026587E-03	3.928385E-05
4.719617E+03	1.981313E-03	3.829879E-05
4.729595E+03	1.940636E-03	3.740718E-05
4.739573E+03	1.904610E-03	3.660928E-05
4.749551E+03	1.873259E-03	3.590482E-05
4.759529E+03	1.846419E-03	3.528992E-05
4.769507E+03	1.823856E-03	3.475938E-05
4.779485E+03	1.805360E-03	3.430855E-05
4.789463E+03	1.790569E-03	3.392986E-05
4.799441E+03	1.779194E-03	3.361732E-05
4.809419E+03	1.770823E-03	3.336255E-05
4.819397E+03	1.765106E-03	3.315855E-05
4.829375E+03	1.761671E-03	3.299789E-05
4.839353E+03	1.760144E-03	3.287323E-05
4.849331E+03	1.760163E-03	3.277752E-05
4.859310E+03	1.761380E-03	3.270408E-05
4.869288E+03	1.763447E-03	3.264624E-05
4.879266E+03	1.766097E-03	3.259896E-05
4.889244E+03	1.769075E-03	3.255745E-05
4.899222E+03	1.772168E-03	3.251778E-05
4.909200E+03	1.775220E-03	3.247707E-05
4.919178E+03	1.778105E-03	3.243304E-05
4.929156E+03	1.780847E-03	3.238616E-05
4.939134E+03	1.783404E-03	3.233572E-05
4.949112E+03	1.785975E-03	3.228533E-05
4.959090E+03	1.788699E-03	3.223754E-05
4.969068E+03	1.791900E-03	3.219810E-05
4.979046E+03	1.795839E-03	3.217167E-05
4.989024E+03	1.800997E-03	3.216672E-05
4.999002E+03	1.807774E-03	3.219017E-05
5.008980E+03	1.816677E-03	3.225079E-05
5.018958E+03	1.828197E-03	3.235694E-05
5.028936E+03	1.842782E-03	3.251610E-05
5.038914E+03	1.860892E-03	3.273591E-05
5.048892E+03	1.882864E-03	3.302170E-05
5.058870E+03	1.908995E-03	3.337807E-05
5.068849E+03	1.939430E-03	3.380691E-05
5.078827E+03	1.974142E-03	3.430710E-05
5.088805E+03	2.012993E-03	3.487558E-05
5.098783E+03	2.055630E-03	3.550563E-05
5.108761E+03	2.101478E-03	3.618676E-05
5.118739E+03	2.149824E-03	3.690630E-05
5.128717E+03	2.199713E-03	3.764750E-05
5.138695E+03	2.250091E-03	3.839221E-05
5.148673E+03	2.299762E-03	3.912003E-05
5.158651E+03	2.347438E-03	3.980930E-05
5.168629E+03	2.391914E-03	4.043997E-05
5.178607E+03	2.432006E-03	4.099263E-05
5.188585E+03	2.466760E-03	4.145197E-05
5.198563E+03	2.495378E-03	4.180549E-05
5.208541E+03	2.517400E-03	4.204649E-05
5.218519E+03	2.532574E-03	4.217178E-05
5.228497E+03	2.540989E-03	4.218395E-05
5.238475E+03	2.542900E-03	4.208824E-05
5.248453E+03	2.538813E-03	4.189402E-05
5.258431E+03	2.529291E-03	4.161144E-05
5.268409E+03	2.515032E-03	4.125279E-05
5.278388E+03	2.496710E-03	4.082980E-05
5.288366E+03	2.474943E-03	4.035314E-05
5.298344E+03	2.450328E-03	3.983304E-05
5.308322E+03	2.423431E-03	3.927906E-05
5.318300E+03	2.394674E-03	3.869835E-05
5.328278E+03	2.364475E-03	3.809793E-05
5.338256E+03	2.333114E-03	3.748248E-05
5.348234E+03	2.300881E-03	3.685679E-05
5.358212E+03	2.267936E-03	3.622354E-05
5.368190E+03	2.234459E-03	3.558567E-05
5.378168E+03	2.200515E-03	3.494428E-05
5.388146E+03	2.166189E-03	3.430075E-05
5.398124E+03	2.131465E-03	3.365486E-05
5.408102E+03	2.096348E-03	3.300674E-05
5.418080E+03	2.060757E-03	3.235512E-05
5.428058E+03	2.024642E-03	3.169929E-05
5.438036E+03	1.987886E-03	3.103743E-05
5.448014E+03	1.950394E-03	3.036815E-05
5.457992E+03	1.912116E-03	2.969071E-05
5.467970E+03	1.872970E-03	2.900390E-05
5.477949E+03	1.832968E-03	2.830802E-05
5.487927E+03	1.792150E-03	2.760371E-05
5.497905E+03	1.750561E-03	2.689173E-05
5.507883E+03	1.708424E-03	2.617550E-05
5.517861E+03	1.665863E-03	2.545693E-05
5.527839E+03	1.623156E-03	2.474024E-05
5.537817E+03	1.580559E-03	2.402928E-05
5.547795E+03	1.538321E-03	2.332774E-05
5.557773E+03	1.496742E-03	2.264005E-05
5.567751E+03	1.456078E-03	2.196995E-05
5.577729E+03	1.416596E-03	2.132129E-05
5.587707E+03	1.378572E-03	2.069804E-05
5.597685E+03	1.342241E-03	2.010347E-05
5.607663E+03	1.307802E-03	1.954036E-05
5.617641E+03	1.275451E-03	1.901135E-05
5.627619E+03	1.245379E-03	1.851902E-05
5.637597E+03	1.217721E-03	1.806509E-05
5.647575E+03	1.192623E-03	1.765143E-05
5.657553E+03	1.170195E-03	1.727935E-05
5.667531E+03	1.150513E-03	1.694970E-05
5.677509E+03	1.133650E-03	1.666321E-05
5.687488E+03	1.119676E-03	1.642062E-05
5.697466E+03	1.108616E-03	1.622198E-05
5.707444E+03	1.100506E-03	1.606752E-05
5.717422E+03	1.095353E-03	1.595701E-05
5.727400E+03	1.093111E-03	1.588953E-05
5.737378E+03	1.093792E-03	1.586495E-05
5.747356E+03	1.097312E-03	1.588176E-05
5.757334E+03	1.103592E-03	1.593856E-05
5.767312E+03	1.112537E-03	1.603374E-05
5.777290E+03	1.124012E-03	1.616510E-05
5.787268E+03	1.137827E-03	1.632970E-05
5.797246E+03	1.153789E-03	1.652456E-05
5.807224E+03	1.171638E-03	1.674580E-05
5.817202E+03	1.191105E-03	1.698942E-05
5.827180E+03	1.211875E-03	1.725082E-05
5.837158E+03	1.233588E-03	1.752476E-05
5.847136E+03	1.255877E-03	1.780599E-05
5.857114E+03	1.278385E-03	1.808943E-05
5.867092E+03	1.300748E-03	1.836992E-05
5.877070E+03	1.322600E-03	1.864234E-05
5.887048E+03	1.343657E-03	1.890274E-05
5.897027E+03	1.363675E-03	1.914778E-05
5.907005E+03	1.382469E-03	1.937496E-05
5.916983E+03	1.399988E-03	1.958368E-05
5.926961E+03	1.416264E-03	1.977448E-05
5.936939E+03	1.431426E-03	1.994929E-05
5.946917E+03	1.445755E-03	2.011210E-05
5.956895E+03	1.459606E-03	2.026790E-05
5.966873E+03	1.473479E-03	2.042369E-05
5.976851E+03	1.487948E-03	2.058741E-05
5.986829E+03	1.503653E-03	2.076786E-05
5.996807E+03	1.521369E-03	2.097564E-05
6.006785E+03	1.541833E-03	2.122076E-05
6.016763E+03	1.565957E-03	2.151558E-05
6.026741E+03	1.594608E-03	2.187172E-05
6.036719E+03	1.628762E-03	2.230226E-05
6.046697E+03	1.669425E-03	2.282060E-05
6.056675E+03	1.717657E-03	2.344076E-05
6.066653E+03	1.774544E-03	2.417709E-05
6.076631E+03	1.841274E-03	2.504517E-05
6.086609E+03	1.919065E-03	2.606095E-05
6.096588E+03	2.009153E-03	2.724050E-05
6.106566E+03	2.112875E-03	2.860119E-05
6.116544E+03	2.231464E-03	3.015887E-05
6.126522E+03	2.366186E-03	3.192976E-05
6.136500E+03	2.518137E-03	3.392772E-05
6.146478E+03	2.688319E-03	3.616524E-05
6.156456E+03	2.877291E-03	3.864886E-05
6.166434E+03	3.085279E-03	4.138057E-05
6.176412E+03	3.311879E-03	4.435399E-05
6.186390E+03	3.555931E-03	4.755267E-05
6.196368E+03	3.815354E-03	5.094800E-05
6.206346E+03	4.087007E-03	5.449737E-05
6.216324E+03	4.366531E-03	5.814227E-05
6.226302E+03	4.648560E-03	6.181112E-05
6.236280E+03	4.926391E-03	6.541501E-05
6.246258E+03	5.192583E-03	6.885573E-05
6.256236E+03	5.439109E-03	7.202781E-05
6.266214E+03	5.657550E-03	7.482118E-05
6.276192E+03	5.840042E-03	7.713364E-05
6.286170E+03	5.979550E-03	7.887443E-05
6.296148E+03	6.070489E-03	7.997228E-05
6.306127E+03	6.109180E-03	8.038133E-05
6.316105E+03	6.094171E-03	8.008513E-05
6.326083E+03	6.026286E-03	7.909711E-05
6.336061E+03	5.908869E-03	7.746360E-05
6.346039E+03	5.747014E-03	7.525353E-05
6.356017E+03	5.547458E-03	7.255693E-05
6.365995E+03	5.317959E-03	6.947673E-05
6.375973E+03	5.066724E-03	6.612117E-05
6.385951E+03	4.801871E-03	6.259680E-05
6.395929E+03	4.530958E-03	5.900240E-05
6.405907E+03	4.260637E-03	5.542452E-05
6.415885E+03	3.996482E-03	5.193534E-05
6.425863E+03	3.742667E-03	4.858858E-05
6.435841E+03	3.502317E-03	4.542412E-05
6.445819E+03	3.277415E-03	4.246693E-05
6.455797E+03	3.068831E-03	3.972753E-05
6.465775E+03	2.876828E-03	3.720847E-05
6.475753E+03	2.700942E-03	3.490299E-05
6.485731E+03	2.540353E-03	3.279975E-05
6.495709E+03	2.394020E-03	3.088463E-05
6.505687E+03	2.260867E-03	2.914318E-05
6.515666E+03	2.139782E-03	2.756051E-05
6.525644E+03	2.029635E-03	2.612158E-05
6.535622E+03	1.929031E-03	2.480804E-05
6.545600E+03	1.836831E-03	2.360487E-05
6.555578E+03	1.752089E-03	2.249960E-05
6.565556E+03	1.674013E-03	2.148179E-05
6.575534E+03	1.601866E-03	2.054174E-05
6.585512E+03	1.535010E-03	1.967104E-05
6.595490E+03	1.472870E-03	1.886217E-05
6.605468E+03	1.414951E-03	1.810859E-05
6.615446E+03	1.360754E-03	1.740380E-05
6.625424E+03	1.309926E-03	1.674314E-05
6.635402E+03	1.262059E-03	1.612130E-05
6.645380E+03	1.216890E-03	1.553480E-05
6.655358E+03	1.174155E-03	1.498019E-05
6.665336E+03	1.133666E-03	1.445500E-05
6.675314E+03	1.095296E-03	1.395751E-05
6.685292E+03	1.058921E-03	1.348610E-05
6.695270E+03	1.024531E-03	1.304058E-05
6.705248E+03	9.920619E-04	1.262005E-05
6.715227E+03	9.615441E-04	1.222486E-05
6.725205E+03	9.329989E-04	1.185522E-05
6.735183E+03	9.064404E-04	1.151125E-05
6.745161E+03	8.819044E-04	1.119336E-05
6.755139E+03	8.594242E-04	1.090192E-05
6.765117E+03	8.390415E-04	1.063739E-05
6.775095E+03	8.207799E-04	1.040004E-05
6.785073E+03	8.046340E-04	1.018973E-05
6.795051E+03	7.906491E-04	1.000700E-05
6.805029E+03	7.787967E-04	9.851431E-06
6.815007E+03	7.690986E-04	9.723244E-06
6.824985E+03	7.615497E-04	9.622327E-06
6.834963E+03	7.561304E-04	9.548382E-06
6.844941E+03	7.528284E-04	9.501203E-06
6.854919E+03	7.516383E-04	9.480673E-06
6.864897E+03	7.525414E-04	9.486503E-06
6.874875E+03	7.555047E-04	9.518229E-06
6.884853E+03	7.605031E-04	9.575481E-06
6.894831E+03	7.675194E-04	9.657995E-06
6.904809E+03	7.765135E-04	9.765213E-06
6.914787E+03	7.874663E-04	9.896845E-06
6.924766E+03	8.003491E-04	1.005248E-05
6.934744E+03	8.151239E-04	1.023158E-05
6.944722E+03	8.317683E-04	1.043383E-05
6.954700E+03	8.502890E-04	1.065924E-05
6.964678E+03	8.706406E-04	1.090720E-05
6.974656E+03	8.928462E-04	1.117793E-05
6.984634E+03	9.169160E-04	1.147153E-05
6.994612E+03	9.428742E-04	1.178821E-05
7.004590E+03	9.707479E-04	1.212828E-05
7.014568E+03	1.000596E-03	1.249240E-05
7.024546E+03	1.032524E-03	1.288180E-05
7.034524E+03	1.066648E-03	1.329790E-05
7.044502E+03	1.103127E-03	1.374258E-05
7.054480E+03	1.142139E-03	1.421798E-05
7.064458E+03	1.183918E-03	1.472693E-05
7.074436E+03	1.228769E-03	1.527313E-05
7.084414E+03	1.276958E-03	1.585977E-05
7.094392E+03	1.328794E-03	1.649057E-05
7.104370E+03	1.384603E-03	1.716945E-05
7.114348E+03	1.444656E-03	1.789963E-05
7.124326E+03	1.509160E-03	1.868352E-05
7.134305E+03	1.578192E-03	1.952192E-05
7.144283E+03	1.651723E-03	2.041430E-05
7.154261E+03	1.729490E-03	2.135725E-05
7.164239E+03	1.811068E-03	2.234538E-05
7.174217E+03	1.895667E-03	2.336879E-05
7.184195E+03	1.982258E-03	2.441469E-05
7.194173E+03	2.069554E-03	2.546715E-05
7.204151E+03	2.155973E-03	2.650669E-05
7.214129E+03	2.239714E-03	2.751117E-05
7.224107E+03	2.318823E-03	2.845671E-05
7.234085E+03	2.391256E-03	2.931838E-05
7.244063E+03	2.455088E-03	3.007281E-05
7.254041E+03	2.508476E-03	3.069774E-05
7.264019E+03	2.549949E-03	3.117557E-05
7.273997E+03	2.578224E-03	3.149102E-05
7.283975E+03	2.592527E-03	3.163512E-05
7.293953E+03	2.592428E-03	3.160315E-05
7.303931E+03	2.577997E-03	3.139649E-05
7.313909E+03	2.549705E-03	3.102138E-05
7.323887E+03	2.508227E-03	3.048657E-05
7.333865E+03	2.454775E-03	2.980727E-05
7.343844E+03	2.390627E-03	2.899944E-05
7.353822E+03	2.317362E-03	2.808262E-05
7.363800E+03	2.236651E-03	2.707740E-05
7.373778E+03	2.150237E-03	2.600514E-05
7.383756E+03	2.059870E-03	2.488724E-05
7.393734E+03	1.967229E-03	2.374410E-05
7.403712E+03	1.873957E-03	2.259564E-05
7.413690E+03	1.781531E-03	2.145969E-05
7.423668E+03	1.691231E-03	2.035162E-05
7.433646E+03	1.604223E-03	1.928537E-05
7.443624E+03	1.521366E-03	1.827116E-05
7.453602E+03	1.443390E-03	1.731760E-05
7.463580E+03	1.370807E-03	1.643064E-05
7.473558E+03	1.303948E-03	1.561406E-05
7.483536E+03	1.242974E-03	1.486957E-05
7.493514E+03	1.187959E-03	1.419786E-05
7.503492E+03	1.138854E-03	1.359813E-05
7.513470E+03	1.095538E-03	1.306872E-05
7.523448E+03	1.057835E-03	1.260734E-05
7.533426E+03	1.025537E-03	1.221134E-05
7.543405E+03	9.984031E-04	1.187765E-05
7.553383E+03	9.762172E-04	1.160356E-05
7.563361E+03	9.587640E-04	1.138634E-05
7.573339E+03	9.457759E-04	1.122268E-05
7.583317E+03	9.370823E-04	1.111044E-05
7.593295E+03	9.324644E-04	1.104690E-05
7.603273E+03	9.317054E-04	1.102939E-05
7.613251E+03	9.346338E-04	1.105579E-05
7.623229E+03	9.410131E-04	1.112323E-05
7.633207E+03	9.506325E-04	1.122915E-05
7.643185E+03	9.632475E-04	1.137061E-05
7.653163E+03	9.785803E-04	1.154430E-05
7.663141E+03	9.963018E-04	1.174631E-05
7.673119E+03	1.016093E-03	1.197287E-05
7.683097E+03	1.037534E-03	1.221904E-05
7.693075E+03	1.060225E-03	1.248013E-05
7.703053E+03	1.083729E-03	1.275101E-05
7.713031E+03	1.107603E-03	1.302654E-05
7.723009E+03	1.131418E-03	1.330171E-05
7.732987E+03	1.154775E-03	1.357189E-05
7.742965E+03	1.177298E-03	1.383274E-05
