#wls	flux	fluxerr
1.596488E+03	3.613092E-05	7.026842E-07
1.636400E+03	3.539953E-05	6.880210E-07
1.676312E+03	3.471490E-05	6.742720E-07
1.716224E+03	3.407678E-05	6.614313E-07
1.756136E+03	3.348946E-05	6.495807E-07
1.796049E+03	3.295489E-05	6.387561E-07
1.835961E+03	3.247300E-05	6.289543E-07
1.875873E+03	3.204595E-05	6.202153E-07
1.915785E+03	3.167794E-05	6.126177E-07
1.955697E+03	3.137119E-05	6.062024E-07
1.995610E+03	3.112616E-05	6.009754E-07
2.035522E+03	3.094743E-05	5.970220E-07
2.075434E+03	3.083598E-05	5.943577E-07
2.115346E+03	3.079499E-05	5.930406E-07
2.155258E+03	3.082991E-05	5.931716E-07
2.195171E+03	3.094473E-05	5.948227E-07
2.235083E+03	3.114212E-05	5.980406E-07
2.274995E+03	3.142724E-05	6.029193E-07
2.314907E+03	3.180596E-05	6.095652E-07
2.354819E+03	3.228684E-05	6.181363E-07
2.394732E+03	3.287571E-05	6.287362E-07
2.434644E+03	3.358325E-05	6.415618E-07
2.474556E+03	3.441766E-05	6.567601E-07
2.514468E+03	3.539043E-05	6.745404E-07
2.554380E+03	3.651471E-05	6.951417E-07
2.594293E+03	3.780765E-05	7.188776E-07
2.634205E+03	3.928433E-05	7.460203E-07
2.674117E+03	4.096425E-05	7.769231E-07
2.714029E+03	4.286940E-05	8.119847E-07
2.753941E+03	4.502711E-05	8.517008E-07
2.793854E+03	4.746039E-05	8.964825E-07
2.833766E+03	5.020536E-05	9.469841E-07
2.873678E+03	5.329387E-05	1.003775E-06
2.913590E+03	5.676351E-05	1.067526E-06
2.953502E+03	6.065161E-05	1.138901E-06
2.993414E+03	6.500758E-05	1.218779E-06
3.003393E+03	6.617707E-05	1.240210E-06
3.013371E+03	6.737566E-05	1.262165E-06
3.023349E+03	6.860751E-05	1.284723E-06
3.033327E+03	6.987333E-05	1.307895E-06
3.043305E+03	7.117384E-05	1.331693E-06
3.053283E+03	7.251355E-05	1.356201E-06
3.063261E+03	7.388561E-05	1.381291E-06
3.073239E+03	7.529446E-05	1.407043E-06
3.083217E+03	7.674079E-05	1.433470E-06
3.093195E+03	7.822526E-05	1.460584E-06
3.103173E+03	7.975271E-05	1.488472E-06
3.113151E+03	8.131551E-05	1.516992E-06
3.123129E+03	8.291837E-05	1.546231E-06
3.133107E+03	8.456190E-05	1.576198E-06
3.143085E+03	8.624665E-05	1.606902E-06
3.153063E+03	8.797772E-05	1.638438E-06
3.163041E+03	8.974658E-05	1.670646E-06
3.173019E+03	9.155818E-05	1.703615E-06
3.182997E+03	9.341289E-05	1.737352E-06
3.192975E+03	9.531122E-05	1.771865E-06
3.202954E+03	9.725335E-05	1.807156E-06
3.212932E+03	9.923965E-05	1.843230E-06
3.222910E+03	1.012755E-04	1.880186E-06
3.232888E+03	1.033507E-04	1.917832E-06
3.242866E+03	1.054706E-04	1.956268E-06
3.252844E+03	1.076349E-04	1.995486E-06
3.262822E+03	1.098439E-04	2.035489E-06
3.272800E+03	1.120973E-04	2.076272E-06
3.282778E+03	1.143948E-04	2.117826E-06
3.292756E+03	1.167362E-04	2.160147E-06
3.302734E+03	1.191210E-04	2.203224E-06
3.312712E+03	1.215488E-04	2.247047E-06
3.322690E+03	1.240189E-04	2.291604E-06
3.332668E+03	1.265306E-04	2.336878E-06
3.342646E+03	1.290832E-04	2.382856E-06
3.352624E+03	1.316756E-04	2.429516E-06
3.362602E+03	1.343068E-04	2.476839E-06
3.372580E+03	1.369759E-04	2.524804E-06
3.382558E+03	1.396815E-04	2.573386E-06
3.392536E+03	1.424222E-04	2.622558E-06
3.402514E+03	1.451892E-04	2.672157E-06
3.412493E+03	1.479957E-04	2.722423E-06
3.422471E+03	1.508327E-04	2.773189E-06
3.432449E+03	1.536986E-04	2.824426E-06
3.442427E+03	1.565915E-04	2.876097E-06
3.452405E+03	1.595097E-04	2.928168E-06
3.462383E+03	1.624432E-04	2.980457E-06
3.472361E+03	1.654061E-04	3.033221E-06
3.482339E+03	1.683887E-04	3.086280E-06
3.492317E+03	1.713890E-04	3.139597E-06
3.502295E+03	1.743967E-04	3.192982E-06
3.512273E+03	1.774272E-04	3.246715E-06
3.522251E+03	1.804704E-04	3.300613E-06
3.532229E+03	1.835159E-04	3.354483E-06
3.542207E+03	1.865804E-04	3.408631E-06
3.552185E+03	1.896450E-04	3.462708E-06
3.562163E+03	1.927274E-04	3.517040E-06
3.572141E+03	1.958089E-04	3.571281E-06
3.582119E+03	1.989087E-04	3.625785E-06
3.592097E+03	2.020084E-04	3.680212E-06
3.602075E+03	2.051289E-04	3.734944E-06
3.612053E+03	2.082526E-04	3.789660E-06
3.622032E+03	2.114024E-04	3.844774E-06
3.632010E+03	2.145616E-04	3.899983E-06
3.641988E+03	2.177450E-04	3.955554E-06
3.651966E+03	2.209685E-04	4.011774E-06
3.661944E+03	2.242175E-04	4.068377E-06
3.671922E+03	2.275098E-04	4.125686E-06
3.681900E+03	2.308540E-04	4.183852E-06
3.691878E+03	2.342707E-04	4.243247E-06
3.701856E+03	2.377476E-04	4.303646E-06
3.711834E+03	2.413081E-04	4.365470E-06
3.721812E+03	2.449674E-04	4.428989E-06
3.731790E+03	2.487467E-04	4.494583E-06
3.741768E+03	2.526736E-04	4.562748E-06
3.751746E+03	2.567881E-04	4.634198E-06
3.761724E+03	2.611477E-04	4.709962E-06
3.771702E+03	2.658242E-04	4.791329E-06
3.781680E+03	2.709017E-04	4.879798E-06
3.791658E+03	2.764762E-04	4.977086E-06
3.801636E+03	2.826527E-04	5.085064E-06
3.811614E+03	2.895235E-04	5.205371E-06
3.821592E+03	2.972181E-04	5.340304E-06
3.831571E+03	3.058214E-04	5.491364E-06
3.841549E+03	3.154263E-04	5.660180E-06
3.851527E+03	3.260969E-04	5.847869E-06
3.861505E+03	3.379304E-04	6.056135E-06
3.871483E+03	3.509590E-04	6.285508E-06
3.881461E+03	3.651776E-04	6.535854E-06
3.891439E+03	3.805952E-04	6.807291E-06
3.901417E+03	3.971032E-04	7.097833E-06
3.911395E+03	4.145947E-04	7.405527E-06
3.921373E+03	4.328189E-04	7.725861E-06
3.931351E+03	4.515151E-04	8.054153E-06
3.941329E+03	4.703549E-04	8.384529E-06
3.951307E+03	4.888890E-04	8.708980E-06
3.961285E+03	5.067173E-04	9.020387E-06
3.971263E+03	5.234435E-04	9.311727E-06
3.981241E+03	5.387082E-04	9.576647E-06
3.991219E+03	5.522122E-04	9.809885E-06
4.001197E+03	5.637784E-04	1.000836E-05
4.011175E+03	5.732394E-04	1.016917E-05
4.021153E+03	5.805831E-04	1.029218E-05
4.031132E+03	5.858269E-04	1.037778E-05
4.041110E+03	5.891375E-04	1.042899E-05
4.051088E+03	5.906565E-04	1.044840E-05
4.061066E+03	5.906034E-04	1.043994E-05
4.071044E+03	5.892355E-04	1.040823E-05
4.081022E+03	5.868111E-04	1.035788E-05
4.091000E+03	5.836934E-04	1.029534E-05
4.100978E+03	5.801730E-04	1.022574E-05
4.110956E+03	5.765356E-04	1.015414E-05
4.120934E+03	5.731304E-04	1.008670E-05
4.130912E+03	5.701788E-04	1.002729E-05
4.140890E+03	5.679418E-04	9.980492E-06
4.150868E+03	5.666250E-04	9.949878E-06
4.160846E+03	5.663072E-04	9.936801E-06
4.170824E+03	5.670837E-04	9.942889E-06
4.180802E+03	5.689434E-04	9.967906E-06
4.190780E+03	5.718459E-04	1.001110E-05
4.200758E+03	5.756420E-04	1.006982E-05
4.210736E+03	5.802338E-04	1.014231E-05
4.220714E+03	5.854771E-04	1.022604E-05
4.230692E+03	5.912129E-04	1.031818E-05
4.240671E+03	5.972396E-04	1.041521E-05
4.250649E+03	6.034268E-04	1.051485E-05
4.260627E+03	6.095681E-04	1.061349E-05
4.270605E+03	6.155005E-04	1.070829E-05
4.280583E+03	6.210655E-04	1.079651E-05
4.290561E+03	6.262680E-04	1.087825E-05
4.300539E+03	6.311236E-04	1.095379E-05
4.310517E+03	6.358554E-04	1.102702E-05
4.320495E+03	6.406428E-04	1.110105E-05
4.330473E+03	6.458512E-04	1.118221E-05
4.340451E+03	6.517873E-04	1.127577E-05
4.350429E+03	6.588953E-04	1.138940E-05
4.360407E+03	6.676546E-04	1.153131E-05
4.370385E+03	6.786378E-04	1.171131E-05
4.380363E+03	6.924058E-04	1.193899E-05
4.390341E+03	7.097155E-04	1.222726E-05
4.400319E+03	7.313949E-04	1.259022E-05
4.410297E+03	7.583105E-04	1.304257E-05
4.420275E+03	7.914838E-04	1.360165E-05
4.430253E+03	8.319061E-04	1.428420E-05
4.440231E+03	8.806118E-04	1.510764E-05
4.450210E+03	9.384926E-04	1.608689E-05
4.460188E+03	1.006414E-03	1.723636E-05
4.470166E+03	1.084700E-03	1.856115E-05
4.480144E+03	1.173109E-03	2.005664E-05
4.490122E+03	1.270320E-03	2.169983E-05
4.500100E+03	1.374145E-03	2.345297E-05
4.510078E+03	1.481167E-03	2.525746E-05
4.520056E+03	1.586537E-03	2.703056E-05
4.530034E+03	1.684693E-03	2.867763E-05
4.540012E+03	1.769637E-03	3.009698E-05
4.549990E+03	1.835550E-03	3.119031E-05
4.559968E+03	1.877747E-03	3.187895E-05
4.569946E+03	1.893585E-03	3.211913E-05
4.579924E+03	1.882827E-03	3.190804E-05
4.589902E+03	1.846932E-03	3.127159E-05
4.599880E+03	1.789201E-03	3.026677E-05
4.609858E+03	1.714033E-03	2.896895E-05
4.619836E+03	1.626663E-03	2.746732E-05
4.629814E+03	1.532198E-03	2.584865E-05
4.639792E+03	1.435568E-03	2.419632E-05
4.649771E+03	1.340779E-03	2.257792E-05
4.659749E+03	1.250890E-03	2.104485E-05
4.669727E+03	1.167879E-03	1.963013E-05
4.679705E+03	1.093048E-03	1.835533E-05
4.689683E+03	1.026897E-03	1.722843E-05
4.699661E+03	9.694442E-04	1.624937E-05
4.709639E+03	9.203541E-04	1.541211E-05
4.719617E+03	8.791535E-04	1.470836E-05
4.729595E+03	8.451361E-04	1.412594E-05
4.739573E+03	8.175553E-04	1.365205E-05
4.749551E+03	7.957217E-04	1.327488E-05
4.759529E+03	7.788155E-04	1.298050E-05
4.769507E+03	7.662143E-04	1.275832E-05
4.779485E+03	7.572244E-04	1.259659E-05
4.789463E+03	7.513073E-04	1.248619E-05
4.799441E+03	7.479504E-04	1.241846E-05
4.809419E+03	7.467008E-04	1.238578E-05
4.819397E+03	7.471436E-04	1.238116E-05
4.829375E+03	7.488805E-04	1.239794E-05
4.839353E+03	7.515235E-04	1.242962E-05
4.849331E+03	7.546949E-04	1.246993E-05
4.859310E+03	7.580071E-04	1.251245E-05
4.869288E+03	7.612086E-04	1.255302E-05
4.879266E+03	7.639613E-04	1.258607E-05
4.889244E+03	7.661219E-04	1.260927E-05
4.899222E+03	7.675060E-04	1.261961E-05
4.909200E+03	7.680842E-04	1.261666E-05
4.919178E+03	7.678323E-04	1.260005E-05
4.929156E+03	7.666077E-04	1.256749E-05
4.939134E+03	7.643638E-04	1.251826E-05
4.949112E+03	7.610207E-04	1.245111E-05
4.959090E+03	7.566512E-04	1.236728E-05
4.969068E+03	7.513041E-04	1.226762E-05
4.979046E+03	7.451921E-04	1.215564E-05
4.989024E+03	7.386779E-04	1.203730E-05
4.999002E+03	7.323492E-04	1.192219E-05
5.008980E+03	7.267757E-04	1.181955E-05
5.018958E+03	7.227413E-04	1.174209E-05
5.028936E+03	7.210991E-04	1.170359E-05
5.038914E+03	7.226353E-04	1.171666E-05
5.048892E+03	7.282448E-04	1.179566E-05
5.058870E+03	7.387885E-04	1.195431E-05
5.068849E+03	7.550170E-04	1.220449E-05
5.078827E+03	7.774310E-04	1.255403E-05
5.088805E+03	8.064477E-04	1.300933E-05
5.098783E+03	8.421382E-04	1.357124E-05
5.108761E+03	8.841370E-04	1.423352E-05
5.118739E+03	9.317772E-04	1.498514E-05
5.128717E+03	9.838936E-04	1.580711E-05
5.138695E+03	1.039053E-03	1.667622E-05
5.148673E+03	1.095441E-03	1.756320E-05
5.158651E+03	1.150776E-03	1.843147E-05
5.168629E+03	1.202695E-03	1.924326E-05
5.178607E+03	1.248663E-03	1.995824E-05
5.188585E+03	1.286546E-03	2.054262E-05
5.198563E+03	1.314681E-03	2.097029E-05
5.208541E+03	1.332166E-03	2.122734E-05
5.218519E+03	1.338885E-03	2.131245E-05
5.228497E+03	1.335881E-03	2.124275E-05
5.238475E+03	1.324648E-03	2.104245E-05
5.248453E+03	1.307082E-03	2.074202E-05
5.258431E+03	1.285001E-03	2.037063E-05
5.268409E+03	1.260076E-03	1.995494E-05
5.278388E+03	1.233666E-03	1.951658E-05
5.288366E+03	1.206702E-03	1.907035E-05
5.298344E+03	1.179788E-03	1.862582E-05
5.308322E+03	1.153280E-03	1.818860E-05
5.318300E+03	1.127250E-03	1.775979E-05
5.328278E+03	1.101774E-03	1.734058E-05
5.338256E+03	1.076734E-03	1.692907E-05
5.348234E+03	1.052192E-03	1.652621E-05
5.358212E+03	1.028232E-03	1.613332E-05
5.368190E+03	1.004839E-03	1.575011E-05
5.378168E+03	9.821547E-04	1.537878E-05
5.388146E+03	9.602855E-04	1.502096E-05
5.398124E+03	9.392879E-04	1.467750E-05
5.408102E+03	9.193134E-04	1.435071E-05
5.418080E+03	9.003531E-04	1.404041E-05
5.428058E+03	8.822979E-04	1.374484E-05
5.438036E+03	8.649868E-04	1.346146E-05
5.448014E+03	8.479831E-04	1.318345E-05
5.457992E+03	8.307487E-04	1.290242E-05
5.467970E+03	8.124574E-04	1.260558E-05
5.477949E+03	7.923465E-04	1.228114E-05
5.487927E+03	7.700383E-04	1.192335E-05
5.497905E+03	7.455900E-04	1.153318E-05
5.507883E+03	7.193661E-04	1.111637E-05
5.517861E+03	6.918397E-04	1.068030E-05
5.527839E+03	6.634131E-04	1.023124E-05
5.537817E+03	6.345236E-04	9.775943E-06
5.547795E+03	6.054639E-04	9.318947E-06
5.557773E+03	5.765512E-04	8.865129E-06
5.567751E+03	5.480361E-04	8.418328E-06
5.577729E+03	5.201430E-04	7.981964E-06
5.587707E+03	4.930698E-04	7.559040E-06
5.597685E+03	4.669945E-04	7.152241E-06
5.607663E+03	4.420946E-04	6.764235E-06
5.617641E+03	4.185384E-04	6.397534E-06
5.627619E+03	3.965322E-04	6.055229E-06
5.637597E+03	3.761931E-04	5.739030E-06
5.647575E+03	3.576841E-04	5.451348E-06
5.657553E+03	3.410821E-04	5.193266E-06
5.667531E+03	3.264812E-04	4.966130E-06
5.677509E+03	3.139416E-04	4.770764E-06
5.687488E+03	3.035079E-04	4.607752E-06
5.697466E+03	2.952103E-04	4.477458E-06
5.707444E+03	2.890582E-04	4.379930E-06
5.717422E+03	2.850969E-04	4.315758E-06
5.727400E+03	2.833277E-04	4.284866E-06
5.737378E+03	2.837993E-04	4.287893E-06
5.747356E+03	2.865275E-04	4.324983E-06
5.757334E+03	2.915797E-04	4.397054E-06
5.767312E+03	2.990231E-04	4.505016E-06
5.777290E+03	3.089320E-04	4.649891E-06
5.787268E+03	3.213605E-04	4.832384E-06
5.797246E+03	3.363024E-04	5.052297E-06
5.807224E+03	3.536855E-04	5.308444E-06
5.817202E+03	3.733393E-04	5.598163E-06
5.827180E+03	3.950135E-04	5.917616E-06
5.837158E+03	4.182583E-04	6.259985E-06
5.847136E+03	4.425177E-04	6.616895E-06
5.857114E+03	4.670503E-04	6.977232E-06
5.867092E+03	4.909483E-04	7.327438E-06
5.877070E+03	5.131636E-04	7.651916E-06
5.887048E+03	5.325580E-04	7.933782E-06
5.897027E+03	5.480021E-04	8.156345E-06
5.907005E+03	5.585447E-04	8.305627E-06
5.916983E+03	5.636880E-04	8.374434E-06
5.926961E+03	5.632361E-04	8.360080E-06
5.936939E+03	5.574591E-04	8.266799E-06
5.946917E+03	5.469139E-04	8.103058E-06
5.956895E+03	5.324962E-04	7.882305E-06
5.966873E+03	5.152576E-04	7.620246E-06
5.976851E+03	4.963674E-04	7.334271E-06
5.986829E+03	4.769798E-04	7.041481E-06
5.996807E+03	4.582344E-04	6.758701E-06
6.006785E+03	4.411030E-04	6.500224E-06
6.016763E+03	4.265095E-04	6.279588E-06
6.026741E+03	4.151720E-04	6.107254E-06
6.036719E+03	4.077521E-04	5.992814E-06
6.046697E+03	4.048543E-04	5.944994E-06
6.056675E+03	4.069971E-04	5.971227E-06
6.066653E+03	4.147068E-04	6.079030E-06
6.076631E+03	4.286171E-04	6.277475E-06
6.086609E+03	4.494656E-04	6.577121E-06
6.096588E+03	4.781736E-04	6.991176E-06
6.106566E+03	5.159869E-04	7.537550E-06
6.116544E+03	5.644532E-04	8.238494E-06
6.126522E+03	6.256791E-04	9.124342E-06
6.136500E+03	7.022268E-04	1.023196E-05
6.146478E+03	7.972710E-04	1.160702E-05
6.156456E+03	9.144358E-04	1.330157E-05
6.166434E+03	1.057689E-03	1.537251E-05
6.176412E+03	1.231153E-03	1.787874E-05
6.186390E+03	1.438154E-03	2.086751E-05
6.196368E+03	1.680669E-03	2.436630E-05
6.206346E+03	1.959006E-03	2.837836E-05
6.216324E+03	2.270757E-03	3.286759E-05
6.226302E+03	2.610665E-03	3.775690E-05
6.236280E+03	2.970442E-03	4.292557E-05
6.246258E+03	3.339633E-03	4.822204E-05
6.256236E+03	3.705847E-03	5.346730E-05
6.266214E+03	4.054660E-03	5.845360E-05
6.276192E+03	4.369856E-03	6.294805E-05
6.286170E+03	4.635261E-03	6.671903E-05
6.296148E+03	4.835281E-03	6.954404E-05
6.306127E+03	4.958140E-03	7.125609E-05
6.316105E+03	4.995747E-03	7.174159E-05
6.326083E+03	4.946168E-03	7.097561E-05
6.336061E+03	4.813402E-03	6.901836E-05
6.346039E+03	4.606774E-03	6.600610E-05
6.356017E+03	4.339501E-03	6.213039E-05
6.365995E+03	4.027984E-03	5.762777E-05
6.375973E+03	3.688995E-03	5.273932E-05
6.385951E+03	3.338934E-03	4.770012E-05
6.395929E+03	2.993020E-03	4.272766E-05
6.405907E+03	2.663659E-03	3.799870E-05
6.415885E+03	2.359713E-03	3.363898E-05
6.425863E+03	2.087294E-03	2.973471E-05
6.435841E+03	1.849260E-03	2.632555E-05
6.445819E+03	1.645361E-03	2.340684E-05
6.455797E+03	1.473240E-03	2.094405E-05
6.465775E+03	1.329277E-03	1.888474E-05
6.475753E+03	1.209399E-03	1.717026E-05
6.485731E+03	1.109411E-03	1.574037E-05
6.495709E+03	1.025144E-03	1.453534E-05
6.505687E+03	9.528113E-04	1.350107E-05
6.515666E+03	8.889671E-04	1.258842E-05
6.525644E+03	8.315257E-04	1.176761E-05
6.535622E+03	7.797086E-04	1.102744E-05
6.545600E+03	7.330360E-04	1.036098E-05
6.555578E+03	6.909914E-04	9.760769E-06
6.565556E+03	6.531195E-04	9.220249E-06
6.575534E+03	6.187793E-04	8.730262E-06
6.585512E+03	5.874023E-04	8.282691E-06
6.595490E+03	5.584622E-04	7.870034E-06
6.605468E+03	5.314140E-04	7.484547E-06
6.615446E+03	5.058503E-04	7.120442E-06
6.625424E+03	4.814247E-04	6.772801E-06
6.635402E+03	4.579613E-04	6.439119E-06
6.645380E+03	4.353183E-04	6.117371E-06
6.655358E+03	4.134540E-04	5.806947E-06
6.665336E+03	3.924765E-04	5.509340E-06
6.675314E+03	3.724801E-04	5.225849E-06
6.685292E+03	3.536249E-04	4.958688E-06
6.695270E+03	3.360767E-04	4.710155E-06
6.705248E+03	3.199375E-04	4.481639E-06
6.715227E+03	3.052850E-04	4.274199E-06
6.725205E+03	2.920947E-04	4.087453E-06
6.735183E+03	2.803243E-04	3.920777E-06
6.745161E+03	2.698537E-04	3.772456E-06
6.755139E+03	2.605221E-04	3.640215E-06
6.765117E+03	2.521877E-04	3.522050E-06
6.775095E+03	2.446897E-04	3.415691E-06
6.785073E+03	2.379328E-04	3.319791E-06
6.795051E+03	2.318455E-04	3.233335E-06
6.805029E+03	2.263990E-04	3.155909E-06
6.815007E+03	2.216182E-04	3.087845E-06
6.824985E+03	2.175595E-04	3.029915E-06
6.834963E+03	2.142834E-04	2.982944E-06
6.844941E+03	2.118843E-04	2.948234E-06
6.854919E+03	2.104273E-04	2.926671E-06
6.864897E+03	2.100069E-04	2.919551E-06
6.874875E+03	2.106766E-04	2.927598E-06
6.884853E+03	2.125079E-04	2.951788E-06
6.894831E+03	2.155463E-04	2.992730E-06
6.904809E+03	2.198054E-04	3.050594E-06
6.914787E+03	2.252829E-04	3.125326E-06
6.924766E+03	2.319815E-04	3.216944E-06
6.934744E+03	2.399095E-04	3.325545E-06
6.944722E+03	2.491172E-04	3.451805E-06
6.954700E+03	2.596317E-04	3.596082E-06
6.964678E+03	2.715352E-04	3.759493E-06
6.974656E+03	2.848742E-04	3.942663E-06
6.984634E+03	2.997059E-04	4.146361E-06
6.994612E+03	3.160311E-04	4.370580E-06
7.004590E+03	3.338034E-04	4.614658E-06
7.014568E+03	3.529319E-04	4.877320E-06
7.024546E+03	3.732765E-04	5.156614E-06
7.034524E+03	3.946315E-04	5.449686E-06
7.044502E+03	4.167968E-04	5.753762E-06
7.054480E+03	4.394916E-04	6.064960E-06
7.064458E+03	4.625272E-04	6.380675E-06
7.074436E+03	4.858141E-04	6.699672E-06
7.084414E+03	5.096469E-04	7.026015E-06
7.094392E+03	5.346212E-04	7.367908E-06
7.104370E+03	5.616364E-04	7.737735E-06
7.114348E+03	5.919512E-04	8.152808E-06
7.124326E+03	6.271300E-04	8.634632E-06
7.134305E+03	6.688366E-04	9.206052E-06
7.144283E+03	7.187718E-04	9.890399E-06
7.154261E+03	7.784802E-04	1.070883E-05
7.164239E+03	8.493432E-04	1.168024E-05
7.174217E+03	9.318811E-04	1.281166E-05
7.184195E+03	1.025834E-03	1.409940E-05
7.194173E+03	1.129928E-03	1.552584E-05
7.204151E+03	1.241617E-03	1.705593E-05
7.214129E+03	1.357013E-03	1.863621E-05
7.224107E+03	1.471292E-03	2.020044E-05
7.234085E+03	1.579299E-03	2.167789E-05
7.244063E+03	1.676194E-03	2.300226E-05
7.254041E+03	1.757703E-03	2.411503E-05
7.264019E+03	1.821494E-03	2.498438E-05
7.273997E+03	1.866527E-03	2.559625E-05
7.283975E+03	1.892980E-03	2.595326E-05
7.293953E+03	1.901588E-03	2.606567E-05
7.303931E+03	1.893475E-03	2.594906E-05
7.313909E+03	1.869746E-03	2.561869E-05
7.323887E+03	1.831161E-03	2.508510E-05
7.333865E+03	1.778352E-03	2.435707E-05
7.343844E+03	1.711992E-03	2.344392E-05
7.353822E+03	1.633121E-03	2.235995E-05
7.363800E+03	1.542862E-03	2.112062E-05
7.373778E+03	1.443142E-03	1.975236E-05
7.383756E+03	1.336218E-03	1.828608E-05
7.393734E+03	1.224966E-03	1.676115E-05
7.403712E+03	1.112625E-03	1.522189E-05
7.413690E+03	1.002693E-03	1.371611E-05
7.423668E+03	8.983021E-04	1.228661E-05
7.433646E+03	8.018260E-04	1.096579E-05
7.443624E+03	7.148355E-04	9.775064E-06
7.453602E+03	6.380601E-04	8.724335E-06
7.463580E+03	5.715141E-04	7.813734E-06
7.473558E+03	5.144964E-04	7.033616E-06
7.483536E+03	4.661331E-04	6.371983E-06
7.493514E+03	4.254347E-04	5.815269E-06
7.503492E+03	3.915208E-04	5.351406E-06
7.513470E+03	3.635826E-04	4.969311E-06
7.523448E+03	3.409114E-04	4.659280E-06
7.533426E+03	3.228901E-04	4.412862E-06
7.543405E+03	3.089911E-04	4.222834E-06
7.553383E+03	2.987487E-04	4.082827E-06
7.563361E+03	2.917194E-04	3.986771E-06
7.573339E+03	2.875515E-04	3.929861E-06
7.583317E+03	2.859367E-04	3.907882E-06
7.593295E+03	2.867091E-04	3.918570E-06
7.603273E+03	2.897349E-04	3.960100E-06
7.613251E+03	2.949791E-04	4.032000E-06
7.623229E+03	3.024570E-04	4.134488E-06
7.633207E+03	3.122161E-04	4.268222E-06
7.643185E+03	3.242748E-04	4.433469E-06
7.653163E+03	3.385642E-04	4.629299E-06
7.663141E+03	3.549246E-04	4.853546E-06
7.673119E+03	3.731019E-04	5.102752E-06
7.683097E+03	3.927054E-04	5.371595E-06
7.693075E+03	4.132722E-04	5.653758E-06
7.703053E+03	4.341946E-04	5.940947E-06
7.713031E+03	4.548903E-04	6.225206E-06
7.723009E+03	4.746797E-04	6.497243E-06
7.732987E+03	4.929507E-04	6.748685E-06
7.742965E+03	5.091482E-04	6.971926E-06
