#wls	flux	fluxerr
1.595708E+03	9.207106E-17	1.914733E-18
1.635600E+03	1.019641E-16	2.114936E-18
1.675493E+03	1.113277E-16	2.303055E-18
1.715386E+03	1.197777E-16	2.471242E-18
1.755278E+03	1.268464E-16	2.610016E-18
1.795171E+03	1.317695E-16	2.703919E-18
1.835064E+03	1.336606E-16	2.735169E-18
1.874956E+03	1.316564E-16	2.686669E-18
1.914849E+03	1.251859E-16	2.547467E-18
1.954742E+03	1.143824E-16	2.321046E-18
1.994634E+03	1.004968E-16	2.033479E-18
2.034527E+03	8.595770E-17	1.734310E-18
2.074420E+03	7.375594E-17	1.483838E-18
2.114312E+03	6.644155E-17	1.332817E-18
2.154205E+03	6.557375E-17	1.311585E-18
2.194098E+03	7.194218E-17	1.434765E-18
2.233991E+03	8.592580E-17	1.708626E-18
2.273883E+03	1.074483E-16	2.130321E-18
2.313776E+03	1.357435E-16	2.683384E-18
2.353669E+03	1.693554E-16	3.337929E-18
2.393561E+03	2.065039E-16	4.058041E-18
2.433454E+03	2.454980E-16	4.809970E-18
2.473347E+03	2.849983E-16	5.567228E-18
2.513239E+03	3.240886E-16	6.311884E-18
2.553132E+03	3.621900E-16	7.032770E-18
2.593025E+03	3.987931E-16	7.720201E-18
2.632917E+03	4.334955E-16	8.366679E-18
2.672810E+03	4.660237E-16	8.967263E-18
2.712703E+03	4.962637E-16	9.520117E-18
2.752596E+03	5.242282E-16	1.002585E-17
2.792488E+03	5.499846E-16	1.048610E-17
2.832381E+03	5.736370E-16	1.090319E-17
2.872274E+03	5.953150E-16	1.127991E-17
2.912166E+03	6.151643E-16	1.161930E-17
2.952059E+03	6.333426E-16	1.192461E-17
2.991952E+03	6.500143E-16	1.219919E-17
3.001925E+03	6.539666E-16	1.226342E-17
3.011898E+03	6.578373E-16	1.232599E-17
3.021871E+03	6.616304E-16	1.238697E-17
3.031844E+03	6.653963E-16	1.244729E-17
3.041818E+03	6.692612E-16	1.250934E-17
3.051791E+03	6.734044E-16	1.257644E-17
3.061764E+03	6.777826E-16	1.264777E-17
3.071737E+03	6.823492E-16	1.272246E-17
3.081710E+03	6.870696E-16	1.279985E-17
3.091683E+03	6.919111E-16	1.287933E-17
3.101657E+03	6.968380E-16	1.296022E-17
3.111630E+03	7.018261E-16	1.304206E-17
3.121603E+03	7.068477E-16	1.312435E-17
3.131576E+03	7.118813E-16	1.320667E-17
3.141549E+03	7.169052E-16	1.328864E-17
3.151522E+03	7.219039E-16	1.336994E-17
3.161496E+03	7.268601E-16	1.345028E-17
3.171469E+03	7.317595E-16	1.352938E-17
3.181442E+03	7.365913E-16	1.360705E-17
3.191415E+03	7.413441E-16	1.368308E-17
3.201388E+03	7.460089E-16	1.375730E-17
3.211361E+03	7.505811E-16	1.382964E-17
3.221335E+03	7.550535E-16	1.389996E-17
3.231308E+03	7.594215E-16	1.396819E-17
3.241281E+03	7.636817E-16	1.403426E-17
3.251254E+03	7.678351E-16	1.409820E-17
3.261227E+03	7.718793E-16	1.415997E-17
3.271200E+03	7.758112E-16	1.421952E-17
3.281174E+03	7.796374E-16	1.427697E-17
3.291147E+03	7.833531E-16	1.433224E-17
3.301120E+03	7.869654E-16	1.438546E-17
3.311093E+03	7.904737E-16	1.443663E-17
3.321066E+03	7.938798E-16	1.448578E-17
3.331040E+03	7.971879E-16	1.453300E-17
3.341013E+03	8.004011E-16	1.457834E-17
3.350986E+03	8.035197E-16	1.462182E-17
3.360959E+03	8.065448E-16	1.466345E-17
3.370932E+03	8.094737E-16	1.470320E-17
3.380905E+03	8.123078E-16	1.474110E-17
3.390879E+03	8.150380E-16	1.477697E-17
3.400852E+03	8.176606E-16	1.481076E-17
3.410825E+03	8.201707E-16	1.484239E-17
3.420798E+03	8.225570E-16	1.487166E-17
3.430771E+03	8.248157E-16	1.489850E-17
3.440744E+03	8.269322E-16	1.492266E-17
3.450718E+03	8.289021E-16	1.494406E-17
3.460691E+03	8.307102E-16	1.496244E-17
3.470664E+03	8.323464E-16	1.497762E-17
3.480637E+03	8.338101E-16	1.498960E-17
3.490610E+03	8.351085E-16	1.499851E-17
3.500583E+03	8.362451E-16	1.500442E-17
3.510557E+03	8.372273E-16	1.500748E-17
3.520530E+03	8.380696E-16	1.500795E-17
3.530503E+03	8.387793E-16	1.500596E-17
3.540476E+03	8.393757E-16	1.500187E-17
3.550449E+03	8.398726E-16	1.499592E-17
3.560422E+03	8.402946E-16	1.498856E-17
3.570396E+03	8.406628E-16	1.498017E-17
3.580369E+03	8.410117E-16	1.497136E-17
3.590342E+03	8.413625E-16	1.496251E-17
3.600315E+03	8.417450E-16	1.495415E-17
3.610288E+03	8.421812E-16	1.494666E-17
3.620261E+03	8.426909E-16	1.494039E-17
3.630235E+03	8.432966E-16	1.493573E-17
3.640208E+03	8.440181E-16	1.493303E-17
3.650181E+03	8.448692E-16	1.493252E-17
3.660154E+03	8.458724E-16	1.493459E-17
3.670127E+03	8.470391E-16	1.493944E-17
3.680101E+03	8.483776E-16	1.494719E-17
3.690074E+03	8.498962E-16	1.495798E-17
3.700047E+03	8.516038E-16	1.497196E-17
3.710020E+03	8.534911E-16	1.498894E-17
3.719993E+03	8.555628E-16	1.500901E-17
3.729966E+03	8.578017E-16	1.503184E-17
3.739940E+03	8.601947E-16	1.505720E-17
3.749913E+03	8.627214E-16	1.508472E-17
3.759886E+03	8.653580E-16	1.511397E-17
3.769859E+03	8.680671E-16	1.514429E-17
3.779832E+03	8.708255E-16	1.517527E-17
3.789805E+03	8.735969E-16	1.520627E-17
3.799779E+03	8.763594E-16	1.523691E-17
3.809752E+03	8.790871E-16	1.526674E-17
3.819725E+03	8.817754E-16	1.529568E-17
3.829698E+03	8.844275E-16	1.532378E-17
3.839671E+03	8.870484E-16	1.535113E-17
3.849644E+03	8.896717E-16	1.537831E-17
3.859618E+03	8.923227E-16	1.540575E-17
3.869591E+03	8.950433E-16	1.543418E-17
3.879564E+03	8.978658E-16	1.546414E-17
3.889537E+03	9.008349E-16	1.549640E-17
3.899510E+03	9.039798E-16	1.553143E-17
3.909483E+03	9.073264E-16	1.556969E-17
3.919457E+03	9.108910E-16	1.561141E-17
3.929430E+03	9.146907E-16	1.565690E-17
3.939403E+03	9.187239E-16	1.570609E-17
3.949376E+03	9.229993E-16	1.575912E-17
3.959349E+03	9.275072E-16	1.581581E-17
3.969323E+03	9.322397E-16	1.587600E-17
3.979296E+03	9.371812E-16	1.593941E-17
3.989269E+03	9.423126E-16	1.600570E-17
3.999242E+03	9.475872E-16	1.607406E-17
4.009215E+03	9.529547E-16	1.614362E-17
4.019188E+03	9.583628E-16	1.621350E-17
4.029162E+03	9.637255E-16	1.628222E-17
4.039135E+03	9.689485E-16	1.634821E-17
4.049108E+03	9.739474E-16	1.641004E-17
4.059081E+03	9.786261E-16	1.646611E-17
4.069054E+03	9.829003E-16	1.651501E-17
4.079027E+03	9.866856E-16	1.655538E-17
4.089001E+03	9.899497E-16	1.658668E-17
4.098974E+03	9.926573E-16	1.660837E-17
4.108947E+03	9.948011E-16	1.662037E-17
4.118920E+03	9.964375E-16	1.662364E-17
4.128893E+03	9.976249E-16	1.661920E-17
4.138866E+03	9.984462E-16	1.660846E-17
4.148840E+03	9.990201E-16	1.659342E-17
4.158813E+03	9.994667E-16	1.657609E-17
4.168786E+03	9.999148E-16	1.655860E-17
4.178759E+03	1.000495E-15	1.654312E-17
4.188732E+03	1.001331E-15	1.653167E-17
4.198705E+03	1.002541E-15	1.652618E-17
4.208679E+03	1.004211E-15	1.652804E-17
4.218652E+03	1.006405E-15	1.653828E-17
4.228625E+03	1.009176E-15	1.655770E-17
4.238598E+03	1.012501E-15	1.658589E-17
4.248571E+03	1.016350E-15	1.662232E-17
4.258545E+03	1.020669E-15	1.666605E-17
4.268518E+03	1.025326E-15	1.671489E-17
4.278491E+03	1.030195E-15	1.676676E-17
4.288464E+03	1.035126E-15	1.681921E-17
4.298437E+03	1.039980E-15	1.686999E-17
4.308410E+03	1.044622E-15	1.691690E-17
4.318384E+03	1.048931E-15	1.695798E-17
4.328357E+03	1.052857E-15	1.699247E-17
4.338330E+03	1.056378E-15	1.702005E-17
4.348303E+03	1.059482E-15	1.704055E-17
4.358276E+03	1.062202E-15	1.705453E-17
4.368249E+03	1.064564E-15	1.706243E-17
4.378223E+03	1.066593E-15	1.706469E-17
4.388196E+03	1.068316E-15	1.706178E-17
4.398169E+03	1.069785E-15	1.705452E-17
4.408142E+03	1.071037E-15	1.704356E-17
4.418115E+03	1.072138E-15	1.702995E-17
4.428088E+03	1.073163E-15	1.701486E-17
4.438062E+03	1.074182E-15	1.699945E-17
4.448035E+03	1.075276E-15	1.698498E-17
4.458008E+03	1.076509E-15	1.697245E-17
4.467981E+03	1.077943E-15	1.696283E-17
4.477954E+03	1.079629E-15	1.695689E-17
4.487927E+03	1.081604E-15	1.695519E-17
4.497901E+03	1.083879E-15	1.695787E-17
4.507874E+03	1.086446E-15	1.696480E-17
4.517847E+03	1.089278E-15	1.697551E-17
4.527820E+03	1.092327E-15	1.698923E-17
4.537793E+03	1.095530E-15	1.700497E-17
4.547767E+03	1.098794E-15	1.702127E-17
4.557740E+03	1.102035E-15	1.703681E-17
4.567713E+03	1.105141E-15	1.704988E-17
4.577686E+03	1.108000E-15	1.705876E-17
4.587659E+03	1.110525E-15	1.706214E-17
4.597632E+03	1.112632E-15	1.705875E-17
4.607606E+03	1.114239E-15	1.704740E-17
4.617579E+03	1.115304E-15	1.702747E-17
4.627552E+03	1.115851E-15	1.699938E-17
4.637525E+03	1.115925E-15	1.696388E-17
4.647498E+03	1.115603E-15	1.692219E-17
4.657471E+03	1.115004E-15	1.687615E-17
4.667445E+03	1.114238E-15	1.682743E-17
4.677418E+03	1.113428E-15	1.677790E-17
4.687391E+03	1.112729E-15	1.672992E-17
4.697364E+03	1.112259E-15	1.668524E-17
4.707337E+03	1.112158E-15	1.664592E-17
4.717310E+03	1.112518E-15	1.661331E-17
4.727284E+03	1.113418E-15	1.658855E-17
4.737257E+03	1.114913E-15	1.657237E-17
4.747230E+03	1.116994E-15	1.656463E-17
4.757203E+03	1.119630E-15	1.656475E-17
4.767176E+03	1.122752E-15	1.657168E-17
4.777149E+03	1.126247E-15	1.658371E-17
4.787123E+03	1.129978E-15	1.659878E-17
4.797096E+03	1.133794E-15	1.661466E-17
4.807069E+03	1.137516E-15	1.662871E-17
4.817042E+03	1.140984E-15	1.663862E-17
4.827015E+03	1.144027E-15	1.664193E-17
4.836989E+03	1.146519E-15	1.663684E-17
4.846962E+03	1.148337E-15	1.662165E-17
4.856935E+03	1.149391E-15	1.659512E-17
4.866908E+03	1.149637E-15	1.655671E-17
4.876881E+03	1.149047E-15	1.650610E-17
4.886854E+03	1.147613E-15	1.644327E-17
4.896828E+03	1.145377E-15	1.636892E-17
4.906801E+03	1.142373E-15	1.628364E-17
4.916774E+03	1.138678E-15	1.618858E-17
4.926747E+03	1.134348E-15	1.608464E-17
4.936720E+03	1.129478E-15	1.597323E-17
4.946693E+03	1.124157E-15	1.585569E-17
4.956667E+03	1.118453E-15	1.573300E-17
4.966640E+03	1.112452E-15	1.560642E-17
4.976613E+03	1.106237E-15	1.547717E-17
4.986586E+03	1.099884E-15	1.534633E-17
4.996559E+03	1.093455E-15	1.521477E-17
5.006532E+03	1.087018E-15	1.508346E-17
5.016506E+03	1.080620E-15	1.495307E-17
5.026479E+03	1.074317E-15	1.482433E-17
5.036452E+03	1.068164E-15	1.469804E-17
5.046425E+03	1.062173E-15	1.457432E-17
5.056398E+03	1.056396E-15	1.445388E-17
5.066371E+03	1.050843E-15	1.433682E-17
5.076345E+03	1.045538E-15	1.422348E-17
5.086318E+03	1.040485E-15	1.411386E-17
5.096291E+03	1.035679E-15	1.400787E-17
5.106264E+03	1.031124E-15	1.390554E-17
5.116237E+03	1.026799E-15	1.380657E-17
5.126210E+03	1.022690E-15	1.371075E-17
5.136184E+03	1.018764E-15	1.361761E-17
5.146157E+03	1.014997E-15	1.352681E-17
5.156130E+03	1.011372E-15	1.343812E-17
5.166103E+03	1.007836E-15	1.335082E-17
5.176076E+03	1.004382E-15	1.326481E-17
5.186050E+03	1.000980E-15	1.317969E-17
5.196023E+03	9.976096E-16	1.309519E-17
5.205996E+03	9.942473E-16	1.301101E-17
5.215969E+03	9.908805E-16	1.292697E-17
5.225942E+03	9.874999E-16	1.284298E-17
5.235915E+03	9.841003E-16	1.275895E-17
5.245889E+03	9.806694E-16	1.267476E-17
5.255862E+03	9.772143E-16	1.259048E-17
5.265835E+03	9.737169E-16	1.250590E-17
5.275808E+03	9.701917E-16	1.242121E-17
5.285781E+03	9.666552E-16	1.233664E-17
5.295754E+03	9.631002E-16	1.225209E-17
5.305728E+03	9.595506E-16	1.216788E-17
5.315701E+03	9.560109E-16	1.208406E-17
5.325674E+03	9.525157E-16	1.200108E-17
5.335647E+03	9.490814E-16	1.191914E-17
5.345620E+03	9.457130E-16	1.183830E-17
5.355593E+03	9.424426E-16	1.175896E-17
5.365567E+03	9.392933E-16	1.168140E-17
5.375540E+03	9.362648E-16	1.160560E-17
5.385513E+03	9.333658E-16	1.153167E-17
5.395486E+03	9.305968E-16	1.145959E-17
5.405459E+03	9.279208E-16	1.138890E-17
5.415432E+03	9.252557E-16	1.131859E-17
5.425406E+03	9.225835E-16	1.124845E-17
5.435379E+03	9.199718E-16	1.117930E-17
5.445352E+03	9.174498E-16	1.111148E-17
5.455325E+03	9.150359E-16	1.104521E-17
5.465298E+03	9.127497E-16	1.098071E-17
5.475272E+03	9.105828E-16	1.091787E-17
5.485245E+03	9.085600E-16	1.085698E-17
5.495218E+03	9.066966E-16	1.079819E-17
5.505191E+03	9.050125E-16	1.074174E-17
5.515164E+03	9.035529E-16	1.068813E-17
5.525137E+03	9.023217E-16	1.063738E-17
5.535111E+03	9.013189E-16	1.058948E-17
5.545084E+03	9.005669E-16	1.054466E-17
5.555057E+03	9.000487E-16	1.050270E-17
5.565030E+03	8.997322E-16	1.046319E-17
5.575003E+03	8.996026E-16	1.042594E-17
5.584976E+03	8.996369E-16	1.039068E-17
5.594950E+03	8.997927E-16	1.035689E-17
5.604923E+03	9.000504E-16	1.032434E-17
5.614896E+03	9.003925E-16	1.029282E-17
5.624869E+03	9.008167E-16	1.026231E-17
5.634842E+03	9.013188E-16	1.023275E-17
5.644815E+03	9.019134E-16	1.020429E-17
5.654789E+03	9.026229E-16	1.017719E-17
5.664762E+03	9.034955E-16	1.015198E-17
5.674735E+03	9.045606E-16	1.012897E-17
5.684708E+03	9.058622E-16	1.010864E-17
5.694681E+03	9.074559E-16	1.009159E-17
5.704654E+03	9.093854E-16	1.007827E-17
5.714628E+03	9.117033E-16	1.006923E-17
5.724601E+03	9.144319E-16	1.006468E-17
5.734574E+03	9.175877E-16	1.006476E-17
5.744547E+03	9.211734E-16	1.006946E-17
5.754520E+03	9.251518E-16	1.007834E-17
5.764494E+03	9.294581E-16	1.009065E-17
5.774467E+03	9.340303E-16	1.010569E-17
5.784440E+03	9.387587E-16	1.012227E-17
5.794413E+03	9.435336E-16	1.013920E-17
5.804386E+03	9.482121E-16	1.015496E-17
5.814359E+03	9.526817E-16	1.016836E-17
5.824333E+03	9.567837E-16	1.017774E-17
5.834306E+03	9.604097E-16	1.018202E-17
5.844279E+03	9.634422E-16	1.018001E-17
5.854252E+03	9.657911E-16	1.017084E-17
5.864225E+03	9.673885E-16	1.015387E-17
5.874198E+03	9.681895E-16	1.012873E-17
5.884172E+03	9.681790E-16	1.009536E-17
5.894145E+03	9.673889E-16	1.005417E-17
5.904118E+03	9.658161E-16	1.000522E-17
5.914091E+03	9.635050E-16	9.949063E-18
5.924064E+03	9.605094E-16	9.886329E-18
5.934037E+03	9.568519E-16	9.817329E-18
5.944011E+03	9.526177E-16	9.743002E-18
5.953984E+03	9.478346E-16	9.663696E-18
5.963957E+03	9.425753E-16	9.580208E-18
5.973930E+03	9.368882E-16	9.493080E-18
5.983903E+03	9.308656E-16	9.403285E-18
5.993876E+03	9.245659E-16	9.311449E-18
6.003850E+03	9.180647E-16	9.218359E-18
6.013823E+03	9.114016E-16	9.124434E-18
6.023796E+03	9.046757E-16	9.030678E-18
6.033769E+03	8.979078E-16	8.937308E-18
6.043742E+03	8.911530E-16	8.844875E-18
6.053716E+03	8.844482E-16	8.753746E-18
6.063689E+03	8.778158E-16	8.664140E-18
6.073662E+03	8.712739E-16	8.576229E-18
6.083635E+03	8.648505E-16	8.490285E-18
6.093608E+03	8.585498E-16	8.406340E-18
6.103581E+03	8.523634E-16	8.324304E-18
6.113555E+03	8.462955E-16	8.244212E-18
6.123528E+03	8.403314E-16	8.165912E-18
6.133501E+03	8.344709E-16	8.089398E-18
6.143474E+03	8.286911E-16	8.014442E-18
6.153447E+03	8.229891E-16	7.941012E-18
6.163420E+03	8.173540E-16	7.868998E-18
6.173394E+03	8.117917E-16	7.798454E-18
6.183367E+03	8.062931E-16	7.729289E-18
6.193340E+03	8.008675E-16	7.661591E-18
6.203313E+03	7.955197E-16	7.595399E-18
6.213286E+03	7.902642E-16	7.530848E-18
6.223259E+03	7.851213E-16	7.468127E-18
6.233233E+03	7.801051E-16	7.407365E-18
6.243206E+03	7.752536E-16	7.348915E-18
6.253179E+03	7.705855E-16	7.292948E-18
6.263152E+03	7.661481E-16	7.239902E-18
6.273125E+03	7.619596E-16	7.189938E-18
6.283098E+03	7.580956E-16	7.143762E-18
6.293072E+03	7.546095E-16	7.101864E-18
6.303045E+03	7.516214E-16	7.065362E-18
6.313018E+03	7.492648E-16	7.035495E-18
6.322991E+03	7.476771E-16	7.013538E-18
6.332964E+03	7.470316E-16	7.001099E-18
6.342937E+03	7.474846E-16	6.999626E-18
6.352911E+03	7.492099E-16	7.010732E-18
6.362884E+03	7.523437E-16	7.035680E-18
6.372857E+03	7.570082E-16	7.075603E-18
6.382830E+03	7.632879E-16	7.131296E-18
6.392803E+03	7.712461E-16	7.203345E-18
6.402777E+03	7.808498E-16	7.291445E-18
6.412750E+03	7.920566E-16	7.395206E-18
6.422723E+03	8.047123E-16	7.513206E-18
6.432696E+03	8.185896E-16	7.643348E-18
6.442669E+03	8.334188E-16	7.783141E-18
6.452642E+03	8.488820E-16	7.929651E-18
6.462616E+03	8.646466E-16	8.079804E-18
6.472589E+03	8.804133E-16	8.230837E-18
6.482562E+03	8.959726E-16	8.380817E-18
6.492535E+03	9.112499E-16	8.529072E-18
6.502508E+03	9.262016E-16	8.675214E-18
6.512481E+03	9.409063E-16	8.819999E-18
6.522455E+03	9.551824E-16	8.961740E-18
6.532428E+03	9.684430E-16	9.094935E-18
6.542401E+03	9.801167E-16	9.214203E-18
6.552374E+03	9.897024E-16	9.314795E-18
6.562347E+03	9.968186E-16	9.393058E-18
6.572320E+03	1.001251E-15	9.446892E-18
6.582294E+03	1.002893E-15	9.475181E-18
6.592267E+03	1.001777E-15	9.478121E-18
6.602240E+03	9.980562E-16	9.457040E-18
6.612213E+03	9.919358E-16	9.413747E-18
6.622186E+03	9.837192E-16	9.350999E-18
6.632159E+03	9.737020E-16	9.271482E-18
6.642133E+03	9.622205E-16	9.178285E-18
6.652106E+03	9.496166E-16	9.074569E-18
6.662079E+03	9.362249E-16	8.963443E-18
6.672052E+03	9.223271E-16	8.847530E-18
6.682025E+03	9.081988E-16	8.729415E-18
6.691999E+03	8.940908E-16	8.611465E-18
6.701972E+03	8.801899E-16	8.495448E-18
6.711945E+03	8.666703E-16	8.383028E-18
6.721918E+03	8.536695E-16	8.275532E-18
6.731891E+03	8.412989E-16	8.174042E-18
6.741864E+03	8.296449E-16	8.079413E-18
6.751838E+03	8.187685E-16	7.992261E-18
6.761811E+03	8.087275E-16	7.913180E-18
6.771784E+03	7.995149E-16	7.842136E-18
6.781757E+03	7.911551E-16	7.779407E-18
6.791730E+03	7.836286E-16	7.724842E-18
6.801703E+03	7.769546E-16	7.678675E-18
6.811677E+03	7.710838E-16	7.640467E-18
6.821650E+03	7.660082E-16	7.610182E-18
6.831623E+03	7.616852E-16	7.587446E-18
6.841596E+03	7.581037E-16	7.572193E-18
6.851569E+03	7.552196E-16	7.564033E-18
6.861542E+03	7.530171E-16	7.562852E-18
6.871516E+03	7.514488E-16	7.568221E-18
6.881489E+03	7.504960E-16	7.579995E-18
6.891462E+03	7.500907E-16	7.597532E-18
6.901435E+03	7.502249E-16	7.620790E-18
6.911408E+03	7.508398E-16	7.649211E-18
6.921381E+03	7.518895E-16	7.682365E-18
6.931355E+03	7.533406E-16	7.719943E-18
6.941328E+03	7.551081E-16	7.761103E-18
6.951301E+03	7.571521E-16	7.805459E-18
6.961274E+03	7.594171E-16	7.852461E-18
6.971247E+03	7.618296E-16	7.901361E-18
6.981221E+03	7.643661E-16	7.951929E-18
6.991194E+03	7.669433E-16	8.003303E-18
7.001167E+03	7.695135E-16	8.054985E-18
7.011140E+03	7.720492E-16	8.106684E-18
7.021113E+03	7.745162E-16	8.158032E-18
7.031086E+03	7.768670E-16	8.208521E-18
7.041060E+03	7.790922E-16	8.258035E-18
7.051033E+03	7.811548E-16	8.306168E-18
7.061006E+03	7.830385E-16	8.352725E-18
7.070979E+03	7.847290E-16	8.397534E-18
7.080952E+03	7.862179E-16	8.440482E-18
7.090925E+03	7.875159E-16	8.481662E-18
7.100899E+03	7.885999E-16	8.520801E-18
7.110872E+03	7.894492E-16	8.557650E-18
7.120845E+03	7.900984E-16	8.592560E-18
7.130818E+03	7.905081E-16	8.625075E-18
7.140791E+03	7.906988E-16	8.655394E-18
7.150764E+03	7.906716E-16	8.683501E-18
7.160738E+03	7.904266E-16	8.709371E-18
7.170711E+03	7.899525E-16	8.732856E-18
7.180684E+03	7.892740E-16	8.754199E-18
7.190657E+03	7.883966E-16	8.773438E-18
7.200630E+03	7.873163E-16	8.790505E-18
7.210603E+03	7.860663E-16	8.805744E-18
7.220577E+03	7.846213E-16	8.818854E-18
7.230550E+03	7.830559E-16	8.830646E-18
7.240523E+03	7.813490E-16	8.840871E-18
7.250496E+03	7.795139E-16	8.849659E-18
7.260469E+03	7.775687E-16	8.857198E-18
7.270443E+03	7.755280E-16	8.863644E-18
7.280416E+03	7.734228E-16	8.869337E-18
7.290389E+03	7.712538E-16	8.874274E-18
7.300362E+03	7.690184E-16	8.878419E-18
7.310335E+03	7.667672E-16	8.882346E-18
7.320308E+03	7.644962E-16	8.886007E-18
7.330282E+03	7.622165E-16	8.889526E-18
7.340255E+03	7.599355E-16	8.892987E-18
7.350228E+03	7.576565E-16	8.896426E-18
7.360201E+03	7.553612E-16	8.899629E-18
7.370174E+03	7.530838E-16	8.902995E-18
7.380147E+03	7.508000E-16	8.906237E-18
7.390121E+03	7.484833E-16	8.909037E-18
7.400094E+03	7.461636E-16	8.911748E-18
7.410067E+03	7.438201E-16	8.914119E-18
7.420040E+03	7.414347E-16	8.915927E-18
7.430013E+03	7.390489E-16	8.917668E-18
7.439986E+03	7.366701E-16	8.919430E-18
7.449960E+03	7.342741E-16	8.920919E-18
7.459933E+03	7.319333E-16	8.923011E-18
7.469906E+03	7.295974E-16	8.925092E-18
7.479879E+03	7.273132E-16	8.927730E-18
7.489852E+03	7.250543E-16	8.930603E-18
7.499825E+03	7.228765E-16	8.934395E-18
7.509799E+03	7.207297E-16	8.938493E-18
7.519772E+03	7.186672E-16	8.943558E-18
7.529745E+03	7.166903E-16	8.949611E-18
7.539718E+03	7.148220E-16	8.956947E-18
7.549691E+03	7.130879E-16	8.965897E-18
7.559665E+03	7.115326E-16	8.977035E-18
7.569638E+03	7.101614E-16	8.990450E-18
7.579611E+03	7.089964E-16	9.006439E-18
7.589584E+03	7.080745E-16	9.025496E-18
7.599557E+03	7.073903E-16	9.047581E-18
7.609530E+03	7.069549E-16	9.072860E-18
7.619504E+03	7.067758E-16	9.101462E-18
7.629477E+03	7.068766E-16	9.133722E-18
7.639450E+03	7.072409E-16	9.169457E-18
7.649423E+03	7.078869E-16	9.208938E-18
7.659396E+03	7.087738E-16	9.251664E-18
7.669369E+03	7.099345E-16	9.298097E-18
7.679343E+03	7.113558E-16	9.348096E-18
7.689316E+03	7.129807E-16	9.400939E-18
7.699289E+03	7.148291E-16	9.456915E-18
7.709262E+03	7.168706E-16	9.515645E-18
7.719235E+03	7.190322E-16	9.576182E-18
7.729208E+03	7.213211E-16	9.638634E-18
7.739182E+03	7.236779E-16	9.702219E-18
