#wls	flux	fluxerr
1.595708E+03	6.049440E-17	2.311764E-18
1.635600E+03	6.632741E-17	2.513140E-18
1.675493E+03	7.169608E-17	2.692909E-18
1.715386E+03	7.637065E-17	2.842895E-18
1.755278E+03	8.007965E-17	2.953713E-18
1.795171E+03	8.237886E-17	3.010063E-18
1.835064E+03	8.276804E-17	2.995272E-18
1.874956E+03	8.078007E-17	2.894611E-18
1.914849E+03	7.614297E-17	2.701002E-18
1.954742E+03	6.901332E-17	2.422883E-18
1.994634E+03	6.020377E-17	2.091324E-18
2.034527E+03	5.119231E-17	1.759109E-18
2.074420E+03	4.374366E-17	1.486568E-18
2.114312E+03	3.932216E-17	1.321229E-18
2.154205E+03	3.880770E-17	1.288899E-18
2.194098E+03	4.266769E-17	1.400386E-18
2.233991E+03	5.119491E-17	1.660005E-18
2.273883E+03	6.447553E-17	2.064886E-18
2.313776E+03	8.220443E-17	2.599549E-18
2.353669E+03	1.036579E-16	3.235855E-18
2.393561E+03	1.278875E-16	3.939852E-18
2.433454E+03	1.539519E-16	4.679325E-18
2.473347E+03	1.810693E-16	5.428378E-18
2.513239E+03	2.086608E-16	6.168426E-18
2.553132E+03	2.363178E-16	6.886848E-18
2.593025E+03	2.637163E-16	7.574168E-18
2.632917E+03	2.904315E-16	8.218666E-18
2.672810E+03	3.161870E-16	8.813521E-18
2.712703E+03	3.409032E-16	9.357785E-18
2.752596E+03	3.645344E-16	9.851567E-18
2.792488E+03	3.870701E-16	1.029601E-17
2.832381E+03	4.085303E-16	1.069314E-17
2.872274E+03	4.289582E-16	1.104556E-17
2.912166E+03	4.484114E-16	1.135624E-17
2.952059E+03	4.669592E-16	1.162840E-17
2.991952E+03	4.846745E-16	1.186528E-17
3.001925E+03	4.889828E-16	1.191938E-17
3.011898E+03	4.932442E-16	1.197152E-17
3.021871E+03	4.974622E-16	1.202179E-17
3.031844E+03	5.016697E-16	1.207101E-17
3.041818E+03	5.059679E-16	1.212161E-17
3.051791E+03	5.104896E-16	1.217675E-17
3.061764E+03	5.152007E-16	1.223554E-17
3.071737E+03	5.200711E-16	1.229723E-17
3.081710E+03	5.250736E-16	1.236114E-17
3.091683E+03	5.301802E-16	1.242658E-17
3.101657E+03	5.353696E-16	1.249303E-17
3.111630E+03	5.406192E-16	1.255995E-17
3.121603E+03	5.459072E-16	1.262683E-17
3.131576E+03	5.512178E-16	1.269330E-17
3.141549E+03	5.565340E-16	1.275899E-17
3.151522E+03	5.618403E-16	1.282354E-17
3.161496E+03	5.671242E-16	1.288670E-17
3.171469E+03	5.723732E-16	1.294820E-17
3.181442E+03	5.775793E-16	1.300788E-17
3.191415E+03	5.827292E-16	1.306548E-17
3.201388E+03	5.878192E-16	1.312094E-17
3.211361E+03	5.928400E-16	1.317409E-17
3.221335E+03	5.977884E-16	1.322490E-17
3.231308E+03	6.026590E-16	1.327328E-17
3.241281E+03	6.074472E-16	1.331918E-17
3.251254E+03	6.121510E-16	1.336259E-17
3.261227E+03	6.167713E-16	1.340358E-17
3.271200E+03	6.213079E-16	1.344218E-17
3.281174E+03	6.257576E-16	1.347837E-17
3.291147E+03	6.301233E-16	1.351226E-17
3.301120E+03	6.344068E-16	1.354392E-17
3.311093E+03	6.386122E-16	1.357349E-17
3.321066E+03	6.427403E-16	1.360103E-17
3.331040E+03	6.467939E-16	1.362664E-17
3.341013E+03	6.507779E-16	1.365046E-17
3.350986E+03	6.546974E-16	1.367265E-17
3.360959E+03	6.585531E-16	1.369325E-17
3.370932E+03	6.623495E-16	1.371241E-17
3.380905E+03	6.660907E-16	1.373023E-17
3.390879E+03	6.697804E-16	1.374685E-17
3.400852E+03	6.734174E-16	1.376226E-17
3.410825E+03	6.770041E-16	1.377656E-17
3.420798E+03	6.805444E-16	1.378987E-17
3.430771E+03	6.840321E-16	1.380209E-17
3.440744E+03	6.874662E-16	1.381325E-17
3.450718E+03	6.908394E-16	1.382324E-17
3.460691E+03	6.941398E-16	1.383186E-17
3.470664E+03	6.973589E-16	1.383898E-17
3.480637E+03	7.004816E-16	1.384436E-17
3.490610E+03	7.034976E-16	1.384782E-17
3.500583E+03	7.063932E-16	1.384915E-17
3.510557E+03	7.091548E-16	1.384813E-17
3.520530E+03	7.117751E-16	1.384467E-17
3.530503E+03	7.142391E-16	1.383853E-17
3.540476E+03	7.165450E-16	1.382973E-17
3.550449E+03	7.186905E-16	1.381828E-17
3.560422E+03	7.206833E-16	1.380438E-17
3.570396E+03	7.225271E-16	1.378816E-17
3.580369E+03	7.242428E-16	1.377006E-17
3.590342E+03	7.258494E-16	1.375048E-17
3.600315E+03	7.273641E-16	1.372977E-17
3.610288E+03	7.288071E-16	1.370833E-17
3.620261E+03	7.302041E-16	1.368665E-17
3.630235E+03	7.315827E-16	1.366525E-17
3.640208E+03	7.329672E-16	1.364458E-17
3.650181E+03	7.343900E-16	1.362525E-17
3.660154E+03	7.358746E-16	1.360767E-17
3.670127E+03	7.374504E-16	1.359238E-17
3.680101E+03	7.391409E-16	1.357977E-17
3.690074E+03	7.409631E-16	1.357016E-17
3.700047E+03	7.429327E-16	1.356379E-17
3.710020E+03	7.450631E-16	1.356088E-17
3.719993E+03	7.473584E-16	1.356148E-17
3.729966E+03	7.498199E-16	1.356559E-17
3.739940E+03	7.524513E-16	1.357324E-17
3.749913E+03	7.552409E-16	1.358421E-17
3.759886E+03	7.581857E-16	1.359841E-17
3.769859E+03	7.612725E-16	1.361559E-17
3.779832E+03	7.644964E-16	1.363564E-17
3.789805E+03	7.678450E-16	1.365832E-17
3.799779E+03	7.713141E-16	1.368355E-17
3.809752E+03	7.749004E-16	1.371125E-17
3.819725E+03	7.786079E-16	1.374149E-17
3.829698E+03	7.824458E-16	1.377441E-17
3.839671E+03	7.864215E-16	1.381014E-17
3.849644E+03	7.905555E-16	1.384902E-17
3.859618E+03	7.948611E-16	1.389128E-17
3.869591E+03	7.993617E-16	1.393730E-17
3.879564E+03	8.040760E-16	1.398740E-17
3.889537E+03	8.090132E-16	1.404173E-17
3.899510E+03	8.141841E-16	1.410045E-17
3.909483E+03	8.195939E-16	1.416363E-17
3.919457E+03	8.252379E-16	1.423120E-17
3.929430E+03	8.311128E-16	1.430308E-17
3.939403E+03	8.371986E-16	1.437891E-17
3.949376E+03	8.434770E-16	1.445837E-17
3.959349E+03	8.499281E-16	1.454113E-17
3.969323E+03	8.565123E-16	1.462651E-17
3.979296E+03	8.632029E-16	1.471405E-17
3.989269E+03	8.699523E-16	1.480297E-17
3.999242E+03	8.767140E-16	1.489247E-17
4.009215E+03	8.834349E-16	1.498169E-17
4.019188E+03	8.900514E-16	1.506957E-17
4.029162E+03	8.965024E-16	1.515510E-17
4.039135E+03	9.027083E-16	1.523698E-17
4.049108E+03	9.086085E-16	1.531423E-17
4.059081E+03	9.141310E-16	1.538568E-17
4.069054E+03	9.192204E-16	1.545044E-17
4.079027E+03	9.238310E-16	1.550779E-17
4.089001E+03	9.279443E-16	1.555749E-17
4.098974E+03	9.315511E-16	1.559941E-17
4.108947E+03	9.346757E-16	1.563402E-17
4.118920E+03	9.373682E-16	1.566219E-17
4.128893E+03	9.396946E-16	1.568507E-17
4.138866E+03	9.417555E-16	1.570436E-17
4.148840E+03	9.436606E-16	1.572193E-17
4.158813E+03	9.455319E-16	1.573982E-17
4.168786E+03	9.474980E-16	1.576019E-17
4.178759E+03	9.496927E-16	1.578528E-17
4.188732E+03	9.522340E-16	1.581704E-17
4.198705E+03	9.552424E-16	1.585750E-17
4.208679E+03	9.588055E-16	1.590810E-17
4.218652E+03	9.629913E-16	1.596999E-17
4.228625E+03	9.678439E-16	1.604389E-17
4.238598E+03	9.733632E-16	1.612984E-17
4.248571E+03	9.795233E-16	1.622740E-17
4.258545E+03	9.862453E-16	1.633530E-17
4.268518E+03	9.934347E-16	1.645200E-17
4.278491E+03	1.000950E-15	1.657519E-17
4.288464E+03	1.008639E-15	1.670238E-17
4.298437E+03	1.016330E-15	1.683078E-17
4.308410E+03	1.023856E-15	1.695763E-17
4.318384E+03	1.031073E-15	1.708063E-17
4.328357E+03	1.037860E-15	1.719776E-17
4.338330E+03	1.044126E-15	1.730757E-17
4.348303E+03	1.049834E-15	1.740946E-17
4.358276E+03	1.054967E-15	1.750317E-17
4.368249E+03	1.059513E-15	1.758844E-17
4.378223E+03	1.063480E-15	1.766537E-17
4.388196E+03	1.066916E-15	1.773473E-17
4.398169E+03	1.069896E-15	1.779770E-17
4.408142E+03	1.072532E-15	1.785612E-17
4.418115E+03	1.074956E-15	1.791212E-17
4.428088E+03	1.077308E-15	1.796801E-17
4.438062E+03	1.079752E-15	1.802646E-17
4.448035E+03	1.082418E-15	1.808964E-17
4.458008E+03	1.085434E-15	1.815965E-17
4.467981E+03	1.088909E-15	1.823832E-17
4.477954E+03	1.092909E-15	1.832674E-17
4.487927E+03	1.097465E-15	1.842543E-17
4.497901E+03	1.102574E-15	1.853432E-17
4.507874E+03	1.108212E-15	1.865306E-17
4.517847E+03	1.114285E-15	1.878003E-17
4.527820E+03	1.120708E-15	1.891380E-17
4.537793E+03	1.127348E-15	1.905214E-17
4.547767E+03	1.134044E-15	1.919228E-17
4.557740E+03	1.140658E-15	1.933187E-17
4.567713E+03	1.147032E-15	1.946818E-17
4.577686E+03	1.153007E-15	1.959849E-17
4.587659E+03	1.158466E-15	1.972073E-17
4.597632E+03	1.163311E-15	1.983314E-17
4.607606E+03	1.167468E-15	1.993439E-17
4.617579E+03	1.170922E-15	2.002414E-17
4.627552E+03	1.173667E-15	2.010219E-17
4.637525E+03	1.175774E-15	2.016968E-17
4.647498E+03	1.177327E-15	2.022796E-17
4.657471E+03	1.178427E-15	2.027867E-17
4.667445E+03	1.179238E-15	2.032459E-17
4.677418E+03	1.179918E-15	2.036840E-17
4.687391E+03	1.180636E-15	2.041295E-17
4.697364E+03	1.181565E-15	2.046123E-17
4.707337E+03	1.182872E-15	2.051610E-17
4.717310E+03	1.184684E-15	2.057980E-17
4.727284E+03	1.187130E-15	2.065453E-17
4.737257E+03	1.190290E-15	2.074177E-17
4.747230E+03	1.194183E-15	2.084184E-17
4.757203E+03	1.198823E-15	2.095502E-17
4.767176E+03	1.204136E-15	2.108005E-17
4.777149E+03	1.210036E-15	2.121546E-17
4.787123E+03	1.216372E-15	2.135858E-17
4.797096E+03	1.222973E-15	2.150645E-17
4.807069E+03	1.229626E-15	2.165526E-17
4.817042E+03	1.236129E-15	2.180147E-17
4.827015E+03	1.242243E-15	2.194081E-17
4.836989E+03	1.247763E-15	2.206957E-17
4.846962E+03	1.252525E-15	2.218480E-17
4.856935E+03	1.256354E-15	2.228328E-17
4.866908E+03	1.259173E-15	2.236360E-17
4.876881E+03	1.260894E-15	2.242404E-17
4.886854E+03	1.261517E-15	2.246454E-17
4.896828E+03	1.261043E-15	2.248501E-17
4.906801E+03	1.259546E-15	2.248667E-17
4.916774E+03	1.257084E-15	2.247050E-17
4.926747E+03	1.253755E-15	2.243813E-17
4.936720E+03	1.249675E-15	2.239161E-17
4.946693E+03	1.244938E-15	2.233254E-17
4.956667E+03	1.239666E-15	2.226309E-17
4.966640E+03	1.233972E-15	2.218522E-17
4.976613E+03	1.227951E-15	2.210066E-17
4.986586E+03	1.221707E-15	2.201120E-17
4.996559E+03	1.215326E-15	2.191841E-17
5.006532E+03	1.208910E-15	2.182412E-17
5.016506E+03	1.202546E-15	2.172988E-17
5.026479E+03	1.196303E-15	2.163698E-17
5.036452E+03	1.190245E-15	2.154655E-17
5.046425E+03	1.184447E-15	2.145998E-17
5.056398E+03	1.178964E-15	2.137826E-17
5.066371E+03	1.173817E-15	2.130183E-17
5.076345E+03	1.169058E-15	2.123160E-17
5.086318E+03	1.164683E-15	2.116753E-17
5.096291E+03	1.160704E-15	2.110988E-17
5.106264E+03	1.157112E-15	2.105848E-17
5.116237E+03	1.153866E-15	2.101259E-17
5.126210E+03	1.150954E-15	2.097203E-17
5.136184E+03	1.148316E-15	2.093572E-17
5.146157E+03	1.145918E-15	2.090303E-17
5.156130E+03	1.143712E-15	2.087309E-17
5.166103E+03	1.141637E-15	2.084482E-17
5.176076E+03	1.139645E-15	2.081733E-17
5.186050E+03	1.137701E-15	2.078997E-17
5.196023E+03	1.135742E-15	2.076162E-17
5.205996E+03	1.133751E-15	2.073198E-17
5.215969E+03	1.131687E-15	2.070026E-17
5.225942E+03	1.129509E-15	2.066575E-17
5.235915E+03	1.127204E-15	2.062821E-17
5.245889E+03	1.124761E-15	2.058744E-17
5.255862E+03	1.122142E-15	2.054274E-17
5.265835E+03	1.119343E-15	2.049406E-17
5.275808E+03	1.116347E-15	2.044107E-17
5.285781E+03	1.113172E-15	2.038414E-17
5.295754E+03	1.109813E-15	2.032316E-17
5.305728E+03	1.106281E-15	2.025836E-17
5.315701E+03	1.102604E-15	2.019026E-17
5.325674E+03	1.098784E-15	2.011889E-17
5.335647E+03	1.094868E-15	2.004514E-17
5.345620E+03	1.090875E-15	1.996936E-17
5.355593E+03	1.086824E-15	1.989194E-17
5.365567E+03	1.082760E-15	1.981367E-17
5.375540E+03	1.078705E-15	1.973501E-17
5.385513E+03	1.074685E-15	1.965643E-17
5.395486E+03	1.070715E-15	1.957821E-17
5.405459E+03	1.066832E-15	1.950104E-17
5.415432E+03	1.063050E-15	1.942523E-17
5.425406E+03	1.059395E-15	1.935120E-17
5.435379E+03	1.055897E-15	1.927954E-17
5.445352E+03	1.052570E-15	1.921051E-17
5.455325E+03	1.049437E-15	1.914451E-17
5.465298E+03	1.046521E-15	1.908196E-17
5.475272E+03	1.043814E-15	1.902271E-17
5.485245E+03	1.041327E-15	1.896696E-17
5.495218E+03	1.039090E-15	1.891523E-17
5.505191E+03	1.037100E-15	1.886747E-17
5.515164E+03	1.035381E-15	1.882413E-17
5.525137E+03	1.033942E-15	1.878534E-17
5.535111E+03	1.032774E-15	1.875093E-17
5.545084E+03	1.031861E-15	1.872062E-17
5.555057E+03	1.031213E-15	1.869454E-17
5.565030E+03	1.030800E-15	1.867218E-17
5.575003E+03	1.030601E-15	1.865313E-17
5.584976E+03	1.030584E-15	1.863678E-17
5.594950E+03	1.030747E-15	1.862313E-17
5.604923E+03	1.031053E-15	1.861148E-17
5.614896E+03	1.031503E-15	1.860183E-17
5.624869E+03	1.032095E-15	1.859417E-17
5.634842E+03	1.032851E-15	1.858886E-17
5.644815E+03	1.033781E-15	1.858607E-17
5.654789E+03	1.034918E-15	1.858640E-17
5.664762E+03	1.036303E-15	1.859058E-17
5.674735E+03	1.037997E-15	1.859969E-17
5.684708E+03	1.040068E-15	1.861490E-17
5.694681E+03	1.042549E-15	1.863679E-17
5.704654E+03	1.045504E-15	1.866649E-17
5.714628E+03	1.048981E-15	1.870482E-17
5.724601E+03	1.053026E-15	1.875256E-17
5.734574E+03	1.057657E-15	1.880999E-17
5.744547E+03	1.062859E-15	1.887681E-17
5.754520E+03	1.068617E-15	1.895269E-17
5.764494E+03	1.074886E-15	1.903682E-17
5.774467E+03	1.081575E-15	1.912754E-17
5.784440E+03	1.088580E-15	1.922296E-17
5.794413E+03	1.095788E-15	1.932110E-17
5.804386E+03	1.103061E-15	1.941948E-17
5.814359E+03	1.110236E-15	1.951524E-17
5.824333E+03	1.117199E-15	1.960640E-17
5.834306E+03	1.123762E-15	1.968968E-17
5.844279E+03	1.129815E-15	1.976318E-17
5.854252E+03	1.135228E-15	1.982469E-17
5.864225E+03	1.139934E-15	1.987311E-17
5.874198E+03	1.143841E-15	1.990691E-17
5.884172E+03	1.146939E-15	1.992599E-17
5.894145E+03	1.149200E-15	1.992996E-17
5.904118E+03	1.150631E-15	1.991902E-17
5.914091E+03	1.151266E-15	1.989384E-17
5.924064E+03	1.151136E-15	1.985508E-17
5.934037E+03	1.150267E-15	1.980324E-17
5.944011E+03	1.148717E-15	1.973944E-17
5.953984E+03	1.146539E-15	1.966465E-17
5.963957E+03	1.143774E-15	1.957967E-17
5.973930E+03	1.140514E-15	1.948613E-17
5.983903E+03	1.136796E-15	1.938476E-17
5.993876E+03	1.132703E-15	1.927702E-17
6.003850E+03	1.128290E-15	1.916391E-17
6.013823E+03	1.123636E-15	1.904683E-17
6.023796E+03	1.118773E-15	1.892637E-17
6.033769E+03	1.113782E-15	1.880394E-17
6.043742E+03	1.108666E-15	1.867963E-17
6.053716E+03	1.103474E-15	1.855429E-17
6.063689E+03	1.098219E-15	1.842818E-17
6.073662E+03	1.092891E-15	1.830117E-17
6.083635E+03	1.087516E-15	1.817372E-17
6.093608E+03	1.082057E-15	1.804525E-17
6.103581E+03	1.076517E-15	1.791584E-17
6.113555E+03	1.070866E-15	1.778502E-17
6.123528E+03	1.065075E-15	1.765234E-17
6.133501E+03	1.059127E-15	1.751757E-17
6.143474E+03	1.053022E-15	1.738074E-17
6.153447E+03	1.046762E-15	1.724193E-17
6.163420E+03	1.040382E-15	1.710174E-17
6.173394E+03	1.033906E-15	1.696065E-17
6.183367E+03	1.027384E-15	1.681944E-17
6.193340E+03	1.020857E-15	1.667885E-17
6.203313E+03	1.014374E-15	1.653971E-17
6.213286E+03	1.008012E-15	1.640325E-17
6.223259E+03	1.001822E-15	1.627036E-17
6.233233E+03	9.958817E-16	1.614226E-17
6.243206E+03	9.902875E-16	1.602053E-17
6.253179E+03	9.851016E-16	1.590615E-17
6.263152E+03	9.804229E-16	1.580071E-17
6.273125E+03	9.763628E-16	1.570598E-17
6.283098E+03	9.730371E-16	1.562377E-17
6.293072E+03	9.705894E-16	1.555635E-17
6.303045E+03	9.692111E-16	1.550673E-17
6.313018E+03	9.691254E-16	1.547840E-17
6.322991E+03	9.705394E-16	1.547460E-17
6.332964E+03	9.737395E-16	1.549979E-17
6.342937E+03	9.789975E-16	1.555818E-17
6.352911E+03	9.865891E-16	1.565403E-17
6.362884E+03	9.968001E-16	1.579172E-17
6.372857E+03	1.009869E-15	1.597490E-17
6.382830E+03	1.026032E-15	1.620716E-17
6.392803E+03	1.045447E-15	1.649085E-17
6.402777E+03	1.068235E-15	1.682765E-17
6.412750E+03	1.094406E-15	1.721759E-17
6.422723E+03	1.123838E-15	1.765856E-17
6.432696E+03	1.156314E-15	1.814699E-17
6.442669E+03	1.191458E-15	1.867687E-17
6.452642E+03	1.228718E-15	1.923945E-17
6.462616E+03	1.267524E-15	1.982575E-17
6.472589E+03	1.307109E-15	2.042375E-17
6.482562E+03	1.346785E-15	2.102274E-17
6.492535E+03	1.385854E-15	2.161185E-17
6.502508E+03	1.423635E-15	2.218054E-17
6.512481E+03	1.459539E-15	2.271971E-17
6.522455E+03	1.492598E-15	2.321441E-17
6.532428E+03	1.521599E-15	2.364596E-17
6.542401E+03	1.545262E-15	2.399460E-17
6.552374E+03	1.562650E-15	2.424600E-17
6.562347E+03	1.573157E-15	2.439099E-17
6.572320E+03	1.576534E-15	2.442592E-17
6.582294E+03	1.572943E-15	2.435350E-17
6.592267E+03	1.562788E-15	2.418018E-17
6.602240E+03	1.546727E-15	2.391628E-17
6.612213E+03	1.525595E-15	2.357484E-17
6.622186E+03	1.500254E-15	2.316926E-17
6.632159E+03	1.471612E-15	2.271362E-17
6.642133E+03	1.440549E-15	2.222155E-17
6.652106E+03	1.407885E-15	2.170568E-17
6.662079E+03	1.374354E-15	2.117733E-17
6.672052E+03	1.340570E-15	2.064594E-17
6.682025E+03	1.307121E-15	2.012050E-17
6.691999E+03	1.274401E-15	1.960703E-17
6.701972E+03	1.242783E-15	1.911123E-17
6.711945E+03	1.212515E-15	1.863683E-17
6.721918E+03	1.183815E-15	1.818713E-17
6.731891E+03	1.156797E-15	1.776383E-17
6.741864E+03	1.131567E-15	1.736849E-17
6.751838E+03	1.108146E-15	1.700135E-17
6.761811E+03	1.086539E-15	1.666247E-17
6.771784E+03	1.066748E-15	1.635179E-17
6.781757E+03	1.048690E-15	1.606802E-17
6.791730E+03	1.032348E-15	1.581082E-17
6.801703E+03	1.017632E-15	1.557879E-17
6.811677E+03	1.004447E-15	1.537045E-17
6.821650E+03	9.927537E-16	1.518511E-17
6.831623E+03	9.824306E-16	1.502092E-17
6.841596E+03	9.734167E-16	1.487691E-17
6.851569E+03	9.656314E-16	1.475180E-17
6.861542E+03	9.589775E-16	1.464410E-17
6.871516E+03	9.533965E-16	1.455289E-17
6.881489E+03	9.487937E-16	1.447669E-17
6.891462E+03	9.451122E-16	1.441463E-17
6.901435E+03	9.422581E-16	1.436525E-17
6.911408E+03	9.401554E-16	1.432739E-17
6.921381E+03	9.387269E-16	1.429985E-17
6.931355E+03	9.379130E-16	1.428172E-17
6.941328E+03	9.376149E-16	1.427149E-17
6.951301E+03	9.377338E-16	1.426765E-17
6.961274E+03	9.382271E-16	1.426955E-17
6.971247E+03	9.389779E-16	1.427541E-17
6.981221E+03	9.399294E-16	1.428439E-17
6.991194E+03	9.410097E-16	1.429538E-17
7.001167E+03	9.421343E-16	1.430711E-17
7.011140E+03	9.432632E-16	1.431899E-17
7.021113E+03	9.443267E-16	1.432997E-17
7.031086E+03	9.453008E-16	1.433970E-17
7.041060E+03	9.461311E-16	1.434737E-17
7.051033E+03	9.467883E-16	1.435255E-17
7.061006E+03	9.472508E-16	1.435494E-17
7.070979E+03	9.475220E-16	1.435461E-17
7.080952E+03	9.475516E-16	1.435080E-17
7.090925E+03	9.473535E-16	1.434377E-17
7.100899E+03	9.469454E-16	1.433379E-17
7.110872E+03	9.462691E-16	1.432000E-17
7.120845E+03	9.453878E-16	1.430339E-17
7.130818E+03	9.442673E-16	1.428346E-17
7.140791E+03	9.429349E-16	1.426065E-17
7.150764E+03	9.413787E-16	1.423480E-17
7.160738E+03	9.396091E-16	1.420609E-17
7.170711E+03	9.376568E-16	1.417502E-17
7.180684E+03	9.354955E-16	1.414120E-17
7.190657E+03	9.331789E-16	1.410547E-17
7.200630E+03	9.307034E-16	1.406780E-17
7.210603E+03	9.280862E-16	1.402848E-17
7.220577E+03	9.253262E-16	1.398752E-17
7.230550E+03	9.224622E-16	1.394552E-17
7.240523E+03	9.195146E-16	1.390281E-17
7.250496E+03	9.164831E-16	1.385943E-17
7.260469E+03	9.134073E-16	1.381598E-17
7.270443E+03	9.102867E-16	1.377249E-17
7.280416E+03	9.071393E-16	1.372925E-17
7.290389E+03	9.039834E-16	1.368656E-17
7.300362E+03	9.008551E-16	1.364500E-17
7.310335E+03	8.977284E-16	1.360420E-17
7.320308E+03	8.946345E-16	1.356466E-17
7.330282E+03	8.915607E-16	1.352620E-17
7.340255E+03	8.885310E-16	1.348922E-17
7.350228E+03	8.855255E-16	1.345345E-17
7.360201E+03	8.825598E-16	1.341914E-17
7.370174E+03	8.795869E-16	1.338561E-17
7.380147E+03	8.766150E-16	1.335301E-17
7.390121E+03	8.736113E-16	1.332086E-17
7.400094E+03	8.705610E-16	1.328895E-17
7.410067E+03	8.674489E-16	1.325708E-17
7.420040E+03	8.642604E-16	1.322505E-17
7.430013E+03	8.609429E-16	1.319205E-17
7.439986E+03	8.575047E-16	1.315822E-17
7.449960E+03	8.539379E-16	1.312342E-17
7.459933E+03	8.502582E-16	1.308785E-17
7.469906E+03	8.464464E-16	1.305119E-17
7.479879E+03	8.425503E-16	1.301416E-17
7.489852E+03	8.385844E-16	1.297696E-17
7.499825E+03	8.345467E-16	1.293952E-17
7.509799E+03	8.304973E-16	1.290276E-17
7.519772E+03	8.264442E-16	1.286679E-17
7.529745E+03	8.224433E-16	1.283245E-17
7.539718E+03	8.185360E-16	1.280039E-17
7.549691E+03	8.147667E-16	1.277128E-17
7.559665E+03	8.111783E-16	1.274581E-17
7.569638E+03	8.078328E-16	1.272495E-17
7.579611E+03	8.047476E-16	1.270900E-17
7.589584E+03	8.019759E-16	1.269881E-17
7.599557E+03	7.995269E-16	1.269455E-17
7.609530E+03	7.974639E-16	1.269727E-17
7.619504E+03	7.957658E-16	1.270668E-17
7.629477E+03	7.944674E-16	1.272337E-17
7.639450E+03	7.935968E-16	1.274784E-17
7.649423E+03	7.931174E-16	1.277956E-17
7.659396E+03	7.930860E-16	1.281952E-17
7.669369E+03	7.934301E-16	1.286659E-17
7.679343E+03	7.941694E-16	1.292117E-17
7.689316E+03	7.952738E-16	1.298282E-17
7.699289E+03	7.966843E-16	1.305066E-17
7.709262E+03	7.983755E-16	1.312431E-17
7.719235E+03	8.002737E-16	1.320262E-17
7.729208E+03	8.023433E-16	1.328504E-17
7.739182E+03	8.045480E-16	1.337102E-17
