#wls	flux	fluxerr
1.595708E+03	2.930079E-18	3.175112E-22
1.635600E+03	3.039375E-18	3.293549E-22
1.675493E+03	3.111811E-18	3.372042E-22
1.715386E+03	3.143875E-18	3.406787E-22
1.755278E+03	3.131881E-18	3.393790E-22
1.795171E+03	3.067547E-18	3.324076E-22
1.835064E+03	2.941708E-18	3.187714E-22
1.874956E+03	2.748498E-18	2.978346E-22
1.914849E+03	2.488865E-18	2.697000E-22
1.954742E+03	2.175762E-18	2.357714E-22
1.994634E+03	1.839112E-18	1.992911E-22
2.034527E+03	1.523409E-18	1.650806E-22
2.074420E+03	1.275603E-18	1.382277E-22
2.114312E+03	1.131150E-18	1.225744E-22
2.154205E+03	1.109112E-18	1.201863E-22
2.194098E+03	1.220660E-18	1.322740E-22
2.233991E+03	1.477514E-18	1.601073E-22
2.273883E+03	1.891563E-18	2.049748E-22
2.313776E+03	2.469021E-18	2.675496E-22
2.353669E+03	3.208369E-18	3.476673E-22
2.393561E+03	4.102497E-18	4.445573E-22
2.433454E+03	5.142743E-18	5.572810E-22
2.473347E+03	6.321691E-18	6.850349E-22
2.513239E+03	7.636013E-18	8.274583E-22
2.553132E+03	9.083639E-18	9.843267E-22
2.593025E+03	1.066608E-17	1.155804E-21
2.632917E+03	1.238545E-17	1.342119E-21
2.672810E+03	1.424744E-17	1.543889E-21
2.712703E+03	1.625818E-17	1.761778E-21
2.752596E+03	1.842750E-17	1.996851E-21
2.792488E+03	2.076733E-17	2.250401E-21
2.832381E+03	2.329347E-17	2.524140E-21
2.872274E+03	2.602320E-17	2.819940E-21
2.912166E+03	2.897902E-17	3.140240E-21
2.952059E+03	3.218637E-17	3.487796E-21
2.991952E+03	3.567256E-17	3.865568E-21
3.001925E+03	3.658986E-17	3.964968E-21
3.011898E+03	3.752756E-17	4.066580E-21
3.021871E+03	3.848485E-17	4.170315E-21
3.031844E+03	3.946600E-17	4.276634E-21
3.041818E+03	4.047804E-17	4.386301E-21
3.051791E+03	4.153271E-17	4.500588E-21
3.061764E+03	4.262860E-17	4.619342E-21
3.071737E+03	4.376564E-17	4.742553E-21
3.081710E+03	4.494261E-17	4.870093E-21
3.091683E+03	4.615712E-17	5.001701E-21
3.101657E+03	4.740809E-17	5.137258E-21
3.111630E+03	4.869446E-17	5.276653E-21
3.121603E+03	5.001660E-17	5.419923E-21
3.131576E+03	5.137098E-17	5.566687E-21
3.141549E+03	5.275942E-17	5.717141E-21
3.151522E+03	5.417982E-17	5.871059E-21
3.161496E+03	5.563149E-17	6.028365E-21
3.171469E+03	5.711239E-17	6.188839E-21
3.181442E+03	5.862473E-17	6.352720E-21
3.191415E+03	6.016526E-17	6.519655E-21
3.201388E+03	6.173343E-17	6.689586E-21
3.211361E+03	6.332895E-17	6.862480E-21
3.221335E+03	6.495292E-17	7.038458E-21
3.231308E+03	6.660224E-17	7.217181E-21
3.241281E+03	6.827975E-17	7.398961E-21
3.251254E+03	6.998079E-17	7.583289E-21
3.261227E+03	7.170854E-17	7.770512E-21
3.271200E+03	7.346143E-17	7.960459E-21
3.281174E+03	7.523970E-17	8.153157E-21
3.291147E+03	7.704361E-17	8.348632E-21
3.301120E+03	7.887177E-17	8.546737E-21
3.311093E+03	8.072468E-17	8.747522E-21
3.321066E+03	8.260270E-17	8.951028E-21
3.331040E+03	8.450638E-17	9.157315E-21
3.341013E+03	8.643447E-17	9.366248E-21
3.350986E+03	8.838756E-17	9.577889E-21
3.360959E+03	9.036462E-17	9.792128E-21
3.370932E+03	9.236948E-17	1.000938E-20
3.380905E+03	9.439924E-17	1.022933E-20
3.390879E+03	9.645277E-17	1.045185E-20
3.400852E+03	9.853384E-17	1.067736E-20
3.410825E+03	1.006393E-16	1.090552E-20
3.420798E+03	1.027711E-16	1.113652E-20
3.430771E+03	1.049256E-16	1.136999E-20
3.440744E+03	1.071062E-16	1.160629E-20
3.450718E+03	1.093089E-16	1.184497E-20
3.460691E+03	1.115348E-16	1.208618E-20
3.470664E+03	1.137813E-16	1.232961E-20
3.480637E+03	1.160489E-16	1.257533E-20
3.490610E+03	1.183346E-16	1.282302E-20
3.500583E+03	1.206369E-16	1.307250E-20
3.510557E+03	1.229542E-16	1.332361E-20
3.520530E+03	1.252849E-16	1.357617E-20
3.530503E+03	1.276278E-16	1.383005E-20
3.540476E+03	1.299796E-16	1.408490E-20
3.550449E+03	1.323437E-16	1.434107E-20
3.560422E+03	1.347139E-16	1.459791E-20
3.570396E+03	1.370947E-16	1.485591E-20
3.580369E+03	1.394857E-16	1.511500E-20
3.590342E+03	1.418892E-16	1.537544E-20
3.600315E+03	1.443066E-16	1.563740E-20
3.610288E+03	1.467426E-16	1.590137E-20
3.620261E+03	1.492023E-16	1.616791E-20
3.630235E+03	1.516907E-16	1.643756E-20
3.640208E+03	1.542149E-16	1.671108E-20
3.650181E+03	1.567831E-16	1.698938E-20
3.660154E+03	1.594022E-16	1.727319E-20
3.670127E+03	1.620833E-16	1.756372E-20
3.680101E+03	1.648321E-16	1.786159E-20
3.690074E+03	1.676603E-16	1.816806E-20
3.700047E+03	1.705781E-16	1.848424E-20
3.710020E+03	1.735910E-16	1.881072E-20
3.719993E+03	1.767134E-16	1.914907E-20
3.729966E+03	1.799507E-16	1.949987E-20
3.739940E+03	1.833126E-16	1.986417E-20
3.749913E+03	1.868084E-16	2.024298E-20
3.759886E+03	1.904498E-16	2.063757E-20
3.769859E+03	1.942411E-16	2.104840E-20
3.779832E+03	1.981911E-16	2.147643E-20
3.789805E+03	2.023101E-16	2.192278E-20
3.799779E+03	2.066037E-16	2.238804E-20
3.809752E+03	2.110786E-16	2.287295E-20
3.819725E+03	2.157386E-16	2.337792E-20
3.829698E+03	2.205913E-16	2.390376E-20
3.839671E+03	2.256377E-16	2.445061E-20
3.849644E+03	2.308826E-16	2.501896E-20
3.859618E+03	2.363235E-16	2.560855E-20
3.869591E+03	2.419559E-16	2.621888E-20
3.879564E+03	2.477776E-16	2.684973E-20
3.889537E+03	2.537813E-16	2.750030E-20
3.894185E+03	5.270209E-17	5.710916E-21
3.899688E+03	6.609243E-17	7.161922E-21
3.905191E+03	8.562163E-17	9.278149E-21
3.910694E+03	1.115121E-16	1.208370E-20
3.916197E+03	1.448274E-16	1.569382E-20
3.921701E+03	1.787920E-16	1.937429E-20
3.927204E+03	2.145523E-16	2.324936E-20
3.932707E+03	2.496990E-16	2.705793E-20
3.938210E+03	2.831159E-16	3.067906E-20
3.943713E+03	3.144679E-16	3.407644E-20
3.949217E+03	3.442604E-16	3.730481E-20
3.954720E+03	3.713472E-16	4.024000E-20
3.960223E+03	3.950871E-16	4.281251E-20
3.965726E+03	4.147640E-16	4.494473E-20
3.971229E+03	4.304892E-16	4.664875E-20
3.976733E+03	4.423759E-16	4.793682E-20
3.982236E+03	4.481251E-16	4.855981E-20
3.987739E+03	4.471174E-16	4.845061E-20
3.993242E+03	4.399210E-16	4.767080E-20
3.998745E+03	4.274118E-16	4.631527E-20
4.004249E+03	4.122734E-16	4.467484E-20
4.009752E+03	3.955506E-16	4.286273E-20
4.015255E+03	3.770906E-16	4.086236E-20
4.020758E+03	3.596509E-16	3.897256E-20
4.026261E+03	3.470107E-16	3.760283E-20
4.031765E+03	3.417764E-16	3.703563E-20
4.037268E+03	3.421317E-16	3.707413E-20
4.042771E+03	3.511363E-16	3.804989E-20
4.048274E+03	3.640610E-16	3.945043E-20
4.053777E+03	3.803452E-16	4.121503E-20
4.059281E+03	3.963174E-16	4.294580E-20
4.064784E+03	4.099881E-16	4.442719E-20
4.070287E+03	4.214545E-16	4.566971E-20
4.075790E+03	4.318095E-16	4.679181E-20
4.081293E+03	4.410924E-16	4.779771E-20
4.086797E+03	4.500473E-16	4.876809E-20
4.092300E+03	4.571020E-16	4.953255E-20
4.097803E+03	4.639133E-16	5.027063E-20
4.103306E+03	4.692599E-16	5.085000E-20
4.108809E+03	4.753641E-16	5.151147E-20
4.114312E+03	4.802166E-16	5.203729E-20
4.119816E+03	4.816652E-16	5.219427E-20
4.125319E+03	4.791610E-16	5.192290E-20
4.130822E+03	4.717906E-16	5.112424E-20
4.136325E+03	4.600621E-16	4.985330E-20
4.141828E+03	4.468074E-16	4.841700E-20
4.147332E+03	4.339641E-16	4.702527E-20
4.152835E+03	4.223891E-16	4.577098E-20
4.158338E+03	4.151957E-16	4.499148E-20
4.163841E+03	4.129018E-16	4.474291E-20
4.169344E+03	4.154292E-16	4.501678E-20
4.174848E+03	4.209378E-16	4.561370E-20
4.180351E+03	4.267271E-16	4.624104E-20
4.185854E+03	4.317012E-16	4.678005E-20
4.191357E+03	4.338430E-16	4.701214E-20
4.196860E+03	4.356307E-16	4.720586E-20
4.202364E+03	4.339508E-16	4.702382E-20
4.207867E+03	4.265181E-16	4.621839E-20
4.213370E+03	4.144903E-16	4.491504E-20
4.218873E+03	3.976211E-16	4.308705E-20
4.224376E+03	3.791472E-16	4.108518E-20
4.229880E+03	3.585615E-16	3.885447E-20
4.235383E+03	3.378509E-16	3.661023E-20
4.240886E+03	3.194794E-16	3.461946E-20
4.246389E+03	3.049736E-16	3.304758E-20
4.251892E+03	2.955512E-16	3.202655E-20
4.257396E+03	2.886275E-16	3.127627E-20
4.262899E+03	2.841705E-16	3.079331E-20
4.268402E+03	2.822742E-16	3.058782E-20
4.273905E+03	2.837903E-16	3.075210E-20
4.279408E+03	2.887409E-16	3.128856E-20
4.284912E+03	2.960501E-16	3.208061E-20
4.290415E+03	3.070157E-16	3.326886E-20
4.295918E+03	3.215326E-16	3.484193E-20
4.301421E+03	3.380822E-16	3.663528E-20
4.306924E+03	3.591640E-16	3.891975E-20
4.312428E+03	3.825533E-16	4.145426E-20
4.317931E+03	4.064207E-16	4.404058E-20
4.323434E+03	4.280745E-16	4.638703E-20
4.328937E+03	4.462944E-16	4.836138E-20
4.334440E+03	4.613316E-16	4.999084E-20
4.339944E+03	4.729521E-16	5.125007E-20
4.345447E+03	4.811586E-16	5.213934E-20
4.350950E+03	4.873826E-16	5.281378E-20
4.356453E+03	4.929886E-16	5.342125E-20
4.361956E+03	4.969082E-16	5.384599E-20
4.367460E+03	5.008805E-16	5.427643E-20
4.372963E+03	5.036914E-16	5.458103E-20
4.378466E+03	5.062674E-16	5.486017E-20
4.383969E+03	5.107665E-16	5.534770E-20
4.389472E+03	5.153679E-16	5.584632E-20
4.394976E+03	5.240364E-16	5.678565E-20
4.400479E+03	5.332348E-16	5.778241E-20
4.405982E+03	5.428421E-16	5.882348E-20
4.411485E+03	5.537013E-16	6.000020E-20
4.416988E+03	5.621095E-16	6.091133E-20
4.422491E+03	5.663779E-16	6.137386E-20
4.427995E+03	5.649881E-16	6.122326E-20
4.433498E+03	5.590212E-16	6.057667E-20
4.439001E+03	5.483300E-16	5.941815E-20
4.444504E+03	5.367369E-16	5.816190E-20
4.450007E+03	5.235810E-16	5.673629E-20
4.455511E+03	5.099756E-16	5.526199E-20
4.461014E+03	4.942762E-16	5.356076E-20
4.466517E+03	4.762320E-16	5.160546E-20
4.472020E+03	4.570639E-16	4.952837E-20
4.477523E+03	4.365024E-16	4.730028E-20
4.483027E+03	4.143524E-16	4.490006E-20
4.488530E+03	3.963823E-16	4.295278E-20
4.494033E+03	3.838219E-16	4.159171E-20
4.499536E+03	3.786895E-16	4.103556E-20
4.505039E+03	3.838618E-16	4.159603E-20
4.510543E+03	3.960589E-16	4.291774E-20
4.516046E+03	4.146683E-16	4.493429E-20
4.521549E+03	4.394839E-16	4.762336E-20
4.527052E+03	4.716396E-16	5.110781E-20
4.532555E+03	5.094019E-16	5.519981E-20
4.538059E+03	5.510779E-16	5.971591E-20
4.543562E+03	5.961181E-16	6.459656E-20
4.549065E+03	6.427756E-16	6.965245E-20
4.554568E+03	6.883062E-16	7.458624E-20
4.560071E+03	7.309822E-16	7.921070E-20
4.565575E+03	7.724550E-16	8.370476E-20
4.571078E+03	8.097822E-16	8.774961E-20
4.576581E+03	8.436118E-16	9.141546E-20
4.582084E+03	8.753271E-16	9.485219E-20
4.587587E+03	9.024098E-16	9.778692E-20
4.593091E+03	9.254599E-16	1.002847E-19
4.598594E+03	9.454472E-16	1.024505E-19
4.604097E+03	9.603993E-16	1.040708E-19
4.609599E+03	9.712609E-16	1.052478E-19
4.615102E+03	9.777497E-16	1.059509E-19
4.620606E+03	9.803562E-16	1.062334E-19
4.626109E+03	9.813054E-16	1.063362E-19
4.631613E+03	9.819219E-16	1.064030E-19
4.637116E+03	9.831631E-16	1.065375E-19
4.642619E+03	9.869748E-16	1.069506E-19
4.648123E+03	9.930967E-16	1.076139E-19
4.653626E+03	1.001175E-15	1.084893E-19
4.659129E+03	1.009674E-15	1.094103E-19
4.664632E+03	1.016358E-15	1.101346E-19
4.670135E+03	1.020240E-15	1.105552E-19
4.675639E+03	1.019623E-15	1.104884E-19
4.681142E+03	1.012996E-15	1.097703E-19
4.686645E+03	1.005802E-15	1.089907E-19
4.692148E+03	9.976615E-16	1.081086E-19
4.697651E+03	9.890620E-16	1.071767E-19
4.703155E+03	9.784018E-16	1.060216E-19
4.708658E+03	9.642779E-16	1.044911E-19
4.714161E+03	9.490057E-16	1.028361E-19
4.719663E+03	9.321550E-16	1.010102E-19
4.725166E+03	9.110906E-16	9.872758E-20
4.730669E+03	8.851889E-16	9.592081E-20
4.736173E+03	8.517814E-16	9.230071E-20
4.741676E+03	8.107625E-16	8.785582E-20
4.747179E+03	7.617662E-16	8.254648E-20
4.752682E+03	7.063156E-16	7.653775E-20
4.758185E+03	6.478703E-16	7.020450E-20
4.763689E+03	5.941241E-16	6.438045E-20
4.769192E+03	5.458730E-16	5.915188E-20
4.774695E+03	5.097796E-16	5.524072E-20
4.780198E+03	4.926569E-16	5.338527E-20
4.785701E+03	4.935298E-16	5.347985E-20
4.791205E+03	5.110822E-16	5.538187E-20
4.796708E+03	5.449765E-16	5.905472E-20
4.802212E+03	5.873572E-16	6.364718E-20
4.807715E+03	6.349204E-16	6.880122E-20
4.813217E+03	6.863349E-16	7.437259E-20
4.818721E+03	7.387284E-16	8.005005E-20
4.824224E+03	7.911583E-16	8.573147E-20
4.829727E+03	8.411040E-16	9.114368E-20
4.835230E+03	8.880628E-16	9.623222E-20
4.840733E+03	9.311846E-16	1.009050E-19
4.846237E+03	9.713307E-16	1.052553E-19
4.851740E+03	1.011438E-15	1.096014E-19
4.857243E+03	1.049181E-15	1.136913E-19
4.862746E+03	1.084267E-15	1.174933E-19
4.868249E+03	1.119303E-15	1.212899E-19
4.873753E+03	1.152525E-15	1.248899E-19
4.879256E+03	1.180520E-15	1.279235E-19
4.884759E+03	1.202589E-15	1.303149E-19
4.890262E+03	1.216253E-15	1.317956E-19
4.895765E+03	1.219883E-15	1.321889E-19
4.901269E+03	1.213772E-15	1.315267E-19
4.906772E+03	1.202183E-15	1.302709E-19
4.912275E+03	1.186234E-15	1.285426E-19
4.917778E+03	1.167229E-15	1.264832E-19
4.923281E+03	1.144956E-15	1.240697E-19
4.928785E+03	1.121979E-15	1.215798E-19
4.934288E+03	1.096113E-15	1.187769E-19
4.939791E+03	1.067980E-15	1.157284E-19
4.945294E+03	1.038869E-15	1.125739E-19
4.950797E+03	1.007135E-15	1.091351E-19
4.956301E+03	9.761036E-16	1.057725E-19
4.961804E+03	9.501443E-16	1.029595E-19
4.967307E+03	9.306018E-16	1.008418E-19
4.972810E+03	9.203875E-16	9.973497E-20
4.978313E+03	9.255040E-16	1.002894E-19
4.983817E+03	9.424537E-16	1.021261E-19
4.989320E+03	9.721572E-16	1.053448E-19
4.994823E+03	1.010430E-15	1.094922E-19
5.000326E+03	1.054122E-15	1.142267E-19
5.005829E+03	1.099508E-15	1.191448E-19
5.011333E+03	1.147132E-15	1.243054E-19
5.016836E+03	1.194127E-15	1.293979E-19
5.022339E+03	1.236246E-15	1.339620E-19
5.027842E+03	1.269259E-15	1.375393E-19
5.033345E+03	1.287021E-15	1.394641E-19
5.038848E+03	1.287540E-15	1.395203E-19
5.044352E+03	1.269450E-15	1.375601E-19
5.049855E+03	1.235183E-15	1.338468E-19
5.055358E+03	1.185228E-15	1.284335E-19
5.060861E+03	1.124639E-15	1.218680E-19
5.066364E+03	1.058480E-15	1.146989E-19
5.071868E+03	9.902983E-16	1.073106E-19
5.077371E+03	9.243352E-16	1.001627E-19
5.082874E+03	8.634840E-16	9.356878E-20
5.088377E+03	8.119103E-16	8.798015E-20
5.093880E+03	7.712003E-16	8.356874E-20
5.099384E+03	7.407724E-16	8.027152E-20
5.104887E+03	7.204058E-16	7.806455E-20
5.110390E+03	7.072843E-16	7.664268E-20
5.115893E+03	7.046408E-16	7.635623E-20
5.121396E+03	7.119548E-16	7.714878E-20
5.126900E+03	7.296909E-16	7.907070E-20
5.132403E+03	7.589344E-16	8.223958E-20
5.137906E+03	7.960248E-16	8.625877E-20
5.143409E+03	8.381568E-16	9.082427E-20
5.148912E+03	8.823984E-16	9.561836E-20
5.154416E+03	9.285804E-16	1.006227E-19
5.159919E+03	9.724288E-16	1.053742E-19
5.165422E+03	1.014074E-15	1.098870E-19
5.170925E+03	1.049874E-15	1.137663E-19
5.176428E+03	1.081500E-15	1.171934E-19
5.181932E+03	1.105817E-15	1.198284E-19
5.187435E+03	1.121158E-15	1.214908E-19
5.192938E+03	1.123424E-15	1.217363E-19
5.198441E+03	1.115545E-15	1.208826E-19
5.203944E+03	1.099518E-15	1.191458E-19
5.209448E+03	1.078543E-15	1.168729E-19
5.214951E+03	1.053990E-15	1.142123E-19
5.220454E+03	1.031192E-15	1.117419E-19
5.225957E+03	1.011746E-15	1.096347E-19
5.231460E+03	9.947942E-16	1.077978E-19
5.236964E+03	9.831709E-16	1.065382E-19
5.242467E+03	9.756005E-16	1.057179E-19
5.247970E+03	9.743319E-16	1.055804E-19
5.253473E+03	9.767785E-16	1.058455E-19
5.258976E+03	9.824668E-16	1.064619E-19
5.264480E+03	9.904268E-16	1.073245E-19
5.269983E+03	1.001043E-15	1.084748E-19
5.275486E+03	1.015536E-15	1.100454E-19
5.280989E+03	1.033228E-15	1.119625E-19
5.286492E+03	1.054215E-15	1.142367E-19
5.291996E+03	1.078343E-15	1.168513E-19
5.297499E+03	1.101014E-15	1.193080E-19
5.303002E+03	1.121857E-15	1.215665E-19
5.308505E+03	1.137685E-15	1.232817E-19
5.314008E+03	1.151915E-15	1.248236E-19
5.319512E+03	1.162385E-15	1.259582E-19
5.325015E+03	1.170859E-15	1.268765E-19
5.330518E+03	1.178219E-15	1.276740E-19
5.336021E+03	1.180373E-15	1.279074E-19
5.341524E+03	1.178976E-15	1.277560E-19
5.347027E+03	1.174804E-15	1.273040E-19
5.352531E+03	1.167023E-15	1.264608E-19
5.358034E+03	1.156941E-15	1.253683E-19
5.363537E+03	1.146388E-15	1.242248E-19
5.369040E+03	1.136753E-15	1.231806E-19
5.374543E+03	1.129409E-15	1.223849E-19
5.380047E+03	1.125085E-15	1.219163E-19
5.385550E+03	1.121647E-15	1.215438E-19
5.391053E+03	1.119514E-15	1.213126E-19
5.396556E+03	1.118152E-15	1.211650E-19
5.402059E+03	1.115458E-15	1.208730E-19
5.407563E+03	1.109660E-15	1.202448E-19
5.413066E+03	1.101930E-15	1.194072E-19
5.418569E+03	1.094265E-15	1.185765E-19
5.424072E+03	1.084477E-15	1.175159E-19
5.429575E+03	1.073723E-15	1.163506E-19
5.435079E+03	1.062738E-15	1.151602E-19
5.440582E+03	1.051107E-15	1.138999E-19
5.446085E+03	1.039250E-15	1.126151E-19
5.451588E+03	1.028911E-15	1.114946E-19
5.457091E+03	1.019524E-15	1.104775E-19
5.462595E+03	1.013469E-15	1.098214E-19
5.468098E+03	1.009939E-15	1.094389E-19
5.473601E+03	1.007856E-15	1.092131E-19
5.479104E+03	1.009495E-15	1.093907E-19
5.484607E+03	1.014890E-15	1.099753E-19
5.490111E+03	1.023699E-15	1.109298E-19
5.495614E+03	1.032811E-15	1.119173E-19
5.501117E+03	1.043572E-15	1.130833E-19
5.506620E+03	1.054553E-15	1.142733E-19
5.512123E+03	1.066161E-15	1.155311E-19
5.517627E+03	1.076673E-15	1.166702E-19
5.523130E+03	1.087206E-15	1.178116E-19
5.528633E+03	1.093618E-15	1.185064E-19
5.534136E+03	1.096024E-15	1.187672E-19
5.539639E+03	1.095952E-15	1.187593E-19
5.545143E+03	1.091493E-15	1.182761E-19
5.550646E+03	1.082762E-15	1.173301E-19
5.556149E+03	1.070977E-15	1.160530E-19
5.561652E+03	1.056445E-15	1.144783E-19
5.567155E+03	1.039273E-15	1.126175E-19
5.572659E+03	1.022974E-15	1.108513E-19
5.578162E+03	1.008047E-15	1.092337E-19
5.583665E+03	9.951850E-16	1.078400E-19
5.589168E+03	9.864144E-16	1.068896E-19
5.594671E+03	9.809451E-16	1.062969E-19
5.600175E+03	9.771703E-16	1.058879E-19
5.605678E+03	9.759753E-16	1.057584E-19
5.611181E+03	9.778144E-16	1.059577E-19
5.616684E+03	9.814952E-16	1.063565E-19
5.622187E+03	9.855787E-16	1.067990E-19
5.627691E+03	9.916795E-16	1.074601E-19
5.633194E+03	9.994168E-16	1.082986E-19
5.638697E+03	1.008232E-15	1.092537E-19
5.644200E+03	1.016579E-15	1.101583E-19
5.649703E+03	1.026453E-15	1.112282E-19
5.655206E+03	1.034666E-15	1.121182E-19
5.660710E+03	1.042614E-15	1.129794E-19
5.666213E+03	1.047909E-15	1.135533E-19
5.671716E+03	1.049857E-15	1.137643E-19
5.677219E+03	1.050747E-15	1.138607E-19
5.682722E+03	1.049484E-15	1.137239E-19
5.688226E+03	1.043483E-15	1.130737E-19
5.693729E+03	1.034434E-15	1.120931E-19
5.699232E+03	1.023032E-15	1.108575E-19
5.704735E+03	1.012558E-15	1.097225E-19
5.710238E+03	1.001418E-15	1.085154E-19
5.715742E+03	9.910646E-16	1.073934E-19
5.721245E+03	9.836057E-16	1.065852E-19
5.726748E+03	9.755283E-16	1.057099E-19
5.732251E+03	9.712016E-16	1.052411E-19
5.737754E+03	9.699698E-16	1.051076E-19
5.743258E+03	9.714167E-16	1.052644E-19
5.748761E+03	9.748568E-16	1.056371E-19
5.754264E+03	9.782388E-16	1.060036E-19
5.759767E+03	9.809241E-16	1.062946E-19
5.765270E+03	9.793806E-16	1.061273E-19
5.770774E+03	9.760975E-16	1.057716E-19
5.776277E+03	9.693945E-16	1.050452E-19
5.781780E+03	9.586265E-16	1.038784E-19
5.787283E+03	9.473344E-16	1.026547E-19
5.792786E+03	9.338160E-16	1.011899E-19
5.798290E+03	9.215383E-16	9.985942E-20
5.803793E+03	9.133357E-16	9.897058E-20
5.809296E+03	9.091644E-16	9.851856E-20
5.814799E+03	9.070966E-16	9.829450E-20
5.820302E+03	9.047983E-16	9.804544E-20
5.825806E+03	9.048689E-16	9.805309E-20
5.831309E+03	9.075037E-16	9.833860E-20
5.836812E+03	9.146790E-16	9.911612E-20
5.842315E+03	9.250672E-16	1.002418E-19
5.847818E+03	9.393305E-16	1.017874E-19
5.853322E+03	9.573077E-16	1.037354E-19
5.858825E+03	9.779401E-16	1.059712E-19
5.864328E+03	1.001770E-15	1.085534E-19
5.869831E+03	1.025998E-15	1.111788E-19
5.875334E+03	1.049909E-15	1.137698E-19
5.880838E+03	1.073886E-15	1.163681E-19
5.886341E+03	1.095095E-15	1.186663E-19
5.891844E+03	1.113730E-15	1.206856E-19
5.897347E+03	1.127653E-15	1.221943E-19
5.902850E+03	1.137560E-15	1.232678E-19
5.908354E+03	1.141812E-15	1.237286E-19
5.913857E+03	1.141612E-15	1.237069E-19
5.919360E+03	1.137558E-15	1.232676E-19
5.924863E+03	1.131065E-15	1.225640E-19
5.930366E+03	1.124884E-15	1.218942E-19
5.935870E+03	1.120346E-15	1.214025E-19
5.941373E+03	1.118685E-15	1.212225E-19
5.946876E+03	1.119397E-15	1.212996E-19
5.952379E+03	1.119924E-15	1.213567E-19
5.957882E+03	1.121291E-15	1.215049E-19
5.963385E+03	1.121753E-15	1.215549E-19
5.968889E+03	1.123366E-15	1.217297E-19
5.974392E+03	1.122420E-15	1.216272E-19
5.979895E+03	1.119730E-15	1.213357E-19
5.985398E+03	1.116531E-15	1.209890E-19
5.990901E+03	1.112405E-15	1.205420E-19
5.996405E+03	1.112432E-15	1.205449E-19
6.001908E+03	1.116213E-15	1.209546E-19
6.007411E+03	1.120745E-15	1.214457E-19
6.012914E+03	1.123115E-15	1.217025E-19
