#wls	flux	fluxerr
1.595708E+03	3.837563E-18	2.298270E-19
1.635600E+03	3.995120E-18	2.381810E-19
1.675493E+03	4.103938E-18	2.435317E-19
1.715386E+03	4.159337E-18	2.456406E-19
1.755278E+03	4.155760E-18	2.442252E-19
1.795171E+03	4.081140E-18	2.386308E-19
1.835064E+03	3.923265E-18	2.282112E-19
1.874956E+03	3.673714E-18	2.125577E-19
1.914849E+03	3.333089E-18	1.917947E-19
1.954742E+03	2.919015E-18	1.670238E-19
1.994634E+03	2.471436E-18	1.405971E-19
2.034527E+03	2.050215E-18	1.159425E-19
2.074420E+03	1.719185E-18	9.662968E-20
2.114312E+03	1.526522E-18	8.526339E-20
2.154205E+03	1.498771E-18	8.317484E-20
2.194098E+03	1.651932E-18	9.106858E-20
2.233991E+03	2.002782E-18	1.096607E-19
2.273883E+03	2.568289E-18	1.396437E-19
2.313776E+03	3.358727E-18	1.813130E-19
2.353669E+03	4.373020E-18	2.343296E-19
2.393561E+03	5.602847E-18	2.979602E-19
2.433454E+03	7.036810E-18	3.713123E-19
2.473347E+03	8.666240E-18	4.536449E-19
2.513239E+03	1.048442E-17	5.443234E-19
2.553132E+03	1.248933E-17	6.429576E-19
2.593025E+03	1.467991E-17	7.491999E-19
2.632917E+03	1.705866E-17	8.628762E-19
2.672810E+03	1.962928E-17	9.838598E-19
2.712703E+03	2.239948E-17	1.112206E-18
2.752596E+03	2.538038E-17	1.248115E-18
2.792488E+03	2.858775E-17	1.391984E-18
2.832381E+03	3.204057E-17	1.544321E-18
2.872274E+03	3.576394E-17	1.705883E-18
2.912166E+03	3.978552E-17	1.877486E-18
2.952059E+03	4.413868E-17	2.060140E-18
2.991952E+03	4.885719E-17	2.254799E-18
3.001925E+03	5.009699E-17	2.305403E-18
3.011898E+03	5.136188E-17	2.356808E-18
3.021871E+03	5.265350E-17	2.409076E-18
3.031844E+03	5.397478E-17	2.462329E-18
3.041818E+03	5.533694E-17	2.517065E-18
3.051791E+03	5.675600E-17	2.573991E-18
3.061764E+03	5.822987E-17	2.632988E-18
3.071737E+03	5.975803E-17	2.694009E-18
3.081710E+03	6.133741E-17	2.756892E-18
3.091683E+03	6.296632E-17	2.821539E-18
3.101657E+03	6.464328E-17	2.887861E-18
3.111630E+03	6.636674E-17	2.955768E-18
3.121603E+03	6.813537E-17	3.025180E-18
3.131576E+03	6.994779E-17	3.096015E-18
3.141549E+03	7.180141E-17	3.168138E-18
3.151522E+03	7.369653E-17	3.241544E-18
3.161496E+03	7.563069E-17	3.316106E-18
3.171469E+03	7.760430E-17	3.391823E-18
3.181442E+03	7.961356E-17	3.468510E-18
3.191415E+03	8.165928E-17	3.546187E-18
3.201388E+03	8.373913E-17	3.624735E-18
3.211361E+03	8.585412E-17	3.704181E-18
3.221335E+03	8.800067E-17	3.784355E-18
3.231308E+03	9.017988E-17	3.865288E-18
3.241281E+03	9.239159E-17	3.946957E-18
3.251254E+03	9.463237E-17	4.029200E-18
3.261227E+03	9.690371E-17	4.112067E-18
3.271200E+03	9.920418E-17	4.195482E-18
3.281174E+03	1.015321E-16	4.279361E-18
3.291147E+03	1.038911E-16	4.363841E-18
3.301120E+03	1.062749E-16	4.448642E-18
3.311093E+03	1.086889E-16	4.533981E-18
3.321066E+03	1.111285E-16	4.619653E-18
3.331040E+03	1.135961E-16	4.705741E-18
3.341013E+03	1.160906E-16	4.792187E-18
3.350986E+03	1.186111E-16	4.878939E-18
3.360959E+03	1.211580E-16	4.966007E-18
3.370932E+03	1.237323E-16	5.053412E-18
3.380905E+03	1.263311E-16	5.141022E-18
3.390879E+03	1.289567E-16	5.228927E-18
3.400852E+03	1.316061E-16	5.316984E-18
3.410825E+03	1.342814E-16	5.405271E-18
3.420798E+03	1.369808E-16	5.493701E-18
3.430771E+03	1.397024E-16	5.582188E-18
3.440744E+03	1.424455E-16	5.670693E-18
3.450718E+03	1.452072E-16	5.759093E-18
3.460691E+03	1.479861E-16	5.847320E-18
3.470664E+03	1.507801E-16	5.935289E-18
3.480637E+03	1.535849E-16	6.022817E-18
3.490610E+03	1.563971E-16	6.109774E-18
3.500583E+03	1.592116E-16	6.195951E-18
3.510557E+03	1.620263E-16	6.281273E-18
3.520530E+03	1.648353E-16	6.365511E-18
3.530503E+03	1.676328E-16	6.448438E-18
3.540476E+03	1.704170E-16	6.530002E-18
3.550449E+03	1.731848E-16	6.610086E-18
3.560422E+03	1.759301E-16	6.688464E-18
3.570396E+03	1.786539E-16	6.765188E-18
3.580369E+03	1.813564E-16	6.840280E-18
3.590342E+03	1.840379E-16	6.913757E-18
3.600315E+03	1.867004E-16	6.985708E-18
3.610288E+03	1.893539E-16	7.056518E-18
3.620261E+03	1.919998E-16	7.126247E-18
3.630235E+03	1.946520E-16	7.195408E-18
3.640208E+03	1.973191E-16	7.264322E-18
3.650181E+03	2.000127E-16	7.333409E-18
3.660154E+03	2.027434E-16	7.403050E-18
3.670127E+03	2.055239E-16	7.473691E-18
3.680101E+03	2.083697E-16	7.545877E-18
3.690074E+03	2.112915E-16	7.619969E-18
3.700047E+03	2.143025E-16	7.696406E-18
3.710020E+03	2.174129E-16	7.775522E-18
3.719993E+03	2.206393E-16	7.857870E-18
3.729966E+03	2.239892E-16	7.943664E-18
3.739940E+03	2.274741E-16	8.033263E-18
3.749913E+03	2.311071E-16	8.127072E-18
3.759886E+03	2.348968E-16	8.225334E-18
3.769859E+03	2.388533E-16	8.328339E-18
3.779832E+03	2.429867E-16	8.436366E-18
3.789805E+03	2.473086E-16	8.549753E-18
3.799779E+03	2.518234E-16	8.668569E-18
3.809752E+03	2.565441E-16	8.793186E-18
3.819725E+03	2.614729E-16	8.923602E-18
3.829698E+03	2.666185E-16	9.060025E-18
3.839671E+03	2.719852E-16	9.202519E-18
3.849644E+03	2.775755E-16	9.351085E-18
3.859618E+03	2.833894E-16	9.505635E-18
3.869591E+03	2.894211E-16	9.665891E-18
3.879564E+03	2.956667E-16	9.831650E-18
3.889537E+03	3.021160E-16	1.000249E-17
3.899510E+03	3.087516E-16	1.017778E-17
3.909483E+03	3.155604E-16	1.035700E-17
3.919457E+03	3.225094E-16	1.053905E-17
3.929430E+03	3.295751E-16	1.072311E-17
3.939403E+03	3.367225E-16	1.090801E-17
3.949376E+03	3.439123E-16	1.109249E-17
3.959349E+03	3.510988E-16	1.127507E-17
3.969323E+03	3.582381E-16	1.145438E-17
3.979296E+03	3.652925E-16	1.162927E-17
3.989269E+03	3.722105E-16	1.179817E-17
3.999242E+03	3.789628E-16	1.196023E-17
4.009215E+03	3.855051E-16	1.211415E-17
4.019188E+03	3.918168E-16	1.225941E-17
4.029162E+03	3.978656E-16	1.239513E-17
4.039135E+03	4.036306E-16	1.252078E-17
4.049108E+03	4.090983E-16	1.263611E-17
4.059081E+03	4.142565E-16	1.274087E-17
4.069054E+03	4.190972E-16	1.283497E-17
4.079027E+03	4.236142E-16	1.291838E-17
4.089001E+03	4.278106E-16	1.299135E-17
4.098974E+03	4.317002E-16	1.305444E-17
4.108947E+03	4.352993E-16	1.310830E-17
4.118920E+03	4.386320E-16	1.315378E-17
4.128893E+03	4.417255E-16	1.319182E-17
4.138866E+03	4.446237E-16	1.322385E-17
4.148840E+03	4.473614E-16	1.325099E-17
4.158813E+03	4.499850E-16	1.327470E-17
4.168786E+03	4.525513E-16	1.329672E-17
4.178759E+03	4.551041E-16	1.331837E-17
4.188732E+03	4.577027E-16	1.334142E-17
4.198705E+03	4.603912E-16	1.336715E-17
4.208679E+03	4.632231E-16	1.339712E-17
4.218652E+03	4.662495E-16	1.343278E-17
4.228625E+03	4.695052E-16	1.347510E-17
4.238598E+03	4.730307E-16	1.352518E-17
4.248571E+03	4.768584E-16	1.358391E-17
4.258545E+03	4.809996E-16	1.365154E-17
4.268518E+03	4.854653E-16	1.372833E-17
4.278491E+03	4.902515E-16	1.381411E-17
4.288464E+03	4.953251E-16	1.390789E-17
4.298437E+03	5.006440E-16	1.400846E-17
4.308410E+03	5.061499E-16	1.411417E-17
4.318384E+03	5.117609E-16	1.422274E-17
4.328357E+03	5.174003E-16	1.433207E-17
4.338330E+03	5.229865E-16	1.443995E-17
4.348303E+03	5.284369E-16	1.454419E-17
4.358276E+03	5.336903E-16	1.464317E-17
4.368249E+03	5.386869E-16	1.473539E-17
4.378223E+03	5.433947E-16	1.482007E-17
4.388196E+03	5.478432E-16	1.489815E-17
4.398169E+03	5.521544E-16	1.497304E-17
4.408142E+03	5.564628E-16	1.504845E-17
4.418115E+03	5.609346E-16	1.512893E-17
4.428088E+03	5.657471E-16	1.521925E-17
4.438062E+03	5.710996E-16	1.532472E-17
4.448035E+03	5.772133E-16	1.545122E-17
4.458008E+03	5.842955E-16	1.560418E-17
4.467981E+03	5.925541E-16	1.578898E-17
4.477954E+03	6.021867E-16	1.601070E-17
4.487927E+03	6.133374E-16	1.627297E-17
4.497901E+03	6.261121E-16	1.657838E-17
4.507874E+03	6.405447E-16	1.692763E-17
4.517847E+03	6.566026E-16	1.731967E-17
4.527820E+03	6.741887E-16	1.775177E-17
4.537793E+03	6.931555E-16	1.821993E-17
4.547767E+03	7.133115E-16	1.871901E-17
4.557740E+03	7.344109E-16	1.924252E-17
4.567713E+03	7.561756E-16	1.978314E-17
4.577686E+03	7.782985E-16	2.033286E-17
4.587659E+03	8.004469E-16	2.088307E-17
4.597632E+03	8.222879E-16	2.142515E-17
4.607606E+03	8.434906E-16	2.195061E-17
4.617579E+03	8.637655E-16	2.245206E-17
4.627552E+03	8.828551E-16	2.292296E-17
4.637525E+03	9.005629E-16	2.335835E-17
4.647498E+03	9.167372E-16	2.375449E-17
4.657471E+03	9.313114E-16	2.410977E-17
4.667445E+03	9.442657E-16	2.442383E-17
4.677418E+03	9.556310E-16	2.469760E-17
4.687391E+03	9.655063E-16	2.493373E-17
4.697364E+03	9.740354E-16	2.513602E-17
4.707337E+03	9.813889E-16	2.530894E-17
4.717310E+03	9.877771E-16	2.545794E-17
4.727284E+03	9.934146E-16	2.558859E-17
4.737257E+03	9.985223E-16	2.570657E-17
4.747230E+03	1.003300E-15	2.581702E-17
4.757203E+03	1.007931E-15	2.592467E-17
4.767176E+03	1.012558E-15	2.603311E-17
4.777149E+03	1.017297E-15	2.614534E-17
4.787123E+03	1.022202E-15	2.626269E-17
4.797096E+03	1.027317E-15	2.638625E-17
4.807069E+03	1.032641E-15	2.651599E-17
4.817042E+03	1.038157E-15	2.665144E-17
4.827015E+03	1.043831E-15	2.679164E-17
4.836989E+03	1.049599E-15	2.693500E-17
4.846962E+03	1.055399E-15	2.707983E-17
4.856935E+03	1.061158E-15	2.722427E-17
4.866908E+03	1.066784E-15	2.736592E-17
4.876881E+03	1.072222E-15	2.750332E-17
4.886854E+03	1.077384E-15	2.763421E-17
4.896828E+03	1.082209E-15	2.775700E-17
4.906801E+03	1.086650E-15	2.787043E-17
4.916774E+03	1.090658E-15	2.797323E-17
4.926747E+03	1.094210E-15	2.806478E-17
4.936720E+03	1.097275E-15	2.814423E-17
4.946693E+03	1.099861E-15	2.821179E-17
4.956667E+03	1.101977E-15	2.826763E-17
4.966640E+03	1.103613E-15	2.831145E-17
4.976613E+03	1.104810E-15	2.834430E-17
4.986586E+03	1.105579E-15	2.836640E-17
4.996559E+03	1.105954E-15	2.837858E-17
5.006532E+03	1.105955E-15	2.838136E-17
5.016506E+03	1.105651E-15	2.837644E-17
5.026479E+03	1.105069E-15	2.836451E-17
5.036452E+03	1.104279E-15	2.834732E-17
5.046425E+03	1.103353E-15	2.832667E-17
5.056398E+03	1.102382E-15	2.830492E-17
5.066371E+03	1.101458E-15	2.828435E-17
5.076345E+03	1.100684E-15	2.826760E-17
5.086318E+03	1.100142E-15	2.825676E-17
5.096291E+03	1.099926E-15	2.825422E-17
5.106264E+03	1.100105E-15	2.826173E-17
5.116237E+03	1.100741E-15	2.828087E-17
5.126210E+03	1.101857E-15	2.831220E-17
5.136184E+03	1.103474E-15	2.835624E-17
5.146157E+03	1.105594E-15	2.841304E-17
5.156130E+03	1.108172E-15	2.848140E-17
5.166103E+03	1.111189E-15	2.856085E-17
5.176076E+03	1.114596E-15	2.865009E-17
5.186050E+03	1.118336E-15	2.874763E-17
5.196023E+03	1.122348E-15	2.885191E-17
5.205996E+03	1.126570E-15	2.896129E-17
5.215969E+03	1.130947E-15	2.907434E-17
5.225942E+03	1.135403E-15	2.918913E-17
5.235915E+03	1.139883E-15	2.930416E-17
5.245889E+03	1.144315E-15	2.941761E-17
5.255862E+03	1.148637E-15	2.952786E-17
5.265835E+03	1.152749E-15	2.963230E-17
5.275808E+03	1.156592E-15	2.972941E-17
5.285781E+03	1.160084E-15	2.981709E-17
5.295754E+03	1.163134E-15	2.989299E-17
5.305728E+03	1.165669E-15	2.995517E-17
5.315701E+03	1.167644E-15	3.000254E-17
5.325674E+03	1.168995E-15	3.003339E-17
5.335647E+03	1.169682E-15	3.004672E-17
5.345620E+03	1.169671E-15	3.004163E-17
5.355593E+03	1.168978E-15	3.001857E-17
5.365567E+03	1.167615E-15	2.997782E-17
5.375540E+03	1.165585E-15	2.991948E-17
5.385513E+03	1.162952E-15	2.984519E-17
5.395486E+03	1.159767E-15	2.975630E-17
5.405459E+03	1.156070E-15	2.965380E-17
5.415432E+03	1.151940E-15	2.953974E-17
5.425406E+03	1.147437E-15	2.941570E-17
5.435379E+03	1.142614E-15	2.928301E-17
5.445352E+03	1.137566E-15	2.914416E-17
5.455325E+03	1.132344E-15	2.900037E-17
5.465298E+03	1.127034E-15	2.885392E-17
5.475272E+03	1.121696E-15	2.870632E-17
5.485245E+03	1.116355E-15	2.855818E-17
5.495218E+03	1.111042E-15	2.841029E-17
5.505191E+03	1.105756E-15	2.826264E-17
5.515164E+03	1.100497E-15	2.811519E-17
5.525137E+03	1.095286E-15	2.796851E-17
5.535111E+03	1.090135E-15	2.782287E-17
5.545084E+03	1.085026E-15	2.767782E-17
5.555057E+03	1.080014E-15	2.753474E-17
5.565030E+03	1.075089E-15	2.739340E-17
5.575003E+03	1.070291E-15	2.725478E-17
5.584976E+03	1.065639E-15	2.711937E-17
5.594950E+03	1.061151E-15	2.698765E-17
5.604923E+03	1.056879E-15	2.686090E-17
5.614896E+03	1.052829E-15	2.673924E-17
5.624869E+03	1.049013E-15	2.662302E-17
5.634842E+03	1.045464E-15	2.651303E-17
5.644815E+03	1.042191E-15	2.640949E-17
5.654789E+03	1.039213E-15	2.631287E-17
5.664762E+03	1.036539E-15	2.622335E-17
5.674735E+03	1.034187E-15	2.614142E-17
5.684708E+03	1.032180E-15	2.606759E-17
5.694681E+03	1.030529E-15	2.600214E-17
5.704654E+03	1.029258E-15	2.594567E-17
5.714628E+03	1.028393E-15	2.589876E-17
5.724601E+03	1.027946E-15	2.586173E-17
5.734574E+03	1.027941E-15	2.583513E-17
5.744547E+03	1.028389E-15	2.581917E-17
5.754520E+03	1.029305E-15	2.581425E-17
5.764494E+03	1.030704E-15	2.582065E-17
5.774467E+03	1.032594E-15	2.583857E-17
5.784440E+03	1.034957E-15	2.586749E-17
5.794413E+03	1.037813E-15	2.590785E-17
5.804386E+03	1.041118E-15	2.595858E-17
5.814359E+03	1.044880E-15	2.601973E-17
5.824333E+03	1.049061E-15	2.609040E-17
5.834306E+03	1.053619E-15	2.616945E-17
5.844279E+03	1.058524E-15	2.625609E-17
5.854252E+03	1.063704E-15	2.634854E-17
5.864225E+03	1.069117E-15	2.644569E-17
5.874198E+03	1.074691E-15	2.654575E-17
5.884172E+03	1.080376E-15	2.664745E-17
5.894145E+03	1.086083E-15	2.674861E-17
5.904118E+03	1.091760E-15	2.684793E-17
5.914091E+03	1.097345E-15	2.694388E-17
5.924064E+03	1.102767E-15	2.703474E-17
5.934037E+03	1.107969E-15	2.711916E-17
5.944011E+03	1.112914E-15	2.719620E-17
5.953984E+03	1.117530E-15	2.726420E-17
5.963957E+03	1.121788E-15	2.732245E-17
5.973930E+03	1.125649E-15	2.737009E-17
5.983903E+03	1.129082E-15	2.740638E-17
5.993876E+03	1.132056E-15	2.743067E-17
6.003850E+03	1.134546E-15	2.744242E-17
6.013823E+03	1.136518E-15	2.744085E-17
6.023796E+03	1.137977E-15	2.742619E-17
6.033769E+03	1.138895E-15	2.739783E-17
6.043742E+03	1.139256E-15	2.735550E-17
6.053716E+03	1.139061E-15	2.729931E-17
6.063689E+03	1.138302E-15	2.722913E-17
6.073662E+03	1.136956E-15	2.714455E-17
6.083635E+03	1.135045E-15	2.704616E-17
6.093608E+03	1.132552E-15	2.693369E-17
6.103581E+03	1.129492E-15	2.680758E-17
6.113555E+03	1.125869E-15	2.666804E-17
6.123528E+03	1.121708E-15	2.651574E-17
6.133501E+03	1.117013E-15	2.635092E-17
6.143474E+03	1.111809E-15	2.617426E-17
6.153447E+03	1.106156E-15	2.598725E-17
6.163420E+03	1.100084E-15	2.579071E-17
6.173394E+03	1.093658E-15	2.558625E-17
6.183367E+03	1.086929E-15	2.537510E-17
6.193340E+03	1.079981E-15	2.515935E-17
6.203313E+03	1.072898E-15	2.494100E-17
6.213286E+03	1.065778E-15	2.472232E-17
6.223259E+03	1.058752E-15	2.450644E-17
6.233233E+03	1.051954E-15	2.429646E-17
6.243206E+03	1.045508E-15	2.409520E-17
6.253179E+03	1.039576E-15	2.390637E-17
6.263152E+03	1.034336E-15	2.373400E-17
6.273125E+03	1.029979E-15	2.358243E-17
6.283098E+03	1.026688E-15	2.345569E-17
6.293072E+03	1.024685E-15	2.335871E-17
6.303045E+03	1.024207E-15	2.329672E-17
6.313018E+03	1.025491E-15	2.327493E-17
6.322991E+03	1.028794E-15	2.329889E-17
6.332964E+03	1.034388E-15	2.337450E-17
6.342937E+03	1.042593E-15	2.350864E-17
6.352911E+03	1.053694E-15	2.370741E-17
6.362884E+03	1.068055E-15	2.397858E-17
6.372857E+03	1.086032E-15	2.432969E-17
6.382830E+03	1.107997E-15	2.476857E-17
6.392803E+03	1.134329E-15	2.530319E-17
6.402777E+03	1.165399E-15	2.594122E-17
6.412750E+03	1.201578E-15	2.669030E-17
6.422723E+03	1.243111E-15	2.755525E-17
6.432696E+03	1.290211E-15	2.854014E-17
6.442669E+03	1.342922E-15	2.964525E-17
6.452642E+03	1.401080E-15	3.086623E-17
6.462616E+03	1.464341E-15	3.219489E-17
6.472589E+03	1.532115E-15	3.361764E-17
6.482562E+03	1.603589E-15	3.511614E-17
6.492535E+03	1.677644E-15	3.666548E-17
6.502508E+03	1.753024E-15	3.823802E-17
6.512481E+03	1.828253E-15	3.980150E-17
6.522455E+03	1.901379E-15	4.131356E-17
6.532428E+03	1.969960E-15	4.272155E-17
6.542401E+03	2.031569E-15	4.397351E-17
6.552374E+03	2.084022E-15	4.502317E-17
6.562347E+03	2.125545E-15	4.583342E-17
6.572320E+03	2.154883E-15	4.637856E-17
6.582294E+03	2.171476E-15	4.664800E-17
6.592267E+03	2.175235E-15	4.664142E-17
6.602240E+03	2.166751E-15	4.637293E-17
6.612213E+03	2.146943E-15	4.586363E-17
6.622186E+03	2.117160E-15	4.514355E-17
6.632159E+03	2.078899E-15	4.424571E-17
6.642133E+03	2.033818E-15	4.320627E-17
6.652106E+03	1.983509E-15	4.205981E-17
6.662079E+03	1.929549E-15	4.084021E-17
6.672052E+03	1.873319E-15	3.957708E-17
6.682025E+03	1.816067E-15	3.829691E-17
6.691999E+03	1.758853E-15	3.702218E-17
6.701972E+03	1.702557E-15	3.577128E-17
6.711945E+03	1.647879E-15	3.455878E-17
6.721918E+03	1.595356E-15	3.339571E-17
6.731891E+03	1.545357E-15	3.228951E-17
6.741864E+03	1.498153E-15	3.124552E-17
6.751838E+03	1.453909E-15	3.026685E-17
6.761811E+03	1.412727E-15	2.935527E-17
6.771784E+03	1.374596E-15	2.851019E-17
6.781757E+03	1.339455E-15	2.772996E-17
6.791730E+03	1.307245E-15	2.701305E-17
6.801703E+03	1.277858E-15	2.635687E-17
6.811677E+03	1.251145E-15	2.575803E-17
6.821650E+03	1.226964E-15	2.521332E-17
6.831623E+03	1.205187E-15	2.471982E-17
6.841596E+03	1.185622E-15	2.427332E-17
6.851569E+03	1.168155E-15	2.387124E-17
6.861542E+03	1.152594E-15	2.350945E-17
6.871516E+03	1.138811E-15	2.318510E-17
6.881489E+03	1.126641E-15	2.289468E-17
6.891462E+03	1.115944E-15	2.263516E-17
6.901435E+03	1.106604E-15	2.240403E-17
6.911408E+03	1.098473E-15	2.219816E-17
6.921381E+03	1.091427E-15	2.201494E-17
6.931355E+03	1.085333E-15	2.185158E-17
6.941328E+03	1.080099E-15	2.170612E-17
6.951301E+03	1.075622E-15	2.157643E-17
6.961274E+03	1.071787E-15	2.146015E-17
6.971247E+03	1.068523E-15	2.135583E-17
6.981221E+03	1.065732E-15	2.126143E-17
6.991194E+03	1.063339E-15	2.117545E-17
7.001167E+03	1.061277E-15	2.109653E-17
7.011140E+03	1.059485E-15	2.102349E-17
7.021113E+03	1.057912E-15	2.095527E-17
7.031086E+03	1.056493E-15	2.089061E-17
7.041060E+03	1.055207E-15	2.082914E-17
7.051033E+03	1.054022E-15	2.077019E-17
7.061006E+03	1.052891E-15	2.071293E-17
7.070979E+03	1.051795E-15	2.065696E-17
7.080952E+03	1.050734E-15	2.060234E-17
7.090925E+03	1.049661E-15	2.054817E-17
7.100899E+03	1.048603E-15	2.049504E-17
7.110872E+03	1.047537E-15	2.044255E-17
7.120845E+03	1.046461E-15	2.039067E-17
7.130818E+03	1.045374E-15	2.033944E-17
7.140791E+03	1.044275E-15	2.028889E-17
7.150764E+03	1.043165E-15	2.023909E-17
7.160738E+03	1.042026E-15	2.018971E-17
7.170711E+03	1.040874E-15	2.014117E-17
7.180684E+03	1.039711E-15	2.009350E-17
7.190657E+03	1.038534E-15	2.004673E-17
7.200630E+03	1.037343E-15	2.000089E-17
7.210603E+03	1.036115E-15	1.995562E-17
7.220577E+03	1.034868E-15	1.991130E-17
7.230550E+03	1.033599E-15	1.986793E-17
7.240523E+03	1.032305E-15	1.982551E-17
7.250496E+03	1.030964E-15	1.978366E-17
7.260469E+03	1.029591E-15	1.974275E-17
7.270443E+03	1.028183E-15	1.970276E-17
7.280416E+03	1.026736E-15	1.966370E-17
7.290389E+03	1.025249E-15	1.962558E-17
7.300362E+03	1.023719E-15	1.958841E-17
7.310335E+03	1.022147E-15	1.955226E-17
7.320308E+03	1.020533E-15	1.951721E-17
7.330282E+03	1.018881E-15	1.948337E-17
7.340255E+03	1.017213E-15	1.945121E-17
7.350228E+03	1.015492E-15	1.942011E-17
7.360201E+03	1.013758E-15	1.939087E-17
7.370174E+03	1.012010E-15	1.936353E-17
7.380147E+03	1.010203E-15	1.933728E-17
7.390121E+03	1.008366E-15	1.931273E-17
7.400094E+03	1.006464E-15	1.928926E-17
7.410067E+03	1.004478E-15	1.926654E-17
7.420040E+03	1.002385E-15	1.924421E-17
7.430013E+03	1.000145E-15	1.922148E-17
7.439986E+03	9.977764E-16	1.919880E-17
7.449960E+03	9.952077E-16	1.917479E-17
7.459933E+03	9.924570E-16	1.914976E-17
7.469906E+03	9.895759E-16	1.912466E-17
7.479879E+03	9.865548E-16	1.909923E-17
7.489852E+03	9.834804E-16	1.907512E-17
7.499825E+03	9.803528E-16	1.905225E-17
7.509799E+03	9.771495E-16	1.903014E-17
7.519772E+03	9.738854E-16	1.900903E-17
7.529745E+03	9.705791E-16	1.898923E-17
7.539718E+03	9.672475E-16	1.897100E-17
7.549691E+03	9.639613E-16	1.895569E-17
7.559665E+03	9.607810E-16	1.894444E-17
7.569638E+03	9.577727E-16	1.893854E-17
7.579611E+03	9.550032E-16	1.893929E-17
7.589584E+03	9.525188E-16	1.894760E-17
7.599557E+03	9.504189E-16	1.896548E-17
7.609530E+03	9.487176E-16	1.899323E-17
7.619504E+03	9.474797E-16	1.903221E-17
7.629477E+03	9.467394E-16	1.908315E-17
7.639450E+03	9.465415E-16	1.914704E-17
7.649423E+03	9.468599E-16	1.922344E-17
7.659396E+03	9.477193E-16	1.931295E-17
7.669369E+03	9.491153E-16	1.941558E-17
7.679343E+03	9.510552E-16	1.953160E-17
7.689316E+03	9.534771E-16	1.965984E-17
7.699289E+03	9.563925E-16	1.980065E-17
7.709262E+03	9.597410E-16	1.995291E-17
7.719235E+03	9.634965E-16	2.011617E-17
7.729208E+03	9.675601E-16	2.028848E-17
7.739182E+03	9.719104E-16	2.046946E-17
