#wls	flux	fluxerr
1.595708E+03	7.554542E-19	4.918881E-20
1.635600E+03	7.846373E-19	5.102707E-20
1.675493E+03	8.052391E-19	5.230179E-20
1.715386E+03	8.163018E-19	5.295277E-20
1.755278E+03	8.166904E-19	5.290877E-20
1.795171E+03	8.042331E-19	5.203193E-20
1.835064E+03	7.757936E-19	5.012303E-20
1.874956E+03	7.298297E-19	4.708698E-20
1.914849E+03	6.655453E-19	4.287752E-20
1.954742E+03	5.861960E-19	3.770961E-20
1.994634E+03	4.992808E-19	3.206972E-20
2.034527E+03	4.166964E-19	2.672359E-20
2.074420E+03	3.513284E-19	2.249554E-20
2.114312E+03	3.134782E-19	2.003926E-20
2.154205E+03	3.088481E-19	1.971029E-20
2.194098E+03	3.410259E-19	2.172658E-20
2.233991E+03	4.135496E-19	2.630084E-20
2.273883E+03	5.291842E-19	3.359452E-20
2.313776E+03	6.890602E-19	4.366359E-20
2.353669E+03	8.916587E-19	5.639525E-20
2.393561E+03	1.133273E-18	7.153858E-20
2.433454E+03	1.410407E-18	8.885716E-20
2.473347E+03	1.719853E-18	1.081337E-19
2.513239E+03	2.060259E-18	1.292686E-19
2.553132E+03	2.431297E-18	1.522262E-19
2.593025E+03	2.834232E-18	1.770703E-19
2.632917E+03	3.269599E-18	2.038177E-19
2.672810E+03	3.741328E-18	2.326956E-19
2.712703E+03	4.252374E-18	2.638677E-19
2.752596E+03	4.806847E-18	2.975669E-19
2.792488E+03	5.408580E-18	3.340057E-19
2.832381E+03	6.064433E-18	3.735799E-19
2.872274E+03	6.779466E-18	4.165693E-19
2.912166E+03	7.561178E-18	4.633994E-19
2.952059E+03	8.418003E-18	5.145464E-19
2.991952E+03	9.360566E-18	5.706133E-19
3.001925E+03	9.611186E-18	5.854891E-19
3.011898E+03	9.867247E-18	6.006734E-19
3.021871E+03	1.013002E-17	6.162427E-19
3.031844E+03	1.040039E-17	6.322492E-19
3.041818E+03	1.068057E-17	6.488268E-19
3.051791E+03	1.097374E-17	6.661668E-19
3.061764E+03	1.127839E-17	6.841762E-19
3.071737E+03	1.159671E-17	7.029854E-19
3.081710E+03	1.192724E-17	7.225046E-19
3.091683E+03	1.226848E-17	7.426413E-19
3.101657E+03	1.262408E-17	7.636139E-19
3.111630E+03	1.299001E-17	7.851774E-19
3.121603E+03	1.336872E-17	8.074780E-19
3.131576E+03	1.375876E-17	8.304265E-19
3.141549E+03	1.416137E-17	8.540953E-19
3.151522E+03	1.457508E-17	8.783950E-19
3.161496E+03	1.500122E-17	9.034026E-19
3.171469E+03	1.543831E-17	9.290279E-19
3.181442E+03	1.588917E-17	9.554382E-19
3.191415E+03	1.635093E-17	9.824599E-19
3.201388E+03	1.682504E-17	1.010177E-18
3.211361E+03	1.731151E-17	1.038589E-18
3.221335E+03	1.781193E-17	1.067789E-18
3.231308E+03	1.832333E-17	1.097597E-18
3.241281E+03	1.884885E-17	1.128199E-18
3.251254E+03	1.938708E-17	1.159508E-18
3.261227E+03	1.993972E-17	1.191624E-18
3.271200E+03	2.050537E-17	1.224461E-18
3.281174E+03	2.108418E-17	1.258026E-18
3.291147E+03	2.167796E-17	1.292424E-18
3.301120E+03	2.228698E-17	1.327668E-18
3.311093E+03	2.291147E-17	1.363771E-18
3.321066E+03	2.355175E-17	1.400748E-18
3.331040E+03	2.420812E-17	1.438615E-18
3.341013E+03	2.488092E-17	1.477389E-18
3.350986E+03	2.557048E-17	1.517087E-18
3.360959E+03	2.627718E-17	1.557728E-18
3.370932E+03	2.700142E-17	1.599333E-18
3.380905E+03	2.774719E-17	1.642136E-18
3.390879E+03	2.850963E-17	1.685845E-18
3.400852E+03	2.929460E-17	1.730804E-18
3.410825E+03	3.009903E-17	1.776827E-18
3.420798E+03	3.092343E-17	1.823942E-18
3.430771E+03	3.177212E-17	1.872399E-18
3.440744E+03	3.264387E-17	1.922122E-18
3.450718E+03	3.353743E-17	1.973032E-18
3.460691E+03	3.445732E-17	2.025393E-18
3.470664E+03	3.540237E-17	2.079130E-18
3.480637E+03	3.637532E-17	2.134401E-18
3.490610E+03	3.737507E-17	2.191135E-18
3.500583E+03	3.840246E-17	2.249377E-18
3.510557E+03	3.946044E-17	2.309295E-18
3.520530E+03	4.055003E-17	2.370943E-18
3.530503E+03	4.167229E-17	2.434378E-18
3.540476E+03	4.282627E-17	2.499538E-18
3.550449E+03	4.401522E-17	2.566606E-18
3.560422E+03	4.524037E-17	2.635649E-18
3.570396E+03	4.650520E-17	2.706863E-18
3.580369E+03	4.780682E-17	2.780072E-18
3.590342E+03	4.915101E-17	2.855605E-18
3.600315E+03	5.053713E-17	2.933418E-18
3.610288E+03	5.196901E-17	3.013726E-18
3.620261E+03	5.344614E-17	3.096489E-18
3.630235E+03	5.497249E-17	3.181932E-18
3.640208E+03	5.654764E-17	3.270018E-18
3.650181E+03	5.817576E-17	3.360982E-18
3.660154E+03	5.985881E-17	3.454926E-18
3.670127E+03	6.159644E-17	3.551819E-18
3.680101E+03	6.339541E-17	3.652043E-18
3.690074E+03	6.525303E-17	3.755430E-18
3.700047E+03	6.717621E-17	3.862367E-18
3.710020E+03	6.916465E-17	3.972825E-18
3.719993E+03	7.121789E-17	4.086765E-18
3.729966E+03	7.334296E-17	4.204578E-18
3.739940E+03	7.554191E-17	4.326368E-18
3.749913E+03	7.781152E-17	4.451937E-18
3.759886E+03	8.015873E-17	4.581669E-18
3.769859E+03	8.258260E-17	4.715496E-18
3.779832E+03	8.508455E-17	4.853483E-18
3.789805E+03	8.766871E-17	4.995852E-18
3.799779E+03	9.033321E-17	5.142480E-18
3.809752E+03	9.308178E-17	5.293565E-18
3.819725E+03	9.591209E-17	5.448957E-18
3.829698E+03	9.882409E-17	5.608638E-18
3.839671E+03	1.018175E-16	5.772575E-18
3.849644E+03	1.048944E-16	5.940876E-18
3.859618E+03	1.080537E-16	6.113453E-18
3.869591E+03	1.112877E-16	6.289866E-18
3.879564E+03	1.146000E-16	6.470288E-18
3.889537E+03	1.179846E-16	6.654381E-18
3.899510E+03	1.214409E-16	6.842093E-18
3.909483E+03	1.249587E-16	7.032825E-18
3.919457E+03	1.285361E-16	7.226466E-18
3.929430E+03	1.321707E-16	7.422872E-18
3.939403E+03	1.358501E-16	7.621323E-18
3.949376E+03	1.395706E-16	7.821613E-18
3.959349E+03	1.433217E-16	8.023144E-18
3.969323E+03	1.471024E-16	8.225847E-18
3.979296E+03	1.508947E-16	8.428706E-18
3.989269E+03	1.546968E-16	8.631628E-18
3.999242E+03	1.584971E-16	8.833960E-18
4.009215E+03	1.622875E-16	9.035243E-18
4.019188E+03	1.660597E-16	9.235018E-18
4.029162E+03	1.698062E-16	9.432874E-18
4.039135E+03	1.735163E-16	9.628219E-18
4.049108E+03	1.771838E-16	9.820713E-18
4.059081E+03	1.808069E-16	1.001026E-17
4.069054E+03	1.843739E-16	1.019622E-17
4.079027E+03	1.878857E-16	1.037866E-17
4.089001E+03	1.913405E-16	1.055748E-17
4.098974E+03	1.947345E-16	1.073248E-17
4.108947E+03	1.980689E-16	1.090374E-17
4.118920E+03	2.013465E-16	1.107143E-17
4.128893E+03	2.045683E-16	1.123560E-17
4.138866E+03	2.077434E-16	1.139677E-17
4.148840E+03	2.108720E-16	1.155496E-17
4.158813E+03	2.139662E-16	1.171083E-17
4.168786E+03	2.170357E-16	1.186492E-17
4.178759E+03	2.200877E-16	1.201763E-17
4.188732E+03	2.231340E-16	1.216959E-17
4.198705E+03	2.261833E-16	1.232130E-17
4.208679E+03	2.292488E-16	1.247346E-17
4.218652E+03	2.323477E-16	1.262700E-17
4.228625E+03	2.354869E-16	1.278229E-17
4.238598E+03	2.386802E-16	1.294008E-17
4.248571E+03	2.419460E-16	1.310134E-17
4.258545E+03	2.452908E-16	1.326641E-17
4.268518E+03	2.487325E-16	1.343624E-17
4.278491E+03	2.522775E-16	1.361116E-17
4.288464E+03	2.559468E-16	1.379228E-17
4.298437E+03	2.597463E-16	1.397988E-17
4.308410E+03	2.636889E-16	1.417464E-17
4.318384E+03	2.677836E-16	1.437701E-17
4.328357E+03	2.720467E-16	1.458782E-17
4.338330E+03	2.764867E-16	1.480751E-17
4.348303E+03	2.811164E-16	1.503672E-17
4.358276E+03	2.859411E-16	1.527569E-17
4.368249E+03	2.909787E-16	1.552534E-17
4.378223E+03	2.962407E-16	1.578624E-17
4.388196E+03	3.017409E-16	1.605907E-17
4.398169E+03	3.074913E-16	1.634442E-17
4.408142E+03	3.135168E-16	1.664356E-17
4.418115E+03	3.198276E-16	1.695698E-17
4.428088E+03	3.264414E-16	1.728555E-17
4.438062E+03	3.333754E-16	1.763013E-17
4.448035E+03	3.406492E-16	1.799167E-17
4.458008E+03	3.482807E-16	1.837105E-17
4.467981E+03	3.562892E-16	1.876921E-17
4.477954E+03	3.646909E-16	1.918692E-17
4.487927E+03	3.734932E-16	1.962450E-17
4.497901E+03	3.826992E-16	2.008202E-17
4.507874E+03	3.923154E-16	2.055973E-17
4.517847E+03	4.023242E-16	2.105663E-17
4.527820E+03	4.127149E-16	2.157207E-17
4.537793E+03	4.234612E-16	2.210460E-17
4.547767E+03	4.345390E-16	2.265287E-17
4.557740E+03	4.459081E-16	2.321473E-17
4.567713E+03	4.575270E-16	2.378795E-17
4.577686E+03	4.693434E-16	2.436974E-17
4.587659E+03	4.812999E-16	2.495710E-17
4.597632E+03	4.933465E-16	2.554739E-17
4.607606E+03	5.054201E-16	2.613731E-17
4.617579E+03	5.174569E-16	2.672358E-17
4.627552E+03	5.293993E-16	2.730319E-17
4.637525E+03	5.411866E-16	2.787306E-17
4.647498E+03	5.527620E-16	2.843027E-17
4.657471E+03	5.640736E-16	2.897220E-17
4.667445E+03	5.750821E-16	2.949687E-17
4.677418E+03	5.857560E-16	3.000273E-17
4.687391E+03	5.960538E-16	3.048773E-17
4.697364E+03	6.059602E-16	3.095114E-17
4.707337E+03	6.154565E-16	3.139208E-17
4.717310E+03	6.245503E-16	3.181103E-17
4.727284E+03	6.332253E-16	3.220724E-17
4.737257E+03	6.415033E-16	3.258188E-17
4.747230E+03	6.493854E-16	3.293509E-17
4.757203E+03	6.569022E-16	3.326851E-17
4.767176E+03	6.640742E-16	3.358323E-17
4.777149E+03	6.709422E-16	3.388139E-17
4.787123E+03	6.775414E-16	3.416481E-17
4.797096E+03	6.839119E-16	3.443558E-17
4.807069E+03	6.900785E-16	3.469496E-17
4.817042E+03	6.960765E-16	3.494478E-17
4.827015E+03	7.019312E-16	3.518633E-17
4.836989E+03	7.076570E-16	3.542036E-17
4.846962E+03	7.132713E-16	3.564775E-17
4.856935E+03	7.187943E-16	3.586954E-17
4.866908E+03	7.242151E-16	3.608518E-17
4.876881E+03	7.295539E-16	3.629570E-17
4.886854E+03	7.348072E-16	3.650093E-17
4.896828E+03	7.399625E-16	3.670027E-17
4.906801E+03	7.450266E-16	3.689406E-17
4.916774E+03	7.499911E-16	3.708191E-17
4.926747E+03	7.548476E-16	3.726341E-17
4.936720E+03	7.595951E-16	3.743853E-17
4.946693E+03	7.642336E-16	3.760728E-17
4.956667E+03	7.687422E-16	3.776867E-17
4.966640E+03	7.731385E-16	3.792356E-17
4.976613E+03	7.774125E-16	3.807149E-17
4.986586E+03	7.815708E-16	3.821281E-17
4.996559E+03	7.856229E-16	3.834800E-17
5.006532E+03	7.895655E-16	3.847690E-17
5.016506E+03	7.934057E-16	3.859989E-17
5.026479E+03	7.971764E-16	3.871859E-17
5.036452E+03	8.008757E-16	3.883290E-17
5.046425E+03	8.045276E-16	3.894400E-17
5.056398E+03	8.081595E-16	3.905322E-17
5.066371E+03	8.117933E-16	3.916161E-17
5.076345E+03	8.154615E-16	3.927072E-17
5.086318E+03	8.191822E-16	3.938141E-17
5.096291E+03	8.229897E-16	3.949531E-17
5.106264E+03	8.269183E-16	3.961402E-17
5.116237E+03	8.309935E-16	3.973873E-17
5.126210E+03	8.352383E-16	3.987049E-17
5.136184E+03	8.396816E-16	4.001062E-17
5.146157E+03	8.443409E-16	4.015990E-17
5.156130E+03	8.492377E-16	4.031927E-17
5.166103E+03	8.543739E-16	4.048877E-17
5.176076E+03	8.597631E-16	4.066895E-17
5.186050E+03	8.654159E-16	4.086024E-17
5.196023E+03	8.713296E-16	4.106244E-17
5.205996E+03	8.774897E-16	4.127478E-17
5.215969E+03	8.839122E-16	4.149793E-17
5.225942E+03	8.905662E-16	4.173036E-17
5.235915E+03	8.974432E-16	4.197160E-17
5.245889E+03	9.045230E-16	4.222064E-17
5.255862E+03	9.117995E-16	4.247711E-17
5.265835E+03	9.192283E-16	4.273889E-17
5.275808E+03	9.267890E-16	4.300498E-17
5.285781E+03	9.344591E-16	4.327428E-17
5.295754E+03	9.422053E-16	4.354520E-17
5.305728E+03	9.499931E-16	4.381613E-17
5.315701E+03	9.577873E-16	4.408540E-17
5.325674E+03	9.655627E-16	4.435185E-17
5.335647E+03	9.732755E-16	4.461346E-17
5.345620E+03	9.809031E-16	4.486921E-17
5.355593E+03	9.884158E-16	4.511773E-17
5.365567E+03	9.957958E-16	4.535824E-17
5.375540E+03	1.003010E-15	4.558923E-17
5.385513E+03	1.010037E-15	4.580985E-17
5.395486E+03	1.016871E-15	4.601980E-17
5.405459E+03	1.023500E-15	4.621857E-17
5.415432E+03	1.029915E-15	4.640582E-17
5.425406E+03	1.036110E-15	4.658137E-17
5.435379E+03	1.042083E-15	4.674518E-17
5.445352E+03	1.047827E-15	4.689690E-17
5.455325E+03	1.053364E-15	4.703769E-17
5.465298E+03	1.058680E-15	4.716688E-17
5.475272E+03	1.063791E-15	4.728532E-17
5.485245E+03	1.068706E-15	4.739337E-17
5.495218E+03	1.073420E-15	4.749095E-17
5.505191E+03	1.077952E-15	4.757888E-17
5.515164E+03	1.082300E-15	4.765711E-17
5.525137E+03	1.086482E-15	4.772653E-17
5.535111E+03	1.090497E-15	4.778715E-17
5.545084E+03	1.094359E-15	4.783951E-17
5.555057E+03	1.098066E-15	4.788371E-17
5.565030E+03	1.101646E-15	4.792090E-17
5.575003E+03	1.105114E-15	4.795178E-17
5.584976E+03	1.108463E-15	4.797612E-17
5.594950E+03	1.111734E-15	4.799567E-17
5.604923E+03	1.114922E-15	4.801024E-17
5.614896E+03	1.118044E-15	4.802059E-17
5.624869E+03	1.121117E-15	4.802747E-17
5.634842E+03	1.124158E-15	4.803157E-17
5.644815E+03	1.127181E-15	4.803356E-17
5.654789E+03	1.130181E-15	4.803312E-17
5.664762E+03	1.133193E-15	4.803181E-17
5.674735E+03	1.136219E-15	4.802972E-17
5.684708E+03	1.139252E-15	4.802646E-17
5.694681E+03	1.142328E-15	4.802355E-17
5.704654E+03	1.145437E-15	4.802062E-17
5.714628E+03	1.148605E-15	4.801867E-17
5.724601E+03	1.151835E-15	4.801780E-17
5.734574E+03	1.155140E-15	4.801854E-17
5.744547E+03	1.158522E-15	4.802090E-17
5.754520E+03	1.162003E-15	4.802581E-17
5.764494E+03	1.165571E-15	4.803265E-17
5.774467E+03	1.169244E-15	4.804219E-17
5.784440E+03	1.173027E-15	4.805457E-17
5.794413E+03	1.176897E-15	4.806879E-17
5.804386E+03	1.180864E-15	4.808518E-17
5.814359E+03	1.184906E-15	4.810288E-17
5.824333E+03	1.189024E-15	4.812182E-17
5.834306E+03	1.193175E-15	4.814026E-17
5.844279E+03	1.197348E-15	4.815771E-17
5.854252E+03	1.201503E-15	4.817255E-17
5.864225E+03	1.205618E-15	4.818393E-17
5.874198E+03	1.209632E-15	4.818941E-17
5.884172E+03	1.213506E-15	4.818745E-17
5.894145E+03	1.217222E-15	4.817740E-17
5.904118E+03	1.220700E-15	4.815617E-17
5.914091E+03	1.223911E-15	4.812265E-17
5.924064E+03	1.226825E-15	4.807582E-17
5.934037E+03	1.229379E-15	4.801330E-17
5.944011E+03	1.231550E-15	4.793432E-17
5.953984E+03	1.233293E-15	4.783730E-17
5.963957E+03	1.234580E-15	4.772133E-17
5.973930E+03	1.235400E-15	4.758615E-17
5.983903E+03	1.235734E-15	4.743123E-17
5.993876E+03	1.235555E-15	4.725573E-17
6.003850E+03	1.234852E-15	4.705944E-17
6.013823E+03	1.233619E-15	4.684236E-17
6.023796E+03	1.231867E-15	4.660509E-17
6.033769E+03	1.229596E-15	4.634791E-17
6.043742E+03	1.226799E-15	4.607074E-17
6.053716E+03	1.223497E-15	4.577456E-17
6.063689E+03	1.219699E-15	4.545999E-17
6.073662E+03	1.215419E-15	4.512776E-17
6.083635E+03	1.210661E-15	4.477820E-17
6.093608E+03	1.205469E-15	4.441315E-17
6.103581E+03	1.199851E-15	4.403313E-17
6.113555E+03	1.193845E-15	4.363969E-17
6.123528E+03	1.187452E-15	4.323309E-17
6.133501E+03	1.180727E-15	4.281550E-17
6.143474E+03	1.173680E-15	4.238743E-17
6.153447E+03	1.166349E-15	4.195038E-17
6.163420E+03	1.158786E-15	4.150642E-17
6.173394E+03	1.151000E-15	4.105595E-17
6.183367E+03	1.143065E-15	4.060171E-17
6.193340E+03	1.135009E-15	4.014480E-17
6.203313E+03	1.126889E-15	3.968729E-17
6.213286E+03	1.118790E-15	3.923219E-17
6.223259E+03	1.110787E-15	3.878218E-17
6.233233E+03	1.102972E-15	3.834039E-17
6.243206E+03	1.095404E-15	3.790881E-17
6.253179E+03	1.088169E-15	3.749031E-17
6.263152E+03	1.081381E-15	3.708866E-17
6.273125E+03	1.075097E-15	3.670563E-17
6.283098E+03	1.069413E-15	3.634421E-17
6.293072E+03	1.064425E-15	3.600746E-17
6.303045E+03	1.060232E-15	3.569838E-17
6.313018E+03	1.056899E-15	3.541874E-17
6.322991E+03	1.054536E-15	3.517182E-17
6.332964E+03	1.053214E-15	3.495959E-17
6.342937E+03	1.053028E-15	3.478464E-17
6.352911E+03	1.054054E-15	3.464895E-17
6.362884E+03	1.056350E-15	3.455380E-17
6.372857E+03	1.059999E-15	3.450134E-17
6.382830E+03	1.065027E-15	3.449171E-17
6.392803E+03	1.071480E-15	3.452573E-17
6.402777E+03	1.079387E-15	3.460365E-17
6.412750E+03	1.088720E-15	3.472381E-17
6.422723E+03	1.099475E-15	3.488543E-17
6.432696E+03	1.111598E-15	3.508605E-17
6.442669E+03	1.124990E-15	3.532187E-17
6.452642E+03	1.139560E-15	3.558938E-17
6.462616E+03	1.155140E-15	3.588280E-17
6.472589E+03	1.171543E-15	3.619578E-17
6.482562E+03	1.188558E-15	3.652145E-17
6.492535E+03	1.205944E-15	3.685209E-17
6.502508E+03	1.223387E-15	3.717797E-17
6.512481E+03	1.240625E-15	3.749108E-17
6.522455E+03	1.257302E-15	3.778086E-17
6.532428E+03	1.273120E-15	3.803867E-17
6.542401E+03	1.287742E-15	3.825488E-17
6.552374E+03	1.300878E-15	3.842159E-17
6.562347E+03	1.312275E-15	3.853210E-17
6.572320E+03	1.321671E-15	3.857969E-17
6.582294E+03	1.328925E-15	3.856124E-17
6.592267E+03	1.333918E-15	3.847450E-17
6.602240E+03	1.336594E-15	3.831905E-17
6.612213E+03	1.336940E-15	3.809573E-17
6.622186E+03	1.335036E-15	3.780803E-17
6.632159E+03	1.330995E-15	3.746034E-17
6.642133E+03	1.324992E-15	3.705869E-17
6.652106E+03	1.317184E-15	3.660852E-17
6.662079E+03	1.307822E-15	3.611777E-17
6.672052E+03	1.297123E-15	3.559320E-17
6.682025E+03	1.285327E-15	3.504213E-17
6.691999E+03	1.272673E-15	3.447163E-17
6.701972E+03	1.259394E-15	3.388845E-17
6.711945E+03	1.245724E-15	3.329926E-17
6.721918E+03	1.231850E-15	3.270924E-17
6.731891E+03	1.217955E-15	3.212334E-17
6.741864E+03	1.204183E-15	3.154544E-17
6.751838E+03	1.190708E-15	3.097999E-17
6.761811E+03	1.177631E-15	3.042950E-17
6.771784E+03	1.165051E-15	2.989630E-17
6.781757E+03	1.153045E-15	2.938216E-17
6.791730E+03	1.141673E-15	2.888831E-17
6.801703E+03	1.130963E-15	2.841517E-17
6.811677E+03	1.120962E-15	2.796357E-17
6.821650E+03	1.111686E-15	2.753357E-17
6.831623E+03	1.103143E-15	2.712501E-17
6.841596E+03	1.095315E-15	2.673710E-17
6.851569E+03	1.088193E-15	2.636926E-17
6.861542E+03	1.081775E-15	2.602115E-17
6.871516E+03	1.076027E-15	2.569156E-17
6.881489E+03	1.070922E-15	2.537960E-17
6.891462E+03	1.066449E-15	2.508467E-17
6.901435E+03	1.062562E-15	2.480539E-17
6.911408E+03	1.059213E-15	2.454043E-17
6.921381E+03	1.056399E-15	2.428945E-17
6.931355E+03	1.054056E-15	2.405076E-17
6.941328E+03	1.052163E-15	2.382371E-17
6.951301E+03	1.050686E-15	2.360734E-17
6.961274E+03	1.049591E-15	2.340074E-17
6.971247E+03	1.048830E-15	2.320272E-17
6.981221E+03	1.048372E-15	2.301247E-17
6.991194E+03	1.048203E-15	2.282959E-17
7.001167E+03	1.048280E-15	2.265309E-17
7.011140E+03	1.048578E-15	2.248238E-17
7.021113E+03	1.049074E-15	2.231695E-17
7.031086E+03	1.049751E-15	2.215639E-17
7.041060E+03	1.050590E-15	2.200031E-17
7.051033E+03	1.051577E-15	2.184844E-17
7.061006E+03	1.052685E-15	2.170023E-17
7.070979E+03	1.053920E-15	2.155582E-17
7.080952E+03	1.055272E-15	2.141509E-17
7.090925E+03	1.056720E-15	2.127761E-17
7.100899E+03	1.058272E-15	2.114365E-17
7.110872E+03	1.059891E-15	2.101251E-17
7.120845E+03	1.061603E-15	2.088479E-17
7.130818E+03	1.063385E-15	2.076014E-17
7.140791E+03	1.065231E-15	2.063851E-17
7.150764E+03	1.067150E-15	2.052017E-17
7.160738E+03	1.069082E-15	2.040410E-17
7.170711E+03	1.071068E-15	2.029120E-17
7.180684E+03	1.073062E-15	2.018074E-17
7.190657E+03	1.075070E-15	2.007294E-17
7.200630E+03	1.077080E-15	1.996772E-17
7.210603E+03	1.079059E-15	1.986467E-17
7.220577E+03	1.080996E-15	1.976372E-17
7.230550E+03	1.082894E-15	1.966511E-17
7.240523E+03	1.084722E-15	1.956847E-17
7.250496E+03	1.086469E-15	1.947378E-17
7.260469E+03	1.088124E-15	1.938104E-17
7.270443E+03	1.089677E-15	1.929028E-17
7.280416E+03	1.091138E-15	1.920187E-17
7.290389E+03	1.092466E-15	1.911532E-17
7.300362E+03	1.093676E-15	1.903108E-17
7.310335E+03	1.094768E-15	1.894934E-17
7.320308E+03	1.095743E-15	1.887036E-17
7.330282E+03	1.096591E-15	1.879413E-17
7.340255E+03	1.097352E-15	1.872156E-17
7.350228E+03	1.097985E-15	1.865212E-17
7.360201E+03	1.098553E-15	1.858707E-17
7.370174E+03	1.099016E-15	1.852591E-17
7.380147E+03	1.099439E-15	1.846990E-17
7.390121E+03	1.099782E-15	1.841854E-17
7.400094E+03	1.100094E-15	1.837280E-17
7.410067E+03	1.100371E-15	1.833275E-17
7.420040E+03	1.100628E-15	1.829879E-17
7.430013E+03	1.100881E-15	1.827132E-17
7.439986E+03	1.101152E-15	1.825080E-17
7.449960E+03	1.101463E-15	1.823774E-17
7.459933E+03	1.101823E-15	1.823240E-17
7.469906E+03	1.102300E-15	1.823598E-17
7.479879E+03	1.102886E-15	1.824836E-17
7.489852E+03	1.103641E-15	1.827048E-17
7.499825E+03	1.104555E-15	1.830210E-17
7.509799E+03	1.105644E-15	1.834342E-17
7.519772E+03	1.106875E-15	1.839382E-17
7.529745E+03	1.108231E-15	1.845297E-17
7.539718E+03	1.109736E-15	1.852116E-17
7.549691E+03	1.111340E-15	1.859751E-17
7.559665E+03	1.113073E-15	1.868243E-17
7.569638E+03	1.114911E-15	1.877544E-17
7.579611E+03	1.116833E-15	1.887609E-17
7.589584E+03	1.118895E-15	1.898526E-17
7.599557E+03	1.121039E-15	1.910190E-17
7.609530E+03	1.123306E-15	1.922659E-17
7.619504E+03	1.125697E-15	1.935927E-17
7.629477E+03	1.128190E-15	1.949950E-17
7.639450E+03	1.130805E-15	1.964754E-17
7.649423E+03	1.133540E-15	1.980324E-17
7.659396E+03	1.136368E-15	1.996611E-17
7.669369E+03	1.139323E-15	2.013664E-17
7.679343E+03	1.142357E-15	2.031390E-17
7.689316E+03	1.145499E-15	2.049832E-17
7.699289E+03	1.148714E-15	2.068921E-17
7.709262E+03	1.151984E-15	2.088617E-17
7.719235E+03	1.155292E-15	2.108877E-17
7.729208E+03	1.158633E-15	2.129688E-17
7.739182E+03	1.161964E-15	2.150955E-17
