#wls	flux	fluxerr
1.595708E+03	4.769906E-19	1.978218E-20
1.635600E+03	5.003793E-19	2.071240E-20
1.675493E+03	5.184692E-19	2.141899E-20
1.715386E+03	5.308744E-19	2.188722E-20
1.755278E+03	5.366586E-19	2.207990E-20
1.795171E+03	5.336596E-19	2.190991E-20
1.835064E+03	5.199765E-19	2.130165E-20
1.874956E+03	4.938226E-19	2.018505E-20
1.914849E+03	4.543815E-19	1.853037E-20
1.954742E+03	4.038465E-19	1.643081E-20
1.994634E+03	3.467004E-19	1.407183E-20
2.034527E+03	2.915601E-19	1.180461E-20
2.074420E+03	2.474779E-19	9.994475E-21
2.114312E+03	2.220677E-19	8.945030E-21
2.154205E+03	2.198409E-19	8.831809E-21
2.194098E+03	2.437281E-19	9.764789E-21
2.233991E+03	2.962869E-19	1.183741E-20
2.273883E+03	3.797906E-19	1.513023E-20
2.313776E+03	4.948309E-19	1.965553E-20
2.353669E+03	6.399110E-19	2.534214E-20
2.393561E+03	8.123252E-19	3.207140E-20
2.433454E+03	1.008269E-18	3.968225E-20
2.473347E+03	1.225768E-18	4.808701E-20
2.513239E+03	1.462244E-18	5.717485E-20
2.553132E+03	1.717436E-18	6.692646E-20
2.593025E+03	1.991746E-18	7.734791E-20
2.632917E+03	2.285155E-18	8.842858E-20
2.672810E+03	2.599791E-18	1.002402E-19
2.712703E+03	2.937091E-18	1.128265E-19
2.752596E+03	3.299490E-18	1.262681E-19
2.792488E+03	3.690689E-18	1.406923E-19
2.832381E+03	4.112306E-18	1.561443E-19
2.872274E+03	4.570767E-18	1.728498E-19
2.912166E+03	5.067475E-18	1.908410E-19
2.952059E+03	5.611288E-18	2.104278E-19
2.991952E+03	6.205654E-18	2.317120E-19
3.001925E+03	6.362810E-18	2.373196E-19
3.011898E+03	6.524631E-18	2.430871E-19
3.021871E+03	6.690024E-18	2.489730E-19
3.031844E+03	6.859552E-18	2.549979E-19
3.041818E+03	7.035906E-18	2.612609E-19
3.051791E+03	7.219943E-18	2.677929E-19
3.061764E+03	7.411440E-18	2.745847E-19
3.071737E+03	7.611500E-18	2.816760E-19
3.081710E+03	7.819993E-18	2.890608E-19
3.091683E+03	8.035462E-18	2.966841E-19
3.101657E+03	8.259110E-18	3.045894E-19
3.111630E+03	8.490852E-18	3.127723E-19
3.121603E+03	8.729208E-18	3.211772E-19
3.131576E+03	8.975480E-18	3.298510E-19
3.141549E+03	9.229619E-18	3.387906E-19
3.151522E+03	9.491592E-18	3.479939E-19
3.161496E+03	9.761368E-18	3.574585E-19
3.171469E+03	1.003893E-17	3.671825E-19
3.181442E+03	1.032427E-17	3.771647E-19
3.191415E+03	1.061584E-17	3.873473E-19
3.201388E+03	1.091834E-17	3.979005E-19
3.211361E+03	1.122711E-17	4.086533E-19
3.221335E+03	1.154540E-17	4.197223E-19
3.231308E+03	1.187000E-17	4.309904E-19
3.241281E+03	1.220594E-17	4.426386E-19
3.251254E+03	1.255004E-17	4.545498E-19
3.261227E+03	1.290238E-17	4.667260E-19
3.271200E+03	1.326482E-17	4.792328E-19
3.281174E+03	1.363752E-17	4.920746E-19
3.291147E+03	1.401890E-17	5.051927E-19
3.301120E+03	1.441090E-17	5.186557E-19
3.311093E+03	1.481374E-17	5.324698E-19
3.321066E+03	1.522764E-17	5.466415E-19
3.331040E+03	1.565287E-17	5.611781E-19
3.341013E+03	1.609156E-17	5.761547E-19
3.350986E+03	1.654022E-17	5.914441E-19
3.360959E+03	1.700295E-17	6.071913E-19
3.370932E+03	1.747816E-17	6.233373E-19
3.380905E+03	1.796814E-17	6.399615E-19
3.390879E+03	1.847328E-17	6.570759E-19
3.400852E+03	1.899197E-17	6.746203E-19
3.410825E+03	1.952662E-17	6.926785E-19
3.420798E+03	2.007766E-17	7.112631E-19
3.430771E+03	2.064555E-17	7.303877E-19
3.440744E+03	2.123075E-17	7.500662E-19
3.450718E+03	2.183375E-17	7.703126E-19
3.460691E+03	2.245723E-17	7.912187E-19
3.470664E+03	2.310175E-17	8.128011E-19
3.480637E+03	2.376570E-17	8.350000E-19
3.490610E+03	2.444964E-17	8.578314E-19
3.500583E+03	2.515865E-17	8.814703E-19
3.510557E+03	2.589115E-17	9.058577E-19
3.520530E+03	2.664780E-17	9.310128E-19
3.530503E+03	2.742929E-17	9.569556E-19
3.540476E+03	2.823867E-17	9.837883E-19
3.550449E+03	2.907431E-17	1.011450E-18
3.560422E+03	2.994178E-17	1.040130E-18
3.570396E+03	3.083706E-17	1.069683E-18
3.580369E+03	3.176335E-17	1.100216E-18
3.590342E+03	3.272148E-17	1.131753E-18
3.600315E+03	3.371481E-17	1.164404E-18
3.610288E+03	3.474170E-17	1.198107E-18
3.620261E+03	3.580556E-17	1.232975E-18
3.630235E+03	3.690732E-17	1.269032E-18
3.640208E+03	3.804790E-17	1.306305E-18
3.650181E+03	3.922822E-17	1.344818E-18
3.660154E+03	4.044919E-17	1.384597E-18
3.670127E+03	4.171443E-17	1.425759E-18
3.680101E+03	4.302216E-17	1.468234E-18
3.690074E+03	4.437603E-17	1.512142E-18
3.700047E+03	4.577696E-17	1.557505E-18
3.710020E+03	4.722585E-17	1.604346E-18
3.719993E+03	4.872358E-17	1.652687E-18
3.729966E+03	5.027385E-17	1.702646E-18
3.739940E+03	5.187461E-17	1.754144E-18
3.749913E+03	5.352955E-17	1.807298E-18
3.759886E+03	5.523941E-17	1.862124E-18
3.769859E+03	5.700186E-17	1.918533E-18
3.779832E+03	5.882353E-17	1.976741E-18
3.789805E+03	6.070505E-17	2.036758E-18
3.799779E+03	6.264071E-17	2.098384E-18
3.809752E+03	6.464024E-17	2.161933E-18
3.819725E+03	6.669768E-17	2.227198E-18
3.829698E+03	6.881640E-17	2.294280E-18
3.839671E+03	7.099652E-17	2.363174E-18
3.849644E+03	7.323804E-17	2.433868E-18
3.859618E+03	7.554082E-17	2.506349E-18
3.869591E+03	7.790798E-17	2.580708E-18
3.879564E+03	8.033924E-17	2.656927E-18
3.889537E+03	8.283077E-17	2.734868E-18
3.899510E+03	8.538536E-17	2.814612E-18
3.909483E+03	8.800240E-17	2.896129E-18
3.919457E+03	9.068460E-17	2.979498E-18
3.929430E+03	9.342408E-17	3.064449E-18
3.939403E+03	9.622324E-17	3.151051E-18
3.949376E+03	9.908466E-17	3.239378E-18
3.959349E+03	1.020035E-16	3.329263E-18
3.969323E+03	1.049787E-16	3.420659E-18
3.979296E+03	1.080125E-16	3.513632E-18
3.989269E+03	1.111036E-16	3.608133E-18
3.999242E+03	1.142472E-16	3.703988E-18
4.009215E+03	1.174416E-16	3.801141E-18
4.019188E+03	1.206934E-16	3.899794E-18
4.029162E+03	1.239898E-16	3.999522E-18
4.039135E+03	1.273373E-16	4.100531E-18
4.049108E+03	1.307349E-16	4.202780E-18
4.059081E+03	1.341776E-16	4.306101E-18
4.069054E+03	1.376688E-16	4.410592E-18
4.079027E+03	1.412037E-16	4.516095E-18
4.089001E+03	1.447819E-16	4.622586E-18
4.098974E+03	1.484032E-16	4.730055E-18
4.108947E+03	1.520674E-16	4.838492E-18
4.118920E+03	1.557747E-16	4.947890E-18
4.128893E+03	1.595217E-16	5.058137E-18
4.138866E+03	1.633087E-16	5.169241E-18
4.148840E+03	1.671409E-16	5.281352E-18
4.158813E+03	1.710154E-16	5.394378E-18
4.168786E+03	1.749295E-16	5.508224E-18
4.178759E+03	1.788849E-16	5.622938E-18
4.188732E+03	1.828875E-16	5.738703E-18
4.198705E+03	1.869271E-16	5.855190E-18
4.208679E+03	1.910185E-16	5.972853E-18
4.218652E+03	1.951476E-16	6.091251E-18
4.228625E+03	1.993297E-16	6.210849E-18
4.238598E+03	2.035551E-16	6.331343E-18
4.248571E+03	2.078310E-16	6.452947E-18
4.258545E+03	2.121522E-16	6.575496E-18
4.268518E+03	2.165263E-16	6.699215E-18
4.278491E+03	2.209521E-16	6.824064E-18
4.288464E+03	2.254249E-16	6.949891E-18
4.298437E+03	2.299564E-16	7.077046E-18
4.308410E+03	2.345375E-16	7.205242E-18
4.318384E+03	2.391758E-16	7.334711E-18
4.328357E+03	2.438706E-16	7.465423E-18
4.338330E+03	2.486170E-16	7.597214E-18
4.348303E+03	2.534225E-16	7.730317E-18
4.358276E+03	2.582823E-16	7.864569E-18
4.368249E+03	2.631953E-16	7.999935E-18
4.378223E+03	2.681693E-16	8.136646E-18
4.388196E+03	2.731944E-16	8.274394E-18
4.398169E+03	2.782775E-16	8.413381E-18
4.408142E+03	2.834122E-16	8.553411E-18
4.418115E+03	2.886010E-16	8.694548E-18
4.428088E+03	2.938324E-16	8.836446E-18
4.438062E+03	2.991125E-16	8.979281E-18
4.448035E+03	3.044381E-16	9.122955E-18
4.458008E+03	3.097964E-16	9.267080E-18
4.467981E+03	3.151968E-16	9.411938E-18
4.477954E+03	3.206301E-16	9.557248E-18
4.487927E+03	3.260907E-16	9.702843E-18
4.497901E+03	3.315819E-16	9.848823E-18
4.507874E+03	3.370973E-16	9.994994E-18
4.517847E+03	3.426340E-16	1.014128E-17
4.527820E+03	3.481848E-16	1.028745E-17
4.537793E+03	3.537455E-16	1.043339E-17
4.547767E+03	3.593121E-16	1.057899E-17
4.557740E+03	3.648754E-16	1.072397E-17
4.567713E+03	3.704349E-16	1.086832E-17
4.577686E+03	3.759807E-16	1.101175E-17
4.587659E+03	3.815068E-16	1.115409E-17
4.597632E+03	3.870027E-16	1.129505E-17
4.607606E+03	3.924723E-16	1.143473E-17
4.617579E+03	3.978999E-16	1.157270E-17
4.627552E+03	4.032795E-16	1.170878E-17
4.637525E+03	4.086104E-16	1.184296E-17
4.647498E+03	4.138876E-16	1.197511E-17
4.657471E+03	4.191010E-16	1.210494E-17
4.667445E+03	4.242507E-16	1.223247E-17
4.677418E+03	4.293279E-16	1.235746E-17
4.687391E+03	4.343341E-16	1.247996E-17
4.697364E+03	4.392662E-16	1.259990E-17
4.707337E+03	4.441218E-16	1.271722E-17
4.717310E+03	4.488992E-16	1.283188E-17
4.727284E+03	4.535972E-16	1.294386E-17
4.737257E+03	4.582151E-16	1.305316E-17
4.747230E+03	4.627530E-16	1.315979E-17
4.757203E+03	4.672167E-16	1.326393E-17
4.767176E+03	4.716017E-16	1.336547E-17
4.777149E+03	4.759205E-16	1.346477E-17
4.787123E+03	4.801640E-16	1.356158E-17
4.797096E+03	4.843508E-16	1.365645E-17
4.807069E+03	4.884727E-16	1.374915E-17
4.817042E+03	4.925436E-16	1.384008E-17
4.827015E+03	4.965721E-16	1.392949E-17
4.836989E+03	5.005505E-16	1.401718E-17
4.846962E+03	5.044989E-16	1.410371E-17
4.856935E+03	5.084103E-16	1.418890E-17
4.866908E+03	5.122993E-16	1.427316E-17
4.876881E+03	5.161591E-16	1.435631E-17
4.886854E+03	5.200103E-16	1.443891E-17
4.896828E+03	5.238405E-16	1.452064E-17
4.906801E+03	5.276708E-16	1.460208E-17
4.916774E+03	5.314946E-16	1.468305E-17
4.926747E+03	5.353162E-16	1.476367E-17
4.936720E+03	5.391522E-16	1.484440E-17
4.946693E+03	5.429961E-16	1.492506E-17
4.956667E+03	5.468645E-16	1.500611E-17
4.966640E+03	5.507573E-16	1.508754E-17
4.976613E+03	5.546743E-16	1.516935E-17
4.986586E+03	5.586333E-16	1.525202E-17
4.996559E+03	5.626402E-16	1.533572E-17
5.006532E+03	5.666960E-16	1.542045E-17
5.016506E+03	5.708074E-16	1.550641E-17
5.026479E+03	5.749930E-16	1.559408E-17
5.036452E+03	5.792483E-16	1.568334E-17
5.046425E+03	5.835926E-16	1.577471E-17
5.056398E+03	5.880272E-16	1.586821E-17
5.066371E+03	5.925660E-16	1.596420E-17
5.076345E+03	5.972101E-16	1.606272E-17
5.086318E+03	6.019796E-16	1.616427E-17
5.096291E+03	6.068758E-16	1.626889E-17
5.106264E+03	6.119054E-16	1.637674E-17
5.116237E+03	6.170820E-16	1.648817E-17
5.126210E+03	6.224184E-16	1.660350E-17
5.136184E+03	6.279142E-16	1.672272E-17
5.146157E+03	6.335751E-16	1.684594E-17
5.156130E+03	6.394188E-16	1.697364E-17
5.166103E+03	6.454364E-16	1.710554E-17
5.176076E+03	6.516514E-16	1.724227E-17
5.186050E+03	6.580531E-16	1.738349E-17
5.196023E+03	6.646499E-16	1.752944E-17
5.205996E+03	6.714495E-16	1.768028E-17
5.215969E+03	6.784451E-16	1.783583E-17
5.225942E+03	6.856496E-16	1.799638E-17
5.235915E+03	6.930538E-16	1.816170E-17
5.245889E+03	7.006552E-16	1.833169E-17
5.255862E+03	7.084644E-16	1.850661E-17
5.265835E+03	7.164696E-16	1.868613E-17
5.275808E+03	7.246658E-16	1.887011E-17
5.285781E+03	7.330543E-16	1.905857E-17
5.295754E+03	7.416288E-16	1.925132E-17
5.305728E+03	7.503899E-16	1.944837E-17
5.315701E+03	7.593232E-16	1.964932E-17
5.325674E+03	7.684287E-16	1.985417E-17
5.335647E+03	7.776997E-16	2.006274E-17
5.345620E+03	7.871370E-16	2.027502E-17
5.355593E+03	7.967258E-16	2.049063E-17
5.365567E+03	8.064683E-16	2.070963E-17
5.375540E+03	8.163510E-16	2.093164E-17
5.385513E+03	8.263945E-16	2.115720E-17
5.395486E+03	8.365706E-16	2.138558E-17
5.405459E+03	8.468945E-16	2.161716E-17
5.415432E+03	8.573663E-16	2.185193E-17
5.425406E+03	8.679788E-16	2.208971E-17
5.435379E+03	8.787532E-16	2.233104E-17
5.445352E+03	8.896777E-16	2.257559E-17
5.455325E+03	9.007783E-16	2.282405E-17
5.465298E+03	9.120472E-16	2.307618E-17
5.475272E+03	9.235161E-16	2.333280E-17
5.485245E+03	9.351806E-16	2.359378E-17
5.495218E+03	9.470243E-16	2.385870E-17
5.505191E+03	9.590171E-16	2.412680E-17
5.515164E+03	9.711204E-16	2.439711E-17
5.525137E+03	9.833147E-16	2.466913E-17
5.535111E+03	9.955732E-16	2.494222E-17
5.545084E+03	1.007870E-15	2.521571E-17
5.555057E+03	1.020181E-15	2.548899E-17
5.565030E+03	1.032473E-15	2.576125E-17
5.575003E+03	1.044724E-15	2.603196E-17
5.584976E+03	1.056927E-15	2.630088E-17
5.594950E+03	1.069052E-15	2.656734E-17
5.604923E+03	1.081075E-15	2.683069E-17
5.614896E+03	1.092991E-15	2.709085E-17
5.624869E+03	1.104778E-15	2.734727E-17
5.634842E+03	1.116436E-15	2.759997E-17
5.644815E+03	1.127936E-15	2.784821E-17
5.654789E+03	1.139269E-15	2.809181E-17
5.664762E+03	1.150441E-15	2.833092E-17
5.674735E+03	1.161437E-15	2.856516E-17
5.684708E+03	1.172241E-15	2.879418E-17
5.694681E+03	1.182852E-15	2.901792E-17
5.704654E+03	1.193266E-15	2.923635E-17
5.714628E+03	1.203483E-15	2.944943E-17
5.724601E+03	1.213491E-15	2.965687E-17
5.734574E+03	1.223286E-15	2.985865E-17
5.744547E+03	1.232857E-15	3.005443E-17
5.754520E+03	1.242201E-15	3.024419E-17
5.764494E+03	1.251315E-15	3.042788E-17
5.774467E+03	1.260184E-15	3.060510E-17
5.784440E+03	1.268790E-15	3.077546E-17
5.794413E+03	1.277139E-15	3.093912E-17
5.804386E+03	1.285212E-15	3.109561E-17
5.814359E+03	1.292999E-15	3.124471E-17
5.824333E+03	1.300478E-15	3.138589E-17
5.834306E+03	1.307623E-15	3.151858E-17
5.844279E+03	1.314435E-15	3.164277E-17
5.854252E+03	1.320885E-15	3.175782E-17
5.864225E+03	1.326946E-15	3.186309E-17
5.874198E+03	1.332602E-15	3.195820E-17
5.884172E+03	1.337836E-15	3.204279E-17
5.894145E+03	1.342607E-15	3.211587E-17
5.904118E+03	1.346923E-15	3.217772E-17
5.914091E+03	1.350744E-15	3.222739E-17
5.924064E+03	1.354057E-15	3.226456E-17
5.934037E+03	1.356835E-15	3.228867E-17
5.944011E+03	1.359081E-15	3.229983E-17
5.953984E+03	1.360774E-15	3.229754E-17
5.963957E+03	1.361894E-15	3.228141E-17
5.973930E+03	1.362438E-15	3.225139E-17
5.983903E+03	1.362418E-15	3.220781E-17
5.993876E+03	1.361811E-15	3.215017E-17
6.003850E+03	1.360622E-15	3.207862E-17
6.013823E+03	1.358872E-15	3.199371E-17
6.023796E+03	1.356558E-15	3.189544E-17
6.033769E+03	1.353682E-15	3.178385E-17
6.043742E+03	1.350286E-15	3.166002E-17
6.053716E+03	1.346364E-15	3.152381E-17
6.063689E+03	1.341936E-15	3.137579E-17
6.073662E+03	1.337054E-15	3.121715E-17
6.083635E+03	1.331717E-15	3.104795E-17
6.093608E+03	1.325980E-15	3.086949E-17
6.103581E+03	1.319846E-15	3.068189E-17
6.113555E+03	1.313372E-15	3.048652E-17
6.123528E+03	1.306593E-15	3.028419E-17
6.133501E+03	1.299542E-15	3.007571E-17
6.143474E+03	1.292254E-15	2.986192E-17
6.153447E+03	1.284778E-15	2.964396E-17
6.163420E+03	1.277152E-15	2.942272E-17
6.173394E+03	1.269424E-15	2.919934E-17
6.183367E+03	1.261631E-15	2.897469E-17
6.193340E+03	1.253838E-15	2.875022E-17
6.203313E+03	1.246056E-15	2.852621E-17
6.213286E+03	1.238333E-15	2.830377E-17
6.223259E+03	1.230733E-15	2.808432E-17
6.233233E+03	1.223276E-15	2.786834E-17
6.243206E+03	1.216011E-15	2.765691E-17
6.253179E+03	1.208958E-15	2.745046E-17
6.263152E+03	1.202173E-15	2.725024E-17
6.273125E+03	1.195686E-15	2.705692E-17
6.283098E+03	1.189538E-15	2.687136E-17
6.293072E+03	1.183754E-15	2.669409E-17
6.303045E+03	1.178357E-15	2.652561E-17
6.313018E+03	1.173380E-15	2.636661E-17
6.322991E+03	1.168852E-15	2.621768E-17
6.332964E+03	1.164800E-15	2.607940E-17
6.342937E+03	1.161223E-15	2.595163E-17
6.352911E+03	1.158152E-15	2.583505E-17
6.362884E+03	1.155590E-15	2.572966E-17
6.372857E+03	1.153535E-15	2.563535E-17
6.382830E+03	1.151995E-15	2.555223E-17
6.392803E+03	1.150973E-15	2.548028E-17
6.402777E+03	1.150453E-15	2.541911E-17
6.412750E+03	1.150404E-15	2.536795E-17
6.422723E+03	1.150826E-15	2.532675E-17
6.432696E+03	1.151691E-15	2.529483E-17
6.442669E+03	1.152966E-15	2.527138E-17
6.452642E+03	1.154612E-15	2.525551E-17
6.462616E+03	1.156600E-15	2.524654E-17
6.472589E+03	1.158885E-15	2.524340E-17
6.482562E+03	1.161429E-15	2.524527E-17
6.492535E+03	1.164194E-15	2.525125E-17
6.502508E+03	1.167111E-15	2.525982E-17
6.512481E+03	1.170150E-15	2.527032E-17
6.522455E+03	1.173237E-15	2.528111E-17
6.532428E+03	1.176321E-15	2.529109E-17
6.542401E+03	1.179323E-15	2.529857E-17
6.552374E+03	1.182194E-15	2.530250E-17
6.562347E+03	1.184874E-15	2.530162E-17
6.572320E+03	1.187307E-15	2.529477E-17
6.582294E+03	1.189443E-15	2.528091E-17
6.592267E+03	1.191222E-15	2.525882E-17
6.602240E+03	1.192635E-15	2.522835E-17
6.612213E+03	1.193622E-15	2.518830E-17
6.622186E+03	1.194175E-15	2.513855E-17
6.632159E+03	1.194279E-15	2.507886E-17
6.642133E+03	1.193911E-15	2.500884E-17
6.652106E+03	1.193073E-15	2.492860E-17
6.662079E+03	1.191788E-15	2.483868E-17
6.672052E+03	1.190057E-15	2.473918E-17
6.682025E+03	1.187902E-15	2.463064E-17
6.691999E+03	1.185349E-15	2.451369E-17
6.701972E+03	1.182433E-15	2.438908E-17
6.711945E+03	1.179189E-15	2.425763E-17
6.721918E+03	1.175643E-15	2.411993E-17
6.731891E+03	1.171837E-15	2.397687E-17
6.741864E+03	1.167828E-15	2.382972E-17
6.751838E+03	1.163662E-15	2.367941E-17
6.761811E+03	1.159354E-15	2.352629E-17
6.771784E+03	1.154960E-15	2.337155E-17
6.781757E+03	1.150524E-15	2.321608E-17
6.791730E+03	1.146086E-15	2.306072E-17
6.801703E+03	1.141685E-15	2.290624E-17
6.811677E+03	1.137341E-15	2.275307E-17
6.821650E+03	1.133102E-15	2.260215E-17
6.831623E+03	1.128985E-15	2.245382E-17
6.841596E+03	1.125016E-15	2.230859E-17
6.851569E+03	1.121220E-15	2.216692E-17
6.861542E+03	1.117618E-15	2.202924E-17
6.871516E+03	1.114243E-15	2.189616E-17
6.881489E+03	1.111083E-15	2.176739E-17
6.891462E+03	1.108150E-15	2.164317E-17
6.901435E+03	1.105483E-15	2.152423E-17
6.911408E+03	1.103062E-15	2.141013E-17
6.921381E+03	1.100893E-15	2.130094E-17
6.931355E+03	1.098978E-15	2.119670E-17
6.941328E+03	1.097335E-15	2.109771E-17
6.951301E+03	1.095949E-15	2.100364E-17
6.961274E+03	1.094817E-15	2.091441E-17
6.971247E+03	1.093938E-15	2.082994E-17
6.981221E+03	1.093306E-15	2.075011E-17
6.991194E+03	1.092900E-15	2.067449E-17
7.001167E+03	1.092730E-15	2.060322E-17
7.011140E+03	1.092788E-15	2.053613E-17
7.021113E+03	1.093049E-15	2.047274E-17
7.031086E+03	1.093521E-15	2.041314E-17
7.041060E+03	1.094178E-15	2.035686E-17
7.051033E+03	1.095009E-15	2.030368E-17
7.061006E+03	1.096005E-15	2.025338E-17
7.070979E+03	1.097169E-15	2.020603E-17
7.080952E+03	1.098459E-15	2.016083E-17
7.090925E+03	1.099894E-15	2.011814E-17
7.100899E+03	1.101431E-15	2.007714E-17
7.110872E+03	1.103072E-15	2.003791E-17
7.120845E+03	1.104806E-15	2.000021E-17
7.130818E+03	1.106604E-15	1.996353E-17
7.140791E+03	1.108468E-15	1.992794E-17
7.150764E+03	1.110371E-15	1.989292E-17
7.160738E+03	1.112314E-15	1.985856E-17
7.170711E+03	1.114269E-15	1.982435E-17
7.180684E+03	1.116241E-15	1.979039E-17
7.190657E+03	1.118185E-15	1.975591E-17
7.200630E+03	1.120121E-15	1.972133E-17
7.210603E+03	1.122024E-15	1.968618E-17
7.220577E+03	1.123882E-15	1.965033E-17
7.230550E+03	1.125688E-15	1.961368E-17
7.240523E+03	1.127433E-15	1.957611E-17
7.250496E+03	1.129111E-15	1.953757E-17
7.260469E+03	1.130718E-15	1.949801E-17
7.270443E+03	1.132251E-15	1.945743E-17
7.280416E+03	1.133691E-15	1.941556E-17
7.290389E+03	1.135056E-15	1.937276E-17
7.300362E+03	1.136349E-15	1.932912E-17
7.310335E+03	1.137575E-15	1.928475E-17
7.320308E+03	1.138724E-15	1.923956E-17
7.330282E+03	1.139822E-15	1.919401E-17
7.340255E+03	1.140863E-15	1.914806E-17
7.350228E+03	1.141877E-15	1.910225E-17
7.360201E+03	1.142881E-15	1.905690E-17
7.370174E+03	1.143855E-15	1.901173E-17
7.380147E+03	1.144870E-15	1.896797E-17
7.390121E+03	1.145895E-15	1.892510E-17
7.400094E+03	1.146984E-15	1.888408E-17
7.410067E+03	1.148142E-15	1.884500E-17
7.420040E+03	1.149407E-15	1.880855E-17
7.430013E+03	1.150767E-15	1.877453E-17
7.439986E+03	1.152279E-15	1.874388E-17
7.449960E+03	1.153928E-15	1.871641E-17
7.459933E+03	1.155768E-15	1.869302E-17
7.469906E+03	1.157819E-15	1.867404E-17
7.479879E+03	1.160061E-15	1.865916E-17
7.489852E+03	1.162543E-15	1.864917E-17
7.499825E+03	1.165252E-15	1.864390E-17
7.509799E+03	1.168185E-15	1.864324E-17
7.519772E+03	1.171352E-15	1.864740E-17
7.529745E+03	1.174742E-15	1.865619E-17
7.539718E+03	1.178324E-15	1.866915E-17
7.549691E+03	1.182123E-15	1.868664E-17
7.559665E+03	1.186084E-15	1.870785E-17
7.569638E+03	1.190208E-15	1.873281E-17
7.579611E+03	1.194497E-15	1.876155E-17
7.589584E+03	1.198911E-15	1.879349E-17
7.599557E+03	1.203430E-15	1.882835E-17
7.609530E+03	1.208052E-15	1.886610E-17
7.619504E+03	1.212736E-15	1.890617E-17
7.629477E+03	1.217478E-15	1.894852E-17
7.639450E+03	1.222257E-15	1.899287E-17
7.649423E+03	1.227029E-15	1.903857E-17
7.659396E+03	1.231790E-15	1.908561E-17
7.669369E+03	1.236537E-15	1.913400E-17
7.679343E+03	1.241205E-15	1.918278E-17
7.689316E+03	1.245791E-15	1.923195E-17
7.699289E+03	1.250292E-15	1.928152E-17
7.709262E+03	1.254642E-15	1.933053E-17
7.719235E+03	1.258882E-15	1.937965E-17
7.729208E+03	1.262926E-15	1.942762E-17
7.739182E+03	1.266793E-15	1.947480E-17
