#wls	flux	fluxerr
1.595708E+03	4.670408E-19	9.445718E-23
1.635600E+03	4.926039E-19	9.962722E-23
1.675493E+03	5.133805E-19	1.038292E-22
1.715386E+03	5.284797E-19	1.068830E-22
1.755278E+03	5.368436E-19	1.085745E-22
1.795171E+03	5.363947E-19	1.084837E-22
1.835064E+03	5.248662E-19	1.061521E-22
1.874956E+03	5.003196E-19	1.011877E-22
1.914849E+03	4.621886E-19	9.347584E-23
1.954742E+03	4.118623E-19	8.329755E-23
1.994634E+03	3.545840E-19	7.171323E-23
2.034527E+03	2.988730E-19	6.044590E-23
2.074420E+03	2.541138E-19	5.139353E-23
2.114312E+03	2.283673E-19	4.618639E-23
2.154205E+03	2.262920E-19	4.576667E-23
2.194098E+03	2.509891E-19	5.076157E-23
2.233991E+03	3.053151E-19	6.174878E-23
2.273883E+03	3.912982E-19	7.913853E-23
2.313776E+03	5.097136E-19	1.030876E-22
2.353669E+03	6.590058E-19	1.332814E-22
2.393561E+03	8.358607E-19	1.690496E-22
2.433454E+03	1.037047E-18	2.097386E-22
2.473347E+03	1.259277E-18	2.546838E-22
2.513239E+03	1.500849E-18	3.035408E-22
2.553132E+03	1.761266E-18	3.562091E-22
2.593025E+03	2.039929E-18	4.125676E-22
2.632917E+03	2.337268E-18	4.727032E-22
2.672810E+03	2.655630E-18	5.370908E-22
2.712703E+03	2.995871E-18	6.059031E-22
2.752596E+03	3.360560E-18	6.796600E-22
2.792488E+03	3.750898E-18	7.586044E-22
2.832381E+03	4.171997E-18	8.437700E-22
2.872274E+03	4.625723E-18	9.355344E-22
2.912166E+03	5.116148E-18	1.034721E-21
2.952059E+03	5.645430E-18	1.141766E-21
2.991952E+03	6.220845E-18	1.258142E-21
3.001925E+03	6.371793E-18	1.288670E-21
3.011898E+03	6.526368E-18	1.319932E-21
3.021871E+03	6.684653E-18	1.351945E-21
3.031844E+03	6.845858E-18	1.384548E-21
3.041818E+03	7.012754E-18	1.418302E-21
3.051791E+03	7.187408E-18	1.453625E-21
3.061764E+03	7.368175E-18	1.490185E-21
3.071737E+03	7.556235E-18	1.528219E-21
3.081710E+03	7.751399E-18	1.567690E-21
3.091683E+03	7.953504E-18	1.608565E-21
3.101657E+03	8.160859E-18	1.650502E-21
3.111630E+03	8.376358E-18	1.694086E-21
3.121603E+03	8.596785E-18	1.738666E-21
3.131576E+03	8.823544E-18	1.784527E-21
3.141549E+03	9.056531E-18	1.831648E-21
3.151522E+03	9.295650E-18	1.880009E-21
3.161496E+03	9.539127E-18	1.929251E-21
3.171469E+03	9.790215E-18	1.980033E-21
3.181442E+03	1.004720E-17	2.032006E-21
3.191415E+03	1.031003E-17	2.085162E-21
3.201388E+03	1.057864E-17	2.139489E-21
3.211361E+03	1.085302E-17	2.194980E-21
3.221335E+03	1.113497E-17	2.252003E-21
3.231308E+03	1.142269E-17	2.310193E-21
3.241281E+03	1.171617E-17	2.369550E-21
3.251254E+03	1.201543E-17	2.430073E-21
3.261227E+03	1.232437E-17	2.492556E-21
3.271200E+03	1.263726E-17	2.555836E-21
3.281174E+03	1.295806E-17	2.620716E-21
3.291147E+03	1.328689E-17	2.687221E-21
3.301120E+03	1.362389E-17	2.755378E-21
3.311093E+03	1.396712E-17	2.824796E-21
3.321066E+03	1.432089E-17	2.896343E-21
3.331040E+03	1.468115E-17	2.969204E-21
3.341013E+03	1.505016E-17	3.043836E-21
3.350986E+03	1.543031E-17	3.120719E-21
3.360959E+03	1.581742E-17	3.199010E-21
3.370932E+03	1.621610E-17	3.279643E-21
3.380905E+03	1.662438E-17	3.362215E-21
3.390879E+03	1.704476E-17	3.447235E-21
3.400852E+03	1.747522E-17	3.534294E-21
3.410825E+03	1.791834E-17	3.623914E-21
3.420798E+03	1.837446E-17	3.716161E-21
3.430771E+03	1.884145E-17	3.810610E-21
3.440744E+03	1.932205E-17	3.907808E-21
3.450718E+03	1.981902E-17	4.008319E-21
3.460691E+03	2.032783E-17	4.111223E-21
3.470664E+03	2.085376E-17	4.217590E-21
3.480637E+03	2.139471E-17	4.326996E-21
3.490610E+03	2.195362E-17	4.440032E-21
3.500583E+03	2.253093E-17	4.556790E-21
3.510557E+03	2.312445E-17	4.676828E-21
3.520530E+03	2.373721E-17	4.800756E-21
3.530503E+03	2.436967E-17	4.928669E-21
3.540476E+03	2.502229E-17	5.060659E-21
3.550449E+03	2.569553E-17	5.196818E-21
3.560422E+03	2.639260E-17	5.337799E-21
3.570396E+03	2.711408E-17	5.483715E-21
3.580369E+03	2.785767E-17	5.634103E-21
3.590342E+03	2.862668E-17	5.789632E-21
3.600315E+03	2.942167E-17	5.950416E-21
3.610288E+03	3.024024E-17	6.115968E-21
3.620261E+03	3.109171E-17	6.288174E-21
3.630235E+03	3.196782E-17	6.465363E-21
3.640208E+03	3.287503E-17	6.648844E-21
3.650181E+03	3.381093E-17	6.838124E-21
3.660154E+03	3.478213E-17	7.034545E-21
3.670127E+03	3.578312E-17	7.236991E-21
3.680101E+03	3.681750E-17	7.446190E-21
3.690074E+03	3.788584E-17	7.662257E-21
3.700047E+03	3.899186E-17	7.885946E-21
3.710020E+03	4.013297E-17	8.116731E-21
3.719993E+03	4.130965E-17	8.354710E-21
3.729966E+03	4.252898E-17	8.601313E-21
3.739940E+03	4.378493E-17	8.855324E-21
3.749913E+03	4.508131E-17	9.117511E-21
3.759886E+03	4.642199E-17	9.388657E-21
3.769859E+03	4.780411E-17	9.668186E-21
3.779832E+03	4.922810E-17	9.956181E-21
3.789805E+03	5.069784E-17	1.025343E-20
3.799779E+03	5.221379E-17	1.056002E-20
3.809752E+03	5.377635E-17	1.087604E-20
3.819725E+03	5.538233E-17	1.120085E-20
3.829698E+03	5.704278E-17	1.153667E-20
3.839671E+03	5.874727E-17	1.188139E-20
3.849644E+03	6.050328E-17	1.223654E-20
3.859618E+03	6.231109E-17	1.260216E-20
3.869591E+03	6.417093E-17	1.297830E-20
3.879564E+03	6.608298E-17	1.336501E-20
3.889537E+03	6.804739E-17	1.376230E-20
3.899510E+03	7.006422E-17	1.417019E-20
3.909483E+03	7.213733E-17	1.458947E-20
3.919457E+03	7.426292E-17	1.501936E-20
3.929430E+03	7.644479E-17	1.546063E-20
3.939403E+03	7.868291E-17	1.591328E-20
3.949376E+03	8.097714E-17	1.637728E-20
3.959349E+03	8.332733E-17	1.685260E-20
3.969323E+03	8.573728E-17	1.734000E-20
3.979296E+03	8.819870E-17	1.783781E-20
3.989269E+03	9.072342E-17	1.834842E-20
3.999242E+03	9.330304E-17	1.887013E-20
4.009215E+03	9.594113E-17	1.940367E-20
4.019188E+03	9.863335E-17	1.994816E-20
4.029162E+03	1.013875E-16	2.050517E-20
4.039135E+03	1.041946E-16	2.107289E-20
4.049108E+03	1.070625E-16	2.165292E-20
4.059081E+03	1.099868E-16	2.224433E-20
4.069054E+03	1.129664E-16	2.284695E-20
4.079027E+03	1.160011E-16	2.346069E-20
4.089001E+03	1.190943E-16	2.408628E-20
4.098974E+03	1.222411E-16	2.472270E-20
4.108947E+03	1.254451E-16	2.537070E-20
4.118920E+03	1.287011E-16	2.602921E-20
4.128893E+03	1.320086E-16	2.669813E-20
4.138866E+03	1.353709E-16	2.737813E-20
4.148840E+03	1.387873E-16	2.806908E-20
4.158813E+03	1.422524E-16	2.876989E-20
4.168786E+03	1.457656E-16	2.948042E-20
4.178759E+03	1.493303E-16	3.020134E-20
4.188732E+03	1.529410E-16	3.093158E-20
4.198705E+03	1.566012E-16	3.167184E-20
4.208679E+03	1.603011E-16	3.242012E-20
4.218652E+03	1.640484E-16	3.317800E-20
4.228625E+03	1.678376E-16	3.394434E-20
4.238598E+03	1.716677E-16	3.471895E-20
4.248571E+03	1.755327E-16	3.550062E-20
4.258545E+03	1.794360E-16	3.629004E-20
4.268518E+03	1.833764E-16	3.708697E-20
4.278491E+03	1.873478E-16	3.789016E-20
4.288464E+03	1.913534E-16	3.870027E-20
4.298437E+03	1.953824E-16	3.951511E-20
4.308410E+03	1.994379E-16	4.033529E-20
4.318384E+03	2.035180E-16	4.116047E-20
4.328357E+03	2.076163E-16	4.198933E-20
4.338330E+03	2.117308E-16	4.282145E-20
4.348303E+03	2.158592E-16	4.365640E-20
4.358276E+03	2.199994E-16	4.449372E-20
4.368249E+03	2.241441E-16	4.533197E-20
4.378223E+03	2.282911E-16	4.617066E-20
4.388196E+03	2.324345E-16	4.700864E-20
4.398169E+03	2.365750E-16	4.784603E-20
4.408142E+03	2.407129E-16	4.868290E-20
4.418115E+03	2.448443E-16	4.951845E-20
4.428088E+03	2.489702E-16	5.035288E-20
4.438062E+03	2.530865E-16	5.118538E-20
4.448035E+03	2.571942E-16	5.201614E-20
4.458008E+03	2.612895E-16	5.284438E-20
4.467981E+03	2.653686E-16	5.366935E-20
4.477954E+03	2.694327E-16	5.449129E-20
4.487927E+03	2.734780E-16	5.530944E-20
4.497901E+03	2.775058E-16	5.612404E-20
4.507874E+03	2.815127E-16	5.693440E-20
4.517847E+03	2.855000E-16	5.774082E-20
4.527820E+03	2.894645E-16	5.854263E-20
4.537793E+03	2.934032E-16	5.933919E-20
4.547767E+03	2.973222E-16	6.013180E-20
4.557740E+03	3.012140E-16	6.091889E-20
4.567713E+03	3.050849E-16	6.170177E-20
4.577686E+03	3.089281E-16	6.247903E-20
4.587659E+03	3.127455E-16	6.325109E-20
4.597632E+03	3.165347E-16	6.401744E-20
4.607606E+03	3.202983E-16	6.477862E-20
4.617579E+03	3.240343E-16	6.553422E-20
4.627552E+03	3.277365E-16	6.628297E-20
4.637525E+03	3.314168E-16	6.702729E-20
4.647498E+03	3.350601E-16	6.776415E-20
4.657471E+03	3.386791E-16	6.849607E-20
4.667445E+03	3.422682E-16	6.922195E-20
4.677418E+03	3.458267E-16	6.994165E-20
4.687391E+03	3.493541E-16	7.065506E-20
4.689817E+03	2.674516E-16	5.409070E-20
4.692673E+03	2.744701E-16	5.551017E-20
4.695530E+03	2.820383E-16	5.704078E-20
4.698386E+03	2.841717E-16	5.747226E-20
4.701243E+03	2.920929E-16	5.907428E-20
4.704099E+03	2.966810E-16	6.000221E-20
4.706955E+03	3.004103E-16	6.075645E-20
4.709812E+03	3.125501E-16	6.321166E-20
4.712668E+03	3.097378E-16	6.264288E-20
4.715524E+03	3.145611E-16	6.361837E-20
4.718382E+03	3.167359E-16	6.405822E-20
4.721238E+03	3.220381E-16	6.513056E-20
4.724094E+03	3.268795E-16	6.610971E-20
4.726951E+03	3.268579E-16	6.610533E-20
4.729807E+03	3.231831E-16	6.536214E-20
4.732663E+03	3.193221E-16	6.458127E-20
4.735519E+03	3.160736E-16	6.392428E-20
4.738377E+03	3.121821E-16	6.313725E-20
4.741232E+03	3.110180E-16	6.290181E-20
4.744089E+03	3.076411E-16	6.221885E-20
4.746946E+03	3.109648E-16	6.289107E-20
4.749802E+03	3.085022E-16	6.239300E-20
4.752658E+03	3.060040E-16	6.188777E-20
4.755515E+03	3.089566E-16	6.248491E-20
4.758371E+03	3.070424E-16	6.209778E-20
4.761227E+03	3.108074E-16	6.285924E-20
4.764084E+03	3.144427E-16	6.359445E-20
4.766941E+03	3.167575E-16	6.406262E-20
4.769796E+03	3.169192E-16	6.409531E-20
4.772654E+03	3.229831E-16	6.532170E-20
4.775510E+03	3.285808E-16	6.645382E-20
4.778366E+03	3.294701E-16	6.663368E-20
4.781223E+03	3.294877E-16	6.663724E-20
4.784079E+03	3.257869E-16	6.588876E-20
4.786935E+03	3.273351E-16	6.620189E-20
4.789791E+03	3.285745E-16	6.645255E-20
4.792649E+03	3.296219E-16	6.666438E-20
4.795505E+03	3.223740E-16	6.519854E-20
4.798361E+03	3.172616E-16	6.416457E-20
4.801218E+03	3.139815E-16	6.350120E-20
4.804074E+03	3.139219E-16	6.348915E-20
4.806930E+03	3.116779E-16	6.303530E-20
4.809787E+03	3.056673E-16	6.181970E-20
4.812643E+03	3.065366E-16	6.199551E-20
4.815499E+03	3.085549E-16	6.240370E-20
4.818356E+03	3.160189E-16	6.391325E-20
4.821213E+03	3.179961E-16	6.431315E-20
4.824069E+03	3.141654E-16	6.353840E-20
4.826926E+03	3.045927E-16	6.160238E-20
4.829782E+03	2.988306E-16	6.043700E-20
4.832638E+03	2.908317E-16	5.881928E-20
4.835495E+03	2.806285E-16	5.675573E-20
4.838351E+03	2.728468E-16	5.518192E-20
4.841207E+03	2.521912E-16	5.100443E-20
4.844063E+03	2.430349E-16	4.915262E-20
4.846920E+03	2.321974E-16	4.696078E-20
4.849777E+03	2.182808E-16	4.414622E-20
4.852633E+03	2.032313E-16	4.110253E-20
4.855490E+03	1.954885E-16	3.953659E-20
4.858346E+03	1.908987E-16	3.860833E-20
4.861202E+03	1.768963E-16	3.577641E-20
4.864059E+03	1.711659E-16	3.461747E-20
4.866915E+03	1.647892E-16	3.332780E-20
4.869772E+03	1.665598E-16	3.368591E-20
4.872628E+03	1.621627E-16	3.279662E-20
4.875485E+03	1.593560E-16	3.222898E-20
4.878341E+03	1.633711E-16	3.304101E-20
4.881198E+03	1.758695E-16	3.556875E-20
4.884054E+03	1.857330E-16	3.756359E-20
4.886910E+03	2.032508E-16	4.110648E-20
4.889767E+03	2.278691E-16	4.608541E-20
4.892623E+03	2.513914E-16	5.084267E-20
4.895479E+03	2.777317E-16	5.616989E-20
4.898336E+03	3.085476E-16	6.240224E-20
4.901193E+03	3.408627E-16	6.893781E-20
4.904049E+03	3.700515E-16	7.484112E-20
4.906905E+03	4.041323E-16	8.173378E-20
4.909762E+03	4.371694E-16	8.841538E-20
4.912618E+03	4.588442E-16	9.279900E-20
4.915474E+03	4.940696E-16	9.992316E-20
4.918331E+03	5.242064E-16	1.060182E-19
4.921187E+03	5.540881E-16	1.120616E-19
4.924044E+03	5.671213E-16	1.146975E-19
4.926901E+03	5.771065E-16	1.167170E-19
4.929757E+03	5.852636E-16	1.183667E-19
4.932613E+03	5.913093E-16	1.195894E-19
4.935470E+03	5.942345E-16	1.201810E-19
4.938326E+03	5.899297E-16	1.193104E-19
4.941182E+03	5.832997E-16	1.179695E-19
4.944039E+03	5.750063E-16	1.162922E-19
4.946896E+03	5.654762E-16	1.143648E-19
4.949751E+03	5.425270E-16	1.097234E-19
4.952608E+03	5.309223E-16	1.073765E-19
4.955465E+03	5.191215E-16	1.049898E-19
4.958321E+03	5.052403E-16	1.021824E-19
4.961177E+03	4.993068E-16	1.009824E-19
4.964034E+03	4.859155E-16	9.827404E-20
4.966891E+03	4.737865E-16	9.582101E-20
4.969746E+03	4.689088E-16	9.483451E-20
4.972604E+03	4.672769E-16	9.450447E-20
4.975460E+03	4.623694E-16	9.351194E-20
4.978316E+03	4.531593E-16	9.164925E-20
4.981173E+03	4.459944E-16	9.020018E-20
4.984029E+03	4.368590E-16	8.835260E-20
4.986885E+03	4.344846E-16	8.787239E-20
4.989742E+03	4.278091E-16	8.652229E-20
4.992598E+03	4.204029E-16	8.502443E-20
4.995454E+03	4.066915E-16	8.225136E-20
4.998311E+03	4.029983E-16	8.150443E-20
5.001168E+03	4.075741E-16	8.242986E-20
5.004024E+03	4.112673E-16	8.317680E-20
5.006880E+03	4.187456E-16	8.468925E-20
5.009737E+03	4.343512E-16	8.784539E-20
5.012593E+03	4.574502E-16	9.251705E-20
5.015449E+03	4.810519E-16	9.729038E-20
5.018306E+03	5.066793E-16	1.024734E-19
5.021162E+03	5.284570E-16	1.068778E-19
5.024018E+03	5.496023E-16	1.111544E-19
5.026876E+03	5.678444E-16	1.148437E-19
5.029732E+03	5.916093E-16	1.196501E-19
5.032588E+03	6.115057E-16	1.236740E-19
5.035445E+03	6.254325E-16	1.264906E-19
5.038301E+03	6.396746E-16	1.293710E-19
5.041157E+03	6.517557E-16	1.318144E-19
5.044014E+03	6.703196E-16	1.355688E-19
5.046870E+03	6.749778E-16	1.365109E-19
5.049727E+03	6.840562E-16	1.383470E-19
5.052583E+03	6.827050E-16	1.380737E-19
5.055440E+03	6.907486E-16	1.397005E-19
5.058296E+03	6.841852E-16	1.383731E-19
5.061152E+03	6.767696E-16	1.368733E-19
5.064009E+03	6.652211E-16	1.345376E-19
5.066865E+03	6.538234E-16	1.322325E-19
5.069721E+03	6.379478E-16	1.290217E-19
5.072578E+03	6.115948E-16	1.236920E-19
5.075434E+03	5.894460E-16	1.192125E-19
5.078291E+03	5.635516E-16	1.139755E-19
5.081147E+03	5.461341E-16	1.104529E-19
5.084004E+03	5.210844E-16	1.053867E-19
5.086860E+03	4.959156E-16	1.002964E-19
5.089717E+03	4.727765E-16	9.561666E-20
5.092573E+03	4.511400E-16	9.124078E-20
5.095429E+03	4.298713E-16	8.693929E-20
5.098287E+03	4.072426E-16	8.236274E-20
5.101142E+03	3.821639E-16	7.729072E-20
5.103999E+03	3.669930E-16	7.422247E-20
5.106856E+03	3.525987E-16	7.131130E-20
5.109712E+03	3.359575E-16	6.794569E-20
5.112568E+03	3.277240E-16	6.628051E-20
5.115425E+03	3.220416E-16	6.513127E-20
5.118281E+03	3.212367E-16	6.496847E-20
5.121137E+03	3.145939E-16	6.362500E-20
5.123993E+03	3.083949E-16	6.237129E-20
5.126851E+03	3.098390E-16	6.266334E-20
5.129706E+03	3.081200E-16	6.231567E-20
5.132563E+03	3.029638E-16	6.127286E-20
5.135420E+03	2.944788E-16	5.955681E-20
5.138276E+03	2.823191E-16	5.709758E-20
5.141132E+03	2.779571E-16	5.621539E-20
5.143989E+03	2.742724E-16	5.547018E-20
5.146845E+03	2.648707E-16	5.356872E-20
5.149701E+03	2.625199E-16	5.309328E-20
5.152558E+03	2.690884E-16	5.442173E-20
5.155415E+03	2.712180E-16	5.485241E-20
5.158270E+03	2.789627E-16	5.641874E-20
5.161128E+03	2.864589E-16	5.793480E-20
5.163984E+03	2.932654E-16	5.931139E-20
5.166840E+03	3.032405E-16	6.132879E-20
5.169697E+03	3.199730E-16	6.471286E-20
5.172553E+03	3.296816E-16	6.667636E-20
5.175410E+03	3.462347E-16	7.002414E-20
5.178265E+03	3.561475E-16	7.202894E-20
5.181123E+03	3.593659E-16	7.267984E-20
5.183979E+03	3.597124E-16	7.274991E-20
5.186835E+03	3.592728E-16	7.266101E-20
5.189692E+03	3.617139E-16	7.315471E-20
5.192548E+03	3.614061E-16	7.309244E-20
5.195404E+03	3.606290E-16	7.293528E-20
5.198261E+03	3.632189E-16	7.345908E-20
5.201117E+03	3.704438E-16	7.492026E-20
5.203974E+03	3.745954E-16	7.575991E-20
5.206830E+03	3.840409E-16	7.767021E-20
5.209687E+03	3.994755E-16	8.079175E-20
5.212543E+03	4.148589E-16	8.390297E-20
5.215400E+03	4.284050E-16	8.664259E-20
5.218256E+03	4.437037E-16	8.973665E-20
5.221112E+03	4.538010E-16	9.177877E-20
5.223969E+03	4.657723E-16	9.419989E-20
5.226825E+03	4.756695E-16	9.620154E-20
5.229681E+03	4.803568E-16	9.714952E-20
5.232538E+03	4.795018E-16	9.697660E-20
5.235394E+03	4.776633E-16	9.660476E-20
5.238251E+03	4.762503E-16	9.631899E-20
5.241107E+03	4.757908E-16	9.622606E-20
5.243964E+03	4.732268E-16	9.570749E-20
5.246820E+03	4.711407E-16	9.528557E-20
5.249676E+03	4.762939E-16	9.632778E-20
5.252533E+03	4.758530E-16	9.623861E-20
5.255389E+03	4.871331E-16	9.851993E-20
5.258246E+03	4.962269E-16	1.003591E-19
5.261103E+03	5.071955E-16	1.025774E-19
5.263959E+03	5.152170E-16	1.041997E-19
5.266815E+03	5.232095E-16	1.058162E-19
5.269672E+03	5.312900E-16	1.074504E-19
5.272528E+03	5.473094E-16	1.106902E-19
5.275384E+03	5.619486E-16	1.136509E-19
5.278241E+03	5.728305E-16	1.158517E-19
5.281097E+03	5.862776E-16	1.185713E-19
5.283953E+03	5.925083E-16	1.198314E-19
5.286810E+03	6.008280E-16	1.215140E-19
5.289667E+03	6.116717E-16	1.237071E-19
5.292523E+03	6.226084E-16	1.259189E-19
5.295379E+03	6.246386E-16	1.263295E-19
5.298236E+03	6.262064E-16	1.266466E-19
5.301092E+03	6.293464E-16	1.272816E-19
5.303948E+03	6.323919E-16	1.278976E-19
5.306806E+03	6.347707E-16	1.283787E-19
5.309661E+03	6.341678E-16	1.282567E-19
5.312518E+03	6.415524E-16	1.297502E-19
5.315375E+03	6.506791E-16	1.315960E-19
5.318231E+03	6.612171E-16	1.337272E-19
5.321087E+03	6.662942E-16	1.347541E-19
5.323944E+03	6.719630E-16	1.359005E-19
5.326800E+03	6.730860E-16	1.361276E-19
5.329656E+03	6.689979E-16	1.353008E-19
5.332513E+03	6.661826E-16	1.347315E-19
5.335370E+03	6.628249E-16	1.340524E-19
5.338225E+03	6.601000E-16	1.335013E-19
5.341082E+03	6.546709E-16	1.324032E-19
5.343939E+03	6.522759E-16	1.319189E-19
5.346795E+03	6.509665E-16	1.316540E-19
5.349651E+03	6.544335E-16	1.323552E-19
5.352508E+03	6.567415E-16	1.328220E-19
5.355364E+03	6.522087E-16	1.319052E-19
5.358220E+03	6.523388E-16	1.319315E-19
5.361077E+03	6.496427E-16	1.313862E-19
5.363934E+03	6.549626E-16	1.324622E-19
5.366790E+03	6.585273E-16	1.331831E-19
5.369647E+03	6.668842E-16	1.348732E-19
5.372503E+03	6.730802E-16	1.361263E-19
5.375359E+03	6.851617E-16	1.385697E-19
5.378216E+03	6.855141E-16	1.386410E-19
5.381072E+03	6.860841E-16	1.387562E-19
5.383929E+03	6.911847E-16	1.397878E-19
5.386785E+03	6.959904E-16	1.407597E-19
5.389642E+03	7.095166E-16	1.434953E-19
5.392498E+03	7.224396E-16	1.461089E-19
5.395354E+03	7.323510E-16	1.481134E-19
5.398211E+03	7.442833E-16	1.505266E-19
5.401067E+03	7.662636E-16	1.549720E-19
5.403923E+03	7.811132E-16	1.579752E-19
5.406780E+03	7.985077E-16	1.614931E-19
5.409637E+03	8.228411E-16	1.664144E-19
5.412493E+03	8.512420E-16	1.721582E-19
5.415350E+03	8.784658E-16	1.776641E-19
5.418206E+03	9.101578E-16	1.840736E-19
5.421062E+03	9.391783E-16	1.899428E-19
5.423919E+03	9.643690E-16	1.950374E-19
5.426775E+03	9.797691E-16	1.981520E-19
5.429631E+03	9.932715E-16	2.008827E-19
5.432488E+03	1.001858E-15	2.026194E-19
5.435344E+03	1.003298E-15	2.029105E-19
5.438201E+03	1.003736E-15	2.029990E-19
5.441058E+03	9.924113E-16	2.007087E-19
5.443914E+03	9.837167E-16	1.989503E-19
5.446770E+03	9.757122E-16	1.973314E-19
5.449627E+03	9.697161E-16	1.961187E-19
5.452483E+03	9.529631E-16	1.927305E-19
5.455339E+03	9.462889E-16	1.913807E-19
5.458195E+03	9.379199E-16	1.896881E-19
5.461052E+03	9.184076E-16	1.857419E-19
5.463908E+03	9.030639E-16	1.826387E-19
5.466765E+03	8.938412E-16	1.807734E-19
5.469622E+03	8.829272E-16	1.785661E-19
5.472478E+03	8.785218E-16	1.776752E-19
5.475334E+03	8.637458E-16	1.746868E-19
5.478191E+03	8.576690E-16	1.734578E-19
5.481047E+03	8.524406E-16	1.724004E-19
5.483903E+03	8.518627E-16	1.722835E-19
5.486761E+03	8.501668E-16	1.719405E-19
5.489616E+03	8.526430E-16	1.724413E-19
5.492473E+03	8.548562E-16	1.728889E-19
5.495330E+03	8.539169E-16	1.726989E-19
5.498186E+03	8.592978E-16	1.737872E-19
5.501042E+03	8.655343E-16	1.750484E-19
5.503899E+03	8.771844E-16	1.774046E-19
5.506755E+03	8.918641E-16	1.803735E-19
5.509611E+03	9.078561E-16	1.836077E-19
5.512467E+03	9.325695E-16	1.886058E-19
5.515325E+03	9.617712E-16	1.945117E-19
5.518180E+03	9.885550E-16	1.999285E-19
5.521037E+03	1.010311E-15	2.043284E-19
5.523894E+03	1.036099E-15	2.095440E-19
5.526750E+03	1.060159E-15	2.144100E-19
5.529606E+03	1.082110E-15	2.188493E-19
5.532463E+03	1.113679E-15	2.252339E-19
5.535319E+03	1.141561E-15	2.308728E-19
5.538175E+03	1.161334E-15	2.348718E-19
5.541033E+03	1.184437E-15	2.395443E-19
5.543889E+03	1.215135E-15	2.457527E-19
5.546745E+03	1.237012E-15	2.501771E-19
5.549602E+03	1.255685E-15	2.539537E-19
5.552458E+03	1.264020E-15	2.556393E-19
5.555314E+03	1.271204E-15	2.570923E-19
5.558171E+03	1.273209E-15	2.574977E-19
5.561027E+03	1.273825E-15	2.576222E-19
