#wls	flux	fluxerr
1.595708E+03	5.231900E-19	2.103211E-20
1.635600E+03	5.545019E-19	2.227371E-20
1.675493E+03	5.805867E-19	2.330310E-20
1.715386E+03	6.000920E-19	2.406647E-20
1.755278E+03	6.119483E-19	2.452154E-20
1.795171E+03	6.136778E-19	2.456983E-20
1.835064E+03	6.023232E-19	2.409408E-20
1.874956E+03	5.757878E-19	2.301188E-20
1.914849E+03	5.330801E-19	2.128535E-20
1.954742E+03	4.759851E-19	1.898758E-20
1.994634E+03	4.103562E-19	1.635365E-20
2.034527E+03	3.460159E-19	1.377577E-20
2.074420E+03	2.943677E-19	1.170752E-20
2.114312E+03	2.644472E-19	1.050649E-20
2.154205E+03	2.619072E-19	1.039436E-20
2.194098E+03	2.901900E-19	1.150410E-20
2.233991E+03	3.523392E-19	1.395207E-20
2.273883E+03	4.505472E-19	1.782022E-20
2.313776E+03	5.853425E-19	2.312411E-20
2.353669E+03	7.545381E-19	2.977183E-20
2.393561E+03	9.536569E-19	3.758137E-20
2.433454E+03	1.178789E-18	4.639369E-20
2.473347E+03	1.426309E-18	5.606159E-20
2.513239E+03	1.693226E-18	6.646321E-20
2.553132E+03	1.978535E-18	7.755512E-20
2.593025E+03	2.281230E-18	8.929380E-20
2.632917E+03	2.602172E-18	1.017089E-19
2.672810E+03	2.941523E-18	1.148024E-19
2.712703E+03	3.302085E-18	1.286788E-19
2.752596E+03	3.683867E-18	1.433334E-19
2.792488E+03	4.090484E-18	1.589010E-19
2.832381E+03	4.524195E-18	1.754629E-19
2.872274E+03	4.986278E-18	1.930617E-19
2.912166E+03	5.481532E-18	2.118754E-19
2.952059E+03	6.012924E-18	2.320097E-19
2.991952E+03	6.584989E-18	2.536296E-19
3.001925E+03	6.735351E-18	2.593035E-19
3.011898E+03	6.887921E-18	2.650566E-19
3.021871E+03	7.044189E-18	2.709459E-19
3.031844E+03	7.203273E-18	2.769373E-19
3.041818E+03	7.368127E-18	2.831442E-19
3.051791E+03	7.539386E-18	2.895905E-19
3.061764E+03	7.718278E-18	2.963230E-19
3.071737E+03	7.904567E-18	3.033322E-19
3.081710E+03	8.096449E-18	3.105485E-19
3.091683E+03	8.295273E-18	3.180232E-19
3.101657E+03	8.500872E-18	3.257495E-19
3.111630E+03	8.711392E-18	3.336559E-19
3.121603E+03	8.928311E-18	3.417986E-19
3.131576E+03	9.151490E-18	3.501720E-19
3.141549E+03	9.380814E-18	3.587713E-19
3.151522E+03	9.614363E-18	3.675226E-19
3.161496E+03	9.853775E-18	3.764881E-19
3.171469E+03	1.010082E-17	3.857352E-19
3.181442E+03	1.035174E-17	3.951197E-19
3.191415E+03	1.060827E-17	4.047081E-19
3.201388E+03	1.087039E-17	4.144980E-19
3.211361E+03	1.113801E-17	4.244871E-19
3.221335E+03	1.141312E-17	4.347496E-19
3.231308E+03	1.169171E-17	4.451329E-19
3.241281E+03	1.197573E-17	4.557110E-19
3.251254E+03	1.226727E-17	4.665625E-19
3.261227E+03	1.256430E-17	4.776103E-19
3.271200E+03	1.286899E-17	4.889355E-19
3.281174E+03	1.317706E-17	5.003761E-19
3.291147E+03	1.349289E-17	5.120975E-19
3.301120E+03	1.381661E-17	5.241042E-19
3.311093E+03	1.414608E-17	5.363142E-19
3.321066E+03	1.448365E-17	5.488167E-19
3.331040E+03	1.482714E-17	5.615278E-19
3.341013E+03	1.517898E-17	5.745398E-19
3.350986E+03	1.553935E-17	5.878582E-19
3.360959E+03	1.590597E-17	6.013966E-19
3.370932E+03	1.628141E-17	6.152510E-19
3.380905E+03	1.666832E-17	6.295218E-19
3.390879E+03	1.706196E-17	6.440285E-19
3.400852E+03	1.746497E-17	6.588704E-19
3.410825E+03	1.788014E-17	6.741518E-19
3.420798E+03	1.830514E-17	6.897846E-19
3.430771E+03	1.874019E-17	7.057755E-19
3.440744E+03	1.918550E-17	7.221319E-19
3.450718E+03	1.964398E-17	7.389627E-19
3.460691E+03	2.011593E-17	7.562781E-19
3.470664E+03	2.059891E-17	7.739854E-19
3.480637E+03	2.109593E-17	7.921966E-19
3.490610E+03	2.160448E-17	8.108167E-19
3.500583E+03	2.213048E-17	8.300668E-19
3.510557E+03	2.267147E-17	8.498528E-19
3.520530E+03	2.322484E-17	8.700764E-19
3.530503E+03	2.379669E-17	8.909651E-19
3.540476E+03	2.438448E-17	9.124218E-19
3.550449E+03	2.499149E-17	9.345684E-19
3.560422E+03	2.561513E-17	9.573060E-19
3.570396E+03	2.625873E-17	9.807585E-19
3.580369E+03	2.691961E-17	1.004824E-18
3.590342E+03	2.760431E-17	1.029745E-18
3.600315E+03	2.830702E-17	1.055303E-18
3.610288E+03	2.903121E-17	1.081625E-18
3.620261E+03	2.977725E-17	1.108725E-18
3.630235E+03	3.054874E-17	1.136734E-18
3.640208E+03	3.134289E-17	1.165546E-18
3.650181E+03	3.216334E-17	1.195295E-18
3.660154E+03	3.300721E-17	1.225872E-18
3.670127E+03	3.387819E-17	1.257411E-18
3.680101E+03	3.477331E-17	1.289801E-18
3.690074E+03	3.569971E-17	1.323304E-18
3.700047E+03	3.665444E-17	1.357808E-18
3.710020E+03	3.763787E-17	1.393324E-18
3.719993E+03	3.865037E-17	1.429865E-18
3.729966E+03	3.969583E-17	1.467571E-18
3.739940E+03	4.077466E-17	1.506454E-18
3.749913E+03	4.188366E-17	1.546395E-18
3.759886E+03	4.303038E-17	1.587668E-18
3.769859E+03	4.420796E-17	1.630018E-18
3.779832E+03	4.542032E-17	1.673587E-18
3.789805E+03	4.667150E-17	1.718520E-18
3.799779E+03	4.796186E-17	1.764827E-18
3.809752E+03	4.928797E-17	1.812379E-18
3.819725E+03	5.065387E-17	1.861321E-18
3.829698E+03	5.205984E-17	1.911661E-18
3.839671E+03	5.350613E-17	1.963403E-18
3.849644E+03	5.499684E-17	2.016694E-18
3.859618E+03	5.652832E-17	2.071398E-18
3.869591E+03	5.810071E-17	2.127516E-18
3.879564E+03	5.972208E-17	2.185338E-18
3.889537E+03	6.138462E-17	2.244577E-18
3.899510E+03	6.309644E-17	2.305523E-18
3.909483E+03	6.485360E-17	2.368029E-18
3.919457E+03	6.666020E-17	2.432240E-18
3.929430E+03	6.851217E-17	2.498004E-18
3.939403E+03	7.041355E-17	2.565463E-18
3.949376E+03	7.236844E-17	2.634763E-18
3.959349E+03	7.436842E-17	2.705593E-18
3.969323E+03	7.642588E-17	2.778398E-18
3.979296E+03	7.852802E-17	2.852708E-18
3.989269E+03	8.068726E-17	2.928970E-18
3.999242E+03	8.289481E-17	3.006861E-18
4.009215E+03	8.515889E-17	3.086672E-18
4.019188E+03	8.747480E-17	3.168230E-18
4.029162E+03	8.984644E-17	3.251670E-18
4.039135E+03	9.226892E-17	3.336810E-18
4.049108E+03	9.475040E-17	3.423941E-18
4.059081E+03	9.728155E-17	3.512719E-18
4.069054E+03	9.987053E-17	3.603434E-18
4.079027E+03	1.025165E-16	3.696051E-18
4.089001E+03	1.052097E-16	3.790212E-18
4.098974E+03	1.079626E-16	3.886365E-18
4.108947E+03	1.107700E-16	3.984310E-18
4.118920E+03	1.136307E-16	4.084004E-18
4.128893E+03	1.165436E-16	4.185402E-18
4.138866E+03	1.195121E-16	4.288618E-18
4.148840E+03	1.225303E-16	4.393435E-18
4.158813E+03	1.256016E-16	4.499974E-18
4.168786E+03	1.287197E-16	4.608003E-18
4.178759E+03	1.318925E-16	4.717796E-18
4.188732E+03	1.351139E-16	4.829130E-18
4.198705E+03	1.383821E-16	4.941942E-18
4.208679E+03	1.416955E-16	5.056161E-18
4.218652E+03	1.450521E-16	5.171719E-18
4.228625E+03	1.484548E-16	5.288710E-18
4.238598E+03	1.518971E-16	5.406899E-18
4.248571E+03	1.553815E-16	5.526369E-18
4.258545E+03	1.589014E-16	5.646882E-18
4.268518E+03	1.624544E-16	5.768353E-18
4.278491E+03	1.660434E-16	5.890876E-18
4.288464E+03	1.696567E-16	6.014034E-18
4.298437E+03	1.733015E-16	6.138077E-18
4.308410E+03	1.769708E-16	6.262756E-18
4.318384E+03	1.806579E-16	6.387832E-18
4.328357E+03	1.843652E-16	6.513385E-18
4.338330E+03	1.880907E-16	6.639343E-18
4.348303E+03	1.918230E-16	6.765300E-18
4.358276E+03	1.955650E-16	6.891358E-18
4.368249E+03	1.993148E-16	7.017447E-18
4.378223E+03	2.030615E-16	7.143186E-18
4.388196E+03	2.068083E-16	7.268683E-18
4.398169E+03	2.105493E-16	7.393732E-18
4.408142E+03	2.142788E-16	7.518133E-18
4.418115E+03	2.179960E-16	7.641853E-18
4.428088E+03	2.216956E-16	7.764715E-18
4.438062E+03	2.253725E-16	7.886538E-18
4.448035E+03	2.290314E-16	8.007488E-18
4.458008E+03	2.326630E-16	8.127239E-18
4.467981E+03	2.362679E-16	8.245813E-18
4.477954E+03	2.398418E-16	8.363068E-18
4.487927E+03	2.433903E-16	8.479196E-18
4.497901E+03	2.469006E-16	8.593754E-18
4.507874E+03	2.503833E-16	8.707114E-18
4.517847E+03	2.538394E-16	8.819317E-18
4.527820E+03	2.572663E-16	8.930266E-18
4.537793E+03	2.606570E-16	9.039724E-18
4.547767E+03	2.640222E-16	9.148068E-18
4.557740E+03	2.673466E-16	9.254765E-18
4.567713E+03	2.706372E-16	9.360061E-18
4.577686E+03	2.738880E-16	9.463749E-18
4.587659E+03	2.771062E-16	9.566083E-18
4.597632E+03	2.802819E-16	9.666723E-18
4.607606E+03	2.834227E-16	9.765934E-18
4.617579E+03	2.865278E-16	9.863688E-18
4.627552E+03	2.895966E-16	9.959971E-18
4.637525E+03	2.926287E-16	1.005477E-17
4.647498E+03	2.956279E-16	1.014822E-17
4.657471E+03	2.985943E-16	1.024032E-17
4.667445E+03	3.015319E-16	1.033122E-17
4.677418E+03	3.044369E-16	1.042078E-17
4.687391E+03	3.073137E-16	1.050916E-17
4.697364E+03	3.101669E-16	1.059652E-17
4.707337E+03	3.129927E-16	1.068273E-17
4.717310E+03	3.157959E-16	1.076795E-17
4.727284E+03	3.185814E-16	1.085235E-17
4.737257E+03	3.213458E-16	1.093582E-17
4.747230E+03	3.240979E-16	1.101865E-17
4.757203E+03	3.268304E-16	1.110061E-17
4.767176E+03	3.295562E-16	1.118212E-17
4.777149E+03	3.322723E-16	1.126309E-17
4.787123E+03	3.349832E-16	1.134367E-17
4.797096E+03	3.376895E-16	1.142388E-17
4.807069E+03	3.403960E-16	1.150388E-17
4.817042E+03	3.430989E-16	1.158353E-17
4.827015E+03	3.458065E-16	1.166313E-17
4.836989E+03	3.485190E-16	1.174267E-17
4.846962E+03	3.512401E-16	1.182228E-17
4.856935E+03	3.539695E-16	1.190194E-17
4.866908E+03	3.567064E-16	1.198164E-17
4.876881E+03	3.594543E-16	1.206147E-17
4.886854E+03	3.622123E-16	1.214141E-17
4.896828E+03	3.649830E-16	1.222156E-17
4.906801E+03	3.677696E-16	1.230200E-17
4.916774E+03	3.705708E-16	1.238269E-17
4.926747E+03	3.733899E-16	1.246375E-17
4.936720E+03	3.762258E-16	1.254512E-17
4.946693E+03	3.790860E-16	1.262707E-17
4.956667E+03	3.819705E-16	1.270957E-17
4.966640E+03	3.848872E-16	1.279291E-17
4.976613E+03	3.878366E-16	1.287708E-17
4.986586E+03	3.908237E-16	1.296224E-17
4.996559E+03	3.938583E-16	1.304872E-17
5.006532E+03	3.969462E-16	1.313670E-17
5.016506E+03	4.000940E-16	1.322640E-17
5.026479E+03	4.033087E-16	1.331804E-17
5.036452E+03	4.066020E-16	1.341198E-17
5.046425E+03	4.099822E-16	1.350851E-17
5.056398E+03	4.134619E-16	1.360801E-17
5.066371E+03	4.170458E-16	1.371064E-17
5.076345E+03	4.207480E-16	1.381685E-17
5.086318E+03	4.245866E-16	1.392721E-17
5.096291E+03	4.285678E-16	1.404190E-17
5.106264E+03	4.327061E-16	1.416140E-17
5.116237E+03	4.370165E-16	1.428616E-17
5.126210E+03	4.415096E-16	1.441652E-17
5.136184E+03	4.461950E-16	1.455276E-17
5.146157E+03	4.510967E-16	1.469565E-17
5.156130E+03	4.562147E-16	1.484515E-17
5.166103E+03	4.615720E-16	1.500199E-17
5.176076E+03	4.671721E-16	1.516626E-17
5.186050E+03	4.730266E-16	1.533830E-17
5.196023E+03	4.791472E-16	1.551845E-17
5.205996E+03	4.855440E-16	1.570701E-17
5.215969E+03	4.922259E-16	1.590424E-17
5.225942E+03	4.991911E-16	1.611004E-17
5.235915E+03	5.064565E-16	1.632493E-17
5.245889E+03	5.140178E-16	1.654872E-17
5.255862E+03	5.218843E-16	1.678168E-17
5.265835E+03	5.300540E-16	1.702370E-17
5.275808E+03	5.385293E-16	1.727483E-17
5.285781E+03	5.473048E-16	1.753485E-17
5.295754E+03	5.563858E-16	1.780390E-17
5.305728E+03	5.657647E-16	1.808169E-17
5.315701E+03	5.754325E-16	1.836790E-17
5.325674E+03	5.853899E-16	1.866251E-17
5.335647E+03	5.956247E-16	1.896509E-17
5.345620E+03	6.061228E-16	1.927517E-17
5.355593E+03	6.168800E-16	1.959257E-17
5.365567E+03	6.278785E-16	1.991669E-17
5.375540E+03	6.391042E-16	2.024706E-17
5.385513E+03	6.505347E-16	2.058293E-17
5.395486E+03	6.621519E-16	2.092371E-17
5.405459E+03	6.739289E-16	2.126852E-17
5.415432E+03	6.858437E-16	2.161664E-17
5.425406E+03	6.978652E-16	2.196708E-17
5.435379E+03	7.099750E-16	2.231923E-17
5.445352E+03	7.221322E-16	2.267181E-17
5.455325E+03	7.343165E-16	2.302417E-17
5.465298E+03	7.464934E-16	2.337521E-17
5.475272E+03	7.586369E-16	2.372413E-17
5.485245E+03	7.707167E-16	2.406997E-17
5.495218E+03	7.827135E-16	2.441214E-17
5.505191E+03	7.946043E-16	2.474994E-17
5.515164E+03	8.063764E-16	2.508297E-17
5.525137E+03	8.180117E-16	2.541069E-17
5.535111E+03	8.294935E-16	2.573259E-17
5.545084E+03	8.408160E-16	2.604852E-17
5.555057E+03	8.519497E-16	2.635756E-17
5.565030E+03	8.628845E-16	2.665944E-17
5.575003E+03	8.736298E-16	2.695446E-17
5.584976E+03	8.841634E-16	2.724197E-17
5.594950E+03	8.944918E-16	2.752218E-17
5.604923E+03	9.045972E-16	2.779456E-17
5.614896E+03	9.144910E-16	2.805951E-17
5.624869E+03	9.241782E-16	2.831717E-17
5.634842E+03	9.336656E-16	2.856780E-17
5.644815E+03	9.429436E-16	2.881112E-17
5.654789E+03	9.520226E-16	2.904746E-17
5.664762E+03	9.609240E-16	2.927751E-17
5.674735E+03	9.696531E-16	2.950143E-17
5.684708E+03	9.782165E-16	2.971946E-17
5.694681E+03	9.866324E-16	2.993216E-17
5.704654E+03	9.949208E-16	3.014015E-17
5.714628E+03	1.003095E-15	3.034384E-17
5.724601E+03	1.011168E-15	3.054367E-17
5.734574E+03	1.019178E-15	3.074073E-17
5.744547E+03	1.027120E-15	3.093494E-17
5.754520E+03	1.035041E-15	3.112772E-17
5.764494E+03	1.042959E-15	3.131955E-17
5.774467E+03	1.050877E-15	3.151058E-17
5.784440E+03	1.058818E-15	3.170146E-17
5.794413E+03	1.066809E-15	3.189300E-17
5.804386E+03	1.074833E-15	3.208467E-17
5.814359E+03	1.082906E-15	3.227694E-17
5.824333E+03	1.091005E-15	3.246917E-17
5.834306E+03	1.099135E-15	3.266142E-17
5.844279E+03	1.107258E-15	3.285261E-17
5.854252E+03	1.115362E-15	3.304235E-17
5.864225E+03	1.123387E-15	3.322888E-17
5.874198E+03	1.131308E-15	3.341146E-17
5.884172E+03	1.139075E-15	3.358865E-17
5.894145E+03	1.146626E-15	3.375864E-17
5.904118E+03	1.153940E-15	3.392081E-17
5.914091E+03	1.160943E-15	3.407302E-17
5.924064E+03	1.167584E-15	3.421387E-17
5.934037E+03	1.173851E-15	3.434300E-17
5.944011E+03	1.179670E-15	3.445830E-17
5.953984E+03	1.185028E-15	3.455947E-17
5.963957E+03	1.189906E-15	3.464602E-17
5.973930E+03	1.194271E-15	3.471706E-17
5.983903E+03	1.198107E-15	3.477218E-17
5.993876E+03	1.201413E-15	3.481145E-17
6.003850E+03	1.204183E-15	3.483476E-17
6.013823E+03	1.206415E-15	3.484211E-17
6.023796E+03	1.208122E-15	3.483396E-17
6.033769E+03	1.209307E-15	3.481048E-17
6.043742E+03	1.209977E-15	3.477195E-17
6.053716E+03	1.210140E-15	3.471865E-17
6.063689E+03	1.209828E-15	3.465157E-17
6.073662E+03	1.209027E-15	3.457043E-17
6.083635E+03	1.207771E-15	3.447622E-17
6.093608E+03	1.206059E-15	3.436899E-17
6.103581E+03	1.203923E-15	3.424972E-17
6.113555E+03	1.201361E-15	3.411844E-17
6.123528E+03	1.198395E-15	3.397581E-17
6.133501E+03	1.195045E-15	3.382248E-17
6.143474E+03	1.191322E-15	3.365878E-17
6.153447E+03	1.187247E-15	3.348539E-17
6.163420E+03	1.182831E-15	3.330267E-17
6.173394E+03	1.178109E-15	3.311166E-17
6.183367E+03	1.173094E-15	3.291278E-17
6.193340E+03	1.167812E-15	3.270680E-17
6.203313E+03	1.162302E-15	3.249483E-17
6.213286E+03	1.156580E-15	3.227736E-17
6.223259E+03	1.150695E-15	3.205582E-17
6.233233E+03	1.144676E-15	3.183103E-17
6.243206E+03	1.138552E-15	3.160379E-17
6.253179E+03	1.132381E-15	3.137579E-17
6.263152E+03	1.126182E-15	3.114750E-17
6.273125E+03	1.120002E-15	3.092027E-17
6.283098E+03	1.113890E-15	3.069543E-17
6.293072E+03	1.107871E-15	3.047367E-17
6.303045E+03	1.102003E-15	3.025657E-17
6.313018E+03	1.096333E-15	3.004537E-17
6.322991E+03	1.090873E-15	2.984043E-17
6.332964E+03	1.085689E-15	2.964350E-17
6.342937E+03	1.080813E-15	2.945540E-17
6.352911E+03	1.076265E-15	2.927664E-17
6.362884E+03	1.072104E-15	2.910877E-17
6.372857E+03	1.068345E-15	2.895214E-17
6.382830E+03	1.065009E-15	2.880728E-17
6.392803E+03	1.062146E-15	2.867546E-17
6.402777E+03	1.059748E-15	2.855638E-17
6.412750E+03	1.057833E-15	2.845051E-17
6.422723E+03	1.056414E-15	2.835809E-17
6.432696E+03	1.055499E-15	2.827925E-17
6.442669E+03	1.055067E-15	2.821336E-17
6.452642E+03	1.055101E-15	2.815991E-17
6.462616E+03	1.055589E-15	2.811849E-17
6.472589E+03	1.056481E-15	2.808768E-17
6.482562E+03	1.057729E-15	2.806620E-17
6.492535E+03	1.059282E-15	2.805261E-17
6.502508E+03	1.061073E-15	2.804510E-17
6.512481E+03	1.063042E-15	2.804203E-17
6.522455E+03	1.065125E-15	2.804173E-17
6.532428E+03	1.067259E-15	2.804248E-17
6.542401E+03	1.069367E-15	2.804226E-17
6.552374E+03	1.071384E-15	2.803940E-17
6.562347E+03	1.073249E-15	2.803232E-17
6.572320E+03	1.074904E-15	2.801951E-17
6.582294E+03	1.076297E-15	2.799964E-17
6.592267E+03	1.077379E-15	2.797154E-17
6.602240E+03	1.078102E-15	2.793394E-17
6.612213E+03	1.078445E-15	2.788641E-17
6.622186E+03	1.078375E-15	2.782816E-17
6.632159E+03	1.077893E-15	2.775923E-17
6.642133E+03	1.076971E-15	2.767901E-17
6.652106E+03	1.075639E-15	2.758834E-17
6.662079E+03	1.073899E-15	2.748734E-17
6.672052E+03	1.071762E-15	2.737632E-17
6.682025E+03	1.069279E-15	2.725669E-17
6.691999E+03	1.066459E-15	2.712872E-17
6.701972E+03	1.063341E-15	2.699345E-17
6.711945E+03	1.059977E-15	2.685224E-17
6.721918E+03	1.056397E-15	2.670591E-17
6.731891E+03	1.052657E-15	2.655588E-17
6.741864E+03	1.048787E-15	2.640299E-17
6.751838E+03	1.044831E-15	2.624831E-17
6.761811E+03	1.040816E-15	2.609257E-17
6.771784E+03	1.036805E-15	2.593735E-17
6.781757E+03	1.032810E-15	2.578295E-17
6.791730E+03	1.028877E-15	2.563050E-17
6.801703E+03	1.025034E-15	2.548072E-17
6.811677E+03	1.021285E-15	2.533368E-17
6.821650E+03	1.017678E-15	2.519057E-17
6.831623E+03	1.014235E-15	2.505190E-17
6.841596E+03	1.010951E-15	2.491752E-17
6.851569E+03	1.007866E-15	2.478843E-17
6.861542E+03	1.004972E-15	2.466438E-17
6.871516E+03	1.002294E-15	2.454596E-17
6.881489E+03	9.998451E-16	2.443345E-17
6.891462E+03	9.976228E-16	2.432677E-17
6.901435E+03	9.956369E-16	2.422612E-17
6.911408E+03	9.939076E-16	2.413197E-17
6.921381E+03	9.924419E-16	2.404445E-17
6.931355E+03	9.912224E-16	2.396310E-17
6.941328E+03	9.902660E-16	2.388830E-17
6.951301E+03	9.895765E-16	2.382010E-17
6.961274E+03	9.891566E-16	2.375853E-17
6.971247E+03	9.890084E-16	2.370360E-17
6.981221E+03	9.891200E-16	2.365501E-17
6.991194E+03	9.895038E-16	2.361300E-17
7.001167E+03	9.901463E-16	2.357722E-17
7.011140E+03	9.910585E-16	2.354791E-17
7.021113E+03	9.922139E-16	2.352439E-17
7.031086E+03	9.936350E-16	2.350717E-17
7.041060E+03	9.952947E-16	2.349558E-17
7.051033E+03	9.972024E-16	2.348981E-17
7.061006E+03	9.993552E-16	2.348978E-17
7.070979E+03	1.001737E-15	2.349506E-17
7.080952E+03	1.004356E-15	2.350582E-17
7.090925E+03	1.007207E-15	2.352192E-17
7.100899E+03	1.010256E-15	2.354256E-17
7.110872E+03	1.013522E-15	2.356812E-17
7.120845E+03	1.016966E-15	2.359771E-17
7.130818E+03	1.020601E-15	2.363162E-17
7.140791E+03	1.024387E-15	2.366888E-17
7.150764E+03	1.028317E-15	2.370936E-17
7.160738E+03	1.032359E-15	2.375227E-17
7.170711E+03	1.036503E-15	2.379740E-17
7.180684E+03	1.040710E-15	2.384387E-17
7.190657E+03	1.044954E-15	2.389107E-17
7.200630E+03	1.049221E-15	2.393869E-17
7.210603E+03	1.053454E-15	2.398545E-17
7.220577E+03	1.057636E-15	2.403101E-17
7.230550E+03	1.061726E-15	2.407440E-17
7.240523E+03	1.065705E-15	2.411530E-17
7.250496E+03	1.069534E-15	2.415281E-17
7.260469E+03	1.073200E-15	2.418667E-17
7.270443E+03	1.076650E-15	2.421575E-17
7.280416E+03	1.079891E-15	2.424027E-17
7.290389E+03	1.082879E-15	2.425925E-17
7.300362E+03	1.085600E-15	2.427246E-17
7.310335E+03	1.088062E-15	2.428011E-17
7.320308E+03	1.090263E-15	2.428220E-17
7.330282E+03	1.092177E-15	2.427825E-17
7.340255E+03	1.093831E-15	2.426886E-17
7.350228E+03	1.095256E-15	2.425481E-17
7.360201E+03	1.096432E-15	2.423567E-17
7.370174E+03	1.097418E-15	2.421281E-17
7.380147E+03	1.098247E-15	2.418700E-17
7.390121E+03	1.098942E-15	2.415878E-17
7.400094E+03	1.099544E-15	2.412906E-17
7.410067E+03	1.100092E-15	2.409876E-17
7.420040E+03	1.100628E-15	2.406879E-17
7.430013E+03	1.101192E-15	2.404005E-17
7.439986E+03	1.101837E-15	2.401374E-17
7.449960E+03	1.102570E-15	2.398997E-17
7.459933E+03	1.103439E-15	2.396984E-17
7.469906E+03	1.104489E-15	2.395430E-17
7.479879E+03	1.105728E-15	2.394355E-17
7.489852E+03	1.107187E-15	2.393824E-17
7.499825E+03	1.108854E-15	2.393813E-17
7.509799E+03	1.110754E-15	2.394371E-17
7.519772E+03	1.112840E-15	2.395400E-17
7.529745E+03	1.115125E-15	2.396925E-17
7.539718E+03	1.117571E-15	2.398868E-17
7.549691E+03	1.120173E-15	2.401216E-17
7.559665E+03	1.122912E-15	2.403930E-17
7.569638E+03	1.125769E-15	2.406969E-17
7.579611E+03	1.128743E-15	2.410334E-17
7.589584E+03	1.131820E-15	2.413995E-17
7.599557E+03	1.134970E-15	2.417889E-17
7.609530E+03	1.138195E-15	2.422025E-17
7.619504E+03	1.141501E-15	2.426413E-17
7.629477E+03	1.144874E-15	2.431027E-17
7.639450E+03	1.148285E-15	2.435806E-17
7.649423E+03	1.151734E-15	2.440755E-17
7.659396E+03	1.155207E-15	2.445845E-17
7.669369E+03	1.158686E-15	2.451040E-17
7.679343E+03	1.162169E-15	2.456340E-17
7.689316E+03	1.165639E-15	2.461707E-17
7.699289E+03	1.169057E-15	2.467067E-17
7.709262E+03	1.172421E-15	2.472413E-17
7.719235E+03	1.175727E-15	2.477744E-17
7.729208E+03	1.178920E-15	2.482945E-17
7.739182E+03	1.182015E-15	2.488052E-17
