#wls	flux	fluxerr
1.595708E+03	5.817141E-19	7.411722E-20
1.635600E+03	6.213116E-19	7.912995E-20
1.675493E+03	6.552680E-19	8.341923E-20
1.715386E+03	6.819400E-19	8.677662E-20
1.755278E+03	7.000636E-19	8.904239E-20
1.795171E+03	7.061706E-19	8.977696E-20
1.835064E+03	6.973162E-19	8.860821E-20
1.874956E+03	6.701125E-19	8.510867E-20
1.914849E+03	6.235495E-19	7.915373E-20
1.954742E+03	5.593061E-19	7.096054E-20
1.994634E+03	4.841550E-19	6.139185E-20
2.034527E+03	4.097154E-19	5.192298E-20
2.074420E+03	3.495306E-19	4.426956E-20
2.114312E+03	3.147450E-19	3.983943E-20
2.154205E+03	3.122244E-19	3.949539E-20
2.194098E+03	3.463384E-19	4.378212E-20
2.233991E+03	4.206126E-19	5.313561E-20
2.273883E+03	5.379518E-19	6.791167E-20
2.313776E+03	6.982307E-19	8.808217E-20
2.353669E+03	8.986549E-19	1.132818E-19
2.393561E+03	1.133610E-18	1.427902E-19
2.433454E+03	1.397507E-18	1.758918E-19
2.473347E+03	1.685364E-18	2.119492E-19
2.513239E+03	1.993126E-18	2.504424E-19
2.553132E+03	2.318838E-18	2.911168E-19
2.593025E+03	2.661418E-18	3.338273E-19
2.632917E+03	3.020086E-18	3.784669E-19
2.672810E+03	3.395114E-18	4.250600E-19
2.712703E+03	3.787207E-18	4.736852E-19
2.752596E+03	4.198146E-18	5.245538E-19
2.792488E+03	4.627613E-18	5.776142E-19
2.832381E+03	5.077616E-18	6.331043E-19
2.872274E+03	5.548545E-18	6.910590E-19
2.912166E+03	6.042607E-18	7.517380E-19
2.952059E+03	6.561179E-18	8.152964E-19
2.991952E+03	7.104414E-18	8.817351E-19
3.001925E+03	7.244499E-18	8.988451E-19
3.011898E+03	7.386219E-18	9.161453E-19
3.021871E+03	7.529588E-18	9.336371E-19
3.031844E+03	7.676409E-18	9.515437E-19
3.041818E+03	7.825719E-18	9.697450E-19
3.051791E+03	7.982204E-18	9.888214E-19
3.061764E+03	8.145534E-18	1.008731E-18
3.071737E+03	8.312727E-18	1.029103E-18
3.081710E+03	8.486078E-18	1.050222E-18
3.091683E+03	8.665303E-18	1.072051E-18
3.101657E+03	8.848760E-18	1.094387E-18
3.111630E+03	9.036146E-18	1.117191E-18
3.121603E+03	9.228621E-18	1.140605E-18
3.131576E+03	9.424514E-18	1.164424E-18
3.141549E+03	9.625050E-18	1.188797E-18
3.151522E+03	9.830071E-18	1.213703E-18
3.161496E+03	1.003786E-17	1.238932E-18
3.171469E+03	1.024979E-17	1.264650E-18
3.181442E+03	1.046569E-17	1.290837E-18
3.191415E+03	1.068547E-17	1.317481E-18
3.201388E+03	1.090901E-17	1.344565E-18
3.211361E+03	1.113454E-17	1.371873E-18
3.221335E+03	1.136360E-17	1.399592E-18
3.231308E+03	1.159783E-17	1.427923E-18
3.241281E+03	1.183375E-17	1.456438E-18
3.251254E+03	1.207477E-17	1.485555E-18
3.261227E+03	1.231913E-17	1.515058E-18
3.271200E+03	1.256678E-17	1.544940E-18
3.281174E+03	1.281772E-17	1.575198E-18
3.291147E+03	1.307191E-17	1.605829E-18
3.301120E+03	1.333124E-17	1.637063E-18
3.311093E+03	1.359576E-17	1.668906E-18
3.321066E+03	1.386364E-17	1.701132E-18
3.331040E+03	1.413488E-17	1.733741E-18
3.341013E+03	1.441148E-17	1.766976E-18
3.350986E+03	1.469354E-17	1.800849E-18
3.360959E+03	1.498116E-17	1.835372E-18
3.370932E+03	1.527240E-17	1.870303E-18
3.380905E+03	1.556937E-17	1.905904E-18
3.390879E+03	1.587427E-17	1.942441E-18
3.400852E+03	1.618307E-17	1.979419E-18
3.410825E+03	1.650008E-17	2.017365E-18
3.420798E+03	1.682120E-17	2.055775E-18
3.430771E+03	1.715082E-17	2.095186E-18
3.440744E+03	1.748916E-17	2.135622E-18
3.450718E+03	1.783419E-17	2.176834E-18
3.460691E+03	1.818603E-17	2.218835E-18
3.470664E+03	1.854708E-17	2.261918E-18
3.480637E+03	1.891755E-17	2.306103E-18
3.490610E+03	1.929762E-17	2.351414E-18
3.500583E+03	1.968751E-17	2.397873E-18
3.510557E+03	2.008504E-17	2.445215E-18
3.520530E+03	2.049510E-17	2.494032E-18
3.530503E+03	2.091556E-17	2.544060E-18
3.540476E+03	2.134901E-17	2.595617E-18
3.550449E+03	2.179085E-17	2.648137E-18
3.560422E+03	2.224855E-17	2.702529E-18
3.570396E+03	2.271500E-17	2.757923E-18
3.580369E+03	2.319781E-17	2.815244E-18
3.590342E+03	2.369225E-17	2.873912E-18
3.600315E+03	2.420103E-17	2.934254E-18
3.610288E+03	2.472437E-17	2.996295E-18
3.620261E+03	2.526508E-17	3.060370E-18
3.630235E+03	2.581824E-17	3.125882E-18
3.640208E+03	2.638663E-17	3.193163E-18
3.650181E+03	2.697309E-17	3.262555E-18
3.660154E+03	2.757788E-17	3.334083E-18
3.670127E+03	2.819589E-17	3.407127E-18
3.680101E+03	2.883536E-17	3.482679E-18
3.690074E+03	2.949113E-17	3.560112E-18
3.700047E+03	3.016611E-17	3.639773E-18
3.710020E+03	3.086053E-17	3.721685E-18
3.719993E+03	3.157458E-17	3.805868E-18
3.729966E+03	3.230848E-17	3.892342E-18
3.739940E+03	3.306520E-17	3.981462E-18
3.749913E+03	3.384217E-17	4.072912E-18
3.759886E+03	3.463953E-17	4.166705E-18
3.769859E+03	3.546032E-17	4.263201E-18
3.779832E+03	3.630470E-17	4.362415E-18
3.789805E+03	3.717286E-17	4.464364E-18
3.799779E+03	3.806204E-17	4.568710E-18
3.809752E+03	3.897820E-17	4.676164E-18
3.819725E+03	3.991856E-17	4.786386E-18
3.829698E+03	4.088622E-17	4.899741E-18
3.839671E+03	4.187831E-17	5.015881E-18
3.849644E+03	4.289792E-17	5.135166E-18
3.859618E+03	4.394210E-17	5.257239E-18
3.869591E+03	4.501699E-17	5.382829E-18
3.879564E+03	4.611655E-17	5.511204E-18
3.889537E+03	4.724693E-17	5.643094E-18
3.899510E+03	4.840819E-17	5.778498E-18
3.909483E+03	4.959722E-17	5.917037E-18
3.919457E+03	5.081712E-17	6.059073E-18
3.929430E+03	5.206471E-17	6.204220E-18
3.939403E+03	5.334621E-17	6.353211E-18
3.949376E+03	5.465839E-17	6.505654E-18
3.959349E+03	5.600114E-17	6.661526E-18
3.969323E+03	5.737752E-17	6.821183E-18
3.979296E+03	5.878739E-17	6.984600E-18
3.989269E+03	6.023055E-17	7.151745E-18
3.999242E+03	6.170357E-17	7.322200E-18
4.009215E+03	6.321267E-17	7.496697E-18
4.019188E+03	6.475435E-17	7.674808E-18
4.029162E+03	6.633156E-17	7.856877E-18
4.039135E+03	6.794069E-17	8.042464E-18
4.049108E+03	6.958799E-17	8.232299E-18
4.059081E+03	7.126641E-17	8.425541E-18
4.069054E+03	7.298219E-17	8.622915E-18
4.079027E+03	7.473152E-17	8.823963E-18
4.089001E+03	7.651726E-17	9.029009E-18
4.098974E+03	7.833551E-17	9.237586E-18
4.108947E+03	8.019242E-17	9.450409E-18
4.118920E+03	8.208067E-17	9.666601E-18
4.128893E+03	8.400638E-17	9.886876E-18
4.138866E+03	8.596547E-17	1.011074E-17
4.148840E+03	8.795724E-17	1.033810E-17
4.158813E+03	8.998436E-17	1.056927E-17
4.168786E+03	9.204604E-17	1.080413E-17
4.178759E+03	9.414156E-17	1.104260E-17
4.188732E+03	9.626999E-17	1.128454E-17
4.198705E+03	9.843044E-17	1.152985E-17
4.208679E+03	1.006221E-16	1.177843E-17
4.218652E+03	1.028476E-16	1.203056E-17
4.228625E+03	1.051023E-16	1.228571E-17
4.238598E+03	1.073889E-16	1.254416E-17
4.248571E+03	1.096995E-16	1.280498E-17
4.258545E+03	1.120435E-16	1.306928E-17
4.268518E+03	1.144130E-16	1.333609E-17
4.278491E+03	1.168102E-16	1.360570E-17
4.288464E+03	1.192310E-16	1.387760E-17
4.298437E+03	1.216777E-16	1.415204E-17
4.308410E+03	1.241461E-16	1.442853E-17
4.318384E+03	1.266348E-16	1.470691E-17
4.328357E+03	1.291467E-16	1.498750E-17
4.338330E+03	1.316773E-16	1.526976E-17
4.348303E+03	1.342223E-16	1.555319E-17
4.358276E+03	1.367877E-16	1.583848E-17
4.368249E+03	1.393659E-16	1.612475E-17
4.378223E+03	1.419562E-16	1.641189E-17
4.388196E+03	1.445578E-16	1.669982E-17
4.398169E+03	1.471703E-16	1.698847E-17
4.408142E+03	1.497895E-16	1.727736E-17
4.418115E+03	1.524151E-16	1.756646E-17
4.428088E+03	1.550432E-16	1.785530E-17
4.438062E+03	1.576772E-16	1.814427E-17
4.448035E+03	1.603098E-16	1.843253E-17
4.458008E+03	1.629445E-16	1.872048E-17
4.467981E+03	1.655746E-16	1.900733E-17
4.477954E+03	1.682000E-16	1.929309E-17
4.487927E+03	1.708210E-16	1.957778E-17
4.497901E+03	1.734348E-16	1.986107E-17
4.507874E+03	1.760416E-16	2.014300E-17
4.517847E+03	1.786387E-16	2.042326E-17
4.527820E+03	1.812237E-16	2.070154E-17
4.537793E+03	1.837971E-16	2.097793E-17
4.547767E+03	1.863566E-16	2.125216E-17
4.557740E+03	1.889033E-16	2.152437E-17
4.567713E+03	1.914318E-16	2.179391E-17
4.577686E+03	1.939466E-16	2.206133E-17
4.587659E+03	1.964426E-16	2.232603E-17
4.597632E+03	1.989212E-16	2.258817E-17
4.607606E+03	2.013809E-16	2.284760E-17
4.617579E+03	2.038201E-16	2.310412E-17
4.627552E+03	2.062375E-16	2.335759E-17
4.637525E+03	2.086349E-16	2.360825E-17
4.647498E+03	2.110113E-16	2.385593E-17
4.657471E+03	2.133654E-16	2.410054E-17
4.667445E+03	2.156964E-16	2.434195E-17
4.677418E+03	2.180064E-16	2.458044E-17
4.687391E+03	2.202947E-16	2.481592E-17
4.697364E+03	2.225607E-16	2.504832E-17
4.707337E+03	2.248035E-16	2.527755E-17
4.717310E+03	2.270257E-16	2.550389E-17
4.727284E+03	2.292238E-16	2.572697E-17
4.737257E+03	2.314034E-16	2.594742E-17
4.747230E+03	2.335577E-16	2.616448E-17
4.757203E+03	2.356958E-16	2.637917E-17
4.767176E+03	2.378111E-16	2.659076E-17
4.777149E+03	2.399094E-16	2.679988E-17
4.787123E+03	2.419871E-16	2.700617E-17
4.797096E+03	2.440471E-16	2.720993E-17
4.807069E+03	2.460888E-16	2.741110E-17
4.817042E+03	2.481150E-16	2.761002E-17
4.827015E+03	2.501285E-16	2.780697E-17
4.836989E+03	2.521257E-16	2.800155E-17
4.846962E+03	2.541092E-16	2.819409E-17
4.856935E+03	2.560845E-16	2.838517E-17
4.866908E+03	2.580483E-16	2.857443E-17
4.876881E+03	2.600028E-16	2.876213E-17
4.886854E+03	2.619539E-16	2.894891E-17
4.896828E+03	2.639007E-16	2.913466E-17
4.906801E+03	2.658425E-16	2.931933E-17
4.916774E+03	2.677880E-16	2.950386E-17
4.926747E+03	2.697301E-16	2.968747E-17
4.936720E+03	2.716806E-16	2.987145E-17
4.946693E+03	2.736353E-16	3.005534E-17
4.956667E+03	2.756028E-16	3.024008E-17
4.966640E+03	2.775791E-16	3.042522E-17
4.976613E+03	2.795696E-16	3.061136E-17
4.986586E+03	2.815764E-16	3.079871E-17
4.996559E+03	2.836048E-16	3.098784E-17
5.006532E+03	2.856537E-16	3.117864E-17
5.016506E+03	2.877316E-16	3.137201E-17
5.026479E+03	2.898375E-16	3.156783E-17
5.036452E+03	2.919767E-16	3.176667E-17
5.046425E+03	2.941509E-16	3.196870E-17
5.056398E+03	2.963653E-16	3.217449E-17
5.066371E+03	2.986221E-16	3.238423E-17
5.076345E+03	3.009230E-16	3.259810E-17
5.086318E+03	3.032763E-16	3.281698E-17
5.096291E+03	3.056835E-16	3.304102E-17
5.106264E+03	3.081464E-16	3.327040E-17
5.116237E+03	3.106665E-16	3.350523E-17
5.126210E+03	3.132549E-16	3.374671E-17
5.136184E+03	3.159062E-16	3.399423E-17
5.146157E+03	3.186314E-16	3.424894E-17
5.156130E+03	3.214283E-16	3.451057E-17
5.166103E+03	3.243008E-16	3.477952E-17
5.176076E+03	3.272526E-16	3.505615E-17
5.186050E+03	3.302877E-16	3.534088E-17
5.196023E+03	3.334061E-16	3.563365E-17
5.205996E+03	3.366108E-16	3.593476E-17
5.215969E+03	3.399052E-16	3.624454E-17
5.225942E+03	3.432886E-16	3.656287E-17
5.235915E+03	3.467667E-16	3.689035E-17
5.245889E+03	3.503351E-16	3.722643E-17
5.255862E+03	3.539992E-16	3.757169E-17
5.265835E+03	3.577609E-16	3.792628E-17
5.275808E+03	3.616181E-16	3.828992E-17
5.285781E+03	3.655721E-16	3.866274E-17
5.295754E+03	3.696201E-16	3.904439E-17
5.305728E+03	3.737665E-16	3.943530E-17
5.315701E+03	3.780082E-16	3.983510E-17
5.325674E+03	3.823452E-16	4.024377E-17
5.335647E+03	3.867778E-16	4.066129E-17
5.345620E+03	3.913016E-16	4.108715E-17
5.355593E+03	3.959162E-16	4.152130E-17
5.365567E+03	4.006209E-16	4.196361E-17
5.375540E+03	4.054151E-16	4.241398E-17
5.385513E+03	4.102933E-16	4.287181E-17
5.395486E+03	4.152504E-16	4.333653E-17
5.405459E+03	4.202934E-16	4.380885E-17
5.415432E+03	4.254083E-16	4.428726E-17
5.425406E+03	4.306022E-16	4.477250E-17
5.435379E+03	4.358651E-16	4.526346E-17
5.445352E+03	4.412000E-16	4.576045E-17
5.455325E+03	4.466010E-16	4.626281E-17
5.465298E+03	4.520576E-16	4.676945E-17
5.475272E+03	4.575780E-16	4.728121E-17
5.485245E+03	4.631518E-16	4.779696E-17
5.495218E+03	4.687738E-16	4.831615E-17
5.505191E+03	4.744431E-16	4.883867E-17
5.515164E+03	4.801498E-16	4.936350E-17
5.525137E+03	4.858986E-16	4.989110E-17
5.535111E+03	4.916801E-16	5.042048E-17
5.545084E+03	4.974947E-16	5.095169E-17
5.555057E+03	5.033334E-16	5.148378E-17
5.565030E+03	5.091925E-16	5.201638E-17
5.575003E+03	5.150736E-16	5.254963E-17
5.584976E+03	5.209682E-16	5.308267E-17
5.594950E+03	5.268742E-16	5.361526E-17
5.604923E+03	5.327835E-16	5.414659E-17
5.614896E+03	5.386995E-16	5.467700E-17
5.624869E+03	5.446098E-16	5.520523E-17
5.634842E+03	5.505184E-16	5.573170E-17
5.644815E+03	5.564188E-16	5.625575E-17
5.654789E+03	5.623103E-16	5.677729E-17
5.664762E+03	5.681869E-16	5.729576E-17
5.674735E+03	5.740432E-16	5.781060E-17
5.684708E+03	5.798845E-16	5.832235E-17
5.694681E+03	5.856997E-16	5.882991E-17
5.704654E+03	5.914893E-16	5.933336E-17
5.714628E+03	5.972538E-16	5.983273E-17
5.724601E+03	6.029822E-16	6.032697E-17
5.734574E+03	6.086804E-16	6.081667E-17
5.744547E+03	6.143377E-16	6.130076E-17
5.754520E+03	6.199540E-16	6.177928E-17
5.764494E+03	6.255292E-16	6.225223E-17
5.774467E+03	6.310460E-16	6.271790E-17
5.784440E+03	6.365148E-16	6.317737E-17
5.794413E+03	6.419176E-16	6.362886E-17
5.804386E+03	6.472586E-16	6.407283E-17
5.814359E+03	6.525241E-16	6.450796E-17
5.824333E+03	6.577060E-16	6.493347E-17
5.834306E+03	6.628014E-16	6.534913E-17
5.844279E+03	6.678012E-16	6.575408E-17
5.854252E+03	6.726957E-16	6.614740E-17
5.864225E+03	6.774693E-16	6.652761E-17
5.874198E+03	6.821229E-16	6.689487E-17
5.884172E+03	6.866407E-16	6.724767E-17
5.894145E+03	6.910116E-16	6.758499E-17
5.904118E+03	6.952189E-16	6.790527E-17
5.914091E+03	6.992636E-16	6.820867E-17
5.924064E+03	7.031291E-16	6.849366E-17
5.934037E+03	7.068051E-16	6.875930E-17
5.944011E+03	7.102811E-16	6.900466E-17
5.953984E+03	7.135477E-16	6.922892E-17
5.963957E+03	7.165954E-16	6.943125E-17
5.973930E+03	7.194096E-16	6.961033E-17
5.983903E+03	7.219823E-16	6.976548E-17
5.993876E+03	7.243178E-16	6.989724E-17
6.003850E+03	7.263918E-16	7.000335E-17
6.013823E+03	7.282104E-16	7.008450E-17
6.023796E+03	7.297621E-16	7.013973E-17
6.033769E+03	7.310429E-16	7.016874E-17
6.043742E+03	7.320433E-16	7.017073E-17
6.053716E+03	7.327720E-16	7.014667E-17
6.063689E+03	7.332216E-16	7.009595E-17
6.073662E+03	7.333844E-16	7.001797E-17
6.083635E+03	7.332661E-16	6.991338E-17
6.093608E+03	7.328668E-16	6.978230E-17
6.103581E+03	7.321872E-16	6.962493E-17
6.113555E+03	7.312228E-16	6.944094E-17
6.123528E+03	7.299932E-16	6.923232E-17
6.133501E+03	7.284837E-16	6.899777E-17
6.143474E+03	7.267146E-16	6.873934E-17
6.153447E+03	7.246838E-16	6.845693E-17
6.163420E+03	7.224010E-16	6.815156E-17
6.173394E+03	7.198763E-16	6.782429E-17
6.183367E+03	7.171202E-16	6.747621E-17
6.193340E+03	7.141436E-16	6.710840E-17
6.203313E+03	7.109515E-16	6.672145E-17
6.213286E+03	7.075663E-16	6.631755E-17
6.223259E+03	7.039995E-16	6.589782E-17
6.233233E+03	7.002618E-16	6.546336E-17
6.243206E+03	6.963815E-16	6.501687E-17
6.253179E+03	6.923641E-16	6.455891E-17
6.263152E+03	6.882316E-16	6.409159E-17
6.273125E+03	6.840060E-16	6.361701E-17
6.283098E+03	6.796973E-16	6.313612E-17
6.293072E+03	6.753325E-16	6.265147E-17
6.303045E+03	6.709323E-16	6.216499E-17
6.313018E+03	6.665063E-16	6.167758E-17
6.322991E+03	6.620795E-16	6.119157E-17
6.332964E+03	6.576658E-16	6.070825E-17
6.342937E+03	6.532844E-16	6.022937E-17
6.352911E+03	6.489533E-16	5.975659E-17
6.362884E+03	6.446901E-16	5.929152E-17
6.372857E+03	6.405068E-16	5.883523E-17
6.382830E+03	6.364145E-16	5.838871E-17
6.392803E+03	6.324398E-16	5.795438E-17
6.402777E+03	6.285875E-16	5.753264E-17
6.412750E+03	6.248669E-16	5.712428E-17
6.422723E+03	6.212976E-16	5.673106E-17
6.432696E+03	6.178823E-16	5.635316E-17
6.442669E+03	6.146345E-16	5.599173E-17
6.452642E+03	6.115663E-16	5.564783E-17
6.462616E+03	6.086788E-16	5.532145E-17
6.472589E+03	6.059779E-16	5.501309E-17
6.482562E+03	6.034631E-16	5.472262E-17
6.492535E+03	6.011498E-16	5.445136E-17
6.502508E+03	5.990252E-16	5.419809E-17
6.512481E+03	5.970978E-16	5.396351E-17
6.522455E+03	5.953551E-16	5.374641E-17
6.532428E+03	5.937960E-16	5.354663E-17
6.542401E+03	5.924023E-16	5.336247E-17
6.552374E+03	5.911605E-16	5.319266E-17
6.562347E+03	5.900629E-16	5.303645E-17
6.572320E+03	5.890966E-16	5.289262E-17
6.582294E+03	5.882489E-16	5.276001E-17
6.592267E+03	5.875133E-16	5.263798E-17
6.602240E+03	5.868666E-16	5.252442E-17
6.612213E+03	5.863042E-16	5.241888E-17
6.622186E+03	5.858217E-16	5.232096E-17
6.632159E+03	5.854044E-16	5.222928E-17
6.642133E+03	5.850499E-16	5.214364E-17
6.652106E+03	5.847458E-16	5.206289E-17
6.662079E+03	5.844798E-16	5.198593E-17
6.672052E+03	5.842589E-16	5.191337E-17
6.682025E+03	5.840786E-16	5.184477E-17
6.691999E+03	5.839240E-16	5.177881E-17
6.701972E+03	5.837988E-16	5.171581E-17
6.711945E+03	5.837010E-16	5.165558E-17
6.721918E+03	5.836238E-16	5.159749E-17
6.731891E+03	5.835790E-16	5.154260E-17
6.741864E+03	5.835489E-16	5.148932E-17
6.751838E+03	5.835462E-16	5.143877E-17
6.761811E+03	5.835723E-16	5.139105E-17
6.771784E+03	5.836166E-16	5.134523E-17
6.781757E+03	5.836870E-16	5.130199E-17
6.791730E+03	5.837858E-16	5.126153E-17
6.801703E+03	5.839154E-16	5.122404E-17
6.811677E+03	5.840719E-16	5.118918E-17
6.821650E+03	5.842645E-16	5.115774E-17
6.831623E+03	5.844893E-16	5.112937E-17
6.841596E+03	5.847489E-16	5.110429E-17
6.851569E+03	5.850463E-16	5.108274E-17
6.861542E+03	5.853773E-16	5.106436E-17
6.871516E+03	5.857573E-16	5.105048E-17
6.881489E+03	5.861696E-16	5.103963E-17
6.891462E+03	5.866356E-16	5.103367E-17
6.901435E+03	5.871384E-16	5.103110E-17
6.911408E+03	5.876862E-16	5.103264E-17
6.921381E+03	5.882874E-16	5.103901E-17
6.931355E+03	5.889306E-16	5.104920E-17
6.941328E+03	5.896240E-16	5.106393E-17
6.951301E+03	5.903620E-16	5.108268E-17
6.961274E+03	5.911522E-16	5.110612E-17
6.971247E+03	5.919891E-16	5.113374E-17
6.981221E+03	5.928727E-16	5.116557E-17
6.991194E+03	5.938041E-16	5.120166E-17
7.001167E+03	5.947827E-16	5.124197E-17
7.011140E+03	5.958017E-16	5.128590E-17
7.021113E+03	5.968676E-16	5.133401E-17
7.031086E+03	5.979794E-16	5.138620E-17
7.041060E+03	5.991291E-16	5.144179E-17
7.051033E+03	6.003158E-16	5.150069E-17
7.061006E+03	6.015374E-16	5.156271E-17
7.070979E+03	6.027922E-16	5.162771E-17
7.080952E+03	6.040778E-16	5.169549E-17
7.090925E+03	6.053916E-16	5.176582E-17
7.100899E+03	6.067238E-16	5.183786E-17
7.110872E+03	6.080781E-16	5.191194E-17
7.120845E+03	6.094443E-16	5.198717E-17
7.130818E+03	6.108182E-16	5.206322E-17
7.140791E+03	6.121961E-16	5.213977E-17
7.150764E+03	6.135810E-16	5.221709E-17
7.160738E+03	6.149540E-16	5.229356E-17
7.170711E+03	6.163182E-16	5.236947E-17
7.180684E+03	6.176612E-16	5.244378E-17
7.190657E+03	6.189859E-16	5.251674E-17
7.200630E+03	6.202806E-16	5.258738E-17
7.210603E+03	6.215478E-16	5.265592E-17
7.220577E+03	6.227686E-16	5.272078E-17
7.230550E+03	6.239536E-16	5.278286E-17
7.240523E+03	6.250839E-16	5.284061E-17
7.250496E+03	6.261638E-16	5.289437E-17
7.260469E+03	6.271895E-16	5.294389E-17
7.270443E+03	6.281514E-16	5.298834E-17
7.280416E+03	6.290468E-16	5.302753E-17
7.290389E+03	6.298822E-16	5.306203E-17
7.300362E+03	6.306406E-16	5.309043E-17
7.310335E+03	6.313296E-16	5.311341E-17
7.320308E+03	6.319494E-16	5.313098E-17
7.330282E+03	6.324930E-16	5.314259E-17
7.340255E+03	6.329693E-16	5.314901E-17
7.350228E+03	6.333723E-16	5.314977E-17
7.360201E+03	6.337046E-16	5.314510E-17
7.370174E+03	6.339613E-16	5.313461E-17
7.380147E+03	6.341609E-16	5.311989E-17
7.390121E+03	6.342912E-16	5.309992E-17
7.400094E+03	6.343640E-16	5.307573E-17
7.410067E+03	6.343748E-16	5.304694E-17
7.420040E+03	6.343270E-16	5.301388E-17
7.430013E+03	6.342247E-16	5.297690E-17
7.439986E+03	6.340707E-16	5.293626E-17
7.449960E+03	6.338759E-16	5.289289E-17
7.459933E+03	6.336351E-16	5.284637E-17
7.469906E+03	6.333419E-16	5.279619E-17
7.479879E+03	6.330140E-16	5.274384E-17
7.489852E+03	6.326520E-16	5.268939E-17
7.499825E+03	6.322481E-16	5.263221E-17
7.509799E+03	6.318016E-16	5.257227E-17
7.519772E+03	6.313278E-16	5.251084E-17
7.529745E+03	6.308084E-16	5.244643E-17
7.539718E+03	6.302576E-16	5.238023E-17
7.549691E+03	6.296647E-16	5.231137E-17
7.559665E+03	6.290343E-16	5.224026E-17
7.569638E+03	6.283632E-16	5.216664E-17
7.579611E+03	6.276391E-16	5.208952E-17
7.589584E+03	6.268751E-16	5.200998E-17
7.599557E+03	6.260666E-16	5.192768E-17
7.609530E+03	6.252013E-16	5.184161E-17
7.619504E+03	6.242840E-16	5.175218E-17
7.629477E+03	6.233018E-16	5.165834E-17
7.639450E+03	6.222682E-16	5.156123E-17
7.649423E+03	6.211793E-16	5.146054E-17
7.659396E+03	6.200157E-16	5.135468E-17
7.669369E+03	6.187991E-16	5.124546E-17
7.679343E+03	6.175105E-16	5.113132E-17
7.689316E+03	6.161564E-16	5.101283E-17
7.699289E+03	6.147270E-16	5.088916E-17
7.709262E+03	6.132464E-16	5.076234E-17
7.719235E+03	6.116891E-16	5.063028E-17
7.729208E+03	6.100720E-16	5.049437E-17
7.739182E+03	6.083881E-16	5.035404E-17
