#wls	flux	fluxerr
1.595708E+03	4.662541E-20	1.676543E-21
1.635600E+03	4.976924E-20	1.788370E-21
1.675493E+03	5.242403E-20	1.882446E-21
1.715386E+03	5.449035E-20	1.955231E-21
1.755278E+03	5.583557E-20	2.002012E-21
1.795171E+03	5.623736E-20	2.014875E-21
1.835064E+03	5.541641E-20	1.983897E-21
1.874956E+03	5.314516E-20	1.901043E-21
1.914849E+03	4.932462E-20	1.762906E-21
1.954742E+03	4.413143E-20	1.575941E-21
1.994634E+03	3.809744E-20	1.359262E-21
2.034527E+03	3.214562E-20	1.145864E-21
2.074420E+03	2.734613E-20	9.738677E-22
2.114312E+03	2.455096E-20	8.734809E-22
2.154205E+03	2.428442E-20	8.631402E-22
2.194098E+03	2.685729E-20	9.536126E-22
2.233991E+03	3.252369E-20	1.153594E-21
2.273883E+03	4.147447E-20	1.469482E-21
2.313776E+03	5.369462E-20	1.900339E-21
2.353669E+03	6.891073E-20	2.436072E-21
2.393561E+03	8.673730E-20	3.062655E-21
2.433454E+03	1.067147E-19	3.763491E-21
2.473347E+03	1.284320E-19	4.523759E-21
2.513239E+03	1.516714E-19	5.335488E-21
2.553132E+03	1.762435E-19	6.191737E-21
2.593025E+03	2.021218E-19	7.091289E-21
2.632917E+03	2.292698E-19	8.032583E-21
2.672810E+03	2.577365E-19	9.017040E-21
2.712703E+03	2.877274E-19	1.005152E-20
2.752596E+03	3.192507E-19	1.113595E-20
2.792488E+03	3.525029E-19	1.227679E-20
2.832381E+03	3.875602E-19	1.347628E-20
2.872274E+03	4.247337E-19	1.474474E-20
2.912166E+03	4.642097E-19	1.608810E-20
2.952059E+03	5.059909E-19	1.750587E-20
2.991952E+03	5.504402E-19	1.900998E-20
3.001925E+03	5.620320E-19	1.940157E-20
3.011898E+03	5.737814E-19	1.979818E-20
3.021871E+03	5.856900E-19	2.019986E-20
3.031844E+03	5.978024E-19	2.060814E-20
3.041818E+03	6.102373E-19	2.102708E-20
3.051791E+03	6.232780E-19	2.146643E-20
3.061764E+03	6.367875E-19	2.192144E-20
3.071737E+03	6.507381E-19	2.239113E-20
3.081710E+03	6.652213E-19	2.287861E-20
3.091683E+03	6.799802E-19	2.337503E-20
3.101657E+03	6.952286E-19	2.388772E-20
3.111630E+03	7.109498E-19	2.441606E-20
3.121603E+03	7.268793E-19	2.495096E-20
3.131576E+03	7.432458E-19	2.550025E-20
3.141549E+03	7.599078E-19	2.605904E-20
3.151522E+03	7.768470E-19	2.662668E-20
3.161496E+03	7.940475E-19	2.720262E-20
3.171469E+03	8.116300E-19	2.779097E-20
3.181442E+03	8.294467E-19	2.838664E-20
3.191415E+03	8.474857E-19	2.898921E-20
3.201388E+03	8.658758E-19	2.960306E-20
3.211361E+03	8.844670E-19	3.022304E-20
3.221335E+03	9.032493E-19	3.084880E-20
3.231308E+03	9.222115E-19	3.147993E-20
3.241281E+03	9.414973E-19	3.212133E-20
3.251254E+03	9.607969E-19	3.276240E-20
3.261227E+03	9.805663E-19	3.341868E-20
3.271200E+03	1.000335E-18	3.407411E-20
3.281174E+03	1.020414E-18	3.473927E-20
3.291147E+03	1.040641E-18	3.540862E-20
3.301120E+03	1.061014E-18	3.608206E-20
3.311093E+03	1.081697E-18	3.676515E-20
3.321066E+03	1.102524E-18	3.745224E-20
3.331040E+03	1.123492E-18	3.814324E-20
3.341013E+03	1.144604E-18	3.883815E-20
3.350986E+03	1.166034E-18	3.954294E-20
3.360959E+03	1.187611E-18	4.025178E-20
3.370932E+03	1.209518E-18	4.097080E-20
3.380905E+03	1.231395E-18	4.168783E-20
3.390879E+03	1.253611E-18	4.241534E-20
3.400852E+03	1.276176E-18	4.315363E-20
3.410825E+03	1.298718E-18	4.389009E-20
3.420798E+03	1.321621E-18	4.463771E-20
3.430771E+03	1.344701E-18	4.539021E-20
3.440744E+03	1.368160E-18	4.615444E-20
3.450718E+03	1.391811E-18	4.692402E-20
3.460691E+03	1.415659E-18	4.769914E-20
3.470664E+03	1.439916E-18	4.848688E-20
3.480637E+03	1.464181E-18	4.927371E-20
3.490610E+03	1.489082E-18	5.008075E-20
3.500583E+03	1.514004E-18	5.088731E-20
3.510557E+03	1.539377E-18	5.170777E-20
3.520530E+03	1.564999E-18	5.253535E-20
3.530503E+03	1.590878E-18	5.337029E-20
3.540476E+03	1.617243E-18	5.422021E-20
3.550449E+03	1.643885E-18	5.507811E-20
3.560422E+03	1.671040E-18	5.595184E-20
3.570396E+03	1.698496E-18	5.683425E-20
3.580369E+03	1.726260E-18	5.772559E-20
3.590342E+03	1.754344E-18	5.862615E-20
3.600315E+03	1.782990E-18	5.954406E-20
3.610288E+03	1.811978E-18	6.047189E-20
3.620261E+03	1.841556E-18	6.141791E-20
3.630235E+03	1.871501E-18	6.237459E-20
3.640208E+03	1.901821E-18	6.334216E-20
3.650181E+03	1.932773E-18	6.432919E-20
3.660154E+03	1.964125E-18	6.532787E-20
3.670127E+03	1.995886E-18	6.633848E-20
3.680101E+03	2.028067E-18	6.736131E-20
3.690074E+03	2.060934E-18	6.840518E-20
3.700047E+03	2.094505E-18	6.947061E-20
3.710020E+03	2.128274E-18	7.054077E-20
3.719993E+03	2.162771E-18	7.163320E-20
3.729966E+03	2.198015E-18	7.274846E-20
3.739940E+03	2.233755E-18	7.387814E-20
3.749913E+03	2.269998E-18	7.502248E-20
3.759886E+03	2.306757E-18	7.618181E-20
3.769859E+03	2.344318E-18	7.736557E-20
3.779832E+03	2.382419E-18	7.856501E-20
3.789805E+03	2.421355E-18	7.978978E-20
3.799779E+03	2.460568E-18	8.102147E-20
3.809752E+03	2.500931E-18	8.228877E-20
3.819725E+03	2.541592E-18	8.356350E-20
3.829698E+03	2.583143E-18	8.486515E-20
3.839671E+03	2.625305E-18	8.618444E-20
3.849644E+03	2.668388E-18	8.753150E-20
3.859618E+03	2.712108E-18	8.889687E-20
3.869591E+03	2.756473E-18	9.028081E-20
3.879564E+03	2.801804E-18	9.169377E-20
3.889537E+03	2.847806E-18	9.312594E-20
3.899510E+03	2.894807E-18	9.458801E-20
3.909483E+03	2.942182E-18	9.605949E-20
3.919457E+03	2.990906E-18	9.757211E-20
3.929430E+03	3.040023E-18	9.909462E-20
3.939403E+03	3.090196E-18	1.006485E-19
3.949376E+03	3.141111E-18	1.022235E-19
3.959349E+03	3.193112E-18	1.038307E-19
3.969323E+03	3.245880E-18	1.054596E-19
3.979296E+03	3.299424E-18	1.071104E-19
3.989269E+03	3.354101E-18	1.087946E-19
3.999242E+03	3.409579E-18	1.105014E-19
4.009215E+03	3.465869E-18	1.122310E-19
4.019188E+03	3.522977E-18	1.139836E-19
4.029162E+03	3.581279E-18	1.157711E-19
4.039135E+03	3.640793E-18	1.175941E-19
4.049108E+03	3.700799E-18	1.194291E-19
4.059081E+03	3.762044E-18	1.213002E-19
4.069054E+03	3.824550E-18	1.232080E-19
4.079027E+03	3.887571E-18	1.251284E-19
4.089001E+03	3.951880E-18	1.270861E-19
4.098974E+03	4.017497E-18	1.290816E-19
4.108947E+03	4.083654E-18	1.310902E-19
4.118920E+03	4.151147E-18	1.331373E-19
4.128893E+03	4.219998E-18	1.352234E-19
4.138866E+03	4.289416E-18	1.373232E-19
4.148840E+03	4.360220E-18	1.394626E-19
4.158813E+03	4.432432E-18	1.416423E-19
4.168786E+03	4.505237E-18	1.438361E-19
4.178759E+03	4.579480E-18	1.460708E-19
4.188732E+03	4.654756E-18	1.483335E-19
4.198705E+03	4.731509E-18	1.506380E-19
4.208679E+03	4.809326E-18	1.529712E-19
4.218652E+03	4.888218E-18	1.553332E-19
4.228625E+03	4.968196E-18	1.577243E-19
4.238598E+03	5.049724E-18	1.601589E-19
4.248571E+03	5.132370E-18	1.626234E-19
4.258545E+03	5.216148E-18	1.651179E-19
4.268518E+03	5.301534E-18	1.676574E-19
4.278491E+03	5.387615E-18	1.702130E-19
4.288464E+03	5.475341E-18	1.728143E-19
4.298437E+03	5.564739E-18	1.754622E-19
4.308410E+03	5.654866E-18	1.781267E-19
4.318384E+03	5.746704E-18	1.808386E-19
4.328357E+03	5.839785E-18	1.835831E-19
4.338330E+03	5.934625E-18	1.863761E-19
4.348303E+03	6.030244E-18	1.891867E-19
4.358276E+03	6.127663E-18	1.920468E-19
4.368249E+03	6.226398E-18	1.949410E-19
4.378223E+03	6.326986E-18	1.978860E-19
4.388196E+03	6.428408E-18	2.008497E-19
4.398169E+03	6.531730E-18	2.038653E-19
4.408142E+03	6.636446E-18	2.069167E-19
4.418115E+03	6.742578E-18	2.100045E-19
4.428088E+03	6.850691E-18	2.131460E-19
4.438062E+03	6.959715E-18	2.163079E-19
4.448035E+03	7.070772E-18	2.195246E-19
4.458008E+03	7.183335E-18	2.227798E-19
4.467981E+03	7.297424E-18	2.260738E-19
4.477954E+03	7.413641E-18	2.294250E-19
4.487927E+03	7.530859E-18	2.327984E-19
4.497901E+03	7.650261E-18	2.362304E-19
4.507874E+03	7.771294E-18	2.397035E-19
4.517847E+03	7.893984E-18	2.432185E-19
4.527820E+03	8.018357E-18	2.467758E-19
4.537793E+03	8.145049E-18	2.503949E-19
4.547767E+03	8.272871E-18	2.540389E-19
4.557740E+03	8.403080E-18	2.577462E-19
4.567713E+03	8.535093E-18	2.614987E-19
4.577686E+03	8.668938E-18	2.652970E-19
4.587659E+03	8.804645E-18	2.691417E-19
4.597632E+03	8.942245E-18	2.730337E-19
4.607606E+03	9.081770E-18	2.769735E-19
4.617579E+03	9.223914E-18	2.809821E-19
4.627552E+03	9.367390E-18	2.850201E-19
4.637525E+03	9.513566E-18	2.891287E-19
4.647498E+03	9.661128E-18	2.932678E-19
4.657471E+03	9.811472E-18	2.974795E-19
4.667445E+03	9.963956E-18	3.017440E-19
4.677418E+03	1.011862E-17	3.060623E-19
4.687391E+03	1.027478E-17	3.104134E-19
4.697364E+03	1.043390E-17	3.148413E-19
4.707337E+03	1.059531E-17	3.193253E-19
4.717310E+03	1.075905E-17	3.238664E-19
4.727284E+03	1.092516E-17	3.284655E-19
4.737257E+03	1.109443E-17	3.331459E-19
4.747230E+03	1.126540E-17	3.378639E-19
4.757203E+03	1.143887E-17	3.426425E-19
4.767176E+03	1.161487E-17	3.474827E-19
4.777149E+03	1.179345E-17	3.523855E-19
4.787123E+03	1.197464E-17	3.573519E-19
4.797096E+03	1.215850E-17	3.623826E-19
4.807069E+03	1.234507E-17	3.674788E-19
4.817042E+03	1.253438E-17	3.726414E-19
4.827015E+03	1.272649E-17	3.778713E-19
4.836989E+03	1.292144E-17	3.831695E-19
4.846962E+03	1.311927E-17	3.885370E-19
4.856935E+03	1.332003E-17	3.939746E-19
4.866908E+03	1.352291E-17	3.994582E-19
4.876881E+03	1.372966E-17	4.050389E-19
4.886854E+03	1.393948E-17	4.106928E-19
4.896828E+03	1.415152E-17	4.163946E-19
4.906801E+03	1.436670E-17	4.221708E-19
4.916774E+03	1.458597E-17	4.280490E-19
4.926747E+03	1.480757E-17	4.339771E-19
4.936720E+03	1.503244E-17	4.399824E-19
4.946693E+03	1.526063E-17	4.460657E-19
4.956667E+03	1.549217E-17	4.522277E-19
4.966640E+03	1.572618E-17	4.584419E-19
4.976613E+03	1.596455E-17	4.647635E-19
4.986586E+03	1.620544E-17	4.711383E-19
4.996559E+03	1.644985E-17	4.775946E-19
5.006532E+03	1.669878E-17	4.841617E-19
5.016506E+03	1.694932E-17	4.907539E-19
5.026479E+03	1.720446E-17	4.974581E-19
5.036452E+03	1.746326E-17	5.042462E-19
5.046425E+03	1.772470E-17	5.110887E-19
5.056398E+03	1.798984E-17	5.180152E-19
5.066371E+03	1.825871E-17	5.250267E-19
5.076345E+03	1.853135E-17	5.321234E-19
5.086318E+03	1.880668E-17	5.392741E-19
5.096291E+03	1.908579E-17	5.465096E-19
5.106264E+03	1.936872E-17	5.538305E-19
5.116237E+03	1.965545E-17	5.612360E-19
5.126210E+03	1.994603E-17	5.687268E-19
5.136184E+03	2.023932E-17	5.762700E-19
5.146157E+03	2.053646E-17	5.838976E-19
5.156130E+03	2.083742E-17	5.916087E-19
5.166103E+03	2.114106E-17	5.993697E-19
5.176076E+03	2.144852E-17	6.072133E-19
5.186050E+03	2.175980E-17	6.151386E-19
5.196023E+03	2.207487E-17	6.231446E-19
5.205996E+03	2.239249E-17	6.311957E-19
5.215969E+03	2.271387E-17	6.393256E-19
5.225942E+03	2.303896E-17	6.475323E-19
5.235915E+03	2.336646E-17	6.557795E-19
5.245889E+03	2.369760E-17	6.641006E-19
5.255862E+03	2.403230E-17	6.724937E-19
5.265835E+03	2.436923E-17	6.809205E-19
5.275808E+03	2.470961E-17	6.894152E-19
5.285781E+03	2.505337E-17	6.979753E-19
5.295754E+03	2.539910E-17	7.065613E-19
5.305728E+03	2.574803E-17	7.152072E-19
5.315701E+03	2.610009E-17	7.239108E-19
5.325674E+03	2.645378E-17	7.326297E-19
5.335647E+03	2.681038E-17	7.413998E-19
5.345620E+03	2.716976E-17	7.502168E-19
5.355593E+03	2.753037E-17	7.590375E-19
5.365567E+03	2.789205E-17	7.678581E-19
5.375540E+03	2.825752E-17	7.767527E-19
5.385513E+03	2.862376E-17	7.856382E-19
5.395486E+03	2.899053E-17	7.945082E-19
5.405459E+03	2.935917E-17	8.033991E-19
5.415432E+03	2.972947E-17	8.123053E-19
5.425406E+03	3.009974E-17	8.211802E-19
5.435379E+03	3.047129E-17	8.300602E-19
5.445352E+03	3.084240E-17	8.388979E-19
5.455325E+03	3.121438E-17	8.477292E-19
5.465298E+03	3.158709E-17	8.565504E-19
5.475272E+03	3.195875E-17	8.653133E-19
5.485245E+03	3.232918E-17	8.740133E-19
5.495218E+03	3.269986E-17	8.826907E-19
5.505191E+03	3.307072E-17	8.913436E-19
5.515164E+03	3.344003E-17	8.999257E-19
5.525137E+03	3.380941E-17	9.084807E-19
5.535111E+03	3.417710E-17	9.169620E-19
5.545084E+03	3.454479E-17	9.254145E-19
5.555057E+03	3.491066E-17	9.337906E-19
5.565030E+03	3.527473E-17	9.420902E-19
5.575003E+03	3.564038E-17	9.504047E-19
5.584976E+03	3.600240E-17	9.585951E-19
5.594950E+03	3.636598E-17	9.667993E-19
5.604923E+03	3.672583E-17	9.748773E-19
5.614896E+03	3.708722E-17	9.829694E-19
5.624869E+03	3.744479E-17	9.909333E-19
5.634842E+03	3.780207E-17	9.988627E-19
5.644815E+03	3.815907E-17	1.006758E-18
5.654789E+03	3.851392E-17	1.014571E-18
5.664762E+03	3.886847E-17	1.022349E-18
5.674735E+03	3.922080E-17	1.030044E-18
5.684708E+03	3.957089E-17	1.037653E-18
5.694681E+03	3.992061E-17	1.045227E-18
5.704654E+03	4.026993E-17	1.052766E-18
5.714628E+03	4.061504E-17	1.060169E-18
5.724601E+03	4.096163E-17	1.067586E-18
5.734574E+03	4.130392E-17	1.074866E-18
5.744547E+03	4.164770E-17	1.082160E-18
5.754520E+03	4.198713E-17	1.089317E-18
5.764494E+03	4.232609E-17	1.096438E-18
5.774467E+03	4.266458E-17	1.103522E-18
5.784440E+03	4.300064E-17	1.110520E-18
5.794413E+03	4.333421E-17	1.117431E-18
5.804386E+03	4.366733E-17	1.124306E-18
5.814359E+03	4.399794E-17	1.131095E-18
5.824333E+03	4.432810E-17	1.137849E-18
5.834306E+03	4.465579E-17	1.144517E-18
5.844279E+03	4.498099E-17	1.151099E-18
5.854252E+03	4.530577E-17	1.157648E-18
5.864225E+03	4.562807E-17	1.164113E-18
5.874198E+03	4.595000E-17	1.170547E-18
5.884172E+03	4.626947E-17	1.176897E-18
5.894145E+03	4.658652E-17	1.183165E-18
5.904118E+03	4.690329E-17	1.189405E-18
5.914091E+03	4.721984E-17	1.195619E-18
5.924064E+03	4.753186E-17	1.201699E-18
5.934037E+03	4.784373E-17	1.207755E-18
5.944011E+03	4.815548E-17	1.213789E-18
5.953984E+03	4.846501E-17	1.219747E-18
5.963957E+03	4.877230E-17	1.225631E-18
5.973930E+03	4.907967E-17	1.231498E-18
5.983903E+03	4.938491E-17	1.237293E-18
5.993876E+03	4.968810E-17	1.243020E-18
6.003850E+03	4.999152E-17	1.248734E-18
6.013823E+03	5.029301E-17	1.254383E-18
6.023796E+03	5.059483E-17	1.260023E-18
6.033769E+03	5.089487E-17	1.265602E-18
6.043742E+03	5.119313E-17	1.271120E-18
6.053716E+03	5.149200E-17	1.276638E-18
6.063689E+03	5.178923E-17	1.282099E-18
6.073662E+03	5.208723E-17	1.287563E-18
6.083635E+03	5.238373E-17	1.292976E-18
6.093608E+03	5.267884E-17	1.298339E-18
6.103581E+03	5.297495E-17	1.303712E-18
6.113555E+03	5.326981E-17	1.309041E-18
6.123528E+03	5.356346E-17	1.314325E-18
6.133501E+03	5.385836E-17	1.319627E-18
6.143474E+03	5.415223E-17	1.324891E-18
6.153447E+03	5.444753E-17	1.330176E-18
6.163420E+03	5.474195E-17	1.335428E-18
6.173394E+03	5.503552E-17	1.340646E-18
6.183367E+03	5.533075E-17	1.345894E-18
6.193340E+03	5.562530E-17	1.351112E-18
6.203313E+03	5.592165E-17	1.356364E-18
6.213286E+03	5.621745E-17	1.361591E-18
6.223259E+03	5.651273E-17	1.366795E-18
6.233233E+03	5.681005E-17	1.372038E-18
6.243206E+03	5.710694E-17	1.377261E-18
6.253179E+03	5.740599E-17	1.382527E-18
6.263152E+03	5.770471E-17	1.387776E-18
6.273125E+03	5.800313E-17	1.393009E-18
6.283098E+03	5.830384E-17	1.398288E-18
6.293072E+03	5.860429E-17	1.403554E-18
6.303045E+03	5.890711E-17	1.408869E-18
6.313018E+03	5.920716E-17	1.414110E-18
6.322991E+03	5.951216E-17	1.419463E-18
6.332964E+03	5.981698E-17	1.424806E-18
6.342937E+03	6.012161E-17	1.430138E-18
6.352911E+03	6.042602E-17	1.435460E-18
6.362884E+03	6.073281E-17	1.440834E-18
6.372857E+03	6.104202E-17	1.446261E-18
6.382830E+03	6.135100E-17	1.451678E-18
6.392803E+03	6.165963E-17	1.457084E-18
6.402777E+03	6.196792E-17	1.462479E-18
6.412750E+03	6.228125E-17	1.467991E-18
6.422723E+03	6.259145E-17	1.473428E-18
6.432696E+03	6.290391E-17	1.478916E-18
6.442669E+03	6.321589E-17	1.484393E-18
6.452642E+03	6.353006E-17	1.489921E-18
6.462616E+03	6.384370E-17	1.495437E-18
6.472589E+03	6.415952E-17	1.501006E-18
6.482562E+03	6.447472E-17	1.506562E-18
6.492535E+03	6.479210E-17	1.512172E-18
6.502508E+03	6.510886E-17	1.517770E-18
6.512481E+03	6.542506E-17	1.523359E-18
6.522455E+03	6.574352E-17	1.529005E-18
6.532428E+03	6.606445E-17	1.534714E-18
6.542401E+03	6.638214E-17	1.540354E-18
6.552374E+03	6.670545E-17	1.546130E-18
6.562347E+03	6.702577E-17	1.551844E-18
6.572320E+03	6.735207E-17	1.557705E-18
6.582294E+03	6.767572E-17	1.563514E-18
6.592267E+03	6.800574E-17	1.569479E-18
6.602240E+03	6.833345E-17	1.575400E-18
6.612213E+03	6.866495E-17	1.581420E-18
6.622186E+03	6.900050E-17	1.587544E-18
6.632159E+03	6.933730E-17	1.593710E-18
6.642133E+03	6.967858E-17	1.599991E-18
6.652106E+03	7.002143E-17	1.606322E-18
6.662079E+03	7.036609E-17	1.612709E-18
6.672052E+03	7.071580E-17	1.619225E-18
6.682025E+03	7.107075E-17	1.625874E-18
6.691999E+03	7.142801E-17	1.632590E-18
6.701972E+03	7.179093E-17	1.639449E-18
6.711945E+03	7.215651E-17	1.646382E-18
6.721918E+03	7.252491E-17	1.653394E-18
6.731891E+03	7.289945E-17	1.660558E-18
6.741864E+03	7.328033E-17	1.667881E-18
6.751838E+03	7.366453E-17	1.675293E-18
6.761811E+03	7.405536E-17	1.682869E-18
6.771784E+03	7.444973E-17	1.690539E-18
6.781757E+03	7.485110E-17	1.698381E-18
6.791730E+03	7.525624E-17	1.706322E-18
6.801703E+03	7.566864E-17	1.714441E-18
6.811677E+03	7.608844E-17	1.722741E-18
6.821650E+03	7.651237E-17	1.731148E-18
6.831623E+03	7.694054E-17	1.739664E-18
6.841596E+03	7.737642E-17	1.748368E-18
6.851569E+03	7.782016E-17	1.757263E-18
6.861542E+03	7.826839E-17	1.766272E-18
6.871516E+03	7.872467E-17	1.775476E-18
6.881489E+03	7.918910E-17	1.784878E-18
6.891462E+03	7.965823E-17	1.794398E-18
6.901435E+03	8.013212E-17	1.804040E-18
6.911408E+03	8.061437E-17	1.813883E-18
6.921381E+03	8.110509E-17	1.823930E-18
6.931355E+03	8.160072E-17	1.834101E-18
6.941328E+03	8.210489E-17	1.844478E-18
6.951301E+03	8.261774E-17	1.855064E-18
6.961274E+03	8.313556E-17	1.865775E-18
6.971247E+03	8.366213E-17	1.876697E-18
6.981221E+03	8.419376E-17	1.887746E-18
6.991194E+03	8.473415E-17	1.899006E-18
7.001167E+03	8.528345E-17	1.910480E-18
7.011140E+03	8.583777E-17	1.922082E-18
7.021113E+03	8.640102E-17	1.933898E-18
7.031086E+03	8.696929E-17	1.945841E-18
7.041060E+03	8.754650E-17	1.958000E-18
7.051033E+03	8.813269E-17	1.970375E-18
7.061006E+03	8.872381E-17	1.982876E-18
7.070979E+03	8.932395E-17	1.995595E-18
7.080952E+03	8.993304E-17	2.008529E-18
7.090925E+03	9.054700E-17	2.021590E-18
7.100899E+03	9.116995E-17	2.034868E-18
7.110872E+03	9.180186E-17	2.048363E-18
7.120845E+03	9.243849E-17	2.061981E-18
7.130818E+03	9.308402E-17	2.075815E-18
7.140791E+03	9.373843E-17	2.089866E-18
7.150764E+03	9.439742E-17	2.104038E-18
7.160738E+03	9.506520E-17	2.118425E-18
7.170711E+03	9.574175E-17	2.133027E-18
7.180684E+03	9.642263E-17	2.147746E-18
7.190657E+03	9.711213E-17	2.162678E-18
7.200630E+03	9.781026E-17	2.177822E-18
7.210603E+03	9.851240E-17	2.193078E-18
7.220577E+03	9.922300E-17	2.208545E-18
7.230550E+03	9.994195E-17	2.224220E-18
7.240523E+03	1.006646E-16	2.240000E-18
7.250496E+03	1.014001E-16	2.256091E-18
7.260469E+03	1.021342E-16	2.272178E-18
7.270443E+03	1.028811E-16	2.288572E-18
7.280416E+03	1.036311E-16	2.305061E-18
7.290389E+03	1.043888E-16	2.321749E-18
7.300362E+03	1.051541E-16	2.338635E-18
7.310335E+03	1.059270E-16	2.355716E-18
7.320308E+03	1.067022E-16	2.372878E-18
7.330282E+03	1.074845E-16	2.390230E-18
7.340255E+03	1.082687E-16	2.407654E-18
7.350228E+03	1.090649E-16	2.425375E-18
7.360201E+03	1.098625E-16	2.443161E-18
7.370174E+03	1.106665E-16	2.461123E-18
7.380147E+03	1.114714E-16	2.479140E-18
7.390121E+03	1.122875E-16	2.497441E-18
7.400094E+03	1.131040E-16	2.515787E-18
7.410067E+03	1.139204E-16	2.534171E-18
7.420040E+03	1.147474E-16	2.552828E-18
7.430013E+03	1.155738E-16	2.571511E-18
7.439986E+03	1.164103E-16	2.590458E-18
7.449960E+03	1.172398E-16	2.609293E-18
7.459933E+03	1.180787E-16	2.628382E-18
7.469906E+03	1.189155E-16	2.647465E-18
7.479879E+03	1.197610E-16	2.666791E-18
7.489852E+03	1.205977E-16	2.685966E-18
7.499825E+03	1.214425E-16	2.705369E-18
7.509799E+03	1.222890E-16	2.724861E-18
7.519772E+03	1.231310E-16	2.744302E-18
7.529745E+03	1.239738E-16	2.763813E-18
7.539718E+03	1.248169E-16	2.783384E-18
7.549691E+03	1.256536E-16	2.802868E-18
7.559665E+03	1.264957E-16	2.822527E-18
7.569638E+03	1.273301E-16	2.842073E-18
7.579611E+03	1.281625E-16	2.861632E-18
7.589584E+03	1.289922E-16	2.881191E-18
7.599557E+03	1.298122E-16	2.900595E-18
7.609530E+03	1.306344E-16	2.920112E-18
7.619504E+03	1.314454E-16	2.939442E-18
7.629477E+03	1.322507E-16	2.958713E-18
7.639450E+03	1.330430E-16	2.977759E-18
7.649423E+03	1.338348E-16	2.996861E-18
7.659396E+03	1.346117E-16	3.015701E-18
7.669369E+03	1.353865E-16	3.034565E-18
7.679343E+03	1.361446E-16	3.053130E-18
7.689316E+03	1.368852E-16	3.071373E-18
7.699289E+03	1.376208E-16	3.089583E-18
7.709262E+03	1.383439E-16	3.107586E-18
7.719235E+03	1.390463E-16	3.125204E-18
7.729208E+03	1.397339E-16	3.142571E-18
7.739182E+03	1.404060E-16	3.159668E-18
