#wls	flux	fluxerr
1.595708E+03	3.544520E-20	1.217727E-21
1.635600E+03	3.762709E-20	1.290982E-21
1.675493E+03	3.941792E-20	1.350593E-21
1.715386E+03	4.075306E-20	1.394393E-21
1.755278E+03	4.152532E-20	1.418781E-21
1.795171E+03	4.156663E-20	1.418100E-21
1.835064E+03	4.071376E-20	1.386899E-21
1.874956E+03	3.880159E-20	1.319702E-21
1.914849E+03	3.577980E-20	1.214978E-21
1.954742E+03	3.180236E-20	1.078138E-21
1.994634E+03	2.727870E-20	9.232158E-22
2.034527E+03	2.286578E-20	7.725199E-22
2.074420E+03	1.931536E-20	6.514024E-22
2.114312E+03	1.722311E-20	5.797751E-22
2.154205E+03	1.691336E-20	5.682730E-22
2.194098E+03	1.857003E-20	6.227253E-22
2.233991E+03	2.232312E-20	7.470885E-22
2.273883E+03	2.825821E-20	9.437810E-22
2.313776E+03	3.630486E-20	1.209975E-21
2.353669E+03	4.625097E-20	1.538128E-21
2.393561E+03	5.777793E-20	1.917202E-21
2.433454E+03	7.050980E-20	2.334336E-21
2.473347E+03	8.423019E-20	2.782036E-21
2.513239E+03	9.869152E-20	3.251833E-21
2.553132E+03	1.137627E-19	3.739156E-21
2.593025E+03	1.294186E-19	4.242935E-21
2.632917E+03	1.456541E-19	4.762761E-21
2.672810E+03	1.624468E-19	5.297651E-21
2.712703E+03	1.798910E-19	5.850417E-21
2.752596E+03	1.979941E-19	6.421001E-21
2.792488E+03	2.168870E-19	7.013332E-21
2.832381E+03	2.365855E-19	7.627572E-21
2.872274E+03	2.572451E-19	8.268338E-21
2.912166E+03	2.789650E-19	8.938382E-21
2.952059E+03	3.017609E-19	9.637725E-21
2.991952E+03	3.258192E-19	1.037180E-20
3.001925E+03	3.320052E-19	1.055985E-20
3.011898E+03	3.383696E-19	1.075319E-20
3.021871E+03	3.447195E-19	1.094569E-20
3.031844E+03	3.512788E-19	1.114443E-20
3.041818E+03	3.579172E-19	1.134526E-20
3.051791E+03	3.649388E-19	1.155781E-20
3.061764E+03	3.721186E-19	1.177493E-20
3.071737E+03	3.796513E-19	1.200275E-20
3.081710E+03	3.873072E-19	1.223399E-20
3.091683E+03	3.952901E-19	1.247505E-20
3.101657E+03	4.034787E-19	1.272209E-20
3.111630E+03	4.117444E-19	1.297104E-20
3.121603E+03	4.203055E-19	1.322875E-20
3.131576E+03	4.290371E-19	1.349126E-20
3.141549E+03	4.379289E-19	1.375824E-20
3.151522E+03	4.469715E-19	1.402937E-20
3.161496E+03	4.561558E-19	1.430435E-20
3.171469E+03	4.654739E-19	1.458290E-20
3.181442E+03	4.749183E-19	1.486479E-20
3.191415E+03	4.844819E-19	1.514978E-20
3.201388E+03	4.941586E-19	1.543765E-20
3.211361E+03	5.039428E-19	1.572822E-20
3.221335E+03	5.138295E-19	1.602132E-20
3.231308E+03	5.238144E-19	1.631680E-20
3.241281E+03	5.338935E-19	1.661452E-20
3.251254E+03	5.442112E-19	1.691896E-20
3.261227E+03	5.544723E-19	1.722091E-20
3.271200E+03	5.648198E-19	1.752483E-20
3.281174E+03	5.754067E-19	1.783543E-20
3.291147E+03	5.859254E-19	1.814316E-20
3.301120E+03	5.966869E-19	1.845766E-20
3.311093E+03	6.073747E-19	1.876910E-20
3.321066E+03	6.183108E-19	1.908742E-20
3.331040E+03	6.291698E-19	1.940258E-20
3.341013E+03	6.402845E-19	1.972481E-20
3.350986E+03	6.514922E-19	2.004908E-20
3.360959E+03	6.626212E-19	2.037010E-20
3.370932E+03	6.740201E-19	2.069857E-20
3.380905E+03	6.855202E-19	2.102930E-20
3.390879E+03	6.971250E-19	2.136236E-20
3.400852E+03	7.086545E-19	2.169223E-20
3.410825E+03	7.204779E-19	2.203021E-20
3.420798E+03	7.324189E-19	2.237087E-20
3.430771E+03	7.444817E-19	2.271432E-20
3.440744E+03	7.566712E-19	2.306070E-20
3.450718E+03	7.689940E-19	2.341018E-20
3.460691E+03	7.814548E-19	2.376289E-20
3.470664E+03	7.940595E-19	2.411898E-20
3.480637E+03	8.068145E-19	2.447864E-20
3.490610E+03	8.199337E-19	2.484831E-20
3.500583E+03	8.330119E-19	2.521569E-20
3.510557E+03	8.462595E-19	2.558714E-20
3.520530E+03	8.596845E-19	2.596288E-20
3.530503E+03	8.735122E-19	2.634967E-20
3.540476E+03	8.873159E-19	2.673460E-20
3.550449E+03	9.013189E-19	2.712440E-20
3.560422E+03	9.157559E-19	2.752610E-20
3.570396E+03	9.301839E-19	2.792632E-20
3.580369E+03	9.450686E-19	2.833904E-20
3.590342E+03	9.599541E-19	2.875054E-20
3.600315E+03	9.753180E-19	2.917510E-20
3.610288E+03	9.906943E-19	2.959874E-20
3.620261E+03	1.006574E-18	3.003608E-20
3.630235E+03	1.022475E-18	3.047274E-20
3.640208E+03	1.038904E-18	3.092374E-20
3.650181E+03	1.055624E-18	3.138197E-20
3.660154E+03	1.072643E-18	3.184766E-20
3.670127E+03	1.089708E-18	3.231325E-20
3.680101E+03	1.107352E-18	3.279449E-20
3.690074E+03	1.125324E-18	3.328390E-20
3.700047E+03	1.143634E-18	3.378175E-20
3.710020E+03	1.162293E-18	3.428827E-20
3.719993E+03	1.181311E-18	3.480370E-20
3.729966E+03	1.200697E-18	3.532834E-20
3.739940E+03	1.220463E-18	3.586238E-20
3.749913E+03	1.240619E-18	3.640613E-20
3.759886E+03	1.261176E-18	3.695982E-20
3.769859E+03	1.282145E-18	3.752373E-20
3.779832E+03	1.303536E-18	3.809811E-20
3.789805E+03	1.325361E-18	3.868322E-20
3.799779E+03	1.347631E-18	3.927931E-20
3.809752E+03	1.370676E-18	3.989595E-20
3.819725E+03	1.393877E-18	4.051500E-20
3.829698E+03	1.417557E-18	4.114588E-20
3.839671E+03	1.442061E-18	4.179843E-20
3.849644E+03	1.466744E-18	4.245392E-20
3.859618E+03	1.491942E-18	4.312205E-20
3.869591E+03	1.518017E-18	4.381313E-20
3.879564E+03	1.544293E-18	4.450758E-20
3.889537E+03	1.571125E-18	4.521559E-20
3.899510E+03	1.598886E-18	4.594777E-20
3.909483E+03	1.626873E-18	4.668386E-20
3.919457E+03	1.655827E-18	4.744502E-20
3.929430E+03	1.685024E-18	4.821037E-20
3.939403E+03	1.715226E-18	4.900171E-20
3.949376E+03	1.746078E-18	4.980870E-20
3.959349E+03	1.777198E-18	5.062040E-20
3.969323E+03	1.809384E-18	5.145944E-20
3.979296E+03	1.841858E-18	5.230358E-20
3.989269E+03	1.875441E-18	5.317602E-20
3.999242E+03	1.909747E-18	5.406572E-20
4.009215E+03	1.944794E-18	5.497303E-20
4.019188E+03	1.980164E-18	5.588607E-20
4.029162E+03	2.016733E-18	5.682944E-20
4.039135E+03	2.054090E-18	5.779144E-20
4.049108E+03	2.092254E-18	5.877245E-20
4.059081E+03	2.131240E-18	5.977277E-20
4.069054E+03	2.170601E-18	6.077975E-20
4.079027E+03	2.211279E-18	6.181966E-20
4.089001E+03	2.252834E-18	6.288005E-20
4.098974E+03	2.295284E-18	6.396123E-20
4.108947E+03	2.338647E-18	6.506362E-20
4.118920E+03	2.382943E-18	6.618757E-20
4.128893E+03	2.428190E-18	6.733349E-20
4.138866E+03	2.474410E-18	6.850178E-20
4.148840E+03	2.521620E-18	6.969281E-20
4.158813E+03	2.569842E-18	7.090702E-20
4.168786E+03	2.619097E-18	7.214478E-20
4.178759E+03	2.669405E-18	7.340652E-20
4.188732E+03	2.720786E-18	7.469264E-20
4.198705E+03	2.773266E-18	7.600361E-20
4.208679E+03	2.826863E-18	7.733979E-20
4.218652E+03	2.881601E-18	7.870168E-20
4.228625E+03	2.937503E-18	8.008966E-20
4.238598E+03	2.994592E-18	8.150421E-20
4.248571E+03	3.052891E-18	8.294576E-20
4.258545E+03	3.113060E-18	8.443202E-20
4.268518E+03	3.173863E-18	8.592921E-20
4.278491E+03	3.235950E-18	8.745480E-20
4.288464E+03	3.299346E-18	8.900927E-20
4.298437E+03	3.364077E-18	9.059306E-20
4.308410E+03	3.430168E-18	9.220667E-20
4.318384E+03	3.498349E-18	9.386944E-20
4.328357E+03	3.567252E-18	9.554443E-20
4.338330E+03	3.637597E-18	9.725072E-20
4.348303E+03	3.709412E-18	9.898885E-20
4.358276E+03	3.782723E-18	1.007593E-19
4.368249E+03	3.858326E-18	1.025829E-19
4.378223E+03	3.934732E-18	1.044198E-19
4.388196E+03	4.012723E-18	1.062906E-19
4.398169E+03	4.092328E-18	1.081958E-19
4.408142E+03	4.173579E-18	1.101360E-19
4.418115E+03	4.257339E-18	1.121336E-19
4.428088E+03	4.341986E-18	1.141456E-19
4.438062E+03	4.428375E-18	1.161943E-19
4.448035E+03	4.516534E-18	1.182801E-19
4.458008E+03	4.607390E-18	1.204270E-19
4.467981E+03	4.699206E-18	1.225892E-19
4.477954E+03	4.792893E-18	1.247902E-19
4.487927E+03	4.888486E-18	1.270306E-19
4.497901E+03	4.986019E-18	1.293112E-19
4.507874E+03	5.086499E-18	1.316574E-19
4.517847E+03	5.188032E-18	1.340201E-19
4.527820E+03	5.291613E-18	1.364246E-19
4.537793E+03	5.397274E-18	1.388714E-19
4.547767E+03	5.505054E-18	1.413612E-19
4.557740E+03	5.616050E-18	1.439218E-19
4.567713E+03	5.728197E-18	1.464998E-19
4.577686E+03	5.842575E-18	1.491226E-19
4.587659E+03	5.959221E-18	1.517907E-19
4.597632E+03	6.078174E-18	1.545049E-19
4.607606E+03	6.199473E-18	1.572656E-19
4.617579E+03	6.323155E-18	1.600736E-19
4.627552E+03	6.449261E-18	1.629293E-19
4.637525E+03	6.579049E-18	1.658641E-19
4.647498E+03	6.710142E-18	1.688177E-19
4.657471E+03	6.843776E-18	1.718209E-19
4.667445E+03	6.979994E-18	1.748743E-19
4.677418E+03	7.118833E-18	1.779784E-19
4.687391E+03	7.260336E-18	1.811339E-19
4.697364E+03	7.404540E-18	1.843413E-19
4.707337E+03	7.551488E-18	1.876012E-19
4.717310E+03	7.701217E-18	1.909141E-19
4.727284E+03	7.853769E-18	1.942806E-19
4.737257E+03	8.009184E-18	1.977013E-19
4.747230E+03	8.167500E-18	2.011766E-19
4.757203E+03	8.327257E-18	2.046702E-19
4.767176E+03	8.491469E-18	2.082558E-19
4.777149E+03	8.658699E-18	2.118976E-19
4.787123E+03	8.828985E-18	2.155959E-19
4.797096E+03	9.002364E-18	2.193514E-19
4.807069E+03	9.178876E-18	2.231643E-19
4.817042E+03	9.356893E-18	2.269947E-19
4.827015E+03	9.539748E-18	2.309233E-19
4.836989E+03	9.725838E-18	2.349104E-19
4.846962E+03	9.913452E-18	2.389143E-19
4.856935E+03	1.010609E-17	2.430191E-19
4.866908E+03	1.030206E-17	2.471834E-19
4.876881E+03	1.049956E-17	2.513634E-19
4.886854E+03	1.070226E-17	2.556469E-19
4.896828E+03	1.090648E-17	2.599452E-19
4.906801E+03	1.111603E-17	2.643485E-19
4.916774E+03	1.132708E-17	2.687655E-19
4.926747E+03	1.154355E-17	2.732890E-19
4.936720E+03	1.176152E-17	2.778250E-19
4.946693E+03	1.198295E-17	2.824200E-19
4.956667E+03	1.220996E-17	2.871235E-19
4.966640E+03	1.243841E-17	2.918371E-19
4.976613E+03	1.267037E-17	2.966093E-19
4.986586E+03	1.290805E-17	3.014915E-19
4.996559E+03	1.314709E-17	3.063810E-19
5.006532E+03	1.338965E-17	3.113283E-19
5.016506E+03	1.363574E-17	3.163329E-19
5.026479E+03	1.388536E-17	3.213943E-19
5.036452E+03	1.413850E-17	3.265122E-19
5.046425E+03	1.439516E-17	3.316857E-19
5.056398E+03	1.465532E-17	3.369144E-19
5.066371E+03	1.491896E-17	3.421974E-19
5.076345E+03	1.518607E-17	3.475340E-19
5.086318E+03	1.545663E-17	3.529233E-19
5.096291E+03	1.572798E-17	3.583044E-19
5.106264E+03	1.600531E-17	3.637955E-19
5.116237E+03	1.628600E-17	3.693363E-19
5.126210E+03	1.656726E-17	3.748633E-19
5.136184E+03	1.685451E-17	3.804993E-19
5.146157E+03	1.714501E-17	3.861818E-19
5.156130E+03	1.743581E-17	3.918440E-19
5.166103E+03	1.773259E-17	3.976137E-19
5.176076E+03	1.802949E-17	4.033591E-19
5.186050E+03	1.832931E-17	4.091432E-19
5.196023E+03	1.863509E-17	4.150332E-19
5.205996E+03	1.894065E-17	4.208912E-19
5.215969E+03	1.924896E-17	4.267838E-19
5.225942E+03	1.955995E-17	4.327089E-19
5.235915E+03	1.987354E-17	4.386650E-19
5.245889E+03	2.018965E-17	4.446502E-19
5.255862E+03	2.050820E-17	4.506627E-19
5.265835E+03	2.082914E-17	4.567016E-19
5.275808E+03	2.115237E-17	4.627644E-19
5.285781E+03	2.147781E-17	4.688498E-19
5.295754E+03	2.180541E-17	4.749565E-19
5.305728E+03	2.213506E-17	4.810826E-19
5.315701E+03	2.246310E-17	4.871485E-19
5.325674E+03	2.279663E-17	4.933087E-19
5.335647E+03	2.312831E-17	4.994045E-19
5.345620E+03	2.346542E-17	5.055934E-19
5.355593E+03	2.380048E-17	5.117144E-19
5.365567E+03	2.414097E-17	5.179288E-19
5.375540E+03	2.447921E-17	5.240717E-19
5.385513E+03	2.481895E-17	5.302242E-19
5.395486E+03	2.516014E-17	5.363858E-19
5.405459E+03	2.550280E-17	5.425570E-19
5.415432E+03	2.584686E-17	5.487369E-19
5.425406E+03	2.619233E-17	5.549261E-19
5.435379E+03	2.653921E-17	5.611250E-19
5.445352E+03	2.688747E-17	5.673335E-19
5.455325E+03	2.723715E-17	5.735526E-19
5.465298E+03	2.758819E-17	5.797820E-19
5.475272E+03	2.793621E-17	5.859298E-19
5.485245E+03	2.828986E-17	5.921788E-19
5.495218E+03	2.864474E-17	5.984363E-19
5.505191E+03	2.899618E-17	6.046060E-19
5.515164E+03	2.934846E-17	6.107782E-19
5.525137E+03	2.970609E-17	6.170469E-19
5.535111E+03	3.005969E-17	6.232178E-19
5.545084E+03	3.041367E-17	6.293838E-19
5.555057E+03	3.076790E-17	6.355424E-19
5.565030E+03	3.112218E-17	6.416905E-19
5.575003E+03	3.147642E-17	6.478270E-19
5.584976E+03	3.183040E-17	6.539484E-19
5.594950E+03	3.218404E-17	6.600531E-19
5.604923E+03	3.253718E-17	6.661384E-19
5.614896E+03	3.288463E-17	6.720987E-19
5.624869E+03	3.323635E-17	6.781380E-19
5.634842E+03	3.358722E-17	6.841521E-19
5.644815E+03	3.393194E-17	6.900333E-19
5.654789E+03	3.427553E-17	6.958846E-19
5.664762E+03	3.462316E-17	7.018113E-19
5.674735E+03	3.496425E-17	7.075990E-19
5.684708E+03	3.530399E-17	7.133534E-19
5.694681E+03	3.564228E-17	7.190731E-19
5.704654E+03	3.597907E-17	7.247575E-19
5.714628E+03	3.631433E-17	7.304061E-19
5.724601E+03	3.664800E-17	7.360181E-19
5.734574E+03	3.698008E-17	7.415941E-19
5.744547E+03	3.730487E-17	7.470201E-19
5.754520E+03	3.763358E-17	7.525213E-19
5.764494E+03	3.795489E-17	7.578714E-19
5.774467E+03	3.828020E-17	7.632985E-19
5.784440E+03	3.859800E-17	7.685733E-19
5.794413E+03	3.891988E-17	7.739271E-19
5.804386E+03	3.923417E-17	7.791281E-19
5.814359E+03	3.954670E-17	7.842924E-19
5.824333E+03	3.985746E-17	7.894203E-19
5.834306E+03	4.016649E-17	7.945129E-19
5.844279E+03	4.047381E-17	7.995707E-19
5.854252E+03	4.077943E-17	8.045943E-19
5.864225E+03	4.107725E-17	8.094638E-19
5.874198E+03	4.137951E-17	8.144208E-19
5.884172E+03	4.168017E-17	8.193462E-19
5.894145E+03	4.197300E-17	8.241181E-19
5.904118E+03	4.226424E-17	8.288594E-19
5.914091E+03	4.256019E-17	8.336939E-19
5.924064E+03	4.284835E-17	8.383766E-19
5.934037E+03	4.313497E-17	8.430307E-19
5.944011E+03	4.342018E-17	8.476584E-19
5.953984E+03	4.370395E-17	8.522598E-19
5.963957E+03	4.398636E-17	8.568363E-19
5.973930E+03	4.426746E-17	8.613893E-19
5.983903E+03	4.454730E-17	8.659197E-19
5.993876E+03	4.481930E-17	8.703003E-19
6.003850E+03	4.509671E-17	8.747885E-19
6.013823E+03	4.536632E-17	8.791278E-19
6.023796E+03	4.564150E-17	8.835782E-19
6.033769E+03	4.590891E-17	8.878810E-19
6.043742E+03	4.617529E-17	8.921673E-19
6.053716E+03	4.644070E-17	8.964382E-19
6.063689E+03	4.670516E-17	9.006943E-19
6.073662E+03	4.696879E-17	9.049380E-19
6.083635E+03	4.723158E-17	9.091695E-19
6.093608E+03	4.749363E-17	9.133908E-19
6.103581E+03	4.774799E-17	9.174685E-19
6.113555E+03	4.800867E-17	9.216720E-19
6.123528E+03	4.826171E-17	9.257332E-19
6.133501E+03	4.852126E-17	9.299242E-19
6.143474E+03	4.877325E-17	9.339753E-19
6.153447E+03	4.902480E-17	9.380228E-19
6.163420E+03	4.928315E-17	9.422058E-19
6.173394E+03	4.953402E-17	9.462511E-19
6.183367E+03	4.978467E-17	9.502979E-19
6.193340E+03	5.003515E-17	9.543473E-19
6.203313E+03	5.027824E-17	9.582618E-19
6.213286E+03	5.052862E-17	9.623214E-19
6.223259E+03	5.077908E-17	9.663888E-19
6.233233E+03	5.102232E-17	9.703256E-19
6.243206E+03	5.127321E-17	9.744144E-19
6.253179E+03	5.151703E-17	9.783761E-19
6.263152E+03	5.176128E-17	9.823530E-19
6.273125E+03	5.200607E-17	9.863479E-19
6.283098E+03	5.225153E-17	9.903631E-19
6.293072E+03	5.249779E-17	9.944013E-19
6.303045E+03	5.274501E-17	9.984659E-19
6.313018E+03	5.299334E-17	1.002560E-18
6.322991E+03	5.324293E-17	1.006686E-18
6.332964E+03	5.349398E-17	1.010849E-18
6.342937E+03	5.373887E-17	1.014904E-18
6.352911E+03	5.399333E-17	1.019150E-18
6.362884E+03	5.424200E-17	1.023295E-18
6.372857E+03	5.449290E-17	1.027493E-18
6.382830E+03	5.474620E-17	1.031747E-18
6.392803E+03	5.501017E-17	1.036211E-18
6.402777E+03	5.526919E-17	1.040594E-18
6.412750E+03	5.553149E-17	1.045049E-18
6.422723E+03	5.578929E-17	1.049430E-18
6.432696E+03	5.605896E-17	1.054047E-18
6.442669E+03	5.633284E-17	1.058755E-18
6.452642E+03	5.660307E-17	1.063407E-18
6.462616E+03	5.688628E-17	1.068315E-18
6.472589E+03	5.716648E-17	1.073180E-18
6.482562E+03	5.746037E-17	1.078315E-18
6.492535E+03	5.775183E-17	1.083418E-18
6.502508E+03	5.804934E-17	1.088649E-18
6.512481E+03	5.835317E-17	1.094014E-18
6.522455E+03	5.866344E-17	1.099514E-18
6.532428E+03	5.898025E-17	1.105151E-18
6.542401E+03	5.930363E-17	1.110928E-18
6.552374E+03	5.962493E-17	1.116683E-18
6.562347E+03	5.996126E-17	1.122736E-18
6.572320E+03	6.030396E-17	1.128925E-18
6.582294E+03	6.064428E-17	1.135088E-18
6.592267E+03	6.099071E-17	1.141384E-18
6.602240E+03	6.135202E-17	1.147977E-18
6.612213E+03	6.171053E-17	1.154538E-18
6.622186E+03	6.207492E-17	1.161229E-18
6.632159E+03	6.244512E-17	1.168050E-18
6.642133E+03	6.282106E-17	1.174999E-18
6.652106E+03	6.320268E-17	1.182078E-18
6.662079E+03	6.358074E-17	1.189112E-18
6.672052E+03	6.397346E-17	1.196442E-18
6.682025E+03	6.437165E-17	1.203898E-18
6.691999E+03	6.476601E-17	1.211304E-18
6.701972E+03	6.517502E-17	1.219007E-18
6.711945E+03	6.558005E-17	1.226657E-18
6.721918E+03	6.599034E-17	1.234428E-18
6.731891E+03	6.640591E-17	1.242321E-18
6.741864E+03	6.682677E-17	1.250335E-18
6.751838E+03	6.725289E-17	1.258469E-18
6.761811E+03	6.768437E-17	1.266726E-18
6.771784E+03	6.812116E-17	1.275105E-18
6.781757E+03	6.856332E-17	1.283607E-18
6.791730E+03	6.901089E-17	1.292233E-18
6.801703E+03	6.945392E-17	1.300796E-18
6.811677E+03	6.991239E-17	1.309671E-18
6.821650E+03	7.036629E-17	1.318482E-18
6.831623E+03	7.082563E-17	1.327418E-18
6.841596E+03	7.130080E-17	1.336673E-18
6.851569E+03	7.177133E-17	1.345864E-18
6.861542E+03	7.224749E-17	1.355183E-18
6.871516E+03	7.272939E-17	1.364632E-18
6.881489E+03	7.321705E-17	1.374213E-18
6.891462E+03	7.371053E-17	1.383925E-18
6.901435E+03	7.419923E-17	1.393570E-18
6.911408E+03	7.470448E-17	1.403549E-18
6.921381E+03	7.521579E-17	1.413665E-18
6.931355E+03	7.572222E-17	1.423713E-18
6.941328E+03	7.624568E-17	1.434104E-18
6.951301E+03	7.676421E-17	1.444425E-18
6.961274E+03	7.728887E-17	1.454886E-18
6.971247E+03	7.783089E-17	1.465697E-18
6.981221E+03	7.836797E-17	1.476438E-18
6.991194E+03	7.891128E-17	1.487321E-18
7.001167E+03	7.946088E-17	1.498347E-18
7.011140E+03	8.001681E-17	1.509516E-18
7.021113E+03	8.056739E-17	1.520609E-18
7.031086E+03	8.113594E-17	1.532065E-18
7.041060E+03	8.171093E-17	1.543669E-18
7.051033E+03	8.228038E-17	1.555192E-18
7.061006E+03	8.286813E-17	1.567087E-18
7.070979E+03	8.345018E-17	1.578900E-18
7.080952E+03	8.405071E-17	1.591088E-18
7.090925E+03	8.464538E-17	1.603191E-18
7.100899E+03	8.524627E-17	1.615439E-18
7.110872E+03	8.586592E-17	1.628069E-18
7.120845E+03	8.647929E-17	1.640607E-18
7.130818E+03	8.709884E-17	1.653290E-18
7.140791E+03	8.772450E-17	1.666116E-18
7.150764E+03	8.834329E-17	1.678840E-18
7.160738E+03	8.898089E-17	1.691950E-18
7.170711E+03	8.962437E-17	1.705201E-18
7.180684E+03	9.027372E-17	1.718593E-18
7.190657E+03	9.091548E-17	1.731870E-18
7.200630E+03	9.157611E-17	1.745537E-18
7.210603E+03	9.222871E-17	1.759081E-18
7.220577E+03	9.288657E-17	1.772757E-18
7.230550E+03	9.356317E-17	1.786822E-18
7.240523E+03	9.423109E-17	1.800753E-18
7.250496E+03	9.490375E-17	1.814808E-18
7.260469E+03	9.558102E-17	1.828984E-18
7.270443E+03	9.626268E-17	1.843278E-18
7.280416E+03	9.694860E-17	1.857688E-18
7.290389E+03	9.763848E-17	1.872209E-18
7.300362E+03	9.833219E-17	1.886838E-18
7.310335E+03	9.902946E-17	1.901573E-18
7.320308E+03	9.971531E-17	1.916124E-18
7.330282E+03	1.004188E-16	1.931053E-18
7.340255E+03	1.011102E-16	1.945786E-18
7.350228E+03	1.018189E-16	1.960892E-18
7.360201E+03	1.025146E-16	1.975788E-18
7.370174E+03	1.032274E-16	1.991051E-18
7.380147E+03	1.039262E-16	2.006087E-18
7.390121E+03	1.046260E-16	2.021185E-18
7.400094E+03	1.053265E-16	2.036337E-18
7.410067E+03	1.060272E-16	2.051538E-18
7.420040E+03	1.067279E-16	2.066780E-18
7.430013E+03	1.074280E-16	2.082058E-18
7.439986E+03	1.081272E-16	2.097364E-18
7.449960E+03	1.088251E-16	2.112690E-18
7.459933E+03	1.095212E-16	2.128029E-18
7.469906E+03	1.102150E-16	2.143373E-18
7.479879E+03	1.108896E-16	2.158390E-18
7.489852E+03	1.115774E-16	2.173716E-18
7.499825E+03	1.122447E-16	2.188693E-18
7.509799E+03	1.129246E-16	2.203967E-18
7.519772E+03	1.135828E-16	2.218868E-18
7.529745E+03	1.142527E-16	2.234053E-18
7.539718E+03	1.148995E-16	2.248842E-18
7.549691E+03	1.155399E-16	2.263557E-18
7.559665E+03	1.161731E-16	2.278189E-18
7.569638E+03	1.168164E-16	2.293076E-18
7.579611E+03	1.174340E-16	2.307515E-18
7.589584E+03	1.180428E-16	2.321840E-18
7.599557E+03	1.186422E-16	2.336041E-18
7.609530E+03	1.192318E-16	2.350106E-18
7.619504E+03	1.197926E-16	2.363665E-18
7.629477E+03	1.203604E-16	2.377425E-18
7.639450E+03	1.209165E-16	2.391015E-18
7.649423E+03	1.214603E-16	2.404426E-18
7.659396E+03	1.219727E-16	2.417277E-18
7.669369E+03	1.224901E-16	2.430294E-18
7.679343E+03	1.229747E-16	2.442724E-18
7.689316E+03	1.234634E-16	2.455302E-18
7.699289E+03	1.239180E-16	2.467267E-18
7.709262E+03	1.243758E-16	2.479363E-18
7.719235E+03	1.247981E-16	2.490820E-18
7.729208E+03	1.252035E-16	2.502007E-18
7.739182E+03	1.255915E-16	2.512914E-18
