#wls	flux	fluxerr
1.595708E+03	3.035861E-19	4.602776E-21
1.635600E+03	3.168522E-19	4.803369E-21
1.675493E+03	3.262575E-19	4.945396E-21
1.715386E+03	3.311122E-19	5.018425E-21
1.755278E+03	3.313032E-19	5.020766E-21
1.795171E+03	3.255631E-19	4.933235E-21
1.835064E+03	3.128398E-19	4.739923E-21
1.874956E+03	2.924179E-19	4.430023E-21
1.914849E+03	2.643927E-19	4.005020E-21
1.954742E+03	2.302763E-19	3.487853E-21
1.994634E+03	1.934277E-19	2.929417E-21
2.034527E+03	1.587374E-19	2.403787E-21
2.074420E+03	1.312469E-19	1.987284E-21
2.114312E+03	1.144802E-19	1.733229E-21
2.154205E+03	1.099471E-19	1.664426E-21
2.194098E+03	1.179923E-19	1.786033E-21
2.233991E+03	1.386101E-19	2.097907E-21
2.273883E+03	1.713752E-19	2.593554E-21
2.313776E+03	2.150083E-19	3.253559E-21
2.353669E+03	2.673492E-19	4.045187E-21
2.393561E+03	3.258194E-19	4.929393E-21
2.433454E+03	3.879842E-19	5.869317E-21
2.473347E+03	4.519002E-19	6.835548E-21
2.513239E+03	5.162119E-19	7.807581E-21
2.553132E+03	5.800867E-19	8.772821E-21
2.593025E+03	6.430926E-19	9.724741E-21
2.632917E+03	7.050763E-19	1.066103E-20
2.672810E+03	7.660652E-19	1.158211E-20
2.712703E+03	8.261990E-19	1.249009E-20
2.752596E+03	8.856805E-19	1.338805E-20
2.792488E+03	9.447486E-19	1.427961E-20
2.832381E+03	1.003659E-18	1.516863E-20
2.872274E+03	1.062676E-18	1.605910E-20
2.912166E+03	1.122066E-18	1.695506E-20
2.952059E+03	1.182097E-18	1.786055E-20
2.991952E+03	1.243038E-18	1.877964E-20
3.001925E+03	1.258256E-18	1.900913E-20
3.011898E+03	1.274321E-18	1.925141E-20
3.021871E+03	1.289700E-18	1.948331E-20
3.031844E+03	1.305253E-18	1.971782E-20
3.041818E+03	1.321235E-18	1.995882E-20
3.051791E+03	1.338819E-18	2.022399E-20
3.061764E+03	1.356310E-18	2.048777E-20
3.071737E+03	1.374439E-18	2.076116E-20
3.081710E+03	1.393138E-18	2.104315E-20
3.091683E+03	1.413202E-18	2.134574E-20
3.101657E+03	1.432872E-18	2.164238E-20
3.111630E+03	1.452942E-18	2.194504E-20
3.121603E+03	1.473362E-18	2.225298E-20
3.131576E+03	1.494994E-18	2.257921E-20
3.141549E+03	1.515999E-18	2.289596E-20
3.151522E+03	1.537232E-18	2.321614E-20
3.161496E+03	1.558661E-18	2.353926E-20
3.171469E+03	1.581213E-18	2.387933E-20
3.181442E+03	1.602957E-18	2.420719E-20
3.191415E+03	1.624816E-18	2.453676E-20
3.201388E+03	1.646766E-18	2.486771E-20
3.211361E+03	1.669800E-18	2.521501E-20
3.221335E+03	1.691895E-18	2.554811E-20
3.231308E+03	1.714034E-18	2.588187E-20
3.241281E+03	1.736206E-18	2.621611E-20
3.251254E+03	1.759468E-18	2.656679E-20
3.261227E+03	1.781696E-18	2.690184E-20
3.271200E+03	1.803938E-18	2.723710E-20
3.281174E+03	1.826191E-18	2.757252E-20
3.291147E+03	1.849574E-18	2.792497E-20
3.301120E+03	1.871864E-18	2.826092E-20
3.311093E+03	1.894169E-18	2.859708E-20
3.321066E+03	1.916496E-18	2.893355E-20
3.331040E+03	1.940020E-18	2.928809E-20
3.341013E+03	1.962421E-18	2.962565E-20
3.350986E+03	1.984864E-18	2.996384E-20
3.360959E+03	2.007361E-18	3.030284E-20
3.370932E+03	2.031150E-18	3.066132E-20
3.380905E+03	2.053804E-18	3.100265E-20
3.390879E+03	2.076549E-18	3.134534E-20
3.400852E+03	2.099400E-18	3.168963E-20
3.410825E+03	2.123654E-18	3.205508E-20
3.420798E+03	2.146779E-18	3.240347E-20
3.430771E+03	2.170058E-18	3.275418E-20
3.440744E+03	2.193510E-18	3.310749E-20
3.450718E+03	2.218493E-18	3.348388E-20
3.460691E+03	2.242361E-18	3.384344E-20
3.470664E+03	2.266461E-18	3.420648E-20
3.480637E+03	2.290811E-18	3.457328E-20
3.490610E+03	2.315433E-18	3.494417E-20
3.500583E+03	2.341759E-18	3.534078E-20
3.510557E+03	2.367003E-18	3.572104E-20
3.520530E+03	2.392585E-18	3.610637E-20
3.530503E+03	2.418526E-18	3.649712E-20
3.540476E+03	2.446323E-18	3.691586E-20
3.550449E+03	2.473068E-18	3.731872E-20
3.560422E+03	2.500244E-18	3.772805E-20
3.570396E+03	2.527875E-18	3.814423E-20
3.580369E+03	2.557523E-18	3.859084E-20
3.590342E+03	2.586153E-18	3.902208E-20
3.600315E+03	2.615312E-18	3.946128E-20
3.610288E+03	2.645026E-18	3.990884E-20
3.620261E+03	2.676931E-18	4.038945E-20
3.630235E+03	2.707852E-18	4.085517E-20
3.640208E+03	2.739408E-18	4.133048E-20
3.650181E+03	2.771626E-18	4.181575E-20
3.660154E+03	2.806221E-18	4.233686E-20
3.670127E+03	2.839867E-18	4.284365E-20
3.680101E+03	2.874260E-18	4.336168E-20
3.690074E+03	2.909429E-18	4.389140E-20
3.700047E+03	2.947176E-18	4.445999E-20
3.710020E+03	2.984010E-18	4.501479E-20
3.719993E+03	3.021712E-18	4.558267E-20
3.729966E+03	3.060313E-18	4.616408E-20
3.739940E+03	3.099846E-18	4.675954E-20
3.749913E+03	3.142230E-18	4.739798E-20
3.759886E+03	3.183750E-18	4.802336E-20
3.769859E+03	3.226303E-18	4.866430E-20
3.779832E+03	3.269923E-18	4.932132E-20
3.789805E+03	3.316639E-18	5.002500E-20
3.799779E+03	3.362531E-18	5.071625E-20
3.809752E+03	3.409603E-18	5.142525E-20
3.819725E+03	3.457892E-18	5.215260E-20
3.829698E+03	3.509545E-18	5.293065E-20
3.835389E+03	2.919710E-18	4.403435E-20
3.840898E+03	2.928551E-18	4.416722E-20
3.846408E+03	2.807998E-18	4.234866E-20
3.851917E+03	2.872779E-18	4.332521E-20
3.857427E+03	3.058289E-18	4.612247E-20
3.862936E+03	3.138523E-18	4.733201E-20
3.868446E+03	3.206014E-18	4.834934E-20
3.873955E+03	3.298417E-18	4.974234E-20
3.879464E+03	3.449358E-18	5.201811E-20
3.884973E+03	3.492798E-18	5.267266E-20
3.890483E+03	3.579412E-18	5.397829E-20
3.895993E+03	3.631033E-18	5.475620E-20
3.901502E+03	3.595102E-18	5.421379E-20
3.907011E+03	3.616690E-18	5.453879E-20
3.912520E+03	3.636740E-18	5.484058E-20
3.918030E+03	3.493993E-18	5.268749E-20
3.923540E+03	3.641985E-18	5.491857E-20
3.929049E+03	3.715221E-18	5.602235E-20
3.934558E+03	3.765884E-18	5.678573E-20
3.940068E+03	3.718945E-18	5.607738E-20
3.945577E+03	3.658567E-18	5.516639E-20
3.951087E+03	3.673256E-18	5.538733E-20
3.956596E+03	3.746685E-18	5.649396E-20
3.962106E+03	3.767378E-18	5.680543E-20
3.967615E+03	3.847399E-18	5.801141E-20
3.973124E+03	3.983432E-18	6.006194E-20
3.978633E+03	4.095705E-18	6.175417E-20
3.984143E+03	4.250557E-18	6.408835E-20
3.989653E+03	4.391290E-18	6.620962E-20
3.995162E+03	4.531913E-18	6.832919E-20
4.000671E+03	4.703582E-18	7.091679E-20
4.006180E+03	4.971048E-18	7.494869E-20
4.011691E+03	5.155981E-18	7.773617E-20
4.017200E+03	5.341655E-18	8.053475E-20
4.022709E+03	5.527725E-18	8.333926E-20
4.028218E+03	5.620677E-18	8.473983E-20
4.033728E+03	5.650799E-18	8.519312E-20
4.050256E+03	5.580152E-18	8.412556E-20
4.055765E+03	5.506510E-18	8.301453E-20
4.061275E+03	5.494378E-18	8.283082E-20
4.066784E+03	5.453430E-18	8.221270E-20
4.072294E+03	5.344706E-18	8.057287E-20
4.077803E+03	5.389378E-18	8.124553E-20
4.083313E+03	5.427847E-18	8.182465E-20
4.088822E+03	5.409203E-18	8.154281E-20
4.094331E+03	5.520170E-18	8.321480E-20
4.099840E+03	5.554596E-18	8.373296E-20
4.105351E+03	5.577715E-18	8.408065E-20
4.110860E+03	5.586554E-18	8.421309E-20
4.116369E+03	5.659556E-18	8.531273E-20
4.121878E+03	5.723506E-18	8.627587E-20
4.127387E+03	5.823120E-18	8.777661E-20
4.132898E+03	6.041071E-18	9.106110E-20
4.138407E+03	6.228309E-18	9.388257E-20
4.143916E+03	6.304222E-18	9.502593E-20
4.149425E+03	6.332059E-18	9.544461E-20
4.154935E+03	6.428020E-18	9.689013E-20
4.160444E+03	6.460115E-18	9.737298E-20
4.165954E+03	6.485473E-18	9.775427E-20
4.171463E+03	6.402209E-18	9.649834E-20
4.176973E+03	6.369664E-18	9.600688E-20
4.182482E+03	6.330669E-18	9.541822E-20
4.187991E+03	6.227070E-18	9.385586E-20
4.193500E+03	6.242734E-18	9.409106E-20
4.199011E+03	6.231664E-18	9.392333E-20
4.204520E+03	6.252777E-18	9.424066E-20
4.210029E+03	6.281505E-18	9.467275E-20
4.215538E+03	6.351205E-18	9.572235E-20
4.221048E+03	6.411396E-18	9.662861E-20
4.226558E+03	6.441897E-18	9.708740E-20
4.232067E+03	6.458560E-18	9.733762E-20
4.237576E+03	6.523472E-18	9.831499E-20
4.243085E+03	6.582059E-18	9.919704E-20
4.248595E+03	6.590216E-18	9.931904E-20
4.254104E+03	6.574190E-18	9.907661E-20
4.259614E+03	6.480327E-18	9.766113E-20
4.265123E+03	6.531083E-18	9.842513E-20
4.270633E+03	6.495195E-18	9.788338E-20
4.276142E+03	6.514339E-18	9.817099E-20
4.281651E+03	6.434369E-18	9.696494E-20
4.287161E+03	6.317568E-18	9.520388E-20
4.292671E+03	6.346680E-18	9.564172E-20
4.298180E+03	6.327365E-18	9.534978E-20
4.303689E+03	6.327082E-18	9.534463E-20
4.309198E+03	6.510005E-18	9.810025E-20
4.314708E+03	6.655693E-18	1.002947E-19
4.320218E+03	6.653943E-18	1.002674E-19
4.325727E+03	6.727315E-18	1.013722E-19
4.331236E+03	6.842165E-18	1.031019E-19
4.336745E+03	6.918376E-18	1.042493E-19
4.342255E+03	7.037497E-18	1.060433E-19
4.347765E+03	7.202232E-18	1.085246E-19
4.353274E+03	7.321517E-18	1.103210E-19
4.358783E+03	7.463401E-18	1.124579E-19
4.364293E+03	7.668544E-18	1.155480E-19
4.369802E+03	7.776590E-18	1.171749E-19
4.375311E+03	7.895596E-18	1.189670E-19
4.380821E+03	7.911020E-18	1.191983E-19
4.386331E+03	7.954707E-18	1.198555E-19
4.391840E+03	8.094181E-18	1.219559E-19
4.397349E+03	8.133869E-18	1.225528E-19
4.402858E+03	8.173578E-18	1.231500E-19
4.408367E+03	8.246379E-18	1.242458E-19
4.413878E+03	8.277607E-18	1.247151E-19
4.419387E+03	8.329243E-18	1.254920E-19
4.424896E+03	8.368535E-18	1.260829E-19
4.430405E+03	8.502371E-18	1.280982E-19
4.435915E+03	8.678616E-18	1.307523E-19
4.441425E+03	8.783144E-18	1.323260E-19
4.446934E+03	8.966280E-18	1.350839E-19
4.452443E+03	9.137416E-18	1.376610E-19
4.457953E+03	9.349155E-18	1.408497E-19
4.463462E+03	9.628249E-18	1.450532E-19
4.468971E+03	9.729701E-18	1.465803E-19
4.474481E+03	9.858701E-18	1.485224E-19
4.479991E+03	9.904187E-18	1.492063E-19
4.485500E+03	9.937710E-18	1.497101E-19
4.491009E+03	1.005081E-17	1.514126E-19
4.496518E+03	1.010258E-17	1.521912E-19
4.502029E+03	1.029483E-17	1.550860E-19
4.507538E+03	1.054124E-17	1.587967E-19
4.513047E+03	1.066261E-17	1.606237E-19
4.518556E+03	1.077322E-17	1.622884E-19
4.524065E+03	1.092207E-17	1.645292E-19
4.529575E+03	1.109183E-17	1.670851E-19
4.535085E+03	1.110651E-17	1.673048E-19
4.540594E+03	1.121504E-17	1.689382E-19
4.546103E+03	1.124405E-17	1.693738E-19
4.551613E+03	1.137554E-17	1.713530E-19
4.557122E+03	1.162605E-17	1.751249E-19
4.562632E+03	1.190646E-17	1.793474E-19
4.568141E+03	1.207479E-17	1.818813E-19
4.573650E+03	1.224696E-17	1.844731E-19
4.579160E+03	1.247048E-17	1.878383E-19
4.584669E+03	1.261681E-17	1.900408E-19
4.590178E+03	1.272917E-17	1.917317E-19
4.595688E+03	1.271653E-17	1.915396E-19
4.601198E+03	1.271525E-17	1.915188E-19
4.606707E+03	1.260928E-17	1.899211E-19
4.612216E+03	1.255115E-17	1.890438E-19
4.617725E+03	1.253039E-17	1.887297E-19
4.623235E+03	1.249229E-17	1.881542E-19
4.628745E+03	1.253706E-17	1.888269E-19
4.634254E+03	1.251662E-17	1.885175E-19
4.639763E+03	1.245265E-17	1.875524E-19
4.645273E+03	1.244301E-17	1.874056E-19
4.650782E+03	1.244953E-17	1.875023E-19
4.656292E+03	1.245279E-17	1.875498E-19
4.661801E+03	1.254767E-17	1.889772E-19
4.667310E+03	1.261373E-17	1.899706E-19
4.672820E+03	1.267723E-17	1.909253E-19
4.678329E+03	1.271829E-17	1.915422E-19
4.683838E+03	1.276272E-17	1.922097E-19
4.689348E+03	1.281997E-17	1.930703E-19
4.694858E+03	1.291598E-17	1.945146E-19
4.700367E+03	1.315881E-17	1.981700E-19
4.705876E+03	1.324542E-17	1.994726E-19
4.711385E+03	1.331125E-17	2.004624E-19
4.716896E+03	1.340338E-17	2.018483E-19
4.722405E+03	1.337306E-17	2.013901E-19
4.727914E+03	1.347531E-17	2.029282E-19
4.733423E+03	1.344493E-17	2.024690E-19
4.738933E+03	1.352167E-17	2.036230E-19
4.744442E+03	1.359070E-17	2.046609E-19
4.749952E+03	1.374205E-17	2.069384E-19
4.755461E+03	1.383729E-17	2.083708E-19
4.760971E+03	1.396781E-17	2.103346E-19
4.766480E+03	1.413062E-17	2.127847E-19
4.771989E+03	1.442454E-17	2.172089E-19
4.777499E+03	1.472105E-17	2.216720E-19
4.783008E+03	1.486235E-17	2.237978E-19
4.788518E+03	1.503877E-17	2.264526E-19
4.794027E+03	1.511889E-17	2.276573E-19
4.799536E+03	1.506821E-17	2.268924E-19
4.805045E+03	1.501848E-17	2.261418E-19
4.810556E+03	1.495305E-17	2.251547E-19
4.816065E+03	1.481932E-17	2.231393E-19
4.821574E+03	1.479152E-17	2.227189E-19
4.827083E+03	1.479006E-17	2.226952E-19
4.832592E+03	1.470269E-17	2.213780E-19
4.838103E+03	1.453380E-17	2.188332E-19
4.843612E+03	1.431442E-17	2.155283E-19
4.849121E+03	1.408170E-17	2.120227E-19
4.854630E+03	1.392144E-17	2.096080E-19
4.860140E+03	1.389660E-17	2.092324E-19
4.865649E+03	1.388715E-17	2.090885E-19
4.871159E+03	1.387239E-17	2.088646E-19
4.876668E+03	1.403277E-17	2.112777E-19
4.882178E+03	1.419033E-17	2.136482E-19
4.887687E+03	1.460024E-17	2.198182E-19
4.893196E+03	1.501670E-17	2.260865E-19
4.898705E+03	1.545184E-17	2.326361E-19
4.904216E+03	1.577540E-17	2.375056E-19
4.909725E+03	1.606782E-17	2.419062E-19
4.915234E+03	1.629984E-17	2.453975E-19
4.920743E+03	1.642489E-17	2.472782E-19
4.926253E+03	1.662275E-17	2.502551E-19
4.931763E+03	1.668239E-17	2.511511E-19
4.937272E+03	1.669463E-17	2.513334E-19
4.942781E+03	1.660467E-17	2.499772E-19
4.948290E+03	1.648690E-17	2.482023E-19
4.953800E+03	1.622791E-17	2.443016E-19
4.959309E+03	1.598701E-17	2.406730E-19
4.964819E+03	1.574475E-17	2.370242E-19
4.970328E+03	1.552972E-17	2.337855E-19
4.975838E+03	1.541936E-17	2.321223E-19
4.981347E+03	1.533118E-17	2.307931E-19
4.986856E+03	1.534563E-17	2.310089E-19
4.992366E+03	1.539330E-17	2.317247E-19
4.997875E+03	1.544692E-17	2.325301E-19
5.003385E+03	1.553166E-17	2.338041E-19
5.008894E+03	1.563909E-17	2.354195E-19
5.014403E+03	1.576524E-17	2.373167E-19
5.019913E+03	1.599346E-17	2.407504E-19
5.025423E+03	1.624445E-17	2.445266E-19
5.030932E+03	1.644265E-17	2.475083E-19
5.036441E+03	1.657388E-17	2.494819E-19
5.041950E+03	1.671432E-17	2.515940E-19
5.047460E+03	1.685692E-17	2.537386E-19
5.052970E+03	1.705030E-17	2.566476E-19
5.058479E+03	1.712382E-17	2.577523E-19
5.063988E+03	1.717076E-17	2.584570E-19
5.069498E+03	1.710753E-17	2.575034E-19
5.075007E+03	1.720223E-17	2.589269E-19
5.080516E+03	1.725447E-17	2.597113E-19
5.086026E+03	1.735760E-17	2.612618E-19
5.091535E+03	1.746870E-17	2.629320E-19
5.097045E+03	1.753367E-17	2.639081E-19
5.102554E+03	1.746171E-17	2.628231E-19
5.108063E+03	1.747052E-17	2.629538E-19
5.113572E+03	1.738844E-17	2.617165E-19
5.119083E+03	1.709437E-17	2.572886E-19
5.124592E+03	1.689845E-17	2.543380E-19
5.130101E+03	1.674540E-17	2.520325E-19
5.135610E+03	1.657933E-17	2.495313E-19
5.141120E+03	1.639297E-17	2.467246E-19
5.146630E+03	1.620152E-17	2.438414E-19
5.152139E+03	1.617686E-17	2.434686E-19
5.157648E+03	1.621959E-17	2.441099E-19
5.163158E+03	1.618489E-17	2.435860E-19
5.168667E+03	1.616953E-17	2.433530E-19
5.174176E+03	1.640024E-17	2.468236E-19
5.179686E+03	1.643651E-17	2.473677E-19
5.185196E+03	1.665217E-17	2.506116E-19
5.190705E+03	1.675763E-17	2.521970E-19
5.196214E+03	1.705820E-17	2.567186E-19
5.201723E+03	1.732574E-17	2.607432E-19
5.207233E+03	1.772041E-17	2.666809E-19
5.212743E+03	1.803064E-17	2.713478E-19
5.218252E+03	1.837233E-17	2.764881E-19
5.223761E+03	1.882032E-17	2.832279E-19
5.229270E+03	1.924211E-17	2.895735E-19
5.234780E+03	1.951385E-17	2.936608E-19
5.240290E+03	1.988128E-17	2.991881E-19
5.245799E+03	2.020499E-17	3.040575E-19
5.251308E+03	2.042670E-17	3.073918E-19
5.256817E+03	2.057557E-17	3.096300E-19
5.262327E+03	2.056521E-17	3.094720E-19
5.267837E+03	2.075445E-17	3.123175E-19
5.273346E+03	2.103978E-17	3.166091E-19
5.278856E+03	2.133907E-17	3.211107E-19
5.284365E+03	2.152136E-17	3.238516E-19
5.289874E+03	2.189091E-17	3.294102E-19
5.295383E+03	2.219504E-17	3.339846E-19
5.300893E+03	2.230703E-17	3.356675E-19
5.306403E+03	2.254791E-17	3.392898E-19
5.311912E+03	2.258780E-17	3.398878E-19
5.317421E+03	2.260169E-17	3.400946E-19
5.322930E+03	2.254698E-17	3.392691E-19
5.328440E+03	2.259883E-17	3.400470E-19
5.333950E+03	2.249930E-17	3.385471E-19
5.339459E+03	2.247857E-17	3.382329E-19
5.344968E+03	2.237688E-17	3.367005E-19
5.350477E+03	2.249516E-17	3.384780E-19
5.355987E+03	2.247327E-17	3.381463E-19
5.361497E+03	2.245149E-17	3.378165E-19
5.367006E+03	2.244233E-17	3.376764E-19
5.372515E+03	2.243118E-17	3.375064E-19
5.378025E+03	2.227769E-17	3.351947E-19
5.383534E+03	2.227964E-17	3.352219E-19
5.389043E+03	2.215759E-17	3.333833E-19
5.394553E+03	2.232326E-17	3.358738E-19
5.400063E+03	2.239035E-17	3.368811E-19
5.405572E+03	2.252675E-17	3.389310E-19
5.411081E+03	2.279452E-17	3.429577E-19
5.416590E+03	2.286829E-17	3.440653E-19
5.422101E+03	2.298982E-17	3.458916E-19
5.427610E+03	2.369712E-17	3.565310E-19
5.433119E+03	2.404521E-17	3.617658E-19
5.438628E+03	2.458954E-17	3.699530E-19
5.444138E+03	2.452088E-17	3.689176E-19
5.449647E+03	2.483085E-17	3.735787E-19
5.455157E+03	2.472127E-17	3.719277E-19
5.460666E+03	2.469431E-17	3.715197E-19
5.466176E+03	2.486803E-17	3.741309E-19
5.471685E+03	2.469312E-17	3.714972E-19
5.477194E+03	2.486574E-17	3.740918E-19
5.482704E+03	2.437407E-17	3.666925E-19
5.488213E+03	2.424657E-17	3.647720E-19
5.493723E+03	2.404710E-17	3.617689E-19
5.499232E+03	2.379061E-17	3.579081E-19
5.504741E+03	2.380609E-17	3.581386E-19
5.510250E+03	2.388974E-17	3.593948E-19
5.515761E+03	2.405361E-17	3.618578E-19
5.521270E+03	2.424039E-17	3.646654E-19
5.526779E+03	2.466175E-17	3.710020E-19
5.532288E+03	2.505268E-17	3.768806E-19
5.537797E+03	2.550006E-17	3.836084E-19
5.543308E+03	2.584785E-17	3.888380E-19
5.548817E+03	2.626568E-17	3.951211E-19
5.554326E+03	2.661055E-17	4.003066E-19
5.559835E+03	2.677434E-17	4.027681E-19
5.565345E+03	2.681263E-17	4.033415E-19
5.570854E+03	2.673752E-17	4.022092E-19
5.576364E+03	2.677281E-17	4.027377E-19
5.581873E+03	2.676923E-17	4.026813E-19
5.587383E+03	2.667224E-17	4.012200E-19
5.592892E+03	2.652543E-17	3.990092E-19
5.598401E+03	2.623761E-17	3.946773E-19
5.603910E+03	2.591005E-17	3.897475E-19
5.609421E+03	2.564079E-17	3.856950E-19
5.614930E+03	2.511034E-17	3.777135E-19
5.620439E+03	2.488928E-17	3.743861E-19
5.625948E+03	2.511526E-17	3.777830E-19
5.631457E+03	2.502952E-17	3.764911E-19
5.636968E+03	2.510339E-17	3.776000E-19
5.642477E+03	2.493604E-17	3.750805E-19
5.647986E+03	2.525443E-17	3.798674E-19
5.653495E+03	2.524731E-17	3.797582E-19
5.659005E+03	2.546793E-17	3.830743E-19
5.664514E+03	2.569150E-17	3.864349E-19
5.670024E+03	2.582530E-17	3.884451E-19
5.675533E+03	2.619141E-17	3.939495E-19
5.681043E+03	2.591671E-17	3.898155E-19
5.686552E+03	2.603175E-17	3.915435E-19
5.692061E+03	2.598813E-17	3.908852E-19
5.697571E+03	2.603795E-17	3.916322E-19
5.703081E+03	2.622112E-17	3.943849E-19
5.708590E+03	2.619770E-17	3.940305E-19
5.714099E+03	2.615384E-17	3.933686E-19
5.719608E+03	2.636694E-17	3.965714E-19
5.725118E+03	2.661084E-17	4.002375E-19
5.730628E+03	2.681234E-17	4.032658E-19
5.736137E+03	2.700317E-17	4.061337E-19
5.741646E+03	2.723004E-17	4.095435E-19
5.747155E+03	2.749528E-17	4.135305E-19
5.752665E+03	2.757051E-17	4.146596E-19
5.758175E+03	2.751482E-17	4.138197E-19
5.763684E+03	2.750250E-17	4.136320E-19
5.769193E+03	2.749544E-17	4.135236E-19
5.774703E+03	2.749638E-17	4.135353E-19
5.780212E+03	2.738895E-17	4.119173E-19
5.785721E+03	2.723367E-17	4.095797E-19
5.791231E+03	2.703555E-17	4.065978E-19
5.796740E+03	2.659871E-17	4.000259E-19
5.802250E+03	2.614650E-17	3.932228E-19
5.807759E+03	2.554869E-17	3.842301E-19
5.813268E+03	2.491772E-17	3.747388E-19
5.818777E+03	2.430321E-17	3.654951E-19
5.824288E+03	2.393555E-17	3.599638E-19
5.829797E+03	2.383854E-17	3.585030E-19
5.835306E+03	2.394200E-17	3.600570E-19
5.840815E+03	2.431455E-17	3.656577E-19
5.846325E+03	2.480433E-17	3.730213E-19
5.851835E+03	2.555210E-17	3.842646E-19
5.857344E+03	2.625545E-17	3.948397E-19
5.862853E+03	2.726128E-17	4.099636E-19
5.868363E+03	2.831435E-17	4.257977E-19
5.873872E+03	2.937170E-17	4.416959E-19
5.879381E+03	3.056218E-17	4.595962E-19
5.884891E+03	3.154960E-17	4.744425E-19
5.890400E+03	3.243502E-17	4.877549E-19
5.895910E+03	3.326906E-17	5.002944E-19
5.901419E+03	3.390645E-17	5.098767E-19
5.906928E+03	3.413836E-17	5.133614E-19
5.912438E+03	3.435937E-17	5.166821E-19
5.917948E+03	3.457233E-17	5.198818E-19
5.923457E+03	3.447099E-17	5.183553E-19
5.928966E+03	3.422015E-17	5.145805E-19
5.934475E+03	3.381051E-17	5.084180E-19
5.939985E+03	3.335345E-17	5.015424E-19
5.945495E+03	3.281420E-17	4.934311E-19
5.951004E+03	3.210879E-17	4.828212E-19
5.956513E+03	3.163787E-17	4.757375E-19
5.962022E+03	3.121453E-17	4.693694E-19
5.967532E+03	3.085347E-17	4.639378E-19
5.973042E+03	3.065071E-17	4.608866E-19
5.978551E+03	3.069414E-17	4.615372E-19
5.984061E+03	3.081031E-17	4.632817E-19
5.989570E+03	3.094706E-17	4.653356E-19
5.995079E+03	3.086519E-17	4.641022E-19
6.000588E+03	3.081217E-17	4.633027E-19
