#wls	flux	fluxerr
1.591691E+03	4.053998E-15	0.000000E+00
1.631484E+03	4.291833E-15	0.000000E+00
1.671276E+03	4.530574E-15	0.000000E+00
1.711068E+03	4.768405E-15	0.000000E+00
1.750861E+03	5.002847E-15	0.000000E+00
1.790653E+03	5.229057E-15	0.000000E+00
1.830445E+03	5.440460E-15	0.000000E+00
1.870237E+03	5.628744E-15	0.000000E+00
1.910030E+03	5.784286E-15	0.000000E+00
1.949822E+03	5.897858E-15	0.000000E+00
1.989614E+03	5.964476E-15	0.000000E+00
2.029406E+03	5.989201E-15	0.000000E+00
2.069199E+03	5.992610E-15	0.000000E+00
2.108991E+03	6.014638E-15	0.000000E+00
2.148783E+03	6.104995E-15	0.000000E+00
2.188576E+03	6.287852E-15	0.000000E+00
2.228368E+03	6.543035E-15	0.000000E+00
2.268160E+03	6.822026E-15	0.000000E+00
2.307952E+03	7.093807E-15	0.000000E+00
2.347745E+03	7.351048E-15	0.000000E+00
2.387537E+03	7.591810E-15	0.000000E+00
2.427329E+03	7.816477E-15	0.000000E+00
2.467122E+03	8.026565E-15	0.000000E+00
2.506914E+03	8.222328E-15	0.000000E+00
2.546706E+03	8.398361E-15	0.000000E+00
2.586498E+03	8.535083E-15	0.000000E+00
2.626291E+03	8.606109E-15	0.000000E+00
2.666083E+03	8.613648E-15	0.000000E+00
2.705875E+03	8.581259E-15	0.000000E+00
2.745668E+03	8.525411E-15	0.000000E+00
2.785460E+03	8.454893E-15	0.000000E+00
2.825252E+03	8.374562E-15	0.000000E+00
2.865044E+03	8.287305E-15	0.000000E+00
2.904837E+03	8.194912E-15	0.000000E+00
2.944629E+03	8.098570E-15	0.000000E+00
2.984421E+03	7.999138E-15	0.000000E+00
2.994369E+03	7.973891E-15	0.000000E+00
3.004317E+03	7.948492E-15	0.000000E+00
3.014266E+03	7.922992E-15	0.000000E+00
3.024214E+03	7.897469E-15	0.000000E+00
3.034162E+03	7.872178E-15	0.000000E+00
3.044110E+03	7.847303E-15	0.000000E+00
3.054058E+03	7.823019E-15	0.000000E+00
3.064006E+03	7.799179E-15	0.000000E+00
3.073954E+03	7.775754E-15	0.000000E+00
3.083902E+03	7.752700E-15	0.000000E+00
3.093850E+03	7.729930E-15	0.000000E+00
3.103798E+03	7.707441E-15	0.000000E+00
3.113746E+03	7.685204E-15	0.000000E+00
3.123694E+03	7.663214E-15	0.000000E+00
3.133642E+03	7.641471E-15	0.000000E+00
3.143590E+03	7.619994E-15	0.000000E+00
3.153539E+03	7.598808E-15	0.000000E+00
3.163487E+03	7.577936E-15	0.000000E+00
3.173435E+03	7.557437E-15	0.000000E+00
3.183383E+03	7.537353E-15	0.000000E+00
3.193331E+03	7.517739E-15	0.000000E+00
3.203279E+03	7.498693E-15	0.000000E+00
3.213227E+03	7.480270E-15	0.000000E+00
3.223175E+03	7.462562E-15	0.000000E+00
3.233123E+03	7.445660E-15	0.000000E+00
3.243071E+03	7.429679E-15	0.000000E+00
3.253019E+03	7.414724E-15	0.000000E+00
3.262967E+03	7.400868E-15	0.000000E+00
3.272915E+03	7.388251E-15	0.000000E+00
3.282863E+03	7.376941E-15	0.000000E+00
3.292812E+03	7.367075E-15	0.000000E+00
3.302760E+03	7.358712E-15	0.000000E+00
3.312708E+03	7.351913E-15	0.000000E+00
3.322656E+03	7.346756E-15	0.000000E+00
3.332604E+03	7.343256E-15	0.000000E+00
3.342552E+03	7.341390E-15	0.000000E+00
3.352500E+03	7.341100E-15	0.000000E+00
3.362448E+03	7.342262E-15	0.000000E+00
3.372396E+03	7.344733E-15	0.000000E+00
3.382344E+03	7.348201E-15	0.000000E+00
3.392292E+03	7.352323E-15	0.000000E+00
3.402240E+03	7.356647E-15	0.000000E+00
3.412188E+03	7.360579E-15	0.000000E+00
3.422136E+03	7.363495E-15	0.000000E+00
3.432085E+03	7.364664E-15	0.000000E+00
3.442033E+03	7.363440E-15	0.000000E+00
3.451981E+03	7.359270E-15	0.000000E+00
3.461929E+03	7.351921E-15	0.000000E+00
3.471877E+03	7.341523E-15	0.000000E+00
3.481825E+03	7.328503E-15	0.000000E+00
3.491773E+03	7.313447E-15	0.000000E+00
3.501721E+03	7.296955E-15	0.000000E+00
3.511669E+03	7.279634E-15	0.000000E+00
3.521617E+03	7.261912E-15	0.000000E+00
3.531565E+03	7.244178E-15	0.000000E+00
3.541513E+03	7.226678E-15	0.000000E+00
3.551461E+03	7.209584E-15	0.000000E+00
3.561409E+03	7.192967E-15	0.000000E+00
3.571358E+03	7.176869E-15	0.000000E+00
3.581306E+03	7.161207E-15	0.000000E+00
3.591254E+03	7.145946E-15	0.000000E+00
3.601202E+03	7.130964E-15	0.000000E+00
3.611150E+03	7.116084E-15	0.000000E+00
3.621098E+03	7.101177E-15	0.000000E+00
3.631046E+03	7.086076E-15	0.000000E+00
3.640994E+03	7.070583E-15	0.000000E+00
3.650942E+03	7.054550E-15	0.000000E+00
3.660890E+03	7.037795E-15	0.000000E+00
3.670838E+03	7.020130E-15	0.000000E+00
3.680786E+03	7.001386E-15	0.000000E+00
3.690734E+03	6.981458E-15	0.000000E+00
3.700682E+03	6.960139E-15	0.000000E+00
3.710631E+03	6.937355E-15	0.000000E+00
3.720579E+03	6.912944E-15	0.000000E+00
3.730527E+03	6.886827E-15	0.000000E+00
3.740475E+03	6.858896E-15	0.000000E+00
3.750423E+03	6.829094E-15	0.000000E+00
3.760371E+03	6.797325E-15	0.000000E+00
3.770319E+03	6.763606E-15	0.000000E+00
3.780267E+03	6.727834E-15	0.000000E+00
3.790215E+03	6.690042E-15	0.000000E+00
3.800163E+03	6.650220E-15	0.000000E+00
3.810111E+03	6.608364E-15	0.000000E+00
3.820059E+03	6.564513E-15	0.000000E+00
3.830007E+03	6.518699E-15	0.000000E+00
3.839955E+03	6.470997E-15	0.000000E+00
3.849904E+03	6.421416E-15	0.000000E+00
3.859852E+03	6.370100E-15	0.000000E+00
3.869800E+03	6.317073E-15	0.000000E+00
3.879748E+03	6.262482E-15	0.000000E+00
3.889696E+03	6.206395E-15	0.000000E+00
3.899644E+03	6.148945E-15	0.000000E+00
3.909592E+03	6.090246E-15	0.000000E+00
3.919540E+03	6.030440E-15	0.000000E+00
3.929488E+03	5.969631E-15	0.000000E+00
3.939436E+03	5.907998E-15	0.000000E+00
3.949384E+03	5.845652E-15	0.000000E+00
3.959332E+03	5.782754E-15	0.000000E+00
3.969280E+03	5.719446E-15	0.000000E+00
3.979228E+03	5.655893E-15	0.000000E+00
3.989176E+03	5.592215E-15	0.000000E+00
3.999125E+03	5.528579E-15	0.000000E+00
4.009073E+03	5.465149E-15	0.000000E+00
4.019021E+03	5.402065E-15	0.000000E+00
4.028969E+03	5.339443E-15	0.000000E+00
4.038917E+03	5.277463E-15	0.000000E+00
4.048865E+03	5.216234E-15	0.000000E+00
4.058813E+03	5.155905E-15	0.000000E+00
4.068761E+03	5.096575E-15	0.000000E+00
4.078709E+03	5.038405E-15	0.000000E+00
4.088657E+03	4.981463E-15	0.000000E+00
4.098605E+03	4.925874E-15	0.000000E+00
4.108553E+03	4.871758E-15	0.000000E+00
4.118501E+03	4.819162E-15	0.000000E+00
4.128449E+03	4.768191E-15	0.000000E+00
4.138398E+03	4.718922E-15	0.000000E+00
4.148346E+03	4.671401E-15	0.000000E+00
4.158294E+03	4.625688E-15	0.000000E+00
4.168242E+03	4.581836E-15	0.000000E+00
4.178190E+03	4.539847E-15	0.000000E+00
4.188138E+03	4.499755E-15	0.000000E+00
4.198086E+03	4.461589E-15	0.000000E+00
4.208034E+03	4.425326E-15	0.000000E+00
4.217982E+03	4.390976E-15	0.000000E+00
4.227930E+03	4.358476E-15	0.000000E+00
4.237878E+03	4.327823E-15	0.000000E+00
4.247826E+03	4.298979E-15	0.000000E+00
4.257774E+03	4.271837E-15	0.000000E+00
4.267722E+03	4.246388E-15	0.000000E+00
4.277671E+03	4.222530E-15	0.000000E+00
4.287619E+03	4.200217E-15	0.000000E+00
4.297567E+03	4.179393E-15	0.000000E+00
4.307515E+03	4.159967E-15	0.000000E+00
4.317463E+03	4.141858E-15	0.000000E+00
4.327411E+03	4.124958E-15	0.000000E+00
4.337359E+03	4.109047E-15	0.000000E+00
4.347307E+03	4.093824E-15	0.000000E+00
4.357255E+03	4.078865E-15	0.000000E+00
4.367203E+03	4.063674E-15	0.000000E+00
4.377151E+03	4.047648E-15	0.000000E+00
4.387099E+03	4.030253E-15	0.000000E+00
4.397047E+03	4.010904E-15	0.000000E+00
4.406995E+03	3.989049E-15	0.000000E+00
4.416944E+03	3.964128E-15	0.000000E+00
4.426892E+03	3.935530E-15	0.000000E+00
4.436840E+03	3.902622E-15	0.000000E+00
4.446788E+03	3.864706E-15	0.000000E+00
4.456736E+03	3.821160E-15	0.000000E+00
4.466684E+03	3.771582E-15	0.000000E+00
4.476632E+03	3.716033E-15	0.000000E+00
4.486580E+03	3.655221E-15	0.000000E+00
4.496528E+03	3.590620E-15	0.000000E+00
4.506476E+03	3.524163E-15	0.000000E+00
4.516424E+03	3.457871E-15	0.000000E+00
4.526372E+03	3.393623E-15	0.000000E+00
4.536320E+03	3.332909E-15	0.000000E+00
4.546268E+03	3.276897E-15	0.000000E+00
4.556217E+03	3.226368E-15	0.000000E+00
4.566165E+03	3.181757E-15	0.000000E+00
4.576113E+03	3.143182E-15	0.000000E+00
4.586061E+03	3.110291E-15	0.000000E+00
4.596009E+03	3.082255E-15	0.000000E+00
4.605957E+03	3.057792E-15	0.000000E+00
4.615905E+03	3.035237E-15	0.000000E+00
4.625853E+03	3.012690E-15	0.000000E+00
4.635801E+03	2.988385E-15	0.000000E+00
4.645749E+03	2.961072E-15	0.000000E+00
4.655697E+03	2.930412E-15	0.000000E+00
4.665645E+03	2.897445E-15	0.000000E+00
4.675593E+03	2.864693E-15	0.000000E+00
4.685541E+03	2.835745E-15	0.000000E+00
4.695490E+03	2.814951E-15	0.000000E+00
4.705438E+03	2.806821E-15	0.000000E+00
4.715386E+03	2.815659E-15	0.000000E+00
4.725334E+03	2.845184E-15	0.000000E+00
4.735282E+03	2.898101E-15	0.000000E+00
4.745230E+03	2.975490E-15	0.000000E+00
4.755178E+03	3.076037E-15	0.000000E+00
4.765126E+03	3.195470E-15	0.000000E+00
4.775074E+03	3.326446E-15	0.000000E+00
4.785022E+03	3.459124E-15	0.000000E+00
4.794970E+03	3.582346E-15	0.000000E+00
4.804918E+03	3.685596E-15	0.000000E+00
4.814866E+03	3.760930E-15	0.000000E+00
4.824814E+03	3.804564E-15	0.000000E+00
4.834763E+03	3.817022E-15	0.000000E+00
4.844711E+03	3.802279E-15	0.000000E+00
4.854659E+03	3.766361E-15	0.000000E+00
4.864607E+03	3.716020E-15	0.000000E+00
4.874555E+03	3.657742E-15	0.000000E+00
4.884503E+03	3.597095E-15	0.000000E+00
4.894451E+03	3.538154E-15	0.000000E+00
4.904399E+03	3.483476E-15	0.000000E+00
4.914347E+03	3.433971E-15	0.000000E+00
4.924295E+03	3.389341E-15	0.000000E+00
4.934243E+03	3.348403E-15	0.000000E+00
4.944191E+03	3.309535E-15	0.000000E+00
4.954139E+03	3.271278E-15	0.000000E+00
4.964087E+03	3.232707E-15	0.000000E+00
4.974036E+03	3.193649E-15	0.000000E+00
4.983984E+03	3.154615E-15	0.000000E+00
4.993932E+03	3.116604E-15	0.000000E+00
5.003880E+03	3.080737E-15	0.000000E+00
5.013828E+03	3.047979E-15	0.000000E+00
5.023776E+03	3.018860E-15	0.000000E+00
5.033724E+03	2.993206E-15	0.000000E+00
5.043672E+03	2.970411E-15	0.000000E+00
5.053620E+03	2.949366E-15	0.000000E+00
5.063568E+03	2.928873E-15	0.000000E+00
5.073516E+03	2.907775E-15	0.000000E+00
5.083464E+03	2.885254E-15	0.000000E+00
5.093412E+03	2.861014E-15	0.000000E+00
5.103360E+03	2.835166E-15	0.000000E+00
5.113309E+03	2.808173E-15	0.000000E+00
5.123257E+03	2.780637E-15	0.000000E+00
5.133205E+03	2.753170E-15	0.000000E+00
5.143153E+03	2.726258E-15	0.000000E+00
5.153101E+03	2.700066E-15	0.000000E+00
5.163049E+03	2.674712E-15	0.000000E+00
5.172997E+03	2.650155E-15	0.000000E+00
5.182945E+03	2.626383E-15	0.000000E+00
5.192893E+03	2.603408E-15	0.000000E+00
5.202841E+03	2.581332E-15	0.000000E+00
5.212789E+03	2.560290E-15	0.000000E+00
5.222737E+03	2.540410E-15	0.000000E+00
5.232685E+03	2.521739E-15	0.000000E+00
5.242633E+03	2.504315E-15	0.000000E+00
5.252582E+03	2.488093E-15	0.000000E+00
5.262530E+03	2.473160E-15	0.000000E+00
5.272478E+03	2.459714E-15	0.000000E+00
5.282426E+03	2.447986E-15	0.000000E+00
5.292374E+03	2.438337E-15	0.000000E+00
5.302322E+03	2.431068E-15	0.000000E+00
5.312270E+03	2.426455E-15	0.000000E+00
5.322218E+03	2.424574E-15	0.000000E+00
5.332166E+03	2.425281E-15	0.000000E+00
5.342114E+03	2.428355E-15	0.000000E+00
5.352062E+03	2.433466E-15	0.000000E+00
5.362010E+03	2.440221E-15	0.000000E+00
5.371958E+03	2.448285E-15	0.000000E+00
5.381906E+03	2.457358E-15	0.000000E+00
5.391855E+03	2.467099E-15	0.000000E+00
5.401803E+03	2.477061E-15	0.000000E+00
5.411751E+03	2.486914E-15	0.000000E+00
5.421699E+03	2.496391E-15	0.000000E+00
5.431647E+03	2.504811E-15	0.000000E+00
5.441595E+03	2.510977E-15	0.000000E+00
5.451543E+03	2.513107E-15	0.000000E+00
5.461491E+03	2.508973E-15	0.000000E+00
5.471439E+03	2.497549E-15	0.000000E+00
5.481387E+03	2.480530E-15	0.000000E+00
5.491335E+03	2.460163E-15	0.000000E+00
5.501283E+03	2.438262E-15	0.000000E+00
5.511231E+03	2.415935E-15	0.000000E+00
5.521179E+03	2.393771E-15	0.000000E+00
5.531128E+03	2.372066E-15	0.000000E+00
5.541076E+03	2.350856E-15	0.000000E+00
5.551024E+03	2.330093E-15	0.000000E+00
5.560972E+03	2.309844E-15	0.000000E+00
5.570920E+03	2.290276E-15	0.000000E+00
5.580868E+03	2.271552E-15	0.000000E+00
5.590816E+03	2.253817E-15	0.000000E+00
5.600764E+03	2.237002E-15	0.000000E+00
5.610712E+03	2.220796E-15	0.000000E+00
5.620660E+03	2.204575E-15	0.000000E+00
5.630608E+03	2.187489E-15	0.000000E+00
5.640556E+03	2.168634E-15	0.000000E+00
5.650504E+03	2.147342E-15	0.000000E+00
5.660452E+03	2.123320E-15	0.000000E+00
5.670401E+03	2.096966E-15	0.000000E+00
5.680349E+03	2.069510E-15	0.000000E+00
5.690297E+03	2.042937E-15	0.000000E+00
5.700245E+03	2.019808E-15	0.000000E+00
5.710193E+03	2.002827E-15	0.000000E+00
5.720141E+03	1.994540E-15	0.000000E+00
5.730089E+03	1.996849E-15	0.000000E+00
5.740037E+03	2.010573E-15	0.000000E+00
5.749985E+03	2.035273E-15	0.000000E+00
5.759933E+03	2.069279E-15	0.000000E+00
5.769881E+03	2.109760E-15	0.000000E+00
5.779829E+03	2.153171E-15	0.000000E+00
5.789777E+03	2.195629E-15	0.000000E+00
5.799725E+03	2.233626E-15	0.000000E+00
5.809674E+03	2.264345E-15	0.000000E+00
5.819622E+03	2.286150E-15	0.000000E+00
5.829570E+03	2.298460E-15	0.000000E+00
5.839518E+03	2.301675E-15	0.000000E+00
5.849466E+03	2.296929E-15	0.000000E+00
5.859414E+03	2.285793E-15	0.000000E+00
5.869362E+03	2.269987E-15	0.000000E+00
5.879310E+03	2.251196E-15	0.000000E+00
5.889258E+03	2.230728E-15	0.000000E+00
5.899206E+03	2.209606E-15	0.000000E+00
5.909154E+03	2.188469E-15	0.000000E+00
5.919102E+03	2.167528E-15	0.000000E+00
5.929050E+03	2.146896E-15	0.000000E+00
5.938998E+03	2.126433E-15	0.000000E+00
5.948946E+03	2.106116E-15	0.000000E+00
5.958895E+03	2.085978E-15	0.000000E+00
5.968843E+03	2.066244E-15	0.000000E+00
5.978791E+03	2.047111E-15	0.000000E+00
5.988739E+03	2.028819E-15	0.000000E+00
5.998687E+03	2.011470E-15	0.000000E+00
6.008635E+03	1.995230E-15	0.000000E+00
6.018583E+03	1.980048E-15	0.000000E+00
6.028531E+03	1.965895E-15	0.000000E+00
6.038479E+03	1.952680E-15	0.000000E+00
6.048427E+03	1.940288E-15	0.000000E+00
6.058375E+03	1.928578E-15	0.000000E+00
6.068323E+03	1.917395E-15	0.000000E+00
6.078271E+03	1.906507E-15	0.000000E+00
6.088219E+03	1.895618E-15	0.000000E+00
6.098168E+03	1.884447E-15	0.000000E+00
6.108116E+03	1.872738E-15	0.000000E+00
6.118064E+03	1.860394E-15	0.000000E+00
6.128012E+03	1.847480E-15	0.000000E+00
6.137960E+03	1.834365E-15	0.000000E+00
6.147908E+03	1.821594E-15	0.000000E+00
6.157856E+03	1.809841E-15	0.000000E+00
6.167804E+03	1.799712E-15	0.000000E+00
6.177752E+03	1.791651E-15	0.000000E+00
6.187700E+03	1.785765E-15	0.000000E+00
6.197648E+03	1.781847E-15	0.000000E+00
6.207596E+03	1.779457E-15	0.000000E+00
6.217544E+03	1.778061E-15	0.000000E+00
6.227492E+03	1.777253E-15	0.000000E+00
6.237441E+03	1.776674E-15	0.000000E+00
6.247389E+03	1.776088E-15	0.000000E+00
6.257337E+03	1.775189E-15	0.000000E+00
6.267285E+03	1.773729E-15	0.000000E+00
6.277233E+03	1.771283E-15	0.000000E+00
6.287181E+03	1.767491E-15	0.000000E+00
6.297129E+03	1.762086E-15	0.000000E+00
6.307077E+03	1.755069E-15	0.000000E+00
6.317025E+03	1.746956E-15	0.000000E+00
6.326973E+03	1.738743E-15	0.000000E+00
6.336921E+03	1.732003E-15	0.000000E+00
6.346869E+03	1.728656E-15	0.000000E+00
6.356817E+03	1.730720E-15	0.000000E+00
6.366765E+03	1.739945E-15	0.000000E+00
6.376714E+03	1.757681E-15	0.000000E+00
6.386662E+03	1.784451E-15	0.000000E+00
6.396610E+03	1.820110E-15	0.000000E+00
6.406558E+03	1.863782E-15	0.000000E+00
6.416506E+03	1.913965E-15	0.000000E+00
6.426454E+03	1.968770E-15	0.000000E+00
6.436402E+03	2.026128E-15	0.000000E+00
6.446350E+03	2.083897E-15	0.000000E+00
6.456298E+03	2.139860E-15	0.000000E+00
6.466246E+03	2.191645E-15	0.000000E+00
6.476194E+03	2.237095E-15	0.000000E+00
6.486142E+03	2.274194E-15	0.000000E+00
6.496090E+03	2.301488E-15	0.000000E+00
6.506038E+03	2.318252E-15	0.000000E+00
6.515987E+03	2.324503E-15	0.000000E+00
6.525935E+03	2.321199E-15	0.000000E+00
6.535883E+03	2.309805E-15	0.000000E+00
6.545831E+03	2.291925E-15	0.000000E+00
6.555779E+03	2.269031E-15	0.000000E+00
6.565727E+03	2.242215E-15	0.000000E+00
6.575675E+03	2.212343E-15	0.000000E+00
6.585623E+03	2.180132E-15	0.000000E+00
6.595571E+03	2.146116E-15	0.000000E+00
6.605519E+03	2.110859E-15	0.000000E+00
6.615467E+03	2.074814E-15	0.000000E+00
6.625415E+03	2.038386E-15	0.000000E+00
6.635363E+03	2.001841E-15	0.000000E+00
6.645311E+03	1.965340E-15	0.000000E+00
6.655260E+03	1.928886E-15	0.000000E+00
6.665208E+03	1.892539E-15	0.000000E+00
6.675156E+03	1.856481E-15	0.000000E+00
6.685104E+03	1.820912E-15	0.000000E+00
6.695052E+03	1.786129E-15	0.000000E+00
6.705000E+03	1.752432E-15	0.000000E+00
6.714948E+03	1.720071E-15	0.000000E+00
6.724896E+03	1.689187E-15	0.000000E+00
6.734844E+03	1.659768E-15	0.000000E+00
6.744792E+03	1.631633E-15	0.000000E+00
6.754740E+03	1.604312E-15	0.000000E+00
6.764688E+03	1.577307E-15	0.000000E+00
6.774636E+03	1.550107E-15	0.000000E+00
6.784584E+03	1.522537E-15	0.000000E+00
6.794533E+03	1.494661E-15	0.000000E+00
6.804481E+03	1.466987E-15	0.000000E+00
6.814429E+03	1.440224E-15	0.000000E+00
6.824377E+03	1.415265E-15	0.000000E+00
6.834325E+03	1.392945E-15	0.000000E+00
6.844273E+03	1.374032E-15	0.000000E+00
6.854221E+03	1.359013E-15	0.000000E+00
6.864169E+03	1.348109E-15	0.000000E+00
6.874117E+03	1.341087E-15	0.000000E+00
6.884065E+03	1.337469E-15	0.000000E+00
6.894013E+03	1.336454E-15	0.000000E+00
6.903961E+03	1.337209E-15	0.000000E+00
6.913909E+03	1.339003E-15	0.000000E+00
6.923857E+03	1.341182E-15	0.000000E+00
6.933806E+03	1.343355E-15	0.000000E+00
6.943754E+03	1.345268E-15	0.000000E+00
6.953702E+03	1.346774E-15	0.000000E+00
6.963650E+03	1.347907E-15	0.000000E+00
6.973598E+03	1.348624E-15	0.000000E+00
6.983546E+03	1.348917E-15	0.000000E+00
6.993494E+03	1.348730E-15	0.000000E+00
7.003442E+03	1.347887E-15	0.000000E+00
7.013390E+03	1.346139E-15	0.000000E+00
7.023338E+03	1.343310E-15	0.000000E+00
7.033286E+03	1.339235E-15	0.000000E+00
7.043234E+03	1.333845E-15	0.000000E+00
7.053182E+03	1.327105E-15	0.000000E+00
7.063130E+03	1.318978E-15	0.000000E+00
7.073079E+03	1.309454E-15	0.000000E+00
7.083027E+03	1.298474E-15	0.000000E+00
7.092975E+03	1.286031E-15	0.000000E+00
7.102923E+03	1.272324E-15	0.000000E+00
7.112871E+03	1.257599E-15	0.000000E+00
7.122819E+03	1.242363E-15	0.000000E+00
7.132767E+03	1.227185E-15	0.000000E+00
7.142715E+03	1.212628E-15	0.000000E+00
7.152663E+03	1.199136E-15	0.000000E+00
7.162611E+03	1.187080E-15	0.000000E+00
7.172559E+03	1.176681E-15	0.000000E+00
7.182507E+03	1.168024E-15	0.000000E+00
7.192455E+03	1.161170E-15	0.000000E+00
7.202403E+03	1.156039E-15	0.000000E+00
7.212352E+03	1.152643E-15	0.000000E+00
7.222300E+03	1.150813E-15	0.000000E+00
7.232248E+03	1.150382E-15	0.000000E+00
7.242196E+03	1.151134E-15	0.000000E+00
7.252144E+03	1.152810E-15	0.000000E+00
7.262092E+03	1.155160E-15	0.000000E+00
7.272040E+03	1.157877E-15	0.000000E+00
7.281988E+03	1.160656E-15	0.000000E+00
7.291936E+03	1.163300E-15	0.000000E+00
7.301884E+03	1.165552E-15	0.000000E+00
7.311832E+03	1.167241E-15	0.000000E+00
7.321780E+03	1.168269E-15	0.000000E+00
7.331728E+03	1.168618E-15	0.000000E+00
7.341676E+03	1.168309E-15	0.000000E+00
7.351625E+03	1.167483E-15	0.000000E+00
7.361573E+03	1.166198E-15	0.000000E+00
7.371521E+03	1.164502E-15	0.000000E+00
7.381469E+03	1.162510E-15	0.000000E+00
7.391417E+03	1.160220E-15	0.000000E+00
7.401365E+03	1.157581E-15	0.000000E+00
7.411313E+03	1.154563E-15	0.000000E+00
7.421261E+03	1.150982E-15	0.000000E+00
7.431209E+03	1.146491E-15	0.000000E+00
7.441157E+03	1.140787E-15	0.000000E+00
7.451105E+03	1.133332E-15	0.000000E+00
7.461053E+03	1.123757E-15	0.000000E+00
7.471001E+03	1.111707E-15	0.000000E+00
7.480949E+03	1.097184E-15	0.000000E+00
7.490898E+03	1.080260E-15	0.000000E+00
7.500846E+03	1.061388E-15	0.000000E+00
7.510794E+03	1.041151E-15	0.000000E+00
7.520742E+03	1.020329E-15	0.000000E+00
7.530690E+03	9.998313E-16	0.000000E+00
7.540638E+03	9.806625E-16	0.000000E+00
7.550586E+03	9.637911E-16	0.000000E+00
7.560534E+03	9.501665E-16	0.000000E+00
7.570482E+03	9.406751E-16	0.000000E+00
7.580430E+03	9.360233E-16	0.000000E+00
7.590378E+03	9.367678E-16	0.000000E+00
7.600326E+03	9.432118E-16	0.000000E+00
7.610274E+03	9.553218E-16	0.000000E+00
7.620222E+03	9.725246E-16	0.000000E+00
7.630171E+03	9.937672E-16	0.000000E+00
7.640119E+03	1.017486E-15	0.000000E+00
7.650067E+03	1.042024E-15	0.000000E+00
7.660015E+03	1.065744E-15	0.000000E+00
7.669963E+03	1.087236E-15	0.000000E+00
7.679911E+03	1.105659E-15	0.000000E+00
7.689859E+03	1.120623E-15	0.000000E+00
7.699807E+03	1.132127E-15	0.000000E+00
7.709755E+03	1.140627E-15	0.000000E+00
7.719703E+03	1.146653E-15	0.000000E+00
