#wls	flux	fluxerr
1.591691E+03	3.903987E-15	0.000000E+00
1.631484E+03	4.163735E-15	0.000000E+00
1.671276E+03	4.427944E-15	0.000000E+00
1.711068E+03	4.694685E-15	0.000000E+00
1.750861E+03	4.961196E-15	0.000000E+00
1.790653E+03	5.222186E-15	0.000000E+00
1.830445E+03	5.470309E-15	0.000000E+00
1.870237E+03	5.696093E-15	0.000000E+00
1.910030E+03	5.888314E-15	0.000000E+00
1.949822E+03	6.035728E-15	0.000000E+00
1.989614E+03	6.131145E-15	0.000000E+00
2.029406E+03	6.178071E-15	0.000000E+00
2.069199E+03	6.197698E-15	0.000000E+00
2.108991E+03	6.231756E-15	0.000000E+00
2.148783E+03	6.329656E-15	0.000000E+00
2.188576E+03	6.516236E-15	0.000000E+00
2.228368E+03	6.774350E-15	0.000000E+00
2.268160E+03	7.059910E-15	0.000000E+00
2.307952E+03	7.337639E-15	0.000000E+00
2.347745E+03	7.593430E-15	0.000000E+00
2.387537E+03	7.823403E-15	0.000000E+00
2.427329E+03	8.027723E-15	0.000000E+00
2.467122E+03	8.207418E-15	0.000000E+00
2.506914E+03	8.361096E-15	0.000000E+00
2.546706E+03	8.480748E-15	0.000000E+00
2.586498E+03	8.548488E-15	0.000000E+00
2.626291E+03	8.545182E-15	0.000000E+00
2.666083E+03	8.474976E-15	0.000000E+00
2.705875E+03	8.360360E-15	0.000000E+00
2.745668E+03	8.220186E-15	0.000000E+00
2.785460E+03	8.065855E-15	0.000000E+00
2.825252E+03	7.904008E-15	0.000000E+00
2.865044E+03	7.738636E-15	0.000000E+00
2.904837E+03	7.572239E-15	0.000000E+00
2.944629E+03	7.406459E-15	0.000000E+00
2.984421E+03	7.242521E-15	0.000000E+00
2.994369E+03	7.201947E-15	0.000000E+00
3.004317E+03	7.161556E-15	0.000000E+00
3.014266E+03	7.121395E-15	0.000000E+00
3.024214E+03	7.081514E-15	0.000000E+00
3.034162E+03	7.042187E-15	0.000000E+00
3.044110E+03	7.003571E-15	0.000000E+00
3.054058E+03	6.965781E-15	0.000000E+00
3.064006E+03	6.928739E-15	0.000000E+00
3.073954E+03	6.892389E-15	0.000000E+00
3.083902E+03	6.856687E-15	0.000000E+00
3.093850E+03	6.821579E-15	0.000000E+00
3.103798E+03	6.787060E-15	0.000000E+00
3.113746E+03	6.753085E-15	0.000000E+00
3.123694E+03	6.719669E-15	0.000000E+00
3.133642E+03	6.686805E-15	0.000000E+00
3.143590E+03	6.654489E-15	0.000000E+00
3.153539E+03	6.622747E-15	0.000000E+00
3.163487E+03	6.591617E-15	0.000000E+00
3.173435E+03	6.561115E-15	0.000000E+00
3.183383E+03	6.531292E-15	0.000000E+00
3.193331E+03	6.502177E-15	0.000000E+00
3.203279E+03	6.473828E-15	0.000000E+00
3.213227E+03	6.446305E-15	0.000000E+00
3.223175E+03	6.419652E-15	0.000000E+00
3.233123E+03	6.393950E-15	0.000000E+00
3.243071E+03	6.369237E-15	0.000000E+00
3.253019E+03	6.345586E-15	0.000000E+00
3.262967E+03	6.323054E-15	0.000000E+00
3.272915E+03	6.301700E-15	0.000000E+00
3.282863E+03	6.281570E-15	0.000000E+00
3.292812E+03	6.262707E-15	0.000000E+00
3.302760E+03	6.245121E-15	0.000000E+00
3.312708E+03	6.228838E-15	0.000000E+00
3.322656E+03	6.213837E-15	0.000000E+00
3.332604E+03	6.200066E-15	0.000000E+00
3.342552E+03	6.187469E-15	0.000000E+00
3.352500E+03	6.175932E-15	0.000000E+00
3.362448E+03	6.165283E-15	0.000000E+00
3.372396E+03	6.155328E-15	0.000000E+00
3.382344E+03	6.145800E-15	0.000000E+00
3.392292E+03	6.136355E-15	0.000000E+00
3.402240E+03	6.126639E-15	0.000000E+00
3.412188E+03	6.116182E-15	0.000000E+00
3.422136E+03	6.104533E-15	0.000000E+00
3.432085E+03	6.091230E-15	0.000000E+00
3.442033E+03	6.075899E-15	0.000000E+00
3.451981E+03	6.058221E-15	0.000000E+00
3.461929E+03	6.038088E-15	0.000000E+00
3.471877E+03	6.015595E-15	0.000000E+00
3.481825E+03	5.990940E-15	0.000000E+00
3.491773E+03	5.964497E-15	0.000000E+00
3.501721E+03	5.936664E-15	0.000000E+00
3.511669E+03	5.907838E-15	0.000000E+00
3.521617E+03	5.878396E-15	0.000000E+00
3.531565E+03	5.848632E-15	0.000000E+00
3.541513E+03	5.818820E-15	0.000000E+00
3.551461E+03	5.789126E-15	0.000000E+00
3.561409E+03	5.759688E-15	0.000000E+00
3.571358E+03	5.730577E-15	0.000000E+00
3.581306E+03	5.701816E-15	0.000000E+00
3.591254E+03	5.673410E-15	0.000000E+00
3.601202E+03	5.645318E-15	0.000000E+00
3.611150E+03	5.617474E-15	0.000000E+00
3.621098E+03	5.589809E-15	0.000000E+00
3.631046E+03	5.562209E-15	0.000000E+00
3.640994E+03	5.534601E-15	0.000000E+00
3.650942E+03	5.506856E-15	0.000000E+00
3.660890E+03	5.478894E-15	0.000000E+00
3.670838E+03	5.450585E-15	0.000000E+00
3.680786E+03	5.421832E-15	0.000000E+00
3.690734E+03	5.392545E-15	0.000000E+00
3.700682E+03	5.362606E-15	0.000000E+00
3.710631E+03	5.331951E-15	0.000000E+00
3.720579E+03	5.300494E-15	0.000000E+00
3.730527E+03	5.268187E-15	0.000000E+00
3.740475E+03	5.234926E-15	0.000000E+00
3.750423E+03	5.200698E-15	0.000000E+00
3.760371E+03	5.165450E-15	0.000000E+00
3.770319E+03	5.129139E-15	0.000000E+00
3.780267E+03	5.091747E-15	0.000000E+00
3.790215E+03	5.053282E-15	0.000000E+00
3.800163E+03	5.013729E-15	0.000000E+00
3.810111E+03	4.973097E-15	0.000000E+00
3.820059E+03	4.931404E-15	0.000000E+00
3.830007E+03	4.888661E-15	0.000000E+00
3.839955E+03	4.844919E-15	0.000000E+00
3.849904E+03	4.800203E-15	0.000000E+00
3.859852E+03	4.754581E-15	0.000000E+00
3.869800E+03	4.708092E-15	0.000000E+00
3.879748E+03	4.660814E-15	0.000000E+00
3.889696E+03	4.612799E-15	0.000000E+00
3.899644E+03	4.564122E-15	0.000000E+00
3.909592E+03	4.514876E-15	0.000000E+00
3.919540E+03	4.465126E-15	0.000000E+00
3.929488E+03	4.414960E-15	0.000000E+00
3.939436E+03	4.364464E-15	0.000000E+00
3.949384E+03	4.313746E-15	0.000000E+00
3.959332E+03	4.262883E-15	0.000000E+00
3.969280E+03	4.211985E-15	0.000000E+00
3.979228E+03	4.161114E-15	0.000000E+00
3.989176E+03	4.110396E-15	0.000000E+00
3.999125E+03	4.059910E-15	0.000000E+00
4.009073E+03	4.009749E-15	0.000000E+00
4.019021E+03	3.960005E-15	0.000000E+00
4.028969E+03	3.910768E-15	0.000000E+00
4.038917E+03	3.862108E-15	0.000000E+00
4.048865E+03	3.814128E-15	0.000000E+00
4.058813E+03	3.766909E-15	0.000000E+00
4.068761E+03	3.720513E-15	0.000000E+00
4.078709E+03	3.674998E-15	0.000000E+00
4.088657E+03	3.630467E-15	0.000000E+00
4.098605E+03	3.586955E-15	0.000000E+00
4.108553E+03	3.544520E-15	0.000000E+00
4.118501E+03	3.503207E-15	0.000000E+00
4.128449E+03	3.463080E-15	0.000000E+00
4.138398E+03	3.424187E-15	0.000000E+00
4.148346E+03	3.386522E-15	0.000000E+00
4.158294E+03	3.350151E-15	0.000000E+00
4.168242E+03	3.315091E-15	0.000000E+00
4.178190E+03	3.281349E-15	0.000000E+00
4.188138E+03	3.248945E-15	0.000000E+00
4.198086E+03	3.217877E-15	0.000000E+00
4.208034E+03	3.188169E-15	0.000000E+00
4.217982E+03	3.159807E-15	0.000000E+00
4.227930E+03	3.132803E-15	0.000000E+00
4.237878E+03	3.107134E-15	0.000000E+00
4.247826E+03	3.082785E-15	0.000000E+00
4.257774E+03	3.059752E-15	0.000000E+00
4.267722E+03	3.038008E-15	0.000000E+00
4.277671E+03	3.017549E-15	0.000000E+00
4.287619E+03	2.998335E-15	0.000000E+00
4.297567E+03	2.980311E-15	0.000000E+00
4.307515E+03	2.963417E-15	0.000000E+00
4.317463E+03	2.947553E-15	0.000000E+00
4.327411E+03	2.932560E-15	0.000000E+00
4.337359E+03	2.918256E-15	0.000000E+00
4.347307E+03	2.904366E-15	0.000000E+00
4.357255E+03	2.890581E-15	0.000000E+00
4.367203E+03	2.876537E-15	0.000000E+00
4.377151E+03	2.861840E-15	0.000000E+00
4.387099E+03	2.846055E-15	0.000000E+00
4.397047E+03	2.828773E-15	0.000000E+00
4.406995E+03	2.809552E-15	0.000000E+00
4.416944E+03	2.787966E-15	0.000000E+00
4.426892E+03	2.763634E-15	0.000000E+00
4.436840E+03	2.736132E-15	0.000000E+00
4.446788E+03	2.705146E-15	0.000000E+00
4.456736E+03	2.670461E-15	0.000000E+00
4.466684E+03	2.632056E-15	0.000000E+00
4.476632E+03	2.590182E-15	0.000000E+00
4.486580E+03	2.545394E-15	0.000000E+00
4.496528E+03	2.498586E-15	0.000000E+00
4.506476E+03	2.450843E-15	0.000000E+00
4.516424E+03	2.403299E-15	0.000000E+00
4.526372E+03	2.357113E-15	0.000000E+00
4.536320E+03	2.313226E-15	0.000000E+00
4.546268E+03	2.272417E-15	0.000000E+00
4.556217E+03	2.235270E-15	0.000000E+00
4.566165E+03	2.202095E-15	0.000000E+00
4.576113E+03	2.173004E-15	0.000000E+00
4.586061E+03	2.147842E-15	0.000000E+00
4.596009E+03	2.126206E-15	0.000000E+00
4.605957E+03	2.107484E-15	0.000000E+00
4.615905E+03	2.090825E-15	0.000000E+00
4.625853E+03	2.075321E-15	0.000000E+00
4.635801E+03	2.060172E-15	0.000000E+00
4.645749E+03	2.044887E-15	0.000000E+00
4.655697E+03	2.029452E-15	0.000000E+00
4.665645E+03	2.014481E-15	0.000000E+00
4.675593E+03	2.001238E-15	0.000000E+00
4.685541E+03	1.991485E-15	0.000000E+00
4.695490E+03	1.987322E-15	0.000000E+00
4.705438E+03	1.990999E-15	0.000000E+00
4.715386E+03	2.004571E-15	0.000000E+00
4.725334E+03	2.029782E-15	0.000000E+00
4.735282E+03	2.067664E-15	0.000000E+00
4.745230E+03	2.118314E-15	0.000000E+00
4.755178E+03	2.180621E-15	0.000000E+00
4.765126E+03	2.252072E-15	0.000000E+00
4.775074E+03	2.328770E-15	0.000000E+00
4.785022E+03	2.405726E-15	0.000000E+00
4.794970E+03	2.477458E-15	0.000000E+00
4.804918E+03	2.538825E-15	0.000000E+00
4.814866E+03	2.585858E-15	0.000000E+00
4.824814E+03	2.616288E-15	0.000000E+00
4.834763E+03	2.629843E-15	0.000000E+00
4.844711E+03	2.627980E-15	0.000000E+00
4.854659E+03	2.613376E-15	0.000000E+00
4.864607E+03	2.589287E-15	0.000000E+00
4.874555E+03	2.559124E-15	0.000000E+00
4.884503E+03	2.525862E-15	0.000000E+00
4.894451E+03	2.491884E-15	0.000000E+00
4.904399E+03	2.458813E-15	0.000000E+00
4.914347E+03	2.427486E-15	0.000000E+00
4.924295E+03	2.398111E-15	0.000000E+00
4.934243E+03	2.370449E-15	0.000000E+00
4.944191E+03	2.343943E-15	0.000000E+00
4.954139E+03	2.318116E-15	0.000000E+00
4.964087E+03	2.292575E-15	0.000000E+00
4.974036E+03	2.267227E-15	0.000000E+00
4.983984E+03	2.242263E-15	0.000000E+00
4.993932E+03	2.218023E-15	0.000000E+00
5.003880E+03	2.194885E-15	0.000000E+00
5.013828E+03	2.173235E-15	0.000000E+00
5.023776E+03	2.153216E-15	0.000000E+00
5.033724E+03	2.134727E-15	0.000000E+00
5.043672E+03	2.117456E-15	0.000000E+00
5.053620E+03	2.100924E-15	0.000000E+00
5.063568E+03	2.084581E-15	0.000000E+00
5.073516E+03	2.067887E-15	0.000000E+00
5.083464E+03	2.050522E-15	0.000000E+00
5.093412E+03	2.032275E-15	0.000000E+00
5.103360E+03	2.013251E-15	0.000000E+00
5.113309E+03	1.993588E-15	0.000000E+00
5.123257E+03	1.973646E-15	0.000000E+00
5.133205E+03	1.953714E-15	0.000000E+00
5.143153E+03	1.934055E-15	0.000000E+00
5.153101E+03	1.914895E-15	0.000000E+00
5.163049E+03	1.896364E-15	0.000000E+00
5.172997E+03	1.878511E-15	0.000000E+00
5.182945E+03	1.861411E-15	0.000000E+00
5.192893E+03	1.845107E-15	0.000000E+00
5.202841E+03	1.829669E-15	0.000000E+00
5.212789E+03	1.815175E-15	0.000000E+00
5.222737E+03	1.801688E-15	0.000000E+00
5.232685E+03	1.789278E-15	0.000000E+00
5.242633E+03	1.777994E-15	0.000000E+00
5.252582E+03	1.767909E-15	0.000000E+00
5.262530E+03	1.759119E-15	0.000000E+00
5.272478E+03	1.751738E-15	0.000000E+00
5.282426E+03	1.745909E-15	0.000000E+00
5.292374E+03	1.741818E-15	0.000000E+00
5.302322E+03	1.739582E-15	0.000000E+00
5.312270E+03	1.739298E-15	0.000000E+00
5.322218E+03	1.740971E-15	0.000000E+00
5.332166E+03	1.744524E-15	0.000000E+00
5.342114E+03	1.749829E-15	0.000000E+00
5.352062E+03	1.756639E-15	0.000000E+00
5.362010E+03	1.764721E-15	0.000000E+00
5.371958E+03	1.773814E-15	0.000000E+00
5.381906E+03	1.783630E-15	0.000000E+00
5.391855E+03	1.793851E-15	0.000000E+00
5.401803E+03	1.804206E-15	0.000000E+00
5.411751E+03	1.814342E-15	0.000000E+00
5.421699E+03	1.823747E-15	0.000000E+00
5.431647E+03	1.831689E-15	0.000000E+00
5.441595E+03	1.837178E-15	0.000000E+00
5.451543E+03	1.839081E-15	0.000000E+00
5.461491E+03	1.836316E-15	0.000000E+00
5.471439E+03	1.828516E-15	0.000000E+00
5.481387E+03	1.816373E-15	0.000000E+00
5.491335E+03	1.801130E-15	0.000000E+00
5.501283E+03	1.783915E-15	0.000000E+00
5.511231E+03	1.765681E-15	0.000000E+00
5.521179E+03	1.747062E-15	0.000000E+00
5.531128E+03	1.728472E-15	0.000000E+00
5.541076E+03	1.710123E-15	0.000000E+00
5.551024E+03	1.692168E-15	0.000000E+00
5.560972E+03	1.674721E-15	0.000000E+00
5.570920E+03	1.657855E-15	0.000000E+00
5.580868E+03	1.641638E-15	0.000000E+00
5.590816E+03	1.626044E-15	0.000000E+00
5.600764E+03	1.610991E-15	0.000000E+00
5.610712E+03	1.596286E-15	0.000000E+00
5.620660E+03	1.581599E-15	0.000000E+00
5.630608E+03	1.566600E-15	0.000000E+00
5.640556E+03	1.550936E-15	0.000000E+00
5.650504E+03	1.534423E-15	0.000000E+00
5.660452E+03	1.517125E-15	0.000000E+00
5.670401E+03	1.499382E-15	0.000000E+00
5.680349E+03	1.481982E-15	0.000000E+00
5.690297E+03	1.465964E-15	0.000000E+00
5.700245E+03	1.452597E-15	0.000000E+00
5.710193E+03	1.443206E-15	0.000000E+00
5.720141E+03	1.438945E-15	0.000000E+00
5.730089E+03	1.440619E-15	0.000000E+00
5.740037E+03	1.448538E-15	0.000000E+00
5.749985E+03	1.462392E-15	0.000000E+00
5.759933E+03	1.481236E-15	0.000000E+00
5.769881E+03	1.503644E-15	0.000000E+00
5.779829E+03	1.527778E-15	0.000000E+00
5.789777E+03	1.551634E-15	0.000000E+00
5.799725E+03	1.573363E-15	0.000000E+00
5.809674E+03	1.591366E-15	0.000000E+00
5.819622E+03	1.604635E-15	0.000000E+00
5.829570E+03	1.612583E-15	0.000000E+00
5.839518E+03	1.615269E-15	0.000000E+00
5.849466E+03	1.613091E-15	0.000000E+00
5.859414E+03	1.606759E-15	0.000000E+00
5.869362E+03	1.597146E-15	0.000000E+00
5.879310E+03	1.585120E-15	0.000000E+00
5.889258E+03	1.571439E-15	0.000000E+00
5.899206E+03	1.556778E-15	0.000000E+00
5.909154E+03	1.541572E-15	0.000000E+00
5.919102E+03	1.526139E-15	0.000000E+00
5.929050E+03	1.510625E-15	0.000000E+00
5.938998E+03	1.495171E-15	0.000000E+00
5.948946E+03	1.479806E-15	0.000000E+00
5.958895E+03	1.464678E-15	0.000000E+00
5.968843E+03	1.449845E-15	0.000000E+00
5.978791E+03	1.435444E-15	0.000000E+00
5.988739E+03	1.421579E-15	0.000000E+00
5.998687E+03	1.408373E-15	0.000000E+00
6.008635E+03	1.395833E-15	0.000000E+00
6.018583E+03	1.384012E-15	0.000000E+00
6.028531E+03	1.372868E-15	0.000000E+00
6.038479E+03	1.362394E-15	0.000000E+00
6.048427E+03	1.352520E-15	0.000000E+00
6.058375E+03	1.343158E-15	0.000000E+00
6.068323E+03	1.334199E-15	0.000000E+00
6.078271E+03	1.325559E-15	0.000000E+00
6.088219E+03	1.317111E-15	0.000000E+00
6.098168E+03	1.308721E-15	0.000000E+00
6.108116E+03	1.300319E-15	0.000000E+00
6.118064E+03	1.291905E-15	0.000000E+00
6.128012E+03	1.283534E-15	0.000000E+00
6.137960E+03	1.275381E-15	0.000000E+00
6.147908E+03	1.267712E-15	0.000000E+00
6.157856E+03	1.260764E-15	0.000000E+00
6.167804E+03	1.254808E-15	0.000000E+00
6.177752E+03	1.250001E-15	0.000000E+00
6.187700E+03	1.246377E-15	0.000000E+00
6.197648E+03	1.243855E-15	0.000000E+00
6.207596E+03	1.242207E-15	0.000000E+00
6.217544E+03	1.241193E-15	0.000000E+00
6.227492E+03	1.240563E-15	0.000000E+00
6.237441E+03	1.240046E-15	0.000000E+00
6.247389E+03	1.239459E-15	0.000000E+00
6.257337E+03	1.238597E-15	0.000000E+00
6.267285E+03	1.237264E-15	0.000000E+00
6.277233E+03	1.235330E-15	0.000000E+00
6.287181E+03	1.232651E-15	0.000000E+00
6.297129E+03	1.229232E-15	0.000000E+00
6.307077E+03	1.225253E-15	0.000000E+00
6.317025E+03	1.221052E-15	0.000000E+00
6.326973E+03	1.217230E-15	0.000000E+00
6.336921E+03	1.214605E-15	0.000000E+00
6.346869E+03	1.214097E-15	0.000000E+00
6.356817E+03	1.216585E-15	0.000000E+00
6.366765E+03	1.222918E-15	0.000000E+00
6.376714E+03	1.233618E-15	0.000000E+00
6.386662E+03	1.248922E-15	0.000000E+00
6.396610E+03	1.268682E-15	0.000000E+00
6.406558E+03	1.292399E-15	0.000000E+00
6.416506E+03	1.319324E-15	0.000000E+00
6.426454E+03	1.348400E-15	0.000000E+00
6.436402E+03	1.378526E-15	0.000000E+00
6.446350E+03	1.408485E-15	0.000000E+00
6.456298E+03	1.437047E-15	0.000000E+00
6.466246E+03	1.463018E-15	0.000000E+00
6.476194E+03	1.485340E-15	0.000000E+00
6.486142E+03	1.503116E-15	0.000000E+00
6.496090E+03	1.515721E-15	0.000000E+00
6.506038E+03	1.522881E-15	0.000000E+00
6.515987E+03	1.524681E-15	0.000000E+00
6.525935E+03	1.521592E-15	0.000000E+00
6.535883E+03	1.514198E-15	0.000000E+00
6.545831E+03	1.503227E-15	0.000000E+00
6.555779E+03	1.489437E-15	0.000000E+00
6.565727E+03	1.473414E-15	0.000000E+00
6.575675E+03	1.455655E-15	0.000000E+00
6.585623E+03	1.436587E-15	0.000000E+00
6.595571E+03	1.416482E-15	0.000000E+00
6.605519E+03	1.395666E-15	0.000000E+00
6.615467E+03	1.374360E-15	0.000000E+00
6.625415E+03	1.352718E-15	0.000000E+00
6.635363E+03	1.330865E-15	0.000000E+00
6.645311E+03	1.308912E-15	0.000000E+00
6.655260E+03	1.286890E-15	0.000000E+00
6.665208E+03	1.264890E-15	0.000000E+00
6.675156E+03	1.242997E-15	0.000000E+00
6.685104E+03	1.221302E-15	0.000000E+00
6.695052E+03	1.199962E-15	0.000000E+00
6.705000E+03	1.179086E-15	0.000000E+00
6.714948E+03	1.158801E-15	0.000000E+00
6.724896E+03	1.139140E-15	0.000000E+00
6.734844E+03	1.120109E-15	0.000000E+00
6.744792E+03	1.101597E-15	0.000000E+00
6.754740E+03	1.083477E-15	0.000000E+00
6.764688E+03	1.065556E-15	0.000000E+00
6.774636E+03	1.047723E-15	0.000000E+00
6.784584E+03	1.029925E-15	0.000000E+00
6.794533E+03	1.012265E-15	0.000000E+00
6.804481E+03	9.950079E-16	0.000000E+00
6.814429E+03	9.784849E-16	0.000000E+00
6.824377E+03	9.631043E-16	0.000000E+00
6.834325E+03	9.492699E-16	0.000000E+00
6.844273E+03	9.373458E-16	0.000000E+00
6.854221E+03	9.275412E-16	0.000000E+00
6.864169E+03	9.199172E-16	0.000000E+00
6.874117E+03	9.144348E-16	0.000000E+00
6.884065E+03	9.108433E-16	0.000000E+00
6.894013E+03	9.088083E-16	0.000000E+00
6.903961E+03	9.079250E-16	0.000000E+00
6.913909E+03	9.078572E-16	0.000000E+00
6.923857E+03	9.082352E-16	0.000000E+00
6.933806E+03	9.088190E-16	0.000000E+00
6.943754E+03	9.094192E-16	0.000000E+00
6.953702E+03	9.098903E-16	0.000000E+00
6.963650E+03	9.101701E-16	0.000000E+00
6.973598E+03	9.102012E-16	0.000000E+00
6.983546E+03	9.099037E-16	0.000000E+00
6.993494E+03	9.092229E-16	0.000000E+00
7.003442E+03	9.080430E-16	0.000000E+00
7.013390E+03	9.062804E-16	0.000000E+00
7.023338E+03	9.038164E-16	0.000000E+00
7.033286E+03	9.005735E-16	0.000000E+00
7.043234E+03	8.964997E-16	0.000000E+00
7.053182E+03	8.915851E-16	0.000000E+00
7.063130E+03	8.857951E-16	0.000000E+00
7.073079E+03	8.791292E-16	0.000000E+00
7.083027E+03	8.716153E-16	0.000000E+00
7.092975E+03	8.633400E-16	0.000000E+00
7.102923E+03	8.543823E-16	0.000000E+00
7.112871E+03	8.449519E-16	0.000000E+00
7.122819E+03	8.352945E-16	0.000000E+00
7.132767E+03	8.257095E-16	0.000000E+00
7.142715E+03	8.164373E-16	0.000000E+00
7.152663E+03	8.077476E-16	0.000000E+00
7.162611E+03	7.998214E-16	0.000000E+00
7.172559E+03	7.928400E-16	0.000000E+00
7.182507E+03	7.868521E-16	0.000000E+00
7.192455E+03	7.819179E-16	0.000000E+00
7.202403E+03	7.780371E-16	0.000000E+00
7.212352E+03	7.751754E-16	0.000000E+00
7.222300E+03	7.732476E-16	0.000000E+00
7.232248E+03	7.721781E-16	0.000000E+00
7.242196E+03	7.718459E-16	0.000000E+00
7.252144E+03	7.720895E-16	0.000000E+00
7.262092E+03	7.727741E-16	0.000000E+00
7.272040E+03	7.737402E-16	0.000000E+00
7.281988E+03	7.748318E-16	0.000000E+00
7.291936E+03	7.758835E-16	0.000000E+00
7.301884E+03	7.767897E-16	0.000000E+00
7.311832E+03	7.774523E-16	0.000000E+00
7.321780E+03	7.778281E-16	0.000000E+00
7.331728E+03	7.778470E-16	0.000000E+00
7.341676E+03	7.775297E-16	0.000000E+00
7.351625E+03	7.769167E-16	0.000000E+00
7.361573E+03	7.759943E-16	0.000000E+00
7.371521E+03	7.748502E-16	0.000000E+00
7.381469E+03	7.734573E-16	0.000000E+00
7.391417E+03	7.718111E-16	0.000000E+00
7.401365E+03	7.699206E-16	0.000000E+00
7.411313E+03	7.676959E-16	0.000000E+00
7.421261E+03	7.650257E-16	0.000000E+00
7.431209E+03	7.617778E-16	0.000000E+00
7.441157E+03	7.577469E-16	0.000000E+00
7.451105E+03	7.527617E-16	0.000000E+00
7.461053E+03	7.466359E-16	0.000000E+00
7.471001E+03	7.392495E-16	0.000000E+00
7.480949E+03	7.306222E-16	0.000000E+00
7.490898E+03	7.208489E-16	0.000000E+00
7.500846E+03	7.101846E-16	0.000000E+00
7.510794E+03	6.989528E-16	0.000000E+00
7.520742E+03	6.875677E-16	0.000000E+00
7.530690E+03	6.765663E-16	0.000000E+00
7.540638E+03	6.664417E-16	0.000000E+00
7.550586E+03	6.577489E-16	0.000000E+00
7.560534E+03	6.509766E-16	0.000000E+00
7.570482E+03	6.465948E-16	0.000000E+00
7.580430E+03	6.449500E-16	0.000000E+00
7.590378E+03	6.463081E-16	0.000000E+00
7.600326E+03	6.507423E-16	0.000000E+00
7.610274E+03	6.581496E-16	0.000000E+00
7.620222E+03	6.682031E-16	0.000000E+00
7.630171E+03	6.803540E-16	0.000000E+00
7.640119E+03	6.938763E-16	0.000000E+00
7.650067E+03	7.079729E-16	0.000000E+00
7.660015E+03	7.217977E-16	0.000000E+00
7.669963E+03	7.346803E-16	0.000000E+00
7.679911E+03	7.461174E-16	0.000000E+00
7.689859E+03	7.558285E-16	0.000000E+00
7.699807E+03	7.637245E-16	0.000000E+00
7.709755E+03	7.699341E-16	0.000000E+00
7.719703E+03	7.746768E-16	0.000000E+00
