#wls	flux	fluxerr
1.591691E+03	4.192761E-15	0.000000E+00
1.631484E+03	4.413238E-15	0.000000E+00
1.671276E+03	4.631389E-15	0.000000E+00
1.711068E+03	4.845340E-15	0.000000E+00
1.750861E+03	5.052640E-15	0.000000E+00
1.790653E+03	5.248598E-15	0.000000E+00
1.830445E+03	5.426978E-15	0.000000E+00
1.870237E+03	5.580107E-15	0.000000E+00
1.910030E+03	5.699389E-15	0.000000E+00
1.949822E+03	5.777059E-15	0.000000E+00
1.989614E+03	5.810012E-15	0.000000E+00
2.029406E+03	5.805273E-15	0.000000E+00
2.069199E+03	5.783843E-15	0.000000E+00
2.108991E+03	5.783715E-15	0.000000E+00
2.148783E+03	5.855170E-15	0.000000E+00
2.188576E+03	6.022759E-15	0.000000E+00
2.228368E+03	6.267370E-15	0.000000E+00
2.268160E+03	6.537660E-15	0.000000E+00
2.307952E+03	6.807677E-15	0.000000E+00
2.347745E+03	7.072805E-15	0.000000E+00
2.387537E+03	7.329304E-15	0.000000E+00
2.427329E+03	7.575985E-15	0.000000E+00
2.467122E+03	7.813678E-15	0.000000E+00
2.506914E+03	8.042939E-15	0.000000E+00
2.546706E+03	8.259445E-15	0.000000E+00
2.586498E+03	8.445745E-15	0.000000E+00
2.626291E+03	8.570596E-15	0.000000E+00
2.666083E+03	8.635969E-15	0.000000E+00
2.705875E+03	8.666661E-15	0.000000E+00
2.745668E+03	8.676123E-15	0.000000E+00
2.785460E+03	8.670799E-15	0.000000E+00
2.825252E+03	8.654151E-15	0.000000E+00
2.865044E+03	8.628225E-15	0.000000E+00
2.904837E+03	8.594297E-15	0.000000E+00
2.944629E+03	8.553145E-15	0.000000E+00
2.984421E+03	8.505243E-15	0.000000E+00
2.994369E+03	8.492262E-15	0.000000E+00
3.004317E+03	8.478897E-15	0.000000E+00
3.014266E+03	8.465147E-15	0.000000E+00
3.024214E+03	8.451096E-15	0.000000E+00
3.034162E+03	8.437033E-15	0.000000E+00
3.044110E+03	8.423157E-15	0.000000E+00
3.054058E+03	8.409587E-15	0.000000E+00
3.064006E+03	8.396253E-15	0.000000E+00
3.073954E+03	8.383056E-15	0.000000E+00
3.083902E+03	8.369942E-15	0.000000E+00
3.093850E+03	8.356848E-15	0.000000E+00
3.103798E+03	8.343734E-15	0.000000E+00
3.113746E+03	8.330584E-15	0.000000E+00
3.123694E+03	8.317394E-15	0.000000E+00
3.133642E+03	8.304130E-15	0.000000E+00
3.143590E+03	8.290819E-15	0.000000E+00
3.153539E+03	8.277472E-15	0.000000E+00
3.163487E+03	8.264134E-15	0.000000E+00
3.173435E+03	8.250859E-15	0.000000E+00
3.183383E+03	8.237699E-15	0.000000E+00
3.193331E+03	8.224739E-15	0.000000E+00
3.203279E+03	8.212039E-15	0.000000E+00
3.213227E+03	8.199709E-15	0.000000E+00
3.223175E+03	8.187844E-15	0.000000E+00
3.233123E+03	8.176585E-15	0.000000E+00
3.243071E+03	8.166019E-15	0.000000E+00
3.253019E+03	8.156320E-15	0.000000E+00
3.262967E+03	8.147639E-15	0.000000E+00
3.272915E+03	8.140095E-15	0.000000E+00
3.282863E+03	8.133834E-15	0.000000E+00
3.292812E+03	8.129060E-15	0.000000E+00
3.302760E+03	8.125889E-15	0.000000E+00
3.312708E+03	8.124453E-15	0.000000E+00
3.322656E+03	8.124900E-15	0.000000E+00
3.332604E+03	8.127335E-15	0.000000E+00
3.342552E+03	8.131814E-15	0.000000E+00
3.352500E+03	8.138418E-15	0.000000E+00
3.362448E+03	8.147071E-15	0.000000E+00
3.372396E+03	8.157729E-15	0.000000E+00
3.382344E+03	8.170173E-15	0.000000E+00
3.392292E+03	8.184119E-15	0.000000E+00
3.402240E+03	8.199136E-15	0.000000E+00
3.412188E+03	8.214635E-15	0.000000E+00
3.422136E+03	8.229834E-15	0.000000E+00
3.432085E+03	8.243847E-15	0.000000E+00
3.442033E+03	8.255614E-15	0.000000E+00
3.451981E+03	8.264204E-15	0.000000E+00
3.461929E+03	8.269123E-15	0.000000E+00
3.471877E+03	8.270683E-15	0.000000E+00
3.481825E+03	8.269643E-15	0.000000E+00
3.491773E+03	8.266926E-15	0.000000E+00
3.501721E+03	8.263344E-15	0.000000E+00
3.511669E+03	8.259535E-15	0.000000E+00
3.521617E+03	8.256033E-15	0.000000E+00
3.531565E+03	8.253155E-15	0.000000E+00
3.541513E+03	8.251055E-15	0.000000E+00
3.551461E+03	8.249814E-15	0.000000E+00
3.561409E+03	8.249451E-15	0.000000E+00
3.571358E+03	8.249852E-15	0.000000E+00
3.581306E+03	8.250872E-15	0.000000E+00
3.591254E+03	8.252351E-15	0.000000E+00
3.601202E+03	8.254032E-15	0.000000E+00
3.611150E+03	8.255713E-15	0.000000E+00
3.621098E+03	8.257130E-15	0.000000E+00
3.631046E+03	8.258017E-15	0.000000E+00
3.640994E+03	8.258129E-15	0.000000E+00
3.650942E+03	8.257231E-15	0.000000E+00
3.660890E+03	8.255064E-15	0.000000E+00
3.670838E+03	8.251371E-15	0.000000E+00
3.680786E+03	8.245937E-15	0.000000E+00
3.690734E+03	8.238558E-15	0.000000E+00
3.700682E+03	8.229024E-15	0.000000E+00
3.710631E+03	8.217211E-15	0.000000E+00
3.720579E+03	8.202887E-15	0.000000E+00
3.730527E+03	8.185967E-15	0.000000E+00
3.740475E+03	8.166334E-15	0.000000E+00
3.750423E+03	8.143820E-15	0.000000E+00
3.760371E+03	8.118414E-15	0.000000E+00
3.770319E+03	8.090049E-15	0.000000E+00
3.780267E+03	8.058668E-15	0.000000E+00
3.790215E+03	8.024229E-15	0.000000E+00
3.800163E+03	7.986769E-15	0.000000E+00
3.810111E+03	7.946280E-15	0.000000E+00
3.820059E+03	7.902804E-15	0.000000E+00
3.830007E+03	7.856396E-15	0.000000E+00
3.839955E+03	7.807132E-15	0.000000E+00
3.849904E+03	7.755073E-15	0.000000E+00
3.859852E+03	7.700328E-15	0.000000E+00
3.869800E+03	7.643028E-15	0.000000E+00
3.879748E+03	7.583296E-15	0.000000E+00
3.889696E+03	7.521290E-15	0.000000E+00
3.899644E+03	7.457114E-15	0.000000E+00
3.909592E+03	7.390952E-15	0.000000E+00
3.919540E+03	7.323028E-15	0.000000E+00
3.929488E+03	7.253437E-15	0.000000E+00
3.939436E+03	7.182430E-15	0.000000E+00
3.949384E+03	7.110200E-15	0.000000E+00
3.959332E+03	7.036916E-15	0.000000E+00
3.969280E+03	6.962788E-15	0.000000E+00
3.979228E+03	6.888040E-15	0.000000E+00
3.989176E+03	6.812864E-15	0.000000E+00
3.999125E+03	6.737455E-15	0.000000E+00
4.009073E+03	6.662032E-15	0.000000E+00
4.019021E+03	6.586814E-15	0.000000E+00
4.028969E+03	6.511988E-15	0.000000E+00
4.038917E+03	6.437740E-15	0.000000E+00
4.048865E+03	6.364274E-15	0.000000E+00
4.058813E+03	6.291738E-15	0.000000E+00
4.068761E+03	6.220381E-15	0.000000E+00
4.078709E+03	6.150307E-15	0.000000E+00
4.088657E+03	6.081696E-15	0.000000E+00
4.098605E+03	6.014719E-15	0.000000E+00
4.108553E+03	5.949511E-15	0.000000E+00
4.118501E+03	5.886168E-15	0.000000E+00
4.128449E+03	5.824835E-15	0.000000E+00
4.138398E+03	5.765643E-15	0.000000E+00
4.148346E+03	5.708634E-15	0.000000E+00
4.158294E+03	5.653944E-15	0.000000E+00
4.168242E+03	5.601595E-15	0.000000E+00
4.178190E+03	5.551675E-15	0.000000E+00
4.188138E+03	5.504183E-15	0.000000E+00
4.198086E+03	5.459182E-15	0.000000E+00
4.208034E+03	5.416676E-15	0.000000E+00
4.217982E+03	5.376626E-15	0.000000E+00
4.227930E+03	5.339009E-15	0.000000E+00
4.237878E+03	5.303766E-15	0.000000E+00
4.247826E+03	5.270873E-15	0.000000E+00
4.257774E+03	5.240167E-15	0.000000E+00
4.267722E+03	5.211601E-15	0.000000E+00
4.277671E+03	5.184963E-15	0.000000E+00
4.287619E+03	5.160108E-15	0.000000E+00
4.297567E+03	5.136858E-15	0.000000E+00
4.307515E+03	5.115002E-15	0.000000E+00
4.317463E+03	5.094640E-15	0.000000E+00
4.327411E+03	5.075764E-15	0.000000E+00
4.337359E+03	5.058343E-15	0.000000E+00
4.347307E+03	5.042044E-15	0.000000E+00
4.357255E+03	5.026271E-15	0.000000E+00
4.367203E+03	5.010260E-15	0.000000E+00
4.377151E+03	4.993266E-15	0.000000E+00
4.387099E+03	4.974640E-15	0.000000E+00
4.397047E+03	4.953782E-15	0.000000E+00
4.406995E+03	4.930189E-15	0.000000E+00
4.416944E+03	4.903373E-15	0.000000E+00
4.426892E+03	4.872726E-15	0.000000E+00
4.436840E+03	4.837530E-15	0.000000E+00
4.446788E+03	4.796869E-15	0.000000E+00
4.456736E+03	4.749594E-15	0.000000E+00
4.466684E+03	4.694514E-15	0.000000E+00
4.476632E+03	4.630923E-15	0.000000E+00
4.486580E+03	4.559348E-15	0.000000E+00
4.496528E+03	4.482008E-15	0.000000E+00
4.506476E+03	4.402121E-15	0.000000E+00
4.516424E+03	4.322744E-15	0.000000E+00
4.526372E+03	4.246238E-15	0.000000E+00
4.536320E+03	4.174428E-15	0.000000E+00
4.546268E+03	4.108517E-15	0.000000E+00
4.556217E+03	4.049331E-15	0.000000E+00
4.566165E+03	3.997436E-15	0.000000E+00
4.576113E+03	3.952906E-15	0.000000E+00
4.586061E+03	3.915405E-15	0.000000E+00
4.596009E+03	3.884043E-15	0.000000E+00
4.605957E+03	3.857012E-15	0.000000E+00
4.615905E+03	3.831599E-15	0.000000E+00
4.625853E+03	3.804529E-15	0.000000E+00
4.635801E+03	3.772546E-15	0.000000E+00
4.645749E+03	3.732966E-15	0.000000E+00
4.655697E+03	3.684498E-15	0.000000E+00
4.665645E+03	3.628412E-15	0.000000E+00
4.675593E+03	3.568971E-15	0.000000E+00
4.685541E+03	3.512586E-15	0.000000E+00
4.695490E+03	3.466428E-15	0.000000E+00
4.705438E+03	3.437783E-15	0.000000E+00
4.715386E+03	3.433593E-15	0.000000E+00
4.725334E+03	3.460080E-15	0.000000E+00
4.735282E+03	3.522456E-15	0.000000E+00
4.745230E+03	3.624049E-15	0.000000E+00
4.755178E+03	3.764453E-15	0.000000E+00
4.765126E+03	3.937634E-15	0.000000E+00
4.775074E+03	4.131824E-15	0.000000E+00
4.785022E+03	4.330862E-15	0.000000E+00
4.794970E+03	4.515929E-15	0.000000E+00
4.804918E+03	4.668369E-15	0.000000E+00
4.814866E+03	4.774477E-15	0.000000E+00
4.824814E+03	4.829176E-15	0.000000E+00
4.834763E+03	4.835671E-15	0.000000E+00
4.844711E+03	4.802063E-15	0.000000E+00
4.854659E+03	4.738916E-15	0.000000E+00
4.864607E+03	4.657119E-15	0.000000E+00
4.874555E+03	4.566842E-15	0.000000E+00
4.884503E+03	4.476379E-15	0.000000E+00
4.894451E+03	4.391856E-15	0.000000E+00
4.904399E+03	4.316785E-15	0.000000E+00
4.914347E+03	4.251812E-15	0.000000E+00
4.924295E+03	4.195607E-15	0.000000E+00
4.934243E+03	4.145410E-15	0.000000E+00
4.944191E+03	4.098023E-15	0.000000E+00
4.954139E+03	4.050298E-15	0.000000E+00
4.964087E+03	4.000356E-15	0.000000E+00
4.974036E+03	3.948082E-15	0.000000E+00
4.983984E+03	3.894795E-15	0.000000E+00
4.993932E+03	3.842523E-15	0.000000E+00
5.003880E+03	3.793658E-15	0.000000E+00
5.013828E+03	3.750290E-15	0.000000E+00
5.023776E+03	3.713524E-15	0.000000E+00
5.033724E+03	3.683279E-15	0.000000E+00
5.043672E+03	3.658380E-15	0.000000E+00
5.053620E+03	3.636926E-15	0.000000E+00
5.063568E+03	3.616804E-15	0.000000E+00
5.073516E+03	3.595799E-15	0.000000E+00
5.083464E+03	3.572494E-15	0.000000E+00
5.093412E+03	3.546388E-15	0.000000E+00
5.103360E+03	3.517787E-15	0.000000E+00
5.113309E+03	3.487479E-15	0.000000E+00
5.123257E+03	3.456491E-15	0.000000E+00
5.133205E+03	3.425786E-15	0.000000E+00
5.143153E+03	3.396044E-15	0.000000E+00
5.153101E+03	3.367250E-15	0.000000E+00
5.163049E+03	3.339199E-15	0.000000E+00
5.172997E+03	3.311608E-15	0.000000E+00
5.182945E+03	3.284391E-15	0.000000E+00
5.192893E+03	3.257568E-15	0.000000E+00
5.202841E+03	3.231357E-15	0.000000E+00
5.212789E+03	3.206077E-15	0.000000E+00
5.222737E+03	3.181982E-15	0.000000E+00
5.232685E+03	3.159144E-15	0.000000E+00
5.242633E+03	3.137410E-15	0.000000E+00
5.252582E+03	3.116431E-15	0.000000E+00
5.262530E+03	3.096096E-15	0.000000E+00
5.272478E+03	3.076588E-15	0.000000E+00
5.282426E+03	3.058254E-15	0.000000E+00
5.292374E+03	3.041759E-15	0.000000E+00
5.302322E+03	3.027642E-15	0.000000E+00
5.312270E+03	3.016392E-15	0.000000E+00
5.322218E+03	3.008234E-15	0.000000E+00
5.332166E+03	3.002933E-15	0.000000E+00
5.342114E+03	2.999941E-15	0.000000E+00
5.352062E+03	2.998696E-15	0.000000E+00
5.362010E+03	2.998620E-15	0.000000E+00
5.371958E+03	2.999310E-15	0.000000E+00
5.381906E+03	3.000575E-15	0.000000E+00
5.391855E+03	3.002332E-15	0.000000E+00
5.401803E+03	3.004792E-15	0.000000E+00
5.411751E+03	3.007765E-15	0.000000E+00
5.421699E+03	3.011036E-15	0.000000E+00
5.431647E+03	3.014096E-15	0.000000E+00
5.441595E+03	3.015933E-15	0.000000E+00
5.451543E+03	3.014619E-15	0.000000E+00
5.461491E+03	3.007530E-15	0.000000E+00
5.471439E+03	2.993132E-15	0.000000E+00
5.481387E+03	2.973774E-15	0.000000E+00
5.491335E+03	2.951983E-15	0.000000E+00
5.501283E+03	2.929566E-15	0.000000E+00
5.511231E+03	2.907489E-15	0.000000E+00
5.521179E+03	2.886064E-15	0.000000E+00
5.531128E+03	2.865174E-15	0.000000E+00
5.541076E+03	2.844555E-15	0.000000E+00
5.551024E+03	2.823877E-15	0.000000E+00
5.560972E+03	2.803075E-15	0.000000E+00
5.570920E+03	2.782584E-15	0.000000E+00
5.580868E+03	2.762969E-15	0.000000E+00
5.590816E+03	2.744715E-15	0.000000E+00
5.600764E+03	2.728018E-15	0.000000E+00
5.610712E+03	2.712518E-15	0.000000E+00
5.620660E+03	2.697326E-15	0.000000E+00
5.630608E+03	2.680921E-15	0.000000E+00
5.640556E+03	2.661528E-15	0.000000E+00
5.650504E+03	2.637509E-15	0.000000E+00
5.660452E+03	2.608014E-15	0.000000E+00
5.670401E+03	2.573084E-15	0.000000E+00
5.680349E+03	2.534231E-15	0.000000E+00
5.690297E+03	2.494600E-15	0.000000E+00
5.700245E+03	2.458388E-15	0.000000E+00
5.710193E+03	2.430168E-15	0.000000E+00
5.720141E+03	2.414364E-15	0.000000E+00
5.730089E+03	2.414638E-15	0.000000E+00
5.740037E+03	2.432728E-15	0.000000E+00
5.749985E+03	2.468004E-15	0.000000E+00
5.759933E+03	2.517585E-15	0.000000E+00
5.769881E+03	2.576999E-15	0.000000E+00
5.779829E+03	2.640438E-15	0.000000E+00
5.789777E+03	2.701521E-15	0.000000E+00
5.799725E+03	2.754614E-15	0.000000E+00
5.809674E+03	2.795829E-15	0.000000E+00
5.819622E+03	2.823168E-15	0.000000E+00
5.829570E+03	2.836437E-15	0.000000E+00
5.839518E+03	2.836829E-15	0.000000E+00
5.849466E+03	2.826613E-15	0.000000E+00
5.859414E+03	2.808474E-15	0.000000E+00
5.869362E+03	2.785112E-15	0.000000E+00
5.879310E+03	2.759069E-15	0.000000E+00
5.889258E+03	2.732277E-15	0.000000E+00
5.899206E+03	2.705944E-15	0.000000E+00
5.909154E+03	2.680670E-15	0.000000E+00
5.919102E+03	2.656572E-15	0.000000E+00
5.929050E+03	2.633227E-15	0.000000E+00
5.938998E+03	2.610054E-15	0.000000E+00
5.948946E+03	2.586816E-15	0.000000E+00
5.958895E+03	2.563467E-15	0.000000E+00
5.968843E+03	2.540427E-15	0.000000E+00
5.978791E+03	2.518105E-15	0.000000E+00
5.988739E+03	2.496916E-15	0.000000E+00
5.998687E+03	2.477095E-15	0.000000E+00
6.008635E+03	2.458795E-15	0.000000E+00
6.018583E+03	2.441918E-15	0.000000E+00
6.028531E+03	2.426394E-15	0.000000E+00
6.038479E+03	2.411997E-15	0.000000E+00
6.048427E+03	2.398620E-15	0.000000E+00
6.058375E+03	2.386051E-15	0.000000E+00
6.068323E+03	2.374072E-15	0.000000E+00
6.078271E+03	2.362389E-15	0.000000E+00
6.088219E+03	2.350475E-15	0.000000E+00
6.098168E+03	2.337826E-15	0.000000E+00
6.108116E+03	2.323924E-15	0.000000E+00
6.118064E+03	2.308390E-15	0.000000E+00
6.128012E+03	2.291180E-15	0.000000E+00
6.137960E+03	2.272893E-15	0.000000E+00
6.147908E+03	2.254483E-15	0.000000E+00
6.157856E+03	2.237155E-15	0.000000E+00
6.167804E+03	2.222035E-15	0.000000E+00
6.177752E+03	2.210126E-15	0.000000E+00
6.187700E+03	2.201737E-15	0.000000E+00
6.197648E+03	2.196372E-15	0.000000E+00
6.207596E+03	2.193062E-15	0.000000E+00
6.217544E+03	2.190917E-15	0.000000E+00
6.227492E+03	2.189459E-15	0.000000E+00
6.237441E+03	2.188498E-15	0.000000E+00
6.247389E+03	2.187851E-15	0.000000E+00
6.257337E+03	2.187390E-15	0.000000E+00
6.267285E+03	2.186797E-15	0.000000E+00
6.277233E+03	2.185389E-15	0.000000E+00
6.287181E+03	2.182175E-15	0.000000E+00
6.297129E+03	2.176199E-15	0.000000E+00
6.307077E+03	2.167032E-15	0.000000E+00
6.317025E+03	2.154947E-15	0.000000E+00
6.326973E+03	2.141299E-15	0.000000E+00
6.336921E+03	2.128486E-15	0.000000E+00
6.346869E+03	2.119838E-15	0.000000E+00
6.356817E+03	2.119187E-15	0.000000E+00
6.366765E+03	2.129836E-15	0.000000E+00
6.376714E+03	2.154136E-15	0.000000E+00
6.386662E+03	2.193345E-15	0.000000E+00
6.396610E+03	2.247459E-15	0.000000E+00
6.406558E+03	2.315108E-15	0.000000E+00
6.416506E+03	2.393849E-15	0.000000E+00
6.426454E+03	2.480672E-15	0.000000E+00
6.436402E+03	2.572690E-15	0.000000E+00
6.446350E+03	2.666783E-15	0.000000E+00
6.456298E+03	2.759671E-15	0.000000E+00
6.466246E+03	2.847552E-15	0.000000E+00
6.476194E+03	2.926463E-15	0.000000E+00
6.486142E+03	2.992642E-15	0.000000E+00
6.496090E+03	3.042909E-15	0.000000E+00
6.506038E+03	3.075235E-15	0.000000E+00
6.515987E+03	3.089465E-15	0.000000E+00
6.525935E+03	3.087336E-15	0.000000E+00
6.535883E+03	3.071869E-15	0.000000E+00
6.545831E+03	3.046138E-15	0.000000E+00
6.555779E+03	3.012583E-15	0.000000E+00
6.565727E+03	2.972935E-15	0.000000E+00
6.575675E+03	2.928301E-15	0.000000E+00
6.585623E+03	2.879838E-15	0.000000E+00
6.595571E+03	2.828394E-15	0.000000E+00
6.605519E+03	2.774877E-15	0.000000E+00
6.615467E+03	2.720374E-15	0.000000E+00
6.625415E+03	2.665753E-15	0.000000E+00
6.635363E+03	2.611671E-15	0.000000E+00
6.645311E+03	2.558080E-15	0.000000E+00
6.655260E+03	2.504970E-15	0.000000E+00
6.665208E+03	2.452186E-15	0.000000E+00
6.675156E+03	2.399954E-15	0.000000E+00
6.685104E+03	2.348751E-15	0.000000E+00
6.695052E+03	2.299059E-15	0.000000E+00
6.705000E+03	2.251457E-15	0.000000E+00
6.714948E+03	2.206313E-15	0.000000E+00
6.724896E+03	2.163996E-15	0.000000E+00
6.734844E+03	2.124508E-15	0.000000E+00
6.744792E+03	2.087595E-15	0.000000E+00
6.754740E+03	2.052405E-15	0.000000E+00
6.764688E+03	2.017752E-15	0.000000E+00
6.774636E+03	1.982376E-15	0.000000E+00
6.784584E+03	1.945563E-15	0.000000E+00
6.794533E+03	1.907477E-15	0.000000E+00
6.804481E+03	1.868998E-15	0.000000E+00
6.814429E+03	1.831380E-15	0.000000E+00
6.824377E+03	1.796157E-15	0.000000E+00
6.834325E+03	1.764779E-15	0.000000E+00
6.844273E+03	1.738571E-15	0.000000E+00
6.854221E+03	1.718469E-15	0.000000E+00
6.864169E+03	1.704847E-15	0.000000E+00
6.874117E+03	1.697534E-15	0.000000E+00
6.884065E+03	1.695350E-15	0.000000E+00
6.894013E+03	1.696802E-15	0.000000E+00
6.903961E+03	1.700264E-15	0.000000E+00
6.913909E+03	1.704580E-15	0.000000E+00
6.923857E+03	1.708865E-15	0.000000E+00
6.933806E+03	1.712588E-15	0.000000E+00
6.943754E+03	1.715472E-15	0.000000E+00
6.953702E+03	1.717571E-15	0.000000E+00
6.963650E+03	1.718953E-15	0.000000E+00
6.973598E+03	1.719879E-15	0.000000E+00
6.983546E+03	1.720529E-15	0.000000E+00
6.993494E+03	1.720834E-15	0.000000E+00
7.003442E+03	1.720470E-15	0.000000E+00
7.013390E+03	1.718994E-15	0.000000E+00
7.023338E+03	1.716006E-15	0.000000E+00
7.033286E+03	1.711303E-15	0.000000E+00
7.043234E+03	1.704881E-15	0.000000E+00
7.053182E+03	1.696759E-15	0.000000E+00
7.063130E+03	1.686888E-15	0.000000E+00
7.073079E+03	1.675147E-15	0.000000E+00
7.083027E+03	1.661405E-15	0.000000E+00
7.092975E+03	1.645433E-15	0.000000E+00
7.102923E+03	1.627277E-15	0.000000E+00
7.112871E+03	1.607352E-15	0.000000E+00
7.122819E+03	1.586378E-15	0.000000E+00
7.132767E+03	1.565523E-15	0.000000E+00
7.142715E+03	1.545702E-15	0.000000E+00
7.152663E+03	1.527673E-15	0.000000E+00
7.162611E+03	1.511858E-15	0.000000E+00
7.172559E+03	1.498540E-15	0.000000E+00
7.182507E+03	1.487768E-15	0.000000E+00
7.192455E+03	1.479516E-15	0.000000E+00
7.202403E+03	1.473742E-15	0.000000E+00
7.212352E+03	1.470304E-15	0.000000E+00
7.222300E+03	1.469058E-15	0.000000E+00
7.232248E+03	1.469810E-15	0.000000E+00
7.242196E+03	1.472158E-15	0.000000E+00
7.252144E+03	1.475728E-15	0.000000E+00
7.262092E+03	1.480102E-15	0.000000E+00
7.272040E+03	1.484878E-15	0.000000E+00
7.281988E+03	1.489677E-15	0.000000E+00
7.291936E+03	1.494130E-15	0.000000E+00
7.301884E+03	1.497857E-15	0.000000E+00
7.311832E+03	1.500573E-15	0.000000E+00
7.321780E+03	1.502174E-15	0.000000E+00
7.331728E+03	1.502703E-15	0.000000E+00
7.341676E+03	1.502259E-15	0.000000E+00
7.351625E+03	1.501106E-15	0.000000E+00
7.361573E+03	1.499377E-15	0.000000E+00
7.371521E+03	1.497196E-15	0.000000E+00
7.381469E+03	1.494627E-15	0.000000E+00
7.391417E+03	1.491826E-15	0.000000E+00
7.401365E+03	1.488750E-15	0.000000E+00
7.411313E+03	1.485367E-15	0.000000E+00
7.421261E+03	1.481460E-15	0.000000E+00
7.431209E+03	1.476587E-15	0.000000E+00
7.441157E+03	1.470192E-15	0.000000E+00
7.451105E+03	1.461347E-15	0.000000E+00
7.461053E+03	1.449241E-15	0.000000E+00
7.471001E+03	1.433193E-15	0.000000E+00
7.480949E+03	1.412981E-15	0.000000E+00
7.490898E+03	1.388846E-15	0.000000E+00
7.500846E+03	1.361324E-15	0.000000E+00
7.510794E+03	1.331349E-15	0.000000E+00
7.520742E+03	1.300072E-15	0.000000E+00
7.530690E+03	1.268852E-15	0.000000E+00
7.540638E+03	1.239186E-15	0.000000E+00
7.550586E+03	1.212581E-15	0.000000E+00
7.560534E+03	1.190556E-15	0.000000E+00
7.570482E+03	1.174406E-15	0.000000E+00
7.580430E+03	1.165334E-15	0.000000E+00
7.590378E+03	1.164277E-15	0.000000E+00
7.600326E+03	1.172038E-15	0.000000E+00
7.610274E+03	1.188851E-15	0.000000E+00
7.620222E+03	1.214130E-15	0.000000E+00
7.630171E+03	1.246045E-15	0.000000E+00
7.640119E+03	1.281899E-15	0.000000E+00
7.650067E+03	1.318634E-15	0.000000E+00
7.660015E+03	1.353508E-15	0.000000E+00
7.669963E+03	1.384383E-15	0.000000E+00
7.679911E+03	1.409899E-15	0.000000E+00
7.689859E+03	1.429640E-15	0.000000E+00
7.699807E+03	1.444092E-15	0.000000E+00
7.709755E+03	1.454100E-15	0.000000E+00
7.719703E+03	1.460749E-15	0.000000E+00
