#wls	flux	fluxerr
1.591691E+03	3.793866E-15	0.000000E+00
1.631484E+03	3.974017E-15	0.000000E+00
1.671276E+03	4.149868E-15	0.000000E+00
1.711068E+03	4.319831E-15	0.000000E+00
1.750861E+03	4.481810E-15	0.000000E+00
1.790653E+03	4.631827E-15	0.000000E+00
1.830445E+03	4.764699E-15	0.000000E+00
1.870237E+03	4.874126E-15	0.000000E+00
1.910030E+03	4.953262E-15	0.000000E+00
1.949822E+03	4.996267E-15	0.000000E+00
1.989614E+03	5.001606E-15	0.000000E+00
2.029406E+03	4.976836E-15	0.000000E+00
2.069199E+03	4.941440E-15	0.000000E+00
2.108991E+03	4.927860E-15	0.000000E+00
2.148783E+03	4.979463E-15	0.000000E+00
2.188576E+03	5.117446E-15	0.000000E+00
2.228368E+03	5.327442E-15	0.000000E+00
2.268160E+03	5.568630E-15	0.000000E+00
2.307952E+03	5.817156E-15	0.000000E+00
2.347745E+03	6.067879E-15	0.000000E+00
2.387537E+03	6.316139E-15	0.000000E+00
2.427329E+03	6.559951E-15	0.000000E+00
2.467122E+03	6.799381E-15	0.000000E+00
2.506914E+03	7.034515E-15	0.000000E+00
2.546706E+03	7.262001E-15	0.000000E+00
2.586498E+03	7.468182E-15	0.000000E+00
2.626291E+03	7.623628E-15	0.000000E+00
2.666083E+03	7.729404E-15	0.000000E+00
2.705875E+03	7.807070E-15	0.000000E+00
2.745668E+03	7.866759E-15	0.000000E+00
2.785460E+03	7.913133E-15	0.000000E+00
2.825252E+03	7.948700E-15	0.000000E+00
2.865044E+03	7.974925E-15	0.000000E+00
2.904837E+03	7.992735E-15	0.000000E+00
2.944629E+03	8.002540E-15	0.000000E+00
2.984421E+03	8.004550E-15	0.000000E+00
2.994369E+03	8.003845E-15	0.000000E+00
3.004317E+03	8.002632E-15	0.000000E+00
3.014266E+03	8.000958E-15	0.000000E+00
3.024214E+03	7.998878E-15	0.000000E+00
3.034162E+03	7.996645E-15	0.000000E+00
3.044110E+03	7.994443E-15	0.000000E+00
3.054058E+03	7.992409E-15	0.000000E+00
3.064006E+03	7.990443E-15	0.000000E+00
3.073954E+03	7.988457E-15	0.000000E+00
3.083902E+03	7.986393E-15	0.000000E+00
3.093850E+03	7.984194E-15	0.000000E+00
3.103798E+03	7.981800E-15	0.000000E+00
3.113746E+03	7.979199E-15	0.000000E+00
3.123694E+03	7.976353E-15	0.000000E+00
3.133642E+03	7.973269E-15	0.000000E+00
3.143590E+03	7.969966E-15	0.000000E+00
3.153539E+03	7.966416E-15	0.000000E+00
3.163487E+03	7.962674E-15	0.000000E+00
3.173435E+03	7.958775E-15	0.000000E+00
3.183383E+03	7.954795E-15	0.000000E+00
3.193331E+03	7.950762E-15	0.000000E+00
3.203279E+03	7.946800E-15	0.000000E+00
3.213227E+03	7.942945E-15	0.000000E+00
3.223175E+03	7.939359E-15	0.000000E+00
3.233123E+03	7.936109E-15	0.000000E+00
3.243071E+03	7.933363E-15	0.000000E+00
3.253019E+03	7.931240E-15	0.000000E+00
3.262967E+03	7.929918E-15	0.000000E+00
3.272915E+03	7.929539E-15	0.000000E+00
3.282863E+03	7.930273E-15	0.000000E+00
3.292812E+03	7.932266E-15	0.000000E+00
3.302760E+03	7.935744E-15	0.000000E+00
3.312708E+03	7.940854E-15	0.000000E+00
3.322656E+03	7.947759E-15	0.000000E+00
3.332604E+03	7.956611E-15	0.000000E+00
3.342552E+03	7.967554E-15	0.000000E+00
3.352500E+03	7.980629E-15	0.000000E+00
3.362448E+03	7.995936E-15	0.000000E+00
3.372396E+03	8.013425E-15	0.000000E+00
3.382344E+03	8.033006E-15	0.000000E+00
3.392292E+03	8.054491E-15	0.000000E+00
3.402240E+03	8.077505E-15	0.000000E+00
3.412188E+03	8.101588E-15	0.000000E+00
3.422136E+03	8.126002E-15	0.000000E+00
3.432085E+03	8.149847E-15	0.000000E+00
3.442033E+03	8.171946E-15	0.000000E+00
3.451981E+03	8.191148E-15	0.000000E+00
3.461929E+03	8.206744E-15	0.000000E+00
3.471877E+03	8.219099E-15	0.000000E+00
3.481825E+03	8.229261E-15	0.000000E+00
3.491773E+03	8.238232E-15	0.000000E+00
3.501721E+03	8.246834E-15	0.000000E+00
3.511669E+03	8.255666E-15	0.000000E+00
3.521617E+03	8.265154E-15	0.000000E+00
3.531565E+03	8.275547E-15	0.000000E+00
3.541513E+03	8.286942E-15	0.000000E+00
3.551461E+03	8.299375E-15	0.000000E+00
3.561409E+03	8.312770E-15	0.000000E+00
3.571358E+03	8.326937E-15	0.000000E+00
3.581306E+03	8.341718E-15	0.000000E+00
3.591254E+03	8.356861E-15	0.000000E+00
3.601202E+03	8.372122E-15	0.000000E+00
3.611150E+03	8.387219E-15	0.000000E+00
3.621098E+03	8.401825E-15	0.000000E+00
3.631046E+03	8.415699E-15	0.000000E+00
3.640994E+03	8.428536E-15	0.000000E+00
3.650942E+03	8.440034E-15	0.000000E+00
3.660890E+03	8.449960E-15	0.000000E+00
3.670838E+03	8.458009E-15	0.000000E+00
3.680786E+03	8.463933E-15	0.000000E+00
3.690734E+03	8.467539E-15	0.000000E+00
3.700682E+03	8.468610E-15	0.000000E+00
3.710631E+03	8.466905E-15	0.000000E+00
3.720579E+03	8.462307E-15	0.000000E+00
3.730527E+03	8.454625E-15	0.000000E+00
3.740475E+03	8.443761E-15	0.000000E+00
3.750423E+03	8.429570E-15	0.000000E+00
3.760371E+03	8.411980E-15	0.000000E+00
3.770319E+03	8.390918E-15	0.000000E+00
3.780267E+03	8.366338E-15	0.000000E+00
3.790215E+03	8.338226E-15	0.000000E+00
3.800163E+03	8.306570E-15	0.000000E+00
3.810111E+03	8.271409E-15	0.000000E+00
3.820059E+03	8.232736E-15	0.000000E+00
3.830007E+03	8.190652E-15	0.000000E+00
3.839955E+03	8.145188E-15	0.000000E+00
3.849904E+03	8.096486E-15	0.000000E+00
3.859852E+03	8.044606E-15	0.000000E+00
3.869800E+03	7.989722E-15	0.000000E+00
3.879748E+03	7.931928E-15	0.000000E+00
3.889696E+03	7.871427E-15	0.000000E+00
3.899644E+03	7.808331E-15	0.000000E+00
3.909592E+03	7.742839E-15	0.000000E+00
3.919540E+03	7.675194E-15	0.000000E+00
3.929488E+03	7.605532E-15	0.000000E+00
3.939436E+03	7.534091E-15	0.000000E+00
3.949384E+03	7.461056E-15	0.000000E+00
3.959332E+03	7.386666E-15	0.000000E+00
3.969280E+03	7.311162E-15	0.000000E+00
3.979228E+03	7.234785E-15	0.000000E+00
3.989176E+03	7.157715E-15	0.000000E+00
3.999125E+03	7.080194E-15	0.000000E+00
4.009073E+03	7.002473E-15	0.000000E+00
4.019021E+03	6.924796E-15	0.000000E+00
4.028969E+03	6.847355E-15	0.000000E+00
4.038917E+03	6.770369E-15	0.000000E+00
4.048865E+03	6.694062E-15	0.000000E+00
4.058813E+03	6.618657E-15	0.000000E+00
4.068761E+03	6.544341E-15	0.000000E+00
4.078709E+03	6.471293E-15	0.000000E+00
4.088657E+03	6.399711E-15	0.000000E+00
4.098605E+03	6.329757E-15	0.000000E+00
4.108553E+03	6.261610E-15	0.000000E+00
4.118501E+03	6.195440E-15	0.000000E+00
4.128449E+03	6.131319E-15	0.000000E+00
4.138398E+03	6.069422E-15	0.000000E+00
4.148346E+03	6.009885E-15	0.000000E+00
4.158294E+03	5.952745E-15	0.000000E+00
4.168242E+03	5.898114E-15	0.000000E+00
4.178190E+03	5.846061E-15	0.000000E+00
4.188138E+03	5.796644E-15	0.000000E+00
4.198086E+03	5.749880E-15	0.000000E+00
4.208034E+03	5.705770E-15	0.000000E+00
4.217982E+03	5.664361E-15	0.000000E+00
4.227930E+03	5.625599E-15	0.000000E+00
4.237878E+03	5.589446E-15	0.000000E+00
4.247826E+03	5.555819E-15	0.000000E+00
4.257774E+03	5.524623E-15	0.000000E+00
4.267722E+03	5.495772E-15	0.000000E+00
4.277671E+03	5.469115E-15	0.000000E+00
4.287619E+03	5.444513E-15	0.000000E+00
4.297567E+03	5.421847E-15	0.000000E+00
4.307515E+03	5.400998E-15	0.000000E+00
4.317463E+03	5.381932E-15	0.000000E+00
4.327411E+03	5.364615E-15	0.000000E+00
4.337359E+03	5.349030E-15	0.000000E+00
4.347307E+03	5.334759E-15	0.000000E+00
4.357255E+03	5.321093E-15	0.000000E+00
4.367203E+03	5.307055E-15	0.000000E+00
4.377151E+03	5.291828E-15	0.000000E+00
4.387099E+03	5.274737E-15	0.000000E+00
4.397047E+03	5.255249E-15	0.000000E+00
4.406995E+03	5.232976E-15	0.000000E+00
4.416944E+03	5.207482E-15	0.000000E+00
4.426892E+03	5.178361E-15	0.000000E+00
4.436840E+03	5.145014E-15	0.000000E+00
4.446788E+03	5.106472E-15	0.000000E+00
4.456736E+03	5.061522E-15	0.000000E+00
4.466684E+03	5.008534E-15	0.000000E+00
4.476632E+03	4.946060E-15	0.000000E+00
4.486580E+03	4.874209E-15	0.000000E+00
4.496528E+03	4.795771E-15	0.000000E+00
4.506476E+03	4.714685E-15	0.000000E+00
4.516424E+03	4.634449E-15	0.000000E+00
4.526372E+03	4.557494E-15	0.000000E+00
4.536320E+03	4.485396E-15	0.000000E+00
4.546268E+03	4.419281E-15	0.000000E+00
4.556217E+03	4.359860E-15	0.000000E+00
4.566165E+03	4.307635E-15	0.000000E+00
4.576113E+03	4.262873E-15	0.000000E+00
4.586061E+03	4.225205E-15	0.000000E+00
4.596009E+03	4.193853E-15	0.000000E+00
4.605957E+03	4.167096E-15	0.000000E+00
4.615905E+03	4.141714E-15	0.000000E+00
4.625853E+03	4.113644E-15	0.000000E+00
4.635801E+03	4.079015E-15	0.000000E+00
4.645749E+03	4.034278E-15	0.000000E+00
4.655697E+03	3.977334E-15	0.000000E+00
4.665645E+03	3.909311E-15	0.000000E+00
4.675593E+03	3.835730E-15	0.000000E+00
4.685541E+03	3.764645E-15	0.000000E+00
4.695490E+03	3.704694E-15	0.000000E+00
4.705438E+03	3.664353E-15	0.000000E+00
4.715386E+03	3.651805E-15	0.000000E+00
4.725334E+03	3.674368E-15	0.000000E+00
4.735282E+03	3.738511E-15	0.000000E+00
4.745230E+03	3.849267E-15	0.000000E+00
4.755178E+03	4.007459E-15	0.000000E+00
4.765126E+03	4.206065E-15	0.000000E+00
4.775074E+03	4.430916E-15	0.000000E+00
4.785022E+03	4.662789E-15	0.000000E+00
4.794970E+03	4.879160E-15	0.000000E+00
4.804918E+03	5.056486E-15	0.000000E+00
4.814866E+03	5.177119E-15	0.000000E+00
4.824814E+03	5.236145E-15	0.000000E+00
4.834763E+03	5.238952E-15	0.000000E+00
4.844711E+03	5.195998E-15	0.000000E+00
4.854659E+03	5.119674E-15	0.000000E+00
4.864607E+03	5.022922E-15	0.000000E+00
4.874555E+03	4.917481E-15	0.000000E+00
4.884503E+03	4.812914E-15	0.000000E+00
4.894451E+03	4.716410E-15	0.000000E+00
4.904399E+03	4.632211E-15	0.000000E+00
4.914347E+03	4.560708E-15	0.000000E+00
4.924295E+03	4.499868E-15	0.000000E+00
4.934243E+03	4.446291E-15	0.000000E+00
4.944191E+03	4.395850E-15	0.000000E+00
4.954139E+03	4.344352E-15	0.000000E+00
4.964087E+03	4.289224E-15	0.000000E+00
4.974036E+03	4.230557E-15	0.000000E+00
4.983984E+03	4.170192E-15	0.000000E+00
4.993932E+03	4.110769E-15	0.000000E+00
5.003880E+03	4.055263E-15	0.000000E+00
5.013828E+03	4.006543E-15	0.000000E+00
5.023776E+03	3.966244E-15	0.000000E+00
5.033724E+03	3.934177E-15	0.000000E+00
5.043672E+03	3.908828E-15	0.000000E+00
5.053620E+03	3.888060E-15	0.000000E+00
5.063568E+03	3.869271E-15	0.000000E+00
5.073516E+03	3.849737E-15	0.000000E+00
5.083464E+03	3.827477E-15	0.000000E+00
5.093412E+03	3.802089E-15	0.000000E+00
5.103360E+03	3.773993E-15	0.000000E+00
5.113309E+03	3.744055E-15	0.000000E+00
5.123257E+03	3.713378E-15	0.000000E+00
5.133205E+03	3.683154E-15	0.000000E+00
5.143153E+03	3.654097E-15	0.000000E+00
5.153101E+03	3.625981E-15	0.000000E+00
5.163049E+03	3.598327E-15	0.000000E+00
5.172997E+03	3.570733E-15	0.000000E+00
5.182945E+03	3.543087E-15	0.000000E+00
5.192893E+03	3.515502E-15	0.000000E+00
5.202841E+03	3.488335E-15	0.000000E+00
5.212789E+03	3.462008E-15	0.000000E+00
5.222737E+03	3.436961E-15	0.000000E+00
5.232685E+03	3.413353E-15	0.000000E+00
5.242633E+03	3.390711E-15	0.000000E+00
5.252582E+03	3.368559E-15	0.000000E+00
5.262530E+03	3.346451E-15	0.000000E+00
5.272478E+03	3.324565E-15	0.000000E+00
5.282426E+03	3.303421E-15	0.000000E+00
5.292374E+03	3.283658E-15	0.000000E+00
5.302322E+03	3.266093E-15	0.000000E+00
5.312270E+03	3.251322E-15	0.000000E+00
5.322218E+03	3.239778E-15	0.000000E+00
5.332166E+03	3.231090E-15	0.000000E+00
5.342114E+03	3.224563E-15	0.000000E+00
5.352062E+03	3.219507E-15	0.000000E+00
5.362010E+03	3.215379E-15	0.000000E+00
5.371958E+03	3.211685E-15	0.000000E+00
5.381906E+03	3.208163E-15	0.000000E+00
5.391855E+03	3.204674E-15	0.000000E+00
5.401803E+03	3.201293E-15	0.000000E+00
5.411751E+03	3.198049E-15	0.000000E+00
5.421699E+03	3.195217E-15	0.000000E+00
5.431647E+03	3.192726E-15	0.000000E+00
5.441595E+03	3.189856E-15	0.000000E+00
5.451543E+03	3.184882E-15	0.000000E+00
5.461491E+03	3.175591E-15	0.000000E+00
5.471439E+03	3.160973E-15	0.000000E+00
5.481387E+03	3.142541E-15	0.000000E+00
5.491335E+03	3.122380E-15	0.000000E+00
5.501283E+03	3.102100E-15	0.000000E+00
5.511231E+03	3.082398E-15	0.000000E+00
5.521179E+03	3.063381E-15	0.000000E+00
5.531128E+03	3.044849E-15	0.000000E+00
5.541076E+03	3.026316E-15	0.000000E+00
5.551024E+03	3.007211E-15	0.000000E+00
5.560972E+03	2.987466E-15	0.000000E+00
5.570920E+03	2.967633E-15	0.000000E+00
5.580868E+03	2.948696E-15	0.000000E+00
5.590816E+03	2.931327E-15	0.000000E+00
5.600764E+03	2.915840E-15	0.000000E+00
5.610712E+03	2.901984E-15	0.000000E+00
5.620660E+03	2.888759E-15	0.000000E+00
5.630608E+03	2.874320E-15	0.000000E+00
5.640556E+03	2.856260E-15	0.000000E+00
5.650504E+03	2.832584E-15	0.000000E+00
5.660452E+03	2.802003E-15	0.000000E+00
5.670401E+03	2.764224E-15	0.000000E+00
5.680349E+03	2.720709E-15	0.000000E+00
5.690297E+03	2.675240E-15	0.000000E+00
5.700245E+03	2.632949E-15	0.000000E+00
5.710193E+03	2.599224E-15	0.000000E+00
5.720141E+03	2.579518E-15	0.000000E+00
5.730089E+03	2.578569E-15	0.000000E+00
5.740037E+03	2.598941E-15	0.000000E+00
5.749985E+03	2.639555E-15	0.000000E+00
5.759933E+03	2.696853E-15	0.000000E+00
5.769881E+03	2.765646E-15	0.000000E+00
5.779829E+03	2.838979E-15	0.000000E+00
5.789777E+03	2.908987E-15	0.000000E+00
5.799725E+03	2.968876E-15	0.000000E+00
5.809674E+03	3.014465E-15	0.000000E+00
5.819622E+03	3.043905E-15	0.000000E+00
5.829570E+03	3.057123E-15	0.000000E+00
5.839518E+03	3.055907E-15	0.000000E+00
5.849466E+03	3.043124E-15	0.000000E+00
5.859414E+03	3.022012E-15	0.000000E+00
5.869362E+03	2.995686E-15	0.000000E+00
5.879310E+03	2.967099E-15	0.000000E+00
5.889258E+03	2.938441E-15	0.000000E+00
5.899206E+03	2.910977E-15	0.000000E+00
5.909154E+03	2.885251E-15	0.000000E+00
5.919102E+03	2.861151E-15	0.000000E+00
5.929050E+03	2.838057E-15	0.000000E+00
5.938998E+03	2.815056E-15	0.000000E+00
5.948946E+03	2.791556E-15	0.000000E+00
5.958895E+03	2.767669E-15	0.000000E+00
5.968843E+03	2.743961E-15	0.000000E+00
5.978791E+03	2.720994E-15	0.000000E+00
5.988739E+03	2.699239E-15	0.000000E+00
5.998687E+03	2.679030E-15	0.000000E+00
6.008635E+03	2.660558E-15	0.000000E+00
6.018583E+03	2.643655E-15	0.000000E+00
6.028531E+03	2.628181E-15	0.000000E+00
6.038479E+03	2.613892E-15	0.000000E+00
6.048427E+03	2.600576E-15	0.000000E+00
6.058375E+03	2.588113E-15	0.000000E+00
6.068323E+03	2.576253E-15	0.000000E+00
6.078271E+03	2.564625E-15	0.000000E+00
6.088219E+03	2.552631E-15	0.000000E+00
6.098168E+03	2.539676E-15	0.000000E+00
6.108116E+03	2.525008E-15	0.000000E+00
6.118064E+03	2.507973E-15	0.000000E+00
6.128012E+03	2.488414E-15	0.000000E+00
6.137960E+03	2.467070E-15	0.000000E+00
6.147908E+03	2.445186E-15	0.000000E+00
6.157856E+03	2.424186E-15	0.000000E+00
6.167804E+03	2.405580E-15	0.000000E+00
6.177752E+03	2.390709E-15	0.000000E+00
6.187700E+03	2.380110E-15	0.000000E+00
6.197648E+03	2.373030E-15	0.000000E+00
6.207596E+03	2.368134E-15	0.000000E+00
6.217544E+03	2.364319E-15	0.000000E+00
6.227492E+03	2.361202E-15	0.000000E+00
6.237441E+03	2.358804E-15	0.000000E+00
6.247389E+03	2.357150E-15	0.000000E+00
6.257337E+03	2.356275E-15	0.000000E+00
6.267285E+03	2.355785E-15	0.000000E+00
6.277233E+03	2.354859E-15	0.000000E+00
6.287181E+03	2.352161E-15	0.000000E+00
6.297129E+03	2.346182E-15	0.000000E+00
6.307077E+03	2.335938E-15	0.000000E+00
6.317025E+03	2.321653E-15	0.000000E+00
6.326973E+03	2.304719E-15	0.000000E+00
6.336921E+03	2.287785E-15	0.000000E+00
6.346869E+03	2.275195E-15	0.000000E+00
6.356817E+03	2.271781E-15	0.000000E+00
6.366765E+03	2.281952E-15	0.000000E+00
6.376714E+03	2.308626E-15	0.000000E+00
6.386662E+03	2.353434E-15	0.000000E+00
6.396610E+03	2.416763E-15	0.000000E+00
6.406558E+03	2.497033E-15	0.000000E+00
6.416506E+03	2.591111E-15	0.000000E+00
6.426454E+03	2.695489E-15	0.000000E+00
6.436402E+03	2.806895E-15	0.000000E+00
6.446350E+03	2.922096E-15	0.000000E+00
6.456298E+03	3.037105E-15	0.000000E+00
6.466246E+03	3.147276E-15	0.000000E+00
6.476194E+03	3.247574E-15	0.000000E+00
6.486142E+03	3.332872E-15	0.000000E+00
6.496090E+03	3.398793E-15	0.000000E+00
6.506038E+03	3.442224E-15	0.000000E+00
6.515987E+03	3.462466E-15	0.000000E+00
6.525935E+03	3.461821E-15	0.000000E+00
6.535883E+03	3.444477E-15	0.000000E+00
6.545831E+03	3.414748E-15	0.000000E+00
6.555779E+03	3.375331E-15	0.000000E+00
6.565727E+03	3.328245E-15	0.000000E+00
6.575675E+03	3.275070E-15	0.000000E+00
6.585623E+03	3.216932E-15	0.000000E+00
6.595571E+03	3.155002E-15	0.000000E+00
6.605519E+03	3.090546E-15	0.000000E+00
6.615467E+03	3.025085E-15	0.000000E+00
6.625415E+03	2.959871E-15	0.000000E+00
6.635363E+03	2.895764E-15	0.000000E+00
6.645311E+03	2.832786E-15	0.000000E+00
6.655260E+03	2.770503E-15	0.000000E+00
6.665208E+03	2.708776E-15	0.000000E+00
6.675156E+03	2.647911E-15	0.000000E+00
6.685104E+03	2.588489E-15	0.000000E+00
6.695052E+03	2.531093E-15	0.000000E+00
6.705000E+03	2.476377E-15	0.000000E+00
6.714948E+03	2.424941E-15	0.000000E+00
6.724896E+03	2.377080E-15	0.000000E+00
6.734844E+03	2.332879E-15	0.000000E+00
6.744792E+03	2.292069E-15	0.000000E+00
6.754740E+03	2.253783E-15	0.000000E+00
6.764688E+03	2.216256E-15	0.000000E+00
6.774636E+03	2.177545E-15	0.000000E+00
6.784584E+03	2.136646E-15	0.000000E+00
6.794533E+03	2.093755E-15	0.000000E+00
6.804481E+03	2.050136E-15	0.000000E+00
6.814429E+03	2.007305E-15	0.000000E+00
6.824377E+03	1.967142E-15	0.000000E+00
6.834325E+03	1.931449E-15	0.000000E+00
6.844273E+03	1.901842E-15	0.000000E+00
6.854221E+03	1.879489E-15	0.000000E+00
6.864169E+03	1.864984E-15	0.000000E+00
6.874117E+03	1.858199E-15	0.000000E+00
6.884065E+03	1.857540E-15	0.000000E+00
6.894013E+03	1.860920E-15	0.000000E+00
6.903961E+03	1.866284E-15	0.000000E+00
6.913909E+03	1.872204E-15	0.000000E+00
6.923857E+03	1.877748E-15	0.000000E+00
6.933806E+03	1.882384E-15	0.000000E+00
6.943754E+03	1.885829E-15	0.000000E+00
6.953702E+03	1.888176E-15	0.000000E+00
6.963650E+03	1.889628E-15	0.000000E+00
6.973598E+03	1.890604E-15	0.000000E+00
6.983546E+03	1.891458E-15	0.000000E+00
6.993494E+03	1.892243E-15	0.000000E+00
7.003442E+03	1.892478E-15	0.000000E+00
7.013390E+03	1.891451E-15	0.000000E+00
7.023338E+03	1.888651E-15	0.000000E+00
7.033286E+03	1.883894E-15	0.000000E+00
7.043234E+03	1.877313E-15	0.000000E+00
7.053182E+03	1.868895E-15	0.000000E+00
7.063130E+03	1.858606E-15	0.000000E+00
7.073079E+03	1.846311E-15	0.000000E+00
7.083027E+03	1.831684E-15	0.000000E+00
7.092975E+03	1.814507E-15	0.000000E+00
7.102923E+03	1.794545E-15	0.000000E+00
7.112871E+03	1.772194E-15	0.000000E+00
7.122819E+03	1.748503E-15	0.000000E+00
7.132767E+03	1.724948E-15	0.000000E+00
7.142715E+03	1.702783E-15	0.000000E+00
7.152663E+03	1.682798E-15	0.000000E+00
7.162611E+03	1.665474E-15	0.000000E+00
7.172559E+03	1.651100E-15	0.000000E+00
7.182507E+03	1.639689E-15	0.000000E+00
7.192455E+03	1.631161E-15	0.000000E+00
7.202403E+03	1.625436E-15	0.000000E+00
7.212352E+03	1.622322E-15	0.000000E+00
7.222300E+03	1.621713E-15	0.000000E+00
7.232248E+03	1.623361E-15	0.000000E+00
7.242196E+03	1.626855E-15	0.000000E+00
7.252144E+03	1.631693E-15	0.000000E+00
7.262092E+03	1.637338E-15	0.000000E+00
7.272040E+03	1.643377E-15	0.000000E+00
7.281988E+03	1.649353E-15	0.000000E+00
7.291936E+03	1.654855E-15	0.000000E+00
7.301884E+03	1.659509E-15	0.000000E+00
7.311832E+03	1.662908E-15	0.000000E+00
7.321780E+03	1.664874E-15	0.000000E+00
7.331728E+03	1.665472E-15	0.000000E+00
7.341676E+03	1.665015E-15	0.000000E+00
7.351625E+03	1.663773E-15	0.000000E+00
7.361573E+03	1.661903E-15	0.000000E+00
7.371521E+03	1.659500E-15	0.000000E+00
7.381469E+03	1.656755E-15	0.000000E+00
7.391417E+03	1.653701E-15	0.000000E+00
7.401365E+03	1.650410E-15	0.000000E+00
7.411313E+03	1.646878E-15	0.000000E+00
7.421261E+03	1.642834E-15	0.000000E+00
7.431209E+03	1.637851E-15	0.000000E+00
7.441157E+03	1.631197E-15	0.000000E+00
7.451105E+03	1.621843E-15	0.000000E+00
7.461053E+03	1.608483E-15	0.000000E+00
7.471001E+03	1.590270E-15	0.000000E+00
7.480949E+03	1.567021E-15	0.000000E+00
7.490898E+03	1.538905E-15	0.000000E+00
7.500846E+03	1.506612E-15	0.000000E+00
7.510794E+03	1.471198E-15	0.000000E+00
7.520742E+03	1.434005E-15	0.000000E+00
7.530690E+03	1.396675E-15	0.000000E+00
7.540638E+03	1.360900E-15	0.000000E+00
7.550586E+03	1.328628E-15	0.000000E+00
7.560534E+03	1.301522E-15	0.000000E+00
7.570482E+03	1.281203E-15	0.000000E+00
7.580430E+03	1.269005E-15	0.000000E+00
7.590378E+03	1.266220E-15	0.000000E+00
7.600326E+03	1.273838E-15	0.000000E+00
7.610274E+03	1.292467E-15	0.000000E+00
7.620222E+03	1.321649E-15	0.000000E+00
7.630171E+03	1.359083E-15	0.000000E+00
7.640119E+03	1.401172E-15	0.000000E+00
7.650067E+03	1.444105E-15	0.000000E+00
7.660015E+03	1.484571E-15	0.000000E+00
7.669963E+03	1.520032E-15	0.000000E+00
7.679911E+03	1.548683E-15	0.000000E+00
7.689859E+03	1.570360E-15	0.000000E+00
7.699807E+03	1.585738E-15	0.000000E+00
7.709755E+03	1.596042E-15	0.000000E+00
7.719703E+03	1.602559E-15	0.000000E+00
