#wls	flux	fluxerr
1.591691E+03	1.068948E-16	2.032895E-17
1.631484E+03	1.026000E-16	1.937928E-17
1.671276E+03	9.809973E-17	1.839874E-17
1.711068E+03	9.345735E-17	1.740034E-17
1.750861E+03	8.871721E-17	1.639332E-17
1.790653E+03	8.390003E-17	1.538235E-17
1.830445E+03	7.901760E-17	1.437040E-17
1.870237E+03	7.408363E-17	1.336072E-17
1.910030E+03	6.911646E-17	1.235736E-17
1.949822E+03	6.417056E-17	1.137068E-17
1.989614E+03	5.935969E-17	1.042110E-17
2.029406E+03	5.490242E-17	9.546503E-18
2.069199E+03	5.112464E-17	8.801740E-18
2.108991E+03	4.839328E-17	8.246279E-18
2.148783E+03	4.698775E-17	7.922016E-18
2.188576E+03	4.701909E-17	7.840449E-18
2.228368E+03	4.845371E-17	7.988048E-18
2.268160E+03	5.118498E-17	8.339267E-18
2.307952E+03	5.506449E-17	8.862303E-18
2.347745E+03	5.991962E-17	9.522354E-18
2.387537E+03	6.564028E-17	1.029554E-17
2.427329E+03	7.217575E-17	1.116783E-17
2.467122E+03	7.954495E-17	1.213601E-17
2.506914E+03	8.781030E-17	1.320300E-17
2.546706E+03	9.712657E-17	1.438461E-17
2.586498E+03	1.077442E-16	1.570891E-17
2.626291E+03	1.199901E-16	1.721228E-17
2.666083E+03	1.340863E-16	1.891284E-17
2.705875E+03	1.501216E-16	2.080756E-17
2.745668E+03	1.681630E-16	2.288912E-17
2.785460E+03	1.883356E-16	2.515668E-17
2.825252E+03	2.108183E-16	2.761466E-17
2.865044E+03	2.358520E-16	3.027300E-17
2.904837E+03	2.637034E-16	3.314169E-17
2.944629E+03	2.946712E-16	3.623116E-17
2.984421E+03	3.290354E-16	3.954558E-17
2.994369E+03	3.381801E-16	4.040828E-17
3.004317E+03	3.475526E-16	4.128431E-17
3.014266E+03	3.571629E-16	4.217429E-17
3.024214E+03	3.670077E-16	4.307727E-17
3.034162E+03	3.771016E-16	4.399436E-17
3.044110E+03	3.874542E-16	4.492610E-17
3.054058E+03	3.980745E-16	4.587286E-17
3.064006E+03	4.089686E-16	4.683471E-17
3.073954E+03	4.201249E-16	4.780966E-17
3.083902E+03	4.315399E-16	4.879667E-17
3.093850E+03	4.432100E-16	4.979467E-17
3.103798E+03	4.551307E-16	5.080255E-17
3.113746E+03	4.672973E-16	5.181914E-17
3.123694E+03	4.797044E-16	5.284323E-17
3.133642E+03	4.923364E-16	5.387249E-17
3.143590E+03	5.051963E-16	5.490668E-17
3.153539E+03	5.182678E-16	5.594344E-17
3.163487E+03	5.315523E-16	5.698238E-17
3.173435E+03	5.450228E-16	5.802004E-17
3.183383E+03	5.586797E-16	5.905598E-17
3.193331E+03	5.725041E-16	6.008772E-17
3.203279E+03	5.864977E-16	6.111496E-17
3.213227E+03	6.006292E-16	6.213402E-17
3.223175E+03	6.149011E-16	6.314474E-17
3.233123E+03	6.293044E-16	6.414581E-17
3.243071E+03	6.438090E-16	6.513381E-17
3.253019E+03	6.584187E-16	6.610882E-17
3.262967E+03	6.731168E-16	6.706884E-17
3.272915E+03	6.878900E-16	6.801228E-17
3.282863E+03	7.027589E-16	6.894094E-17
3.292812E+03	7.176821E-16	6.985047E-17
3.302760E+03	7.327024E-16	7.074482E-17
3.312708E+03	7.477991E-16	7.162172E-17
3.322656E+03	7.630059E-16	7.248412E-17
3.332604E+03	7.783441E-16	7.333371E-17
3.342552E+03	7.938443E-16	7.417300E-17
3.352500E+03	8.095659E-16	7.500702E-17
3.362448E+03	8.255851E-16	7.584223E-17
3.372396E+03	8.419758E-16	7.668459E-17
3.382344E+03	8.588738E-16	7.754543E-17
3.392292E+03	8.764095E-16	7.843517E-17
3.402240E+03	8.947843E-16	7.937011E-17
3.412188E+03	9.142143E-16	8.036719E-17
3.422136E+03	9.349543E-16	8.144606E-17
3.432085E+03	9.573063E-16	8.262960E-17
3.442033E+03	9.815745E-16	8.393990E-17
3.451981E+03	1.008053E-15	8.539723E-17
3.461929E+03	1.036958E-15	8.701441E-17
3.471877E+03	1.068374E-15	8.879249E-17
3.481825E+03	1.102284E-15	9.072396E-17
3.491773E+03	1.138581E-15	9.279401E-17
3.501721E+03	1.177145E-15	9.498722E-17
3.511669E+03	1.217814E-15	9.728495E-17
3.521617E+03	1.260417E-15	9.966863E-17
3.531565E+03	1.304816E-15	1.021227E-16
3.541513E+03	1.350866E-15	1.046314E-16
3.551461E+03	1.398392E-15	1.071774E-16
3.561409E+03	1.447273E-15	1.097479E-16
3.571358E+03	1.497378E-15	1.123297E-16
3.581306E+03	1.548559E-15	1.149088E-16
3.591254E+03	1.600672E-15	1.174720E-16
3.601202E+03	1.653626E-15	1.200104E-16
3.611150E+03	1.707241E-15	1.225090E-16
3.621098E+03	1.761429E-15	1.249600E-16
3.631046E+03	1.816047E-15	1.273518E-16
3.640994E+03	1.870970E-15	1.296748E-16
3.650942E+03	1.926051E-15	1.319182E-16
3.660890E+03	1.981165E-15	1.340732E-16
3.670838E+03	2.036204E-15	1.361325E-16
3.680786E+03	2.091020E-15	1.380866E-16
3.690734E+03	2.145485E-15	1.399277E-16
3.700682E+03	2.199447E-15	1.416470E-16
3.710631E+03	2.252822E-15	1.432405E-16
3.720579E+03	2.305435E-15	1.446989E-16
3.730527E+03	2.357157E-15	1.460161E-16
3.740475E+03	2.407885E-15	1.471881E-16
3.750423E+03	2.457467E-15	1.482084E-16
3.760371E+03	2.505779E-15	1.490727E-16
3.770319E+03	2.552698E-15	1.497771E-16
3.780267E+03	2.598130E-15	1.503198E-16
3.790215E+03	2.641909E-15	1.506953E-16
3.800163E+03	2.683975E-15	1.509045E-16
3.810111E+03	2.724170E-15	1.509432E-16
3.820059E+03	2.762421E-15	1.508122E-16
3.830007E+03	2.798633E-15	1.505117E-16
3.839955E+03	2.832720E-15	1.500425E-16
3.849904E+03	2.864607E-15	1.494061E-16
3.859852E+03	2.894197E-15	1.486034E-16
3.869800E+03	2.921460E-15	1.476389E-16
3.879748E+03	2.946348E-15	1.465165E-16
3.889696E+03	2.968799E-15	1.452393E-16
3.899644E+03	2.988847E-15	1.438154E-16
3.909592E+03	3.006398E-15	1.422468E-16
3.919540E+03	3.021516E-15	1.405429E-16
3.929488E+03	3.034219E-15	1.387111E-16
3.939436E+03	3.044543E-15	1.367594E-16
3.949384E+03	3.052513E-15	1.346954E-16
3.959332E+03	3.058198E-15	1.325282E-16
3.969280E+03	3.061735E-15	1.302699E-16
3.979228E+03	3.063147E-15	1.279271E-16
3.989176E+03	3.062629E-15	1.255138E-16
3.999125E+03	3.060235E-15	1.230373E-16
4.009073E+03	3.056193E-15	1.205120E-16
4.019021E+03	3.050611E-15	1.179466E-16
4.028969E+03	3.043665E-15	1.153523E-16
4.038917E+03	3.035568E-15	1.127411E-16
4.048865E+03	3.026518E-15	1.101238E-16
4.058813E+03	3.016718E-15	1.075109E-16
4.068761E+03	3.006356E-15	1.049116E-16
4.078709E+03	2.995649E-15	1.023358E-16
4.088657E+03	2.984840E-15	9.979353E-17
4.098605E+03	2.974150E-15	9.729366E-17
4.108553E+03	2.963795E-15	9.484421E-17
4.118501E+03	2.953965E-15	9.245187E-17
4.128449E+03	2.944917E-15	9.012502E-17
4.138398E+03	2.936804E-15	8.786834E-17
4.148346E+03	2.929816E-15	8.568733E-17
4.158294E+03	2.924183E-15	8.358835E-17
4.168242E+03	2.920024E-15	8.157427E-17
4.178190E+03	2.917544E-15	7.965018E-17
4.188138E+03	2.916832E-15	7.781796E-17
4.198086E+03	2.918039E-15	7.608107E-17
4.208034E+03	2.921297E-15	7.444254E-17
4.217982E+03	2.926648E-15	7.290321E-17
4.227930E+03	2.934187E-15	7.146551E-17
4.237878E+03	2.943988E-15	7.013165E-17
4.247826E+03	2.956033E-15	6.890193E-17
4.257774E+03	2.970351E-15	6.777824E-17
4.267722E+03	2.986941E-15	6.676230E-17
4.277671E+03	3.005698E-15	6.585400E-17
4.287619E+03	3.026552E-15	6.505460E-17
4.297567E+03	3.049384E-15	6.436500E-17
4.307515E+03	3.073941E-15	6.378376E-17
4.317463E+03	3.099958E-15	6.330998E-17
4.327411E+03	3.127010E-15	6.294004E-17
4.337359E+03	3.154402E-15	6.266553E-17
4.347307E+03	3.181089E-15	6.247173E-17
4.357255E+03	3.205543E-15	6.233486E-17
4.367203E+03	3.226360E-15	6.223316E-17
4.377151E+03	3.242740E-15	6.215560E-17
4.387099E+03	3.254845E-15	6.210582E-17
4.397047E+03	3.263401E-15	6.209506E-17
4.406995E+03	3.269570E-15	6.214128E-17
4.416944E+03	3.274664E-15	6.226426E-17
4.426892E+03	3.280105E-15	6.248511E-17
4.436840E+03	3.287340E-15	6.282542E-17
4.446788E+03	3.297603E-15	6.330295E-17
4.456736E+03	3.311979E-15	6.393324E-17
4.466684E+03	3.331311E-15	6.472799E-17
4.476632E+03	3.355955E-15	6.569031E-17
4.486580E+03	3.385890E-15	6.681655E-17
4.496528E+03	3.420570E-15	6.809313E-17
4.506476E+03	3.458947E-15	6.949635E-17
4.516424E+03	3.499486E-15	7.099219E-17
4.526372E+03	3.540315E-15	7.253871E-17
4.536320E+03	3.579359E-15	7.408838E-17
4.546268E+03	3.614412E-15	7.558922E-17
4.556217E+03	3.643392E-15	7.699000E-17
4.566165E+03	3.664472E-15	7.824314E-17
4.576113E+03	3.676182E-15	7.930731E-17
4.586061E+03	3.677570E-15	8.015132E-17
4.596009E+03	3.668200E-15	8.075476E-17
4.605957E+03	3.648251E-15	8.111094E-17
4.615905E+03	3.618390E-15	8.122471E-17
4.625853E+03	3.579813E-15	8.111401E-17
4.635801E+03	3.534102E-15	8.080720E-17
4.645749E+03	3.483306E-15	8.034523E-17
4.655697E+03	3.429719E-15	7.977702E-17
4.665645E+03	3.375838E-15	7.915838E-17
4.675593E+03	3.324344E-15	7.855170E-17
4.685541E+03	3.277928E-15	7.802181E-17
4.695490E+03	3.239147E-15	7.763217E-17
4.705438E+03	3.210358E-15	7.744300E-17
4.715386E+03	3.193505E-15	7.750564E-17
4.725334E+03	3.190046E-15	7.786028E-17
4.735282E+03	3.200789E-15	7.853131E-17
4.745230E+03	3.225860E-15	7.952601E-17
4.755178E+03	3.264591E-15	8.083131E-17
4.765126E+03	3.315575E-15	8.241462E-17
4.775074E+03	3.376551E-15	8.422075E-17
4.785022E+03	3.444639E-15	8.617764E-17
4.794970E+03	3.516345E-15	8.819638E-17
4.804918E+03	3.587853E-15	9.017882E-17
4.814866E+03	3.655261E-15	9.202386E-17
4.824814E+03	3.714864E-15	9.363487E-17
4.834763E+03	3.763514E-15	9.492932E-17
4.844711E+03	3.798867E-15	9.584554E-17
4.854659E+03	3.819519E-15	9.634639E-17
4.864607E+03	3.825279E-15	9.642642E-17
4.874555E+03	3.816870E-15	9.610429E-17
4.884503E+03	3.795932E-15	9.542271E-17
4.894451E+03	3.764673E-15	9.443938E-17
4.904399E+03	3.725502E-15	9.321736E-17
4.914347E+03	3.680773E-15	9.181843E-17
4.924295E+03	3.632457E-15	9.029460E-17
4.934243E+03	3.582173E-15	8.868885E-17
4.944191E+03	3.531060E-15	8.703183E-17
4.954139E+03	3.479792E-15	8.534250E-17
4.964087E+03	3.428978E-15	8.363785E-17
4.974036E+03	3.379023E-15	8.192974E-17
4.983984E+03	3.330448E-15	8.023242E-17
4.993932E+03	3.283837E-15	7.856140E-17
5.003880E+03	3.240039E-15	7.693792E-17
5.013828E+03	3.199880E-15	7.538198E-17
5.023776E+03	3.164336E-15	7.391625E-17
5.033724E+03	3.134335E-15	7.256129E-17
5.043672E+03	3.110729E-15	7.133482E-17
5.053620E+03	3.094150E-15	7.024858E-17
5.063568E+03	3.084988E-15	6.930786E-17
5.073516E+03	3.083243E-15	6.850859E-17
5.083464E+03	3.088590E-15	6.783928E-17
5.093412E+03	3.100288E-15	6.727941E-17
5.103360E+03	3.117265E-15	6.680195E-17
5.113309E+03	3.138120E-15	6.637385E-17
5.123257E+03	3.161354E-15	6.596164E-17
5.133205E+03	3.185482E-15	6.553378E-17
5.143153E+03	3.209098E-15	6.506223E-17
5.153101E+03	3.231221E-15	6.452930E-17
5.163049E+03	3.251184E-15	6.392488E-17
5.172997E+03	3.268693E-15	6.324718E-17
5.182945E+03	3.283746E-15	6.250059E-17
5.192893E+03	3.296509E-15	6.169296E-17
5.202841E+03	3.307199E-15	6.083313E-17
5.212789E+03	3.315862E-15	5.992680E-17
5.222737E+03	3.322404E-15	5.897744E-17
5.232685E+03	3.326474E-15	5.798446E-17
5.242633E+03	3.327558E-15	5.694512E-17
5.252582E+03	3.324937E-15	5.585416E-17
5.262530E+03	3.318017E-15	5.470952E-17
5.272478E+03	3.306265E-15	5.351093E-17
5.282426E+03	3.289332E-15	5.226180E-17
5.292374E+03	3.267186E-15	5.097087E-17
5.302322E+03	3.240166E-15	4.965243E-17
5.312270E+03	3.208810E-15	4.832321E-17
5.322218E+03	3.173947E-15	4.700331E-17
5.332166E+03	3.136577E-15	4.571415E-17
5.342114E+03	3.097942E-15	4.447925E-17
5.352062E+03	3.059319E-15	4.332113E-17
5.362010E+03	3.021978E-15	4.226082E-17
5.371958E+03	2.987325E-15	4.132007E-17
5.381906E+03	2.956682E-15	4.051832E-17
5.391855E+03	2.931212E-15	3.987127E-17
5.401803E+03	2.911880E-15	3.939096E-17
5.411751E+03	2.898914E-15	3.907952E-17
5.421699E+03	2.891547E-15	3.892586E-17
5.431647E+03	2.888431E-15	3.890868E-17
5.441595E+03	2.887800E-15	3.899908E-17
5.451543E+03	2.887901E-15	3.916816E-17
5.461491E+03	2.887036E-15	3.938716E-17
5.471439E+03	2.883906E-15	3.963205E-17
5.481387E+03	2.877974E-15	3.988847E-17
5.491335E+03	2.869110E-15	4.014728E-17
5.501283E+03	2.857399E-15	4.040218E-17
5.511231E+03	2.843103E-15	4.064941E-17
5.521179E+03	2.826533E-15	4.088622E-17
5.531128E+03	2.807979E-15	4.110994E-17
5.541076E+03	2.787928E-15	4.132137E-17
5.551024E+03	2.766697E-15	4.151941E-17
5.560972E+03	2.744689E-15	4.170489E-17
5.570920E+03	2.722195E-15	4.187765E-17
5.580868E+03	2.699433E-15	4.203700E-17
5.590816E+03	2.676631E-15	4.218293E-17
5.600764E+03	2.653826E-15	4.231299E-17
5.610712E+03	2.631027E-15	4.242459E-17
5.620660E+03	2.608261E-15	4.251576E-17
5.630608E+03	2.585488E-15	4.258380E-17
5.640556E+03	2.562722E-15	4.262712E-17
5.650504E+03	2.539998E-15	4.264476E-17
5.660452E+03	2.517441E-15	4.263752E-17
5.670401E+03	2.495242E-15	4.260764E-17
5.680349E+03	2.473615E-15	4.255804E-17
5.690297E+03	2.452824E-15	4.249277E-17
5.700245E+03	2.433123E-15	4.241593E-17
5.710193E+03	2.414696E-15	4.233063E-17
5.720141E+03	2.397685E-15	4.223935E-17
5.730089E+03	2.382125E-15	4.214274E-17
5.740037E+03	2.367994E-15	4.204052E-17
5.749985E+03	2.355207E-15	4.193122E-17
5.759933E+03	2.343635E-15	4.181259E-17
5.769881E+03	2.333086E-15	4.168124E-17
5.779829E+03	2.323477E-15	4.153568E-17
5.789777E+03	2.314632E-15	4.137279E-17
5.799725E+03	2.306545E-15	4.119245E-17
5.809674E+03	2.299186E-15	4.099416E-17
5.819622E+03	2.292578E-15	4.077837E-17
5.829570E+03	2.286846E-15	4.054731E-17
5.839518E+03	2.282076E-15	4.030251E-17
5.849466E+03	2.278444E-15	4.004706E-17
5.859414E+03	2.276076E-15	3.978306E-17
5.869362E+03	2.275108E-15	3.951273E-17
5.879310E+03	2.275551E-15	3.923600E-17
5.889258E+03	2.277414E-15	3.895275E-17
5.899206E+03	2.280607E-15	3.866109E-17
5.909154E+03	2.284951E-15	3.835771E-17
5.919102E+03	2.290259E-15	3.803925E-17
5.929050E+03	2.296366E-15	3.770285E-17
5.938998E+03	2.303069E-15	3.734525E-17
5.948946E+03	2.310307E-15	3.696561E-17
5.958895E+03	2.318075E-15	3.656418E-17
5.968843E+03	2.326453E-15	3.614264E-17
5.978791E+03	2.335592E-15	3.570373E-17
5.988739E+03	2.345685E-15	3.525089E-17
5.998687E+03	2.356918E-15	3.478738E-17
6.008635E+03	2.369540E-15	3.431731E-17
6.018583E+03	2.383684E-15	3.384312E-17
6.028531E+03	2.399457E-15	3.336696E-17
6.038479E+03	2.416936E-15	3.289074E-17
6.048427E+03	2.436124E-15	3.241564E-17
6.058375E+03	2.456961E-15	3.194247E-17
6.068323E+03	2.479455E-15	3.147349E-17
6.078271E+03	2.503519E-15	3.101043E-17
6.088219E+03	2.529100E-15	3.055622E-17
6.098168E+03	2.556059E-15	3.011374E-17
6.108116E+03	2.584170E-15	2.968601E-17
6.118064E+03	2.612966E-15	2.927468E-17
6.128012E+03	2.641761E-15	2.888073E-17
6.137960E+03	2.669627E-15	2.850448E-17
6.147908E+03	2.695227E-15	2.814406E-17
6.157856E+03	2.716984E-15	2.779726E-17
6.167804E+03	2.733002E-15	2.746046E-17
6.177752E+03	2.741280E-15	2.713007E-17
6.187700E+03	2.739724E-15	2.680162E-17
6.197648E+03	2.726458E-15	2.647117E-17
6.207596E+03	2.700616E-15	2.614133E-17
6.217544E+03	2.663459E-15	2.583043E-17
6.227492E+03	2.618393E-15	2.557136E-17
6.237441E+03	2.569522E-15	2.539413E-17
6.247389E+03	2.520351E-15	2.531922E-17
6.257337E+03	2.473389E-15	2.535781E-17
6.267285E+03	2.430103E-15	2.551215E-17
6.277233E+03	2.391215E-15	2.577879E-17
6.287181E+03	2.356896E-15	2.615025E-17
6.297129E+03	2.327010E-15	2.661735E-17
6.307077E+03	2.301436E-15	2.717248E-17
6.317025E+03	2.280304E-15	2.781244E-17
6.326973E+03	2.264242E-15	2.854191E-17
6.336921E+03	2.254288E-15	2.937333E-17
6.346869E+03	2.252122E-15	3.033082E-17
6.356817E+03	2.259805E-15	3.144789E-17
6.366765E+03	2.279674E-15	3.276684E-17
6.376714E+03	2.314160E-15	3.433663E-17
6.386662E+03	2.365588E-15	3.620988E-17
6.396610E+03	2.436045E-15	3.844045E-17
6.406558E+03	2.527001E-15	4.107658E-17
6.416506E+03	2.639369E-15	4.416010E-17
6.426454E+03	2.773103E-15	4.771812E-17
6.436402E+03	2.927009E-15	5.175709E-17
6.446350E+03	3.098644E-15	5.625809E-17
6.456298E+03	3.284051E-15	6.116886E-17
6.466246E+03	3.477789E-15	6.640082E-17
6.476194E+03	3.672871E-15	7.182440E-17
6.486142E+03	3.861444E-15	7.727941E-17
6.496090E+03	4.035100E-15	8.257980E-17
6.506038E+03	4.185685E-15	8.752977E-17
6.515987E+03	4.306302E-15	9.194638E-17
6.525935E+03	4.391874E-15	9.567516E-17
6.535883E+03	4.439660E-15	9.860605E-17
6.545831E+03	4.449368E-15	1.006815E-16
6.555779E+03	4.422891E-15	1.018954E-16
6.565727E+03	4.364102E-15	1.022933E-16
6.575675E+03	4.277824E-15	1.019513E-16
6.585623E+03	4.169755E-15	1.009760E-16
6.595571E+03	4.045435E-15	9.948038E-17
6.605519E+03	3.910285E-15	9.758384E-17
6.615467E+03	3.769027E-15	9.539700E-17
6.625415E+03	3.625774E-15	9.302215E-17
6.635363E+03	3.483754E-15	9.054472E-17
6.645311E+03	3.345566E-15	8.803793E-17
6.655260E+03	3.213034E-15	8.555783E-17
6.665208E+03	3.087471E-15	8.314877E-17
6.675156E+03	2.969720E-15	8.084354E-17
6.685104E+03	2.860238E-15	7.866498E-17
6.695052E+03	2.759174E-15	7.662742E-17
6.705000E+03	2.666427E-15	7.473782E-17
6.714948E+03	2.581656E-15	7.299584E-17
6.724896E+03	2.504411E-15	7.139710E-17
6.734844E+03	2.434131E-15	6.993320E-17
6.744792E+03	2.370230E-15	6.859404E-17
6.754740E+03	2.312034E-15	6.736598E-17
6.764688E+03	2.258909E-15	6.623572E-17
6.774636E+03	2.210385E-15	6.519390E-17
6.784584E+03	2.166082E-15	6.423323E-17
6.794533E+03	2.125730E-15	6.334915E-17
6.804481E+03	2.089233E-15	6.254182E-17
6.814429E+03	2.056632E-15	6.181523E-17
6.824377E+03	2.027923E-15	6.117179E-17
6.834325E+03	2.003235E-15	6.061759E-17
6.844273E+03	1.982500E-15	6.015248E-17
6.854221E+03	1.965634E-15	5.977560E-17
6.864169E+03	1.952347E-15	5.947941E-17
6.874117E+03	1.942230E-15	5.925242E-17
6.884065E+03	1.934783E-15	5.908002E-17
6.894013E+03	1.929362E-15	5.894295E-17
6.903961E+03	1.925348E-15	5.882248E-17
6.913909E+03	1.922139E-15	5.870029E-17
6.923857E+03	1.919304E-15	5.856322E-17
6.933806E+03	1.916514E-15	5.840126E-17
6.943754E+03	1.913544E-15	5.820759E-17
6.953702E+03	1.910359E-15	5.798118E-17
6.963650E+03	1.906947E-15	5.772179E-17
6.973598E+03	1.903386E-15	5.743193E-17
6.983546E+03	1.899769E-15	5.711450E-17
6.993494E+03	1.896178E-15	5.677205E-17
7.003442E+03	1.892653E-15	5.640594E-17
7.013390E+03	1.889158E-15	5.601514E-17
7.023338E+03	1.885663E-15	5.559890E-17
7.033286E+03	1.882059E-15	5.515416E-17
7.043234E+03	1.878171E-15	5.467598E-17
7.053182E+03	1.873837E-15	5.416007E-17
7.063130E+03	1.868941E-15	5.360354E-17
7.073079E+03	1.863304E-15	5.300194E-17
7.083027E+03	1.856944E-15	5.235653E-17
7.092975E+03	1.849866E-15	5.166831E-17
7.102923E+03	1.842199E-15	5.094181E-17
7.112871E+03	1.834164E-15	5.018393E-17
7.122819E+03	1.826051E-15	4.940328E-17
7.132767E+03	1.818187E-15	4.860908E-17
7.142715E+03	1.810864E-15	4.780930E-17
7.152663E+03	1.804404E-15	4.701215E-17
7.162611E+03	1.799028E-15	4.622289E-17
7.172559E+03	1.794877E-15	4.544431E-17
7.182507E+03	1.792010E-15	4.467686E-17
7.192455E+03	1.790373E-15	4.391804E-17
7.202403E+03	1.789910E-15	4.316539E-17
7.212352E+03	1.790485E-15	4.241455E-17
7.222300E+03	1.791929E-15	4.166052E-17
7.232248E+03	1.794019E-15	4.089745E-17
7.242196E+03	1.796601E-15	4.012133E-17
7.252144E+03	1.799500E-15	3.932806E-17
7.262092E+03	1.802566E-15	3.851444E-17
7.272040E+03	1.805684E-15	3.767834E-17
7.281988E+03	1.808776E-15	3.681874E-17
7.291936E+03	1.811803E-15	3.593560E-17
7.301884E+03	1.814760E-15	3.502980E-17
7.311832E+03	1.817675E-15	3.410298E-17
7.321780E+03	1.820627E-15	3.315785E-17
7.331728E+03	1.823610E-15	3.219562E-17
7.341676E+03	1.826750E-15	3.122007E-17
7.351625E+03	1.830100E-15	3.023374E-17
7.361573E+03	1.833622E-15	2.923797E-17
7.371521E+03	1.837395E-15	2.823642E-17
7.381469E+03	1.841366E-15	2.723115E-17
7.391417E+03	1.845490E-15	2.622507E-17
7.401365E+03	1.849694E-15	2.522165E-17
7.411313E+03	1.853842E-15	2.422457E-17
7.421261E+03	1.857873E-15	2.323999E-17
7.431209E+03	1.861515E-15	2.227296E-17
7.441157E+03	1.864608E-15	2.133202E-17
7.451105E+03	1.867012E-15	2.042801E-17
7.461053E+03	1.868426E-15	1.957229E-17
7.471001E+03	1.868702E-15	1.878024E-17
7.480949E+03	1.867607E-15	1.806835E-17
7.490898E+03	1.864983E-15	1.745530E-17
7.500846E+03	1.860767E-15	1.696089E-17
7.510794E+03	1.854904E-15	1.660364E-17
7.520742E+03	1.847338E-15	1.639882E-17
7.530690E+03	1.838092E-15	1.635723E-17
7.540638E+03	1.827105E-15	1.648052E-17
7.550586E+03	1.814211E-15	1.675797E-17
7.560534E+03	1.799137E-15	1.717113E-17
7.570482E+03	1.781667E-15	1.769773E-17
7.580430E+03	1.762410E-15	1.832145E-17
7.590378E+03	1.742963E-15	1.903735E-17
7.600326E+03	1.725511E-15	1.985181E-17
7.610274E+03	1.711836E-15	2.077364E-17
7.620222E+03	1.703062E-15	2.181069E-17
7.630171E+03	1.699514E-15	2.296597E-17
7.640119E+03	1.701043E-15	2.423939E-17
7.650067E+03	1.707040E-15	2.562572E-17
7.660015E+03	1.716672E-15	2.711621E-17
7.669963E+03	1.728889E-15	2.869728E-17
7.679911E+03	1.742816E-15	3.035604E-17
7.689859E+03	1.757584E-15	3.207762E-17
7.699807E+03	1.772562E-15	3.384939E-17
7.709755E+03	1.787179E-15	3.565816E-17
7.719703E+03	1.801172E-15	3.749555E-17
