#wls	flux	fluxerr
1.591691E+03	1.432466E-17	5.570424E-19
1.631484E+03	1.349503E-17	5.212895E-19
1.671276E+03	1.267351E-17	4.862047E-19
1.711068E+03	1.186866E-17	4.521213E-19
1.750861E+03	1.108261E-17	4.191189E-19
1.790653E+03	1.032076E-17	3.873975E-19
1.830445E+03	9.582575E-18	3.569301E-19
1.870237E+03	8.867718E-18	3.276958E-19
1.910030E+03	8.177044E-18	2.997181E-19
1.949822E+03	7.519372E-18	2.733079E-19
1.989614E+03	6.902399E-18	2.487240E-19
2.029406E+03	6.345825E-18	2.266432E-19
2.069199E+03	5.883158E-18	2.082037E-19
2.108991E+03	5.549155E-18	1.945408E-19
2.148783E+03	5.375128E-18	1.866198E-19
2.188576E+03	5.365916E-18	1.844475E-19
2.228368E+03	5.510981E-18	1.874947E-19
2.268160E+03	5.785532E-18	1.947608E-19
2.307952E+03	6.170443E-18	2.054639E-19
2.347745E+03	6.654025E-18	2.190900E-19
2.387537E+03	7.231072E-18	2.353496E-19
2.427329E+03	7.907731E-18	2.543220E-19
2.467122E+03	8.697040E-18	2.762922E-19
2.506914E+03	9.615314E-18	3.016229E-19
2.546706E+03	1.068627E-17	3.308751E-19
2.586498E+03	1.194323E-17	3.648583E-19
2.626291E+03	1.341946E-17	4.043187E-19
2.666083E+03	1.515817E-17	4.502339E-19
2.705875E+03	1.720489E-17	5.035652E-19
2.745668E+03	1.960737E-17	5.652478E-19
2.785460E+03	2.242815E-17	6.365400E-19
2.825252E+03	2.573534E-17	7.187284E-19
2.865044E+03	2.961394E-17	8.134239E-19
2.904837E+03	3.416738E-17	9.225584E-19
2.944629E+03	3.952198E-17	1.048457E-18
2.984421E+03	4.584166E-17	1.194162E-18
2.994369E+03	4.759189E-17	1.234014E-18
3.004317E+03	4.942155E-17	1.275476E-18
3.014266E+03	5.132935E-17	1.318484E-18
3.024214E+03	5.331911E-17	1.363105E-18
3.034162E+03	5.539646E-17	1.409451E-18
3.044110E+03	5.757201E-17	1.457755E-18
3.054058E+03	5.985148E-17	1.508125E-18
3.064006E+03	6.223365E-17	1.560488E-18
3.073954E+03	6.472286E-17	1.614914E-18
3.083902E+03	6.733525E-17	1.671760E-18
3.093850E+03	7.006453E-17	1.730823E-18
3.103798E+03	7.292176E-17	1.792330E-18
3.113746E+03	7.591280E-17	1.856373E-18
3.123694E+03	7.903730E-17	1.922890E-18
3.133642E+03	8.231445E-17	1.992295E-18
3.143590E+03	8.574479E-17	2.064538E-18
3.153539E+03	8.934259E-17	2.139903E-18
3.163487E+03	9.310173E-17	2.218175E-18
3.173435E+03	9.704438E-17	2.299818E-18
3.183383E+03	1.011798E-16	2.384977E-18
3.193331E+03	1.055023E-16	2.473438E-18
3.203279E+03	1.100446E-16	2.565896E-18
3.213227E+03	1.148021E-16	2.662151E-18
3.223175E+03	1.197939E-16	2.762562E-18
3.233123E+03	1.250238E-16	2.867120E-18
3.243071E+03	1.305215E-16	2.976410E-18
3.253019E+03	1.362835E-16	3.090241E-18
3.262967E+03	1.423326E-16	3.209024E-18
3.272915E+03	1.486935E-16	3.333201E-18
3.282863E+03	1.553732E-16	3.462797E-18
3.292812E+03	1.623880E-16	3.598052E-18
3.302760E+03	1.697553E-16	3.739208E-18
3.312708E+03	1.775031E-16	3.886744E-18
3.322656E+03	1.856392E-16	4.040671E-18
3.332604E+03	1.941923E-16	4.201459E-18
3.342552E+03	2.031805E-16	4.369327E-18
3.352500E+03	2.126084E-16	4.544199E-18
3.362448E+03	2.225017E-16	4.726447E-18
3.372396E+03	2.328716E-16	4.916118E-18
3.382344E+03	2.437375E-16	5.113427E-18
3.392292E+03	2.550732E-16	5.317633E-18
3.402240E+03	2.668825E-16	5.528620E-18
3.412188E+03	2.791590E-16	5.746073E-18
3.422136E+03	2.918566E-16	5.968855E-18
3.432085E+03	3.049441E-16	6.196168E-18
3.442033E+03	3.183519E-16	6.426447E-18
3.451981E+03	3.320240E-16	6.658443E-18
3.461929E+03	3.459525E-16	6.891890E-18
3.471877E+03	3.600960E-16	7.125868E-18
3.481825E+03	3.744891E-16	7.360973E-18
3.491773E+03	3.891688E-16	7.597829E-18
3.501721E+03	4.041800E-16	7.837194E-18
3.511669E+03	4.195687E-16	8.079823E-18
3.521617E+03	4.353786E-16	8.326403E-18
3.531565E+03	4.516487E-16	8.577513E-18
3.541513E+03	4.684319E-16	8.833974E-18
3.551461E+03	4.857388E-16	9.095780E-18
3.561409E+03	5.035929E-16	9.363171E-18
3.571358E+03	5.220331E-16	9.636650E-18
3.581306E+03	5.410742E-16	9.916268E-18
3.591254E+03	5.607071E-16	1.020163E-17
3.601202E+03	5.809575E-16	1.049297E-17
3.611150E+03	6.018077E-16	1.078974E-17
3.621098E+03	6.232982E-16	1.109244E-17
3.631046E+03	6.453812E-16	1.139998E-17
3.640994E+03	6.680691E-16	1.171236E-17
3.650942E+03	6.913484E-16	1.202911E-17
3.660890E+03	7.152039E-16	1.234975E-17
3.670838E+03	7.396134E-16	1.267369E-17
3.680786E+03	7.645530E-16	1.300030E-17
3.690734E+03	7.899701E-16	1.332851E-17
3.700682E+03	8.158805E-16	1.365842E-17
3.710631E+03	8.422236E-16	1.398883E-17
3.720579E+03	8.689585E-16	1.431892E-17
3.730527E+03	8.960403E-16	1.464783E-17
3.740475E+03	9.234197E-16	1.497464E-17
3.750423E+03	9.510435E-16	1.529839E-17
3.760371E+03	9.788532E-16	1.561810E-17
3.770319E+03	1.006788E-15	1.593273E-17
3.780267E+03	1.034781E-15	1.624124E-17
3.790215E+03	1.062733E-15	1.654208E-17
3.800163E+03	1.090628E-15	1.683504E-17
3.810111E+03	1.118359E-15	1.711855E-17
3.820059E+03	1.145815E-15	1.739104E-17
3.830007E+03	1.172939E-15	1.765176E-17
3.839955E+03	1.199643E-15	1.789959E-17
3.849904E+03	1.225834E-15	1.813335E-17
3.859852E+03	1.251389E-15	1.835147E-17
3.869800E+03	1.276239E-15	1.855325E-17
3.879748E+03	1.300255E-15	1.873714E-17
3.889696E+03	1.323336E-15	1.890207E-17
3.899644E+03	1.345381E-15	1.904700E-17
3.909592E+03	1.366317E-15	1.917138E-17
3.919540E+03	1.386014E-15	1.927385E-17
3.929488E+03	1.404345E-15	1.935320E-17
3.939436E+03	1.421275E-15	1.940951E-17
3.949384E+03	1.436659E-15	1.944140E-17
3.959332E+03	1.450417E-15	1.944843E-17
3.969280E+03	1.462512E-15	1.943077E-17
3.979228E+03	1.472862E-15	1.938803E-17
3.989176E+03	1.481432E-15	1.932044E-17
3.999125E+03	1.488239E-15	1.922891E-17
4.009073E+03	1.493236E-15	1.911356E-17
4.019021E+03	1.496462E-15	1.897561E-17
4.028969E+03	1.498016E-15	1.881695E-17
4.038917E+03	1.497971E-15	1.863918E-17
4.048865E+03	1.496462E-15	1.844457E-17
4.058813E+03	1.493657E-15	1.823574E-17
4.068761E+03	1.489754E-15	1.801559E-17
4.078709E+03	1.484956E-15	1.778697E-17
4.088657E+03	1.479517E-15	1.755326E-17
4.098605E+03	1.473709E-15	1.731791E-17
4.108553E+03	1.467820E-15	1.708446E-17
4.118501E+03	1.462122E-15	1.685612E-17
4.128449E+03	1.456917E-15	1.663630E-17
4.138398E+03	1.452500E-15	1.642826E-17
4.148346E+03	1.449156E-15	1.623498E-17
4.158294E+03	1.447138E-15	1.605896E-17
4.168242E+03	1.446675E-15	1.590240E-17
4.178190E+03	1.448039E-15	1.576784E-17
4.188138E+03	1.451385E-15	1.565646E-17
4.198086E+03	1.456861E-15	1.556934E-17
4.208034E+03	1.464614E-15	1.550752E-17
4.217982E+03	1.474713E-15	1.547115E-17
4.227930E+03	1.487200E-15	1.546014E-17
4.237878E+03	1.502049E-15	1.547368E-17
4.247826E+03	1.519179E-15	1.551048E-17
4.257774E+03	1.538499E-15	1.556915E-17
4.267722E+03	1.559801E-15	1.564725E-17
4.277671E+03	1.582866E-15	1.574229E-17
4.287619E+03	1.607410E-15	1.585126E-17
4.297567E+03	1.633136E-15	1.597116E-17
4.307515E+03	1.659708E-15	1.609871E-17
4.317463E+03	1.686800E-15	1.623086E-17
4.327411E+03	1.714141E-15	1.636521E-17
4.337359E+03	1.741508E-15	1.649991E-17
4.347307E+03	1.768760E-15	1.663394E-17
4.357255E+03	1.795845E-15	1.676717E-17
4.367203E+03	1.822758E-15	1.689991E-17
4.377151E+03	1.849395E-15	1.703158E-17
4.387099E+03	1.875508E-15	1.716028E-17
4.397047E+03	1.901011E-15	1.728568E-17
4.406995E+03	1.925904E-15	1.740821E-17
4.416944E+03	1.950339E-15	1.752966E-17
4.426892E+03	1.974614E-15	1.765310E-17
4.436840E+03	1.999114E-15	1.778230E-17
4.446788E+03	2.024241E-15	1.792110E-17
4.456736E+03	2.050394E-15	1.807327E-17
4.466684E+03	2.077954E-15	1.824221E-17
4.476632E+03	2.107233E-15	1.843059E-17
4.486580E+03	2.138451E-15	1.864023E-17
4.496528E+03	2.171715E-15	1.887197E-17
4.506476E+03	2.207010E-15	1.912562E-17
4.516424E+03	2.244173E-15	1.939969E-17
4.526372E+03	2.282990E-15	1.969231E-17
4.536320E+03	2.323087E-15	2.000022E-17
4.546268E+03	2.363940E-15	2.031895E-17
4.556217E+03	2.405053E-15	2.064424E-17
4.566165E+03	2.445828E-15	2.097099E-17
4.576113E+03	2.485625E-15	2.129375E-17
4.586061E+03	2.523871E-15	2.160763E-17
4.596009E+03	2.559992E-15	2.190771E-17
4.605957E+03	2.593550E-15	2.219020E-17
4.615905E+03	2.624166E-15	2.245178E-17
4.625853E+03	2.651647E-15	2.269071E-17
4.635801E+03	2.675896E-15	2.290599E-17
4.645749E+03	2.696994E-15	2.309813E-17
4.655697E+03	2.715168E-15	2.326887E-17
4.665645E+03	2.730749E-15	2.342081E-17
4.675593E+03	2.744233E-15	2.355795E-17
4.685541E+03	2.756137E-15	2.368448E-17
4.695490E+03	2.767059E-15	2.380529E-17
4.705438E+03	2.777605E-15	2.392535E-17
4.715386E+03	2.788365E-15	2.404954E-17
4.725334E+03	2.799877E-15	2.418229E-17
4.735282E+03	2.812575E-15	2.432719E-17
4.745230E+03	2.826823E-15	2.448723E-17
4.755178E+03	2.842843E-15	2.466420E-17
4.765126E+03	2.860782E-15	2.485927E-17
4.775074E+03	2.880606E-15	2.507204E-17
4.785022E+03	2.902173E-15	2.530116E-17
4.794970E+03	2.925212E-15	2.554416E-17
4.804918E+03	2.949367E-15	2.579782E-17
4.814866E+03	2.974173E-15	2.605794E-17
4.824814E+03	2.999027E-15	2.631907E-17
4.834763E+03	3.023312E-15	2.657563E-17
4.844711E+03	3.046376E-15	2.682170E-17
4.854659E+03	3.067523E-15	2.705090E-17
4.864607E+03	3.086099E-15	2.725723E-17
4.874555E+03	3.101461E-15	2.743473E-17
4.884503E+03	3.113060E-15	2.757827E-17
4.894451E+03	3.120409E-15	2.768323E-17
4.904399E+03	3.123157E-15	2.774622E-17
4.914347E+03	3.121046E-15	2.776464E-17
4.924295E+03	3.113982E-15	2.773738E-17
4.934243E+03	3.101974E-15	2.766428E-17
4.944191E+03	3.085172E-15	2.754642E-17
4.954139E+03	3.063881E-15	2.738634E-17
4.964087E+03	3.038531E-15	2.718770E-17
4.974036E+03	3.009594E-15	2.695462E-17
4.983984E+03	2.977693E-15	2.669256E-17
4.993932E+03	2.943518E-15	2.640766E-17
5.003880E+03	2.907778E-15	2.610623E-17
5.013828E+03	2.871204E-15	2.579487E-17
5.023776E+03	2.834532E-15	2.548019E-17
5.033724E+03	2.798525E-15	2.516912E-17
5.043672E+03	2.763826E-15	2.486750E-17
5.053620E+03	2.731069E-15	2.458110E-17
5.063568E+03	2.700782E-15	2.431475E-17
5.073516E+03	2.673430E-15	2.407271E-17
5.083464E+03	2.649327E-15	2.385789E-17
5.093412E+03	2.628757E-15	2.367289E-17
5.103360E+03	2.611823E-15	2.351869E-17
5.113309E+03	2.598571E-15	2.339575E-17
5.123257E+03	2.588947E-15	2.330361E-17
5.133205E+03	2.582752E-15	2.324050E-17
5.143153E+03	2.579778E-15	2.320453E-17
5.153101E+03	2.579667E-15	2.319249E-17
5.163049E+03	2.582021E-15	2.320081E-17
5.172997E+03	2.586424E-15	2.322572E-17
5.182945E+03	2.592418E-15	2.326312E-17
5.192893E+03	2.599506E-15	2.330853E-17
5.202841E+03	2.607157E-15	2.335722E-17
5.212789E+03	2.614925E-15	2.340521E-17
5.222737E+03	2.622318E-15	2.344813E-17
5.232685E+03	2.628956E-15	2.348264E-17
5.242633E+03	2.634415E-15	2.350502E-17
5.252582E+03	2.638439E-15	2.351308E-17
5.262530E+03	2.640776E-15	2.350468E-17
5.272478E+03	2.641344E-15	2.347921E-17
5.282426E+03	2.640051E-15	2.343599E-17
5.292374E+03	2.637013E-15	2.337618E-17
5.302322E+03	2.632395E-15	2.330140E-17
5.312270E+03	2.626433E-15	2.321387E-17
5.322218E+03	2.619533E-15	2.311732E-17
5.332166E+03	2.612100E-15	2.301543E-17
5.342114E+03	2.604627E-15	2.291268E-17
5.352062E+03	2.597652E-15	2.281388E-17
5.362010E+03	2.591784E-15	2.272443E-17
5.371958E+03	2.587526E-15	2.264880E-17
5.381906E+03	2.585450E-15	2.259199E-17
5.391855E+03	2.585952E-15	2.255747E-17
5.401803E+03	2.589405E-15	2.254845E-17
5.411751E+03	2.595871E-15	2.256544E-17
5.421699E+03	2.605175E-15	2.260687E-17
5.431647E+03	2.616810E-15	2.266829E-17
5.441595E+03	2.630211E-15	2.274482E-17
5.451543E+03	2.644604E-15	2.282974E-17
5.461491E+03	2.659269E-15	2.291681E-17
5.471439E+03	2.673599E-15	2.300074E-17
5.481387E+03	2.687106E-15	2.307728E-17
5.491335E+03	2.699517E-15	2.314408E-17
5.501283E+03	2.710587E-15	2.319903E-17
5.511231E+03	2.720077E-15	2.324009E-17
5.521179E+03	2.727829E-15	2.326594E-17
5.531128E+03	2.733640E-15	2.327485E-17
5.541076E+03	2.737428E-15	2.326616E-17
5.551024E+03	2.739123E-15	2.323933E-17
5.560972E+03	2.738646E-15	2.319373E-17
5.570920E+03	2.736068E-15	2.313000E-17
5.580868E+03	2.731413E-15	2.304843E-17
5.590816E+03	2.724743E-15	2.294958E-17
5.600764E+03	2.716207E-15	2.283476E-17
5.610712E+03	2.705900E-15	2.270483E-17
5.620660E+03	2.694028E-15	2.256159E-17
5.630608E+03	2.680798E-15	2.240682E-17
5.640556E+03	2.666413E-15	2.224227E-17
5.650504E+03	2.651133E-15	2.207015E-17
5.660452E+03	2.635208E-15	2.189257E-17
5.670401E+03	2.618960E-15	2.171226E-17
5.680349E+03	2.602672E-15	2.153156E-17
5.690297E+03	2.586631E-15	2.135286E-17
5.700245E+03	2.571172E-15	2.117893E-17
5.710193E+03	2.556568E-15	2.101199E-17
5.720141E+03	2.543095E-15	2.085427E-17
5.730089E+03	2.530973E-15	2.070754E-17
5.740037E+03	2.520408E-15	2.057346E-17
5.749985E+03	2.511564E-15	2.045327E-17
5.759933E+03	2.504525E-15	2.034760E-17
5.769881E+03	2.499374E-15	2.025707E-17
5.779829E+03	2.496063E-15	2.018121E-17
5.789777E+03	2.494568E-15	2.011977E-17
5.799725E+03	2.494763E-15	2.007169E-17
5.809674E+03	2.496506E-15	2.003576E-17
5.819622E+03	2.499620E-15	2.001054E-17
5.829570E+03	2.503853E-15	1.999400E-17
5.839518E+03	2.509040E-15	1.998482E-17
5.849466E+03	2.514940E-15	1.998111E-17
5.859414E+03	2.521294E-15	1.998085E-17
5.869362E+03	2.527968E-15	1.998304E-17
5.879310E+03	2.534782E-15	1.998633E-17
5.889258E+03	2.541590E-15	1.998968E-17
5.899206E+03	2.548342E-15	1.999278E-17
5.909154E+03	2.554977E-15	1.999528E-17
5.919102E+03	2.561473E-15	1.999712E-17
5.929050E+03	2.567897E-15	1.999897E-17
5.938998E+03	2.574293E-15	2.000130E-17
5.948946E+03	2.580782E-15	2.000517E-17
5.958895E+03	2.587413E-15	2.001111E-17
5.968843E+03	2.594345E-15	2.002048E-17
5.978791E+03	2.601624E-15	2.003377E-17
5.988739E+03	2.609330E-15	2.005175E-17
5.998687E+03	2.617541E-15	2.007515E-17
6.008635E+03	2.626273E-15	2.010425E-17
6.018583E+03	2.635470E-15	2.013876E-17
6.028531E+03	2.645080E-15	2.017848E-17
6.038479E+03	2.654916E-15	2.022214E-17
6.048427E+03	2.664870E-15	2.026911E-17
6.058375E+03	2.674639E-15	2.031730E-17
6.068323E+03	2.683984E-15	2.036508E-17
6.078271E+03	2.692503E-15	2.040964E-17
6.088219E+03	2.699874E-15	2.044876E-17
6.098168E+03	2.705724E-15	2.047983E-17
6.108116E+03	2.709588E-15	2.049958E-17
6.118064E+03	2.711187E-15	2.050608E-17
6.128012E+03	2.710099E-15	2.049635E-17
6.137960E+03	2.706099E-15	2.046886E-17
6.147908E+03	2.698944E-15	2.042189E-17
6.157856E+03	2.688530E-15	2.035476E-17
6.167804E+03	2.674783E-15	2.026698E-17
6.177752E+03	2.657774E-15	2.015909E-17
6.187700E+03	2.637553E-15	2.003145E-17
6.197648E+03	2.614255E-15	1.988483E-17
6.207596E+03	2.588056E-15	1.972014E-17
6.217544E+03	2.559291E-15	1.953950E-17
6.227492E+03	2.528474E-15	1.934639E-17
6.237441E+03	2.496281E-15	1.914552E-17
6.247389E+03	2.463263E-15	1.894071E-17
6.257337E+03	2.430137E-15	1.873710E-17
6.267285E+03	2.397570E-15	1.853950E-17
6.277233E+03	2.366287E-15	1.835325E-17
6.287181E+03	2.337066E-15	1.818420E-17
6.297129E+03	2.310666E-15	1.803811E-17
6.307077E+03	2.287840E-15	1.792083E-17
6.317025E+03	2.269345E-15	1.783834E-17
6.326973E+03	2.255870E-15	1.779622E-17
6.336921E+03	2.248080E-15	1.779991E-17
6.346869E+03	2.246511E-15	1.785400E-17
6.356817E+03	2.251698E-15	1.796311E-17
6.366765E+03	2.264018E-15	1.813071E-17
6.376714E+03	2.283756E-15	1.835958E-17
6.386662E+03	2.310969E-15	1.865072E-17
6.396610E+03	2.345687E-15	1.900494E-17
6.406558E+03	2.387610E-15	1.942033E-17
6.416506E+03	2.436330E-15	1.989413E-17
6.426454E+03	2.491087E-15	2.042058E-17
6.436402E+03	2.551009E-15	2.099291E-17
6.446350E+03	2.614808E-15	2.160080E-17
6.456298E+03	2.681063E-15	2.223265E-17
6.466246E+03	2.748028E-15	2.287394E-17
6.476194E+03	2.813803E-15	2.350867E-17
6.486142E+03	2.876449E-15	2.412021E-17
6.496090E+03	2.933864E-15	2.469037E-17
6.506038E+03	2.984172E-15	2.520260E-17
6.515987E+03	3.025579E-15	2.564083E-17
6.525935E+03	3.056664E-15	2.599197E-17
6.535883E+03	3.076317E-15	2.624546E-17
6.545831E+03	3.083908E-15	2.639476E-17
6.555779E+03	3.079325E-15	2.643778E-17
6.565727E+03	3.062844E-15	2.637576E-17
6.575675E+03	3.035243E-15	2.621443E-17
6.585623E+03	2.997619E-15	2.596240E-17
6.595571E+03	2.951296E-15	2.563041E-17
6.605519E+03	2.897852E-15	2.523159E-17
6.615467E+03	2.838903E-15	2.477962E-17
6.625415E+03	2.776016E-15	2.428793E-17
6.635363E+03	2.710799E-15	2.377048E-17
6.645311E+03	2.644578E-15	2.323889E-17
6.655260E+03	2.578624E-15	2.270443E-17
6.665208E+03	2.513953E-15	2.217623E-17
6.675156E+03	2.451497E-15	2.166273E-17
6.685104E+03	2.391866E-15	2.116959E-17
6.695052E+03	2.335607E-15	2.070192E-17
6.705000E+03	2.283078E-15	2.026320E-17
6.714948E+03	2.234511E-15	1.985574E-17
6.724896E+03	2.189998E-15	1.948065E-17
6.734844E+03	2.149603E-15	1.913871E-17
6.744792E+03	2.113288E-15	1.882984E-17
6.754740E+03	2.080934E-15	1.855313E-17
6.764688E+03	2.052436E-15	1.830785E-17
6.774636E+03	2.027632E-15	1.809267E-17
6.784584E+03	2.006311E-15	1.790581E-17
6.794533E+03	1.988274E-15	1.774560E-17
6.804481E+03	1.973341E-15	1.761048E-17
6.814429E+03	1.961267E-15	1.749834E-17
6.824377E+03	1.951861E-15	1.740746E-17
6.834325E+03	1.944871E-15	1.733563E-17
6.844273E+03	1.940074E-15	1.728084E-17
6.854221E+03	1.937241E-15	1.724104E-17
6.864169E+03	1.936145E-15	1.721420E-17
6.874117E+03	1.936559E-15	1.719825E-17
6.884065E+03	1.938258E-15	1.719119E-17
6.894013E+03	1.941021E-15	1.719100E-17
6.903961E+03	1.944633E-15	1.719576E-17
6.913909E+03	1.948886E-15	1.720362E-17
6.923857E+03	1.953555E-15	1.721257E-17
6.933806E+03	1.958458E-15	1.722101E-17
6.943754E+03	1.963457E-15	1.722773E-17
6.953702E+03	1.968404E-15	1.723146E-17
6.963650E+03	1.973113E-15	1.723060E-17
6.973598E+03	1.977539E-15	1.722481E-17
6.983546E+03	1.981569E-15	1.721315E-17
6.993494E+03	1.985145E-15	1.719520E-17
7.003442E+03	1.988230E-15	1.717075E-17
7.013390E+03	1.990814E-15	1.713977E-17
7.023338E+03	1.992903E-15	1.710244E-17
7.033286E+03	1.994496E-15	1.705885E-17
7.043234E+03	1.995667E-15	1.700978E-17
7.053182E+03	1.996477E-15	1.695583E-17
7.063130E+03	1.996936E-15	1.689725E-17
7.073079E+03	1.997185E-15	1.683534E-17
7.083027E+03	1.997310E-15	1.677095E-17
7.092975E+03	1.997336E-15	1.670441E-17
7.102923E+03	1.997376E-15	1.663681E-17
7.112871E+03	1.997542E-15	1.656917E-17
7.122819E+03	1.997811E-15	1.650145E-17
7.132767E+03	1.998332E-15	1.643499E-17
7.142715E+03	1.999086E-15	1.636976E-17
7.152663E+03	2.000131E-15	1.630635E-17
7.162611E+03	2.001443E-15	1.624471E-17
7.172559E+03	2.003012E-15	1.618489E-17
7.182507E+03	2.004839E-15	1.612705E-17
7.192455E+03	2.006817E-15	1.607050E-17
7.202403E+03	2.008914E-15	1.601515E-17
7.212352E+03	2.011056E-15	1.596062E-17
7.222300E+03	2.013158E-15	1.590644E-17
7.232248E+03	2.015100E-15	1.585190E-17
7.242196E+03	2.016819E-15	1.579674E-17
7.252144E+03	2.018191E-15	1.574029E-17
7.262092E+03	2.019160E-15	1.568237E-17
7.272040E+03	2.019578E-15	1.562215E-17
7.281988E+03	2.019438E-15	1.555989E-17
7.291936E+03	2.018641E-15	1.549515E-17
7.301884E+03	2.017098E-15	1.542759E-17
7.311832E+03	2.014826E-15	1.535768E-17
7.321780E+03	2.011720E-15	1.528495E-17
7.331728E+03	2.007774E-15	1.520971E-17
7.341676E+03	2.002989E-15	1.513231E-17
7.351625E+03	1.997266E-15	1.505234E-17
7.361573E+03	1.990610E-15	1.497013E-17
7.371521E+03	1.982989E-15	1.488579E-17
7.381469E+03	1.974375E-15	1.479938E-17
7.391417E+03	1.964742E-15	1.471098E-17
7.401365E+03	1.954100E-15	1.462094E-17
7.411313E+03	1.942403E-15	1.452913E-17
7.421261E+03	1.929651E-15	1.443575E-17
7.431209E+03	1.915922E-15	1.434155E-17
7.441157E+03	1.901187E-15	1.424645E-17
7.451105E+03	1.885536E-15	1.415121E-17
7.461053E+03	1.869026E-15	1.405633E-17
7.471001E+03	1.851813E-15	1.396300E-17
7.480949E+03	1.834022E-15	1.387217E-17
7.490898E+03	1.815851E-15	1.378530E-17
7.500846E+03	1.797574E-15	1.370442E-17
7.510794E+03	1.779445E-15	1.363143E-17
7.520742E+03	1.761827E-15	1.356897E-17
7.530690E+03	1.745068E-15	1.351947E-17
7.540638E+03	1.729589E-15	1.348597E-17
7.550586E+03	1.715878E-15	1.347215E-17
7.560534E+03	1.704365E-15	1.348138E-17
7.570482E+03	1.695484E-15	1.351721E-17
7.580430E+03	1.689456E-15	1.358162E-17
7.590378E+03	1.686226E-15	1.367451E-17
7.600326E+03	1.685548E-15	1.379422E-17
7.610274E+03	1.687105E-15	1.393853E-17
7.620222E+03	1.690610E-15	1.410538E-17
7.630171E+03	1.695737E-15	1.429237E-17
7.640119E+03	1.702214E-15	1.449744E-17
7.650067E+03	1.709853E-15	1.471920E-17
7.660015E+03	1.718365E-15	1.495534E-17
7.669963E+03	1.727563E-15	1.520434E-17
7.679911E+03	1.737248E-15	1.546453E-17
7.689859E+03	1.747259E-15	1.573448E-17
7.699807E+03	1.757384E-15	1.601227E-17
7.709755E+03	1.767455E-15	1.629626E-17
7.719703E+03	1.777344E-15	1.658513E-17
