#wls	flux	fluxerr
1.591691E+03	1.273612E-18	9.669248E-20
1.631484E+03	1.206290E-18	9.099546E-20
1.671276E+03	1.140304E-18	8.545124E-20
1.711068E+03	1.076914E-18	8.015364E-20
1.750861E+03	1.015538E-18	7.505752E-20
1.790653E+03	9.560963E-19	7.015595E-20
1.830445E+03	8.990180E-19	6.547905E-20
1.870237E+03	8.433105E-19	6.095311E-20
1.910030E+03	7.890282E-19	5.658162E-20
1.949822E+03	7.361442E-19	5.236213E-20
1.989614E+03	6.852590E-19	4.833641E-20
2.029406E+03	6.380597E-19	4.462073E-20
2.069199E+03	5.975358E-19	4.141730E-20
2.108991E+03	5.673967E-19	3.896999E-20
2.148783E+03	5.505473E-19	3.745788E-20
2.188576E+03	5.475881E-19	3.689632E-20
2.228368E+03	5.566632E-19	3.713414E-20
2.268160E+03	5.747018E-19	3.794394E-20
2.307952E+03	5.988734E-19	3.912159E-20
2.347745E+03	6.273427E-19	4.053461E-20
2.387537E+03	6.593110E-19	4.212157E-20
2.427329E+03	6.945532E-19	4.385924E-20
2.467122E+03	7.338658E-19	4.578855E-20
2.506914E+03	7.777623E-19	4.793024E-20
2.546706E+03	8.268857E-19	5.031100E-20
2.586498E+03	8.826169E-19	5.299939E-20
2.626291E+03	9.456067E-19	5.601582E-20
2.666083E+03	1.017278E-18	5.942310E-20
2.705875E+03	1.099009E-18	6.327616E-20
2.745668E+03	1.192665E-18	6.765215E-20
2.785460E+03	1.299876E-18	7.260764E-20
2.825252E+03	1.422856E-18	7.822495E-20
2.865044E+03	1.564943E-18	8.463794E-20
2.904837E+03	1.729160E-18	9.195060E-20
2.944629E+03	1.919978E-18	1.003299E-19
2.984421E+03	2.142985E-18	1.099821E-19
2.994369E+03	2.204605E-18	1.126254E-19
3.004317E+03	2.269075E-18	1.153827E-19
3.014266E+03	2.335617E-18	1.182126E-19
3.024214E+03	2.405769E-18	1.211909E-19
3.034162E+03	2.478361E-18	1.242561E-19
3.044110E+03	2.555056E-18	1.274895E-19
3.054058E+03	2.634601E-18	1.308255E-19
3.064006E+03	2.718158E-18	1.343195E-19
3.073954E+03	2.805930E-18	1.379783E-19
3.083902E+03	2.898131E-18	1.418091E-19
3.093850E+03	2.993868E-18	1.457651E-19
3.103798E+03	3.095049E-18	1.499359E-19
3.113746E+03	3.200796E-18	1.542750E-19
3.123694E+03	3.311973E-18	1.588202E-19
3.133642E+03	3.428900E-18	1.635826E-19
3.143590E+03	3.551268E-18	1.685431E-19
3.153539E+03	3.680739E-18	1.737758E-19
3.163487E+03	3.816396E-18	1.792320E-19
3.173435E+03	3.959328E-18	1.849580E-19
3.183383E+03	4.109284E-18	1.909361E-19
3.193331E+03	4.268226E-18	1.972516E-19
3.203279E+03	4.436011E-18	2.038909E-19
3.213227E+03	4.612450E-18	2.108383E-19
3.223175E+03	4.799806E-18	2.181898E-19
3.233123E+03	4.998035E-18	2.259349E-19
3.243071E+03	5.207946E-18	2.341012E-19
3.253019E+03	5.430418E-18	2.427189E-19
3.262967E+03	5.667374E-18	2.518633E-19
3.272915E+03	5.918004E-18	2.614873E-19
3.282863E+03	6.185408E-18	2.717161E-19
3.292812E+03	6.470976E-18	2.825970E-19
3.302760E+03	6.774027E-18	2.940860E-19
3.312708E+03	7.099406E-18	3.063782E-19
3.322656E+03	7.445497E-18	3.193866E-19
3.332604E+03	7.817715E-18	3.333254E-19
3.342552E+03	8.215803E-18	3.481628E-19
3.352500E+03	8.641970E-18	3.639710E-19
3.362448E+03	9.101397E-18	3.809446E-19
3.372396E+03	9.594123E-18	3.990583E-19
3.382344E+03	1.012447E-17	4.184641E-19
3.392292E+03	1.069564E-17	4.392630E-19
3.402240E+03	1.131270E-17	4.616294E-19
3.412188E+03	1.197601E-17	4.855407E-19
3.422136E+03	1.269096E-17	5.111763E-19
3.432085E+03	1.346341E-17	5.387295E-19
3.442033E+03	1.429573E-17	5.682479E-19
3.451981E+03	1.519223E-17	5.998532E-19
3.461929E+03	1.615987E-17	6.337664E-19
3.471877E+03	1.720256E-17	6.700824E-19
3.481825E+03	1.832954E-17	7.090975E-19
3.491773E+03	1.954594E-17	7.509408E-19
3.501721E+03	2.086238E-17	7.959448E-19
3.511669E+03	2.229059E-17	8.444731E-19
3.521617E+03	2.383438E-17	8.965781E-19
3.531565E+03	2.550649E-17	9.526415E-19
3.541513E+03	2.731751E-17	1.012952E-18
3.551461E+03	2.927866E-17	1.077811E-18
3.561409E+03	3.140561E-17	1.147668E-18
3.571358E+03	3.370753E-17	1.222722E-18
3.581306E+03	3.620193E-17	1.303461E-18
3.591254E+03	3.889893E-17	1.390090E-18
3.601202E+03	4.181796E-17	1.483135E-18
3.611150E+03	4.497013E-17	1.582807E-18
3.621098E+03	4.838224E-17	1.689853E-18
3.631046E+03	5.206148E-17	1.804312E-18
3.640994E+03	5.603128E-17	1.926774E-18
3.650942E+03	6.031703E-17	2.057869E-18
3.660890E+03	6.493277E-17	2.197820E-18
3.670838E+03	6.989869E-17	2.347037E-18
3.680786E+03	7.524306E-17	2.506181E-18
3.690734E+03	8.097993E-17	2.675412E-18
3.700682E+03	8.713858E-17	2.855375E-18
3.710631E+03	9.374117E-17	3.046452E-18
3.720579E+03	1.008096E-16	3.248992E-18
3.730527E+03	1.083652E-16	3.463308E-18
3.740475E+03	1.164184E-16	3.689332E-18
3.750423E+03	1.250204E-16	3.928285E-18
3.760371E+03	1.341579E-16	4.179309E-18
3.770319E+03	1.438829E-16	4.443585E-18
3.780267E+03	1.541743E-16	4.720003E-18
3.790215E+03	1.650832E-16	5.009663E-18
3.800163E+03	1.766079E-16	5.312024E-18
3.810111E+03	1.887400E-16	5.626354E-18
3.820059E+03	2.015118E-16	5.953128E-18
3.830007E+03	2.149064E-16	6.291353E-18
3.839955E+03	2.289331E-16	6.640812E-18
3.849904E+03	2.435614E-16	7.000137E-18
3.859852E+03	2.587691E-16	7.368234E-18
3.869800E+03	2.745651E-16	7.744909E-18
3.879748E+03	2.908936E-16	8.128159E-18
3.889696E+03	3.076855E-16	8.515667E-18
3.899644E+03	3.249221E-16	8.906584E-18
3.909592E+03	3.425324E-16	9.298656E-18
3.919540E+03	3.604066E-16	9.688664E-18
3.929488E+03	3.784381E-16	1.007360E-17
3.939436E+03	3.965497E-16	1.045135E-17
3.949384E+03	4.145446E-16	1.081674E-17
3.959332E+03	4.322728E-16	1.116605E-17
3.969280E+03	4.495594E-16	1.149505E-17
3.979228E+03	4.661505E-16	1.179771E-17
3.989176E+03	4.818178E-16	1.206891E-17
3.999125E+03	4.962516E-16	1.230175E-17
4.009073E+03	5.091645E-16	1.249018E-17
4.019021E+03	5.202127E-16	1.262710E-17
4.028969E+03	5.290516E-16	1.270572E-17
4.038917E+03	5.354179E-16	1.272153E-17
4.048865E+03	5.390663E-16	1.267072E-17
4.058813E+03	5.399933E-16	1.255532E-17
4.068761E+03	5.383162E-16	1.238013E-17
4.078709E+03	5.343588E-16	1.215452E-17
4.088657E+03	5.285787E-16	1.189053E-17
4.098605E+03	5.215719E-16	1.160280E-17
4.108553E+03	5.139523E-16	1.130575E-17
4.118501E+03	5.063533E-16	1.101362E-17
4.128449E+03	4.992906E-16	1.073751E-17
4.138398E+03	4.933038E-16	1.048847E-17
4.148346E+03	4.887239E-16	1.027271E-17
4.158294E+03	4.859149E-16	1.009677E-17
4.168242E+03	4.850276E-16	9.962507E-18
4.178190E+03	4.862639E-16	9.872676E-18
4.188138E+03	4.897191E-16	9.827734E-18
4.198086E+03	4.954942E-16	9.828185E-18
4.208034E+03	5.036773E-16	9.874221E-18
4.217982E+03	5.144373E-16	9.967551E-18
4.227930E+03	5.279308E-16	1.010954E-17
4.237878E+03	5.443682E-16	1.030246E-17
4.247826E+03	5.639918E-16	1.054907E-17
4.257774E+03	5.869994E-16	1.085111E-17
4.267722E+03	6.135864E-16	1.121021E-17
4.277671E+03	6.438004E-16	1.162522E-17
4.287619E+03	6.775094E-16	1.209181E-17
4.297567E+03	7.143829E-16	1.260238E-17
4.307515E+03	7.537074E-16	1.314298E-17
4.317463E+03	7.944115E-16	1.369417E-17
4.327411E+03	8.350153E-16	1.423045E-17
4.337359E+03	8.734400E-16	1.471742E-17
4.347307E+03	9.070135E-16	1.511242E-17
4.357255E+03	9.326314E-16	1.536758E-17
4.367203E+03	9.469221E-16	1.543282E-17
4.377151E+03	9.493953E-16	1.530668E-17
4.387099E+03	9.425213E-16	1.503500E-17
4.397047E+03	9.289693E-16	1.466474E-17
4.406995E+03	9.112352E-16	1.423821E-17
4.416944E+03	8.915411E-16	1.379169E-17
4.426892E+03	8.719450E-16	1.335746E-17
4.436840E+03	8.541469E-16	1.296113E-17
4.446788E+03	8.396168E-16	1.262387E-17
4.456736E+03	8.296767E-16	1.236391E-17
4.466684E+03	8.255001E-16	1.219674E-17
4.476632E+03	8.280423E-16	1.213421E-17
4.486580E+03	8.380095E-16	1.218435E-17
4.496528E+03	8.556448E-16	1.234845E-17
4.506476E+03	8.809277E-16	1.262422E-17
4.516424E+03	9.136458E-16	1.300698E-17
4.526372E+03	9.534644E-16	1.349070E-17
4.536320E+03	9.998882E-16	1.406752E-17
4.546268E+03	1.052330E-15	1.472878E-17
4.556217E+03	1.109974E-15	1.546303E-17
4.566165E+03	1.171884E-15	1.625749E-17
4.576113E+03	1.236902E-15	1.709650E-17
4.586061E+03	1.303780E-15	1.796352E-17
4.596009E+03	1.371148E-15	1.884056E-17
4.605957E+03	1.437486E-15	1.970775E-17
4.615905E+03	1.501250E-15	2.054498E-17
4.625853E+03	1.560936E-15	2.133272E-17
4.635801E+03	1.615119E-15	2.205239E-17
4.645749E+03	1.662652E-15	2.268907E-17
4.655697E+03	1.702731E-15	2.323230E-17
4.665645E+03	1.734994E-15	2.367734E-17
4.675593E+03	1.759652E-15	2.402703E-17
4.685541E+03	1.777490E-15	2.429183E-17
4.695490E+03	1.789691E-15	2.448745E-17
4.705438E+03	1.797840E-15	2.463501E-17
4.715386E+03	1.803669E-15	2.475769E-17
4.725334E+03	1.808978E-15	2.487967E-17
4.735282E+03	1.815347E-15	2.502230E-17
4.745230E+03	1.824131E-15	2.520400E-17
4.755178E+03	1.836292E-15	2.543797E-17
4.765126E+03	1.852467E-15	2.573309E-17
4.775074E+03	1.872885E-15	2.609270E-17
4.785022E+03	1.897589E-15	2.651761E-17
4.794970E+03	1.926461E-15	2.700647E-17
4.804918E+03	1.959247E-15	2.755598E-17
4.814866E+03	1.995528E-15	2.816052E-17
4.824814E+03	2.034701E-15	2.881177E-17
4.834763E+03	2.075954E-15	2.949839E-17
4.844711E+03	2.118219E-15	3.020516E-17
4.854659E+03	2.160179E-15	3.091312E-17
4.864607E+03	2.200300E-15	3.159989E-17
4.874555E+03	2.236757E-15	3.223857E-17
4.884503E+03	2.267643E-15	3.280068E-17
4.894451E+03	2.290988E-15	3.325646E-17
4.904399E+03	2.305011E-15	3.357845E-17
4.914347E+03	2.308264E-15	3.374375E-17
4.924295E+03	2.299860E-15	3.373737E-17
4.934243E+03	2.279785E-15	3.355709E-17
4.944191E+03	2.248924E-15	3.321400E-17
4.954139E+03	2.208679E-15	3.272708E-17
4.964087E+03	2.160558E-15	3.211726E-17
4.974036E+03	2.105700E-15	3.140034E-17
4.983984E+03	2.045070E-15	3.058975E-17
4.993932E+03	1.979567E-15	2.969822E-17
5.003880E+03	1.910264E-15	2.874134E-17
5.013828E+03	1.838277E-15	2.773555E-17
5.023776E+03	1.765082E-15	2.670299E-17
5.033724E+03	1.692349E-15	2.566907E-17
5.043672E+03	1.621863E-15	2.466117E-17
5.053620E+03	1.555308E-15	2.370547E-17
5.063568E+03	1.494304E-15	2.282737E-17
5.073516E+03	1.440216E-15	2.204857E-17
5.083464E+03	1.394217E-15	2.138796E-17
5.093412E+03	1.357262E-15	2.086115E-17
5.103360E+03	1.329990E-15	2.047894E-17
5.113309E+03	1.312634E-15	2.024585E-17
5.123257E+03	1.304926E-15	2.015855E-17
5.133205E+03	1.306256E-15	2.020834E-17
5.143153E+03	1.315850E-15	2.038379E-17
5.153101E+03	1.332813E-15	2.067146E-17
5.163049E+03	1.356235E-15	2.105754E-17
5.172997E+03	1.385251E-15	2.152877E-17
5.182945E+03	1.419113E-15	2.207360E-17
5.192893E+03	1.457164E-15	2.268180E-17
5.202841E+03	1.498780E-15	2.334358E-17
5.212789E+03	1.543400E-15	2.405010E-17
5.222737E+03	1.590442E-15	2.479210E-17
5.232685E+03	1.639365E-15	2.556096E-17
5.242633E+03	1.689554E-15	2.634687E-17
5.252582E+03	1.740391E-15	2.713995E-17
5.262530E+03	1.791203E-15	2.792950E-17
5.272478E+03	1.841209E-15	2.870309E-17
5.282426E+03	1.889518E-15	2.944664E-17
5.292374E+03	1.935171E-15	3.014507E-17
5.302322E+03	1.977172E-15	3.078274E-17
5.312270E+03	2.014487E-15	3.134351E-17
5.322218E+03	2.046206E-15	3.181332E-17
5.332166E+03	2.071589E-15	3.218073E-17
5.342114E+03	2.090113E-15	3.243792E-17
5.352062E+03	2.101387E-15	3.257907E-17
5.362010E+03	2.105131E-15	3.260031E-17
5.371958E+03	2.101246E-15	3.250056E-17
5.381906E+03	2.089931E-15	3.228344E-17
5.391855E+03	2.071694E-15	3.195741E-17
5.401803E+03	2.047392E-15	3.153630E-17
5.411751E+03	2.018467E-15	3.104288E-17
5.421699E+03	1.986905E-15	3.050821E-17
5.431647E+03	1.955080E-15	2.996909E-17
5.441595E+03	1.925490E-15	2.946398E-17
5.451543E+03	1.900690E-15	2.903193E-17
5.461491E+03	1.883169E-15	2.871068E-17
5.471439E+03	1.874387E-15	2.852197E-17
5.481387E+03	1.872941E-15	2.844379E-17
5.491335E+03	1.876961E-15	2.844710E-17
5.501283E+03	1.884680E-15	2.850459E-17
5.511231E+03	1.894594E-15	2.859313E-17
5.521179E+03	1.905420E-15	2.869312E-17
5.531128E+03	1.916396E-15	2.879295E-17
5.541076E+03	1.927414E-15	2.889090E-17
5.551024E+03	1.938799E-15	2.899177E-17
5.560972E+03	1.951128E-15	2.910401E-17
5.570920E+03	1.965024E-15	2.923676E-17
5.580868E+03	1.980945E-15	2.939652E-17
5.590816E+03	1.998942E-15	2.958379E-17
5.600764E+03	2.018352E-15	2.978840E-17
5.610712E+03	2.037771E-15	2.998947E-17
5.620660E+03	2.054896E-15	3.015314E-17
5.630608E+03	2.066551E-15	3.023314E-17
5.640556E+03	2.069228E-15	3.017904E-17
5.650504E+03	2.060077E-15	2.995060E-17
5.660452E+03	2.037690E-15	2.952906E-17
5.670401E+03	2.002175E-15	2.891799E-17
5.680349E+03	1.955016E-15	2.814074E-17
5.690297E+03	1.899085E-15	2.724042E-17
5.700245E+03	1.837973E-15	2.626986E-17
5.710193E+03	1.775286E-15	2.528144E-17
5.720141E+03	1.714354E-15	2.432287E-17
5.730089E+03	1.658237E-15	2.343735E-17
5.740037E+03	1.609973E-15	2.266706E-17
5.749985E+03	1.572607E-15	2.205361E-17
5.759933E+03	1.548945E-15	2.163454E-17
5.769881E+03	1.541043E-15	2.143627E-17
5.779829E+03	1.549887E-15	2.146984E-17
5.789777E+03	1.575724E-15	2.173585E-17
5.799725E+03	1.618218E-15	2.222674E-17
5.809674E+03	1.676267E-15	2.292456E-17
5.819622E+03	1.748024E-15	2.380144E-17
5.829570E+03	1.830695E-15	2.481709E-17
5.839518E+03	1.920340E-15	2.591643E-17
5.849466E+03	2.011887E-15	2.703019E-17
5.859414E+03	2.099318E-15	2.807768E-17
5.869362E+03	2.176101E-15	2.897286E-17
5.879310E+03	2.236144E-15	2.963717E-17
5.889258E+03	2.275410E-15	3.002067E-17
5.899206E+03	2.293072E-15	3.011652E-17
5.909154E+03	2.291192E-15	2.995584E-17
5.919102E+03	2.273376E-15	2.958937E-17
5.929050E+03	2.243833E-15	2.907467E-17
5.938998E+03	2.206841E-15	2.846922E-17
5.948946E+03	2.166012E-15	2.782089E-17
5.958895E+03	2.124075E-15	2.716543E-17
5.968843E+03	2.082936E-15	2.652746E-17
5.978791E+03	2.043991E-15	2.592473E-17
5.988739E+03	2.008310E-15	2.537052E-17
5.998687E+03	1.976719E-15	2.487492E-17
6.008635E+03	1.949953E-15	2.444669E-17
6.018583E+03	1.928688E-15	2.409376E-17
6.028531E+03	1.913487E-15	2.382262E-17
6.038479E+03	1.904760E-15	2.363779E-17
6.048427E+03	1.902606E-15	2.354002E-17
6.058375E+03	1.906809E-15	2.352622E-17
6.068323E+03	1.916681E-15	2.358765E-17
6.078271E+03	1.930948E-15	2.370859E-17
6.088219E+03	1.947771E-15	2.386660E-17
6.098168E+03	1.964903E-15	2.403454E-17
6.108116E+03	1.979788E-15	2.418170E-17
6.118064E+03	1.990042E-15	2.427963E-17
6.128012E+03	1.994139E-15	2.431039E-17
6.137960E+03	1.991946E-15	2.427291E-17
6.147908E+03	1.984371E-15	2.417867E-17
6.157856E+03	1.972948E-15	2.404654E-17
6.167804E+03	1.959461E-15	2.389843E-17
6.177752E+03	1.945646E-15	2.375552E-17
6.187700E+03	1.933047E-15	2.363659E-17
6.197648E+03	1.922805E-15	2.355521E-17
6.207596E+03	1.915822E-15	2.352210E-17
6.217544E+03	1.911431E-15	2.352886E-17
6.227492E+03	1.906796E-15	2.354028E-17
6.237441E+03	1.899213E-15	2.352238E-17
6.247389E+03	1.886710E-15	2.344986E-17
6.257337E+03	1.868565E-15	2.331248E-17
6.267285E+03	1.844876E-15	2.311010E-17
6.277233E+03	1.816250E-15	2.284888E-17
6.287181E+03	1.783459E-15	2.253715E-17
6.297129E+03	1.747454E-15	2.218559E-17
6.307077E+03	1.709364E-15	2.180740E-17
6.317025E+03	1.670498E-15	2.141832E-17
6.326973E+03	1.632291E-15	2.103610E-17
6.336921E+03	1.596282E-15	2.068024E-17
6.346869E+03	1.564042E-15	2.037113E-17
6.356817E+03	1.537182E-15	2.013017E-17
6.366765E+03	1.517236E-15	1.997831E-17
6.376714E+03	1.505708E-15	1.993659E-17
6.386662E+03	1.503976E-15	2.002488E-17
6.396610E+03	1.513262E-15	2.026142E-17
6.406558E+03	1.534490E-15	2.066088E-17
6.416506E+03	1.568282E-15	2.123414E-17
6.426454E+03	1.614844E-15	2.198656E-17
6.436402E+03	1.673744E-15	2.291491E-17
6.446350E+03	1.743893E-15	2.400668E-17
6.456298E+03	1.823653E-15	2.524142E-17
6.466246E+03	1.910801E-15	2.659001E-17
6.476194E+03	2.002457E-15	2.801340E-17
6.486142E+03	2.095014E-15	2.946137E-17
6.496090E+03	2.184271E-15	3.087424E-17
6.506038E+03	2.265545E-15	3.218423E-17
6.515987E+03	2.333915E-15	3.331885E-17
6.525935E+03	2.384906E-15	3.421066E-17
6.535883E+03	2.414778E-15	3.480171E-17
6.545831E+03	2.421395E-15	3.505640E-17
6.555779E+03	2.404727E-15	3.496942E-17
6.565727E+03	2.366594E-15	3.456272E-17
6.575675E+03	2.310542E-15	3.388424E-17
6.585623E+03	2.241245E-15	3.299963E-17
6.595571E+03	2.163875E-15	3.198320E-17
6.605519E+03	2.083376E-15	3.090721E-17
6.615467E+03	2.004025E-15	2.983517E-17
6.625415E+03	1.929178E-15	2.881773E-17
6.635363E+03	1.861030E-15	2.788885E-17
6.645311E+03	1.800455E-15	2.706298E-17
6.655260E+03	1.747530E-15	2.634260E-17
6.665208E+03	1.701855E-15	2.572297E-17
6.675156E+03	1.662725E-15	2.519450E-17
6.685104E+03	1.629255E-15	2.474471E-17
6.695052E+03	1.600446E-15	2.435919E-17
6.705000E+03	1.575222E-15	2.402209E-17
6.714948E+03	1.552499E-15	2.371735E-17
6.724896E+03	1.531528E-15	2.343379E-17
6.734844E+03	1.511880E-15	2.316511E-17
6.744792E+03	1.493412E-15	2.290929E-17
6.754740E+03	1.476088E-15	2.266596E-17
6.764688E+03	1.459912E-15	2.243531E-17
6.774636E+03	1.444900E-15	2.221775E-17
6.784584E+03	1.431072E-15	2.201371E-17
6.794533E+03	1.418439E-15	2.182347E-17
6.804481E+03	1.406983E-15	2.164685E-17
6.814429E+03	1.396708E-15	2.148397E-17
6.824377E+03	1.387576E-15	2.133430E-17
6.834325E+03	1.379498E-15	2.119654E-17
6.844273E+03	1.372448E-15	2.107029E-17
6.854221E+03	1.366280E-15	2.095334E-17
6.864169E+03	1.360901E-15	2.084425E-17
6.874117E+03	1.356203E-15	2.074139E-17
6.884065E+03	1.352027E-15	2.064231E-17
6.894013E+03	1.348245E-15	2.054506E-17
6.903961E+03	1.344749E-15	2.044800E-17
6.913909E+03	1.341425E-15	2.034942E-17
6.923857E+03	1.338157E-15	2.024756E-17
6.933806E+03	1.334860E-15	2.014123E-17
6.943754E+03	1.331476E-15	2.002957E-17
6.953702E+03	1.327968E-15	1.991210E-17
6.963650E+03	1.324329E-15	1.978879E-17
6.973598E+03	1.320559E-15	1.965975E-17
6.983546E+03	1.316729E-15	1.952609E-17
6.993494E+03	1.312913E-15	1.938903E-17
7.003442E+03	1.309187E-15	1.924972E-17
7.013390E+03	1.305709E-15	1.911058E-17
7.023338E+03	1.302611E-15	1.897356E-17
7.033286E+03	1.300034E-15	1.884069E-17
7.043234E+03	1.298175E-15	1.871481E-17
7.053182E+03	1.297167E-15	1.859776E-17
7.063130E+03	1.297170E-15	1.849167E-17
7.073079E+03	1.298344E-15	1.839870E-17
7.083027E+03	1.300825E-15	1.832049E-17
7.092975E+03	1.304685E-15	1.825785E-17
7.102923E+03	1.310046E-15	1.821215E-17
7.112871E+03	1.316948E-15	1.818361E-17
7.122819E+03	1.325404E-15	1.817207E-17
7.132767E+03	1.335444E-15	1.817756E-17
7.142715E+03	1.346998E-15	1.819876E-17
7.152663E+03	1.360016E-15	1.823463E-17
7.162611E+03	1.374379E-15	1.828323E-17
7.172559E+03	1.389970E-15	1.834273E-17
7.182507E+03	1.406609E-15	1.841051E-17
7.192455E+03	1.424123E-15	1.848412E-17
7.202403E+03	1.442280E-15	1.856049E-17
7.212352E+03	1.460847E-15	1.863662E-17
7.222300E+03	1.479582E-15	1.870953E-17
7.232248E+03	1.498259E-15	1.877664E-17
7.242196E+03	1.516602E-15	1.883482E-17
7.252144E+03	1.534437E-15	1.888237E-17
7.262092E+03	1.551558E-15	1.891736E-17
7.272040E+03	1.567825E-15	1.893873E-17
7.281988E+03	1.583147E-15	1.894616E-17
7.291936E+03	1.597484E-15	1.894001E-17
7.301884E+03	1.610855E-15	1.892136E-17
7.311832E+03	1.623345E-15	1.889211E-17
7.321780E+03	1.635034E-15	1.885412E-17
7.331728E+03	1.646049E-15	1.880974E-17
7.341676E+03	1.656546E-15	1.876169E-17
7.351625E+03	1.666629E-15	1.871206E-17
7.361573E+03	1.676451E-15	1.866345E-17
7.371521E+03	1.686040E-15	1.861709E-17
7.381469E+03	1.695473E-15	1.857480E-17
7.391417E+03	1.704719E-15	1.853719E-17
7.401365E+03	1.713728E-15	1.850473E-17
7.411313E+03	1.722456E-15	1.847801E-17
7.421261E+03	1.730741E-15	1.845639E-17
7.431209E+03	1.738494E-15	1.844005E-17
7.441157E+03	1.745548E-15	1.842839E-17
7.451105E+03	1.751783E-15	1.842132E-17
7.461053E+03	1.757020E-15	1.841808E-17
7.471001E+03	1.761190E-15	1.841909E-17
7.480949E+03	1.764146E-15	1.842387E-17
7.490898E+03	1.765859E-15	1.843310E-17
7.500846E+03	1.766224E-15	1.844652E-17
7.510794E+03	1.765201E-15	1.846448E-17
7.520742E+03	1.762791E-15	1.848759E-17
7.530690E+03	1.758964E-15	1.851593E-17
7.540638E+03	1.753753E-15	1.855016E-17
7.550586E+03	1.747172E-15	1.859026E-17
7.560534E+03	1.739298E-15	1.863628E-17
7.570482E+03	1.730303E-15	1.868913E-17
7.580430E+03	1.720377E-15	1.874984E-17
7.590378E+03	1.709688E-15	1.881915E-17
7.600326E+03	1.698463E-15	1.889845E-17
7.610274E+03	1.686918E-15	1.898906E-17
7.620222E+03	1.675305E-15	1.909276E-17
7.630171E+03	1.663797E-15	1.921055E-17
7.640119E+03	1.652562E-15	1.934351E-17
7.650067E+03	1.641701E-15	1.949201E-17
7.660015E+03	1.631243E-15	1.965567E-17
7.669963E+03	1.621247E-15	1.983453E-17
7.679911E+03	1.611675E-15	2.002753E-17
7.689859E+03	1.602465E-15	2.023329E-17
7.699807E+03	1.593613E-15	2.045118E-17
7.709755E+03	1.585062E-15	2.067993E-17
7.719703E+03	1.576704E-15	2.091759E-17
