#wls	flux	fluxerr
1.591691E+03	6.259297E-19	1.968624E-19
1.631484E+03	6.209458E-19	1.941628E-19
1.671276E+03	6.147375E-19	1.910803E-19
1.711068E+03	6.077810E-19	1.877693E-19
1.750861E+03	5.996801E-19	1.841128E-19
1.790653E+03	5.906194E-19	1.801742E-19
1.830445E+03	5.799130E-19	1.757522E-19
1.870237E+03	5.674033E-19	1.708100E-19
1.910030E+03	5.529252E-19	1.653102E-19
1.949822E+03	5.359806E-19	1.591186E-19
1.989614E+03	5.172703E-19	1.524589E-19
2.029406E+03	4.978029E-19	1.456393E-19
2.069199E+03	4.804785E-19	1.395087E-19
2.108991E+03	4.686360E-19	1.350169E-19
2.148783E+03	4.655021E-19	1.330500E-19
2.188576E+03	4.720174E-19	1.338154E-19
2.228368E+03	4.873611E-19	1.370141E-19
2.268160E+03	5.089371E-19	1.418580E-19
2.307952E+03	5.343515E-19	1.476382E-19
2.347745E+03	5.616448E-19	1.537868E-19
2.387537E+03	5.900019E-19	1.600654E-19
2.427329E+03	6.189748E-19	1.663421E-19
2.467122E+03	6.486795E-19	1.726395E-19
2.506914E+03	6.798055E-19	1.791297E-19
2.546706E+03	7.125079E-19	1.858382E-19
2.586498E+03	7.475146E-19	1.929362E-19
2.626291E+03	7.852579E-19	2.005109E-19
2.666083E+03	8.267871E-19	2.087999E-19
2.705875E+03	8.726814E-19	2.179111E-19
2.745668E+03	9.235942E-19	2.279628E-19
2.785460E+03	9.809330E-19	2.392489E-19
2.825252E+03	1.045441E-18	2.518852E-19
2.865044E+03	1.118960E-18	2.662384E-19
2.904837E+03	1.202942E-18	2.825596E-19
2.944629E+03	1.299674E-18	3.012740E-19
2.984421E+03	1.411080E-18	3.226919E-19
2.994369E+03	1.441727E-18	3.285659E-19
3.004317E+03	1.473509E-18	3.346459E-19
3.014266E+03	1.506478E-18	3.409406E-19
3.024214E+03	1.541014E-18	3.475326E-19
3.034162E+03	1.576615E-18	3.543053E-19
3.044110E+03	1.614005E-18	3.614181E-19
3.054058E+03	1.652972E-18	3.688189E-19
3.064006E+03	1.693573E-18	3.765164E-19
3.073954E+03	1.735866E-18	3.845194E-19
3.083902E+03	1.779918E-18	3.928379E-19
3.093850E+03	1.825794E-18	4.014820E-19
3.103798E+03	1.873931E-18	4.105427E-19
3.113746E+03	1.924060E-18	4.199551E-19
3.123694E+03	1.976262E-18	4.297317E-19
3.133642E+03	2.030623E-18	4.398860E-19
3.143590E+03	2.087236E-18	4.504321E-19
3.153539E+03	2.146195E-18	4.613844E-19
3.163487E+03	2.208017E-18	4.728475E-19
3.173435E+03	2.272414E-18	4.847521E-19
3.183383E+03	2.339496E-18	4.971150E-19
3.193331E+03	2.409379E-18	5.099537E-19
3.203279E+03	2.482186E-18	5.232864E-19
3.213227E+03	2.558515E-18	5.372311E-19
3.223175E+03	2.637567E-18	5.516111E-19
3.233123E+03	2.720435E-18	5.666469E-19
3.243071E+03	2.806792E-18	5.822604E-19
3.253019E+03	2.896786E-18	5.984729E-19
3.262967E+03	2.991109E-18	6.154169E-19
3.272915E+03	3.088859E-18	6.328960E-19
3.282863E+03	3.191291E-18	6.511569E-19
3.292812E+03	3.298040E-18	6.701127E-19
3.302760E+03	3.409279E-18	6.897868E-19
3.312708E+03	3.525188E-18	7.102031E-19
3.322656E+03	3.646588E-18	7.315138E-19
3.332604E+03	3.772411E-18	7.534904E-19
3.342552E+03	3.904144E-18	7.764166E-19
3.352500E+03	4.041345E-18	8.001887E-19
3.362448E+03	4.184932E-18	8.249727E-19
3.372396E+03	4.333694E-18	8.505134E-19
3.382344E+03	4.489293E-18	8.771211E-19
3.392292E+03	4.650432E-18	9.045249E-19
3.402240E+03	4.818866E-18	9.330491E-19
3.412188E+03	4.994042E-18	9.625668E-19
3.422136E+03	5.177024E-18	9.932637E-19
3.432085E+03	5.366320E-18	1.024833E-18
3.442033E+03	5.563882E-18	1.057629E-18
3.451981E+03	5.769044E-18	1.091501E-18
3.461929E+03	5.981993E-18	1.126464E-18
3.471877E+03	6.203917E-18	1.162719E-18
3.481825E+03	6.433002E-18	1.199902E-18
3.491773E+03	6.671449E-18	1.238402E-18
3.501721E+03	6.918396E-18	1.278033E-18
3.511669E+03	7.173965E-18	1.318794E-18
3.521617E+03	7.438262E-18	1.360680E-18
3.531565E+03	7.712582E-18	1.403901E-18
3.541513E+03	7.995842E-18	1.448234E-18
3.551461E+03	8.288072E-18	1.493658E-18
3.561409E+03	8.589253E-18	1.540145E-18
3.571358E+03	8.899359E-18	1.587664E-18
3.581306E+03	9.219708E-18	1.636424E-18
3.591254E+03	9.547391E-18	1.685882E-18
3.601202E+03	9.885097E-18	1.736490E-18
3.611150E+03	1.023119E-17	1.787933E-18
3.621098E+03	1.058695E-17	1.840409E-18
3.631046E+03	1.094890E-17	1.893291E-18
3.640994E+03	1.131984E-17	1.947040E-18
3.650942E+03	1.169769E-17	2.001276E-18
3.660890E+03	1.208188E-17	2.055881E-18
3.670838E+03	1.247358E-17	2.111037E-18
3.680786E+03	1.286845E-17	2.165988E-18
3.690734E+03	1.326936E-17	2.221210E-18
3.700682E+03	1.367359E-17	2.276228E-18
3.710631E+03	1.408012E-17	2.330864E-18
3.720579E+03	1.448993E-17	2.385275E-18
3.730527E+03	1.489771E-17	2.438580E-18
3.740475E+03	1.530639E-17	2.491264E-18
3.750423E+03	1.571252E-17	2.542760E-18
3.760371E+03	1.611462E-17	2.592844E-18
3.770319E+03	1.651348E-17	2.641648E-18
3.780267E+03	1.690289E-17	2.688195E-18
3.790215E+03	1.728584E-17	2.732985E-18
3.800163E+03	1.765827E-17	2.775398E-18
3.810111E+03	1.801841E-17	2.815187E-18
3.820059E+03	1.836698E-17	2.852498E-18
3.830007E+03	1.869717E-17	2.886314E-18
3.839955E+03	1.901225E-17	2.917188E-18
3.849904E+03	1.930797E-17	2.944517E-18
3.859852E+03	1.958264E-17	2.968096E-18
3.869800E+03	1.983733E-17	2.988150E-18
3.879748E+03	2.006537E-17	3.003734E-18
3.889696E+03	2.027076E-17	3.015523E-18
3.899644E+03	2.044983E-17	3.023038E-18
3.909592E+03	2.060185E-17	3.026246E-18
3.919540E+03	2.072904E-17	3.025550E-18
3.929488E+03	2.082601E-17	3.020237E-18
3.939436E+03	2.089846E-17	3.011216E-18
3.949384E+03	2.094456E-17	2.998296E-18
3.959332E+03	2.096564E-17	2.981740E-18
3.969280E+03	2.096614E-17	2.962249E-18
3.979228E+03	2.094307E-17	2.939461E-18
3.989176E+03	2.090443E-17	2.914559E-18
3.999125E+03	2.085070E-17	2.887654E-18
4.009073E+03	2.078530E-17	2.859263E-18
4.019021E+03	2.071193E-17	2.829923E-18
4.028969E+03	2.063709E-17	2.800540E-18
4.038917E+03	2.055990E-17	2.771003E-18
4.048865E+03	2.048991E-17	2.742596E-18
4.058813E+03	2.042936E-17	2.715600E-18
4.068761E+03	2.038583E-17	2.690991E-18
4.078709E+03	2.035991E-17	2.668800E-18
4.088657E+03	2.035986E-17	2.650055E-18
4.098605E+03	2.039421E-17	2.635790E-18
4.108553E+03	2.046694E-17	2.626423E-18
4.118501E+03	2.058470E-17	2.622697E-18
4.128449E+03	2.075431E-17	2.625356E-18
4.138398E+03	2.098526E-17	2.635452E-18
4.148346E+03	2.127992E-17	2.653116E-18
4.158294E+03	2.165059E-17	2.679702E-18
4.168242E+03	2.210247E-17	2.715648E-18
4.178190E+03	2.264337E-17	2.761690E-18
4.188138E+03	2.328130E-17	2.818565E-18
4.198086E+03	2.402708E-17	2.887318E-18
4.208034E+03	2.488362E-17	2.968017E-18
4.217982E+03	2.586460E-17	3.061995E-18
4.227930E+03	2.697534E-17	3.169556E-18
4.237878E+03	2.822340E-17	3.291252E-18
4.247826E+03	2.961560E-17	3.427522E-18
4.257774E+03	3.115759E-17	3.578654E-18
4.267722E+03	3.285329E-17	3.744722E-18
4.277671E+03	3.470798E-17	3.925942E-18
4.287619E+03	3.671661E-17	4.121359E-18
4.297567E+03	3.886910E-17	4.329481E-18
4.307515E+03	4.116224E-17	4.549613E-18
4.317463E+03	4.357418E-17	4.779031E-18
4.327411E+03	4.608426E-17	5.015223E-18
4.337359E+03	4.864961E-17	5.253350E-18
4.347307E+03	5.123451E-17	5.489488E-18
4.357255E+03	5.380142E-17	5.719645E-18
4.367203E+03	5.630815E-17	5.939460E-18
4.377151E+03	5.872951E-17	6.146496E-18
4.387099E+03	6.108053E-17	6.342573E-18
4.397047E+03	6.337561E-17	6.529394E-18
4.406995E+03	6.564525E-17	6.710264E-18
4.416944E+03	6.792555E-17	6.888956E-18
4.426892E+03	7.026226E-17	7.070100E-18
4.436840E+03	7.268071E-17	7.256144E-18
4.446788E+03	7.523356E-17	7.452171E-18
4.456736E+03	7.794228E-17	7.660036E-18
4.466684E+03	8.085503E-17	7.884141E-18
4.476632E+03	8.399281E-17	8.126120E-18
4.486580E+03	8.736979E-17	8.386898E-18
4.496528E+03	9.101802E-17	8.669074E-18
4.506476E+03	9.493600E-17	8.971995E-18
4.516424E+03	9.912029E-17	9.294840E-18
4.526372E+03	1.035565E-16	9.635802E-18
4.536320E+03	1.082191E-16	9.992097E-18
4.546268E+03	1.130825E-16	1.036102E-17
4.556217E+03	1.180792E-16	1.073614E-17
4.566165E+03	1.231652E-16	1.111336E-17
4.576113E+03	1.282921E-16	1.148829E-17
4.586061E+03	1.333718E-16	1.185314E-17
4.596009E+03	1.383505E-16	1.220333E-17
4.605957E+03	1.431763E-16	1.253461E-17
4.615905E+03	1.477605E-16	1.283964E-17
4.625853E+03	1.520709E-16	1.311618E-17
4.635801E+03	1.560407E-16	1.335909E-17
4.645749E+03	1.596081E-16	1.356379E-17
4.655697E+03	1.627617E-16	1.373012E-17
4.665645E+03	1.654400E-16	1.385372E-17
4.675593E+03	1.676494E-16	1.393598E-17
4.685541E+03	1.693602E-16	1.397533E-17
4.695490E+03	1.705513E-16	1.397093E-17
4.705438E+03	1.712559E-16	1.392635E-17
4.715386E+03	1.714692E-16	1.384208E-17
4.725334E+03	1.711938E-16	1.371913E-17
4.735282E+03	1.704831E-16	1.356258E-17
4.745230E+03	1.693500E-16	1.337414E-17
4.755178E+03	1.678113E-16	1.315580E-17
4.765126E+03	1.659299E-16	1.291311E-17
4.775074E+03	1.637117E-16	1.264704E-17
4.785022E+03	1.612201E-16	1.236297E-17
4.794970E+03	1.584619E-16	1.206184E-17
4.804918E+03	1.554978E-16	1.174860E-17
4.814866E+03	1.523332E-16	1.142396E-17
4.824814E+03	1.490241E-16	1.109238E-17
4.834763E+03	1.455730E-16	1.075421E-17
4.844711E+03	1.420182E-16	1.041247E-17
4.854659E+03	1.383944E-16	1.006981E-17
4.864607E+03	1.346994E-16	9.726137E-18
4.874555E+03	1.309640E-16	9.383744E-18
4.884503E+03	1.272056E-16	9.043896E-18
4.894451E+03	1.234402E-16	8.707741E-18
4.904399E+03	1.196829E-16	8.376321E-18
4.914347E+03	1.159386E-16	8.049933E-18
4.924295E+03	1.122402E-16	7.730812E-18
4.934243E+03	1.085917E-16	7.419136E-18
4.944191E+03	1.049977E-16	7.115128E-18
4.954139E+03	1.014885E-16	6.820726E-18
4.964087E+03	9.806039E-17	6.535525E-18
4.974036E+03	9.473391E-17	6.260756E-18
4.983984E+03	9.152099E-17	5.997027E-18
4.993932E+03	8.843319E-17	5.744899E-18
5.003880E+03	8.548120E-17	5.504854E-18
5.013828E+03	8.267528E-17	5.277323E-18
5.023776E+03	8.002504E-17	5.062671E-18
5.033724E+03	7.753322E-17	4.860814E-18
5.043672E+03	7.522013E-17	4.672750E-18
5.053620E+03	7.308119E-17	4.497901E-18
5.063568E+03	7.112882E-17	4.336733E-18
5.073516E+03	6.936860E-17	4.189268E-18
5.083464E+03	6.780523E-17	4.055465E-18
5.093412E+03	6.643744E-17	3.934913E-18
5.103360E+03	6.527827E-17	3.828045E-18
5.113309E+03	6.431949E-17	3.734023E-18
5.123257E+03	6.356679E-17	3.652829E-18
5.133205E+03	6.301968E-17	3.584077E-18
5.143153E+03	6.267652E-17	3.527316E-18
5.153101E+03	6.253454E-17	3.482033E-18
5.163049E+03	6.259001E-17	3.447669E-18
5.172997E+03	6.283372E-17	3.423371E-18
5.182945E+03	6.326512E-17	3.408776E-18
5.192893E+03	6.387867E-17	3.403255E-18
5.202841E+03	6.466875E-17	3.406187E-18
5.212789E+03	6.562516E-17	3.416724E-18
5.222737E+03	6.675245E-17	3.434806E-18
5.232685E+03	6.803672E-17	3.459421E-18
5.242633E+03	6.947936E-17	3.490360E-18
5.252582E+03	7.107299E-17	3.526978E-18
5.262530E+03	7.282666E-17	3.569456E-18
5.272478E+03	7.473020E-17	3.617023E-18
5.282426E+03	7.679020E-17	3.669739E-18
5.292374E+03	7.900931E-17	3.727463E-18
5.302322E+03	8.139122E-17	3.790103E-18
5.312270E+03	8.393449E-17	3.857325E-18
5.322218E+03	8.664977E-17	3.929356E-18
5.332166E+03	8.954196E-17	4.006143E-18
5.342114E+03	9.261556E-17	4.087614E-18
5.352062E+03	9.587408E-17	4.173651E-18
5.362010E+03	9.931255E-17	4.263774E-18
5.371958E+03	1.029372E-16	4.358002E-18
5.381906E+03	1.067387E-16	4.455694E-18
5.391855E+03	1.107269E-16	4.557053E-18
5.401803E+03	1.148808E-16	4.660999E-18
5.411751E+03	1.192002E-16	4.767371E-18
5.421699E+03	1.236772E-16	4.875707E-18
5.431647E+03	1.282951E-16	4.985245E-18
5.441595E+03	1.330529E-16	5.095888E-18
5.451543E+03	1.379373E-16	5.207085E-18
5.461491E+03	1.429226E-16	5.317891E-18
5.471439E+03	1.479515E-16	5.426260E-18
5.481387E+03	1.529582E-16	5.530000E-18
5.491335E+03	1.578355E-16	5.625578E-18
5.501283E+03	1.624985E-16	5.710486E-18
5.511231E+03	1.668230E-16	5.781024E-18
5.521179E+03	1.707305E-16	5.835288E-18
5.531128E+03	1.741406E-16	5.871438E-18
5.541076E+03	1.770321E-16	5.889729E-18
5.551024E+03	1.793644E-16	5.889777E-18
5.560972E+03	1.811464E-16	5.872826E-18
5.570920E+03	1.824354E-16	5.841613E-18
5.580868E+03	1.832615E-16	5.797856E-18
5.590816E+03	1.836940E-16	5.744416E-18
5.600764E+03	1.838367E-16	5.685045E-18
5.610712E+03	1.837498E-16	5.621815E-18
5.620660E+03	1.835177E-16	5.557275E-18
5.630608E+03	1.832450E-16	5.494457E-18
5.640556E+03	1.829818E-16	5.434636E-18
5.650504E+03	1.828065E-16	5.379856E-18
5.660452E+03	1.827650E-16	5.331131E-18
5.670401E+03	1.829192E-16	5.289893E-18
5.680349E+03	1.833116E-16	5.256972E-18
5.690297E+03	1.839787E-16	5.232991E-18
5.700245E+03	1.849401E-16	5.218073E-18
5.710193E+03	1.862221E-16	5.212520E-18
5.720141E+03	1.878705E-16	5.217160E-18
5.730089E+03	1.898770E-16	5.231296E-18
5.740037E+03	1.922624E-16	5.255032E-18
5.749985E+03	1.950136E-16	5.287533E-18
5.759933E+03	1.981311E-16	5.328335E-18
5.769881E+03	2.015894E-16	5.376276E-18
5.779829E+03	2.053348E-16	5.429455E-18
5.789777E+03	2.093225E-16	5.486249E-18
5.799725E+03	2.134780E-16	5.544285E-18
5.809674E+03	2.176963E-16	5.600475E-18
5.819622E+03	2.218847E-16	5.652128E-18
5.829570E+03	2.259253E-16	5.696023E-18
5.839518E+03	2.296793E-16	5.728541E-18
5.849466E+03	2.330358E-16	5.746920E-18
5.859414E+03	2.358632E-16	5.748037E-18
5.869362E+03	2.380748E-16	5.730052E-18
5.879310E+03	2.395945E-16	5.691523E-18
5.889258E+03	2.403772E-16	5.631888E-18
5.899206E+03	2.403992E-16	5.551207E-18
5.909154E+03	2.396890E-16	5.450830E-18
5.919102E+03	2.383407E-16	5.333604E-18
5.929050E+03	2.364183E-16	5.201656E-18
5.938998E+03	2.340385E-16	5.058212E-18
5.948946E+03	2.313457E-16	4.906971E-18
5.958895E+03	2.284736E-16	4.751223E-18
5.968843E+03	2.255527E-16	4.594005E-18
5.978791E+03	2.226894E-16	4.437687E-18
5.988739E+03	2.199897E-16	4.284457E-18
5.998687E+03	2.175685E-16	4.136501E-18
6.008635E+03	2.154679E-16	3.994452E-18
6.018583E+03	2.137383E-16	3.859022E-18
6.028531E+03	2.124385E-16	3.730984E-18
6.038479E+03	2.115453E-16	3.609620E-18
6.048427E+03	2.110995E-16	3.495348E-18
6.058375E+03	2.110650E-16	3.387309E-18
6.068323E+03	2.114341E-16	3.285226E-18
6.078271E+03	2.121654E-16	3.188410E-18
6.088219E+03	2.132378E-16	3.096658E-18
6.098168E+03	2.146000E-16	3.009525E-18
6.108116E+03	2.162379E-16	2.927332E-18
6.118064E+03	2.180714E-16	2.849766E-18
6.128012E+03	2.201005E-16	2.777890E-18
6.137960E+03	2.222602E-16	2.712231E-18
6.147908E+03	2.245273E-16	2.654171E-18
6.157856E+03	2.268525E-16	2.605085E-18
6.167804E+03	2.292142E-16	2.566939E-18
6.177752E+03	2.315631E-16	2.541569E-18
6.187700E+03	2.338777E-16	2.531189E-18
6.197648E+03	2.361247E-16	2.537783E-18
6.207596E+03	2.382750E-16	2.563111E-18
6.217544E+03	2.402929E-16	2.608244E-18
6.227492E+03	2.421665E-16	2.672971E-18
6.237441E+03	2.439213E-16	2.756575E-18
6.247389E+03	2.455166E-16	2.857159E-18
6.257337E+03	2.470042E-16	2.973584E-18
6.267285E+03	2.483665E-16	3.103776E-18
6.277233E+03	2.496332E-16	3.246210E-18
6.287181E+03	2.508081E-16	3.399115E-18
6.297129E+03	2.519281E-16	3.561304E-18
6.307077E+03	2.530189E-16	3.731640E-18
6.317025E+03	2.540931E-16	3.908996E-18
6.326973E+03	2.551954E-16	4.092935E-18
6.336921E+03	2.563553E-16	4.283017E-18
6.346869E+03	2.575844E-16	4.478695E-18
6.356817E+03	2.589208E-16	4.680037E-18
6.366765E+03	2.603651E-16	4.886606E-18
6.376714E+03	2.619399E-16	5.098477E-18
6.386662E+03	2.636424E-16	5.315334E-18
6.396610E+03	2.654422E-16	5.536340E-18
6.406558E+03	2.673287E-16	5.761037E-18
6.416506E+03	2.692631E-16	5.988345E-18
6.426454E+03	2.711786E-16	6.216472E-18
6.436402E+03	2.730298E-16	6.443971E-18
6.446350E+03	2.747297E-16	6.668287E-18
6.456298E+03	2.762334E-16	6.887706E-18
6.466246E+03	2.774095E-16	7.098208E-18
6.476194E+03	2.782240E-16	7.298024E-18
6.486142E+03	2.785632E-16	7.483182E-18
6.496090E+03	2.783695E-16	7.651010E-18
6.506038E+03	2.775626E-16	7.798105E-18
6.515987E+03	2.761099E-16	7.922294E-18
6.525935E+03	2.739811E-16	8.021442E-18
6.535883E+03	2.711505E-16	8.093556E-18
6.545831E+03	2.676482E-16	8.138343E-18
6.555779E+03	2.635119E-16	8.155886E-18
6.565727E+03	2.587858E-16	8.146617E-18
6.575675E+03	2.535660E-16	8.112782E-18
6.585623E+03	2.479474E-16	8.056864E-18
6.595571E+03	2.420218E-16	7.981459E-18
6.605519E+03	2.359147E-16	7.890531E-18
6.615467E+03	2.297363E-16	7.787781E-18
6.625415E+03	2.235780E-16	7.676487E-18
6.635363E+03	2.175491E-16	7.560719E-18
6.645311E+03	2.117198E-16	7.443364E-18
6.655260E+03	2.061847E-16	7.328261E-18
6.665208E+03	2.009727E-16	7.217033E-18
6.675156E+03	1.961236E-16	7.111707E-18
6.685104E+03	1.916855E-16	7.014645E-18
6.695052E+03	1.876466E-16	6.926015E-18
6.705000E+03	1.840073E-16	6.846398E-18
6.714948E+03	1.807806E-16	6.776797E-18
6.724896E+03	1.779280E-16	6.716259E-18
6.734844E+03	1.754293E-16	6.664438E-18
6.744792E+03	1.732831E-16	6.621646E-18
6.754740E+03	1.714456E-16	6.586537E-18
6.764688E+03	1.699069E-16	6.558992E-18
6.774636E+03	1.686388E-16	6.538159E-18
6.784584E+03	1.676376E-16	6.524082E-18
6.794533E+03	1.668932E-16	6.516513E-18
6.804481E+03	1.663987E-16	6.515316E-18
6.814429E+03	1.661402E-16	6.520036E-18
6.824377E+03	1.661254E-16	6.531037E-18
6.834325E+03	1.663531E-16	6.548305E-18
6.844273E+03	1.668116E-16	6.571396E-18
6.854221E+03	1.675082E-16	6.600574E-18
6.864169E+03	1.684385E-16	6.635620E-18
6.874117E+03	1.695857E-16	6.675798E-18
6.884065E+03	1.709614E-16	6.721469E-18
6.894013E+03	1.725338E-16	6.771259E-18
6.903961E+03	1.742900E-16	6.824513E-18
6.913909E+03	1.762365E-16	6.881330E-18
6.923857E+03	1.783369E-16	6.940103E-18
6.933806E+03	1.805748E-16	7.000002E-18
6.943754E+03	1.829559E-16	7.061051E-18
6.953702E+03	1.854427E-16	7.121583E-18
6.963650E+03	1.880307E-16	7.181218E-18
6.973598E+03	1.907059E-16	7.239205E-18
6.983546E+03	1.934440E-16	7.294405E-18
6.993494E+03	1.962579E-16	7.347092E-18
7.003442E+03	1.991163E-16	7.395877E-18
7.013390E+03	2.020146E-16	7.440386E-18
7.023338E+03	2.049776E-16	7.481324E-18
7.033286E+03	2.079853E-16	7.517739E-18
7.043234E+03	2.110598E-16	7.550211E-18
7.053182E+03	2.142025E-16	7.578550E-18
7.063130E+03	2.174579E-16	7.604071E-18
7.073079E+03	2.208208E-16	7.626284E-18
7.083027E+03	2.243268E-16	7.646107E-18
7.092975E+03	2.279845E-16	7.663461E-18
7.102923E+03	2.318419E-16	7.679561E-18
7.112871E+03	2.358878E-16	7.693575E-18
7.122819E+03	2.401479E-16	7.705871E-18
7.132767E+03	2.446126E-16	7.715639E-18
7.142715E+03	2.493094E-16	7.723229E-18
7.152663E+03	2.541968E-16	7.726825E-18
7.162611E+03	2.592693E-16	7.725776E-18
7.172559E+03	2.644961E-16	7.718716E-18
7.182507E+03	2.698195E-16	7.703586E-18
7.192455E+03	2.752044E-16	7.679138E-18
7.202403E+03	2.805910E-16	7.643558E-18
7.212352E+03	2.859116E-16	7.595033E-18
7.222300E+03	2.910935E-16	7.531852E-18
7.232248E+03	2.960426E-16	7.452040E-18
7.242196E+03	3.007022E-16	7.354880E-18
7.252144E+03	3.050012E-16	7.239578E-18
7.262092E+03	3.088752E-16	7.105811E-18
7.272040E+03	3.122688E-16	6.953778E-18
7.281988E+03	3.151174E-16	6.783784E-18
7.291936E+03	3.174074E-16	6.597550E-18
7.301884E+03	3.191176E-16	6.396857E-18
7.311832E+03	3.202382E-16	6.183959E-18
7.321780E+03	3.207493E-16	5.961163E-18
7.331728E+03	3.207016E-16	5.732306E-18
7.341676E+03	3.200726E-16	5.500064E-18
7.351625E+03	3.188874E-16	5.268194E-18
7.361573E+03	3.172173E-16	5.041359E-18
7.371521E+03	3.150775E-16	4.823398E-18
7.381469E+03	3.124865E-16	4.618337E-18
7.391417E+03	3.095055E-16	4.430855E-18
7.401365E+03	3.061775E-16	4.265206E-18
7.411313E+03	3.025456E-16	4.125332E-18
7.421261E+03	2.986342E-16	4.014383E-18
7.431209E+03	2.945249E-16	3.935481E-18
7.441157E+03	2.902211E-16	3.889683E-18
7.451105E+03	2.857821E-16	3.877351E-18
7.461053E+03	2.812465E-16	3.896524E-18
7.471001E+03	2.766502E-16	3.944202E-18
7.480949E+03	2.720093E-16	4.016627E-18
7.490898E+03	2.673731E-16	4.110365E-18
7.500846E+03	2.627704E-16	4.221832E-18
7.510794E+03	2.582273E-16	4.347726E-18
7.520742E+03	2.537675E-16	4.485154E-18
7.530690E+03	2.494132E-16	4.631687E-18
7.540638E+03	2.451675E-16	4.785025E-18
7.550586E+03	2.410799E-16	4.944230E-18
7.560534E+03	2.371320E-16	5.107456E-18
7.570482E+03	2.333483E-16	5.274065E-18
7.580430E+03	2.297309E-16	5.443270E-18
7.590378E+03	2.262619E-16	5.614022E-18
7.600326E+03	2.229631E-16	5.786423E-18
7.610274E+03	2.197931E-16	5.959112E-18
7.620222E+03	2.167536E-16	6.131896E-18
7.630171E+03	2.138311E-16	6.304251E-18
7.640119E+03	2.110124E-16	6.475693E-18
7.650067E+03	2.082852E-16	6.645770E-18
7.660015E+03	2.056373E-16	6.814043E-18
7.669963E+03	2.030435E-16	6.979621E-18
7.679911E+03	2.005205E-16	7.143014E-18
7.689859E+03	1.980303E-16	7.302849E-18
7.699807E+03	1.955769E-16	7.459180E-18
7.709755E+03	1.931507E-16	7.611588E-18
7.719703E+03	1.907432E-16	7.759656E-18
