#wls	flux	fluxerr
1.595851E+03	3.575907E-04	3.164737E-05
1.635747E+03	3.462990E-04	3.038003E-05
1.675643E+03	3.359979E-04	2.921111E-05
1.715540E+03	3.266149E-04	2.813244E-05
1.755436E+03	3.180039E-04	2.712974E-05
1.795332E+03	3.100571E-04	2.619236E-05
1.835228E+03	3.022812E-04	2.527772E-05
1.875125E+03	2.941357E-04	2.434099E-05
1.915021E+03	2.847943E-04	2.331585E-05
1.954917E+03	2.733547E-04	2.213285E-05
1.994813E+03	2.589105E-04	2.072564E-05
2.034710E+03	2.410584E-04	1.907128E-05
2.074606E+03	2.202435E-04	1.721500E-05
2.114502E+03	1.978963E-04	1.527670E-05
2.154399E+03	1.764415E-04	1.344675E-05
2.194295E+03	1.582697E-04	1.190336E-05
2.234191E+03	1.454202E-04	1.078889E-05
2.274087E+03	1.392217E-04	1.018494E-05
2.313984E+03	1.405888E-04	1.013711E-05
2.353880E+03	1.505972E-04	1.069791E-05
2.393776E+03	1.710630E-04	1.196618E-05
2.433672E+03	2.046555E-04	1.409070E-05
2.473569E+03	2.550901E-04	1.727815E-05
2.513465E+03	3.256919E-04	2.169115E-05
2.553361E+03	4.174350E-04	2.732157E-05
2.593258E+03	5.258328E-04	3.380387E-05
2.633154E+03	6.413716E-04	4.047463E-05
2.673050E+03	7.577686E-04	4.691458E-05
2.712946E+03	8.788668E-04	5.334904E-05
2.752843E+03	1.013533E-03	6.028355E-05
2.792739E+03	1.169718E-03	6.812619E-05
2.832635E+03	1.349696E-03	7.692125E-05
2.872531E+03	1.546724E-03	8.619765E-05
2.912428E+03	1.740879E-03	9.479984E-05
2.952324E+03	1.902031E-03	1.011315E-04
2.992220E+03	1.997334E-03	1.036125E-04
3.002194E+03	2.007849E-03	1.035050E-04
3.012168E+03	2.013091E-03	1.031196E-04
3.022142E+03	2.012852E-03	1.024507E-04
3.032116E+03	2.007257E-03	1.015100E-04
3.042091E+03	1.996316E-03	1.003034E-04
3.052065E+03	1.980771E-03	9.887315E-05
3.062039E+03	1.960792E-03	9.723232E-05
3.072013E+03	1.936823E-03	9.540717E-05
3.081987E+03	1.909350E-03	9.342555E-05
3.091961E+03	1.879070E-03	9.132482E-05
3.101935E+03	1.846313E-03	8.912378E-05
3.111909E+03	1.811603E-03	8.685004E-05
3.121883E+03	1.775625E-03	8.453821E-05
3.131857E+03	1.738862E-03	8.221255E-05
3.141831E+03	1.701628E-03	7.988855E-05
3.151805E+03	1.664539E-03	7.759553E-05
3.161779E+03	1.628029E-03	7.535347E-05
3.171753E+03	1.592521E-03	7.318128E-05
3.181728E+03	1.558428E-03	7.109696E-05
3.191702E+03	1.526162E-03	6.911766E-05
3.201676E+03	1.496014E-03	6.725485E-05
3.211650E+03	1.468657E-03	6.553644E-05
3.221624E+03	1.444517E-03	6.397851E-05
3.231598E+03	1.423815E-03	6.258770E-05
3.241572E+03	1.407264E-03	6.139164E-05
3.251546E+03	1.395369E-03	6.040815E-05
3.261520E+03	1.388574E-03	5.965170E-05
3.271494E+03	1.387586E-03	5.914728E-05
3.281468E+03	1.393052E-03	5.891660E-05
3.291442E+03	1.405585E-03	5.897895E-05
3.301416E+03	1.426066E-03	5.936397E-05
3.311390E+03	1.455440E-03	6.010283E-05
3.321364E+03	1.494423E-03	6.121601E-05
3.331339E+03	1.544181E-03	6.274143E-05
3.341313E+03	1.605612E-03	6.470461E-05
3.351287E+03	1.679700E-03	6.713335E-05
3.361261E+03	1.767457E-03	7.005531E-05
3.371235E+03	1.869506E-03	7.348155E-05
3.381209E+03	1.986261E-03	7.741417E-05
3.391183E+03	2.117910E-03	8.184609E-05
3.401157E+03	2.263487E-03	8.672579E-05
3.411131E+03	2.421527E-03	9.198414E-05
3.421105E+03	2.589409E-03	9.751048E-05
3.431079E+03	2.763418E-03	1.031568E-04
3.441053E+03	2.939034E-03	1.087503E-04
3.451027E+03	3.110710E-03	1.140863E-04
3.461001E+03	3.273825E-03	1.190013E-04
3.470975E+03	3.424745E-03	1.233731E-04
3.480950E+03	3.562684E-03	1.271861E-04
3.490924E+03	3.689019E-03	1.305022E-04
3.500898E+03	3.807027E-03	1.334479E-04
3.510872E+03	3.919611E-03	1.361327E-04
3.520846E+03	4.027823E-03	1.385983E-04
3.530820E+03	4.131371E-03	1.408398E-04
3.540794E+03	4.228421E-03	1.427999E-04
3.550768E+03	4.315100E-03	1.443560E-04
3.560742E+03	4.387908E-03	1.454023E-04
3.570716E+03	4.443367E-03	1.458385E-04
3.580690E+03	4.480903E-03	1.456626E-04
3.590664E+03	4.502238E-03	1.449475E-04
3.600638E+03	4.514377E-03	1.439318E-04
3.610612E+03	4.527665E-03	1.429511E-04
3.620586E+03	4.555614E-03	1.424267E-04
3.630561E+03	4.612893E-03	1.427993E-04
3.640535E+03	4.714412E-03	1.444990E-04
3.650509E+03	4.874876E-03	1.479321E-04
3.660483E+03	5.108833E-03	1.534822E-04
3.670457E+03	5.429085E-03	1.614643E-04
3.680431E+03	5.845216E-03	1.720836E-04
3.690405E+03	6.357967E-03	1.852772E-04
3.700379E+03	6.952352E-03	2.005281E-04
3.710353E+03	7.593440E-03	2.167687E-04
3.720327E+03	8.229291E-03	2.324927E-04
3.730301E+03	8.794540E-03	2.458799E-04
3.740275E+03	9.221989E-03	2.551355E-04
3.750249E+03	9.458490E-03	2.589269E-04
3.760223E+03	9.480408E-03	2.567810E-04
3.770197E+03	9.299287E-03	2.491936E-04
3.780172E+03	8.958477E-03	2.374883E-04
3.790146E+03	8.522862E-03	2.235029E-04
3.800120E+03	8.063145E-03	2.091507E-04
3.810094E+03	7.641331E-03	1.960413E-04
3.820068E+03	7.305302E-03	1.853558E-04
3.830042E+03	7.090313E-03	1.779046E-04
3.840016E+03	7.021171E-03	1.742003E-04
3.849990E+03	7.116245E-03	1.745702E-04
3.859964E+03	7.392259E-03	1.792825E-04
3.869938E+03	7.865309E-03	1.885725E-04
3.879912E+03	8.550244E-03	2.026294E-04
3.889886E+03	9.457004E-03	2.215121E-04
3.899860E+03	1.058666E-02	2.450645E-04
3.909834E+03	1.192430E-02	2.727647E-04
3.919808E+03	1.343150E-02	3.035779E-04
3.929783E+03	1.504208E-02	3.358909E-04
3.939757E+03	1.666606E-02	3.676395E-04
3.949731E+03	1.819960E-02	3.965551E-04
3.959705E+03	1.954438E-02	4.205994E-04
3.969679E+03	2.063065E-02	4.384467E-04
3.979653E+03	2.143001E-02	4.497127E-04
3.989627E+03	2.195659E-02	4.549228E-04
3.999601E+03	2.226073E-02	4.553267E-04
4.009575E+03	2.241014E-02	4.524698E-04
4.019549E+03	2.246489E-02	4.476734E-04
4.029523E+03	2.245586E-02	4.416203E-04
4.039497E+03	2.239156E-02	4.345273E-04
4.049471E+03	2.226759E-02	4.263539E-04
4.059445E+03	2.207224E-02	4.169264E-04
4.069420E+03	2.179164E-02	4.060425E-04
4.079394E+03	2.141466E-02	3.935636E-04
4.089368E+03	2.093763E-02	3.794967E-04
4.099342E+03	2.036254E-02	3.639534E-04
4.109316E+03	1.969899E-02	3.471756E-04
4.119290E+03	1.896033E-02	3.294601E-04
4.129264E+03	1.816456E-02	3.111692E-04
4.139238E+03	1.733059E-02	2.926615E-04
4.149212E+03	1.647780E-02	2.742847E-04
4.159186E+03	1.562647E-02	2.563814E-04
4.169160E+03	1.479701E-02	2.392766E-04
4.179134E+03	1.400983E-02	2.232761E-04
4.189108E+03	1.328489E-02	2.086597E-04
4.199082E+03	1.264208E-02	1.956879E-04
4.209056E+03	1.210005E-02	1.845859E-04
4.219031E+03	1.167621E-02	1.755445E-04
4.229005E+03	1.138610E-02	1.687140E-04
4.238979E+03	1.124355E-02	1.642083E-04
4.248953E+03	1.125984E-02	1.620970E-04
4.258927E+03	1.143891E-02	1.623395E-04
4.268901E+03	1.177375E-02	1.647436E-04
4.278875E+03	1.224798E-02	1.689980E-04
4.288849E+03	1.283948E-02	1.747315E-04
4.298823E+03	1.352099E-02	1.815245E-04
4.308797E+03	1.425894E-02	1.888986E-04
4.318771E+03	1.501350E-02	1.963205E-04
4.328745E+03	1.573938E-02	2.032159E-04
4.338719E+03	1.638994E-02	2.090230E-04
4.348693E+03	1.691892E-02	2.132138E-04
4.358667E+03	1.728628E-02	2.153607E-04
4.368642E+03	1.746413E-02	2.152036E-04
4.378616E+03	1.743544E-02	2.126214E-04
4.388590E+03	1.719410E-02	2.076238E-04
4.398564E+03	1.674792E-02	2.003792E-04
4.408538E+03	1.612760E-02	1.913107E-04
4.418512E+03	1.538933E-02	1.811183E-04
4.428486E+03	1.460783E-02	1.706899E-04
4.438460E+03	1.387367E-02	1.610674E-04
4.448434E+03	1.328612E-02	1.533641E-04
4.458408E+03	1.293429E-02	1.485544E-04
4.468382E+03	1.287742E-02	1.472611E-04
4.478356E+03	1.314011E-02	1.497143E-04
4.488330E+03	1.372786E-02	1.559370E-04
4.498304E+03	1.463886E-02	1.658823E-04
4.508278E+03	1.586123E-02	1.794020E-04
4.518253E+03	1.736709E-02	1.961787E-04
4.528227E+03	1.910715E-02	2.156635E-04
4.538201E+03	2.100591E-02	2.370198E-04
4.548175E+03	2.295909E-02	2.590906E-04
4.558149E+03	2.484195E-02	2.804868E-04
4.568123E+03	2.652486E-02	2.997575E-04
4.578097E+03	2.789427E-02	3.156223E-04
4.588071E+03	2.887915E-02	3.272680E-04
4.598045E+03	2.946966E-02	3.345625E-04
4.608019E+03	2.970749E-02	3.379511E-04
4.617993E+03	2.965380E-02	3.380987E-04
4.627967E+03	2.936525E-02	3.356211E-04
4.637941E+03	2.888900E-02	3.310286E-04
4.647915E+03	2.826098E-02	3.247071E-04
4.657889E+03	2.750313E-02	3.168848E-04
4.667864E+03	2.662952E-02	3.077026E-04
4.677838E+03	2.564950E-02	2.972486E-04
4.687812E+03	2.457215E-02	2.856098E-04
4.697786E+03	2.342036E-02	2.730366E-04
4.707760E+03	2.224821E-02	2.601483E-04
4.717734E+03	2.114101E-02	2.479391E-04
4.727708E+03	2.018992E-02	2.374848E-04
4.737682E+03	1.945965E-02	2.295630E-04
4.747656E+03	1.897627E-02	2.245028E-04
4.757630E+03	1.874076E-02	2.223393E-04
4.767604E+03	1.874286E-02	2.229732E-04
4.777578E+03	1.896587E-02	2.262239E-04
4.787552E+03	1.938735E-02	2.318391E-04
4.797526E+03	1.997938E-02	2.394960E-04
4.807500E+03	2.070761E-02	2.487899E-04
4.817475E+03	2.153093E-02	2.592291E-04
4.827449E+03	2.240245E-02	2.702465E-04
4.837423E+03	2.327217E-02	2.812318E-04
4.847397E+03	2.409096E-02	2.915805E-04
4.857371E+03	2.481723E-02	3.007759E-04
4.867345E+03	2.542390E-02	3.084758E-04
4.877319E+03	2.590053E-02	3.145400E-04
4.887293E+03	2.625466E-02	3.190488E-04
4.897267E+03	2.651232E-02	3.223094E-04
4.907241E+03	2.671016E-02	3.247610E-04
4.917215E+03	2.688962E-02	3.269025E-04
4.927189E+03	2.708933E-02	3.291996E-04
4.937163E+03	2.733715E-02	3.319861E-04
4.947137E+03	2.763893E-02	3.353277E-04
4.957112E+03	2.797009E-02	3.389198E-04
4.967086E+03	2.827816E-02	3.421214E-04
4.977060E+03	2.848823E-02	3.440250E-04
4.987034E+03	2.851009E-02	3.435471E-04
4.997008E+03	2.825638E-02	3.396518E-04
5.006982E+03	2.767261E-02	3.317128E-04
5.016956E+03	2.675514E-02	3.197263E-04
5.026930E+03	2.555480E-02	3.043449E-04
5.036904E+03	2.417445E-02	2.868374E-04
5.046878E+03	2.275355E-02	2.688912E-04
5.056852E+03	2.143312E-02	2.521878E-04
5.066826E+03	2.032391E-02	2.380240E-04
5.076800E+03	1.949970E-02	2.272375E-04
5.086774E+03	1.900095E-02	2.202577E-04
5.096748E+03	1.883682E-02	2.171370E-04
5.106723E+03	1.898333E-02	2.175390E-04
5.116697E+03	1.939267E-02	2.208574E-04
5.126671E+03	2.000015E-02	2.263029E-04
5.136645E+03	2.072340E-02	2.329042E-04
5.146619E+03	2.146640E-02	2.395607E-04
5.156593E+03	2.213449E-02	2.452170E-04
5.166567E+03	2.265158E-02	2.490547E-04
5.176541E+03	2.297175E-02	2.506119E-04
5.186515E+03	2.309400E-02	2.499314E-04
5.196489E+03	2.307000E-02	2.476246E-04
5.206463E+03	2.298214E-02	2.446133E-04
5.216437E+03	2.291161E-02	2.417785E-04
5.226411E+03	2.291789E-02	2.397444E-04
5.236385E+03	2.303905E-02	2.388920E-04
5.246359E+03	2.329007E-02	2.393511E-04
5.256334E+03	2.366121E-02	2.409953E-04
5.266308E+03	2.412268E-02	2.435001E-04
5.276282E+03	2.462973E-02	2.464041E-04
5.286256E+03	2.512845E-02	2.491727E-04
5.296230E+03	2.556200E-02	2.512626E-04
5.306204E+03	2.588853E-02	2.522976E-04
5.316178E+03	2.609150E-02	2.521594E-04
5.326152E+03	2.617557E-02	2.509376E-04
5.336126E+03	2.615285E-02	2.487890E-04
5.346100E+03	2.603631E-02	2.458732E-04
5.356074E+03	2.583533E-02	2.423097E-04
5.366048E+03	2.555525E-02	2.381753E-04
5.376022E+03	2.519488E-02	2.334820E-04
5.385996E+03	2.475520E-02	2.282582E-04
5.395970E+03	2.425153E-02	2.226601E-04
5.405945E+03	2.371970E-02	2.170242E-04
5.415919E+03	2.320695E-02	2.117832E-04
5.425893E+03	2.276121E-02	2.073669E-04
5.435867E+03	2.242468E-02	2.041511E-04
5.445841E+03	2.222922E-02	2.024197E-04
5.455815E+03	2.218757E-02	2.022886E-04
5.465789E+03	2.228631E-02	2.036362E-04
5.475763E+03	2.248886E-02	2.061293E-04
5.485737E+03	2.274114E-02	2.092742E-04
5.495711E+03	2.297467E-02	2.124381E-04
5.505685E+03	2.311747E-02	2.149435E-04
5.515659E+03	2.311362E-02	2.162445E-04
5.525633E+03	2.294041E-02	2.160902E-04
5.535607E+03	2.260906E-02	2.145399E-04
5.545581E+03	2.216049E-02	2.119352E-04
5.555556E+03	2.165926E-02	2.088547E-04
5.565530E+03	2.117693E-02	2.059649E-04
5.575504E+03	2.077245E-02	2.038329E-04
5.585478E+03	2.048339E-02	2.028374E-04
5.595452E+03	2.032663E-02	2.031661E-04
5.605426E+03	2.030063E-02	2.048305E-04
5.615400E+03	2.038502E-02	2.076516E-04
5.625374E+03	2.054589E-02	2.113050E-04
5.635348E+03	2.074234E-02	2.153814E-04
5.645322E+03	2.093243E-02	2.194452E-04
5.655296E+03	2.107688E-02	2.230718E-04
5.665270E+03	2.114440E-02	2.259072E-04
5.675244E+03	2.111716E-02	2.277296E-04
5.685218E+03	2.098864E-02	2.284339E-04
5.695192E+03	2.075607E-02	2.279545E-04
5.705167E+03	2.041897E-02	2.262509E-04
5.715141E+03	1.998315E-02	2.233540E-04
5.725115E+03	1.946903E-02	2.194632E-04
5.735089E+03	1.891575E-02	2.149995E-04
5.745063E+03	1.837144E-02	2.105032E-04
5.755037E+03	1.788661E-02	2.065603E-04
5.765011E+03	1.750827E-02	2.037342E-04
5.774985E+03	1.727651E-02	2.025233E-04
5.784959E+03	1.721963E-02	2.032993E-04
5.794933E+03	1.735161E-02	2.062711E-04
5.804907E+03	1.767323E-02	2.114922E-04
5.814881E+03	1.817239E-02	2.188582E-04
5.824855E+03	1.881772E-02	2.280253E-04
5.834829E+03	1.956154E-02	2.384393E-04
5.844804E+03	2.034404E-02	2.493820E-04
5.854778E+03	2.109586E-02	2.600005E-04
5.864752E+03	2.174840E-02	2.694328E-04
5.874726E+03	2.224938E-02	2.770042E-04
5.884700E+03	2.257760E-02	2.824182E-04
5.894674E+03	2.273935E-02	2.857217E-04
5.904648E+03	2.275905E-02	2.871945E-04
5.914622E+03	2.266987E-02	2.872350E-04
5.924596E+03	2.250779E-02	2.862860E-04
5.934570E+03	2.230465E-02	2.847460E-04
5.944544E+03	2.208338E-02	2.829063E-04
5.954518E+03	2.185896E-02	2.809604E-04
5.964492E+03	2.164058E-02	2.790300E-04
5.974466E+03	2.143381E-02	2.771916E-04
5.984440E+03	2.124079E-02	2.754779E-04
5.994415E+03	2.106443E-02	2.739322E-04
6.004389E+03	2.090807E-02	2.726033E-04
6.014363E+03	2.077580E-02	2.715505E-04
6.024337E+03	2.067272E-02	2.708466E-04
6.034311E+03	2.060337E-02	2.705578E-04
6.044285E+03	2.057108E-02	2.707346E-04
6.054259E+03	2.057376E-02	2.713562E-04
6.064233E+03	2.060370E-02	2.723275E-04
6.074207E+03	2.064794E-02	2.734832E-04
6.084181E+03	2.069382E-02	2.746602E-04
6.094155E+03	2.073046E-02	2.757181E-04
6.104129E+03	2.075079E-02	2.765663E-04
6.114103E+03	2.075360E-02	2.771917E-04
6.124077E+03	2.074660E-02	2.777002E-04
6.134051E+03	2.074076E-02	2.782427E-04
6.144026E+03	2.074462E-02	2.789388E-04
6.154000E+03	2.076158E-02	2.798397E-04
6.163974E+03	2.078803E-02	2.809026E-04
6.173948E+03	2.080839E-02	2.819221E-04
6.183922E+03	2.079500E-02	2.825265E-04
6.193896E+03	2.071550E-02	2.822746E-04
6.203870E+03	2.054317E-02	2.807930E-04
6.213844E+03	2.026051E-02	2.778280E-04
6.223818E+03	1.986080E-02	2.732697E-04
6.233792E+03	1.935163E-02	2.672033E-04
6.243766E+03	1.875471E-02	2.599098E-04
6.253740E+03	1.809824E-02	2.517637E-04
6.263714E+03	1.740822E-02	2.431142E-04
6.273688E+03	1.670343E-02	2.342142E-04
6.283662E+03	1.599416E-02	2.252016E-04
6.293637E+03	1.528208E-02	2.160945E-04
6.303611E+03	1.456083E-02	2.067976E-04
6.313585E+03	1.382268E-02	1.971946E-04
6.323559E+03	1.306508E-02	1.872412E-04
6.333533E+03	1.229478E-02	1.770268E-04
6.343507E+03	1.152967E-02	1.668031E-04
6.353481E+03	1.080263E-02	1.570450E-04
6.363455E+03	1.016017E-02	1.484364E-04
6.373429E+03	9.651568E-03	1.417156E-04
6.383403E+03	9.322900E-03	1.375896E-04
6.393377E+03	9.218427E-03	1.367539E-04
6.403351E+03	9.381611E-03	1.399073E-04
6.413325E+03	9.848855E-03	1.476588E-04
6.423299E+03	1.064320E-02	1.604302E-04
6.433273E+03	1.177661E-02	1.784856E-04
6.443248E+03	1.325045E-02	2.019334E-04
6.453222E+03	1.504601E-02	2.305757E-04
6.463196E+03	1.711696E-02	2.637840E-04
6.473170E+03	1.938805E-02	3.004660E-04
6.483144E+03	2.176047E-02	3.391354E-04
6.493118E+03	2.412711E-02	3.781407E-04
6.503092E+03	2.640037E-02	4.160985E-04
6.513066E+03	2.852109E-02	4.520439E-04
6.523040E+03	3.042630E-02	4.849289E-04
6.533014E+03	3.202732E-02	5.132697E-04
6.542988E+03	3.323383E-02	5.355248E-04
6.552962E+03	3.398124E-02	5.505372E-04
6.562936E+03	3.424630E-02	5.578017E-04
6.572910E+03	3.405500E-02	5.576133E-04
6.582885E+03	3.347408E-02	5.509485E-04
6.592859E+03	3.259325E-02	5.391891E-04
6.602833E+03	3.150649E-02	5.238207E-04
6.612807E+03	3.030224E-02	5.062700E-04
6.622781E+03	2.905365E-02	4.877373E-04
6.632755E+03	2.781820E-02	4.691836E-04
6.642729E+03	2.663520E-02	4.512807E-04
6.652703E+03	2.553039E-02	4.344818E-04
6.662677E+03	2.451581E-02	4.190140E-04
6.672651E+03	2.359537E-02	4.049672E-04
6.682625E+03	2.276790E-02	3.923448E-04
6.692599E+03	2.202934E-02	3.810990E-04
6.702573E+03	2.137471E-02	3.711643E-04
6.712547E+03	2.079790E-02	3.624534E-04
6.722521E+03	2.029399E-02	3.548969E-04
6.732496E+03	1.985691E-02	3.484042E-04
6.742470E+03	1.948101E-02	3.428892E-04
6.752444E+03	1.915787E-02	3.382150E-04
6.762418E+03	1.887795E-02	3.342223E-04
6.772392E+03	1.862635E-02	3.306549E-04
6.782366E+03	1.838379E-02	3.271743E-04
6.792340E+03	1.813066E-02	3.234333E-04
6.802314E+03	1.785486E-02	3.192155E-04
6.812288E+03	1.755509E-02	3.144968E-04
6.822262E+03	1.723947E-02	3.094221E-04
6.832236E+03	1.692104E-02	3.042267E-04
6.842210E+03	1.661614E-02	2.992069E-04
6.852184E+03	1.634117E-02	2.946617E-04
6.862158E+03	1.610988E-02	2.908440E-04
6.872132E+03	1.593330E-02	2.879577E-04
6.882107E+03	1.581786E-02	2.861239E-04
6.892081E+03	1.576601E-02	2.853907E-04
6.902055E+03	1.577457E-02	2.857034E-04
6.912029E+03	1.583625E-02	2.869318E-04
6.922003E+03	1.593758E-02	2.888325E-04
6.931977E+03	1.605843E-02	2.910404E-04
6.941951E+03	1.617622E-02	2.931457E-04
6.951925E+03	1.627246E-02	2.948126E-04
6.961899E+03	1.633754E-02	2.958670E-04
6.971873E+03	1.636872E-02	2.962599E-04
6.981847E+03	1.636776E-02	2.960247E-04
6.991821E+03	1.633889E-02	2.952395E-04
7.001795E+03	1.628719E-02	2.939982E-04
7.011769E+03	1.621900E-02	2.924180E-04
7.021743E+03	1.613985E-02	2.906007E-04
7.031718E+03	1.605538E-02	2.886498E-04
7.041692E+03	1.596953E-02	2.866384E-04
7.051666E+03	1.588418E-02	2.846018E-04
7.061640E+03	1.579943E-02	2.825437E-04
7.071614E+03	1.571490E-02	2.804586E-04
7.081588E+03	1.562935E-02	2.783267E-04
7.091562E+03	1.554118E-02	2.761213E-04
7.101536E+03	1.544913E-02	2.738224E-04
7.111510E+03	1.535220E-02	2.714148E-04
7.121484E+03	1.525043E-02	2.689023E-04
7.131458E+03	1.514496E-02	2.663071E-04
7.141432E+03	1.503955E-02	2.636984E-04
7.151406E+03	1.493898E-02	2.611618E-04
7.161380E+03	1.484822E-02	2.587855E-04
7.171354E+03	1.477184E-02	2.566493E-04
7.181329E+03	1.471306E-02	2.548093E-04
7.191303E+03	1.467347E-02	2.532917E-04
7.201277E+03	1.465236E-02	2.520835E-04
7.211251E+03	1.464681E-02	2.511335E-04
7.221225E+03	1.465297E-02	2.503756E-04
7.231199E+03	1.466651E-02	2.497360E-04
7.241173E+03	1.468222E-02	2.491277E-04
7.251147E+03	1.469602E-02	2.484832E-04
7.261121E+03	1.470416E-02	2.477426E-04
7.271095E+03	1.470364E-02	2.468591E-04
7.281069E+03	1.469217E-02	2.457984E-04
7.291043E+03	1.466804E-02	2.445365E-04
7.301017E+03	1.463106E-02	2.430756E-04
7.310991E+03	1.458357E-02	2.414589E-04
7.320965E+03	1.453030E-02	2.397695E-04
7.330940E+03	1.447731E-02	2.381100E-04
7.340914E+03	1.443023E-02	2.365757E-04
7.350888E+03	1.439281E-02	2.352299E-04
7.360862E+03	1.436615E-02	2.340912E-04
7.370836E+03	1.435025E-02	2.331612E-04
7.380810E+03	1.434106E-02	2.323754E-04
7.390784E+03	1.433411E-02	2.316638E-04
7.400758E+03	1.432389E-02	2.309399E-04
7.410732E+03	1.430532E-02	2.301252E-04
7.420706E+03	1.427460E-02	2.291623E-04
7.430680E+03	1.422918E-02	2.280141E-04
7.440654E+03	1.416908E-02	2.266842E-04
7.450628E+03	1.409539E-02	2.251898E-04
7.460602E+03	1.400963E-02	2.235540E-04
7.470577E+03	1.391242E-02	2.217846E-04
7.480551E+03	1.380083E-02	2.198329E-04
7.490525E+03	1.366794E-02	2.175862E-04
7.500499E+03	1.350133E-02	2.148447E-04
7.510473E+03	1.328528E-02	2.113558E-04
7.520447E+03	1.300708E-02	2.069142E-04
7.530421E+03	1.266065E-02	2.014196E-04
7.540395E+03	1.224979E-02	1.949279E-04
7.550369E+03	1.178901E-02	1.876650E-04
7.560343E+03	1.130369E-02	1.800295E-04
7.570317E+03	1.082273E-02	1.724771E-04
7.580291E+03	1.037408E-02	1.654495E-04
7.590265E+03	9.981038E-03	1.593159E-04
7.600239E+03	9.661791E-03	1.543661E-04
7.610213E+03	9.429737E-03	1.508149E-04
7.620188E+03	9.293466E-03	1.488023E-04
7.630162E+03	9.257425E-03	1.484029E-04
7.640136E+03	9.320763E-03	1.496079E-04
7.650110E+03	9.476804E-03	1.523153E-04
7.660084E+03	9.713383E-03	1.563348E-04
7.670058E+03	1.001569E-02	1.614328E-04
7.680032E+03	1.036655E-02	1.673366E-04
7.690006E+03	1.074729E-02	1.737476E-04
7.699980E+03	1.113936E-02	1.803679E-04
7.709954E+03	1.152435E-02	1.868994E-04
7.719928E+03	1.188485E-02	1.930587E-04
7.729902E+03	1.220599E-02	1.986019E-04
7.739876E+03	1.247406E-02	2.033018E-04
