#wls	flux	fluxerr
1.595851E+03	1.016576E-04	1.595446E-05
1.635747E+03	1.003420E-04	1.561703E-05
1.675643E+03	9.907552E-05	1.528790E-05
1.715540E+03	9.783110E-05	1.496282E-05
1.755436E+03	9.665892E-05	1.464937E-05
1.795332E+03	9.554539E-05	1.434529E-05
1.835228E+03	9.458547E-05	1.406450E-05
1.875125E+03	9.375092E-05	1.380226E-05
1.915021E+03	9.312323E-05	1.356993E-05
1.954917E+03	9.276284E-05	1.337531E-05
1.994813E+03	9.274327E-05	1.322769E-05
2.034710E+03	9.315160E-05	1.313773E-05
2.074606E+03	9.408830E-05	1.311735E-05
2.114502E+03	9.566701E-05	1.317952E-05
2.154399E+03	9.801341E-05	1.333804E-05
2.194295E+03	1.012333E-04	1.360301E-05
2.234191E+03	1.055274E-04	1.399628E-05
2.274087E+03	1.109774E-04	1.452255E-05
2.313984E+03	1.177458E-04	1.519614E-05
2.353880E+03	1.259418E-04	1.602323E-05
2.393776E+03	1.356307E-04	1.700341E-05
2.433672E+03	1.467662E-04	1.812180E-05
2.473569E+03	1.592631E-04	1.935884E-05
2.513465E+03	1.728426E-04	2.067230E-05
2.553361E+03	1.869629E-04	2.199097E-05
2.593258E+03	2.009119E-04	2.322814E-05
2.633154E+03	2.137714E-04	2.427945E-05
2.673050E+03	2.249866E-04	2.508874E-05
2.712946E+03	2.342653E-04	2.563340E-05
2.752843E+03	2.415609E-04	2.592002E-05
2.792739E+03	2.468911E-04	2.596266E-05
2.832635E+03	2.501913E-04	2.576714E-05
2.872531E+03	2.516576E-04	2.536643E-05
2.912428E+03	2.516370E-04	2.480696E-05
2.952324E+03	2.504039E-04	2.412539E-05
2.992220E+03	2.484057E-04	2.337235E-05
3.002194E+03	2.478680E-04	2.318121E-05
3.012168E+03	2.473046E-04	2.298799E-05
3.022142E+03	2.467228E-04	2.279346E-05
3.032116E+03	2.461782E-04	2.260273E-05
3.042091E+03	2.456297E-04	2.241202E-05
3.052065E+03	2.451321E-04	2.222629E-05
3.062039E+03	2.446452E-04	2.204186E-05
3.072013E+03	2.441768E-04	2.185940E-05
3.081987E+03	2.438263E-04	2.168774E-05
3.091961E+03	2.434624E-04	2.151508E-05
3.101935E+03	2.431842E-04	2.135016E-05
3.111909E+03	2.429983E-04	2.119341E-05
3.121883E+03	2.429114E-04	2.104524E-05
3.131857E+03	2.428854E-04	2.090224E-05
3.141831E+03	2.429721E-04	2.076872E-05
3.151805E+03	2.431340E-04	2.064132E-05
3.161779E+03	2.434661E-04	2.052792E-05
3.171753E+03	2.438873E-04	2.042144E-05
3.181728E+03	2.444486E-04	2.032597E-05
3.191702E+03	2.451135E-04	2.023828E-05
3.201676E+03	2.459759E-04	2.016587E-05
3.211650E+03	2.469996E-04	2.010548E-05
3.221624E+03	2.481493E-04	2.005396E-05
3.231598E+03	2.495187E-04	2.001864E-05
3.241572E+03	2.510729E-04	1.999634E-05
3.251546E+03	2.527779E-04	1.998408E-05
3.261520E+03	2.547280E-04	1.998899E-05
3.271494E+03	2.569327E-04	2.001140E-05
3.281468E+03	2.593168E-04	2.004505E-05
3.291442E+03	2.619766E-04	2.009704E-05
3.301416E+03	2.648809E-04	2.016450E-05
3.311390E+03	2.680423E-04	2.024798E-05
3.321364E+03	2.715173E-04	2.035128E-05
3.331339E+03	2.753211E-04	2.047498E-05
3.341313E+03	2.794262E-04	2.061650E-05
3.351287E+03	2.838937E-04	2.077979E-05
3.361261E+03	2.886982E-04	2.096242E-05
3.371235E+03	2.939046E-04	2.116845E-05
3.381209E+03	2.995352E-04	2.139881E-05
3.391183E+03	3.056142E-04	2.165451E-05
3.401157E+03	3.121216E-04	2.193336E-05
3.411131E+03	3.191769E-04	2.224300E-05
3.421105E+03	3.267642E-04	2.258137E-05
3.431079E+03	3.349144E-04	2.294972E-05
3.441053E+03	3.436600E-04	2.334931E-05
3.451027E+03	3.530837E-04	2.378472E-05
3.461001E+03	3.631712E-04	2.425385E-05
3.470975E+03	3.739554E-04	2.475780E-05
3.480950E+03	3.855202E-04	2.530092E-05
3.490924E+03	3.978435E-04	2.588048E-05
3.500898E+03	4.110033E-04	2.650028E-05
3.510872E+03	4.250191E-04	2.716020E-05
3.520846E+03	4.399013E-04	2.785953E-05
3.530820E+03	4.555903E-04	2.859312E-05
3.540794E+03	4.721858E-04	2.936591E-05
3.550768E+03	4.896007E-04	3.017109E-05
3.560742E+03	5.077928E-04	3.100483E-05
3.570716E+03	5.267143E-04	3.186305E-05
3.580690E+03	5.463885E-04	3.274606E-05
3.590664E+03	5.667351E-04	3.364798E-05
3.600638E+03	5.878603E-04	3.457410E-05
3.610612E+03	6.097856E-04	3.552456E-05
3.620586E+03	6.327061E-04	3.650947E-05
3.630561E+03	6.567782E-04	3.753633E-05
3.640535E+03	6.821789E-04	3.861348E-05
3.650509E+03	7.090999E-04	3.974974E-05
3.660483E+03	7.377452E-04	4.095419E-05
3.670457E+03	7.683279E-04	4.223605E-05
3.680431E+03	8.010745E-04	4.360482E-05
3.690405E+03	8.363053E-04	4.507462E-05
3.700379E+03	8.742777E-04	4.665558E-05
3.710353E+03	9.151758E-04	4.835349E-05
3.720327E+03	9.593738E-04	5.018373E-05
3.730301E+03	1.007183E-03	5.215773E-05
3.740275E+03	1.058933E-03	5.428738E-05
3.750249E+03	1.114980E-03	5.658510E-05
3.760223E+03	1.175698E-03	5.906385E-05
3.770197E+03	1.241598E-03	6.174257E-05
3.780172E+03	1.312998E-03	6.462987E-05
3.790146E+03	1.390339E-03	6.773965E-05
3.800120E+03	1.474202E-03	7.109173E-05
3.810094E+03	1.565073E-03	7.470034E-05
3.820068E+03	1.663445E-03	7.857918E-05
3.830042E+03	1.769811E-03	8.274107E-05
3.840016E+03	1.884796E-03	8.720420E-05
3.849990E+03	2.008565E-03	9.196443E-05
3.859964E+03	2.141822E-03	9.704204E-05
3.869938E+03	2.284924E-03	1.024404E-04
3.879912E+03	2.437960E-03	1.081505E-04
3.889886E+03	2.601228E-03	1.141725E-04
3.899860E+03	2.774708E-03	1.204922E-04
3.909834E+03	2.958178E-03	1.270870E-04
3.919808E+03	3.151179E-03	1.339246E-04
3.929783E+03	3.353182E-03	1.409708E-04
3.939757E+03	3.562910E-03	1.481613E-04
3.949731E+03	3.778915E-03	1.554273E-04
3.959705E+03	3.999829E-03	1.627058E-04
3.969679E+03	4.222899E-03	1.698806E-04
3.979653E+03	4.445640E-03	1.768512E-04
3.989627E+03	4.665163E-03	1.835055E-04
3.999601E+03	4.877378E-03	1.896899E-04
4.009575E+03	5.078958E-03	1.952872E-04
4.019549E+03	5.265583E-03	2.001485E-04
4.029523E+03	5.433791E-03	2.041641E-04
4.039497E+03	5.578921E-03	2.071860E-04
4.049471E+03	5.698570E-03	2.091569E-04
4.059445E+03	5.789688E-03	2.100000E-04
4.069420E+03	5.851459E-03	2.097234E-04
4.079394E+03	5.883462E-03	2.083504E-04
4.089368E+03	5.886943E-03	2.059632E-04
4.099342E+03	5.864490E-03	2.026878E-04
4.109316E+03	5.820148E-03	1.986953E-04
4.119290E+03	5.758598E-03	1.941713E-04
4.129264E+03	5.684863E-03	1.893047E-04
4.139238E+03	5.604714E-03	1.843004E-04
4.149212E+03	5.523579E-03	1.793425E-04
4.159186E+03	5.446556E-03	1.745957E-04
4.169160E+03	5.378250E-03	1.702004E-04
4.179134E+03	5.322691E-03	1.662720E-04
4.189108E+03	5.283534E-03	1.629077E-04
4.199082E+03	5.263286E-03	1.601643E-04
4.209056E+03	5.264797E-03	1.581051E-04
4.219031E+03	5.290115E-03	1.567654E-04
4.229005E+03	5.340766E-03	1.561627E-04
4.238979E+03	5.418351E-03	1.563146E-04
4.248953E+03	5.523780E-03	1.572174E-04
4.258927E+03	5.657945E-03	1.588661E-04
4.268901E+03	5.821052E-03	1.612360E-04
4.278875E+03	6.012599E-03	1.642839E-04
4.288849E+03	6.231117E-03	1.679423E-04
4.298823E+03	6.473834E-03	1.721120E-04
4.308797E+03	6.736294E-03	1.766551E-04
4.318771E+03	7.011990E-03	1.813880E-04
4.328745E+03	7.292315E-03	1.860838E-04
4.338719E+03	7.566190E-03	1.904661E-04
4.348693E+03	7.820581E-03	1.942259E-04
4.358667E+03	8.042392E-03	1.970699E-04
4.368642E+03	8.219766E-03	1.987518E-04
4.378616E+03	8.344871E-03	1.991353E-04
4.388590E+03	8.415919E-03	1.982345E-04
4.398564E+03	8.437265E-03	1.962064E-04
4.408538E+03	8.418569E-03	1.933221E-04
4.418512E+03	8.373479E-03	1.899296E-04
4.428486E+03	8.317200E-03	1.863951E-04
4.438460E+03	8.264566E-03	1.830586E-04
4.448434E+03	8.229901E-03	1.802336E-04
4.458408E+03	8.226140E-03	1.781900E-04
4.468382E+03	8.264163E-03	1.771432E-04
4.478356E+03	8.354321E-03	1.772900E-04
4.488330E+03	8.504733E-03	1.787757E-04
4.498304E+03	8.722843E-03	1.817291E-04
4.508278E+03	9.014874E-03	1.862541E-04
4.518253E+03	9.385276E-03	1.924203E-04
4.528227E+03	9.837076E-03	2.002725E-04
4.538201E+03	1.037078E-02	2.098103E-04
4.548175E+03	1.098374E-02	2.209777E-04
4.558149E+03	1.167012E-02	2.336633E-04
4.568123E+03	1.241920E-02	2.476615E-04
4.578097E+03	1.321613E-02	2.626878E-04
4.588071E+03	1.404064E-02	2.783565E-04
4.598045E+03	1.486723E-02	2.941821E-04
4.608019E+03	1.566671E-02	3.096087E-04
4.617993E+03	1.640581E-02	3.239975E-04
4.627967E+03	1.704973E-02	3.366758E-04
4.637941E+03	1.756466E-02	3.469825E-04
4.647915E+03	1.791970E-02	3.543041E-04
4.657889E+03	1.809170E-02	3.581683E-04
4.667864E+03	1.806833E-02	3.583054E-04
4.677838E+03	1.785082E-02	3.547053E-04
4.687812E+03	1.745556E-02	3.476521E-04
4.697786E+03	1.691240E-02	3.376969E-04
4.707760E+03	1.626057E-02	3.255815E-04
4.717734E+03	1.554580E-02	3.121858E-04
4.727708E+03	1.481382E-02	2.984015E-04
4.737682E+03	1.410650E-02	2.850551E-04
4.747656E+03	1.345901E-02	2.728507E-04
4.757630E+03	1.289844E-02	2.623398E-04
4.767604E+03	1.244322E-02	2.539065E-04
4.777578E+03	1.210416E-02	2.477859E-04
4.787552E+03	1.188627E-02	2.440969E-04
4.797526E+03	1.179014E-02	2.428704E-04
4.807500E+03	1.181305E-02	2.440672E-04
4.817475E+03	1.195092E-02	2.476187E-04
4.827449E+03	1.219794E-02	2.534184E-04
4.837423E+03	1.254776E-02	2.613442E-04
4.847397E+03	1.299290E-02	2.712476E-04
4.857371E+03	1.352413E-02	2.829394E-04
4.867345E+03	1.413034E-02	2.961863E-04
4.877319E+03	1.479746E-02	3.106886E-04
4.887293E+03	1.550877E-02	3.260870E-04
4.897267E+03	1.624487E-02	3.419613E-04
4.907241E+03	1.698444E-02	3.578476E-04
4.917215E+03	1.770492E-02	3.732537E-04
4.927189E+03	1.838327E-02	3.876758E-04
4.937163E+03	1.899778E-02	4.006392E-04
4.947137E+03	1.952789E-02	4.116951E-04
4.957112E+03	1.995521E-02	4.204438E-04
4.967086E+03	2.026350E-02	4.265360E-04
4.977060E+03	2.043871E-02	4.296745E-04
4.987034E+03	2.046893E-02	4.296143E-04
4.997008E+03	2.034558E-02	4.261880E-04
5.006982E+03	2.006495E-02	4.193381E-04
5.016956E+03	1.963009E-02	4.091560E-04
5.026930E+03	1.905214E-02	3.959080E-04
5.036904E+03	1.835136E-02	3.800529E-04
5.046878E+03	1.755716E-02	3.622387E-04
5.056852E+03	1.670700E-02	3.432748E-04
5.066826E+03	1.584298E-02	3.240559E-04
5.076800E+03	1.500876E-02	3.054942E-04
5.086774E+03	1.424364E-02	2.883955E-04
5.096748E+03	1.357949E-02	2.733970E-04
5.106723E+03	1.303811E-02	2.609160E-04
5.116697E+03	1.263189E-02	2.511669E-04
5.126671E+03	1.236398E-02	2.441701E-04
5.136645E+03	1.222977E-02	2.397864E-04
5.146619E+03	1.221875E-02	2.377593E-04
5.156593E+03	1.231661E-02	2.377605E-04
5.166567E+03	1.250660E-02	2.394197E-04
5.176541E+03	1.276990E-02	2.423349E-04
5.186515E+03	1.308773E-02	2.461149E-04
5.196489E+03	1.344293E-02	2.504108E-04
5.206463E+03	1.382083E-02	2.549305E-04
5.216437E+03	1.421203E-02	2.594893E-04
5.226411E+03	1.461291E-02	2.640141E-04
5.236385E+03	1.502512E-02	2.685296E-04
5.246359E+03	1.545362E-02	2.731184E-04
5.256334E+03	1.590462E-02	2.778828E-04
5.266308E+03	1.638395E-02	2.829133E-04
5.276282E+03	1.689462E-02	2.882495E-04
5.286256E+03	1.743643E-02	2.938754E-04
5.296230E+03	1.800418E-02	2.996941E-04
5.306204E+03	1.858728E-02	3.055257E-04
5.316178E+03	1.916875E-02	3.110979E-04
5.326152E+03	1.972744E-02	3.160887E-04
5.336126E+03	2.023937E-02	3.201505E-04
5.346100E+03	2.068011E-02	3.229510E-04
5.356074E+03	2.102647E-02	3.241977E-04
5.366048E+03	2.125866E-02	3.236687E-04
5.376022E+03	2.136150E-02	3.212258E-04
5.385996E+03	2.132733E-02	3.168510E-04
5.395970E+03	2.115913E-02	3.106837E-04
5.405945E+03	2.087101E-02	3.030167E-04
5.415919E+03	2.049047E-02	2.943191E-04
5.425893E+03	2.005369E-02	2.851595E-04
5.435867E+03	1.959489E-02	2.760515E-04
5.445841E+03	1.915568E-02	2.675897E-04
5.455815E+03	1.878658E-02	2.604701E-04
5.465789E+03	1.854236E-02	2.554283E-04
5.475763E+03	1.847372E-02	2.531327E-04
5.485737E+03	1.860935E-02	2.539502E-04
5.495711E+03	1.892918E-02	2.575963E-04
5.505685E+03	1.939227E-02	2.635241E-04
5.515659E+03	1.994520E-02	2.710193E-04
5.525633E+03	2.052623E-02	2.792539E-04
5.535607E+03	2.107418E-02	2.874051E-04
5.545581E+03	2.153838E-02	2.947808E-04
5.555556E+03	2.188815E-02	3.009446E-04
5.565530E+03	2.211510E-02	3.057491E-04
5.575504E+03	2.223030E-02	3.093036E-04
5.585478E+03	2.225870E-02	3.119069E-04
5.595452E+03	2.223058E-02	3.139359E-04
5.605426E+03	2.217255E-02	3.157252E-04
5.615400E+03	2.210168E-02	3.174831E-04
5.625374E+03	2.202097E-02	3.192230E-04
5.635348E+03	2.191907E-02	3.207503E-04
5.645322E+03	2.177088E-02	3.216620E-04
5.655296E+03	2.154004E-02	3.213735E-04
5.665270E+03	2.118689E-02	3.192293E-04
5.675244E+03	2.067484E-02	3.145984E-04
5.685218E+03	1.998179E-02	3.070509E-04
5.695192E+03	1.910907E-02	2.965099E-04
5.705167E+03	1.808563E-02	2.833345E-04
5.715141E+03	1.696478E-02	2.682913E-04
5.725115E+03	1.581474E-02	2.524198E-04
5.735089E+03	1.470806E-02	2.368740E-04
5.745063E+03	1.371047E-02	2.227412E-04
5.755037E+03	1.287302E-02	2.109068E-04
5.765011E+03	1.223147E-02	2.020308E-04
5.774985E+03	1.180907E-02	1.965815E-04
5.784959E+03	1.162053E-02	1.948918E-04
5.794933E+03	1.167623E-02	1.972232E-04
5.804907E+03	1.198487E-02	2.038069E-04
5.814881E+03	1.255430E-02	2.148559E-04
5.824855E+03	1.338969E-02	2.305314E-04
5.834829E+03	1.448871E-02	2.508581E-04
5.844804E+03	1.583569E-02	2.756167E-04
5.854778E+03	1.739336E-02	3.041956E-04
5.864752E+03	1.909585E-02	3.354590E-04
5.874726E+03	2.084560E-02	3.676849E-04
5.884700E+03	2.251886E-02	3.986563E-04
5.894674E+03	2.398273E-02	4.259640E-04
5.904648E+03	2.512161E-02	4.474821E-04
5.914622E+03	2.586372E-02	4.618560E-04
5.924596E+03	2.619376E-02	4.687447E-04
5.934570E+03	2.614744E-02	4.687357E-04
5.944544E+03	2.579823E-02	4.631157E-04
5.954518E+03	2.523544E-02	4.534759E-04
5.964492E+03	2.454520E-02	4.413673E-04
5.974466E+03	2.379699E-02	4.280517E-04
5.984440E+03	2.304119E-02	4.144514E-04
5.994415E+03	2.230832E-02	4.011336E-04
6.004389E+03	2.161476E-02	3.884092E-04
6.014363E+03	2.096899E-02	3.764458E-04
6.024337E+03	2.037802E-02	3.653821E-04
6.034311E+03	1.985121E-02	3.553968E-04
6.044285E+03	1.939929E-02	3.466900E-04
6.054259E+03	1.903222E-02	3.394444E-04
6.064233E+03	1.875689E-02	3.337848E-04
6.074207E+03	1.857537E-02	3.297468E-04
6.084181E+03	1.848445E-02	3.272706E-04
6.094155E+03	1.847526E-02	3.261955E-04
6.104129E+03	1.853373E-02	3.262700E-04
6.114103E+03	1.864194E-02	3.271772E-04
6.124077E+03	1.877941E-02	3.285593E-04
6.134051E+03	1.892617E-02	3.300720E-04
6.144026E+03	1.906624E-02	3.314458E-04
6.154000E+03	1.918939E-02	3.325148E-04
6.163974E+03	1.929179E-02	3.332265E-04
6.173948E+03	1.937333E-02	3.335943E-04
6.183922E+03	1.943944E-02	3.337262E-04
6.193896E+03	1.950039E-02	3.338128E-04
6.203870E+03	1.956381E-02	3.339946E-04
6.213844E+03	1.963194E-02	3.343147E-04
6.223818E+03	1.970187E-02	3.347275E-04
6.233792E+03	1.976475E-02	3.350872E-04
6.243766E+03	1.980820E-02	3.351903E-04
6.253740E+03	1.981622E-02	3.347736E-04
6.263714E+03	1.977105E-02	3.335452E-04
6.273688E+03	1.965510E-02	3.312170E-04
6.283662E+03	1.945033E-02	3.274926E-04
6.293637E+03	1.913885E-02	3.220774E-04
6.303611E+03	1.870398E-02	3.146940E-04
6.313585E+03	1.813205E-02	3.051124E-04
6.323559E+03	1.741599E-02	2.932078E-04
6.333533E+03	1.655906E-02	2.790241E-04
6.343507E+03	1.557966E-02	2.628541E-04
6.353481E+03	1.451325E-02	2.452745E-04
6.363455E+03	1.341052E-02	2.271182E-04
6.373429E+03	1.232979E-02	2.093515E-04
6.383403E+03	1.132858E-02	1.929353E-04
6.393377E+03	1.045707E-02	1.787190E-04
6.403351E+03	9.752734E-03	1.673502E-04
6.413325E+03	9.240070E-03	1.592701E-04
6.423299E+03	8.934294E-03	1.547756E-04
6.433273E+03	8.847948E-03	1.541332E-04
6.443248E+03	8.996656E-03	1.576801E-04
6.453222E+03	9.404230E-03	1.659164E-04
6.463196E+03	1.010511E-02	1.795513E-04
6.473170E+03	1.114418E-02	1.995123E-04
6.483144E+03	1.257434E-02	2.269097E-04
6.493118E+03	1.445137E-02	2.629521E-04
6.503092E+03	1.682472E-02	3.087805E-04
6.513066E+03	1.972029E-02	3.651450E-04
6.523040E+03	2.309816E-02	4.315965E-04
6.533014E+03	2.680539E-02	5.055359E-04
6.542988E+03	3.057514E-02	5.820925E-04
6.552962E+03	3.405077E-02	6.544751E-04
6.562936E+03	3.685232E-02	7.151678E-04
6.572910E+03	3.867104E-02	7.577503E-04
6.582885E+03	3.935207E-02	7.785966E-04
6.592859E+03	3.893115E-02	7.777539E-04
6.602833E+03	3.760691E-02	7.585720E-04
6.612807E+03	3.566964E-02	7.264167E-04
6.622781E+03	3.341238E-02	6.869367E-04
6.632755E+03	3.107745E-02	6.449596E-04
6.642729E+03	2.883378E-02	6.039679E-04
6.652703E+03	2.678390E-02	5.661763E-04
6.662677E+03	2.497506E-02	5.327008E-04
6.672651E+03	2.341982E-02	5.039494E-04
6.682625E+03	2.210763E-02	4.798377E-04
6.692599E+03	2.101712E-02	4.600352E-04
6.702573E+03	2.012181E-02	4.440824E-04
6.712547E+03	1.939440E-02	4.314796E-04
6.722521E+03	1.880869E-02	4.217309E-04
6.732496E+03	1.833983E-02	4.143499E-04
6.742470E+03	1.796460E-02	4.088689E-04
6.752444E+03	1.766066E-02	4.048230E-04
6.762418E+03	1.740585E-02	4.017355E-04
6.772392E+03	1.717940E-02	3.991471E-04
6.782366E+03	1.696265E-02	3.966344E-04
6.792340E+03	1.674025E-02	3.938406E-04
6.802314E+03	1.650218E-02	3.905269E-04
6.812288E+03	1.624528E-02	3.866131E-04
6.822262E+03	1.597206E-02	3.821534E-04
6.832236E+03	1.568973E-02	3.773173E-04
6.842210E+03	1.540843E-02	3.723496E-04
6.852184E+03	1.513984E-02	3.675374E-04
6.862158E+03	1.489501E-02	3.631579E-04
6.872132E+03	1.468450E-02	3.594801E-04
6.882107E+03	1.451666E-02	3.567223E-04
6.892081E+03	1.439796E-02	3.550578E-04
6.902055E+03	1.433125E-02	3.545718E-04
6.912029E+03	1.431741E-02	3.552997E-04
6.922003E+03	1.435400E-02	3.571918E-04
6.931977E+03	1.443603E-02	3.601340E-04
6.941951E+03	1.455637E-02	3.639543E-04
6.951925E+03	1.470636E-02	3.684405E-04
6.961899E+03	1.487644E-02	3.733546E-04
6.971873E+03	1.505652E-02	3.784426E-04
6.981847E+03	1.523603E-02	3.834372E-04
6.991821E+03	1.540574E-02	3.881035E-04
7.001795E+03	1.555650E-02	3.922075E-04
7.011769E+03	1.568208E-02	3.955894E-04
7.021743E+03	1.577793E-02	3.981327E-04
7.031718E+03	1.584221E-02	3.997901E-04
7.041692E+03	1.587335E-02	4.005220E-04
7.051666E+03	1.587058E-02	4.003107E-04
7.061640E+03	1.583286E-02	3.991331E-04
7.071614E+03	1.575909E-02	3.969656E-04
7.081588E+03	1.564906E-02	3.938086E-04
7.091562E+03	1.550457E-02	3.897142E-04
7.101536E+03	1.533000E-02	3.848001E-04
7.111510E+03	1.513317E-02	3.792709E-04
7.121484E+03	1.492416E-02	3.733868E-04
7.131458E+03	1.471378E-02	3.674252E-04
7.141432E+03	1.451210E-02	3.616434E-04
7.151406E+03	1.432796E-02	3.562652E-04
7.161380E+03	1.416850E-02	3.514707E-04
7.171354E+03	1.403910E-02	3.473938E-04
7.181329E+03	1.394406E-02	3.441402E-04
7.191303E+03	1.388623E-02	3.417786E-04
7.201277E+03	1.386739E-02	3.403493E-04
7.211251E+03	1.388879E-02	3.398795E-04
7.221225E+03	1.395062E-02	3.403696E-04
7.231199E+03	1.405264E-02	3.418098E-04
7.241173E+03	1.419328E-02	3.441570E-04
7.251147E+03	1.436906E-02	3.473238E-04
7.261121E+03	1.457430E-02	3.511703E-04
7.271095E+03	1.480037E-02	3.554883E-04
7.281069E+03	1.503487E-02	3.599824E-04
7.291043E+03	1.526191E-02	3.642784E-04
7.301017E+03	1.546365E-02	3.679606E-04
7.310991E+03	1.562337E-02	3.706460E-04
7.320965E+03	1.572837E-02	3.720511E-04
7.330940E+03	1.577093E-02	3.720133E-04
7.340914E+03	1.575006E-02	3.705291E-04
7.350888E+03	1.567192E-02	3.677627E-04
7.360862E+03	1.554775E-02	3.639937E-04
7.370836E+03	1.539096E-02	3.595492E-04
7.380810E+03	1.521530E-02	3.547596E-04
7.390784E+03	1.503244E-02	3.499039E-04
7.400758E+03	1.485031E-02	3.451712E-04
7.410732E+03	1.467261E-02	3.406508E-04
7.420706E+03	1.449902E-02	3.363383E-04
7.430680E+03	1.432645E-02	3.321649E-04
7.440654E+03	1.415105E-02	3.280437E-04
7.450628E+03	1.396975E-02	3.239039E-04
7.460602E+03	1.378124E-02	3.197086E-04
7.470577E+03	1.358737E-02	3.154918E-04
7.480551E+03	1.339212E-02	3.113376E-04
7.490525E+03	1.320082E-02	3.073609E-04
7.500499E+03	1.301265E-02	3.035350E-04
7.510473E+03	1.281816E-02	2.996309E-04
7.520447E+03	1.261052E-02	2.954799E-04
7.530421E+03	1.238792E-02	2.910290E-04
7.540395E+03	1.215279E-02	2.863248E-04
7.550369E+03	1.191087E-02	2.814920E-04
7.560343E+03	1.167060E-02	2.767217E-04
7.570317E+03	1.144065E-02	2.722132E-04
7.580291E+03	1.123070E-02	2.681934E-04
7.590265E+03	1.104893E-02	2.648569E-04
7.600239E+03	1.090275E-02	2.623846E-04
7.610213E+03	1.079778E-02	2.609169E-04
7.620188E+03	1.073814E-02	2.605622E-04
7.630162E+03	1.072587E-02	2.613798E-04
7.640136E+03	1.076083E-02	2.633786E-04
7.650110E+03	1.084059E-02	2.665106E-04
7.660084E+03	1.096113E-02	2.706894E-04
7.670058E+03	1.111695E-02	2.757899E-04
7.680032E+03	1.130141E-02	2.816570E-04
7.690006E+03	1.150770E-02	2.881282E-04
7.699980E+03	1.172786E-02	2.950092E-04
7.709954E+03	1.195406E-02	3.021056E-04
7.719928E+03	1.217829E-02	3.092143E-04
7.729902E+03	1.239184E-02	3.161111E-04
7.739876E+03	1.258692E-02	3.225908E-04
