#wls	flux	fluxerr
1.588878E+03	3.083416E-05	1.819014E-06
1.628600E+03	3.347803E-05	1.956227E-06
1.668322E+03	3.581394E-05	2.072334E-06
1.708044E+03	3.771729E-05	2.160661E-06
1.747766E+03	3.905835E-05	2.214555E-06
1.787488E+03	3.962352E-05	2.222990E-06
1.827210E+03	3.918544E-05	2.174724E-06
1.866931E+03	3.755412E-05	2.061164E-06
1.906653E+03	3.465463E-05	1.880487E-06
1.946375E+03	3.064560E-05	1.643642E-06
1.986097E+03	2.599092E-05	1.377414E-06
2.025819E+03	2.141638E-05	1.121152E-06
2.065541E+03	1.769411E-05	9.147293E-07
2.105263E+03	1.537229E-05	7.845405E-07
2.144985E+03	1.467503E-05	7.391541E-07
2.184707E+03	1.561904E-05	7.761645E-07
2.224429E+03	1.813047E-05	8.886183E-07
2.264151E+03	2.201853E-05	1.064054E-06
2.303873E+03	2.691525E-05	1.282046E-06
2.343595E+03	3.229646E-05	1.515834E-06
2.383317E+03	3.759314E-05	1.738032E-06
2.423039E+03	4.236551E-05	1.928749E-06
2.462761E+03	4.642438E-05	2.080590E-06
2.502483E+03	5.003300E-05	2.206677E-06
2.542205E+03	5.421991E-05	2.352610E-06
2.581927E+03	6.138316E-05	2.619510E-06
2.621648E+03	7.525998E-05	3.157835E-06
2.661370E+03	9.939931E-05	4.099622E-06
2.701092E+03	1.360966E-04	5.516070E-06
2.740814E+03	1.871790E-04	7.453448E-06
2.780536E+03	2.543291E-04	9.947599E-06
2.820258E+03	3.387045E-04	1.301012E-05
2.859980E+03	4.402669E-04	1.660517E-05
2.899702E+03	5.573025E-04	2.063618E-05
2.939424E+03	6.859030E-04	2.493281E-05
2.979146E+03	8.197344E-04	2.925015E-05
2.989076E+03	8.530382E-04	3.029762E-05
2.999007E+03	8.859433E-04	3.132067E-05
3.008937E+03	9.182941E-04	3.231412E-05
3.018868E+03	9.499919E-04	3.327488E-05
3.028798E+03	9.810798E-04	3.420487E-05
3.038729E+03	1.011624E-03	3.510679E-05
3.048659E+03	1.041434E-03	3.597443E-05
3.058590E+03	1.070235E-03	3.679878E-05
3.068520E+03	1.097770E-03	3.757169E-05
3.078451E+03	1.123839E-03	3.828697E-05
3.088381E+03	1.148184E-03	3.893671E-05
3.098312E+03	1.170578E-03	3.951418E-05
3.108242E+03	1.190719E-03	4.001021E-05
3.118173E+03	1.208480E-03	4.042165E-05
3.128103E+03	1.223577E-03	4.074031E-05
3.138034E+03	1.235828E-03	4.096144E-05
3.147964E+03	1.245070E-03	4.108097E-05
3.157895E+03	1.251132E-03	4.109475E-05
3.167825E+03	1.253897E-03	4.100045E-05
3.177756E+03	1.253250E-03	4.079575E-05
3.187686E+03	1.249131E-03	4.048030E-05
3.197617E+03	1.241487E-03	4.005390E-05
3.207547E+03	1.230326E-03	3.951835E-05
3.217478E+03	1.215668E-03	3.887575E-05
3.227408E+03	1.197569E-03	3.812940E-05
3.237339E+03	1.176152E-03	3.728451E-05
3.247269E+03	1.151549E-03	3.634666E-05
3.257200E+03	1.123956E-03	3.532320E-05
3.267130E+03	1.093584E-03	3.422187E-05
3.277061E+03	1.060681E-03	3.305141E-05
3.286991E+03	1.025531E-03	3.182153E-05
3.296922E+03	9.884690E-04	3.054332E-05
3.306852E+03	9.498416E-04	2.922805E-05
3.316783E+03	9.100247E-04	2.788768E-05
3.326713E+03	8.694210E-04	2.653479E-05
3.336643E+03	8.284457E-04	2.518211E-05
3.346574E+03	7.875627E-04	2.384365E-05
3.356504E+03	7.472324E-04	2.253306E-05
3.366435E+03	7.079569E-04	2.126505E-05
3.376365E+03	6.702338E-04	2.005393E-05
3.386296E+03	6.345654E-04	1.891392E-05
3.396226E+03	6.014983E-04	1.786036E-05
3.406157E+03	5.715186E-04	1.690653E-05
3.416087E+03	5.450961E-04	1.606511E-05
3.426018E+03	5.225961E-04	1.534548E-05
3.435948E+03	5.042292E-04	1.475243E-05
3.445879E+03	4.899879E-04	1.428429E-05
3.455809E+03	4.796834E-04	1.393422E-05
3.465740E+03	4.730865E-04	1.369429E-05
3.475670E+03	4.698467E-04	1.355321E-05
3.485601E+03	4.694636E-04	1.349554E-05
3.495531E+03	4.713861E-04	1.350464E-05
3.505462E+03	4.750895E-04	1.356483E-05
3.515392E+03	4.800956E-04	1.366199E-05
3.525323E+03	4.860203E-04	1.378484E-05
3.535253E+03	4.925618E-04	1.392462E-05
3.545184E+03	4.994912E-04	1.407470E-05
3.555114E+03	5.066458E-04	1.423040E-05
3.565045E+03	5.139150E-04	1.438859E-05
3.574975E+03	5.212556E-04	1.454802E-05
3.584906E+03	5.286431E-04	1.470800E-05
3.594836E+03	5.360987E-04	1.486912E-05
3.604767E+03	5.436720E-04	1.503273E-05
3.614697E+03	5.514334E-04	1.520073E-05
3.624628E+03	5.594738E-04	1.537560E-05
3.634558E+03	5.679043E-04	1.556030E-05
3.644489E+03	5.768556E-04	1.575830E-05
3.654419E+03	5.864628E-04	1.597317E-05
3.664350E+03	5.968639E-04	1.620849E-05
3.674280E+03	6.082246E-04	1.646857E-05
3.684211E+03	6.206910E-04	1.675711E-05
3.694141E+03	6.344265E-04	1.707828E-05
3.704071E+03	6.495910E-04	1.743606E-05
3.714002E+03	6.663469E-04	1.783447E-05
3.723932E+03	6.848428E-04	1.827714E-05
3.733863E+03	7.052325E-04	1.876775E-05
3.743793E+03	7.276651E-04	1.930985E-05
3.753724E+03	7.522579E-04	1.990609E-05
3.763654E+03	7.791163E-04	2.055878E-05
3.773585E+03	8.083174E-04	2.126946E-05
3.777557E+03	7.931507E-04	2.084697E-05
3.779543E+03	8.076287E-04	2.121561E-05
3.781529E+03	8.191437E-04	2.150605E-05
3.783515E+03	8.354904E-04	2.192294E-05
3.785501E+03	8.705464E-04	2.283000E-05
3.787488E+03	9.078933E-04	2.379610E-05
3.789474E+03	9.224912E-04	2.416520E-05
3.791460E+03	9.498755E-04	2.486864E-05
3.793446E+03	9.798742E-04	2.563970E-05
3.795432E+03	1.001351E-03	2.618703E-05
3.797418E+03	1.014097E-03	2.650555E-05
3.799404E+03	1.025299E-03	2.678340E-05
3.801390E+03	1.048642E-03	2.737788E-05
3.803376E+03	1.060214E-03	2.766457E-05
3.805362E+03	1.079143E-03	2.814278E-05
3.807349E+03	1.099323E-03	2.865308E-05
3.809335E+03	1.104763E-03	2.877883E-05
3.811321E+03	1.112214E-03	2.895679E-05
3.813307E+03	1.130652E-03	2.942044E-05
3.815293E+03	1.152122E-03	2.996240E-05
3.817279E+03	1.166095E-03	3.030890E-05
3.819265E+03	1.172593E-03	3.046084E-05
3.821251E+03	1.184627E-03	3.075633E-05
3.823237E+03	1.197331E-03	3.106887E-05
3.825223E+03	1.207478E-03	3.131475E-05
3.827210E+03	1.208243E-03	3.131716E-05
3.829196E+03	1.201719E-03	3.113076E-05
3.831182E+03	1.197143E-03	3.099497E-05
3.833168E+03	1.200035E-03	3.105259E-05
3.835154E+03	1.193345E-03	3.086231E-05
3.837140E+03	1.201592E-03	3.105832E-05
3.839126E+03	1.209629E-03	3.124870E-05
3.841112E+03	1.202156E-03	3.103841E-05
3.843098E+03	1.205361E-03	3.110387E-05
3.845084E+03	1.208633E-03	3.117098E-05
3.847071E+03	1.213380E-03	3.127603E-05
3.849057E+03	1.226721E-03	3.160233E-05
3.851043E+03	1.226798E-03	3.158677E-05
3.853029E+03	1.232828E-03	3.172440E-05
3.855015E+03	1.247497E-03	3.208406E-05
3.857001E+03	1.258721E-03	3.235474E-05
3.858987E+03	1.258486E-03	3.233073E-05
3.860973E+03	1.264300E-03	3.246205E-05
3.862959E+03	1.264424E-03	3.244722E-05
3.864945E+03	1.269904E-03	3.256973E-05
3.866931E+03	1.281361E-03	3.284534E-05
3.868918E+03	1.285926E-03	3.294403E-05
3.870904E+03	1.297321E-03	3.321749E-05
3.872890E+03	1.313363E-03	3.360957E-05
3.874876E+03	1.329515E-03	3.400400E-05
3.876862E+03	1.347278E-03	3.443917E-05
3.878848E+03	1.357270E-03	3.467530E-05
3.880834E+03	1.366025E-03	3.487958E-05
3.882820E+03	1.374685E-03	3.508118E-05
3.884806E+03	1.374115E-03	3.504712E-05
3.886792E+03	1.381295E-03	3.521067E-05
3.888779E+03	1.376662E-03	3.507305E-05
3.890765E+03	1.369458E-03	3.487011E-05
3.892751E+03	1.379336E-03	3.510208E-05
3.894737E+03	1.380583E-03	3.511426E-05
3.896723E+03	1.379145E-03	3.505815E-05
3.898709E+03	1.380207E-03	3.506561E-05
3.900695E+03	1.383658E-03	3.513372E-05
3.902681E+03	1.401910E-03	3.557733E-05
3.904667E+03	1.405095E-03	3.563829E-05
3.906653E+03	1.403546E-03	3.557916E-05
3.908640E+03	1.402791E-03	3.554019E-05
3.910626E+03	1.406601E-03	3.561684E-05
3.912612E+03	1.417102E-03	3.586272E-05
3.914598E+03	1.433522E-03	3.625801E-05
3.916584E+03	1.437887E-03	3.634812E-05
3.918570E+03	1.434678E-03	3.624675E-05
3.920556E+03	1.439427E-03	3.634640E-05
3.922542E+03	1.454791E-03	3.671382E-05
3.924528E+03	1.468140E-03	3.702999E-05
3.926514E+03	1.464508E-03	3.691773E-05
3.928500E+03	1.459921E-03	3.678150E-05
3.930487E+03	1.457764E-03	3.670659E-05
3.932473E+03	1.461318E-03	3.677548E-05
3.934459E+03	1.469982E-03	3.697279E-05
3.936445E+03	1.472867E-03	3.702458E-05
3.938431E+03	1.462931E-03	3.675419E-05
3.940417E+03	1.465617E-03	3.680101E-05
3.942403E+03	1.475788E-03	3.703560E-05
3.944389E+03	1.483956E-03	3.721967E-05
3.946375E+03	1.488268E-03	3.730684E-05
3.948361E+03	1.493609E-03	3.741970E-05
3.950348E+03	1.482248E-03	3.711418E-05
3.952334E+03	1.470655E-03	3.680316E-05
3.954320E+03	1.458252E-03	3.647224E-05
3.956306E+03	1.455294E-03	3.637775E-05
3.958292E+03	1.467605E-03	3.666482E-05
3.960278E+03	1.484263E-03	3.706008E-05
3.962264E+03	1.492274E-03	3.723906E-05
3.964250E+03	1.490111E-03	3.716409E-05
3.966236E+03	1.485480E-03	3.702767E-05
3.968222E+03	1.495397E-03	3.725381E-05
3.970209E+03	1.499766E-03	3.734151E-05
3.972195E+03	1.487908E-03	3.702530E-05
3.974181E+03	1.482057E-03	3.685883E-05
3.976167E+03	1.477160E-03	3.671624E-05
3.978153E+03	1.463695E-03	3.636091E-05
3.980139E+03	1.470511E-03	3.650952E-05
3.982125E+03	1.486185E-03	3.687772E-05
3.984111E+03	1.492789E-03	3.702056E-05
3.986097E+03	1.497901E-03	3.712620E-05
3.988083E+03	1.501905E-03	3.720429E-05
3.990070E+03	1.490300E-03	3.689580E-05
3.992056E+03	1.477531E-03	3.655885E-05
3.994042E+03	1.472915E-03	3.642385E-05
3.996028E+03	1.474636E-03	3.644562E-05
3.998014E+03	1.476824E-03	3.647886E-05
4.000000E+03	1.476091E-03	3.643993E-05
4.001986E+03	1.465436E-03	3.615621E-05
4.003972E+03	1.459008E-03	3.597704E-05
4.005958E+03	1.449885E-03	3.573161E-05
4.007944E+03	1.450222E-03	3.571945E-05
4.009930E+03	1.462010E-03	3.598915E-05
4.011917E+03	1.466586E-03	3.608108E-05
4.013903E+03	1.457063E-03	3.582620E-05
4.015889E+03	1.454099E-03	3.573279E-05
4.017875E+03	1.456852E-03	3.577985E-05
4.019861E+03	1.452923E-03	3.566284E-05
4.021847E+03	1.455336E-03	3.570149E-05
4.023833E+03	1.447049E-03	3.547775E-05
4.025819E+03	1.429504E-03	3.502736E-05
4.027805E+03	1.417062E-03	3.470246E-05
4.029791E+03	1.409545E-03	3.449843E-05
4.031778E+03	1.403362E-03	3.432724E-05
4.033764E+03	1.397018E-03	3.415229E-05
4.035750E+03	1.396189E-03	3.411227E-05
4.037736E+03	1.382885E-03	3.376764E-05
4.039722E+03	1.375642E-03	3.357127E-05
4.041708E+03	1.369400E-03	3.339956E-05
4.043694E+03	1.364580E-03	3.326265E-05
4.045680E+03	1.354155E-03	3.298934E-05
4.047666E+03	1.340239E-03	3.263132E-05
4.049652E+03	1.329387E-03	3.234824E-05
4.051639E+03	1.327017E-03	3.227174E-05
4.053625E+03	1.327133E-03	3.225572E-05
4.055611E+03	1.323908E-03	3.215856E-05
4.057597E+03	1.316075E-03	3.194958E-05
4.059583E+03	1.307654E-03	3.172657E-05
4.061569E+03	1.298433E-03	3.148440E-05
4.063555E+03	1.304497E-03	3.161290E-05
4.065541E+03	1.311276E-03	3.175853E-05
4.067527E+03	1.309792E-03	3.170397E-05
4.069513E+03	1.316592E-03	3.184983E-05
4.071500E+03	1.324325E-03	3.201805E-05
4.073486E+03	1.332783E-03	3.220355E-05
4.075472E+03	1.342675E-03	3.242345E-05
4.077458E+03	1.346936E-03	3.250715E-05
4.079444E+03	1.352126E-03	3.261314E-05
4.081430E+03	1.341789E-03	3.234467E-05
4.083416E+03	1.339302E-03	3.226563E-05
4.085402E+03	1.353744E-03	3.259425E-05
4.087388E+03	1.362738E-03	3.279133E-05
4.089374E+03	1.367042E-03	3.287539E-05
4.091360E+03	1.380367E-03	3.317611E-05
4.093347E+03	1.385777E-03	3.328634E-05
4.095333E+03	1.396509E-03	3.352416E-05
4.097319E+03	1.412875E-03	3.389683E-05
4.099305E+03	1.429934E-03	3.428566E-05
4.101291E+03	1.449927E-03	3.474427E-05
4.103277E+03	1.451926E-03	3.477139E-05
4.105263E+03	1.461592E-03	3.498194E-05
4.107249E+03	1.482582E-03	3.546308E-05
4.109235E+03	1.495073E-03	3.574042E-05
4.111221E+03	1.506434E-03	3.599042E-05
4.113208E+03	1.518408E-03	3.625470E-05
4.115194E+03	1.525530E-03	3.640287E-05
4.117180E+03	1.546757E-03	3.688721E-05
4.119166E+03	1.558102E-03	3.713537E-05
4.121152E+03	1.568890E-03	3.736996E-05
4.123138E+03	1.576920E-03	3.753855E-05
4.125124E+03	1.577841E-03	3.753780E-05
4.127110E+03	1.579644E-03	3.755796E-05
4.129096E+03	1.573044E-03	3.737841E-05
4.131082E+03	1.573282E-03	3.736141E-05
4.133069E+03	1.574475E-03	3.736706E-05
4.135055E+03	1.578405E-03	3.743759E-05
4.137041E+03	1.580932E-03	3.747474E-05
4.139027E+03	1.585094E-03	3.755055E-05
4.141013E+03	1.578180E-03	3.736399E-05
4.142999E+03	1.573175E-03	3.722279E-05
4.144985E+03	1.560390E-03	3.689775E-05
4.146971E+03	1.551294E-03	3.666025E-05
4.148957E+03	1.539544E-03	3.636033E-05
4.150943E+03	1.543493E-03	3.643128E-05
4.152929E+03	1.548949E-03	3.653766E-05
4.154916E+03	1.556445E-03	3.669196E-05
4.156902E+03	1.561247E-03	3.678256E-05
4.158888E+03	1.551049E-03	3.651984E-05
4.160874E+03	1.541116E-03	3.626363E-05
4.162860E+03	1.531977E-03	3.602639E-05
4.164846E+03	1.526669E-03	3.587942E-05
4.166832E+03	1.527560E-03	3.587820E-05
4.168818E+03	1.516592E-03	3.559857E-05
4.170804E+03	1.498657E-03	3.515582E-05
4.172790E+03	1.490342E-03	3.493914E-05
4.174777E+03	1.486500E-03	3.482747E-05
4.176763E+03	1.485011E-03	3.477098E-05
4.178749E+03	1.500510E-03	3.511206E-05
4.180735E+03	1.502168E-03	3.512901E-05
4.182721E+03	1.490922E-03	3.484430E-05
4.184707E+03	1.494403E-03	3.490391E-05
4.186693E+03	1.502204E-03	3.506422E-05
4.188679E+03	1.496056E-03	3.489892E-05
4.190665E+03	1.498925E-03	3.494397E-05
4.192651E+03	1.509920E-03	3.517829E-05
4.194638E+03	1.517997E-03	3.534430E-05
4.196624E+03	1.513983E-03	3.522874E-05
4.198610E+03	1.510726E-03	3.513090E-05
4.200596E+03	1.507454E-03	3.503279E-05
4.202582E+03	1.515082E-03	3.518790E-05
4.204568E+03	1.522647E-03	3.534133E-05
4.206554E+03	1.530774E-03	3.550757E-05
4.208540E+03	1.535552E-03	3.559592E-05
4.210526E+03	1.539317E-03	3.566066E-05
4.212512E+03	1.553298E-03	3.596179E-05
4.214499E+03	1.576280E-03	3.647079E-05
4.216485E+03	1.591760E-03	3.680562E-05
4.218471E+03	1.609725E-03	3.719739E-05
4.220457E+03	1.622995E-03	3.748022E-05
4.222443E+03	1.622210E-03	3.743829E-05
4.224429E+03	1.627915E-03	3.754604E-05
4.226415E+03	1.637199E-03	3.773613E-05
4.228401E+03	1.644357E-03	3.787695E-05
4.230387E+03	1.658374E-03	3.817545E-05
4.232373E+03	1.674098E-03	3.851278E-05
4.234359E+03	1.682595E-03	3.868350E-05
4.236346E+03	1.691109E-03	3.885436E-05
4.238332E+03	1.703483E-03	3.911358E-05
4.240318E+03	1.699931E-03	3.900697E-05
4.242304E+03	1.696681E-03	3.890739E-05
4.244290E+03	1.700007E-03	3.895861E-05
4.246276E+03	1.703817E-03	3.902080E-05
4.248262E+03	1.708276E-03	3.909771E-05
4.250248E+03	1.710478E-03	3.912286E-05
4.252234E+03	1.702813E-03	3.892241E-05
4.254220E+03	1.694794E-03	3.871408E-05
4.256207E+03	1.691691E-03	3.861820E-05
4.258193E+03	1.691819E-03	3.859612E-05
4.260179E+03	1.686002E-03	3.843849E-05
4.262165E+03	1.681789E-03	3.831757E-05
4.264151E+03	1.674295E-03	3.812206E-05
4.266137E+03	1.666200E-03	3.791307E-05
4.268123E+03	1.660200E-03	3.775197E-05
4.270109E+03	1.643773E-03	3.735409E-05
4.272095E+03	1.632952E-03	3.708399E-05
4.274081E+03	1.618479E-03	3.673132E-05
4.276068E+03	1.594581E-03	3.616533E-05
4.278054E+03	1.571681E-03	3.562263E-05
4.280040E+03	1.559759E-03	3.532928E-05
4.282026E+03	1.556716E-03	3.523725E-05
4.284012E+03	1.542245E-03	3.488679E-05
4.285998E+03	1.524661E-03	3.446640E-05
4.287984E+03	1.511997E-03	3.415765E-05
4.289970E+03	1.507097E-03	3.402456E-05
4.291956E+03	1.506083E-03	3.397928E-05
4.293942E+03	1.501063E-03	3.384370E-05
4.295929E+03	1.500773E-03	3.381486E-05
4.297915E+03	1.488036E-03	3.350572E-05
4.299901E+03	1.472329E-03	3.313014E-05
4.301887E+03	1.470303E-03	3.306266E-05
4.303873E+03	1.461137E-03	3.283480E-05
4.305859E+03	1.458908E-03	3.276298E-05
4.307845E+03	1.462464E-03	3.282105E-05
4.309831E+03	1.471411E-03	3.299991E-05
4.311817E+03	1.477760E-03	3.312028E-05
4.313803E+03	1.481840E-03	3.318962E-05
4.315789E+03	1.495389E-03	3.347079E-05
4.317776E+03	1.500080E-03	3.355342E-05
4.319762E+03	1.509776E-03	3.374776E-05
4.321748E+03	1.519150E-03	3.393462E-05
4.323734E+03	1.520810E-03	3.394899E-05
4.325720E+03	1.518212E-03	3.386834E-05
4.327706E+03	1.525651E-03	3.401150E-05
4.329692E+03	1.546322E-03	3.444923E-05
4.331678E+03	1.563025E-03	3.479797E-05
4.333664E+03	1.568903E-03	3.490539E-05
4.335650E+03	1.574188E-03	3.499944E-05
4.337637E+03	1.588396E-03	3.529158E-05
4.339623E+03	1.606236E-03	3.566395E-05
4.341609E+03	1.627811E-03	3.611863E-05
4.343595E+03	1.645817E-03	3.649354E-05
4.345581E+03	1.671100E-03	3.702914E-05
4.347567E+03	1.692383E-03	3.747541E-05
4.349553E+03	1.692458E-03	3.745175E-05
4.351539E+03	1.699271E-03	3.757708E-05
4.353525E+03	1.705140E-03	3.768133E-05
4.355511E+03	1.708760E-03	3.773574E-05
4.357498E+03	1.727575E-03	3.812537E-05
4.359484E+03	1.751818E-03	3.863414E-05
4.361470E+03	1.761228E-03	3.881526E-05
4.363456E+03	1.775357E-03	3.910004E-05
4.365442E+03	1.795794E-03	3.952325E-05
4.367428E+03	1.807100E-03	3.974498E-05
4.369414E+03	1.818073E-03	3.995908E-05
4.371400E+03	1.836596E-03	4.033865E-05
4.373386E+03	1.852875E-03	4.066841E-05
4.375372E+03	1.868919E-03	4.099255E-05
4.377358E+03	1.891938E-03	4.146906E-05
4.379345E+03	1.911305E-03	4.186490E-05
4.381331E+03	1.930710E-03	4.226097E-05
4.383317E+03	1.949091E-03	4.263409E-05
4.385303E+03	1.953374E-03	4.269846E-05
4.387289E+03	1.955887E-03	4.272405E-05
4.389275E+03	1.968579E-03	4.297174E-05
4.391261E+03	1.980580E-03	4.320400E-05
4.393247E+03	1.987275E-03	4.332020E-05
4.395233E+03	1.995663E-03	4.347309E-05
4.397219E+03	2.004772E-03	4.364140E-05
4.399206E+03	2.010507E-03	4.373605E-05
4.401192E+03	2.022843E-03	4.397400E-05
4.403178E+03	2.030644E-03	4.411308E-05
4.405164E+03	2.032822E-03	4.412983E-05
4.407150E+03	2.049937E-03	4.447055E-05
4.409136E+03	2.075143E-03	4.498616E-05
4.411122E+03	2.087483E-03	4.522224E-05
4.413108E+03	2.092566E-03	4.530086E-05
4.415094E+03	2.099446E-03	4.541822E-05
4.417080E+03	2.113263E-03	4.568528E-05
4.419067E+03	2.123765E-03	4.588032E-05
4.421053E+03	2.140233E-03	4.620382E-05
4.423039E+03	2.161964E-03	4.664036E-05
4.425025E+03	2.175416E-03	4.689774E-05
4.427011E+03	2.192507E-03	4.723310E-05
4.428997E+03	2.213430E-03	4.765042E-05
4.430983E+03	2.226496E-03	4.789809E-05
4.432969E+03	2.235585E-03	4.805982E-05
4.434955E+03	2.245409E-03	4.823708E-05
4.436941E+03	2.256063E-03	4.843181E-05
4.438928E+03	2.269188E-03	4.867924E-05
4.440914E+03	2.285522E-03	4.899503E-05
4.442900E+03	2.306445E-03	4.940861E-05
4.444886E+03	2.321826E-03	4.970290E-05
4.446872E+03	2.333660E-03	4.992084E-05
4.448858E+03	2.353384E-03	5.030705E-05
4.450844E+03	2.370939E-03	5.064630E-05
4.452830E+03	2.388336E-03	5.098163E-05
4.454816E+03	2.400151E-03	5.119735E-05
4.456802E+03	2.411337E-03	5.139926E-05
4.458788E+03	2.432385E-03	5.181090E-05
4.460775E+03	2.448028E-03	5.210681E-05
4.462761E+03	2.456771E-03	5.225544E-05
4.464747E+03	2.462101E-03	5.233127E-05
4.466733E+03	2.463640E-03	5.232636E-05
4.468719E+03	2.468593E-03	5.239386E-05
4.470705E+03	2.485591E-03	5.271662E-05
4.472691E+03	2.499642E-03	5.297639E-05
4.474677E+03	2.511668E-03	5.319281E-05
4.476663E+03	2.522683E-03	5.338743E-05
4.478649E+03	2.533429E-03	5.357600E-05
4.480636E+03	2.536268E-03	5.359713E-05
4.482622E+03	2.544974E-03	5.374201E-05
4.484608E+03	2.561896E-03	5.405999E-05
4.486594E+03	2.578279E-03	5.436603E-05
4.488580E+03	2.593841E-03	5.465425E-05
4.490566E+03	2.602963E-03	5.480634E-05
4.492552E+03	2.606375E-03	5.483798E-05
4.494538E+03	2.606217E-03	5.479443E-05
4.496524E+03	2.605483E-03	5.473875E-05
4.498510E+03	2.617514E-03	5.495104E-05
4.500497E+03	2.619680E-03	5.495597E-05
4.502483E+03	2.622214E-03	5.496851E-05
4.504469E+03	2.638500E-03	5.526900E-05
4.506455E+03	2.643389E-03	5.533041E-05
4.508441E+03	2.637701E-03	5.517036E-05
4.510427E+03	2.634068E-03	5.505342E-05
4.512413E+03	2.629564E-03	5.491838E-05
4.514399E+03	2.625702E-03	5.479681E-05
4.516385E+03	2.621157E-03	5.466109E-05
4.518371E+03	2.620386E-03	5.460411E-05
4.520357E+03	2.615042E-03	5.445190E-05
4.522344E+03	2.610722E-03	5.432111E-05
4.524330E+03	2.616846E-03	5.440755E-05
4.526316E+03	2.628968E-03	5.461839E-05
4.528302E+03	2.636524E-03	5.473401E-05
4.530288E+03	2.640553E-03	5.477618E-05
4.532274E+03	2.642380E-03	5.477255E-05
4.534260E+03	2.654424E-03	5.498043E-05
4.536246E+03	2.668296E-03	5.522571E-05
4.538232E+03	2.679019E-03	5.540539E-05
4.540218E+03	2.686875E-03	5.552544E-05
4.542205E+03	2.701830E-03	5.579179E-05
4.544191E+03	2.711711E-03	5.595292E-05
4.546177E+03	2.713718E-03	5.595134E-05
4.548163E+03	2.714563E-03	5.592571E-05
4.550149E+03	2.724348E-03	5.608405E-05
4.552135E+03	2.732980E-03	5.621832E-05
4.554121E+03	2.739013E-03	5.629883E-05
4.556107E+03	2.752859E-03	5.653957E-05
4.558093E+03	2.772511E-03	5.689898E-05
4.560079E+03	2.783872E-03	5.708768E-05
4.562066E+03	2.800657E-03	5.738711E-05
