#wls	flux	fluxerr
1.588878E+03	1.001784E-05	2.666665E-07
1.628600E+03	1.015927E-05	2.696897E-07
1.668322E+03	1.012221E-05	2.679499E-07
1.708044E+03	9.898592E-06	2.612740E-07
1.747766E+03	9.490235E-06	2.497535E-07
1.787488E+03	8.889391E-06	2.332304E-07
1.827210E+03	8.094675E-06	2.117176E-07
1.866931E+03	7.128719E-06	1.858567E-07
1.906653E+03	6.032951E-06	1.567725E-07
1.946375E+03	4.886234E-06	1.265468E-07
1.986097E+03	3.792135E-06	9.787237E-08
2.025819E+03	2.859922E-06	7.355149E-08
2.065541E+03	2.164728E-06	5.547053E-08
2.105263E+03	1.726585E-06	4.407866E-08
2.144985E+03	1.518899E-06	3.862866E-08
2.184707E+03	1.497361E-06	3.793200E-08
2.224429E+03	1.621973E-06	4.092399E-08
2.264151E+03	1.856070E-06	4.663801E-08
2.303873E+03	2.165811E-06	5.419168E-08
2.343595E+03	2.523452E-06	6.286770E-08
2.383317E+03	2.912343E-06	7.223513E-08
2.423039E+03	3.333651E-06	8.230979E-08
2.462761E+03	3.801264E-06	9.341911E-08
2.502483E+03	4.341607E-06	1.061902E-07
2.542205E+03	4.981071E-06	1.212360E-07
2.581927E+03	5.744003E-06	1.391060E-07
2.621648E+03	6.657235E-06	1.603963E-07
2.661370E+03	7.768701E-06	1.861930E-07
2.701092E+03	9.164583E-06	2.184673E-07
2.740814E+03	1.095442E-05	2.596960E-07
2.780536E+03	1.326331E-05	3.126593E-07
2.820258E+03	1.621975E-05	3.801441E-07
2.859980E+03	1.995252E-05	4.648641E-07
2.899702E+03	2.458366E-05	5.692953E-07
2.939424E+03	3.022653E-05	6.956313E-07
2.979146E+03	3.698273E-05	8.457181E-07
2.989076E+03	3.885306E-05	8.870553E-07
2.999007E+03	4.079556E-05	9.298933E-07
3.008937E+03	4.281537E-05	9.743399E-07
3.018868E+03	4.491622E-05	1.020471E-06
3.028798E+03	4.711016E-05	1.068548E-06
3.038729E+03	4.940583E-05	1.118758E-06
3.048659E+03	5.180837E-05	1.171202E-06
3.058590E+03	5.431145E-05	1.225725E-06
3.068520E+03	5.692650E-05	1.282571E-06
3.078451E+03	5.964057E-05	1.341437E-06
3.088381E+03	6.246563E-05	1.402577E-06
3.098312E+03	6.538745E-05	1.465658E-06
3.108242E+03	6.841859E-05	1.530949E-06
3.118173E+03	7.154342E-05	1.598087E-06
3.128103E+03	7.477517E-05	1.667355E-06
3.138034E+03	7.811292E-05	1.738717E-06
3.147964E+03	8.153885E-05	1.811764E-06
3.157895E+03	8.506721E-05	1.886801E-06
3.167825E+03	8.869657E-05	1.963780E-06
3.177756E+03	9.241559E-05	2.042439E-06
3.187686E+03	9.623081E-05	2.122910E-06
3.197617E+03	1.001394E-04	2.205116E-06
3.207547E+03	1.041380E-04	2.288970E-06
3.217478E+03	1.082223E-04	2.374366E-06
3.227408E+03	1.123980E-04	2.461414E-06
3.237339E+03	1.166367E-04	2.549485E-06
3.247269E+03	1.209526E-04	2.638873E-06
3.257200E+03	1.253360E-04	2.729362E-06
3.267130E+03	1.297754E-04	2.820685E-06
3.277061E+03	1.342557E-04	2.912511E-06
3.286991E+03	1.387459E-04	3.004161E-06
3.296922E+03	1.432491E-04	3.095695E-06
3.306852E+03	1.477393E-04	3.186550E-06
3.316783E+03	1.521716E-04	3.275762E-06
3.326713E+03	1.565225E-04	3.362830E-06
3.336643E+03	1.607642E-04	3.447163E-06
3.346574E+03	1.648204E-04	3.527147E-06
3.356504E+03	1.686671E-04	3.602284E-06
3.366435E+03	8.684346E-05	1.851037E-06
3.368421E+03	8.751209E-05	1.864539E-06
3.370407E+03	8.973683E-05	1.911171E-06
3.372393E+03	9.083260E-05	1.933729E-06
3.374379E+03	9.084877E-05	1.933294E-06
3.376365E+03	9.286670E-05	1.975438E-06
3.378352E+03	9.449591E-05	2.009283E-06
3.380338E+03	9.681872E-05	2.057840E-06
3.382324E+03	9.865684E-05	2.096060E-06
3.384310E+03	1.008457E-04	2.141696E-06
3.386296E+03	1.012275E-04	2.148932E-06
3.388282E+03	1.040573E-04	2.208108E-06
3.390268E+03	1.048643E-04	2.224329E-06
3.392254E+03	1.066684E-04	2.261674E-06
3.394240E+03	1.093577E-04	2.317751E-06
3.396226E+03	1.119759E-04	2.372273E-06
3.398213E+03	1.140014E-04	2.414199E-06
3.400199E+03	1.174098E-04	2.485361E-06
3.402185E+03	1.210109E-04	2.560543E-06
3.404171E+03	1.230011E-04	2.601589E-06
3.406157E+03	1.239656E-04	2.620913E-06
3.408143E+03	1.256823E-04	2.656116E-06
3.410129E+03	1.282714E-04	2.709719E-06
3.412115E+03	1.302383E-04	2.750137E-06
3.414101E+03	1.321587E-04	2.789539E-06
3.416087E+03	1.344158E-04	2.836011E-06
3.418073E+03	1.353653E-04	2.854866E-06
3.420060E+03	1.361256E-04	2.869713E-06
3.422046E+03	1.378796E-04	2.905489E-06
3.424032E+03	1.397104E-04	2.942849E-06
3.426018E+03	1.427542E-04	3.005717E-06
3.428004E+03	1.457083E-04	3.066642E-06
3.429990E+03	1.490505E-04	3.135680E-06
3.431976E+03	1.515279E-04	3.186473E-06
3.433962E+03	1.530367E-04	3.216862E-06
3.435948E+03	1.556157E-04	3.269708E-06
3.437934E+03	1.582857E-04	3.324422E-06
3.439921E+03	1.599102E-04	3.357137E-06
3.441907E+03	1.607537E-04	3.373435E-06
3.443893E+03	1.613040E-04	3.383565E-06
3.445879E+03	1.614315E-04	3.384820E-06
3.447865E+03	1.620881E-04	3.397162E-06
3.449851E+03	1.625799E-04	3.406039E-06
3.451837E+03	1.620153E-04	3.392782E-06
3.453823E+03	1.617301E-04	3.385385E-06
3.455809E+03	1.631931E-04	3.414569E-06
3.457795E+03	1.625273E-04	3.399204E-06
3.459782E+03	1.622085E-04	3.391103E-06
3.461768E+03	1.622104E-04	3.389710E-06
3.463754E+03	1.617331E-04	3.378306E-06
3.465740E+03	1.612188E-04	3.366136E-06
3.467726E+03	1.602153E-04	3.343764E-06
3.469712E+03	1.595997E-04	3.329502E-06
3.471698E+03	1.571451E-04	3.276903E-06
3.473684E+03	1.556738E-04	3.244842E-06
3.475670E+03	1.547388E-04	3.223978E-06
3.477656E+03	1.541658E-04	3.210670E-06
3.479643E+03	1.535556E-04	3.196598E-06
3.481629E+03	1.523556E-04	3.170261E-06
3.483615E+03	1.508254E-04	3.137079E-06
3.485601E+03	1.500489E-04	3.119591E-06
3.487587E+03	1.497931E-04	3.112939E-06
3.489573E+03	1.495997E-04	3.107584E-06
3.491559E+03	1.483016E-04	3.079296E-06
3.493545E+03	1.487643E-04	3.087575E-06
3.495531E+03	1.487398E-04	3.085739E-06
3.497517E+03	1.479297E-04	3.067609E-06
3.499503E+03	1.478541E-04	3.064719E-06
3.501490E+03	1.478955E-04	3.064253E-06
3.503476E+03	1.481036E-04	3.067238E-06
3.505462E+03	1.491389E-04	3.087342E-06
3.507448E+03	1.493831E-04	3.091057E-06
3.509434E+03	1.510662E-04	3.124530E-06
3.511420E+03	1.520850E-04	3.144235E-06
3.513406E+03	1.528597E-04	3.158877E-06
3.515392E+03	1.531542E-04	3.163587E-06
3.517378E+03	1.545505E-04	3.191038E-06
3.519364E+03	1.545459E-04	3.189552E-06
3.521351E+03	1.561974E-04	3.222229E-06
3.523337E+03	1.571327E-04	3.240106E-06
3.525323E+03	1.584908E-04	3.266682E-06
3.527309E+03	1.600453E-04	3.297277E-06
3.529295E+03	1.608142E-04	3.311664E-06
3.531281E+03	1.622112E-04	3.338966E-06
3.533267E+03	1.633860E-04	3.361672E-06
3.535253E+03	1.634232E-04	3.360959E-06
3.537239E+03	1.639338E-04	3.369976E-06
3.539225E+03	1.662720E-04	3.416535E-06
3.541212E+03	1.687851E-04	3.466644E-06
3.543198E+03	1.704517E-04	3.499327E-06
3.545184E+03	1.717955E-04	3.525355E-06
3.547170E+03	1.734049E-04	3.556805E-06
3.549156E+03	1.750929E-04	3.589838E-06
3.551142E+03	1.765217E-04	3.617526E-06
3.553128E+03	1.780153E-04	3.646516E-06
3.555114E+03	1.795877E-04	3.677089E-06
3.557100E+03	1.807539E-04	3.699321E-06
3.559086E+03	1.810969E-04	3.704690E-06
3.561072E+03	1.821268E-04	3.724095E-06
3.563059E+03	1.838718E-04	3.758100E-06
3.565045E+03	1.855127E-04	3.789942E-06
3.567031E+03	1.859671E-04	3.797526E-06
3.569017E+03	1.867978E-04	3.812780E-06
3.571003E+03	1.877207E-04	3.829899E-06
3.572989E+03	1.876340E-04	3.826414E-06
3.574975E+03	1.884978E-04	3.842302E-06
3.576961E+03	1.884523E-04	3.839646E-06
3.578947E+03	1.887650E-04	3.844285E-06
3.580933E+03	1.882408E-04	3.831883E-06
3.582920E+03	1.889673E-04	3.844934E-06
3.584906E+03	1.894041E-04	3.852082E-06
3.586892E+03	1.887223E-04	3.836480E-06
3.588878E+03	1.890807E-04	3.842024E-06
3.590864E+03	1.884945E-04	3.828378E-06
3.592850E+03	1.883041E-04	3.822776E-06
3.594836E+03	1.882978E-04	3.820912E-06
3.596822E+03	1.875993E-04	3.805008E-06
3.598808E+03	1.863001E-04	3.776936E-06
3.600794E+03	1.848473E-04	3.745775E-06
3.602781E+03	1.833423E-04	3.713584E-06
3.604767E+03	1.824413E-04	3.693647E-06
3.606753E+03	1.811233E-04	3.665288E-06
3.608739E+03	1.810899E-04	3.662933E-06
3.610725E+03	1.798764E-04	3.636723E-06
3.612711E+03	1.774955E-04	3.586941E-06
3.614697E+03	1.758674E-04	3.552406E-06
3.616683E+03	1.756366E-04	3.546115E-06
3.618669E+03	1.747616E-04	3.526824E-06
3.620655E+03	1.740989E-04	3.511832E-06
3.622642E+03	1.736071E-04	3.500299E-06
3.624628E+03	1.732448E-04	3.491383E-06
3.626614E+03	1.729749E-04	3.484333E-06
3.628600E+03	1.727559E-04	3.478312E-06
3.630586E+03	1.725551E-04	3.472661E-06
3.632572E+03	1.723310E-04	3.466542E-06
3.634558E+03	1.720461E-04	3.459206E-06
3.636544E+03	1.716725E-04	3.450092E-06
3.638530E+03	1.711638E-04	3.438268E-06
3.640516E+03	1.701984E-04	3.417286E-06
3.642502E+03	1.699958E-04	3.411627E-06
3.644489E+03	1.701051E-04	3.412229E-06
3.646475E+03	1.698370E-04	3.405260E-06
3.648461E+03	1.710931E-04	3.428840E-06
3.650447E+03	1.713008E-04	3.431397E-06
3.652433E+03	1.697965E-04	3.399671E-06
3.654419E+03	1.694204E-04	3.390550E-06
3.656405E+03	1.690300E-04	3.381150E-06
3.658391E+03	1.682049E-04	3.363065E-06
3.660377E+03	1.678839E-04	3.355066E-06
3.662363E+03	1.664781E-04	3.325405E-06
3.664350E+03	1.652675E-04	3.299668E-06
3.666336E+03	1.632561E-04	3.257971E-06
3.668322E+03	1.616736E-04	3.224866E-06
3.670308E+03	1.601086E-04	3.192139E-06
3.672294E+03	1.584347E-04	3.157270E-06
3.674280E+03	1.567781E-04	3.122778E-06
3.676266E+03	1.551673E-04	3.089226E-06
3.678252E+03	1.534425E-04	3.053437E-06
3.680238E+03	1.526172E-04	3.035569E-06
3.682224E+03	1.508948E-04	2.999883E-06
3.684211E+03	1.493918E-04	2.968587E-06
3.686197E+03	1.476621E-04	2.932817E-06
3.688183E+03	1.469085E-04	2.916456E-06
3.690169E+03	1.448851E-04	2.874913E-06
3.692155E+03	1.432975E-04	2.842050E-06
3.694141E+03	1.425978E-04	2.826818E-06
3.696127E+03	1.408152E-04	2.790141E-06
3.698113E+03	1.383578E-04	2.740135E-06
3.700099E+03	1.360351E-04	2.692840E-06
3.702085E+03	1.336306E-04	2.643969E-06
3.704071E+03	1.319406E-04	2.609275E-06
3.706058E+03	1.299381E-04	2.568434E-06
3.708044E+03	1.279293E-04	2.527507E-06
3.710030E+03	1.254139E-04	2.476613E-06
3.712016E+03	1.230382E-04	2.428524E-06
3.714002E+03	1.206322E-04	2.379883E-06
3.715988E+03	1.188151E-04	2.342898E-06
3.717974E+03	1.156586E-04	2.279550E-06
3.719960E+03	1.136206E-04	2.238294E-06
3.721946E+03	1.111456E-04	2.188472E-06
3.723932E+03	1.086591E-04	2.138473E-06
3.725919E+03	1.067247E-04	2.099379E-06
3.727905E+03	1.052199E-04	2.068769E-06
3.729891E+03	1.035148E-04	2.034252E-06
3.731877E+03	1.026239E-04	2.015758E-06
3.733863E+03	1.024154E-04	2.010678E-06
3.735849E+03	1.012672E-04	1.987162E-06
3.737835E+03	1.003364E-04	1.967933E-06
3.739821E+03	9.959972E-05	1.952525E-06
3.741807E+03	9.942780E-05	1.948198E-06
3.743793E+03	9.818167E-05	1.922835E-06
3.745780E+03	9.774291E-05	1.913300E-06
3.747766E+03	9.719915E-05	1.901718E-06
3.749752E+03	9.694064E-05	1.895725E-06
3.751738E+03	9.692475E-05	1.894478E-06
3.753724E+03	9.732817E-05	1.901423E-06
3.755710E+03	9.784154E-05	1.910506E-06
3.757696E+03	9.913257E-05	1.934757E-06
3.759682E+03	9.993829E-05	1.949515E-06
3.761668E+03	1.003297E-04	1.956178E-06
3.763654E+03	1.012275E-04	1.972702E-06
3.765641E+03	1.022503E-04	1.991643E-06
3.767627E+03	1.027725E-04	2.000817E-06
3.769613E+03	1.043371E-04	2.030266E-06
3.771599E+03	1.058650E-04	2.058969E-06
3.773585E+03	1.080880E-04	2.101154E-06
3.775571E+03	1.088916E-04	2.115717E-06
3.777557E+03	1.105434E-04	2.146737E-06
3.779543E+03	1.125035E-04	2.183705E-06
3.781529E+03	1.142929E-04	2.217325E-06
3.783515E+03	1.163236E-04	2.255589E-06
3.785501E+03	1.173586E-04	2.274514E-06
3.787488E+03	1.194791E-04	2.314445E-06
3.789474E+03	1.219137E-04	2.360417E-06
3.791460E+03	1.233276E-04	2.386588E-06
3.793446E+03	1.254011E-04	2.425489E-06
3.795432E+03	1.272362E-04	2.459741E-06
3.797418E+03	1.294387E-04	2.501053E-06
3.799404E+03	1.317924E-04	2.545243E-06
3.801390E+03	1.334697E-04	2.576329E-06
3.803376E+03	1.360540E-04	2.624881E-06
3.805362E+03	1.371375E-04	2.644442E-06
3.807349E+03	1.390224E-04	2.679424E-06
3.809335E+03	1.423752E-04	2.742648E-06
3.811321E+03	1.466625E-04	2.823797E-06
3.813307E+03	1.509394E-04	2.904661E-06
3.815293E+03	1.550755E-04	2.982732E-06
3.817279E+03	1.594764E-04	3.065812E-06
3.819265E+03	1.639252E-04	3.149724E-06
3.821251E+03	1.691279E-04	3.248026E-06
3.823237E+03	1.743549E-04	3.346692E-06
3.825223E+03	1.800517E-04	3.454267E-06
3.827210E+03	1.854586E-04	3.556171E-06
3.829196E+03	1.920046E-04	3.679797E-06
3.831182E+03	1.981934E-04	3.796451E-06
3.833168E+03	2.040683E-04	3.906970E-06
3.835154E+03	2.103952E-04	4.026024E-06
3.837140E+03	2.182236E-04	4.173668E-06
3.839126E+03	2.252194E-04	4.305241E-06
3.841112E+03	2.329899E-04	4.451476E-06
3.843098E+03	2.415751E-04	4.613113E-06
3.845084E+03	2.487972E-04	4.748563E-06
3.847071E+03	2.562991E-04	4.889205E-06
3.849057E+03	2.639204E-04	5.031976E-06
3.851043E+03	2.715786E-04	5.175296E-06
3.853029E+03	2.796881E-04	5.327058E-06
3.855015E+03	2.875814E-04	5.474544E-06
3.857001E+03	2.956291E-04	5.624808E-06
3.858987E+03	3.030555E-04	5.763094E-06
3.860973E+03	3.106456E-04	5.904345E-06
3.862959E+03	3.183560E-04	6.047728E-06
3.864945E+03	3.254047E-04	6.178392E-06
3.866931E+03	3.325586E-04	6.310910E-06
3.868918E+03	3.394753E-04	6.438785E-06
3.870904E+03	3.468251E-04	6.574731E-06
3.872890E+03	3.542951E-04	6.712807E-06
3.874876E+03	3.618465E-04	6.852274E-06
3.876862E+03	3.685676E-04	6.975873E-06
3.878848E+03	3.748054E-04	7.090193E-06
3.880834E+03	3.813001E-04	7.209244E-06
3.882820E+03	3.873256E-04	7.319296E-06
3.884806E+03	3.931218E-04	7.424895E-06
3.886792E+03	3.997253E-04	7.545617E-06
3.888779E+03	4.062425E-04	7.664576E-06
3.890765E+03	4.116501E-04	7.762478E-06
3.892751E+03	4.169011E-04	7.857319E-06
3.894737E+03	4.225323E-04	7.959215E-06
3.896723E+03	4.284358E-04	8.066121E-06
3.898709E+03	4.341929E-04	8.170153E-06
3.900695E+03	4.391229E-04	8.258512E-06
3.902681E+03	4.437870E-04	8.341771E-06
3.904667E+03	4.489402E-04	8.434124E-06
3.906653E+03	4.538324E-04	8.521472E-06
3.908640E+03	4.594815E-04	8.622921E-06
3.910626E+03	4.649738E-04	8.721315E-06
3.912612E+03	4.699627E-04	8.810157E-06
3.914598E+03	4.764918E-04	8.927756E-06
3.916584E+03	4.816563E-04	9.019667E-06
3.918570E+03	4.876445E-04	9.126887E-06
3.920556E+03	4.932725E-04	9.227248E-06
3.922542E+03	4.988573E-04	9.326684E-06
3.924528E+03	5.049796E-04	9.436050E-06
3.926514E+03	5.118538E-04	9.559331E-06
3.928500E+03	5.177421E-04	9.664069E-06
3.930487E+03	5.245817E-04	9.786432E-06
3.932473E+03	5.307826E-04	9.896745E-06
3.934459E+03	5.374882E-04	1.001634E-05
3.936445E+03	5.440024E-04	1.013222E-05
3.938431E+03	5.508230E-04	1.025368E-05
3.940417E+03	5.577013E-04	1.037607E-05
3.942403E+03	5.656350E-04	1.051794E-05
3.944389E+03	5.741266E-04	1.067002E-05
3.946375E+03	5.820789E-04	1.081191E-05
3.948361E+03	5.897406E-04	1.094824E-05
3.950348E+03	5.974611E-04	1.108550E-05
3.952334E+03	6.059408E-04	1.123667E-05
3.954320E+03	6.140300E-04	1.138044E-05
3.956306E+03	6.217280E-04	1.151679E-05
3.958292E+03	6.299861E-04	1.166336E-05
3.960278E+03	6.378027E-04	1.180158E-05
3.962264E+03	6.461300E-04	1.194908E-05
3.964250E+03	6.543166E-04	1.209382E-05
3.966236E+03	6.624123E-04	1.223670E-05
3.968222E+03	6.705678E-04	1.238052E-05
3.970209E+03	6.783811E-04	1.251785E-05
3.972195E+03	6.862539E-04	1.265612E-05
3.974181E+03	6.942870E-04	1.279719E-05
3.976167E+03	7.015242E-04	1.292342E-05
3.978153E+03	7.097271E-04	1.306728E-05
3.980139E+03	7.175365E-04	1.320373E-05
3.982125E+03	7.255569E-04	1.334390E-05
3.984111E+03	7.324769E-04	1.346367E-05
3.986097E+03	7.389508E-04	1.357511E-05
3.988083E+03	7.450284E-04	1.367913E-05
3.990070E+03	7.505069E-04	1.377203E-05
3.992056E+03	7.555876E-04	1.385752E-05
3.994042E+03	7.604721E-04	1.393930E-05
3.996028E+03	7.647551E-04	1.400997E-05
3.998014E+03	7.689423E-04	1.407878E-05
4.000000E+03	7.727291E-04	1.414019E-05
4.001986E+03	7.764194E-04	1.419974E-05
4.003972E+03	7.800129E-04	1.425745E-05
4.005958E+03	7.816309E-04	1.427899E-05
4.007944E+03	7.827938E-04	1.429219E-05
4.009930E+03	7.830430E-04	1.428868E-05
4.011917E+03	7.827846E-04	1.427591E-05
4.013903E+03	7.820684E-04	1.425480E-05
4.015889E+03	7.809443E-04	1.422627E-05
4.017875E+03	7.796155E-04	1.419403E-05
4.019861E+03	7.779287E-04	1.415530E-05
4.021847E+03	7.751180E-04	1.409617E-05
4.023833E+03	7.729169E-04	1.404817E-05
4.025819E+03	7.698455E-04	1.398440E-05
4.027805E+03	7.668219E-04	1.392156E-05
4.029791E+03	7.645110E-04	1.387171E-05
4.031778E+03	7.623001E-04	1.382372E-05
4.033764E+03	7.590630E-04	1.375717E-05
4.035750E+03	7.565909E-04	1.370454E-05
4.037736E+03	7.536549E-04	1.364357E-05
4.039722E+03	7.505105E-04	1.357888E-05
4.041708E+03	7.471062E-04	1.350955E-05
4.043694E+03	7.434928E-04	1.343652E-05
4.045680E+03	7.403892E-04	1.337276E-05
4.047666E+03	7.373336E-04	1.330993E-05
4.049652E+03	7.333487E-04	1.323039E-05
4.051639E+03	7.306461E-04	1.317406E-05
4.053625E+03	7.261381E-04	1.308524E-05
4.055611E+03	7.225524E-04	1.301313E-05
4.057597E+03	7.190143E-04	1.294194E-05
4.059583E+03	7.153690E-04	1.286890E-05
4.061569E+03	7.118228E-04	1.279771E-05
4.063555E+03	7.081176E-04	1.272374E-05
4.065541E+03	7.050801E-04	1.266183E-05
4.067527E+03	7.016254E-04	1.259249E-05
4.069513E+03	6.975458E-04	1.251201E-05
4.071500E+03	6.932543E-04	1.242782E-05
4.073486E+03	6.891132E-04	1.234641E-05
4.075472E+03	6.857968E-04	1.227985E-05
4.077458E+03	6.818540E-04	1.220214E-05
4.079444E+03	6.784776E-04	1.213465E-05
4.081430E+03	6.759281E-04	1.208201E-05
4.083416E+03	6.736356E-04	1.203400E-05
4.085402E+03	6.707684E-04	1.197578E-05
4.087388E+03	6.682621E-04	1.192406E-05
4.089374E+03	6.664296E-04	1.188440E-05
4.091360E+03	6.650638E-04	1.185310E-05
4.093347E+03	6.629146E-04	1.180787E-05
4.095333E+03	6.615452E-04	1.177657E-05
4.097319E+03	6.609569E-04	1.175918E-05
4.099305E+03	6.603681E-04	1.174180E-05
4.101291E+03	6.600921E-04	1.172999E-05
4.103277E+03	6.605478E-04	1.173117E-05
4.105263E+03	6.605333E-04	1.172400E-05
4.107249E+03	6.607282E-04	1.172054E-05
4.109235E+03	6.610804E-04	1.171986E-05
4.111221E+03	6.605421E-04	1.170340E-05
4.113208E+03	6.604752E-04	1.169529E-05
4.115194E+03	6.602508E-04	1.168439E-05
4.117180E+03	6.600261E-04	1.167349E-05
4.119166E+03	6.603791E-04	1.167281E-05
4.121152E+03	6.603644E-04	1.166562E-05
4.123138E+03	6.595608E-04	1.164449E-05
4.125124E+03	6.599666E-04	1.164473E-05
4.127110E+03	6.585296E-04	1.161246E-05
4.129096E+03	6.581447E-04	1.159875E-05
4.131082E+03	6.575485E-04	1.158133E-05
4.133069E+03	6.562654E-04	1.155183E-05
4.135055E+03	6.545583E-04	1.151490E-05
4.137041E+03	6.537999E-04	1.149468E-05
4.139027E+03	6.520890E-04	1.145773E-05
4.141013E+03	6.490006E-04	1.139664E-05
4.142999E+03	6.465963E-04	1.134761E-05
4.144985E+03	6.444009E-04	1.130229E-05
4.146971E+03	6.412486E-04	1.124024E-05
4.148957E+03	6.378802E-04	1.117448E-05
4.150943E+03	6.344014E-04	1.110685E-05
4.152929E+03	6.308651E-04	1.103828E-05
4.154916E+03	6.274837E-04	1.097249E-05
4.156902E+03	6.238853E-04	1.090299E-05
4.158888E+03	6.198035E-04	1.082511E-05
4.160874E+03	6.166213E-04	1.076302E-05
4.162860E+03	6.140209E-04	1.071115E-05
4.164846E+03	6.109908E-04	1.065184E-05
4.166832E+03	6.077434E-04	1.058880E-05
4.168818E+03	6.048120E-04	1.053133E-05
4.170804E+03	6.019835E-04	1.047572E-05
4.172790E+03	5.997925E-04	1.043125E-05
4.174777E+03	5.972242E-04	1.038026E-05
4.176763E+03	5.948666E-04	1.033299E-05
4.178749E+03	5.922917E-04	1.028200E-05
4.180735E+03	5.907311E-04	1.024865E-05
4.182721E+03	5.888467E-04	1.020972E-05
4.184707E+03	5.878713E-04	1.018658E-05
4.186693E+03	5.870018E-04	1.016530E-05
4.188679E+03	5.865068E-04	1.015051E-05
4.190665E+03	5.867631E-04	1.014872E-05
4.192651E+03	5.875570E-04	1.015622E-05
4.194638E+03	5.879213E-04	1.015629E-05
4.196624E+03	5.874784E-04	1.014240E-05
4.198610E+03	5.874656E-04	1.013595E-05
4.200596E+03	5.870752E-04	1.012298E-05
4.202582E+03	5.875468E-04	1.012488E-05
4.204568E+03	5.876411E-04	1.012026E-05
4.206554E+03	5.880590E-04	1.012121E-05
4.208540E+03	5.883692E-04	1.012030E-05
4.210526E+03	5.895443E-04	1.013425E-05
4.212512E+03	5.912074E-04	1.015655E-05
4.214499E+03	5.916814E-04	1.015841E-05
4.216485E+03	5.922099E-04	1.016118E-05
4.218471E+03	5.938224E-04	1.018254E-05
4.220457E+03	5.951656E-04	1.019924E-05
4.222443E+03	5.966185E-04	1.021779E-05
4.224429E+03	5.988330E-04	1.024934E-05
4.226415E+03	6.007781E-04	1.027624E-05
4.228401E+03	6.029427E-04	1.030684E-05
4.230387E+03	6.053816E-04	1.034209E-05
4.232373E+03	6.082041E-04	1.038383E-05
4.234359E+03	6.108118E-04	1.042184E-05
