#wls	flux	fluxerr
1.588878E+03	4.135535E-07	1.001502E-07
1.628600E+03	4.147824E-07	9.974144E-08
1.668322E+03	4.097729E-07	9.782501E-08
1.708044E+03	3.987449E-07	9.448588E-08
1.747766E+03	3.818155E-07	8.978457E-08
1.787488E+03	3.586895E-07	8.368582E-08
1.827210E+03	3.291806E-07	7.618301E-08
1.866931E+03	2.935877E-07	6.738378E-08
1.906653E+03	2.530607E-07	5.758851E-08
1.946375E+03	2.099689E-07	4.736489E-08
1.986097E+03	1.679720E-07	3.755106E-08
2.025819E+03	1.314029E-07	2.910479E-08
2.065541E+03	1.038345E-07	2.278044E-08
2.105263E+03	8.700900E-08	1.890291E-08
2.144985E+03	8.086963E-08	1.739295E-08
2.184707E+03	8.465927E-08	1.802026E-08
2.224429E+03	9.774424E-08	2.058485E-08
2.264151E+03	1.194726E-07	2.488641E-08
2.303873E+03	1.488912E-07	3.066640E-08
2.343595E+03	1.846220E-07	3.758679E-08
2.383317E+03	2.252380E-07	4.531111E-08
2.423039E+03	2.695449E-07	5.356164E-08
2.462761E+03	3.167925E-07	6.215843E-08
2.502483E+03	3.667547E-07	7.102986E-08
2.542205E+03	4.195152E-07	8.016503E-08
2.581927E+03	4.755762E-07	8.963037E-08
2.621648E+03	5.356999E-07	9.953460E-08
2.661370E+03	6.006875E-07	1.099845E-07
2.701092E+03	6.715412E-07	1.211135E-07
2.740814E+03	7.495904E-07	1.331006E-07
2.780536E+03	8.359221E-07	1.460661E-07
2.820258E+03	9.322851E-07	1.602301E-07
2.859980E+03	1.040054E-06	1.757270E-07
2.899702E+03	1.161143E-06	1.927625E-07
2.939424E+03	1.297763E-06	2.115655E-07
2.979146E+03	1.452349E-06	2.323708E-07
2.989076E+03	1.494085E-06	2.379089E-07
2.999007E+03	1.537264E-06	2.436083E-07
3.008937E+03	1.581757E-06	2.494451E-07
3.018868E+03	1.627913E-06	2.554709E-07
3.028798E+03	1.676004E-06	2.617237E-07
3.038729E+03	1.726736E-06	2.683088E-07
3.048659E+03	1.779914E-06	2.751893E-07
3.058590E+03	1.835756E-06	2.823926E-07
3.068520E+03	1.894288E-06	2.899165E-07
3.078451E+03	1.955323E-06	2.977255E-07
3.088381E+03	2.019120E-06	3.058525E-07
3.098312E+03	2.085494E-06	3.142631E-07
3.108242E+03	2.154736E-06	3.229939E-07
3.118173E+03	2.226667E-06	3.320114E-07
3.128103E+03	2.301609E-06	3.413564E-07
3.138034E+03	2.379393E-06	3.509964E-07
3.147964E+03	2.460652E-06	3.610167E-07
3.157895E+03	2.544688E-06	3.713070E-07
3.167825E+03	2.632458E-06	3.819988E-07
3.177756E+03	2.723544E-06	3.930223E-07
3.187686E+03	2.818091E-06	4.043899E-07
3.197617E+03	2.916891E-06	4.162055E-07
3.207547E+03	3.019209E-06	4.283541E-07
3.217478E+03	3.126219E-06	4.409920E-07
3.227408E+03	3.237518E-06	4.540508E-07
3.237339E+03	3.353712E-06	4.676038E-07
3.247269E+03	3.474743E-06	4.816303E-07
3.257200E+03	3.601293E-06	4.962120E-07
3.267130E+03	3.733733E-06	5.113851E-07
3.277061E+03	3.872469E-06	5.271900E-07
3.286991E+03	4.017534E-06	5.436147E-07
3.296922E+03	4.169800E-06	5.607600E-07
3.306852E+03	4.329356E-06	5.786194E-07
3.316783E+03	4.497189E-06	5.973047E-07
3.326713E+03	4.673922E-06	6.168770E-07
3.336643E+03	4.860233E-06	6.374021E-07
3.346574E+03	5.056359E-06	6.588859E-07
3.356504E+03	5.263566E-06	6.814669E-07
3.366435E+03	5.482708E-06	7.052261E-07
3.376365E+03	5.714158E-06	7.301803E-07
3.386296E+03	5.959434E-06	7.564900E-07
3.396226E+03	6.219603E-06	7.842539E-07
3.406157E+03	6.495205E-06	8.135008E-07
3.416087E+03	6.788671E-06	8.444929E-07
3.426018E+03	7.100062E-06	8.771912E-07
3.435948E+03	7.431393E-06	9.117962E-07
3.445879E+03	7.783439E-06	9.483502E-07
3.455809E+03	8.158421E-06	9.870680E-07
3.465740E+03	8.558014E-06	1.028091E-06
3.475670E+03	8.983967E-06	1.071563E-06
3.485601E+03	9.438113E-06	1.117633E-06
3.495531E+03	9.921520E-06	1.166352E-06
3.505462E+03	1.043704E-05	1.217976E-06
3.515392E+03	1.098680E-05	1.272669E-06
3.525323E+03	1.157204E-05	1.330482E-06
3.535253E+03	1.219603E-05	1.391697E-06
3.545184E+03	1.286121E-05	1.456487E-06
3.555114E+03	1.357014E-05	1.525032E-06
3.565045E+03	1.432546E-05	1.597515E-06
3.574975E+03	1.512865E-05	1.673975E-06
3.584906E+03	1.598373E-05	1.754729E-06
3.594836E+03	1.689362E-05	1.839961E-06
3.604767E+03	1.786137E-05	1.929854E-06
3.614697E+03	1.888849E-05	2.024422E-06
3.624628E+03	1.997958E-05	2.123996E-06
3.634558E+03	2.113784E-05	2.228749E-06
3.644489E+03	2.236650E-05	2.338844E-06
3.654419E+03	2.366693E-05	2.454238E-06
3.664350E+03	2.504611E-05	2.575463E-06
3.674280E+03	2.650331E-05	2.702241E-06
3.684211E+03	2.804138E-05	2.834658E-06
3.694141E+03	2.966770E-05	2.973243E-06
3.704071E+03	3.138063E-05	3.117607E-06
3.714002E+03	3.318512E-05	3.268014E-06
3.723932E+03	3.508369E-05	3.424474E-06
3.733863E+03	3.707577E-05	3.586693E-06
3.743793E+03	3.916584E-05	3.754860E-06
3.753724E+03	4.135543E-05	3.928873E-06
3.763654E+03	4.364566E-05	4.108584E-06
3.773585E+03	4.603369E-05	4.293476E-06
3.783515E+03	4.852265E-05	4.483593E-06
3.793446E+03	5.111191E-05	4.678625E-06
3.803376E+03	5.379623E-05	4.877851E-06
3.813307E+03	5.657705E-05	5.081164E-06
3.823237E+03	5.945138E-05	5.288068E-06
3.833168E+03	6.241093E-05	5.497604E-06
3.843098E+03	6.545492E-05	5.709504E-06
3.853029E+03	6.857752E-05	5.923069E-06
3.862959E+03	7.177175E-05	6.137520E-06
3.872890E+03	7.502467E-05	6.351604E-06
3.882820E+03	7.832674E-05	6.564398E-06
3.892751E+03	8.167301E-05	6.775393E-06
3.902681E+03	8.505278E-05	6.983631E-06
3.912612E+03	8.845462E-05	7.188130E-06
3.922542E+03	9.186019E-05	7.387396E-06
3.932473E+03	9.525659E-05	7.580432E-06
3.942403E+03	9.863715E-05	7.766775E-06
3.952334E+03	1.019894E-04	7.945540E-06
3.962264E+03	1.052944E-04	8.115375E-06
3.972195E+03	1.085470E-04	8.276063E-06
3.982125E+03	1.117295E-04	8.426444E-06
3.992056E+03	1.148318E-04	8.565994E-06
4.001986E+03	1.178528E-04	8.694877E-06
4.011917E+03	1.207859E-04	8.812875E-06
4.021847E+03	1.236184E-04	8.919342E-06
4.031778E+03	1.263473E-04	9.014357E-06
4.041708E+03	1.289789E-04	9.098688E-06
4.051639E+03	1.315062E-04	9.172142E-06
4.061569E+03	1.339318E-04	9.235213E-06
4.071500E+03	1.362684E-04	9.289072E-06
4.081430E+03	1.385142E-04	9.333873E-06
4.091360E+03	1.406770E-04	9.370417E-06
4.101291E+03	1.427742E-04	9.400117E-06
4.111221E+03	1.447993E-04	9.422775E-06
4.121152E+03	1.467803E-04	9.440436E-06
4.131082E+03	1.487294E-04	9.454045E-06
4.141013E+03	1.506421E-04	9.463468E-06
4.150943E+03	1.525482E-04	9.470730E-06
4.160874E+03	1.544525E-04	9.476220E-06
4.170804E+03	1.563592E-04	9.480279E-06
4.180735E+03	1.582990E-04	9.484840E-06
4.190665E+03	1.602848E-04	9.490694E-06
4.200596E+03	1.623110E-04	9.497517E-06
4.210526E+03	1.643986E-04	9.506538E-06
4.220457E+03	1.665585E-04	9.518366E-06
4.230387E+03	1.688006E-04	9.533541E-06
4.240318E+03	1.711343E-04	9.552532E-06
4.250248E+03	1.735671E-04	9.575718E-06
4.260179E+03	1.761056E-04	9.603393E-06
4.270109E+03	1.787546E-04	9.635763E-06
4.280040E+03	1.815173E-04	9.672948E-06
4.289970E+03	1.843855E-04	9.714468E-06
4.299901E+03	1.873778E-04	9.761272E-06
4.309831E+03	1.904724E-04	9.812202E-06
4.319762E+03	1.936746E-04	9.867534E-06
4.329692E+03	1.969679E-04	9.926461E-06
4.339623E+03	2.003648E-04	9.989663E-06
4.349553E+03	2.038382E-04	1.005584E-05
4.359484E+03	2.073958E-04	1.012549E-05
4.369414E+03	2.110363E-04	1.019865E-05
4.379345E+03	2.147908E-04	1.027691E-05
4.389275E+03	2.186858E-04	1.036162E-05
4.399206E+03	2.227378E-04	1.045362E-05
4.409136E+03	2.269833E-04	1.055467E-05
4.419067E+03	2.314331E-04	1.066528E-05
4.428997E+03	2.361156E-04	1.078680E-05
4.438928E+03	2.410305E-04	1.091924E-05
4.448858E+03	2.461932E-04	1.106332E-05
4.458788E+03	2.515877E-04	1.121823E-05
4.468719E+03	2.572130E-04	1.138382E-05
4.478649E+03	2.630340E-04	1.155844E-05
4.488580E+03	2.690304E-04	1.174113E-05
4.498510E+03	2.751334E-04	1.192885E-05
4.508441E+03	2.813289E-04	1.212098E-05
4.518371E+03	2.875161E-04	1.231321E-05
4.528302E+03	2.936525E-04	1.250378E-05
4.538232E+03	2.996503E-04	1.268905E-05
4.548163E+03	3.054326E-04	1.286589E-05
4.558093E+03	3.109366E-04	1.303179E-05
4.568024E+03	3.160756E-04	1.318327E-05
4.577954E+03	3.207833E-04	1.331775E-05
4.587885E+03	3.250034E-04	1.343304E-05
4.597815E+03	3.287061E-04	1.352809E-05
4.607746E+03	3.318470E-04	1.360121E-05
4.617676E+03	3.343954E-04	1.365128E-05
4.627607E+03	3.363804E-04	1.367962E-05
4.637537E+03	3.378152E-04	1.368683E-05
4.647468E+03	3.386960E-04	1.367282E-05
4.657398E+03	3.390745E-04	1.363972E-05
4.667329E+03	3.390112E-04	1.358998E-05
4.677259E+03	3.385293E-04	1.352449E-05
4.687190E+03	3.377154E-04	1.344668E-05
4.697120E+03	3.366004E-04	1.335772E-05
4.707051E+03	3.352746E-04	1.326112E-05
4.716981E+03	3.337839E-04	1.315858E-05
4.726912E+03	3.321871E-04	1.305231E-05
4.736842E+03	3.305266E-04	1.294385E-05
4.746773E+03	3.288834E-04	1.283623E-05
4.756703E+03	3.272924E-04	1.273066E-05
4.766634E+03	3.257989E-04	1.262874E-05
4.776564E+03	3.244441E-04	1.253189E-05
4.786495E+03	3.232518E-04	1.244086E-05
4.796425E+03	3.222826E-04	1.235778E-05
4.806356E+03	3.215522E-04	1.228306E-05
4.816286E+03	3.210863E-04	1.221747E-05
4.826216E+03	3.208926E-04	1.216109E-05
4.836147E+03	3.210141E-04	1.211531E-05
4.846077E+03	3.214485E-04	1.207982E-05
4.856008E+03	3.221882E-04	1.205408E-05
4.865938E+03	3.232582E-04	1.203880E-05
4.875869E+03	3.246240E-04	1.203242E-05
4.885799E+03	3.262964E-04	1.203510E-05
4.895730E+03	3.282257E-04	1.204477E-05
4.905660E+03	3.303948E-04	1.206057E-05
4.915591E+03	3.327802E-04	1.208142E-05
4.925521E+03	3.353139E-04	1.210464E-05
4.935452E+03	3.379638E-04	1.212892E-05
4.945382E+03	3.406841E-04	1.215246E-05
4.955313E+03	3.434304E-04	1.217357E-05
4.965243E+03	3.461627E-04	1.219075E-05
4.975174E+03	3.488482E-04	1.220280E-05
4.985104E+03	3.514629E-04	1.220886E-05
4.995035E+03	3.539934E-04	1.220846E-05
5.004965E+03	3.564376E-04	1.220156E-05
5.014896E+03	3.588038E-04	1.218848E-05
5.024826E+03	3.610958E-04	1.216938E-05
5.034757E+03	3.633663E-04	1.214606E-05
5.044687E+03	3.656307E-04	1.211905E-05
5.054618E+03	3.679049E-04	1.208888E-05
5.064548E+03	3.702466E-04	1.205744E-05
5.074479E+03	3.726659E-04	1.202500E-05
5.084409E+03	3.751670E-04	1.199167E-05
5.094340E+03	3.777900E-04	1.195867E-05
5.104270E+03	3.805085E-04	1.192512E-05
5.114201E+03	3.833473E-04	1.189175E-05
5.124131E+03	3.862651E-04	1.185724E-05
5.134062E+03	3.892742E-04	1.182198E-05
5.143992E+03	3.923224E-04	1.178441E-05
5.153923E+03	3.954144E-04	1.174473E-05
5.163853E+03	3.984930E-04	1.170135E-05
5.173784E+03	4.015605E-04	1.165448E-05
5.183714E+03	4.045582E-04	1.160261E-05
5.193644E+03	4.074888E-04	1.154608E-05
5.203575E+03	4.102944E-04	1.148354E-05
5.213505E+03	4.129802E-04	1.141546E-05
5.223436E+03	4.155052E-04	1.134111E-05
5.233366E+03	4.178295E-04	1.125983E-05
5.243297E+03	4.199618E-04	1.117235E-05
5.253227E+03	4.218656E-04	1.107822E-05
5.263158E+03	4.235220E-04	1.097750E-05
5.273088E+03	4.249159E-04	1.087040E-05
5.283019E+03	4.260356E-04	1.075725E-05
5.292949E+03	4.268753E-04	1.063858E-05
5.302880E+03	4.274350E-04	1.051503E-05
5.312810E+03	4.277379E-04	1.038786E-05
5.322741E+03	4.277676E-04	1.025733E-05
5.332671E+03	4.275796E-04	1.012543E-05
5.342602E+03	4.271747E-04	9.992797E-06
5.352532E+03	4.266257E-04	9.861734E-06
5.362463E+03	4.259654E-04	9.733540E-06
5.372393E+03	4.252488E-04	9.609972E-06
5.382324E+03	4.245372E-04	9.492865E-06
5.392254E+03	4.239115E-04	9.384422E-06
5.402185E+03	4.234083E-04	9.285798E-06
5.412115E+03	4.231297E-04	9.199533E-06
5.422046E+03	4.231313E-04	9.127094E-06
5.431976E+03	4.234834E-04	9.070222E-06
5.441907E+03	4.242480E-04	9.030453E-06
5.451837E+03	4.254732E-04	9.008939E-06
5.461768E+03	4.270870E-04	9.003811E-06
5.471698E+03	4.289829E-04	9.012315E-06
5.481629E+03	4.309505E-04	9.029540E-06
5.491559E+03	4.327996E-04	9.051031E-06
5.501490E+03	4.343052E-04	9.071597E-06
5.511420E+03	4.353320E-04	9.087898E-06
5.521351E+03	4.357287E-04	9.096215E-06
5.531281E+03	4.354135E-04	9.094233E-06
5.541212E+03	4.342957E-04	9.079405E-06
5.551142E+03	4.323878E-04	9.051310E-06
5.561072E+03	4.296913E-04	9.009271E-06
5.571003E+03	4.262716E-04	8.953960E-06
5.580933E+03	4.221910E-04	8.885991E-06
5.590864E+03	4.175487E-04	8.806803E-06
5.600794E+03	4.124603E-04	8.718219E-06
5.610725E+03	4.070667E-04	8.622668E-06
5.620655E+03	4.014836E-04	8.522110E-06
5.630586E+03	3.958438E-04	8.418938E-06
5.640516E+03	3.902929E-04	8.315888E-06
5.650447E+03	3.849429E-04	8.215039E-06
5.660377E+03	3.799290E-04	8.119023E-06
5.670308E+03	3.753508E-04	8.029752E-06
5.680238E+03	3.713130E-04	7.949280E-06
5.690169E+03	3.679247E-04	7.879771E-06
5.700099E+03	3.652563E-04	7.822567E-06
5.710030E+03	3.633934E-04	7.779323E-06
5.719960E+03	3.623813E-04	7.750813E-06
5.729891E+03	3.622643E-04	7.737755E-06
5.739821E+03	3.630840E-04	7.740773E-06
5.749752E+03	3.648381E-04	7.759495E-06
5.759682E+03	3.675325E-04	7.793685E-06
5.769613E+03	3.711266E-04	7.842058E-06
5.779543E+03	3.755867E-04	7.903435E-06
5.789474E+03	3.808319E-04	7.975602E-06
5.799404E+03	3.867888E-04	8.056478E-06
5.809335E+03	3.933375E-04	8.143007E-06
5.819265E+03	4.003708E-04	8.232404E-06
5.829196E+03	4.077532E-04	8.321343E-06
5.839126E+03	4.153084E-04	8.405724E-06
5.849057E+03	4.229290E-04	8.482948E-06
5.858987E+03	4.304296E-04	8.548941E-06
5.868918E+03	4.376565E-04	8.600420E-06
5.878848E+03	4.444792E-04	8.634718E-06
5.888779E+03	4.507632E-04	8.649258E-06
5.898709E+03	4.563740E-04	8.641648E-06
5.908640E+03	4.612312E-04	8.610724E-06
5.918570E+03	4.652458E-04	8.555331E-06
5.928500E+03	4.683914E-04	8.475642E-06
5.938431E+03	4.706380E-04	8.371894E-06
5.948361E+03	4.720397E-04	8.245934E-06
5.958292E+03	4.725936E-04	8.098665E-06
5.968222E+03	4.724318E-04	7.933360E-06
5.978153E+03	4.716248E-04	7.752191E-06
5.988083E+03	4.703177E-04	7.558523E-06
5.998014E+03	4.686378E-04	7.355307E-06
6.007944E+03	4.667604E-04	7.146118E-06
6.017875E+03	4.648505E-04	6.934185E-06
6.027805E+03	4.630593E-04	6.722347E-06
6.037736E+03	4.615728E-04	6.513770E-06
6.047666E+03	4.605570E-04	6.311128E-06
6.057597E+03	4.601560E-04	6.116637E-06
6.067527E+03	4.605440E-04	5.932790E-06
6.077458E+03	4.618714E-04	5.761655E-06
6.087388E+03	4.642852E-04	5.605222E-06
6.097319E+03	4.679087E-04	5.465238E-06
6.107249E+03	4.728967E-04	5.343946E-06
6.117180E+03	4.793817E-04	5.243545E-06
6.127110E+03	4.874724E-04	5.166313E-06
6.137041E+03	4.973254E-04	5.115512E-06
6.146971E+03	5.090138E-04	5.094115E-06
6.156902E+03	5.226549E-04	5.106282E-06
6.166832E+03	5.383112E-04	5.156425E-06
6.176763E+03	5.560663E-04	5.250000E-06
6.186693E+03	5.759759E-04	5.392988E-06
6.196624E+03	5.979451E-04	5.590638E-06
6.206554E+03	6.218784E-04	5.848554E-06
6.216485E+03	6.474262E-04	6.168470E-06
6.226415E+03	6.741118E-04	6.549106E-06
6.236346E+03	7.014322E-04	6.987857E-06
6.246276E+03	7.288147E-04	7.480134E-06
6.256207E+03	7.556633E-04	8.019630E-06
6.266137E+03	7.813859E-04	8.598492E-06
6.276068E+03	8.053870E-04	9.207230E-06
6.285998E+03	8.272173E-04	9.836493E-06
6.295929E+03	8.463819E-04	1.047507E-05
6.305859E+03	8.625741E-04	1.111284E-05
6.315789E+03	8.755631E-04	1.173985E-05
6.325720E+03	8.852297E-04	1.234704E-05
6.335650E+03	8.915635E-04	1.292661E-05
6.345581E+03	8.946178E-04	1.347172E-05
6.355511E+03	8.946328E-04	1.397860E-05
6.365442E+03	8.917751E-04	1.444300E-05
6.375372E+03	8.863917E-04	1.486419E-05
6.385303E+03	8.787154E-04	1.524045E-05
6.395233E+03	8.690876E-04	1.557269E-05
6.405164E+03	8.578060E-04	1.586203E-05
6.415094E+03	8.451509E-04	1.611008E-05
6.425025E+03	8.313770E-04	1.631878E-05
6.434955E+03	8.167136E-04	1.649030E-05
6.444886E+03	8.013622E-04	1.662685E-05
6.454816E+03	7.854997E-04	1.673076E-05
6.464747E+03	7.692794E-04	1.680430E-05
6.474677E+03	7.528352E-04	1.684976E-05
6.484608E+03	7.362544E-04	1.686874E-05
6.494538E+03	7.196955E-04	1.686476E-05
6.504469E+03	7.032169E-04	1.683933E-05
6.514399E+03	6.868939E-04	1.679457E-05
6.524330E+03	6.707914E-04	1.673250E-05
6.534260E+03	6.549392E-04	1.665444E-05
6.544191E+03	6.394362E-04	1.656356E-05
6.554121E+03	6.242953E-04	1.646098E-05
6.564052E+03	6.095494E-04	1.634837E-05
6.573982E+03	5.952255E-04	1.622732E-05
6.583913E+03	5.813463E-04	1.609935E-05
6.593843E+03	5.679086E-04	1.596527E-05
6.603774E+03	5.549739E-04	1.582774E-05
6.613704E+03	5.425340E-04	1.568746E-05
6.623635E+03	5.306223E-04	1.554634E-05
6.633565E+03	5.192080E-04	1.540443E-05
6.643496E+03	5.083229E-04	1.526354E-05
6.653426E+03	4.979770E-04	1.512489E-05
6.663357E+03	4.881789E-04	1.498961E-05
6.673287E+03	4.789561E-04	1.485940E-05
6.683217E+03	4.702771E-04	1.473414E-05
6.693148E+03	4.621872E-04	1.461602E-05
6.703078E+03	4.546559E-04	1.450486E-05
6.713009E+03	4.477262E-04	1.440276E-05
6.722939E+03	4.413862E-04	1.431005E-05
6.732870E+03	4.356429E-04	1.422761E-05
6.742800E+03	4.305034E-04	1.415630E-05
6.752731E+03	4.259756E-04	1.409696E-05
6.762661E+03	4.220677E-04	1.405041E-05
6.772592E+03	4.187888E-04	1.401744E-05
6.782522E+03	4.161488E-04	1.399884E-05
6.792453E+03	4.141579E-04	1.399536E-05
6.802383E+03	4.128434E-04	1.400829E-05
6.812314E+03	4.121830E-04	1.403717E-05
6.822244E+03	4.122206E-04	1.408377E-05
6.832175E+03	4.129505E-04	1.414809E-05
6.842105E+03	4.143823E-04	1.423062E-05
6.852036E+03	4.165243E-04	1.433173E-05
6.861966E+03	4.193838E-04	1.445172E-05
6.871897E+03	4.229652E-04	1.459071E-05
6.881827E+03	4.272709E-04	1.474870E-05
6.891758E+03	4.323007E-04	1.492554E-05
6.901688E+03	4.380510E-04	1.512090E-05
6.911619E+03	4.445329E-04	1.533491E-05
6.921549E+03	4.517014E-04	1.556567E-05
6.931480E+03	4.595800E-04	1.581362E-05
6.941410E+03	4.681368E-04	1.607723E-05
6.951341E+03	4.773349E-04	1.635474E-05
6.961271E+03	4.871951E-04	1.664633E-05
6.971202E+03	4.976792E-04	1.695010E-05
6.981132E+03	5.087664E-04	1.726473E-05
6.991063E+03	5.204360E-04	1.758886E-05
7.000993E+03	5.326656E-04	1.792103E-05
7.010924E+03	5.454312E-04	1.825973E-05
7.020854E+03	5.587066E-04	1.860334E-05
7.030785E+03	5.724625E-04	1.895011E-05
7.040715E+03	5.866646E-04	1.929817E-05
7.050645E+03	6.012988E-04	1.964628E-05
7.060576E+03	6.162710E-04	1.999060E-05
7.070506E+03	6.315528E-04	2.032952E-05
7.080437E+03	6.470834E-04	2.066038E-05
7.090367E+03	6.628209E-04	2.098122E-05
7.100298E+03	6.786315E-04	2.128724E-05
7.110228E+03	6.944533E-04	2.157606E-05
7.120159E+03	7.101864E-04	2.184424E-05
7.130089E+03	7.257209E-04	2.208820E-05
7.140020E+03	7.409674E-04	2.230518E-05
7.149950E+03	7.557349E-04	2.248958E-05
7.159881E+03	7.699151E-04	2.263857E-05
7.169811E+03	7.833612E-04	2.274847E-05
7.179742E+03	7.959220E-04	2.281577E-05
7.189672E+03	8.074431E-04	2.283723E-05
7.199603E+03	8.177693E-04	2.280994E-05
7.209533E+03	8.267491E-04	2.273147E-05
7.219464E+03	8.342377E-04	2.259997E-05
7.229394E+03	8.400664E-04	2.241330E-05
7.239325E+03	8.441872E-04	2.217297E-05
7.249255E+03	8.464310E-04	2.187752E-05
7.259186E+03	8.467950E-04	2.153020E-05
7.269116E+03	8.451611E-04	2.113147E-05
7.279047E+03	8.415497E-04	2.068553E-05
7.288977E+03	8.359788E-04	2.019658E-05
7.298908E+03	8.285004E-04	1.966966E-05
7.308838E+03	8.191669E-04	1.910979E-05
7.318769E+03	8.081669E-04	1.852504E-05
7.328699E+03	7.955820E-04	1.792074E-05
7.338630E+03	7.816573E-04	1.730568E-05
7.348560E+03	7.665254E-04	1.668574E-05
7.358491E+03	7.504067E-04	1.606837E-05
7.368421E+03	7.335960E-04	1.546214E-05
7.378352E+03	7.163002E-04	1.487325E-05
7.388282E+03	6.987312E-04	1.430756E-05
7.398213E+03	6.811607E-04	1.377171E-05
7.408143E+03	6.638244E-04	1.327117E-05
7.418073E+03	6.469196E-04	1.281022E-05
7.428004E+03	6.307156E-04	1.239429E-05
7.437934E+03	6.153534E-04	1.202595E-05
7.447865E+03	6.010375E-04	1.170889E-05
7.457795E+03	5.878943E-04	1.144515E-05
7.467726E+03	5.760988E-04	1.123770E-05
7.477656E+03	5.656914E-04	1.108694E-05
7.487587E+03	5.567484E-04	1.099401E-05
7.497517E+03	5.492519E-04	1.095759E-05
7.507448E+03	5.431808E-04	1.097618E-05
7.517378E+03	5.384331E-04	1.104691E-05
7.527309E+03	5.348469E-04	1.116579E-05
7.537239E+03	5.321777E-04	1.132715E-05
7.547170E+03	5.301814E-04	1.152510E-05
7.557100E+03	5.285828E-04	1.175283E-05
7.567031E+03	5.271941E-04	1.200505E-05
7.576961E+03	5.259656E-04	1.227942E-05
7.586892E+03	5.249768E-04	1.257661E-05
7.596822E+03	5.243686E-04	1.289912E-05
7.606753E+03	5.241669E-04	1.324703E-05
7.616683E+03	5.244353E-04	1.362161E-05
7.626614E+03	5.251601E-04	1.402237E-05
7.636544E+03	5.263468E-04	1.444947E-05
7.646475E+03	5.279543E-04	1.490187E-05
7.656405E+03	5.298998E-04	1.537735E-05
7.666336E+03	5.321321E-04	1.587443E-05
7.676266E+03	5.345434E-04	1.638985E-05
7.686197E+03	5.370900E-04	1.692206E-05
7.696127E+03	5.396074E-04	1.746552E-05
7.706058E+03	5.420749E-04	1.801894E-05
