#wls	flux	fluxerr
1.588878E+03	3.289793E-07	9.195881E-08
1.628600E+03	3.315326E-07	9.199146E-08
1.668322E+03	3.292139E-07	9.065849E-08
1.708044E+03	3.220628E-07	8.800154E-08
1.747766E+03	3.101412E-07	8.406900E-08
1.787488E+03	2.930565E-07	7.878782E-08
1.827210E+03	2.705961E-07	7.213769E-08
1.866931E+03	2.428386E-07	6.417855E-08
1.906653E+03	2.106632E-07	5.518078E-08
1.946375E+03	1.759131E-07	4.565797E-08
1.986097E+03	1.416446E-07	3.641887E-08
2.025819E+03	1.115136E-07	2.839537E-08
2.065541E+03	8.866089E-08	2.235250E-08
2.105263E+03	7.473027E-08	1.864846E-08
2.144985E+03	6.985075E-08	1.724819E-08
2.184707E+03	7.350528E-08	1.795504E-08
2.224429E+03	8.525075E-08	2.059334E-08
2.264151E+03	1.046290E-07	2.498631E-08
2.303873E+03	1.308216E-07	3.087497E-08
2.343595E+03	1.626361E-07	3.792035E-08
2.383317E+03	1.987836E-07	4.577305E-08
2.423039E+03	2.381116E-07	5.412828E-08
2.462761E+03	2.799012E-07	6.279103E-08
2.502483E+03	3.238148E-07	7.165849E-08
2.542205E+03	3.698673E-07	8.070822E-08
2.581927E+03	4.183484E-07	8.997607E-08
2.621648E+03	4.697519E-07	9.953691E-08
2.661370E+03	5.248029E-07	1.095068E-07
2.701092E+03	5.842164E-07	1.199893E-07
2.740814E+03	6.488862E-07	1.311139E-07
2.780536E+03	7.199309E-07	1.430412E-07
2.820258E+03	7.985387E-07	1.559291E-07
2.859980E+03	8.859577E-07	1.699285E-07
2.899702E+03	9.840222E-07	1.852816E-07
2.939424E+03	1.094385E-06	2.021685E-07
2.979146E+03	1.219647E-06	2.209148E-07
2.989076E+03	1.253695E-06	2.259442E-07
2.999007E+03	1.288688E-06	2.310777E-07
3.008937E+03	1.325012E-06	2.363812E-07
3.018868E+03	1.362822E-06	2.418787E-07
3.028798E+03	1.402163E-06	2.475733E-07
3.038729E+03	1.443831E-06	2.536005E-07
3.048659E+03	1.487661E-06	2.599248E-07
3.058590E+03	1.533673E-06	2.665434E-07
3.068520E+03	1.582099E-06	2.734897E-07
3.078451E+03	1.632782E-06	2.807299E-07
3.088381E+03	1.685769E-06	2.882651E-07
3.098312E+03	1.741111E-06	2.960975E-07
3.108242E+03	1.799097E-06	3.042687E-07
3.118173E+03	1.859586E-06	3.127472E-07
3.128103E+03	1.922899E-06	3.215792E-07
3.138034E+03	1.988656E-06	3.306929E-07
3.147964E+03	2.057447E-06	3.401787E-07
3.157895E+03	2.129147E-06	3.500069E-07
3.167825E+03	2.204157E-06	3.602340E-07
3.177756E+03	2.282363E-06	3.708320E-07
3.187686E+03	2.363923E-06	3.818163E-07
3.197617E+03	2.449010E-06	3.932045E-07
3.207547E+03	2.538119E-06	4.050653E-07
3.217478E+03	2.631172E-06	4.173736E-07
3.227408E+03	2.728394E-06	4.301533E-07
3.237339E+03	2.830374E-06	4.434837E-07
3.247269E+03	2.937064E-06	4.573430E-07
3.257200E+03	3.048760E-06	4.717626E-07
3.267130E+03	3.166154E-06	4.868337E-07
3.277061E+03	3.289246E-06	5.025388E-07
3.286991E+03	3.418415E-06	5.189180E-07
3.296922E+03	3.554067E-06	5.360140E-07
3.306852E+03	3.697073E-06	5.539374E-07
3.316783E+03	3.847512E-06	5.726774E-07
3.326713E+03	4.006360E-06	5.923557E-07
3.336643E+03	4.173267E-06	6.128950E-07
3.346574E+03	4.349773E-06	6.344953E-07
3.356504E+03	4.536578E-06	6.572282E-07
3.366435E+03	4.733362E-06	6.810164E-07
3.376365E+03	4.941924E-06	7.060861E-07
3.386296E+03	5.163127E-06	7.325235E-07
3.396226E+03	5.396690E-06	7.602501E-07
3.406157E+03	5.644720E-06	7.895225E-07
3.416087E+03	5.907615E-06	8.203513E-07
3.426018E+03	6.187106E-06	8.529296E-07
3.435948E+03	6.483680E-06	8.872725E-07
3.445879E+03	6.798533E-06	9.234899E-07
3.455809E+03	7.132920E-06	9.616946E-07
3.465740E+03	7.488997E-06	1.002115E-06
3.475670E+03	7.867432E-06	1.044772E-06
3.485601E+03	8.269720E-06	1.089794E-06
3.495531E+03	8.698376E-06	1.137436E-06
3.505462E+03	9.154221E-06	1.187724E-06
3.515392E+03	9.639007E-06	1.240798E-06
3.525323E+03	1.015565E-05	1.296941E-06
3.535253E+03	1.070514E-05	1.356180E-06
3.545184E+03	1.128948E-05	1.418668E-06
3.555114E+03	1.191206E-05	1.484715E-06
3.565045E+03	1.257267E-05	1.554180E-06
3.574975E+03	1.327615E-05	1.627539E-06
3.584906E+03	1.402511E-05	1.704975E-06
3.594836E+03	1.481921E-05	1.786308E-06
3.604767E+03	1.566397E-05	1.872057E-06
3.614697E+03	1.656225E-05	1.962408E-06
3.624628E+03	1.751347E-05	2.057127E-06
3.634558E+03	1.852382E-05	2.156771E-06
3.644489E+03	1.959442E-05	2.261287E-06
3.654419E+03	2.072805E-05	2.370810E-06
3.664350E+03	2.192968E-05	2.485711E-06
3.674280E+03	2.320012E-05	2.605872E-06
3.684211E+03	2.454213E-05	2.731391E-06
3.694141E+03	2.595836E-05	2.862343E-06
3.704071E+03	2.745405E-05	2.999074E-06
3.714002E+03	2.902921E-05	3.141345E-06
3.723932E+03	3.068612E-05	3.289161E-06
3.733863E+03	3.242992E-05	3.442822E-06
3.743793E+03	3.425634E-05	3.601618E-06
3.753724E+03	3.617321E-05	3.766119E-06
3.763654E+03	3.817856E-05	3.935852E-06
3.773585E+03	4.027685E-05	4.111013E-06
3.783515E+03	4.246092E-05	4.290602E-06
3.793446E+03	4.473819E-05	4.475115E-06
3.803376E+03	4.710394E-05	4.663812E-06
3.813307E+03	4.956115E-05	4.856731E-06
3.823237E+03	5.209851E-05	5.052516E-06
3.833168E+03	5.472222E-05	5.251538E-06
3.843098E+03	5.742367E-05	5.452740E-06
3.853029E+03	6.019787E-05	5.655440E-06
3.862959E+03	6.303883E-05	5.858888E-06
3.872890E+03	6.594540E-05	6.062807E-06
3.882820E+03	6.889780E-05	6.265233E-06
3.892751E+03	7.189883E-05	6.466313E-06
3.902681E+03	7.493219E-05	6.664488E-06
3.912612E+03	7.799341E-05	6.859311E-06
3.922542E+03	8.105697E-05	7.048521E-06
3.932473E+03	8.411687E-05	7.231640E-06
3.942403E+03	8.716801E-05	7.408295E-06
3.952334E+03	9.019075E-05	7.576913E-06
3.962264E+03	9.317287E-05	7.736615E-06
3.972195E+03	9.610275E-05	7.886625E-06
3.982125E+03	9.896937E-05	8.026259E-06
3.992056E+03	1.017625E-04	8.154945E-06
4.001986E+03	1.044822E-04	8.272957E-06
4.011917E+03	1.071035E-04	8.378628E-06
4.021847E+03	1.096391E-04	8.473282E-06
4.031778E+03	1.120671E-04	8.555562E-06
4.041708E+03	1.144050E-04	8.627169E-06
4.051639E+03	1.166444E-04	8.687800E-06
4.061569E+03	1.187885E-04	8.738038E-06
4.071500E+03	1.208421E-04	8.778580E-06
4.081430E+03	1.228120E-04	8.810236E-06
4.091360E+03	1.247058E-04	8.833862E-06
4.101291E+03	1.265323E-04	8.850356E-06
4.111221E+03	1.283006E-04	8.860624E-06
4.121152E+03	1.300206E-04	8.865574E-06
4.131082E+03	1.317028E-04	8.866136E-06
4.141013E+03	1.333683E-04	8.863905E-06
4.150943E+03	1.350068E-04	8.858352E-06
4.160874E+03	1.366396E-04	8.851024E-06
4.170804E+03	1.382773E-04	8.842713E-06
4.180735E+03	1.399298E-04	8.834153E-06
4.190665E+03	1.416068E-04	8.826026E-06
4.200596E+03	1.433174E-04	8.818952E-06
4.210526E+03	1.450701E-04	8.813493E-06
4.220457E+03	1.468725E-04	8.810146E-06
4.230387E+03	1.487316E-04	8.809346E-06
4.240318E+03	1.506414E-04	8.810760E-06
4.250248E+03	1.526282E-04	8.815961E-06
4.260179E+03	1.546826E-04	8.824393E-06
4.270109E+03	1.567929E-04	8.835435E-06
4.280040E+03	1.589695E-04	8.849723E-06
4.289970E+03	1.612214E-04	8.867806E-06
4.299901E+03	1.635209E-04	8.888233E-06
4.309831E+03	1.658753E-04	8.911498E-06
4.319762E+03	1.682672E-04	8.936794E-06
4.329692E+03	1.707168E-04	8.965323E-06
4.339623E+03	1.732075E-04	8.996363E-06
4.349553E+03	1.757260E-04	9.029381E-06
4.359484E+03	1.782893E-04	9.065440E-06
4.369414E+03	1.809091E-04	9.105298E-06
4.379345E+03	1.836048E-04	9.150091E-06
4.389275E+03	1.864015E-04	9.201205E-06
4.399206E+03	1.893145E-04	9.259510E-06
4.409136E+03	1.923875E-04	9.327234E-06
4.419067E+03	1.956489E-04	9.405831E-06
4.428997E+03	1.991225E-04	9.496497E-06
4.438928E+03	2.028125E-04	9.599440E-06
4.448858E+03	2.067595E-04	9.716453E-06
4.458788E+03	2.109366E-04	9.846129E-06
4.468719E+03	2.153358E-04	9.987978E-06
4.478649E+03	2.199696E-04	1.014249E-05
4.488580E+03	2.247784E-04	1.030680E-05
4.498510E+03	2.297356E-04	1.047967E-05
4.508441E+03	2.347722E-04	1.065792E-05
4.518371E+03	2.398549E-04	1.084003E-05
4.528302E+03	2.448747E-04	1.102111E-05
4.538232E+03	2.497648E-04	1.119820E-05
4.548163E+03	2.544205E-04	1.136669E-05
4.558093E+03	2.587707E-04	1.152346E-05
4.568024E+03	2.627326E-04	1.166490E-05
4.577954E+03	2.662170E-04	1.178711E-05
4.587885E+03	2.692016E-04	1.188917E-05
4.597815E+03	2.715928E-04	1.196695E-05
4.607746E+03	2.734287E-04	1.202215E-05
4.617676E+03	2.746769E-04	1.205330E-05
4.627607E+03	2.753748E-04	1.206198E-05
4.637537E+03	2.755370E-04	1.204875E-05
4.647468E+03	2.752260E-04	1.201624E-05
4.657398E+03	2.744752E-04	1.196577E-05
4.667329E+03	2.733786E-04	1.190129E-05
4.677259E+03	2.719617E-04	1.182378E-05
4.687190E+03	2.702875E-04	1.173580E-05
4.697120E+03	2.684361E-04	1.164068E-05
4.707051E+03	2.664675E-04	1.154086E-05
4.716981E+03	2.644211E-04	1.143788E-05
4.726912E+03	2.623664E-04	1.133460E-05
4.736842E+03	2.603339E-04	1.123218E-05
4.746773E+03	2.583826E-04	1.113301E-05
4.756703E+03	2.565490E-04	1.103854E-05
4.766634E+03	2.548486E-04	1.094927E-05
4.776564E+03	2.533273E-04	1.086705E-05
4.786495E+03	2.519951E-04	1.079216E-05
4.796425E+03	2.508930E-04	1.072622E-05
4.806356E+03	2.500436E-04	1.067006E-05
4.816286E+03	2.494524E-04	1.062376E-05
4.826216E+03	2.491556E-04	1.058870E-05
4.836147E+03	2.491557E-04	1.056485E-05
4.846077E+03	2.494843E-04	1.055337E-05
4.856008E+03	2.501386E-04	1.055396E-05
4.865938E+03	2.511408E-04	1.056737E-05
4.875869E+03	2.524721E-04	1.059260E-05
4.885799E+03	2.541364E-04	1.062961E-05
4.895730E+03	2.561121E-04	1.067730E-05
4.905660E+03	2.583491E-04	1.073335E-05
4.915591E+03	2.608184E-04	1.079635E-05
4.925521E+03	2.634499E-04	1.086324E-05
4.935452E+03	2.661807E-04	1.093124E-05
4.945382E+03	2.689751E-04	1.099875E-05
4.955313E+03	2.717331E-04	1.106159E-05
4.965243E+03	2.743925E-04	1.111717E-05
4.975174E+03	2.769173E-04	1.116403E-05
4.985104E+03	2.792541E-04	1.120003E-05
4.995035E+03	2.814076E-04	1.122544E-05
5.004965E+03	2.833860E-04	1.124064E-05
5.014896E+03	2.851986E-04	1.124609E-05
5.024826E+03	2.869077E-04	1.124433E-05
5.034757E+03	2.885537E-04	1.123699E-05
5.044687E+03	2.902168E-04	1.122720E-05
5.054618E+03	2.919418E-04	1.121670E-05
5.064548E+03	2.938051E-04	1.120834E-05
5.074479E+03	2.958355E-04	1.120312E-05
5.084409E+03	2.980782E-04	1.120262E-05
5.094340E+03	3.005270E-04	1.120643E-05
5.104270E+03	3.031984E-04	1.121502E-05
5.114201E+03	3.060763E-04	1.122764E-05
5.124131E+03	3.091168E-04	1.124253E-05
5.134062E+03	3.123070E-04	1.125912E-05
5.143992E+03	3.155941E-04	1.127545E-05
5.153923E+03	3.189616E-04	1.129091E-05
5.163853E+03	3.223572E-04	1.130366E-05
5.173784E+03	3.257704E-04	1.131341E-05
5.183714E+03	3.291562E-04	1.131872E-05
5.193644E+03	3.325102E-04	1.131959E-05
5.203575E+03	3.358111E-04	1.131548E-05
5.213505E+03	3.390191E-04	1.130529E-05
5.223436E+03	3.421132E-04	1.128861E-05
5.233366E+03	3.451117E-04	1.126635E-05
5.243297E+03	3.479514E-04	1.123681E-05
5.253227E+03	3.506080E-04	1.119962E-05
5.263158E+03	3.530773E-04	1.115510E-05
5.273088E+03	3.553141E-04	1.110233E-05
5.283019E+03	3.573384E-04	1.104245E-05
5.292949E+03	3.590702E-04	1.097356E-05
5.302880E+03	3.605396E-04	1.089719E-05
5.312810E+03	3.617435E-04	1.081388E-05
5.322741E+03	3.626900E-04	1.072446E-05
5.332671E+03	3.633779E-04	1.062953E-05
5.342602E+03	3.638414E-04	1.053068E-05
5.352532E+03	3.641753E-04	1.043121E-05
5.362463E+03	3.643814E-04	1.033166E-05
5.372393E+03	3.645975E-04	1.023640E-05
5.382324E+03	3.648625E-04	1.014686E-05
5.392254E+03	3.652811E-04	1.006627E-05
5.402185E+03	3.659141E-04	9.996570E-06
5.412115E+03	3.668596E-04	9.940643E-06
5.422046E+03	3.681608E-04	9.899836E-06
5.431976E+03	3.698819E-04	9.876045E-06
5.441907E+03	3.720324E-04	9.869690E-06
5.451837E+03	3.745532E-04	9.879407E-06
5.461768E+03	3.773688E-04	9.903232E-06
5.471698E+03	3.803204E-04	9.936666E-06
5.481629E+03	3.831750E-04	9.973300E-06
5.491559E+03	3.857218E-04	1.000736E-05
5.501490E+03	3.877145E-04	1.003215E-05
5.511420E+03	3.889939E-04	1.004326E-05
5.521351E+03	3.893309E-04	1.003443E-05
5.531281E+03	3.886962E-04	1.000450E-05
5.541212E+03	3.870044E-04	9.950840E-06
5.551142E+03	3.842855E-04	9.873734E-06
5.561072E+03	3.805743E-04	9.773560E-06
5.571003E+03	3.759873E-04	9.652776E-06
5.580933E+03	3.706434E-04	9.513912E-06
5.590864E+03	3.646626E-04	9.359541E-06
5.600794E+03	3.582178E-04	9.193619E-06
5.610725E+03	3.514588E-04	9.019554E-06
5.620655E+03	3.445302E-04	8.840670E-06
5.630586E+03	3.375498E-04	8.659642E-06
5.640516E+03	3.306685E-04	8.480045E-06
5.650447E+03	3.239938E-04	8.304375E-06
5.660377E+03	3.176654E-04	8.135986E-06
5.670308E+03	3.117984E-04	7.977622E-06
5.680238E+03	3.065048E-04	7.831956E-06
5.690169E+03	3.018731E-04	7.701058E-06
5.700099E+03	2.980175E-04	7.587631E-06
5.710030E+03	2.950219E-04	7.493576E-06
5.719960E+03	2.929429E-04	7.420062E-06
5.729891E+03	2.918743E-04	7.369135E-06
5.739821E+03	2.918076E-04	7.340197E-06
5.749752E+03	2.928190E-04	7.334717E-06
5.759682E+03	2.948784E-04	7.351412E-06
5.769613E+03	2.979913E-04	7.389830E-06
5.779543E+03	3.020518E-04	7.446687E-06
5.789474E+03	3.070320E-04	7.520603E-06
5.799404E+03	3.127871E-04	7.607298E-06
5.809335E+03	3.192010E-04	7.703216E-06
5.819265E+03	3.261257E-04	7.804076E-06
5.829196E+03	3.334047E-04	7.905463E-06
5.839126E+03	3.408532E-04	8.002408E-06
5.849057E+03	3.483226E-04	8.090940E-06
5.858987E+03	3.556481E-04	8.166873E-06
5.868918E+03	3.626687E-04	8.226290E-06
5.878848E+03	3.692083E-04	8.265169E-06
5.888779E+03	3.751677E-04	8.281433E-06
5.898709E+03	3.803760E-04	8.271656E-06
5.908640E+03	3.847251E-04	8.234052E-06
5.918570E+03	3.881785E-04	8.168597E-06
5.928500E+03	3.906399E-04	8.074187E-06
5.938431E+03	3.921133E-04	7.952012E-06
5.948361E+03	3.926211E-04	7.803741E-06
5.958292E+03	3.922214E-04	7.631812E-06
5.968222E+03	3.910046E-04	7.439297E-06
5.978153E+03	3.890731E-04	7.229436E-06
5.988083E+03	3.865984E-04	7.006645E-06
5.998014E+03	3.837446E-04	6.774972E-06
6.007944E+03	3.806887E-04	6.538459E-06
6.017875E+03	3.776120E-04	6.300951E-06
6.027805E+03	3.746712E-04	6.065602E-06
6.037736E+03	3.720614E-04	5.835923E-06
6.047666E+03	3.699703E-04	5.614989E-06
6.057597E+03	3.684906E-04	5.404194E-06
6.067527E+03	3.678334E-04	5.206528E-06
6.077458E+03	3.681196E-04	5.023473E-06
6.087388E+03	3.694712E-04	4.856485E-06
6.097319E+03	3.720764E-04	4.707895E-06
6.107249E+03	3.760461E-04	4.579086E-06
6.117180E+03	3.815652E-04	4.472583E-06
6.127110E+03	3.888060E-04	4.391052E-06
6.137041E+03	3.979502E-04	4.337751E-06
6.146971E+03	4.091539E-04	4.316339E-06
6.156902E+03	4.226274E-04	4.331936E-06
6.166832E+03	4.384600E-04	4.389461E-06
6.176763E+03	4.567624E-04	4.495283E-06
6.186693E+03	4.775558E-04	4.656092E-06
6.196624E+03	5.006664E-04	4.877745E-06
6.206554E+03	5.258491E-04	5.165779E-06
6.216485E+03	5.527897E-04	5.523064E-06
6.226415E+03	5.809457E-04	5.948588E-06
6.236346E+03	6.096561E-04	6.438658E-06
6.246276E+03	6.382988E-04	6.988140E-06
6.256207E+03	6.660640E-04	7.587776E-06
6.266137E+03	6.922551E-04	8.227247E-06
6.276068E+03	7.162590E-04	8.895031E-06
6.285998E+03	7.374257E-04	9.577105E-06
6.295929E+03	7.553302E-04	1.026046E-05
6.305859E+03	7.696006E-04	1.093139E-05
6.315789E+03	7.801377E-04	1.157906E-05
6.325720E+03	7.868554E-04	1.219243E-05
6.335650E+03	7.898279E-04	1.276281E-05
6.345581E+03	7.893999E-04	1.328630E-05
6.355511E+03	7.858248E-04	1.375846E-05
6.365442E+03	7.796124E-04	1.418039E-05
6.375372E+03	7.711174E-04	1.455186E-05
6.385303E+03	7.608120E-04	1.487611E-05
6.395233E+03	7.490673E-04	1.515586E-05
6.405164E+03	7.362461E-04	1.539486E-05
6.415094E+03	7.225291E-04	1.559413E-05
6.425025E+03	7.081755E-04	1.575706E-05
6.434955E+03	6.933179E-04	1.588501E-05
6.444886E+03	6.781818E-04	1.598203E-05
6.454816E+03	6.628414E-04	1.604917E-05
6.464747E+03	6.473937E-04	1.608838E-05
6.474677E+03	6.319240E-04	1.610163E-05
6.484608E+03	6.164740E-04	1.609004E-05
6.494538E+03	6.011888E-04	1.605764E-05
6.504469E+03	5.860600E-04	1.600471E-05
6.514399E+03	5.712158E-04	1.593532E-05
6.524330E+03	5.566371E-04	1.584969E-05
6.534260E+03	5.424324E-04	1.575174E-05
6.544191E+03	5.285682E-04	1.564142E-05
6.554121E+03	5.151017E-04	1.552134E-05
6.564052E+03	5.020801E-04	1.539396E-05
6.573982E+03	4.894543E-04	1.525880E-05
6.583913E+03	4.772621E-04	1.511804E-05
6.593843E+03	4.655375E-04	1.497379E-05
6.603774E+03	4.542296E-04	1.482544E-05
6.613704E+03	4.433733E-04	1.467510E-05
6.623635E+03	4.329747E-04	1.452397E-05
6.633565E+03	4.230410E-04	1.437326E-05
6.643496E+03	4.135802E-04	1.422421E-05
6.653426E+03	4.045987E-04	1.407796E-05
6.663357E+03	3.961025E-04	1.393564E-05
6.673287E+03	3.880970E-04	1.379832E-05
6.683217E+03	3.805861E-04	1.366700E-05
6.693148E+03	3.735724E-04	1.354258E-05
6.703078E+03	3.670583E-04	1.342595E-05
6.713009E+03	3.610464E-04	1.331794E-05
6.722939E+03	3.555391E-04	1.321935E-05
6.732870E+03	3.505386E-04	1.313093E-05
6.742800E+03	3.460492E-04	1.305347E-05
6.752731E+03	3.420548E-04	1.298693E-05
6.762661E+03	3.386033E-04	1.293369E-05
6.772592E+03	3.356814E-04	1.289373E-05
6.782522E+03	3.332979E-04	1.286786E-05
6.792453E+03	3.314438E-04	1.285613E-05
6.802383E+03	3.301713E-04	1.286095E-05
6.812314E+03	3.294727E-04	1.288233E-05
6.822244E+03	3.293615E-04	1.292109E-05
6.832175E+03	3.298314E-04	1.297718E-05
6.842105E+03	3.309351E-04	1.305286E-05
6.852036E+03	3.326655E-04	1.314797E-05
6.861966E+03	3.350128E-04	1.326217E-05
6.871897E+03	3.380261E-04	1.339740E-05
6.881827E+03	3.416696E-04	1.355218E-05
6.891758E+03	3.459863E-04	1.372810E-05
6.901688E+03	3.509301E-04	1.392313E-05
6.911619E+03	3.565336E-04	1.413833E-05
6.921549E+03	3.627406E-04	1.437115E-05
6.931480E+03	3.695776E-04	1.462226E-05
6.941410E+03	3.769778E-04	1.488861E-05
6.951341E+03	3.849661E-04	1.517070E-05
6.961271E+03	3.934747E-04	1.546535E-05
6.971202E+03	4.025074E-04	1.577215E-05
6.981132E+03	4.120723E-04	1.609081E-05
6.991063E+03	4.221073E-04	1.641827E-05
7.000993E+03	4.326265E-04	1.675441E-05
7.010924E+03	4.436492E-04	1.709928E-05
7.020854E+03	4.551133E-04	1.744974E-05
7.030785E+03	4.670360E-04	1.780571E-05
7.040715E+03	4.794046E-04	1.816592E-05
7.050645E+03	4.922001E-04	1.852885E-05
7.060576E+03	5.053968E-04	1.889275E-05
7.070506E+03	5.189628E-04	1.925561E-05
7.080437E+03	5.328585E-04	1.961519E-05
7.090367E+03	5.470364E-04	1.996901E-05
7.100298E+03	5.614404E-04	2.031432E-05
7.110228E+03	5.759683E-04	2.064681E-05
7.120159E+03	5.906141E-04	2.096576E-05
7.130089E+03	6.052553E-04	2.126637E-05
7.140020E+03	6.197917E-04	2.154484E-05
7.149950E+03	6.340717E-04	2.179584E-05
7.159881E+03	6.480504E-04	2.201794E-05
7.169811E+03	6.615124E-04	2.220415E-05
7.179742E+03	6.743531E-04	2.235160E-05
7.189672E+03	6.864630E-04	2.245754E-05
7.199603E+03	6.975993E-04	2.251523E-05
7.209533E+03	7.076432E-04	2.252245E-05
7.219464E+03	7.164338E-04	2.247598E-05
7.229394E+03	7.238134E-04	2.237318E-05
7.239325E+03	7.296328E-04	2.221208E-05
7.249255E+03	7.337563E-04	2.199156E-05
7.259186E+03	7.360683E-04	2.171150E-05
7.269116E+03	7.364766E-04	2.137281E-05
7.279047E+03	7.348739E-04	2.097627E-05
7.288977E+03	7.313274E-04	2.052786E-05
7.298908E+03	7.257566E-04	2.002944E-05
7.308838E+03	7.183019E-04	1.948906E-05
7.318769E+03	7.089622E-04	1.891075E-05
7.328699E+03	6.979074E-04	1.830299E-05
7.338630E+03	6.852923E-04	1.767350E-05
7.348560E+03	6.713004E-04	1.703036E-05
7.358491E+03	6.561359E-04	1.638170E-05
7.368421E+03	6.399756E-04	1.573449E-05
7.378352E+03	6.231306E-04	1.509845E-05
7.388282E+03	6.057920E-04	1.447976E-05
7.398213E+03	5.881561E-04	1.388424E-05
7.408143E+03	5.704971E-04	1.331900E-05
7.418073E+03	5.530448E-04	1.278960E-05
7.428004E+03	5.360215E-04	1.230099E-05
7.437934E+03	5.196463E-04	1.185767E-05
7.447865E+03	5.041274E-04	1.146362E-05
7.457795E+03	4.896621E-04	1.112240E-05
7.467726E+03	4.764058E-04	1.083658E-05
7.477656E+03	4.645903E-04	1.061051E-05
7.487587E+03	4.542970E-04	1.044531E-05
7.497517E+03	4.456607E-04	1.034308E-05
7.507448E+03	4.387404E-04	1.030410E-05
7.517378E+03	4.335093E-04	1.032716E-05
7.527309E+03	4.298248E-04	1.040867E-05
7.537239E+03	4.274504E-04	1.054296E-05
7.547170E+03	4.262106E-04	1.072587E-05
7.557100E+03	4.258178E-04	1.095032E-05
7.567031E+03	4.261097E-04	1.121216E-05
7.576961E+03	4.269665E-04	1.150821E-05
7.586892E+03	4.283243E-04	1.183667E-05
7.596822E+03	4.301326E-04	1.219610E-05
7.606753E+03	4.324387E-04	1.258789E-05
7.616683E+03	4.351635E-04	1.300995E-05
7.626614E+03	4.382966E-04	1.346213E-05
7.636544E+03	4.417849E-04	1.394305E-05
7.646475E+03	4.455550E-04	1.445055E-05
7.656405E+03	4.495168E-04	1.498178E-05
7.666336E+03	4.535430E-04	1.553233E-05
7.676266E+03	4.575884E-04	1.610027E-05
7.686197E+03	4.614867E-04	1.667916E-05
7.696127E+03	4.651637E-04	1.726535E-05
7.706058E+03	4.685256E-04	1.785418E-05
