#wls	flux	fluxerr
1.588878E+03	2.345766E-07	7.407644E-08
1.628600E+03	2.380035E-07	7.459169E-08
1.668322E+03	2.380068E-07	7.401496E-08
1.708044E+03	2.345766E-07	7.236806E-08
1.747766E+03	2.276290E-07	6.965110E-08
1.787488E+03	2.168547E-07	6.579770E-08
1.827210E+03	2.018693E-07	6.072311E-08
1.866931E+03	1.826863E-07	5.446641E-08
1.906653E+03	1.597906E-07	4.720704E-08
1.946375E+03	1.345744E-07	3.938599E-08
1.986097E+03	1.092549E-07	3.166878E-08
2.025819E+03	8.670861E-08	2.488554E-08
2.065541E+03	6.948850E-08	1.974113E-08
2.105263E+03	5.901608E-08	1.659128E-08
2.144985E+03	5.554944E-08	1.544939E-08
2.184707E+03	5.884538E-08	1.618579E-08
2.224429E+03	6.866363E-08	1.867244E-08
2.264151E+03	8.471675E-08	2.276959E-08
2.303873E+03	1.064112E-07	2.825782E-08
2.343595E+03	1.328232E-07	3.483685E-08
2.383317E+03	1.628263E-07	4.216449E-08
2.423039E+03	1.955051E-07	4.996613E-08
2.462761E+03	2.301609E-07	5.803318E-08
2.502483E+03	2.664425E-07	6.625239E-08
2.542205E+03	3.042903E-07	7.458631E-08
2.581927E+03	3.438779E-07	8.305414E-08
2.621648E+03	3.856191E-07	9.172919E-08
2.661370E+03	4.299600E-07	1.006857E-07
2.701092E+03	4.775935E-07	1.100475E-07
2.740814E+03	5.291971E-07	1.199234E-07
2.780536E+03	5.856411E-07	1.304540E-07
2.820258E+03	6.480503E-07	1.418206E-07
2.859980E+03	7.175664E-07	1.541890E-07
2.899702E+03	7.957808E-07	1.678000E-07
2.939424E+03	8.843935E-07	1.828887E-07
2.979146E+03	9.856256E-07	1.997656E-07
2.989076E+03	1.013305E-06	2.043250E-07
2.999007E+03	1.041833E-06	2.089941E-07
3.008937E+03	1.071567E-06	2.138412E-07
3.018868E+03	1.102485E-06	2.188578E-07
3.028798E+03	1.134914E-06	2.241049E-07
3.038729E+03	1.169223E-06	2.296496E-07
3.048659E+03	1.205434E-06	2.354902E-07
3.058590E+03	1.243578E-06	2.416262E-07
3.068520E+03	1.283880E-06	2.480947E-07
3.078451E+03	1.326014E-06	2.548260E-07
3.088381E+03	1.370415E-06	2.618969E-07
3.098312E+03	1.416749E-06	2.692362E-07
3.108242E+03	1.465488E-06	2.769267E-07
3.118173E+03	1.516509E-06	2.849370E-07
3.128103E+03	1.569894E-06	2.932749E-07
3.138034E+03	1.625502E-06	3.019061E-07
3.147964E+03	1.684138E-06	3.109713E-07
3.157895E+03	1.745208E-06	3.203516E-07
3.167825E+03	1.809070E-06	3.301036E-07
3.177756E+03	1.875855E-06	3.402416E-07
3.187686E+03	1.945983E-06	3.508312E-07
3.197617E+03	2.019065E-06	3.617912E-07
3.207547E+03	2.095833E-06	3.732420E-07
3.217478E+03	2.175886E-06	3.850994E-07
3.227408E+03	2.260025E-06	3.974933E-07
3.237339E+03	2.348166E-06	4.103946E-07
3.247269E+03	2.440537E-06	4.238292E-07
3.257200E+03	2.537384E-06	4.378248E-07
3.267130E+03	2.638971E-06	4.524110E-07
3.277061E+03	2.745580E-06	4.676195E-07
3.286991E+03	2.857517E-06	4.834842E-07
3.296922E+03	2.975520E-06	5.001111E-07
3.306852E+03	3.099126E-06	5.174012E-07
3.316783E+03	3.229553E-06	5.355373E-07
3.326713E+03	3.366322E-06	5.544165E-07
3.336643E+03	3.510775E-06	5.742359E-07
3.346574E+03	3.662920E-06	5.949702E-07
3.356504E+03	3.823244E-06	6.166707E-07
3.366435E+03	3.992266E-06	6.393920E-07
3.376365E+03	4.170539E-06	6.631915E-07
3.386296E+03	4.358651E-06	6.881295E-07
3.396226E+03	4.557226E-06	7.142693E-07
3.406157E+03	4.766929E-06	7.416774E-07
3.416087E+03	4.989142E-06	7.705279E-07
3.426018E+03	5.223282E-06	8.006879E-07
3.435948E+03	5.470795E-06	8.323349E-07
3.445879E+03	5.733284E-06	8.656641E-07
3.455809E+03	6.010931E-06	9.006498E-07
3.465740E+03	6.303821E-06	9.372511E-07
3.475670E+03	6.614590E-06	9.758033E-07
3.485601E+03	6.943461E-06	1.016276E-06
3.495531E+03	7.291524E-06	1.058763E-06
3.505462E+03	7.659913E-06	1.103361E-06
3.515392E+03	8.049820E-06	1.150167E-06
3.525323E+03	8.462486E-06	1.199283E-06
3.535253E+03	8.899201E-06	1.250808E-06
3.545184E+03	9.361328E-06	1.304848E-06
3.555114E+03	9.851551E-06	1.361684E-06
3.565045E+03	1.036880E-05	1.421071E-06
3.574975E+03	1.091723E-05	1.483479E-06
3.584906E+03	1.149560E-05	1.548629E-06
3.594836E+03	1.210843E-05	1.617020E-06
3.604767E+03	1.275426E-05	1.688339E-06
3.614697E+03	1.343799E-05	1.763110E-06
3.624628E+03	1.415971E-05	1.841215E-06
3.634558E+03	1.492114E-05	1.922741E-06
3.644489E+03	1.572396E-05	2.007765E-06
3.654419E+03	1.656776E-05	2.096087E-06
3.664350E+03	1.745834E-05	2.188295E-06
3.674280E+03	1.839532E-05	2.284178E-06
3.684211E+03	1.938278E-05	2.384075E-06
3.694141E+03	2.041742E-05	2.487411E-06
3.704071E+03	2.150303E-05	2.594481E-06
3.714002E+03	2.264098E-05	2.705271E-06
3.723932E+03	2.383247E-05	2.819745E-06
3.733863E+03	2.508175E-05	2.938217E-06
3.743793E+03	2.638356E-05	3.059880E-06
3.753724E+03	2.774161E-05	3.184984E-06
3.763654E+03	2.916004E-05	3.313809E-06
3.773585E+03	3.063199E-05	3.445379E-06
3.783515E+03	3.216492E-05	3.580347E-06
3.793446E+03	3.375066E-05	3.717614E-06
3.803376E+03	3.539679E-05	3.857831E-06
3.813307E+03	3.709376E-05	3.999773E-06
3.823237E+03	3.884922E-05	4.144092E-06
3.833168E+03	4.065709E-05	4.289961E-06
3.843098E+03	4.251003E-05	4.436451E-06
3.853029E+03	4.441583E-05	4.584230E-06
3.862959E+03	4.636661E-05	4.732332E-06
3.872890E+03	4.835915E-05	4.880301E-06
3.882820E+03	5.038368E-05	5.027046E-06
3.892751E+03	5.244836E-05	5.173287E-06
3.902681E+03	5.454300E-05	5.317927E-06
3.912612E+03	5.666315E-05	5.460467E-06
3.922542E+03	5.880410E-05	5.600404E-06
3.932473E+03	6.095366E-05	5.736562E-06
3.942403E+03	6.312137E-05	5.869835E-06
3.952334E+03	6.529517E-05	5.999101E-06
3.962264E+03	6.747023E-05	6.123944E-06
3.972195E+03	6.964181E-05	6.243984E-06
3.982125E+03	7.180543E-05	6.358888E-06
3.992056E+03	7.395691E-05	6.468368E-06
4.001986E+03	7.608336E-05	6.571413E-06
4.011917E+03	7.819925E-05	6.669394E-06
4.021847E+03	8.029286E-05	6.761423E-06
4.031778E+03	8.236190E-05	6.847450E-06
4.041708E+03	8.440451E-05	6.927468E-06
4.051639E+03	8.641947E-05	7.001537E-06
4.061569E+03	8.839592E-05	7.068952E-06
4.071500E+03	9.035432E-05	7.131528E-06
4.081430E+03	9.228511E-05	7.188660E-06
4.091360E+03	9.418942E-05	7.240606E-06
4.101291E+03	9.606900E-05	7.287671E-06
4.111221E+03	9.791456E-05	7.329330E-06
4.121152E+03	9.975128E-05	7.367640E-06
4.131082E+03	1.015708E-04	7.402123E-06
4.141013E+03	1.033643E-04	7.432309E-06
4.150943E+03	1.051591E-04	7.460312E-06
4.160874E+03	1.069469E-04	7.485663E-06
4.170804E+03	1.087188E-04	7.507898E-06
4.180735E+03	1.105031E-04	7.529119E-06
4.190665E+03	1.122785E-04	7.547978E-06
4.200596E+03	1.140736E-04	7.566549E-06
4.210526E+03	1.158657E-04	7.583435E-06
4.220457E+03	1.176707E-04	7.599812E-06
4.230387E+03	1.195043E-04	7.616817E-06
4.240318E+03	1.213419E-04	7.632994E-06
4.250248E+03	1.231986E-04	7.649433E-06
4.260179E+03	1.250751E-04	7.666321E-06
4.270109E+03	1.269724E-04	7.683851E-06
4.280040E+03	1.289047E-04	7.703018E-06
4.289970E+03	1.308430E-04	7.722234E-06
4.299901E+03	1.328007E-04	7.742475E-06
4.309831E+03	1.347612E-04	7.762967E-06
4.319762E+03	1.367528E-04	7.785523E-06
4.329692E+03	1.387589E-04	7.809389E-06
4.339623E+03	1.407778E-04	7.834667E-06
4.349553E+03	1.427924E-04	7.860634E-06
4.359484E+03	1.448328E-04	7.889186E-06
4.369414E+03	1.468679E-04	7.918847E-06
4.379345E+03	1.489313E-04	7.951666E-06
4.389275E+03	1.509926E-04	7.986244E-06
4.399206E+03	1.530866E-04	8.024672E-06
4.409136E+03	1.551821E-04	8.065528E-06
4.419067E+03	1.572966E-04	8.109969E-06
4.428997E+03	1.594303E-04	8.158232E-06
4.438928E+03	1.615820E-04	8.210396E-06
4.448858E+03	1.637493E-04	8.266369E-06
4.458788E+03	1.659281E-04	8.325959E-06
4.468719E+03	1.680944E-04	8.387967E-06
4.478649E+03	1.702764E-04	8.453807E-06
4.488580E+03	1.724282E-04	8.521185E-06
4.498510E+03	1.745757E-04	8.591360E-06
4.508441E+03	1.766692E-04	8.661852E-06
4.518371E+03	1.787138E-04	8.732884E-06
4.528302E+03	1.807144E-04	8.804640E-06
4.538232E+03	1.826183E-04	8.874484E-06
4.548163E+03	1.844301E-04	8.942576E-06
4.558093E+03	1.861362E-04	9.008165E-06
4.568024E+03	1.877040E-04	9.069573E-06
4.577954E+03	1.891619E-04	9.128065E-06
4.587885E+03	1.904608E-04	9.181138E-06
4.597815E+03	1.916340E-04	9.230257E-06
4.607746E+03	1.926368E-04	9.273117E-06
4.617676E+03	1.935077E-04	9.311415E-06
4.627607E+03	1.942074E-04	9.343076E-06
4.637537E+03	1.947596E-04	9.369077E-06
4.647468E+03	1.951709E-04	9.389554E-06
4.657398E+03	1.954296E-04	9.403756E-06
4.667329E+03	1.955874E-04	9.413991E-06
4.677259E+03	1.956369E-04	9.419722E-06
4.687190E+03	1.955720E-04	9.420483E-06
4.697120E+03	1.954286E-04	9.417832E-06
4.707051E+03	1.952433E-04	9.413370E-06
4.716981E+03	1.949925E-04	9.405798E-06
4.726912E+03	1.947131E-04	9.396759E-06
4.736842E+03	1.944222E-04	9.386926E-06
4.746773E+03	1.941158E-04	9.375986E-06
4.756703E+03	1.938498E-04	9.366512E-06
4.766634E+03	1.935990E-04	9.357171E-06
4.776564E+03	1.934168E-04	9.350440E-06
4.786495E+03	1.932760E-04	9.344898E-06
4.796425E+03	1.932077E-04	9.341951E-06
4.806356E+03	1.932215E-04	9.341981E-06
4.816286E+03	1.933258E-04	9.345294E-06
4.826216E+03	1.935271E-04	9.352123E-06
4.836147E+03	1.938111E-04	9.361687E-06
4.846077E+03	1.942204E-04	9.375971E-06
4.856008E+03	1.947174E-04	9.393068E-06
4.865938E+03	1.953224E-04	9.413878E-06
4.875869E+03	1.960340E-04	9.438249E-06
4.885799E+03	1.968496E-04	9.465973E-06
4.895730E+03	1.977654E-04	9.496785E-06
4.905660E+03	1.987766E-04	9.530362E-06
4.915591E+03	1.998568E-04	9.565367E-06
4.925521E+03	2.010399E-04	9.603340E-06
4.935452E+03	2.022785E-04	9.641932E-06
4.945382E+03	2.035859E-04	9.681699E-06
4.955313E+03	2.049551E-04	9.722235E-06
4.965243E+03	2.063794E-04	9.763150E-06
4.975174E+03	2.078530E-04	9.804100E-06
4.985104E+03	2.093707E-04	9.844777E-06
4.995035E+03	2.109074E-04	9.883938E-06
5.004965E+03	2.125016E-04	9.923337E-06
5.014896E+03	2.141087E-04	9.960832E-06
5.024826E+03	2.157483E-04	9.997303E-06
5.034757E+03	2.174198E-04	1.003267E-05
5.044687E+03	2.191225E-04	1.006686E-05
5.054618E+03	2.208348E-04	1.009885E-05
5.064548E+03	2.226002E-04	1.013061E-05
5.074479E+03	2.243746E-04	1.016010E-05
5.084409E+03	2.262015E-04	1.018926E-05
5.094340E+03	2.280348E-04	1.021601E-05
5.104270E+03	2.298947E-04	1.024124E-05
5.114201E+03	2.317779E-04	1.026482E-05
5.124131E+03	2.336573E-04	1.028555E-05
5.134062E+03	2.355735E-04	1.030524E-05
5.143992E+03	2.374740E-04	1.032163E-05
5.153923E+03	2.393986E-04	1.033649E-05
5.163853E+03	2.412918E-04	1.034748E-05
5.173784E+03	2.431689E-04	1.035534E-05
5.183714E+03	2.450206E-04	1.035977E-05
5.193644E+03	2.468377E-04	1.036049E-05
5.203575E+03	2.485861E-04	1.035621E-05
5.213505E+03	2.503052E-04	1.034872E-05
5.223436E+03	2.519370E-04	1.033580E-05
5.233366E+03	2.535224E-04	1.031932E-05
5.243297E+03	2.550044E-04	1.029714E-05
5.253227E+03	2.564010E-04	1.027026E-05
5.263158E+03	2.577070E-04	1.023869E-05
5.273088E+03	2.588933E-04	1.020156E-05
5.283019E+03	2.600085E-04	1.016105E-05
5.292949E+03	2.610017E-04	1.011544E-05
5.302880E+03	2.619254E-04	1.006707E-05
5.312810E+03	2.627324E-04	1.001442E-05
5.322741E+03	2.634542E-04	9.958974E-06
5.332671E+03	2.640984E-04	9.901334E-06
5.342602E+03	2.646749E-04	9.842158E-06
5.352532E+03	2.651950E-04	9.782144E-06
5.362463E+03	2.656455E-04	9.721095E-06
5.372393E+03	2.660916E-04	9.661665E-06
5.382324E+03	2.664954E-04	9.602725E-06
5.392254E+03	2.668966E-04	9.545961E-06
5.402185E+03	2.673075E-04	9.492051E-06
5.412115E+03	2.677390E-04	9.441596E-06
5.422046E+03	2.681988E-04	9.395080E-06
5.431976E+03	2.686906E-04	9.352840E-06
5.441907E+03	2.691876E-04	9.314145E-06
5.451837E+03	2.697348E-04	9.280752E-06
5.461768E+03	2.702672E-04	9.250538E-06
5.471698E+03	2.708192E-04	9.224505E-06
5.481629E+03	2.713160E-04	9.199867E-06
5.491559E+03	2.717578E-04	9.176392E-06
5.501490E+03	2.721170E-04	9.152906E-06
5.511420E+03	2.723406E-04	9.127385E-06
5.521351E+03	2.724566E-04	9.100518E-06
5.531281E+03	2.724183E-04	9.070489E-06
5.541212E+03	2.721843E-04	9.035673E-06
5.551142E+03	2.717717E-04	8.996385E-06
5.561072E+03	2.712042E-04	8.953156E-06
5.571003E+03	2.704341E-04	8.904158E-06
5.580933E+03	2.694989E-04	8.850374E-06
5.590864E+03	2.684157E-04	8.792119E-06
5.600794E+03	2.671818E-04	8.729066E-06
5.610725E+03	2.658766E-04	8.663573E-06
5.620655E+03	2.645056E-04	8.595579E-06
5.630586E+03	2.630777E-04	8.525153E-06
5.640516E+03	2.616539E-04	8.454056E-06
5.650447E+03	2.602956E-04	8.384046E-06
5.660377E+03	2.589888E-04	8.314459E-06
5.670308E+03	2.577932E-04	8.246998E-06
5.680238E+03	2.567413E-04	8.182487E-06
5.690169E+03	2.558625E-04	8.121640E-06
5.700099E+03	2.551589E-04	8.064301E-06
5.710030E+03	2.547017E-04	8.012484E-06
5.719960E+03	2.544840E-04	7.965719E-06
5.729891E+03	2.544946E-04	7.923401E-06
5.739821E+03	2.547657E-04	7.886272E-06
5.749752E+03	2.553247E-04	7.854900E-06
5.759682E+03	2.561203E-04	7.827401E-06
5.769613E+03	2.571692E-04	7.804005E-06
5.779543E+03	2.584586E-04	7.784018E-06
5.789474E+03	2.599710E-04	7.766607E-06
5.799404E+03	2.616844E-04	7.750818E-06
5.809335E+03	2.635473E-04	7.734839E-06
5.819265E+03	2.655805E-04	7.719011E-06
5.829196E+03	2.677013E-04	7.700673E-06
5.839126E+03	2.699263E-04	7.680083E-06
5.849057E+03	2.721694E-04	7.654598E-06
5.858987E+03	2.744473E-04	7.624545E-06
5.868918E+03	2.766738E-04	7.587420E-06
5.878848E+03	2.788434E-04	7.543041E-06
5.888779E+03	2.809277E-04	7.490638E-06
5.898709E+03	2.829022E-04	7.429622E-06
5.908640E+03	2.847481E-04	7.359607E-06
5.918570E+03	2.864247E-04	7.279718E-06
5.928500E+03	2.879800E-04	7.191397E-06
5.938431E+03	2.893866E-04	7.094194E-06
5.948361E+03	2.906239E-04	6.987904E-06
5.958292E+03	2.917615E-04	6.874535E-06
5.968222E+03	2.927644E-04	6.753584E-06
5.978153E+03	2.937159E-04	6.627339E-06
5.988083E+03	2.945928E-04	6.495613E-06
5.998014E+03	2.954610E-04	6.360241E-06
6.007944E+03	2.963628E-04	6.222479E-06
6.017875E+03	2.973441E-04	6.083630E-06
6.027805E+03	2.984530E-04	5.945009E-06
6.037736E+03	2.997394E-04	5.807945E-06
6.047666E+03	3.012542E-04	5.673769E-06
6.057597E+03	3.030481E-04	5.543811E-06
6.067527E+03	3.051426E-04	5.418906E-06
6.077458E+03	3.076442E-04	5.301474E-06
6.087388E+03	3.105714E-04	5.192427E-06
6.097319E+03	3.139374E-04	5.092793E-06
6.107249E+03	3.178429E-04	5.005219E-06
6.117180E+03	3.222626E-04	4.930555E-06
6.127110E+03	3.272568E-04	4.871326E-06
6.137041E+03	3.328486E-04	4.829815E-06
6.146971E+03	3.390857E-04	4.809029E-06
6.156902E+03	3.459086E-04	4.810851E-06
6.166832E+03	3.533431E-04	4.838774E-06
6.176763E+03	3.613683E-04	4.895952E-06
6.186693E+03	3.699488E-04	4.985553E-06
6.196624E+03	3.790319E-04	5.110590E-06
6.206554E+03	3.885494E-04	5.273560E-06
6.216485E+03	3.984205E-04	5.475151E-06
6.226415E+03	4.085084E-04	5.714207E-06
6.236346E+03	4.187772E-04	5.990375E-06
6.246276E+03	4.290626E-04	6.300922E-06
6.256207E+03	4.391869E-04	6.642282E-06
6.266137E+03	4.490925E-04	7.012132E-06
6.276068E+03	4.585523E-04	7.405060E-06
6.285998E+03	4.675154E-04	7.817929E-06
6.295929E+03	4.757633E-04	8.244467E-06
6.305859E+03	4.832234E-04	8.680406E-06
6.315789E+03	4.898417E-04	9.121600E-06
6.325720E+03	4.954423E-04	9.561407E-06
6.335650E+03	5.000107E-04	9.995945E-06
6.345581E+03	5.035065E-04	1.042080E-05
6.355511E+03	5.059600E-04	1.083303E-05
6.365442E+03	5.072757E-04	1.122703E-05
6.375372E+03	5.075227E-04	1.160080E-05
6.385303E+03	5.067380E-04	1.195188E-05
6.395233E+03	5.049722E-04	1.227831E-05
6.405164E+03	5.022876E-04	1.257873E-05
6.415094E+03	4.987062E-04	1.285096E-05
6.425025E+03	4.944011E-04	1.309705E-05
6.434955E+03	4.894030E-04	1.331574E-05
6.444886E+03	4.837934E-04	1.350738E-05
6.454816E+03	4.776058E-04	1.367127E-05
6.464747E+03	4.710119E-04	1.381095E-05
6.474677E+03	4.640405E-04	1.392622E-05
6.484608E+03	4.567190E-04	1.401700E-05
6.494538E+03	4.492038E-04	1.408738E-05
6.504469E+03	4.414703E-04	1.413613E-05
6.514399E+03	4.336626E-04	1.416754E-05
6.524330E+03	4.257485E-04	1.418043E-05
6.534260E+03	4.178596E-04	1.417913E-05
6.544191E+03	4.099581E-04	1.416249E-05
6.554121E+03	4.021241E-04	1.413342E-05
6.564052E+03	3.944314E-04	1.409484E-05
6.573982E+03	3.868337E-04	1.404548E-05
6.583913E+03	3.793978E-04	1.398814E-05
6.593843E+03	3.721487E-04	1.392424E-05
6.603774E+03	3.651431E-04	1.385642E-05
6.613704E+03	3.583286E-04	1.378327E-05
6.623635E+03	3.517584E-04	1.370737E-05
6.633565E+03	3.454471E-04	1.362987E-05
6.643496E+03	3.394077E-04	1.355188E-05
6.653426E+03	3.336513E-04	1.347446E-05
6.663357E+03	3.281880E-04	1.339859E-05
6.673287E+03	3.230263E-04	1.332522E-05
6.683217E+03	3.181743E-04	1.325526E-05
6.693148E+03	3.136383E-04	1.318955E-05
6.703078E+03	3.093945E-04	1.312763E-05
6.713009E+03	3.055088E-04	1.307280E-05
6.722939E+03	3.019555E-04	1.302451E-05
6.732870E+03	2.987389E-04	1.298343E-05
6.742800E+03	2.958341E-04	1.294893E-05
6.752731E+03	2.933031E-04	1.292415E-05
6.762661E+03	2.911201E-04	1.290838E-05
6.772592E+03	2.892599E-04	1.290088E-05
6.782522E+03	2.877821E-04	1.290464E-05
6.792453E+03	2.866614E-04	1.291887E-05
6.802383E+03	2.858721E-04	1.294267E-05
6.812314E+03	2.854724E-04	1.297895E-05
6.822244E+03	2.854090E-04	1.302550E-05
6.832175E+03	2.857387E-04	1.308510E-05
6.842105E+03	2.864077E-04	1.315544E-05
6.852036E+03	2.874440E-04	1.323791E-05
6.861966E+03	2.888765E-04	1.333394E-05
6.871897E+03	2.906488E-04	1.344097E-05
6.881827E+03	2.927877E-04	1.356025E-05
6.891758E+03	2.953210E-04	1.369305E-05
6.901688E+03	2.981886E-04	1.383653E-05
6.911619E+03	3.014157E-04	1.399176E-05
6.921549E+03	3.049982E-04	1.415844E-05
6.931480E+03	3.089315E-04	1.433619E-05
6.941410E+03	3.132089E-04	1.452453E-05
6.951341E+03	3.178550E-04	1.472438E-05
6.961271E+03	3.227989E-04	1.493222E-05
6.971202E+03	3.280618E-04	1.514877E-05
6.981132E+03	3.336324E-04	1.537323E-05
6.991063E+03	3.394647E-04	1.560319E-05
7.000993E+03	3.456104E-04	1.584071E-05
7.010924E+03	3.520207E-04	1.608323E-05
7.020854E+03	3.586775E-04	1.632959E-05
7.030785E+03	3.655597E-04	1.657849E-05
7.040715E+03	3.726448E-04	1.682860E-05
7.050645E+03	3.798691E-04	1.707675E-05
7.060576E+03	3.872792E-04	1.732472E-05
7.070506E+03	3.948065E-04	1.756919E-05
7.080437E+03	4.024167E-04	1.780838E-05
7.090367E+03	4.100308E-04	1.803863E-05
7.100298E+03	4.176889E-04	1.826157E-05
7.110228E+03	4.252646E-04	1.847158E-05
7.120159E+03	4.327939E-04	1.867026E-05
7.130089E+03	4.401416E-04	1.885182E-05
7.140020E+03	4.473419E-04	1.901792E-05
7.149950E+03	4.542514E-04	1.916271E-05
7.159881E+03	4.608577E-04	1.928609E-05
7.169811E+03	4.671504E-04	1.938809E-05
7.179742E+03	4.729800E-04	1.946312E-05
7.189672E+03	4.783362E-04	1.951152E-05
7.199603E+03	4.831648E-04	1.953196E-05
7.209533E+03	4.874633E-04	1.952532E-05
7.219464E+03	4.910882E-04	1.948696E-05
7.229394E+03	4.940460E-04	1.941841E-05
7.239325E+03	4.963018E-04	1.931965E-05
7.249255E+03	4.978283E-04	1.919108E-05
7.259186E+03	4.986063E-04	1.903349E-05
7.269116E+03	4.986268E-04	1.884813E-05
7.279047E+03	4.978899E-04	1.863663E-05
7.288977E+03	4.964061E-04	1.840107E-05
7.298908E+03	4.941474E-04	1.814207E-05
7.308838E+03	4.912444E-04	1.786610E-05
7.318769E+03	4.876884E-04	1.757440E-05
7.328699E+03	4.835298E-04	1.727030E-05
7.338630E+03	4.787785E-04	1.695561E-05
7.348560E+03	4.735970E-04	1.663743E-05
7.358491E+03	4.679604E-04	1.631609E-05
7.368421E+03	4.620389E-04	1.599861E-05
7.378352E+03	4.558156E-04	1.568534E-05
7.388282E+03	4.494623E-04	1.538304E-05
7.398213E+03	4.429647E-04	1.509187E-05
7.408143E+03	4.364443E-04	1.481657E-05
7.418073E+03	4.300159E-04	1.456146E-05
7.428004E+03	4.236581E-04	1.432618E-05
7.437934E+03	4.174742E-04	1.411447E-05
7.447865E+03	4.115167E-04	1.392830E-05
7.457795E+03	4.058292E-04	1.376929E-05
7.467726E+03	4.004460E-04	1.363870E-05
7.477656E+03	3.953932E-04	1.353750E-05
7.487587E+03	3.906868E-04	1.346627E-05
7.497517E+03	3.863351E-04	1.342490E-05
7.507448E+03	3.823386E-04	1.341271E-05
7.517378E+03	3.786904E-04	1.342880E-05
7.527309E+03	3.753419E-04	1.347081E-05
7.537239E+03	3.723554E-04	1.354038E-05
7.547170E+03	3.696783E-04	1.363510E-05
7.557100E+03	3.672586E-04	1.375254E-05
7.567031E+03	3.651583E-04	1.389455E-05
7.576961E+03	3.632734E-04	1.405677E-05
7.586892E+03	3.616503E-04	1.424059E-05
7.596822E+03	3.601894E-04	1.444169E-05
7.606753E+03	3.589062E-04	1.466028E-05
7.616683E+03	3.577806E-04	1.489514E-05
7.626614E+03	3.568305E-04	1.514668E-05
7.636544E+03	3.559632E-04	1.541063E-05
7.646475E+03	3.551956E-04	1.568729E-05
7.656405E+03	3.545070E-04	1.597538E-05
7.666336E+03	3.538758E-04	1.627352E-05
7.676266E+03	3.532796E-04	1.658028E-05
7.686197E+03	3.526947E-04	1.689408E-05
7.696127E+03	3.520613E-04	1.721155E-05
7.706058E+03	3.514295E-04	1.753457E-05
