#wls	flux	fluxerr
1.588878E+03	2.610045E-07	8.565061E-09
1.628600E+03	2.663266E-07	8.724607E-09
1.668322E+03	2.679651E-07	8.762706E-09
1.708044E+03	2.657829E-07	8.675521E-09
1.747766E+03	2.596861E-07	8.460674E-09
1.787488E+03	2.490372E-07	8.098169E-09
1.827210E+03	2.334595E-07	7.576678E-09
1.866931E+03	2.127561E-07	6.890831E-09
1.906653E+03	1.873766E-07	6.056260E-09
1.946375E+03	1.588972E-07	5.124855E-09
1.986097E+03	1.298578E-07	4.179130E-09
2.025819E+03	1.037081E-07	3.330111E-09
2.065541E+03	8.361394E-08	2.678723E-09
2.105263E+03	7.140573E-08	2.282232E-09
2.144985E+03	6.754428E-08	2.153610E-09
2.184707E+03	7.186015E-08	2.285556E-09
2.224429E+03	8.415219E-08	2.669730E-09
2.264151E+03	1.041414E-07	3.295307E-09
2.303873E+03	1.310818E-07	4.136727E-09
2.343595E+03	1.638277E-07	5.156027E-09
2.383317E+03	2.009645E-07	6.307119E-09
2.423039E+03	2.412235E-07	7.548925E-09
2.462761E+03	2.837289E-07	8.853038E-09
2.502483E+03	3.278658E-07	1.019946E-08
2.542205E+03	3.735841E-07	1.158589E-08
2.581927E+03	4.209719E-07	1.301433E-08
2.621648E+03	4.703947E-07	1.449526E-08
2.661370E+03	5.223971E-07	1.604447E-08
2.701092E+03	5.777770E-07	1.768527E-08
2.740814E+03	6.371839E-07	1.943606E-08
2.780536E+03	7.018200E-07	2.133171E-08
2.820258E+03	7.727464E-07	2.340223E-08
2.859980E+03	8.513273E-07	2.568625E-08
2.899702E+03	9.391691E-07	2.822892E-08
2.939424E+03	1.038356E-06	3.108890E-08
2.979146E+03	1.151019E-06	3.432511E-08
2.989076E+03	1.181498E-06	3.519849E-08
2.999007E+03	1.213030E-06	3.610120E-08
3.008937E+03	1.245878E-06	3.704095E-08
3.018868E+03	1.279756E-06	3.800915E-08
3.028798E+03	1.315467E-06	3.902944E-08
3.038729E+03	1.352972E-06	4.010057E-08
3.048659E+03	1.392736E-06	4.123606E-08
3.058590E+03	1.434303E-06	4.242223E-08
3.068520E+03	1.478174E-06	4.367370E-08
3.078451E+03	1.523879E-06	4.497634E-08
3.088381E+03	1.571961E-06	4.634596E-08
3.098312E+03	1.621928E-06	4.776787E-08
3.108242E+03	1.674368E-06	4.925915E-08
3.118173E+03	1.728768E-06	5.080444E-08
3.128103E+03	1.785759E-06	5.242211E-08
3.138034E+03	1.844805E-06	5.409611E-08
3.147964E+03	1.906588E-06	5.584622E-08
3.157895E+03	1.970876E-06	5.766539E-08
3.167825E+03	2.037403E-06	5.954550E-08
3.177756E+03	2.106931E-06	6.150863E-08
3.187686E+03	2.178848E-06	6.353658E-08
3.197617E+03	2.253978E-06	6.565307E-08
3.207547E+03	2.332069E-06	6.785043E-08
3.217478E+03	2.412822E-06	7.011964E-08
3.227408E+03	2.497159E-06	7.248719E-08
3.237339E+03	2.584374E-06	7.493220E-08
3.247269E+03	2.675461E-06	7.748312E-08
3.257200E+03	2.770138E-06	8.013137E-08
3.267130E+03	2.868070E-06	8.286688E-08
3.277061E+03	2.970367E-06	8.572132E-08
3.286991E+03	3.076729E-06	8.868551E-08
3.296922E+03	3.186791E-06	9.174853E-08
3.306852E+03	3.301796E-06	9.494568E-08
3.316783E+03	3.421417E-06	9.826702E-08
3.326713E+03	3.545260E-06	1.017007E-07
3.336643E+03	3.674711E-06	1.052859E-07
3.346574E+03	3.809415E-06	1.090120E-07
3.356504E+03	3.949604E-06	1.128848E-07
3.366435E+03	4.094832E-06	1.168911E-07
3.376365E+03	4.246705E-06	1.210760E-07
3.386296E+03	4.404820E-06	1.254272E-07
3.396226E+03	4.568683E-06	1.299301E-07
3.406157E+03	4.740086E-06	1.346349E-07
3.416087E+03	4.918582E-06	1.395279E-07
3.426018E+03	5.104477E-06	1.446170E-07
3.435948E+03	5.297195E-06	1.498851E-07
3.445879E+03	5.498809E-06	1.553898E-07
3.455809E+03	5.708796E-06	1.611155E-07
3.465740E+03	5.927504E-06	1.670708E-07
3.475670E+03	6.154256E-06	1.732358E-07
3.485601E+03	6.391442E-06	1.796766E-07
3.495531E+03	6.638437E-06	1.863744E-07
3.505462E+03	6.895632E-06	1.933391E-07
3.515392E+03	7.163411E-06	2.005801E-07
3.525323E+03	7.440930E-06	2.080726E-07
3.535253E+03	7.731030E-06	2.158946E-07
3.545184E+03	8.032930E-06	2.240230E-07
3.555114E+03	8.347041E-06	2.324676E-07
3.565045E+03	8.672336E-06	2.411985E-07
3.574975E+03	9.012076E-06	2.503048E-07
3.584906E+03	9.365286E-06	2.597577E-07
3.594836E+03	9.732387E-06	2.695672E-07
3.604767E+03	1.011381E-05	2.797435E-07
3.614697E+03	1.050996E-05	2.902960E-07
3.624628E+03	1.091944E-05	3.011845E-07
3.634558E+03	1.134623E-05	3.125167E-07
3.644489E+03	1.178897E-05	3.242529E-07
3.654419E+03	1.224804E-05	3.364020E-07
3.664350E+03	1.272383E-05	3.489722E-07
3.674280E+03	1.321449E-05	3.619112E-07
3.684211E+03	1.372469E-05	3.753441E-07
3.694141E+03	1.425263E-05	3.892197E-07
3.704071E+03	1.479861E-05	4.035440E-07
3.714002E+03	1.536290E-05	4.183222E-07
3.723932E+03	1.594578E-05	4.335588E-07
3.733863E+03	1.654472E-05	4.491834E-07
3.743793E+03	1.716528E-05	4.653446E-07
3.753724E+03	1.780500E-05	4.819724E-07
3.763654E+03	1.846399E-05	4.990681E-07
3.773585E+03	1.914235E-05	5.166313E-07
3.783515E+03	1.983685E-05	5.345726E-07
3.793446E+03	2.055393E-05	5.530630E-07
3.803376E+03	2.129039E-05	5.720138E-07
3.813307E+03	2.204615E-05	5.914205E-07
3.823237E+03	2.282110E-05	6.112771E-07
3.833168E+03	2.361118E-05	6.314725E-07
3.843098E+03	2.442382E-05	6.522033E-07
3.853029E+03	2.525500E-05	6.733591E-07
3.862959E+03	2.610441E-05	6.949293E-07
3.872890E+03	2.697170E-05	7.169021E-07
3.882820E+03	2.785647E-05	7.392645E-07
3.892751E+03	2.875356E-05	7.618773E-07
3.902681E+03	2.967178E-05	7.849718E-07
3.912612E+03	3.060603E-05	8.084108E-07
3.922542E+03	3.155575E-05	8.321768E-07
3.932473E+03	3.252034E-05	8.562519E-07
3.942403E+03	3.349367E-05	8.804734E-07
3.952334E+03	3.448591E-05	9.051064E-07
3.962264E+03	3.549102E-05	9.299904E-07
3.972195E+03	3.650830E-05	9.551050E-07
3.982125E+03	3.753086E-05	9.802689E-07
3.992056E+03	3.857008E-05	1.005777E-06
4.001986E+03	3.961921E-05	1.031453E-06
4.011917E+03	4.067748E-05	1.057274E-06
4.021847E+03	4.173729E-05	1.083042E-06
4.031778E+03	4.281135E-05	1.109086E-06
4.041708E+03	4.389222E-05	1.135211E-06
4.051639E+03	4.497913E-05	1.161397E-06
4.061569E+03	4.606383E-05	1.187430E-06
4.071500E+03	4.716044E-05	1.213674E-06
4.081430E+03	4.826088E-05	1.239918E-06
4.091360E+03	4.936447E-05	1.266147E-06
4.101291E+03	5.046234E-05	1.292130E-06
4.111221E+03	5.157009E-05	1.318269E-06
4.121152E+03	5.267908E-05	1.344341E-06
4.131082E+03	5.378001E-05	1.370109E-06
4.141013E+03	5.488966E-05	1.396001E-06
4.150943E+03	5.599897E-05	1.421786E-06
4.160874E+03	5.709823E-05	1.447217E-06
4.170804E+03	5.820539E-05	1.472750E-06
4.180735E+03	5.931104E-05	1.498146E-06
4.190665E+03	6.040505E-05	1.523151E-06
4.200596E+03	6.150659E-05	1.548248E-06
4.210526E+03	6.260584E-05	1.573189E-06
4.220457E+03	6.369231E-05	1.597712E-06
4.230387E+03	6.478636E-05	1.622328E-06
4.240318E+03	6.586712E-05	1.646515E-06
4.250248E+03	6.695569E-05	1.670800E-06
4.260179E+03	6.804161E-05	1.694923E-06
4.270109E+03	6.911375E-05	1.718608E-06
4.280040E+03	7.019436E-05	1.742408E-06
4.289970E+03	7.126102E-05	1.765766E-06
4.299901E+03	7.233666E-05	1.789253E-06
4.309831E+03	7.339821E-05	1.812297E-06
4.319762E+03	7.446927E-05	1.835482E-06
4.329692E+03	7.553821E-05	1.858521E-06
4.339623E+03	7.659270E-05	1.881112E-06
4.349553E+03	7.765719E-05	1.903856E-06
4.359484E+03	7.870670E-05	1.926141E-06
4.369414E+03	7.976615E-05	1.948577E-06
4.379345E+03	8.080966E-05	1.970533E-06
4.389275E+03	8.184943E-05	1.992308E-06
4.399206E+03	8.289820E-05	2.014212E-06
4.409136E+03	8.392887E-05	2.035588E-06
4.419067E+03	8.496751E-05	2.057068E-06
4.428997E+03	8.598624E-05	2.077979E-06
4.438928E+03	8.701170E-05	2.098966E-06
4.448858E+03	8.801527E-05	2.119339E-06
4.458788E+03	8.900994E-05	2.139413E-06
4.468719E+03	9.000924E-05	2.159515E-06
4.478649E+03	9.098366E-05	2.178937E-06
4.488580E+03	9.196137E-05	2.198354E-06
4.498510E+03	9.291224E-05	2.217049E-06
4.508441E+03	9.385011E-05	2.235354E-06
4.518371E+03	9.478941E-05	2.253614E-06
4.528302E+03	9.569931E-05	2.271096E-06
4.538232E+03	9.659421E-05	2.288147E-06
4.548163E+03	9.747360E-05	2.304755E-06
4.558093E+03	9.835270E-05	2.321283E-06
4.568024E+03	9.919989E-05	2.336984E-06
4.577954E+03	1.000304E-04	2.352222E-06
4.587885E+03	1.008441E-04	2.366994E-06
4.597815E+03	1.016570E-04	2.381679E-06
4.607746E+03	1.024367E-04	2.395522E-06
4.617676E+03	1.031996E-04	2.408903E-06
4.627607E+03	1.039456E-04	2.421828E-06
4.637537E+03	1.046751E-04	2.434306E-06
4.647468E+03	1.054051E-04	2.446734E-06
4.657398E+03	1.061026E-04	2.458348E-06
4.667329E+03	1.067847E-04	2.469548E-06
4.677259E+03	1.074521E-04	2.480350E-06
4.687190E+03	1.081053E-04	2.490770E-06
4.697120E+03	1.087451E-04	2.500825E-06
4.707051E+03	1.093722E-04	2.510535E-06
4.716981E+03	1.099874E-04	2.519920E-06
4.726912E+03	1.105915E-04	2.529001E-06
4.736842E+03	1.111854E-04	2.537798E-06
4.746773E+03	1.117700E-04	2.546334E-06
4.756703E+03	1.123463E-04	2.554631E-06
4.766634E+03	1.129151E-04	2.562712E-06
4.776564E+03	1.134774E-04	2.570598E-06
4.786495E+03	1.140341E-04	2.578311E-06
4.796425E+03	1.145862E-04	2.585872E-06
4.806356E+03	1.151345E-04	2.593304E-06
4.816286E+03	1.156799E-04	2.600625E-06
4.826216E+03	1.162232E-04	2.607855E-06
4.836147E+03	1.167652E-04	2.615012E-06
4.846077E+03	1.173068E-04	2.622114E-06
4.856008E+03	1.178485E-04	2.629176E-06
4.865938E+03	1.183724E-04	2.635797E-06
4.875869E+03	1.189163E-04	2.642822E-06
4.885799E+03	1.194623E-04	2.649847E-06
4.895730E+03	1.200107E-04	2.656884E-06
4.905660E+03	1.205620E-04	2.663942E-06
4.915591E+03	1.210975E-04	2.670606E-06
4.925521E+03	1.216556E-04	2.677726E-06
4.935452E+03	1.222175E-04	2.684886E-06
4.945382E+03	1.227833E-04	2.692090E-06
4.955313E+03	1.233338E-04	2.698913E-06
4.965243E+03	1.239078E-04	2.706208E-06
4.975174E+03	1.244859E-04	2.713549E-06
4.985104E+03	1.250483E-04	2.720506E-06
4.995035E+03	1.256344E-04	2.727933E-06
5.004965E+03	1.262242E-04	2.735397E-06
5.014896E+03	1.267976E-04	2.742464E-06
5.024826E+03	1.273941E-04	2.749988E-06
5.034757E+03	1.279735E-04	2.757100E-06
5.044687E+03	1.285755E-04	2.764657E-06
5.054618E+03	1.291595E-04	2.771784E-06
5.064548E+03	1.297654E-04	2.779341E-06
5.074479E+03	1.303523E-04	2.786447E-06
5.084409E+03	1.309604E-04	2.793967E-06
5.094340E+03	1.315481E-04	2.801014E-06
5.104270E+03	1.321563E-04	2.808455E-06
5.114201E+03	1.327429E-04	2.815399E-06
5.124131E+03	1.333490E-04	2.822718E-06
5.134062E+03	1.339323E-04	2.829517E-06
5.143992E+03	1.345340E-04	2.836670E-06
5.153923E+03	1.351117E-04	2.843278E-06
5.163853E+03	1.356856E-04	2.849774E-06
5.173784E+03	1.362766E-04	2.856596E-06
5.183714E+03	1.368415E-04	2.862839E-06
5.193644E+03	1.374011E-04	2.868940E-06
5.203575E+03	1.379765E-04	2.875340E-06
5.213505E+03	1.385239E-04	2.881131E-06
5.223436E+03	1.390646E-04	2.886754E-06
5.233366E+03	1.396198E-04	2.892654E-06
5.243297E+03	1.401456E-04	2.897921E-06
5.253227E+03	1.406634E-04	2.902999E-06
5.263158E+03	1.411728E-04	2.907884E-06
5.273088E+03	1.416734E-04	2.912572E-06
5.283019E+03	1.421874E-04	2.917516E-06
5.292949E+03	1.426700E-04	2.921800E-06
5.302880E+03	1.431432E-04	2.925881E-06
5.312810E+03	1.436070E-04	2.929756E-06
5.322741E+03	1.440612E-04	2.933428E-06
5.332671E+03	1.445059E-04	2.936898E-06
5.342602E+03	1.449411E-04	2.940169E-06
5.352532E+03	1.453668E-04	2.943246E-06
5.362463E+03	1.457833E-04	2.946134E-06
5.372393E+03	1.461909E-04	2.948842E-06
5.382324E+03	1.465897E-04	2.951377E-06
5.392254E+03	1.469803E-04	2.953749E-06
5.402185E+03	1.473630E-04	2.955969E-06
5.412115E+03	1.477384E-04	2.958051E-06
5.422046E+03	1.481070E-04	2.960008E-06
5.431976E+03	1.484696E-04	2.961855E-06
5.441907E+03	1.488266E-04	2.963606E-06
5.451837E+03	1.491788E-04	2.965275E-06
5.461768E+03	1.495265E-04	2.966874E-06
5.471698E+03	1.498701E-04	2.968408E-06
5.481629E+03	1.502096E-04	2.969881E-06
5.491559E+03	1.505451E-04	2.971297E-06
5.501490E+03	1.508768E-04	2.972659E-06
5.511420E+03	1.511812E-04	2.973509E-06
5.521351E+03	1.515057E-04	2.974779E-06
5.531281E+03	1.518270E-04	2.976014E-06
5.541212E+03	1.521456E-04	2.977223E-06
5.551142E+03	1.524381E-04	2.977951E-06
5.561072E+03	1.527525E-04	2.979138E-06
5.571003E+03	1.530657E-04	2.980334E-06
5.580933E+03	1.533784E-04	2.981553E-06
5.590864E+03	1.536673E-04	2.982345E-06
5.600794E+03	1.539811E-04	2.983656E-06
5.610725E+03	1.542967E-04	2.985037E-06
5.620655E+03	1.545908E-04	2.986042E-06
5.630586E+03	1.549123E-04	2.987617E-06
5.640516E+03	1.552383E-04	2.989317E-06
5.650447E+03	1.555452E-04	2.990694E-06
5.660377E+03	1.558824E-04	2.992697E-06
5.670308E+03	1.562023E-04	2.994411E-06
5.680238E+03	1.565544E-04	2.996788E-06
5.690169E+03	1.569152E-04	2.999377E-06
5.700099E+03	1.572610E-04	3.001729E-06
5.710030E+03	1.576415E-04	3.004792E-06
5.719960E+03	1.580086E-04	3.007649E-06
5.729891E+03	1.584119E-04	3.011248E-06
5.739821E+03	1.588030E-04	3.014666E-06
5.749752E+03	1.592318E-04	3.018853E-06
5.759682E+03	1.596494E-04	3.022884E-06
5.769613E+03	1.600810E-04	3.027237E-06
5.779543E+03	1.605521E-04	3.032396E-06
5.789474E+03	1.610134E-04	3.037427E-06
5.799404E+03	1.615152E-04	3.043283E-06
5.809335E+03	1.620078E-04	3.049027E-06
5.819265E+03	1.625166E-04	3.055140E-06
5.829196E+03	1.630673E-04	3.062106E-06
5.839126E+03	1.636095E-04	3.068981E-06
5.849057E+03	1.641946E-04	3.076727E-06
5.858987E+03	1.647717E-04	3.084395E-06
5.868918E+03	1.653667E-04	3.092470E-06
5.878848E+03	1.659799E-04	3.100960E-06
5.888779E+03	1.666375E-04	3.110357E-06
5.898709E+03	1.672883E-04	3.119704E-06
5.908640E+03	1.679584E-04	3.129492E-06
5.918570E+03	1.686481E-04	3.139729E-06
5.928500E+03	1.693842E-04	3.150916E-06
5.938431E+03	1.701146E-04	3.162084E-06
5.948361E+03	1.708660E-04	3.173732E-06
5.958292E+03	1.716386E-04	3.185869E-06
5.968222E+03	1.724330E-04	3.198506E-06
5.978153E+03	1.732765E-04	3.212151E-06
5.988083E+03	1.741157E-04	3.225819E-06
5.998014E+03	1.749778E-04	3.240016E-06
6.007944E+03	1.758629E-04	3.254748E-06
6.017875E+03	1.767715E-04	3.270025E-06
6.027805E+03	1.777035E-04	3.285850E-06
6.037736E+03	1.786590E-04	3.302229E-06
6.047666E+03	1.796379E-04	3.319162E-06
6.057597E+03	1.806681E-04	3.337169E-06
6.067527E+03	1.816932E-04	3.355212E-06
6.077458E+03	1.827406E-04	3.373799E-06
6.087388E+03	1.838096E-04	3.392923E-06
6.097319E+03	1.848991E-04	3.412569E-06
6.107249E+03	1.860081E-04	3.432721E-06
6.117180E+03	1.871351E-04	3.453358E-06
6.127110E+03	1.882784E-04	3.474452E-06
6.137041E+03	1.894362E-04	3.495974E-06
6.146971E+03	1.906063E-04	3.517888E-06
6.156902E+03	1.917861E-04	3.540153E-06
6.166832E+03	1.929429E-04	3.562169E-06
6.176763E+03	1.941334E-04	3.584989E-06
6.186693E+03	1.953246E-04	3.608006E-06
6.196624E+03	1.965128E-04	3.631160E-06
6.206554E+03	1.976942E-04	3.654384E-06
6.216485E+03	1.988650E-04	3.677606E-06
6.226415E+03	2.000210E-04	3.700750E-06
6.236346E+03	2.011580E-04	3.723737E-06
6.246276E+03	2.022714E-04	3.746486E-06
6.256207E+03	2.033254E-04	3.768328E-06
6.266137E+03	2.043784E-04	3.790349E-06
6.276068E+03	2.053946E-04	3.811881E-06
6.285998E+03	2.063695E-04	3.832842E-06
6.295929E+03	2.072989E-04	3.853150E-06
6.305859E+03	2.081463E-04	3.872125E-06
6.315789E+03	2.089725E-04	3.890894E-06
6.325720E+03	2.097416E-04	3.908786E-06
6.335650E+03	2.104503E-04	3.925738E-06
6.345581E+03	2.110629E-04	3.941077E-06
6.355511E+03	2.116425E-04	3.955974E-06
6.365442E+03	2.121540E-04	3.969775E-06
6.375372E+03	2.125960E-04	3.982441E-06
6.385303E+03	2.129339E-04	3.993324E-06
6.395233E+03	2.132333E-04	4.003643E-06
6.405164E+03	2.134609E-04	4.012767E-06
6.415094E+03	2.135835E-04	4.020067E-06
6.425025E+03	2.136684E-04	4.026799E-06
6.434955E+03	2.136834E-04	4.032353E-06
6.444886E+03	2.135970E-04	4.036124E-06
6.454816E+03	2.134777E-04	4.039398E-06
6.464747E+03	2.132946E-04	4.041585E-06
6.474677E+03	2.130175E-04	4.042102E-06
6.484608E+03	2.127158E-04	4.042262E-06
6.494538E+03	2.123269E-04	4.040863E-06
6.504469E+03	2.119206E-04	4.039230E-06
6.514399E+03	2.114350E-04	4.036173E-06
6.524330E+03	2.109404E-04	4.033026E-06
6.534260E+03	2.104079E-04	4.029236E-06
6.544191E+03	2.098098E-04	4.024258E-06
6.554121E+03	2.092159E-04	4.019431E-06
6.564052E+03	2.085659E-04	4.013589E-06
6.573982E+03	2.079296E-04	4.008067E-06
6.583913E+03	2.072470E-04	4.001707E-06
6.593843E+03	2.065876E-04	3.995844E-06
6.603774E+03	2.058915E-04	3.989319E-06
6.613704E+03	2.052279E-04	3.983465E-06
6.623635E+03	2.045371E-04	3.977126E-06
6.633565E+03	2.038875E-04	3.971626E-06
6.643496E+03	2.032199E-04	3.965810E-06
6.653426E+03	2.025702E-04	3.960378E-06
6.663357E+03	2.019739E-04	3.956024E-06
6.673287E+03	2.013719E-04	3.951590E-06
6.683217E+03	2.008306E-04	3.948380E-06
6.693148E+03	2.002908E-04	3.945230E-06
6.703078E+03	1.998183E-04	3.943439E-06
6.713009E+03	1.993537E-04	3.941835E-06
6.722939E+03	1.989311E-04	3.941094E-06
6.732870E+03	1.985839E-04	3.941883E-06
6.742800E+03	1.982526E-04	3.943022E-06
6.752731E+03	1.979702E-04	3.945171E-06
6.762661E+03	1.977695E-04	3.948989E-06
6.772592E+03	1.975904E-04	3.953281E-06
6.782522E+03	1.974652E-04	3.958694E-06
6.792453E+03	1.974259E-04	3.965878E-06
6.802383E+03	1.974118E-04	3.973617E-06
6.812314E+03	1.974543E-04	3.982550E-06
6.822244E+03	1.975849E-04	3.993314E-06
6.832175E+03	1.977419E-04	4.004675E-06
6.842105E+03	1.979563E-04	4.017259E-06
6.852036E+03	1.982276E-04	4.031066E-06
6.861966E+03	1.985866E-04	4.046725E-06
6.871897E+03	1.989703E-04	4.062964E-06
6.881827E+03	1.994087E-04	4.080397E-06
6.891758E+03	1.999007E-04	4.099007E-06
6.901688E+03	2.004761E-04	4.119412E-06
6.911619E+03	2.010704E-04	4.140297E-06
6.921549E+03	2.017132E-04	4.162269E-06
6.931480E+03	2.024021E-04	4.185288E-06
6.941410E+03	2.031346E-04	4.209308E-06
6.951341E+03	2.039401E-04	4.234942E-06
6.961271E+03	2.047520E-04	4.260812E-06
6.971202E+03	2.055989E-04	4.287518E-06
6.981132E+03	2.064775E-04	4.314994E-06
6.991063E+03	2.073843E-04	4.343169E-06
7.000993E+03	2.083156E-04	4.371969E-06
7.010924E+03	2.092675E-04	4.401313E-06
7.020854E+03	2.102687E-04	4.431814E-06
7.030785E+03	2.112495E-04	4.462000E-06
7.040715E+03	2.122382E-04	4.492469E-06
7.050645E+03	2.132304E-04	4.523128E-06
7.060576E+03	2.142215E-04	4.553878E-06
7.070506E+03	2.152068E-04	4.584621E-06
7.080437E+03	2.161817E-04	4.615256E-06
7.090367E+03	2.171415E-04	4.645680E-06
7.100298E+03	2.180815E-04	4.675789E-06
7.110228E+03	2.189970E-04	4.705482E-06
7.120159E+03	2.198834E-04	4.734654E-06
7.130089E+03	2.207364E-04	4.763206E-06
7.140020E+03	2.215514E-04	4.791037E-06
7.149950E+03	2.223243E-04	4.818051E-06
7.159881E+03	2.230513E-04	4.844156E-06
7.169811E+03	2.237283E-04	4.869262E-06
7.179742E+03	2.243521E-04	4.893287E-06
7.189672E+03	2.249193E-04	4.916152E-06
7.199603E+03	2.254271E-04	4.937785E-06
7.209533E+03	2.258729E-04	4.958122E-06
7.219464E+03	2.262546E-04	4.977105E-06
7.229394E+03	2.265704E-04	4.994686E-06
7.239325E+03	2.268188E-04	5.010824E-06
7.249255E+03	2.269989E-04	5.025488E-06
7.259186E+03	2.271102E-04	5.038657E-06
7.269116E+03	2.271526E-04	5.050316E-06
7.279047E+03	2.271262E-04	5.060463E-06
7.288977E+03	2.270321E-04	5.069105E-06
7.298908E+03	2.268356E-04	5.075462E-06
7.308838E+03	2.266096E-04	5.081151E-06
7.318769E+03	2.263206E-04	5.085414E-06
7.328699E+03	2.259708E-04	5.088294E-06
7.338630E+03	2.255631E-04	5.089844E-06
7.348560E+03	2.251004E-04	5.090125E-06
7.358491E+03	2.245863E-04	5.089204E-06
7.368421E+03	2.239890E-04	5.086358E-06
7.378352E+03	2.233831E-04	5.083268E-06
7.388282E+03	2.227373E-04	5.079221E-06
7.398213E+03	2.220559E-04	5.074309E-06
7.408143E+03	2.213434E-04	5.068628E-06
7.418073E+03	2.205695E-04	5.061480E-06
7.428004E+03	2.198083E-04	5.054560E-06
7.437934E+03	2.190297E-04	5.047173E-06
7.447865E+03	2.182381E-04	5.039422E-06
7.457795E+03	2.174039E-04	5.030617E-06
7.467726E+03	2.166000E-04	5.022445E-06
7.477656E+03	2.157965E-04	5.014211E-06
7.487587E+03	2.149974E-04	5.006012E-06
7.497517E+03	2.141728E-04	4.997149E-06
7.507448E+03	2.133941E-04	4.989288E-06
7.517378E+03	2.126307E-04	4.981719E-06
7.527309E+03	2.118522E-04	4.973730E-06
7.537239E+03	2.111284E-04	4.966958E-06
7.547170E+03	2.104279E-04	4.960672E-06
7.557100E+03	2.097195E-04	4.954138E-06
7.567031E+03	2.090710E-04	4.948955E-06
7.576961E+03	2.084500E-04	4.944366E-06
7.586892E+03	2.078240E-04	4.939603E-06
7.596822E+03	2.072590E-04	4.936232E-06
7.606753E+03	2.067216E-04	4.933468E-06
7.616683E+03	2.061788E-04	4.930521E-06
7.626614E+03	2.056949E-04	4.928934E-06
7.636544E+03	2.052039E-04	4.927129E-06
7.646475E+03	2.047696E-04	4.926638E-06
7.656405E+03	2.043582E-04	4.926657E-06
7.666336E+03	2.039362E-04	4.926374E-06
7.676266E+03	2.035668E-04	4.927321E-06
7.686197E+03	2.031841E-04	4.927908E-06
7.696127E+03	2.028513E-04	4.929664E-06
7.706058E+03	2.025028E-04	4.930999E-06
