#wls	flux	fluxerr
1.588878E+03	2.676397E-07	8.668262E-09
1.628600E+03	2.728836E-07	8.822809E-09
1.668322E+03	2.743422E-07	8.854216E-09
1.708044E+03	2.719332E-07	8.760469E-09
1.747766E+03	2.654733E-07	8.536358E-09
1.787488E+03	2.543708E-07	8.163651E-09
1.827210E+03	2.382546E-07	7.631361E-09
1.866931E+03	2.169761E-07	6.935754E-09
1.906653E+03	1.909605E-07	6.091492E-09
1.946375E+03	1.617950E-07	5.150154E-09
1.986097E+03	1.321109E-07	4.196089E-09
2.025819E+03	1.054348E-07	3.341306E-09
2.065541E+03	8.493310E-08	2.685412E-09
2.105263E+03	7.248358E-08	2.286386E-09
2.144985E+03	6.850667E-08	2.155722E-09
2.184707E+03	7.283720E-08	2.286316E-09
2.224429E+03	8.524313E-08	2.668937E-09
2.264151E+03	1.054091E-07	3.291739E-09
2.303873E+03	1.325999E-07	4.129812E-09
2.343595E+03	1.656030E-07	5.143585E-09
2.383317E+03	2.030325E-07	6.288462E-09
2.423039E+03	2.435800E-07	7.522661E-09
2.462761E+03	2.863094E-07	8.816285E-09
2.502483E+03	3.306926E-07	1.015227E-08
2.542205E+03	3.766368E-07	1.152705E-08
2.581927E+03	4.242320E-07	1.294264E-08
2.621648E+03	4.737653E-07	1.440700E-08
2.661370E+03	5.260333E-07	1.594339E-08
2.701092E+03	5.814927E-07	1.756443E-08
2.740814E+03	6.410726E-07	1.929676E-08
2.780536E+03	7.058923E-07	2.117226E-08
2.820258E+03	7.770243E-07	2.322087E-08
2.859980E+03	8.558451E-07	2.548105E-08
2.899702E+03	9.439804E-07	2.799792E-08
2.939424E+03	1.043540E-06	3.083006E-08
2.979146E+03	1.156493E-06	3.403080E-08
2.989076E+03	1.187264E-06	3.490087E-08
2.999007E+03	1.219107E-06	3.580040E-08
3.008937E+03	1.251859E-06	3.672454E-08
3.018868E+03	1.286079E-06	3.768955E-08
3.028798E+03	1.321931E-06	3.870009E-08
3.038729E+03	1.359594E-06	3.976124E-08
3.048659E+03	1.399533E-06	4.088638E-08
3.058590E+03	1.441538E-06	4.206916E-08
3.068520E+03	1.485629E-06	4.330999E-08
3.078451E+03	1.531576E-06	4.460190E-08
3.088381E+03	1.579921E-06	4.596054E-08
3.098312E+03	1.630454E-06	4.737949E-08
3.108242E+03	1.683218E-06	4.885982E-08
3.118173E+03	1.738265E-06	5.040279E-08
3.128103E+03	1.795347E-06	5.200098E-08
3.138034E+03	1.855126E-06	5.367330E-08
3.147964E+03	1.917375E-06	5.541296E-08
3.157895E+03	1.982171E-06	5.722185E-08
3.167825E+03	2.049593E-06	5.910206E-08
3.177756E+03	2.119731E-06	6.105584E-08
3.187686E+03	2.192310E-06	6.307499E-08
3.197617E+03	2.268158E-06	6.518306E-08
3.207547E+03	2.347027E-06	6.737256E-08
3.217478E+03	2.429032E-06	6.964648E-08
3.227408E+03	2.514299E-06	7.200805E-08
3.237339E+03	2.602959E-06	7.446067E-08
3.247269E+03	2.695150E-06	7.700795E-08
3.257200E+03	2.791023E-06	7.965375E-08
3.267130E+03	2.890732E-06	8.240211E-08
3.277061E+03	2.994445E-06	8.525731E-08
3.286991E+03	3.102335E-06	8.822390E-08
3.296922E+03	3.214587E-06	9.130661E-08
3.306852E+03	3.331394E-06	9.451044E-08
3.316783E+03	3.452381E-06	9.782427E-08
3.326713E+03	3.578898E-06	1.012858E-07
3.336643E+03	3.710609E-06	1.048849E-07
3.346574E+03	3.847750E-06	1.086277E-07
3.356504E+03	3.990563E-06	1.125203E-07
3.366435E+03	4.139306E-06	1.165695E-07
3.376365E+03	4.294245E-06	1.207819E-07
3.386296E+03	4.455657E-06	1.251646E-07
3.396226E+03	4.624604E-06	1.297467E-07
3.406157E+03	4.799869E-06	1.344933E-07
3.416087E+03	4.982511E-06	1.394332E-07
3.426018E+03	5.172852E-06	1.445746E-07
3.435948E+03	5.371226E-06	1.499258E-07
3.445879E+03	5.577979E-06	1.554956E-07
3.455809E+03	5.793468E-06	1.612929E-07
3.465740E+03	6.018060E-06	1.673270E-07
3.475670E+03	6.252134E-06	1.736072E-07
3.485601E+03	6.496082E-06	1.801433E-07
3.495531E+03	6.750294E-06	1.869449E-07
3.505462E+03	7.015182E-06	1.940223E-07
3.515392E+03	7.291169E-06	2.013857E-07
3.525323E+03	7.578670E-06	2.090453E-07
3.535253E+03	7.878117E-06	2.170116E-07
3.545184E+03	8.191311E-06	2.253328E-07
3.555114E+03	8.516028E-06	2.339460E-07
3.565045E+03	8.854030E-06	2.428982E-07
3.574975E+03	9.205758E-06	2.521999E-07
3.584906E+03	9.571673E-06	2.618619E-07
3.594836E+03	9.952217E-06	2.718946E-07
3.604767E+03	1.034784E-05	2.823087E-07
3.614697E+03	1.075900E-05	2.931143E-07
3.624628E+03	1.118613E-05	3.043217E-07
3.634558E+03	1.163158E-05	3.159926E-07
3.644489E+03	1.209203E-05	3.280345E-07
3.654419E+03	1.256971E-05	3.405063E-07
3.664350E+03	1.306503E-05	3.534168E-07
3.674280E+03	1.357839E-05	3.667742E-07
3.684211E+03	1.411013E-05	3.805860E-07
3.694141E+03	1.466060E-05	3.948587E-07
3.704071E+03	1.523012E-05	4.095990E-07
3.714002E+03	1.582157E-05	4.248817E-07
3.723932E+03	1.643013E-05	4.405744E-07
3.733863E+03	1.705850E-05	4.567478E-07
3.743793E+03	1.770691E-05	4.734050E-07
3.753724E+03	1.837550E-05	4.905472E-07
3.763654E+03	1.906438E-05	5.081750E-07
3.773585E+03	1.977365E-05	5.262879E-07
3.783515E+03	2.050331E-05	5.448838E-07
3.793446E+03	2.125684E-05	5.640521E-07
3.803376E+03	2.202734E-05	5.836072E-07
3.813307E+03	2.281807E-05	6.036325E-07
3.823237E+03	2.362885E-05	6.241210E-07
3.833168E+03	2.445949E-05	6.450646E-07
3.843098E+03	2.530971E-05	6.664537E-07
3.853029E+03	2.617920E-05	6.882776E-07
3.862959E+03	2.706760E-05	7.105238E-07
3.872890E+03	2.797905E-05	7.332985E-07
3.882820E+03	2.890411E-05	7.563517E-07
3.892751E+03	2.984671E-05	7.797837E-07
3.902681E+03	3.080625E-05	8.035771E-07
3.912612E+03	3.178215E-05	8.277142E-07
3.922542E+03	3.277377E-05	8.521759E-07
3.932473E+03	3.378042E-05	8.769425E-07
3.942403E+03	3.480140E-05	9.019932E-07
3.952334E+03	3.583595E-05	9.273068E-07
3.962264E+03	3.688928E-05	9.530158E-07
3.972195E+03	3.794880E-05	9.787931E-07
3.982125E+03	3.901952E-05	1.004766E-06
3.992056E+03	4.010060E-05	1.030913E-06
4.001986E+03	4.119121E-05	1.057209E-06
4.011917E+03	4.229050E-05	1.083633E-06
4.021847E+03	4.339764E-05	1.110160E-06
4.031778E+03	4.451178E-05	1.136770E-06
4.041708E+03	4.563211E-05	1.163439E-06
4.051639E+03	4.675780E-05	1.190146E-06
4.061569E+03	4.788806E-05	1.216870E-06
4.071500E+03	4.902212E-05	1.243591E-06
4.081430E+03	5.015923E-05	1.270288E-06
4.091360E+03	5.129869E-05	1.296945E-06
4.101291E+03	5.243980E-05	1.323542E-06
4.111221E+03	5.358194E-05	1.350064E-06
4.121152E+03	5.472448E-05	1.376494E-06
4.131082E+03	5.586688E-05	1.402820E-06
4.141013E+03	5.700862E-05	1.429028E-06
4.150943E+03	5.814922E-05	1.455105E-06
4.160874E+03	5.928830E-05	1.481043E-06
4.170804E+03	6.042547E-05	1.506832E-06
4.180735E+03	6.156041E-05	1.532465E-06
4.190665E+03	6.269287E-05	1.557935E-06
4.200596E+03	6.382265E-05	1.583237E-06
4.210526E+03	6.494958E-05	1.608368E-06
4.220457E+03	6.607355E-05	1.633326E-06
4.230387E+03	6.719453E-05	1.658110E-06
4.240318E+03	6.831248E-05	1.682720E-06
4.250248E+03	6.942744E-05	1.707157E-06
4.260179E+03	7.052822E-05	1.731147E-06
4.270109E+03	7.163729E-05	1.755242E-06
4.280040E+03	7.274368E-05	1.779173E-06
4.289970E+03	7.384754E-05	1.802945E-06
4.299901E+03	7.494900E-05	1.826561E-06
4.309831E+03	7.604822E-05	1.850025E-06
4.319762E+03	7.714531E-05	1.873340E-06
4.329692E+03	7.822791E-05	1.896208E-06
4.339623E+03	7.932081E-05	1.919229E-06
4.349553E+03	8.041166E-05	1.942106E-06
4.359484E+03	8.150035E-05	1.964835E-06
4.369414E+03	8.257348E-05	1.987095E-06
4.379345E+03	8.365675E-05	2.009505E-06
4.389275E+03	8.473673E-05	2.031742E-06
4.399206E+03	8.581281E-05	2.053793E-06
4.409136E+03	8.687050E-05	2.075312E-06
4.419067E+03	8.793647E-05	2.096937E-06
4.428997E+03	8.899627E-05	2.118324E-06
4.438928E+03	9.004903E-05	2.139454E-06
4.448858E+03	9.107939E-05	2.159963E-06
4.458788E+03	9.211516E-05	2.180512E-06
4.468719E+03	9.312636E-05	2.200393E-06
4.478649E+03	9.414142E-05	2.220279E-06
4.488580E+03	9.514481E-05	2.239803E-06
4.498510E+03	9.612045E-05	2.258590E-06
4.508441E+03	9.709774E-05	2.277333E-06
4.518371E+03	9.806084E-05	2.295660E-06
4.528302E+03	9.899333E-05	2.313191E-06
4.538232E+03	9.992572E-05	2.330639E-06
4.548163E+03	1.008259E-04	2.347259E-06
4.558093E+03	1.017252E-04	2.363780E-06
4.568024E+03	1.025911E-04	2.379450E-06
4.577954E+03	1.034555E-04	2.395012E-06
4.587885E+03	1.042857E-04	2.409711E-06
4.597815E+03	1.051143E-04	2.424301E-06
4.607746E+03	1.059083E-04	2.438024E-06
4.617676E+03	1.067010E-04	2.451649E-06
4.627607E+03	1.074590E-04	2.464411E-06
4.637537E+03	1.081994E-04	2.476705E-06
4.647468E+03	1.089396E-04	2.488931E-06
4.657398E+03	1.096459E-04	2.500323E-06
4.667329E+03	1.103533E-04	2.511678E-06
4.677259E+03	1.110278E-04	2.522227E-06
4.687190E+03	1.116875E-04	2.532380E-06
4.697120E+03	1.123506E-04	2.542558E-06
4.707051E+03	1.129830E-04	2.551984E-06
4.716981E+03	1.136031E-04	2.561078E-06
4.726912E+03	1.142119E-04	2.569864E-06
4.736842E+03	1.148283E-04	2.578771E-06
4.746773E+03	1.154175E-04	2.587015E-06
4.756703E+03	1.159984E-04	2.595026E-06
4.766634E+03	1.165722E-04	2.602826E-06
4.776564E+03	1.171581E-04	2.610850E-06
4.786495E+03	1.177208E-04	2.618306E-06
4.796425E+03	1.182794E-04	2.625626E-06
4.806356E+03	1.188350E-04	2.632831E-06
4.816286E+03	1.193885E-04	2.639946E-06
4.826216E+03	1.199410E-04	2.646990E-06
4.836147E+03	1.204933E-04	2.653984E-06
4.846077E+03	1.210462E-04	2.660946E-06
4.856008E+03	1.216006E-04	2.667894E-06
4.865938E+03	1.221571E-04	2.674844E-06
4.875869E+03	1.227355E-04	2.682229E-06
4.885799E+03	1.232984E-04	2.689224E-06
4.895730E+03	1.238458E-04	2.695839E-06
4.905660E+03	1.244168E-04	2.702922E-06
4.915591E+03	1.249926E-04	2.710063E-06
4.925521E+03	1.255735E-04	2.717267E-06
4.935452E+03	1.261596E-04	2.724538E-06
4.945382E+03	1.267512E-04	2.731881E-06
4.955313E+03	1.273483E-04	2.739297E-06
4.965243E+03	1.279510E-04	2.746784E-06
4.975174E+03	1.285592E-04	2.754344E-06
4.985104E+03	1.291728E-04	2.761971E-06
4.995035E+03	1.297714E-04	2.769233E-06
5.004965E+03	1.303951E-04	2.776983E-06
5.014896E+03	1.310236E-04	2.784787E-06
5.024826E+03	1.316564E-04	2.792636E-06
5.034757E+03	1.322932E-04	2.800522E-06
5.044687E+03	1.329129E-04	2.808001E-06
5.054618E+03	1.335562E-04	2.815932E-06
5.064548E+03	1.342021E-04	2.823872E-06
5.074479E+03	1.348291E-04	2.831368E-06
5.084409E+03	1.354783E-04	2.839288E-06
5.094340E+03	1.361284E-04	2.847180E-06
5.104270E+03	1.367576E-04	2.854589E-06
5.114201E+03	1.374074E-04	2.862388E-06
5.124131E+03	1.380348E-04	2.869677E-06
5.134062E+03	1.386818E-04	2.877331E-06
5.143992E+03	1.393263E-04	2.884895E-06
5.153923E+03	1.399462E-04	2.891908E-06
5.163853E+03	1.405840E-04	2.899251E-06
5.173784E+03	1.411956E-04	2.906018E-06
5.183714E+03	1.418240E-04	2.913093E-06
5.193644E+03	1.424248E-04	2.919567E-06
5.203575E+03	1.430192E-04	2.925877E-06
5.213505E+03	1.436288E-04	2.932468E-06
5.223436E+03	1.442089E-04	2.938424E-06
5.233366E+03	1.448033E-04	2.944643E-06
5.243297E+03	1.453670E-04	2.950210E-06
5.253227E+03	1.459217E-04	2.955571E-06
5.263158E+03	1.464897E-04	2.961176E-06
5.273088E+03	1.470255E-04	2.966107E-06
5.283019E+03	1.475512E-04	2.970816E-06
5.292949E+03	1.480893E-04	2.975759E-06
5.302880E+03	1.485941E-04	2.980014E-06
5.312810E+03	1.490881E-04	2.984039E-06
5.322741E+03	1.495710E-04	2.987832E-06
5.332671E+03	1.500661E-04	2.991857E-06
5.342602E+03	1.505269E-04	2.995192E-06
5.352532E+03	1.509766E-04	2.998300E-06
5.362463E+03	1.514152E-04	3.001184E-06
5.372393E+03	1.518428E-04	3.003851E-06
5.382324E+03	1.522596E-04	3.006305E-06
5.392254E+03	1.526659E-04	3.008556E-06
5.402185E+03	1.530856E-04	3.011075E-06
5.412115E+03	1.534719E-04	3.012945E-06
5.422046E+03	1.538489E-04	3.014641E-06
5.431976E+03	1.542170E-04	3.016175E-06
5.441907E+03	1.545768E-04	3.017562E-06
5.451837E+03	1.549288E-04	3.018813E-06
5.461768E+03	1.552735E-04	3.019940E-06
5.471698E+03	1.556111E-04	3.020950E-06
5.481629E+03	1.559419E-04	3.021849E-06
5.491559E+03	1.562662E-04	3.022643E-06
5.501490E+03	1.565600E-04	3.022875E-06
5.511420E+03	1.568720E-04	3.023482E-06
5.521351E+03	1.571783E-04	3.024010E-06
5.531281E+03	1.574797E-04	3.024469E-06
5.541212E+03	1.577765E-04	3.024874E-06
5.551142E+03	1.580697E-04	3.025238E-06
5.561072E+03	1.583597E-04	3.025577E-06
5.571003E+03	1.586232E-04	3.025445E-06
5.580933E+03	1.589097E-04	3.025788E-06
5.590864E+03	1.591958E-04	3.026161E-06
5.600794E+03	1.594826E-04	3.026584E-06
5.610725E+03	1.597464E-04	3.026614E-06
5.620655E+03	1.600374E-04	3.027200E-06
5.630586E+03	1.603321E-04	3.027900E-06
5.640516E+03	1.606317E-04	3.028735E-06
5.650447E+03	1.609125E-04	3.029260E-06
5.660377E+03	1.612249E-04	3.030429E-06
5.670308E+03	1.615205E-04	3.031330E-06
5.680238E+03	1.618500E-04	3.032914E-06
5.690169E+03	1.621895E-04	3.034736E-06
5.700099E+03	1.625151E-04	3.036348E-06
5.710030E+03	1.628774E-04	3.038699E-06
5.719960E+03	1.632275E-04	3.040874E-06
5.729891E+03	1.636161E-04	3.043822E-06
5.739821E+03	1.639939E-04	3.046623E-06
5.749752E+03	1.644117E-04	3.050225E-06
5.759682E+03	1.648199E-04	3.053706E-06
5.769613E+03	1.652694E-04	3.058012E-06
5.779543E+03	1.657103E-04	3.062218E-06
5.789474E+03	1.661937E-04	3.067271E-06
5.799404E+03	1.666691E-04	3.072240E-06
5.809335E+03	1.671881E-04	3.078076E-06
5.819265E+03	1.676997E-04	3.083842E-06
5.829196E+03	1.682557E-04	3.090493E-06
5.839126E+03	1.688049E-04	3.097087E-06
5.849057E+03	1.693733E-04	3.104106E-06
5.858987E+03	1.699874E-04	3.112034E-06
5.868918E+03	1.705954E-04	3.119925E-06
5.878848E+03	1.712237E-04	3.128265E-06
5.888779E+03	1.718991E-04	3.137543E-06
5.898709E+03	1.725692E-04	3.146808E-06
5.908640E+03	1.732610E-04	3.156548E-06
5.918570E+03	1.739748E-04	3.166777E-06
5.928500E+03	1.747378E-04	3.177990E-06
5.938431E+03	1.754974E-04	3.189228E-06
5.948361E+03	1.762805E-04	3.200990E-06
5.958292E+03	1.770879E-04	3.213287E-06
5.968222E+03	1.779201E-04	3.226134E-06
5.978153E+03	1.788052E-04	3.240040E-06
5.988083E+03	1.796889E-04	3.254026E-06
5.998014E+03	1.805991E-04	3.268600E-06
6.007944E+03	1.815364E-04	3.283774E-06
6.017875E+03	1.825010E-04	3.299558E-06
6.027805E+03	1.834933E-04	3.315960E-06
6.037736E+03	1.845135E-04	3.332989E-06
6.047666E+03	1.855617E-04	3.350648E-06
6.057597E+03	1.866377E-04	3.368939E-06
6.067527E+03	1.877413E-04	3.387862E-06
6.077458E+03	1.888719E-04	3.407410E-06
6.087388E+03	1.900579E-04	3.428100E-06
6.097319E+03	1.912402E-04	3.448872E-06
6.107249E+03	1.924466E-04	3.470228E-06
6.117180E+03	1.936457E-04	3.491611E-06
6.127110E+03	1.948949E-04	3.514057E-06
6.137041E+03	1.961623E-04	3.537000E-06
6.146971E+03	1.974455E-04	3.560399E-06
6.156902E+03	1.987414E-04	3.584206E-06
6.166832E+03	2.000470E-04	3.608368E-06
6.176763E+03	2.013585E-04	3.632827E-06
6.186693E+03	2.026720E-04	3.657516E-06
6.196624E+03	2.039833E-04	3.682366E-06
6.206554E+03	2.052881E-04	3.707300E-06
6.216485E+03	2.065816E-04	3.732235E-06
6.226415E+03	2.078271E-04	3.756508E-06
6.236346E+03	2.090833E-04	3.781179E-06
6.246276E+03	2.103133E-04	3.805582E-06
6.256207E+03	2.115119E-04	3.829623E-06
6.266137E+03	2.126739E-04	3.853207E-06
6.276068E+03	2.137941E-04	3.876238E-06
6.285998E+03	2.148343E-04	3.898024E-06
6.295929E+03	2.158554E-04	3.919666E-06
6.305859E+03	2.168198E-04	3.940478E-06
6.315789E+03	2.177229E-04	3.960376E-06
6.325720E+03	2.185272E-04	3.978671E-06
6.335650E+03	2.192955E-04	3.996506E-06
6.345581E+03	2.199911E-04	4.013205E-06
6.355511E+03	2.205773E-04	4.028094E-06
6.365442E+03	2.211192E-04	4.042354E-06
6.375372E+03	2.215811E-04	4.055329E-06
6.385303E+03	2.219275E-04	4.066362E-06
6.395233E+03	2.222257E-04	4.076678E-06
6.405164E+03	2.224413E-04	4.085640E-06
6.415094E+03	2.225407E-04	4.092621E-06
6.425025E+03	2.225928E-04	4.098881E-06
6.434955E+03	2.225650E-04	4.103813E-06
6.444886E+03	2.224252E-04	4.106813E-06
6.454816E+03	2.222440E-04	4.109177E-06
6.464747E+03	2.219561E-04	4.109691E-06
6.474677E+03	2.216331E-04	4.109669E-06
6.484608E+03	2.212108E-04	4.107913E-06
6.494538E+03	2.207611E-04	4.105751E-06
6.504469E+03	2.202208E-04	4.101998E-06
6.514399E+03	2.196623E-04	4.097993E-06
6.524330E+03	2.190231E-04	4.092564E-06
6.534260E+03	2.183756E-04	4.087058E-06
6.544191E+03	2.176581E-04	4.080310E-06
6.554121E+03	2.169430E-04	4.073671E-06
6.564052E+03	2.161690E-04	4.065987E-06
6.573982E+03	2.154082E-04	4.058604E-06
6.583913E+03	2.145998E-04	4.050375E-06
6.593843E+03	2.138154E-04	4.042645E-06
6.603774E+03	2.129947E-04	4.034269E-06
6.613704E+03	2.122084E-04	4.026585E-06
6.623635E+03	2.113965E-04	4.018451E-06
6.633565E+03	2.105969E-04	4.010581E-06
6.643496E+03	2.098465E-04	4.003681E-06
6.653426E+03	2.090856E-04	3.996610E-06
6.663357E+03	2.083829E-04	3.990681E-06
6.673287E+03	2.076787E-04	3.984750E-06
6.683217E+03	2.070092E-04	3.979511E-06
6.693148E+03	2.064099E-04	3.975649E-06
6.703078E+03	2.058209E-04	3.972013E-06
6.713009E+03	2.052773E-04	3.969282E-06
6.722939E+03	2.048138E-04	3.968129E-06
6.732870E+03	2.043701E-04	3.967391E-06
6.742800E+03	2.039804E-04	3.967734E-06
6.752731E+03	2.036470E-04	3.969206E-06
6.762661E+03	2.034032E-04	3.972465E-06
6.772592E+03	2.031884E-04	3.976328E-06
6.782522E+03	2.030352E-04	3.981442E-06
6.792453E+03	2.029451E-04	3.987838E-06
6.802383E+03	2.029502E-04	3.996156E-06
6.812314E+03	2.029889E-04	4.005190E-06
6.822244E+03	2.030928E-04	4.015569E-06
6.832175E+03	2.032623E-04	4.027305E-06
6.842105E+03	2.034971E-04	4.040402E-06
6.852036E+03	2.038286E-04	4.055486E-06
6.861966E+03	2.041932E-04	4.071307E-06
6.871897E+03	2.046216E-04	4.088477E-06
6.881827E+03	2.051126E-04	4.106980E-06
6.891758E+03	2.056648E-04	4.126795E-06
6.901688E+03	2.062767E-04	4.147898E-06
6.911619E+03	2.069780E-04	4.170897E-06
6.921549E+03	2.077031E-04	4.194475E-06
6.931480E+03	2.084812E-04	4.219226E-06
6.941410E+03	2.093097E-04	4.245103E-06
6.951341E+03	2.101855E-04	4.272049E-06
6.961271E+03	2.111054E-04	4.300006E-06
6.971202E+03	2.120658E-04	4.328906E-06
6.981132E+03	2.130632E-04	4.358678E-06
6.991063E+03	2.140935E-04	4.389245E-06
7.000993E+03	2.151524E-04	4.420525E-06
7.010924E+03	2.162357E-04	4.452429E-06
7.020854E+03	2.173386E-04	4.484866E-06
7.030785E+03	2.184564E-04	4.517738E-06
7.040715E+03	2.195841E-04	4.550945E-06
7.050645E+03	2.207167E-04	4.584379E-06
7.060576E+03	2.218488E-04	4.617935E-06
7.070506E+03	2.229752E-04	4.651499E-06
7.080437E+03	2.240906E-04	4.684960E-06
7.090367E+03	2.251894E-04	4.718200E-06
7.100298E+03	2.262663E-04	4.751103E-06
7.110228E+03	2.273158E-04	4.783554E-06
7.120159E+03	2.283328E-04	4.815435E-06
7.130089E+03	2.293120E-04	4.846633E-06
7.140020E+03	2.302484E-04	4.877035E-06
7.149950E+03	2.311370E-04	4.906530E-06
7.159881E+03	2.319732E-04	4.935013E-06
7.169811E+03	2.327527E-04	4.962382E-06
7.179742E+03	2.334352E-04	4.987772E-06
7.189672E+03	2.340892E-04	5.012631E-06
7.199603E+03	2.346753E-04	5.036112E-06
7.209533E+03	2.351904E-04	5.058139E-06
7.219464E+03	2.356321E-04	5.078648E-06
7.229394E+03	2.359983E-04	5.097583E-06
7.239325E+03	2.362874E-04	5.114899E-06
7.249255E+03	2.364615E-04	5.129765E-06
7.259186E+03	2.365935E-04	5.143743E-06
7.269116E+03	2.366465E-04	5.156029E-06
7.279047E+03	2.366209E-04	5.166619E-06
7.288977E+03	2.365178E-04	5.175522E-06
7.298908E+03	2.363019E-04	5.181955E-06
7.308838E+03	2.360483E-04	5.187555E-06
7.318769E+03	2.357230E-04	5.191562E-06
7.328699E+03	2.353286E-04	5.194026E-06
7.338630E+03	2.348321E-04	5.194205E-06
7.348560E+03	2.343099E-04	5.193781E-06
7.358491E+03	2.337297E-04	5.192029E-06
7.368421E+03	2.330595E-04	5.188230E-06
7.378352E+03	2.323765E-04	5.184091E-06
7.388282E+03	2.316491E-04	5.178906E-06
7.398213E+03	2.308465E-04	5.171977E-06
7.408143E+03	2.300457E-04	5.165024E-06
7.418073E+03	2.292160E-04	5.157354E-06
7.428004E+03	2.283273E-04	5.148283E-06
7.437934E+03	2.274560E-04	5.139529E-06
7.447865E+03	2.265717E-04	5.130409E-06
7.457795E+03	2.256445E-04	5.120239E-06
7.467726E+03	2.247499E-04	5.110731E-06
7.477656E+03	2.238575E-04	5.101196E-06
7.487587E+03	2.229372E-04	5.090948E-06
7.497517E+03	2.220629E-04	5.081675E-06
7.507448E+03	2.211697E-04	5.071890E-06
7.517378E+03	2.203300E-04	5.063261E-06
7.527309E+03	2.194786E-04	5.054287E-06
7.537239E+03	2.186869E-04	5.046617E-06
7.547170E+03	2.178890E-04	5.038734E-06
7.557100E+03	2.171550E-04	5.032260E-06
7.567031E+03	2.164183E-04	5.025659E-06
7.576961E+03	2.157476E-04	5.020525E-06
7.586892E+03	2.150757E-04	5.015302E-06
7.596822E+03	2.144699E-04	5.011560E-06
7.606753E+03	2.138625E-04	5.007726E-06
7.616683E+03	2.133198E-04	5.005350E-06
7.626614E+03	2.127739E-04	5.002848E-06
7.636544E+03	2.122900E-04	5.001754E-06
7.646475E+03	2.118004E-04	5.000474E-06
7.656405E+03	2.113696E-04	5.000539E-06
7.666336E+03	2.109299E-04	5.000348E-06
7.676266E+03	2.105457E-04	5.001427E-06
7.686197E+03	2.101492E-04	5.002175E-06
7.696127E+03	2.097718E-04	5.003335E-06
7.706058E+03	2.094447E-04	5.005655E-06
