#wls	flux	fluxerr
1.600000E+03	1.621748E-16	9.583450E-17
1.640000E+03	1.708958E-16	9.924076E-17
1.680000E+03	1.800146E-16	1.027234E-16
1.720000E+03	1.894863E-16	1.062675E-16
1.760000E+03	1.992488E-16	1.098558E-16
1.800000E+03	2.092574E-16	1.134882E-16
1.840000E+03	2.193432E-16	1.171043E-16
1.880000E+03	2.294610E-16	1.207189E-16
1.920000E+03	2.394806E-16	1.243060E-16
1.960000E+03	2.492157E-16	1.278150E-16
2.000000E+03	2.585078E-16	1.312118E-16
2.040000E+03	2.672394E-16	1.344812E-16
2.080000E+03	2.752103E-16	1.375611E-16
2.120000E+03	2.823661E-16	1.404546E-16
2.160000E+03	2.884899E-16	1.430732E-16
2.200000E+03	2.935273E-16	1.453979E-16
2.240000E+03	2.974100E-16	1.473901E-16
2.280000E+03	3.001047E-16	1.490169E-16
2.320000E+03	3.016152E-16	1.502534E-16
2.360000E+03	3.019812E-16	1.510847E-16
2.400000E+03	3.013225E-16	1.515300E-16
2.440000E+03	2.996915E-16	1.515722E-16
2.480000E+03	2.972102E-16	1.512289E-16
2.520000E+03	2.940602E-16	1.505497E-16
2.560000E+03	2.903826E-16	1.495679E-16
2.600000E+03	2.862762E-16	1.482995E-16
2.640000E+03	2.819223E-16	1.468084E-16
2.680000E+03	2.774880E-16	1.451573E-16
2.720000E+03	2.730039E-16	1.433427E-16
2.760000E+03	2.686091E-16	1.414225E-16
2.800000E+03	2.644220E-16	1.394481E-16
2.840000E+03	2.604668E-16	1.374248E-16
2.880000E+03	2.567911E-16	1.353728E-16
2.920000E+03	2.534620E-16	1.333250E-16
2.960000E+03	2.504955E-16	1.312893E-16
3.000000E+03	2.478633E-16	1.292515E-16
3.010000E+03	2.472584E-16	1.287425E-16
3.020000E+03	2.466680E-16	1.282303E-16
3.030000E+03	2.461247E-16	1.277317E-16
3.040000E+03	2.455955E-16	1.272298E-16
3.050000E+03	2.450802E-16	1.267245E-16
3.060000E+03	2.445787E-16	1.262158E-16
3.070000E+03	2.441229E-16	1.257203E-16
3.080000E+03	2.436804E-16	1.252213E-16
3.090000E+03	2.432510E-16	1.247188E-16
3.100000E+03	2.428347E-16	1.242127E-16
3.110000E+03	2.424624E-16	1.237192E-16
3.120000E+03	2.420713E-16	1.232062E-16
3.130000E+03	2.417547E-16	1.227213E-16
3.140000E+03	2.414191E-16	1.222169E-16
3.150000E+03	2.410953E-16	1.217089E-16
3.160000E+03	2.408138E-16	1.212128E-16
3.170000E+03	2.405437E-16	1.207131E-16
3.180000E+03	2.403151E-16	1.202248E-16
3.190000E+03	2.400673E-16	1.197178E-16
3.200000E+03	2.398605E-16	1.192222E-16
3.210000E+03	2.396645E-16	1.187231E-16
3.220000E+03	2.395090E-16	1.182351E-16
3.230000E+03	2.393344E-16	1.177290E-16
3.240000E+03	2.392001E-16	1.172342E-16
3.250000E+03	2.390765E-16	1.167360E-16
3.260000E+03	2.389928E-16	1.162490E-16
3.270000E+03	2.388908E-16	1.157448E-16
3.280000E+03	2.388289E-16	1.152519E-16
3.290000E+03	2.388071E-16	1.147701E-16
3.300000E+03	2.387678E-16	1.142719E-16
3.310000E+03	2.387690E-16	1.137851E-16
3.320000E+03	2.387823E-16	1.132962E-16
3.330000E+03	2.388081E-16	1.128055E-16
3.340000E+03	2.388469E-16	1.123132E-16
3.350000E+03	2.389276E-16	1.118329E-16
3.360000E+03	2.390224E-16	1.113516E-16
3.370000E+03	2.391600E-16	1.108825E-16
3.380000E+03	2.392851E-16	1.104001E-16
3.390000E+03	2.394545E-16	1.099305E-16
3.400000E+03	2.396410E-16	1.094611E-16
3.410000E+03	2.398456E-16	1.089925E-16
3.420000E+03	2.400970E-16	1.085376E-16
3.430000E+03	2.403685E-16	1.080840E-16
3.440000E+03	2.406614E-16	1.076323E-16
3.450000E+03	2.409767E-16	1.071829E-16
3.460000E+03	2.413433E-16	1.067484E-16
3.470000E+03	2.417349E-16	1.063171E-16
3.480000E+03	2.421531E-16	1.058894E-16
3.490000E+03	2.425993E-16	1.054659E-16
3.500000E+03	2.431023E-16	1.050586E-16
3.510000E+03	2.436363E-16	1.046563E-16
3.520000E+03	2.442032E-16	1.042595E-16
3.530000E+03	2.448317E-16	1.038801E-16
3.540000E+03	2.454695E-16	1.034956E-16
3.550000E+03	2.461724E-16	1.031293E-16
3.560000E+03	2.469422E-16	1.027813E-16
3.570000E+03	2.477271E-16	1.024299E-16
3.580000E+03	2.485828E-16	1.020976E-16
3.590000E+03	2.494845E-16	1.017737E-16
3.600000E+03	2.504342E-16	1.014585E-16
3.610000E+03	2.514341E-16	1.011526E-16
3.620000E+03	2.525129E-16	1.008669E-16
3.630000E+03	2.536462E-16	1.005909E-16
3.640000E+03	2.548359E-16	1.003248E-16
3.650000E+03	2.560844E-16	1.000690E-16
3.660000E+03	2.574205E-16	9.983394E-17
3.670000E+03	2.588197E-16	9.960932E-17
3.680000E+03	2.602841E-16	9.939521E-17
3.690000E+03	2.618159E-16	9.919167E-17
3.700000E+03	2.634173E-16	9.899866E-17
3.710000E+03	2.651173E-16	9.882619E-17
3.720000E+03	2.668912E-16	9.866391E-17
3.730000E+03	2.687409E-16	9.851161E-17
3.740000E+03	2.706685E-16	9.836899E-17
3.750000E+03	2.727033E-16	9.824552E-17
3.760000E+03	2.748200E-16	9.813079E-17
3.770000E+03	2.770204E-16	9.802425E-17
3.780000E+03	2.793064E-16	9.792527E-17
3.790000E+03	2.816796E-16	9.783309E-17
3.800000E+03	2.841695E-16	9.775648E-17
3.810000E+03	2.867220E-16	9.767526E-17
3.820000E+03	2.893946E-16	9.760750E-17
3.830000E+03	2.921605E-16	9.754245E-17
3.840000E+03	2.950211E-16	9.747880E-17
3.850000E+03	2.980061E-16	9.742452E-17
3.860000E+03	3.010595E-16	9.735931E-17
3.870000E+03	3.042396E-16	9.730016E-17
3.880000E+03	3.075185E-16	9.723591E-17
3.890000E+03	3.108969E-16	9.716464E-17
3.900000E+03	3.143753E-16	9.708427E-17
3.910000E+03	3.179540E-16	9.699258E-17
3.920000E+03	3.216633E-16	9.689622E-17
3.930000E+03	3.254434E-16	9.677460E-17
3.940000E+03	3.293545E-16	9.664304E-17
3.950000E+03	3.333661E-16	9.648971E-17
3.960000E+03	3.374779E-16	9.631164E-17
3.970000E+03	3.416892E-16	9.610569E-17
3.980000E+03	3.459992E-16	9.586860E-17
3.990000E+03	3.504065E-16	9.559694E-17
4.000000E+03	3.549420E-16	9.529569E-17
4.010000E+03	3.595403E-16	9.494389E-17
4.020000E+03	3.642637E-16	9.455475E-17
4.030000E+03	3.690451E-16	9.410727E-17
4.040000E+03	3.739474E-16	9.361408E-17
4.050000E+03	3.789352E-16	9.306242E-17
4.060000E+03	3.839712E-16	9.243974E-17
4.070000E+03	3.891190E-16	9.175782E-17
4.080000E+03	3.943408E-16	9.100381E-17
4.090000E+03	3.996317E-16	9.017299E-17
4.100000E+03	4.049865E-16	8.926058E-17
4.110000E+03	4.103989E-16	8.826180E-17
4.120000E+03	4.158624E-16	8.717185E-17
4.130000E+03	4.213695E-16	8.598602E-17
4.140000E+03	4.269119E-16	8.469967E-17
4.150000E+03	4.324805E-16	8.330837E-17
4.160000E+03	4.380652E-16	8.180790E-17
4.170000E+03	4.436552E-16	8.019440E-17
4.180000E+03	4.492383E-16	7.846444E-17
4.190000E+03	4.548014E-16	7.661516E-17
4.200000E+03	4.603305E-16	7.464445E-17
4.210000E+03	4.658102E-16	7.255110E-17
4.220000E+03	4.712240E-16	7.033506E-17
4.230000E+03	4.765544E-16	6.799772E-17
4.240000E+03	4.817825E-16	6.554226E-17
4.250000E+03	4.868884E-16	6.297412E-17
4.260000E+03	4.918113E-16	6.029661E-17
4.270000E+03	4.966089E-16	5.753153E-17
4.280000E+03	5.011782E-16	5.468554E-17
4.290000E+03	5.055764E-16	5.178954E-17
4.300000E+03	5.096984E-16	4.886402E-17
4.310000E+03	5.135603E-16	4.595159E-17
4.320000E+03	5.171787E-16	4.310538E-17
4.330000E+03	5.204474E-16	4.038221E-17
4.340000E+03	5.233427E-16	3.786315E-17
4.350000E+03	5.259248E-16	3.565205E-17
4.360000E+03	5.281317E-16	3.385755E-17
4.370000E+03	5.299039E-16	3.259279E-17
4.380000E+03	5.313093E-16	3.196318E-17
4.390000E+03	5.322557E-16	3.202296E-17
4.400000E+03	5.327817E-16	3.277316E-17
4.410000E+03	5.328920E-16	3.415219E-17
4.420000E+03	5.325554E-16	3.605634E-17
4.430000E+03	5.318673E-16	3.837579E-17
4.440000E+03	5.307625E-16	4.099405E-17
4.450000E+03	5.293004E-16	4.381719E-17
4.460000E+03	5.275011E-16	4.676550E-17
4.470000E+03	5.253860E-16	4.977534E-17
4.480000E+03	5.229380E-16	5.279292E-17
4.490000E+03	5.202200E-16	5.578316E-17
4.500000E+03	5.172937E-16	5.872078E-17
4.510000E+03	5.140664E-16	6.157010E-17
4.520000E+03	5.106772E-16	6.432730E-17
4.530000E+03	5.070727E-16	6.697056E-17
4.540000E+03	5.033135E-16	6.949561E-17
4.550000E+03	4.994218E-16	7.189645E-17
4.560000E+03	4.954186E-16	7.416946E-17
4.570000E+03	4.912887E-16	7.630733E-17
4.580000E+03	4.870888E-16	7.831524E-17
4.590000E+03	4.828378E-16	8.019437E-17
4.600000E+03	4.785541E-16	8.194692E-17
4.610000E+03	4.742209E-16	8.356995E-17
4.620000E+03	4.698898E-16	8.507307E-17
4.630000E+03	4.655433E-16	8.645443E-17
4.640000E+03	4.612635E-16	8.773113E-17
4.650000E+03	4.569980E-16	8.889581E-17
4.660000E+03	4.527614E-16	8.995363E-17
4.670000E+03	4.486308E-16	9.092285E-17
4.680000E+03	4.445539E-16	9.179623E-17
4.690000E+03	4.405737E-16	9.258582E-17
4.700000E+03	4.366697E-16	9.329068E-17
4.710000E+03	4.328827E-16	9.392287E-17
4.720000E+03	4.292214E-16	9.448785E-17
4.730000E+03	4.256938E-16	9.499095E-17
4.740000E+03	4.222778E-16	9.543068E-17
4.750000E+03	4.190101E-16	9.581862E-17
4.760000E+03	4.158681E-16	9.615289E-17
4.770000E+03	4.128868E-16	9.644466E-17
4.780000E+03	4.100710E-16	9.669826E-17
4.790000E+03	4.074254E-16	9.691773E-17
4.800000E+03	4.049261E-16	9.710021E-17
4.810000E+03	4.025774E-16	9.724924E-17
4.820000E+03	4.004379E-16	9.738145E-17
4.830000E+03	3.984553E-16	9.748652E-17
4.840000E+03	3.966326E-16	9.756722E-17
4.850000E+03	3.950261E-16	9.763933E-17
4.860000E+03	3.935837E-16	9.769178E-17
4.870000E+03	3.923074E-16	9.772658E-17
4.880000E+03	3.912251E-16	9.775204E-17
4.890000E+03	3.903380E-16	9.776962E-17
4.900000E+03	3.896205E-16	9.777393E-17
4.910000E+03	3.890998E-16	9.777252E-17
4.920000E+03	3.887762E-16	9.776609E-17
4.930000E+03	3.886242E-16	9.774857E-17
4.940000E+03	3.886698E-16	9.772675E-17
4.950000E+03	3.889132E-16	9.770060E-17
4.960000E+03	3.893285E-16	9.766339E-17
4.970000E+03	3.899413E-16	9.762116E-17
4.980000E+03	3.907255E-16	9.756674E-17
4.990000E+03	3.917065E-16	9.750568E-17
5.000000E+03	3.928578E-16	9.743037E-17
5.010000E+03	3.942306E-16	9.735228E-17
5.020000E+03	3.957463E-16	9.725052E-17
5.030000E+03	3.974817E-16	9.714245E-17
5.040000E+03	3.993836E-16	9.701316E-17
5.050000E+03	4.014507E-16	9.686036E-17
5.060000E+03	4.037337E-16	9.669411E-17
5.070000E+03	4.061520E-16	9.649259E-17
5.080000E+03	4.087826E-16	9.627164E-17
5.090000E+03	4.115703E-16	9.601530E-17
5.100000E+03	4.145389E-16	9.572622E-17
5.110000E+03	4.176585E-16	9.539431E-17
5.120000E+03	4.209525E-16	9.502164E-17
5.130000E+03	4.243896E-16	9.459765E-17
5.140000E+03	4.280205E-16	9.412990E-17
5.150000E+03	4.317572E-16	9.359521E-17
5.160000E+03	4.356774E-16	9.300659E-17
5.170000E+03	4.397190E-16	9.234654E-17
5.180000E+03	4.438746E-16	9.160952E-17
5.190000E+03	4.481648E-16	9.079563E-17
5.200000E+03	4.525810E-16	8.989874E-17
5.210000E+03	4.571141E-16	8.891258E-17
5.220000E+03	4.617242E-16	8.782509E-17
5.230000E+03	4.664290E-16	8.663552E-17
5.240000E+03	4.711861E-16	8.533181E-17
5.250000E+03	4.760115E-16	8.391301E-17
5.260000E+03	4.808596E-16	8.236734E-17
5.270000E+03	4.857754E-16	8.069897E-17
5.280000E+03	4.906489E-16	7.888635E-17
5.290000E+03	4.955537E-16	7.693900E-17
5.300000E+03	5.004072E-16	7.484163E-17
5.310000E+03	5.052187E-16	7.259442E-17
5.320000E+03	5.099330E-16	7.018887E-17
5.330000E+03	5.145572E-16	6.762662E-17
5.340000E+03	5.190654E-16	6.490576E-17
5.350000E+03	5.233975E-16	6.202200E-17
5.360000E+03	5.275575E-16	5.898112E-17
5.370000E+03	5.315160E-16	5.578701E-17
5.380000E+03	5.352090E-16	5.244336E-17
5.390000E+03	5.386390E-16	4.896485E-17
5.400000E+03	5.417407E-16	4.536497E-17
5.410000E+03	5.445511E-16	4.167339E-17
5.420000E+03	5.469715E-16	3.791888E-17
5.430000E+03	5.489719E-16	3.415201E-17
5.440000E+03	5.505591E-16	3.044895E-17
5.450000E+03	5.517077E-16	2.691998E-17
5.460000E+03	5.523955E-16	2.373099E-17
5.470000E+03	5.525700E-16	2.112156E-17
5.480000E+03	5.522530E-16	1.940270E-17
5.490000E+03	5.514045E-16	1.886304E-17
5.500000E+03	5.500974E-16	1.960465E-17
5.510000E+03	5.482780E-16	2.145393E-17
5.520000E+03	5.459703E-16	2.409334E-17
5.530000E+03	5.432385E-16	2.722214E-17
5.540000E+03	5.401164E-16	3.061699E-17
5.550000E+03	5.366409E-16	3.412823E-17
5.560000E+03	5.328177E-16	3.765597E-17
5.570000E+03	5.287532E-16	4.114111E-17
5.580000E+03	5.243889E-16	4.453439E-17
5.590000E+03	5.198634E-16	4.781634E-17
5.600000E+03	5.151506E-16	5.096387E-17
5.610000E+03	5.103209E-16	5.396922E-17
5.620000E+03	5.053789E-16	5.682328E-17
5.630000E+03	5.004218E-16	5.953094E-17
5.640000E+03	4.954191E-16	6.208563E-17
5.650000E+03	4.904319E-16	6.449356E-17
5.660000E+03	4.854573E-16	6.675476E-17
5.670000E+03	4.805508E-16	6.887833E-17
5.680000E+03	4.757350E-16	7.087030E-17
5.690000E+03	4.710298E-16	7.273722E-17
5.700000E+03	4.664238E-16	7.448131E-17
5.710000E+03	4.619619E-16	7.611396E-17
5.720000E+03	4.576572E-16	7.764218E-17
5.730000E+03	4.535208E-16	7.907288E-17
5.740000E+03	4.495339E-16	8.040774E-17
5.750000E+03	4.457321E-16	8.165803E-17
5.760000E+03	4.421210E-16	8.282987E-17
5.770000E+03	4.387046E-16	8.392901E-17
5.780000E+03	4.354585E-16	8.495554E-17
5.790000E+03	4.324382E-16	8.592490E-17
5.800000E+03	4.295636E-16	8.682567E-17
5.810000E+03	4.269143E-16	8.767800E-17
5.820000E+03	4.244620E-16	8.848029E-17
5.830000E+03	4.221783E-16	8.923040E-17
5.840000E+03	4.200869E-16	8.993677E-17
5.850000E+03	4.181846E-16	9.060206E-17
5.860000E+03	4.164421E-16	9.122297E-17
5.870000E+03	4.149074E-16	9.181282E-17
5.880000E+03	4.135253E-16	9.236207E-17
5.890000E+03	4.123178E-16	9.287791E-17
5.900000E+03	4.112814E-16	9.336170E-17
5.910000E+03	4.103871E-16	9.380877E-17
5.920000E+03	4.096575E-16	9.422586E-17
5.930000E+03	4.091150E-16	9.461972E-17
5.940000E+03	4.087064E-16	9.497931E-17
5.950000E+03	4.084297E-16	9.530520E-17
5.960000E+03	4.083341E-16	9.560969E-17
5.970000E+03	4.083675E-16	9.588135E-17
5.980000E+03	4.085800E-16	9.613241E-17
5.990000E+03	4.089206E-16	9.635115E-17
6.000000E+03	4.094148E-16	9.654369E-17
6.010000E+03	4.100376E-16	9.670407E-17
6.020000E+03	4.108410E-16	9.684426E-17
6.030000E+03	4.117751E-16	9.695206E-17
6.040000E+03	4.128670E-16	9.703321E-17
6.050000E+03	4.141185E-16	9.708728E-17
6.060000E+03	4.155318E-16	9.711370E-17
6.070000E+03	4.171089E-16	9.711172E-17
6.080000E+03	4.188522E-16	9.708039E-17
6.090000E+03	4.207379E-16	9.701251E-17
6.100000E+03	4.227941E-16	9.691277E-17
6.110000E+03	4.250498E-16	9.678559E-17
6.120000E+03	4.274542E-16	9.661699E-17
6.130000E+03	4.300354E-16	9.641086E-17
6.140000E+03	4.327682E-16	9.615873E-17
6.150000E+03	4.357077E-16	9.586985E-17
6.160000E+03	4.388007E-16	9.552911E-17
6.170000E+03	4.421023E-16	9.514503E-17
6.180000E+03	4.455573E-16	9.470190E-17
6.190000E+03	4.491925E-16	9.420151E-17
6.200000E+03	4.530066E-16	9.363934E-17
6.210000E+03	4.569975E-16	9.301049E-17
6.220000E+03	4.611622E-16	9.230968E-17
6.230000E+03	4.654676E-16	9.152550E-17
6.240000E+03	4.699670E-16	9.066348E-17
6.250000E+03	4.745955E-16	8.970581E-17
6.260000E+03	4.794051E-16	8.865712E-17
6.270000E+03	4.843273E-16	8.749919E-17
6.280000E+03	4.893818E-16	8.623037E-17
6.290000E+03	4.945567E-16	8.484314E-17
6.300000E+03	4.998388E-16	8.332980E-17
6.310000E+03	5.052128E-16	8.168251E-17
6.320000E+03	5.106293E-16	7.988838E-17
6.330000E+03	5.161334E-16	7.794978E-17
6.340000E+03	5.216718E-16	7.585392E-17
6.350000E+03	5.271880E-16	7.358882E-17
6.360000E+03	5.327224E-16	7.115702E-17
6.370000E+03	5.381804E-16	6.854319E-17
6.380000E+03	5.435652E-16	6.574664E-17
6.390000E+03	5.488446E-16	6.276321E-17
6.400000E+03	5.539843E-16	5.959025E-17
6.410000E+03	5.589483E-16	5.622701E-17
6.420000E+03	5.636989E-16	5.267527E-17
6.430000E+03	5.681970E-16	4.894007E-17
6.440000E+03	5.724027E-16	4.503090E-17
6.450000E+03	5.762754E-16	4.096349E-17
6.460000E+03	5.797747E-16	3.676275E-17
6.470000E+03	5.828237E-16	3.246595E-17
6.480000E+03	5.854580E-16	2.814117E-17
6.490000E+03	5.875670E-16	2.389215E-17
6.500000E+03	5.891921E-16	1.991373E-17
6.510000E+03	5.902294E-16	1.655317E-17
6.520000E+03	5.907301E-16	1.440012E-17
6.530000E+03	5.906024E-16	1.411100E-17
6.540000E+03	5.898765E-16	1.580080E-17
6.550000E+03	5.885549E-16	1.889516E-17
6.560000E+03	5.866857E-16	2.274989E-17
6.570000E+03	5.842104E-16	2.695002E-17
6.580000E+03	5.811888E-16	3.126892E-17
6.590000E+03	5.776469E-16	3.557930E-17
6.600000E+03	5.736146E-16	3.980613E-17
6.610000E+03	5.691245E-16	4.390276E-17
6.620000E+03	5.642111E-16	4.783902E-17
6.630000E+03	5.589109E-16	5.159514E-17
6.640000E+03	5.532612E-16	5.515836E-17
6.650000E+03	5.472646E-16	5.851714E-17
6.660000E+03	5.410301E-16	6.167480E-17
6.670000E+03	5.345597E-16	6.462675E-17
6.680000E+03	5.278906E-16	6.737427E-17
6.690000E+03	5.210255E-16	6.991610E-17
6.700000E+03	5.140670E-16	7.226586E-17
6.710000E+03	5.070148E-16	7.442527E-17
6.720000E+03	4.998688E-16	7.639651E-17
6.730000E+03	4.927245E-16	7.819723E-17
6.740000E+03	4.855464E-16	7.982601E-17
6.750000E+03	4.784245E-16	8.130210E-17
6.760000E+03	4.713214E-16	8.262441E-17
6.770000E+03	4.643215E-16	8.381310E-17
6.780000E+03	4.573850E-16	8.486696E-17
6.790000E+03	4.505907E-16	8.580650E-17
6.800000E+03	4.438967E-16	8.663005E-17
6.810000E+03	4.373476E-16	8.735234E-17
6.820000E+03	4.309846E-16	8.798804E-17
6.830000E+03	4.247626E-16	8.853433E-17
6.840000E+03	4.187196E-16	8.900510E-17
6.850000E+03	4.128903E-16	8.941396E-17
6.860000E+03	4.072267E-16	8.975661E-17
6.870000E+03	4.017609E-16	9.004569E-17
6.880000E+03	3.964959E-16	9.028755E-17
6.890000E+03	3.914338E-16	9.048803E-17
6.900000E+03	3.866002E-16	9.065841E-17
6.910000E+03	3.819437E-16	9.079167E-17
6.920000E+03	3.774881E-16	9.089808E-17
6.930000E+03	3.732308E-16	9.098149E-17
6.940000E+03	3.691681E-16	9.104530E-17
6.950000E+03	3.652954E-16	9.109246E-17
6.960000E+03	3.616078E-16	9.112547E-17
6.970000E+03	3.580992E-16	9.114644E-17
6.980000E+03	3.547634E-16	9.115713E-17
6.990000E+03	3.515704E-16	9.115289E-17
7.000000E+03	3.485594E-16	9.114679E-17
7.010000E+03	3.456995E-16	9.113359E-17
7.020000E+03	3.429831E-16	9.111378E-17
7.030000E+03	3.404021E-16	9.108760E-17
7.040000E+03	3.379264E-16	9.104908E-17
7.050000E+03	3.355925E-16	9.101009E-17
7.060000E+03	3.333701E-16	9.096431E-17
7.070000E+03	3.312293E-16	9.090528E-17
7.080000E+03	3.292063E-16	9.084449E-17
7.090000E+03	3.272498E-16	9.076925E-17
7.100000E+03	3.253959E-16	9.069092E-17
7.110000E+03	3.235942E-16	9.059671E-17
7.120000E+03	3.218811E-16	9.049790E-17
7.130000E+03	3.202073E-16	9.038169E-17
7.140000E+03	3.185881E-16	9.025336E-17
7.150000E+03	3.170179E-16	9.011219E-17
7.160000E+03	3.155126E-16	8.996351E-17
7.170000E+03	3.140252E-16	8.979471E-17
7.180000E+03	3.125726E-16	8.961127E-17
7.190000E+03	3.111510E-16	8.941274E-17
7.200000E+03	3.097571E-16	8.919876E-17
7.210000E+03	3.083882E-16	8.896909E-17
7.220000E+03	3.070421E-16	8.872359E-17
7.230000E+03	3.056967E-16	8.845633E-17
7.240000E+03	3.043919E-16	8.817929E-17
7.250000E+03	3.031067E-16	8.788678E-17
7.260000E+03	3.018209E-16	8.757327E-17
7.270000E+03	3.005758E-16	8.725107E-17
7.280000E+03	2.993320E-16	8.690908E-17
7.290000E+03	2.981317E-16	8.655977E-17
7.300000E+03	2.969370E-16	8.619239E-17
7.310000E+03	2.957709E-16	8.581381E-17
7.320000E+03	2.946369E-16	8.542517E-17
7.330000E+03	2.935387E-16	8.502773E-17
7.340000E+03	2.924808E-16	8.462284E-17
7.350000E+03	2.914679E-16	8.421192E-17
7.360000E+03	2.905053E-16	8.379649E-17
7.370000E+03	2.895985E-16	8.337811E-17
7.380000E+03	2.887339E-16	8.295275E-17
7.390000E+03	2.879570E-16	8.253333E-17
7.400000E+03	2.872351E-16	8.211023E-17
7.410000E+03	2.866139E-16	8.169629E-17
7.420000E+03	2.860612E-16	8.128193E-17
7.430000E+03	2.856036E-16	8.087430E-17
7.440000E+03	2.852482E-16	8.047486E-17
7.450000E+03	2.850019E-16	8.008500E-17
7.460000E+03	2.848719E-16	7.970599E-17
7.470000E+03	2.848652E-16	7.933900E-17
7.480000E+03	2.849888E-16	7.898504E-17
7.490000E+03	2.852299E-16	7.863956E-17
7.500000E+03	2.856342E-16	7.831404E-17
7.510000E+03	2.861690E-16	7.799819E-17
7.520000E+03	2.868601E-16	7.769768E-17
7.530000E+03	2.877135E-16	7.741255E-17
7.540000E+03	2.887347E-16	7.714260E-17
7.550000E+03	2.899292E-16	7.688738E-17
7.560000E+03	2.913018E-16	7.664619E-17
7.570000E+03	2.928370E-16	7.641275E-17
7.580000E+03	2.945793E-16	7.619634E-17
7.590000E+03	2.964918E-16	7.598483E-17
7.600000E+03	2.986187E-16	7.578684E-17
7.610000E+03	3.009215E-16	7.558962E-17
7.620000E+03	3.034230E-16	7.539588E-17
7.630000E+03	3.061034E-16	7.519746E-17
7.640000E+03	3.090062E-16	7.500158E-17
7.650000E+03	3.121106E-16	7.479937E-17
7.660000E+03	3.153944E-16	7.458163E-17
7.670000E+03	3.188779E-16	7.434921E-17
7.680000E+03	3.225817E-16	7.410258E-17
7.690000E+03	3.264583E-16	7.382623E-17
7.700000E+03	3.305031E-16	7.351470E-17
7.710000E+03	3.347576E-16	7.317250E-17
7.720000E+03	3.391933E-16	7.278823E-17
7.730000E+03	3.437791E-16	7.235022E-17
7.740000E+03	3.485554E-16	7.186183E-17
7.750000E+03	3.534643E-16	7.130568E-17
7.760000E+03	3.585196E-16	7.067942E-17
