#wls	flux	fluxerr
1.600000E+03	1.953914E-17	1.497601E-17
1.640000E+03	1.998787E-17	1.529068E-17
1.680000E+03	2.044231E-17	1.560908E-17
1.720000E+03	2.090145E-17	1.593055E-17
1.760000E+03	2.136424E-17	1.625442E-17
1.800000E+03	2.182960E-17	1.657998E-17
1.840000E+03	2.229643E-17	1.690652E-17
1.880000E+03	2.276366E-17	1.723332E-17
1.920000E+03	2.323025E-17	1.755970E-17
1.960000E+03	2.369523E-17	1.788498E-17
2.000000E+03	2.415771E-17	1.820854E-17
2.040000E+03	2.461695E-17	1.852984E-17
2.080000E+03	2.507233E-17	1.884837E-17
2.120000E+03	2.552343E-17	1.916377E-17
2.160000E+03	2.597002E-17	1.947576E-17
2.200000E+03	2.641687E-17	1.978774E-17
2.240000E+03	2.685481E-17	2.009265E-17
2.280000E+03	2.728904E-17	2.039411E-17
2.320000E+03	2.772038E-17	2.069243E-17
2.360000E+03	2.815502E-17	2.099185E-17
2.400000E+03	2.858435E-17	2.128552E-17
2.440000E+03	2.901512E-17	2.157796E-17
2.480000E+03	2.945469E-17	2.187411E-17
2.520000E+03	2.989497E-17	2.216731E-17
2.560000E+03	3.034391E-17	2.246279E-17
2.600000E+03	3.081012E-17	2.276614E-17
2.640000E+03	3.128602E-17	2.307092E-17
2.680000E+03	3.178651E-17	2.338715E-17
2.720000E+03	3.230435E-17	2.370849E-17
2.760000E+03	3.285548E-17	2.404546E-17
2.800000E+03	3.343302E-17	2.439172E-17
2.840000E+03	3.405401E-17	2.475830E-17
2.880000E+03	3.471194E-17	2.513879E-17
2.920000E+03	3.542513E-17	2.554464E-17
2.960000E+03	3.619394E-17	2.597397E-17
3.000000E+03	3.701868E-17	2.642465E-17
3.010000E+03	3.724046E-17	2.654525E-17
3.020000E+03	3.746007E-17	2.666292E-17
3.030000E+03	3.769101E-17	2.678724E-17
3.040000E+03	3.791995E-17	2.690868E-17
3.050000E+03	3.815373E-17	2.703205E-17
3.060000E+03	3.839935E-17	2.716226E-17
3.070000E+03	3.864324E-17	2.728964E-17
3.080000E+03	3.889932E-17	2.742397E-17
3.090000E+03	3.915387E-17	2.755551E-17
3.100000E+03	3.941393E-17	2.768918E-17
3.110000E+03	3.968675E-17	2.782998E-17
3.120000E+03	3.995833E-17	2.796804E-17
3.130000E+03	4.024306E-17	2.811335E-17
3.140000E+03	4.052675E-17	2.825594E-17
3.150000E+03	4.082400E-17	2.840590E-17
3.160000E+03	4.112042E-17	2.855316E-17
3.170000E+03	4.142343E-17	2.870278E-17
3.180000E+03	4.174064E-17	2.885997E-17
3.190000E+03	4.205735E-17	2.901445E-17
3.200000E+03	4.238872E-17	2.917661E-17
3.210000E+03	4.271983E-17	2.933608E-17
3.220000E+03	4.306607E-17	2.950332E-17
3.230000E+03	4.341228E-17	2.966787E-17
3.240000E+03	4.376628E-17	2.983497E-17
3.250000E+03	4.413614E-17	3.001002E-17
3.260000E+03	4.450635E-17	3.018233E-17
3.270000E+03	4.489294E-17	3.036268E-17
3.280000E+03	4.528014E-17	3.054026E-17
3.290000E+03	4.568424E-17	3.072598E-17
3.300000E+03	4.608922E-17	3.090888E-17
3.310000E+03	4.650335E-17	3.109444E-17
3.320000E+03	4.693524E-17	3.128824E-17
3.330000E+03	4.736841E-17	3.147914E-17
3.340000E+03	4.781992E-17	3.167835E-17
3.350000E+03	4.827299E-17	3.187457E-17
3.360000E+03	4.874500E-17	3.207915E-17
3.370000E+03	4.921886E-17	3.228065E-17
3.380000E+03	4.970342E-17	3.248474E-17
3.390000E+03	5.020788E-17	3.269723E-17
3.400000E+03	5.071462E-17	3.290646E-17
3.410000E+03	5.124191E-17	3.312409E-17
3.420000E+03	5.177180E-17	3.333830E-17
3.430000E+03	5.232291E-17	3.356091E-17
3.440000E+03	5.287693E-17	3.377992E-17
3.450000E+03	5.344333E-17	3.400121E-17
3.460000E+03	5.403201E-17	3.423084E-17
3.470000E+03	5.462405E-17	3.445654E-17
3.480000E+03	5.523909E-17	3.469048E-17
3.490000E+03	5.585780E-17	3.492025E-17
3.500000E+03	5.650026E-17	3.515816E-17
3.510000E+03	5.714668E-17	3.539159E-17
3.520000E+03	5.781762E-17	3.563301E-17
3.530000E+03	5.849282E-17	3.586963E-17
3.540000E+03	5.918276E-17	3.610762E-17
3.550000E+03	5.989836E-17	3.635330E-17
3.560000E+03	6.061867E-17	3.659359E-17
3.570000E+03	6.136544E-17	3.684133E-17
3.580000E+03	6.211720E-17	3.708323E-17
3.590000E+03	6.289622E-17	3.733227E-17
3.600000E+03	6.368049E-17	3.757497E-17
3.610000E+03	6.449282E-17	3.782446E-17
3.620000E+03	6.531064E-17	3.806705E-17
3.630000E+03	6.614556E-17	3.830917E-17
3.640000E+03	6.700974E-17	3.855743E-17
3.650000E+03	6.787974E-17	3.879784E-17
3.660000E+03	6.877981E-17	3.904387E-17
3.670000E+03	6.968587E-17	3.928132E-17
3.680000E+03	7.062279E-17	3.952379E-17
3.690000E+03	7.156582E-17	3.975690E-17
3.700000E+03	7.252760E-17	3.998725E-17
3.710000E+03	7.352140E-17	4.022160E-17
3.720000E+03	7.452143E-17	4.044525E-17
3.730000E+03	7.555423E-17	4.067210E-17
3.740000E+03	7.659327E-17	4.088725E-17
3.750000E+03	7.766579E-17	4.110472E-17
3.760000E+03	7.874450E-17	4.130942E-17
3.770000E+03	7.985736E-17	4.151547E-17
3.780000E+03	8.097628E-17	4.170757E-17
3.790000E+03	8.211536E-17	4.189249E-17
3.800000E+03	8.328950E-17	4.207712E-17
3.810000E+03	8.446935E-17	4.224588E-17
3.820000E+03	8.568479E-17	4.241311E-17
3.830000E+03	8.690558E-17	4.256309E-17
3.840000E+03	8.816242E-17	4.271021E-17
3.850000E+03	8.942414E-17	4.283859E-17
3.860000E+03	9.070615E-17	4.295505E-17
3.870000E+03	9.202471E-17	4.306647E-17
3.880000E+03	9.334723E-17	4.315675E-17
3.890000E+03	9.470652E-17	4.324041E-17
3.900000E+03	9.606897E-17	4.330125E-17
3.910000E+03	9.746829E-17	4.335379E-17
3.920000E+03	9.886981E-17	4.338174E-17
3.930000E+03	1.003082E-16	4.339962E-17
3.940000E+03	1.017476E-16	4.339110E-17
3.950000E+03	1.032053E-16	4.336296E-17
3.960000E+03	1.046995E-16	4.332197E-17
3.970000E+03	1.061928E-16	4.325179E-17
3.980000E+03	1.077221E-16	4.316682E-17
3.990000E+03	1.092488E-16	4.305078E-17
4.000000E+03	1.108110E-16	4.291801E-17
4.010000E+03	1.123687E-16	4.275231E-17
4.020000E+03	1.139408E-16	4.256039E-17
4.030000E+03	1.155469E-16	4.234886E-17
4.040000E+03	1.171454E-16	4.210174E-17
4.050000E+03	1.187768E-16	4.183316E-17
4.060000E+03	1.203981E-16	4.152739E-17
4.070000E+03	1.220509E-16	4.119845E-17
4.080000E+03	1.236909E-16	4.083092E-17
4.090000E+03	1.253383E-16	4.043153E-17
4.100000E+03	1.270144E-16	4.000681E-17
4.110000E+03	1.286730E-16	3.954202E-17
4.120000E+03	1.303583E-16	3.905089E-17
4.130000E+03	1.320226E-16	3.851925E-17
4.140000E+03	1.336872E-16	3.795406E-17
4.150000E+03	1.353745E-16	3.736204E-17
4.160000E+03	1.370350E-16	3.673015E-17
4.170000E+03	1.387152E-16	3.607209E-17
4.180000E+03	1.403642E-16	3.537577E-17
4.190000E+03	1.420043E-16	3.464890E-17
4.200000E+03	1.436589E-16	3.389902E-17
4.210000E+03	1.452750E-16	3.311598E-17
4.220000E+03	1.469017E-16	3.231415E-17
4.230000E+03	1.484845E-16	3.148503E-17
4.240000E+03	1.500735E-16	3.064371E-17
4.250000E+03	1.516131E-16	2.978377E-17
4.260000E+03	1.531267E-16	2.891629E-17
4.270000E+03	1.546391E-16	2.805280E-17
4.280000E+03	1.560927E-16	2.719094E-17
4.290000E+03	1.575396E-16	2.634959E-17
4.300000E+03	1.589210E-16	2.552976E-17
4.310000E+03	1.602614E-16	2.474829E-17
4.320000E+03	1.615860E-16	2.402297E-17
4.330000E+03	1.628346E-16	2.336006E-17
4.340000E+03	1.640612E-16	2.278395E-17
4.350000E+03	1.652043E-16	2.230293E-17
4.360000E+03	1.662895E-16	2.193725E-17
4.370000E+03	1.673431E-16	2.170548E-17
4.380000E+03	1.683028E-16	2.161185E-17
4.390000E+03	1.691959E-16	2.166784E-17
4.400000E+03	1.700512E-16	2.187908E-17
4.410000E+03	1.708091E-16	2.223366E-17
4.420000E+03	1.715308E-16	2.273049E-17
4.430000E+03	1.721571E-16	2.334938E-17
4.440000E+03	1.727198E-16	2.407996E-17
4.450000E+03	1.732513E-16	2.491145E-17
4.460000E+03	1.736920E-16	2.581991E-17
4.470000E+03	1.740744E-16	2.679495E-17
4.480000E+03	1.744312E-16	2.782781E-17
4.490000E+03	1.747027E-16	2.889638E-17
4.500000E+03	1.749524E-16	2.999953E-17
4.510000E+03	1.751206E-16	3.111695E-17
4.520000E+03	1.752399E-16	3.224504E-17
4.530000E+03	1.753433E-16	3.338213E-17
4.540000E+03	1.753708E-16	3.450996E-17
4.550000E+03	1.753550E-16	3.562853E-17
4.560000E+03	1.753290E-16	3.673937E-17
4.570000E+03	1.752325E-16	3.782537E-17
4.580000E+03	1.750984E-16	3.888917E-17
4.590000E+03	1.749593E-16	3.993465E-17
4.600000E+03	1.747551E-16	4.094514E-17
4.610000E+03	1.745494E-16	4.193262E-17
4.620000E+03	1.742820E-16	4.288046E-17
4.630000E+03	1.739856E-16	4.379424E-17
4.640000E+03	1.736923E-16	4.468046E-17
4.650000E+03	1.733425E-16	4.552232E-17
4.660000E+03	1.729683E-16	4.632664E-17
4.670000E+03	1.726019E-16	4.710097E-17
4.680000E+03	1.721835E-16	4.782821E-17
4.690000E+03	1.717452E-16	4.851611E-17
4.700000E+03	1.713187E-16	4.917306E-17
4.710000E+03	1.708447E-16	4.978159E-17
4.720000E+03	1.703549E-16	5.035018E-17
4.730000E+03	1.698806E-16	5.088784E-17
4.740000E+03	1.693629E-16	5.137676E-17
4.750000E+03	1.688331E-16	5.182598E-17
4.760000E+03	1.683222E-16	5.224497E-17
4.770000E+03	1.677716E-16	5.261560E-17
4.780000E+03	1.672124E-16	5.294735E-17
4.790000E+03	1.666749E-16	5.325000E-17
4.800000E+03	1.661013E-16	5.350519E-17
4.810000E+03	1.655220E-16	5.372270E-17
4.820000E+03	1.649671E-16	5.391251E-17
4.830000E+03	1.643791E-16	5.405609E-17
4.840000E+03	1.637882E-16	5.416343E-17
4.850000E+03	1.631950E-16	5.423504E-17
4.860000E+03	1.626292E-16	5.428103E-17
4.870000E+03	1.620339E-16	5.428276E-17
4.880000E+03	1.614386E-16	5.425034E-17
4.890000E+03	1.608725E-16	5.419389E-17
4.900000E+03	1.602792E-16	5.409478E-17
4.910000E+03	1.596879E-16	5.396313E-17
4.920000E+03	1.591272E-16	5.380897E-17
4.930000E+03	1.585414E-16	5.361380E-17
4.940000E+03	1.579592E-16	5.338767E-17
4.950000E+03	1.573811E-16	5.313109E-17
4.960000E+03	1.568351E-16	5.285390E-17
4.970000E+03	1.562663E-16	5.253788E-17
4.980000E+03	1.557028E-16	5.219290E-17
4.990000E+03	1.551723E-16	5.182858E-17
5.000000E+03	1.546204E-16	5.142702E-17
5.010000E+03	1.540748E-16	5.099789E-17
5.020000E+03	1.535358E-16	5.054163E-17
5.030000E+03	1.530308E-16	5.006752E-17
5.040000E+03	1.525057E-16	4.955822E-17
5.050000E+03	1.519880E-16	4.902307E-17
5.060000E+03	1.514779E-16	4.846247E-17
5.070000E+03	1.510021E-16	4.788527E-17
5.080000E+03	1.505075E-16	4.727486E-17
5.090000E+03	1.500210E-16	4.664018E-17
5.100000E+03	1.495427E-16	4.598160E-17
5.110000E+03	1.490989E-16	4.530749E-17
5.120000E+03	1.486372E-16	4.460213E-17
5.130000E+03	1.481839E-16	4.387399E-17
5.140000E+03	1.477392E-16	4.312347E-17
5.150000E+03	1.473291E-16	4.235842E-17
5.160000E+03	1.469016E-16	4.156414E-17
5.170000E+03	1.464828E-16	4.074865E-17
5.180000E+03	1.460728E-16	3.991237E-17
5.190000E+03	1.456971E-16	3.906263E-17
5.200000E+03	1.453044E-16	3.818597E-17
5.210000E+03	1.449205E-16	3.728991E-17
5.220000E+03	1.445452E-16	3.637501E-17
5.230000E+03	1.442040E-16	3.544808E-17
5.240000E+03	1.438460E-16	3.449712E-17
5.250000E+03	1.434965E-16	3.352924E-17
5.260000E+03	1.431555E-16	3.254524E-17
5.270000E+03	1.428229E-16	3.154603E-17
5.280000E+03	1.425237E-16	3.053801E-17
5.290000E+03	1.422076E-16	2.951141E-17
5.300000E+03	1.418995E-16	2.847315E-17
5.310000E+03	1.415993E-16	2.742482E-17
5.320000E+03	1.413069E-16	2.636827E-17
5.330000E+03	1.410468E-16	2.531014E-17
5.340000E+03	1.407691E-16	2.424392E-17
5.350000E+03	1.404984E-16	2.317737E-17
5.360000E+03	1.402345E-16	2.211421E-17
5.370000E+03	1.399770E-16	2.105894E-17
5.380000E+03	1.397501E-16	2.002052E-17
5.390000E+03	1.395042E-16	1.899833E-17
5.400000E+03	1.392633E-16	1.800410E-17
5.410000E+03	1.390271E-16	1.704757E-17
5.420000E+03	1.387948E-16	1.614043E-17
5.430000E+03	1.385901E-16	1.529928E-17
5.440000E+03	1.383636E-16	1.453478E-17
5.450000E+03	1.381387E-16	1.386798E-17
5.460000E+03	1.379147E-16	1.331834E-17
5.470000E+03	1.376906E-16	1.290513E-17
5.480000E+03	1.374655E-16	1.264511E-17
5.490000E+03	1.372627E-16	1.255187E-17
5.500000E+03	1.370336E-16	1.262394E-17
5.510000E+03	1.368030E-16	1.285678E-17
5.520000E+03	1.365716E-16	1.323593E-17
5.530000E+03	1.363404E-16	1.374241E-17
5.540000E+03	1.361104E-16	1.435557E-17
5.550000E+03	1.359065E-16	1.505785E-17
5.560000E+03	1.356814E-16	1.582558E-17
5.570000E+03	1.354600E-16	1.664511E-17
5.580000E+03	1.352428E-16	1.750271E-17
5.590000E+03	1.350304E-16	1.838696E-17
5.600000E+03	1.348233E-16	1.928846E-17
5.610000E+03	1.346220E-16	2.019952E-17
5.620000E+03	1.344505E-16	2.111759E-17
5.630000E+03	1.342617E-16	2.203029E-17
5.640000E+03	1.340797E-16	2.293702E-17
5.650000E+03	1.339047E-16	2.383436E-17
5.660000E+03	1.337369E-16	2.471954E-17
5.670000E+03	1.335765E-16	2.559026E-17
5.680000E+03	1.334236E-16	2.644462E-17
5.690000E+03	1.332783E-16	2.728107E-17
5.700000E+03	1.331643E-16	2.810325E-17
5.710000E+03	1.330346E-16	2.890033E-17
5.720000E+03	1.329128E-16	2.967621E-17
5.730000E+03	1.327989E-16	3.043014E-17
5.740000E+03	1.326931E-16	3.116149E-17
5.750000E+03	1.325952E-16	3.186972E-17
5.760000E+03	1.325054E-16	3.255439E-17
5.770000E+03	1.324235E-16	3.321512E-17
5.780000E+03	1.323497E-16	3.385158E-17
5.790000E+03	1.323072E-16	3.446956E-17
5.800000E+03	1.322493E-16	3.505679E-17
5.810000E+03	1.321993E-16	3.561903E-17
5.820000E+03	1.321573E-16	3.615608E-17
5.830000E+03	1.321231E-16	3.666780E-17
5.840000E+03	1.320966E-16	3.715403E-17
5.850000E+03	1.320779E-16	3.761463E-17
5.860000E+03	1.320668E-16	3.804950E-17
5.870000E+03	1.320632E-16	3.845850E-17
5.880000E+03	1.320672E-16	3.884153E-17
5.890000E+03	1.320785E-16	3.919848E-17
5.900000E+03	1.321203E-16	3.953620E-17
5.910000E+03	1.321461E-16	3.984072E-17
5.920000E+03	1.321789E-16	4.011882E-17
5.930000E+03	1.322186E-16	4.037041E-17
5.940000E+03	1.322651E-16	4.059535E-17
5.950000E+03	1.323182E-16	4.079354E-17
5.960000E+03	1.323778E-16	4.096484E-17
5.970000E+03	1.324436E-16	4.110913E-17
5.980000E+03	1.325156E-16	4.122627E-17
5.990000E+03	1.325936E-16	4.131613E-17
6.000000E+03	1.326773E-16	4.137855E-17
6.010000E+03	1.327665E-16	4.141340E-17
6.020000E+03	1.328611E-16	4.142051E-17
6.030000E+03	1.329608E-16	4.139973E-17
6.040000E+03	1.330653E-16	4.135089E-17
6.050000E+03	1.331745E-16	4.127382E-17
6.060000E+03	1.332880E-16	4.116836E-17
6.070000E+03	1.334291E-16	4.104155E-17
6.080000E+03	1.335506E-16	4.087875E-17
6.090000E+03	1.336756E-16	4.068703E-17
6.100000E+03	1.338038E-16	4.046620E-17
6.110000E+03	1.339350E-16	4.021611E-17
6.120000E+03	1.340687E-16	3.993658E-17
6.130000E+03	1.342047E-16	3.962744E-17
6.140000E+03	1.343427E-16	3.928853E-17
6.150000E+03	1.344822E-16	3.891971E-17
6.160000E+03	1.346230E-16	3.852084E-17
6.170000E+03	1.347646E-16	3.809178E-17
6.180000E+03	1.349067E-16	3.763241E-17
6.190000E+03	1.350489E-16	3.714266E-17
6.200000E+03	1.351908E-16	3.662243E-17
6.210000E+03	1.353320E-16	3.607167E-17
6.220000E+03	1.354720E-16	3.549037E-17
6.230000E+03	1.356105E-16	3.487852E-17
6.240000E+03	1.357469E-16	3.423617E-17
6.250000E+03	1.358810E-16	3.356341E-17
6.260000E+03	1.360121E-16	3.286037E-17
6.270000E+03	1.361399E-16	3.212726E-17
6.280000E+03	1.362638E-16	3.136433E-17
6.290000E+03	1.363835E-16	3.057191E-17
6.300000E+03	1.364983E-16	2.975044E-17
6.310000E+03	1.366078E-16	2.890047E-17
6.320000E+03	1.367115E-16	2.802264E-17
6.330000E+03	1.368088E-16	2.711778E-17
6.340000E+03	1.368992E-16	2.618688E-17
6.350000E+03	1.369821E-16	2.523118E-17
6.360000E+03	1.370570E-16	2.425215E-17
6.370000E+03	1.371231E-16	2.325162E-17
6.380000E+03	1.371799E-16	2.223184E-17
6.390000E+03	1.372268E-16	2.119556E-17
6.400000E+03	1.372630E-16	2.014621E-17
6.410000E+03	1.372878E-16	1.908806E-17
6.420000E+03	1.373004E-16	1.802648E-17
6.430000E+03	1.373001E-16	1.696825E-17
6.440000E+03	1.372860E-16	1.592202E-17
6.450000E+03	1.372330E-16	1.489618E-17
6.460000E+03	1.371884E-16	1.391028E-17
6.470000E+03	1.371272E-16	1.297951E-17
6.480000E+03	1.370483E-16	1.212643E-17
6.490000E+03	1.369504E-16	1.137860E-17
6.500000E+03	1.368326E-16	1.076788E-17
6.510000E+03	1.366936E-16	1.032791E-17
6.520000E+03	1.365324E-16	1.008900E-17
6.530000E+03	1.363483E-16	1.007069E-17
6.540000E+03	1.361413E-16	1.027503E-17
6.550000E+03	1.359123E-16	1.068571E-17
6.560000E+03	1.356626E-16	1.127407E-17
6.570000E+03	1.353937E-16	1.200682E-17
6.580000E+03	1.351070E-16	1.285170E-17
6.590000E+03	1.348039E-16	1.378047E-17
6.600000E+03	1.344858E-16	1.476984E-17
6.610000E+03	1.341539E-16	1.580127E-17
6.620000E+03	1.338094E-16	1.686022E-17
6.630000E+03	1.334301E-16	1.793222E-17
6.640000E+03	1.330640E-16	1.901461E-17
6.650000E+03	1.326886E-16	2.009760E-17
6.660000E+03	1.323050E-16	2.117586E-17
6.670000E+03	1.319139E-16	2.224519E-17
6.680000E+03	1.315164E-16	2.330231E-17
6.690000E+03	1.311132E-16	2.434463E-17
6.700000E+03	1.307053E-16	2.537009E-17
6.710000E+03	1.302933E-16	2.637710E-17
6.720000E+03	1.298780E-16	2.736438E-17
6.730000E+03	1.294602E-16	2.833096E-17
6.740000E+03	1.290406E-16	2.927610E-17
6.750000E+03	1.285971E-16	3.019391E-17
6.760000E+03	1.281759E-16	3.109447E-17
6.770000E+03	1.277548E-16	3.197235E-17
6.780000E+03	1.273345E-16	3.282741E-17
6.790000E+03	1.269155E-16	3.365956E-17
6.800000E+03	1.264986E-16	3.446883E-17
6.810000E+03	1.260843E-16	3.525530E-17
6.820000E+03	1.256730E-16	3.601911E-17
6.830000E+03	1.252655E-16	3.676044E-17
6.840000E+03	1.248622E-16	3.747953E-17
6.850000E+03	1.244418E-16	3.816992E-17
6.860000E+03	1.240487E-16	3.884524E-17
6.870000E+03	1.236613E-16	3.949921E-17
6.880000E+03	1.232802E-16	4.013219E-17
6.890000E+03	1.229059E-16	4.074453E-17
6.900000E+03	1.225388E-16	4.133661E-17
6.910000E+03	1.221795E-16	4.190885E-17
6.920000E+03	1.218282E-16	4.246162E-17
6.930000E+03	1.214855E-16	4.299536E-17
6.940000E+03	1.211305E-16	4.350282E-17
6.950000E+03	1.208063E-16	4.399964E-17
6.960000E+03	1.204918E-16	4.447869E-17
6.970000E+03	1.201876E-16	4.494038E-17
6.980000E+03	1.198938E-16	4.538514E-17
6.990000E+03	1.196110E-16	4.581337E-17
7.000000E+03	1.193395E-16	4.622549E-17
7.010000E+03	1.190586E-16	4.661370E-17
7.020000E+03	1.188106E-16	4.699475E-17
7.030000E+03	1.185748E-16	4.736088E-17
7.040000E+03	1.183516E-16	4.771248E-17
7.050000E+03	1.181412E-16	4.804992E-17
7.060000E+03	1.179438E-16	4.837354E-17
7.070000E+03	1.177599E-16	4.868371E-17
7.080000E+03	1.175688E-16	4.897212E-17
7.090000E+03	1.174123E-16	4.925630E-17
7.100000E+03	1.172699E-16	4.952797E-17
7.110000E+03	1.171418E-16	4.978743E-17
7.120000E+03	1.170282E-16	5.003494E-17
7.130000E+03	1.169292E-16	5.027077E-17
7.140000E+03	1.168451E-16	5.049515E-17
7.150000E+03	1.167555E-16	5.069937E-17
7.160000E+03	1.167017E-16	5.090147E-17
7.170000E+03	1.166632E-16	5.109272E-17
7.180000E+03	1.166401E-16	5.127331E-17
7.190000E+03	1.166326E-16	5.144337E-17
7.200000E+03	1.166409E-16	5.160302E-17
7.210000E+03	1.166443E-16	5.174326E-17
7.220000E+03	1.166841E-16	5.188239E-17
7.230000E+03	1.167399E-16	5.201136E-17
7.240000E+03	1.168117E-16	5.213024E-17
7.250000E+03	1.168995E-16	5.223902E-17
7.260000E+03	1.169827E-16	5.232850E-17
7.270000E+03	1.171026E-16	5.241708E-17
7.280000E+03	1.172385E-16	5.249550E-17
7.290000E+03	1.173905E-16	5.256370E-17
7.300000E+03	1.175586E-16	5.262158E-17
7.310000E+03	1.177426E-16	5.266904E-17
7.320000E+03	1.179218E-16	5.269664E-17
7.330000E+03	1.181375E-16	5.272280E-17
7.340000E+03	1.183691E-16	5.273805E-17
7.350000E+03	1.186162E-16	5.274218E-17
7.360000E+03	1.188790E-16	5.273496E-17
7.370000E+03	1.191360E-16	5.270685E-17
7.380000E+03	1.194293E-16	5.267615E-17
7.390000E+03	1.197376E-16	5.263328E-17
7.400000E+03	1.200608E-16	5.257790E-17
7.410000E+03	1.203986E-16	5.250966E-17
7.420000E+03	1.207295E-16	5.241897E-17
7.430000E+03	1.210958E-16	5.232391E-17
7.440000E+03	1.214759E-16	5.221483E-17
7.450000E+03	1.218696E-16	5.209129E-17
7.460000E+03	1.222765E-16	5.195282E-17
7.470000E+03	1.226746E-16	5.178981E-17
7.480000E+03	1.231068E-16	5.162006E-17
7.490000E+03	1.235510E-16	5.143389E-17
7.500000E+03	1.240070E-16	5.123076E-17
7.510000E+03	1.244741E-16	5.101012E-17
7.520000E+03	1.249299E-16	5.076242E-17
7.530000E+03	1.254180E-16	5.050505E-17
7.540000E+03	1.259157E-16	5.022838E-17
7.550000E+03	1.264225E-16	4.993181E-17
7.560000E+03	1.269155E-16	4.960594E-17
7.570000E+03	1.274386E-16	4.926770E-17
7.580000E+03	1.279690E-16	4.890762E-17
7.590000E+03	1.285060E-16	4.852504E-17
7.600000E+03	1.290260E-16	4.811080E-17
7.610000E+03	1.295737E-16	4.768128E-17
7.620000E+03	1.301258E-16	4.722725E-17
7.630000E+03	1.306813E-16	4.674803E-17
7.640000E+03	1.312394E-16	4.624295E-17
7.650000E+03	1.317759E-16	4.570326E-17
7.660000E+03	1.323364E-16	4.514456E-17
7.670000E+03	1.328968E-16	4.455802E-17
7.680000E+03	1.334559E-16	4.394301E-17
7.690000E+03	1.339892E-16	4.329128E-17
7.700000E+03	1.345428E-16	4.261764E-17
7.710000E+03	1.350920E-16	4.191375E-17
7.720000E+03	1.356356E-16	4.117909E-17
7.730000E+03	1.361486E-16	4.040602E-17
7.740000E+03	1.366775E-16	3.960849E-17
7.750000E+03	1.371973E-16	3.877881E-17
7.760000E+03	1.377066E-16	3.791662E-17
