#wls	flux	fluxerr
1.595708E+03	1.303292E-04	4.595795E-06
1.635600E+03	1.436723E-04	5.019877E-06
1.675493E+03	1.562449E-04	5.408133E-06
1.715386E+03	1.675478E-04	5.744100E-06
1.755278E+03	1.769728E-04	6.008315E-06
1.795171E+03	1.835207E-04	6.169012E-06
1.835064E+03	1.860308E-04	6.190445E-06
1.874956E+03	1.833659E-04	6.039291E-06
1.914849E+03	1.747593E-04	5.695902E-06
1.954742E+03	1.603529E-04	5.171070E-06
1.994634E+03	1.417612E-04	4.522423E-06
2.034527E+03	1.221980E-04	3.855837E-06
2.074420E+03	1.057149E-04	3.298876E-06
2.114312E+03	9.587716E-05	2.958399E-06
2.154205E+03	9.495117E-05	2.896640E-06
2.194098E+03	1.040948E-04	3.139203E-06
2.233991E+03	1.237781E-04	3.689566E-06
2.273883E+03	1.537115E-04	4.528208E-06
2.313776E+03	1.927548E-04	5.611296E-06
2.353669E+03	2.388799E-04	6.871093E-06
2.393561E+03	2.896904E-04	8.232289E-06
2.433454E+03	3.429767E-04	9.628206E-06
2.473347E+03	3.970306E-04	1.100919E-05
2.513239E+03	4.507084E-04	1.234348E-05
2.553132E+03	5.032732E-04	1.361194E-05
2.593025E+03	5.541072E-04	1.479968E-05
2.632917E+03	6.026189E-04	1.589342E-05
2.672810E+03	6.484190E-04	1.688587E-05
2.712703E+03	6.913692E-04	1.777655E-05
2.752596E+03	7.314650E-04	1.856850E-05
2.792488E+03	7.687752E-04	1.926656E-05
2.832381E+03	8.034163E-04	1.987669E-05
2.872274E+03	8.355421E-04	2.040560E-05
2.912166E+03	8.653315E-04	2.086041E-05
2.952059E+03	8.929811E-04	2.124851E-05
2.991952E+03	9.186976E-04	2.157728E-05
3.001925E+03	9.248500E-04	2.165107E-05
3.011898E+03	9.308986E-04	2.172174E-05
3.021871E+03	9.368461E-04	2.178937E-05
3.031844E+03	9.427539E-04	2.185544E-05
3.041818E+03	9.488275E-04	2.192470E-05
3.051791E+03	9.552822E-04	2.200209E-05
3.061764E+03	9.620545E-04	2.208608E-05
3.071737E+03	9.690910E-04	2.217539E-05
3.081710E+03	9.763385E-04	2.226875E-05
3.091683E+03	9.837535E-04	2.236516E-05
3.101657E+03	9.912908E-04	2.246356E-05
3.111630E+03	9.989143E-04	2.256313E-05
3.121603E+03	1.006589E-03	2.266307E-05
3.131576E+03	1.014286E-03	2.276275E-05
3.141549E+03	1.021975E-03	2.286150E-05
3.151522E+03	1.029632E-03	2.295882E-05
3.161496E+03	1.037235E-03	2.305421E-05
3.171469E+03	1.044765E-03	2.314732E-05
3.181442E+03	1.052208E-03	2.323784E-05
3.191415E+03	1.059548E-03	2.332550E-05
3.201388E+03	1.066776E-03	2.341010E-05
3.211361E+03	1.073878E-03	2.349143E-05
3.221335E+03	1.080850E-03	2.356940E-05
3.231308E+03	1.087683E-03	2.364389E-05
3.241281E+03	1.094377E-03	2.371495E-05
3.251254E+03	1.100926E-03	2.378249E-05
3.261227E+03	1.107331E-03	2.384662E-05
3.271200E+03	1.113595E-03	2.390740E-05
3.281174E+03	1.119714E-03	2.396485E-05
3.291147E+03	1.125691E-03	2.401908E-05
3.301120E+03	1.131535E-03	2.407030E-05
3.311093E+03	1.137244E-03	2.411857E-05
3.321066E+03	1.142823E-03	2.416400E-05
3.331040E+03	1.148279E-03	2.420681E-05
3.341013E+03	1.153615E-03	2.424711E-05
3.350986E+03	1.158834E-03	2.428502E-05
3.360959E+03	1.163941E-03	2.432070E-05
3.370932E+03	1.168932E-03	2.435410E-05
3.380905E+03	1.173809E-03	2.438531E-05
3.390879E+03	1.178562E-03	2.441417E-05
3.400852E+03	1.183186E-03	2.444066E-05
3.410825E+03	1.187674E-03	2.446464E-05
3.420798E+03	1.192013E-03	2.448591E-05
3.430771E+03	1.196189E-03	2.450427E-05
3.440744E+03	1.200193E-03	2.451955E-05
3.450718E+03	1.204006E-03	2.453145E-05
3.460691E+03	1.207612E-03	2.453968E-05
3.470664E+03	1.210997E-03	2.454403E-05
3.480637E+03	1.214155E-03	2.454443E-05
3.490610E+03	1.217086E-03	2.454090E-05
3.500583E+03	1.219787E-03	2.453349E-05
3.510557E+03	1.222266E-03	2.452234E-05
3.520530E+03	1.224525E-03	2.450758E-05
3.530503E+03	1.226583E-03	2.448963E-05
3.540476E+03	1.228455E-03	2.446881E-05
3.550449E+03	1.230153E-03	2.444544E-05
3.560422E+03	1.231709E-03	2.442013E-05
3.570396E+03	1.233164E-03	2.439378E-05
3.580369E+03	1.234564E-03	2.436729E-05
3.590342E+03	1.235965E-03	2.434178E-05
3.600315E+03	1.237397E-03	2.431781E-05
3.610288E+03	1.238872E-03	2.429561E-05
3.620261E+03	1.240421E-03	2.427577E-05
3.630235E+03	1.242076E-03	2.425889E-05
3.640208E+03	1.243868E-03	2.424550E-05
3.650181E+03	1.245828E-03	2.423624E-05
3.660154E+03	1.247988E-03	2.423166E-05
3.670127E+03	1.250371E-03	2.423217E-05
3.680101E+03	1.252996E-03	2.423810E-05
3.690074E+03	1.255882E-03	2.424979E-05
3.700047E+03	1.259038E-03	2.426734E-05
3.710020E+03	1.262466E-03	2.429078E-05
3.719993E+03	1.266171E-03	2.432016E-05
3.729966E+03	1.270129E-03	2.435499E-05
3.739940E+03	1.274333E-03	2.439507E-05
3.749913E+03	1.278754E-03	2.443983E-05
3.759886E+03	1.283350E-03	2.448844E-05
3.769859E+03	1.288087E-03	2.454022E-05
3.779832E+03	1.292921E-03	2.459432E-05
3.789805E+03	1.297813E-03	2.464999E-05
3.799779E+03	1.302722E-03	2.470639E-05
3.809752E+03	1.307627E-03	2.476316E-05
3.819725E+03	1.312513E-03	2.482000E-05
3.829698E+03	1.317389E-03	2.487706E-05
3.839671E+03	1.322268E-03	2.493458E-05
3.849644E+03	1.327191E-03	2.499332E-05
3.859618E+03	1.332198E-03	2.505404E-05
3.869591E+03	1.337342E-03	2.511769E-05
3.879564E+03	1.342680E-03	2.518534E-05
3.889537E+03	1.348263E-03	2.525794E-05
3.899510E+03	1.354138E-03	2.533631E-05
3.909483E+03	1.360330E-03	2.542092E-05
3.919457E+03	1.366865E-03	2.551219E-05
3.929430E+03	1.373763E-03	2.561052E-05
3.939403E+03	1.381017E-03	2.571570E-05
3.949376E+03	1.388628E-03	2.582776E-05
3.959349E+03	1.396590E-03	2.594652E-05
3.969323E+03	1.404870E-03	2.607139E-05
3.979296E+03	1.413446E-03	2.620192E-05
3.989269E+03	1.422280E-03	2.633736E-05
3.999242E+03	1.431304E-03	2.647649E-05
4.009215E+03	1.440435E-03	2.661772E-05
4.019188E+03	1.449581E-03	2.675938E-05
4.029162E+03	1.458625E-03	2.689928E-05
4.039135E+03	1.467427E-03	2.703487E-05
4.049108E+03	1.475849E-03	2.716362E-05
4.059081E+03	1.483756E-03	2.728304E-05
4.069054E+03	1.491009E-03	2.739066E-05
4.079027E+03	1.497516E-03	2.748479E-05
4.089001E+03	1.503196E-03	2.756398E-05
4.098974E+03	1.508018E-03	2.762771E-05
4.108947E+03	1.511992E-03	2.767621E-05
4.118920E+03	1.515183E-03	2.771070E-05
4.128893E+03	1.517693E-03	2.773310E-05
4.138866E+03	1.519665E-03	2.774603E-05
4.148840E+03	1.521283E-03	2.775287E-05
4.158813E+03	1.522728E-03	2.775697E-05
4.168786E+03	1.524221E-03	2.776230E-05
4.178759E+03	1.525955E-03	2.777242E-05
4.188732E+03	1.528139E-03	2.779111E-05
4.198705E+03	1.530943E-03	2.782144E-05
4.208679E+03	1.534518E-03	2.786612E-05
4.218652E+03	1.538967E-03	2.792701E-05
4.228625E+03	1.544349E-03	2.800514E-05
4.238598E+03	1.550653E-03	2.810028E-05
4.248571E+03	1.557817E-03	2.821128E-05
4.258545E+03	1.565742E-03	2.833633E-05
4.268518E+03	1.574220E-03	2.847166E-05
4.278491E+03	1.583043E-03	2.861348E-05
4.288464E+03	1.591934E-03	2.875681E-05
4.298437E+03	1.600640E-03	2.889707E-05
4.308410E+03	1.608900E-03	2.902958E-05
4.318384E+03	1.616485E-03	2.915024E-05
4.328357E+03	1.623340E-03	2.925806E-05
4.338330E+03	1.629442E-03	2.935270E-05
4.348303E+03	1.634847E-03	2.943516E-05
4.358276E+03	1.639617E-03	2.950654E-05
4.368249E+03	1.643782E-03	2.956737E-05
4.378223E+03	1.647379E-03	2.961829E-05
4.388196E+03	1.650460E-03	2.966022E-05
4.398169E+03	1.653094E-03	2.969436E-05
4.408142E+03	1.655357E-03	2.972209E-05
4.418115E+03	1.657371E-03	2.974554E-05
4.428088E+03	1.659274E-03	2.976716E-05
4.438062E+03	1.661194E-03	2.978923E-05
4.448035E+03	1.663268E-03	2.981416E-05
4.458008E+03	1.665625E-03	2.984424E-05
4.467981E+03	1.668369E-03	2.988126E-05
4.477954E+03	1.671578E-03	2.992661E-05
4.487927E+03	1.675315E-03	2.998136E-05
4.497901E+03	1.679591E-03	3.004566E-05
4.507874E+03	1.684376E-03	3.011893E-05
4.517847E+03	1.689626E-03	3.020035E-05
4.527820E+03	1.695250E-03	3.028824E-05
4.537793E+03	1.701097E-03	3.037985E-05
4.547767E+03	1.707035E-03	3.047283E-05
4.557740E+03	1.712880E-03	3.056383E-05
4.567713E+03	1.718444E-03	3.064946E-05
4.577686E+03	1.723560E-03	3.072675E-05
4.587659E+03	1.728028E-03	3.079210E-05
4.597632E+03	1.731710E-03	3.084303E-05
4.607606E+03	1.734509E-03	3.087782E-05
4.617579E+03	1.736338E-03	3.089491E-05
4.627552E+03	1.737214E-03	3.089460E-05
4.637525E+03	1.737221E-03	3.087839E-05
4.647498E+03	1.736495E-03	3.084870E-05
4.657471E+03	1.735224E-03	3.080883E-05
4.667445E+03	1.733611E-03	3.076243E-05
4.677418E+03	1.731880E-03	3.071343E-05
4.687391E+03	1.730261E-03	3.066589E-05
4.697364E+03	1.729008E-03	3.062431E-05
4.707337E+03	1.728322E-03	3.059220E-05
4.717310E+03	1.728379E-03	3.057264E-05
4.727284E+03	1.729322E-03	3.056810E-05
4.737257E+03	1.731220E-03	3.057976E-05
4.747230E+03	1.734091E-03	3.060788E-05
4.757203E+03	1.737887E-03	3.065155E-05
4.767176E+03	1.742505E-03	3.070892E-05
4.777149E+03	1.747775E-03	3.077692E-05
4.787123E+03	1.753466E-03	3.085144E-05
4.797096E+03	1.759331E-03	3.092811E-05
4.807069E+03	1.765104E-03	3.100221E-05
4.817042E+03	1.770494E-03	3.106864E-05
4.827015E+03	1.775253E-03	3.112303E-05
4.836989E+03	1.779127E-03	3.116097E-05
4.846962E+03	1.781939E-03	3.117938E-05
4.856935E+03	1.783511E-03	3.117521E-05
4.866908E+03	1.783784E-03	3.114745E-05
4.876881E+03	1.782676E-03	3.109474E-05
4.886854E+03	1.780203E-03	3.101746E-05
4.896828E+03	1.776401E-03	3.091628E-05
4.906801E+03	1.771353E-03	3.079275E-05
4.916774E+03	1.765169E-03	3.064884E-05
4.926747E+03	1.757946E-03	3.048632E-05
4.936720E+03	1.749853E-03	3.030818E-05
4.946693E+03	1.740994E-03	3.011628E-05
4.956667E+03	1.731539E-03	2.991365E-05
4.966640E+03	1.721603E-03	2.970229E-05
4.976613E+03	1.711320E-03	2.948459E-05
4.986586E+03	1.700819E-03	2.926277E-05
4.996559E+03	1.690215E-03	2.903890E-05
5.006532E+03	1.679592E-03	2.881439E-05
5.016506E+03	1.669062E-03	2.859119E-05
5.026479E+03	1.658714E-03	2.837085E-05
5.036452E+03	1.648598E-03	2.815423E-05
5.046425E+03	1.638796E-03	2.794271E-05
5.056398E+03	1.629362E-03	2.773724E-05
5.066371E+03	1.620313E-03	2.753805E-05
5.076345E+03	1.611705E-03	2.734612E-05
5.086318E+03	1.603513E-03	2.716099E-05
5.096291E+03	1.595770E-03	2.698320E-05
5.106264E+03	1.588452E-03	2.681233E-05
5.116237E+03	1.581524E-03	2.664777E-05
5.126210E+03	1.574957E-03	2.648901E-05
5.136184E+03	1.568710E-03	2.633538E-05
5.146157E+03	1.562727E-03	2.618589E-05
5.156130E+03	1.556989E-03	2.604024E-05
5.166103E+03	1.551406E-03	2.589693E-05
5.176076E+03	1.545950E-03	2.575547E-05
5.186050E+03	1.540564E-03	2.561496E-05
5.196023E+03	1.535228E-03	2.547504E-05
5.205996E+03	1.529897E-03	2.533501E-05
5.215969E+03	1.524546E-03	2.519448E-05
5.225942E+03	1.519157E-03	2.505316E-05
5.235915E+03	1.513703E-03	2.491063E-05
5.245889E+03	1.508174E-03	2.476679E-05
5.255862E+03	1.502579E-03	2.462176E-05
5.265835E+03	1.496884E-03	2.447508E-05
5.275808E+03	1.491111E-03	2.432708E-05
5.285781E+03	1.485282E-03	2.417821E-05
5.295754E+03	1.479374E-03	2.402808E-05
5.305728E+03	1.473453E-03	2.387782E-05
5.315701E+03	1.467513E-03	2.372734E-05
5.325674E+03	1.461581E-03	2.357712E-05
5.335647E+03	1.455702E-03	2.342790E-05
5.345620E+03	1.449899E-03	2.328006E-05
5.355593E+03	1.444184E-03	2.313383E-05
5.365567E+03	1.438597E-03	2.298985E-05
5.375540E+03	1.433142E-03	2.284820E-05
5.385513E+03	1.427851E-03	2.270938E-05
5.395486E+03	1.422785E-03	2.257439E-05
5.405459E+03	1.417980E-03	2.244378E-05
5.415432E+03	1.413557E-03	2.231948E-05
5.425406E+03	1.409425E-03	2.219999E-05
5.435379E+03	1.405521E-03	2.208428E-05
5.445352E+03	1.401778E-03	2.197129E-05
5.455325E+03	1.398199E-03	2.186100E-05
5.465298E+03	1.394769E-03	2.175317E-05
5.475272E+03	1.391500E-03	2.164795E-05
5.485245E+03	1.388425E-03	2.154583E-05
5.495218E+03	1.385588E-03	2.144743E-05
5.505191E+03	1.383019E-03	2.135320E-05
5.515164E+03	1.380770E-03	2.126389E-05
5.525137E+03	1.378880E-03	2.118006E-05
5.535111E+03	1.377363E-03	2.110186E-05
5.545084E+03	1.376204E-03	2.102902E-05
5.555057E+03	1.375412E-03	2.096161E-05
5.565030E+03	1.374953E-03	2.089907E-05
5.575003E+03	1.374775E-03	2.084057E-05
5.584976E+03	1.374860E-03	2.078579E-05
5.594950E+03	1.375146E-03	2.073375E-05
5.604923E+03	1.375591E-03	2.068381E-05
5.614896E+03	1.376198E-03	2.063597E-05
5.624869E+03	1.376934E-03	2.058972E-05
5.634842E+03	1.377811E-03	2.054520E-05
5.644815E+03	1.378851E-03	2.050275E-05
5.654789E+03	1.380107E-03	2.046311E-05
5.664762E+03	1.381595E-03	2.042649E-05
5.674735E+03	1.383425E-03	2.039449E-05
5.684708E+03	1.385655E-03	2.036791E-05
5.694681E+03	1.388355E-03	2.034772E-05
5.704654E+03	1.391617E-03	2.033521E-05
5.714628E+03	1.395511E-03	2.033135E-05
5.724601E+03	1.400090E-03	2.033678E-05
5.734574E+03	1.405372E-03	2.035171E-05
5.744547E+03	1.411385E-03	2.037646E-05
5.754520E+03	1.418060E-03	2.040992E-05
5.764494E+03	1.425334E-03	2.045111E-05
5.774467E+03	1.433060E-03	2.049786E-05
5.784440E+03	1.441099E-03	2.054813E-05
5.794413E+03	1.449267E-03	2.059929E-05
5.804386E+03	1.457358E-03	2.064838E-05
5.814359E+03	1.465174E-03	2.069263E-05
5.824333E+03	1.472502E-03	2.072911E-05
5.834306E+03	1.479111E-03	2.075466E-05
5.844279E+03	1.484840E-03	2.076712E-05
5.854252E+03	1.489533E-03	2.076449E-05
5.864225E+03	1.493095E-03	2.074558E-05
5.874198E+03	1.495442E-03	2.070942E-05
5.884172E+03	1.496540E-03	2.065574E-05
5.894145E+03	1.496441E-03	2.058543E-05
5.904118E+03	1.495171E-03	2.049905E-05
5.914091E+03	1.492764E-03	2.039727E-05
5.924064E+03	1.489283E-03	2.028111E-05
5.934037E+03	1.484828E-03	2.015214E-05
5.944011E+03	1.479458E-03	2.001129E-05
5.953984E+03	1.473229E-03	1.985948E-05
5.963957E+03	1.466276E-03	1.969870E-05
5.973930E+03	1.458645E-03	1.952968E-05
5.983903E+03	1.450477E-03	1.935441E-05
5.993876E+03	1.441850E-03	1.917408E-05
6.003850E+03	1.432892E-03	1.899045E-05
6.013823E+03	1.423683E-03	1.880468E-05
6.023796E+03	1.414332E-03	1.861825E-05
6.033769E+03	1.404878E-03	1.843174E-05
6.043742E+03	1.395425E-03	1.824655E-05
6.053716E+03	1.385985E-03	1.806290E-05
6.063689E+03	1.376618E-03	1.788156E-05
6.073662E+03	1.367311E-03	1.770242E-05
6.083635E+03	1.358081E-03	1.752574E-05
6.093608E+03	1.348960E-03	1.735192E-05
6.103581E+03	1.339896E-03	1.718032E-05
6.113555E+03	1.330888E-03	1.701099E-05
6.123528E+03	1.321937E-03	1.684396E-05
6.133501E+03	1.313044E-03	1.667924E-05
6.143474E+03	1.304167E-03	1.651637E-05
6.153447E+03	1.295327E-03	1.635562E-05
6.163420E+03	1.286504E-03	1.619679E-05
6.173394E+03	1.277722E-03	1.604019E-05
6.183367E+03	1.268957E-03	1.588556E-05
6.193340E+03	1.260264E-03	1.573362E-05
6.203313E+03	1.251664E-03	1.558467E-05
6.213286E+03	1.243197E-03	1.543920E-05
6.223259E+03	1.234902E-03	1.529773E-05
6.233233E+03	1.226823E-03	1.516082E-05
6.243206E+03	1.219032E-03	1.502935E-05
6.253179E+03	1.211601E-03	1.490423E-05
6.263152E+03	1.204554E-03	1.478574E-05
6.273125E+03	1.197979E-03	1.467497E-05
6.283098E+03	1.191971E-03	1.457307E-05
6.293072E+03	1.186640E-03	1.448137E-05
6.303045E+03	1.182167E-03	1.440207E-05
6.313018E+03	1.178782E-03	1.433795E-05
6.322991E+03	1.176765E-03	1.429238E-05
6.332964E+03	1.176363E-03	1.426833E-05
6.342937E+03	1.177885E-03	1.426951E-05
6.352911E+03	1.181602E-03	1.429920E-05
6.362884E+03	1.187740E-03	1.436009E-05
6.372857E+03	1.196553E-03	1.445525E-05
6.382830E+03	1.208186E-03	1.458645E-05
6.392803E+03	1.222711E-03	1.475455E-05
6.402777E+03	1.240149E-03	1.495975E-05
6.412750E+03	1.260403E-03	1.520089E-05
6.422723E+03	1.283219E-03	1.547494E-05
6.432696E+03	1.308249E-03	1.577772E-05
6.442669E+03	1.335009E-03	1.610348E-05
6.452642E+03	1.362983E-03	1.644606E-05
6.462616E+03	1.391520E-03	1.679769E-05
6.472589E+03	1.420109E-03	1.715225E-05
6.482562E+03	1.448333E-03	1.750475E-05
6.492535E+03	1.475946E-03	1.785226E-05
6.502508E+03	1.502935E-03	1.819465E-05
6.512481E+03	1.529534E-03	1.853475E-05
6.522455E+03	1.555363E-03	1.886796E-05
6.532428E+03	1.579143E-03	1.917875E-05
6.542401E+03	1.599723E-03	1.945304E-05
6.552374E+03	1.616180E-03	1.967943E-05
6.562347E+03	1.627808E-03	1.984909E-05
6.572320E+03	1.634272E-03	1.995764E-05
6.582294E+03	1.635511E-03	2.000399E-05
6.592267E+03	1.631572E-03	1.998836E-05
6.602240E+03	1.622867E-03	1.991540E-05
6.612213E+03	1.609840E-03	1.979020E-05
6.622186E+03	1.593038E-03	1.961912E-05
6.632159E+03	1.573113E-03	1.940984E-05
6.642133E+03	1.550682E-03	1.916968E-05
6.652106E+03	1.526441E-03	1.890697E-05
6.662079E+03	1.500894E-03	1.862774E-05
6.672052E+03	1.474666E-03	1.833957E-05
6.682025E+03	1.448190E-03	1.804770E-05
6.691999E+03	1.421876E-03	1.775715E-05
6.701972E+03	1.396100E-03	1.747256E-05
6.711945E+03	1.371127E-03	1.719722E-05
6.721918E+03	1.347208E-03	1.693425E-05
6.731891E+03	1.324465E-03	1.668525E-05
6.741864E+03	1.303084E-03	1.645258E-05
6.751838E+03	1.283125E-03	1.623706E-05
6.761811E+03	1.264668E-03	1.603978E-05
6.771784E+03	1.247691E-03	1.586056E-05
6.781757E+03	1.232219E-03	1.569977E-05
6.791730E+03	1.218229E-03	1.555724E-05
6.801703E+03	1.205692E-03	1.543268E-05
6.811677E+03	1.194561E-03	1.532560E-05
6.821650E+03	1.184787E-03	1.523545E-05
6.831623E+03	1.176291E-03	1.516133E-05
6.841596E+03	1.169042E-03	1.510291E-05
6.851569E+03	1.162959E-03	1.505924E-05
6.861542E+03	1.158007E-03	1.502997E-05
6.871516E+03	1.154126E-03	1.501439E-05
6.881489E+03	1.151208E-03	1.501118E-05
6.891462E+03	1.149261E-03	1.502050E-05
6.901435E+03	1.148143E-03	1.504060E-05
6.911408E+03	1.147830E-03	1.507122E-05
6.921381E+03	1.148201E-03	1.511082E-05
6.931355E+03	1.149219E-03	1.515899E-05
6.941328E+03	1.150775E-03	1.521432E-05
6.951301E+03	1.152781E-03	1.527570E-05
6.961274E+03	1.155122E-03	1.534164E-05
6.971247E+03	1.157752E-03	1.541157E-05
6.981221E+03	1.160535E-03	1.548369E-05
6.991194E+03	1.163414E-03	1.555725E-05
7.001167E+03	1.166312E-03	1.563123E-05
7.011140E+03	1.169134E-03	1.570438E-05
7.021113E+03	1.171828E-03	1.577598E-05
7.031086E+03	1.174371E-03	1.584572E-05
7.041060E+03	1.176724E-03	1.591307E-05
7.051033E+03	1.178831E-03	1.597728E-05
7.061006E+03	1.180669E-03	1.603799E-05
7.070979E+03	1.182218E-03	1.609494E-05
7.080952E+03	1.183465E-03	1.614794E-05
7.090925E+03	1.184401E-03	1.619686E-05
7.100899E+03	1.185050E-03	1.624201E-05
7.110872E+03	1.185355E-03	1.628259E-05
7.120845E+03	1.185343E-03	1.631897E-05
7.130818E+03	1.185042E-03	1.635153E-05
7.140791E+03	1.184376E-03	1.637920E-05
7.150764E+03	1.183426E-03	1.640311E-05
7.160738E+03	1.182147E-03	1.642261E-05
7.170711E+03	1.180574E-03	1.643819E-05
7.180684E+03	1.178690E-03	1.644961E-05
7.190657E+03	1.176536E-03	1.645745E-05
7.200630E+03	1.174105E-03	1.646159E-05
7.210603E+03	1.171418E-03	1.646233E-05
7.220577E+03	1.168525E-03	1.646038E-05
7.230550E+03	1.165424E-03	1.645572E-05
7.240523E+03	1.162140E-03	1.644871E-05
7.250496E+03	1.158727E-03	1.644012E-05
7.260469E+03	1.155154E-03	1.642953E-05
7.270443E+03	1.151469E-03	1.641764E-05
7.280416E+03	1.147700E-03	1.640484E-05
7.290389E+03	1.143867E-03	1.639148E-05
7.300362E+03	1.139995E-03	1.637790E-05
7.310335E+03	1.136107E-03	1.636447E-05
7.320308E+03	1.132191E-03	1.635106E-05
7.330282E+03	1.128263E-03	1.633791E-05
7.340255E+03	1.124357E-03	1.632554E-05
7.350228E+03	1.120479E-03	1.631406E-05
7.360201E+03	1.116572E-03	1.630270E-05
7.370174E+03	1.112684E-03	1.629216E-05
7.380147E+03	1.108778E-03	1.628195E-05
7.390121E+03	1.104843E-03	1.627190E-05
7.400094E+03	1.100840E-03	1.626149E-05
7.410067E+03	1.096813E-03	1.625139E-05
7.420040E+03	1.092708E-03	1.624078E-05
7.430013E+03	1.088552E-03	1.623012E-05
7.439986E+03	1.084353E-03	1.621952E-05
7.449960E+03	1.080096E-03	1.620878E-05
7.459933E+03	1.075851E-03	1.619890E-05
7.469906E+03	1.071577E-03	1.618925E-05
7.479879E+03	1.067339E-03	1.618079E-05
7.489852E+03	1.063116E-03	1.617318E-05
7.499825E+03	1.058915E-03	1.616651E-05
7.509799E+03	1.054781E-03	1.616148E-05
7.519772E+03	1.050712E-03	1.615803E-05
7.529745E+03	1.046769E-03	1.615710E-05
7.539718E+03	1.042990E-03	1.615929E-05
7.549691E+03	1.039420E-03	1.616529E-05
7.559665E+03	1.036097E-03	1.617573E-05
7.569638E+03	1.033034E-03	1.619083E-05
7.579611E+03	1.030319E-03	1.621204E-05
7.589584E+03	1.027954E-03	1.623940E-05
7.599557E+03	1.025987E-03	1.627376E-05
7.609530E+03	1.024382E-03	1.631460E-05
7.619504E+03	1.023206E-03	1.636304E-05
7.629477E+03	1.022437E-03	1.641884E-05
7.639450E+03	1.022106E-03	1.648254E-05
7.649423E+03	1.022187E-03	1.655382E-05
7.659396E+03	1.022703E-03	1.663314E-05
7.669369E+03	1.023617E-03	1.671996E-05
7.679343E+03	1.024907E-03	1.681404E-05
7.689316E+03	1.026575E-03	1.691545E-05
7.699289E+03	1.028582E-03	1.702368E-05
7.709262E+03	1.030857E-03	1.713759E-05
7.719235E+03	1.033376E-03	1.725686E-05
7.729208E+03	1.036055E-03	1.738013E-05
7.739182E+03	1.038864E-03	1.750695E-05
