#wls	flux	fluxerr
1.595708E+03	1.186902E-05	6.245336E-07
1.635600E+03	1.240405E-05	6.486644E-07
1.675493E+03	1.279388E-05	6.648167E-07
1.715386E+03	1.302125E-05	6.722352E-07
1.755278E+03	1.306755E-05	6.701235E-07
1.795171E+03	1.289378E-05	6.566819E-07
1.835064E+03	1.245915E-05	6.300817E-07
1.874956E+03	1.173496E-05	5.891707E-07
1.914849E+03	1.071916E-05	5.341786E-07
1.954742E+03	9.461511E-06	4.679139E-07
1.994634E+03	8.082822E-06	3.966056E-07
2.034527E+03	6.770283E-06	3.295351E-07
2.074420E+03	5.729560E-06	2.765804E-07
2.114312E+03	5.122930E-06	2.452040E-07
2.154205E+03	5.044128E-06	2.393347E-07
2.194098E+03	5.548337E-06	2.609108E-07
2.233991E+03	6.686590E-06	3.115587E-07
2.273883E+03	8.503778E-06	3.925068E-07
2.313776E+03	1.102055E-05	5.037674E-07
2.353669E+03	1.422433E-05	6.437822E-07
2.393561E+03	1.807914E-05	8.099382E-07
2.433454E+03	2.254377E-05	9.994275E-07
2.473347E+03	2.758065E-05	1.209653E-06
2.513239E+03	3.315968E-05	1.438392E-06
2.553132E+03	3.925735E-05	1.683739E-06
2.593025E+03	4.585263E-05	1.943921E-06
2.632917E+03	5.292825E-05	2.217348E-06
2.672810E+03	6.047323E-05	2.502710E-06
2.712703E+03	6.848889E-05	2.799210E-06
2.752596E+03	7.699184E-05	3.106655E-06
2.792488E+03	8.600928E-05	3.425231E-06
2.832381E+03	9.558599E-05	3.755749E-06
2.872274E+03	1.057711E-04	4.099091E-06
2.912166E+03	1.166213E-04	4.456310E-06
2.952059E+03	1.281941E-04	4.828380E-06
2.991952E+03	1.405551E-04	5.216439E-06
3.001925E+03	1.437747E-04	5.316020E-06
3.011898E+03	1.470483E-04	5.416662E-06
3.021871E+03	1.503789E-04	5.518455E-06
3.031844E+03	1.537721E-04	5.621579E-06
3.041818E+03	1.572651E-04	5.727357E-06
3.051791E+03	1.608961E-04	5.837139E-06
3.061764E+03	1.646588E-04	5.950633E-06
3.071737E+03	1.685471E-04	6.067569E-06
3.081710E+03	1.725553E-04	6.187684E-06
3.091683E+03	1.766781E-04	6.310742E-06
3.101657E+03	1.809105E-04	6.436514E-06
3.111630E+03	1.852451E-04	6.564692E-06
3.121603E+03	1.896800E-04	6.695162E-06
3.131576E+03	1.942083E-04	6.827649E-06
3.141549E+03	1.988261E-04	6.961967E-06
3.151522E+03	2.035296E-04	7.097953E-06
3.161496E+03	2.083128E-04	7.235356E-06
3.171469E+03	2.131749E-04	7.374125E-06
3.181442E+03	2.181079E-04	7.513943E-06
3.191415E+03	2.231116E-04	7.654781E-06
3.201388E+03	2.281810E-04	7.796437E-06
3.211361E+03	2.333110E-04	7.938710E-06
3.221335E+03	2.385000E-04	8.081525E-06
3.231308E+03	2.437462E-04	8.224797E-06
3.241281E+03	2.490456E-04	8.368372E-06
3.251254E+03	2.543943E-04	8.512099E-06
3.261227E+03	2.597887E-04	8.655842E-06
3.271200E+03	2.652284E-04	8.799573E-06
3.281174E+03	2.707136E-04	8.943276E-06
3.291147E+03	2.762351E-04	9.086645E-06
3.301120E+03	2.817968E-04	9.229792E-06
3.311093E+03	2.873967E-04	9.372637E-06
3.321066E+03	2.930295E-04	9.515002E-06
3.331040E+03	2.986937E-04	9.656830E-06
3.341013E+03	3.043878E-04	9.798066E-06
3.350986E+03	3.101138E-04	9.938770E-06
3.360959E+03	3.158675E-04	1.007880E-05
3.370932E+03	3.216482E-04	1.021813E-05
3.380905E+03	3.274551E-04	1.035674E-05
3.390879E+03	3.332839E-04	1.049448E-05
3.400852E+03	3.391338E-04	1.063133E-05
3.410825E+03	3.450033E-04	1.076725E-05
3.420798E+03	3.508907E-04	1.090218E-05
3.430771E+03	3.567896E-04	1.103594E-05
3.440744E+03	3.626999E-04	1.116852E-05
3.450718E+03	3.686091E-04	1.129955E-05
3.460691E+03	3.745097E-04	1.142882E-05
3.470664E+03	3.803946E-04	1.155612E-05
3.480637E+03	3.862495E-04	1.168105E-05
3.490610E+03	3.920502E-04	1.180290E-05
3.500583E+03	3.977834E-04	1.192131E-05
3.510557E+03	4.034272E-04	1.203568E-05
3.520530E+03	4.089544E-04	1.214524E-05
3.530503E+03	4.143477E-04	1.224955E-05
3.540476E+03	4.195825E-04	1.234796E-05
3.550449E+03	4.246422E-04	1.244006E-05
3.560422E+03	4.295081E-04	1.252540E-05
3.570396E+03	4.341618E-04	1.260353E-05
3.580369E+03	4.385971E-04	1.267439E-05
3.590342E+03	4.428133E-04	1.273805E-05
3.600315E+03	4.468216E-04	1.279493E-05
3.610288E+03	4.506434E-04	1.284576E-05
3.620261E+03	4.543156E-04	1.289167E-05
3.630235E+03	4.578654E-04	1.293351E-05
3.640208E+03	4.613349E-04	1.297252E-05
3.650181E+03	4.647676E-04	1.300995E-05
3.660154E+03	4.682034E-04	1.304695E-05
3.670127E+03	4.716763E-04	1.308446E-05
3.680101E+03	4.752334E-04	1.312378E-05
3.690074E+03	4.789001E-04	1.316560E-05
3.700047E+03	4.827102E-04	1.321079E-05
3.710020E+03	4.866910E-04	1.326008E-05
3.719993E+03	4.908713E-04	1.331418E-05
3.729966E+03	4.952768E-04	1.337373E-05
3.739940E+03	4.999205E-04	1.343902E-05
3.749913E+03	5.048248E-04	1.351056E-05
3.759886E+03	5.100153E-04	1.358898E-05
3.769859E+03	5.155017E-04	1.367443E-05
3.779832E+03	5.213090E-04	1.376750E-05
3.789805E+03	5.274553E-04	1.386856E-05
3.799779E+03	5.339545E-04	1.397788E-05
3.809752E+03	5.408288E-04	1.409594E-05
3.819725E+03	5.480999E-04	1.422320E-05
3.829698E+03	5.557799E-04	1.435986E-05
3.839671E+03	5.638871E-04	1.450628E-05
3.849644E+03	5.724270E-04	1.466249E-05
3.859618E+03	5.814123E-04	1.482870E-05
3.869591E+03	5.908403E-04	1.500472E-05
3.879564E+03	6.006937E-04	1.519001E-05
3.889537E+03	6.109496E-04	1.538390E-05
3.899510E+03	6.215819E-04	1.558562E-05
3.909483E+03	6.325386E-04	1.579382E-05
3.919457E+03	6.437650E-04	1.600707E-05
3.929430E+03	6.551811E-04	1.622335E-05
3.939403E+03	6.667219E-04	1.644105E-05
3.949376E+03	6.782919E-04	1.665783E-05
3.959349E+03	6.898127E-04	1.687181E-05
3.969323E+03	7.011920E-04	1.708082E-05
3.979296E+03	7.123470E-04	1.728294E-05
3.989269E+03	7.232018E-04	1.747645E-05
3.999242E+03	7.336954E-04	1.766002E-05
4.009215E+03	7.437723E-04	1.783249E-05
4.019188E+03	7.533811E-04	1.799279E-05
4.029162E+03	7.624909E-04	1.814037E-05
4.039135E+03	7.710798E-04	1.827491E-05
4.049108E+03	7.791172E-04	1.839588E-05
4.059081E+03	7.866019E-04	1.850344E-05
4.069054E+03	7.935186E-04	1.859743E-05
4.079027E+03	7.998834E-04	1.867843E-05
4.089001E+03	8.057054E-04	1.874683E-05
4.098974E+03	8.110161E-04	1.880355E-05
4.108947E+03	8.158473E-04	1.884949E-05
4.118920E+03	8.202498E-04	1.888599E-05
4.128893E+03	8.242864E-04	1.891464E-05
4.138866E+03	8.280384E-04	1.893741E-05
4.148840E+03	8.315790E-04	1.895609E-05
4.158813E+03	8.350208E-04	1.897332E-05
4.168786E+03	8.384472E-04	1.899106E-05
4.178759E+03	8.419699E-04	1.901188E-05
4.188732E+03	8.457031E-04	1.903836E-05
4.198705E+03	8.497483E-04	1.907279E-05
4.208679E+03	8.542110E-04	1.911752E-05
4.218652E+03	8.591886E-04	1.917468E-05
4.228625E+03	8.647663E-04	1.924614E-05
4.238598E+03	8.710113E-04	1.933333E-05
4.248571E+03	8.779666E-04	1.943715E-05
4.258545E+03	8.856513E-04	1.955796E-05
4.268518E+03	8.940342E-04	1.969504E-05
4.278491E+03	9.030482E-04	1.984685E-05
4.288464E+03	9.125857E-04	2.001104E-05
4.298437E+03	9.224838E-04	2.018405E-05
4.308410E+03	9.325317E-04	2.036131E-05
4.318384E+03	9.425119E-04	2.053816E-05
4.328357E+03	9.521739E-04	2.070925E-05
4.338330E+03	9.612770E-04	2.086947E-05
4.348303E+03	9.696103E-04	2.101443E-05
4.358276E+03	9.769991E-04	2.114050E-05
4.368249E+03	9.833302E-04	2.124541E-05
4.378223E+03	9.885644E-04	2.132850E-05
4.388196E+03	9.927667E-04	2.139132E-05
4.398169E+03	9.961089E-04	2.143772E-05
4.408142E+03	9.988398E-04	2.147313E-05
4.418115E+03	1.001335E-03	2.150569E-05
4.428088E+03	1.003991E-03	2.154392E-05
4.438062E+03	1.007284E-03	2.159801E-05
4.448035E+03	1.011666E-03	2.167753E-05
4.458008E+03	1.017594E-03	2.179228E-05
4.467981E+03	1.025448E-03	2.195024E-05
4.477954E+03	1.035565E-03	2.215860E-05
4.487927E+03	1.048152E-03	2.242175E-05
4.497901E+03	1.063335E-03	2.274233E-05
4.507874E+03	1.081122E-03	2.312052E-05
4.517847E+03	1.101391E-03	2.355375E-05
4.527820E+03	1.123939E-03	2.403771E-05
4.537793E+03	1.148438E-03	2.456548E-05
4.547767E+03	1.174484E-03	2.512848E-05
4.557740E+03	1.201629E-03	2.571719E-05
4.567713E+03	1.229353E-03	2.632062E-05
4.577686E+03	1.257138E-03	2.692768E-05
4.587659E+03	1.284466E-03	2.752739E-05
4.597632E+03	1.310836E-03	2.810899E-05
4.607606E+03	1.335837E-03	2.866369E-05
4.617579E+03	1.359081E-03	2.918313E-05
4.627552E+03	1.380314E-03	2.966179E-05
4.637525E+03	1.399370E-03	3.009598E-05
4.647498E+03	1.416159E-03	3.048366E-05
4.657471E+03	1.430720E-03	3.082555E-05
4.667445E+03	1.443160E-03	3.112375E-05
4.677418E+03	1.453658E-03	3.138200E-05
4.687391E+03	1.462469E-03	3.160561E-05
4.697364E+03	1.469848E-03	3.179992E-05
4.707337E+03	1.476136E-03	3.197220E-05
4.717310E+03	1.481642E-03	3.212901E-05
4.727284E+03	1.486697E-03	3.227738E-05
4.737257E+03	1.491594E-03	3.242362E-05
4.747230E+03	1.496591E-03	3.257327E-05
4.757203E+03	1.501909E-03	3.273111E-05
4.767176E+03	1.507714E-03	3.290068E-05
4.777149E+03	1.514091E-03	3.308388E-05
4.787123E+03	1.521080E-03	3.328153E-05
4.797096E+03	1.528661E-03	3.349322E-05
4.807069E+03	1.536763E-03	3.371739E-05
4.817042E+03	1.545274E-03	3.395157E-05
4.827015E+03	1.554040E-03	3.419234E-05
4.836989E+03	1.562911E-03	3.443640E-05
4.846962E+03	1.571730E-03	3.468023E-05
4.856935E+03	1.580301E-03	3.491941E-05
4.866908E+03	1.588485E-03	3.515083E-05
4.876881E+03	1.596134E-03	3.537110E-05
4.886854E+03	1.603120E-03	3.557728E-05
4.896828E+03	1.609341E-03	3.576700E-05
4.906801E+03	1.614723E-03	3.593847E-05
4.916774E+03	1.619248E-03	3.609115E-05
4.926747E+03	1.622867E-03	3.622382E-05
4.936720E+03	1.625624E-03	3.633737E-05
4.946693E+03	1.627515E-03	3.643150E-05
4.956667E+03	1.628601E-03	3.650750E-05
4.966640E+03	1.628914E-03	3.656596E-05
4.976613E+03	1.628522E-03	3.660829E-05
4.986586E+03	1.627500E-03	3.663606E-05
4.996559E+03	1.625901E-03	3.665038E-05
5.006532E+03	1.623831E-03	3.665356E-05
5.016506E+03	1.621366E-03	3.664721E-05
5.026479E+03	1.618609E-03	3.663360E-05
5.036452E+03	1.615704E-03	3.661595E-05
5.046425E+03	1.612768E-03	3.659685E-05
5.056398E+03	1.609952E-03	3.657971E-05
5.066371E+03	1.607378E-03	3.656731E-05
5.076345E+03	1.605207E-03	3.656326E-05
5.086318E+03	1.603553E-03	3.657022E-05
5.096291E+03	1.602513E-03	3.659039E-05
5.106264E+03	1.602139E-03	3.662498E-05
5.116237E+03	1.602499E-03	3.667561E-05
5.126210E+03	1.603600E-03	3.674247E-05
5.136184E+03	1.605423E-03	3.682513E-05
5.146157E+03	1.607905E-03	3.692218E-05
5.156130E+03	1.611007E-03	3.703277E-05
5.166103E+03	1.614645E-03	3.715497E-05
5.176076E+03	1.618707E-03	3.728624E-05
5.186050E+03	1.623124E-03	3.742495E-05
5.196023E+03	1.627774E-03	3.756833E-05
5.205996E+03	1.632554E-03	3.771397E-05
5.215969E+03	1.637355E-03	3.785934E-05
5.225942E+03	1.642099E-03	3.800263E-05
5.235915E+03	1.646645E-03	3.814053E-05
5.245889E+03	1.650893E-03	3.827070E-05
5.255862E+03	1.654727E-03	3.839039E-05
5.265835E+03	1.658043E-03	3.849720E-05
5.275808E+03	1.660711E-03	3.858802E-05
5.285781E+03	1.662620E-03	3.866025E-05
5.295754E+03	1.663703E-03	3.871225E-05
5.305728E+03	1.663826E-03	3.874089E-05
5.315701E+03	1.662974E-03	3.874577E-05
5.325674E+03	1.661091E-03	3.872551E-05
5.335647E+03	1.658146E-03	3.867936E-05
5.345620E+03	1.654185E-03	3.860837E-05
5.355593E+03	1.649234E-03	3.851309E-05
5.365567E+03	1.643342E-03	3.839465E-05
5.375540E+03	1.636631E-03	3.825587E-05
5.385513E+03	1.629207E-03	3.809924E-05
5.395486E+03	1.621157E-03	3.792679E-05
5.405459E+03	1.612629E-03	3.774193E-05
5.415432E+03	1.603736E-03	3.754737E-05
5.425406E+03	1.594607E-03	3.734615E-05
5.435379E+03	1.585334E-03	3.714038E-05
5.445352E+03	1.576023E-03	3.693263E-05
5.455325E+03	1.566770E-03	3.672508E-05
5.465298E+03	1.557679E-03	3.652022E-05
5.475272E+03	1.548774E-03	3.631861E-05
5.485245E+03	1.540109E-03	3.612152E-05
5.495218E+03	1.531704E-03	3.592940E-05
5.505191E+03	1.523535E-03	3.574177E-05
5.515164E+03	1.515636E-03	3.555936E-05
5.525137E+03	1.507959E-03	3.538108E-05
5.535111E+03	1.500518E-03	3.520728E-05
5.545084E+03	1.493318E-03	3.503805E-05
5.555057E+03	1.486365E-03	3.487358E-05
5.565030E+03	1.479628E-03	3.471315E-05
5.575003E+03	1.473172E-03	3.455826E-05
5.584976E+03	1.466975E-03	3.440839E-05
5.594950E+03	1.461092E-03	3.426489E-05
5.604923E+03	1.455523E-03	3.412774E-05
5.614896E+03	1.450286E-03	3.399734E-05
5.624869E+03	1.445440E-03	3.387512E-05
5.634842E+03	1.440992E-03	3.376121E-05
5.644815E+03	1.436974E-03	3.365639E-05
5.654789E+03	1.433408E-03	3.356115E-05
5.664762E+03	1.430344E-03	3.347667E-05
5.674735E+03	1.427803E-03	3.340345E-05
5.684708E+03	1.425809E-03	3.334200E-05
5.694681E+03	1.424411E-03	3.329350E-05
5.704654E+03	1.423630E-03	3.325839E-05
5.714628E+03	1.423482E-03	3.323706E-05
5.724601E+03	1.423996E-03	3.323015E-05
5.734574E+03	1.425209E-03	3.323851E-05
5.744547E+03	1.427109E-03	3.326180E-05
5.754520E+03	1.429704E-03	3.330023E-05
5.764494E+03	1.432996E-03	3.335379E-05
5.774467E+03	1.436977E-03	3.342226E-05
5.784440E+03	1.441616E-03	3.350490E-05
5.794413E+03	1.446872E-03	3.360072E-05
5.804386E+03	1.452742E-03	3.370959E-05
5.814359E+03	1.459138E-03	3.382945E-05
5.824333E+03	1.466038E-03	3.395977E-05
5.834306E+03	1.473355E-03	3.409850E-05
5.844279E+03	1.481041E-03	3.424448E-05
5.854252E+03	1.489011E-03	3.439576E-05
5.864225E+03	1.497192E-03	3.455063E-05
5.874198E+03	1.505494E-03	3.470699E-05
5.884172E+03	1.513841E-03	3.486307E-05
5.894145E+03	1.522157E-03	3.501714E-05
5.904118E+03	1.530367E-03	3.516746E-05
5.914091E+03	1.538382E-03	3.531204E-05
5.924064E+03	1.546150E-03	3.544970E-05
5.934037E+03	1.553575E-03	3.557823E-05
5.944011E+03	1.560612E-03	3.569668E-05
5.953984E+03	1.567207E-03	3.580387E-05
5.963957E+03	1.573296E-03	3.589833E-05
5.973930E+03	1.578833E-03	3.597915E-05
5.983903E+03	1.583782E-03	3.604550E-05
5.993876E+03	1.588107E-03	3.609670E-05
6.003850E+03	1.591779E-03	3.613212E-05
6.013823E+03	1.594753E-03	3.615087E-05
6.023796E+03	1.597024E-03	3.615289E-05
6.033769E+03	1.598553E-03	3.613740E-05
6.043742E+03	1.599338E-03	3.610446E-05
6.053716E+03	1.599362E-03	3.605378E-05
6.063689E+03	1.598591E-03	3.598473E-05
6.073662E+03	1.597050E-03	3.589794E-05
6.083635E+03	1.594692E-03	3.579250E-05
6.093608E+03	1.591548E-03	3.566922E-05
6.103581E+03	1.587619E-03	3.552823E-05
6.113555E+03	1.582932E-03	3.537023E-05
6.123528E+03	1.577482E-03	3.519527E-05
6.133501E+03	1.571332E-03	3.500485E-05
6.143474E+03	1.564521E-03	3.479993E-05
6.153447E+03	1.557114E-03	3.458212E-05
6.163420E+03	1.549178E-03	3.435294E-05
6.173394E+03	1.540828E-03	3.411507E-05
6.183367E+03	1.532159E-03	3.387070E-05
6.193340E+03	1.523286E-03	3.362244E-05
6.203313E+03	1.514361E-03	3.337367E-05
6.213286E+03	1.505537E-03	3.312785E-05
6.223259E+03	1.496972E-03	3.288844E-05
6.233233E+03	1.488899E-03	3.266061E-05
6.243206E+03	1.481521E-03	3.244877E-05
6.253179E+03	1.475118E-03	3.225901E-05
6.263152E+03	1.469956E-03	3.209707E-05
6.273125E+03	1.466321E-03	3.196916E-05
6.283098E+03	1.464563E-03	3.188272E-05
6.293072E+03	1.464996E-03	3.184447E-05
6.303045E+03	1.468016E-03	3.186283E-05
6.313018E+03	1.474008E-03	3.194595E-05
6.322991E+03	1.483407E-03	3.210300E-05
6.332964E+03	1.496662E-03	3.234346E-05
6.342937E+03	1.514321E-03	3.267881E-05
6.352911E+03	1.536873E-03	3.311929E-05
6.362884E+03	1.564911E-03	3.367730E-05
6.372857E+03	1.599089E-03	3.436651E-05
6.382830E+03	1.640033E-03	3.519991E-05
6.392803E+03	1.688425E-03	3.619170E-05
6.402777E+03	1.744892E-03	3.735482E-05
6.412750E+03	1.810073E-03	3.870246E-05
6.422723E+03	1.884449E-03	4.024439E-05
6.432696E+03	1.968296E-03	4.198600E-05
6.442669E+03	2.061648E-03	4.392760E-05
6.452642E+03	2.164211E-03	4.606245E-05
6.462616E+03	2.275224E-03	4.837393E-05
6.472589E+03	2.393408E-03	5.083448E-05
6.482562E+03	2.516820E-03	5.340263E-05
6.492535E+03	2.643094E-03	5.602812E-05
6.502508E+03	2.769096E-03	5.864461E-05
6.512481E+03	2.891427E-03	6.118035E-05
6.522455E+03	3.006288E-03	6.355544E-05
6.532428E+03	3.109911E-03	6.569084E-05
6.542401E+03	3.198835E-03	6.751422E-05
6.552374E+03	3.270124E-03	6.896453E-05
6.562347E+03	3.321677E-03	6.999840E-05
6.572320E+03	3.352432E-03	7.059445E-05
6.582294E+03	3.362048E-03	7.074642E-05
6.592267E+03	3.351276E-03	7.047103E-05
6.602240E+03	3.321634E-03	6.980097E-05
6.612213E+03	3.275079E-03	6.877804E-05
6.622186E+03	3.214112E-03	6.745529E-05
6.632159E+03	3.141337E-03	6.588777E-05
6.642133E+03	3.059492E-03	6.413317E-05
6.652106E+03	2.971118E-03	6.224491E-05
6.662079E+03	2.878647E-03	6.027403E-05
6.672052E+03	2.784109E-03	5.826298E-05
6.682025E+03	2.689371E-03	5.625076E-05
6.691999E+03	2.595943E-03	5.426879E-05
6.701972E+03	2.505034E-03	5.234220E-05
6.711945E+03	2.417539E-03	5.048943E-05
6.721918E+03	2.334182E-03	4.872545E-05
6.731891E+03	2.255398E-03	4.705908E-05
6.741864E+03	2.181447E-03	4.549553E-05
6.751838E+03	2.112547E-03	4.403913E-05
6.761811E+03	2.048692E-03	4.268956E-05
6.771784E+03	1.989821E-03	4.144533E-05
6.781757E+03	1.935774E-03	4.030294E-05
6.791730E+03	1.886375E-03	3.925855E-05
6.801703E+03	1.841443E-03	3.830825E-05
6.811677E+03	1.800715E-03	3.744640E-05
6.821650E+03	1.763946E-03	3.666777E-05
6.831623E+03	1.730883E-03	3.596700E-05
6.841596E+03	1.701246E-03	3.533816E-05
6.851569E+03	1.674842E-03	3.477712E-05
6.861542E+03	1.651368E-03	3.427752E-05
6.871516E+03	1.630586E-03	3.383437E-05
6.881489E+03	1.612268E-03	3.344282E-05
6.891462E+03	1.596219E-03	3.309879E-05
6.901435E+03	1.582200E-03	3.279727E-05
6.911408E+03	1.569983E-03	3.253349E-05
6.921381E+03	1.559405E-03	3.230403E-05
6.931355E+03	1.550286E-03	3.210514E-05
6.941328E+03	1.542430E-03	3.193274E-05
6.951301E+03	1.535708E-03	3.178412E-05
6.961274E+03	1.529947E-03	3.165567E-05
6.971247E+03	1.525010E-03	3.154460E-05
6.981221E+03	1.520774E-03	3.144831E-05
6.991194E+03	1.517124E-03	3.136446E-05
7.001167E+03	1.513957E-03	3.129090E-05
7.011140E+03	1.511154E-03	3.122518E-05
7.021113E+03	1.508658E-03	3.116612E-05
7.031086E+03	1.506370E-03	3.111170E-05
7.041060E+03	1.504252E-03	3.106117E-05
7.051033E+03	1.502225E-03	3.101288E-05
7.061006E+03	1.500242E-03	3.096591E-05
7.070979E+03	1.498268E-03	3.091953E-05
7.080952E+03	1.496272E-03	3.087315E-05
7.090925E+03	1.494233E-03	3.082634E-05
7.100899E+03	1.492135E-03	3.077880E-05
7.110872E+03	1.489940E-03	3.072978E-05
7.120845E+03	1.487668E-03	3.067975E-05
7.130818E+03	1.485319E-03	3.062867E-05
7.140791E+03	1.482838E-03	3.057550E-05
7.150764E+03	1.480309E-03	3.052198E-05
7.160738E+03	1.477655E-03	3.046656E-05
7.170711E+03	1.474936E-03	3.041050E-05
7.180684E+03	1.472132E-03	3.035342E-05
7.190657E+03	1.469248E-03	3.029548E-05
7.200630E+03	1.466294E-03	3.023689E-05
7.210603E+03	1.463275E-03	3.017783E-05
7.220577E+03	1.460200E-03	3.011849E-05
7.230550E+03	1.457050E-03	3.005852E-05
7.240523E+03	1.453886E-03	2.999923E-05
7.250496E+03	1.450689E-03	2.994024E-05
7.260469E+03	1.447438E-03	2.988119E-05
7.270443E+03	1.444195E-03	2.982338E-05
7.280416E+03	1.440912E-03	2.976585E-05
7.290389E+03	1.437621E-03	2.970935E-05
7.300362E+03	1.434330E-03	2.965402E-05
7.310335E+03	1.431043E-03	2.960002E-05
7.320308E+03	1.427765E-03	2.954751E-05
7.330282E+03	1.424470E-03	2.949598E-05
7.340255E+03	1.421214E-03	2.944663E-05
7.350228E+03	1.417967E-03	2.939886E-05
7.360201E+03	1.414718E-03	2.935255E-05
7.370174E+03	1.411483E-03	2.930800E-05
7.380147E+03	1.408214E-03	2.926431E-05
7.390121E+03	1.404885E-03	2.922095E-05
7.400094E+03	1.401520E-03	2.917850E-05
7.410067E+03	1.398059E-03	2.913570E-05
7.420040E+03	1.394464E-03	2.909184E-05
7.430013E+03	1.390732E-03	2.904685E-05
7.439986E+03	1.386833E-03	2.900015E-05
7.449960E+03	1.382746E-03	2.895132E-05
7.459933E+03	1.378461E-03	2.890010E-05
7.469906E+03	1.373978E-03	2.884644E-05
7.479879E+03	1.369278E-03	2.878992E-05
7.489852E+03	1.364374E-03	2.873077E-05
7.499825E+03	1.359313E-03	2.866994E-05
7.509799E+03	1.354067E-03	2.860679E-05
7.519772E+03	1.348731E-03	2.854330E-05
7.529745E+03	1.343309E-03	2.847950E-05
7.539718E+03	1.337906E-03	2.841758E-05
7.549691E+03	1.332608E-03	2.835939E-05
7.559665E+03	1.327484E-03	2.830633E-05
7.569638E+03	1.322657E-03	2.826107E-05
7.579611E+03	1.318253E-03	2.822631E-05
7.589584E+03	1.314309E-03	2.820291E-05
7.599557E+03	1.310941E-03	2.819335E-05
7.609530E+03	1.308225E-03	2.819940E-05
7.619504E+03	1.306227E-03	2.822254E-05
7.629477E+03	1.305027E-03	2.826462E-05
7.639450E+03	1.304607E-03	2.832533E-05
7.649423E+03	1.305041E-03	2.840646E-05
7.659396E+03	1.306336E-03	2.850827E-05
7.669369E+03	1.308450E-03	2.863002E-05
7.679343E+03	1.311358E-03	2.877129E-05
7.689316E+03	1.315074E-03	2.893257E-05
7.699289E+03	1.319483E-03	2.911148E-05
7.709262E+03	1.324541E-03	2.930719E-05
7.719235E+03	1.330131E-03	2.951727E-05
7.729208E+03	1.336215E-03	2.974098E-05
7.739182E+03	1.342656E-03	2.997542E-05
