#wls	flux	fluxerr
1.595708E+03	9.969582E-07	5.793220E-08
1.635600E+03	1.036026E-06	6.014182E-08
1.675493E+03	1.064935E-06	6.175618E-08
1.715386E+03	1.081801E-06	6.266784E-08
1.755278E+03	1.085746E-06	6.282816E-08
1.795171E+03	1.073008E-06	6.202191E-08
1.835064E+03	1.039884E-06	6.003872E-08
1.874956E+03	9.839401E-07	5.674229E-08
1.914849E+03	9.038730E-07	5.206245E-08
1.954742E+03	8.029416E-07	4.619203E-08
1.994634E+03	6.907838E-07	3.968971E-08
2.034527E+03	5.827618E-07	3.343998E-08
2.074420E+03	4.965286E-07	2.845407E-08
2.114312E+03	4.467591E-07	2.556729E-08
2.154205E+03	4.419033E-07	2.525429E-08
2.194098E+03	4.874577E-07	2.781807E-08
2.233991E+03	5.875830E-07	3.348315E-08
2.273883E+03	7.456433E-07	4.242678E-08
2.313776E+03	9.614979E-07	5.462527E-08
2.353669E+03	1.231851E-06	6.987529E-08
2.393561E+03	1.551031E-06	8.783961E-08
2.433454E+03	1.913538E-06	1.081919E-07
2.473347E+03	2.315232E-06	1.306843E-07
2.513239E+03	2.753226E-06	1.551403E-07
2.553132E+03	3.227577E-06	1.815499E-07
2.593025E+03	3.738558E-06	2.099146E-07
2.632917E+03	4.288161E-06	2.403316E-07
2.672810E+03	4.881263E-06	2.730579E-07
2.712703E+03	5.520848E-06	3.082428E-07
2.752596E+03	6.212466E-06	3.461757E-07
2.792488E+03	6.961273E-06	3.871219E-07
2.832381E+03	7.774263E-06	4.314450E-07
2.872274E+03	8.660806E-06	4.796361E-07
2.912166E+03	9.630029E-06	5.321677E-07
2.952059E+03	1.069049E-05	5.894757E-07
2.991952E+03	1.185841E-05	6.524112E-07
3.001925E+03	1.216873E-05	6.691035E-07
3.011898E+03	1.248651E-05	6.861855E-07
3.021871E+03	1.281195E-05	7.036657E-07
3.031844E+03	1.314599E-05	7.215958E-07
3.041818E+03	1.349355E-05	7.402442E-07
3.051791E+03	1.385630E-05	7.597016E-07
3.061764E+03	1.423389E-05	7.799463E-07
3.071737E+03	1.462785E-05	8.010613E-07
3.081710E+03	1.503794E-05	8.230318E-07
3.091683E+03	1.546203E-05	8.457389E-07
3.101657E+03	1.590181E-05	8.692739E-07
3.111630E+03	1.635514E-05	8.935178E-07
3.121603E+03	1.682582E-05	9.186763E-07
3.131576E+03	1.730972E-05	9.445232E-07
3.141549E+03	1.780875E-05	9.711597E-07
3.151522E+03	1.832281E-05	9.985801E-07
3.161496E+03	1.885186E-05	1.026779E-06
3.171469E+03	1.939585E-05	1.055753E-06
3.181442E+03	1.995694E-05	1.085617E-06
3.191415E+03	2.053081E-05	1.116135E-06
3.201388E+03	2.112185E-05	1.147544E-06
3.211361E+03	2.173021E-05	1.179850E-06
3.221335E+03	2.235374E-05	1.212933E-06
3.231308E+03	2.299254E-05	1.246797E-06
3.241281E+03	2.364904E-05	1.281573E-06
3.251254E+03	2.432347E-05	1.317271E-06
3.261227E+03	2.501606E-05	1.353900E-06
3.271200E+03	2.572465E-05	1.391343E-06
3.281174E+03	2.645436E-05	1.429873E-06
3.291147E+03	2.720308E-05	1.469373E-06
3.301120E+03	2.796865E-05	1.509727E-06
3.311093E+03	2.875642E-05	1.551218E-06
3.321066E+03	2.956685E-05	1.593870E-06
3.331040E+03	3.039526E-05	1.637427E-06
3.341013E+03	3.124986E-05	1.682330E-06
3.350986E+03	3.212334E-05	1.728181E-06
3.360959E+03	3.302413E-05	1.775432E-06
3.370932E+03	3.394753E-05	1.823827E-06
3.380905E+03	3.489682E-05	1.873538E-06
3.390879E+03	3.587266E-05	1.924598E-06
3.400852E+03	3.687576E-05	1.977041E-06
3.410825E+03	3.790685E-05	2.030904E-06
3.420798E+03	3.896956E-05	2.086376E-06
3.430771E+03	4.005901E-05	2.143194E-06
3.440744E+03	4.118468E-05	2.201858E-06
3.450718E+03	4.233884E-05	2.261954E-06
3.460691E+03	4.353119E-05	2.323994E-06
3.470664E+03	4.475691E-05	2.387716E-06
3.480637E+03	4.601702E-05	2.453172E-06
3.490610E+03	4.731866E-05	2.520734E-06
3.500583E+03	4.865697E-05	2.590142E-06
3.510557E+03	5.003931E-05	2.661780E-06
3.520530E+03	5.146396E-05	2.735552E-06
3.530503E+03	5.293226E-05	2.811523E-06
3.540476E+03	5.444565E-05	2.889764E-06
3.550449E+03	5.600879E-05	2.970515E-06
3.560422E+03	5.762008E-05	3.053687E-06
3.570396E+03	5.928437E-05	3.139528E-06
3.580369E+03	6.100341E-05	3.228125E-06
3.590342E+03	6.277899E-05	3.319565E-06
3.600315E+03	6.460960E-05	3.413759E-06
3.610288E+03	6.650046E-05	3.510978E-06
3.620261E+03	6.845697E-05	3.611497E-06
3.630235E+03	7.047776E-05	3.715235E-06
3.640208E+03	7.256487E-05	3.822292E-06
3.650181E+03	7.472038E-05	3.932767E-06
3.660154E+03	7.695000E-05	4.046951E-06
3.670127E+03	7.925596E-05	4.164951E-06
3.680101E+03	8.163680E-05	4.286681E-06
3.690074E+03	8.409836E-05	4.412437E-06
3.700047E+03	8.664284E-05	4.542322E-06
3.710020E+03	8.927242E-05	4.676439E-06
3.719993E+03	9.199304E-05	4.815088E-06
3.729966E+03	9.479907E-05	4.957961E-06
3.739940E+03	9.770017E-05	5.105552E-06
3.749913E+03	1.006943E-04	5.257738E-06
3.759886E+03	1.037831E-04	5.414594E-06
3.769859E+03	1.069720E-04	5.576394E-06
3.779832E+03	1.102584E-04	5.742979E-06
3.789805E+03	1.136474E-04	5.914606E-06
3.799779E+03	1.171398E-04	6.091303E-06
3.809752E+03	1.207361E-04	6.273083E-06
3.819725E+03	1.244323E-04	6.459715E-06
3.829698E+03	1.282323E-04	6.651393E-06
3.839671E+03	1.321356E-04	6.848073E-06
3.849644E+03	1.361411E-04	7.049686E-06
3.859618E+03	1.402425E-04	7.255890E-06
3.869591E+03	1.444470E-04	7.467040E-06
3.879564E+03	1.487427E-04	7.682511E-06
3.889537E+03	1.531358E-04	7.902604E-06
3.899510E+03	1.576132E-04	8.126632E-06
3.909483E+03	1.621753E-04	8.354604E-06
3.919457E+03	1.668172E-04	8.586249E-06
3.929430E+03	1.715288E-04	8.821039E-06
3.939403E+03	1.763139E-04	9.059161E-06
3.949376E+03	1.811564E-04	9.299773E-06
3.959349E+03	1.860496E-04	9.542522E-06
3.969323E+03	1.909915E-04	9.787297E-06
3.979296E+03	1.959699E-04	1.003346E-05
3.989269E+03	2.009823E-04	1.028089E-05
3.999242E+03	2.060165E-04	1.052894E-05
4.009215E+03	2.110650E-04	1.077724E-05
4.019188E+03	2.161211E-04	1.102543E-05
4.029162E+03	2.211729E-04	1.127290E-05
4.039135E+03	2.262194E-04	1.151961E-05
4.049108E+03	2.312554E-04	1.176528E-05
4.059081E+03	2.362656E-04	1.200915E-05
4.069054E+03	2.412572E-04	1.225157E-05
4.079027E+03	2.462168E-04	1.249187E-05
4.089001E+03	2.511482E-04	1.273025E-05
4.098974E+03	2.560460E-04	1.296643E-05
4.108947E+03	2.609113E-04	1.320047E-05
4.118920E+03	2.657408E-04	1.343221E-05
4.128893E+03	2.705440E-04	1.366213E-05
4.138866E+03	2.753205E-04	1.389022E-05
4.148840E+03	2.800765E-04	1.411678E-05
4.158813E+03	2.848144E-04	1.434194E-05
4.168786E+03	2.895485E-04	1.456643E-05
4.178759E+03	2.942778E-04	1.479018E-05
4.188732E+03	2.990132E-04	1.501375E-05
4.198705E+03	3.037720E-04	1.523801E-05
4.208679E+03	3.085559E-04	1.546303E-05
4.218652E+03	3.133783E-04	1.568948E-05
4.228625E+03	3.182531E-04	1.591804E-05
4.238598E+03	3.231886E-04	1.614914E-05
4.248571E+03	3.281999E-04	1.638349E-05
4.258545E+03	3.333014E-04	1.662182E-05
4.268518E+03	3.385025E-04	1.686457E-05
4.278491E+03	3.438178E-04	1.711247E-05
4.288464E+03	3.492566E-04	1.736594E-05
4.298437E+03	3.548333E-04	1.762569E-05
4.308410E+03	3.605622E-04	1.789241E-05
4.318384E+03	3.664517E-04	1.816649E-05
4.328357E+03	3.725212E-04	1.844885E-05
4.338330E+03	3.787786E-04	1.873988E-05
4.348303E+03	3.852374E-04	1.904019E-05
4.358276E+03	3.919109E-04	1.935043E-05
4.368249E+03	3.988128E-04	1.967123E-05
4.378223E+03	4.059581E-04	2.000329E-05
4.388196E+03	4.133682E-04	2.034764E-05
4.398169E+03	4.210612E-04	2.070510E-05
4.408142E+03	4.290613E-04	2.107685E-05
4.418115E+03	4.373870E-04	2.146372E-05
4.428088E+03	4.460682E-04	2.186715E-05
4.438062E+03	4.551166E-04	2.228763E-05
4.448035E+03	4.645656E-04	2.272676E-05
4.458008E+03	4.744174E-04	2.318457E-05
4.467981E+03	4.846763E-04	2.366121E-05
4.477954E+03	4.953441E-04	2.415672E-05
4.487927E+03	5.064191E-04	2.467093E-05
4.497901E+03	5.178883E-04	2.520315E-05
4.507874E+03	5.297343E-04	2.575247E-05
4.517847E+03	5.419480E-04	2.631839E-05
4.527820E+03	5.544949E-04	2.689919E-05
4.537793E+03	5.673559E-04	2.749386E-05
4.547767E+03	5.804859E-04	2.810019E-05
4.557740E+03	5.938696E-04	2.871739E-05
4.567713E+03	6.074455E-04	2.934243E-05
4.577686E+03	6.211759E-04	2.997345E-05
4.587659E+03	6.350275E-04	3.060884E-05
4.597632E+03	6.489349E-04	3.124541E-05
4.607606E+03	6.628533E-04	3.188099E-05
4.617579E+03	6.767374E-04	3.251340E-05
4.627552E+03	6.905344E-04	3.314010E-05
4.637525E+03	7.042006E-04	3.375900E-05
4.647498E+03	7.176869E-04	3.436777E-05
4.657471E+03	7.309551E-04	3.496460E-05
4.667445E+03	7.439797E-04	3.554829E-05
4.677418E+03	7.567147E-04	3.611668E-05
4.687391E+03	7.691447E-04	3.666909E-05
4.697364E+03	7.812512E-04	3.720465E-05
4.707337E+03	7.930126E-04	3.772240E-05
4.717310E+03	8.044391E-04	3.822287E-05
4.727284E+03	8.155196E-04	3.870556E-05
4.737257E+03	8.262573E-04	3.917069E-05
4.747230E+03	8.366767E-04	3.961946E-05
4.757203E+03	8.467708E-04	4.005159E-05
4.767176E+03	8.565619E-04	4.046817E-05
4.777149E+03	8.660748E-04	4.087040E-05
4.787123E+03	8.753085E-04	4.125829E-05
4.797096E+03	8.842797E-04	4.163267E-05
4.807069E+03	8.930149E-04	4.199480E-05
4.817042E+03	9.015214E-04	4.234506E-05
4.827015E+03	9.098235E-04	4.268463E-05
4.836989E+03	9.179167E-04	4.301332E-05
4.846962E+03	9.258309E-04	4.333255E-05
4.856935E+03	9.335671E-04	4.364240E-05
4.866908E+03	9.411425E-04	4.394369E-05
4.876881E+03	9.485632E-04	4.423673E-05
4.886854E+03	9.558241E-04	4.452129E-05
4.896828E+03	9.629569E-04	4.479886E-05
4.906801E+03	9.699440E-04	4.506866E-05
4.916774E+03	9.767962E-04	4.533119E-05
4.926747E+03	9.835234E-04	4.558693E-05
4.936720E+03	9.901266E-04	4.583593E-05
4.946693E+03	9.966060E-04	4.607823E-05
4.956667E+03	1.002973E-03	4.631437E-05
4.966640E+03	1.009230E-03	4.654443E-05
4.976613E+03	1.015399E-03	4.676954E-05
4.986586E+03	1.021467E-03	4.698897E-05
4.996559E+03	1.027458E-03	4.720397E-05
5.006532E+03	1.033393E-03	4.741539E-05
5.016506E+03	1.039270E-03	4.762322E-05
5.026479E+03	1.045122E-03	4.782894E-05
5.036452E+03	1.050953E-03	4.803273E-05
5.046425E+03	1.056788E-03	4.823576E-05
5.056398E+03	1.062655E-03	4.843926E-05
5.066371E+03	1.068573E-03	4.864408E-05
5.076345E+03	1.074571E-03	4.885155E-05
5.086318E+03	1.080669E-03	4.906255E-05
5.096291E+03	1.086888E-03	4.927798E-05
5.106264E+03	1.093258E-03	4.949920E-05
5.116237E+03	1.099797E-03	4.972699E-05
5.126210E+03	1.106546E-03	4.996311E-05
5.136184E+03	1.113498E-03	5.020726E-05
5.146157E+03	1.120700E-03	5.046148E-05
5.156130E+03	1.128141E-03	5.072523E-05
5.166103E+03	1.135852E-03	5.099984E-05
5.176076E+03	1.143839E-03	5.128548E-05
5.186050E+03	1.152103E-03	5.158221E-05
5.196023E+03	1.160655E-03	5.189042E-05
5.205996E+03	1.169480E-03	5.220934E-05
5.215969E+03	1.178603E-03	5.254010E-05
5.225942E+03	1.187992E-03	5.288112E-05
5.235915E+03	1.197644E-03	5.323224E-05
5.245889E+03	1.207540E-03	5.359262E-05
5.255862E+03	1.217687E-03	5.396239E-05
5.265835E+03	1.228037E-03	5.433943E-05
5.275808E+03	1.238590E-03	5.472370E-05
5.285781E+03	1.249320E-03	5.511399E-05
5.295754E+03	1.260187E-03	5.550847E-05
5.305728E+03	1.271188E-03	5.590697E-05
5.315701E+03	1.282294E-03	5.630819E-05
5.325674E+03	1.293463E-03	5.671029E-05
5.335647E+03	1.304681E-03	5.711254E-05
5.345620E+03	1.315934E-03	5.751436E-05
5.355593E+03	1.327182E-03	5.791402E-05
5.365567E+03	1.338417E-03	5.831110E-05
5.375540E+03	1.349618E-03	5.870468E-05
5.385513E+03	1.360766E-03	5.909396E-05
5.395486E+03	1.371846E-03	5.947827E-05
5.405459E+03	1.382845E-03	5.985707E-05
5.415432E+03	1.393781E-03	6.023114E-05
5.425406E+03	1.404621E-03	6.059898E-05
5.435379E+03	1.415357E-03	6.096038E-05
5.445352E+03	1.426017E-03	6.131647E-05
5.455325E+03	1.436586E-03	6.166660E-05
5.465298E+03	1.447048E-03	6.201017E-05
5.475272E+03	1.457434E-03	6.234843E-05
5.485245E+03	1.467713E-03	6.268013E-05
5.495218E+03	1.477914E-03	6.300648E-05
5.505191E+03	1.488006E-03	6.332616E-05
5.515164E+03	1.497986E-03	6.363908E-05
5.525137E+03	1.507866E-03	6.394577E-05
5.535111E+03	1.517646E-03	6.424617E-05
5.545084E+03	1.527293E-03	6.453899E-05
5.555057E+03	1.536823E-03	6.482487E-05
5.565030E+03	1.546253E-03	6.510449E-05
5.575003E+03	1.555537E-03	6.537605E-05
5.584976E+03	1.564711E-03	6.564098E-05
5.594950E+03	1.573779E-03	6.589951E-05
5.604923E+03	1.582716E-03	6.615058E-05
5.614896E+03	1.591529E-03	6.639449E-05
5.624869E+03	1.600240E-03	6.663225E-05
5.634842E+03	1.608844E-03	6.686356E-05
5.644815E+03	1.617349E-03	6.708883E-05
5.654789E+03	1.625766E-03	6.730849E-05
5.664762E+03	1.634088E-03	6.752231E-05
5.674735E+03	1.642326E-03	6.773074E-05
5.684708E+03	1.650492E-03	6.793424E-05
5.694681E+03	1.658580E-03	6.813260E-05
5.704654E+03	1.666600E-03	6.832626E-05
5.714628E+03	1.674579E-03	6.851631E-05
5.724601E+03	1.682494E-03	6.870181E-05
5.734574E+03	1.690353E-03	6.888309E-05
5.744547E+03	1.698163E-03	6.906046E-05
5.754520E+03	1.705930E-03	6.923412E-05
5.764494E+03	1.713639E-03	6.940351E-05
5.774467E+03	1.721309E-03	6.956936E-05
5.784440E+03	1.728902E-03	6.973019E-05
5.794413E+03	1.736412E-03	6.988575E-05
5.804386E+03	1.743847E-03	7.003636E-05
5.814359E+03	1.751177E-03	7.018081E-05
5.824333E+03	1.758366E-03	7.031772E-05
5.834306E+03	1.765393E-03	7.044625E-05
5.844279E+03	1.772250E-03	7.056612E-05
5.854252E+03	1.778872E-03	7.067481E-05
5.864225E+03	1.785226E-03	7.077109E-05
5.874198E+03	1.791297E-03	7.085434E-05
5.884172E+03	1.797010E-03	7.092174E-05
5.894145E+03	1.802327E-03	7.097186E-05
5.904118E+03	1.807227E-03	7.100395E-05
5.914091E+03	1.811633E-03	7.101517E-05
5.924064E+03	1.815526E-03	7.100485E-05
5.934037E+03	1.818852E-03	7.097101E-05
5.944011E+03	1.821575E-03	7.091247E-05
5.953984E+03	1.823665E-03	7.082815E-05
5.963957E+03	1.825076E-03	7.071648E-05
5.973930E+03	1.825785E-03	7.057673E-05
5.983903E+03	1.825771E-03	7.040835E-05
5.993876E+03	1.825022E-03	7.021101E-05
6.003850E+03	1.823491E-03	6.998315E-05
6.013823E+03	1.821210E-03	6.972620E-05
6.023796E+03	1.818161E-03	6.943969E-05
6.033769E+03	1.814332E-03	6.912337E-05
6.043742E+03	1.809731E-03	6.877785E-05
6.053716E+03	1.804394E-03	6.840462E-05
6.063689E+03	1.798321E-03	6.800396E-05
6.073662E+03	1.791537E-03	6.757702E-05
6.083635E+03	1.784070E-03	6.712507E-05
6.093608E+03	1.775954E-03	6.664960E-05
6.103581E+03	1.767227E-03	6.615220E-05
6.113555E+03	1.757948E-03	6.563529E-05
6.123528E+03	1.748145E-03	6.510009E-05
6.133501E+03	1.737885E-03	6.454928E-05
6.143474E+03	1.727242E-03	6.398568E-05
6.153447E+03	1.716253E-03	6.341086E-05
6.163420E+03	1.705034E-03	6.282918E-05
6.173394E+03	1.693650E-03	6.224308E-05
6.183367E+03	1.682150E-03	6.165449E-05
6.193340E+03	1.670675E-03	6.106860E-05
6.203313E+03	1.659265E-03	6.048684E-05
6.213286E+03	1.647996E-03	5.991201E-05
6.223259E+03	1.636965E-03	5.934757E-05
6.233233E+03	1.626218E-03	5.879517E-05
6.243206E+03	1.615856E-03	5.825835E-05
6.253179E+03	1.605962E-03	5.774001E-05
6.263152E+03	1.596621E-03	5.724309E-05
6.273125E+03	1.587901E-03	5.676983E-05
6.283098E+03	1.579903E-03	5.632366E-05
6.293072E+03	1.572707E-03	5.590728E-05
6.303045E+03	1.566411E-03	5.552387E-05
6.313018E+03	1.561072E-03	5.517525E-05
6.322991E+03	1.556796E-03	5.486479E-05
6.332964E+03	1.553645E-03	5.459445E-05
6.342937E+03	1.551696E-03	5.436649E-05
6.352911E+03	1.550993E-03	5.418221E-05
6.362884E+03	1.551576E-03	5.404253E-05
6.372857E+03	1.553486E-03	5.394853E-05
6.382830E+03	1.556751E-03	5.390079E-05
6.392803E+03	1.561349E-03	5.389814E-05
6.402777E+03	1.567294E-03	5.394063E-05
6.412750E+03	1.574546E-03	5.402648E-05
6.422723E+03	1.583061E-03	5.415382E-05
6.432696E+03	1.592722E-03	5.431824E-05
6.442669E+03	1.603460E-03	5.451705E-05
6.452642E+03	1.615167E-03	5.474627E-05
6.462616E+03	1.627676E-03	5.499996E-05
6.472589E+03	1.640855E-03	5.527342E-05
6.482562E+03	1.654476E-03	5.555880E-05
6.492535E+03	1.668390E-03	5.585099E-05
6.502508E+03	1.682339E-03	5.614124E-05
6.512481E+03	1.696128E-03	5.642314E-05
6.522455E+03	1.709500E-03	5.668817E-05
6.532428E+03	1.722212E-03	5.692851E-05
6.542401E+03	1.734051E-03	5.713731E-05
6.552374E+03	1.744795E-03	5.730758E-05
6.562347E+03	1.754221E-03	5.743238E-05
6.572320E+03	1.762176E-03	5.750713E-05
6.582294E+03	1.768514E-03	5.752763E-05
6.592267E+03	1.773128E-03	5.749089E-05
6.602240E+03	1.775948E-03	5.739521E-05
6.612213E+03	1.776940E-03	5.724012E-05
6.622186E+03	1.776134E-03	5.702714E-05
6.632159E+03	1.773527E-03	5.675680E-05
6.642133E+03	1.769240E-03	5.643351E-05
6.652106E+03	1.763332E-03	5.605976E-05
6.662079E+03	1.755979E-03	5.564157E-05
6.672052E+03	1.747305E-03	5.518342E-05
6.682025E+03	1.737474E-03	5.469086E-05
6.691999E+03	1.726678E-03	5.417035E-05
6.701972E+03	1.715049E-03	5.362628E-05
6.711945E+03	1.702806E-03	5.306578E-05
6.721918E+03	1.690097E-03	5.249368E-05
6.731891E+03	1.677086E-03	5.191517E-05
6.741864E+03	1.663924E-03	5.133510E-05
6.751838E+03	1.650753E-03	5.075785E-05
6.761811E+03	1.637679E-03	5.018671E-05
6.771784E+03	1.624860E-03	4.962646E-05
6.781757E+03	1.612372E-03	4.907942E-05
6.791730E+03	1.600280E-03	4.854743E-05
6.801703E+03	1.588699E-03	4.803388E-05
6.811677E+03	1.577644E-03	4.753908E-05
6.821650E+03	1.567162E-03	4.706431E-05
6.831623E+03	1.557310E-03	4.661111E-05
6.841596E+03	1.548113E-03	4.618005E-05
6.851569E+03	1.539564E-03	4.577079E-05
6.861542E+03	1.531672E-03	4.538340E-05
6.871516E+03	1.524459E-03	4.501834E-05
6.881489E+03	1.517876E-03	4.467402E-05
6.891462E+03	1.511955E-03	4.435118E-05
6.901435E+03	1.506659E-03	4.404862E-05
6.911408E+03	1.501970E-03	4.376559E-05
6.921381E+03	1.497863E-03	4.350131E-05
6.931355E+03	1.494316E-03	4.325492E-05
6.941328E+03	1.491280E-03	4.302494E-05
6.951301E+03	1.488748E-03	4.281104E-05
6.961274E+03	1.486672E-03	4.261172E-05
6.971247E+03	1.485044E-03	4.242666E-05
6.981221E+03	1.483814E-03	4.225436E-05
6.991194E+03	1.482975E-03	4.209456E-05
7.001167E+03	1.482479E-03	4.194584E-05
7.011140E+03	1.482301E-03	4.180740E-05
7.021113E+03	1.482414E-03	4.167850E-05
7.031086E+03	1.482775E-03	4.155786E-05
7.041060E+03	1.483403E-03	4.144601E-05
7.051033E+03	1.484257E-03	4.134180E-05
7.061006E+03	1.485295E-03	4.124403E-05
7.070979E+03	1.486521E-03	4.115282E-05
7.080952E+03	1.487896E-03	4.106711E-05
7.090925E+03	1.489424E-03	4.098702E-05
7.100899E+03	1.491090E-03	4.091219E-05
7.110872E+03	1.492834E-03	4.084097E-05
7.120845E+03	1.494685E-03	4.077420E-05
7.130818E+03	1.496606E-03	4.071091E-05
7.140791E+03	1.498605E-03	4.065133E-05
7.150764E+03	1.500620E-03	4.059389E-05
7.160738E+03	1.502658E-03	4.053881E-05
7.170711E+03	1.504705E-03	4.048574E-05
7.180684E+03	1.506743E-03	4.043431E-05
7.190657E+03	1.508757E-03	4.038417E-05
7.200630E+03	1.510708E-03	4.033435E-05
7.210603E+03	1.512626E-03	4.028574E-05
7.220577E+03	1.514428E-03	4.023619E-05
7.230550E+03	1.516169E-03	4.018726E-05
7.240523E+03	1.517767E-03	4.013684E-05
7.250496E+03	1.519256E-03	4.008595E-05
7.260469E+03	1.520626E-03	4.003443E-05
7.270443E+03	1.521823E-03	3.998092E-05
7.280416E+03	1.522890E-03	3.992663E-05
7.290389E+03	1.523823E-03	3.987157E-05
7.300362E+03	1.524574E-03	3.981460E-05
7.310335E+03	1.525171E-03	3.975649E-05
7.320308E+03	1.525644E-03	3.969813E-05
7.330282E+03	1.525954E-03	3.963860E-05
7.340255E+03	1.526137E-03	3.957892E-05
7.350228E+03	1.526234E-03	3.952022E-05
7.360201E+03	1.526216E-03	3.946180E-05
7.370174E+03	1.526128E-03	3.940494E-05
7.380147E+03	1.526022E-03	3.935100E-05
7.390121E+03	1.525875E-03	3.929952E-05
7.400094E+03	1.525771E-03	3.925265E-05
7.410067E+03	1.525721E-03	3.921076E-05
7.420040E+03	1.525762E-03	3.917488E-05
7.430013E+03	1.525940E-03	3.914619E-05
7.439986E+03	1.526351E-03	3.912721E-05
7.449960E+03	1.526994E-03	3.911799E-05
7.459933E+03	1.527922E-03	3.911992E-05
7.469906E+03	1.529235E-03	3.913563E-05
7.479879E+03	1.530907E-03	3.916442E-05
7.489852E+03	1.533019E-03	3.920840E-05
7.499825E+03	1.535585E-03	3.926785E-05
7.509799E+03	1.538542E-03	3.934117E-05
7.519772E+03	1.541913E-03	3.942895E-05
7.529745E+03	1.545639E-03	3.952965E-05
7.539718E+03	1.549681E-03	3.964228E-05
7.549691E+03	1.554006E-03	3.976597E-05
7.559665E+03	1.558602E-03	3.990048E-05
7.569638E+03	1.563388E-03	4.004367E-05
7.579611E+03	1.568413E-03	4.019682E-05
7.589584E+03	1.573570E-03	4.035721E-05
7.599557E+03	1.578888E-03	4.052559E-05
7.609530E+03	1.584345E-03	4.070137E-05
7.619504E+03	1.589891E-03	4.088331E-05
7.629477E+03	1.595532E-03	4.107155E-05
7.639450E+03	1.601249E-03	4.126559E-05
7.649423E+03	1.607021E-03	4.146490E-05
7.659396E+03	1.612800E-03	4.166824E-05
7.669369E+03	1.618619E-03	4.187648E-05
7.679343E+03	1.624429E-03	4.208831E-05
7.689316E+03	1.630179E-03	4.230242E-05
7.699289E+03	1.635901E-03	4.251961E-05
7.709262E+03	1.641540E-03	4.273847E-05
7.719235E+03	1.647099E-03	4.295903E-05
7.729208E+03	1.652494E-03	4.317907E-05
7.739182E+03	1.657753E-03	4.339929E-05
