#wls	flux	fluxerr
1.595708E+03	7.625861E-07	3.228055E-08
1.635600E+03	8.053090E-07	3.402807E-08
1.675493E+03	8.407412E-07	3.546009E-08
1.715386E+03	8.670672E-07	3.650164E-08
1.755278E+03	8.829163E-07	3.709714E-08
1.795171E+03	8.845459E-07	3.709206E-08
1.835064E+03	8.689840E-07	3.636556E-08
1.874956E+03	8.322064E-07	3.475402E-08
1.914849E+03	7.733902E-07	3.222889E-08
1.954742E+03	6.943705E-07	2.887269E-08
1.994634E+03	6.029770E-07	2.501625E-08
2.034527E+03	5.129674E-07	2.123305E-08
2.074420E+03	4.401360E-07	1.817548E-08
2.114312E+03	3.983252E-07	1.640920E-08
2.154205E+03	3.958913E-07	1.626862E-08
2.194098E+03	4.381231E-07	1.795847E-08
2.233991E+03	5.293837E-07	2.164290E-08
2.273883E+03	6.722747E-07	2.741169E-08
2.313776E+03	8.670162E-07	3.525595E-08
2.353669E+03	1.109790E-06	4.500220E-08
2.393561E+03	1.395304E-06	5.641832E-08
2.433454E+03	1.717285E-06	6.923451E-08
2.473347E+03	2.071476E-06	8.326430E-08
2.513239E+03	2.454145E-06	9.834385E-08
2.553132E+03	2.863611E-06	1.143925E-07
2.593025E+03	3.301410E-06	1.314583E-07
2.632917E+03	3.766720E-06	1.494943E-07
2.672810E+03	4.262096E-06	1.685871E-07
2.712703E+03	4.791050E-06	1.888592E-07
2.752596E+03	5.355191E-06	2.103561E-07
2.792488E+03	5.960454E-06	2.332908E-07
2.832381E+03	6.607588E-06	2.576704E-07
2.872274E+03	7.303523E-06	2.837408E-07
2.912166E+03	8.052739E-06	3.116484E-07
2.952059E+03	8.860012E-06	3.415476E-07
2.991952E+03	9.732493E-06	3.736801E-07
3.001925E+03	9.963036E-06	3.821435E-07
3.011898E+03	1.019711E-05	3.907224E-07
3.021871E+03	1.043474E-05	3.994176E-07
3.031844E+03	1.067881E-05	4.083387E-07
3.041818E+03	1.093185E-05	4.175812E-07
3.051791E+03	1.119439E-05	4.271640E-07
3.061764E+03	1.146824E-05	4.371557E-07
3.071737E+03	1.175314E-05	4.475439E-07
3.081710E+03	1.204643E-05	4.582266E-07
3.091683E+03	1.235014E-05	4.692795E-07
3.101657E+03	1.266405E-05	4.806927E-07
3.111630E+03	1.298545E-05	4.923626E-07
3.121603E+03	1.331657E-05	5.043718E-07
3.131576E+03	1.365720E-05	5.167117E-07
3.141549E+03	1.400460E-05	5.292774E-07
3.151522E+03	1.436377E-05	5.422560E-07
3.161496E+03	1.472936E-05	5.554443E-07
3.171469E+03	1.510655E-05	5.690371E-07
3.181442E+03	1.548987E-05	5.828265E-07
3.191415E+03	1.588191E-05	5.969086E-07
3.201388E+03	1.628260E-05	6.112799E-07
3.211361E+03	1.669478E-05	6.260453E-07
3.221335E+03	1.711268E-05	6.409873E-07
3.231308E+03	1.754209E-05	6.563217E-07
3.241281E+03	1.798014E-05	6.719391E-07
3.251254E+03	1.842682E-05	6.878384E-07
3.261227E+03	1.888216E-05	7.040188E-07
3.271200E+03	1.934934E-05	7.205978E-07
3.281174E+03	1.982854E-05	7.375801E-07
3.291147E+03	2.031349E-05	7.547310E-07
3.301120E+03	2.081398E-05	7.724127E-07
3.311093E+03	2.132370E-05	7.903894E-07
3.321066E+03	2.184276E-05	8.086635E-07
3.331040E+03	2.237808E-05	8.274898E-07
3.341013E+03	2.292317E-05	8.466254E-07
3.350986E+03	2.348164E-05	8.662025E-07
3.360959E+03	2.405377E-05	8.862292E-07
3.370932E+03	2.463985E-05	9.067144E-07
3.380905E+03	2.524020E-05	9.276671E-07
3.390879E+03	2.585875E-05	9.492300E-07
3.400852E+03	2.648857E-05	9.711459E-07
3.410825E+03	2.713734E-05	9.936940E-07
3.420798E+03	2.780553E-05	1.016889E-06
3.430771E+03	2.848976E-05	1.040605E-06
3.440744E+03	2.919040E-05	1.064852E-06
3.450718E+03	2.991564E-05	1.089926E-06
3.460691E+03	3.065816E-05	1.115558E-06
3.470664E+03	3.142233E-05	1.141903E-06
3.480637E+03	3.220462E-05	1.168829E-06
3.490610E+03	3.301357E-05	1.196645E-06
3.500583E+03	3.384986E-05	1.225369E-06
3.510557E+03	3.470571E-05	1.254717E-06
3.520530E+03	3.559001E-05	1.285006E-06
3.530503E+03	3.649908E-05	1.316100E-06
3.540476E+03	3.743780E-05	1.348170E-06
3.550449E+03	3.840678E-05	1.381234E-06
3.560422E+03	3.940669E-05	1.415311E-06
3.570396E+03	4.043370E-05	1.450259E-06
3.580369E+03	4.149732E-05	1.486414E-06
3.590342E+03	4.259377E-05	1.523635E-06
3.600315E+03	4.372369E-05	1.561940E-06
3.610288E+03	4.488768E-05	1.601346E-06
3.620261E+03	4.609104E-05	1.642036E-06
3.630235E+03	4.733454E-05	1.684030E-06
3.640208E+03	4.861887E-05	1.727347E-06
3.650181E+03	4.993994E-05	1.771836E-06
3.660154E+03	5.130319E-05	1.817683E-06
3.670127E+03	5.271419E-05	1.865080E-06
3.680101E+03	5.416882E-05	1.913872E-06
3.690074E+03	5.566770E-05	1.964074E-06
3.700047E+03	5.721652E-05	2.015882E-06
3.710020E+03	5.881602E-05	2.069311E-06
3.719993E+03	6.046691E-05	2.124379E-06
3.729966E+03	6.216468E-05	2.180921E-06
3.739940E+03	6.392033E-05	2.239313E-06
3.749913E+03	6.572934E-05	2.299388E-06
3.759886E+03	6.759226E-05	2.361158E-06
3.769859E+03	6.951506E-05	2.424821E-06
3.779832E+03	7.149836E-05	2.490390E-06
3.789805E+03	7.353729E-05	2.557685E-06
3.799779E+03	7.564332E-05	2.627096E-06
3.809752E+03	7.780593E-05	2.698248E-06
3.819725E+03	8.003669E-05	2.771531E-06
3.829698E+03	8.233615E-05	2.846954E-06
3.839671E+03	8.469904E-05	2.924325E-06
3.849644E+03	8.712566E-05	3.003642E-06
3.859618E+03	8.962785E-05	3.085304E-06
3.869591E+03	9.220017E-05	3.169111E-06
3.879564E+03	9.484285E-05	3.255060E-06
3.889537E+03	9.755605E-05	3.343144E-06
3.899510E+03	1.003458E-04	3.433560E-06
3.909483E+03	1.032123E-04	3.526300E-06
3.919457E+03	1.061556E-04	3.621353E-06
3.929430E+03	1.091695E-04	3.718500E-06
3.939403E+03	1.122661E-04	3.818139E-06
3.949376E+03	1.154393E-04	3.920043E-06
3.959349E+03	1.186886E-04	4.024193E-06
3.969323E+03	1.220201E-04	4.130777E-06
3.979296E+03	1.254334E-04	4.239770E-06
3.989269E+03	1.289218E-04	4.350932E-06
3.999242E+03	1.324975E-04	4.464660E-06
4.009215E+03	1.361471E-04	4.580492E-06
4.019188E+03	1.398827E-04	4.698824E-06
4.029162E+03	1.436972E-04	4.819403E-06
4.039135E+03	1.475963E-04	4.942403E-06
4.049108E+03	1.515726E-04	5.067565E-06
4.059081E+03	1.556316E-04	5.195064E-06
4.069054E+03	1.597723E-04	5.324852E-06
4.079027E+03	1.639869E-04	5.456651E-06
4.089001E+03	1.682873E-04	5.590853E-06
4.098974E+03	1.726658E-04	5.727184E-06
4.108947E+03	1.771140E-04	5.865354E-06
4.118920E+03	1.816440E-04	6.005752E-06
4.128893E+03	1.862475E-04	6.148091E-06
4.138866E+03	1.909292E-04	6.292519E-06
4.148840E+03	1.956741E-04	6.438523E-06
4.158813E+03	2.004938E-04	6.586479E-06
4.168786E+03	2.053794E-04	6.736083E-06
4.178759E+03	2.103357E-04	6.887480E-06
4.188732E+03	2.153535E-04	7.040362E-06
4.198705E+03	2.204308E-04	7.194651E-06
4.208679E+03	2.255648E-04	7.350251E-06
4.218652E+03	2.307601E-04	7.507298E-06
4.228625E+03	2.360002E-04	7.665253E-06
4.238598E+03	2.412961E-04	7.824465E-06
4.248571E+03	2.466384E-04	7.984618E-06
4.258545E+03	2.520168E-04	8.145379E-06
4.268518E+03	2.574428E-04	8.307107E-06
4.278491E+03	2.628990E-04	8.469242E-06
4.288464E+03	2.683823E-04	8.631679E-06
4.298437E+03	2.738968E-04	8.794546E-06
4.308410E+03	2.794396E-04	8.957744E-06
4.318384E+03	2.849934E-04	9.120721E-06
4.328357E+03	2.905622E-04	9.283604E-06
4.338330E+03	2.961435E-04	9.446312E-06
4.348303E+03	3.017348E-04	9.608763E-06
4.358276E+03	3.073264E-04	9.770654E-06
4.368249E+03	3.129165E-04	9.931928E-06
4.378223E+03	3.185031E-04	1.009252E-05
4.388196E+03	3.240844E-04	1.025239E-05
4.398169E+03	3.296518E-04	1.041125E-05
4.408142E+03	3.352177E-04	1.056951E-05
4.418115E+03	3.407601E-04	1.072647E-05
4.428088E+03	3.462922E-04	1.088256E-05
4.438062E+03	3.518063E-04	1.103754E-05
4.448035E+03	3.573028E-04	1.119143E-05
4.458008E+03	3.627887E-04	1.134445E-05
4.467981E+03	3.682577E-04	1.149641E-05
4.477954E+03	3.737175E-04	1.164756E-05
4.487927E+03	3.791694E-04	1.179794E-05
4.497901E+03	3.846150E-04	1.194761E-05
4.507874E+03	3.900622E-04	1.209681E-05
4.517847E+03	3.955066E-04	1.224542E-05
4.527820E+03	4.009433E-04	1.239328E-05
4.537793E+03	4.063679E-04	1.254026E-05
4.547767E+03	4.117699E-04	1.268604E-05
4.557740E+03	4.171589E-04	1.283092E-05
4.567713E+03	4.225183E-04	1.297439E-05
4.577686E+03	4.278449E-04	1.311636E-05
4.587659E+03	4.331430E-04	1.325697E-05
4.597632E+03	4.384101E-04	1.339615E-05
4.607606E+03	4.436374E-04	1.353364E-05
4.617579E+03	4.488301E-04	1.366959E-05
4.627552E+03	4.539736E-04	1.380357E-05
4.637525E+03	4.590868E-04	1.393617E-05
4.647498E+03	4.641554E-04	1.406696E-05
4.657471E+03	4.691793E-04	1.419594E-05
4.667445E+03	4.741647E-04	1.432331E-05
4.677418E+03	4.791051E-04	1.444887E-05
4.687391E+03	4.840009E-04	1.457265E-05
4.697364E+03	4.888588E-04	1.469485E-05
4.707337E+03	4.936729E-04	1.481532E-05
4.717310E+03	4.984438E-04	1.493406E-05
4.727284E+03	5.031786E-04	1.505130E-05
4.737257E+03	5.078714E-04	1.516688E-05
4.747230E+03	5.125226E-04	1.528080E-05
4.757203E+03	5.171329E-04	1.539311E-05
4.767176E+03	5.217090E-04	1.550399E-05
4.777149E+03	5.262447E-04	1.561329E-05
4.787123E+03	5.307402E-04	1.572100E-05
4.797096E+03	5.352012E-04	1.582731E-05
4.807069E+03	5.396281E-04	1.593223E-05
4.817042E+03	5.440261E-04	1.603592E-05
4.827015E+03	5.483881E-04	1.613818E-05
4.836989E+03	5.527192E-04	1.623916E-05
4.846962E+03	5.570242E-04	1.633902E-05
4.856935E+03	5.613080E-04	1.643789E-05
4.866908E+03	5.655684E-04	1.653573E-05
4.876881E+03	5.698158E-04	1.663283E-05
4.886854E+03	5.740414E-04	1.672895E-05
4.896828E+03	5.782683E-04	1.682475E-05
4.906801E+03	5.824813E-04	1.691981E-05
4.916774E+03	5.866976E-04	1.701462E-05
4.926747E+03	5.909211E-04	1.710930E-05
4.936720E+03	5.951504E-04	1.720380E-05
4.946693E+03	5.994038E-04	1.729866E-05
4.956667E+03	6.036744E-04	1.739368E-05
4.966640E+03	6.079817E-04	1.748941E-05
4.976613E+03	6.123328E-04	1.758606E-05
4.986586E+03	6.167360E-04	1.768385E-05
4.996559E+03	6.212064E-04	1.778323E-05
5.006532E+03	6.257477E-04	1.788427E-05
5.016506E+03	6.303826E-04	1.798764E-05
5.026479E+03	6.351164E-04	1.809346E-05
5.036452E+03	6.399741E-04	1.820244E-05
5.046425E+03	6.449623E-04	1.831474E-05
5.056398E+03	6.501078E-04	1.843112E-05
5.066371E+03	6.554189E-04	1.855178E-05
5.076345E+03	6.609178E-04	1.867734E-05
5.086318E+03	6.666275E-04	1.880843E-05
5.096291E+03	6.725647E-04	1.894548E-05
5.106264E+03	6.787536E-04	1.908916E-05
5.116237E+03	6.852183E-04	1.924010E-05
5.126210E+03	6.919767E-04	1.939877E-05
5.136184E+03	6.990526E-04	1.956581E-05
5.146157E+03	7.064632E-04	1.974166E-05
5.156130E+03	7.142313E-04	1.992691E-05
5.166103E+03	7.223792E-04	2.012215E-05
5.176076E+03	7.309289E-04	2.032793E-05
5.186050E+03	7.398852E-04	2.054434E-05
5.196023E+03	7.492820E-04	2.077228E-05
5.205996E+03	7.591134E-04	2.101153E-05
5.215969E+03	7.694100E-04	2.126288E-05
5.225942E+03	7.801699E-04	2.152623E-05
5.235915E+03	7.914118E-04	2.180204E-05
5.245889E+03	8.031374E-04	2.209029E-05
5.255862E+03	8.153534E-04	2.239113E-05
5.265835E+03	8.280570E-04	2.270441E-05
5.275808E+03	8.412594E-04	2.303039E-05
5.285781E+03	8.549443E-04	2.336857E-05
5.295754E+03	8.691103E-04	2.371886E-05
5.305728E+03	8.837626E-04	2.408135E-05
5.315701E+03	8.988775E-04	2.445534E-05
5.325674E+03	9.144467E-04	2.484056E-05
5.335647E+03	9.304691E-04	2.523694E-05
5.345620E+03	9.469128E-04	2.564356E-05
5.355593E+03	9.637616E-04	2.605996E-05
5.365567E+03	9.809971E-04	2.648559E-05
5.375540E+03	9.985878E-04	2.691956E-05
5.385513E+03	1.016520E-03	2.736149E-05
5.395486E+03	1.034735E-03	2.780978E-05
5.405459E+03	1.053225E-03	2.826419E-05
5.415432E+03	1.071937E-03	2.872327E-05
5.425406E+03	1.090847E-03	2.918639E-05
5.435379E+03	1.109899E-03	2.965204E-05
5.445352E+03	1.129045E-03	3.011892E-05
5.455325E+03	1.148259E-03	3.058639E-05
5.465298E+03	1.167495E-03	3.105319E-05
5.475272E+03	1.186694E-03	3.151779E-05
5.485245E+03	1.205809E-03	3.197897E-05
5.495218E+03	1.224795E-03	3.243555E-05
5.505191E+03	1.243633E-03	3.288707E-05
5.515164E+03	1.262294E-03	3.333283E-05
5.525137E+03	1.280730E-03	3.377155E-05
5.535111E+03	1.298919E-03	3.420275E-05
5.545084E+03	1.316819E-03	3.462534E-05
5.555057E+03	1.334432E-03	3.503942E-05
5.565030E+03	1.351711E-03	3.544385E-05
5.575003E+03	1.368657E-03	3.583865E-05
5.584976E+03	1.385246E-03	3.622326E-05
5.594950E+03	1.401476E-03	3.659764E-05
5.604923E+03	1.417346E-03	3.696186E-05
5.614896E+03	1.432850E-03	3.731573E-05
5.624869E+03	1.447996E-03	3.765953E-05
5.634842E+03	1.462809E-03	3.799398E-05
5.644815E+03	1.477277E-03	3.831874E-05
5.654789E+03	1.491401E-03	3.863390E-05
5.664762E+03	1.505229E-03	3.894076E-05
5.674735E+03	1.518754E-03	3.923911E-05
5.684708E+03	1.532000E-03	3.952961E-05
5.694681E+03	1.544976E-03	3.981255E-05
5.704654E+03	1.557713E-03	4.008873E-05
5.714628E+03	1.570227E-03	4.035857E-05
5.724601E+03	1.582567E-03	4.062336E-05
5.734574E+03	1.594740E-03	4.088326E-05
5.744547E+03	1.606782E-03	4.113924E-05
5.754520E+03	1.618716E-03	4.139186E-05
5.764494E+03	1.630576E-03	4.164205E-05
5.774467E+03	1.642381E-03	4.189022E-05
5.784440E+03	1.654174E-03	4.213748E-05
5.794413E+03	1.665927E-03	4.238316E-05
5.804386E+03	1.677671E-03	4.262798E-05
5.814359E+03	1.689391E-03	4.287161E-05
5.824333E+03	1.701066E-03	4.311347E-05
5.834306E+03	1.712694E-03	4.335350E-05
5.844279E+03	1.724196E-03	4.358975E-05
5.854252E+03	1.735552E-03	4.382165E-05
5.864225E+03	1.746696E-03	4.404761E-05
5.874198E+03	1.757559E-03	4.426583E-05
5.884172E+03	1.768080E-03	4.447483E-05
5.894145E+03	1.778180E-03	4.467266E-05
5.904118E+03	1.787781E-03	4.485739E-05
5.914091E+03	1.796842E-03	4.502799E-05
5.924064E+03	1.805257E-03	4.518190E-05
5.934037E+03	1.812998E-03	4.531843E-05
5.944011E+03	1.820009E-03	4.543626E-05
5.953984E+03	1.826262E-03	4.553474E-05
5.963957E+03	1.831703E-03	4.561261E-05
5.973930E+03	1.836323E-03	4.566968E-05
5.983903E+03	1.840137E-03	4.570639E-05
5.993876E+03	1.843100E-03	4.572171E-05
6.003850E+03	1.845241E-03	4.571642E-05
6.013823E+03	1.846544E-03	4.569021E-05
6.023796E+03	1.847067E-03	4.564455E-05
6.033769E+03	1.846785E-03	4.557891E-05
6.043742E+03	1.845745E-03	4.549452E-05
6.053716E+03	1.843963E-03	4.539184E-05
6.063689E+03	1.841456E-03	4.527134E-05
6.073662E+03	1.838278E-03	4.513440E-05
6.083635E+03	1.834429E-03	4.498110E-05
6.093608E+03	1.829963E-03	4.481281E-05
6.103581E+03	1.824883E-03	4.462964E-05
6.113555E+03	1.819240E-03	4.443289E-05
6.123528E+03	1.813052E-03	4.422309E-05
6.133501E+03	1.806355E-03	4.400111E-05
6.143474E+03	1.799166E-03	4.376745E-05
6.153447E+03	1.791521E-03	4.352302E-05
6.163420E+03	1.783456E-03	4.326872E-05
6.173394E+03	1.774976E-03	4.300471E-05
6.183367E+03	1.766151E-03	4.273275E-05
6.193340E+03	1.756989E-03	4.245302E-05
6.203313E+03	1.747530E-03	4.216654E-05
6.213286E+03	1.737831E-03	4.187471E-05
6.223259E+03	1.727933E-03	4.157855E-05
6.233233E+03	1.717927E-03	4.128023E-05
6.243206E+03	1.707852E-03	4.098075E-05
6.253179E+03	1.697766E-03	4.068148E-05
6.263152E+03	1.687742E-03	4.038416E-05
6.273125E+03	1.677852E-03	4.009052E-05
6.283098E+03	1.668138E-03	3.980151E-05
6.293072E+03	1.658654E-03	3.951847E-05
6.303045E+03	1.649491E-03	3.924348E-05
6.313018E+03	1.640689E-03	3.897748E-05
6.322991E+03	1.632303E-03	3.872175E-05
6.332964E+03	1.624389E-03	3.847756E-05
6.342937E+03	1.617032E-03	3.824688E-05
6.352911E+03	1.610251E-03	3.803009E-05
6.362884E+03	1.604110E-03	3.782865E-05
6.372857E+03	1.598668E-03	3.764390E-05
6.382830E+03	1.593965E-03	3.747667E-05
6.392803E+03	1.590031E-03	3.732760E-05
6.402777E+03	1.586889E-03	3.719719E-05
6.412750E+03	1.584556E-03	3.708570E-05
6.422723E+03	1.583069E-03	3.699393E-05
6.432696E+03	1.582408E-03	3.692129E-05
6.442669E+03	1.582557E-03	3.686735E-05
6.452642E+03	1.583493E-03	3.683146E-05
6.462616E+03	1.585182E-03	3.681273E-05
6.472589E+03	1.587580E-03	3.681007E-05
6.482562E+03	1.590570E-03	3.682065E-05
6.492535E+03	1.594123E-03	3.684375E-05
6.502508E+03	1.598102E-03	3.687611E-05
6.512481E+03	1.602405E-03	3.691538E-05
6.522455E+03	1.606923E-03	3.695893E-05
6.532428E+03	1.611530E-03	3.700389E-05
6.542401E+03	1.616096E-03	3.704726E-05
6.552374E+03	1.620455E-03	3.708521E-05
6.562347E+03	1.624514E-03	3.711565E-05
6.572320E+03	1.628121E-03	3.713511E-05
6.582294E+03	1.631184E-03	3.714157E-05
6.592267E+03	1.633611E-03	3.713300E-05
6.602240E+03	1.635308E-03	3.710729E-05
6.612213E+03	1.636215E-03	3.706323E-05
6.622186E+03	1.636295E-03	3.700001E-05
6.632159E+03	1.635547E-03	3.691773E-05
6.642133E+03	1.633953E-03	3.681606E-05
6.652106E+03	1.631511E-03	3.669509E-05
6.662079E+03	1.628293E-03	3.655652E-05
6.672052E+03	1.624327E-03	3.640108E-05
6.682025E+03	1.619656E-03	3.622980E-05
6.691999E+03	1.614385E-03	3.604513E-05
6.701972E+03	1.608552E-03	3.584798E-05
6.711945E+03	1.602255E-03	3.564063E-05
6.721918E+03	1.595558E-03	3.542454E-05
6.731891E+03	1.588563E-03	3.520202E-05
6.741864E+03	1.581331E-03	3.497448E-05
6.751838E+03	1.573959E-03	3.474408E-05
6.761811E+03	1.566502E-03	3.451207E-05
6.771784E+03	1.559029E-03	3.427997E-05
6.781757E+03	1.551601E-03	3.404916E-05
6.791730E+03	1.544277E-03	3.382089E-05
6.801703E+03	1.537125E-03	3.359665E-05
6.811677E+03	1.530153E-03	3.337662E-05
6.821650E+03	1.523402E-03	3.316165E-05
6.831623E+03	1.516942E-03	3.295325E-05
6.841596E+03	1.510768E-03	3.275128E-05
6.851569E+03	1.504908E-03	3.255632E-05
6.861542E+03	1.499404E-03	3.236922E-05
6.871516E+03	1.494258E-03	3.219002E-05
6.881489E+03	1.489489E-03	3.201907E-05
6.891462E+03	1.485114E-03	3.185667E-05
6.901435E+03	1.481164E-03	3.170346E-05
6.911408E+03	1.477596E-03	3.155847E-05
6.921381E+03	1.474473E-03	3.142299E-05
6.931355E+03	1.471766E-03	3.129635E-05
6.941328E+03	1.469496E-03	3.117896E-05
6.951301E+03	1.467648E-03	3.107044E-05
6.961274E+03	1.466223E-03	3.097073E-05
6.971247E+03	1.465217E-03	3.087976E-05
6.981221E+03	1.464628E-03	3.079738E-05
6.991194E+03	1.464470E-03	3.072385E-05
7.001167E+03	1.464682E-03	3.065784E-05
7.011140E+03	1.465312E-03	3.060033E-05
7.021113E+03	1.466316E-03	3.055034E-05
7.031086E+03	1.467689E-03	3.050770E-05
7.041060E+03	1.469440E-03	3.047258E-05
7.051033E+03	1.471544E-03	3.044441E-05
7.061006E+03	1.473974E-03	3.042260E-05
7.070979E+03	1.476760E-03	3.040771E-05
7.080952E+03	1.479854E-03	3.039874E-05
7.090925E+03	1.483265E-03	3.039583E-05
7.100899E+03	1.486981E-03	3.039871E-05
7.110872E+03	1.490969E-03	3.040667E-05
7.120845E+03	1.495213E-03	3.041936E-05
7.130818E+03	1.499715E-03	3.043678E-05
7.140791E+03	1.504432E-03	3.045808E-05
7.150764E+03	1.509322E-03	3.048235E-05
7.160738E+03	1.514396E-03	3.050983E-05
7.170711E+03	1.519584E-03	3.053910E-05
7.180684E+03	1.524873E-03	3.056992E-05
7.190657E+03	1.530208E-03	3.060116E-05
7.200630E+03	1.535570E-03	3.063249E-05
7.210603E+03	1.540903E-03	3.066277E-05
7.220577E+03	1.546185E-03	3.069164E-05
7.230550E+03	1.551358E-03	3.071796E-05
7.240523E+03	1.556363E-03	3.074060E-05
7.250496E+03	1.561204E-03	3.075971E-05
7.260469E+03	1.565848E-03	3.077466E-05
7.270443E+03	1.570201E-03	3.078371E-05
7.280416E+03	1.574301E-03	3.078761E-05
7.290389E+03	1.578104E-03	3.078564E-05
7.300362E+03	1.581596E-03	3.077755E-05
7.310335E+03	1.584747E-03	3.076285E-05
7.320308E+03	1.587576E-03	3.074199E-05
7.330282E+03	1.590090E-03	3.071518E-05
7.340255E+03	1.592302E-03	3.068276E-05
7.350228E+03	1.594214E-03	3.064482E-05
7.360201E+03	1.595898E-03	3.060283E-05
7.370174E+03	1.597346E-03	3.055672E-05
7.380147E+03	1.598621E-03	3.050774E-05
7.390121E+03	1.599769E-03	3.045684E-05
7.400094E+03	1.600839E-03	3.040498E-05
7.410067E+03	1.601879E-03	3.035314E-05
7.420040E+03	1.602939E-03	3.030230E-05
7.430013E+03	1.604067E-03	3.025342E-05
7.439986E+03	1.605312E-03	3.020741E-05
7.449960E+03	1.606740E-03	3.016557E-05
7.459933E+03	1.608370E-03	3.012828E-05
7.469906E+03	1.610242E-03	3.009628E-05
7.479879E+03	1.612386E-03	3.007015E-05
7.489852E+03	1.614847E-03	3.005075E-05
7.499825E+03	1.617610E-03	3.003778E-05
7.509799E+03	1.620692E-03	3.003158E-05
7.519772E+03	1.624053E-03	3.003142E-05
7.529745E+03	1.627674E-03	3.003694E-05
7.539718E+03	1.631556E-03	3.004819E-05
7.549691E+03	1.635678E-03	3.006483E-05
7.559665E+03	1.639997E-03	3.008605E-05
7.569638E+03	1.644544E-03	3.011247E-05
7.579611E+03	1.649254E-03	3.014291E-05
7.589584E+03	1.654136E-03	3.017761E-05
7.599557E+03	1.659176E-03	3.021633E-05
7.609530E+03	1.664358E-03	3.025883E-05
7.619504E+03	1.669691E-03	3.030532E-05
7.629477E+03	1.675133E-03	3.035507E-05
7.639450E+03	1.680662E-03	3.040774E-05
7.649423E+03	1.686281E-03	3.046344E-05
7.659396E+03	1.691962E-03	3.052175E-05
7.669369E+03	1.697678E-03	3.058220E-05
7.679343E+03	1.703396E-03	3.064429E-05
7.689316E+03	1.709084E-03	3.070748E-05
7.699289E+03	1.714732E-03	3.077171E-05
7.709262E+03	1.720279E-03	3.083593E-05
7.719235E+03	1.725715E-03	3.090003E-05
7.729208E+03	1.730977E-03	3.096299E-05
7.739182E+03	1.736084E-03	3.102519E-05
