#wls	flux	fluxerr
1.595708E+03	9.167304E-07	5.065145E-10
1.635600E+03	9.723195E-07	5.372284E-10
1.675493E+03	1.019289E-06	5.631797E-10
1.715386E+03	1.055734E-06	5.833163E-10
1.755278E+03	1.078972E-06	5.961553E-10
1.795171E+03	1.085098E-06	5.995398E-10
1.835064E+03	1.068953E-06	5.906187E-10
1.874956E+03	1.027063E-06	5.674735E-10
1.914849E+03	9.566018E-07	5.285417E-10
1.954742E+03	8.605512E-07	4.754716E-10
1.994634E+03	7.485610E-07	4.135945E-10
2.034527E+03	6.374967E-07	3.522290E-10
2.074420E+03	5.474391E-07	3.024703E-10
2.114312E+03	4.955228E-07	2.737853E-10
2.154205E+03	4.921471E-07	2.719200E-10
2.194098E+03	5.441505E-07	3.006526E-10
2.233991E+03	6.563410E-07	3.626395E-10
2.273883E+03	8.316735E-07	4.595133E-10
2.313776E+03	1.069087E-06	5.906877E-10
2.353669E+03	1.363086E-06	7.531264E-10
2.393561E+03	1.705986E-06	9.425828E-10
2.433454E+03	2.089058E-06	1.154235E-09
2.473347E+03	2.505306E-06	1.384216E-09
2.513239E+03	2.950601E-06	1.630247E-09
2.553132E+03	3.420596E-06	1.889923E-09
2.593025E+03	3.915778E-06	2.163516E-09
2.632917E+03	4.436536E-06	2.451238E-09
2.672810E+03	4.981704E-06	2.752448E-09
2.712703E+03	5.555203E-06	3.069309E-09
2.752596E+03	6.159376E-06	3.403117E-09
2.792488E+03	6.796883E-06	3.755342E-09
2.832381E+03	7.470612E-06	4.127579E-09
2.872274E+03	8.183636E-06	4.521526E-09
2.912166E+03	8.943053E-06	4.941104E-09
2.952059E+03	9.750928E-06	5.387455E-09
2.991952E+03	1.061554E-05	5.865151E-09
3.001925E+03	1.084237E-05	5.990472E-09
3.011898E+03	1.107230E-05	6.117512E-09
3.021871E+03	1.130540E-05	6.246299E-09
3.031844E+03	1.154471E-05	6.378518E-09
3.041818E+03	1.179059E-05	6.514364E-09
3.051791E+03	1.204825E-05	6.656722E-09
3.061764E+03	1.231729E-05	6.805362E-09
3.071737E+03	1.259239E-05	6.957355E-09
3.081710E+03	1.288049E-05	7.116530E-09
3.091683E+03	1.317631E-05	7.279968E-09
3.101657E+03	1.348200E-05	7.448862E-09
3.111630E+03	1.379468E-05	7.621619E-09
3.121603E+03	1.411931E-05	7.800976E-09
3.131576E+03	1.444766E-05	7.982387E-09
3.141549E+03	1.478754E-05	8.170168E-09
3.151522E+03	1.513328E-05	8.361187E-09
3.161496E+03	1.549029E-05	8.558433E-09
3.171469E+03	1.585275E-05	8.758690E-09
3.181442E+03	1.622335E-05	8.963444E-09
3.191415E+03	1.660197E-05	9.172631E-09
3.201388E+03	1.698549E-05	9.384521E-09
3.211361E+03	1.737983E-05	9.602393E-09
3.221335E+03	1.778196E-05	9.824566E-09
3.231308E+03	1.819181E-05	1.005101E-08
3.241281E+03	1.860935E-05	1.028170E-08
3.251254E+03	1.903458E-05	1.051663E-08
3.261227E+03	1.947078E-05	1.075763E-08
3.271200E+03	1.991138E-05	1.100106E-08
3.281174E+03	2.036309E-05	1.125062E-08
3.291147E+03	2.082263E-05	1.150452E-08
3.301120E+03	2.129353E-05	1.176468E-08
3.311093E+03	2.177244E-05	1.202928E-08
3.321066E+03	2.226304E-05	1.230033E-08
3.331040E+03	2.276189E-05	1.257594E-08
3.341013E+03	2.327277E-05	1.285820E-08
3.350986E+03	2.379220E-05	1.314517E-08
3.360959E+03	2.432403E-05	1.343901E-08
3.370932E+03	2.486855E-05	1.373985E-08
3.380905E+03	2.542600E-05	1.404784E-08
3.390879E+03	2.599666E-05	1.436312E-08
3.400852E+03	2.657683E-05	1.468366E-08
3.410825E+03	2.717467E-05	1.501396E-08
3.420798E+03	2.778657E-05	1.535203E-08
3.430771E+03	2.841280E-05	1.569801E-08
3.440744E+03	2.905366E-05	1.605207E-08
3.450718E+03	2.971363E-05	1.641670E-08
3.460691E+03	3.038468E-05	1.678745E-08
3.470664E+03	3.107983E-05	1.717151E-08
3.480637E+03	3.179097E-05	1.756441E-08
3.490610E+03	3.251846E-05	1.796633E-08
3.500583E+03	3.327138E-05	1.838231E-08
3.510557E+03	3.404141E-05	1.880774E-08
3.520530E+03	3.483336E-05	1.924529E-08
3.530503E+03	3.564767E-05	1.969518E-08
3.540476E+03	3.648477E-05	2.015766E-08
3.550449E+03	3.734509E-05	2.063298E-08
3.560422E+03	3.822905E-05	2.112136E-08
3.570396E+03	3.914182E-05	2.162565E-08
3.580369E+03	4.007916E-05	2.214351E-08
3.590342E+03	4.104630E-05	2.267784E-08
3.600315E+03	4.203894E-05	2.322626E-08
3.610288E+03	4.306235E-05	2.379168E-08
3.620261E+03	4.411707E-05	2.437439E-08
3.630235E+03	4.520360E-05	2.497468E-08
3.640208E+03	4.632244E-05	2.559282E-08
3.650181E+03	4.746903E-05	2.622630E-08
3.660154E+03	4.865903E-05	2.688375E-08
3.670127E+03	4.987770E-05	2.755705E-08
3.680101E+03	5.113576E-05	2.825210E-08
3.690074E+03	5.243376E-05	2.896923E-08
3.700047E+03	5.376698E-05	2.970580E-08
3.710020E+03	5.514110E-05	3.046498E-08
3.719993E+03	5.655665E-05	3.124705E-08
3.729966E+03	5.801410E-05	3.205226E-08
3.739940E+03	5.951390E-05	3.288087E-08
3.749913E+03	6.105649E-05	3.373312E-08
3.759886E+03	6.264778E-05	3.461228E-08
3.769859E+03	6.428831E-05	3.551864E-08
3.779832E+03	6.597288E-05	3.644933E-08
3.789805E+03	6.770747E-05	3.740766E-08
3.799779E+03	6.948678E-05	3.839069E-08
3.809752E+03	7.132252E-05	3.940490E-08
3.819725E+03	7.321518E-05	4.045055E-08
3.829698E+03	7.515344E-05	4.152140E-08
3.839671E+03	7.714918E-05	4.262400E-08
3.849644E+03	7.920269E-05	4.375853E-08
3.859618E+03	8.130828E-05	4.492182E-08
3.869591E+03	8.347804E-05	4.612056E-08
3.879564E+03	8.570014E-05	4.734822E-08
3.889537E+03	8.798672E-05	4.861150E-08
3.899510E+03	9.033181E-05	4.990711E-08
3.909483E+03	9.274154E-05	5.123843E-08
3.919457E+03	9.520973E-05	5.260204E-08
3.929430E+03	9.774246E-05	5.400132E-08
3.939403E+03	1.003459E-04	5.543965E-08
3.949376E+03	1.030073E-04	5.691001E-08
3.959349E+03	1.057390E-04	5.841922E-08
3.969323E+03	1.085345E-04	5.996362E-08
3.979296E+03	1.113996E-04	6.154652E-08
3.989269E+03	1.143340E-04	6.316770E-08
3.999242E+03	1.173372E-04	6.482690E-08
4.009215E+03	1.204021E-04	6.652018E-08
4.019188E+03	1.235411E-04	6.825437E-08
4.029162E+03	1.267534E-04	7.002910E-08
4.039135E+03	1.300318E-04	7.184030E-08
4.049108E+03	1.333818E-04	7.369113E-08
4.059081E+03	1.368027E-04	7.558105E-08
4.069054E+03	1.402932E-04	7.750947E-08
4.079027E+03	1.438523E-04	7.947576E-08
4.089001E+03	1.474854E-04	8.148296E-08
4.098974E+03	1.511845E-04	8.352660E-08
4.108947E+03	1.549482E-04	8.560592E-08
4.118920E+03	1.587884E-04	8.772747E-08
4.128893E+03	1.626899E-04	8.988294E-08
4.138866E+03	1.666648E-04	9.207898E-08
4.148840E+03	1.707043E-04	9.431062E-08
4.158813E+03	1.748067E-04	9.657708E-08
4.168786E+03	1.789696E-04	9.887694E-08
4.178759E+03	1.831982E-04	1.012131E-07
4.188732E+03	1.874901E-04	1.035842E-07
4.198705E+03	1.918431E-04	1.059891E-07
4.208679E+03	1.962478E-04	1.084225E-07
4.218652E+03	2.007157E-04	1.108909E-07
4.228625E+03	2.052303E-04	1.133851E-07
4.238598E+03	2.098029E-04	1.159113E-07
4.248571E+03	2.144238E-04	1.184642E-07
4.258545E+03	2.190903E-04	1.210422E-07
4.268518E+03	2.237997E-04	1.236440E-07
4.278491E+03	2.285558E-04	1.262715E-07
4.288464E+03	2.333488E-04	1.289195E-07
4.298437E+03	2.381756E-04	1.315861E-07
4.308410E+03	2.430335E-04	1.342699E-07
4.318384E+03	2.479260E-04	1.369728E-07
4.328357E+03	2.528431E-04	1.396893E-07
4.338330E+03	2.577820E-04	1.424178E-07
4.348303E+03	2.627393E-04	1.451565E-07
4.358276E+03	2.677119E-04	1.479037E-07
4.368249E+03	2.726971E-04	1.506578E-07
4.378223E+03	2.776846E-04	1.534132E-07
4.388196E+03	2.826792E-04	1.561725E-07
4.398169E+03	2.876730E-04	1.589313E-07
4.408142E+03	2.926649E-04	1.616891E-07
4.418115E+03	2.976608E-04	1.644491E-07
4.428088E+03	3.026396E-04	1.671996E-07
4.438062E+03	3.076215E-04	1.699519E-07
4.448035E+03	3.125927E-04	1.726982E-07
4.458008E+03	3.175528E-04	1.754385E-07
4.467981E+03	3.225027E-04	1.781730E-07
4.477954E+03	3.274490E-04	1.809056E-07
4.487927E+03	3.323794E-04	1.836294E-07
4.497901E+03	3.373079E-04	1.863521E-07
4.507874E+03	3.422357E-04	1.890745E-07
4.517847E+03	3.471641E-04	1.917972E-07
4.527820E+03	3.520949E-04	1.945211E-07
4.537793E+03	3.570428E-04	1.972546E-07
4.547767E+03	3.619899E-04	1.999876E-07
4.557740E+03	3.669455E-04	2.027252E-07
4.567713E+03	3.719120E-04	2.054690E-07
4.577686E+03	3.768726E-04	2.082094E-07
4.587659E+03	3.818310E-04	2.109486E-07
4.597632E+03	3.867839E-04	2.136848E-07
4.607606E+03	3.917352E-04	2.164201E-07
4.617579E+03	3.966766E-04	2.191499E-07
4.627552E+03	4.016121E-04	2.218765E-07
4.637525E+03	4.065277E-04	2.245920E-07
4.647498E+03	4.114410E-04	2.273063E-07
4.657471E+03	4.163382E-04	2.300117E-07
4.667445E+03	4.212192E-04	2.327081E-07
4.677418E+03	4.260833E-04	2.353952E-07
4.687391E+03	4.309305E-04	2.380730E-07
4.697364E+03	4.357610E-04	2.407415E-07
4.707337E+03	4.405693E-04	2.433977E-07
4.717310E+03	4.453619E-04	2.460453E-07
4.727284E+03	4.501343E-04	2.486817E-07
4.737257E+03	4.548813E-04	2.513041E-07
4.747230E+03	4.596107E-04	2.539167E-07
4.757203E+03	4.643117E-04	2.565137E-07
4.767176E+03	4.689928E-04	2.590996E-07
4.777149E+03	4.736497E-04	2.616722E-07
4.787123E+03	4.782849E-04	2.642328E-07
4.787191E+03	4.610435E-04	2.547076E-07
4.790037E+03	4.536496E-04	2.506228E-07
4.792882E+03	4.467120E-04	2.467900E-07
4.795726E+03	4.384420E-04	2.422211E-07
4.798572E+03	4.337057E-04	2.396045E-07
4.801417E+03	4.268254E-04	2.358033E-07
4.804263E+03	4.176723E-04	2.307466E-07
4.807108E+03	4.098625E-04	2.264320E-07
4.809953E+03	4.069407E-04	2.248177E-07
4.812799E+03	4.005709E-04	2.212986E-07
4.815643E+03	3.952742E-04	2.183724E-07
4.818488E+03	3.922013E-04	2.166747E-07
4.821334E+03	3.931783E-04	2.172144E-07
4.824179E+03	3.927804E-04	2.169945E-07
4.827023E+03	3.910367E-04	2.160312E-07
4.829869E+03	3.904617E-04	2.157135E-07
4.832714E+03	3.897868E-04	2.153406E-07
4.835559E+03	3.775004E-04	2.085529E-07
4.838405E+03	3.690808E-04	2.039013E-07
4.841250E+03	3.544368E-04	1.958111E-07
4.844095E+03	3.357412E-04	1.854826E-07
4.846940E+03	3.099825E-04	1.712520E-07
4.849785E+03	2.841182E-04	1.569630E-07
4.852630E+03	2.582941E-04	1.426963E-07
4.855476E+03	2.462767E-04	1.360572E-07
4.858320E+03	2.297105E-04	1.269051E-07
4.861165E+03	2.138003E-04	1.181154E-07
4.864011E+03	1.976811E-04	1.092102E-07
4.866856E+03	1.881983E-04	1.039713E-07
4.869702E+03	1.757171E-04	9.707600E-08
4.872546E+03	1.697444E-04	9.377628E-08
4.875391E+03	1.656842E-04	9.153319E-08
4.878237E+03	1.649992E-04	9.115474E-08
4.881082E+03	1.702222E-04	9.404022E-08
4.883926E+03	1.743478E-04	9.631940E-08
4.886772E+03	1.859610E-04	1.027352E-07
4.889617E+03	2.000256E-04	1.105052E-07
4.892462E+03	2.273408E-04	1.255956E-07
4.895308E+03	2.668967E-04	1.474484E-07
4.898153E+03	3.131320E-04	1.729914E-07
4.900998E+03	3.534559E-04	1.952684E-07
4.903843E+03	3.996178E-04	2.207708E-07
4.906688E+03	4.506183E-04	2.489462E-07
4.909533E+03	4.985113E-04	2.754049E-07
4.912379E+03	5.460416E-04	3.016632E-07
4.915224E+03	5.878679E-04	3.247702E-07
4.918068E+03	6.372627E-04	3.520585E-07
4.920914E+03	6.816591E-04	3.765855E-07
4.923759E+03	7.250718E-04	4.005689E-07
4.926604E+03	7.602801E-04	4.200198E-07
4.929449E+03	7.861078E-04	4.342883E-07
4.932294E+03	8.098144E-04	4.473850E-07
4.935139E+03	8.266049E-04	4.566609E-07
4.937985E+03	8.407706E-04	4.644867E-07
4.940830E+03	8.457819E-04	4.672551E-07
4.943676E+03	8.470427E-04	4.679516E-07
4.946521E+03	8.444473E-04	4.665177E-07
4.949365E+03	8.348204E-04	4.611992E-07
4.952211E+03	8.303090E-04	4.587068E-07
4.955056E+03	8.158948E-04	4.507435E-07
4.957901E+03	7.947581E-04	4.390664E-07
4.960746E+03	7.759613E-04	4.286819E-07
4.963591E+03	7.590641E-04	4.193469E-07
4.966436E+03	7.377307E-04	4.075612E-07
4.969282E+03	7.271540E-04	4.017180E-07
4.972127E+03	7.140994E-04	3.945059E-07
4.974972E+03	7.055366E-04	3.897752E-07
4.977818E+03	6.940412E-04	3.834245E-07
4.980662E+03	6.797955E-04	3.755544E-07
4.983507E+03	6.693686E-04	3.697940E-07
4.986353E+03	6.642744E-04	3.669796E-07
4.989198E+03	6.482476E-04	3.581255E-07
4.992042E+03	6.387799E-04	3.528950E-07
4.997733E+03	6.269849E-04	3.463787E-07
5.000578E+03	6.187371E-04	3.418221E-07
5.003424E+03	6.056571E-04	3.345960E-07
5.006268E+03	5.943001E-04	3.283217E-07
5.009113E+03	5.884388E-04	3.250836E-07
5.011959E+03	5.924074E-04	3.272760E-07
5.014804E+03	5.997507E-04	3.313327E-07
5.017649E+03	6.161667E-04	3.404017E-07
5.020494E+03	6.410577E-04	3.541527E-07
5.023339E+03	6.726808E-04	3.716228E-07
5.026185E+03	7.021957E-04	3.879282E-07
5.029030E+03	7.348707E-04	4.059794E-07
5.031875E+03	7.645548E-04	4.223784E-07
5.034721E+03	7.888904E-04	4.358225E-07
5.037565E+03	8.034108E-04	4.438442E-07
5.040410E+03	8.247148E-04	4.556135E-07
5.043256E+03	8.326766E-04	4.600119E-07
5.046101E+03	8.467115E-04	4.677654E-07
5.048946E+03	8.565262E-04	4.731874E-07
5.051791E+03	8.719912E-04	4.817309E-07
5.054636E+03	8.885959E-04	4.909041E-07
5.057481E+03	9.091733E-04	5.022720E-07
5.060327E+03	9.110655E-04	5.033172E-07
5.063172E+03	9.111077E-04	5.033404E-07
5.066017E+03	9.022610E-04	4.984530E-07
5.068862E+03	8.903125E-04	4.918520E-07
5.071707E+03	8.665198E-04	4.787076E-07
5.074552E+03	8.438691E-04	4.661942E-07
5.077398E+03	8.179069E-04	4.518513E-07
5.080243E+03	7.907171E-04	4.368302E-07
5.083087E+03	7.571565E-04	4.182897E-07
5.085933E+03	7.167794E-04	3.959833E-07
5.088778E+03	6.765825E-04	3.737766E-07
5.091624E+03	6.452811E-04	3.564841E-07
5.094468E+03	6.139924E-04	3.391987E-07
5.097313E+03	5.846377E-04	3.229817E-07
5.100159E+03	5.560298E-04	3.071772E-07
5.103004E+03	5.228646E-04	2.888551E-07
5.105849E+03	4.994976E-04	2.759461E-07
5.108694E+03	4.768141E-04	2.634146E-07
5.111540E+03	4.550100E-04	2.513689E-07
5.114384E+03	4.377090E-04	2.418110E-07
5.117230E+03	4.200863E-04	2.320753E-07
5.120075E+03	4.221299E-04	2.332043E-07
5.122920E+03	4.182680E-04	2.310707E-07
5.125766E+03	4.206159E-04	2.323678E-07
5.128610E+03	4.172943E-04	2.305327E-07
5.131455E+03	4.145056E-04	2.289921E-07
5.134301E+03	4.169350E-04	2.303341E-07
5.137146E+03	4.215449E-04	2.328808E-07
5.139990E+03	4.168445E-04	2.302841E-07
5.142836E+03	4.082004E-04	2.255086E-07
5.145681E+03	3.999953E-04	2.209757E-07
5.148526E+03	3.914459E-04	2.162526E-07
5.151372E+03	3.813299E-04	2.106640E-07
5.154217E+03	3.817437E-04	2.108925E-07
5.157063E+03	3.803270E-04	2.101098E-07
5.159907E+03	3.784823E-04	2.090907E-07
5.162752E+03	3.788601E-04	2.092994E-07
5.165598E+03	3.923290E-04	2.167401E-07
5.168443E+03	3.940072E-04	2.176672E-07
5.171287E+03	4.075214E-04	2.251330E-07
5.174133E+03	4.185713E-04	2.312374E-07
5.176978E+03	4.352495E-04	2.404512E-07
5.179823E+03	4.513964E-04	2.493714E-07
5.182669E+03	4.638523E-04	2.562526E-07
5.185513E+03	4.808199E-04	2.656261E-07
5.188358E+03	4.910961E-04	2.713031E-07
5.191204E+03	4.873364E-04	2.692260E-07
5.194049E+03	4.847803E-04	2.678139E-07
5.196893E+03	4.809280E-04	2.656857E-07
5.199740E+03	4.793852E-04	2.648333E-07
5.202585E+03	4.733058E-04	2.614747E-07
5.205429E+03	4.716597E-04	2.605653E-07
5.208275E+03	4.795629E-04	2.649313E-07
5.211120E+03	4.969902E-04	2.745588E-07
5.213965E+03	5.090251E-04	2.812074E-07
5.216810E+03	5.255245E-04	2.903223E-07
5.219655E+03	5.439205E-04	3.004850E-07
5.222500E+03	5.627594E-04	3.108923E-07
5.225346E+03	5.785274E-04	3.196031E-07
5.228191E+03	5.901566E-04	3.260276E-07
5.231036E+03	5.972273E-04	3.299336E-07
5.233881E+03	6.006969E-04	3.318504E-07
5.236726E+03	6.052322E-04	3.343558E-07
5.239572E+03	6.094687E-04	3.366961E-07
5.242417E+03	6.107123E-04	3.373831E-07
5.245262E+03	6.167365E-04	3.407110E-07
5.248107E+03	6.177800E-04	3.412874E-07
5.250952E+03	6.236875E-04	3.445509E-07
5.253797E+03	6.323393E-04	3.493304E-07
5.256643E+03	6.381809E-04	3.525575E-07
5.259488E+03	6.414969E-04	3.543893E-07
5.262332E+03	6.516821E-04	3.600160E-07
5.265178E+03	6.553217E-04	3.620266E-07
5.268023E+03	6.612005E-04	3.652742E-07
5.270868E+03	6.708704E-04	3.706161E-07
5.273713E+03	6.837390E-04	3.777252E-07
5.276558E+03	6.982832E-04	3.857599E-07
5.279403E+03	7.081304E-04	3.911999E-07
5.282249E+03	7.185414E-04	3.969512E-07
5.285094E+03	7.258492E-04	4.009883E-07
5.287939E+03	7.321616E-04	4.044754E-07
5.290785E+03	7.422338E-04	4.100396E-07
5.293629E+03	7.431823E-04	4.105635E-07
5.296474E+03	7.406539E-04	4.091667E-07
5.299320E+03	7.402580E-04	4.089479E-07
5.302165E+03	7.397238E-04	4.086527E-07
5.305011E+03	7.393935E-04	4.084701E-07
5.307855E+03	7.396704E-04	4.086230E-07
5.310700E+03	7.389293E-04	4.082135E-07
5.313546E+03	7.427558E-04	4.103273E-07
5.316391E+03	7.436845E-04	4.108403E-07
5.319235E+03	7.520675E-04	4.154713E-07
5.322082E+03	7.532104E-04	4.161026E-07
5.324926E+03	7.565415E-04	4.179427E-07
5.327771E+03	7.583593E-04	4.189469E-07
5.330617E+03	7.600569E-04	4.198846E-07
5.333462E+03	7.609116E-04	4.203567E-07
5.336307E+03	7.608909E-04	4.203451E-07
5.339152E+03	7.551984E-04	4.172003E-07
5.341997E+03	7.498992E-04	4.142727E-07
5.344842E+03	7.536029E-04	4.163187E-07
5.347688E+03	7.501442E-04	4.144079E-07
5.350532E+03	7.504280E-04	4.145646E-07
5.353377E+03	7.541168E-04	4.166023E-07
5.356223E+03	7.532765E-04	4.161380E-07
5.359068E+03	7.479999E-04	4.132230E-07
5.361913E+03	7.459755E-04	4.121046E-07
5.364758E+03	7.474248E-04	4.129051E-07
5.367603E+03	7.460284E-04	4.121336E-07
5.370448E+03	7.521493E-04	4.155149E-07
5.373294E+03	7.598785E-04	4.197847E-07
5.376139E+03	7.660318E-04	4.231839E-07
5.378985E+03	7.683134E-04	4.244443E-07
5.381829E+03	7.693723E-04	4.250292E-07
5.384674E+03	7.706137E-04	4.257149E-07
5.387520E+03	7.719912E-04	4.264758E-07
5.390365E+03	7.761267E-04	4.287603E-07
5.393210E+03	7.864784E-04	4.344789E-07
5.396055E+03	7.967523E-04	4.401544E-07
5.398900E+03	8.093458E-04	4.471115E-07
5.401745E+03	8.244495E-04	4.554551E-07
5.404591E+03	8.464720E-04	4.676211E-07
5.407435E+03	8.685283E-04	4.798057E-07
5.410280E+03	8.940426E-04	4.939006E-07
5.413127E+03	9.206309E-04	5.085887E-07
5.415971E+03	9.562806E-04	5.282828E-07
5.418816E+03	9.911060E-04	5.475214E-07
5.421662E+03	1.032268E-03	5.702607E-07
5.424507E+03	1.073092E-03	5.928131E-07
5.427351E+03	1.111825E-03	6.142104E-07
5.430197E+03	1.149470E-03	6.350069E-07
5.433042E+03	1.179240E-03	6.514523E-07
5.435887E+03	1.206893E-03	6.667288E-07
5.438733E+03	1.224401E-03	6.764006E-07
5.441577E+03	1.234010E-03	6.817087E-07
5.444423E+03	1.237477E-03	6.836238E-07
5.447268E+03	1.239992E-03	6.850134E-07
5.450113E+03	1.236843E-03	6.832735E-07
5.452959E+03	1.226704E-03	6.776721E-07
5.455804E+03	1.209667E-03	6.682602E-07
5.458648E+03	1.193222E-03	6.591756E-07
5.461494E+03	1.178562E-03	6.510766E-07
5.464339E+03	1.150904E-03	6.357972E-07
5.467184E+03	1.132571E-03	6.256695E-07
5.470030E+03	1.125092E-03	6.215374E-07
5.472874E+03	1.114596E-03	6.157392E-07
5.475719E+03	1.100733E-03	6.080806E-07
5.478565E+03	1.094438E-03	6.046030E-07
5.481410E+03	1.090630E-03	6.024994E-07
5.484254E+03	1.082024E-03	5.977450E-07
5.487100E+03	1.076190E-03	5.945217E-07
5.489945E+03	1.075010E-03	5.938697E-07
5.492790E+03	1.069577E-03	5.908685E-07
5.495636E+03	1.060784E-03	5.860104E-07
5.498480E+03	1.059764E-03	5.854470E-07
5.501325E+03	1.063199E-03	5.873444E-07
5.504171E+03	1.070370E-03	5.913057E-07
5.507016E+03	1.079621E-03	5.964165E-07
5.509861E+03	1.088945E-03	6.015668E-07
5.512707E+03	1.106637E-03	6.113404E-07
5.515552E+03	1.131048E-03	6.248259E-07
5.518397E+03	1.155505E-03	6.383363E-07
5.521242E+03	1.181358E-03	6.526183E-07
5.524087E+03	1.210201E-03	6.685519E-07
5.526933E+03	1.243743E-03	6.870816E-07
5.529777E+03	1.281707E-03	7.080537E-07
5.532622E+03	1.322747E-03	7.307250E-07
5.535468E+03	1.368111E-03	7.557858E-07
5.538313E+03	1.408711E-03	7.782137E-07
5.541158E+03	1.448240E-03	8.000506E-07
5.544004E+03	1.492595E-03	8.245536E-07
5.546849E+03	1.524253E-03	8.420426E-07
5.549693E+03	1.562589E-03	8.632203E-07
5.552539E+03	1.596276E-03	8.818295E-07
5.555384E+03	1.622786E-03	8.964745E-07
5.558229E+03	1.641642E-03	9.068906E-07
5.561074E+03	1.654575E-03	9.140353E-07
5.563919E+03	1.663343E-03	9.188786E-07
5.566764E+03	1.671953E-03	9.236349E-07
5.569610E+03	1.664649E-03	9.195994E-07
5.572455E+03	1.652661E-03	9.129768E-07
5.575299E+03	1.632117E-03	9.016279E-07
5.578145E+03	1.605436E-03	8.868882E-07
5.580990E+03	1.570349E-03	8.675047E-07
5.583835E+03	1.528776E-03	8.445384E-07
5.586680E+03	1.485870E-03	8.208359E-07
5.589525E+03	1.438109E-03	7.944514E-07
5.592372E+03	1.377392E-03	7.609091E-07
5.595216E+03	1.310968E-03	7.242149E-07
5.598061E+03	1.242050E-03	6.861426E-07
5.600907E+03	1.178646E-03	6.511164E-07
5.603752E+03	1.111681E-03	6.141228E-07
5.606596E+03	1.047728E-03	5.787934E-07
5.609442E+03	9.950801E-04	5.497090E-07
5.612287E+03	9.456769E-04	5.224172E-07
5.615132E+03	9.046709E-04	4.997643E-07
5.617978E+03	8.778426E-04	4.849435E-07
5.620822E+03	8.611045E-04	4.756969E-07
5.623667E+03	8.573038E-04	4.735971E-07
5.626513E+03	8.595958E-04	4.748632E-07
5.629358E+03	8.700256E-04	4.806248E-07
