#wls	flux	fluxerr
1.595708E+03	7.830453E-08	2.717348E-09
1.635600E+03	8.352995E-08	2.897017E-09
1.675493E+03	8.800511E-08	3.050419E-09
1.715386E+03	9.157233E-08	3.172129E-09
1.755278E+03	9.401626E-08	3.254741E-09
1.795171E+03	9.488944E-08	3.282843E-09
1.835064E+03	9.383622E-08	3.244240E-09
1.874956E+03	9.041093E-08	3.123668E-09
1.914849E+03	8.444131E-08	2.915356E-09
1.954742E+03	7.614404E-08	2.626976E-09
1.994634E+03	6.635136E-08	2.287410E-09
2.034527E+03	5.658693E-08	1.949282E-09
2.074420E+03	4.864627E-08	1.674413E-09
2.114312E+03	4.405353E-08	1.515089E-09
2.154205E+03	4.378677E-08	1.504646E-09
2.194098E+03	4.841092E-08	1.662103E-09
2.233991E+03	5.838984E-08	2.002922E-09
2.273883E+03	7.397021E-08	2.535038E-09
2.313776E+03	9.504693E-08	3.254282E-09
2.353669E+03	1.211442E-07	4.143784E-09
2.393561E+03	1.515391E-07	5.178269E-09
2.433454E+03	1.854501E-07	6.330528E-09
2.473347E+03	2.223384E-07	7.581716E-09
2.513239E+03	2.617490E-07	8.915897E-09
2.553132E+03	3.033825E-07	1.032249E-08
2.593025E+03	3.473359E-07	1.180438E-08
2.632917E+03	3.935273E-07	1.335840E-08
2.672810E+03	4.421468E-07	1.499054E-08
2.712703E+03	4.933782E-07	1.670658E-08
2.752596E+03	5.474428E-07	1.851346E-08
2.792488E+03	6.045872E-07	2.041897E-08
2.832381E+03	6.653066E-07	2.243917E-08
2.872274E+03	7.298029E-07	2.458015E-08
2.912166E+03	7.983877E-07	2.685159E-08
2.952059E+03	8.713778E-07	2.926327E-08
2.991952E+03	9.493957E-07	3.183512E-08
3.001925E+03	9.696782E-07	3.250273E-08
3.011898E+03	9.903900E-07	3.318412E-08
3.021871E+03	1.011384E-06	3.387434E-08
3.031844E+03	1.032725E-06	3.457555E-08
3.041818E+03	1.054808E-06	3.530094E-08
3.051791E+03	1.077728E-06	3.605365E-08
3.061764E+03	1.101605E-06	3.683766E-08
3.071737E+03	1.126231E-06	3.764598E-08
3.081710E+03	1.151564E-06	3.847717E-08
3.091683E+03	1.177739E-06	3.933569E-08
3.101657E+03	1.204726E-06	4.022050E-08
3.111630E+03	1.232317E-06	4.112461E-08
3.121603E+03	1.260475E-06	4.204678E-08
3.131576E+03	1.289356E-06	4.299215E-08
3.141549E+03	1.318746E-06	4.395359E-08
3.151522E+03	1.348810E-06	4.493650E-08
3.161496E+03	1.379330E-06	4.593366E-08
3.171469E+03	1.410481E-06	4.695083E-08
3.181442E+03	1.442246E-06	4.798740E-08
3.191415E+03	1.474200E-06	4.902919E-08
3.201388E+03	1.506937E-06	5.009598E-08
3.211361E+03	1.540032E-06	5.117355E-08
3.221335E+03	1.573464E-06	5.226123E-08
3.231308E+03	1.607435E-06	5.336565E-08
3.241281E+03	1.641937E-06	5.448653E-08
3.251254E+03	1.676740E-06	5.561623E-08
3.261227E+03	1.711831E-06	5.675426E-08
3.271200E+03	1.747427E-06	5.790779E-08
3.281174E+03	1.783528E-06	5.907682E-08
3.291147E+03	1.820134E-06	6.026130E-08
3.301120E+03	1.856763E-06	6.144521E-08
3.311093E+03	1.894131E-06	6.265227E-08
3.321066E+03	1.931756E-06	6.386650E-08
3.331040E+03	1.969885E-06	6.509598E-08
3.341013E+03	2.008268E-06	6.633251E-08
3.350986E+03	2.047160E-06	6.758439E-08
3.360959E+03	2.086569E-06	6.885190E-08
3.370932E+03	2.126240E-06	7.012659E-08
3.380905E+03	2.166440E-06	7.141722E-08
3.390879E+03	2.207180E-06	7.272412E-08
3.400852E+03	2.248197E-06	7.403861E-08
3.410825E+03	2.289772E-06	7.536987E-08
3.420798E+03	2.331637E-06	7.670907E-08
3.430771E+03	2.374360E-06	7.807487E-08
3.440744E+03	2.417396E-06	7.944928E-08
3.450718E+03	2.460751E-06	8.083249E-08
3.460691E+03	2.505010E-06	8.224365E-08
3.470664E+03	2.549613E-06	8.366437E-08
3.480637E+03	2.594864E-06	8.510453E-08
3.490610E+03	2.640479E-06	8.655479E-08
3.500583E+03	2.686770E-06	8.802538E-08
3.510557E+03	2.733755E-06	8.951676E-08
3.520530E+03	2.781449E-06	9.102946E-08
3.530503E+03	2.829874E-06	9.256406E-08
3.540476E+03	2.878732E-06	9.411083E-08
3.550449E+03	2.928350E-06	9.568038E-08
3.560422E+03	2.978748E-06	9.727334E-08
3.570396E+03	3.029623E-06	9.887970E-08
3.580369E+03	3.081636E-06	1.005210E-07
3.590342E+03	3.134157E-06	1.021767E-07
3.600315E+03	3.187530E-06	1.038579E-07
3.610288E+03	3.241774E-06	1.055651E-07
3.620261E+03	3.296570E-06	1.072880E-07
3.630235E+03	3.352612E-06	1.090490E-07
3.640208E+03	3.409241E-06	1.108265E-07
3.650181E+03	3.466813E-06	1.126323E-07
3.660154E+03	3.525349E-06	1.144667E-07
3.670127E+03	3.584868E-06	1.163305E-07
3.680101E+03	3.645391E-06	1.182241E-07
3.690074E+03	3.706576E-06	1.201365E-07
3.700047E+03	3.769160E-06	1.220914E-07
3.710020E+03	3.832440E-06	1.240659E-07
3.719993E+03	3.896793E-06	1.260723E-07
3.729966E+03	3.962241E-06	1.281111E-07
3.739940E+03	4.028800E-06	1.301828E-07
3.749913E+03	4.096489E-06	1.322879E-07
3.759886E+03	4.165328E-06	1.344269E-07
3.769859E+03	4.235335E-06	1.366004E-07
3.779832E+03	4.306138E-06	1.387962E-07
3.789805E+03	4.378531E-06	1.410398E-07
3.799779E+03	4.451749E-06	1.433066E-07
3.809752E+03	4.526200E-06	1.456095E-07
3.819725E+03	4.602300E-06	1.479618E-07
3.829698E+03	4.679269E-06	1.503383E-07
3.839671E+03	4.757518E-06	1.527522E-07
3.849644E+03	4.837068E-06	1.552040E-07
3.859618E+03	4.917931E-06	1.576940E-07
3.869591E+03	5.000124E-06	1.602226E-07
3.879564E+03	5.083664E-06	1.627903E-07
3.889537E+03	5.168564E-06	1.653973E-07
3.899510E+03	5.254409E-06	1.680302E-07
3.909483E+03	5.342072E-06	1.707169E-07
3.919457E+03	5.431138E-06	1.734440E-07
3.929430E+03	5.521183E-06	1.761978E-07
3.939403E+03	5.613096E-06	1.790065E-07
3.949376E+03	5.706454E-06	1.818565E-07
3.959349E+03	5.800819E-06	1.847338E-07
3.969323E+03	5.897103E-06	1.876673E-07
3.979296E+03	5.994412E-06	1.906283E-07
3.989269E+03	6.093671E-06	1.936462E-07
3.999242E+03	6.193972E-06	1.966919E-07
4.009215E+03	6.295785E-06	1.997803E-07
4.019188E+03	6.399596E-06	2.029267E-07
4.029162E+03	6.504471E-06	2.061012E-07
4.039135E+03	6.610891E-06	2.093190E-07
4.049108E+03	6.718868E-06	2.125803E-07
4.059081E+03	6.828901E-06	2.159007E-07
4.069054E+03	6.940026E-06	2.192496E-07
4.079027E+03	7.052741E-06	2.226427E-07
4.089001E+03	7.167052E-06	2.260799E-07
4.098974E+03	7.282974E-06	2.295615E-07
4.108947E+03	7.400514E-06	2.330877E-07
4.118920E+03	7.519171E-06	2.366424E-07
4.128893E+03	7.639975E-06	2.402580E-07
4.138866E+03	7.762427E-06	2.439186E-07
4.148840E+03	7.886540E-06	2.476244E-07
4.158813E+03	8.011795E-06	2.513590E-07
4.168786E+03	8.139255E-06	2.551555E-07
4.178759E+03	8.267869E-06	2.589809E-07
4.188732E+03	8.398178E-06	2.628519E-07
4.198705E+03	8.530192E-06	2.667687E-07
4.208679E+03	8.663923E-06	2.707314E-07
4.218652E+03	8.799382E-06	2.747403E-07
4.228625E+03	8.936582E-06	2.787955E-07
4.238598E+03	9.075537E-06	2.828973E-07
4.248571E+03	9.215693E-06	2.870283E-07
4.258545E+03	9.358189E-06	2.912238E-07
4.268518E+03	9.501908E-06	2.954488E-07
4.278491E+03	9.647429E-06	2.997211E-07
4.288464E+03	9.794766E-06	3.040410E-07
4.298437E+03	9.943936E-06	3.084089E-07
4.308410E+03	1.009437E-05	3.128068E-07
4.318384E+03	1.024666E-05	3.172530E-07
4.328357E+03	1.040143E-05	3.217664E-07
4.338330E+03	1.055690E-05	3.262922E-07
4.348303E+03	1.071489E-05	3.308860E-07
4.358276E+03	1.087421E-05	3.355111E-07
4.368249E+03	1.103549E-05	3.401864E-07
4.378223E+03	1.119874E-05	3.449127E-07
4.388196E+03	1.136400E-05	3.496903E-07
4.398169E+03	1.153067E-05	3.545007E-07
4.408142E+03	1.169938E-05	3.593635E-07
4.418115E+03	1.186954E-05	3.642599E-07
4.428088E+03	1.204244E-05	3.692294E-07
4.438062E+03	1.221620E-05	3.742141E-07
4.448035E+03	1.239277E-05	3.792734E-07
4.458008E+03	1.257088E-05	3.843686E-07
4.467981E+03	1.275123E-05	3.895204E-07
4.477954E+03	1.293318E-05	3.947096E-07
4.487927E+03	1.311743E-05	3.999568E-07
4.497901E+03	1.330335E-05	4.052429E-07
4.507874E+03	1.349165E-05	4.105890E-07
4.517847E+03	1.368169E-05	4.159756E-07
4.527820E+03	1.387419E-05	4.214242E-07
4.537793E+03	1.406920E-05	4.269360E-07
4.547767E+03	1.426607E-05	4.324913E-07
4.557740E+03	1.446484E-05	4.380910E-07
4.567713E+03	1.466626E-05	4.437574E-07
4.577686E+03	1.486968E-05	4.494705E-07
4.587659E+03	1.507514E-05	4.552314E-07
4.597632E+03	1.528339E-05	4.610628E-07
4.607606E+03	1.549451E-05	4.669661E-07
4.617579E+03	1.570711E-05	4.728996E-07
4.627552E+03	1.592268E-05	4.789078E-07
4.637525E+03	1.614056E-05	4.849705E-07
4.647498E+03	1.636154E-05	4.911110E-07
4.657471E+03	1.658494E-05	4.973091E-07
4.667445E+03	1.681084E-05	5.035661E-07
4.677418E+03	1.703928E-05	5.098837E-07
4.687391E+03	1.727109E-05	5.162857E-07
4.697364E+03	1.750482E-05	5.227290E-07
4.707337E+03	1.774206E-05	5.292604E-07
4.717310E+03	1.798211E-05	5.358589E-07
4.727284E+03	1.822504E-05	5.425262E-07
4.737257E+03	1.847172E-05	5.492875E-07
4.747230E+03	1.872064E-05	5.560980E-07
4.757203E+03	1.897346E-05	5.630063E-07
4.767176E+03	1.922866E-05	5.699673E-07
4.777149E+03	1.948792E-05	5.770299E-07
4.787123E+03	1.974970E-05	5.841488E-07
4.797096E+03	2.001571E-05	5.913734E-07
4.807069E+03	2.028440E-05	5.986580E-07
4.817042E+03	2.055746E-05	6.060521E-07
4.827015E+03	2.083337E-05	6.135102E-07
4.836989E+03	2.111382E-05	6.210819E-07
4.846962E+03	2.139727E-05	6.287215E-07
4.856935E+03	2.168459E-05	6.364538E-07
4.866908E+03	2.197590E-05	6.442821E-07
4.876881E+03	2.227129E-05	6.522084E-07
4.886854E+03	2.257079E-05	6.602335E-07
4.896828E+03	2.287368E-05	6.683355E-07
4.906801E+03	2.318086E-05	6.765403E-07
4.916774E+03	2.349241E-05	6.848501E-07
4.926747E+03	2.380846E-05	6.932676E-07
4.936720E+03	2.412904E-05	7.017937E-07
4.946693E+03	2.445337E-05	7.104048E-07
4.956667E+03	2.478239E-05	7.191281E-07
4.966640E+03	2.511622E-05	7.279664E-07
4.976613E+03	2.545398E-05	7.368934E-07
4.986586E+03	2.579666E-05	7.459377E-07
4.996559E+03	2.614437E-05	7.551016E-07
5.006532E+03	2.649620E-05	7.643585E-07
5.016506E+03	2.685225E-05	7.737104E-07
5.026479E+03	2.721445E-05	7.832130E-07
5.036452E+03	2.758097E-05	7.928124E-07
5.046425E+03	2.795184E-05	8.025093E-07
5.056398E+03	2.832812E-05	8.123333E-07
5.066371E+03	2.870985E-05	8.222852E-07
5.076345E+03	2.909608E-05	8.323373E-07
5.086318E+03	2.948687E-05	8.424904E-07
5.096291E+03	2.988325E-05	8.527735E-07
5.106264E+03	3.028425E-05	8.631586E-07
5.116237E+03	3.069091E-05	8.736743E-07
5.126210E+03	3.110224E-05	8.842924E-07
5.136184E+03	3.151929E-05	8.950417E-07
5.146157E+03	3.194107E-05	9.058936E-07
5.156130E+03	3.236754E-05	9.168464E-07
5.166103E+03	3.279980E-05	9.279311E-07
5.176076E+03	3.323678E-05	9.391163E-07
5.186050E+03	3.367848E-05	9.504014E-07
5.196023E+03	3.412596E-05	9.618163E-07
5.205996E+03	3.457703E-05	9.732981E-07
5.215969E+03	3.503498E-05	9.849395E-07
5.225942E+03	3.549646E-05	9.966450E-07
5.235915E+03	3.596367E-05	1.008476E-06
5.245889E+03	3.643546E-05	1.020401E-06
5.255862E+03	3.691176E-05	1.032416E-06
5.265835E+03	3.739254E-05	1.044520E-06
5.275808E+03	3.787893E-05	1.056744E-06
5.285781E+03	3.836969E-05	1.069053E-06
5.295754E+03	3.886353E-05	1.081411E-06
5.305728E+03	3.936406E-05	1.093917E-06
5.315701E+03	3.986751E-05	1.106467E-06
5.325674E+03	4.037506E-05	1.119093E-06
5.335647E+03	4.088785E-05	1.131825E-06
5.345620E+03	4.140331E-05	1.144593E-06
5.355593E+03	4.192387E-05	1.157463E-06
5.365567E+03	4.244690E-05	1.170362E-06
5.375540E+03	4.297485E-05	1.183357E-06
5.385513E+03	4.350635E-05	1.196410E-06
5.395486E+03	4.404131E-05	1.209519E-06
5.405459E+03	4.457963E-05	1.222680E-06
5.415432E+03	4.512117E-05	1.235889E-06
5.425406E+03	4.566586E-05	1.249145E-06
5.435379E+03	4.621355E-05	1.262441E-06
5.445352E+03	4.676412E-05	1.275776E-06
5.455325E+03	4.731746E-05	1.289146E-06
5.465298E+03	4.787340E-05	1.302546E-06
5.475272E+03	4.843043E-05	1.315934E-06
5.485245E+03	4.899113E-05	1.329382E-06
5.495218E+03	4.955398E-05	1.342847E-06
5.505191E+03	5.011880E-05	1.356324E-06
5.515164E+03	5.068391E-05	1.369768E-06
5.525137E+03	5.125200E-05	1.383252E-06
5.535111E+03	5.181995E-05	1.396691E-06
5.545084E+03	5.238902E-05	1.410120E-06
5.555057E+03	5.295894E-05	1.423531E-06
5.565030E+03	5.352952E-05	1.436919E-06
5.575003E+03	5.410054E-05	1.450279E-06
5.584976E+03	5.467177E-05	1.463603E-06
5.594950E+03	5.524143E-05	1.476846E-06
5.604923E+03	5.581081E-05	1.490040E-06
5.614896E+03	5.637972E-05	1.503183E-06
5.624869E+03	5.694793E-05	1.516266E-06
5.634842E+03	5.751521E-05	1.529285E-06
5.644815E+03	5.808140E-05	1.542236E-06
5.654789E+03	5.864465E-05	1.555069E-06
5.664762E+03	5.920636E-05	1.567822E-06
5.674735E+03	5.976634E-05	1.580490E-06
5.684708E+03	6.032277E-05	1.593025E-06
5.694681E+03	6.087708E-05	1.605467E-06
5.704654E+03	6.142909E-05	1.617809E-06
5.714628E+03	6.197867E-05	1.630050E-06
5.724601E+03	6.252561E-05	1.642184E-06
5.734574E+03	6.306812E-05	1.654165E-06
5.744547E+03	6.360770E-05	1.666032E-06
5.754520E+03	6.414252E-05	1.677738E-06
5.764494E+03	6.467414E-05	1.689324E-06
5.774467E+03	6.520244E-05	1.700788E-06
5.784440E+03	6.572732E-05	1.712127E-06
5.794413E+03	6.624693E-05	1.723295E-06
5.804386E+03	6.676290E-05	1.734334E-06
5.814359E+03	6.727518E-05	1.745243E-06
5.824333E+03	6.778188E-05	1.755974E-06
5.834306E+03	6.828475E-05	1.766573E-06
5.844279E+03	6.878189E-05	1.776992E-06
5.854252E+03	6.927509E-05	1.787278E-06
5.864225E+03	6.976433E-05	1.797429E-06
5.874198E+03	7.024768E-05	1.807399E-06
5.884172E+03	7.072706E-05	1.817236E-06
5.894145E+03	7.120239E-05	1.826939E-06
5.904118E+03	7.167184E-05	1.836463E-06
5.914091E+03	7.213730E-05	1.845855E-06
5.924064E+03	7.259690E-05	1.855070E-06
5.934037E+03	7.305259E-05	1.864158E-06
5.944011E+03	7.350248E-05	1.873070E-06
5.953984E+03	7.394853E-05	1.881859E-06
5.963957E+03	7.439086E-05	1.890528E-06
5.973930E+03	7.482756E-05	1.899028E-06
5.983903E+03	7.526071E-05	1.907414E-06
5.993876E+03	7.568842E-05	1.915638E-06
6.003850E+03	7.611277E-05	1.923754E-06
6.013823E+03	7.653385E-05	1.931764E-06
6.023796E+03	7.694988E-05	1.939625E-06
6.033769E+03	7.736095E-05	1.947339E-06
6.043742E+03	7.777116E-05	1.955011E-06
6.053716E+03	7.817471E-05	1.962495E-06
6.063689E+03	7.857773E-05	1.969945E-06
6.073662E+03	7.897441E-05	1.977218E-06
6.083635E+03	7.937092E-05	1.984467E-06
6.093608E+03	7.976342E-05	1.991599E-06
6.103581E+03	8.015209E-05	1.998617E-06
6.113555E+03	8.053918E-05	2.005579E-06
6.123528E+03	8.092484E-05	2.012489E-06
6.133501E+03	8.130726E-05	2.019302E-06
6.143474E+03	8.168866E-05	2.026074E-06
6.153447E+03	8.206721E-05	2.032762E-06
6.163420E+03	8.244517E-05	2.039420E-06
6.173394E+03	8.282275E-05	2.046055E-06
6.183367E+03	8.319809E-05	2.052621E-06
6.193340E+03	8.357349E-05	2.059176E-06
6.203313E+03	8.394705E-05	2.065674E-06
6.213286E+03	8.432103E-05	2.072171E-06
6.223259E+03	8.469356E-05	2.078620E-06
6.233233E+03	8.506690E-05	2.085079E-06
6.243206E+03	8.544128E-05	2.091553E-06
6.253179E+03	8.581473E-05	2.097995E-06
6.263152E+03	8.618955E-05	2.104461E-06
6.273125E+03	8.656373E-05	2.110902E-06
6.283098E+03	8.693959E-05	2.117377E-06
6.293072E+03	8.731729E-05	2.123889E-06
6.303045E+03	8.769469E-05	2.130386E-06
6.313018E+03	8.807416E-05	2.136927E-06
6.322991E+03	8.845574E-05	2.143513E-06
6.332964E+03	8.883732E-05	2.150094E-06
6.342937E+03	8.922117E-05	2.156725E-06
6.352911E+03	8.960729E-05	2.163406E-06
6.362884E+03	8.999350E-05	2.170085E-06
6.372857E+03	9.038199E-05	2.176816E-06
6.382830E+03	9.077275E-05	2.183599E-06
6.392803E+03	9.116574E-05	2.190433E-06
6.402777E+03	9.155862E-05	2.197263E-06
6.412750E+03	9.195357E-05	2.204142E-06
6.422723E+03	9.234819E-05	2.211013E-06
6.432696E+03	9.274698E-05	2.217985E-06
6.442669E+03	9.314520E-05	2.224943E-06
6.452642E+03	9.354500E-05	2.231942E-06
6.462616E+03	9.394627E-05	2.238977E-06
6.472589E+03	9.434652E-05	2.245992E-06
6.482562E+03	9.474794E-05	2.253039E-06
6.492535E+03	9.515046E-05	2.260118E-06
6.502508E+03	9.555405E-05	2.267227E-06
6.512481E+03	9.595867E-05	2.274367E-06
6.522455E+03	9.636449E-05	2.281543E-06
6.532428E+03	9.676913E-05	2.288699E-06
6.542401E+03	9.717777E-05	2.295959E-06
6.552374E+03	9.758578E-05	2.303214E-06
6.562347E+03	9.799588E-05	2.310529E-06
6.572320E+03	9.840845E-05	2.317914E-06
6.582294E+03	9.882388E-05	2.325378E-06
6.592267E+03	9.924250E-05	2.332931E-06
6.602240E+03	9.966467E-05	2.340581E-06
6.612213E+03	1.000883E-04	2.348279E-06
6.622186E+03	1.005187E-04	2.356154E-06
6.632159E+03	1.009537E-04	2.364153E-06
6.642133E+03	1.013938E-04	2.372287E-06
6.652106E+03	1.018365E-04	2.380501E-06
6.662079E+03	1.022874E-04	2.388923E-06
6.672052E+03	1.027443E-04	2.397501E-06
6.682025E+03	1.032072E-04	2.406238E-06
6.691999E+03	1.036739E-04	2.415080E-06
6.701972E+03	1.041498E-04	2.424154E-06
6.711945E+03	1.046326E-04	2.433404E-06
6.721918E+03	1.051224E-04	2.442835E-06
6.731891E+03	1.056221E-04	2.452512E-06
6.741864E+03	1.061266E-04	2.462317E-06
6.751838E+03	1.066386E-04	2.472312E-06
6.761811E+03	1.071611E-04	2.482566E-06
6.771784E+03	1.076887E-04	2.492955E-06
6.781757E+03	1.082269E-04	2.503607E-06
6.791730E+03	1.087733E-04	2.514462E-06
6.801703E+03	1.093306E-04	2.525587E-06
6.811677E+03	1.098934E-04	2.536853E-06
6.821650E+03	1.104673E-04	2.548392E-06
6.831623E+03	1.110496E-04	2.560141E-06
6.841596E+03	1.116403E-04	2.572100E-06
6.851569E+03	1.122396E-04	2.584271E-06
6.861542E+03	1.128503E-04	2.596720E-06
6.871516E+03	1.134666E-04	2.609314E-06
6.881489E+03	1.140973E-04	2.622256E-06
6.891462E+03	1.147337E-04	2.635344E-06
6.901435E+03	1.153817E-04	2.648713E-06
6.911408E+03	1.160383E-04	2.662297E-06
6.921381E+03	1.167035E-04	2.676092E-06
6.931355E+03	1.173803E-04	2.690171E-06
6.941328E+03	1.180657E-04	2.704461E-06
6.951301E+03	1.187597E-04	2.718965E-06
6.961274E+03	1.194653E-04	2.733751E-06
6.971247E+03	1.201794E-04	2.748749E-06
6.981221E+03	1.209052E-04	2.764029E-06
6.991194E+03	1.216394E-04	2.779519E-06
7.001167E+03	1.223821E-04	2.795219E-06
7.011140E+03	1.231363E-04	2.811200E-06
7.021113E+03	1.238989E-04	2.827388E-06
7.031086E+03	1.246730E-04	2.843858E-06
7.041060E+03	1.254554E-04	2.860534E-06
7.051033E+03	1.262459E-04	2.877413E-06
7.061006E+03	1.270479E-04	2.894572E-06
7.070979E+03	1.278614E-04	2.912011E-06
7.080952E+03	1.286829E-04	2.929652E-06
7.090925E+03	1.295122E-04	2.947492E-06
7.100899E+03	1.303529E-04	2.965609E-06
7.110872E+03	1.312050E-04	2.984006E-06
7.120845E+03	1.320613E-04	3.002518E-06
7.130818E+03	1.329323E-04	3.021387E-06
7.140791E+03	1.338110E-04	3.040451E-06
7.150764E+03	1.346972E-04	3.059708E-06
7.160738E+03	1.355981E-04	3.079322E-06
7.170711E+03	1.365028E-04	3.099045E-06
7.180684E+03	1.374185E-04	3.119042E-06
7.190657E+03	1.383452E-04	3.139311E-06
7.200630E+03	1.392791E-04	3.159769E-06
7.210603E+03	1.402239E-04	3.180499E-06
7.220577E+03	1.411795E-04	3.201502E-06
7.230550E+03	1.421422E-04	3.222690E-06
7.240523E+03	1.431156E-04	3.244152E-06
7.250496E+03	1.440958E-04	3.265794E-06
7.260469E+03	1.450868E-04	3.287709E-06
7.270443E+03	1.460844E-04	3.309803E-06
7.280416E+03	1.470967E-04	3.332262E-06
7.290389E+03	1.481114E-04	3.354807E-06
7.300362E+03	1.491408E-04	3.377717E-06
7.310335E+03	1.501765E-04	3.400803E-06
7.320308E+03	1.512227E-04	3.424162E-06
7.330282E+03	1.522751E-04	3.447695E-06
7.340255E+03	1.533379E-04	3.471499E-06
7.350228E+03	1.544110E-04	3.495575E-06
7.360201E+03	1.554901E-04	3.519825E-06
7.370174E+03	1.565794E-04	3.544344E-06
7.380147E+03	1.576789E-04	3.569136E-06
7.390121E+03	1.587885E-04	3.594199E-06
7.400094E+03	1.599038E-04	3.619432E-06
7.410067E+03	1.610245E-04	3.644832E-06
7.420040E+03	1.621598E-04	3.670607E-06
7.430013E+03	1.633003E-04	3.696548E-06
7.439986E+03	1.644506E-04	3.722759E-06
7.449960E+03	1.656107E-04	3.749240E-06
7.459933E+03	1.667757E-04	3.775882E-06
7.469906E+03	1.679501E-04	3.802792E-06
7.479879E+03	1.691340E-04	3.829969E-06
7.489852E+03	1.703273E-04	3.857414E-06
7.499825E+03	1.715247E-04	3.885010E-06
7.509799E+03	1.727312E-04	3.912871E-06
7.519772E+03	1.739466E-04	3.940991E-06
7.529745E+03	1.751654E-04	3.969253E-06
7.539718E+03	1.763928E-04	3.997772E-06
7.549691E+03	1.776283E-04	4.026540E-06
7.559665E+03	1.788718E-04	4.055558E-06
7.569638E+03	1.801231E-04	4.084821E-06
7.579611E+03	1.813765E-04	4.114200E-06
7.589584E+03	1.826369E-04	4.143813E-06
7.599557E+03	1.839039E-04	4.173652E-06
7.609530E+03	1.851718E-04	4.203586E-06
7.619504E+03	1.864509E-04	4.233854E-06
7.629477E+03	1.877298E-04	4.264198E-06
7.639450E+03	1.890134E-04	4.294732E-06
7.649423E+03	1.902954E-04	4.325314E-06
7.659396E+03	1.915866E-04	4.356192E-06
7.669369E+03	1.928747E-04	4.387090E-06
7.679343E+03	1.941646E-04	4.418121E-06
7.689316E+03	1.954555E-04	4.449267E-06
7.699289E+03	1.967404E-04	4.480372E-06
7.709262E+03	1.980302E-04	4.511689E-06
7.719235E+03	1.993117E-04	4.542916E-06
7.729208E+03	2.005896E-04	4.574165E-06
7.739182E+03	2.018626E-04	4.605407E-06
