#wls	flux	fluxerr
1.595708E+03	4.885062E-08	1.484494E-09
1.635600E+03	5.149255E-08	1.563512E-09
1.675493E+03	5.359390E-08	1.625961E-09
1.715386E+03	5.508653E-08	1.669812E-09
1.755278E+03	5.581208E-08	1.690311E-09
1.795171E+03	5.561870E-08	1.682923E-09
1.835064E+03	5.426471E-08	1.640417E-09
1.874956E+03	5.157434E-08	1.557585E-09
1.914849E+03	4.749459E-08	1.432952E-09
1.954742E+03	4.221086E-08	1.272238E-09
1.994634E+03	3.624812E-08	1.091373E-09
2.034527E+03	3.046762E-08	9.163399E-10
2.074420E+03	2.580557E-08	7.752619E-10
2.114312E+03	2.301731E-08	6.907045E-10
2.154205E+03	2.252178E-08	6.750393E-10
2.194098E+03	2.451278E-08	7.338253E-10
2.233991E+03	2.909269E-08	8.698472E-10
2.273883E+03	3.627598E-08	1.083232E-09
2.313776E+03	4.585318E-08	1.367412E-09
2.353669E+03	5.749800E-08	1.712355E-09
2.393561E+03	7.074176E-08	2.103834E-09
2.433454E+03	8.514823E-08	2.528650E-09
2.473347E+03	1.003670E-07	2.976214E-09
2.513239E+03	1.162038E-07	3.440610E-09
2.553132E+03	1.324216E-07	3.914691E-09
2.593025E+03	1.490561E-07	4.399396E-09
2.632917E+03	1.660448E-07	4.892760E-09
2.672810E+03	1.834115E-07	5.395367E-09
2.712703E+03	2.012051E-07	5.908517E-09
2.752596E+03	2.194901E-07	6.433972E-09
2.792488E+03	2.384388E-07	6.976609E-09
2.832381E+03	2.579483E-07	7.533235E-09
2.872274E+03	2.783081E-07	8.112109E-09
2.912166E+03	2.995156E-07	8.712921E-09
2.952059E+03	3.216699E-07	9.338295E-09
2.991952E+03	3.448745E-07	9.990961E-09
3.001925E+03	3.508869E-07	1.015972E-08
3.011898E+03	3.568346E-07	1.032639E-08
3.021871E+03	3.629972E-07	1.049905E-08
3.031844E+03	3.692610E-07	1.067442E-08
3.041818E+03	3.757091E-07	1.085487E-08
3.051791E+03	3.824311E-07	1.104299E-08
3.061764E+03	3.894088E-07	1.123824E-08
3.071737E+03	3.964715E-07	1.143569E-08
3.081710E+03	4.039092E-07	1.164367E-08
3.091683E+03	4.115557E-07	1.185739E-08
3.101657E+03	4.193979E-07	1.207645E-08
3.111630E+03	4.274232E-07	1.230048E-08
3.121603E+03	4.356199E-07	1.252914E-08
3.131576E+03	4.439775E-07	1.276210E-08
3.141549E+03	4.524861E-07	1.299908E-08
3.151522E+03	4.611363E-07	1.323979E-08
3.161496E+03	4.699199E-07	1.348399E-08
3.171469E+03	4.786460E-07	1.372619E-08
3.181442E+03	4.876712E-07	1.397662E-08
3.191415E+03	4.968090E-07	1.422991E-08
3.201388E+03	5.060541E-07	1.448590E-08
3.211361E+03	5.154014E-07	1.474445E-08
3.221335E+03	5.248470E-07	1.500542E-08
3.231308E+03	5.343871E-07	1.526871E-08
3.241281E+03	5.440190E-07	1.553422E-08
3.251254E+03	5.537403E-07	1.580188E-08
3.261227E+03	5.635494E-07	1.607163E-08
3.271200E+03	5.734448E-07	1.634344E-08
3.281174E+03	5.834264E-07	1.661728E-08
3.291147E+03	5.934938E-07	1.689313E-08
3.301120E+03	6.036478E-07	1.717101E-08
3.311093E+03	6.138891E-07	1.745093E-08
3.321066E+03	6.242193E-07	1.773293E-08
3.331040E+03	6.346404E-07	1.801706E-08
3.341013E+03	6.451547E-07	1.830338E-08
3.350986E+03	6.560095E-07	1.859887E-08
3.360959E+03	6.667229E-07	1.888988E-08
3.370932E+03	6.775393E-07	1.918332E-08
3.380905E+03	6.884629E-07	1.947930E-08
3.390879E+03	6.994980E-07	1.977793E-08
3.400852E+03	7.106494E-07	2.007934E-08
3.410825E+03	7.219221E-07	2.038367E-08
3.420798E+03	7.333218E-07	2.069104E-08
3.430771E+03	7.448539E-07	2.100163E-08
3.440744E+03	7.565248E-07	2.131557E-08
3.450718E+03	7.683405E-07	2.163304E-08
3.460691E+03	7.805937E-07	2.196226E-08
3.470664E+03	7.927233E-07	2.228742E-08
3.480637E+03	8.050185E-07	2.261664E-08
3.490610E+03	8.174866E-07	2.295013E-08
3.500583E+03	8.301351E-07	2.328806E-08
3.510557E+03	8.429719E-07	2.363066E-08
3.520530E+03	8.560050E-07	2.397812E-08
3.530503E+03	8.695577E-07	2.433948E-08
3.540476E+03	8.830127E-07	2.469744E-08
3.550449E+03	8.966892E-07	2.506091E-08
3.560422E+03	9.105962E-07	2.543013E-08
3.570396E+03	9.247427E-07	2.580534E-08
3.580369E+03	9.394758E-07	2.619618E-08
3.590342E+03	9.541338E-07	2.658418E-08
3.600315E+03	9.690595E-07	2.697889E-08
3.610288E+03	9.842627E-07	2.738054E-08
3.620261E+03	9.997534E-07	2.778940E-08
3.630235E+03	1.015904E-06	2.821579E-08
3.640208E+03	1.032005E-06	2.863996E-08
3.650181E+03	1.048425E-06	2.907212E-08
3.660154E+03	1.065174E-06	2.951253E-08
3.670127E+03	1.082262E-06	2.996147E-08
3.680101E+03	1.100092E-06	3.042999E-08
3.690074E+03	1.117899E-06	3.089696E-08
3.700047E+03	1.136081E-06	3.137329E-08
3.710020E+03	1.154647E-06	3.185928E-08
3.719993E+03	1.174025E-06	3.236662E-08
3.729966E+03	1.193404E-06	3.287296E-08
3.739940E+03	1.213205E-06	3.338984E-08
3.749913E+03	1.233439E-06	3.391758E-08
3.759886E+03	1.254560E-06	3.446854E-08
3.769859E+03	1.275708E-06	3.501909E-08
3.779832E+03	1.297328E-06	3.558143E-08
3.789805E+03	1.319434E-06	3.615588E-08
3.799779E+03	1.342509E-06	3.675560E-08
3.809752E+03	1.365635E-06	3.735546E-08
3.819725E+03	1.389290E-06	3.796846E-08
3.829698E+03	1.413486E-06	3.859488E-08
3.839671E+03	1.438738E-06	3.924876E-08
3.849644E+03	1.464071E-06	3.990339E-08
3.859618E+03	1.489990E-06	4.057255E-08
3.869591E+03	1.517034E-06	4.127080E-08
3.879564E+03	1.544182E-06	4.197036E-08
3.889537E+03	1.571964E-06	4.268553E-08
3.899510E+03	1.600396E-06	4.341673E-08
3.909483E+03	1.630053E-06	4.417948E-08
3.919457E+03	1.659843E-06	4.494411E-08
3.929430E+03	1.690337E-06	4.572600E-08
3.939403E+03	1.722135E-06	4.654136E-08
3.949376E+03	1.754093E-06	4.735914E-08
3.959349E+03	1.786804E-06	4.819536E-08
3.969323E+03	1.820908E-06	4.906713E-08
3.979296E+03	1.855197E-06	4.994186E-08
3.989269E+03	1.890299E-06	5.083636E-08
3.999242E+03	1.926230E-06	5.175105E-08
4.009215E+03	1.963676E-06	5.270421E-08
4.019188E+03	2.001344E-06	5.366103E-08
4.029162E+03	2.039904E-06	5.463945E-08
4.039135E+03	2.080077E-06	5.565866E-08
4.049108E+03	2.120500E-06	5.668210E-08
4.059081E+03	2.161880E-06	5.772858E-08
4.069054E+03	2.204240E-06	5.879866E-08
4.079027E+03	2.248357E-06	5.991288E-08
4.089001E+03	2.292762E-06	6.103204E-08
4.098974E+03	2.338217E-06	6.217632E-08
4.108947E+03	2.385542E-06	6.336741E-08
4.118920E+03	2.433186E-06	6.456398E-08
4.128893E+03	2.481956E-06	6.578740E-08
4.138866E+03	2.532715E-06	6.706034E-08
4.148840E+03	2.583828E-06	6.833940E-08
4.158813E+03	2.636146E-06	6.964702E-08
4.168786E+03	2.689695E-06	7.098376E-08
4.178759E+03	2.745406E-06	7.237403E-08
4.188732E+03	2.801516E-06	7.377120E-08
4.198705E+03	2.858943E-06	7.519934E-08
4.208679E+03	2.917715E-06	7.665907E-08
4.218652E+03	2.978837E-06	7.817662E-08
4.228625E+03	3.040410E-06	7.970194E-08
4.238598E+03	3.103416E-06	8.126076E-08
4.248571E+03	3.168925E-06	8.288082E-08
4.258545E+03	3.234922E-06	8.450929E-08
4.268518E+03	3.302450E-06	8.617329E-08
4.278491E+03	3.371544E-06	8.787358E-08
4.288464E+03	3.443356E-06	8.963997E-08
4.298437E+03	3.515708E-06	9.141557E-08
4.308410E+03	3.589729E-06	9.322960E-08
4.318384E+03	3.665455E-06	9.508282E-08
4.328357E+03	3.744131E-06	9.700731E-08
4.338330E+03	3.823402E-06	9.894180E-08
4.348303E+03	3.904491E-06	1.009178E-07
4.358276E+03	3.987434E-06	1.029361E-07
4.368249E+03	4.072271E-06	1.049975E-07
4.378223E+03	4.160374E-06	1.071371E-07
4.388196E+03	4.249144E-06	1.092877E-07
4.398169E+03	4.339929E-06	1.114839E-07
4.408142E+03	4.432770E-06	1.137265E-07
4.418115E+03	4.527710E-06	1.160162E-07
4.428088E+03	4.626263E-06	1.183918E-07
4.438062E+03	4.725558E-06	1.207793E-07
4.448035E+03	4.827084E-06	1.232168E-07
4.458008E+03	4.930883E-06	1.257049E-07
4.467981E+03	5.037002E-06	1.282447E-07
4.477954E+03	5.147115E-06	1.308784E-07
4.487927E+03	5.258048E-06	1.335250E-07
4.497901E+03	5.371442E-06	1.362260E-07
4.507874E+03	5.487345E-06	1.389824E-07
4.517847E+03	5.605808E-06	1.417951E-07
4.527820E+03	5.726880E-06	1.446650E-07
4.537793E+03	5.850609E-06	1.475931E-07
4.547767E+03	5.977051E-06	1.505805E-07
4.557740E+03	6.108164E-06	1.536762E-07
4.567713E+03	6.240219E-06	1.567858E-07
4.577686E+03	6.375142E-06	1.599576E-07
4.587659E+03	6.512988E-06	1.631926E-07
4.597632E+03	6.653810E-06	1.664919E-07
4.607606E+03	6.797662E-06	1.698564E-07
4.617579E+03	6.944602E-06	1.732871E-07
4.627552E+03	7.094683E-06	1.767851E-07
4.637525E+03	7.247963E-06	1.803514E-07
4.647498E+03	7.404499E-06	1.839871E-07
4.657471E+03	7.564352E-06	1.876932E-07
4.667445E+03	7.727575E-06	1.914707E-07
4.677418E+03	7.894229E-06	1.953207E-07
4.687391E+03	8.064372E-06	1.992441E-07
4.697364E+03	8.238067E-06	2.032423E-07
4.707337E+03	8.415371E-06	2.073160E-07
4.717310E+03	8.596345E-06	2.114664E-07
4.727284E+03	8.781051E-06	2.156945E-07
4.737257E+03	8.969547E-06	2.200014E-07
4.747230E+03	9.161894E-06	2.243880E-07
4.757203E+03	9.358157E-06	2.288555E-07
4.767176E+03	9.558394E-06	2.334047E-07
4.777149E+03	9.762667E-06	2.380369E-07
4.787123E+03	9.971040E-06	2.427528E-07
4.797096E+03	1.018357E-05	2.475536E-07
4.807069E+03	1.040032E-05	2.524402E-07
4.817042E+03	1.061814E-05	2.573356E-07
4.827015E+03	1.084344E-05	2.623951E-07
4.836989E+03	1.107316E-05	2.675434E-07
4.846962E+03	1.130733E-05	2.727811E-07
4.856935E+03	1.154603E-05	2.781092E-07
4.866908E+03	1.178930E-05	2.835285E-07
4.876881E+03	1.203359E-05	2.889529E-07
4.886854E+03	1.228612E-05	2.945556E-07
4.896828E+03	1.254341E-05	3.002519E-07
4.906801E+03	1.280550E-05	3.060426E-07
4.916774E+03	1.306853E-05	3.118348E-07
4.926747E+03	1.334032E-05	3.178146E-07
4.936720E+03	1.361707E-05	3.238906E-07
4.946693E+03	1.389883E-05	3.300635E-07
4.956667E+03	1.418142E-05	3.362335E-07
4.966640E+03	1.447327E-05	3.425998E-07
4.976613E+03	1.477027E-05	3.490644E-07
4.986586E+03	1.506798E-05	3.555218E-07
4.996559E+03	1.537532E-05	3.621821E-07
5.006532E+03	1.568792E-05	3.689414E-07
5.016506E+03	1.600109E-05	3.756887E-07
5.026479E+03	1.632424E-05	3.826447E-07
5.036452E+03	1.664783E-05	3.895848E-07
5.046425E+03	1.698164E-05	3.967375E-07
5.056398E+03	1.732086E-05	4.039893E-07
5.066371E+03	1.766030E-05	4.112187E-07
5.076345E+03	1.801029E-05	4.186658E-07
5.086318E+03	1.836032E-05	4.260855E-07
5.096291E+03	1.872110E-05	4.337260E-07
5.106264E+03	1.908174E-05	4.413338E-07
5.116237E+03	1.945333E-05	4.491651E-07
5.126210E+03	1.982454E-05	4.569576E-07
5.136184E+03	2.020688E-05	4.649759E-07
5.146157E+03	2.058859E-05	4.729488E-07
5.156130E+03	2.097545E-05	4.810089E-07
5.166103E+03	2.137367E-05	4.892975E-07
5.176076E+03	2.177082E-05	4.975295E-07
5.186050E+03	2.217945E-05	5.059911E-07
5.196023E+03	2.258669E-05	5.143878E-07
5.205996E+03	2.299881E-05	5.228625E-07
5.215969E+03	2.342253E-05	5.315672E-07
5.225942E+03	2.384429E-05	5.401930E-07
5.235915E+03	2.427066E-05	5.488892E-07
5.245889E+03	2.470154E-05	5.576528E-07
5.255862E+03	2.514408E-05	5.666444E-07
5.265835E+03	2.558373E-05	5.755351E-07
5.275808E+03	2.602748E-05	5.844828E-07
5.285781E+03	2.647519E-05	5.934834E-07
5.295754E+03	2.692668E-05	6.025327E-07
5.305728E+03	2.738964E-05	6.118021E-07
5.315701E+03	2.784824E-05	6.209375E-07
5.325674E+03	2.830998E-05	6.301060E-07
5.335647E+03	2.877468E-05	6.393036E-07
5.345620E+03	2.924204E-05	6.485233E-07
5.355593E+03	2.971181E-05	6.577593E-07
5.365567E+03	3.018367E-05	6.670044E-07
5.375540E+03	3.065731E-05	6.762516E-07
5.385513E+03	3.113240E-05	6.854936E-07
5.395486E+03	3.160857E-05	6.947220E-07
5.405459E+03	3.208545E-05	7.039290E-07
5.415432E+03	3.256266E-05	7.131061E-07
5.425406E+03	3.303975E-05	7.222435E-07
5.435379E+03	3.351630E-05	7.313326E-07
5.445352E+03	3.399190E-05	7.403642E-07
5.455325E+03	3.446612E-05	7.493297E-07
5.465298E+03	3.493860E-05	7.582211E-07
5.475272E+03	3.540895E-05	7.670309E-07
5.485245E+03	3.586679E-05	7.755346E-07
5.495218E+03	3.633211E-05	7.841657E-07
5.505191E+03	3.679472E-05	7.927037E-07
5.515164E+03	3.725453E-05	8.011474E-07
5.525137E+03	3.770089E-05	8.092687E-07
5.535111E+03	3.815501E-05	8.175237E-07
5.545084E+03	3.860634E-05	8.256864E-07
5.555057E+03	3.905495E-05	8.337584E-07
5.565030E+03	3.948978E-05	8.415051E-07
5.575003E+03	3.993306E-05	8.494008E-07
5.584976E+03	4.037380E-05	8.572119E-07
5.594950E+03	4.080065E-05	8.646979E-07
5.604923E+03	4.123648E-05	8.723446E-07
5.614896E+03	4.165836E-05	8.796668E-07
5.624869E+03	4.208959E-05	8.871574E-07
5.634842E+03	4.250680E-05	8.943237E-07
5.644815E+03	4.293380E-05	9.016675E-07
5.654789E+03	4.334666E-05	9.086859E-07
5.664762E+03	4.376970E-05	9.158898E-07
5.674735E+03	4.417857E-05	9.227694E-07
5.684708E+03	4.459798E-05	9.298418E-07
5.694681E+03	4.500317E-05	9.365902E-07
5.704654E+03	4.540656E-05	9.432748E-07
5.714628E+03	4.582105E-05	9.501632E-07
5.724601E+03	4.622127E-05	9.567291E-07
5.734574E+03	4.661992E-05	9.632368E-07
5.744547E+03	4.703025E-05	9.699596E-07
5.754520E+03	4.742621E-05	9.763603E-07
5.764494E+03	4.782089E-05	9.827092E-07
5.774467E+03	4.821435E-05	9.890085E-07
5.784440E+03	4.860670E-05	9.952600E-07
5.794413E+03	4.901163E-05	1.001744E-06
5.804386E+03	4.940211E-05	1.007908E-06
5.814359E+03	4.979173E-05	1.014031E-06
5.824333E+03	5.018060E-05	1.020114E-06
5.834306E+03	5.056877E-05	1.026159E-06
5.844279E+03	5.095636E-05	1.032169E-06
5.854252E+03	5.134345E-05	1.038146E-06
5.864225E+03	5.173009E-05	1.044091E-06
5.874198E+03	5.211643E-05	1.050006E-06
5.884172E+03	5.250254E-05	1.055894E-06
5.894145E+03	5.288849E-05	1.061757E-06
5.904118E+03	5.327439E-05	1.067596E-06
5.914091E+03	5.366036E-05	1.073414E-06
5.924064E+03	5.404643E-05	1.079213E-06
5.934037E+03	5.443274E-05	1.084994E-06
5.944011E+03	5.480426E-05	1.090460E-06
5.953984E+03	5.519117E-05	1.096211E-06
5.963957E+03	5.557860E-05	1.101951E-06
5.973930E+03	5.596663E-05	1.107683E-06
5.983903E+03	5.633981E-05	1.113100E-06
5.993876E+03	5.672918E-05	1.118817E-06
6.003850E+03	5.711940E-05	1.124530E-06
6.013823E+03	5.749478E-05	1.129931E-06
6.023796E+03	5.788690E-05	1.135642E-06
6.033769E+03	5.828012E-05	1.141355E-06
6.043742E+03	5.865848E-05	1.146758E-06
6.053716E+03	5.905411E-05	1.152480E-06
6.063689E+03	5.943482E-05	1.157892E-06
6.073662E+03	5.983317E-05	1.163629E-06
6.083635E+03	6.021658E-05	1.169057E-06
6.093608E+03	6.061801E-05	1.174818E-06
6.103581E+03	6.100442E-05	1.180269E-06
6.113555E+03	6.140916E-05	1.186058E-06
6.123528E+03	6.179886E-05	1.191540E-06
6.133501E+03	6.219028E-05	1.197038E-06
6.143474E+03	6.260053E-05	1.202881E-06
6.153447E+03	6.299560E-05	1.208417E-06
6.163420E+03	6.339256E-05	1.213974E-06
6.173394E+03	6.380883E-05	1.219884E-06
6.183367E+03	6.420981E-05	1.225487E-06
6.193340E+03	6.461277E-05	1.231113E-06
6.203313E+03	6.501784E-05	1.236764E-06
6.213286E+03	6.542498E-05	1.242441E-06
6.223259E+03	6.585213E-05	1.248484E-06
6.233233E+03	6.626364E-05	1.254217E-06
6.243206E+03	6.667727E-05	1.259977E-06
6.253179E+03	6.709307E-05	1.265765E-06
6.263152E+03	6.751097E-05	1.271581E-06
6.273125E+03	6.793104E-05	1.277426E-06
6.283098E+03	6.835320E-05	1.283298E-06
6.293072E+03	6.877743E-05	1.289199E-06
6.303045E+03	6.920365E-05	1.295127E-06
6.313018E+03	6.963181E-05	1.301082E-06
6.322991E+03	7.006185E-05	1.307062E-06
6.332964E+03	7.049362E-05	1.313065E-06
6.342937E+03	7.090780E-05	1.318733E-06
6.352911E+03	7.134258E-05	1.324778E-06
6.362884E+03	7.177873E-05	1.330840E-06
6.372857E+03	7.221603E-05	1.336917E-06
6.382830E+03	7.265421E-05	1.343005E-06
6.392803E+03	7.307330E-05	1.348735E-06
6.402777E+03	7.351246E-05	1.354832E-06
6.412750E+03	7.395175E-05	1.360928E-06
6.422723E+03	7.437061E-05	1.366645E-06
6.432696E+03	7.480888E-05	1.372717E-06
6.442669E+03	7.522573E-05	1.378396E-06
6.452642E+03	7.566134E-05	1.384418E-06
6.462616E+03	7.609500E-05	1.390405E-06
6.472589E+03	7.650552E-05	1.395972E-06
6.482562E+03	7.693376E-05	1.401865E-06
6.492535E+03	7.733783E-05	1.407321E-06
6.502508E+03	7.775908E-05	1.413095E-06
6.512481E+03	7.815543E-05	1.418423E-06
6.522455E+03	7.854776E-05	1.423685E-06
6.532428E+03	7.895754E-05	1.429272E-06
6.542401E+03	7.934255E-05	1.434420E-06
6.552374E+03	7.972436E-05	1.439521E-06
6.562347E+03	8.012516E-05	1.444976E-06
6.572320E+03	8.050229E-05	1.450017E-06
6.582294E+03	8.087783E-05	1.455043E-06
6.592267E+03	8.125234E-05	1.460066E-06
6.602240E+03	8.164851E-05	1.465493E-06
6.612213E+03	8.202274E-05	1.470543E-06
6.622186E+03	8.239755E-05	1.475622E-06
6.632159E+03	8.277346E-05	1.480739E-06
6.642133E+03	8.315084E-05	1.485902E-06
6.652106E+03	8.353020E-05	1.491121E-06
6.662079E+03	8.391191E-05	1.496403E-06
6.672052E+03	8.429630E-05	1.501753E-06
6.682025E+03	8.468379E-05	1.507180E-06
6.691999E+03	8.507473E-05	1.512689E-06
6.701972E+03	8.546939E-05	1.518285E-06
6.711945E+03	8.586811E-05	1.523974E-06
6.721918E+03	8.627117E-05	1.529761E-06
6.731891E+03	8.667885E-05	1.535650E-06
6.741864E+03	8.709142E-05	1.541647E-06
6.751838E+03	8.750917E-05	1.547756E-06
6.761811E+03	8.790855E-05	1.553560E-06
6.771784E+03	8.833717E-05	1.559903E-06
6.781757E+03	8.877162E-05	1.566368E-06
6.791730E+03	8.921216E-05	1.572962E-06
6.801703E+03	8.963473E-05	1.579259E-06
6.811677E+03	9.008789E-05	1.586115E-06
6.821650E+03	9.054769E-05	1.593109E-06
6.831623E+03	9.098969E-05	1.599810E-06
6.841596E+03	9.146320E-05	1.607085E-06
6.851569E+03	9.194391E-05	1.614507E-06
6.861542E+03	9.240693E-05	1.621638E-06
6.871516E+03	9.290234E-05	1.629358E-06
6.881489E+03	9.338011E-05	1.636788E-06
6.891462E+03	9.389081E-05	1.644817E-06
6.901435E+03	9.438385E-05	1.652556E-06
6.911408E+03	9.491037E-05	1.660901E-06
6.921381E+03	9.541924E-05	1.668958E-06
6.931355E+03	9.593613E-05	1.677175E-06
6.941328E+03	9.648722E-05	1.686011E-06
6.951301E+03	9.702060E-05	1.694558E-06
6.961274E+03	9.758870E-05	1.703731E-06
6.971247E+03	9.813898E-05	1.712614E-06
6.981221E+03	9.869774E-05	1.721666E-06
6.991194E+03	9.926509E-05	1.730889E-06
7.001167E+03	9.986816E-05	1.740755E-06
7.011140E+03	1.004531E-04	1.750326E-06
7.021113E+03	1.010467E-04	1.760071E-06
7.031086E+03	1.016493E-04	1.769993E-06
7.041060E+03	1.022607E-04	1.780090E-06
7.051033E+03	1.028811E-04	1.790366E-06
7.061006E+03	1.035105E-04	1.800821E-06
7.070979E+03	1.041772E-04	1.811947E-06
7.080952E+03	1.048249E-04	1.822765E-06
7.090925E+03	1.054817E-04	1.833763E-06
7.100899E+03	1.061475E-04	1.844943E-06
7.110872E+03	1.068224E-04	1.856305E-06
7.120845E+03	1.075065E-04	1.867850E-06
7.130818E+03	1.081997E-04	1.879577E-06
7.140791E+03	1.088723E-04	1.890972E-06
7.150764E+03	1.095834E-04	1.903061E-06
7.160738E+03	1.103036E-04	1.915333E-06
7.170711E+03	1.110327E-04	1.927787E-06
7.180684E+03	1.117709E-04	1.940425E-06
7.190657E+03	1.125179E-04	1.953243E-06
7.200630E+03	1.132430E-04	1.965708E-06
7.210603E+03	1.140075E-04	1.978885E-06
7.220577E+03	1.147807E-04	1.992243E-06
7.230550E+03	1.155625E-04	2.005780E-06
7.240523E+03	1.163211E-04	2.018944E-06
7.250496E+03	1.171197E-04	2.032834E-06
7.260469E+03	1.179267E-04	2.046899E-06
7.270443E+03	1.187093E-04	2.060575E-06
7.280416E+03	1.195323E-04	2.074984E-06
7.290389E+03	1.203302E-04	2.088993E-06
7.300362E+03	1.211687E-04	2.103739E-06
7.310335E+03	1.220147E-04	2.118653E-06
7.320308E+03	1.228346E-04	2.133148E-06
7.330282E+03	1.236950E-04	2.148385E-06
7.340255E+03	1.245284E-04	2.163191E-06
7.350228E+03	1.253682E-04	2.178146E-06
7.360201E+03	1.262487E-04	2.193849E-06
7.370174E+03	1.271007E-04	2.209098E-06
7.380147E+03	1.279934E-04	2.225098E-06
7.390121E+03	1.288567E-04	2.240626E-06
7.400094E+03	1.297250E-04	2.256288E-06
7.410067E+03	1.306340E-04	2.272704E-06
7.420040E+03	1.315118E-04	2.288623E-06
7.430013E+03	1.323938E-04	2.304661E-06
7.439986E+03	1.333164E-04	2.321456E-06
7.449960E+03	1.342059E-04	2.337725E-06
7.459933E+03	1.350985E-04	2.354099E-06
7.469906E+03	1.359939E-04	2.370573E-06
7.479879E+03	1.368915E-04	2.387140E-06
7.489852E+03	1.378291E-04	2.404460E-06
7.499825E+03	1.387303E-04	2.421203E-06
7.509799E+03	1.396325E-04	2.438020E-06
7.519772E+03	1.405352E-04	2.454906E-06
7.529745E+03	1.414379E-04	2.471852E-06
7.539718E+03	1.423402E-04	2.488852E-06
7.549691E+03	1.432413E-04	2.505896E-06
7.559665E+03	1.441409E-04	2.522978E-06
7.569638E+03	1.450383E-04	2.540089E-06
7.579611E+03	1.459329E-04	2.557218E-06
7.589584E+03	1.468241E-04	2.574358E-06
7.599557E+03	1.477114E-04	2.591499E-06
7.609530E+03	1.485938E-04	2.608629E-06
7.619504E+03	1.494709E-04	2.625738E-06
7.629477E+03	1.503418E-04	2.642816E-06
7.639450E+03	1.512059E-04	2.659849E-06
7.649423E+03	1.520624E-04	2.676829E-06
7.659396E+03	1.528678E-04	2.692989E-06
7.669369E+03	1.537064E-04	2.709814E-06
7.679343E+03	1.545348E-04	2.726543E-06
7.689316E+03	1.553523E-04	2.743166E-06
7.699289E+03	1.561579E-04	2.759663E-06
7.709262E+03	1.569069E-04	2.775247E-06
7.719235E+03	1.576857E-04	2.791447E-06
7.729208E+03	1.584497E-04	2.807476E-06
7.739182E+03	1.591979E-04	2.823316E-06
