#wls	flux	fluxerr
1.571709E+03	2.918080E-17	6.289571E-19
1.611002E+03	2.974925E-17	6.380453E-19
1.650295E+03	3.034346E-17	6.474880E-19
1.689587E+03	3.095961E-17	6.571904E-19
1.728880E+03	3.160521E-17	6.672977E-19
1.768173E+03	3.227440E-17	6.776709E-19
1.807466E+03	3.297431E-17	6.884445E-19
1.846758E+03	3.369843E-17	6.994652E-19
1.886051E+03	3.444241E-17	7.106276E-19
1.925344E+03	3.520087E-17	7.218071E-19
1.964637E+03	3.597415E-17	7.329977E-19
2.003929E+03	3.677448E-17	7.444334E-19
2.043222E+03	3.762049E-17	7.564702E-19
2.082515E+03	3.857946E-17	7.704253E-19
2.121807E+03	3.973797E-17	7.879588E-19
2.161100E+03	4.118880E-17	8.108018E-19
2.200393E+03	4.299407E-17	8.400283E-19
2.239686E+03	4.516102E-17	8.756058E-19
2.278978E+03	4.766311E-17	9.168407E-19
2.318271E+03	5.047351E-17	9.630449E-19
2.357564E+03	5.355394E-17	1.013323E-18
2.396857E+03	5.690338E-17	1.067501E-18
2.436149E+03	6.051194E-17	1.125230E-18
2.475442E+03	6.439828E-17	1.186696E-18
2.514735E+03	6.856654E-17	1.251796E-18
2.554028E+03	7.303430E-17	1.320667E-18
2.593320E+03	7.781301E-17	1.393317E-18
2.632613E+03	8.292042E-17	1.469852E-18
2.671906E+03	8.834700E-17	1.549881E-18
2.711198E+03	9.410550E-17	1.633403E-18
2.750491E+03	1.001878E-16	1.720044E-18
2.789784E+03	1.065823E-16	1.809369E-18
2.829077E+03	1.132713E-16	1.900852E-18
2.868369E+03	1.202492E-16	1.994169E-18
2.907662E+03	1.275043E-16	2.088905E-18
2.946955E+03	1.350211E-16	2.184587E-18
2.956778E+03	1.369430E-16	2.208658E-18
2.966601E+03	1.388782E-16	2.232722E-18
2.976424E+03	1.408246E-16	2.256744E-18
2.986248E+03	1.427898E-16	2.280842E-18
2.996071E+03	1.447667E-16	2.304897E-18
3.005894E+03	1.467577E-16	2.328946E-18
3.015717E+03	1.487554E-16	2.352869E-18
3.025540E+03	1.507715E-16	2.376848E-18
3.035363E+03	1.527940E-16	2.400692E-18
3.045187E+03	1.548240E-16	2.424415E-18
3.055010E+03	1.568667E-16	2.448097E-18
3.064833E+03	1.589182E-16	2.471675E-18
3.074656E+03	1.609793E-16	2.495159E-18
3.084479E+03	1.630412E-16	2.518410E-18
3.094303E+03	1.651089E-16	2.541505E-18
3.104126E+03	1.671780E-16	2.564374E-18
3.113949E+03	1.692484E-16	2.587014E-18
3.123772E+03	1.713104E-16	2.609279E-18
3.133595E+03	1.733636E-16	2.631161E-18
3.143418E+03	1.754072E-16	2.652651E-18
3.153242E+03	1.774358E-16	2.673666E-18
3.163065E+03	1.794478E-16	2.694187E-18
3.172888E+03	1.814373E-16	2.714126E-18
3.182711E+03	1.834026E-16	2.733461E-18
3.192534E+03	1.853370E-16	2.752096E-18
3.202358E+03	1.872339E-16	2.769938E-18
3.212181E+03	1.890906E-16	2.786954E-18
3.222004E+03	1.909001E-16	2.803045E-18
3.231827E+03	1.926550E-16	2.818114E-18
3.241650E+03	1.943565E-16	2.832185E-18
3.251473E+03	1.959926E-16	2.845093E-18
3.261297E+03	1.975557E-16	2.856740E-18
3.271120E+03	1.990384E-16	2.867028E-18
3.280943E+03	2.004412E-16	2.875982E-18
3.290766E+03	2.017487E-16	2.883392E-18
3.300589E+03	2.029579E-16	2.889235E-18
3.310413E+03	2.040623E-16	2.893433E-18
3.320236E+03	2.050522E-16	2.895867E-18
3.330059E+03	2.059229E-16	2.896490E-18
3.339882E+03	2.066745E-16	2.895328E-18
3.349705E+03	2.072939E-16	2.892214E-18
3.359528E+03	2.077888E-16	2.887279E-18
3.369352E+03	2.081509E-16	2.880432E-18
3.379175E+03	2.083899E-16	2.871828E-18
3.388998E+03	2.085049E-16	2.861479E-18
3.398821E+03	2.085139E-16	2.849649E-18
3.408644E+03	2.084256E-16	2.836478E-18
3.418468E+03	2.082644E-16	2.822314E-18
3.428291E+03	2.080501E-16	2.807436E-18
3.438114E+03	2.078189E-16	2.792342E-18
3.447937E+03	2.076061E-16	2.777506E-18
3.457760E+03	2.074640E-16	2.763625E-18
3.467583E+03	2.074548E-16	2.751510E-18
3.477407E+03	2.076546E-16	2.742146E-18
3.487230E+03	2.081561E-16	2.736714E-18
3.497053E+03	2.090548E-16	2.736414E-18
3.506876E+03	2.104593E-16	2.742591E-18
3.516699E+03	2.124677E-16	2.756433E-18
3.526523E+03	2.151393E-16	2.778598E-18
3.536346E+03	2.184670E-16	2.808883E-18
3.546169E+03	2.223656E-16	2.846082E-18
3.555992E+03	2.266876E-16	2.888219E-18
3.565815E+03	2.312472E-16	2.932861E-18
3.575639E+03	2.358324E-16	2.977292E-18
3.585462E+03	2.402397E-16	3.018951E-18
3.595285E+03	2.442614E-16	3.055270E-18
3.605108E+03	2.477111E-16	3.083996E-18
3.614931E+03	2.504096E-16	3.103010E-18
3.624754E+03	2.522061E-16	3.110584E-18
3.634578E+03	2.529912E-16	3.105531E-18
3.644401E+03	2.527046E-16	3.087294E-18
3.654224E+03	2.513584E-16	3.056207E-18
3.664047E+03	2.490349E-16	3.013451E-18
3.673870E+03	2.459049E-16	2.961255E-18
3.683694E+03	2.422061E-16	2.902608E-18
3.693517E+03	2.382290E-16	2.841076E-18
3.703340E+03	2.342877E-16	2.780436E-18
3.713163E+03	2.307067E-16	2.724512E-18
3.722986E+03	2.277933E-16	2.676854E-18
3.732809E+03	2.258311E-16	2.640663E-18
3.742633E+03	2.250698E-16	2.618679E-18
3.752456E+03	2.257403E-16	2.613366E-18
3.762279E+03	2.280368E-16	2.626712E-18
3.772102E+03	2.321399E-16	2.660504E-18
3.781925E+03	2.381989E-16	2.716133E-18
3.791749E+03	2.463447E-16	2.794744E-18
3.801572E+03	2.566646E-16	2.896962E-18
3.811395E+03	2.692129E-16	3.023023E-18
3.821218E+03	2.839934E-16	3.172585E-18
3.831041E+03	3.009308E-16	3.344429E-18
3.840864E+03	3.198639E-16	3.536402E-18
3.850688E+03	3.405205E-16	3.745173E-18
3.860511E+03	3.624990E-16	3.966055E-18
3.870334E+03	3.852854E-16	4.193234E-18
3.880157E+03	4.082542E-16	4.419805E-18
3.889980E+03	4.307042E-16	4.638197E-18
3.899804E+03	4.519289E-16	4.840938E-18
3.909627E+03	4.712568E-16	5.021093E-18
3.919450E+03	4.881148E-16	5.172921E-18
3.929273E+03	5.020538E-16	5.292121E-18
3.939096E+03	5.127896E-16	5.376217E-18
3.948919E+03	5.201905E-16	5.424389E-18
3.958743E+03	5.242682E-16	5.437331E-18
3.968566E+03	5.251692E-16	5.417120E-18
3.978389E+03	5.231312E-16	5.366737E-18
3.988212E+03	5.185079E-16	5.290288E-18
3.998035E+03	5.117195E-16	5.192471E-18
4.007859E+03	5.032537E-16	5.078574E-18
4.017682E+03	4.936268E-16	4.954055E-18
4.027505E+03	4.833563E-16	4.824273E-18
4.037328E+03	4.729485E-16	4.694357E-18
4.047151E+03	4.628463E-16	4.568699E-18
4.056974E+03	4.534288E-16	4.450969E-18
4.066798E+03	4.449961E-16	4.343981E-18
4.076621E+03	4.377697E-16	4.249723E-18
4.086444E+03	4.318824E-16	4.169282E-18
4.096267E+03	4.274030E-16	4.103099E-18
4.106090E+03	4.243312E-16	4.050946E-18
4.115914E+03	4.226174E-16	4.012129E-18
4.125737E+03	4.221900E-16	3.985759E-18
4.135560E+03	4.229481E-16	3.970687E-18
4.145383E+03	4.247821E-16	3.965710E-18
4.155206E+03	4.275823E-16	3.969647E-18
4.165029E+03	4.312180E-16	3.981148E-18
4.174853E+03	4.355520E-16	3.998833E-18
4.184676E+03	4.404178E-16	4.021082E-18
4.194499E+03	4.456213E-16	4.046064E-18
4.204322E+03	4.509419E-16	4.071748E-18
4.214145E+03	4.561196E-16	4.095790E-18
4.223969E+03	4.608707E-16	4.115691E-18
4.233792E+03	4.648739E-16	4.128674E-18
4.243615E+03	4.678048E-16	4.131992E-18
4.253438E+03	4.693315E-16	4.122897E-18
4.263261E+03	4.691542E-16	4.098979E-18
4.273084E+03	4.670333E-16	4.058406E-18
4.282908E+03	4.628563E-16	4.000487E-18
4.292731E+03	4.566684E-16	3.925895E-18
4.302554E+03	4.487132E-16	3.836992E-18
4.312377E+03	4.394278E-16	3.737729E-18
4.322200E+03	4.294258E-16	3.633474E-18
4.332024E+03	4.194300E-16	3.530393E-18
4.341847E+03	4.101426E-16	3.434353E-18
4.351670E+03	4.021887E-16	3.350455E-18
4.361493E+03	3.960715E-16	3.282685E-18
4.371316E+03	3.921540E-16	3.233793E-18
4.381139E+03	3.906806E-16	3.205503E-18
4.390963E+03	3.917886E-16	3.198629E-18
4.400786E+03	3.955163E-16	3.213173E-18
4.410609E+03	4.018395E-16	3.248630E-18
4.420432E+03	4.106556E-16	3.303877E-18
4.430255E+03	4.218142E-16	3.377437E-18
4.440079E+03	4.351059E-16	3.467390E-18
4.449902E+03	4.502567E-16	3.571346E-18
4.459725E+03	4.669477E-16	3.686607E-18
4.469548E+03	4.847970E-16	3.810034E-18
4.479371E+03	5.033756E-16	3.938180E-18
4.489194E+03	5.222084E-16	4.067301E-18
4.499018E+03	5.407959E-16	4.193534E-18
4.508841E+03	5.586180E-16	4.312925E-18
4.518664E+03	5.751596E-16	4.421626E-18
4.528487E+03	5.899213E-16	4.515973E-18
4.538310E+03	6.024320E-16	4.592580E-18
4.548134E+03	6.122788E-16	4.648553E-18
4.557957E+03	6.191311E-16	4.681662E-18
4.567780E+03	6.227866E-16	4.690673E-18
4.577603E+03	6.231948E-16	4.675506E-18
4.587426E+03	6.205219E-16	4.637691E-18
4.597250E+03	6.151293E-16	4.580181E-18
4.607073E+03	6.075574E-16	4.507207E-18
4.616896E+03	5.984365E-16	4.423594E-18
4.626719E+03	5.884112E-16	4.334198E-18
4.636542E+03	5.779568E-16	4.242564E-18
4.646365E+03	5.672957E-16	4.150330E-18
4.656189E+03	5.563837E-16	4.057173E-18
4.666012E+03	5.450667E-16	3.961971E-18
4.675835E+03	5.332223E-16	3.863844E-18
4.685658E+03	5.208607E-16	3.762878E-18
4.695481E+03	5.081330E-16	3.660175E-18
4.705305E+03	4.953051E-16	3.557638E-18
4.715128E+03	4.827152E-16	3.457664E-18
4.724951E+03	4.707010E-16	3.362616E-18
4.734774E+03	4.595702E-16	3.274622E-18
4.744597E+03	4.495884E-16	3.195494E-18
4.754420E+03	4.409602E-16	3.126594E-18
4.764244E+03	4.338372E-16	3.068901E-18
4.774067E+03	4.283501E-16	3.023244E-18
4.783890E+03	4.245998E-16	2.990238E-18
4.793713E+03	4.226921E-16	2.970536E-18
4.803536E+03	4.227013E-16	2.964564E-18
4.813360E+03	4.246482E-16	2.972381E-18
4.823183E+03	4.284700E-16	2.993465E-18
4.833006E+03	4.339954E-16	3.026545E-18
4.842829E+03	4.409066E-16	3.069348E-18
4.852652E+03	4.487431E-16	3.118625E-18
4.862475E+03	4.569053E-16	3.170189E-18
4.872299E+03	4.647069E-16	3.219279E-18
4.882122E+03	4.714318E-16	3.260958E-18
4.891945E+03	4.764200E-16	3.290701E-18
4.901768E+03	4.791825E-16	3.305191E-18
4.911591E+03	4.794528E-16	3.302651E-18
4.921415E+03	4.772373E-16	3.283189E-18
4.931238E+03	4.728018E-16	3.248689E-18
4.941061E+03	4.666301E-16	3.202517E-18
4.950884E+03	4.593359E-16	3.148911E-18
4.960707E+03	4.515723E-16	3.092356E-18
4.970530E+03	4.439694E-16	3.037160E-18
4.980354E+03	4.370673E-16	2.987000E-18
4.990177E+03	4.312798E-16	2.944676E-18
5.000000E+03	4.268938E-16	2.912114E-18
5.009823E+03	4.240621E-16	2.890323E-18
5.019646E+03	4.228215E-16	2.879519E-18
5.029470E+03	4.231064E-16	2.879225E-18
5.039293E+03	4.247886E-16	2.888543E-18
5.049116E+03	4.276738E-16	2.906130E-18
5.058939E+03	4.315663E-16	2.930638E-18
5.068762E+03	4.362663E-16	2.960698E-18
5.078585E+03	4.415976E-16	2.995106E-18
5.088409E+03	4.474335E-16	3.032997E-18
5.098232E+03	4.537034E-16	3.073889E-18
5.108055E+03	4.603729E-16	3.117545E-18
5.117878E+03	4.674610E-16	3.164093E-18
5.127701E+03	4.750089E-16	3.213811E-18
5.137525E+03	4.830663E-16	3.267035E-18
5.147348E+03	4.916685E-16	3.324002E-18
5.157171E+03	5.008345E-16	3.384840E-18
5.166994E+03	5.105298E-16	3.449318E-18
5.176817E+03	5.206906E-16	3.517007E-18
5.186640E+03	5.311822E-16	3.586999E-18
5.196464E+03	5.418361E-16	3.658161E-18
5.206287E+03	5.524328E-16	3.729017E-18
5.216110E+03	5.626994E-16	3.797732E-18
5.225933E+03	5.723461E-16	3.862355E-18
5.235756E+03	5.810338E-16	3.920607E-18
5.245580E+03	5.884289E-16	3.970245E-18
5.255403E+03	5.942300E-16	4.009242E-18
5.265226E+03	5.981828E-16	4.035887E-18
5.275049E+03	6.001302E-16	4.049123E-18
5.284872E+03	6.000281E-16	4.048655E-18
5.294695E+03	5.979771E-16	4.035160E-18
5.304519E+03	5.941888E-16	4.010063E-18
5.314342E+03	5.889803E-16	3.975492E-18
5.324165E+03	5.827387E-16	3.934048E-18
5.333988E+03	5.758907E-16	3.888596E-18
5.343811E+03	5.688691E-16	3.842047E-18
5.353635E+03	5.621006E-16	3.797271E-18
5.363458E+03	5.560030E-16	3.757084E-18
5.373281E+03	5.509484E-16	3.723995E-18
5.383104E+03	5.472500E-16	3.700121E-18
5.392927E+03	5.450716E-16	3.686568E-18
5.402750E+03	5.443964E-16	3.683229E-18
5.412574E+03	5.449758E-16	3.688423E-18
5.422397E+03	5.464170E-16	3.699496E-18
5.432220E+03	5.483050E-16	3.713637E-18
5.442043E+03	5.502676E-16	3.728324E-18
5.451866E+03	5.520270E-16	3.741670E-18
5.461690E+03	5.534271E-16	3.752609E-18
5.471513E+03	5.543942E-16	3.760636E-18
5.481336E+03	5.549388E-16	3.765813E-18
5.491159E+03	5.551201E-16	3.768535E-18
5.500982E+03	5.550176E-16	3.769335E-18
5.510806E+03	5.547020E-16	3.768688E-18
5.520629E+03	5.542102E-16	3.766839E-18
5.530452E+03	5.535277E-16	3.763685E-18
5.540275E+03	5.525888E-16	3.758775E-18
5.550098E+03	5.512845E-16	3.751363E-18
5.559921E+03	5.494763E-16	3.740500E-18
5.569745E+03	5.470217E-16	3.725210E-18
5.579568E+03	5.437804E-16	3.704530E-18
5.589391E+03	5.396462E-16	3.677729E-18
5.599214E+03	5.345848E-16	3.644566E-18
5.609037E+03	5.285884E-16	3.604980E-18
5.618861E+03	5.217492E-16	3.559593E-18
5.628684E+03	5.141928E-16	3.509255E-18
5.638507E+03	5.061403E-16	3.455474E-18
5.648330E+03	4.978330E-16	3.399891E-18
5.658153E+03	4.895820E-16	3.344634E-18
5.667976E+03	4.816956E-16	3.291810E-18
5.677800E+03	4.744800E-16	3.243516E-18
5.687623E+03	4.682245E-16	3.201738E-18
5.697446E+03	4.631656E-16	3.168098E-18
5.707269E+03	4.594569E-16	3.143659E-18
5.717092E+03	4.571723E-16	3.128934E-18
5.726916E+03	4.562973E-16	3.123836E-18
5.736739E+03	4.567161E-16	3.127579E-18
5.746562E+03	4.582483E-16	3.138940E-18
5.756385E+03	4.606615E-16	3.156332E-18
5.766208E+03	4.637094E-16	3.178075E-18
5.776031E+03	4.671348E-16	3.202412E-18
5.785855E+03	4.707295E-16	3.227919E-18
5.795678E+03	4.743130E-16	3.253360E-18
5.805501E+03	4.777344E-16	3.277706E-18
5.815324E+03	4.808524E-16	3.299987E-18
5.825147E+03	4.835247E-16	3.319228E-18
5.834971E+03	4.856169E-16	3.334509E-18
5.844794E+03	4.870074E-16	3.344993E-18
5.854617E+03	4.876095E-16	3.350086E-18
5.864440E+03	4.873920E-16	3.349573E-18
5.874263E+03	4.863830E-16	3.343645E-18
5.884086E+03	4.846523E-16	3.332783E-18
5.893910E+03	4.823409E-16	3.317955E-18
5.903733E+03	4.796137E-16	3.300297E-18
5.913556E+03	4.766353E-16	3.280941E-18
5.923379E+03	4.735769E-16	3.261071E-18
5.933202E+03	4.705985E-16	3.241791E-18
5.943026E+03	4.678125E-16	3.223879E-18
5.952849E+03	4.653317E-16	3.208120E-18
5.962672E+03	4.632174E-16	3.194944E-18
5.972495E+03	4.615168E-16	3.184682E-18
5.982318E+03	4.602504E-16	3.177486E-18
5.992141E+03	4.594332E-16	3.173468E-18
6.001965E+03	4.590512E-16	3.172540E-18
6.011788E+03	4.590628E-16	3.174425E-18
6.021611E+03	4.593838E-16	3.178552E-18
6.031434E+03	4.598761E-16	3.183973E-18
6.041257E+03	4.603369E-16	3.189292E-18
6.051081E+03	4.605158E-16	3.192778E-18
6.060904E+03	4.601245E-16	3.192432E-18
6.070727E+03	4.589085E-16	3.186484E-18
6.080550E+03	4.566543E-16	3.173443E-18
6.090373E+03	4.532765E-16	3.152698E-18
6.100196E+03	4.488112E-16	3.124484E-18
6.110020E+03	4.434258E-16	3.089947E-18
6.119843E+03	4.373892E-16	3.050932E-18
6.129666E+03	4.310364E-16	3.009755E-18
6.139489E+03	4.247125E-16	2.968810E-18
6.149312E+03	4.187229E-16	2.930223E-18
6.159136E+03	4.133353E-16	2.895867E-18
6.168959E+03	4.087591E-16	2.867217E-18
6.178782E+03	4.051408E-16	2.845311E-18
6.188605E+03	4.025780E-16	2.830854E-18
6.198428E+03	4.011354E-16	2.824323E-18
6.208251E+03	4.008442E-16	2.825960E-18
6.218075E+03	4.016950E-16	2.835727E-18
6.227898E+03	4.036444E-16	2.853343E-18
6.237721E+03	4.065988E-16	2.878174E-18
6.247544E+03	4.104307E-16	2.909342E-18
6.257367E+03	4.149588E-16	2.945581E-18
6.267191E+03	4.199718E-16	2.985408E-18
6.277014E+03	4.252355E-16	3.027167E-18
6.286837E+03	4.305147E-16	3.069186E-18
6.296660E+03	4.355726E-16	3.109770E-18
6.306483E+03	4.402061E-16	3.147458E-18
6.316306E+03	4.442581E-16	3.181108E-18
6.326130E+03	4.476403E-16	3.210062E-18
6.335953E+03	4.503120E-16	3.234006E-18
6.345776E+03	4.523541E-16	3.253494E-18
6.355599E+03	4.538916E-16	3.269400E-18
6.365422E+03	4.551148E-16	3.283080E-18
6.375246E+03	4.562454E-16	3.296119E-18
6.385069E+03	4.574554E-16	3.309755E-18
6.394892E+03	4.589135E-16	3.325210E-18
6.404715E+03	4.606888E-16	3.342990E-18
6.414538E+03	4.627905E-16	3.363167E-18
6.424361E+03	4.651721E-16	3.385411E-18
6.434185E+03	4.677309E-16	3.408978E-18
6.444008E+03	4.703493E-16	3.433013E-18
6.453831E+03	4.729061E-16	3.456628E-18
6.463654E+03	4.752891E-16	3.478997E-18
6.473477E+03	4.773944E-16	3.499350E-18
6.483301E+03	4.791561E-16	3.517191E-18
6.493124E+03	4.804905E-16	3.531894E-18
6.502947E+03	4.813458E-16	3.543061E-18
6.512770E+03	4.816654E-16	3.550259E-18
6.522593E+03	4.814246E-16	3.553287E-18
6.532417E+03	4.806053E-16	3.551994E-18
6.542240E+03	4.792219E-16	3.546468E-18
6.552063E+03	4.773237E-16	3.537057E-18
6.561886E+03	4.749724E-16	3.524205E-18
6.571709E+03	4.722604E-16	3.508584E-18
6.581532E+03	4.692962E-16	3.490992E-18
6.591356E+03	4.662042E-16	3.472348E-18
6.601179E+03	4.630919E-16	3.453453E-18
6.611002E+03	4.600627E-16	3.435077E-18
6.620825E+03	4.571997E-16	3.417848E-18
6.630648E+03	4.545626E-16	3.402216E-18
6.640472E+03	4.521861E-16	3.388450E-18
6.650295E+03	4.500861E-16	3.376679E-18
6.660118E+03	4.482375E-16	3.366722E-18
6.669941E+03	4.466050E-16	3.358322E-18
6.679764E+03	4.451099E-16	3.350895E-18
6.689587E+03	4.436907E-16	3.343982E-18
6.699411E+03	4.422706E-16	3.337009E-18
6.709234E+03	4.407753E-16	3.329417E-18
6.719057E+03	4.391584E-16	3.320855E-18
6.728880E+03	4.374071E-16	3.311227E-18
6.738703E+03	4.355228E-16	3.300543E-18
6.748527E+03	4.335465E-16	3.289114E-18
6.758350E+03	4.315208E-16	3.277264E-18
6.768173E+03	4.295105E-16	3.265488E-18
6.777996E+03	4.275711E-16	3.254213E-18
6.787819E+03	4.257405E-16	3.243732E-18
6.797642E+03	4.240645E-16	3.234403E-18
6.807466E+03	4.225456E-16	3.226250E-18
6.817289E+03	4.211905E-16	3.219334E-18
6.827112E+03	4.200141E-16	3.213777E-18
6.836935E+03	4.189974E-16	3.209441E-18
6.846758E+03	4.181498E-16	3.206407E-18
6.856582E+03	4.174499E-16	3.204521E-18
6.866405E+03	4.168978E-16	3.203790E-18
6.876228E+03	4.164838E-16	3.204150E-18
6.886051E+03	4.162045E-16	3.205582E-18
6.895874E+03	4.160322E-16	3.207883E-18
6.905697E+03	4.159697E-16	3.211080E-18
6.915521E+03	4.159980E-16	3.215038E-18
6.925344E+03	4.160994E-16	3.219626E-18
6.935167E+03	4.162882E-16	3.224964E-18
6.944990E+03	4.165331E-16	3.230819E-18
6.954813E+03	4.168427E-16	3.237264E-18
6.964637E+03	4.172032E-16	3.244201E-18
6.974460E+03	4.176183E-16	3.251667E-18
6.984283E+03	4.180796E-16	3.259606E-18
6.994106E+03	4.185987E-16	3.268117E-18
7.003929E+03	4.191768E-16	3.277218E-18
7.013752E+03	4.198346E-16	3.287081E-18
7.023576E+03	4.205874E-16	3.297838E-18
7.033399E+03	4.214415E-16	3.309549E-18
7.043222E+03	4.224248E-16	3.322445E-18
7.053045E+03	4.235264E-16	3.336453E-18
7.062868E+03	4.247434E-16	3.351566E-18
7.072692E+03	4.260813E-16	3.367840E-18
7.082515E+03	4.275112E-16	3.385061E-18
7.092338E+03	4.290043E-16	3.403015E-18
7.102161E+03	4.305262E-16	3.421440E-18
7.111984E+03	4.320489E-16	3.440127E-18
7.121807E+03	4.335194E-16	3.458662E-18
7.131631E+03	4.349229E-16	3.476936E-18
7.141454E+03	4.362227E-16	3.494663E-18
7.151277E+03	4.374058E-16	3.511742E-18
7.161100E+03	4.384464E-16	3.527973E-18
7.170923E+03	4.393416E-16	3.543334E-18
7.180747E+03	4.400739E-16	3.557687E-18
7.190570E+03	4.406468E-16	3.571059E-18
7.200393E+03	4.410555E-16	3.583413E-18
7.210216E+03	4.413046E-16	3.594786E-18
7.220039E+03	4.413786E-16	3.605050E-18
7.229862E+03	4.412677E-16	3.614121E-18
7.239686E+03	4.409765E-16	3.622035E-18
7.249509E+03	4.404740E-16	3.628531E-18
7.259332E+03	4.397390E-16	3.633425E-18
7.269155E+03	4.387277E-16	3.636345E-18
7.278978E+03	4.374001E-16	3.636941E-18
7.288802E+03	4.356790E-16	3.634550E-18
7.298625E+03	4.334589E-16	3.628259E-18
7.308448E+03	4.306389E-16	3.617181E-18
7.318271E+03	4.270911E-16	3.600187E-18
7.328094E+03	4.226805E-16	3.576064E-18
7.337917E+03	4.173143E-16	3.543936E-18
7.347741E+03	4.109086E-16	3.502973E-18
7.357564E+03	4.034205E-16	3.452684E-18
7.367387E+03	3.948702E-16	3.393108E-18
7.377210E+03	3.853404E-16	3.324821E-18
7.387033E+03	3.749777E-16	3.248959E-18
7.396857E+03	3.639753E-16	3.167082E-18
7.406680E+03	3.525804E-16	3.081246E-18
7.416503E+03	3.410372E-16	2.993517E-18
7.426326E+03	3.295934E-16	2.906030E-18
7.436149E+03	3.184895E-16	2.820894E-18
7.445972E+03	3.078947E-16	2.739627E-18
7.455796E+03	2.979763E-16	2.663757E-18
7.465619E+03	2.888371E-16	2.594266E-18
7.475442E+03	2.805524E-16	2.531908E-18
7.485265E+03	2.731449E-16	2.476978E-18
7.495088E+03	2.666169E-16	2.429592E-18
7.504912E+03	2.609282E-16	2.389482E-18
7.514735E+03	2.560287E-16	2.356284E-18
7.524558E+03	2.518372E-16	2.329342E-18
7.534381E+03	2.482728E-16	2.307991E-18
7.544204E+03	2.452407E-16	2.291423E-18
7.554028E+03	2.426374E-16	2.278731E-18
7.563851E+03	2.403669E-16	2.269064E-18
7.573674E+03	2.383502E-16	2.261712E-18
7.583497E+03	2.364928E-16	2.255805E-18
7.593320E+03	2.347227E-16	2.250670E-18
7.603143E+03	2.329915E-16	2.245846E-18
7.612967E+03	2.312402E-16	2.240763E-18
7.622790E+03	2.294391E-16	2.235122E-18
