#wls	flux	fluxerr
1.571709E+03	2.137527E-17	4.734511E-19
1.611002E+03	2.169931E-17	4.781279E-19
1.650295E+03	2.203428E-17	4.829111E-19
1.689587E+03	2.238033E-17	4.877968E-19
1.728880E+03	2.274347E-17	4.929071E-19
1.768173E+03	2.312245E-17	4.982053E-19
1.807466E+03	2.351714E-17	5.036784E-19
1.846758E+03	2.392310E-17	5.092212E-19
1.886051E+03	2.434404E-17	5.149037E-19
1.925344E+03	2.477066E-17	5.205196E-19
1.964637E+03	2.521047E-17	5.262188E-19
2.003929E+03	2.566728E-17	5.320700E-19
2.043222E+03	2.616073E-17	5.384648E-19
2.082515E+03	2.673020E-17	5.461865E-19
2.121807E+03	2.743346E-17	5.563665E-19
2.161100E+03	2.833840E-17	5.703023E-19
2.200393E+03	2.947928E-17	5.885746E-19
2.239686E+03	3.085199E-17	6.109774E-19
2.278978E+03	3.244516E-17	6.371610E-19
2.318271E+03	3.422265E-17	6.662961E-19
2.357564E+03	3.617389E-17	6.980679E-19
2.396857E+03	3.828704E-17	7.321403E-19
2.436149E+03	4.056206E-17	7.684063E-19
2.475442E+03	4.300727E-17	8.069126E-19
2.514735E+03	4.562620E-17	8.476077E-19
2.554028E+03	4.843306E-17	8.906302E-19
2.593320E+03	5.143412E-17	9.359603E-19
2.632613E+03	5.462996E-17	9.834677E-19
2.671906E+03	5.803302E-17	1.033229E-18
2.711198E+03	6.163389E-17	1.084922E-18
2.750491E+03	6.543708E-17	1.138473E-18
2.789784E+03	6.943035E-17	1.193511E-18
2.829077E+03	7.359433E-17	1.249554E-18
2.868369E+03	7.790858E-17	1.306113E-18
2.907662E+03	8.235372E-17	1.362735E-18
2.946955E+03	8.691685E-17	1.419087E-18
2.956778E+03	8.807658E-17	1.433128E-18
2.966601E+03	8.923957E-17	1.447077E-18
2.976424E+03	9.040821E-17	1.460971E-18
2.986248E+03	9.158107E-17	1.474785E-18
2.996071E+03	9.276057E-17	1.488557E-18
3.005894E+03	9.394493E-17	1.502257E-18
3.015717E+03	9.512866E-17	1.515797E-18
3.025540E+03	9.631761E-17	1.529268E-18
3.035363E+03	9.750636E-17	1.542583E-18
3.045187E+03	9.869623E-17	1.555764E-18
3.055010E+03	9.988731E-17	1.568810E-18
3.064833E+03	1.010809E-16	1.581742E-18
3.074656E+03	1.022705E-16	1.594456E-18
3.084479E+03	1.034608E-16	1.607027E-18
3.094303E+03	1.046414E-16	1.619293E-18
3.104126E+03	1.058206E-16	1.631383E-18
3.113949E+03	1.069913E-16	1.643187E-18
3.123772E+03	1.081503E-16	1.654657E-18
3.133595E+03	1.092976E-16	1.665797E-18
3.143418E+03	1.104335E-16	1.676611E-18
3.153242E+03	1.115502E-16	1.686986E-18
3.163065E+03	1.126476E-16	1.696919E-18
3.172888E+03	1.137216E-16	1.706353E-18
3.182711E+03	1.147749E-16	1.715335E-18
3.192534E+03	1.157995E-16	1.723747E-18
3.202358E+03	1.167909E-16	1.731527E-18
3.212181E+03	1.177513E-16	1.738714E-18
3.222004E+03	1.186722E-16	1.745189E-18
3.231827E+03	1.195522E-16	1.750937E-18
3.241650E+03	1.203862E-16	1.755892E-18
3.251473E+03	1.211722E-16	1.760034E-18
3.261297E+03	1.219053E-16	1.763298E-18
3.271120E+03	1.225833E-16	1.765665E-18
3.280943E+03	1.231979E-16	1.767026E-18
3.290766E+03	1.237508E-16	1.767414E-18
3.300589E+03	1.242338E-16	1.766726E-18
3.310413E+03	1.246458E-16	1.764960E-18
3.320236E+03	1.249829E-16	1.762072E-18
3.330059E+03	1.252386E-16	1.757987E-18
3.339882E+03	1.254167E-16	1.752772E-18
3.349705E+03	1.255097E-16	1.746337E-18
3.359528E+03	1.255229E-16	1.738774E-18
3.369352E+03	1.254520E-16	1.730036E-18
3.379175E+03	1.253027E-16	1.720219E-18
3.388998E+03	1.250742E-16	1.709326E-18
3.398821E+03	1.247768E-16	1.697513E-18
3.408644E+03	1.244175E-16	1.684887E-18
3.418468E+03	1.240042E-16	1.671569E-18
3.428291E+03	1.235539E-16	1.657796E-18
3.438114E+03	1.230826E-16	1.643790E-18
3.447937E+03	1.226122E-16	1.629845E-18
3.457760E+03	1.221754E-16	1.616397E-18
3.467583E+03	1.218057E-16	1.603878E-18
3.477407E+03	1.215524E-16	1.592923E-18
3.487230E+03	1.214664E-16	1.584176E-18
3.497053E+03	1.216226E-16	1.578579E-18
3.506876E+03	1.221001E-16	1.577105E-18
3.516699E+03	1.230032E-16	1.581035E-18
3.526523E+03	1.244564E-16	1.591886E-18
3.536346E+03	1.265115E-16	1.610209E-18
3.546169E+03	1.290395E-16	1.634259E-18
3.555992E+03	1.319046E-16	1.662237E-18
3.565815E+03	1.349773E-16	1.692453E-18
3.575639E+03	1.381367E-16	1.723363E-18
3.585462E+03	1.412685E-16	1.753528E-18
3.595285E+03	1.442660E-16	1.781640E-18
3.605108E+03	1.470324E-16	1.806531E-18
3.614931E+03	1.494834E-16	1.827218E-18
3.624754E+03	1.515536E-16	1.842964E-18
3.634578E+03	1.531965E-16	1.853278E-18
3.644401E+03	1.543883E-16	1.857957E-18
3.654224E+03	1.551389E-16	1.857203E-18
3.664047E+03	1.554862E-16	1.851552E-18
3.673870E+03	1.554968E-16	1.841871E-18
3.683694E+03	1.552712E-16	1.829407E-18
3.693517E+03	1.549241E-16	1.815547E-18
3.703340E+03	1.545921E-16	1.801910E-18
3.713163E+03	1.544191E-16	1.790162E-18
3.722986E+03	1.545497E-16	1.781937E-18
3.732809E+03	1.551314E-16	1.778873E-18
3.742633E+03	1.562971E-16	1.782400E-18
3.752456E+03	1.581786E-16	1.793902E-18
3.762279E+03	1.608886E-16	1.814517E-18
3.772102E+03	1.645336E-16	1.845283E-18
3.781925E+03	1.692035E-16	1.887028E-18
3.791749E+03	1.749741E-16	1.940400E-18
3.801572E+03	1.818940E-16	2.005731E-18
3.811395E+03	1.899960E-16	2.083165E-18
3.821218E+03	1.992725E-16	2.172398E-18
3.831041E+03	2.096869E-16	2.272817E-18
3.840864E+03	2.211534E-16	2.383285E-18
3.850688E+03	2.335296E-16	2.502087E-18
3.860511E+03	2.466330E-16	2.627107E-18
3.870334E+03	2.602143E-16	2.755578E-18
3.880157E+03	2.739838E-16	2.884364E-18
3.889980E+03	2.876245E-16	3.010118E-18
3.899804E+03	3.007910E-16	3.129277E-18
3.909627E+03	3.131519E-16	3.238507E-18
3.919450E+03	3.244025E-16	3.334832E-18
3.929273E+03	3.342720E-16	3.415697E-18
3.939096E+03	3.425634E-16	3.479362E-18
3.948919E+03	3.491418E-16	3.524761E-18
3.958743E+03	3.539368E-16	3.551510E-18
3.968566E+03	3.569687E-16	3.560141E-18
3.978389E+03	3.583058E-16	3.551661E-18
3.988212E+03	3.580842E-16	3.527721E-18
3.998035E+03	3.564978E-16	3.490508E-18
4.007859E+03	3.537645E-16	3.442393E-18
4.017682E+03	3.501395E-16	3.386053E-18
4.027505E+03	3.458871E-16	3.324188E-18
4.037328E+03	3.412704E-16	3.259426E-18
4.047151E+03	3.365397E-16	3.194209E-18
4.056974E+03	3.319228E-16	3.130705E-18
4.066798E+03	3.276138E-16	3.070713E-18
4.076621E+03	3.237798E-16	3.015735E-18
4.086444E+03	3.205459E-16	2.966846E-18
4.096267E+03	3.180088E-16	2.924830E-18
4.106090E+03	3.162242E-16	2.890078E-18
4.115914E+03	3.152292E-16	2.862795E-18
4.125737E+03	3.150336E-16	2.842938E-18
4.135560E+03	3.156213E-16	2.830228E-18
4.145383E+03	3.169648E-16	2.824290E-18
4.155206E+03	3.190215E-16	2.824622E-18
4.165029E+03	3.217265E-16	2.830541E-18
4.174853E+03	3.250052E-16	2.841292E-18
4.184676E+03	3.287617E-16	2.855952E-18
4.194499E+03	3.328797E-16	2.873450E-18
4.204322E+03	3.372177E-16	2.892520E-18
4.214145E+03	3.416145E-16	2.911763E-18
4.223969E+03	3.458835E-16	2.929600E-18
4.233792E+03	3.498262E-16	2.944390E-18
4.243615E+03	3.532193E-16	2.954329E-18
4.253438E+03	3.558521E-16	2.957761E-18
4.263261E+03	3.575183E-16	2.953114E-18
4.273084E+03	3.580501E-16	2.939164E-18
4.282908E+03	3.573314E-16	2.915147E-18
4.292731E+03	3.553022E-16	2.880771E-18
4.302554E+03	3.519814E-16	2.836388E-18
4.312377E+03	3.474658E-16	2.782966E-18
4.322200E+03	3.420806E-16	2.723265E-18
4.332024E+03	3.363276E-16	2.661380E-18
4.341847E+03	3.306849E-16	2.601120E-18
4.351670E+03	3.255876E-16	2.545863E-18
4.361493E+03	3.214081E-16	2.498423E-18
4.371316E+03	3.184374E-16	2.460913E-18
4.381139E+03	3.168978E-16	2.434870E-18
4.390963E+03	3.169439E-16	2.421282E-18
4.400786E+03	3.186733E-16	2.420681E-18
4.410609E+03	3.221205E-16	2.433111E-18
4.420432E+03	3.272738E-16	2.458271E-18
4.430255E+03	3.340813E-16	2.495569E-18
4.440079E+03	3.424359E-16	2.544016E-18
4.449902E+03	3.521825E-16	2.602295E-18
4.459725E+03	3.631243E-16	2.668808E-18
4.469548E+03	3.750033E-16	2.741551E-18
4.479371E+03	3.875221E-16	2.818276E-18
4.489194E+03	4.003300E-16	2.896395E-18
4.499018E+03	4.130324E-16	2.973062E-18
4.508841E+03	4.252095E-16	3.045307E-18
4.518664E+03	4.364365E-16	3.110185E-18
4.528487E+03	4.462806E-16	3.164751E-18
4.538310E+03	4.543496E-16	3.206401E-18
4.548134E+03	4.603141E-16	3.233023E-18
4.557957E+03	4.639385E-16	3.243194E-18
4.567780E+03	4.651069E-16	3.236347E-18
4.577603E+03	4.638533E-16	3.212960E-18
4.587426E+03	4.603808E-16	3.174660E-18
4.597250E+03	4.550559E-16	3.124166E-18
4.607073E+03	4.483955E-16	3.065169E-18
4.616896E+03	4.410742E-16	3.002369E-18
4.626719E+03	4.338707E-16	2.941086E-18
4.636542E+03	4.276764E-16	2.887316E-18
4.646365E+03	4.229102E-16	2.843783E-18
4.656189E+03	4.189782E-16	2.806384E-18
4.666012E+03	4.153375E-16	2.771424E-18
4.675835E+03	4.116155E-16	2.736398E-18
4.685658E+03	4.076091E-16	2.699961E-18
4.695481E+03	4.032444E-16	2.661640E-18
4.705305E+03	3.985598E-16	2.621703E-18
4.715128E+03	3.936833E-16	2.581004E-18
4.724951E+03	3.887846E-16	2.540656E-18
4.734774E+03	3.840667E-16	2.501969E-18
4.744597E+03	3.797400E-16	2.466283E-18
4.754420E+03	3.759927E-16	2.434779E-18
4.764244E+03	3.729995E-16	2.408536E-18
4.774067E+03	3.709049E-16	2.388431E-18
4.783890E+03	3.698265E-16	2.375161E-18
4.793713E+03	3.698477E-16	2.369200E-18
4.803536E+03	3.710075E-16	2.370736E-18
4.813360E+03	3.732942E-16	2.379636E-18
4.823183E+03	3.766497E-16	2.395477E-18
4.833006E+03	3.809451E-16	2.417393E-18
4.842829E+03	3.859794E-16	2.444072E-18
4.852652E+03	3.914945E-16	2.473856E-18
4.862475E+03	3.971584E-16	2.504633E-18
4.872299E+03	4.026125E-16	2.534144E-18
4.882122E+03	4.074767E-16	2.560011E-18
4.891945E+03	4.113831E-16	2.579947E-18
4.901768E+03	4.140411E-16	2.592166E-18
4.911591E+03	4.152335E-16	2.595347E-18
4.921415E+03	4.148730E-16	2.588989E-18
4.931238E+03	4.129987E-16	2.573375E-18
4.941061E+03	4.097696E-16	2.549531E-18
4.950884E+03	4.054562E-16	2.519164E-18
4.960707E+03	4.003952E-16	2.484385E-18
4.970530E+03	3.949524E-16	2.447467E-18
4.980354E+03	3.894969E-16	2.410696E-18
4.990177E+03	3.843565E-16	2.376088E-18
5.000000E+03	3.798105E-16	2.345353E-18
5.009823E+03	3.760684E-16	2.319764E-18
5.019646E+03	3.732635E-16	2.300117E-18
5.029470E+03	3.714827E-16	2.286927E-18
5.039293E+03	3.707363E-16	2.280234E-18
5.049116E+03	3.710058E-16	2.279904E-18
5.058939E+03	3.722394E-16	2.285600E-18
5.068762E+03	3.743727E-16	2.296912E-18
5.078585E+03	3.773264E-16	2.313342E-18
5.088409E+03	3.810345E-16	2.334475E-18
5.098232E+03	3.854514E-16	2.360024E-18
5.108055E+03	3.905289E-16	2.389690E-18
5.117878E+03	3.962535E-16	2.423384E-18
5.127701E+03	4.026117E-16	2.461023E-18
5.137525E+03	4.095987E-16	2.502576E-18
5.147348E+03	4.172053E-16	2.547987E-18
5.157171E+03	4.254043E-16	2.597092E-18
5.166994E+03	4.341541E-16	2.649639E-18
5.176817E+03	4.433730E-16	2.705135E-18
5.186640E+03	4.529515E-16	2.762917E-18
5.196464E+03	4.627263E-16	2.821997E-18
5.206287E+03	4.725064E-16	2.881218E-18
5.216110E+03	4.820582E-16	2.939167E-18
5.225933E+03	4.911116E-16	2.994206E-18
5.235756E+03	4.993797E-16	3.044596E-18
5.245580E+03	5.065749E-16	3.088593E-18
5.255403E+03	5.124080E-16	3.124441E-18
5.265226E+03	5.166353E-16	3.150660E-18
5.275049E+03	5.190773E-16	3.166157E-18
5.284872E+03	5.196290E-16	3.170290E-18
5.294695E+03	5.182720E-16	3.162941E-18
5.304519E+03	5.151090E-16	3.144730E-18
5.314342E+03	5.103398E-16	3.116863E-18
5.324165E+03	5.042739E-16	3.081210E-18
5.333988E+03	4.972916E-16	3.040070E-18
5.343811E+03	4.898567E-16	2.996257E-18
5.353635E+03	4.824745E-16	2.952845E-18
5.363458E+03	4.756897E-16	2.913156E-18
5.373281E+03	4.700867E-16	2.880766E-18
5.383104E+03	4.662862E-16	2.859483E-18
5.392927E+03	4.649752E-16	2.853538E-18
5.402750E+03	4.665430E-16	2.865346E-18
5.412574E+03	4.703464E-16	2.890989E-18
5.422397E+03	4.756461E-16	2.925947E-18
5.432220E+03	4.818033E-16	2.966304E-18
5.442043E+03	4.882584E-16	3.008622E-18
5.451866E+03	4.945721E-16	3.050191E-18
5.461690E+03	5.004035E-16	3.088900E-18
5.471513E+03	5.055176E-16	3.123285E-18
5.481336E+03	5.097951E-16	3.152591E-18
5.491159E+03	5.131972E-16	3.176560E-18
5.500982E+03	5.157622E-16	3.195408E-18
5.510806E+03	5.175617E-16	3.209559E-18
5.520629E+03	5.186762E-16	3.219496E-18
5.530452E+03	5.191704E-16	3.225602E-18
5.540275E+03	5.190708E-16	3.228029E-18
5.550098E+03	5.183806E-16	3.226780E-18
5.559921E+03	5.170498E-16	3.221529E-18
5.569745E+03	5.150071E-16	3.211817E-18
5.579568E+03	5.121756E-16	3.197148E-18
5.589391E+03	5.084759E-16	3.177009E-18
5.599214E+03	5.038607E-16	3.151086E-18
5.609037E+03	4.983365E-16	3.119402E-18
5.618861E+03	4.919439E-16	3.082194E-18
5.628684E+03	4.847951E-16	3.040149E-18
5.638507E+03	4.770730E-16	2.994403E-18
5.648330E+03	4.689974E-16	2.946326E-18
5.658153E+03	4.608327E-16	2.897573E-18
5.667976E+03	4.528692E-16	2.849973E-18
5.677800E+03	4.453838E-16	2.805272E-18
5.687623E+03	4.386590E-16	2.765260E-18
5.697446E+03	4.329153E-16	2.731342E-18
5.707269E+03	4.283314E-16	2.704663E-18
5.717092E+03	4.250334E-16	2.686038E-18
5.726916E+03	4.230663E-16	2.675775E-18
5.736739E+03	4.224136E-16	2.673790E-18
5.746562E+03	4.229968E-16	2.679606E-18
5.756385E+03	4.246882E-16	2.692434E-18
5.766208E+03	4.273136E-16	2.711188E-18
5.776031E+03	4.306642E-16	2.734555E-18
5.785855E+03	4.345232E-16	2.761172E-18
5.795678E+03	4.386679E-16	2.789630E-18
5.805501E+03	4.428688E-16	2.818476E-18
5.815324E+03	4.469117E-16	2.846350E-18
5.825147E+03	4.506048E-16	2.872028E-18
5.834971E+03	4.537710E-16	2.894379E-18
5.844794E+03	4.562810E-16	2.912574E-18
5.854617E+03	4.580300E-16	2.925938E-18
5.864440E+03	4.589639E-16	2.934117E-18
5.874263E+03	4.590763E-16	2.937064E-18
5.884086E+03	4.584128E-16	2.935062E-18
5.893910E+03	4.570539E-16	2.928621E-18
5.903733E+03	4.551061E-16	2.918416E-18
5.913556E+03	4.527127E-16	2.905364E-18
5.923379E+03	4.500055E-16	2.890309E-18
5.933202E+03	4.471390E-16	2.874243E-18
5.943026E+03	4.442399E-16	2.857984E-18
5.952849E+03	4.414441E-16	2.842409E-18
5.962672E+03	4.388551E-16	2.828192E-18
5.972495E+03	4.365616E-16	2.815914E-18
5.982318E+03	4.346330E-16	2.806031E-18
5.992141E+03	4.331005E-16	2.798756E-18
6.001965E+03	4.319734E-16	2.794162E-18
6.011788E+03	4.312252E-16	2.792090E-18
6.021611E+03	4.307759E-16	2.792034E-18
6.031434E+03	4.305335E-16	2.793408E-18
6.041257E+03	4.303563E-16	2.795303E-18
6.051081E+03	4.300816E-16	2.796667E-18
6.060904E+03	4.295273E-16	2.796318E-18
6.070727E+03	4.285083E-16	2.793049E-18
6.080550E+03	4.268699E-16	2.785845E-18
6.090373E+03	4.245176E-16	2.774077E-18
6.100196E+03	4.214779E-16	2.757905E-18
6.110020E+03	4.178196E-16	2.737763E-18
6.119843E+03	4.136752E-16	2.714497E-18
6.129666E+03	4.091941E-16	2.689064E-18
6.139489E+03	4.045504E-16	2.662591E-18
6.149312E+03	3.999239E-16	2.636247E-18
6.159136E+03	3.954879E-16	2.611166E-18
6.168959E+03	3.914046E-16	2.588418E-18
6.178782E+03	3.878000E-16	2.568839E-18
6.188605E+03	3.847997E-16	2.553271E-18
6.198428E+03	3.824776E-16	2.542216E-18
6.208251E+03	3.808953E-16	2.536100E-18
6.218075E+03	3.800812E-16	2.535133E-18
6.227898E+03	3.800367E-16	2.539344E-18
6.237721E+03	3.807355E-16	2.548578E-18
6.247544E+03	3.821307E-16	2.562542E-18
6.257367E+03	3.841422E-16	2.580719E-18
6.267191E+03	3.866860E-16	2.602560E-18
6.277014E+03	3.896427E-16	2.627276E-18
6.286837E+03	3.929008E-16	2.654123E-18
6.296660E+03	3.963428E-16	2.682313E-18
6.306483E+03	3.998590E-16	2.711103E-18
6.316306E+03	4.033614E-16	2.739894E-18
6.326130E+03	4.067632E-16	2.768091E-18
6.335953E+03	4.100391E-16	2.795510E-18
6.345776E+03	4.131604E-16	2.821948E-18
6.355599E+03	4.161419E-16	2.847494E-18
6.365422E+03	4.190195E-16	2.872384E-18
6.375246E+03	4.218389E-16	2.896924E-18
6.385069E+03	4.246403E-16	2.921383E-18
6.394892E+03	4.274528E-16	2.945956E-18
6.404715E+03	4.302935E-16	2.970757E-18
6.414538E+03	4.331635E-16	2.995790E-18
6.424361E+03	4.360236E-16	3.020780E-18
6.434185E+03	4.388406E-16	3.045491E-18
6.444008E+03	4.415370E-16	3.069381E-18
6.453831E+03	4.440594E-16	3.092067E-18
6.463654E+03	4.463415E-16	3.113077E-18
6.473477E+03	4.483141E-16	3.131916E-18
6.483301E+03	4.499226E-16	3.148190E-18
6.493124E+03	4.511291E-16	3.161615E-18
6.502947E+03	4.518958E-16	3.171911E-18
6.512770E+03	4.522113E-16	3.178981E-18
6.522593E+03	4.520669E-16	3.182747E-18
6.532417E+03	4.514891E-16	3.183382E-18
6.542240E+03	4.504934E-16	3.180978E-18
6.552063E+03	4.491288E-16	3.175868E-18
6.561886E+03	4.474489E-16	3.168423E-18
6.571709E+03	4.455154E-16	3.159069E-18
6.581532E+03	4.434014E-16	3.148319E-18
6.591356E+03	4.411612E-16	3.136555E-18
6.601179E+03	4.388730E-16	3.124331E-18
6.611002E+03	4.365958E-16	3.112068E-18
6.620825E+03	4.343733E-16	3.100079E-18
6.630648E+03	4.322508E-16	3.088693E-18
6.640472E+03	4.302474E-16	3.078050E-18
6.650295E+03	4.283806E-16	3.068280E-18
6.660118E+03	4.266469E-16	3.059365E-18
6.669941E+03	4.250293E-16	3.051187E-18
6.679764E+03	4.235007E-16	3.043558E-18
6.689587E+03	4.220212E-16	3.036195E-18
6.699411E+03	4.205698E-16	3.028952E-18
6.709234E+03	4.191106E-16	3.021573E-18
6.719057E+03	4.176231E-16	3.013913E-18
6.728880E+03	4.160920E-16	3.005864E-18
6.738703E+03	4.145420E-16	2.997609E-18
6.748527E+03	4.129693E-16	2.989122E-18
6.758350E+03	4.114124E-16	2.980687E-18
6.768173E+03	4.098885E-16	2.972432E-18
6.777996E+03	4.084422E-16	2.964687E-18
6.787819E+03	4.071022E-16	2.957665E-18
6.797642E+03	4.058784E-16	2.951446E-18
6.807466E+03	4.048009E-16	2.946257E-18
6.817289E+03	4.038794E-16	2.942174E-18
6.827112E+03	4.031038E-16	2.939133E-18
6.836935E+03	4.024854E-16	2.937224E-18
6.846758E+03	4.020182E-16	2.936412E-18
6.856582E+03	4.016859E-16	2.936587E-18
6.866405E+03	4.014775E-16	2.937675E-18
6.876228E+03	4.013798E-16	2.939590E-18
6.886051E+03	4.013861E-16	2.942289E-18
6.895874E+03	4.014755E-16	2.945628E-18
6.905697E+03	4.016409E-16	2.949564E-18
6.915521E+03	4.018616E-16	2.953953E-18
6.925344E+03	4.021320E-16	2.958760E-18
6.935167E+03	4.024332E-16	2.963857E-18
6.944990E+03	4.027547E-16	2.969174E-18
6.954813E+03	4.030950E-16	2.974708E-18
6.964637E+03	4.034408E-16	2.980367E-18
6.974460E+03	4.037959E-16	2.986191E-18
6.984283E+03	4.041534E-16	2.992135E-18
6.994106E+03	4.045248E-16	2.998295E-18
7.003929E+03	4.049180E-16	3.004736E-18
7.013752E+03	4.053368E-16	3.011499E-18
7.023576E+03	4.057941E-16	3.018687E-18
7.033399E+03	4.063187E-16	3.026527E-18
7.043222E+03	4.069005E-16	3.034955E-18
7.053045E+03	4.075719E-16	3.044225E-18
7.062868E+03	4.083316E-16	3.054339E-18
7.072692E+03	4.091737E-16	3.065267E-18
7.082515E+03	4.101108E-16	3.077118E-18
7.092338E+03	4.111203E-16	3.089736E-18
7.102161E+03	4.122078E-16	3.103176E-18
7.111984E+03	4.133523E-16	3.117297E-18
7.121807E+03	4.145475E-16	3.132064E-18
7.131631E+03	4.157701E-16	3.147315E-18
7.141454E+03	4.170119E-16	3.163002E-18
7.151277E+03	4.182570E-16	3.179019E-18
7.161100E+03	4.194973E-16	3.195315E-18
7.170923E+03	4.207077E-16	3.211713E-18
7.180747E+03	4.218790E-16	3.228154E-18
7.190570E+03	4.229933E-16	3.244510E-18
7.200393E+03	4.240309E-16	3.260641E-18
7.210216E+03	4.249797E-16	3.276462E-18
7.220039E+03	4.258252E-16	3.291869E-18
7.229862E+03	4.265326E-16	3.306597E-18
7.239686E+03	4.270798E-16	3.320478E-18
7.249509E+03	4.274292E-16	3.333221E-18
7.259332E+03	4.275447E-16	3.344538E-18
7.269155E+03	4.273712E-16	3.353993E-18
7.278978E+03	4.268432E-16	3.361056E-18
7.288802E+03	4.258750E-16	3.365031E-18
7.298625E+03	4.243986E-16	3.365349E-18
7.308448E+03	4.223043E-16	3.361099E-18
7.318271E+03	4.194993E-16	3.351489E-18
7.328094E+03	4.159048E-16	3.335821E-18
7.337917E+03	4.114359E-16	3.313326E-18
7.347741E+03	4.060251E-16	3.283352E-18
7.357564E+03	3.996370E-16	3.245494E-18
7.367387E+03	3.922527E-16	3.199469E-18
7.377210E+03	3.838991E-16	3.145363E-18
7.387033E+03	3.746682E-16	3.083794E-18
7.396857E+03	3.647800E-16	3.016450E-18
7.406680E+03	3.544539E-16	2.945042E-18
7.416503E+03	3.438869E-16	2.871126E-18
7.426326E+03	3.332793E-16	2.796320E-18
7.436149E+03	3.228189E-16	2.722166E-18
7.445972E+03	3.126622E-16	2.649976E-18
7.455796E+03	3.029245E-16	2.580739E-18
7.465619E+03	2.937139E-16	2.515405E-18
7.475442E+03	2.851023E-16	2.454636E-18
7.485265E+03	2.771351E-16	2.398879E-18
7.495088E+03	2.698322E-16	2.348375E-18
7.504912E+03	2.631869E-16	2.303134E-18
7.514735E+03	2.571861E-16	2.263118E-18
7.524558E+03	2.517909E-16	2.228057E-18
7.534381E+03	2.469568E-16	2.197629E-18
7.544204E+03	2.426377E-16	2.171491E-18
7.554028E+03	2.387765E-16	2.149192E-18
7.563851E+03	2.353087E-16	2.130210E-18
7.573674E+03	2.321753E-16	2.114057E-18
7.583497E+03	2.293245E-16	2.100299E-18
7.593320E+03	2.267025E-16	2.088479E-18
7.603143E+03	2.242544E-16	2.078115E-18
7.612967E+03	2.219358E-16	2.068814E-18
7.622790E+03	2.197126E-16	2.060270E-18
