#wls	flux	fluxerr
1.571709E+03	3.884009E-19	3.959116E-20
1.611002E+03	3.903470E-19	3.974696E-20
1.650295E+03	3.920741E-19	3.987887E-20
1.689587E+03	3.937226E-19	4.000119E-20
1.728880E+03	3.952201E-19	4.010654E-20
1.768173E+03	3.965458E-19	4.019284E-20
1.807466E+03	3.977163E-19	4.026179E-20
1.846758E+03	3.985933E-19	4.029943E-20
1.886051E+03	3.990947E-19	4.029754E-20
1.925344E+03	3.992067E-19	4.025484E-20
1.964637E+03	3.988060E-19	4.015905E-20
2.003929E+03	3.979361E-19	4.001474E-20
2.043222E+03	3.969058E-19	3.985308E-20
2.082515E+03	3.961641E-19	3.971916E-20
2.121807E+03	3.965172E-19	3.969351E-20
2.161100E+03	3.985662E-19	3.983571E-20
2.200393E+03	4.025561E-19	4.016931E-20
2.239686E+03	4.082771E-19	4.067241E-20
2.278978E+03	4.150903E-19	4.128052E-20
2.318271E+03	4.225164E-19	4.194535E-20
2.357564E+03	4.301124E-19	4.262259E-20
2.396857E+03	4.377673E-19	4.330103E-20
2.436149E+03	4.453549E-19	4.396805E-20
2.475442E+03	4.528953E-19	4.462553E-20
2.514735E+03	4.605208E-19	4.528638E-20
2.554028E+03	4.683023E-19	4.595736E-20
2.593320E+03	4.761537E-19	4.662983E-20
2.632613E+03	4.843838E-19	4.733376E-20
2.671906E+03	4.928198E-19	4.805193E-20
2.711198E+03	5.017732E-19	4.881435E-20
2.750491E+03	5.110617E-19	4.960282E-20
2.789784E+03	5.209184E-19	5.043953E-20
2.829077E+03	5.314139E-19	5.133074E-20
2.868369E+03	5.425338E-19	5.227440E-20
2.907662E+03	5.543522E-19	5.327701E-20
2.946955E+03	5.670417E-19	5.435439E-20
2.956778E+03	5.704159E-19	5.464161E-20
2.966601E+03	5.737533E-19	5.492469E-20
2.976424E+03	5.771474E-19	5.521259E-20
2.986248E+03	5.806945E-19	5.551448E-20
2.996071E+03	5.842077E-19	5.581249E-20
3.005894E+03	5.878779E-19	5.612484E-20
3.015717E+03	5.915163E-19	5.643348E-20
3.025540E+03	5.952196E-19	5.674764E-20
3.035363E+03	5.990888E-19	5.707691E-20
3.045187E+03	6.030269E-19	5.741204E-20
3.055010E+03	6.069516E-19	5.774517E-20
3.064833E+03	6.110587E-19	5.809492E-20
3.074656E+03	6.151517E-19	5.844256E-20
3.084479E+03	6.194287E-19	5.880693E-20
3.094303E+03	6.237920E-19	5.917870E-20
3.104126E+03	6.281413E-19	5.954833E-20
3.113949E+03	6.326790E-19	5.993501E-20
3.123772E+03	6.373060E-19	6.032930E-20
3.133595E+03	6.419205E-19	6.072156E-20
3.143418E+03	6.467293E-19	6.113134E-20
3.153242E+03	6.516317E-19	6.154906E-20
3.163065E+03	6.566295E-19	6.197488E-20
3.172888E+03	6.617246E-19	6.240896E-20
3.182711E+03	6.668125E-19	6.284142E-20
3.192534E+03	6.721077E-19	6.329244E-20
3.202358E+03	6.775067E-19	6.375226E-20
3.212181E+03	6.830119E-19	6.422106E-20
3.222004E+03	6.886259E-19	6.469906E-20
3.231827E+03	6.943517E-19	6.518651E-20
3.241650E+03	7.001917E-19	6.568361E-20
3.251473E+03	7.061492E-19	6.619063E-20
3.261297E+03	7.122271E-19	6.670783E-20
3.271120E+03	7.184288E-19	6.723548E-20
3.280943E+03	7.247576E-19	6.777385E-20
3.290766E+03	7.312171E-19	6.832324E-20
3.300589E+03	7.379272E-19	6.889483E-20
3.310413E+03	7.446598E-19	6.946726E-20
3.320236E+03	7.515345E-19	7.005167E-20
3.330059E+03	7.585551E-19	7.064838E-20
3.339882E+03	7.657259E-19	7.125775E-20
3.349705E+03	7.730513E-19	7.188014E-20
3.359528E+03	7.806582E-19	7.252731E-20
3.369352E+03	7.883075E-19	7.317698E-20
3.379175E+03	7.961251E-19	7.384082E-20
3.388998E+03	8.041163E-19	7.451927E-20
3.398821E+03	8.124129E-19	7.522448E-20
3.408644E+03	8.207677E-19	7.593352E-20
3.418468E+03	8.293118E-19	7.665846E-20
3.428291E+03	8.381815E-19	7.741186E-20
3.438114E+03	8.471226E-19	7.817017E-20
3.447937E+03	8.564037E-19	7.895811E-20
3.457760E+03	8.657659E-19	7.975178E-20
3.467583E+03	8.753476E-19	8.056386E-20
3.477407E+03	8.852925E-19	8.140751E-20
3.487230E+03	8.953344E-19	8.225817E-20
3.497053E+03	9.057563E-19	8.314180E-20
3.506876E+03	9.162866E-19	8.403339E-20
3.516699E+03	9.272148E-19	8.495941E-20
3.526523E+03	9.382635E-19	8.589438E-20
3.536346E+03	9.497290E-19	8.686534E-20
3.546169E+03	9.613282E-19	8.784633E-20
3.555992E+03	9.733640E-19	8.886494E-20
3.565815E+03	9.855477E-19	8.989473E-20
3.575639E+03	9.981892E-19	9.096390E-20
3.585462E+03	1.010993E-18	9.204544E-20
3.595285E+03	1.024278E-18	9.316822E-20
3.605108E+03	1.037742E-18	9.430471E-20
3.614931E+03	1.051709E-18	9.548431E-20
3.624754E+03	1.065872E-18	9.667897E-20
3.634578E+03	1.080566E-18	9.791893E-20
3.644401E+03	1.095640E-18	9.919054E-20
3.654224E+03	1.110937E-18	1.004794E-19
3.664047E+03	1.126805E-18	1.018168E-19
3.673870E+03	1.143089E-18	1.031887E-19
3.683694E+03	1.159628E-18	1.045805E-19
3.693517E+03	1.176783E-18	1.060245E-19
3.703340E+03	1.194213E-18	1.074899E-19
3.713163E+03	1.212291E-18	1.090102E-19
3.722986E+03	1.230855E-18	1.105706E-19
3.732809E+03	1.249730E-18	1.121553E-19
3.742633E+03	1.269305E-18	1.137990E-19
3.752456E+03	1.289411E-18	1.154865E-19
3.762279E+03	1.309867E-18	1.172014E-19
3.772102E+03	1.331082E-18	1.189800E-19
3.781925E+03	1.352877E-18	1.208063E-19
3.791749E+03	1.375065E-18	1.226633E-19
3.801572E+03	1.398072E-18	1.245891E-19
3.811395E+03	1.421716E-18	1.265669E-19
3.821218E+03	1.445799E-18	1.285791E-19
3.831041E+03	1.470769E-18	1.306654E-19
3.840864E+03	1.496212E-18	1.327887E-19
3.850688E+03	1.522590E-18	1.349899E-19
3.860511E+03	1.549707E-18	1.372513E-19
3.870334E+03	1.577348E-18	1.395538E-19
3.880157E+03	1.606004E-18	1.419404E-19
3.889980E+03	1.635465E-18	1.443924E-19
3.899804E+03	1.665508E-18	1.468899E-19
3.909627E+03	1.696648E-18	1.494781E-19
3.919450E+03	1.728667E-18	1.521374E-19
3.929273E+03	1.761331E-18	1.548471E-19
3.939096E+03	1.795180E-18	1.576543E-19
3.948919E+03	1.829716E-18	1.605151E-19
3.958743E+03	1.865502E-18	1.634786E-19
3.968566E+03	1.902019E-18	1.664989E-19
3.978389E+03	1.939851E-18	1.696269E-19
3.988212E+03	1.978753E-18	1.728408E-19
3.998035E+03	2.018454E-18	1.761167E-19
4.007859E+03	2.059575E-18	1.795083E-19
4.017682E+03	2.101544E-18	1.829657E-19
4.027505E+03	2.145003E-18	1.865442E-19
4.037328E+03	2.189359E-18	1.901920E-19
4.047151E+03	2.235279E-18	1.939665E-19
4.056974E+03	2.282144E-18	1.978138E-19
4.066798E+03	2.330647E-18	2.017936E-19
4.076621E+03	2.380146E-18	2.058498E-19
4.086444E+03	2.431358E-18	2.100441E-19
4.096267E+03	2.483612E-18	2.143181E-19
4.106090E+03	2.537287E-18	2.187041E-19
4.115914E+03	2.592790E-18	2.232367E-19
4.125737E+03	2.649403E-18	2.278538E-19
4.135560E+03	2.707918E-18	2.326229E-19
4.145383E+03	2.767587E-18	2.374793E-19
4.155206E+03	2.828821E-18	2.424580E-19
4.165029E+03	2.892065E-18	2.475965E-19
4.174853E+03	2.956516E-18	2.528256E-19
4.184676E+03	3.022609E-18	2.581820E-19
4.194499E+03	3.090364E-18	2.636672E-19
4.204322E+03	3.160259E-18	2.693211E-19
4.214145E+03	3.231410E-18	2.750682E-19
4.223969E+03	3.304279E-18	2.809470E-19
4.233792E+03	3.378879E-18	2.869585E-19
4.243615E+03	3.455220E-18	2.931028E-19
4.253438E+03	3.533818E-18	2.994232E-19
4.263261E+03	3.613671E-18	3.058343E-19
4.273084E+03	3.695276E-18	3.123776E-19
4.282908E+03	3.778629E-18	3.190525E-19
4.292731E+03	3.863719E-18	3.258573E-19
4.302554E+03	3.950533E-18	3.327907E-19
4.312377E+03	4.039048E-18	3.398501E-19
4.322200E+03	4.129241E-18	3.470332E-19
4.332024E+03	4.221077E-18	3.543365E-19
4.341847E+03	4.314518E-18	3.617564E-19
4.351670E+03	4.409514E-18	3.692884E-19
4.361493E+03	4.505372E-18	3.768739E-19
4.371316E+03	4.603293E-18	3.846133E-19
4.381139E+03	4.702578E-18	3.924474E-19
4.390963E+03	4.803143E-18	4.003692E-19
4.400786E+03	4.904893E-18	4.083702E-19
4.410609E+03	5.007017E-18	4.163828E-19
4.420432E+03	5.110803E-18	4.245140E-19
4.430255E+03	5.215426E-18	4.326947E-19
4.440079E+03	5.319993E-18	4.408510E-19
4.449902E+03	5.425840E-18	4.490935E-19
4.459725E+03	5.532062E-18	4.573469E-19
4.469548E+03	5.637679E-18	4.655307E-19
4.479371E+03	5.744071E-18	4.737585E-19
4.489194E+03	5.849421E-18	4.818808E-19
4.499018E+03	5.955134E-18	4.900135E-19
4.508841E+03	6.059304E-18	4.980001E-19
4.518664E+03	6.162495E-18	5.058873E-19
4.528487E+03	6.265312E-18	5.137251E-19
4.538310E+03	6.365717E-18	5.213470E-19
4.548134E+03	6.464272E-18	5.287996E-19
4.557957E+03	6.561574E-18	5.361325E-19
4.567780E+03	6.655468E-18	5.431702E-19
4.577603E+03	6.746517E-18	5.499598E-19
4.587426E+03	6.834373E-18	5.564739E-19
4.597250E+03	6.918688E-18	5.626852E-19
4.607073E+03	6.999121E-18	5.685671E-19
4.616896E+03	7.076336E-18	5.741749E-19
4.626719E+03	7.148083E-18	5.793272E-19
4.636542E+03	7.215107E-18	5.840859E-19
4.646365E+03	7.276235E-18	5.883579E-19
4.656189E+03	7.333408E-18	5.923014E-19
4.666012E+03	7.385613E-18	5.958362E-19
4.675835E+03	7.432907E-18	5.989682E-19
4.685658E+03	7.475383E-18	6.017066E-19
4.695481E+03	7.513170E-18	6.040631E-19
4.705305E+03	7.545375E-18	6.059674E-19
4.715128E+03	7.574250E-18	6.076019E-19
4.724951E+03	7.598932E-18	6.088984E-19
4.734774E+03	7.618552E-18	6.097887E-19
4.744597E+03	7.635406E-18	6.104576E-19
4.754420E+03	7.647580E-18	6.107534E-19
4.764244E+03	7.657378E-18	6.108611E-19
4.774067E+03	7.662883E-18	6.106288E-19
4.783890E+03	7.666404E-18	6.102414E-19
4.793713E+03	7.666017E-18	6.095466E-19
4.803536E+03	7.664025E-18	6.087285E-19
4.813360E+03	7.658503E-18	6.076347E-19
4.823183E+03	7.650690E-18	6.063644E-19
4.833006E+03	7.640763E-18	6.049323E-19
4.842829E+03	7.629946E-18	6.034357E-19
4.852652E+03	7.616307E-18	6.017223E-19
4.862475E+03	7.601061E-18	5.998885E-19
4.872299E+03	7.584366E-18	5.979473E-19
4.882122E+03	7.566373E-18	5.959109E-19
4.891945E+03	7.547228E-18	5.937913E-19
4.901768E+03	7.527074E-18	5.915998E-19
4.911591E+03	7.506041E-18	5.893471E-19
4.921415E+03	7.484261E-18	5.870435E-19
4.931238E+03	7.460835E-18	5.846189E-19
4.941061E+03	7.437924E-18	5.822428E-19
4.950884E+03	7.414615E-18	5.798437E-19
4.960707E+03	7.391011E-18	5.774297E-19
4.970530E+03	7.366209E-18	5.749305E-19
4.980354E+03	7.342315E-18	5.725105E-19
4.990177E+03	7.317411E-18	5.700201E-19
5.000000E+03	7.293579E-18	5.676217E-19
5.009823E+03	7.269895E-18	5.652429E-19
5.019646E+03	7.245445E-18	5.628130E-19
5.029470E+03	7.221291E-18	5.604144E-19
5.039293E+03	7.198474E-18	5.581279E-19
5.049116E+03	7.175089E-18	5.558055E-19
5.058939E+03	7.152175E-18	5.535278E-19
5.068762E+03	7.130747E-18	5.513731E-19
5.078585E+03	7.108909E-18	5.491948E-19
5.088409E+03	7.087674E-18	5.470710E-19
5.098232E+03	7.067077E-18	5.450045E-19
5.108055E+03	7.047152E-18	5.429976E-19
5.117878E+03	7.027926E-18	5.410523E-19
5.127701E+03	7.009424E-18	5.391705E-19
5.137525E+03	6.991667E-18	5.373536E-19
5.147348E+03	6.974670E-18	5.356027E-19
5.157171E+03	6.958449E-18	5.339188E-19
5.166994E+03	6.943015E-18	5.323026E-19
5.176817E+03	6.928370E-18	5.307543E-19
5.186640E+03	6.913587E-18	5.292027E-19
5.196464E+03	6.900534E-18	5.277907E-19
5.206287E+03	6.888272E-18	5.264463E-19
5.216110E+03	6.875864E-18	5.250978E-19
5.225933E+03	6.865159E-18	5.238864E-19
5.235756E+03	6.855211E-18	5.227397E-19
5.245580E+03	6.845078E-18	5.215858E-19
5.255403E+03	6.836588E-18	5.205639E-19
5.265226E+03	6.827867E-18	5.195314E-19
5.275049E+03	6.819811E-18	5.185563E-19
5.284872E+03	6.813302E-18	5.177056E-19
5.294695E+03	6.806466E-18	5.168367E-19
5.304519E+03	6.800174E-18	5.160158E-19
5.314342E+03	6.795295E-18	5.153086E-19
5.324165E+03	6.789946E-18	5.145721E-19
5.333988E+03	6.784989E-18	5.138716E-19
5.343811E+03	6.780364E-18	5.132024E-19
5.353635E+03	6.776014E-18	5.125603E-19
5.363458E+03	6.771884E-18	5.119407E-19
5.373281E+03	6.767922E-18	5.113399E-19
5.383104E+03	6.764088E-18	5.107546E-19
5.392927E+03	6.760356E-18	5.101829E-19
5.402750E+03	6.756720E-18	5.096241E-19
5.412574E+03	6.753191E-18	5.090792E-19
5.422397E+03	6.749799E-18	5.085503E-19
5.432220E+03	6.745683E-18	5.079725E-19
5.442043E+03	6.742706E-18	5.074860E-19
5.451866E+03	6.740019E-18	5.070268E-19
5.461690E+03	6.736776E-18	5.065313E-19
5.471513E+03	6.734842E-18	5.061395E-19
5.481336E+03	6.733367E-18	5.057874E-19
5.491159E+03	6.731500E-18	5.054111E-19
5.500982E+03	6.731091E-18	5.051494E-19
5.510806E+03	6.730379E-18	5.048701E-19
5.520629E+03	6.731206E-18	5.047112E-19
5.530452E+03	6.731805E-18	5.045400E-19
5.540275E+03	6.733105E-18	5.044263E-19
5.550098E+03	6.736036E-18	5.044396E-19
5.559921E+03	6.738817E-18	5.044463E-19
5.569745E+03	6.742370E-18	5.045154E-19
5.579568E+03	6.746710E-18	5.046480E-19
5.589391E+03	6.752753E-18	5.049125E-19
5.599214E+03	6.758703E-18	5.051744E-19
5.609037E+03	6.765470E-18	5.055018E-19
5.618861E+03	6.773055E-18	5.058947E-19
5.628684E+03	6.781459E-18	5.063531E-19
5.638507E+03	6.790681E-18	5.068767E-19
5.648330E+03	6.800714E-18	5.074651E-19
5.658153E+03	6.811550E-18	5.081176E-19
5.667976E+03	6.823176E-18	5.088332E-19
5.677800E+03	6.835578E-18	5.096107E-19
5.687623E+03	6.848739E-18	5.104489E-19
5.697446E+03	6.861724E-18	5.112780E-19
5.707269E+03	6.876336E-18	5.122324E-19
5.717092E+03	6.891636E-18	5.132421E-19
5.726916E+03	6.907593E-18	5.143048E-19
5.736739E+03	6.923251E-18	5.153491E-19
5.746562E+03	6.940417E-18	5.165098E-19
5.756385E+03	6.958131E-18	5.177152E-19
5.766208E+03	6.975417E-18	5.188929E-19
5.776031E+03	6.994088E-18	5.201776E-19
5.785855E+03	7.012227E-18	5.214268E-19
5.795678E+03	7.031650E-18	5.227755E-19
5.805501E+03	7.050424E-18	5.240801E-19
5.815324E+03	7.070363E-18	5.254754E-19
5.825147E+03	7.089518E-18	5.268166E-19
5.834971E+03	7.108757E-18	5.281682E-19
5.844794E+03	7.128954E-18	5.295953E-19
5.854617E+03	7.148133E-18	5.309510E-19
5.864440E+03	7.167155E-18	5.322993E-19
5.874263E+03	7.186889E-18	5.337048E-19
5.884086E+03	7.205327E-18	5.350186E-19
5.893910E+03	7.223327E-18	5.363042E-19
5.903733E+03	7.240783E-18	5.375539E-19
5.913556E+03	7.257588E-18	5.387599E-19
5.923379E+03	7.273628E-18	5.399136E-19
5.933202E+03	7.289755E-18	5.410785E-19
5.943026E+03	7.303905E-18	5.421012E-19
5.952849E+03	7.316917E-18	5.430443E-19
5.962672E+03	7.328660E-18	5.438979E-19
5.972495E+03	7.338995E-18	5.446519E-19
5.982318E+03	7.347780E-18	5.452957E-19
5.992141E+03	7.353887E-18	5.457456E-19
6.001965E+03	7.359129E-18	5.461364E-19
6.011788E+03	7.362376E-18	5.463839E-19
6.021611E+03	7.363476E-18	5.464771E-19
6.031434E+03	7.362281E-18	5.464050E-19
6.041257E+03	7.358649E-18	5.461571E-19
6.051081E+03	7.351473E-18	5.456510E-19
6.060904E+03	7.342604E-18	5.450243E-19
6.070727E+03	7.330982E-18	5.441982E-19
6.080550E+03	7.316568E-18	5.431698E-19
6.090373E+03	7.298405E-18	5.418679E-19
6.100196E+03	7.278506E-18	5.404420E-19
6.110020E+03	7.256003E-18	5.388274E-19
6.119843E+03	7.230071E-18	5.369628E-19
6.129666E+03	7.202805E-18	5.350034E-19
6.139489E+03	7.172454E-18	5.328191E-19
6.149312E+03	7.141115E-18	5.305654E-19
6.159136E+03	7.107060E-18	5.281138E-19
6.168959E+03	7.072366E-18	5.256184E-19
6.178782E+03	7.035318E-18	5.229515E-19
6.188605E+03	6.997968E-18	5.202655E-19
6.198428E+03	6.958606E-18	5.174331E-19
6.208251E+03	6.918329E-18	5.145357E-19
6.218075E+03	6.878205E-18	5.116524E-19
6.227898E+03	6.836536E-18	5.086570E-19
6.237721E+03	6.795291E-18	5.056957E-19
6.247544E+03	6.752781E-18	5.026425E-19
6.257367E+03	6.710041E-18	4.995745E-19
6.267191E+03	6.667189E-18	4.965003E-19
6.277014E+03	6.625221E-18	4.934939E-19
6.286837E+03	6.582468E-18	4.904309E-19
6.296660E+03	6.539917E-18	4.873847E-19
6.306483E+03	6.497664E-18	4.843624E-19
6.316306E+03	6.455795E-18	4.813702E-19
6.326130E+03	6.414395E-18	4.784144E-19
6.335953E+03	6.374392E-18	4.755642E-19
6.345776E+03	6.334149E-18	4.726975E-19
6.355599E+03	6.294594E-18	4.698832E-19
6.365422E+03	6.255789E-18	4.671261E-19
6.375246E+03	6.217793E-18	4.644304E-19
6.385069E+03	6.180665E-18	4.618006E-19
6.394892E+03	6.144453E-18	4.592402E-19
6.404715E+03	6.109207E-18	4.567530E-19
6.414538E+03	6.074973E-18	4.543423E-19
6.424361E+03	6.041791E-18	4.520112E-19
6.434185E+03	6.009701E-18	4.497626E-19
6.444008E+03	5.978738E-18	4.475992E-19
6.453831E+03	5.948139E-18	4.454638E-19
6.463654E+03	5.919531E-18	4.434784E-19
6.473477E+03	5.892144E-18	4.415852E-19
6.483301E+03	5.866002E-18	4.397861E-19
6.493124E+03	5.841131E-18	4.380832E-19
6.502947E+03	5.817552E-18	4.364780E-19
6.512770E+03	5.794509E-18	4.349139E-19
6.522593E+03	5.773578E-18	4.335092E-19
6.532417E+03	5.753996E-18	4.322066E-19
6.542240E+03	5.735778E-18	4.310076E-19
6.552063E+03	5.718174E-18	4.298556E-19
6.561886E+03	5.702730E-18	4.288671E-19
6.571709E+03	5.688691E-18	4.279853E-19
6.581532E+03	5.675307E-18	4.271540E-19
6.591356E+03	5.664111E-18	4.264885E-19
6.601179E+03	5.653592E-18	4.258753E-19
6.611002E+03	5.645275E-18	4.254292E-19
6.620825E+03	5.638410E-18	4.250940E-19
6.630648E+03	5.632244E-18	4.248130E-19
6.640472E+03	5.628299E-18	4.247011E-19
6.650295E+03	5.625065E-18	4.246444E-19
6.660118E+03	5.624059E-18	4.247577E-19
6.669941E+03	5.623775E-18	4.249273E-19
6.679764E+03	5.625724E-18	4.252676E-19
6.689587E+03	5.628398E-18	4.256647E-19
6.699411E+03	5.633313E-18	4.262333E-19
6.709234E+03	5.638952E-18	4.268590E-19
6.719057E+03	5.646074E-18	4.275992E-19
6.728880E+03	5.655439E-18	4.285119E-19
6.738703E+03	5.665524E-18	4.294815E-19
6.748527E+03	5.677852E-18	4.306239E-19
6.758350E+03	5.690891E-18	4.318230E-19
6.768173E+03	5.705402E-18	4.331367E-19
6.777996E+03	5.722149E-18	4.346232E-19
6.787819E+03	5.739588E-18	4.361655E-19
6.797642E+03	5.758478E-18	4.378214E-19
6.807466E+03	5.778813E-18	4.395904E-19
6.817289E+03	5.801365E-18	4.415318E-19
6.827112E+03	5.824561E-18	4.435260E-19
6.836935E+03	5.849169E-18	4.456316E-19
6.846758E+03	5.875174E-18	4.478475E-19
6.856582E+03	5.902561E-18	4.501730E-19
6.866405E+03	5.931310E-18	4.526067E-19
6.876228E+03	5.962207E-18	4.552089E-19
6.886051E+03	5.993627E-18	4.578556E-19
6.895874E+03	6.026345E-18	4.606062E-19
6.905697E+03	6.060333E-18	4.634589E-19
6.915521E+03	6.095563E-18	4.664117E-19
6.925344E+03	6.132002E-18	4.694623E-19
6.935167E+03	6.169615E-18	4.726082E-19
6.944990E+03	6.208364E-18	4.758467E-19
6.954813E+03	6.248206E-18	4.791748E-19
6.964637E+03	6.289094E-18	4.825891E-19
6.974460E+03	6.330980E-18	4.860860E-19
6.984283E+03	6.373810E-18	4.896617E-19
6.994106E+03	6.417525E-18	4.933118E-19
7.003929E+03	6.462061E-18	4.970316E-19
7.013752E+03	6.507352E-18	5.008162E-19
7.023576E+03	6.553323E-18	5.046601E-19
7.033399E+03	6.599897E-18	5.085575E-19
7.043222E+03	6.646086E-18	5.124323E-19
7.053045E+03	6.693600E-18	5.164166E-19
7.062868E+03	6.741445E-18	5.204338E-19
7.072692E+03	6.789518E-18	5.244764E-19
7.082515E+03	6.837710E-18	5.285358E-19
7.092338E+03	6.884971E-18	5.325310E-19
7.102161E+03	6.933040E-18	5.365966E-19
7.111984E+03	6.980856E-18	5.406507E-19
7.121807E+03	7.028284E-18	5.446828E-19
7.131631E+03	7.074215E-18	5.486069E-19
7.141454E+03	7.120412E-18	5.525599E-19
7.151277E+03	7.165758E-18	5.564551E-19
7.161100E+03	7.209102E-18	5.602031E-19
7.170923E+03	7.252224E-18	5.639420E-19
7.180747E+03	7.293963E-18	5.675815E-19
7.190570E+03	7.333125E-18	5.710287E-19
7.200393E+03	7.371503E-18	5.744229E-19
7.210216E+03	7.406883E-18	5.775914E-19
7.220039E+03	7.441062E-18	5.806742E-19
7.229862E+03	7.471795E-18	5.834958E-19
7.239686E+03	7.500884E-18	5.861964E-19
7.249509E+03	7.526049E-18	5.885978E-19
7.259332E+03	7.549102E-18	5.908409E-19
7.269155E+03	7.567735E-18	5.927449E-19
7.278978E+03	7.583764E-18	5.944515E-19
7.288802E+03	7.594866E-18	5.957779E-19
7.298625E+03	7.601824E-18	5.967849E-19
7.308448E+03	7.605430E-18	5.975340E-19
7.318271E+03	7.603359E-18	5.978418E-19
7.328094E+03	7.597456E-18	5.978526E-19
7.337917E+03	7.585429E-18	5.973851E-19
7.347741E+03	7.568130E-18	5.965054E-19
7.357564E+03	7.545410E-18	5.952007E-19
7.367387E+03	7.518206E-18	5.935441E-19
7.377210E+03	7.484429E-18	5.913695E-19
7.387033E+03	7.445168E-18	5.887618E-19
7.396857E+03	7.400558E-18	5.857306E-19
7.406680E+03	7.351812E-18	5.823706E-19
7.416503E+03	7.297157E-18	5.785403E-19
7.426326E+03	7.237899E-18	5.743419E-19
7.436149E+03	7.174348E-18	5.697989E-19
7.445972E+03	7.106822E-18	5.649354E-19
7.455796E+03	7.035646E-18	5.597763E-19
7.465619E+03	6.961136E-18	5.543457E-19
7.475442E+03	6.883608E-18	5.486680E-19
7.485265E+03	6.803367E-18	5.427664E-19
7.495088E+03	6.720707E-18	5.366639E-19
7.504912E+03	6.635912E-18	5.303822E-19
7.514735E+03	6.549253E-18	5.239423E-19
7.524558E+03	6.460990E-18	5.173646E-19
7.534381E+03	6.371369E-18	5.106680E-19
7.544204E+03	6.280625E-18	5.038710E-19
7.554028E+03	6.188978E-18	4.969908E-19
7.563851E+03	6.096637E-18	4.900436E-19
7.573674E+03	6.003796E-18	4.830450E-19
7.583497E+03	5.910643E-18	4.760095E-19
7.593320E+03	5.817346E-18	4.689505E-19
7.603143E+03	5.723275E-18	4.618170E-19
7.612967E+03	5.630175E-18	4.547495E-19
7.622790E+03	5.537380E-18	4.476942E-19
