#wls	flux	fluxerr
1.570938E+03	1.727850E-03	1.284155E-04
1.610211E+03	1.770644E-03	1.309649E-04
1.649485E+03	1.815240E-03	1.336033E-04
1.688758E+03	1.861618E-03	1.363262E-04
1.728031E+03	1.909709E-03	1.391255E-04
1.767305E+03	1.958923E-03	1.419550E-04
1.806578E+03	2.010078E-03	1.448713E-04
1.845852E+03	2.062018E-03	1.477878E-04
1.885125E+03	2.115051E-03	1.507242E-04
1.924399E+03	2.168318E-03	1.536169E-04
1.963672E+03	2.222012E-03	1.564778E-04
2.002946E+03	2.277012E-03	1.593664E-04
2.042219E+03	2.334445E-03	1.623580E-04
2.081492E+03	2.397376E-03	1.656596E-04
2.120766E+03	2.468472E-03	1.694452E-04
2.160039E+03	2.548821E-03	1.737758E-04
2.199313E+03	2.637664E-03	1.785853E-04
2.238586E+03	2.731745E-03	1.836401E-04
2.277860E+03	2.828498E-03	1.887593E-04
2.317133E+03	2.925359E-03	1.937665E-04
2.356406E+03	3.019801E-03	1.984930E-04
2.395680E+03	3.110704E-03	2.028670E-04
2.434953E+03	3.196586E-03	2.067958E-04
2.474227E+03	3.275958E-03	2.101897E-04
2.513500E+03	3.346709E-03	2.129228E-04
2.552774E+03	3.407756E-03	2.149392E-04
2.592047E+03	3.457422E-03	2.161486E-04
2.631321E+03	3.493499E-03	2.164322E-04
2.670594E+03	3.515544E-03	2.157852E-04
2.709867E+03	3.521663E-03	2.141164E-04
2.749141E+03	3.510858E-03	2.113937E-04
2.788414E+03	3.483108E-03	2.076464E-04
2.827688E+03	3.438449E-03	2.029081E-04
2.866961E+03	3.378585E-03	1.973107E-04
2.906235E+03	3.305447E-03	1.909954E-04
2.945508E+03	3.221775E-03	1.841460E-04
2.955326E+03	3.199682E-03	1.823796E-04
2.965145E+03	3.177312E-03	1.806031E-04
2.974963E+03	3.154722E-03	1.788199E-04
2.984782E+03	3.131976E-03	1.770338E-04
2.994600E+03	3.109157E-03	1.752495E-04
3.004418E+03	3.086349E-03	1.734719E-04
3.014237E+03	3.063616E-03	1.717045E-04
3.024055E+03	3.041022E-03	1.699510E-04
3.033873E+03	3.019021E-03	1.682366E-04
3.043692E+03	2.996916E-03	1.665224E-04
3.053510E+03	2.975915E-03	1.648754E-04
3.063328E+03	2.954965E-03	1.632369E-04
3.073147E+03	2.934887E-03	1.616521E-04
3.082965E+03	2.915750E-03	1.601245E-04
3.092784E+03	2.897274E-03	1.586383E-04
3.102602E+03	2.879545E-03	1.571979E-04
3.112420E+03	2.863337E-03	1.558451E-04
3.122239E+03	2.848037E-03	1.545460E-04
3.132057E+03	2.834069E-03	1.533230E-04
3.141875E+03	2.821509E-03	1.521796E-04
3.151694E+03	2.810761E-03	1.511370E-04
3.161512E+03	2.801248E-03	1.501633E-04
3.171330E+03	2.793377E-03	1.492796E-04
3.181149E+03	2.787537E-03	1.485059E-04
3.190967E+03	2.783482E-03	1.478283E-04
3.200785E+03	2.781593E-03	1.472658E-04
3.210604E+03	2.781627E-03	1.468048E-04
3.220422E+03	2.784255E-03	1.464795E-04
3.230241E+03	2.788629E-03	1.462443E-04
3.240059E+03	2.795708E-03	1.461483E-04
3.249877E+03	2.805238E-03	1.461771E-04
3.259696E+03	2.817267E-03	1.463318E-04
3.269514E+03	2.831831E-03	1.466132E-04
3.279332E+03	2.849254E-03	1.470367E-04
3.289151E+03	2.869268E-03	1.475870E-04
3.298969E+03	2.891891E-03	1.482639E-04
3.308787E+03	2.917703E-03	1.490957E-04
3.318606E+03	2.946123E-03	1.500511E-04
3.328424E+03	2.977705E-03	1.511570E-04
3.338243E+03	3.012131E-03	1.523957E-04
3.348061E+03	3.049355E-03	1.537635E-04
3.357879E+03	3.089312E-03	1.552558E-04
3.367698E+03	3.132207E-03	1.568813E-04
3.377516E+03	3.177936E-03	1.586336E-04
3.387334E+03	3.226378E-03	1.605050E-04
3.397153E+03	3.277385E-03	1.624870E-04
3.406971E+03	3.330791E-03	1.645701E-04
3.416789E+03	3.386404E-03	1.667436E-04
3.426608E+03	3.444296E-03	1.690100E-04
3.436426E+03	3.504236E-03	1.713569E-04
3.446244E+03	3.565683E-03	1.737569E-04
3.456063E+03	3.628950E-03	1.762245E-04
3.465881E+03	3.693188E-03	1.787177E-04
3.475700E+03	3.758993E-03	1.812650E-04
3.485518E+03	3.825232E-03	1.838110E-04
3.495336E+03	3.892242E-03	1.863718E-04
3.505155E+03	3.959806E-03	1.889366E-04
3.514973E+03	4.028039E-03	1.915109E-04
3.524791E+03	4.096224E-03	1.940604E-04
3.534610E+03	4.164562E-03	1.965946E-04
3.544428E+03	4.233287E-03	1.991246E-04
3.554246E+03	4.302381E-03	2.016495E-04
3.564065E+03	4.371593E-03	2.041574E-04
3.573883E+03	4.441590E-03	2.066796E-04
3.583702E+03	4.511933E-03	2.091953E-04
3.593520E+03	4.583378E-03	2.117394E-04
3.603338E+03	4.655850E-03	2.143081E-04
3.613157E+03	4.729585E-03	2.169118E-04
3.622975E+03	4.805409E-03	2.195879E-04
3.632793E+03	4.883015E-03	2.223214E-04
3.642612E+03	4.962963E-03	2.251371E-04
3.652430E+03	5.045529E-03	2.280464E-04
3.662248E+03	5.131004E-03	2.310614E-04
3.672067E+03	5.219690E-03	2.341943E-04
3.681885E+03	5.312198E-03	2.374711E-04
3.691703E+03	5.408899E-03	2.409068E-04
3.701522E+03	5.509951E-03	2.445064E-04
3.711340E+03	5.615883E-03	2.482916E-04
3.721159E+03	5.727893E-03	2.523131E-04
3.730977E+03	5.846204E-03	2.565779E-04
3.740795E+03	5.972295E-03	2.611480E-04
3.750614E+03	6.106679E-03	2.660424E-04
3.760432E+03	6.251116E-03	2.713339E-04
3.770250E+03	6.406638E-03	2.770627E-04
3.780069E+03	6.574621E-03	2.832833E-04
3.789887E+03	6.756464E-03	2.900502E-04
3.799705E+03	6.953794E-03	2.974272E-04
3.809524E+03	7.167624E-03	3.054507E-04
3.819342E+03	7.399262E-03	3.141692E-04
3.829161E+03	7.650104E-03	3.236341E-04
3.838979E+03	7.920768E-03	3.338635E-04
3.848797E+03	8.212575E-03	3.449045E-04
3.858616E+03	8.525608E-03	3.567520E-04
3.868434E+03	8.860867E-03	3.694391E-04
3.878252E+03	9.216960E-03	3.828989E-04
3.888071E+03	9.592907E-03	3.970831E-04
3.897889E+03	9.986911E-03	4.119098E-04
3.907707E+03	1.039587E-02	4.272452E-04
3.917526E+03	1.081578E-02	4.429203E-04
3.927344E+03	1.124353E-02	4.588052E-04
3.928471E+03	1.426557E-02	5.818864E-04
3.929716E+03	1.422195E-02	5.798464E-04
3.933452E+03	1.417650E-02	5.772165E-04
3.934698E+03	1.419604E-02	5.777530E-04
3.935943E+03	1.423045E-02	5.788942E-04
3.937189E+03	1.431692E-02	5.821509E-04
3.938434E+03	1.433771E-02	5.827358E-04
3.939679E+03	1.431636E-02	5.816081E-04
3.940925E+03	1.433715E-02	5.821926E-04
3.942170E+03	1.434183E-02	5.821226E-04
3.943416E+03	1.426221E-02	5.786326E-04
3.944661E+03	1.420365E-02	5.760002E-04
3.945906E+03	1.422691E-02	5.766867E-04
3.947152E+03	1.418819E-02	5.748607E-04
3.948397E+03	1.403785E-02	5.685167E-04
3.949643E+03	1.388874E-02	5.622277E-04
3.950888E+03	1.383386E-02	5.597572E-04
3.952134E+03	1.379013E-02	5.577399E-04
3.953378E+03	1.368066E-02	5.530669E-04
3.954624E+03	1.364807E-02	5.515049E-04
3.955869E+03	1.372960E-02	5.545537E-04
3.957114E+03	1.380247E-02	5.572499E-04
3.958360E+03	1.376864E-02	5.556380E-04
3.959605E+03	1.374597E-02	5.544782E-04
3.960851E+03	1.373199E-02	5.536693E-04
3.962096E+03	1.372793E-02	5.532612E-04
3.963342E+03	1.373256E-02	5.532035E-04
3.964587E+03	1.374339E-02	5.533958E-04
3.965832E+03	1.376043E-02	5.538377E-04
3.967078E+03	1.378367E-02	5.545287E-04
3.968323E+03	1.381312E-02	5.554693E-04
3.969569E+03	1.384506E-02	5.565087E-04
3.970814E+03	1.388197E-02	5.577473E-04
3.972059E+03	1.392260E-02	5.591343E-04
3.973305E+03	1.396448E-02	5.605702E-04
3.974550E+03	1.397781E-02	5.608593E-04
3.975796E+03	1.397997E-02	5.607001E-04
3.977041E+03	1.397839E-02	5.603914E-04
3.978287E+03	1.400911E-02	5.613773E-04
3.979532E+03	1.413049E-02	5.659940E-04
3.980777E+03	1.426183E-02	5.710054E-04
3.982023E+03	1.432238E-02	5.731793E-04
3.983268E+03	1.439411E-02	5.757990E-04
3.984514E+03	1.448449E-02	5.791619E-04
3.985758E+03	1.449661E-02	5.793943E-04
3.987004E+03	1.445529E-02	5.774918E-04
3.988249E+03	1.444007E-02	5.766331E-04
3.989494E+03	1.443479E-02	5.761718E-04
3.990740E+03	1.449288E-02	5.782398E-04
3.991985E+03	1.459448E-02	5.820411E-04
3.993231E+03	1.472095E-02	5.868304E-04
3.994476E+03	1.486484E-02	5.923101E-04
3.995721E+03	1.502366E-02	5.983797E-04
3.996967E+03	1.517379E-02	6.040984E-04
3.998212E+03	1.525930E-02	6.072405E-04
3.999458E+03	1.528141E-02	6.078582E-04
4.000703E+03	1.527617E-02	6.073879E-04
4.001949E+03	1.533185E-02	6.093394E-04
4.003194E+03	1.545594E-02	6.140070E-04
4.004439E+03	1.553899E-02	6.170415E-04
4.005685E+03	1.555117E-02	6.172598E-04
4.006930E+03	1.562554E-02	6.199460E-04
4.008176E+03	1.583176E-02	6.278587E-04
4.009421E+03	1.596711E-02	6.329553E-04
4.010666E+03	1.614103E-02	6.395763E-04
4.011912E+03	1.626024E-02	6.440245E-04
4.013157E+03	1.628614E-02	6.447753E-04
4.014403E+03	1.633818E-02	6.465596E-04
4.015648E+03	1.648853E-02	6.522315E-04
4.016893E+03	1.662894E-02	6.575056E-04
4.018138E+03	1.675069E-02	6.620381E-04
4.019383E+03	1.680525E-02	6.639126E-04
4.020629E+03	1.670425E-02	6.596422E-04
4.021874E+03	1.652107E-02	6.521322E-04
4.023120E+03	1.638891E-02	6.466413E-04
4.024365E+03	1.625548E-02	6.411058E-04
4.025611E+03	1.606104E-02	6.331691E-04
4.026856E+03	1.594998E-02	6.285258E-04
4.028101E+03	1.603813E-02	6.317329E-04
4.029347E+03	1.619353E-02	6.375851E-04
4.030592E+03	1.633400E-02	6.428453E-04
4.031838E+03	1.651682E-02	6.497672E-04
4.033083E+03	1.669594E-02	6.565379E-04
4.034328E+03	1.683770E-02	6.618349E-04
4.035574E+03	1.695832E-02	6.662964E-04
4.036819E+03	1.707271E-02	6.705104E-04
4.038065E+03	1.717217E-02	6.741344E-04
4.039310E+03	1.717945E-02	6.741386E-04
4.040556E+03	1.703972E-02	6.683764E-04
4.041801E+03	1.692738E-02	6.636936E-04
4.043046E+03	1.693340E-02	6.636532E-04
4.044292E+03	1.696808E-02	6.647358E-04
4.045537E+03	1.697659E-02	6.647930E-04
4.046783E+03	1.692154E-02	6.623624E-04
4.048027E+03	1.692007E-02	6.620307E-04
4.049273E+03	1.708563E-02	6.682316E-04
4.050518E+03	1.722876E-02	6.735511E-04
4.051763E+03	1.721858E-02	6.728754E-04
4.053009E+03	1.720466E-02	6.720541E-04
4.054254E+03	1.724061E-02	6.731810E-04
4.055500E+03	1.727656E-02	6.743071E-04
4.056745E+03	1.726763E-02	6.736816E-04
4.057991E+03	1.708412E-02	6.662486E-04
4.059236E+03	1.686443E-02	6.574115E-04
4.060481E+03	1.666715E-02	6.494553E-04
4.061727E+03	1.655341E-02	6.447595E-04
4.062972E+03	1.653569E-02	6.438064E-04
4.064218E+03	1.655788E-02	6.444073E-04
4.065463E+03	1.654140E-02	6.435040E-04
4.066709E+03	1.644259E-02	6.393997E-04
4.067954E+03	1.639741E-02	6.373837E-04
4.069199E+03	1.645079E-02	6.391991E-04
4.070445E+03	1.645551E-02	6.391232E-04
4.071690E+03	1.639035E-02	6.363350E-04
4.072936E+03	1.634515E-02	6.343235E-04
4.074181E+03	1.630244E-02	6.324108E-04
4.075427E+03	1.623476E-02	6.295313E-04
4.076672E+03	1.616707E-02	6.266545E-04
4.077917E+03	1.614306E-02	6.254723E-04
4.079162E+03	1.612404E-02	6.244843E-04
4.080407E+03	1.614121E-02	6.248988E-04
4.081653E+03	1.614715E-02	6.248784E-04
4.082898E+03	1.609191E-02	6.224919E-04
4.084143E+03	1.603042E-02	6.198659E-04
4.085389E+03	1.590401E-02	6.147323E-04
4.086634E+03	1.580754E-02	6.107604E-04
4.087880E+03	1.571605E-02	6.069842E-04
4.089125E+03	1.556337E-02	6.008485E-04
4.090370E+03	1.537070E-02	5.931751E-04
4.091616E+03	1.523296E-02	5.876268E-04
4.092861E+03	1.509020E-02	5.818899E-04
4.094107E+03	1.482752E-02	5.715349E-04
4.095352E+03	1.455731E-02	5.608985E-04
4.096598E+03	1.440824E-02	5.549362E-04
4.097843E+03	1.432537E-02	5.515276E-04
4.099089E+03	1.417752E-02	5.456212E-04
4.100334E+03	1.401341E-02	5.390942E-04
4.101579E+03	1.397672E-02	5.374726E-04
4.102825E+03	1.399127E-02	5.378217E-04
4.104070E+03	1.389709E-02	5.339933E-04
4.105316E+03	1.365169E-02	5.243594E-04
4.106561E+03	1.344750E-02	5.163160E-04
4.107806E+03	1.323204E-02	5.078463E-04
4.109052E+03	1.295656E-02	4.970803E-04
4.110297E+03	1.268605E-02	4.865139E-04
4.111542E+03	1.251800E-02	4.798838E-04
4.112787E+03	1.242082E-02	4.759748E-04
4.114033E+03	1.234263E-02	4.727964E-04
4.115278E+03	1.229506E-02	4.707932E-04
4.116523E+03	1.222699E-02	4.680069E-04
4.117769E+03	1.210575E-02	4.631888E-04
4.119014E+03	1.195325E-02	4.571788E-04
4.120260E+03	1.180547E-02	4.513544E-04
4.121505E+03	1.162854E-02	4.444204E-04
4.122750E+03	1.144409E-02	4.372044E-04
4.123996E+03	1.134492E-02	4.332510E-04
4.125241E+03	1.133616E-02	4.327525E-04
4.126487E+03	1.133628E-02	4.325933E-04
4.127732E+03	1.124446E-02	4.289273E-04
4.128978E+03	1.104980E-02	4.213426E-04
4.130223E+03	1.082971E-02	4.127949E-04
4.131468E+03	1.065627E-02	4.060313E-04
4.132714E+03	1.060330E-02	4.038612E-04
4.133959E+03	1.065981E-02	4.058616E-04
4.135205E+03	1.071007E-02	4.076226E-04
4.136450E+03	1.071516E-02	4.076642E-04
4.137696E+03	1.074127E-02	4.085052E-04
4.138941E+03	1.074249E-02	4.083994E-04
4.140186E+03	1.071691E-02	4.072757E-04
4.141432E+03	1.063600E-02	4.040511E-04
4.142676E+03	1.057949E-02	4.017559E-04
4.143922E+03	1.051710E-02	3.992390E-04
4.145167E+03	1.039009E-02	3.942724E-04
4.146413E+03	1.028473E-02	3.901308E-04
4.147658E+03	1.026863E-02	3.893770E-04
4.148903E+03	1.032240E-02	3.912724E-04
4.150149E+03	1.032808E-02	3.913448E-04
4.151394E+03	1.024874E-02	3.881966E-04
4.152640E+03	1.018604E-02	3.856813E-04
4.153885E+03	1.020349E-02	3.862015E-04
4.155131E+03	1.022682E-02	3.869441E-04
4.156376E+03	1.021797E-02	3.864693E-04
4.157621E+03	1.021200E-02	3.861039E-04
4.158867E+03	1.018410E-02	3.849102E-04
4.160112E+03	1.017048E-02	3.842569E-04
4.161358E+03	1.017139E-02	3.841534E-04
4.162603E+03	1.012757E-02	3.823614E-04
4.163849E+03	1.007912E-02	3.803957E-04
4.165094E+03	1.004042E-02	3.788002E-04
4.166339E+03	9.894841E-03	3.731748E-04
4.167585E+03	9.772549E-03	3.684316E-04
4.168830E+03	9.773308E-03	3.683295E-04
4.170076E+03	9.815797E-03	3.697998E-04
4.171321E+03	9.812048E-03	3.695280E-04
4.172566E+03	9.800018E-03	3.689450E-04
4.173811E+03	9.843641E-03	3.704569E-04
4.175056E+03	9.850789E-03	3.705958E-04
4.176302E+03	9.749634E-03	3.666618E-04
4.177547E+03	9.659746E-03	3.631544E-04
4.178792E+03	9.654844E-03	3.628437E-04
4.180038E+03	9.610576E-03	3.610543E-04
4.181283E+03	9.479922E-03	3.560223E-04
4.182529E+03	9.395009E-03	3.527111E-04
4.183774E+03	9.353353E-03	3.510260E-04
4.185020E+03	9.282100E-03	3.482318E-04
4.186265E+03	9.136218E-03	3.426410E-04
4.187511E+03	9.022428E-03	3.382573E-04
4.188756E+03	9.042571E-03	3.388965E-04
4.190001E+03	9.090562E-03	3.405788E-04
4.191247E+03	9.099920E-03	3.408132E-04
4.192492E+03	9.063369E-03	3.393289E-04
4.193738E+03	8.976635E-03	3.359676E-04
4.194983E+03	8.931043E-03	3.341482E-04
4.196228E+03	8.919570E-03	3.336064E-04
4.197474E+03	8.892279E-03	3.324737E-04
4.198719E+03	8.886324E-03	3.321395E-04
4.199965E+03	8.874590E-03	3.315898E-04
4.201210E+03	8.804507E-03	3.288613E-04
4.202455E+03	8.675182E-03	3.239229E-04
4.203701E+03	8.536683E-03	3.186454E-04
4.204946E+03	8.468328E-03	3.159892E-04
4.206191E+03	8.457573E-03	3.154834E-04
4.207436E+03	8.492370E-03	3.166770E-04
4.208682E+03	8.594453E-03	3.203781E-04
4.209927E+03	8.613569E-03	3.209853E-04
4.211172E+03	8.520969E-03	3.174306E-04
4.212418E+03	8.466896E-03	3.153132E-04
4.213663E+03	8.475840E-03	3.155435E-04
4.214909E+03	8.464950E-03	3.150357E-04
4.219890E+03	8.439439E-03	3.136811E-04
4.221136E+03	8.447495E-03	3.138799E-04
4.222381E+03	8.503905E-03	3.158750E-04
4.223627E+03	8.551780E-03	3.175520E-04
4.224872E+03	8.538366E-03	3.169532E-04
4.226118E+03	8.527965E-03	3.164667E-04
4.227363E+03	8.556882E-03	3.174395E-04
4.228608E+03	8.553387E-03	3.172098E-04
4.229854E+03	8.511327E-03	3.155507E-04
4.231099E+03	8.496768E-03	3.149123E-04
4.232345E+03	8.496412E-03	3.148007E-04
4.233590E+03	8.488638E-03	3.144147E-04
4.234836E+03	8.481866E-03	3.140662E-04
4.236081E+03	8.513415E-03	3.151368E-04
4.237325E+03	8.584680E-03	3.176767E-04
4.238571E+03	8.652299E-03	3.200804E-04
4.239816E+03	8.653322E-03	3.200200E-04
4.241062E+03	8.569263E-03	3.168142E-04
4.242307E+03	8.514733E-03	3.147022E-04
4.243553E+03	8.525554E-03	3.150062E-04
4.244798E+03	8.513240E-03	3.144559E-04
4.246043E+03	8.475038E-03	3.129502E-04
4.247289E+03	8.500685E-03	3.138026E-04
4.248534E+03	8.548332E-03	3.154668E-04
4.249780E+03	8.583032E-03	3.166524E-04
4.251025E+03	8.643258E-03	3.187791E-04
4.252270E+03	8.707630E-03	3.210578E-04
4.253516E+03	8.715686E-03	3.212595E-04
4.254761E+03	8.624286E-03	3.177965E-04
4.256007E+03	8.485602E-03	3.125939E-04
4.257252E+03	8.418324E-03	3.100245E-04
4.258498E+03	8.372667E-03	3.082527E-04
4.259743E+03	8.332416E-03	3.066813E-04
4.260988E+03	8.386478E-03	3.085814E-04
4.262234E+03	8.488969E-03	3.122620E-04
4.263479E+03	8.566312E-03	3.150160E-04
4.265970E+03	8.643147E-03	3.176588E-04
4.267215E+03	8.672579E-03	3.186494E-04
4.268460E+03	8.626283E-03	3.168580E-04
4.269705E+03	8.574319E-03	3.148599E-04
4.270951E+03	8.559837E-03	3.142391E-04
4.272196E+03	8.555804E-03	3.140025E-04
4.273442E+03	8.532887E-03	3.130734E-04
4.274687E+03	8.538531E-03	3.131928E-04
4.275933E+03	8.572366E-03	3.143461E-04
4.277178E+03	8.540010E-03	3.130726E-04
4.278423E+03	8.511673E-03	3.119474E-04
4.279669E+03	8.507505E-03	3.117086E-04
4.280914E+03	8.430588E-03	3.088055E-04
4.282160E+03	8.343976E-03	3.055493E-04
4.283405E+03	8.406746E-03	3.077639E-04
4.284650E+03	8.549442E-03	3.129028E-04
4.285896E+03	8.582898E-03	3.140422E-04
4.287141E+03	8.502946E-03	3.110329E-04
4.288387E+03	8.426631E-03	3.081585E-04
4.289632E+03	8.403059E-03	3.072142E-04
4.290877E+03	8.440163E-03	3.084885E-04
4.292123E+03	8.513524E-03	3.110871E-04
4.293368E+03	8.583612E-03	3.135652E-04
4.294614E+03	8.668820E-03	3.165944E-04
4.295859E+03	8.690822E-03	3.173147E-04
4.297105E+03	8.709431E-03	3.179110E-04
4.298350E+03	8.827133E-03	3.221235E-04
4.299595E+03	9.002266E-03	3.284294E-04
4.300840E+03	9.147943E-03	3.336579E-04
4.302085E+03	9.246535E-03	3.371672E-04
4.303331E+03	9.313899E-03	3.395365E-04
4.304576E+03	9.368924E-03	3.414554E-04
4.305822E+03	9.462245E-03	3.447689E-04
4.307067E+03	9.589068E-03	3.493016E-04
4.308312E+03	9.706706E-03	3.534978E-04
4.309558E+03	9.799038E-03	3.567708E-04
4.310803E+03	9.871724E-03	3.593275E-04
4.312049E+03	1.002957E-02	3.649824E-04
4.313294E+03	1.023291E-02	3.722898E-04
4.314540E+03	1.037339E-02	3.773077E-04
4.315785E+03	1.047760E-02	3.810046E-04
4.317030E+03	1.057627E-02	3.844989E-04
4.318276E+03	1.070217E-02	3.889813E-04
4.319521E+03	1.090026E-02	3.960855E-04
4.320767E+03	1.106171E-02	4.018553E-04
4.322012E+03	1.112589E-02	4.040897E-04
4.323258E+03	1.116247E-02	4.053216E-04
4.324503E+03	1.125362E-02	4.085346E-04
4.325748E+03	1.135600E-02	4.121536E-04
4.326994E+03	1.138666E-02	4.131692E-04
4.328239E+03	1.138456E-02	4.129963E-04
4.329485E+03	1.139758E-02	4.133725E-04
4.330730E+03	1.139711E-02	4.132597E-04
4.331975E+03	1.135884E-02	4.117767E-04
4.333220E+03	1.136379E-02	4.118616E-04
4.334465E+03	1.143075E-02	4.141940E-04
4.335711E+03	1.143797E-02	4.143615E-04
4.336956E+03	1.138216E-02	4.122461E-04
4.338202E+03	1.132659E-02	4.101413E-04
4.339447E+03	1.137830E-02	4.119217E-04
4.340692E+03	1.146394E-02	4.149296E-04
4.341938E+03	1.149675E-02	4.160249E-04
4.343183E+03	1.150157E-02	4.161074E-04
4.344429E+03	1.144195E-02	4.138598E-04
4.345674E+03	1.137804E-02	4.114585E-04
4.346919E+03	1.141413E-02	4.126740E-04
4.348165E+03	1.152310E-02	4.165239E-04
4.349410E+03	1.155792E-02	4.176932E-04
4.350656E+03	1.146121E-02	4.141097E-04
4.351901E+03	1.131430E-02	4.087147E-04
4.353147E+03	1.121190E-02	4.049301E-04
4.354392E+03	1.116057E-02	4.029917E-04
4.355638E+03	1.116863E-02	4.031988E-04
4.356883E+03	1.121669E-02	4.048497E-04
4.358128E+03	1.123700E-02	4.054991E-04
4.359374E+03	1.122602E-02	4.050200E-04
4.360619E+03	1.119965E-02	4.039862E-04
4.361865E+03	1.115132E-02	4.021614E-04
4.363109E+03	1.109328E-02	3.999875E-04
4.364355E+03	1.101240E-02	3.969917E-04
4.365600E+03	1.090338E-02	3.929832E-04
4.366845E+03	1.081012E-02	3.895448E-04
4.368091E+03	1.079230E-02	3.888262E-04
4.369336E+03	1.083491E-02	3.902853E-04
4.370582E+03	1.085381E-02	3.908901E-04
4.371827E+03	1.080217E-02	3.889551E-04
4.373072E+03	1.069475E-02	3.850134E-04
4.374318E+03	1.057962E-02	3.807960E-04
4.375563E+03	1.046536E-02	3.766123E-04
4.376809E+03	1.032423E-02	3.714633E-04
4.378054E+03	1.021096E-02	3.673194E-04
4.379299E+03	1.010956E-02	3.636039E-04
4.380545E+03	9.950461E-03	3.578157E-04
4.381790E+03	9.757024E-03	3.507954E-04
4.383036E+03	9.632616E-03	3.462594E-04
4.384281E+03	9.585328E-03	3.444971E-04
4.385527E+03	9.485648E-03	3.408533E-04
4.386772E+03	9.301504E-03	3.341766E-04
4.388017E+03	9.107506E-03	3.271487E-04
4.389263E+03	8.966772E-03	3.220366E-04
4.390508E+03	8.858214E-03	3.180821E-04
4.391754E+03	8.768972E-03	3.148227E-04
4.392999E+03	8.693350E-03	3.120538E-04
4.394244E+03	8.636918E-03	3.099749E-04
4.395489E+03	8.612931E-03	3.090613E-04
4.396734E+03	8.570888E-03	3.075006E-04
4.397980E+03	8.539442E-03	3.063209E-04
4.399225E+03	8.555096E-03	3.068312E-04
4.400471E+03	8.567082E-03	3.072101E-04
4.401716E+03	8.556851E-03	3.067927E-04
4.402962E+03	8.562021E-03	3.069278E-04
