#wls	flux	fluxerr
1.570938E+03	2.119386E-04	1.635813E-05
1.610211E+03	2.146001E-04	1.652495E-05
1.649485E+03	2.173111E-04	1.669363E-05
1.688758E+03	2.200744E-04	1.686431E-05
1.728031E+03	2.229296E-04	1.703992E-05
1.767305E+03	2.257841E-04	1.721331E-05
1.806578E+03	2.286977E-04	1.738895E-05
1.845852E+03	2.316038E-04	1.756172E-05
1.885125E+03	2.344314E-04	1.772618E-05
1.924399E+03	2.372419E-04	1.788696E-05
1.963672E+03	2.400484E-04	1.804500E-05
2.002946E+03	2.428540E-04	1.820047E-05
2.042219E+03	2.459079E-04	1.837194E-05
2.081492E+03	2.495718E-04	1.858612E-05
2.120766E+03	2.540745E-04	1.885948E-05
2.160039E+03	2.596605E-04	1.920941E-05
2.199313E+03	2.662179E-04	1.962675E-05
2.238586E+03	2.735457E-04	2.009588E-05
2.277860E+03	2.814447E-04	2.060149E-05
2.317133E+03	2.897906E-04	2.113393E-05
2.356406E+03	2.985402E-04	2.168957E-05
2.395680E+03	3.077638E-04	2.227298E-05
2.434953E+03	3.174058E-04	2.287963E-05
2.474227E+03	3.276478E-04	2.352204E-05
2.513500E+03	3.385191E-04	2.420159E-05
2.552774E+03	3.501112E-04	2.492408E-05
2.592047E+03	3.625232E-04	2.569570E-05
2.631321E+03	3.758621E-04	2.652305E-05
2.670594E+03	3.903126E-04	2.741804E-05
2.709867E+03	4.058677E-04	2.837890E-05
2.749141E+03	4.228067E-04	2.942380E-05
2.788414E+03	4.412162E-04	3.055712E-05
2.827688E+03	4.611872E-04	3.178343E-05
2.866961E+03	4.830661E-04	3.312465E-05
2.906235E+03	5.069864E-04	3.458765E-05
2.945508E+03	5.332731E-04	3.619210E-05
2.955326E+03	5.401375E-04	3.660977E-05
2.965145E+03	5.472573E-04	3.704335E-05
2.974963E+03	5.545443E-04	3.748681E-05
2.984782E+03	5.620041E-04	3.794048E-05
2.994600E+03	5.696446E-04	3.840483E-05
3.004418E+03	5.773741E-04	3.887364E-05
3.014237E+03	5.853950E-04	3.936050E-05
3.024055E+03	5.936127E-04	3.985896E-05
3.033873E+03	6.020316E-04	4.036926E-05
3.043692E+03	6.106560E-04	4.089164E-05
3.053510E+03	6.194905E-04	4.142633E-05
3.063328E+03	6.285398E-04	4.197360E-05
3.073147E+03	6.378090E-04	4.253371E-05
3.082965E+03	6.471907E-04	4.309945E-05
3.092784E+03	6.569131E-04	4.368596E-05
3.102602E+03	6.668704E-04	4.428610E-05
3.112420E+03	6.770682E-04	4.490021E-05
3.122239E+03	6.875119E-04	4.552853E-05
3.132057E+03	6.982078E-04	4.617144E-05
3.141875E+03	7.091617E-04	4.682923E-05
3.151694E+03	7.203790E-04	4.750219E-05
3.161512E+03	7.318655E-04	4.819061E-05
3.171330E+03	7.436284E-04	4.889489E-05
3.181149E+03	7.556724E-04	4.961527E-05
3.190967E+03	7.680053E-04	5.035216E-05
3.200785E+03	7.804981E-04	5.109703E-05
3.210604E+03	7.934237E-04	5.186769E-05
3.220422E+03	8.066569E-04	5.265582E-05
3.230241E+03	8.202036E-04	5.346172E-05
3.240059E+03	8.340700E-04	5.428571E-05
3.249877E+03	8.482633E-04	5.512816E-05
3.259696E+03	8.627897E-04	5.598936E-05
3.269514E+03	8.776551E-04	5.686962E-05
3.279332E+03	8.928663E-04	5.776927E-05
3.289151E+03	9.084289E-04	5.868856E-05
3.298969E+03	9.243495E-04	5.962783E-05
3.308787E+03	9.406343E-04	6.058737E-05
3.318606E+03	9.572883E-04	6.156738E-05
3.328424E+03	9.743175E-04	6.256816E-05
3.338243E+03	9.917275E-04	6.358996E-05
3.348061E+03	1.009523E-03	6.463298E-05
3.357879E+03	1.027709E-03	6.569738E-05
3.367698E+03	1.046290E-03	6.678338E-05
3.377516E+03	1.065271E-03	6.789113E-05
3.387334E+03	1.084654E-03	6.902077E-05
3.397153E+03	1.104444E-03	7.017233E-05
3.406971E+03	1.124642E-03	7.134591E-05
3.416789E+03	1.145251E-03	7.254151E-05
3.426608E+03	1.166272E-03	7.375914E-05
3.436426E+03	1.187708E-03	7.499877E-05
3.446244E+03	1.209557E-03	7.626022E-05
3.456063E+03	1.231819E-03	7.754341E-05
3.465881E+03	1.254494E-03	7.884814E-05
3.475700E+03	1.277795E-03	8.018775E-05
3.485518E+03	1.301289E-03	8.153490E-05
3.495336E+03	1.325185E-03	8.290261E-05
3.505155E+03	1.349478E-03	8.429046E-05
3.514973E+03	1.374160E-03	8.569792E-05
3.524791E+03	1.399225E-03	8.712442E-05
3.534610E+03	1.424663E-03	8.856929E-05
3.544428E+03	1.450464E-03	9.003180E-05
3.554246E+03	1.476616E-03	9.151113E-05
3.564065E+03	1.503106E-03	9.300636E-05
3.573883E+03	1.529917E-03	9.451645E-05
3.583702E+03	1.557035E-03	9.604034E-05
3.593520E+03	1.584441E-03	9.757686E-05
3.603338E+03	1.612113E-03	9.912463E-05
3.613157E+03	1.640031E-03	1.006823E-04
3.622975E+03	1.668170E-03	1.022483E-04
3.632793E+03	1.696506E-03	1.038212E-04
3.642612E+03	1.725008E-03	1.053990E-04
3.652430E+03	1.753946E-03	1.069983E-04
3.662248E+03	1.782698E-03	1.085809E-04
3.672067E+03	1.811523E-03	1.101627E-04
3.681885E+03	1.840383E-03	1.117415E-04
3.691703E+03	1.869242E-03	1.133151E-04
3.701522E+03	1.898060E-03	1.148811E-04
3.711340E+03	1.926792E-03	1.164369E-04
3.721159E+03	1.955397E-03	1.179800E-04
3.730977E+03	1.983827E-03	1.195076E-04
3.740795E+03	2.012035E-03	1.210170E-04
3.750614E+03	2.039969E-03	1.225052E-04
3.760432E+03	2.067579E-03	1.239694E-04
3.770250E+03	2.094811E-03	1.254063E-04
3.780069E+03	2.121611E-03	1.268129E-04
3.789887E+03	2.147922E-03	1.281861E-04
3.799705E+03	2.173686E-03	1.295225E-04
3.809524E+03	2.198845E-03	1.308190E-04
3.819342E+03	2.223339E-03	1.320721E-04
3.829161E+03	2.247488E-03	1.333010E-04
3.838979E+03	2.270478E-03	1.344578E-04
3.848797E+03	2.292621E-03	1.355613E-04
3.858616E+03	2.313860E-03	1.366083E-04
3.868434E+03	2.334133E-03	1.375955E-04
3.878252E+03	2.353381E-03	1.385198E-04
3.888071E+03	2.371547E-03	1.393781E-04
3.897889E+03	2.388576E-03	1.401675E-04
3.907707E+03	2.404412E-03	1.408852E-04
3.917526E+03	2.419006E-03	1.415286E-04
3.927344E+03	2.432310E-03	1.420955E-04
3.937162E+03	2.444284E-03	1.425835E-04
3.946981E+03	2.454891E-03	1.429913E-04
3.956799E+03	2.464103E-03	1.433175E-04
3.966618E+03	2.471900E-03	1.435612E-04
3.976436E+03	2.478274E-03	1.437226E-04
3.986254E+03	2.483229E-03	1.438022E-04
3.996073E+03	2.486783E-03	1.438015E-04
4.005891E+03	2.488969E-03	1.437227E-04
4.015709E+03	2.489834E-03	1.435690E-04
4.025528E+03	2.489444E-03	1.433445E-04
4.035346E+03	2.487876E-03	1.430540E-04
4.045164E+03	2.485222E-03	1.427031E-04
4.054983E+03	2.481583E-03	1.422979E-04
4.064801E+03	2.477071E-03	1.418450E-04
4.074620E+03	2.471803E-03	1.413513E-04
4.084438E+03	2.465894E-03	1.408237E-04
4.094256E+03	2.459465E-03	1.402693E-04
4.104075E+03	2.452633E-03	1.396947E-04
4.113893E+03	2.445513E-03	1.391067E-04
4.123711E+03	2.437810E-03	1.384887E-04
4.133530E+03	2.430443E-03	1.378928E-04
4.143348E+03	2.423108E-03	1.373018E-04
4.153166E+03	2.415902E-03	1.367212E-04
4.162985E+03	2.408917E-03	1.361563E-04
4.172803E+03	2.402240E-03	1.356118E-04
4.182622E+03	2.395950E-03	1.350922E-04
4.192440E+03	2.390122E-03	1.346017E-04
4.202258E+03	2.384823E-03	1.341439E-04
4.212077E+03	2.380111E-03	1.337220E-04
4.221895E+03	2.376038E-03	1.333390E-04
4.231713E+03	2.372256E-03	1.329750E-04
4.241532E+03	2.369592E-03	1.326765E-04
4.251350E+03	2.367688E-03	1.324232E-04
4.261168E+03	2.366572E-03	1.322166E-04
4.270987E+03	2.366275E-03	1.320582E-04
4.280805E+03	2.366822E-03	1.319494E-04
4.290623E+03	2.367843E-03	1.318695E-04
4.300442E+03	2.370139E-03	1.318629E-04
4.310260E+03	2.373322E-03	1.319079E-04
4.320079E+03	2.377367E-03	1.320031E-04
4.329897E+03	2.382227E-03	1.321457E-04
4.339715E+03	2.387844E-03	1.323322E-04
4.349534E+03	2.393755E-03	1.325369E-04
4.359352E+03	2.400687E-03	1.328000E-04
4.369170E+03	2.408177E-03	1.330956E-04
4.378989E+03	2.416161E-03	1.334202E-04
4.388807E+03	2.424171E-03	1.337478E-04
4.398625E+03	2.432937E-03	1.341187E-04
4.408444E+03	2.441987E-03	1.345066E-04
4.418262E+03	2.451238E-03	1.349071E-04
4.428081E+03	2.460195E-03	1.352928E-04
4.437899E+03	2.469566E-03	1.357026E-04
4.447717E+03	2.478830E-03	1.361079E-04
4.457536E+03	2.487860E-03	1.365016E-04
4.467354E+03	2.496103E-03	1.368535E-04
4.477172E+03	2.504225E-03	1.372001E-04
4.486991E+03	2.511652E-03	1.375101E-04
4.496809E+03	2.517799E-03	1.377513E-04
4.506627E+03	2.523321E-03	1.379598E-04
4.516446E+03	2.527634E-03	1.381036E-04
4.526264E+03	2.530162E-03	1.381514E-04
4.536082E+03	2.531591E-03	1.381408E-04
4.545901E+03	2.530969E-03	1.380200E-04
4.555719E+03	2.529037E-03	1.378294E-04
4.565538E+03	2.525322E-03	1.375435E-04
4.575356E+03	2.519395E-03	1.371389E-04
4.585174E+03	2.512114E-03	1.366625E-04
4.594993E+03	2.502725E-03	1.360735E-04
4.604811E+03	2.492171E-03	1.354230E-04
4.614629E+03	2.479791E-03	1.346754E-04
4.624448E+03	2.466597E-03	1.338856E-04
4.634266E+03	2.452408E-03	1.330439E-04
4.644084E+03	2.437077E-03	1.321422E-04
4.653903E+03	2.421672E-03	1.312385E-04
4.663721E+03	2.405676E-03	1.303047E-04
4.673540E+03	2.390155E-03	1.293985E-04
4.683358E+03	2.374593E-03	1.284919E-04
4.693176E+03	2.360022E-03	1.276407E-04
4.702995E+03	2.345899E-03	1.268153E-04
4.712813E+03	2.333200E-03	1.260684E-04
4.722631E+03	2.321332E-03	1.253679E-04
4.732450E+03	2.310821E-03	1.247419E-04
4.742268E+03	2.302149E-03	1.242164E-04
4.752086E+03	2.294635E-03	1.237544E-04
4.761905E+03	2.289072E-03	1.233986E-04
4.771723E+03	2.284722E-03	1.231089E-04
4.781541E+03	2.281946E-03	1.229048E-04
4.791360E+03	2.281080E-03	1.228040E-04
4.801178E+03	2.281321E-03	1.227634E-04
4.810997E+03	2.282976E-03	1.227992E-04
4.820815E+03	2.286338E-03	1.229271E-04
4.830633E+03	2.290578E-03	1.231024E-04
4.840452E+03	2.295983E-03	1.233404E-04
4.850270E+03	2.302844E-03	1.236565E-04
4.860088E+03	2.310328E-03	1.240061E-04
4.869907E+03	2.318736E-03	1.244050E-04
4.879725E+03	2.328376E-03	1.248699E-04
4.889543E+03	2.338429E-03	1.253565E-04
4.899362E+03	2.349215E-03	1.258821E-04
4.909180E+03	2.360679E-03	1.264436E-04
4.918999E+03	2.373160E-03	1.270590E-04
4.928817E+03	2.385839E-03	1.276844E-04
4.938635E+03	2.399056E-03	1.283381E-04
4.948454E+03	2.412767E-03	1.290175E-04
4.958272E+03	2.426933E-03	1.297204E-04
4.968090E+03	2.441917E-03	1.304663E-04
4.977909E+03	2.456900E-03	1.312113E-04
4.987727E+03	2.472262E-03	1.319757E-04
4.997545E+03	2.487999E-03	1.327591E-04
5.007364E+03	2.504122E-03	1.335621E-04
5.017182E+03	2.520655E-03	1.343858E-04
5.027000E+03	2.537633E-03	1.352323E-04
5.036819E+03	2.555518E-03	1.361258E-04
5.046637E+03	2.573527E-03	1.370247E-04
5.056456E+03	2.592120E-03	1.379534E-04
5.066274E+03	2.611329E-03	1.389135E-04
5.076092E+03	2.631175E-03	1.399060E-04
5.085911E+03	2.651653E-03	1.409306E-04
5.095729E+03	2.672733E-03	1.419855E-04
5.105547E+03	2.694352E-03	1.430675E-04
5.115366E+03	2.716419E-03	1.441715E-04
5.125184E+03	2.738811E-03	1.452909E-04
5.135002E+03	2.761376E-03	1.464177E-04
5.144821E+03	2.783942E-03	1.475426E-04
5.154639E+03	2.806315E-03	1.486553E-04
5.164458E+03	2.828287E-03	1.497448E-04
5.174276E+03	2.849647E-03	1.507999E-04
5.184094E+03	2.870178E-03	1.518090E-04
5.193913E+03	2.889670E-03	1.527612E-04
5.203731E+03	2.907445E-03	1.536206E-04
5.213549E+03	2.924254E-03	1.544271E-04
5.223368E+03	2.939454E-03	1.551466E-04
5.233186E+03	2.952890E-03	1.557711E-04
5.243004E+03	2.964431E-03	1.562939E-04
5.252823E+03	2.973971E-03	1.567094E-04
5.262641E+03	2.981437E-03	1.570140E-04
5.272459E+03	2.986297E-03	1.571798E-04
5.282278E+03	2.989503E-03	1.572570E-04
5.292096E+03	2.990590E-03	1.572215E-04
5.301915E+03	2.989603E-03	1.570756E-04
5.311733E+03	2.986618E-03	1.568236E-04
5.321551E+03	2.981252E-03	1.564455E-04
5.331370E+03	2.974592E-03	1.559987E-04
5.341188E+03	2.966295E-03	1.554651E-04
5.351006E+03	2.956511E-03	1.548528E-04
5.360825E+03	2.944920E-03	1.541453E-04
5.370643E+03	2.932633E-03	1.534007E-04
5.380461E+03	2.919322E-03	1.526021E-04
5.390280E+03	2.904651E-03	1.517319E-04
5.400098E+03	2.889674E-03	1.508455E-04
5.409917E+03	2.874001E-03	1.499222E-04
5.419735E+03	2.857216E-03	1.489408E-04
5.429553E+03	2.840261E-03	1.479503E-04
5.439372E+03	2.822650E-03	1.469254E-04
5.449190E+03	2.803873E-03	1.458397E-04
5.459008E+03	2.784751E-03	1.447360E-04
5.468827E+03	2.764713E-03	1.435847E-04
5.478645E+03	2.743176E-03	1.423557E-04
5.488463E+03	2.720883E-03	1.410877E-04
5.498282E+03	2.696804E-03	1.397275E-04
5.508100E+03	2.671682E-03	1.383137E-04
5.517919E+03	2.644542E-03	1.367962E-04
5.527737E+03	2.616176E-03	1.352160E-04
5.537555E+03	2.586126E-03	1.335497E-04
5.547374E+03	2.554010E-03	1.317780E-04
5.557192E+03	2.520745E-03	1.299483E-04
5.567010E+03	2.485649E-03	1.280258E-04
5.576829E+03	2.449326E-03	1.260419E-04
5.586647E+03	2.412401E-03	1.240288E-04
5.596465E+03	2.374357E-03	1.219603E-04
5.606284E+03	2.336265E-03	1.198914E-04
5.616102E+03	2.297678E-03	1.177993E-04
5.625920E+03	2.259661E-03	1.157387E-04
5.635739E+03	2.221797E-03	1.136883E-04
5.645557E+03	2.185115E-03	1.117006E-04
5.655376E+03	2.149192E-03	1.097541E-04
5.665194E+03	2.114651E-03	1.078803E-04
5.675012E+03	2.082063E-03	1.061082E-04
5.684831E+03	2.050955E-03	1.044136E-04
5.694649E+03	2.021835E-03	1.028220E-04
5.704467E+03	1.995154E-03	1.013561E-04
5.714286E+03	1.970358E-03	9.998744E-05
5.724104E+03	1.947829E-03	9.873508E-05
5.733922E+03	1.927894E-03	9.761530E-05
5.743741E+03	1.909914E-03	9.659538E-05
5.753559E+03	1.894157E-03	9.568843E-05
5.763378E+03	1.880846E-03	9.490548E-05
5.773196E+03	1.869271E-03	9.421024E-05
5.783014E+03	1.859609E-03	9.361143E-05
5.792833E+03	1.852015E-03	9.311639E-05
5.802651E+03	1.845728E-03	9.268666E-05
5.812469E+03	1.840876E-03	9.232840E-05
5.822288E+03	1.837283E-03	9.203246E-05
5.832106E+03	1.834769E-03	9.178962E-05
5.841924E+03	1.833453E-03	9.160570E-05
5.851743E+03	1.832582E-03	9.144282E-05
5.861561E+03	1.832304E-03	9.130831E-05
5.871379E+03	1.832496E-03	9.119593E-05
5.881198E+03	1.833064E-03	9.110090E-05
5.891016E+03	1.834246E-03	9.103492E-05
5.900835E+03	1.835434E-03	9.096773E-05
5.910653E+03	1.836949E-03	9.091528E-05
5.920471E+03	1.838865E-03	9.088109E-05
5.930290E+03	1.841302E-03	9.087102E-05
5.940108E+03	1.844428E-03	9.089320E-05
5.949926E+03	1.848453E-03	9.095790E-05
5.959745E+03	1.853631E-03	9.107729E-05
5.969563E+03	1.860551E-03	9.128003E-05
5.979381E+03	1.868934E-03	9.155212E-05
5.989200E+03	1.879425E-03	9.192466E-05
5.999018E+03	1.892391E-03	9.241514E-05
6.008837E+03	1.908212E-03	9.304146E-05
6.018655E+03	1.927280E-03	9.382206E-05
6.028473E+03	1.949991E-03	9.477540E-05
6.038292E+03	1.976741E-03	9.591976E-05
6.048110E+03	2.007924E-03	9.727316E-05
6.057928E+03	2.043920E-03	9.885296E-05
6.067747E+03	2.085094E-03	1.006755E-04
6.077565E+03	2.131788E-03	1.027560E-04
6.087383E+03	2.184308E-03	1.051076E-04
6.097202E+03	2.242914E-03	1.077413E-04
6.107020E+03	2.307805E-03	1.106650E-04
6.116838E+03	2.379099E-03	1.138827E-04
6.126657E+03	2.456815E-03	1.173935E-04
6.136475E+03	2.540848E-03	1.211905E-04
6.146294E+03	2.630941E-03	1.252598E-04
6.156112E+03	2.726663E-03	1.295791E-04
6.165930E+03	2.826926E-03	1.340952E-04
6.175749E+03	2.931765E-03	1.388082E-04
6.185567E+03	3.039646E-03	1.436443E-04
6.195385E+03	3.149224E-03	1.485390E-04
6.205204E+03	3.258918E-03	1.534172E-04
6.215022E+03	3.366924E-03	1.581940E-04
6.224840E+03	3.471267E-03	1.627768E-04
6.234659E+03	3.569848E-03	1.670684E-04
6.244477E+03	3.659945E-03	1.709430E-04
6.254296E+03	3.740648E-03	1.743604E-04
6.264114E+03	3.809473E-03	1.772076E-04
6.273932E+03	3.864787E-03	1.794120E-04
6.283751E+03	3.905340E-03	1.809195E-04
6.293569E+03	3.930353E-03	1.816981E-04
6.303387E+03	3.938943E-03	1.817119E-04
6.313206E+03	3.932697E-03	1.810384E-04
6.323024E+03	3.911845E-03	1.796928E-04
6.332842E+03	3.877749E-03	1.777418E-04
6.342661E+03	3.832191E-03	1.752709E-04
6.352479E+03	3.776648E-03	1.723511E-04
6.362297E+03	3.714622E-03	1.691450E-04
6.372116E+03	3.647833E-03	1.657328E-04
6.381934E+03	3.578567E-03	1.622197E-04
6.391753E+03	3.508383E-03	1.586771E-04
6.401571E+03	3.440288E-03	1.552411E-04
6.411389E+03	3.375178E-03	1.519514E-04
6.421208E+03	3.313452E-03	1.488251E-04
6.431026E+03	3.256591E-03	1.459276E-04
6.440844E+03	3.204099E-03	1.432354E-04
6.450663E+03	3.155310E-03	1.407174E-04
6.460481E+03	3.110966E-03	1.384053E-04
6.470299E+03	3.070180E-03	1.362587E-04
6.480118E+03	3.032041E-03	1.342360E-04
6.489936E+03	2.997073E-03	1.323596E-04
6.499755E+03	2.964302E-03	1.305855E-04
6.509573E+03	2.932773E-03	1.288712E-04
6.519391E+03	2.902956E-03	1.272368E-04
6.529210E+03	2.873913E-03	1.256409E-04
6.539028E+03	2.844751E-03	1.240443E-04
6.548846E+03	2.815996E-03	1.224699E-04
6.558665E+03	2.786832E-03	1.208822E-04
6.568483E+03	2.756512E-03	1.192492E-04
6.578301E+03	2.725684E-03	1.175993E-04
6.588120E+03	2.693270E-03	1.158862E-04
6.597938E+03	2.660002E-03	1.141421E-04
6.607757E+03	2.624919E-03	1.123261E-04
6.617575E+03	2.588815E-03	1.104729E-04
6.627393E+03	2.551230E-03	1.085634E-04
6.637212E+03	2.511755E-03	1.065807E-04
6.647030E+03	2.471220E-03	1.045608E-04
6.656848E+03	2.428855E-03	1.024716E-04
6.666667E+03	2.385501E-03	1.003494E-04
6.676485E+03	2.340457E-03	9.816511E-05
6.686303E+03	2.294592E-03	9.595583E-05
6.696122E+03	2.247295E-03	9.369654E-05
6.705940E+03	2.199481E-03	9.142590E-05
6.715758E+03	2.150653E-03	8.912362E-05
6.725577E+03	2.101780E-03	8.683023E-05
6.735395E+03	2.052476E-03	8.452998E-05
6.745214E+03	2.003746E-03	8.226437E-05
6.755032E+03	1.955285E-03	8.002087E-05
6.764850E+03	1.908096E-03	7.784033E-05
6.774669E+03	1.861908E-03	7.571143E-05
6.784487E+03	1.817671E-03	7.367232E-05
6.794305E+03	1.775102E-03	7.171097E-05
6.804124E+03	1.735063E-03	6.986146E-05
6.813942E+03	1.697225E-03	6.810971E-05
6.823760E+03	1.662071E-03	6.647423E-05
6.833579E+03	1.630017E-03	6.497057E-05
6.843397E+03	1.600636E-03	6.358067E-05
6.853216E+03	1.574521E-03	6.232689E-05
6.863034E+03	1.551185E-03	6.118881E-05
6.872852E+03	1.530882E-03	6.017527E-05
6.882671E+03	1.513821E-03	5.929325E-05
6.892489E+03	1.499449E-03	5.851993E-05
6.902307E+03	1.488177E-03	5.787012E-05
6.912126E+03	1.479428E-03	5.732021E-05
6.921944E+03	1.473341E-03	5.687457E-05
6.931762E+03	1.470048E-03	5.653714E-05
6.941581E+03	1.468968E-03	5.628443E-05
6.951399E+03	1.470237E-03	5.612076E-05
6.961217E+03	1.474000E-03	5.605064E-05
6.971036E+03	1.479701E-03	5.605193E-05
6.980854E+03	1.487513E-03	5.613029E-05
6.990673E+03	1.497630E-03	5.629211E-05
7.000491E+03	1.509537E-03	5.651710E-05
7.010309E+03	1.523462E-03	5.681301E-05
7.020128E+03	1.539412E-03	5.717911E-05
7.029946E+03	1.557659E-03	5.762469E-05
7.039764E+03	1.577738E-03	5.813149E-05
7.049583E+03	1.599947E-03	5.870964E-05
7.059401E+03	1.624604E-03	5.936985E-05
7.069219E+03	1.651249E-03	6.009421E-05
7.079038E+03	1.680203E-03	6.089350E-05
7.088856E+03	1.711526E-03	6.176884E-05
7.098675E+03	1.745554E-03	6.273116E-05
7.108493E+03	1.781762E-03	6.376055E-05
7.118311E+03	1.820445E-03	6.486643E-05
7.128130E+03	1.861587E-03	6.604719E-05
7.137948E+03	1.905132E-03	6.729968E-05
7.147766E+03	1.951288E-03	6.863014E-05
7.157585E+03	1.999250E-03	7.000924E-05
7.167403E+03	2.049070E-03	7.143795E-05
7.177221E+03	2.100392E-03	7.290308E-05
7.187040E+03	2.152747E-03	7.438783E-05
7.196858E+03	2.205905E-03	7.588382E-05
7.206676E+03	2.258440E-03	7.734192E-05
7.216495E+03	2.309851E-03	7.874546E-05
7.226313E+03	2.359171E-03	8.006219E-05
7.236132E+03	2.405330E-03	8.125700E-05
7.245950E+03	2.447182E-03	8.229300E-05
7.255768E+03	2.483958E-03	8.314654E-05
7.265587E+03	2.513705E-03	8.375499E-05
7.275405E+03	2.535749E-03	8.409942E-05
7.285223E+03	2.549163E-03	8.415286E-05
7.295042E+03	2.553222E-03	8.389568E-05
7.304860E+03	2.547455E-03	8.331686E-05
7.314678E+03	2.531681E-03	8.241513E-05
7.324497E+03	2.506022E-03	8.119913E-05
7.334315E+03	2.470904E-03	7.968722E-05
7.344134E+03	2.427423E-03	7.791897E-05
7.353952E+03	2.375721E-03	7.590272E-05
7.363770E+03	2.317322E-03	7.369068E-05
7.373589E+03	2.253470E-03	7.132525E-05
7.383407E+03	2.185470E-03	6.884999E-05
7.393225E+03	2.114631E-03	6.630772E-05
7.403044E+03	2.042217E-03	6.373908E-05
7.412862E+03	1.969406E-03	6.118128E-05
7.422680E+03	1.897260E-03	5.866727E-05
7.432499E+03	1.826711E-03	5.622531E-05
7.442317E+03	1.758547E-03	5.387874E-05
7.452135E+03	1.693413E-03	5.164611E-05
7.461954E+03	1.631818E-03	4.954146E-05
7.471772E+03	1.574139E-03	4.757456E-05
7.481591E+03	1.520639E-03	4.575161E-05
7.491409E+03	1.471479E-03	4.407557E-05
7.501227E+03	1.426732E-03	4.254676E-05
7.511046E+03	1.386398E-03	4.116334E-05
7.520864E+03	1.350418E-03	3.992176E-05
7.530682E+03	1.318691E-03	3.881720E-05
7.540501E+03	1.291077E-03	3.784395E-05
7.550319E+03	1.267413E-03	3.699563E-05
7.560137E+03	1.247520E-03	3.626557E-05
7.569956E+03	1.231208E-03	3.564690E-05
7.579774E+03	1.218282E-03	3.513272E-05
7.589593E+03	1.208544E-03	3.471619E-05
7.599411E+03	1.201598E-03	3.438498E-05
7.609229E+03	1.197638E-03	3.414380E-05
7.619048E+03	1.196269E-03	3.398051E-05
