#wls	flux	fluxerr
1.570938E+03	1.784749E-04	1.431906E-05
1.610211E+03	1.807464E-04	1.447189E-05
1.649485E+03	1.830676E-04	1.462720E-05
1.688758E+03	1.854751E-04	1.478784E-05
1.728031E+03	1.879033E-04	1.494853E-05
1.767305E+03	1.903750E-04	1.511100E-05
1.806578E+03	1.928738E-04	1.527390E-05
1.845852E+03	1.954133E-04	1.543825E-05
1.885125E+03	1.979003E-04	1.559662E-05
1.924399E+03	2.003879E-04	1.575318E-05
1.963672E+03	2.028521E-04	1.590600E-05
2.002946E+03	2.053316E-04	1.605807E-05
2.042219E+03	2.080754E-04	1.622878E-05
2.081492E+03	2.113179E-04	1.643612E-05
2.120766E+03	2.153297E-04	1.670072E-05
2.160039E+03	2.202457E-04	1.703242E-05
2.199313E+03	2.260119E-04	1.742637E-05
2.238586E+03	2.324612E-04	1.786906E-05
2.277860E+03	2.394277E-04	1.834718E-05
2.317133E+03	2.468524E-04	1.885575E-05
2.356406E+03	2.546146E-04	1.938514E-05
2.395680E+03	2.628198E-04	1.994296E-05
2.434953E+03	2.714220E-04	2.052529E-05
2.474227E+03	2.805796E-04	2.114362E-05
2.513500E+03	2.902679E-04	2.179552E-05
2.552774E+03	3.006686E-04	2.249401E-05
2.592047E+03	3.118189E-04	2.324113E-05
2.631321E+03	3.238121E-04	2.404302E-05
2.670594E+03	3.367495E-04	2.490630E-05
2.709867E+03	3.507410E-04	2.583806E-05
2.749141E+03	3.659064E-04	2.684598E-05
2.788414E+03	3.823771E-04	2.793841E-05
2.827688E+03	4.002971E-04	2.912445E-05
2.866961E+03	4.198244E-04	3.041398E-05
2.906235E+03	4.412100E-04	3.182338E-05
2.945508E+03	4.644917E-04	3.335335E-05
2.955326E+03	4.706439E-04	3.375699E-05
2.965145E+03	4.769353E-04	3.416948E-05
2.974963E+03	4.834546E-04	3.459713E-05
2.984782E+03	4.900371E-04	3.502811E-05
2.994600E+03	4.967733E-04	3.546885E-05
3.004418E+03	5.036700E-04	3.591981E-05
3.014237E+03	5.107300E-04	3.638114E-05
3.024055E+03	5.179565E-04	3.685302E-05
3.033873E+03	5.253527E-04	3.733563E-05
3.043692E+03	5.329217E-04	3.782915E-05
3.053510E+03	5.407620E-04	3.834052E-05
3.063328E+03	5.486886E-04	3.885655E-05
3.073147E+03	5.567986E-04	3.938410E-05
3.082965E+03	5.650957E-04	3.992338E-05
3.092784E+03	5.735838E-04	4.047460E-05
3.102602E+03	5.822667E-04	4.103797E-05
3.112420E+03	5.911483E-04	4.161374E-05
3.122239E+03	6.003379E-04	4.220952E-05
3.132057E+03	6.096306E-04	4.281084E-05
3.141875E+03	6.191341E-04	4.342523E-05
3.151694E+03	6.288529E-04	4.405293E-05
3.161512E+03	6.387911E-04	4.469419E-05
3.171330E+03	6.489522E-04	4.534918E-05
3.181149E+03	6.594573E-04	4.602630E-05
3.190967E+03	6.700809E-04	4.670972E-05
3.200785E+03	6.809406E-04	4.740761E-05
3.210604E+03	6.920408E-04	4.812021E-05
3.220422E+03	7.033854E-04	4.884771E-05
3.230241E+03	7.149799E-04	4.959044E-05
3.240059E+03	7.269543E-04	5.035733E-05
3.249877E+03	7.390615E-04	5.113118E-05
3.259696E+03	7.514295E-04	5.192079E-05
3.269514E+03	7.640628E-04	5.272641E-05
3.279332E+03	7.769653E-04	5.354823E-05
3.289151E+03	7.902790E-04	5.439595E-05
3.298969E+03	8.037328E-04	5.525082E-05
3.308787E+03	8.174662E-04	5.612238E-05
3.318606E+03	8.314825E-04	5.701079E-05
3.328424E+03	8.457845E-04	5.791614E-05
3.338243E+03	8.605255E-04	5.884886E-05
3.348061E+03	8.754100E-04	5.978863E-05
3.357879E+03	8.905870E-04	6.074559E-05
3.367698E+03	9.060592E-04	6.171983E-05
3.377516E+03	9.218282E-04	6.271138E-05
3.387334E+03	9.380583E-04	6.373133E-05
3.397153E+03	9.544260E-04	6.475760E-05
3.406971E+03	9.710920E-04	6.580104E-05
3.416789E+03	9.880564E-04	6.686159E-05
3.426608E+03	1.005494E-03	6.795095E-05
3.436426E+03	1.023056E-03	6.904547E-05
3.446244E+03	1.040912E-03	7.015659E-05
3.456063E+03	1.059060E-03	7.128407E-05
3.465881E+03	1.077497E-03	7.242762E-05
3.475700E+03	1.096411E-03	7.359972E-05
3.485518E+03	1.115417E-03	7.477459E-05
3.495336E+03	1.134699E-03	7.596441E-05
3.505155E+03	1.154250E-03	7.716862E-05
3.514973E+03	1.174267E-03	7.840042E-05
3.524791E+03	1.194338E-03	7.963211E-05
3.534610E+03	1.214654E-03	8.087649E-05
3.544428E+03	1.235206E-03	8.213281E-05
3.554246E+03	1.255982E-03	8.340030E-05
3.564065E+03	1.277193E-03	8.469284E-05
3.573883E+03	1.298386E-03	8.598031E-05
3.583702E+03	1.319765E-03	8.727627E-05
3.593520E+03	1.341314E-03	8.857962E-05
3.603338E+03	1.363254E-03	8.990485E-05
3.613157E+03	1.385098E-03	9.121983E-05
3.622975E+03	1.407059E-03	9.253863E-05
3.632793E+03	1.429119E-03	9.385994E-05
3.642612E+03	1.451506E-03	9.519883E-05
3.652430E+03	1.473699E-03	9.652107E-05
3.662248E+03	1.495922E-03	9.784134E-05
3.672067E+03	1.518151E-03	9.915808E-05
3.681885E+03	1.540358E-03	1.004695E-04
3.691703E+03	1.562787E-03	1.017916E-04
3.701522E+03	1.584872E-03	1.030874E-04
3.711340E+03	1.606851E-03	1.043724E-04
3.721159E+03	1.628691E-03	1.056448E-04
3.730977E+03	1.650647E-03	1.069209E-04
3.740795E+03	1.672119E-03	1.081620E-04
3.750614E+03	1.693355E-03	1.093843E-04
3.760432E+03	1.714320E-03	1.105855E-04
3.770250E+03	1.734980E-03	1.117636E-04
3.780069E+03	1.755602E-03	1.129359E-04
3.789887E+03	1.775547E-03	1.140614E-04
3.799705E+03	1.795078E-03	1.151571E-04
3.809524E+03	1.814159E-03	1.162209E-04
3.819342E+03	1.833071E-03	1.172709E-04
3.829161E+03	1.851147E-03	1.182645E-04
3.838979E+03	1.868666E-03	1.192199E-04
3.848797E+03	1.885593E-03	1.201349E-04
3.858616E+03	1.901895E-03	1.210076E-04
3.868434E+03	1.917871E-03	1.218573E-04
3.878252E+03	1.932830E-03	1.226402E-04
3.888071E+03	1.947073E-03	1.233757E-04
3.897889E+03	1.960574E-03	1.240623E-04
3.907707E+03	1.973310E-03	1.246987E-04
3.917526E+03	1.985601E-03	1.253056E-04
3.927344E+03	1.996750E-03	1.258390E-04
3.937162E+03	2.007083E-03	1.263198E-04
3.946981E+03	2.016590E-03	1.267477E-04
3.956799E+03	2.025268E-03	1.271226E-04
3.966618E+03	2.033467E-03	1.274668E-04
3.976436E+03	2.040493E-03	1.277368E-04
3.986254E+03	2.046704E-03	1.279556E-04
3.996073E+03	2.052118E-03	1.281243E-04
4.005891E+03	2.056752E-03	1.282444E-04
4.015709E+03	2.060990E-03	1.283399E-04
4.025528E+03	2.064152E-03	1.283687E-04
4.035346E+03	2.066629E-03	1.283552E-04
4.045164E+03	2.068458E-03	1.283022E-04
4.054983E+03	2.069684E-03	1.282124E-04
4.064801E+03	2.070354E-03	1.280890E-04
4.074620E+03	2.070873E-03	1.279572E-04
4.084438E+03	2.070580E-03	1.277762E-04
4.094256E+03	2.069886E-03	1.275715E-04
4.104075E+03	2.068845E-03	1.273467E-04
4.113893E+03	2.067512E-03	1.271052E-04
4.123711E+03	2.065942E-03	1.268504E-04
4.133530E+03	2.064188E-03	1.265858E-04
4.143348E+03	2.062660E-03	1.263364E-04
4.153166E+03	2.060700E-03	1.260620E-04
4.162985E+03	2.058712E-03	1.257874E-04
4.172803E+03	2.056748E-03	1.255157E-04
4.182622E+03	2.054851E-03	1.252497E-04
4.192440E+03	2.053066E-03	1.249921E-04
4.202258E+03	2.051436E-03	1.247454E-04
4.212077E+03	2.050349E-03	1.245333E-04
4.221895E+03	2.049140E-03	1.243152E-04
4.231713E+03	2.048194E-03	1.241146E-04
4.241532E+03	2.047541E-03	1.239334E-04
4.251350E+03	2.047211E-03	1.237730E-04
4.261168E+03	2.047227E-03	1.236351E-04
4.270987E+03	2.047610E-03	1.235208E-04
4.280805E+03	2.048379E-03	1.234312E-04
4.290623E+03	2.049548E-03	1.233670E-04
4.300442E+03	2.051123E-03	1.233287E-04
4.310260E+03	2.053458E-03	1.233373E-04
4.320079E+03	2.055839E-03	1.233500E-04
4.329897E+03	2.058592E-03	1.233863E-04
4.339715E+03	2.061683E-03	1.234440E-04
4.349534E+03	2.065077E-03	1.235210E-04
4.359352E+03	2.068731E-03	1.236146E-04
4.369170E+03	2.072602E-03	1.237222E-04
4.378989E+03	2.076642E-03	1.238408E-04
4.388807E+03	2.080802E-03	1.239675E-04
4.398625E+03	2.085028E-03	1.240991E-04
4.408444E+03	2.089267E-03	1.242324E-04
4.418262E+03	2.093464E-03	1.243639E-04
4.428081E+03	2.097560E-03	1.244904E-04
4.437899E+03	2.101499E-03	1.246083E-04
4.447717E+03	2.105220E-03	1.247141E-04
4.457536E+03	2.108665E-03	1.248044E-04
4.467354E+03	2.111777E-03	1.248758E-04
4.477172E+03	2.114498E-03	1.249250E-04
4.486991E+03	2.116774E-03	1.249487E-04
4.496809E+03	2.118555E-03	1.249441E-04
4.506627E+03	2.119794E-03	1.249084E-04
4.516446E+03	2.120452E-03	1.248394E-04
4.526264E+03	2.120496E-03	1.247353E-04
4.536082E+03	2.119902E-03	1.245947E-04
4.545901E+03	2.118656E-03	1.244167E-04
4.555719E+03	2.116754E-03	1.242012E-04
4.565538E+03	2.114201E-03	1.239487E-04
4.575356E+03	2.111018E-03	1.236603E-04
4.585174E+03	2.107234E-03	1.233379E-04
4.594993E+03	2.102891E-03	1.229840E-04
4.604811E+03	2.098043E-03	1.226016E-04
4.614629E+03	2.092752E-03	1.221946E-04
4.624448E+03	2.087093E-03	1.217673E-04
4.634266E+03	2.081145E-03	1.213243E-04
4.644084E+03	2.074642E-03	1.208502E-04
4.653903E+03	2.068384E-03	1.203914E-04
4.663721E+03	2.062110E-03	1.199329E-04
4.673540E+03	2.055917E-03	1.194803E-04
4.683358E+03	2.049899E-03	1.190388E-04
4.693176E+03	2.044149E-03	1.186138E-04
4.702995E+03	2.038755E-03	1.182104E-04
4.712813E+03	2.033797E-03	1.178333E-04
4.722631E+03	2.029356E-03	1.174868E-04
4.732450E+03	2.025152E-03	1.171548E-04
4.742268E+03	2.021938E-03	1.168807E-04
4.752086E+03	2.019418E-03	1.166473E-04
4.761905E+03	2.017637E-03	1.164570E-04
4.771723E+03	2.016628E-03	1.163117E-04
4.781541E+03	2.016419E-03	1.162127E-04
4.791360E+03	2.016684E-03	1.161413E-04
4.801178E+03	2.018118E-03	1.161373E-04
4.810997E+03	2.020383E-03	1.161811E-04
4.820815E+03	2.023477E-03	1.162724E-04
4.830633E+03	2.027393E-03	1.164108E-04
4.840452E+03	2.031773E-03	1.165755E-04
4.850270E+03	2.037291E-03	1.168051E-04
4.860088E+03	2.043582E-03	1.170786E-04
4.869907E+03	2.050627E-03	1.173948E-04
4.879725E+03	2.058403E-03	1.177521E-04
4.889543E+03	2.066536E-03	1.181291E-04
4.899362E+03	2.075700E-03	1.185642E-04
4.909180E+03	2.085521E-03	1.190359E-04
4.918999E+03	2.095973E-03	1.195427E-04
4.928817E+03	2.106677E-03	1.200627E-04
4.938635E+03	2.118318E-03	1.206351E-04
4.948454E+03	2.130519E-03	1.212381E-04
4.958272E+03	2.143257E-03	1.218704E-04
4.968090E+03	2.156145E-03	1.225099E-04
4.977909E+03	2.169890E-03	1.231966E-04
4.987727E+03	2.184108E-03	1.239086E-04
4.997545E+03	2.198406E-03	1.246237E-04
5.007364E+03	2.213505E-03	1.253826E-04
5.017182E+03	2.229015E-03	1.261630E-04
5.027000E+03	2.244534E-03	1.269422E-04
5.036819E+03	2.260793E-03	1.277615E-04
5.046637E+03	2.277388E-03	1.285978E-04
5.056456E+03	2.293902E-03	1.294276E-04
5.066274E+03	2.311069E-03	1.302923E-04
5.076092E+03	2.328467E-03	1.311679E-04
5.085911E+03	2.345651E-03	1.320294E-04
5.095729E+03	2.363360E-03	1.329183E-04
5.105547E+03	2.381138E-03	1.338089E-04
5.115366E+03	2.398516E-03	1.346748E-04
5.125184E+03	2.416228E-03	1.355573E-04
5.135002E+03	2.433381E-03	1.364060E-04
5.144821E+03	2.450710E-03	1.372624E-04
5.154639E+03	2.467716E-03	1.380984E-04
5.164458E+03	2.483887E-03	1.388853E-04
5.174276E+03	2.499964E-03	1.396647E-04
5.184094E+03	2.515008E-03	1.403841E-04
5.193913E+03	2.529769E-03	1.410856E-04
5.203731E+03	2.543302E-03	1.417164E-04
5.213549E+03	2.556372E-03	1.423192E-04
5.223368E+03	2.568034E-03	1.428416E-04
5.233186E+03	2.579072E-03	1.433273E-04
5.243004E+03	2.588982E-03	1.437484E-04
5.252823E+03	2.597262E-03	1.440771E-04
5.262641E+03	2.604734E-03	1.443593E-04
5.272459E+03	2.610473E-03	1.445438E-04
5.282278E+03	2.615327E-03	1.446778E-04
5.292096E+03	2.618389E-03	1.447113E-04
5.301915E+03	2.620529E-03	1.446926E-04
5.311733E+03	2.620858E-03	1.445727E-04
5.321551E+03	2.620264E-03	1.444009E-04
5.331370E+03	2.617874E-03	1.441293E-04
5.341188E+03	2.614151E-03	1.437836E-04
5.351006E+03	2.609559E-03	1.433894E-04
5.360825E+03	2.603246E-03	1.429002E-04
5.370643E+03	2.596121E-03	1.423661E-04
5.380461E+03	2.587340E-03	1.417410E-04
5.390280E+03	2.577811E-03	1.410748E-04
5.400098E+03	2.566695E-03	1.403218E-04
5.409917E+03	2.554890E-03	1.395313E-04
5.419735E+03	2.541563E-03	1.386580E-04
5.429553E+03	2.527171E-03	1.377271E-04
5.439372E+03	2.512165E-03	1.367632E-04
5.449190E+03	2.495718E-03	1.357216E-04
5.459008E+03	2.478695E-03	1.346495E-04
5.468827E+03	2.460283E-03	1.335028E-04
5.478645E+03	2.440925E-03	1.323060E-04
5.488463E+03	2.421058E-03	1.310827E-04
5.498282E+03	2.399894E-03	1.297906E-04
5.508100E+03	2.377885E-03	1.284542E-04
5.517919E+03	2.355473E-03	1.270976E-04
5.527737E+03	2.331916E-03	1.256809E-04
5.537555E+03	2.307681E-03	1.242295E-04
5.547374E+03	2.283227E-03	1.227682E-04
5.557192E+03	2.257867E-03	1.212603E-04
5.567010E+03	2.232086E-03	1.197318E-04
5.576829E+03	2.206360E-03	1.182085E-04
5.586647E+03	2.180056E-03	1.166565E-04
5.596465E+03	2.153667E-03	1.151023E-04
5.606284E+03	2.127677E-03	1.135717E-04
5.616102E+03	2.101490E-03	1.120330E-04
5.625920E+03	2.075598E-03	1.105124E-04
5.635739E+03	2.050125E-03	1.090165E-04
5.645557E+03	2.025532E-03	1.075697E-04
5.655376E+03	2.001249E-03	1.061417E-04
5.665194E+03	1.977730E-03	1.047564E-04
5.675012E+03	1.955074E-03	1.034190E-04
5.684831E+03	1.933694E-03	1.021512E-04
5.694649E+03	1.913013E-03	1.009222E-04
5.704467E+03	1.893427E-03	9.975282E-05
5.714286E+03	1.874988E-03	9.864556E-05
5.724104E+03	1.858050E-03	9.761883E-05
5.733922E+03	1.842015E-03	9.664089E-05
5.743741E+03	1.827214E-03	9.572900E-05
5.753559E+03	1.813654E-03	9.488324E-05
5.763378E+03	1.801333E-03	9.410324E-05
5.773196E+03	1.790540E-03	9.340378E-05
5.783014E+03	1.780652E-03	9.275211E-05
5.792833E+03	1.771948E-03	9.216252E-05
5.802651E+03	1.764396E-03	9.163320E-05
5.812469E+03	1.757967E-03	9.116225E-05
5.822288E+03	1.752629E-03	9.074782E-05
5.832106E+03	1.748643E-03	9.040321E-05
5.841924E+03	1.745394E-03	9.009627E-05
5.851743E+03	1.743153E-03	8.984080E-05
5.861561E+03	1.741902E-03	8.963574E-05
5.871379E+03	1.741632E-03	8.948029E-05
5.881198E+03	1.742345E-03	8.937434E-05
5.891016E+03	1.744049E-03	8.931808E-05
5.900835E+03	1.747062E-03	8.932750E-05
5.910653E+03	1.750830E-03	8.937399E-05
5.920471E+03	1.755691E-03	8.947466E-05
5.930290E+03	1.761707E-03	8.963225E-05
5.940108E+03	1.768946E-03	8.985000E-05
5.949926E+03	1.777490E-03	9.013175E-05
5.959745E+03	1.787430E-03	9.048171E-05
5.969563E+03	1.798866E-03	9.090461E-05
5.979381E+03	1.811905E-03	9.140542E-05
5.989200E+03	1.826657E-03	9.198928E-05
5.999018E+03	1.843238E-03	9.266147E-05
6.008837E+03	1.861759E-03	9.342715E-05
6.018655E+03	1.882332E-03	9.429131E-05
6.028473E+03	1.905060E-03	9.525854E-05
6.038292E+03	1.930359E-03	9.634904E-05
6.048110E+03	1.957665E-03	9.753398E-05
6.057928E+03	1.987361E-03	9.883175E-05
6.067747E+03	2.019485E-03	1.002436E-04
6.077565E+03	2.054047E-03	1.017693E-04
6.087383E+03	2.091028E-03	1.034072E-04
6.097202E+03	2.130371E-03	1.051537E-04
6.107020E+03	2.171974E-03	1.070032E-04
6.116838E+03	2.215693E-03	1.089479E-04
6.126657E+03	2.261331E-03	1.109773E-04
6.136475E+03	2.308634E-03	1.130785E-04
6.146294E+03	2.357294E-03	1.152359E-04
6.156112E+03	2.406539E-03	1.174114E-04
6.165930E+03	2.456745E-03	1.196231E-04
6.175749E+03	2.507036E-03	1.218280E-04
6.185567E+03	2.556884E-03	1.240005E-04
6.195385E+03	2.605722E-03	1.261132E-04
6.205204E+03	2.652949E-03	1.281373E-04
6.215022E+03	2.697951E-03	1.300437E-04
6.224840E+03	2.740114E-03	1.318034E-04
6.234659E+03	2.778845E-03	1.333888E-04
6.244477E+03	2.813587E-03	1.347742E-04
6.254296E+03	2.843842E-03	1.359369E-04
6.264114E+03	2.869193E-03	1.368585E-04
6.273932E+03	2.889316E-03	1.375249E-04
6.283751E+03	2.903999E-03	1.379277E-04
6.293569E+03	2.913148E-03	1.380641E-04
6.303387E+03	2.916308E-03	1.379143E-04
6.313206E+03	2.914620E-03	1.375340E-04
6.323024E+03	2.907876E-03	1.369148E-04
6.332842E+03	2.896467E-03	1.360769E-04
6.342661E+03	2.880884E-03	1.350446E-04
6.352479E+03	2.861689E-03	1.338457E-04
6.362297E+03	2.839502E-03	1.325101E-04
6.372116E+03	2.814971E-03	1.310691E-04
6.381934E+03	2.788282E-03	1.295320E-04
6.391753E+03	2.761008E-03	1.279724E-04
6.401571E+03	2.733262E-03	1.263957E-04
6.411389E+03	2.705562E-03	1.248259E-04
6.421208E+03	2.678272E-03	1.232799E-04
6.431026E+03	2.651577E-03	1.217659E-04
6.440844E+03	2.625138E-03	1.202683E-04
6.450663E+03	2.599879E-03	1.188292E-04
6.460481E+03	2.575343E-03	1.174275E-04
6.470299E+03	2.551476E-03	1.160603E-04
6.480118E+03	2.528198E-03	1.147240E-04
6.489936E+03	2.504980E-03	1.133943E-04
6.499755E+03	2.482550E-03	1.121042E-04
6.509573E+03	2.460355E-03	1.108284E-04
6.519391E+03	2.438259E-03	1.095609E-04
6.529210E+03	2.416134E-03	1.082958E-04
6.539028E+03	2.393443E-03	1.070091E-04
6.548846E+03	2.370876E-03	1.057319E-04
6.558665E+03	2.347913E-03	1.044410E-04
6.568483E+03	2.324455E-03	1.031321E-04
6.578301E+03	2.300028E-03	1.017844E-04
6.588120E+03	2.275341E-03	1.004297E-04
6.597938E+03	2.249949E-03	9.904843E-05
6.607757E+03	2.223815E-03	9.763925E-05
6.617575E+03	2.196550E-03	9.618543E-05
6.627393E+03	2.168899E-03	9.471994E-05
6.637212E+03	2.140505E-03	9.322737E-05
6.647030E+03	2.111402E-03	9.170953E-05
6.656848E+03	2.081292E-03	9.015375E-05
6.666667E+03	2.050948E-03	8.859390E-05
6.676485E+03	2.020098E-03	8.701836E-05
6.686303E+03	1.988838E-03	8.543153E-05
6.696122E+03	1.956951E-03	8.382421E-05
6.705940E+03	1.925221E-03	8.223027E-05
6.715758E+03	1.893446E-03	8.064100E-05
6.725577E+03	1.861450E-03	7.904908E-05
6.735395E+03	1.830009E-03	7.748750E-05
6.745214E+03	1.798952E-03	7.594886E-05
6.755032E+03	1.768130E-03	7.442678E-05
6.764850E+03	1.738289E-03	7.295259E-05
6.774669E+03	1.709268E-03	7.151919E-05
6.784487E+03	1.680922E-03	7.012026E-05
6.794305E+03	1.653947E-03	6.878462E-05
6.804124E+03	1.628176E-03	6.750479E-05
6.813942E+03	1.603444E-03	6.627359E-05
6.823760E+03	1.580392E-03	6.511706E-05
6.833579E+03	1.558828E-03	6.402673E-05
6.843397E+03	1.538563E-03	6.299431E-05
6.853216E+03	1.520177E-03	6.204297E-05
6.863034E+03	1.503451E-03	6.116315E-05
6.872852E+03	1.488169E-03	6.034546E-05
6.882671E+03	1.474857E-03	5.961063E-05
6.892489E+03	1.463028E-03	5.893830E-05
6.902307E+03	1.453183E-03	5.834802E-05
6.912126E+03	1.445070E-03	5.782891E-05
6.921944E+03	1.438438E-03	5.737032E-05
6.931762E+03	1.433759E-03	5.699041E-05
6.941581E+03	1.430771E-03	5.667809E-05
6.951399E+03	1.429214E-03	5.642235E-05
6.961217E+03	1.429546E-03	5.624070E-05
6.971036E+03	1.431261E-03	5.611253E-05
6.980854E+03	1.434815E-03	5.605514E-05
6.990673E+03	1.439701E-03	5.604798E-05
7.000491E+03	1.446377E-03	5.610831E-05
7.010309E+03	1.454573E-03	5.622499E-05
7.020128E+03	1.464015E-03	5.638686E-05
7.029946E+03	1.475166E-03	5.661115E-05
7.039764E+03	1.487498E-03	5.687693E-05
7.049583E+03	1.501473E-03	5.720143E-05
7.059401E+03	1.516545E-03	5.756316E-05
7.069219E+03	1.533175E-03	5.797915E-05
7.079038E+03	1.551052E-03	5.843704E-05
7.088856E+03	1.569842E-03	5.892376E-05
7.098675E+03	1.589988E-03	5.945556E-05
7.108493E+03	1.610861E-03	6.000842E-05
7.118311E+03	1.632884E-03	6.059775E-05
7.128130E+03	1.655371E-03	6.119780E-05
7.137948E+03	1.678721E-03	6.182302E-05
7.147766E+03	1.702187E-03	6.244569E-05
7.157585E+03	1.726131E-03	6.307907E-05
7.167403E+03	1.749738E-03	6.369334E-05
7.177221E+03	1.773337E-03	6.430058E-05
7.187040E+03	1.796045E-03	6.486900E-05
7.196858E+03	1.818161E-03	6.540976E-05
7.206676E+03	1.838748E-03	6.588962E-05
7.216495E+03	1.858087E-03	6.631932E-05
7.226313E+03	1.875210E-03	6.666507E-05
7.236132E+03	1.890406E-03	6.693814E-05
7.245950E+03	1.902712E-03	6.710541E-05
7.255768E+03	1.912460E-03	6.717993E-05
7.265587E+03	1.918730E-03	6.713061E-05
7.275405E+03	1.921935E-03	6.697346E-05
7.285223E+03	1.921247E-03	6.668103E-05
7.295042E+03	1.916866E-03	6.626203E-05
7.304860E+03	1.909059E-03	6.572729E-05
7.314678E+03	1.897194E-03	6.505655E-05
7.324497E+03	1.881995E-03	6.427638E-05
7.334315E+03	1.862976E-03	6.337166E-05
7.344134E+03	1.840986E-03	6.237280E-05
7.353952E+03	1.815674E-03	6.126919E-05
7.363770E+03	1.787981E-03	6.009387E-05
7.373589E+03	1.757660E-03	5.883961E-05
7.383407E+03	1.725412E-03	5.753076E-05
7.393225E+03	1.691928E-03	5.619115E-05
7.403044E+03	1.657045E-03	5.481582E-05
7.412862E+03	1.621737E-03	5.343742E-05
7.422680E+03	1.585843E-03	5.205081E-05
7.432499E+03	1.550016E-03	5.067755E-05
7.442317E+03	1.514858E-03	4.933717E-05
7.452135E+03	1.480160E-03	4.802265E-05
7.461954E+03	1.446707E-03	4.675913E-05
7.471772E+03	1.414244E-03	4.553785E-05
7.481591E+03	1.383224E-03	4.437297E-05
7.491409E+03	1.354043E-03	4.327659E-05
7.501227E+03	1.326370E-03	4.223746E-05
7.511046E+03	1.300538E-03	4.126559E-05
7.520864E+03	1.276836E-03	4.036939E-05
7.530682E+03	1.254869E-03	3.953573E-05
7.540501E+03	1.235087E-03	3.877810E-05
7.550319E+03	1.217067E-03	3.808252E-05
7.560137E+03	1.201002E-03	3.745447E-05
7.569956E+03	1.187058E-03	3.689844E-05
7.579774E+03	1.174781E-03	3.639977E-05
7.589593E+03	1.164315E-03	3.596237E-05
7.599411E+03	1.155785E-03	3.558963E-05
7.609229E+03	1.148718E-03	3.526650E-05
7.619048E+03	1.143225E-03	3.499603E-05
