#wls	flux	fluxerr
1.570938E+03	1.514799E-04	1.106591E-05
1.610211E+03	1.535044E-04	1.119519E-05
1.649485E+03	1.556061E-04	1.132914E-05
1.688758E+03	1.577327E-04	1.146390E-05
1.728031E+03	1.599418E-04	1.160360E-05
1.767305E+03	1.621679E-04	1.174346E-05
1.806578E+03	1.644558E-04	1.188666E-05
1.845852E+03	1.667590E-04	1.202981E-05
1.885125E+03	1.690577E-04	1.217142E-05
1.924399E+03	1.713067E-04	1.230825E-05
1.963672E+03	1.735770E-04	1.244536E-05
2.002946E+03	1.759031E-04	1.258518E-05
2.042219E+03	1.784367E-04	1.273849E-05
2.081492E+03	1.814109E-04	1.292176E-05
2.120766E+03	1.850602E-04	1.315140E-05
2.160039E+03	1.895031E-04	1.343544E-05
2.199313E+03	1.946962E-04	1.377035E-05
2.238586E+03	2.005343E-04	1.414827E-05
2.277860E+03	2.068060E-04	1.455391E-05
2.317133E+03	2.134588E-04	1.498329E-05
2.356406E+03	2.204649E-04	1.543415E-05
2.395680E+03	2.278796E-04	1.591010E-05
2.434953E+03	2.356640E-04	1.640810E-05
2.474227E+03	2.439568E-04	1.693746E-05
2.513500E+03	2.527366E-04	1.749633E-05
2.552774E+03	2.621628E-04	1.809530E-05
2.592047E+03	2.722194E-04	1.873276E-05
2.631321E+03	2.830829E-04	1.942032E-05
2.670594E+03	2.947945E-04	2.016016E-05
2.709867E+03	3.073942E-04	2.095433E-05
2.749141E+03	3.210922E-04	2.181638E-05
2.788414E+03	3.359481E-04	2.274946E-05
2.827688E+03	3.520837E-04	2.376086E-05
2.866961E+03	3.696318E-04	2.485845E-05
2.906235E+03	3.887366E-04	2.605072E-05
2.945508E+03	4.095542E-04	2.734679E-05
2.955326E+03	4.149904E-04	2.768446E-05
2.965145E+03	4.206201E-04	2.803428E-05
2.974963E+03	4.263732E-04	2.839153E-05
2.984782E+03	4.321767E-04	2.875134E-05
2.994600E+03	4.381884E-04	2.912417E-05
3.004418E+03	4.443383E-04	2.950534E-05
3.014237E+03	4.506288E-04	2.989498E-05
3.024055E+03	4.570621E-04	3.029320E-05
3.033873E+03	4.635586E-04	3.069469E-05
3.043692E+03	4.702839E-04	3.111042E-05
3.053510E+03	4.771598E-04	3.153514E-05
3.063328E+03	4.841888E-04	3.196900E-05
3.073147E+03	4.912867E-04	3.240642E-05
3.082965E+03	4.986291E-04	3.285895E-05
3.092784E+03	5.061331E-04	3.332107E-05
3.102602E+03	5.138017E-04	3.379295E-05
3.112420E+03	5.215453E-04	3.426867E-05
3.122239E+03	5.295504E-04	3.476045E-05
3.132057E+03	5.377291E-04	3.526247E-05
3.141875E+03	5.460842E-04	3.577489E-05
3.151694E+03	5.546191E-04	3.629787E-05
3.161512E+03	5.632370E-04	3.682506E-05
3.171330E+03	5.721388E-04	3.736955E-05
3.181149E+03	5.812295E-04	3.792509E-05
3.190967E+03	5.905122E-04	3.849184E-05
3.200785E+03	5.998838E-04	3.906304E-05
3.210604E+03	6.095578E-04	3.965255E-05
3.220422E+03	6.194328E-04	4.025374E-05
3.230241E+03	6.295117E-04	4.086672E-05
3.240059E+03	6.397973E-04	4.149166E-05
3.249877E+03	6.501776E-04	4.212124E-05
3.259696E+03	6.608829E-04	4.277034E-05
3.269514E+03	6.718029E-04	4.343176E-05
3.279332E+03	6.829404E-04	4.410564E-05
3.289151E+03	6.942977E-04	4.479208E-05
3.298969E+03	7.057520E-04	4.548311E-05
3.308787E+03	7.175521E-04	4.619473E-05
3.318606E+03	7.295785E-04	4.691917E-05
3.328424E+03	7.418316E-04	4.765641E-05
3.338243E+03	7.543142E-04	4.840659E-05
3.348061E+03	7.668909E-04	4.916097E-05
3.357879E+03	7.798312E-04	4.993678E-05
3.367698E+03	7.930034E-04	5.072552E-05
3.377516E+03	8.064074E-04	5.152713E-05
3.387334E+03	8.200434E-04	5.234158E-05
3.397153E+03	8.337644E-04	5.315944E-05
3.406971E+03	8.478608E-04	5.399917E-05
3.416789E+03	8.621874E-04	5.485147E-05
3.426608E+03	8.767428E-04	5.571619E-05
3.436426E+03	8.915247E-04	5.659314E-05
3.446244E+03	9.063712E-04	5.747199E-05
3.456063E+03	9.215969E-04	5.837266E-05
3.465881E+03	9.370410E-04	5.928490E-05
3.475700E+03	9.526995E-04	6.020839E-05
3.485518E+03	9.685686E-04	6.114285E-05
3.495336E+03	9.846427E-04	6.208789E-05
3.505155E+03	1.000740E-03	6.303202E-05
3.514973E+03	1.017205E-03	6.399682E-05
3.524791E+03	1.033856E-03	6.497095E-05
3.534610E+03	1.050687E-03	6.595384E-05
3.544428E+03	1.067688E-03	6.694492E-05
3.554246E+03	1.084661E-03	6.793171E-05
3.564065E+03	1.101974E-03	6.893726E-05
3.573883E+03	1.119428E-03	6.994906E-05
3.583702E+03	1.137015E-03	7.096651E-05
3.593520E+03	1.154719E-03	7.198872E-05
3.603338E+03	1.172531E-03	7.301493E-05
3.613157E+03	1.190225E-03	7.403122E-05
3.622975E+03	1.208204E-03	7.506260E-05
3.632793E+03	1.226247E-03	7.609521E-05
3.642612E+03	1.244337E-03	7.712815E-05
3.652430E+03	1.262458E-03	7.816028E-05
3.662248E+03	1.280368E-03	7.917665E-05
3.672067E+03	1.298495E-03	8.020380E-05
3.681885E+03	1.316598E-03	8.122682E-05
3.691703E+03	1.334658E-03	8.224450E-05
3.701522E+03	1.352655E-03	8.325564E-05
3.711340E+03	1.370327E-03	8.424413E-05
3.721159E+03	1.388132E-03	8.523818E-05
3.730977E+03	1.405809E-03	8.622180E-05
3.740795E+03	1.423336E-03	8.719368E-05
3.750614E+03	1.440691E-03	8.815243E-05
3.760432E+03	1.457851E-03	8.909673E-05
3.770250E+03	1.474534E-03	9.000940E-05
3.780069E+03	1.491231E-03	9.092053E-05
3.789887E+03	1.507663E-03	9.181310E-05
3.799705E+03	1.523808E-03	9.268580E-05
3.809524E+03	1.539642E-03	9.353733E-05
3.819342E+03	1.554869E-03	9.434978E-05
3.829161E+03	1.570012E-03	9.515492E-05
3.838979E+03	1.584777E-03	9.593510E-05
3.848797E+03	1.599146E-03	9.668920E-05
3.858616E+03	1.613099E-03	9.741612E-05
3.868434E+03	1.626331E-03	9.809770E-05
3.878252E+03	1.639394E-03	9.876721E-05
3.888071E+03	1.651990E-03	9.940681E-05
3.897889E+03	1.664104E-03	1.000157E-04
3.907707E+03	1.675724E-03	1.005934E-04
3.917526E+03	1.686545E-03	1.011215E-04
3.927344E+03	1.697147E-03	1.016352E-04
3.937162E+03	1.707230E-03	1.021164E-04
3.946981E+03	1.716792E-03	1.025652E-04
3.956799E+03	1.725831E-03	1.029815E-04
3.966618E+03	1.734045E-03	1.033476E-04
3.976436E+03	1.742042E-03	1.036997E-04
3.986254E+03	1.749527E-03	1.040205E-04
3.996073E+03	1.756510E-03	1.043105E-04
4.005891E+03	1.762692E-03	1.045523E-04
4.015709E+03	1.768704E-03	1.047834E-04
4.025528E+03	1.774254E-03	1.049865E-04
4.035346E+03	1.779362E-03	1.051629E-04
4.045164E+03	1.784045E-03	1.053139E-04
4.054983E+03	1.788017E-03	1.054224E-04
4.064801E+03	1.791923E-03	1.055268E-04
4.074620E+03	1.795478E-03	1.056104E-04
4.084438E+03	1.798708E-03	1.056746E-04
4.094256E+03	1.801327E-03	1.057028E-04
4.104075E+03	1.803989E-03	1.057335E-04
4.113893E+03	1.806411E-03	1.057501E-04
4.123711E+03	1.808620E-03	1.057543E-04
4.133530E+03	1.810328E-03	1.057293E-04
4.143348E+03	1.812195E-03	1.057138E-04
4.153166E+03	1.813934E-03	1.056908E-04
4.162985E+03	1.815568E-03	1.056620E-04
4.172803E+03	1.816807E-03	1.056103E-04
4.182622E+03	1.818309E-03	1.055742E-04
4.192440E+03	1.819776E-03	1.055363E-04
4.202258E+03	1.821230E-03	1.054979E-04
4.212077E+03	1.822372E-03	1.054416E-04
4.221895E+03	1.823850E-03	1.054052E-04
4.231713E+03	1.825363E-03	1.053709E-04
4.241532E+03	1.826919E-03	1.053395E-04
4.251350E+03	1.828209E-03	1.052931E-04
4.261168E+03	1.829875E-03	1.052687E-04
4.270987E+03	1.831601E-03	1.052480E-04
4.280805E+03	1.833389E-03	1.052312E-04
4.290623E+03	1.834918E-03	1.051998E-04
4.300442E+03	1.836821E-03	1.051903E-04
4.310260E+03	1.838778E-03	1.051841E-04
4.320079E+03	1.840460E-03	1.051626E-04
4.329897E+03	1.842501E-03	1.051620E-04
4.339715E+03	1.844575E-03	1.051636E-04
4.349534E+03	1.846671E-03	1.051667E-04
4.359352E+03	1.848456E-03	1.051525E-04
4.369170E+03	1.850562E-03	1.051568E-04
4.378989E+03	1.852651E-03	1.051605E-04
4.388807E+03	1.854385E-03	1.051442E-04
4.398625E+03	1.856390E-03	1.051437E-04
4.408444E+03	1.858326E-03	1.051394E-04
4.418262E+03	1.859847E-03	1.051120E-04
4.428081E+03	1.861581E-03	1.050968E-04
4.437899E+03	1.863182E-03	1.050743E-04
4.447717E+03	1.864305E-03	1.050252E-04
4.457536E+03	1.865578E-03	1.049848E-04
4.467354E+03	1.866657E-03	1.049337E-04
4.477172E+03	1.867198E-03	1.048527E-04
4.486991E+03	1.867835E-03	1.047773E-04
4.496809E+03	1.868227E-03	1.046885E-04
4.506627E+03	1.868040E-03	1.045675E-04
4.516446E+03	1.867912E-03	1.044502E-04
4.526264E+03	1.867516E-03	1.043182E-04
4.536082E+03	1.866524E-03	1.041534E-04
4.545901E+03	1.865589E-03	1.039920E-04
4.555719E+03	1.864392E-03	1.038165E-04
4.565538E+03	1.862621E-03	1.036094E-04
4.575356E+03	1.860940E-03	1.034077E-04
4.585174E+03	1.858721E-03	1.031766E-04
4.594993E+03	1.856635E-03	1.029533E-04
4.604811E+03	1.854387E-03	1.027214E-04
4.614629E+03	1.851687E-03	1.024650E-04
4.624448E+03	1.849214E-03	1.022215E-04
4.634266E+03	1.846684E-03	1.019753E-04
4.644084E+03	1.843818E-03	1.017110E-04
4.653903E+03	1.841298E-03	1.014662E-04
4.663721E+03	1.838529E-03	1.012081E-04
4.673540E+03	1.836193E-03	1.009741E-04
4.683358E+03	1.834015E-03	1.007492E-04
4.693176E+03	1.831721E-03	1.005182E-04
4.702995E+03	1.829990E-03	1.003184E-04
4.712813E+03	1.828227E-03	1.001170E-04
4.722631E+03	1.827107E-03	9.995100E-05
4.732450E+03	1.826031E-03	9.978752E-05
4.742268E+03	1.825668E-03	9.966307E-05
4.752086E+03	1.825730E-03	9.956184E-05
4.761905E+03	1.825932E-03	9.946812E-05
4.771723E+03	1.826928E-03	9.941755E-05
4.781541E+03	1.828108E-03	9.937680E-05
4.791360E+03	1.830122E-03	9.938110E-05
4.801178E+03	1.832351E-03	9.939678E-05
4.810997E+03	1.835441E-03	9.945870E-05
4.820815E+03	1.838765E-03	9.953279E-05
4.830633E+03	1.842962E-03	9.965364E-05
4.840452E+03	1.847720E-03	9.980409E-05
4.850270E+03	1.852716E-03	9.996671E-05
4.860088E+03	1.858589E-03	1.001758E-04
4.869907E+03	1.864692E-03	1.003965E-04
4.879725E+03	1.871661E-03	1.006628E-04
4.889543E+03	1.878843E-03	1.009395E-04
4.899362E+03	1.886876E-03	1.012608E-04
4.909180E+03	1.895096E-03	1.015910E-04
4.918999E+03	1.904145E-03	1.019644E-04
4.928817E+03	1.913353E-03	1.023449E-04
4.938635E+03	1.923363E-03	1.027670E-04
4.948454E+03	1.933496E-03	1.031942E-04
4.958272E+03	1.944401E-03	1.036610E-04
4.968090E+03	1.955390E-03	1.041307E-04
4.977909E+03	1.967116E-03	1.046380E-04
4.987727E+03	1.978881E-03	1.051456E-04
4.997545E+03	1.991002E-03	1.056703E-04
5.007364E+03	2.003798E-03	1.062291E-04
5.017182E+03	2.016556E-03	1.067839E-04
5.027000E+03	2.029944E-03	1.073701E-04
5.036819E+03	2.043232E-03	1.079491E-04
5.046637E+03	2.057095E-03	1.085563E-04
5.056456E+03	2.070789E-03	1.091526E-04
5.066274E+03	2.084993E-03	1.097736E-04
5.076092E+03	2.098952E-03	1.103795E-04
5.085911E+03	2.112980E-03	1.109869E-04
5.095729E+03	2.127403E-03	1.116129E-04
5.105547E+03	2.141443E-03	1.122165E-04
5.115366E+03	2.155788E-03	1.128338E-04
5.125184E+03	2.169645E-03	1.134234E-04
5.135002E+03	2.183709E-03	1.140215E-04
5.144821E+03	2.197172E-03	1.145860E-04
5.154639E+03	2.210354E-03	1.151335E-04
5.164458E+03	2.223580E-03	1.156812E-04
5.174276E+03	2.236026E-03	1.161862E-04
5.184094E+03	2.248405E-03	1.166855E-04
5.193913E+03	2.259882E-03	1.171359E-04
5.203731E+03	2.270789E-03	1.175547E-04
5.213549E+03	2.281461E-03	1.179594E-04
5.223368E+03	2.291060E-03	1.183066E-04
5.233186E+03	2.299924E-03	1.186142E-04
5.243004E+03	2.308404E-03	1.189001E-04
5.252823E+03	2.315659E-03	1.191213E-04
5.262641E+03	2.322042E-03	1.192962E-04
5.272459E+03	2.327917E-03	1.194434E-04
5.282278E+03	2.332447E-03	1.195204E-04
5.292096E+03	2.336404E-03	1.195667E-04
5.301915E+03	2.338956E-03	1.195401E-04
5.311733E+03	2.340485E-03	1.194603E-04
5.321551E+03	2.340970E-03	1.193264E-04
5.331370E+03	2.340803E-03	1.191585E-04
5.341188E+03	2.339164E-03	1.189152E-04
5.351006E+03	2.336452E-03	1.186169E-04
5.360825E+03	2.333066E-03	1.182841E-04
5.370643E+03	2.328200E-03	1.178763E-04
5.380461E+03	2.322266E-03	1.174144E-04
5.390280E+03	2.315673E-03	1.169194E-04
5.400098E+03	2.307639E-03	1.163520E-04
5.409917E+03	2.298591E-03	1.157339E-04
5.419735E+03	2.288953E-03	1.150868E-04
5.429553E+03	2.277972E-03	1.143730E-04
5.439372E+03	2.266082E-03	1.136145E-04
5.449190E+03	2.253326E-03	1.128135E-04
5.459008E+03	2.240131E-03	1.119918E-04
5.468827E+03	2.225770E-03	1.111132E-04
5.478645E+03	2.210680E-03	1.101995E-04
5.488463E+03	2.194909E-03	1.092535E-04
5.498282E+03	2.178888E-03	1.082967E-04
5.508100E+03	2.161916E-03	1.072944E-04
5.517919E+03	2.144430E-03	1.062684E-04
5.527737E+03	2.126489E-03	1.052218E-04
5.537555E+03	2.108521E-03	1.041759E-04
5.547374E+03	2.089860E-03	1.030979E-04
5.557192E+03	2.070941E-03	1.020092E-04
5.567010E+03	2.051834E-03	1.009135E-04
5.576829E+03	2.032608E-03	9.981427E-05
5.586647E+03	2.013685E-03	9.873212E-05
5.596465E+03	1.994441E-03	9.763653E-05
5.606284E+03	1.975299E-03	9.654822E-05
5.616102E+03	1.956332E-03	9.547078E-05
5.625920E+03	1.937945E-03	9.442394E-05
5.635739E+03	1.919538E-03	9.337835E-05
5.645557E+03	1.901516E-03	9.235377E-05
5.655376E+03	1.883945E-03	9.135321E-05
5.665194E+03	1.866883E-03	9.037955E-05
5.675012E+03	1.850391E-03	8.943549E-05
5.684831E+03	1.834835E-03	8.853869E-05
5.694649E+03	1.819632E-03	8.766074E-05
5.704467E+03	1.805142E-03	8.681901E-05
5.714286E+03	1.791406E-03	8.601522E-05
5.724104E+03	1.778456E-03	8.525084E-05
5.733922E+03	1.766324E-03	8.452708E-05
5.743741E+03	1.755335E-03	8.385943E-05
5.753559E+03	1.744903E-03	8.321962E-05
5.763378E+03	1.735351E-03	8.262284E-05
5.773196E+03	1.726690E-03	8.206953E-05
5.783014E+03	1.718932E-03	8.155996E-05
5.792833E+03	1.712083E-03	8.109426E-05
5.802651E+03	1.706151E-03	8.067257E-05
5.812469E+03	1.701140E-03	8.029489E-05
5.822288E+03	1.697347E-03	7.997490E-05
5.832106E+03	1.694190E-03	7.968508E-05
5.841924E+03	1.691968E-03	7.943921E-05
5.851743E+03	1.690687E-03	7.923738E-05
5.861561E+03	1.690354E-03	7.907966E-05
5.871379E+03	1.690979E-03	7.896635E-05
5.881198E+03	1.692575E-03	7.889773E-05
5.891016E+03	1.695156E-03	7.887431E-05
5.900835E+03	1.698740E-03	7.889658E-05
5.910653E+03	1.703348E-03	7.896534E-05
5.920471E+03	1.709296E-03	7.909493E-05
5.930290E+03	1.716026E-03	7.925921E-05
5.940108E+03	1.723857E-03	7.947271E-05
5.949926E+03	1.732818E-03	7.973653E-05
5.959745E+03	1.742943E-03	8.005187E-05
5.969563E+03	1.754262E-03	8.041982E-05
5.979381E+03	1.766804E-03	8.084145E-05
5.989200E+03	1.780601E-03	8.131784E-05
5.999018E+03	1.795677E-03	8.184980E-05
6.008837E+03	1.812054E-03	8.243798E-05
6.018655E+03	1.829749E-03	8.308282E-05
6.028473E+03	1.848770E-03	8.378435E-05
6.038292E+03	1.869117E-03	8.454220E-05
6.048110E+03	1.890781E-03	8.535560E-05
6.057928E+03	1.913738E-03	8.622320E-05
6.067747E+03	1.937954E-03	8.714305E-05
6.077565E+03	1.963375E-03	8.811243E-05
6.087383E+03	1.989935E-03	8.912804E-05
6.097202E+03	2.017546E-03	9.018565E-05
6.107020E+03	2.046103E-03	9.128036E-05
6.116838E+03	2.075480E-03	9.240624E-05
6.126657E+03	2.105530E-03	9.355660E-05
6.136475E+03	2.136087E-03	9.472388E-05
6.146294E+03	2.166967E-03	9.589976E-05
6.156112E+03	2.197962E-03	9.707505E-05
6.165930E+03	2.228852E-03	9.824004E-05
6.175749E+03	2.259403E-03	9.938439E-05
6.185567E+03	2.289366E-03	1.004974E-04
6.195385E+03	2.318490E-03	1.015681E-04
6.205204E+03	2.346518E-03	1.025855E-04
6.215022E+03	2.373198E-03	1.035391E-04
6.224840E+03	2.398283E-03	1.044183E-04
6.234659E+03	2.421542E-03	1.052137E-04
6.244477E+03	2.442763E-03	1.059165E-04
6.254296E+03	2.461756E-03	1.065191E-04
6.264114E+03	2.478362E-03	1.070153E-04
6.273932E+03	2.492453E-03	1.074001E-04
6.283751E+03	2.503940E-03	1.076705E-04
6.293569E+03	2.512768E-03	1.078248E-04
6.303387E+03	2.518923E-03	1.078632E-04
6.313206E+03	2.522433E-03	1.077876E-04
6.323024E+03	2.522921E-03	1.075827E-04
6.332842E+03	2.521351E-03	1.072903E-04
6.342661E+03	2.517412E-03	1.068978E-04
6.352479E+03	2.511255E-03	1.064122E-04
6.362297E+03	2.503045E-03	1.058411E-04
6.372116E+03	2.492963E-03	1.051927E-04
6.381934E+03	2.481197E-03	1.044753E-04
6.391753E+03	2.467935E-03	1.036973E-04
6.401571E+03	2.453366E-03	1.028669E-04
6.411389E+03	2.437665E-03	1.019919E-04
6.421208E+03	2.420997E-03	1.010793E-04
6.431026E+03	2.403093E-03	1.001182E-04
6.440844E+03	2.384914E-03	9.914889E-05
6.450663E+03	2.366150E-03	9.815854E-05
6.460481E+03	2.346897E-03	9.715122E-05
6.470299E+03	2.327228E-03	9.613007E-05
6.480118E+03	2.307199E-03	9.509753E-05
6.489936E+03	2.286855E-03	9.405546E-05
6.499755E+03	2.266221E-03	9.300504E-05
6.509573E+03	2.244929E-03	9.193121E-05
6.519391E+03	2.223764E-03	9.086621E-05
6.529210E+03	2.202336E-03	8.979411E-05
6.539028E+03	2.180641E-03	8.871479E-05
6.548846E+03	2.158673E-03	8.762805E-05
6.558665E+03	2.136421E-03	8.653359E-05
6.568483E+03	2.113882E-03	8.543125E-05
6.578301E+03	2.090687E-03	8.430629E-05
6.588120E+03	2.067561E-03	8.318802E-05
6.597938E+03	2.044142E-03	8.206189E-05
6.607757E+03	2.020437E-03	8.092828E-05
6.617575E+03	1.996461E-03	7.978783E-05
6.627393E+03	1.972234E-03	7.864143E-05
6.637212E+03	1.947447E-03	7.747686E-05
6.647030E+03	1.922810E-03	7.632240E-05
6.656848E+03	1.898022E-03	7.516620E-05
6.666667E+03	1.873131E-03	7.401009E-05
6.676485E+03	1.848189E-03	7.285622E-05
6.686303E+03	1.822939E-03	7.169451E-05
6.696122E+03	1.798077E-03	7.055231E-05
6.705940E+03	1.773352E-03	6.941972E-05
6.715758E+03	1.748832E-03	6.829938E-05
6.725577E+03	1.724592E-03	6.719414E-05
6.735395E+03	1.700411E-03	6.609534E-05
6.745214E+03	1.676955E-03	6.502881E-05
6.755032E+03	1.654000E-03	6.398570E-05
6.764850E+03	1.631619E-03	6.296870E-05
6.774669E+03	1.609883E-03	6.198041E-05
6.784487E+03	1.588588E-03	6.101278E-05
6.794305E+03	1.568348E-03	6.008926E-05
6.804124E+03	1.548947E-03	5.920130E-05
6.813942E+03	1.530441E-03	5.835083E-05
6.823760E+03	1.512621E-03	5.752967E-05
6.833579E+03	1.496058E-03	5.675922E-05
6.843397E+03	1.480527E-03	5.603072E-05
6.853216E+03	1.466064E-03	5.534522E-05
6.863034E+03	1.452699E-03	5.470355E-05
6.872852E+03	1.440208E-03	5.409700E-05
6.882671E+03	1.429109E-03	5.354473E-05
6.892489E+03	1.419163E-03	5.303748E-05
6.902307E+03	1.410383E-03	5.257533E-05
6.912126E+03	1.402528E-03	5.214908E-05
6.921944E+03	1.396086E-03	5.177649E-05
6.931762E+03	1.390807E-03	5.144804E-05
6.941581E+03	1.386447E-03	5.115428E-05
6.951399E+03	1.383471E-03	5.091217E-05
6.961217E+03	1.381626E-03	5.071198E-05
6.971036E+03	1.380892E-03	5.055271E-05
6.980854E+03	1.381011E-03	5.042457E-05
6.990673E+03	1.382434E-03	5.034380E-05
7.000491E+03	1.384892E-03	5.030029E-05
7.010309E+03	1.388116E-03	5.028396E-05
7.020128E+03	1.392547E-03	5.031057E-05
7.029946E+03	1.397906E-03	5.036970E-05
7.039764E+03	1.404148E-03	5.045954E-05
7.049583E+03	1.410980E-03	5.056930E-05
7.059401E+03	1.418831E-03	5.071422E-05
7.069219E+03	1.427399E-03	5.088321E-05
7.079038E+03	1.436368E-03	5.106484E-05
7.088856E+03	1.446156E-03	5.127388E-05
7.098675E+03	1.456434E-03	5.149850E-05
7.108493E+03	1.466860E-03	5.172650E-05
7.118311E+03	1.477841E-03	5.197214E-05
7.128130E+03	1.489017E-03	5.222275E-05
7.137948E+03	1.500015E-03	5.246524E-05
7.147766E+03	1.511230E-03	5.271343E-05
7.157585E+03	1.522276E-03	5.295386E-05
7.167403E+03	1.532749E-03	5.317269E-05
7.177221E+03	1.543039E-03	5.338355E-05
7.187040E+03	1.552737E-03	5.357242E-05
7.196858E+03	1.561426E-03	5.372521E-05
7.206676E+03	1.569497E-03	5.385565E-05
7.216495E+03	1.576540E-03	5.394988E-05
7.226313E+03	1.582139E-03	5.399415E-05
7.236132E+03	1.586713E-03	5.400305E-05
7.245950E+03	1.589867E-03	5.396361E-05
7.255768E+03	1.591222E-03	5.386336E-05
7.265587E+03	1.591236E-03	5.371837E-05
7.275405E+03	1.589566E-03	5.351747E-05
7.285223E+03	1.585887E-03	5.325029E-05
7.295042E+03	1.580723E-03	5.293493E-05
7.304860E+03	1.573794E-03	5.256253E-05
7.314678E+03	1.564855E-03	5.212539E-05
7.324497E+03	1.554495E-03	5.164363E-05
7.334315E+03	1.542243E-03	5.110215E-05
7.344134E+03	1.528730E-03	5.052223E-05
7.353952E+03	1.513798E-03	4.989910E-05
7.363770E+03	1.497321E-03	4.922892E-05
7.373589E+03	1.479965E-03	4.853400E-05
7.383407E+03	1.461373E-03	4.780286E-05
7.393225E+03	1.442220E-03	4.705786E-05
7.403044E+03	1.422421E-03	4.629640E-05
7.412862E+03	1.401907E-03	4.551637E-05
7.422680E+03	1.381339E-03	4.473932E-05
7.432499E+03	1.360402E-03	4.395515E-05
7.442317E+03	1.339733E-03	4.318441E-05
7.452135E+03	1.319244E-03	4.242424E-05
7.461954E+03	1.298853E-03	4.167191E-05
7.471772E+03	1.279142E-03	4.094607E-05
7.481591E+03	1.259782E-03	4.023600E-05
7.491409E+03	1.241317E-03	3.955894E-05
7.501227E+03	1.223613E-03	3.891047E-05
7.511046E+03	1.206540E-03	3.828624E-05
7.520864E+03	1.190579E-03	3.770138E-05
7.530682E+03	1.175367E-03	3.714412E-05
7.540501E+03	1.161347E-03	3.662837E-05
7.550319E+03	1.148142E-03	3.614197E-05
7.560137E+03	1.136165E-03	3.569776E-05
7.569956E+03	1.125025E-03	3.528325E-05
7.579774E+03	1.115107E-03	3.491036E-05
7.589593E+03	1.106202E-03	3.457235E-05
7.599411E+03	1.098096E-03	3.426241E-05
7.609229E+03	1.091143E-03	3.399143E-05
7.619048E+03	1.084929E-03	3.374637E-05
