#wls	flux	fluxerr
1.595851E+03	3.617493E-16	1.582646E-17
1.635747E+03	3.579325E-16	1.547396E-17
1.675643E+03	3.550739E-16	1.516363E-17
1.715540E+03	3.535188E-16	1.490862E-17
1.755436E+03	3.536021E-16	1.472088E-17
1.795332E+03	3.556559E-16	1.461146E-17
1.835228E+03	3.599925E-16	1.458980E-17
1.875125E+03	3.668501E-16	1.466159E-17
1.915021E+03	3.761908E-16	1.482106E-17
1.954917E+03	3.873933E-16	1.503975E-17
1.994813E+03	3.983798E-16	1.523490E-17
2.034710E+03	4.042414E-16	1.522198E-17
2.074606E+03	3.975128E-16	1.473333E-17
2.114502E+03	3.749786E-16	1.367433E-17
2.154399E+03	3.427962E-16	1.229457E-17
2.194295E+03	3.091058E-16	1.089905E-17
2.234191E+03	2.792821E-16	9.677311E-18
2.274087E+03	2.594712E-16	8.831935E-18
2.313984E+03	2.547105E-16	8.513217E-18
2.353880E+03	2.691822E-16	8.830764E-18
2.393776E+03	3.074703E-16	9.896550E-18
2.433672E+03	3.751412E-16	1.184189E-17
2.473569E+03	4.837499E-16	1.496932E-17
2.513465E+03	6.550732E-16	1.986226E-17
2.553361E+03	9.089905E-16	2.699299E-17
2.593258E+03	1.211641E-15	3.522145E-17
2.633154E+03	1.453458E-15	4.133904E-17
2.673050E+03	1.608575E-15	4.474056E-17
2.712946E+03	1.807985E-15	4.915066E-17
2.752843E+03	2.189914E-15	5.815730E-17
2.792739E+03	2.807099E-15	7.278486E-17
2.832635E+03	3.634567E-15	9.196081E-17
2.872531E+03	4.670581E-15	1.152517E-16
2.912428E+03	5.982829E-15	1.439027E-16
2.952324E+03	7.495298E-15	1.756309E-16
2.992220E+03	8.715558E-15	1.988504E-16
3.002194E+03	8.900022E-15	2.016937E-16
3.012168E+03	9.025880E-15	2.031641E-16
3.022142E+03	9.094692E-15	2.033238E-16
3.032116E+03	9.111487E-15	2.023109E-16
3.042091E+03	9.084334E-15	2.003271E-16
3.052065E+03	9.024004E-15	1.976286E-16
3.062039E+03	8.941630E-15	1.944728E-16
3.072013E+03	8.848446E-15	1.911123E-16
3.081987E+03	8.754345E-15	1.877643E-16
3.091961E+03	8.667832E-15	1.846103E-16
3.101935E+03	8.595499E-15	1.817866E-16
3.111909E+03	8.541805E-15	1.793803E-16
3.121883E+03	8.509097E-15	1.774322E-16
3.131857E+03	8.497679E-15	1.759396E-16
3.141831E+03	8.505841E-15	1.748579E-16
3.151805E+03	8.530578E-15	1.741174E-16
3.161779E+03	8.567200E-15	1.736161E-16
3.171753E+03	8.610367E-15	1.732415E-16
3.181728E+03	8.653655E-15	1.728629E-16
3.191702E+03	8.691064E-15	1.723612E-16
3.201676E+03	8.716672E-15	1.716227E-16
3.211650E+03	8.725820E-15	1.705615E-16
3.221624E+03	8.714793E-15	1.691126E-16
3.231598E+03	8.682191E-15	1.672578E-16
3.241572E+03	8.628506E-15	1.650157E-16
3.251546E+03	8.556089E-15	1.624396E-16
3.261520E+03	8.469685E-15	1.596269E-16
3.271494E+03	8.375246E-15	1.566947E-16
3.281468E+03	8.279767E-15	1.537759E-16
3.291442E+03	8.191433E-15	1.510220E-16
3.301416E+03	8.118043E-15	1.485726E-16
3.311390E+03	8.068347E-15	1.465806E-16
3.321364E+03	8.050144E-15	1.451770E-16
3.331339E+03	8.071294E-15	1.444902E-16
3.341313E+03	8.138669E-15	1.446269E-16
3.351287E+03	8.258307E-15	1.456756E-16
3.361261E+03	8.435255E-15	1.477048E-16
3.371235E+03	8.673097E-15	1.507552E-16
3.381209E+03	8.973219E-15	1.548283E-16
3.391183E+03	9.334673E-15	1.598850E-16
3.401157E+03	9.752370E-15	1.658169E-16
3.411131E+03	1.021693E-14	1.724461E-16
3.421105E+03	1.071363E-14	1.795102E-16
3.431079E+03	1.122302E-14	1.866757E-16
3.441053E+03	1.172234E-14	1.935644E-16
3.451027E+03	1.218873E-14	1.998067E-16
3.461001E+03	1.260383E-14	2.051181E-16
3.470975E+03	1.295627E-14	2.093346E-16
3.480950E+03	1.324286E-14	2.124288E-16
3.490924E+03	1.346906E-14	2.145121E-16
3.500898E+03	1.364584E-14	2.157798E-16
3.510872E+03	1.378730E-14	2.164713E-16
3.520846E+03	1.390789E-14	2.168246E-16
3.530820E+03	1.401918E-14	2.170262E-16
3.540794E+03	1.412620E-14	2.171567E-16
3.550768E+03	1.422507E-14	2.171585E-16
3.560742E+03	1.430402E-14	2.168558E-16
3.570716E+03	1.434749E-14	2.160205E-16
3.580690E+03	1.434115E-14	2.144495E-16
3.590664E+03	1.428067E-14	2.120931E-16
3.600638E+03	1.417771E-14	2.091398E-16
3.610612E+03	1.405959E-14	2.060017E-16
3.620586E+03	1.396211E-14	2.032038E-16
3.630561E+03	1.392425E-14	2.013027E-16
3.640535E+03	1.398198E-14	2.007973E-16
3.650509E+03	1.416679E-14	2.021088E-16
3.660483E+03	1.450281E-14	2.055430E-16
3.670457E+03	1.500271E-14	2.112361E-16
3.680431E+03	1.566237E-14	2.190855E-16
3.690405E+03	1.645356E-14	2.286560E-16
3.700379E+03	1.731787E-14	2.391064E-16
3.710353E+03	1.816632E-14	2.491977E-16
3.720327E+03	1.889422E-14	2.575084E-16
3.730301E+03	1.940151E-14	2.627165E-16
3.740275E+03	1.960873E-14	2.638113E-16
3.750249E+03	1.947084E-14	2.602689E-16
3.760223E+03	1.898990E-14	2.522053E-16
3.770197E+03	1.821603E-14	2.403688E-16
3.780172E+03	1.723722E-14	2.259868E-16
3.790146E+03	1.616452E-14	2.105556E-16
3.800120E+03	1.511184E-14	1.955714E-16
3.810094E+03	1.417781E-14	1.822955E-16
3.820068E+03	1.343547E-14	1.716296E-16
3.830042E+03	1.293685E-14	1.641851E-16
3.840016E+03	1.271627E-14	1.603328E-16
3.849990E+03	1.279330E-14	1.602485E-16
3.859964E+03	1.318030E-14	1.640119E-16
3.869938E+03	1.388566E-14	1.716506E-16
3.879912E+03	1.490945E-14	1.830870E-16
3.889886E+03	1.623425E-14	1.980312E-16
3.899860E+03	1.781622E-14	2.158788E-16
3.909834E+03	1.957765E-14	2.356326E-16
3.919808E+03	2.140007E-14	2.558332E-16
3.929783E+03	2.313734E-14	2.747317E-16
3.939757E+03	2.464355E-14	2.906285E-16
3.949731E+03	2.580020E-14	3.021926E-16
3.959705E+03	2.654116E-14	3.087398E-16
3.969679E+03	2.687023E-14	3.104148E-16
3.979653E+03	2.685184E-14	3.080561E-16
3.989627E+03	2.658349E-14	3.028582E-16
3.999601E+03	2.617293E-14	2.961000E-16
4.009575E+03	2.571519E-14	2.888833E-16
4.019549E+03	2.528171E-14	2.820165E-16
4.029523E+03	2.491258E-14	2.759381E-16
4.039497E+03	2.462083E-14	2.707767E-16
4.049471E+03	2.439759E-14	2.664177E-16
4.059445E+03	2.421806E-14	2.625767E-16
4.069420E+03	2.405022E-14	2.588999E-16
4.079394E+03	2.386363E-14	2.550596E-16
4.089368E+03	2.363543E-14	2.508187E-16
4.099342E+03	2.335122E-14	2.460356E-16
4.109316E+03	2.300217E-14	2.406314E-16
4.119290E+03	2.258261E-14	2.345626E-16
4.129264E+03	2.208881E-14	2.278070E-16
4.139238E+03	2.152007E-14	2.203739E-16
4.149212E+03	2.087999E-14	2.123164E-16
4.159186E+03	2.018323E-14	2.037978E-16
4.169160E+03	1.946008E-14	1.951333E-16
4.179134E+03	1.875545E-14	1.867750E-16
4.189108E+03	1.812502E-14	1.792690E-16
4.199082E+03	1.762573E-14	1.731587E-16
4.209056E+03	1.730927E-14	1.689221E-16
4.219031E+03	1.721655E-14	1.669204E-16
4.229005E+03	1.737214E-14	1.673487E-16
4.238979E+03	1.778064E-14	1.702072E-16
4.248953E+03	1.842509E-14	1.752923E-16
4.258927E+03	1.926571E-14	1.821915E-16
4.268901E+03	2.023874E-14	1.902784E-16
4.278875E+03	2.125586E-14	1.987133E-16
4.288849E+03	2.221412E-14	2.065406E-16
4.298823E+03	2.301366E-14	2.128540E-16
4.308797E+03	2.356931E-14	2.169008E-16
4.318771E+03	2.382673E-14	2.182236E-16
4.328745E+03	2.377752E-14	2.167895E-16
4.338719E+03	2.344856E-14	2.128824E-16
4.348693E+03	2.288585E-14	2.069507E-16
4.358667E+03	2.214636E-14	1.995292E-16
4.368642E+03	2.128934E-14	1.911623E-16
4.378616E+03	2.037623E-14	1.824027E-16
4.388590E+03	1.947164E-14	1.738227E-16
4.398564E+03	1.864016E-14	1.659879E-16
4.408538E+03	1.793916E-14	1.593950E-16
4.418512E+03	1.741765E-14	1.544641E-16
4.428486E+03	1.711666E-14	1.515439E-16
4.438460E+03	1.706452E-14	1.508715E-16
4.448434E+03	1.727157E-14	1.525269E-16
4.458408E+03	1.773394E-14	1.564682E-16
4.468382E+03	1.843704E-14	1.625616E-16
4.478356E+03	1.935126E-14	1.705447E-16
4.488330E+03	2.042892E-14	1.799981E-16
4.498304E+03	2.160753E-14	1.903746E-16
4.508278E+03	2.281340E-14	2.010288E-16
4.518253E+03	2.396620E-14	2.112570E-16
4.528227E+03	2.498712E-14	2.203672E-16
4.538201E+03	2.581087E-14	2.277839E-16
4.548175E+03	2.639351E-14	2.331173E-16
4.558149E+03	2.671487E-14	2.361840E-16
4.568123E+03	2.677874E-14	2.370104E-16
4.578097E+03	2.660872E-14	2.357963E-16
4.588071E+03	2.623929E-14	2.328380E-16
4.598045E+03	2.570724E-14	2.284520E-16
4.608019E+03	2.504738E-14	2.229389E-16
4.617993E+03	2.428982E-14	2.165585E-16
4.627967E+03	2.345714E-14	2.095047E-16
4.637941E+03	2.256832E-14	2.019405E-16
4.647915E+03	2.164050E-14	1.940137E-16
4.657889E+03	2.069161E-14	1.858801E-16
4.667864E+03	1.974550E-14	1.777507E-16
4.677838E+03	1.883618E-14	1.699295E-16
4.687812E+03	1.800645E-14	1.628035E-16
4.697786E+03	1.730276E-14	1.567959E-16
4.707760E+03	1.676689E-14	1.522913E-16
4.717734E+03	1.643129E-14	1.495934E-16
4.727708E+03	1.632087E-14	1.489404E-16
4.737682E+03	1.645226E-14	1.504974E-16
4.747656E+03	1.682810E-14	1.543029E-16
4.757630E+03	1.743489E-14	1.602475E-16
4.767604E+03	1.824140E-14	1.680571E-16
4.777578E+03	1.919716E-14	1.772769E-16
4.787552E+03	2.023305E-14	1.872749E-16
4.797526E+03	2.126875E-14	1.973087E-16
4.807500E+03	2.222206E-14	2.066118E-16
4.817475E+03	2.302081E-14	2.145037E-16
4.827449E+03	2.361410E-14	2.204977E-16
4.837423E+03	2.398024E-14	2.243760E-16
4.847397E+03	2.412709E-14	2.261976E-16
4.857371E+03	2.408597E-14	2.262431E-16
4.867345E+03	2.390357E-14	2.249405E-16
4.877319E+03	2.363557E-14	2.228070E-16
4.887293E+03	2.333731E-14	2.203606E-16
4.897267E+03	2.305799E-14	2.180651E-16
4.907241E+03	2.283502E-14	2.162757E-16
4.917215E+03	2.268713E-14	2.151723E-16
4.927189E+03	2.260954E-14	2.147123E-16
4.937163E+03	2.257582E-14	2.146469E-16
4.947137E+03	2.254309E-14	2.145690E-16
4.957112E+03	2.245656E-14	2.139567E-16
4.967086E+03	2.226106E-14	2.122822E-16
4.977060E+03	2.191849E-14	2.091797E-16
4.987034E+03	2.141816E-14	2.045449E-16
4.997008E+03	2.078116E-14	1.985775E-16
5.006982E+03	2.005550E-14	1.917362E-16
5.016956E+03	1.930795E-14	1.846609E-16
5.026930E+03	1.860893E-14	1.780270E-16
5.036904E+03	1.802026E-14	1.724290E-16
5.046878E+03	1.758650E-14	1.682958E-16
5.056852E+03	1.733402E-14	1.658819E-16
5.066826E+03	1.727046E-14	1.652614E-16
5.076800E+03	1.738476E-14	1.663290E-16
5.086774E+03	1.764995E-14	1.688263E-16
5.096748E+03	1.802763E-14	1.723850E-16
5.106723E+03	1.847059E-14	1.765530E-16
5.116697E+03	1.892777E-14	1.808416E-16
5.126671E+03	1.935182E-14	1.847986E-16
5.136645E+03	1.970817E-14	1.880949E-16
5.146619E+03	1.997903E-14	1.905625E-16
5.156593E+03	2.016344E-14	1.921944E-16
5.166567E+03	2.027675E-14	1.931397E-16
5.176541E+03	2.034431E-14	1.936424E-16
5.186515E+03	2.039378E-14	1.939677E-16
5.196489E+03	2.044775E-14	1.943323E-16
5.206463E+03	2.052081E-14	1.948761E-16
5.216437E+03	2.061841E-14	1.956521E-16
5.226411E+03	2.073573E-14	1.966157E-16
5.236385E+03	2.086032E-14	1.976504E-16
5.246359E+03	2.097498E-14	1.985950E-16
5.256334E+03	2.106132E-14	1.992778E-16
5.266308E+03	2.110138E-14	1.995315E-16
5.276282E+03	2.108181E-14	1.992328E-16
5.286256E+03	2.099529E-14	1.983155E-16
5.296230E+03	2.084124E-14	1.967771E-16
5.306204E+03	2.062516E-14	1.946717E-16
5.316178E+03	2.035753E-14	1.921005E-16
5.326152E+03	2.005107E-14	1.891852E-16
5.336126E+03	1.971899E-14	1.860514E-16
5.346100E+03	1.937309E-14	1.828116E-16
5.356074E+03	1.902523E-14	1.795780E-16
5.366048E+03	1.868652E-14	1.764562E-16
5.376022E+03	1.836722E-14	1.735435E-16
5.385996E+03	1.807879E-14	1.709489E-16
5.395970E+03	1.783082E-14	1.687642E-16
5.405945E+03	1.762839E-14	1.670377E-16
5.415919E+03	1.747369E-14	1.657909E-16
5.425893E+03	1.736328E-14	1.649923E-16
5.435867E+03	1.728593E-14	1.645355E-16
5.445841E+03	1.722851E-14	1.642950E-16
5.455815E+03	1.717793E-14	1.641454E-16
5.465789E+03	1.712229E-14	1.639712E-16
5.475763E+03	1.705266E-14	1.636850E-16
5.485737E+03	1.696363E-14	1.632319E-16
5.495711E+03	1.685222E-14	1.625801E-16
5.505685E+03	1.671875E-14	1.617291E-16
5.515659E+03	1.656649E-14	1.607073E-16
5.525633E+03	1.639948E-14	1.595503E-16
5.535607E+03	1.622333E-14	1.583101E-16
5.545581E+03	1.604434E-14	1.570456E-16
5.555556E+03	1.586813E-14	1.558102E-16
5.565530E+03	1.569891E-14	1.546439E-16
5.575504E+03	1.554139E-14	1.535924E-16
5.585478E+03	1.539858E-14	1.526853E-16
5.595452E+03	1.527322E-14	1.519499E-16
5.605426E+03	1.516815E-14	1.514152E-16
5.615400E+03	1.508370E-14	1.510855E-16
5.625374E+03	1.501869E-14	1.509498E-16
5.635348E+03	1.497002E-14	1.509781E-16
5.645322E+03	1.493109E-14	1.511044E-16
5.655296E+03	1.489395E-14	1.512479E-16
5.665270E+03	1.485059E-14	1.513267E-16
5.675244E+03	1.479398E-14	1.512674E-16
5.685218E+03	1.471979E-14	1.510235E-16
5.695192E+03	1.462717E-14	1.505838E-16
5.705167E+03	1.451875E-14	1.499730E-16
5.715141E+03	1.440072E-14	1.492531E-16
5.725115E+03	1.428208E-14	1.485162E-16
5.735089E+03	1.417323E-14	1.478704E-16
5.745063E+03	1.408446E-14	1.474242E-16
5.755037E+03	1.402440E-14	1.472700E-16
5.765011E+03	1.399779E-14	1.474603E-16
5.774985E+03	1.400461E-14	1.479979E-16
5.784959E+03	1.403925E-14	1.488267E-16
5.794933E+03	1.409168E-14	1.498425E-16
5.804907E+03	1.414809E-14	1.508994E-16
5.814881E+03	1.419515E-14	1.518554E-16
5.824855E+03	1.422150E-14	1.525873E-16
5.834829E+03	1.422029E-14	1.530196E-16
5.844804E+03	1.419086E-14	1.531426E-16
5.854778E+03	1.413766E-14	1.530018E-16
5.864752E+03	1.406957E-14	1.526917E-16
5.874726E+03	1.399668E-14	1.523210E-16
5.884700E+03	1.392857E-14	1.519939E-16
5.894674E+03	1.387174E-14	1.517823E-16
5.904648E+03	1.382962E-14	1.517253E-16
5.914622E+03	1.380192E-14	1.518211E-16
5.924596E+03	1.378488E-14	1.520301E-16
5.934570E+03	1.377297E-14	1.522922E-16
5.944544E+03	1.376070E-14	1.525476E-16
5.954518E+03	1.374356E-14	1.527464E-16
5.964492E+03	1.372034E-14	1.528754E-16
5.974466E+03	1.369322E-14	1.529588E-16
5.984440E+03	1.366643E-14	1.530441E-16
5.994415E+03	1.364422E-14	1.531798E-16
6.004389E+03	1.362953E-14	1.533999E-16
6.014363E+03	1.362297E-14	1.537126E-16
6.024337E+03	1.362371E-14	1.541095E-16
6.034311E+03	1.362935E-14	1.545650E-16
6.044285E+03	1.363682E-14	1.550452E-16
6.054259E+03	1.364319E-14	1.555176E-16
6.064233E+03	1.364646E-14	1.559600E-16
6.074207E+03	1.364546E-14	1.563594E-16
6.084181E+03	1.364073E-14	1.567224E-16
6.094155E+03	1.363388E-14	1.570680E-16
6.104129E+03	1.362723E-14	1.574235E-16
6.114103E+03	1.362209E-14	1.578050E-16
6.124077E+03	1.361787E-14	1.582065E-16
6.134051E+03	1.360929E-14	1.585675E-16
6.144026E+03	1.358605E-14	1.587679E-16
6.154000E+03	1.353397E-14	1.586406E-16
6.163974E+03	1.343599E-14	1.579828E-16
6.173948E+03	1.327834E-14	1.566274E-16
6.183922E+03	1.305643E-14	1.545138E-16
6.193896E+03	1.277669E-14	1.517110E-16
6.203870E+03	1.245341E-14	1.483820E-16
6.213844E+03	1.210465E-14	1.447361E-16
6.223818E+03	1.174707E-14	1.409684E-16
6.233792E+03	1.139287E-14	1.372229E-16
6.243766E+03	1.104953E-14	1.335888E-16
6.253740E+03	1.072017E-14	1.301037E-16
6.263714E+03	1.040369E-14	1.267548E-16
6.273688E+03	1.009661E-14	1.235000E-16
6.283662E+03	9.794678E-15	1.202870E-16
6.293637E+03	9.496628E-15	1.170998E-16
6.303611E+03	9.207112E-15	1.139955E-16
6.313585E+03	8.937377E-15	1.111140E-16
6.323559E+03	8.706582E-15	1.086966E-16
6.333533E+03	8.542146E-15	1.070922E-16
6.343507E+03	8.476616E-15	1.067205E-16
6.353481E+03	8.543582E-15	1.080212E-16
6.363455E+03	8.777581E-15	1.114541E-16
6.373429E+03	9.213202E-15	1.174870E-16
6.383403E+03	9.883256E-15	1.265734E-16
6.393377E+03	1.081447E-14	1.390957E-16
6.403351E+03	1.202177E-14	1.552904E-16
6.413325E+03	1.350084E-14	1.751479E-16
6.423299E+03	1.521650E-14	1.982557E-16
6.433273E+03	1.709396E-14	2.236751E-16
6.443248E+03	1.901826E-14	2.499229E-16
6.453222E+03	2.084980E-14	2.751639E-16
6.463196E+03	2.244925E-14	2.975351E-16
6.473170E+03	2.370960E-14	3.155718E-16
6.483144E+03	2.458880E-14	3.286531E-16
6.493118E+03	2.511833E-14	3.371362E-16
6.503092E+03	2.538570E-14	3.421401E-16
6.513066E+03	2.548748E-14	3.449266E-16
6.523040E+03	2.548165E-14	3.462546E-16
6.533014E+03	2.537461E-14	3.461925E-16
6.542988E+03	2.514398E-14	3.444161E-16
6.552962E+03	2.476902E-14	3.406192E-16
6.562936E+03	2.424794E-14	3.347529E-16
6.572910E+03	2.360037E-14	3.270658E-16
6.582885E+03	2.286154E-14	3.180279E-16
6.592859E+03	2.206939E-14	3.081548E-16
6.602833E+03	2.125909E-14	2.979318E-16
6.612807E+03	2.045663E-14	2.877225E-16
6.622781E+03	1.968084E-14	2.777945E-16
6.632755E+03	1.894306E-14	2.683138E-16
6.642729E+03	1.824999E-14	2.593823E-16
6.652703E+03	1.760410E-14	2.510424E-16
6.662677E+03	1.700602E-14	2.433112E-16
6.672651E+03	1.645443E-14	2.361773E-16
6.682625E+03	1.594761E-14	2.296235E-16
6.692599E+03	1.548373E-14	2.236304E-16
6.702573E+03	1.506106E-14	2.181794E-16
6.712547E+03	1.467799E-14	2.132533E-16
6.722521E+03	1.433288E-14	2.088344E-16
6.732496E+03	1.402344E-14	2.048942E-16
6.742470E+03	1.374661E-14	2.013931E-16
6.752444E+03	1.349781E-14	1.982682E-16
6.762418E+03	1.327074E-14	1.954307E-16
6.772392E+03	1.305693E-14	1.927584E-16
6.782366E+03	1.284713E-14	1.901162E-16
6.792340E+03	1.263371E-14	1.873923E-16
6.802314E+03	1.241218E-14	1.845196E-16
6.812288E+03	1.218237E-14	1.814959E-16
6.822262E+03	1.194851E-14	1.783838E-16
6.832236E+03	1.171787E-14	1.752925E-16
6.842210E+03	1.149848E-14	1.723435E-16
6.852184E+03	1.129896E-14	1.696676E-16
6.862158E+03	1.112606E-14	1.673689E-16
6.872132E+03	1.098531E-14	1.655332E-16
6.882107E+03	1.087906E-14	1.641989E-16
6.892081E+03	1.080644E-14	1.633560E-16
6.902055E+03	1.076369E-14	1.629500E-16
6.912029E+03	1.074393E-14	1.628790E-16
6.922003E+03	1.073889E-14	1.630188E-16
6.931977E+03	1.074028E-14	1.632442E-16
6.941951E+03	1.074163E-14	1.634577E-16
6.951925E+03	1.073887E-14	1.635969E-16
6.961899E+03	1.073079E-14	1.636436E-16
6.971873E+03	1.071895E-14	1.636212E-16
6.981847E+03	1.070568E-14	1.635656E-16
6.991821E+03	1.069374E-14	1.635188E-16
7.001795E+03	1.068536E-14	1.635154E-16
7.011769E+03	1.068210E-14	1.635794E-16
7.021743E+03	1.068473E-14	1.637232E-16
7.031718E+03	1.069291E-14	1.639416E-16
7.041692E+03	1.070540E-14	1.642160E-16
7.051666E+03	1.071932E-14	1.645029E-16
7.061640E+03	1.073032E-14	1.647351E-16
7.071614E+03	1.073314E-14	1.648323E-16
7.081588E+03	1.072260E-14	1.647149E-16
7.091562E+03	1.069407E-14	1.643120E-16
7.101536E+03	1.064610E-14	1.636014E-16
7.111510E+03	1.057972E-14	1.625993E-16
7.121484E+03	1.049894E-14	1.613674E-16
7.131458E+03	1.040945E-14	1.599940E-16
7.141432E+03	1.031754E-14	1.585758E-16
7.151406E+03	1.022876E-14	1.571990E-16
7.161380E+03	1.014721E-14	1.559268E-16
7.171354E+03	1.007570E-14	1.548030E-16
7.181329E+03	1.001501E-14	1.538399E-16
7.191303E+03	9.964632E-15	1.530299E-16
7.201277E+03	9.923392E-15	1.523556E-16
7.211251E+03	9.889543E-15	1.517902E-16
7.221225E+03	9.862003E-15	1.513176E-16
7.231199E+03	9.840532E-15	1.509343E-16
7.241173E+03	9.825540E-15	1.506469E-16
7.251147E+03	9.817793E-15	1.504675E-16
7.261121E+03	9.818953E-15	1.504217E-16
7.271095E+03	9.830050E-15	1.505257E-16
7.281069E+03	9.851013E-15	1.507784E-16
7.291043E+03	9.880829E-15	1.511646E-16
7.301017E+03	9.917350E-15	1.516516E-16
7.310991E+03	9.957626E-15	1.521947E-16
7.320965E+03	9.998616E-15	1.527477E-16
7.330940E+03	1.003735E-14	1.532656E-16
7.340914E+03	1.007119E-14	1.537089E-16
7.350888E+03	1.009752E-14	1.540380E-16
7.360862E+03	1.011505E-14	1.542339E-16
7.370836E+03	1.012258E-14	1.542791E-16
7.380810E+03	1.011909E-14	1.541585E-16
7.390784E+03	1.010480E-14	1.538763E-16
7.400758E+03	1.007975E-14	1.534337E-16
7.410732E+03	1.004440E-14	1.528384E-16
7.420706E+03	9.999785E-15	1.521068E-16
7.430680E+03	9.947454E-15	1.512628E-16
7.440654E+03	9.890366E-15	1.503519E-16
7.450628E+03	9.831124E-15	1.494140E-16
7.460602E+03	9.773379E-15	1.485041E-16
7.470577E+03	9.720086E-15	1.476668E-16
7.480551E+03	9.670787E-15	1.468946E-16
7.490525E+03	9.621412E-15	1.461254E-16
7.500499E+03	9.562776E-15	1.452192E-16
7.510473E+03	9.483441E-15	1.440022E-16
7.520447E+03	9.373298E-15	1.423205E-16
7.530421E+03	9.226486E-15	1.400847E-16
7.540395E+03	9.043216E-15	1.372979E-16
7.550369E+03	8.830709E-15	1.340693E-16
7.560343E+03	8.601385E-15	1.305870E-16
7.570317E+03	8.370542E-15	1.270829E-16
7.580291E+03	8.154619E-15	1.238063E-16
7.590265E+03	7.969824E-15	1.210029E-16
7.600239E+03	7.830857E-15	1.188957E-16
7.610213E+03	7.748908E-15	1.176544E-16
7.620188E+03	7.732303E-15	1.174052E-16
7.630162E+03	7.783569E-15	1.181864E-16
7.640136E+03	7.898302E-15	1.199310E-16
7.650110E+03	8.064722E-15	1.224598E-16
7.660084E+03	8.265102E-15	1.255036E-16
7.670058E+03	8.477424E-15	1.287277E-16
7.680032E+03	8.680051E-15	1.318032E-16
7.690006E+03	8.854861E-15	1.344548E-16
7.699980E+03	8.991150E-15	1.365197E-16
7.709954E+03	9.085488E-15	1.379455E-16
7.719928E+03	9.141850E-15	1.387924E-16
7.729902E+03	9.167498E-15	1.391706E-16
7.739876E+03	9.170830E-15	1.392075E-16
