#wls	flux	fluxerr
1.595851E+03	1.541875E-16	8.878150E-18
1.635747E+03	1.501340E-16	8.550664E-18
1.675643E+03	1.464560E-16	8.247957E-18
1.715540E+03	1.432248E-16	7.973414E-18
1.755436E+03	1.404207E-16	7.725187E-18
1.795332E+03	1.380132E-16	7.500894E-18
1.835228E+03	1.358678E-16	7.292613E-18
1.875125E+03	1.337241E-16	7.086107E-18
1.915021E+03	1.311468E-16	6.858689E-18
1.954917E+03	1.275035E-16	6.578742E-18
1.994813E+03	1.220486E-16	6.210697E-18
2.034710E+03	1.142281E-16	5.730789E-18
2.074606E+03	1.040837E-16	5.146390E-18
2.114502E+03	9.260192E-17	4.510876E-18
2.154399E+03	8.138221E-17	3.904202E-18
2.194295E+03	7.194484E-17	3.397845E-18
2.234191E+03	6.538387E-17	3.038880E-18
2.274087E+03	6.242773E-17	2.854276E-18
2.313984E+03	6.349876E-17	2.854928E-18
2.353880E+03	6.912591E-17	3.055043E-18
2.393776E+03	8.046657E-17	3.494386E-18
2.433672E+03	9.954122E-17	4.245838E-18
2.473569E+03	1.293173E-16	5.415550E-18
2.513465E+03	1.732342E-16	7.119659E-18
2.553361E+03	2.330663E-16	9.396226E-18
2.593258E+03	3.053380E-16	1.206996E-17
2.633154E+03	3.809994E-16	1.476039E-17
2.673050E+03	4.558227E-16	1.729858E-17
2.712946E+03	5.375205E-16	1.997279E-17
2.752843E+03	6.400246E-16	2.327308E-17
2.792739E+03	7.759210E-16	2.759747E-17
2.832635E+03	9.526020E-16	3.312356E-17
2.872531E+03	1.169436E-15	3.973325E-17
2.912428E+03	1.413123E-15	4.689048E-17
2.952324E+03	1.649014E-15	5.341059E-17
2.992220E+03	1.824957E-15	5.766622E-17
3.002194E+03	1.853823E-15	5.821263E-17
3.012168E+03	1.875717E-15	5.853043E-17
3.022142E+03	1.890787E-15	5.862838E-17
3.032116E+03	1.898906E-15	5.850662E-17
3.042091E+03	1.900457E-15	5.818102E-17
3.052065E+03	1.895984E-15	5.767204E-17
3.062039E+03	1.886031E-15	5.699967E-17
3.072013E+03	1.871218E-15	5.618576E-17
3.081987E+03	1.852087E-15	5.524938E-17
3.091961E+03	1.829625E-15	5.422232E-17
3.101935E+03	1.804115E-15	5.311484E-17
3.111909E+03	1.776228E-15	5.194842E-17
3.121883E+03	1.746554E-15	5.074154E-17
3.131857E+03	1.715403E-15	4.950418E-17
3.141831E+03	1.683213E-15	4.824978E-17
3.151805E+03	1.650170E-15	4.698426E-17
3.161779E+03	1.616608E-15	4.571748E-17
3.171753E+03	1.582654E-15	4.445336E-17
3.181728E+03	1.548608E-15	4.320047E-17
3.191702E+03	1.514701E-15	4.196524E-17
3.201676E+03	1.481125E-15	4.075286E-17
3.211650E+03	1.448280E-15	3.957405E-17
3.221624E+03	1.416548E-15	3.843875E-17
3.231598E+03	1.386384E-15	3.735855E-17
3.241572E+03	1.358313E-15	3.634660E-17
3.251546E+03	1.332872E-15	3.541600E-17
3.261520E+03	1.310859E-15	3.458626E-17
3.271494E+03	1.292950E-15	3.387321E-17
3.281468E+03	1.279963E-15	3.329584E-17
3.291442E+03	1.272801E-15	3.287468E-17
3.301416E+03	1.272453E-15	3.263196E-17
3.311390E+03	1.280014E-15	3.259183E-17
3.321364E+03	1.296744E-15	3.278186E-17
3.331339E+03	1.323909E-15	3.322891E-17
3.341313E+03	1.362949E-15	3.396330E-17
3.351287E+03	1.415466E-15	3.501845E-17
3.361261E+03	1.483044E-15	3.642616E-17
3.371235E+03	1.567393E-15	3.822042E-17
3.381209E+03	1.670023E-15	4.042914E-17
3.391183E+03	1.792265E-15	4.307513E-17
3.401157E+03	1.934790E-15	4.616451E-17
3.411131E+03	2.097123E-15	4.967612E-17
3.421105E+03	2.277302E-15	5.355420E-17
3.431079E+03	2.471076E-15	5.769110E-17
3.441053E+03	2.671597E-15	6.192199E-17
3.451027E+03	2.869624E-15	6.603168E-17
3.461001E+03	3.054944E-15	6.978889E-17
3.470975E+03	3.220224E-15	7.303445E-17
3.480950E+03	3.363755E-15	7.574052E-17
3.490924E+03	3.489287E-15	7.800219E-17
3.500898E+03	3.602999E-15	7.996595E-17
3.510872E+03	3.711229E-15	8.177768E-17
3.520846E+03	3.818594E-15	8.354151E-17
3.530820E+03	3.927270E-15	8.530566E-17
3.540794E+03	4.036121E-15	8.704556E-17
3.550768E+03	4.140513E-15	8.866245E-17
3.560742E+03	4.231699E-15	8.997293E-17
3.570716E+03	4.299476E-15	9.076811E-17
3.580690E+03	4.334954E-15	9.087256E-17
3.590664E+03	4.336482E-15	9.026658E-17
3.600638E+03	4.314071E-15	8.917214E-17
3.610612E+03	4.286220E-15	8.797928E-17
3.620586E+03	4.274469E-15	8.712913E-17
3.630561E+03	4.299748E-15	8.703820E-17
3.640535E+03	4.380947E-15	8.807054E-17
3.650509E+03	4.535582E-15	9.055258E-17
3.660483E+03	4.779637E-15	9.477124E-17
3.670457E+03	5.127913E-15	1.009821E-16
3.680431E+03	5.590935E-15	1.093497E-16
3.690405E+03	6.170062E-15	1.198557E-16
3.700379E+03	6.850373E-15	1.321679E-16
3.710353E+03	7.593181E-15	1.455069E-16
3.720327E+03	8.335987E-15	1.586608E-16
3.730301E+03	8.998716E-15	1.701180E-16
3.740275E+03	9.495290E-15	1.782947E-16
3.750249E+03	9.756795E-15	1.819703E-16
3.760223E+03	9.754525E-15	1.807026E-16
3.770197E+03	9.506217E-15	1.749171E-16
3.780172E+03	9.065629E-15	1.656872E-16
3.790146E+03	8.508203E-15	1.544524E-16
3.800120E+03	7.913557E-15	1.426900E-16
3.810094E+03	7.352182E-15	1.316744E-16
3.820068E+03	6.877518E-15	1.223425E-16
3.830042E+03	6.526589E-15	1.153159E-16
3.840016E+03	6.324825E-15	1.109955E-16
3.849990E+03	6.291231E-15	1.096583E-16
3.859964E+03	6.443146E-15	1.115446E-16
3.869938E+03	6.798634E-15	1.168991E-16
3.879912E+03	7.376667E-15	1.259745E-16
3.889886E+03	8.193215E-15	1.389645E-16
3.899860E+03	9.255254E-15	1.559043E-16
3.909834E+03	1.054828E-14	1.764674E-16
3.919808E+03	1.202321E-14	1.997606E-16
3.929783E+03	1.359171E-14	2.242653E-16
3.939757E+03	1.513634E-14	2.480277E-16
3.949731E+03	1.652484E-14	2.689059E-16
3.959705E+03	1.764272E-14	2.851053E-16
3.969679E+03	1.843004E-14	2.957570E-16
3.979653E+03	1.888914E-14	3.010114E-16
3.989627E+03	1.906433E-14	3.016808E-16
3.999601E+03	1.902306E-14	2.989201E-16
4.009575E+03	1.883873E-14	2.939472E-16
4.019549E+03	1.857634E-14	2.878164E-16
4.029523E+03	1.828258E-14	2.812716E-16
4.039497E+03	1.798574E-14	2.747551E-16
4.049471E+03	1.769802E-14	2.684533E-16
4.059445E+03	1.741843E-14	2.623480E-16
4.069420E+03	1.713763E-14	2.562971E-16
4.079394E+03	1.684358E-14	2.501222E-16
4.089368E+03	1.652450E-14	2.436540E-16
4.099342E+03	1.617218E-14	2.367801E-16
4.109316E+03	1.578112E-14	2.294306E-16
4.119290E+03	1.535014E-14	2.216005E-16
4.129264E+03	1.487993E-14	2.133112E-16
4.139238E+03	1.437111E-14	2.045830E-16
4.149212E+03	1.382362E-14	1.954258E-16
4.159186E+03	1.324130E-14	1.859040E-16
4.169160E+03	1.263634E-14	1.761963E-16
4.179134E+03	1.203074E-14	1.666129E-16
4.189108E+03	1.145325E-14	1.575474E-16
4.199082E+03	1.093434E-14	1.494068E-16
4.209056E+03	1.050461E-14	1.425890E-16
4.219031E+03	1.019035E-14	1.374229E-16
4.229005E+03	1.000965E-14	1.341199E-16
4.238979E+03	9.972688E-15	1.327806E-16
4.248953E+03	1.008245E-14	1.334088E-16
4.258927E+03	1.033597E-14	1.359308E-16
4.268901E+03	1.072230E-14	1.401715E-16
4.278875E+03	1.122329E-14	1.458673E-16
4.288849E+03	1.181453E-14	1.526813E-16
4.298823E+03	1.246542E-14	1.602058E-16
4.308797E+03	1.313921E-14	1.679647E-16
4.318771E+03	1.379300E-14	1.754141E-16
4.328745E+03	1.438023E-14	1.819758E-16
4.338719E+03	1.485247E-14	1.870588E-16
4.348693E+03	1.516283E-14	1.901016E-16
4.358667E+03	1.527961E-14	1.907407E-16
4.368642E+03	1.520125E-14	1.889904E-16
4.378616E+03	1.494533E-14	1.850982E-16
4.388590E+03	1.453452E-14	1.793668E-16
4.398564E+03	1.399649E-14	1.721524E-16
4.408538E+03	1.337383E-14	1.639873E-16
4.418512E+03	1.272521E-14	1.555912E-16
4.428486E+03	1.211510E-14	1.477454E-16
4.438460E+03	1.160483E-14	1.411855E-16
4.448434E+03	1.124758E-14	1.365425E-16
4.458408E+03	1.108555E-14	1.343112E-16
4.468382E+03	1.114531E-14	1.347962E-16
4.478356E+03	1.143781E-14	1.381141E-16
4.488330E+03	1.196130E-14	1.442310E-16
4.498304E+03	1.270366E-14	1.529902E-16
4.508278E+03	1.363719E-14	1.640514E-16
4.518253E+03	1.471642E-14	1.768634E-16
4.528227E+03	1.588045E-14	1.906932E-16
4.538201E+03	1.705752E-14	2.046804E-16
4.548175E+03	1.817074E-14	2.179049E-16
4.558149E+03	1.914672E-14	2.294906E-16
4.568123E+03	1.992913E-14	2.387659E-16
4.578097E+03	2.048344E-14	2.453201E-16
4.588071E+03	2.079863E-14	2.490233E-16
4.598045E+03	2.088837E-14	2.500397E-16
4.608019E+03	2.078214E-14	2.487220E-16
4.617993E+03	2.051665E-14	2.455085E-16
4.627967E+03	2.012738E-14	2.408219E-16
4.637941E+03	1.964498E-14	2.350271E-16
4.647915E+03	1.909151E-14	2.283860E-16
4.657889E+03	1.847895E-14	2.210403E-16
4.667864E+03	1.781550E-14	2.130865E-16
4.677838E+03	1.711148E-14	2.046469E-16
4.687812E+03	1.638243E-14	1.959062E-16
4.697786E+03	1.564942E-14	1.871160E-16
4.707760E+03	1.494156E-14	1.786234E-16
4.717734E+03	1.429893E-14	1.709075E-16
4.727708E+03	1.376951E-14	1.645408E-16
4.737682E+03	1.339470E-14	1.600171E-16
4.747656E+03	1.320121E-14	1.576531E-16
4.757630E+03	1.320071E-14	1.575851E-16
4.767604E+03	1.339183E-14	1.597930E-16
4.777578E+03	1.375941E-14	1.640910E-16
4.787552E+03	1.427697E-14	1.701581E-16
4.797526E+03	1.490944E-14	1.775707E-16
4.807500E+03	1.561431E-14	1.858168E-16
4.817475E+03	1.634299E-14	1.943130E-16
4.827449E+03	1.704460E-14	2.024507E-16
4.837423E+03	1.767168E-14	2.096640E-16
4.847397E+03	1.818450E-14	2.154816E-16
4.857371E+03	1.855705E-14	2.195976E-16
4.867345E+03	1.878196E-14	2.219293E-16
4.877319E+03	1.887075E-14	2.226187E-16
4.887293E+03	1.885367E-14	2.220285E-16
4.897267E+03	1.877827E-14	2.207237E-16
4.907241E+03	1.869746E-14	2.193287E-16
4.917215E+03	1.865833E-14	2.183950E-16
4.927189E+03	1.869434E-14	2.183101E-16
4.937163E+03	1.882181E-14	2.192573E-16
4.947137E+03	1.903540E-14	2.211660E-16
4.957112E+03	1.930379E-14	2.236643E-16
4.967086E+03	1.957268E-14	2.261181E-16
4.977060E+03	1.976834E-14	2.276769E-16
4.987034E+03	1.980187E-14	2.273272E-16
4.997008E+03	1.959578E-14	2.242006E-16
5.006982E+03	1.912128E-14	2.179980E-16
5.016956E+03	1.841724E-14	2.091964E-16
5.026930E+03	1.756886E-14	1.987927E-16
5.036904E+03	1.667986E-14	1.879793E-16
5.046878E+03	1.585181E-14	1.779064E-16
5.056852E+03	1.516765E-14	1.694967E-16
5.066826E+03	1.467993E-14	1.633178E-16
5.076800E+03	1.441204E-14	1.596022E-16
5.086774E+03	1.436582E-14	1.583387E-16
5.096748E+03	1.452522E-14	1.593175E-16
5.106723E+03	1.485659E-14	1.621387E-16
5.116697E+03	1.531036E-14	1.662359E-16
5.126671E+03	1.582551E-14	1.709293E-16
5.136645E+03	1.633283E-14	1.754648E-16
5.146619E+03	1.676496E-14	1.791241E-16
5.156593E+03	1.707562E-14	1.814294E-16
5.166567E+03	1.725371E-14	1.822862E-16
5.176541E+03	1.731983E-14	1.819363E-16
5.186515E+03	1.731144E-14	1.807931E-16
5.196489E+03	1.727435E-14	1.793482E-16
5.206463E+03	1.725185E-14	1.780555E-16
5.216437E+03	1.727767E-14	1.772611E-16
5.226411E+03	1.736924E-14	1.771361E-16
5.236385E+03	1.752931E-14	1.776989E-16
5.246359E+03	1.774883E-14	1.788485E-16
5.256334E+03	1.800679E-14	1.803670E-16
5.266308E+03	1.827577E-14	1.819777E-16
5.276282E+03	1.852621E-14	1.833897E-16
5.286256E+03	1.873322E-14	1.843653E-16
5.296230E+03	1.887795E-14	1.847314E-16
5.306204E+03	1.895044E-14	1.844055E-16
5.316178E+03	1.894978E-14	1.833947E-16
5.326152E+03	1.888144E-14	1.817664E-16
5.336126E+03	1.875320E-14	1.796089E-16
5.346100E+03	1.857013E-14	1.769821E-16
5.356074E+03	1.833791E-14	1.739500E-16
5.366048E+03	1.806329E-14	1.705845E-16
5.376022E+03	1.775685E-14	1.669918E-16
5.385996E+03	1.743308E-14	1.633122E-16
5.395970E+03	1.711015E-14	1.597174E-16
5.405945E+03	1.680803E-14	1.563930E-16
5.415919E+03	1.654456E-14	1.535014E-16
5.425893E+03	1.633095E-14	1.511414E-16
5.435867E+03	1.616929E-14	1.493274E-16
5.445841E+03	1.605720E-14	1.480331E-16
5.455815E+03	1.599314E-14	1.472396E-16
5.465789E+03	1.597848E-14	1.469542E-16
5.475763E+03	1.601107E-14	1.471523E-16
5.485737E+03	1.607641E-14	1.476971E-16
5.495711E+03	1.614733E-14	1.483359E-16
5.505685E+03	1.619067E-14	1.487612E-16
5.515659E+03	1.618034E-14	1.487301E-16
5.525633E+03	1.610696E-14	1.481521E-16
5.535607E+03	1.597586E-14	1.470717E-16
5.545581E+03	1.580164E-14	1.456180E-16
5.555556E+03	1.560229E-14	1.439517E-16
5.565530E+03	1.539679E-14	1.422434E-16
5.575504E+03	1.520164E-14	1.406419E-16
5.585478E+03	1.502903E-14	1.392569E-16
5.595452E+03	1.488671E-14	1.381582E-16
5.605426E+03	1.477810E-14	1.373761E-16
5.615400E+03	1.470166E-14	1.368949E-16
5.625374E+03	1.465222E-14	1.366654E-16
5.635348E+03	1.462178E-14	1.366118E-16
5.645322E+03	1.460062E-14	1.366417E-16
5.655296E+03	1.457789E-14	1.366517E-16
5.665270E+03	1.454252E-14	1.365358E-16
5.675244E+03	1.448422E-14	1.361948E-16
5.685218E+03	1.439498E-14	1.355506E-16
5.695192E+03	1.427044E-14	1.345593E-16
5.705167E+03	1.411174E-14	1.332291E-16
5.715141E+03	1.392473E-14	1.316131E-16
5.725115E+03	1.372160E-14	1.298250E-16
5.735089E+03	1.351985E-14	1.280295E-16
5.745063E+03	1.333952E-14	1.264164E-16
5.755037E+03	1.320046E-14	1.251739E-16
5.765011E+03	1.311991E-14	1.244661E-16
5.774985E+03	1.311050E-14	1.244133E-16
5.784959E+03	1.317709E-14	1.250616E-16
5.794933E+03	1.331552E-14	1.263707E-16
5.804907E+03	1.351279E-14	1.282163E-16
5.814881E+03	1.375010E-14	1.304184E-16
5.824855E+03	1.400463E-14	1.327587E-16
5.834829E+03	1.425184E-14	1.350030E-16
5.844804E+03	1.447108E-14	1.369549E-16
5.854778E+03	1.465051E-14	1.385021E-16
5.864752E+03	1.478634E-14	1.396092E-16
5.874726E+03	1.487991E-14	1.402901E-16
5.884700E+03	1.493728E-14	1.406035E-16
5.894674E+03	1.496641E-14	1.406261E-16
5.904648E+03	1.497414E-14	1.404239E-16
5.914622E+03	1.496541E-14	1.400451E-16
5.924596E+03	1.494188E-14	1.395070E-16
5.934570E+03	1.490399E-14	1.388159E-16
5.944544E+03	1.485105E-14	1.379674E-16
5.954518E+03	1.478278E-14	1.369615E-16
5.964492E+03	1.470162E-14	1.358233E-16
5.974466E+03	1.461438E-14	1.346186E-16
5.984440E+03	1.452991E-14	1.334307E-16
5.994415E+03	1.445643E-14	1.323365E-16
6.004389E+03	1.440014E-14	1.313936E-16
6.014363E+03	1.436378E-14	1.306274E-16
6.024337E+03	1.434678E-14	1.300329E-16
6.034311E+03	1.434430E-14	1.295668E-16
6.044285E+03	1.434927E-14	1.291661E-16
6.054259E+03	1.435467E-14	1.287695E-16
6.064233E+03	1.435535E-14	1.283336E-16
6.074207E+03	1.434926E-14	1.278428E-16
6.084181E+03	1.433787E-14	1.273135E-16
6.094155E+03	1.432789E-14	1.268082E-16
6.104129E+03	1.432948E-14	1.264190E-16
6.114103E+03	1.435317E-14	1.262408E-16
6.124077E+03	1.440916E-14	1.263639E-16
6.134051E+03	1.450198E-14	1.268289E-16
6.144026E+03	1.462532E-14	1.275816E-16
6.154000E+03	1.475614E-14	1.284233E-16
6.163974E+03	1.486014E-14	1.290594E-16
6.173948E+03	1.489722E-14	1.291480E-16
6.183922E+03	1.483255E-14	1.283940E-16
6.193896E+03	1.465130E-14	1.266755E-16
6.203870E+03	1.435839E-14	1.240380E-16
6.213844E+03	1.396935E-14	1.206151E-16
6.223818E+03	1.350402E-14	1.165758E-16
6.233792E+03	1.298620E-14	1.121218E-16
6.243766E+03	1.244134E-14	1.074680E-16
6.253740E+03	1.189258E-14	1.028092E-16
6.263714E+03	1.135538E-14	9.827456E-17
6.273688E+03	1.083678E-14	9.392041E-17
6.283662E+03	1.033759E-14	8.975012E-17
6.293637E+03	9.854142E-15	8.572830E-17
6.303611E+03	9.380135E-15	8.179672E-17
6.313585E+03	8.912444E-15	7.792464E-17
6.323559E+03	8.456341E-15	7.415482E-17
6.333533E+03	8.027091E-15	7.061868E-17
6.343507E+03	7.647684E-15	6.751796E-17
6.353481E+03	7.347994E-15	6.511895E-17
6.363455E+03	7.163688E-15	6.374460E-17
6.373429E+03	7.131822E-15	6.373706E-17
6.383403E+03	7.284995E-15	6.540637E-17
6.393377E+03	7.650050E-15	6.901863E-17
6.403351E+03	8.251122E-15	7.482314E-17
6.413325E+03	9.107397E-15	8.303194E-17
6.423299E+03	1.022316E-14	9.372786E-17
6.433273E+03	1.157521E-14	1.067447E-16
6.443248E+03	1.310048E-14	1.215436E-16
6.453222E+03	1.468686E-14	1.371142E-16
6.463196E+03	1.618388E-14	1.520603E-16
6.473170E+03	1.745096E-14	1.650411E-16
6.483144E+03	1.842146E-14	1.753825E-16
6.493118E+03	1.913264E-14	1.833859E-16
6.503092E+03	1.973144E-14	1.904184E-16
6.513066E+03	2.041480E-14	1.983695E-16
6.523040E+03	2.125465E-14	2.079580E-16
6.533014E+03	2.214312E-14	2.181504E-16
6.542988E+03	2.292428E-14	2.274072E-16
6.552962E+03	2.347271E-14	2.344507E-16
6.562936E+03	2.371437E-14	2.384849E-16
6.572910E+03	2.364099E-14	2.393595E-16
6.582885E+03	2.329472E-14	2.374362E-16
6.592859E+03	2.274084E-14	2.333259E-16
6.602833E+03	2.204638E-14	2.276766E-16
6.612807E+03	2.127219E-14	2.210905E-16
6.622781E+03	2.046794E-14	2.140704E-16
6.632755E+03	1.967035E-14	2.069964E-16
6.642729E+03	1.890503E-14	2.001407E-16
6.652703E+03	1.818788E-14	1.936793E-16
6.662677E+03	1.752573E-14	1.876950E-16
6.672651E+03	1.692016E-14	1.822157E-16
6.682625E+03	1.637035E-14	1.772435E-16
6.692599E+03	1.587351E-14	1.727587E-16
6.702573E+03	1.542687E-14	1.687411E-16
6.712547E+03	1.502806E-14	1.651737E-16
6.722521E+03	1.467394E-14	1.620306E-16
6.732496E+03	1.436145E-14	1.592853E-16
6.742470E+03	1.408655E-14	1.569002E-16
6.752444E+03	1.384317E-14	1.548129E-16
6.762418E+03	1.362317E-14	1.529375E-16
6.772392E+03	1.341540E-14	1.511517E-16
6.782366E+03	1.320613E-14	1.493025E-16
6.792340E+03	1.298257E-14	1.472455E-16
6.802314E+03	1.273868E-14	1.449113E-16
6.812288E+03	1.247811E-14	1.423409E-16
6.822262E+03	1.221183E-14	1.396592E-16
6.832236E+03	1.195306E-14	1.370192E-16
6.842210E+03	1.171557E-14	1.345809E-16
6.852184E+03	1.151144E-14	1.324866E-16
6.862158E+03	1.134999E-14	1.308470E-16
6.872132E+03	1.123671E-14	1.297292E-16
6.882107E+03	1.117273E-14	1.291492E-16
6.892081E+03	1.115542E-14	1.290792E-16
6.902055E+03	1.117713E-14	1.294322E-16
6.912029E+03	1.122641E-14	1.300764E-16
6.922003E+03	1.128969E-14	1.308548E-16
6.931977E+03	1.135261E-14	1.316006E-16
6.941951E+03	1.140219E-14	1.321631E-16
6.951925E+03	1.142937E-14	1.324370E-16
6.961899E+03	1.143198E-14	1.323974E-16
6.971873E+03	1.141277E-14	1.320768E-16
6.981847E+03	1.137605E-14	1.315262E-16
6.991821E+03	1.132687E-14	1.308049E-16
7.001795E+03	1.127000E-14	1.299691E-16
7.011769E+03	1.121055E-14	1.290789E-16
7.021743E+03	1.115307E-14	1.281877E-16
7.031718E+03	1.110138E-14	1.273400E-16
7.041692E+03	1.105774E-14	1.265622E-16
7.051666E+03	1.102170E-14	1.258493E-16
7.061640E+03	1.099042E-14	1.251694E-16
7.071614E+03	1.095912E-14	1.244685E-16
7.081588E+03	1.092135E-14	1.236746E-16
7.091562E+03	1.087033E-14	1.227128E-16
7.101536E+03	1.080197E-14	1.215395E-16
7.111510E+03	1.071599E-14	1.201548E-16
7.121484E+03	1.061555E-14	1.185974E-16
7.131458E+03	1.050653E-14	1.169361E-16
7.141432E+03	1.039604E-14	1.152521E-16
7.151406E+03	1.029195E-14	1.136341E-16
7.161380E+03	1.020046E-14	1.121510E-16
7.171354E+03	1.012567E-14	1.108473E-16
7.181329E+03	1.006927E-14	1.097406E-16
7.191303E+03	1.003084E-14	1.088248E-16
7.201277E+03	1.000829E-14	1.080764E-16
7.211251E+03	9.998039E-15	1.074557E-16
7.221225E+03	9.996386E-15	1.069227E-16
7.231199E+03	9.999898E-15	1.064409E-16
7.241173E+03	1.000618E-14	1.059857E-16
7.251147E+03	1.001408E-14	1.055460E-16
7.261121E+03	1.002520E-14	1.051400E-16
7.271095E+03	1.004195E-14	1.047940E-16
7.281069E+03	1.006569E-14	1.045231E-16
7.291043E+03	1.009538E-14	1.043171E-16
7.301017E+03	1.012875E-14	1.041538E-16
7.310991E+03	1.016332E-14	1.040091E-16
7.320965E+03	1.019698E-14	1.038634E-16
7.330940E+03	1.022881E-14	1.037097E-16
7.340914E+03	1.025737E-14	1.035357E-16
7.350888E+03	1.028176E-14	1.033350E-16
7.360862E+03	1.030079E-14	1.030986E-16
7.370836E+03	1.031328E-14	1.028175E-16
7.380810E+03	1.031884E-14	1.024906E-16
7.390784E+03	1.031657E-14	1.021123E-16
7.400758E+03	1.030570E-14	1.016775E-16
7.410732E+03	1.028463E-14	1.011734E-16
7.420706E+03	1.025178E-14	1.005871E-16
7.430680E+03	1.020494E-14	9.989965E-17
7.440654E+03	1.014289E-14	9.910136E-17
7.450628E+03	1.006489E-14	9.818624E-17
7.460602E+03	9.973752E-15	9.718040E-17
7.470577E+03	9.875356E-15	9.613949E-17
7.480551E+03	9.774724E-15	9.511033E-17
7.490525E+03	9.671855E-15	9.409069E-17
7.500499E+03	9.556394E-15	9.297759E-17
7.510473E+03	9.408577E-15	9.157631E-17
7.520447E+03	9.209650E-15	8.970124E-17
7.530421E+03	8.953467E-15	8.728858E-17
7.540395E+03	8.646283E-15	8.439462E-17
7.550369E+03	8.303051E-15	8.116032E-17
7.560343E+03	7.943492E-15	7.777380E-17
7.570317E+03	7.589327E-15	7.444396E-17
7.580291E+03	7.262340E-15	7.138208E-17
7.590265E+03	6.982063E-15	6.877945E-17
7.600239E+03	6.766446E-15	6.681402E-17
7.610213E+03	6.630522E-15	6.563727E-17
7.620188E+03	6.586831E-15	6.537824E-17
7.630162E+03	6.644279E-15	6.613190E-17
7.640136E+03	6.804443E-15	6.792187E-17
7.650110E+03	7.055929E-15	7.064273E-17
7.660084E+03	7.377235E-15	7.408680E-17
7.670058E+03	7.740903E-15	7.798412E-17
7.680032E+03	8.116853E-15	8.203492E-17
7.690006E+03	8.474725E-15	8.593272E-17
7.699980E+03	8.790315E-15	8.942958E-17
7.709954E+03	9.051554E-15	9.239796E-17
7.719928E+03	9.256496E-15	9.481217E-17
7.729902E+03	9.409407E-15	9.670993E-17
7.739876E+03	9.517502E-15	9.815987E-17
