#wls	flux	fluxerr
1.595851E+03	1.982163E-17	2.175946E-18
1.635747E+03	2.039201E-17	2.223902E-18
1.675643E+03	2.098827E-17	2.273491E-18
1.715540E+03	2.159227E-17	2.322669E-18
1.755436E+03	2.222271E-17	2.373379E-18
1.795332E+03	2.285390E-17	2.422796E-18
1.835228E+03	2.349648E-17	2.472000E-18
1.875125E+03	2.412738E-17	2.518513E-18
1.915021E+03	2.474172E-17	2.561817E-18
1.954917E+03	2.530369E-17	2.598236E-18
1.994813E+03	2.583205E-17	2.629776E-18
2.034710E+03	2.634144E-17	2.657967E-18
2.074606E+03	2.690475E-17	2.690110E-18
2.114502E+03	2.764288E-17	2.737994E-18
2.154399E+03	2.869832E-17	2.815050E-18
2.194295E+03	3.012379E-17	2.925416E-18
2.234191E+03	3.193175E-17	3.069110E-18
2.274087E+03	3.403000E-17	3.236098E-18
2.313984E+03	3.633368E-17	3.417373E-18
2.353880E+03	3.872814E-17	3.601477E-18
2.393776E+03	4.118257E-17	3.785129E-18
2.433672E+03	4.363937E-17	3.962736E-18
2.473569E+03	4.606695E-17	4.131290E-18
2.513465E+03	4.845808E-17	4.290080E-18
2.553361E+03	5.075017E-17	4.433598E-18
2.593258E+03	5.295961E-17	4.563444E-18
2.633154E+03	5.504884E-17	4.676567E-18
2.673050E+03	5.701446E-17	4.772972E-18
2.712946E+03	5.889080E-17	4.855811E-18
2.752843E+03	6.065301E-17	4.923272E-18
2.792739E+03	6.237299E-17	4.981412E-18
2.832635E+03	6.405810E-17	5.030857E-18
2.872531E+03	6.574138E-17	5.074179E-18
2.912428E+03	6.748284E-17	5.115822E-18
2.952324E+03	6.926846E-17	5.154387E-18
2.992220E+03	7.118548E-17	5.195944E-18
3.002194E+03	7.169220E-17	5.207224E-18
3.012168E+03	7.220851E-17	5.218733E-18
3.022142E+03	7.270834E-17	5.228583E-18
3.032116E+03	7.324634E-17	5.240700E-18
3.042091E+03	7.379553E-17	5.253120E-18
3.052065E+03	7.436056E-17	5.266159E-18
3.062039E+03	7.494149E-17	5.279800E-18
3.072013E+03	7.551103E-17	5.292112E-18
3.081987E+03	7.612398E-17	5.306926E-18
3.091961E+03	7.675329E-17	5.322314E-18
3.101935E+03	7.739920E-17	5.338274E-18
3.111909E+03	7.806196E-17	5.354802E-18
3.121883E+03	7.874189E-17	5.371898E-18
3.131857E+03	7.943934E-17	5.389565E-18
3.141831E+03	8.012586E-17	5.405860E-18
3.151805E+03	8.085924E-17	5.424671E-18
3.161779E+03	8.161122E-17	5.444056E-18
3.171753E+03	8.238238E-17	5.464030E-18
3.181728E+03	8.317316E-17	5.484599E-18
3.191702E+03	8.398403E-17	5.505766E-18
3.201676E+03	8.481561E-17	5.527548E-18
3.211650E+03	8.566825E-17	5.549939E-18
3.221624E+03	8.654278E-17	5.572966E-18
3.231598E+03	8.743964E-17	5.596629E-18
3.241572E+03	8.835944E-17	5.620939E-18
3.251546E+03	8.930290E-17	5.645909E-18
3.261520E+03	9.027064E-17	5.671549E-18
3.271494E+03	9.126332E-17	5.697869E-18
3.281468E+03	9.228168E-17	5.724881E-18
3.291442E+03	9.332646E-17	5.752598E-18
3.301416E+03	9.439825E-17	5.781021E-18
3.311390E+03	9.549798E-17	5.810172E-18
3.321364E+03	9.665991E-17	5.842085E-18
3.331339E+03	9.781801E-17	5.872717E-18
3.341313E+03	9.900629E-17	5.904098E-18
3.351287E+03	1.002256E-16	5.936239E-18
3.361261E+03	1.014768E-16	5.969146E-18
3.371235E+03	1.027605E-16	6.002818E-18
3.381209E+03	1.040777E-16	6.037270E-18
3.391183E+03	1.054653E-16	6.074581E-18
3.401157E+03	1.068523E-16	6.110600E-18
3.411131E+03	1.082751E-16	6.147389E-18
3.421105E+03	1.097346E-16	6.184958E-18
3.431079E+03	1.112315E-16	6.223293E-18
3.441053E+03	1.128049E-16	6.264520E-18
3.451027E+03	1.143793E-16	6.304374E-18
3.461001E+03	1.159933E-16	6.344965E-18
3.470975E+03	1.176475E-16	6.386271E-18
3.480950E+03	1.193829E-16	6.430446E-18
3.490924E+03	1.211198E-16	6.473126E-18
3.500898E+03	1.228985E-16	6.516449E-18
3.510872E+03	1.247195E-16	6.560379E-18
3.520846E+03	1.266255E-16	6.607090E-18
3.530820E+03	1.285324E-16	6.652117E-18
3.540794E+03	1.304824E-16	6.697626E-18
3.550768E+03	1.325197E-16	6.745809E-18
3.560742E+03	1.345566E-16	6.792122E-18
3.570716E+03	1.366368E-16	6.838751E-18
3.580690E+03	1.388065E-16	6.887932E-18
3.590664E+03	1.409747E-16	6.935075E-18
3.600638E+03	1.431879E-16	6.982449E-18
3.610612E+03	1.454962E-16	7.032407E-18
3.620586E+03	1.478060E-16	7.080353E-18
3.630561E+03	1.501670E-16	7.128632E-18
3.640535E+03	1.526314E-16	7.179642E-18
3.650509E+03	1.551021E-16	7.228718E-18
3.660483E+03	1.576822E-16	7.280615E-18
3.670457E+03	1.602716E-16	7.330608E-18
3.680431E+03	1.629232E-16	7.381086E-18
3.690405E+03	1.656930E-16	7.434476E-18
3.700379E+03	1.684759E-16	7.485958E-18
3.710353E+03	1.713828E-16	7.540389E-18
3.720327E+03	1.743051E-16	7.592881E-18
3.730301E+03	1.772993E-16	7.645853E-18
3.740275E+03	1.804252E-16	7.701761E-18
3.750249E+03	1.835689E-16	7.755624E-18
3.760223E+03	1.868491E-16	7.812384E-18
3.770197E+03	1.901480E-16	7.866990E-18
3.780172E+03	1.935877E-16	7.924417E-18
3.790146E+03	1.970461E-16	7.979550E-18
3.800120E+03	2.006491E-16	8.037402E-18
3.810094E+03	2.042700E-16	8.092778E-18
3.820068E+03	2.080387E-16	8.150742E-18
3.830042E+03	2.118238E-16	8.206024E-18
3.840016E+03	2.157588E-16	8.263727E-18
3.849990E+03	2.197079E-16	8.318514E-18
3.859964E+03	2.238085E-16	8.375525E-18
3.869938E+03	2.279197E-16	8.429361E-18
3.879912E+03	2.321831E-16	8.485199E-18
3.889886E+03	2.364526E-16	8.537580E-18
3.899860E+03	2.408743E-16	8.591721E-18
3.909834E+03	2.452966E-16	8.642106E-18
3.919808E+03	2.498700E-16	8.693990E-18
3.929783E+03	2.544377E-16	8.741810E-18
3.939757E+03	2.591548E-16	8.790863E-18
3.949731E+03	2.639409E-16	8.838286E-18
3.959705E+03	2.687099E-16	8.881175E-18
3.969679E+03	2.736243E-16	8.924891E-18
3.979653E+03	2.785131E-16	8.963772E-18
3.989627E+03	2.835441E-16	9.003222E-18
3.999601E+03	2.885405E-16	9.037559E-18
4.009575E+03	2.936752E-16	9.072219E-18
4.019549E+03	2.987657E-16	9.101510E-18
4.029523E+03	3.039907E-16	9.130912E-18
4.039497E+03	3.092563E-16	9.157533E-18
4.049471E+03	3.144631E-16	9.178480E-18
4.059445E+03	3.197982E-16	9.199280E-18
4.069420E+03	3.250648E-16	9.214261E-18
4.079394E+03	3.304559E-16	9.228979E-18
4.089368E+03	3.357690E-16	9.237788E-18
4.099342E+03	3.412031E-16	9.246270E-18
4.109316E+03	3.466547E-16	9.251610E-18
4.119290E+03	3.520146E-16	9.251016E-18
4.129264E+03	3.574912E-16	9.250103E-18
4.139238E+03	3.628675E-16	9.243318E-18
4.149212E+03	3.683580E-16	9.236286E-18
4.159186E+03	3.737403E-16	9.223516E-18
4.169160E+03	3.792348E-16	9.210627E-18
4.179134E+03	3.847285E-16	9.194940E-18
4.189108E+03	3.901025E-16	9.173823E-18
4.199082E+03	3.955862E-16	9.152889E-18
4.209056E+03	4.009432E-16	9.126813E-18
4.219031E+03	4.064082E-16	9.101187E-18
4.229005E+03	4.117391E-16	9.070762E-18
4.238979E+03	4.171764E-16	9.041110E-18
4.248953E+03	4.225970E-16	9.009723E-18
4.258927E+03	4.278723E-16	8.974162E-18
4.268901E+03	4.332506E-16	8.939953E-18
4.278875E+03	4.384754E-16	8.902055E-18
4.288849E+03	4.438004E-16	8.865964E-18
4.298823E+03	4.489632E-16	8.826724E-18
4.308797E+03	4.542225E-16	8.789797E-18
4.318771E+03	4.593104E-16	8.750315E-18
4.328745E+03	4.644904E-16	8.713706E-18
4.338719E+03	4.696255E-16	8.677710E-18
4.348693E+03	4.745742E-16	8.640145E-18
4.358667E+03	4.796069E-16	8.606382E-18
4.368642E+03	4.844423E-16	8.571761E-18
4.378616E+03	4.893558E-16	8.541619E-18
4.388590E+03	4.940622E-16	8.511385E-18
4.398564E+03	4.988430E-16	8.486379E-18
4.408538E+03	5.034089E-16	8.462095E-18
4.418512E+03	5.080465E-16	8.443819E-18
4.428486E+03	5.124621E-16	8.427079E-18
4.438460E+03	5.169465E-16	8.417110E-18
4.448434E+03	5.212018E-16	8.409454E-18
4.458408E+03	5.255231E-16	8.409293E-18
4.468382E+03	5.296087E-16	8.412158E-18
4.478356E+03	5.336056E-16	8.420771E-18
4.488330E+03	5.376643E-16	8.437685E-18
4.498304E+03	5.414783E-16	8.458046E-18
4.508278E+03	5.453526E-16	8.486558E-18
4.518253E+03	5.489775E-16	8.518277E-18
4.528227E+03	5.526616E-16	8.557854E-18
4.538201E+03	5.560923E-16	8.600263E-18
4.548175E+03	5.595818E-16	8.650126E-18
4.558149E+03	5.628150E-16	8.702336E-18
4.568123E+03	5.659485E-16	8.759051E-18
4.578097E+03	5.691421E-16	8.822464E-18
4.588071E+03	5.720773E-16	8.887345E-18
4.598045E+03	5.749139E-16	8.955852E-18
4.608019E+03	5.778143E-16	9.030196E-18
4.617993E+03	5.804578E-16	9.105044E-18
4.627967E+03	5.831692E-16	9.185144E-18
4.637941E+03	5.856269E-16	9.265099E-18
4.647915E+03	5.879952E-16	9.347146E-18
4.657889E+03	5.902771E-16	9.430995E-18
4.667864E+03	5.926401E-16	9.518999E-18
4.677838E+03	5.947604E-16	9.605643E-18
4.687812E+03	5.968056E-16	9.693283E-18
4.697786E+03	5.989455E-16	9.784377E-18
4.707760E+03	6.008550E-16	9.873328E-18
4.717734E+03	6.027038E-16	9.962600E-18
4.727708E+03	6.044974E-16	1.005200E-17
4.737682E+03	6.064072E-16	1.014412E-17
4.747656E+03	6.081073E-16	1.023327E-17
4.757630E+03	6.097690E-16	1.032206E-17
4.767604E+03	6.113984E-16	1.041035E-17
4.777578E+03	6.130017E-16	1.049803E-17
4.787552E+03	6.145849E-16	1.058498E-17
4.797526E+03	6.163214E-16	1.067401E-17
4.807500E+03	6.178828E-16	1.075927E-17
4.817475E+03	6.194422E-16	1.084357E-17
4.827449E+03	6.210058E-16	1.092684E-17
4.837423E+03	6.225794E-16	1.100903E-17
4.847397E+03	6.241689E-16	1.109011E-17
4.857371E+03	6.257802E-16	1.117004E-17
4.867345E+03	6.274188E-16	1.124880E-17
4.877319E+03	6.290904E-16	1.132638E-17
4.887293E+03	6.308005E-16	1.140276E-17
4.897267E+03	6.325546E-16	1.147793E-17
4.907241E+03	6.343579E-16	1.155192E-17
4.917215E+03	6.362157E-16	1.162471E-17
4.927189E+03	6.381333E-16	1.169632E-17
4.937163E+03	6.401158E-16	1.176678E-17
4.947137E+03	6.421682E-16	1.183610E-17
4.957112E+03	6.442957E-16	1.190432E-17
4.967086E+03	6.465032E-16	1.197146E-17
4.977060E+03	6.487957E-16	1.203755E-17
4.987034E+03	6.511783E-16	1.210265E-17
4.997008E+03	6.534829E-16	1.216356E-17
5.006982E+03	6.560596E-16	1.222676E-17
5.016956E+03	6.587409E-16	1.228909E-17
5.026930E+03	6.615317E-16	1.235059E-17
5.036904E+03	6.644365E-16	1.241132E-17
5.046878E+03	6.672847E-16	1.246805E-17
5.056852E+03	6.704309E-16	1.252737E-17
5.066826E+03	6.737048E-16	1.258606E-17
5.076800E+03	6.769335E-16	1.264087E-17
5.086774E+03	6.804748E-16	1.269844E-17
5.096748E+03	6.841560E-16	1.275554E-17
5.106723E+03	6.878017E-16	1.280885E-17
5.116697E+03	6.917733E-16	1.286510E-17
5.126671E+03	6.958955E-16	1.292099E-17
5.136645E+03	6.999892E-16	1.297318E-17
5.146619E+03	7.044201E-16	1.302844E-17
5.156593E+03	7.088259E-16	1.308004E-17
5.166567E+03	7.135751E-16	1.313478E-17
5.176541E+03	7.183009E-16	1.318590E-17
5.186515E+03	7.233751E-16	1.324021E-17
5.196489E+03	7.284260E-16	1.329090E-17
5.206463E+03	7.338292E-16	1.334484E-17
5.216437E+03	7.392077E-16	1.339516E-17
5.226411E+03	7.449409E-16	1.344877E-17
5.236385E+03	7.506464E-16	1.349875E-17
5.246359E+03	7.565137E-16	1.354858E-17
5.256334E+03	7.627370E-16	1.360175E-17
5.266308E+03	7.689254E-16	1.365129E-17
5.276282E+03	7.752711E-16	1.370072E-17
5.286256E+03	7.817721E-16	1.375004E-17
5.296230E+03	7.886275E-16	1.380281E-17
5.306204E+03	7.954339E-16	1.385202E-17
5.316178E+03	8.023882E-16	1.390123E-17
5.326152E+03	8.094875E-16	1.395049E-17
5.336126E+03	8.167287E-16	1.399985E-17
5.346100E+03	8.241097E-16	1.404940E-17
5.356074E+03	8.316272E-16	1.409923E-17
5.366048E+03	8.394913E-16	1.415303E-17
5.376022E+03	8.472755E-16	1.420377E-17
5.385996E+03	8.551882E-16	1.425516E-17
5.395970E+03	8.632273E-16	1.430737E-17
5.405945E+03	8.713909E-16	1.436059E-17
5.415919E+03	8.796785E-16	1.441504E-17
5.425893E+03	8.878644E-16	1.446730E-17
5.435867E+03	8.963966E-16	1.452496E-17
5.445841E+03	9.050541E-16	1.458469E-17
5.455815E+03	9.138424E-16	1.464687E-17
5.465789E+03	9.227690E-16	1.471194E-17
5.475763E+03	9.318441E-16	1.478041E-17
5.485737E+03	9.408361E-16	1.484895E-17
5.495711E+03	9.502112E-16	1.492531E-17
5.505685E+03	9.597275E-16	1.500604E-17
5.515659E+03	9.693803E-16	1.509145E-17
5.525633E+03	9.789215E-16	1.517810E-17
5.535607E+03	9.888366E-16	1.527397E-17
5.545581E+03	9.986380E-16	1.537193E-17
5.555556E+03	1.008821E-15	1.548005E-17
5.565530E+03	1.019145E-15	1.559507E-17
5.575504E+03	1.029355E-15	1.571356E-17
5.585478E+03	1.039968E-15	1.584383E-17
5.595452E+03	1.050473E-15	1.597828E-17
5.605426E+03	1.061131E-15	1.612075E-17
5.615400E+03	1.072213E-15	1.627519E-17
5.625374E+03	1.083193E-15	1.643345E-17
5.635348E+03	1.094610E-15	1.660349E-17
5.645322E+03	1.105932E-15	1.677701E-17
5.655296E+03	1.117431E-15	1.695791E-17
5.665270E+03	1.129111E-15	1.714597E-17
5.675244E+03	1.141258E-15	1.734528E-17
5.685218E+03	1.153315E-15	1.754707E-17
5.695192E+03	1.165564E-15	1.775531E-17
5.705167E+03	1.178005E-15	1.796973E-17
5.715141E+03	1.190641E-15	1.818998E-17
5.725115E+03	1.203471E-15	1.841576E-17
5.735089E+03	1.216493E-15	1.864667E-17
5.745063E+03	1.230006E-15	1.888694E-17
5.755037E+03	1.243407E-15	1.912694E-17
5.765011E+03	1.256987E-15	1.937078E-17
5.774985E+03	1.270431E-15	1.961319E-17
5.784959E+03	1.284346E-15	1.986316E-17
5.794933E+03	1.298415E-15	2.011543E-17
5.804907E+03	1.312627E-15	2.036937E-17
5.814881E+03	1.326967E-15	2.062440E-17
5.824855E+03	1.341422E-15	2.087987E-17
5.834829E+03	1.355645E-15	2.112996E-17
5.844804E+03	1.370275E-15	2.138423E-17
5.854778E+03	1.384967E-15	2.163686E-17
5.864752E+03	1.399701E-15	2.188713E-17
5.874726E+03	1.414113E-15	2.212891E-17
5.884700E+03	1.428864E-15	2.237214E-17
5.894674E+03	1.443243E-15	2.260526E-17
5.904648E+03	1.457923E-15	2.283838E-17
5.914622E+03	1.472178E-15	2.305974E-17
5.924596E+03	1.486694E-15	2.327965E-17
5.934570E+03	1.500732E-15	2.348617E-17
5.944544E+03	1.514990E-15	2.368983E-17
5.954518E+03	1.528717E-15	2.387849E-17
5.964492E+03	1.542625E-15	2.406292E-17
5.974466E+03	1.555949E-15	2.423084E-17
5.984440E+03	1.569038E-15	2.438734E-17
5.994415E+03	1.581870E-15	2.453177E-17
6.004389E+03	1.594809E-15	2.466946E-17
6.014363E+03	1.607068E-15	2.478796E-17
6.024337E+03	1.619012E-15	2.489264E-17
6.034311E+03	1.630618E-15	2.498295E-17
6.044285E+03	1.641871E-15	2.505844E-17
6.054259E+03	1.652754E-15	2.511864E-17
6.064233E+03	1.663248E-15	2.516314E-17
6.074207E+03	1.673338E-15	2.519158E-17
6.084181E+03	1.683008E-15	2.520363E-17
6.094155E+03	1.692243E-15	2.519900E-17
6.104129E+03	1.701028E-15	2.517744E-17
6.114103E+03	1.709349E-15	2.513876E-17
6.124077E+03	1.717190E-15	2.508277E-17
6.134051E+03	1.724539E-15	2.500938E-17
6.144026E+03	1.730966E-15	2.491254E-17
6.154000E+03	1.737288E-15	2.480422E-17
6.163974E+03	1.743075E-15	2.467841E-17
6.173948E+03	1.747900E-15	2.452936E-17
6.183922E+03	1.752584E-15	2.436897E-17
6.193896E+03	1.756699E-15	2.419155E-17
6.203870E+03	1.759815E-15	2.399162E-17
6.213844E+03	1.762761E-15	2.378102E-17
6.223818E+03	1.764687E-15	2.354873E-17
6.233792E+03	1.766423E-15	2.330648E-17
6.243766E+03	1.767119E-15	2.304361E-17
6.253740E+03	1.767608E-15	2.277174E-17
6.263714E+03	1.767039E-15	2.248059E-17
6.273688E+03	1.765823E-15	2.217635E-17
6.283662E+03	1.764375E-15	2.186503E-17
6.293637E+03	1.761844E-15	2.153699E-17
6.303611E+03	1.758645E-15	2.119844E-17
6.313585E+03	1.754774E-15	2.085042E-17
6.323559E+03	1.750640E-15	2.049888E-17
6.333533E+03	1.745407E-15	2.013518E-17
6.343507E+03	1.739489E-15	1.976556E-17
6.353481E+03	1.732885E-15	1.939139E-17
6.363455E+03	1.725596E-15	1.901409E-17
6.373429E+03	1.717626E-15	1.863524E-17
6.383403E+03	1.708979E-15	1.825645E-17
6.393377E+03	1.699662E-15	1.787945E-17
6.403351E+03	1.689683E-15	1.750600E-17
6.413325E+03	1.679057E-15	1.713801E-17
6.423299E+03	1.667402E-15	1.677339E-17
6.433273E+03	1.655531E-15	1.642218E-17
6.443248E+03	1.643066E-15	1.608234E-17
6.453222E+03	1.630033E-15	1.575588E-17
6.463196E+03	1.616079E-15	1.544119E-17
6.473170E+03	1.602009E-15	1.514770E-17
6.483144E+03	1.587480E-15	1.487367E-17
6.493118E+03	1.572178E-15	1.461766E-17
6.503092E+03	1.556929E-15	1.438869E-17
6.513066E+03	1.541434E-15	1.418508E-17
6.523040E+03	1.525377E-15	1.400485E-17
6.533014E+03	1.509127E-15	1.385208E-17
6.542988E+03	1.493040E-15	1.373047E-17
6.552962E+03	1.476424E-15	1.363376E-17
6.562936E+03	1.460013E-15	1.356788E-17
6.572910E+03	1.443155E-15	1.352487E-17
6.582885E+03	1.426249E-15	1.350630E-17
6.592859E+03	1.409677E-15	1.351364E-17
6.602833E+03	1.392821E-15	1.353875E-17
6.612807E+03	1.376069E-15	1.358311E-17
6.622781E+03	1.359476E-15	1.364502E-17
6.632755E+03	1.343093E-15	1.372291E-17
6.642729E+03	1.326974E-15	1.381531E-17
6.652703E+03	1.311478E-15	1.392416E-17
6.662677E+03	1.296033E-15	1.404172E-17
6.672651E+03	1.280997E-15	1.417021E-17
6.682625E+03	1.266420E-15	1.430878E-17
6.692599E+03	1.252048E-15	1.445328E-17
6.702573E+03	1.238520E-15	1.460997E-17
6.712547E+03	1.225575E-15	1.477502E-17
6.722521E+03	1.213251E-15	1.494818E-17
6.732496E+03	1.201582E-15	1.512928E-17
6.742470E+03	1.190601E-15	1.531831E-17
6.752444E+03	1.180058E-15	1.551165E-17
6.762418E+03	1.170540E-15	1.571675E-17
6.772392E+03	1.161791E-15	1.593025E-17
6.782366E+03	1.153559E-15	1.614863E-17
6.792340E+03	1.146412E-15	1.637985E-17
6.802314E+03	1.140094E-15	1.662058E-17
6.812288E+03	1.134351E-15	1.686729E-17
6.822262E+03	1.129734E-15	1.712841E-17
6.832236E+03	1.125721E-15	1.739643E-17
6.842210E+03	1.122852E-15	1.768006E-17
6.852184E+03	1.120605E-15	1.797154E-17
6.862158E+03	1.119250E-15	1.827556E-17
6.872132E+03	1.119059E-15	1.859711E-17
6.882107E+03	1.119504E-15	1.892800E-17
6.892081E+03	1.120851E-15	1.927309E-17
6.902055E+03	1.123365E-15	1.963759E-17
6.912029E+03	1.126516E-15	2.001279E-17
6.922003E+03	1.130564E-15	2.040374E-17
6.931977E+03	1.135506E-15	2.081092E-17
6.941951E+03	1.141335E-15	2.123471E-17
6.951925E+03	1.148046E-15	2.167554E-17
6.961899E+03	1.155901E-15	2.213897E-17
6.971873E+03	1.164345E-15	2.261491E-17
6.981847E+03	1.173638E-15	2.310874E-17
6.991821E+03	1.183763E-15	2.362060E-17
7.001795E+03	1.194707E-15	2.415062E-17
7.011769E+03	1.206161E-15	2.469292E-17
7.021743E+03	1.218676E-15	2.525908E-17
7.031718E+03	1.231945E-15	2.584322E-17
7.041692E+03	1.245942E-15	2.644509E-17
7.051666E+03	1.260637E-15	2.706435E-17
7.061640E+03	1.275999E-15	2.770060E-17
7.071614E+03	1.291685E-15	2.834651E-17
7.081588E+03	1.308270E-15	2.901476E-17
7.091562E+03	1.325409E-15	2.969802E-17
7.101536E+03	1.342738E-15	3.038813E-17
7.111510E+03	1.360846E-15	3.109841E-17
7.121484E+03	1.379368E-15	3.182063E-17
7.131458E+03	1.397919E-15	3.254580E-17
7.141432E+03	1.417104E-15	3.328787E-17
7.151406E+03	1.436193E-15	3.402965E-17
7.161380E+03	1.455809E-15	3.478563E-17
7.171354E+03	1.475198E-15	3.553765E-17
7.181329E+03	1.494640E-15	3.629209E-17
7.191303E+03	1.514432E-15	3.705594E-17
7.201277E+03	1.533789E-15	3.780972E-17
7.211251E+03	1.553002E-15	3.856014E-17
7.221225E+03	1.572384E-15	3.931463E-17
7.231199E+03	1.591121E-15	4.005247E-17
7.241173E+03	1.609523E-15	4.078093E-17
7.251147E+03	1.627528E-15	4.149798E-17
7.261121E+03	1.645475E-15	4.221182E-17
7.271095E+03	1.662524E-15	4.290050E-17
7.281069E+03	1.679017E-15	4.357220E-17
7.291043E+03	1.694906E-15	4.422520E-17
7.301017E+03	1.710153E-15	4.485800E-17
7.310991E+03	1.724722E-15	4.546915E-17
7.320965E+03	1.738587E-15	4.605745E-17
7.330940E+03	1.751723E-15	4.662182E-17
7.340914E+03	1.764117E-15	4.716141E-17
7.350888E+03	1.775759E-15	4.767549E-17
7.360862E+03	1.786646E-15	4.816363E-17
7.370836E+03	1.796785E-15	4.862554E-17
7.380810E+03	1.805749E-15	4.904928E-17
7.390784E+03	1.814428E-15	4.945862E-17
7.400758E+03	1.822408E-15	4.984211E-17
7.410732E+03	1.829722E-15	5.020028E-17
7.420706E+03	1.835957E-15	5.052155E-17
7.430680E+03	1.842040E-15	5.083118E-17
7.440654E+03	1.847571E-15	5.111799E-17
7.450628E+03	1.852146E-15	5.137060E-17
7.460602E+03	1.856711E-15	5.161507E-17
7.470577E+03	1.860869E-15	5.184031E-17
7.480551E+03	1.864215E-15	5.203494E-17
7.490525E+03	1.867705E-15	5.222551E-17
7.500499E+03	1.870475E-15	5.238790E-17
7.510473E+03	1.873474E-15	5.254860E-17
7.520447E+03	1.875827E-15	5.268307E-17
7.530421E+03	1.878481E-15	5.281789E-17
7.540395E+03	1.880554E-15	5.292827E-17
7.550369E+03	1.882989E-15	5.304079E-17
7.560343E+03	1.884899E-15	5.313047E-17
7.570317E+03	1.886765E-15	5.321090E-17
7.580291E+03	1.889072E-15	5.329579E-17
7.590265E+03	1.890918E-15	5.335977E-17
7.600239E+03	1.892783E-15	5.341639E-17
7.610213E+03	1.894682E-15	5.346616E-17
7.620188E+03	1.897092E-15	5.352258E-17
7.630162E+03	1.899097E-15	5.355987E-17
7.640136E+03	1.901167E-15	5.359138E-17
7.650110E+03	1.903312E-15	5.361741E-17
7.660084E+03	1.905533E-15	5.363812E-17
7.670058E+03	1.907836E-15	5.365369E-17
7.680032E+03	1.910220E-15	5.366418E-17
7.690006E+03	1.912685E-15	5.366971E-17
7.699980E+03	1.915229E-15	5.367024E-17
7.709954E+03	1.917851E-15	5.366585E-17
7.719928E+03	1.920544E-15	5.365647E-17
7.729902E+03	1.923305E-15	5.364205E-17
7.739876E+03	1.926128E-15	5.362256E-17
