#wls	flux	fluxerr
1.595851E+03	8.284029E-05	1.300122E-05
1.635747E+03	8.193748E-05	1.275258E-05
1.675643E+03	8.101663E-05	1.250131E-05
1.715540E+03	8.005633E-05	1.224425E-05
1.755436E+03	7.909588E-05	1.198756E-05
1.795332E+03	7.811388E-05	1.172810E-05
1.835228E+03	7.717397E-05	1.147548E-05
1.875125E+03	7.623595E-05	1.122366E-05
1.915021E+03	7.534796E-05	1.097971E-05
1.954917E+03	7.454525E-05	1.074855E-05
1.994813E+03	7.389072E-05	1.053881E-05
2.034710E+03	7.349602E-05	1.036559E-05
2.074606E+03	7.354151E-05	1.025281E-05
2.114502E+03	7.427013E-05	1.023179E-05
2.154399E+03	7.593241E-05	1.033317E-05
2.194295E+03	7.868581E-05	1.057324E-05
2.234191E+03	8.265532E-05	1.096272E-05
2.274087E+03	8.780961E-05	1.149080E-05
2.313984E+03	9.417856E-05	1.215458E-05
2.353880E+03	1.017833E-04	1.294960E-05
2.393776E+03	1.106445E-04	1.387100E-05
2.433672E+03	1.207160E-04	1.490527E-05
2.473569E+03	1.319301E-04	1.603645E-05
2.513465E+03	1.440620E-04	1.723009E-05
2.553361E+03	1.566635E-04	1.842709E-05
2.593258E+03	1.691358E-04	1.955439E-05
2.633154E+03	1.806974E-04	2.052301E-05
2.673050E+03	1.908662E-04	2.128389E-05
2.712946E+03	1.993804E-04	2.181628E-05
2.752843E+03	2.061880E-04	2.212443E-05
2.792739E+03	2.112941E-04	2.221934E-05
2.832635E+03	2.146346E-04	2.210517E-05
2.872531E+03	2.163709E-04	2.180961E-05
2.912428E+03	2.167962E-04	2.137227E-05
2.952324E+03	2.161444E-04	2.082462E-05
2.992220E+03	2.148004E-04	2.021045E-05
3.002194E+03	2.144268E-04	2.005370E-05
3.012168E+03	2.140291E-04	1.989490E-05
3.022142E+03	2.136137E-04	1.973468E-05
3.032116E+03	2.132295E-04	1.957756E-05
3.042091E+03	2.128432E-04	1.942047E-05
3.052065E+03	2.125047E-04	1.926794E-05
3.062039E+03	2.121784E-04	1.911669E-05
3.072013E+03	2.118703E-04	1.896723E-05
3.081987E+03	2.116661E-04	1.882717E-05
3.091961E+03	2.114512E-04	1.868621E-05
3.101935E+03	2.113114E-04	1.855191E-05
3.111909E+03	2.112519E-04	1.842460E-05
3.121883E+03	2.112783E-04	1.830463E-05
3.131857E+03	2.113573E-04	1.818899E-05
3.141831E+03	2.115336E-04	1.808142E-05
3.151805E+03	2.117745E-04	1.797899E-05
3.161779E+03	2.121626E-04	1.788855E-05
3.171753E+03	2.126273E-04	1.780394E-05
3.181728E+03	2.132128E-04	1.772871E-05
3.191702E+03	2.138874E-04	1.766003E-05
3.201676E+03	2.147330E-04	1.760449E-05
3.211650E+03	2.157182E-04	1.755921E-05
3.221624E+03	2.168121E-04	1.752148E-05
3.231598E+03	2.180967E-04	1.749769E-05
3.241572E+03	2.195417E-04	1.748509E-05
3.251546E+03	2.211174E-04	1.748107E-05
3.261520E+03	2.229065E-04	1.749190E-05
3.271494E+03	2.249174E-04	1.751787E-05
3.281468E+03	2.270845E-04	1.755352E-05
3.291442E+03	2.294923E-04	1.760507E-05
3.301416E+03	2.321137E-04	1.767004E-05
3.311390E+03	2.349598E-04	1.774892E-05
3.321364E+03	2.380805E-04	1.784506E-05
3.331339E+03	2.414892E-04	1.795898E-05
3.341313E+03	2.451622E-04	1.808845E-05
3.351287E+03	2.491531E-04	1.823694E-05
3.361261E+03	2.534402E-04	1.840232E-05
3.371235E+03	2.580803E-04	1.858821E-05
3.381209E+03	2.630935E-04	1.879542E-05
3.391183E+03	2.685014E-04	1.902485E-05
3.401157E+03	2.742864E-04	1.927462E-05
3.411131E+03	2.805542E-04	1.955143E-05
3.421105E+03	2.872908E-04	1.985352E-05
3.431079E+03	2.945239E-04	2.018200E-05
3.441053E+03	3.022823E-04	2.053798E-05
3.451027E+03	3.106393E-04	2.092554E-05
3.461001E+03	3.195823E-04	2.134283E-05
3.470975E+03	3.291410E-04	2.179085E-05
3.480950E+03	3.393895E-04	2.227345E-05
3.490924E+03	3.503087E-04	2.278825E-05
3.500898E+03	3.619677E-04	2.333861E-05
3.510872E+03	3.743842E-04	2.392446E-05
3.520846E+03	3.875679E-04	2.454519E-05
3.530820E+03	4.014666E-04	2.519628E-05
3.540794E+03	4.161685E-04	2.588211E-05
3.550768E+03	4.315974E-04	2.659671E-05
3.560742E+03	4.477167E-04	2.733670E-05
3.570716E+03	4.644845E-04	2.809852E-05
3.580690E+03	4.819218E-04	2.888245E-05
3.590664E+03	4.999582E-04	2.968332E-05
3.600638E+03	5.186877E-04	3.050582E-05
3.610612E+03	5.381300E-04	3.135008E-05
3.620586E+03	5.584575E-04	3.222505E-05
3.630561E+03	5.798091E-04	3.313737E-05
3.640535E+03	6.023416E-04	3.409444E-05
3.650509E+03	6.262252E-04	3.510406E-05
3.660483E+03	6.516408E-04	3.617431E-05
3.670457E+03	6.787778E-04	3.731336E-05
3.680431E+03	7.078376E-04	3.852966E-05
3.690405E+03	7.391042E-04	3.983574E-05
3.700379E+03	7.728066E-04	4.124061E-05
3.710353E+03	8.091094E-04	4.274945E-05
3.720327E+03	8.483450E-04	4.437595E-05
3.730301E+03	8.907904E-04	4.613027E-05
3.740275E+03	9.367408E-04	4.802304E-05
3.750249E+03	9.865114E-04	5.006533E-05
3.760223E+03	1.040438E-03	5.226872E-05
3.770197E+03	1.098973E-03	5.465007E-05
3.780172E+03	1.162404E-03	5.721714E-05
3.790146E+03	1.231123E-03	5.998237E-05
3.800120E+03	1.305649E-03	6.296345E-05
3.810094E+03	1.386416E-03	6.617313E-05
3.820068E+03	1.473867E-03	6.962374E-05
3.830042E+03	1.568442E-03	7.332679E-05
3.840016E+03	1.670701E-03	7.729861E-05
3.849990E+03	1.780795E-03	8.153574E-05
3.859964E+03	1.899356E-03	8.605633E-05
3.869938E+03	2.026705E-03	9.086366E-05
3.879912E+03	2.162929E-03	9.594989E-05
3.889886E+03	2.308300E-03	1.013154E-04
3.899860E+03	2.462805E-03	1.069478E-04
3.909834E+03	2.626257E-03	1.128273E-04
3.919808E+03	2.798254E-03	1.189253E-04
3.929783E+03	2.978334E-03	1.252118E-04
3.939757E+03	3.165369E-03	1.316298E-04
3.949731E+03	3.358078E-03	1.381183E-04
3.959705E+03	3.555251E-03	1.446212E-04
3.969679E+03	3.754446E-03	1.510355E-04
3.979653E+03	3.953454E-03	1.572716E-04
3.989627E+03	4.149707E-03	1.632299E-04
3.999601E+03	4.339565E-03	1.687734E-04
4.009575E+03	4.520063E-03	1.737976E-04
4.019549E+03	4.687350E-03	1.781694E-04
4.029523E+03	4.838332E-03	1.817909E-04
4.039497E+03	4.968848E-03	1.845296E-04
4.049471E+03	5.076742E-03	1.863337E-04
4.059445E+03	5.159277E-03	1.871341E-04
4.069420E+03	5.215705E-03	1.869372E-04
4.079394E+03	5.245634E-03	1.857631E-04
4.089368E+03	5.250149E-03	1.836841E-04
4.099342E+03	5.231541E-03	1.808119E-04
4.109316E+03	5.193399E-03	1.772986E-04
4.119290E+03	5.139885E-03	1.733092E-04
4.129264E+03	5.075469E-03	1.690120E-04
4.139238E+03	5.005298E-03	1.645897E-04
4.149212E+03	4.934213E-03	1.602067E-04
4.159186E+03	4.866770E-03	1.560100E-04
4.169160E+03	4.807086E-03	1.521253E-04
4.179134E+03	4.758770E-03	1.486560E-04
4.189108E+03	4.725100E-03	1.456895E-04
4.199082E+03	4.708331E-03	1.432768E-04
4.209056E+03	4.711027E-03	1.414750E-04
4.219031E+03	4.735038E-03	1.403164E-04
4.229005E+03	4.781748E-03	1.398171E-04
4.238979E+03	4.852612E-03	1.399935E-04
4.248953E+03	4.948462E-03	1.408428E-04
4.258927E+03	5.070123E-03	1.423609E-04
4.268901E+03	5.217799E-03	1.445266E-04
4.278875E+03	5.391064E-03	1.473015E-04
4.288849E+03	5.588623E-03	1.506256E-04
4.298823E+03	5.808008E-03	1.544105E-04
4.308797E+03	6.045243E-03	1.585327E-04
4.318771E+03	6.294499E-03	1.628277E-04
4.328745E+03	6.548060E-03	1.670920E-04
4.338719E+03	6.795976E-03	1.710773E-04
4.348693E+03	7.026535E-03	1.745056E-04
4.358667E+03	7.227947E-03	1.771128E-04
4.368642E+03	7.389530E-03	1.786769E-04
4.378616E+03	7.504204E-03	1.790743E-04
4.388590E+03	7.570319E-03	1.783166E-04
4.398564E+03	7.591750E-03	1.765442E-04
4.408538E+03	7.577153E-03	1.740000E-04
4.418512E+03	7.538782E-03	1.709968E-04
4.428486E+03	7.490309E-03	1.678638E-04
4.438460E+03	7.445089E-03	1.649073E-04
4.448434E+03	7.416032E-03	1.624100E-04
4.458408E+03	7.414810E-03	1.606155E-04
4.468382E+03	7.451258E-03	1.597185E-04
4.478356E+03	7.534743E-03	1.598975E-04
4.488330E+03	7.672632E-03	1.612843E-04
4.498304E+03	7.871688E-03	1.639964E-04
4.508278E+03	8.137581E-03	1.681286E-04
4.518253E+03	8.474388E-03	1.737450E-04
4.528227E+03	8.884903E-03	1.808872E-04
4.538201E+03	9.369643E-03	1.895564E-04
4.548175E+03	9.926282E-03	1.997031E-04
4.558149E+03	1.054960E-02	2.112279E-04
4.568123E+03	1.122996E-02	2.239459E-04
4.578097E+03	1.195398E-02	2.376011E-04
4.588071E+03	1.270336E-02	2.518449E-04
4.598045E+03	1.345502E-02	2.662385E-04
4.608019E+03	1.418257E-02	2.802787E-04
4.617993E+03	1.485583E-02	2.933869E-04
4.627967E+03	1.544323E-02	3.049528E-04
4.637941E+03	1.591408E-02	3.143760E-04
4.647915E+03	1.624027E-02	3.210988E-04
4.657889E+03	1.640069E-02	3.246907E-04
4.667864E+03	1.638402E-02	3.249046E-04
4.677838E+03	1.619123E-02	3.217284E-04
4.687812E+03	1.583705E-02	3.154172E-04
4.697786E+03	1.534843E-02	3.064685E-04
4.707760E+03	1.476088E-02	2.955536E-04
4.717734E+03	1.411584E-02	2.834698E-04
4.727708E+03	1.345480E-02	2.710262E-04
4.737682E+03	1.281580E-02	2.589735E-04
4.747656E+03	1.223081E-02	2.479517E-04
4.757630E+03	1.172450E-02	2.384631E-04
4.767604E+03	1.131369E-02	2.308582E-04
4.777578E+03	1.100830E-02	2.253522E-04
4.787552E+03	1.081295E-02	2.220552E-04
4.797526E+03	1.072828E-02	2.209967E-04
4.807500E+03	1.075191E-02	2.221430E-04
4.817475E+03	1.088018E-02	2.254335E-04
4.827449E+03	1.110791E-02	2.307724E-04
4.837423E+03	1.142937E-02	2.380504E-04
4.847397E+03	1.183782E-02	2.471336E-04
4.857371E+03	1.232492E-02	2.578507E-04
4.867345E+03	1.288060E-02	2.699903E-04
4.877319E+03	1.349206E-02	2.832803E-04
4.887293E+03	1.414411E-02	2.973937E-04
4.897267E+03	1.481908E-02	3.119477E-04
4.907241E+03	1.549752E-02	3.265194E-04
4.917215E+03	1.615884E-02	3.406593E-04
4.927189E+03	1.678199E-02	3.539073E-04
4.937163E+03	1.734713E-02	3.658292E-04
4.947137E+03	1.783543E-02	3.760139E-04
4.957112E+03	1.823003E-02	3.840953E-04
4.967086E+03	1.851602E-02	3.897525E-04
4.977060E+03	1.868049E-02	3.927121E-04
4.987034E+03	1.871245E-02	3.927483E-04
4.997008E+03	1.860398E-02	3.897059E-04
5.006982E+03	1.835158E-02	3.835304E-04
5.016956E+03	1.795794E-02	3.743030E-04
5.026930E+03	1.743317E-02	3.622655E-04
5.036904E+03	1.679572E-02	3.478359E-04
5.046878E+03	1.607244E-02	3.316060E-04
5.056852E+03	1.529756E-02	3.143155E-04
5.066826E+03	1.450963E-02	2.967834E-04
5.076800E+03	1.374864E-02	2.798452E-04
5.086774E+03	1.305060E-02	2.642396E-04
5.096748E+03	1.244477E-02	2.505515E-04
5.106723E+03	1.195120E-02	2.391649E-04
5.116697E+03	1.158131E-02	2.302776E-04
5.126671E+03	1.133809E-02	2.239102E-04
5.136645E+03	1.121737E-02	2.199365E-04
5.146619E+03	1.120961E-02	2.181229E-04
5.156593E+03	1.130173E-02	2.181693E-04
5.166567E+03	1.147844E-02	2.197372E-04
5.176541E+03	1.172250E-02	2.224583E-04
5.186515E+03	1.201670E-02	2.259743E-04
5.196489E+03	1.234533E-02	2.299651E-04
5.206463E+03	1.269493E-02	2.341628E-04
5.216437E+03	1.305687E-02	2.383979E-04
5.226411E+03	1.342783E-02	2.426030E-04
5.236385E+03	1.380933E-02	2.468008E-04
5.246359E+03	1.420593E-02	2.510675E-04
5.256334E+03	1.462336E-02	2.554969E-04
5.266308E+03	1.506698E-02	2.601723E-04
5.276282E+03	1.553958E-02	2.651304E-04
5.286256E+03	1.604099E-02	2.703566E-04
5.296230E+03	1.656644E-02	2.757618E-04
5.306204E+03	1.710620E-02	2.811805E-04
5.316178E+03	1.764462E-02	2.863621E-04
5.326152E+03	1.816226E-02	2.910101E-04
5.336126E+03	1.863701E-02	2.948039E-04
5.346100E+03	1.904634E-02	2.974372E-04
5.356074E+03	1.936886E-02	2.986397E-04
5.366048E+03	1.958628E-02	2.982063E-04
5.376022E+03	1.968456E-02	2.960088E-04
5.385996E+03	1.965658E-02	2.920294E-04
5.395970E+03	1.950502E-02	2.863960E-04
5.405945E+03	1.924281E-02	2.793776E-04
5.415919E+03	1.889526E-02	2.714060E-04
5.425893E+03	1.849570E-02	2.630052E-04
5.435867E+03	1.807567E-02	2.546489E-04
5.445841E+03	1.767355E-02	2.468855E-04
5.455815E+03	1.733597E-02	2.403577E-04
5.465789E+03	1.711351E-02	2.357453E-04
5.475763E+03	1.705302E-02	2.336659E-04
5.485737E+03	1.718111E-02	2.344598E-04
5.495711E+03	1.747930E-02	2.378657E-04
5.505685E+03	1.790989E-02	2.433798E-04
5.515659E+03	1.842358E-02	2.503432E-04
5.525633E+03	1.896338E-02	2.579918E-04
5.535607E+03	1.947278E-02	2.655656E-04
5.545581E+03	1.990492E-02	2.724248E-04
5.555556E+03	2.023143E-02	2.781659E-04
5.565530E+03	2.044447E-02	2.826519E-04
5.575504E+03	2.055423E-02	2.859834E-04
5.585478E+03	2.058373E-02	2.884360E-04
5.595452E+03	2.056096E-02	2.903580E-04
5.605426E+03	2.051050E-02	2.920585E-04
5.615400E+03	2.044812E-02	2.937303E-04
5.625374E+03	2.037660E-02	2.953857E-04
5.635348E+03	2.028543E-02	2.968446E-04
5.645322E+03	2.015137E-02	2.977339E-04
5.655296E+03	1.994074E-02	2.975122E-04
5.665270E+03	1.961678E-02	2.955720E-04
5.675244E+03	1.914556E-02	2.913281E-04
5.685218E+03	1.850655E-02	2.843815E-04
5.695192E+03	1.770090E-02	2.746597E-04
5.705167E+03	1.675536E-02	2.624942E-04
5.715141E+03	1.571928E-02	2.485942E-04
5.725115E+03	1.465583E-02	2.339223E-04
5.735089E+03	1.363224E-02	2.195478E-04
5.745063E+03	1.270947E-02	2.064789E-04
5.755037E+03	1.193489E-02	1.955368E-04
5.765011E+03	1.134173E-02	1.873348E-04
5.774985E+03	1.095163E-02	1.823080E-04
5.784959E+03	1.077832E-02	1.807668E-04
5.794933E+03	1.083153E-02	1.829554E-04
5.804907E+03	1.111942E-02	1.890896E-04
5.814881E+03	1.164938E-02	1.993689E-04
5.824855E+03	1.242629E-02	2.139446E-04
5.834829E+03	1.344813E-02	2.328414E-04
5.844804E+03	1.470042E-02	2.558575E-04
5.854778E+03	1.614866E-02	2.824269E-04
5.864752E+03	1.773178E-02	3.114962E-04
5.874726E+03	1.935921E-02	3.414671E-04
5.884700E+03	2.091603E-02	3.702811E-04
5.894674E+03	2.227876E-02	3.956993E-04
5.904648E+03	2.333991E-02	4.157453E-04
5.914622E+03	2.403265E-02	4.291581E-04
5.924596E+03	2.434263E-02	4.356181E-04
5.934570E+03	2.430286E-02	4.356686E-04
5.944544E+03	2.398152E-02	4.305031E-04
5.954518E+03	2.346151E-02	4.215987E-04
5.964492E+03	2.282284E-02	4.103962E-04
5.974466E+03	2.213009E-02	3.980680E-04
5.984440E+03	2.143008E-02	3.854717E-04
5.994415E+03	2.075121E-02	3.731346E-04
6.004389E+03	2.010871E-02	3.613461E-04
6.014363E+03	1.951052E-02	3.502625E-04
6.024337E+03	1.896314E-02	3.400130E-04
6.034311E+03	1.847533E-02	3.307644E-04
6.044285E+03	1.805710E-02	3.227033E-04
6.054259E+03	1.771774E-02	3.160003E-04
6.064233E+03	1.746370E-02	3.107720E-04
6.074207E+03	1.729694E-02	3.070523E-04
6.084181E+03	1.721450E-02	3.047860E-04
6.094155E+03	1.720817E-02	3.038241E-04
6.104129E+03	1.726486E-02	3.039326E-04
6.114103E+03	1.736789E-02	3.048169E-04
6.124077E+03	1.749822E-02	3.061439E-04
6.134051E+03	1.763723E-02	3.075928E-04
6.144026E+03	1.777003E-02	3.089126E-04
6.154000E+03	1.788709E-02	3.099485E-04
6.163974E+03	1.798483E-02	3.106516E-04
6.173948E+03	1.806315E-02	3.110339E-04
6.183922E+03	1.812709E-02	3.111965E-04
6.193896E+03	1.818624E-02	3.113168E-04
6.203870E+03	1.824769E-02	3.115258E-04
6.213844E+03	1.831355E-02	3.118637E-04
6.223818E+03	1.838111E-02	3.122882E-04
6.233792E+03	1.844210E-02	3.126632E-04
6.243766E+03	1.848496E-02	3.127988E-04
6.253740E+03	1.849477E-02	3.124492E-04
6.263714E+03	1.845493E-02	3.113418E-04
6.273688E+03	1.834901E-02	3.092074E-04
6.283662E+03	1.816011E-02	3.057688E-04
6.293637E+03	1.787153E-02	3.007504E-04
6.303611E+03	1.746764E-02	2.938927E-04
6.313585E+03	1.693563E-02	2.849799E-04
6.323559E+03	1.626885E-02	2.738951E-04
6.333533E+03	1.547029E-02	2.606781E-04
6.343507E+03	1.455710E-02	2.456018E-04
6.353481E+03	1.356237E-02	2.292046E-04
6.363455E+03	1.253344E-02	2.122642E-04
6.373429E+03	1.152483E-02	1.956838E-04
6.383403E+03	1.059030E-02	1.803617E-04
6.393377E+03	9.776799E-03	1.670927E-04
6.403351E+03	9.119412E-03	1.564828E-04
6.413325E+03	8.641110E-03	1.489458E-04
6.423299E+03	8.356190E-03	1.447607E-04
6.433273E+03	8.276455E-03	1.441777E-04
6.443248E+03	8.416599E-03	1.475137E-04
6.453222E+03	8.798983E-03	1.552381E-04
6.463196E+03	9.455923E-03	1.680164E-04
6.473170E+03	1.042953E-02	1.867180E-04
6.483144E+03	1.176943E-02	2.123847E-04
6.493118E+03	1.352798E-02	2.461503E-04
6.503092E+03	1.575162E-02	2.890861E-04
6.513066E+03	1.846479E-02	3.418979E-04
6.523040E+03	2.163027E-02	4.041685E-04
6.533014E+03	2.510501E-02	4.734675E-04
6.542988E+03	2.863916E-02	5.452350E-04
6.552962E+03	3.189865E-02	6.131101E-04
6.562936E+03	3.452739E-02	6.700494E-04
6.572910E+03	3.623583E-02	7.100330E-04
6.582885E+03	3.687852E-02	7.296565E-04
6.592859E+03	3.648856E-02	7.289567E-04
6.602833E+03	3.525176E-02	7.110659E-04
6.612807E+03	3.343993E-02	6.810083E-04
6.622781E+03	3.132763E-02	6.440756E-04
6.632755E+03	2.914198E-02	6.047922E-04
6.642729E+03	2.704137E-02	5.664233E-04
6.652703E+03	2.512203E-02	5.310464E-04
6.662677E+03	2.342830E-02	4.997096E-04
6.672651E+03	2.197209E-02	4.727971E-04
6.682625E+03	2.074358E-02	4.502314E-04
6.692599E+03	1.972278E-02	4.317041E-04
6.702573E+03	1.888494E-02	4.167851E-04
6.712547E+03	1.820449E-02	4.050070E-04
6.722521E+03	1.765690E-02	3.959053E-04
6.732496E+03	1.721887E-02	3.890242E-04
6.742470E+03	1.686866E-02	3.839257E-04
6.752444E+03	1.658531E-02	3.801735E-04
6.762418E+03	1.634804E-02	3.773206E-04
6.772392E+03	1.613735E-02	3.749359E-04
6.782366E+03	1.593571E-02	3.726216E-04
6.792340E+03	1.572872E-02	3.700427E-04
6.802314E+03	1.550695E-02	3.669746E-04
6.812288E+03	1.526743E-02	3.633417E-04
6.822262E+03	1.501252E-02	3.591949E-04
6.832236E+03	1.474897E-02	3.546932E-04
6.842210E+03	1.448633E-02	3.500668E-04
6.852184E+03	1.423557E-02	3.455853E-04
6.862158E+03	1.400710E-02	3.415097E-04
6.872132E+03	1.381085E-02	3.380930E-04
6.882107E+03	1.365469E-02	3.355408E-04
6.892081E+03	1.354471E-02	3.340165E-04
6.902055E+03	1.348363E-02	3.336008E-04
6.912029E+03	1.347228E-02	3.343270E-04
6.922003E+03	1.350838E-02	3.361491E-04
6.931977E+03	1.358727E-02	3.389600E-04
6.941951E+03	1.370223E-02	3.425982E-04
6.951925E+03	1.384514E-02	3.468642E-04
6.961899E+03	1.400700E-02	3.515342E-04
6.971873E+03	1.417832E-02	3.563691E-04
6.981847E+03	1.434914E-02	3.611172E-04
6.991821E+03	1.451077E-02	3.655573E-04
7.001795E+03	1.465460E-02	3.694688E-04
7.011769E+03	1.477473E-02	3.727010E-04
7.021743E+03	1.486688E-02	3.751437E-04
7.031718E+03	1.492931E-02	3.767523E-04
7.041692E+03	1.496051E-02	3.774889E-04
7.051666E+03	1.495976E-02	3.773367E-04
7.061640E+03	1.492607E-02	3.762735E-04
7.071614E+03	1.485837E-02	3.742767E-04
7.081588E+03	1.475646E-02	3.713464E-04
7.091562E+03	1.462204E-02	3.675313E-04
7.101536E+03	1.445920E-02	3.629421E-04
7.111510E+03	1.427533E-02	3.577715E-04
7.121484E+03	1.407992E-02	3.522648E-04
7.131458E+03	1.388317E-02	3.466836E-04
7.141432E+03	1.369458E-02	3.412707E-04
7.151406E+03	1.352250E-02	3.362374E-04
7.161380E+03	1.337367E-02	3.317536E-04
7.171354E+03	1.325318E-02	3.279463E-04
7.181329E+03	1.316509E-02	3.249153E-04
7.191303E+03	1.311213E-02	3.227259E-04
7.201277E+03	1.309597E-02	3.214163E-04
7.211251E+03	1.311781E-02	3.210126E-04
7.221225E+03	1.317785E-02	3.215155E-04
7.231199E+03	1.327588E-02	3.229161E-04
7.241173E+03	1.341041E-02	3.251740E-04
7.251147E+03	1.357818E-02	3.282070E-04
7.261121E+03	1.377384E-02	3.318831E-04
7.271095E+03	1.398924E-02	3.360058E-04
7.281069E+03	1.421265E-02	3.402959E-04
7.291043E+03	1.442907E-02	3.443998E-04
7.301017E+03	1.462162E-02	3.479244E-04
7.310991E+03	1.477448E-02	3.505071E-04
7.320965E+03	1.487563E-02	3.518796E-04
7.330940E+03	1.491774E-02	3.518876E-04
7.340914E+03	1.489984E-02	3.505272E-04
7.350888E+03	1.482776E-02	3.479534E-04
7.360862E+03	1.471210E-02	3.444302E-04
7.370836E+03	1.456555E-02	3.402668E-04
7.380810E+03	1.440110E-02	3.357758E-04
7.390784E+03	1.422979E-02	3.312209E-04
7.400758E+03	1.405913E-02	3.267814E-04
7.410732E+03	1.389262E-02	3.225419E-04
7.420706E+03	1.372995E-02	3.184980E-04
7.430680E+03	1.356821E-02	3.145850E-04
7.440654E+03	1.340376E-02	3.107203E-04
7.450628E+03	1.323367E-02	3.068370E-04
7.460602E+03	1.305671E-02	3.029002E-04
7.470577E+03	1.287461E-02	2.989420E-04
7.480551E+03	1.269118E-02	2.950422E-04
7.490525E+03	1.251143E-02	2.913095E-04
7.500499E+03	1.233461E-02	2.877189E-04
7.510473E+03	1.215175E-02	2.840532E-04
7.520447E+03	1.195638E-02	2.801525E-04
7.530421E+03	1.174676E-02	2.759664E-04
7.540395E+03	1.152523E-02	2.715391E-04
7.550369E+03	1.129718E-02	2.669886E-04
7.560343E+03	1.107065E-02	2.624963E-04
7.570317E+03	1.085385E-02	2.582512E-04
7.580291E+03	1.065598E-02	2.544687E-04
7.590265E+03	1.048479E-02	2.513337E-04
7.600239E+03	1.034734E-02	2.490180E-04
7.610213E+03	1.024896E-02	2.476554E-04
7.620188E+03	1.019360E-02	2.473488E-04
7.630162E+03	1.018319E-02	2.481553E-04
7.640136E+03	1.021763E-02	2.500834E-04
7.650110E+03	1.029461E-02	2.530880E-04
7.660084E+03	1.041035E-02	2.570876E-04
7.670058E+03	1.055961E-02	2.619635E-04
7.680032E+03	1.073613E-02	2.675689E-04
7.690006E+03	1.093342E-02	2.737495E-04
7.699980E+03	1.114394E-02	2.803210E-04
7.709954E+03	1.136025E-02	2.870987E-04
7.719928E+03	1.157474E-02	2.938898E-04
7.729902E+03	1.177912E-02	3.004809E-04
7.739876E+03	1.196599E-02	3.066770E-04
