#wls	flux	fluxerr
1.595851E+03	1.682732E-04	7.267143E-05
1.635747E+03	1.690480E-04	7.224461E-05
1.675643E+03	1.699064E-04	7.182648E-05
1.715540E+03	1.708202E-04	7.140349E-05
1.755436E+03	1.718555E-04	7.100163E-05
1.795332E+03	1.730118E-04	7.061839E-05
1.835228E+03	1.742806E-04	7.024790E-05
1.875125E+03	1.756450E-04	6.988110E-05
1.915021E+03	1.770377E-04	6.948948E-05
1.954917E+03	1.785377E-04	6.910250E-05
1.994813E+03	1.800830E-04	6.869413E-05
2.034710E+03	1.818905E-04	6.834451E-05
2.074606E+03	1.841977E-04	6.813628E-05
2.114502E+03	1.874300E-04	6.821475E-05
2.154399E+03	1.920498E-04	6.872767E-05
2.194295E+03	1.982024E-04	6.969928E-05
2.234191E+03	2.057511E-04	7.105178E-05
2.274087E+03	2.143857E-04	7.265112E-05
2.313984E+03	2.236602E-04	7.432527E-05
2.353880E+03	2.332815E-04	7.596342E-05
2.393776E+03	2.430400E-04	7.748906E-05
2.433672E+03	2.526390E-04	7.880420E-05
2.473569E+03	2.619689E-04	7.987651E-05
2.513465E+03	2.709513E-04	8.068631E-05
2.553361E+03	2.794117E-04	8.118881E-05
2.593258E+03	2.872490E-04	8.136567E-05
2.633154E+03	2.942348E-04	8.116705E-05
2.673050E+03	3.002948E-04	8.059200E-05
2.712946E+03	3.053079E-04	7.963045E-05
2.752843E+03	3.092150E-04	7.829253E-05
2.792739E+03	3.119751E-04	7.659547E-05
2.832635E+03	3.135057E-04	7.454819E-05
2.872531E+03	3.139519E-04	7.221392E-05
2.912428E+03	3.134265E-04	6.964459E-05
2.952324E+03	3.121480E-04	6.691185E-05
2.992220E+03	3.102825E-04	6.407021E-05
3.002194E+03	3.097934E-04	6.335886E-05
3.012168E+03	3.092667E-04	6.264155E-05
3.022142E+03	3.087508E-04	6.192829E-05
3.032116E+03	3.082067E-04	6.121128E-05
3.042091E+03	3.076855E-04	6.050085E-05
3.052065E+03	3.071510E-04	5.978984E-05
3.062039E+03	3.066493E-04	5.908728E-05
3.072013E+03	3.061831E-04	5.839356E-05
3.081987E+03	3.057545E-04	5.770892E-05
3.091961E+03	3.053251E-04	5.702604E-05
3.101935E+03	3.049394E-04	5.635323E-05
3.111909E+03	3.045599E-04	5.568342E-05
3.121883E+03	3.042313E-04	5.502477E-05
3.131857E+03	3.039563E-04	5.437752E-05
3.141831E+03	3.037387E-04	5.374211E-05
3.151805E+03	3.035817E-04	5.311885E-05
3.161779E+03	3.034495E-04	5.250128E-05
3.171753E+03	3.033855E-04	5.189677E-05
3.181728E+03	3.033937E-04	5.130571E-05
3.191702E+03	3.034780E-04	5.072841E-05
3.201676E+03	3.036042E-04	5.015889E-05
3.211650E+03	3.038535E-04	4.961028E-05
3.221624E+03	3.041541E-04	4.907040E-05
3.231598E+03	3.045488E-04	4.854590E-05
3.241572E+03	3.050803E-04	4.804308E-05
3.251546E+03	3.056788E-04	4.755045E-05
3.261520E+03	3.063872E-04	4.707435E-05
3.271494E+03	3.072118E-04	4.661526E-05
3.281468E+03	3.081589E-04	4.617363E-05
3.291442E+03	3.092354E-04	4.574995E-05
3.301416E+03	3.104484E-04	4.534473E-05
3.311390E+03	3.118057E-04	4.495850E-05
3.321364E+03	3.133159E-04	4.459190E-05
3.331339E+03	3.150244E-04	4.425065E-05
3.341313E+03	3.168687E-04	4.392525E-05
3.351287E+03	3.189313E-04	4.362650E-05
3.361261E+03	3.211525E-04	4.334538E-05
3.371235E+03	3.236163E-04	4.309254E-05
3.381209E+03	3.263362E-04	4.286874E-05
3.391183E+03	3.292554E-04	4.266559E-05
3.401157E+03	3.324258E-04	4.248901E-05
3.411131E+03	3.359000E-04	4.234471E-05
3.421105E+03	3.396964E-04	4.223381E-05
3.431079E+03	3.437630E-04	4.214871E-05
3.441053E+03	3.481916E-04	4.209962E-05
3.451027E+03	3.529674E-04	4.208347E-05
3.461001E+03	3.581484E-04	4.210592E-05
3.470975E+03	3.637192E-04	4.216378E-05
3.480950E+03	3.696992E-04	4.225804E-05
3.490924E+03	3.761423E-04	4.239353E-05
3.500898E+03	3.830238E-04	4.256609E-05
3.510872E+03	3.903858E-04	4.277914E-05
3.520846E+03	3.981840E-04	4.302656E-05
3.530820E+03	4.064334E-04	4.330901E-05
3.540794E+03	4.150890E-04	4.362077E-05
3.550768E+03	4.240347E-04	4.394918E-05
3.560742E+03	4.331926E-04	4.428624E-05
3.570716E+03	4.423590E-04	4.461179E-05
3.580690E+03	4.513837E-04	4.491215E-05
3.590664E+03	4.601344E-04	4.517623E-05
3.600638E+03	4.686394E-04	4.540921E-05
3.610612E+03	4.770039E-04	4.562343E-05
3.620586E+03	4.854341E-04	4.584024E-05
3.630561E+03	4.940706E-04	4.607389E-05
3.640535E+03	5.029804E-04	4.633123E-05
3.650509E+03	5.123333E-04	4.662821E-05
3.660483E+03	5.221032E-04	4.696256E-05
3.670457E+03	5.324213E-04	4.734609E-05
3.680431E+03	5.432275E-04	4.777271E-05
3.690405E+03	5.545828E-04	4.824651E-05
3.700379E+03	5.664952E-04	4.876676E-05
3.710353E+03	5.790115E-04	4.933606E-05
3.720327E+03	5.920341E-04	4.994460E-05
3.730301E+03	6.055975E-04	5.059392E-05
3.740275E+03	6.196856E-04	5.128124E-05
3.750249E+03	6.343266E-04	5.200739E-05
3.760223E+03	6.493991E-04	5.276095E-05
3.770197E+03	6.649727E-04	5.354611E-05
3.780172E+03	6.809664E-04	5.435483E-05
3.790146E+03	6.973441E-04	5.518273E-05
3.800120E+03	7.141180E-04	5.602922E-05
3.810094E+03	7.311417E-04	5.688128E-05
3.820068E+03	7.484725E-04	5.774189E-05
3.830042E+03	7.660080E-04	5.860154E-05
3.840016E+03	7.836944E-04	5.945458E-05
3.849990E+03	8.015294E-04	6.029930E-05
3.859964E+03	8.193994E-04	6.112554E-05
3.869938E+03	8.372976E-04	6.193130E-05
3.879912E+03	8.550470E-04	6.270201E-05
3.889886E+03	8.727509E-04	6.344384E-05
3.899860E+03	8.901705E-04	6.413799E-05
3.909834E+03	9.073518E-04	6.478658E-05
3.919808E+03	9.242268E-04	6.538348E-05
3.929783E+03	9.406685E-04	6.591863E-05
3.939757E+03	9.566098E-04	6.638640E-05
3.949731E+03	9.720448E-04	6.678560E-05
3.959705E+03	9.869118E-04	6.711130E-05
3.969679E+03	1.001092E-03	6.735496E-05
3.979653E+03	1.014532E-03	6.751270E-05
3.989627E+03	1.027302E-03	6.758920E-05
3.999601E+03	1.039178E-03	6.756982E-05
4.009575E+03	1.050245E-03	6.746047E-05
4.019549E+03	1.060472E-03	6.725978E-05
4.029523E+03	1.069776E-03	6.696332E-05
4.039497E+03	1.078204E-03	6.657498E-05
4.049471E+03	1.085746E-03	6.609553E-05
4.059445E+03	1.092346E-03	6.552288E-05
4.069420E+03	1.098070E-03	6.486283E-05
4.079394E+03	1.102877E-03	6.411473E-05
4.089368E+03	1.106848E-03	6.328549E-05
4.099342E+03	1.110014E-03	6.237896E-05
4.109316E+03	1.112355E-03	6.139636E-05
4.119290E+03	1.113913E-03	6.034269E-05
4.129264E+03	1.114849E-03	5.922921E-05
4.139238E+03	1.115048E-03	5.805252E-05
4.149212E+03	1.114730E-03	5.682696E-05
4.159186E+03	1.113846E-03	5.555279E-05
4.169160E+03	1.112455E-03	5.423609E-05
4.179134E+03	1.110727E-03	5.288822E-05
4.189108E+03	1.108566E-03	5.150760E-05
4.199082E+03	1.106141E-03	5.010561E-05
4.209056E+03	1.103513E-03	4.868828E-05
4.219031E+03	1.100693E-03	4.725964E-05
4.229005E+03	1.097791E-03	4.582824E-05
4.238979E+03	1.094819E-03	4.439848E-05
4.248953E+03	1.091832E-03	4.297705E-05
4.258927E+03	1.088934E-03	4.157276E-05
4.268901E+03	1.086131E-03	4.019095E-05
4.278875E+03	1.083515E-03	3.884086E-05
4.288849E+03	1.081044E-03	3.752741E-05
4.298823E+03	1.078894E-03	3.626402E-05
4.308797E+03	1.076968E-03	3.505552E-05
4.318771E+03	1.075386E-03	3.391515E-05
4.328745E+03	1.074087E-03	3.285129E-05
4.338719E+03	1.073175E-03	3.187868E-05
4.348693E+03	1.072621E-03	3.100900E-05
4.358667E+03	1.072489E-03	3.025747E-05
4.368642E+03	1.072727E-03	2.963670E-05
4.378616E+03	1.073415E-03	2.916297E-05
4.388590E+03	1.074551E-03	2.884980E-05
4.398564E+03	1.076092E-03	2.870837E-05
4.408538E+03	1.078004E-03	2.874816E-05
4.418512E+03	1.080265E-03	2.897388E-05
4.428486E+03	1.082819E-03	2.937873E-05
4.438460E+03	1.085720E-03	2.995479E-05
4.448434E+03	1.088865E-03	3.068777E-05
4.458408E+03	1.092221E-03	3.156398E-05
4.468382E+03	1.095788E-03	3.257001E-05
4.478356E+03	1.099527E-03	3.369126E-05
4.488330E+03	1.103356E-03	3.491222E-05
4.498304E+03	1.107231E-03	3.621898E-05
4.508278E+03	1.111143E-03	3.759954E-05
4.518253E+03	1.115008E-03	3.904029E-05
4.528227E+03	1.118780E-03	4.052960E-05
4.538201E+03	1.122447E-03	4.205789E-05
4.548175E+03	1.125927E-03	4.361368E-05
4.558149E+03	1.129145E-03	4.518615E-05
4.568123E+03	1.132129E-03	4.676916E-05
4.578097E+03	1.134775E-03	4.835179E-05
4.588071E+03	1.137124E-03	4.992936E-05
4.598045E+03	1.139082E-03	5.149211E-05
4.608019E+03	1.140672E-03	5.303542E-05
4.617993E+03	1.141850E-03	5.455234E-05
4.627967E+03	1.142690E-03	5.604161E-05
4.637941E+03	1.143106E-03	5.749473E-05
4.647915E+03	1.143220E-03	5.891386E-05
4.657889E+03	1.142968E-03	6.029223E-05
4.667864E+03	1.142460E-03	6.163239E-05
4.677838E+03	1.141749E-03	6.293446E-05
4.687812E+03	1.140833E-03	6.419602E-05
4.697786E+03	1.139844E-03	6.542242E-05
4.707760E+03	1.138791E-03	6.661274E-05
4.717734E+03	1.137814E-03	6.777379E-05
4.727708E+03	1.136959E-03	6.890766E-05
4.737682E+03	1.136305E-03	7.001845E-05
4.747656E+03	1.135895E-03	7.110868E-05
4.757630E+03	1.135831E-03	7.218467E-05
4.767604E+03	1.136179E-03	7.325080E-05
4.777578E+03	1.136994E-03	7.431106E-05
4.787552E+03	1.138295E-03	7.536715E-05
4.797526E+03	1.140152E-03	7.642424E-05
4.807500E+03	1.142562E-03	7.748266E-05
4.817475E+03	1.145571E-03	7.854614E-05
4.827449E+03	1.149156E-03	7.961362E-05
4.837423E+03	1.153339E-03	8.068705E-05
4.847397E+03	1.158076E-03	8.176358E-05
4.857371E+03	1.163339E-03	8.284145E-05
4.867345E+03	1.169093E-03	8.391821E-05
4.877319E+03	1.175296E-03	8.499058E-05
4.887293E+03	1.181896E-03	8.605463E-05
4.897267E+03	1.188866E-03	8.710794E-05
4.907241E+03	1.196096E-03	8.814186E-05
4.917215E+03	1.203554E-03	8.915336E-05
4.927189E+03	1.211185E-03	9.013754E-05
4.937163E+03	1.218964E-03	9.109167E-05
4.947137E+03	1.226761E-03	9.200519E-05
4.957112E+03	1.234619E-03	9.288037E-05
4.967086E+03	1.242455E-03	9.370987E-05
4.977060E+03	1.250304E-03	9.449550E-05
4.987034E+03	1.258081E-03	9.522979E-05
4.997008E+03	1.265872E-03	9.591838E-05
5.006982E+03	1.273646E-03	9.655805E-05
5.016956E+03	1.281437E-03	9.715050E-05
5.026930E+03	1.289348E-03	9.770274E-05
5.036904E+03	1.297358E-03	9.821227E-05
5.046878E+03	1.305594E-03	9.868795E-05
5.056852E+03	1.314138E-03	9.913512E-05
5.066826E+03	1.323054E-03	9.955758E-05
5.076800E+03	1.332466E-03	9.996360E-05
5.086774E+03	1.342447E-03	1.003575E-04
5.096748E+03	1.353098E-03	1.007455E-04
5.106723E+03	1.364551E-03	1.011359E-04
5.116697E+03	1.376880E-03	1.015323E-04
5.126671E+03	1.390179E-03	1.019397E-04
5.136645E+03	1.404568E-03	1.023646E-04
5.146619E+03	1.420106E-03	1.028085E-04
5.156593E+03	1.436899E-03	1.032763E-04
5.166567E+03	1.454957E-03	1.037656E-04
5.176541E+03	1.474399E-03	1.042811E-04
5.186515E+03	1.495276E-03	1.048228E-04
5.196489E+03	1.517575E-03	1.053855E-04
5.206463E+03	1.541387E-03	1.059710E-04
5.216437E+03	1.566711E-03	1.065747E-04
5.226411E+03	1.593563E-03	1.071928E-04
5.236385E+03	1.621991E-03	1.078232E-04
5.246359E+03	1.651938E-03	1.084570E-04
5.256334E+03	1.683470E-03	1.090930E-04
5.266308E+03	1.716557E-03	1.097237E-04
5.276282E+03	1.751231E-03	1.103455E-04
5.286256E+03	1.787423E-03	1.109483E-04
5.296230E+03	1.825201E-03	1.115307E-04
5.306204E+03	1.864528E-03	1.120847E-04
5.316178E+03	1.905408E-03	1.126050E-04
5.326152E+03	1.947845E-03	1.130864E-04
5.336126E+03	1.991877E-03	1.135257E-04
5.346100E+03	2.037476E-03	1.139164E-04
5.356074E+03	2.084646E-03	1.142536E-04
5.366048E+03	2.133381E-03	1.145330E-04
5.376022E+03	2.183672E-03	1.147501E-04
5.385996E+03	2.235488E-03	1.149001E-04
5.395970E+03	2.288825E-03	1.149805E-04
5.405945E+03	2.343527E-03	1.149822E-04
5.415919E+03	2.399563E-03	1.149037E-04
5.425893E+03	2.456746E-03	1.147379E-04
5.435867E+03	2.514884E-03	1.144796E-04
5.445841E+03	2.573752E-03	1.141246E-04
5.455815E+03	2.633113E-03	1.136713E-04
5.465789E+03	2.692795E-03	1.131239E-04
5.475763E+03	2.752535E-03	1.124862E-04
5.485737E+03	2.812238E-03	1.117724E-04
5.495711E+03	2.871550E-03	1.109903E-04
5.505685E+03	2.930321E-03	1.101594E-04
5.515659E+03	2.988272E-03	1.092992E-04
5.525633E+03	3.045374E-03	1.084419E-04
5.535607E+03	3.101423E-03	1.076175E-04
5.545581E+03	3.156424E-03	1.068669E-04
5.555556E+03	3.210177E-03	1.062273E-04
5.565530E+03	3.262690E-03	1.057455E-04
5.575504E+03	3.313767E-03	1.054633E-04
5.585478E+03	3.363378E-03	1.054285E-04
5.595452E+03	3.411511E-03	1.056884E-04
5.605426E+03	3.457953E-03	1.062818E-04
5.615400E+03	3.502852E-03	1.072542E-04
5.625374E+03	3.546163E-03	1.086318E-04
5.635348E+03	3.587876E-03	1.104139E-04
5.645322E+03	3.628135E-03	1.125928E-04
5.655296E+03	3.667078E-03	1.151537E-04
5.665270E+03	3.704875E-03	1.180775E-04
5.675244E+03	3.741672E-03	1.213409E-04
5.685218E+03	3.777767E-03	1.249228E-04
5.695192E+03	3.813359E-03	1.287983E-04
5.705167E+03	3.848790E-03	1.329476E-04
5.715141E+03	3.884289E-03	1.373485E-04
5.725115E+03	3.920208E-03	1.419849E-04
5.735089E+03	3.956825E-03	1.468405E-04
5.745063E+03	3.994339E-03	1.518990E-04
5.755037E+03	4.032977E-03	1.571471E-04
5.765011E+03	4.072985E-03	1.625753E-04
5.774985E+03	4.114371E-03	1.681664E-04
5.784959E+03	4.157397E-03	1.739157E-04
5.794933E+03	4.201875E-03	1.798013E-04
5.804907E+03	4.247865E-03	1.858127E-04
5.814881E+03	4.295158E-03	1.919283E-04
5.824855E+03	4.343534E-03	1.981264E-04
5.834829E+03	4.392697E-03	2.043814E-04
5.844804E+03	4.442284E-03	2.106644E-04
5.854778E+03	4.491942E-03	2.169458E-04
5.864752E+03	4.541061E-03	2.231830E-04
5.874726E+03	4.589201E-03	2.293403E-04
5.884700E+03	4.635903E-03	2.353803E-04
5.894674E+03	4.680493E-03	2.412535E-04
5.904648E+03	4.722519E-03	2.469207E-04
5.914622E+03	4.761486E-03	2.523399E-04
5.924596E+03	4.796872E-03	2.574673E-04
5.934570E+03	4.828429E-03	2.622733E-04
5.944544E+03	4.855686E-03	2.667165E-04
5.954518E+03	4.878468E-03	2.707721E-04
5.964492E+03	4.896536E-03	2.744124E-04
5.974466E+03	4.909950E-03	2.776274E-04
5.984440E+03	4.918565E-03	2.803969E-04
5.994415E+03	4.922454E-03	2.827142E-04
6.004389E+03	4.921836E-03	2.845825E-04
6.014363E+03	4.916916E-03	2.860060E-04
6.024337E+03	4.907875E-03	2.869887E-04
6.034311E+03	4.895076E-03	2.875471E-04
6.044285E+03	4.878760E-03	2.876917E-04
6.054259E+03	4.859311E-03	2.874430E-04
6.064233E+03	4.837032E-03	2.868180E-04
6.074207E+03	4.812048E-03	2.858239E-04
6.084181E+03	4.784777E-03	2.844866E-04
6.094155E+03	4.755192E-03	2.828061E-04
6.104129E+03	4.723285E-03	2.807846E-04
6.114103E+03	4.688881E-03	2.784146E-04
6.124077E+03	4.651734E-03	2.756858E-04
6.134051E+03	4.611006E-03	2.725533E-04
6.144026E+03	4.565955E-03	2.689790E-04
6.154000E+03	4.515489E-03	2.649058E-04
6.163974E+03	4.458417E-03	2.602738E-04
6.173948E+03	4.393992E-03	2.550516E-04
6.183922E+03	4.322498E-03	2.492705E-04
6.193896E+03	4.245125E-03	2.430154E-04
6.203870E+03	4.163636E-03	2.364033E-04
6.213844E+03	4.079588E-03	2.295381E-04
6.223818E+03	3.994390E-03	2.225129E-04
6.233792E+03	3.909076E-03	2.153980E-04
6.243766E+03	3.824363E-03	2.082437E-04
6.253740E+03	3.740874E-03	2.010939E-04
6.263714E+03	3.658984E-03	1.939772E-04
6.273688E+03	3.579084E-03	1.869216E-04
6.283662E+03	3.501459E-03	1.799482E-04
6.293637E+03	3.426316E-03	1.730728E-04
6.303611E+03	3.353955E-03	1.663142E-04
6.313585E+03	3.284627E-03	1.596874E-04
6.323559E+03	3.218539E-03	1.532036E-04
6.333533E+03	3.156047E-03	1.468791E-04
6.343507E+03	3.097319E-03	1.407194E-04
6.353481E+03	3.042704E-03	1.347368E-04
6.363455E+03	2.992366E-03	1.289326E-04
6.373429E+03	2.946584E-03	1.233114E-04
6.383403E+03	2.905576E-03	1.178728E-04
6.393377E+03	2.869569E-03	1.126150E-04
6.403351E+03	2.838628E-03	1.075275E-04
6.413325E+03	2.812942E-03	1.026032E-04
6.423299E+03	2.792511E-03	9.782655E-05
6.433273E+03	2.777301E-03	9.318020E-05
6.443248E+03	2.767219E-03	8.864458E-05
6.453222E+03	2.761942E-03	8.419363E-05
6.463196E+03	2.760988E-03	7.979897E-05
6.473170E+03	2.763618E-03	7.542917E-05
6.483144E+03	2.768565E-03	7.104587E-05
6.493118E+03	2.774046E-03	6.660948E-05
6.503092E+03	2.777580E-03	6.208116E-05
6.513066E+03	2.776657E-03	5.744449E-05
6.523040E+03	2.770550E-03	5.274294E-05
6.533014E+03	2.760570E-03	4.807299E-05
6.542988E+03	2.748444E-03	4.354726E-05
6.552962E+03	2.735506E-03	3.928790E-05
6.562936E+03	2.722362E-03	3.543626E-05
6.572910E+03	2.709398E-03	3.217421E-05
6.582885E+03	2.696604E-03	2.972352E-05
6.592859E+03	2.684016E-03	2.832222E-05
6.602833E+03	2.671489E-03	2.814911E-05
6.612807E+03	2.658901E-03	2.921286E-05
6.622781E+03	2.646139E-03	3.133504E-05
6.632755E+03	2.633172E-03	3.426786E-05
6.642729E+03	2.619931E-03	3.777385E-05
6.652703E+03	2.606431E-03	4.166336E-05
6.662677E+03	2.592768E-03	4.579818E-05
6.672651E+03	2.579035E-03	5.008094E-05
6.682625E+03	2.565313E-03	5.444368E-05
6.692599E+03	2.551745E-03	5.884060E-05
6.702573E+03	2.538526E-03	6.324207E-05
6.712547E+03	2.525824E-03	6.762859E-05
6.722521E+03	2.513804E-03	7.198853E-05
6.732496E+03	2.502632E-03	7.631612E-05
6.742470E+03	2.492433E-03	8.060876E-05
6.752444E+03	2.483396E-03	8.486941E-05
6.762418E+03	2.475665E-03	8.910251E-05
6.772392E+03	2.469411E-03	9.331578E-05
6.782366E+03	2.464683E-03	9.751414E-05
6.792340E+03	2.461629E-03	1.017078E-04
6.802314E+03	2.460353E-03	1.059061E-04
6.812288E+03	2.460986E-03	1.101211E-04
6.822262E+03	2.463536E-03	1.143597E-04
6.832236E+03	2.468159E-03	1.186362E-04
6.842210E+03	2.474883E-03	1.229594E-04
6.852184E+03	2.483771E-03	1.273401E-04
6.862158E+03	2.494918E-03	1.317907E-04
6.872132E+03	2.508333E-03	1.363195E-04
6.882107E+03	2.524057E-03	1.409361E-04
6.892081E+03	2.542166E-03	1.456524E-04
6.902055E+03	2.562646E-03	1.504747E-04
6.912029E+03	2.585559E-03	1.554135E-04
6.922003E+03	2.610877E-03	1.604739E-04
6.931977E+03	2.638605E-03	1.656622E-04
6.941951E+03	2.668783E-03	1.709867E-04
6.951925E+03	2.701403E-03	1.764522E-04
6.961899E+03	2.736406E-03	1.820597E-04
6.971873E+03	2.773814E-03	1.878149E-04
6.981847E+03	2.813556E-03	1.937166E-04
6.991821E+03	2.855644E-03	1.997687E-04
7.001795E+03	2.900044E-03	2.059715E-04
7.011769E+03	2.946668E-03	2.123207E-04
7.021743E+03	2.995525E-03	2.188183E-04
7.031718E+03	3.046577E-03	2.254623E-04
7.041692E+03	3.099783E-03	2.322500E-04
7.051666E+03	3.155055E-03	2.391746E-04
7.061640E+03	3.212408E-03	2.462363E-04
7.071614E+03	3.271756E-03	2.534272E-04
7.081588E+03	3.333179E-03	2.607517E-04
7.091562E+03	3.396542E-03	2.681971E-04
7.101536E+03	3.461875E-03	2.757631E-04
7.111510E+03	3.529161E-03	2.834451E-04
7.121484E+03	3.598377E-03	2.912379E-04
7.131458E+03	3.669507E-03	2.991363E-04
7.141432E+03	3.742460E-03	3.071286E-04
7.151406E+03	3.817274E-03	3.152132E-04
7.161380E+03	3.893912E-03	3.233819E-04
7.171354E+03	3.972330E-03	3.316259E-04
7.181329E+03	4.052473E-03	3.399347E-04
7.191303E+03	4.134271E-03	3.482962E-04
7.201277E+03	4.217641E-03	3.566972E-04
7.211251E+03	4.302404E-03	3.651156E-04
7.221225E+03	4.388590E-03	3.735469E-04
7.231199E+03	4.475911E-03	3.819593E-04
7.241173E+03	4.564290E-03	3.903384E-04
7.251147E+03	4.653640E-03	3.986692E-04
7.261121E+03	4.743624E-03	4.069147E-04
7.271095E+03	4.834137E-03	4.150580E-04
7.281069E+03	4.924993E-03	4.230751E-04
7.291043E+03	5.016013E-03	4.309424E-04
7.301017E+03	5.107025E-03	4.386375E-04
7.310991E+03	5.197789E-03	4.461318E-04
7.320965E+03	5.288361E-03	4.534227E-04
7.330940E+03	5.378559E-03	4.604871E-04
7.340914E+03	5.468231E-03	4.673052E-04
7.350888E+03	5.557556E-03	4.738854E-04
7.360862E+03	5.646372E-03	4.802072E-04
7.370836E+03	5.734942E-03	4.862870E-04
7.380810E+03	5.823165E-03	4.921098E-04
7.390784E+03	5.911250E-03	4.976876E-04
7.400758E+03	5.999398E-03	5.030314E-04
7.410732E+03	6.087429E-03	5.081202E-04
7.420706E+03	6.175364E-03	5.129507E-04
7.430680E+03	6.262923E-03	5.174944E-04
7.440654E+03	6.349653E-03	5.217094E-04
7.450628E+03	6.434359E-03	5.254947E-04
7.460602E+03	6.515716E-03	5.287413E-04
7.470577E+03	6.591812E-03	5.312966E-04
7.480551E+03	6.660485E-03	5.329929E-04
7.490525E+03	6.719995E-03	5.337025E-04
7.500499E+03	6.770073E-03	5.334195E-04
7.510473E+03	6.812035E-03	5.322640E-04
7.520447E+03	6.848382E-03	5.304460E-04
7.530421E+03	6.881220E-03	5.281396E-04
7.540395E+03	6.912412E-03	5.254953E-04
7.550369E+03	6.943369E-03	5.226245E-04
7.560343E+03	6.974947E-03	5.195935E-04
7.570317E+03	7.008039E-03	5.164688E-04
7.580291E+03	7.042871E-03	5.132655E-04
7.590265E+03	7.079466E-03	5.099833E-04
7.600239E+03	7.118098E-03	5.066397E-04
7.610213E+03	7.158554E-03	5.032172E-04
7.620188E+03	7.200557E-03	4.996944E-04
7.630162E+03	7.244214E-03	4.960749E-04
7.640136E+03	7.289062E-03	4.923228E-04
7.650110E+03	7.335169E-03	4.884391E-04
7.660084E+03	7.382032E-03	4.843876E-04
7.670058E+03	7.429711E-03	4.801707E-04
7.680032E+03	7.477687E-03	4.757541E-04
7.690006E+03	7.525887E-03	4.711342E-04
7.699980E+03	7.574241E-03	4.663083E-04
7.709954E+03	7.622262E-03	4.612496E-04
7.719928E+03	7.669921E-03	4.559612E-04
7.729902E+03	7.717216E-03	4.504490E-04
7.739876E+03	7.763733E-03	4.446962E-04
