#wls	flux	fluxerr
1.588878E+03	1.027945E-18	6.626311E-20
1.628600E+03	1.140051E-18	7.342049E-20
1.668322E+03	1.241732E-18	7.989143E-20
1.708044E+03	1.327076E-18	8.529723E-20
1.747766E+03	1.389265E-18	8.920289E-20
1.787488E+03	1.418680E-18	9.099555E-20
1.827210E+03	1.405214E-18	9.003414E-20
1.866931E+03	1.341252E-18	8.584017E-20
1.906653E+03	1.224937E-18	7.830614E-20
1.946375E+03	1.064473E-18	6.796800E-20
1.986097E+03	8.807706E-19	5.617023E-20
2.025819E+03	7.035718E-19	4.481367E-20
2.065541E+03	5.616220E-19	3.572645E-20
2.105263E+03	4.726465E-19	3.002691E-20
2.144985E+03	4.422957E-19	2.806076E-20
2.184707E+03	4.708652E-19	2.983181E-20
2.224429E+03	5.601624E-19	3.543863E-20
2.264151E+03	7.147397E-19	4.515168E-20
2.303873E+03	9.397253E-19	5.927515E-20
2.343595E+03	1.238821E-18	7.802047E-20
2.383317E+03	1.613099E-18	1.014311E-19
2.423039E+03	2.060882E-18	1.293763E-19
2.462761E+03	2.577128E-18	1.615141E-19
2.502483E+03	3.151904E-18	1.971973E-19
2.542205E+03	3.768030E-18	2.353295E-19
2.581927E+03	4.399026E-18	2.742411E-19
2.621648E+03	5.012794E-18	3.119243E-19
2.661370E+03	5.585202E-18	3.468813E-19
2.701092E+03	6.106662E-18	3.785272E-19
2.740814E+03	6.576119E-18	4.068108E-19
2.780536E+03	6.997027E-18	4.319603E-19
2.820258E+03	7.375783E-18	4.543843E-19
2.859980E+03	7.721545E-18	4.746585E-19
2.899702E+03	8.044753E-18	4.934330E-19
2.939424E+03	8.357365E-18	5.114458E-19
2.979146E+03	8.672249E-18	5.294834E-19
2.989076E+03	8.752794E-18	5.340859E-19
2.999007E+03	8.834718E-18	5.387649E-19
3.008937E+03	8.917962E-18	5.435166E-19
3.018868E+03	9.003382E-18	5.483932E-19
3.028798E+03	9.093747E-18	5.535626E-19
3.038729E+03	9.191384E-18	5.591660E-19
3.048659E+03	9.295944E-18	5.651812E-19
3.058590E+03	9.407353E-18	5.716029E-19
3.068520E+03	9.525162E-18	5.784031E-19
3.078451E+03	9.649129E-18	5.855661E-19
3.088381E+03	9.779207E-18	5.930885E-19
3.098312E+03	9.914966E-18	6.009433E-19
3.108242E+03	1.005661E-17	6.091421E-19
3.118173E+03	1.020380E-17	6.176639E-19
3.128103E+03	1.035670E-17	6.265173E-19
3.138034E+03	1.051535E-17	6.357044E-19
3.147964E+03	1.067984E-17	6.452302E-19
3.157895E+03	1.085017E-17	6.550928E-19
3.167825E+03	1.102648E-17	6.653011E-19
3.177756E+03	1.120913E-17	6.758751E-19
3.187686E+03	1.139798E-17	6.868060E-19
3.197617E+03	1.159352E-17	6.981222E-19
3.207547E+03	1.179571E-17	7.098202E-19
3.217478E+03	1.200440E-17	7.218907E-19
3.227408E+03	1.221949E-17	7.343259E-19
3.237339E+03	1.244099E-17	7.471262E-19
3.247269E+03	1.266788E-17	7.602289E-19
3.257200E+03	1.289966E-17	7.736038E-19
3.267130E+03	1.313485E-17	7.871610E-19
3.277061E+03	1.337212E-17	8.008200E-19
3.286991E+03	1.360958E-17	8.144682E-19
3.296922E+03	1.384484E-17	8.279613E-19
3.306852E+03	1.407549E-17	8.411564E-19
3.316783E+03	1.429851E-17	8.538733E-19
3.326713E+03	1.451069E-17	8.659217E-19
3.336643E+03	1.470914E-17	8.771291E-19
3.346574E+03	1.489082E-17	8.873174E-19
3.356504E+03	1.505279E-17	8.963135E-19
3.366435E+03	1.519269E-17	9.039786E-19
3.376365E+03	1.530868E-17	9.102071E-19
3.386296E+03	1.539962E-17	9.149333E-19
3.396226E+03	1.546487E-17	9.181232E-19
3.406157E+03	1.550487E-17	9.198063E-19
3.416087E+03	1.552016E-17	9.200180E-19
3.426018E+03	1.551234E-17	9.188554E-19
3.435948E+03	1.548327E-17	9.164334E-19
3.445879E+03	1.543428E-17	9.128321E-19
3.455809E+03	1.536746E-17	9.081779E-19
3.465740E+03	1.528396E-17	9.025423E-19
3.475670E+03	1.518511E-17	8.960048E-19
3.485601E+03	1.507164E-17	8.886116E-19
3.495531E+03	1.494374E-17	8.803760E-19
3.505462E+03	1.480162E-17	8.713116E-19
3.515392E+03	1.464480E-17	8.613930E-19
3.525323E+03	1.447326E-17	8.506205E-19
3.535253E+03	1.428679E-17	8.389849E-19
3.545184E+03	1.408586E-17	8.265154E-19
3.555114E+03	1.387115E-17	8.132537E-19
3.565045E+03	1.364403E-17	7.992833E-19
3.574975E+03	1.340713E-17	7.847593E-19
3.584906E+03	1.316337E-17	7.698540E-19
3.594836E+03	1.291682E-17	7.548066E-19
3.604767E+03	1.267246E-17	7.399080E-19
3.614697E+03	1.243563E-17	7.254707E-19
3.624628E+03	1.221217E-17	7.118330E-19
3.634558E+03	1.200839E-17	6.993609E-19
3.644489E+03	1.183051E-17	6.884133E-19
3.654419E+03	1.168445E-17	6.793316E-19
3.664350E+03	1.157594E-17	6.724428E-19
3.674280E+03	1.151018E-17	6.680443E-19
3.684211E+03	1.149169E-17	6.663907E-19
3.694141E+03	1.152456E-17	6.677124E-19
3.704071E+03	1.161163E-17	6.721657E-19
3.714002E+03	1.175497E-17	6.798624E-19
3.723932E+03	1.195555E-17	6.908494E-19
3.733863E+03	1.221313E-17	7.051041E-19
3.743793E+03	1.252563E-17	7.224975E-19
3.753724E+03	1.288960E-17	7.428225E-19
3.763654E+03	1.329965E-17	7.657597E-19
3.773585E+03	1.374832E-17	7.908738E-19
3.783515E+03	1.422647E-17	8.176317E-19
3.793446E+03	1.472346E-17	8.454182E-19
3.803376E+03	1.522726E-17	8.735399E-19
3.813307E+03	1.572543E-17	9.012825E-19
3.823237E+03	1.620560E-17	9.279380E-19
3.833168E+03	1.665683E-17	9.528837E-19
3.843098E+03	1.706933E-17	9.755639E-19
3.853029E+03	1.743602E-17	9.955803E-19
3.862959E+03	1.775211E-17	1.012668E-18
3.872890E+03	1.801561E-17	1.026720E-18
3.882820E+03	1.822713E-17	1.037780E-18
3.892751E+03	1.838902E-17	1.045991E-18
3.902681E+03	1.850533E-17	1.051591E-18
3.912612E+03	1.858134E-17	1.054886E-18
3.922542E+03	1.862237E-17	1.056186E-18
3.932473E+03	1.863437E-17	1.055832E-18
3.942403E+03	1.862297E-17	1.054149E-18
3.952334E+03	1.859324E-17	1.051427E-18
3.962264E+03	1.855019E-17	1.047953E-18
3.972195E+03	1.849758E-17	1.043941E-18
3.982125E+03	1.843896E-17	1.039592E-18
3.992056E+03	1.837690E-17	1.035053E-18
4.001986E+03	1.831356E-17	1.030445E-18
4.011917E+03	1.825016E-17	1.025838E-18
4.021847E+03	1.818766E-17	1.021286E-18
4.031778E+03	1.812622E-17	1.016797E-18
4.041708E+03	1.806598E-17	1.012379E-18
4.051639E+03	1.800657E-17	1.008012E-18
4.061569E+03	1.794787E-17	1.003687E-18
4.071500E+03	1.788950E-17	9.993852E-19
4.081430E+03	1.783145E-17	9.951047E-19
4.091360E+03	1.777409E-17	9.908664E-19
4.101291E+03	1.771782E-17	9.866927E-19
4.111221E+03	1.766369E-17	9.826419E-19
4.121152E+03	1.761282E-17	9.787758E-19
4.131082E+03	1.756703E-17	9.751943E-19
4.141013E+03	1.752825E-17	9.720049E-19
4.150943E+03	1.749904E-17	9.693468E-19
4.160874E+03	1.748273E-17	9.674036E-19
4.170804E+03	1.748266E-17	9.663576E-19
4.180735E+03	1.750307E-17	9.664397E-19
4.190665E+03	1.754911E-17	9.679301E-19
4.200596E+03	1.762592E-17	9.711079E-19
4.210526E+03	1.773959E-17	9.763024E-19
4.220457E+03	1.789634E-17	9.838491E-19
4.230387E+03	1.810234E-17	9.940791E-19
4.240318E+03	1.836395E-17	1.007332E-18
4.250248E+03	1.868661E-17	1.023895E-18
4.260179E+03	1.907445E-17	1.043985E-18
4.270109E+03	1.953069E-17	1.067764E-18
4.280040E+03	2.005616E-17	1.095265E-18
4.289970E+03	2.064930E-17	1.126391E-18
4.299901E+03	2.130596E-17	1.160903E-18
4.309831E+03	2.201786E-17	1.198338E-18
4.319762E+03	2.277344E-17	1.238058E-18
4.329692E+03	2.355708E-17	1.279205E-18
4.339623E+03	2.434943E-17	1.320726E-18
4.349553E+03	2.512806E-17	1.361402E-18
4.359484E+03	2.586871E-17	1.399923E-18
4.369414E+03	2.654624E-17	1.434939E-18
4.379345E+03	2.713733E-17	1.465200E-18
4.389275E+03	2.762150E-17	1.489619E-18
4.399206E+03	2.798396E-17	1.507419E-18
4.409136E+03	2.821543E-17	1.518122E-18
4.419067E+03	2.831355E-17	1.521629E-18
4.428997E+03	2.828253E-17	1.518188E-18
4.438928E+03	2.813259E-17	1.508373E-18
4.448858E+03	2.787812E-17	1.492977E-18
4.458788E+03	2.753745E-17	1.472999E-18
4.468719E+03	2.712990E-17	1.449490E-18
4.478649E+03	2.667518E-17	1.423513E-18
4.488580E+03	2.619273E-17	1.396114E-18
4.498510E+03	2.569963E-17	1.368207E-18
4.508441E+03	2.521033E-17	1.340563E-18
4.518371E+03	2.473608E-17	1.313780E-18
4.528302E+03	2.428541E-17	1.288306E-18
4.538232E+03	2.386385E-17	1.264431E-18
4.548163E+03	2.347375E-17	1.242272E-18
4.558093E+03	2.311623E-17	1.221886E-18
4.568024E+03	2.278984E-17	1.203187E-18
4.577954E+03	2.249237E-17	1.186054E-18
4.587885E+03	2.222141E-17	1.170355E-18
4.597815E+03	2.197383E-17	1.155920E-18
4.607746E+03	2.174689E-17	1.142600E-18
4.617676E+03	2.153851E-17	1.130283E-18
4.627607E+03	2.134690E-17	1.118872E-18
4.637537E+03	2.117127E-17	1.108321E-18
4.647468E+03	2.101119E-17	1.098606E-18
4.657398E+03	2.086639E-17	1.089710E-18
4.667329E+03	2.073716E-17	1.081645E-18
4.677259E+03	2.062309E-17	1.074386E-18
4.687190E+03	2.052349E-17	1.067895E-18
4.697120E+03	2.043731E-17	1.062116E-18
4.707051E+03	2.036284E-17	1.056955E-18
4.716981E+03	2.029761E-17	1.052284E-18
4.726912E+03	2.023995E-17	1.048014E-18
4.736842E+03	2.018761E-17	1.044029E-18
4.746773E+03	2.013887E-17	1.040236E-18
4.756703E+03	2.009324E-17	1.036612E-18
4.766634E+03	2.005044E-17	1.033140E-18
4.776564E+03	2.001183E-17	1.029892E-18
4.786495E+03	1.997914E-17	1.026954E-18
4.796425E+03	1.995500E-17	1.024461E-18
4.806356E+03	1.994264E-17	1.022577E-18
4.816286E+03	1.994509E-17	1.021455E-18
4.826216E+03	1.996540E-17	1.021249E-18
4.836147E+03	2.000636E-17	1.022097E-18
4.846077E+03	2.006995E-17	1.024097E-18
4.856008E+03	2.015722E-17	1.027299E-18
4.865938E+03	2.026877E-17	1.031729E-18
4.875869E+03	2.040422E-17	1.037363E-18
4.885799E+03	2.056247E-17	1.044141E-18
4.895730E+03	2.074175E-17	1.051969E-18
4.905660E+03	2.093952E-17	1.060715E-18
4.915591E+03	2.115312E-17	1.070241E-18
4.925521E+03	2.137945E-17	1.080389E-18
4.935452E+03	2.161440E-17	1.090947E-18
4.945382E+03	2.185399E-17	1.101716E-18
4.955313E+03	2.209385E-17	1.112473E-18
4.965243E+03	2.232865E-17	1.122951E-18
4.975174E+03	2.255351E-17	1.132906E-18
4.985104E+03	2.276282E-17	1.142060E-18
4.995035E+03	2.295115E-17	1.150142E-18
5.004965E+03	2.311331E-17	1.156897E-18
5.014896E+03	2.324478E-17	1.162104E-18
5.024826E+03	2.334109E-17	1.165546E-18
5.034757E+03	2.339947E-17	1.167091E-18
5.044687E+03	2.341776E-17	1.166637E-18
5.054618E+03	2.339435E-17	1.164113E-18
5.064548E+03	2.332956E-17	1.159542E-18
5.074479E+03	2.322402E-17	1.152962E-18
5.084409E+03	2.307963E-17	1.144474E-18
5.094340E+03	2.289856E-17	1.134193E-18
5.104270E+03	2.268368E-17	1.122267E-18
5.114201E+03	2.243810E-17	1.108855E-18
5.124131E+03	2.216522E-17	1.094131E-18
5.134062E+03	2.186807E-17	1.078248E-18
5.143992E+03	2.154920E-17	1.061336E-18
5.153923E+03	2.121104E-17	1.043517E-18
5.163853E+03	2.085566E-17	1.024897E-18
5.173784E+03	2.048501E-17	1.005574E-18
5.183714E+03	2.010052E-17	9.856199E-19
5.193644E+03	1.970391E-17	9.651211E-19
5.203575E+03	1.929663E-17	9.441502E-19
5.213505E+03	1.888046E-17	9.227958E-19
5.223436E+03	1.845755E-17	9.011636E-19
5.233366E+03	1.802983E-17	8.793488E-19
5.243297E+03	1.759965E-17	8.574660E-19
5.253227E+03	1.716897E-17	8.356107E-19
5.263158E+03	1.673974E-17	8.138766E-19
5.273088E+03	1.631355E-17	7.923418E-19
5.283019E+03	1.589182E-17	7.710728E-19
5.292949E+03	1.547520E-17	7.501009E-19
5.302880E+03	1.506411E-17	7.294449E-19
5.312810E+03	1.465872E-17	7.091119E-19
5.322741E+03	1.425908E-17	6.891024E-19
5.332671E+03	1.386539E-17	6.694256E-19
5.342602E+03	1.347790E-17	6.500911E-19
5.352532E+03	1.309726E-17	6.311295E-19
5.362463E+03	1.272510E-17	6.126173E-19
5.372393E+03	1.236329E-17	5.946429E-19
5.382324E+03	1.201437E-17	5.773262E-19
5.392254E+03	1.168176E-17	5.608292E-19
5.402185E+03	1.136886E-17	5.453126E-19
5.412115E+03	1.107976E-17	5.309692E-19
5.422046E+03	1.081810E-17	5.179698E-19
5.431976E+03	1.058775E-17	5.064953E-19
5.441907E+03	1.039206E-17	4.967018E-19
5.451837E+03	1.023364E-17	4.887095E-19
5.461768E+03	1.011395E-17	4.825825E-19
5.471698E+03	1.003203E-17	4.782709E-19
5.481629E+03	9.986288E-18	4.756942E-19
5.491559E+03	9.974265E-18	4.747305E-19
5.501490E+03	9.993610E-18	4.752643E-19
5.511420E+03	1.004166E-17	4.771653E-19
5.521351E+03	1.011574E-17	4.803029E-19
5.531281E+03	1.021278E-17	4.845296E-19
5.541212E+03	1.033001E-17	4.897107E-19
5.551142E+03	1.046463E-17	4.957117E-19
5.561072E+03	1.061358E-17	5.023860E-19
5.571003E+03	1.077426E-17	5.096098E-19
5.580933E+03	1.094371E-17	5.172416E-19
5.590864E+03	1.111950E-17	5.251660E-19
5.600794E+03	1.129888E-17	5.332528E-19
5.610725E+03	1.147910E-17	5.413726E-19
5.620655E+03	1.165791E-17	5.494190E-19
5.630586E+03	1.183227E-17	5.572494E-19
5.640516E+03	1.199958E-17	5.647421E-19
5.650447E+03	1.215707E-17	5.717679E-19
5.660377E+03	1.230212E-17	5.782049E-19
5.670308E+03	1.243174E-17	5.839132E-19
5.680238E+03	1.254355E-17	5.887839E-19
5.690169E+03	1.263499E-17	5.926977E-19
5.700099E+03	1.270385E-17	5.955536E-19
5.710030E+03	1.274827E-17	5.972660E-19
5.719960E+03	1.276694E-17	5.977760E-19
5.729891E+03	1.275860E-17	5.970270E-19
5.739821E+03	1.272308E-17	5.950133E-19
5.749752E+03	1.266035E-17	5.917359E-19
5.759682E+03	1.257110E-17	5.872284E-19
5.769613E+03	1.245649E-17	5.815478E-19
5.779543E+03	1.231816E-17	5.747722E-19
5.789474E+03	1.215826E-17	5.670036E-19
5.799404E+03	1.197877E-17	5.583354E-19
5.809335E+03	1.178241E-17	5.488960E-19
5.819265E+03	1.157163E-17	5.387998E-19
5.829196E+03	1.134917E-17	5.281758E-19
5.839126E+03	1.111741E-17	5.171349E-19
5.849057E+03	1.087930E-17	5.058141E-19
5.858987E+03	1.063735E-17	4.943311E-19
5.868918E+03	1.039426E-17	4.828105E-19
5.878848E+03	1.015272E-17	4.713776E-19
5.888779E+03	9.915598E-18	4.601641E-19
5.898709E+03	9.685485E-18	4.492905E-19
5.908640E+03	9.465098E-18	4.388817E-19
5.918570E+03	9.257185E-18	4.290642E-19
5.928500E+03	9.064023E-18	4.199425E-19
5.938431E+03	8.888205E-18	4.116357E-19
5.948361E+03	8.731375E-18	4.042185E-19
5.958292E+03	8.595332E-18	3.977732E-19
5.968222E+03	8.481114E-18	3.923464E-19
5.978153E+03	8.389488E-18	3.879724E-19
5.988083E+03	8.320494E-18	3.846518E-19
5.998014E+03	8.273834E-18	3.823698E-19
6.007944E+03	8.248348E-18	3.810716E-19
6.017875E+03	8.242800E-18	3.806993E-19
6.027805E+03	8.254870E-18	3.811448E-19
6.037736E+03	8.281861E-18	3.822831E-19
6.047666E+03	8.320646E-18	3.839694E-19
6.057597E+03	8.367545E-18	3.860334E-19
6.067527E+03	8.418455E-18	3.882858E-19
6.077458E+03	8.469361E-18	3.905413E-19
6.087388E+03	8.516162E-18	3.926112E-19
6.097319E+03	8.555504E-18	3.943410E-19
6.107249E+03	8.584325E-18	3.955898E-19
6.117180E+03	8.600804E-18	3.962743E-19
6.127110E+03	8.604623E-18	3.963801E-19
6.137041E+03	8.596478E-18	3.959395E-19
6.146971E+03	8.578917E-18	3.950704E-19
6.156902E+03	8.555878E-18	3.939542E-19
6.166832E+03	8.532654E-18	3.928346E-19
6.176763E+03	8.515680E-18	3.920078E-19
6.186693E+03	8.512161E-18	3.918054E-19
6.196624E+03	8.528925E-18	3.925411E-19
6.206554E+03	8.569410E-18	3.943731E-19
6.216485E+03	8.632697E-18	3.972588E-19
6.226415E+03	8.715851E-18	4.010628E-19
6.236346E+03	8.816292E-18	4.056666E-19
6.246276E+03	8.931248E-18	4.109424E-19
6.256207E+03	9.058258E-18	4.167771E-19
6.266137E+03	9.195173E-18	4.230720E-19
6.276068E+03	9.339927E-18	4.297321E-19
6.285998E+03	9.490404E-18	4.366602E-19
6.295929E+03	9.645216E-18	4.437926E-19
6.305859E+03	9.802941E-18	4.510642E-19
6.315789E+03	9.962357E-18	4.584187E-19
6.325720E+03	1.012227E-17	4.658014E-19
6.335650E+03	1.028173E-17	4.731691E-19
6.345581E+03	1.044019E-17	4.804963E-19
6.355511E+03	1.059653E-17	4.877322E-19
6.365442E+03	1.075011E-17	4.948465E-19
6.375372E+03	1.090008E-17	5.018012E-19
6.385303E+03	1.104559E-17	5.085565E-19
6.395233E+03	1.118574E-17	5.150714E-19
6.405164E+03	1.131962E-17	5.213042E-19
6.415094E+03	1.144616E-17	5.272054E-19
6.425025E+03	1.156482E-17	5.327500E-19
6.434955E+03	1.167446E-17	5.378852E-19
6.444886E+03	1.177469E-17	5.425938E-19
6.454816E+03	1.186461E-17	5.468334E-19
6.464747E+03	1.194416E-17	5.506008E-19
6.474677E+03	1.201293E-17	5.538778E-19
6.484608E+03	1.207073E-17	5.566549E-19
6.494538E+03	1.211813E-17	5.589578E-19
6.504469E+03	1.215533E-17	5.607960E-19
6.514399E+03	1.218291E-17	5.621957E-19
6.524330E+03	1.220161E-17	5.631903E-19
6.534260E+03	1.221243E-17	5.638266E-19
6.544191E+03	1.221592E-17	5.641290E-19
6.554121E+03	1.221341E-17	5.641588E-19
6.564052E+03	1.220566E-17	5.639513E-19
6.573982E+03	1.219363E-17	5.635498E-19
6.583913E+03	1.217822E-17	5.629967E-19
6.593843E+03	1.216052E-17	5.623411E-19
6.603774E+03	1.214116E-17	5.616130E-19
6.613704E+03	1.212096E-17	5.608491E-19
6.623635E+03	1.210066E-17	5.600848E-19
6.633565E+03	1.208119E-17	5.593628E-19
6.643496E+03	1.206307E-17	5.587063E-19
6.653426E+03	1.204693E-17	5.581455E-19
6.663357E+03	1.203358E-17	5.577178E-19
6.673287E+03	1.202337E-17	5.574393E-19
6.683217E+03	1.201677E-17	5.573318E-19
6.693148E+03	1.201433E-17	5.574215E-19
6.703078E+03	1.201612E-17	5.577111E-19
6.713009E+03	1.202244E-17	5.582155E-19
6.722939E+03	1.203308E-17	5.589243E-19
6.732870E+03	1.204804E-17	5.598389E-19
6.742800E+03	1.206662E-17	5.609260E-19
6.752731E+03	1.208898E-17	5.621935E-19
6.762661E+03	1.211393E-17	5.635864E-19
6.772592E+03	1.214142E-17	5.651030E-19
6.782522E+03	1.217010E-17	5.666796E-19
6.792453E+03	1.219979E-17	5.683086E-19
6.802383E+03	1.222902E-17	5.699216E-19
6.812314E+03	1.225737E-17	5.714989E-19
6.822244E+03	1.228401E-17	5.730014E-19
6.832175E+03	1.230790E-17	5.743809E-19
6.842105E+03	1.232849E-17	5.756116E-19
6.852036E+03	1.234486E-17	5.766498E-19
6.861966E+03	1.235658E-17	5.774758E-19
6.871897E+03	1.236289E-17	5.780533E-19
6.881827E+03	1.236353E-17	5.783707E-19
6.891758E+03	1.235794E-17	5.784001E-19
6.901688E+03	1.234607E-17	5.781395E-19
6.911619E+03	1.232753E-17	5.775700E-19
6.921549E+03	1.230248E-17	5.766982E-19
6.931480E+03	1.227091E-17	5.755242E-19
6.941410E+03	1.223268E-17	5.740401E-19
6.951341E+03	1.218792E-17	5.722515E-19
6.961271E+03	1.213724E-17	5.701869E-19
6.971202E+03	1.208012E-17	5.678216E-19
6.981132E+03	1.201745E-17	5.651957E-19
6.991063E+03	1.194890E-17	5.622943E-19
7.000993E+03	1.187459E-17	5.591224E-19
7.010924E+03	1.179483E-17	5.556940E-19
7.020854E+03	1.170964E-17	5.520092E-19
7.030785E+03	1.161876E-17	5.480552E-19
7.040715E+03	1.152232E-17	5.438381E-19
7.050645E+03	1.141996E-17	5.393399E-19
7.060576E+03	1.131172E-17	5.345621E-19
7.070506E+03	1.119717E-17	5.294838E-19
7.080437E+03	1.107631E-17	5.241045E-19
7.090367E+03	1.094895E-17	5.184137E-19
7.100298E+03	1.081467E-17	5.123917E-19
7.110228E+03	1.067357E-17	5.060423E-19
7.120159E+03	1.052539E-17	4.993519E-19
7.130089E+03	1.037038E-17	4.923322E-19
7.140020E+03	1.020870E-17	4.849896E-19
7.149950E+03	1.004042E-17	4.773265E-19
7.159881E+03	9.865954E-18	4.693621E-19
7.169811E+03	9.686054E-18	4.611313E-19
7.179742E+03	9.501396E-18	4.526655E-19
7.189672E+03	9.312776E-18	4.440022E-19
7.199603E+03	9.120716E-18	4.351653E-19
7.209533E+03	8.926796E-18	4.262300E-19
7.219464E+03	8.731691E-18	4.172281E-19
7.229394E+03	8.536507E-18	4.082120E-19
7.239325E+03	8.342545E-18	3.992439E-19
7.249255E+03	8.150892E-18	3.903756E-19
7.259186E+03	7.962420E-18	3.816491E-19
7.269116E+03	7.778291E-18	3.731202E-19
7.279047E+03	7.599232E-18	3.648240E-19
7.288977E+03	7.426219E-18	3.568080E-19
7.298908E+03	7.259795E-18	3.490986E-19
7.308838E+03	7.100725E-18	3.417333E-19
7.318769E+03	6.949511E-18	3.347370E-19
7.328699E+03	6.806411E-18	3.281229E-19
7.338630E+03	6.671756E-18	3.219076E-19
7.348560E+03	6.545931E-18	3.161109E-19
7.358491E+03	6.429090E-18	3.107410E-19
7.368421E+03	6.321149E-18	3.057948E-19
7.378352E+03	6.222081E-18	3.012721E-19
7.388282E+03	6.131913E-18	2.971753E-19
7.398213E+03	6.050422E-18	2.934944E-19
7.408143E+03	5.977164E-18	2.902091E-19
7.418073E+03	5.911889E-18	2.873082E-19
7.428004E+03	5.854008E-18	2.847638E-19
7.437934E+03	5.803158E-18	2.825593E-19
7.447865E+03	5.758685E-18	2.806636E-19
7.457795E+03	5.720057E-18	2.790514E-19
7.467726E+03	5.687036E-18	2.777121E-19
7.477656E+03	5.658744E-18	2.766032E-19
7.487587E+03	5.635040E-18	2.757185E-19
7.497517E+03	5.615622E-18	2.750439E-19
7.507448E+03	5.600221E-18	2.745666E-19
7.517378E+03	5.589108E-18	2.743006E-19
7.527309E+03	5.582707E-18	2.742672E-19
7.537239E+03	5.582191E-18	2.745248E-19
7.547170E+03	5.589693E-18	2.751792E-19
7.557100E+03	5.607823E-18	2.763602E-19
7.567031E+03	5.637919E-18	2.781355E-19
7.576961E+03	5.678144E-18	2.804162E-19
7.586892E+03	5.725230E-18	2.830423E-19
7.596822E+03	5.776182E-18	2.858667E-19
7.606753E+03	5.828456E-18	2.887639E-19
7.616683E+03	5.880818E-18	2.916730E-19
7.626614E+03	5.931709E-18	2.945165E-19
7.636544E+03	5.980107E-18	2.972435E-19
7.646475E+03	6.025145E-18	2.998104E-19
7.656405E+03	6.066204E-18	3.021858E-19
7.666336E+03	6.102575E-18	3.043336E-19
7.676266E+03	6.133444E-18	3.062125E-19
7.686197E+03	6.158195E-18	3.077908E-19
7.696127E+03	6.176425E-18	3.090471E-19
7.706058E+03	6.187475E-18	3.099474E-19
