#wls	flux	fluxerr
1.588878E+03	1.088001E-17	3.374550E-19
1.628600E+03	1.207445E-17	3.738363E-19
1.668322E+03	1.316138E-17	4.067430E-19
1.708044E+03	1.407725E-17	4.342279E-19
1.747766E+03	1.474976E-17	4.540899E-19
1.787488E+03	1.507577E-17	4.632004E-19
1.827210E+03	1.494608E-17	4.582719E-19
1.866931E+03	1.427739E-17	4.368431E-19
1.906653E+03	1.304731E-17	3.983377E-19
1.946375E+03	1.134096E-17	3.454670E-19
1.986097E+03	9.380413E-18	2.850864E-19
2.025819E+03	7.483007E-18	2.268816E-19
2.065541E+03	5.954515E-18	1.800978E-19
2.105263E+03	4.984269E-18	1.503735E-19
2.144985E+03	4.632797E-18	1.394087E-19
2.184707E+03	4.898737E-18	1.470194E-19
2.224429E+03	5.794280E-18	1.734207E-19
2.264151E+03	7.361649E-18	2.197117E-19
2.303873E+03	9.653913E-18	2.872916E-19
2.343595E+03	1.271228E-17	3.771797E-19
2.383317E+03	1.655203E-17	4.896038E-19
2.423039E+03	2.116046E-17	6.239492E-19
2.462761E+03	2.649293E-17	7.786558E-19
2.502483E+03	3.245683E-17	9.507650E-19
2.542205E+03	3.888528E-17	1.135175E-18
2.581927E+03	4.550490E-17	1.323744E-18
2.621648E+03	5.195127E-17	1.505799E-18
2.661370E+03	5.796948E-17	1.673982E-18
2.701092E+03	6.348436E-17	1.826219E-18
2.740814E+03	6.848728E-17	1.962385E-18
2.780536E+03	7.300543E-17	2.083386E-18
2.820258E+03	7.709731E-17	2.191012E-18
2.859980E+03	8.084879E-17	2.287807E-18
2.899702E+03	8.436851E-17	2.376921E-18
2.939424E+03	8.777600E-17	2.461759E-18
2.979146E+03	9.120597E-17	2.546091E-18
2.989076E+03	9.208470E-17	2.567584E-18
2.999007E+03	9.297494E-17	2.589322E-18
3.008937E+03	9.388231E-17	2.611460E-18
3.018868E+03	9.481274E-17	2.634161E-18
3.028798E+03	9.579240E-17	2.658146E-18
3.038729E+03	9.685043E-17	2.684220E-18
3.048659E+03	9.798334E-17	2.712276E-18
3.058590E+03	9.918728E-17	2.742200E-18
3.068520E+03	1.004608E-16	2.773942E-18
3.078451E+03	1.017997E-16	2.807381E-18
3.088381E+03	1.032022E-16	2.842458E-18
3.098312E+03	1.046668E-16	2.879128E-18
3.108242E+03	1.061945E-16	2.917406E-18
3.118173E+03	1.077817E-16	2.957188E-18
3.128103E+03	1.094321E-16	2.998566E-18
3.138034E+03	1.111434E-16	3.041473E-18
3.147964E+03	1.129188E-16	3.085988E-18
3.157895E+03	1.147593E-16	3.132126E-18
3.167825E+03	1.166696E-16	3.180013E-18
3.177756E+03	1.186521E-16	3.229702E-18
3.187686E+03	1.207114E-16	3.281310E-18
3.197617E+03	1.228528E-16	3.334968E-18
3.207547E+03	1.250829E-16	3.390849E-18
3.217478E+03	1.274030E-16	3.448975E-18
3.227408E+03	1.298163E-16	3.509421E-18
3.237339E+03	1.323258E-16	3.572254E-18
3.247269E+03	1.349294E-16	3.637408E-18
3.257200E+03	1.376178E-16	3.704618E-18
3.267130E+03	1.403838E-16	3.773680E-18
3.277061E+03	1.432077E-16	3.844055E-18
3.286991E+03	1.460693E-16	3.915192E-18
3.296922E+03	1.489384E-16	3.986277E-18
3.306852E+03	1.517824E-16	4.056436E-18
3.316783E+03	1.545575E-16	4.124502E-18
3.326713E+03	1.572231E-16	4.189399E-18
3.336643E+03	1.597284E-16	4.249786E-18
3.346574E+03	1.620262E-16	4.304426E-18
3.356504E+03	1.640722E-16	4.352169E-18
3.366435E+03	1.658302E-16	4.392084E-18
3.376365E+03	1.672673E-16	4.423337E-18
3.386296E+03	1.683667E-16	4.445521E-18
3.396226E+03	1.691270E-16	4.458640E-18
3.406157E+03	1.695571E-16	4.462967E-18
3.416087E+03	1.696780E-16	4.459099E-18
3.426018E+03	1.695245E-16	4.447987E-18
3.435948E+03	1.691328E-16	4.430610E-18
3.445879E+03	1.685413E-16	4.408006E-18
3.455809E+03	1.677841E-16	4.381089E-18
3.465740E+03	1.668851E-16	4.350506E-18
3.475670E+03	1.658604E-16	4.316691E-18
3.485601E+03	1.647150E-16	4.279792E-18
3.495531E+03	1.634441E-16	4.239703E-18
3.505462E+03	1.620329E-16	4.196055E-18
3.515392E+03	1.604624E-16	4.148377E-18
3.525323E+03	1.587103E-16	4.096116E-18
3.535253E+03	1.567532E-16	4.038692E-18
3.545184E+03	1.545745E-16	3.975709E-18
3.555114E+03	1.521609E-16	3.906855E-18
3.565045E+03	1.495154E-16	3.832241E-18
3.574975E+03	1.466543E-16	3.752314E-18
3.584906E+03	1.436089E-16	3.667906E-18
3.594836E+03	1.404294E-16	3.580324E-18
3.604767E+03	1.371822E-16	3.491279E-18
3.614697E+03	1.339459E-16	3.402780E-18
3.624628E+03	1.308106E-16	3.317107E-18
3.634558E+03	1.278717E-16	3.236668E-18
3.644489E+03	1.252272E-16	3.163912E-18
3.654419E+03	1.229679E-16	3.101090E-18
3.664350E+03	1.211864E-16	3.050478E-18
3.674280E+03	1.199606E-16	3.013970E-18
3.684211E+03	1.193644E-16	2.993342E-18
3.694141E+03	1.194620E-16	2.990107E-18
3.704071E+03	1.203021E-16	3.005390E-18
3.714002E+03	1.219287E-16	3.040173E-18
3.723932E+03	1.243641E-16	3.094905E-18
3.733863E+03	1.276193E-16	3.169732E-18
3.743793E+03	1.316784E-16	3.264147E-18
3.753724E+03	1.365028E-16	3.377069E-18
3.763654E+03	1.420215E-16	3.506633E-18
3.773585E+03	1.481276E-16	3.650098E-18
3.783515E+03	1.546804E-16	3.803912E-18
3.793446E+03	1.615077E-16	3.963780E-18
3.803376E+03	1.684087E-16	4.124737E-18
3.813307E+03	1.751743E-16	4.281659E-18
3.823237E+03	1.815979E-16	4.429522E-18
3.833168E+03	1.874922E-16	4.563813E-18
3.843098E+03	1.927098E-16	4.681029E-18
3.853029E+03	1.971474E-16	4.778763E-18
3.862959E+03	2.007554E-16	4.855937E-18
3.872890E+03	2.035344E-16	4.912688E-18
3.882820E+03	2.055252E-16	4.950124E-18
3.892751E+03	2.068045E-16	4.970213E-18
3.902681E+03	2.074610E-16	4.975188E-18
3.912612E+03	2.075945E-16	4.967535E-18
3.922542E+03	2.073056E-16	4.949739E-18
3.932473E+03	2.066850E-16	4.924028E-18
3.942403E+03	2.058173E-16	4.892462E-18
3.952334E+03	2.047710E-16	4.856713E-18
3.962264E+03	2.036114E-16	4.818350E-18
3.972195E+03	2.023869E-16	4.778536E-18
3.982125E+03	2.011410E-16	4.738308E-18
3.992056E+03	1.999061E-16	4.698430E-18
4.001986E+03	1.987041E-16	4.659415E-18
4.011917E+03	1.975469E-16	4.621538E-18
4.021847E+03	1.964351E-16	4.584807E-18
4.031778E+03	1.953649E-16	4.549125E-18
4.041708E+03	1.943236E-16	4.514193E-18
4.051639E+03	1.932973E-16	4.479684E-18
4.061569E+03	1.922736E-16	4.445310E-18
4.071500E+03	1.912409E-16	4.410803E-18
4.081430E+03	1.901902E-16	4.375958E-18
4.091360E+03	1.891194E-16	4.340733E-18
4.101291E+03	1.880332E-16	4.305235E-18
4.111221E+03	1.869382E-16	4.269624E-18
4.121152E+03	1.858469E-16	4.234183E-18
4.131082E+03	1.847771E-16	4.199320E-18
4.141013E+03	1.837487E-16	4.165481E-18
4.150943E+03	1.827827E-16	4.133135E-18
4.160874E+03	1.819116E-16	4.103007E-18
4.170804E+03	1.811725E-16	4.075913E-18
4.180735E+03	1.806107E-16	4.052847E-18
4.190665E+03	1.802845E-16	4.035087E-18
4.200596E+03	1.802677E-16	4.024240E-18
4.210526E+03	1.806398E-16	4.022020E-18
4.220457E+03	1.814927E-16	4.030400E-18
4.230387E+03	1.829266E-16	4.051517E-18
4.240318E+03	1.850365E-16	4.087363E-18
4.250248E+03	1.879165E-16	4.139897E-18
4.260179E+03	1.916497E-16	4.210803E-18
4.270109E+03	1.962990E-16	4.301306E-18
4.280040E+03	2.019044E-16	4.412117E-18
4.289970E+03	2.084754E-16	4.543270E-18
4.299901E+03	2.159851E-16	4.694003E-18
4.309831E+03	2.243570E-16	4.862486E-18
4.319762E+03	2.334657E-16	5.045851E-18
4.329692E+03	2.431181E-16	5.239799E-18
4.339623E+03	2.530651E-16	5.438876E-18
4.349553E+03	2.629928E-16	5.636293E-18
4.359484E+03	2.725427E-16	5.824392E-18
4.369414E+03	2.813394E-16	5.995237E-18
4.379345E+03	2.890112E-16	6.141063E-18
4.389275E+03	2.952429E-16	6.255397E-18
4.399206E+03	2.998035E-16	6.333620E-18
4.409136E+03	3.025641E-16	6.373328E-18
4.419067E+03	3.035065E-16	6.374465E-18
4.428997E+03	3.027152E-16	6.339138E-18
4.438928E+03	3.003627E-16	6.271276E-18
4.448858E+03	2.966812E-16	6.175998E-18
4.458788E+03	2.919478E-16	6.059311E-18
4.468719E+03	2.864579E-16	5.927521E-18
4.478649E+03	2.805019E-16	5.786767E-18
4.488580E+03	2.743482E-16	5.642660E-18
4.498510E+03	2.682345E-16	5.500110E-18
4.508441E+03	2.623521E-16	5.363028E-18
4.518371E+03	2.568365E-16	5.234130E-18
4.528302E+03	2.517777E-16	5.115182E-18
4.538232E+03	2.472125E-16	5.006842E-18
4.548163E+03	2.431402E-16	4.909008E-18
4.558093E+03	2.395300E-16	4.820967E-18
4.568024E+03	2.363339E-16	4.741669E-18
4.577954E+03	2.334865E-16	4.669733E-18
4.587885E+03	2.309231E-16	4.603800E-18
4.597815E+03	2.285790E-16	4.542534E-18
4.607746E+03	2.264036E-16	4.484893E-18
4.617676E+03	2.243616E-16	4.430146E-18
4.627607E+03	2.224320E-16	4.377859E-18
4.637537E+03	2.206142E-16	4.327999E-18
4.647468E+03	2.189243E-16	4.280860E-18
4.657398E+03	2.173869E-16	4.236899E-18
4.667329E+03	2.160221E-16	4.196478E-18
4.677259E+03	2.148501E-16	4.159955E-18
4.687190E+03	2.138738E-16	4.127353E-18
4.697120E+03	2.130774E-16	4.098330E-18
4.707051E+03	2.124303E-16	4.072267E-18
4.716981E+03	2.118928E-16	4.048376E-18
4.726912E+03	2.114138E-16	4.025666E-18
4.736842E+03	2.109439E-16	4.003188E-18
4.746773E+03	2.104481E-16	3.980280E-18
4.756703E+03	2.099016E-16	3.956483E-18
4.766634E+03	2.093017E-16	3.931754E-18
4.776564E+03	2.086685E-16	3.906481E-18
4.786495E+03	2.080366E-16	3.881319E-18
4.796425E+03	2.074645E-16	3.857356E-18
4.806356E+03	2.070111E-16	3.835673E-18
4.816286E+03	2.067407E-16	3.817435E-18
4.826216E+03	2.067148E-16	3.803741E-18
4.836147E+03	2.069817E-16	3.795430E-18
4.846077E+03	2.075794E-16	3.793142E-18
4.856008E+03	2.085293E-16	3.797206E-18
4.865938E+03	2.098384E-16	3.807683E-18
4.875869E+03	2.114988E-16	3.824362E-18
4.885799E+03	2.134960E-16	3.846919E-18
4.895730E+03	2.158040E-16	3.874822E-18
4.905660E+03	2.183969E-16	3.907554E-18
4.915591E+03	2.212377E-16	3.944401E-18
4.925521E+03	2.242923E-16	3.984714E-18
4.935452E+03	2.275216E-16	4.027764E-18
4.945382E+03	2.308830E-16	4.072770E-18
4.955313E+03	2.343277E-16	4.118849E-18
4.965243E+03	2.377982E-16	4.164986E-18
4.975174E+03	2.412359E-16	4.210155E-18
4.985104E+03	2.445672E-16	4.253086E-18
4.995035E+03	2.477209E-16	4.292569E-18
5.004965E+03	2.506235E-16	4.327372E-18
5.014896E+03	2.532052E-16	4.356343E-18
5.024826E+03	2.554044E-16	4.378493E-18
5.034757E+03	2.571713E-16	4.393042E-18
5.044687E+03	2.584694E-16	4.399452E-18
5.054618E+03	2.592744E-16	4.397400E-18
5.064548E+03	2.595845E-16	4.386949E-18
5.074479E+03	2.594029E-16	4.368247E-18
5.084409E+03	2.587560E-16	4.341825E-18
5.094340E+03	2.576720E-16	4.308243E-18
5.104270E+03	2.561948E-16	4.268311E-18
5.114201E+03	2.543704E-16	4.222865E-18
5.124131E+03	2.522449E-16	4.172728E-18
5.134062E+03	2.498599E-16	4.118642E-18
5.143992E+03	2.472498E-16	4.061218E-18
5.153923E+03	2.444368E-16	4.000856E-18
5.163853E+03	2.414391E-16	3.937890E-18
5.173784E+03	2.382670E-16	3.872520E-18
5.183714E+03	2.349212E-16	3.804783E-18
5.193644E+03	2.314089E-16	3.734826E-18
5.203575E+03	2.277401E-16	3.662837E-18
5.213505E+03	2.239297E-16	3.589078E-18
5.223436E+03	2.200078E-16	3.514052E-18
5.233366E+03	2.160045E-16	3.438254E-18
5.243297E+03	2.119642E-16	3.362399E-18
5.253227E+03	2.079260E-16	3.287109E-18
5.263158E+03	2.039321E-16	3.213045E-18
5.273088E+03	2.000241E-16	3.140850E-18
5.283019E+03	1.962291E-16	3.070931E-18
5.292949E+03	1.925647E-16	3.003543E-18
5.302880E+03	1.890421E-16	2.938833E-18
5.312810E+03	1.856612E-16	2.876778E-18
5.322741E+03	1.824151E-16	2.817245E-18
5.332671E+03	1.792928E-16	2.760042E-18
5.342602E+03	1.762829E-16	2.704972E-18
5.352532E+03	1.733764E-16	2.651875E-18
5.362463E+03	1.705685E-16	2.600657E-18
5.372393E+03	1.678594E-16	2.551303E-18
5.382324E+03	1.652536E-16	2.503862E-18
5.392254E+03	1.627579E-16	2.458416E-18
5.402185E+03	1.603782E-16	2.415034E-18
5.412115E+03	1.581124E-16	2.373663E-18
5.422046E+03	1.559451E-16	2.334055E-18
5.431976E+03	1.538531E-16	2.295845E-18
5.441907E+03	1.518069E-16	2.258580E-18
5.451837E+03	1.498045E-16	2.222221E-18
5.461768E+03	1.478725E-16	2.187152E-18
5.471698E+03	1.460550E-16	2.154010E-18
5.481629E+03	1.444271E-16	2.123884E-18
5.491559E+03	1.430627E-16	2.097828E-18
5.501490E+03	1.420206E-16	2.076667E-18
5.511420E+03	1.413354E-16	2.060863E-18
5.521351E+03	1.410213E-16	2.050577E-18
5.531281E+03	1.410722E-16	2.045676E-18
5.541212E+03	1.414710E-16	2.045869E-18
5.551142E+03	1.421923E-16	2.050746E-18
5.561072E+03	1.432053E-16	2.059827E-18
5.571003E+03	1.444765E-16	2.072602E-18
5.580933E+03	1.459734E-16	2.088574E-18
5.590864E+03	1.476588E-16	2.107189E-18
5.600794E+03	1.494999E-16	2.127963E-18
5.610725E+03	1.514620E-16	2.150386E-18
5.620655E+03	1.535085E-16	2.173931E-18
5.630586E+03	1.556006E-16	2.198040E-18
5.640516E+03	1.576961E-16	2.222119E-18
5.650447E+03	1.597504E-16	2.245541E-18
5.660377E+03	1.617147E-16	2.267631E-18
5.670308E+03	1.635429E-16	2.287754E-18
5.680238E+03	1.651896E-16	2.305291E-18
5.690169E+03	1.666054E-16	2.319576E-18
5.700099E+03	1.677493E-16	2.330064E-18
5.710030E+03	1.685833E-16	2.336256E-18
5.719960E+03	1.690738E-16	2.337718E-18
5.729891E+03	1.692001E-16	2.334196E-18
5.739821E+03	1.689434E-16	2.325469E-18
5.749752E+03	1.683007E-16	2.311527E-18
5.759682E+03	1.672778E-16	2.292485E-18
5.769613E+03	1.658897E-16	2.268582E-18
5.779543E+03	1.641580E-16	2.240142E-18
5.789474E+03	1.621151E-16	2.207635E-18
5.799404E+03	1.597898E-16	2.171476E-18
5.809335E+03	1.572194E-16	2.132192E-18
5.819265E+03	1.544344E-16	2.090212E-18
5.829196E+03	1.514700E-16	2.046025E-18
5.839126E+03	1.483571E-16	2.000062E-18
5.849057E+03	1.451317E-16	1.952812E-18
5.858987E+03	1.418247E-16	1.904697E-18
5.868918E+03	1.384687E-16	1.856154E-18
5.878848E+03	1.351028E-16	1.807708E-18
5.888779E+03	1.317628E-16	1.759831E-18
5.898709E+03	1.284942E-16	1.713127E-18
5.908640E+03	1.253401E-16	1.668157E-18
5.918570E+03	1.223505E-16	1.625576E-18
5.928500E+03	1.195763E-16	1.586043E-18
5.938431E+03	1.170622E-16	1.550133E-18
5.948361E+03	1.148534E-16	1.518421E-18
5.958292E+03	1.129874E-16	1.491382E-18
5.968222E+03	1.114959E-16	1.469411E-18
5.978153E+03	1.103987E-16	1.452740E-18
5.988083E+03	1.097110E-16	1.441547E-18
5.998014E+03	1.094399E-16	1.435901E-18
6.007944E+03	1.095802E-16	1.435708E-18
6.017875E+03	1.101226E-16	1.440825E-18
6.027805E+03	1.110426E-16	1.450913E-18
6.037736E+03	1.123102E-16	1.465559E-18
6.047666E+03	1.138792E-16	1.484149E-18
6.057597E+03	1.156929E-16	1.505932E-18
6.067527E+03	1.176845E-16	1.530032E-18
6.077458E+03	1.197737E-16	1.555400E-18
6.087388E+03	1.218805E-16	1.580998E-18
6.097319E+03	1.239198E-16	1.605728E-18
6.107249E+03	1.258133E-16	1.628582E-18
6.117180E+03	1.274961E-16	1.648731E-18
6.127110E+03	1.289178E-16	1.665535E-18
6.137041E+03	1.300528E-16	1.678677E-18
6.146971E+03	1.309029E-16	1.688193E-18
6.156902E+03	1.314924E-16	1.694408E-18
6.166832E+03	1.318699E-16	1.697957E-18
6.176763E+03	1.321036E-16	1.699721E-18
6.186693E+03	1.322726E-16	1.700721E-18
6.196624E+03	1.324524E-16	1.701926E-18
6.206554E+03	1.327005E-16	1.704076E-18
6.216485E+03	1.330479E-16	1.707563E-18
6.226415E+03	1.335083E-16	1.712561E-18
6.236346E+03	1.340873E-16	1.719138E-18
6.246276E+03	1.347850E-16	1.727291E-18
6.256207E+03	1.355951E-16	1.736940E-18
6.266137E+03	1.365075E-16	1.747948E-18
6.276068E+03	1.375089E-16	1.760149E-18
6.285998E+03	1.385880E-16	1.773392E-18
6.295929E+03	1.397284E-16	1.787469E-18
6.305859E+03	1.409237E-16	1.802296E-18
6.315789E+03	1.421641E-16	1.817746E-18
6.325720E+03	1.434450E-16	1.833763E-18
6.335650E+03	1.447589E-16	1.850247E-18
6.345581E+03	1.460995E-16	1.867120E-18
6.355511E+03	1.474615E-16	1.884312E-18
6.365442E+03	1.488351E-16	1.901701E-18
6.375372E+03	1.502065E-16	1.919106E-18
6.385303E+03	1.515655E-16	1.936400E-18
6.395233E+03	1.528919E-16	1.953323E-18
6.405164E+03	1.541681E-16	1.969651E-18
6.415094E+03	1.553806E-16	1.985211E-18
6.425025E+03	1.565067E-16	1.999713E-18
6.434955E+03	1.575340E-16	2.012997E-18
6.444886E+03	1.584422E-16	2.024804E-18
6.454816E+03	1.592207E-16	2.034997E-18
6.464747E+03	1.598619E-16	2.043479E-18
6.474677E+03	1.603553E-16	2.050113E-18
6.484608E+03	1.607039E-16	2.054935E-18
6.494538E+03	1.609077E-16	2.057946E-18
6.504469E+03	1.609734E-16	2.059226E-18
6.514399E+03	1.609106E-16	2.058900E-18
6.524330E+03	1.607345E-16	2.057158E-18
6.534260E+03	1.604565E-16	2.054144E-18
6.544191E+03	1.600914E-16	2.050046E-18
6.554121E+03	1.596542E-16	2.045054E-18
6.564052E+03	1.591614E-16	2.039379E-18
6.573982E+03	1.586240E-16	2.033159E-18
6.583913E+03	1.580568E-16	2.026582E-18
6.593843E+03	1.574686E-16	2.019760E-18
6.603774E+03	1.568726E-16	2.012862E-18
6.613704E+03	1.562763E-16	2.005983E-18
6.623635E+03	1.556895E-16	1.999250E-18
6.633565E+03	1.551246E-16	1.992817E-18
6.643496E+03	1.545911E-16	1.986811E-18
6.653426E+03	1.540963E-16	1.981324E-18
6.663357E+03	1.536497E-16	1.976478E-18
6.673287E+03	1.532628E-16	1.972423E-18
6.683217E+03	1.529440E-16	1.969265E-18
6.693148E+03	1.526974E-16	1.967062E-18
6.703078E+03	1.525307E-16	1.965911E-18
6.713009E+03	1.524464E-16	1.965847E-18
6.722939E+03	1.524420E-16	1.966841E-18
6.732870E+03	1.525146E-16	1.968857E-18
6.742800E+03	1.526644E-16	1.971898E-18
6.752731E+03	1.528785E-16	1.975800E-18
6.762661E+03	1.531474E-16	1.980442E-18
6.772592E+03	1.534625E-16	1.985717E-18
6.782522E+03	1.538120E-16	1.991469E-18
6.792453E+03	1.541827E-16	1.997535E-18
6.802383E+03	1.545589E-16	2.003707E-18
6.812314E+03	1.549298E-16	2.009848E-18
6.822244E+03	1.552795E-16	2.015754E-18
6.832175E+03	1.556009E-16	2.021332E-18
6.842105E+03	1.558739E-16	2.026321E-18
6.852036E+03	1.560963E-16	2.030690E-18
6.861966E+03	1.562529E-16	2.034244E-18
6.871897E+03	1.563385E-16	2.036913E-18
6.881827E+03	1.563467E-16	2.038613E-18
6.891758E+03	1.562699E-16	2.039243E-18
6.901688E+03	1.561080E-16	2.038800E-18
6.911619E+03	1.558597E-16	2.037265E-18
6.921549E+03	1.555252E-16	2.034641E-18
6.931480E+03	1.551036E-16	2.030910E-18
6.941410E+03	1.546006E-16	2.026150E-18
6.951341E+03	1.540173E-16	2.020369E-18
6.961271E+03	1.533610E-16	2.013663E-18
6.971202E+03	1.526362E-16	2.006088E-18
6.981132E+03	1.518471E-16	1.997699E-18
6.991063E+03	1.509945E-16	1.988504E-18
7.000993E+03	1.500844E-16	1.978579E-18
7.010924E+03	1.491185E-16	1.967947E-18
7.020854E+03	1.480976E-16	1.956614E-18
7.030785E+03	1.470182E-16	1.944534E-18
7.040715E+03	1.458813E-16	1.931717E-18
7.050645E+03	1.446812E-16	1.918085E-18
7.060576E+03	1.434194E-16	1.903656E-18
7.070506E+03	1.420854E-16	1.888287E-18
7.080437E+03	1.406738E-16	1.871902E-18
7.090367E+03	1.391847E-16	1.854498E-18
7.100298E+03	1.376071E-16	1.835925E-18
7.110228E+03	1.359362E-16	1.816115E-18
7.120159E+03	1.341740E-16	1.795087E-18
7.130089E+03	1.323127E-16	1.772731E-18
7.140020E+03	1.303548E-16	1.749072E-18
7.149950E+03	1.282992E-16	1.724091E-18
7.159881E+03	1.261526E-16	1.697869E-18
7.169811E+03	1.239214E-16	1.670485E-18
7.179742E+03	1.216142E-16	1.642049E-18
7.189672E+03	1.192395E-16	1.612668E-18
7.199603E+03	1.168131E-16	1.582547E-18
7.209533E+03	1.143474E-16	1.551850E-18
7.219464E+03	1.118611E-16	1.520826E-18
7.229394E+03	1.093714E-16	1.489704E-18
7.239325E+03	1.068959E-16	1.458719E-18
7.249255E+03	1.044497E-16	1.428077E-18
7.259186E+03	1.020496E-16	1.398008E-18
7.269116E+03	9.971596E-17	1.368790E-18
7.279047E+03	9.745837E-17	1.340557E-18
7.288977E+03	9.528953E-17	1.313488E-18
7.298908E+03	9.322462E-17	1.287797E-18
7.308838E+03	9.126675E-17	1.263532E-18
7.318769E+03	8.943014E-17	1.240898E-18
7.328699E+03	8.771766E-17	1.219944E-18
7.338630E+03	8.613729E-17	1.200788E-18
7.348560E+03	8.469224E-17	1.183488E-18
7.358491E+03	8.338883E-17	1.168142E-18
7.368421E+03	8.223041E-17	1.154810E-18
7.378352E+03	8.121714E-17	1.143508E-18
7.388282E+03	8.034961E-17	1.134258E-18
7.398213E+03	7.963015E-17	1.127109E-18
7.408143E+03	7.905182E-17	1.121977E-18
7.418073E+03	7.860964E-17	1.118804E-18
7.428004E+03	7.829895E-17	1.117538E-18
7.437934E+03	7.811251E-17	1.118089E-18
7.447865E+03	7.804071E-17	1.120334E-18
7.457795E+03	7.807758E-17	1.124199E-18
7.467726E+03	7.821555E-17	1.129588E-18
7.477656E+03	7.844529E-17	1.136378E-18
7.487587E+03	7.876116E-17	1.144499E-18
7.497517E+03	7.915310E-17	1.153816E-18
7.507448E+03	7.961355E-17	1.164227E-18
7.517378E+03	8.012858E-17	1.175538E-18
7.527309E+03	8.068473E-17	1.187559E-18
7.537239E+03	8.126242E-17	1.200006E-18
7.547170E+03	8.183685E-17	1.212515E-18
7.557100E+03	8.238501E-17	1.224743E-18
7.567031E+03	8.288079E-17	1.236297E-18
7.576961E+03	8.333093E-17	1.247270E-18
7.586892E+03	8.374466E-17	1.257792E-18
7.596822E+03	8.412744E-17	1.267941E-18
7.606753E+03	8.448429E-17	1.277785E-18
7.616683E+03	8.481836E-17	1.287370E-18
7.626614E+03	8.512696E-17	1.296648E-18
7.636544E+03	8.540233E-17	1.305498E-18
7.646475E+03	8.563907E-17	1.313829E-18
7.656405E+03	8.582837E-17	1.321500E-18
7.666336E+03	8.595861E-17	1.328321E-18
7.676266E+03	8.602025E-17	1.334134E-18
7.686197E+03	8.600626E-17	1.338817E-18
7.696127E+03	8.590790E-17	1.342219E-18
7.706058E+03	8.571506E-17	1.344165E-18
