#wls	flux	fluxerr
1.588878E+03	5.241684E-17	2.243540E-19
1.628600E+03	5.750724E-17	2.461418E-19
1.668322E+03	6.193747E-17	2.651040E-19
1.708044E+03	6.542905E-17	2.800486E-19
1.747766E+03	6.767939E-17	2.896805E-19
1.787488E+03	6.825109E-17	2.921275E-19
1.827210E+03	6.672930E-17	2.856139E-19
1.866931E+03	6.282697E-17	2.689113E-19
1.906653E+03	5.655383E-17	2.420610E-19
1.946375E+03	4.839125E-17	2.071236E-19
1.986097E+03	3.937687E-17	1.685404E-19
2.025819E+03	3.088702E-17	1.322022E-19
2.065541E+03	2.417553E-17	1.034758E-19
2.105263E+03	1.993833E-17	8.533978E-20
2.144985E+03	1.827237E-17	7.820916E-20
2.184707E+03	1.906232E-17	8.159032E-20
2.224429E+03	2.230345E-17	9.546296E-20
2.264151E+03	2.823329E-17	1.208438E-19
2.303873E+03	3.711308E-17	1.588509E-19
2.343595E+03	4.907084E-17	2.100323E-19
2.383317E+03	6.415841E-17	2.746100E-19
2.423039E+03	8.231228E-17	3.523119E-19
2.462761E+03	1.033328E-16	4.422837E-19
2.502483E+03	1.268063E-16	5.427545E-19
2.542205E+03	1.520575E-16	6.508346E-19
2.581927E+03	1.781482E-16	7.625075E-19
2.621648E+03	2.041987E-16	8.740083E-19
2.661370E+03	2.292373E-16	9.811785E-19
2.701092E+03	2.525066E-16	1.080775E-18
2.740814E+03	2.737001E-16	1.171487E-18
2.780536E+03	2.927806E-16	1.253155E-18
2.820258E+03	3.099257E-16	1.326540E-18
2.859980E+03	3.254390E-16	1.392940E-18
2.899702E+03	3.397680E-16	1.454270E-18
2.939424E+03	3.534332E-16	1.512760E-18
2.979146E+03	3.670320E-16	1.570965E-18
2.989076E+03	3.704980E-16	1.585800E-18
2.999007E+03	3.740124E-16	1.600843E-18
3.008937E+03	3.775961E-16	1.616182E-18
3.018868E+03	3.812682E-16	1.631899E-18
3.028798E+03	3.851451E-16	1.648492E-18
3.038729E+03	3.893393E-16	1.666444E-18
3.048659E+03	3.938384E-16	1.685702E-18
3.058590E+03	3.986358E-16	1.706235E-18
3.068520E+03	4.037306E-16	1.728042E-18
3.078451E+03	4.090967E-16	1.751010E-18
3.088381E+03	4.147385E-16	1.775158E-18
3.098312E+03	4.206630E-16	1.800516E-18
3.108242E+03	4.268605E-16	1.827042E-18
3.118173E+03	4.333331E-16	1.854746E-18
3.128103E+03	4.400848E-16	1.883645E-18
3.138034E+03	4.471221E-16	1.913765E-18
3.147964E+03	4.544533E-16	1.945144E-18
3.157895E+03	4.620884E-16	1.977824E-18
3.167825E+03	4.700498E-16	2.011900E-18
3.177756E+03	4.783318E-16	2.047349E-18
3.183710E+03	5.076256E-16	2.172732E-18
3.185650E+03	5.066136E-16	2.168400E-18
3.187590E+03	5.054644E-16	2.163481E-18
3.189520E+03	5.046752E-16	2.160103E-18
3.191460E+03	5.037609E-16	2.156190E-18
3.193400E+03	5.028307E-16	2.152209E-18
3.195330E+03	5.022615E-16	2.149772E-18
3.197270E+03	5.018740E-16	2.148114E-18
3.199210E+03	5.012155E-16	2.145295E-18
3.201140E+03	5.007368E-16	2.143247E-18
3.203080E+03	5.007682E-16	2.143381E-18
3.205010E+03	5.007172E-16	2.143162E-18
3.206950E+03	5.006077E-16	2.142694E-18
3.208890E+03	5.003403E-16	2.141549E-18
3.210820E+03	5.003209E-16	2.141466E-18
3.212760E+03	5.005210E-16	2.142323E-18
3.214700E+03	5.007886E-16	2.143468E-18
3.216630E+03	5.012622E-16	2.145495E-18
3.218570E+03	5.021973E-16	2.149498E-18
3.220510E+03	5.037155E-16	2.155996E-18
3.222440E+03	5.053065E-16	2.162806E-18
3.224380E+03	5.069299E-16	2.169754E-18
3.226320E+03	5.092635E-16	2.179742E-18
3.228250E+03	5.117539E-16	2.190402E-18
3.230190E+03	5.140380E-16	2.200178E-18
3.232130E+03	5.164393E-16	2.210456E-18
3.234060E+03	5.188009E-16	2.220564E-18
3.236000E+03	5.217525E-16	2.233197E-18
3.237929E+03	5.250315E-16	2.247232E-18
3.239870E+03	5.282375E-16	2.260954E-18
3.241810E+03	5.312621E-16	2.273900E-18
3.243740E+03	5.340861E-16	2.285988E-18
3.245680E+03	5.368573E-16	2.297849E-18
3.247620E+03	5.398943E-16	2.310848E-18
3.249550E+03	5.429377E-16	2.323874E-18
3.251490E+03	5.467412E-16	2.340154E-18
3.253430E+03	5.512600E-16	2.359495E-18
3.255360E+03	5.554470E-16	2.377416E-18
3.257300E+03	5.592181E-16	2.393557E-18
3.259240E+03	5.625625E-16	2.407872E-18
3.261170E+03	5.657847E-16	2.421663E-18
3.263110E+03	5.694913E-16	2.437528E-18
3.265040E+03	5.725609E-16	2.450667E-18
3.266980E+03	5.759361E-16	2.465113E-18
3.268920E+03	5.791925E-16	2.479051E-18
3.270850E+03	5.820196E-16	2.491152E-18
3.272790E+03	5.842286E-16	2.500607E-18
3.274730E+03	5.867436E-16	2.511372E-18
3.276660E+03	5.894657E-16	2.523023E-18
3.278600E+03	5.917090E-16	2.532624E-18
3.280540E+03	5.941930E-16	2.543256E-18
3.282470E+03	5.966491E-16	2.553769E-18
3.284410E+03	5.990105E-16	2.563876E-18
3.286350E+03	6.013781E-16	2.574010E-18
3.288280E+03	6.045374E-16	2.587532E-18
3.290219E+03	6.073215E-16	2.599448E-18
3.292160E+03	6.097939E-16	2.610031E-18
3.294090E+03	6.128401E-16	2.623069E-18
3.296030E+03	6.156764E-16	2.635209E-18
3.297960E+03	6.188067E-16	2.648607E-18
3.299900E+03	6.221546E-16	2.662937E-18
3.301840E+03	6.251367E-16	2.675701E-18
3.303770E+03	6.280006E-16	2.687959E-18
3.305710E+03	6.316945E-16	2.703770E-18
3.307650E+03	6.351910E-16	2.718735E-18
3.309580E+03	6.390070E-16	2.735068E-18
3.311520E+03	6.432894E-16	2.753398E-18
3.313460E+03	6.483660E-16	2.775127E-18
3.315390E+03	6.534822E-16	2.797025E-18
3.317330E+03	6.589525E-16	2.820439E-18
3.319270E+03	6.641963E-16	2.842883E-18
3.321200E+03	6.688767E-16	2.862916E-18
3.323140E+03	6.734014E-16	2.882283E-18
3.325070E+03	6.784277E-16	2.903796E-18
3.327010E+03	6.834535E-16	2.925308E-18
3.328950E+03	6.888011E-16	2.948196E-18
3.330880E+03	6.946140E-16	2.973077E-18
3.332820E+03	7.000858E-16	2.996497E-18
3.334760E+03	7.059344E-16	3.021530E-18
3.336690E+03	7.123687E-16	3.049070E-18
3.338630E+03	7.185152E-16	3.075378E-18
3.340570E+03	7.245888E-16	3.101374E-18
3.342500E+03	7.310540E-16	3.129047E-18
3.344440E+03	7.370822E-16	3.154849E-18
3.346380E+03	7.427946E-16	3.179299E-18
3.348310E+03	7.492115E-16	3.206764E-18
3.350250E+03	7.554566E-16	3.233494E-18
3.352180E+03	7.611847E-16	3.258012E-18
3.354120E+03	7.669202E-16	3.282561E-18
3.356060E+03	7.725247E-16	3.306549E-18
3.357990E+03	7.778462E-16	3.329326E-18
3.359930E+03	7.827804E-16	3.350445E-18
3.361870E+03	7.878731E-16	3.372243E-18
3.363800E+03	7.932646E-16	3.395319E-18
3.365740E+03	7.988191E-16	3.419094E-18
3.367680E+03	8.039816E-16	3.441190E-18
3.369610E+03	8.085888E-16	3.460910E-18
3.371550E+03	8.132012E-16	3.480652E-18
3.373490E+03	8.179719E-16	3.501071E-18
3.375420E+03	8.216319E-16	3.516737E-18
3.377359E+03	8.252937E-16	3.532410E-18
3.379290E+03	8.293488E-16	3.549766E-18
3.381230E+03	8.329304E-16	3.565097E-18
3.383170E+03	8.368287E-16	3.581782E-18
3.385100E+03	8.398483E-16	3.594706E-18
3.387040E+03	8.419142E-16	3.603549E-18
3.388980E+03	8.438977E-16	3.612038E-18
3.390910E+03	8.458741E-16	3.620498E-18
3.392850E+03	8.482494E-16	3.630664E-18
3.394789E+03	8.509407E-16	3.642184E-18
3.396720E+03	8.538670E-16	3.654709E-18
3.398660E+03	8.575136E-16	3.670317E-18
3.400600E+03	8.607584E-16	3.684206E-18
3.402530E+03	8.624786E-16	3.691568E-18
3.404470E+03	8.640375E-16	3.698240E-18
3.406410E+03	8.660741E-16	3.706957E-18
3.408340E+03	8.683443E-16	3.716675E-18
3.410280E+03	8.701336E-16	3.724333E-18
3.412210E+03	8.714336E-16	3.729897E-18
3.414150E+03	8.732157E-16	3.737525E-18
3.416090E+03	8.749941E-16	3.745137E-18
3.418020E+03	8.760419E-16	3.749622E-18
3.419960E+03	8.769273E-16	3.753411E-18
3.421900E+03	8.776467E-16	3.756490E-18
3.423830E+03	8.780361E-16	3.758157E-18
3.425770E+03	8.783425E-16	3.759469E-18
3.427710E+03	8.788863E-16	3.761796E-18
3.429641E+03	8.790191E-16	3.762364E-18
3.431580E+03	8.791482E-16	3.762917E-18
3.433520E+03	8.800818E-16	3.766913E-18
3.435450E+03	8.805227E-16	3.768800E-18
3.437390E+03	8.803142E-16	3.767908E-18
3.439320E+03	8.803402E-16	3.768019E-18
3.441260E+03	8.800401E-16	3.766735E-18
3.443200E+03	8.796528E-16	3.765077E-18
3.445130E+03	8.790956E-16	3.762692E-18
3.447071E+03	8.775611E-16	3.756124E-18
3.449010E+03	8.759385E-16	3.749179E-18
3.450940E+03	8.749573E-16	3.744979E-18
3.452880E+03	8.741354E-16	3.741462E-18
3.454820E+03	8.729824E-16	3.736526E-18
3.456750E+03	8.714954E-16	3.730161E-18
3.458690E+03	8.701675E-16	3.724478E-18
3.460630E+03	8.687525E-16	3.718422E-18
3.462560E+03	8.668397E-16	3.710234E-18
3.464500E+03	8.646777E-16	3.700981E-18
3.466440E+03	8.625915E-16	3.692051E-18
3.468370E+03	8.603335E-16	3.682387E-18
3.470310E+03	8.580702E-16	3.672699E-18
3.472240E+03	8.562898E-16	3.665079E-18
3.474180E+03	8.542597E-16	3.656390E-18
3.476120E+03	8.523058E-16	3.648027E-18
3.478050E+03	8.503440E-16	3.639630E-18
3.479990E+03	8.482147E-16	3.630516E-18
3.481929E+03	8.464071E-16	3.622779E-18
3.483860E+03	8.447564E-16	3.615714E-18
3.485800E+03	8.430202E-16	3.608283E-18
3.487740E+03	8.412788E-16	3.600829E-18
3.489670E+03	8.399409E-16	3.595103E-18
3.491610E+03	8.386000E-16	3.589363E-18
3.493550E+03	8.376655E-16	3.585364E-18
3.495480E+03	8.374645E-16	3.584503E-18
3.497420E+03	8.374270E-16	3.584342E-18
3.499350E+03	8.374664E-16	3.584511E-18
3.501290E+03	8.370106E-16	3.582560E-18
3.503230E+03	8.363861E-16	3.579887E-18
3.505160E+03	8.356734E-16	3.576837E-18
3.507100E+03	8.350417E-16	3.574133E-18
3.509040E+03	8.351487E-16	3.574591E-18
3.510970E+03	8.353336E-16	3.575382E-18
3.512910E+03	8.350218E-16	3.574048E-18
3.514850E+03	8.344593E-16	3.571640E-18
3.516781E+03	8.343050E-16	3.570980E-18
3.518720E+03	8.342317E-16	3.570666E-18
3.520660E+03	8.339075E-16	3.569278E-18
3.522590E+03	8.340748E-16	3.569994E-18
3.524530E+03	8.349034E-16	3.573541E-18
3.526460E+03	8.357282E-16	3.577071E-18
3.528400E+03	8.363047E-16	3.579539E-18
3.530340E+03	8.372928E-16	3.583768E-18
3.532270E+03	8.386918E-16	3.589756E-18
3.534211E+03	8.402575E-16	3.596457E-18
3.536150E+03	8.422361E-16	3.604926E-18
3.538080E+03	8.447929E-16	3.615870E-18
3.540020E+03	8.476000E-16	3.627885E-18
3.541960E+03	8.503235E-16	3.639542E-18
3.543890E+03	8.533776E-16	3.652614E-18
3.545830E+03	8.566827E-16	3.666760E-18
3.547770E+03	8.597385E-16	3.679840E-18
3.549700E+03	8.625435E-16	3.691846E-18
3.551640E+03	8.655990E-16	3.704924E-18
3.553570E+03	8.689033E-16	3.719067E-18
3.555510E+03	8.716265E-16	3.730723E-18
3.557450E+03	8.739326E-16	3.740593E-18
3.559380E+03	8.764875E-16	3.751528E-18
3.561320E+03	8.787098E-16	3.761041E-18
3.563260E+03	8.803483E-16	3.768054E-18
3.565190E+03	8.814842E-16	3.772916E-18
3.567130E+03	8.823704E-16	3.776709E-18
3.569070E+03	8.829214E-16	3.779067E-18
3.571000E+03	8.829692E-16	3.779272E-18
3.572940E+03	8.828495E-16	3.778759E-18
3.574880E+03	8.823098E-16	3.776449E-18
3.576810E+03	8.810991E-16	3.771267E-18
3.578750E+03	8.797195E-16	3.765362E-18
3.580690E+03	8.781705E-16	3.758732E-18
3.582620E+03	8.758644E-16	3.748862E-18
3.584560E+03	8.733062E-16	3.737912E-18
3.586490E+03	8.707429E-16	3.726941E-18
3.588430E+03	8.675923E-16	3.713455E-18
3.590370E+03	8.644381E-16	3.699955E-18
3.592300E+03	8.608603E-16	3.684641E-18
3.594240E+03	8.564428E-16	3.665734E-18
3.596180E+03	8.516009E-16	3.645010E-18
3.598110E+03	8.465029E-16	3.623189E-18
3.600050E+03	8.408140E-16	3.598840E-18
3.601990E+03	8.346093E-16	3.572282E-18
3.603920E+03	8.280789E-16	3.544331E-18
3.605860E+03	8.213180E-16	3.515393E-18
3.607800E+03	8.139723E-16	3.483952E-18
3.609730E+03	8.060569E-16	3.450073E-18
3.611670E+03	7.979022E-16	3.415169E-18
3.613600E+03	7.901432E-16	3.381959E-18
3.615540E+03	7.819934E-16	3.347076E-18
3.617480E+03	7.736353E-16	3.311302E-18
3.619410E+03	7.650186E-16	3.274421E-18
3.621351E+03	7.557486E-16	3.234744E-18
3.623290E+03	7.465059E-16	3.195183E-18
3.625220E+03	7.374999E-16	3.156636E-18
3.627160E+03	7.285059E-16	3.118140E-18
3.629100E+03	7.198347E-16	3.081026E-18
3.631030E+03	7.112998E-16	3.044495E-18
3.632970E+03	7.029794E-16	3.008882E-18
3.634910E+03	6.948981E-16	2.974292E-18
3.636840E+03	6.871907E-16	2.941303E-18
3.638780E+03	6.797739E-16	2.909558E-18
3.640720E+03	6.727497E-16	2.879493E-18
3.642649E+03	6.661415E-16	2.851209E-18
3.644590E+03	6.594209E-16	2.822444E-18
3.646520E+03	6.524073E-16	2.792424E-18
3.648460E+03	6.454659E-16	2.762713E-18
3.650400E+03	6.389522E-16	2.734834E-18
3.652330E+03	6.323902E-16	2.706747E-18
3.654270E+03	6.258845E-16	2.678901E-18
3.656210E+03	6.197137E-16	2.652489E-18
3.658140E+03	6.132836E-16	2.624967E-18
3.660080E+03	6.065292E-16	2.596057E-18
3.662020E+03	6.000836E-16	2.568469E-18
3.663950E+03	5.938619E-16	2.541839E-18
3.665890E+03	5.874340E-16	2.514326E-18
3.667830E+03	5.812738E-16	2.487959E-18
3.669760E+03	5.757191E-16	2.464184E-18
3.671700E+03	5.702215E-16	2.440654E-18
3.673630E+03	5.649064E-16	2.417904E-18
3.675570E+03	5.601661E-16	2.397615E-18
3.677510E+03	5.557540E-16	2.378730E-18
3.679440E+03	5.518053E-16	2.361829E-18
3.681380E+03	5.481780E-16	2.346303E-18
3.683320E+03	5.451007E-16	2.333132E-18
3.685250E+03	5.427603E-16	2.323115E-18
3.687190E+03	5.407251E-16	2.314404E-18
3.689130E+03	5.391483E-16	2.307654E-18
3.691060E+03	5.383266E-16	2.304137E-18
3.693000E+03	5.378117E-16	2.301933E-18
3.694940E+03	5.372541E-16	2.299547E-18
3.696870E+03	5.369164E-16	2.298102E-18
3.698810E+03	5.367075E-16	2.297207E-18
3.700740E+03	5.366338E-16	2.296892E-18
3.702680E+03	5.368764E-16	2.297930E-18
3.704620E+03	5.375879E-16	2.300976E-18
3.706550E+03	5.383504E-16	2.304239E-18
3.708490E+03	5.392848E-16	2.308238E-18
3.710430E+03	5.403736E-16	2.312899E-18
3.712360E+03	5.419487E-16	2.319641E-18
3.714300E+03	5.441230E-16	2.328947E-18
3.716240E+03	5.461198E-16	2.337494E-18
3.718170E+03	5.482791E-16	2.346736E-18
3.720110E+03	5.507656E-16	2.357379E-18
3.722050E+03	5.533818E-16	2.368576E-18
3.723980E+03	5.563069E-16	2.381096E-18
3.725920E+03	5.595338E-16	2.394908E-18
3.727850E+03	5.631729E-16	2.410484E-18
3.729789E+03	5.671315E-16	2.427428E-18
3.731730E+03	5.715467E-16	2.446325E-18
3.733660E+03	5.763064E-16	2.466698E-18
3.735600E+03	5.807444E-16	2.485693E-18
3.737540E+03	5.856054E-16	2.506499E-18
3.739470E+03	5.911538E-16	2.530248E-18
3.741410E+03	5.965271E-16	2.553246E-18
3.743350E+03	6.021525E-16	2.577324E-18
3.745280E+03	6.083815E-16	2.603985E-18
3.747219E+03	6.153012E-16	2.633603E-18
3.749160E+03	6.228098E-16	2.665741E-18
3.751090E+03	6.305372E-16	2.698816E-18
3.753030E+03	6.383474E-16	2.732245E-18
3.754970E+03	6.471762E-16	2.770034E-18
3.756900E+03	6.568525E-16	2.811450E-18
3.758840E+03	6.672838E-16	2.856098E-18
3.760770E+03	6.788553E-16	2.905626E-18
3.762710E+03	6.911762E-16	2.958362E-18
3.764650E+03	7.039089E-16	3.012860E-18
3.766580E+03	7.178625E-16	3.072584E-18
3.768520E+03	7.327218E-16	3.136185E-18
3.770460E+03	7.486065E-16	3.204174E-18
3.772390E+03	7.645959E-16	3.272612E-18
3.774330E+03	7.815189E-16	3.345045E-18
3.776270E+03	7.996517E-16	3.422657E-18
3.778200E+03	8.183029E-16	3.502488E-18
3.780140E+03	8.376937E-16	3.585484E-18
3.782080E+03	8.577868E-16	3.671486E-18
3.784010E+03	8.782289E-16	3.758982E-18
3.785950E+03	8.984530E-16	3.845545E-18
3.787880E+03	9.188622E-16	3.932900E-18
3.789820E+03	9.410147E-16	4.027717E-18
3.791760E+03	9.660331E-16	4.134800E-18
3.793690E+03	9.932288E-16	4.251203E-18
3.795630E+03	1.021396E-15	4.371762E-18
3.797570E+03	1.049582E-15	4.492403E-18
3.799500E+03	1.077699E-15	4.612750E-18
3.801440E+03	1.105144E-15	4.730221E-18
3.803380E+03	1.132349E-15	4.846664E-18
3.805310E+03	1.159051E-15	4.960954E-18
3.807250E+03	1.185168E-15	5.072737E-18
3.809190E+03	1.210868E-15	5.182741E-18
3.811120E+03	1.235893E-15	5.289849E-18
3.813060E+03	1.259635E-15	5.391471E-18
3.815000E+03	1.282007E-15	5.487225E-18
3.816929E+03	1.302743E-15	5.575982E-18
3.818870E+03	1.322542E-15	5.660726E-18
3.820800E+03	1.340791E-15	5.738832E-18
3.822740E+03	1.357578E-15	5.810684E-18
3.824680E+03	1.372900E-15	5.876267E-18
3.826610E+03	1.386754E-15	5.935563E-18
3.828550E+03	1.398882E-15	5.987474E-18
3.830490E+03	1.408497E-15	6.028626E-18
3.832420E+03	1.417247E-15	6.066078E-18
3.834359E+03	1.425310E-15	6.100590E-18
3.836300E+03	1.432335E-15	6.130659E-18
3.838230E+03	1.437622E-15	6.153289E-18
3.840170E+03	1.440564E-15	6.165878E-18
3.842110E+03	1.441765E-15	6.171021E-18
3.844040E+03	1.440786E-15	6.166829E-18
3.845980E+03	1.437804E-15	6.154067E-18
3.847910E+03	1.433684E-15	6.136430E-18
3.849850E+03	1.428518E-15	6.114319E-18
3.851790E+03	1.422039E-15	6.086588E-18
3.853720E+03	1.413719E-15	6.050980E-18
3.855660E+03	1.404001E-15	6.009382E-18
3.857600E+03	1.394625E-15	5.969253E-18
3.859530E+03	1.386729E-15	5.935456E-18
3.861470E+03	1.380055E-15	5.906891E-18
3.863410E+03	1.372503E-15	5.874568E-18
3.865340E+03	1.364332E-15	5.839592E-18
3.867280E+03	1.355896E-15	5.803486E-18
3.869220E+03	1.347718E-15	5.768480E-18
3.871150E+03	1.340057E-15	5.735693E-18
3.873090E+03	1.332747E-15	5.704404E-18
3.875020E+03	1.326131E-15	5.676087E-18
3.876960E+03	1.319602E-15	5.648142E-18
3.878900E+03	1.313070E-15	5.620181E-18
3.880830E+03	1.306619E-15	5.592571E-18
3.882770E+03	1.299903E-15	5.563826E-18
3.884710E+03	1.294327E-15	5.539956E-18
3.886641E+03	1.289448E-15	5.519076E-18
3.888580E+03	1.284393E-15	5.497438E-18
3.890520E+03	1.279424E-15	5.476169E-18
3.892450E+03	1.275857E-15	5.460902E-18
3.894390E+03	1.274316E-15	5.454309E-18
3.896330E+03	1.273744E-15	5.451859E-18
3.898260E+03	1.273611E-15	5.451290E-18
3.900200E+03	1.274186E-15	5.453753E-18
3.902140E+03	1.276174E-15	5.462262E-18
3.904070E+03	1.278074E-15	5.470394E-18
3.906010E+03	1.279980E-15	5.478549E-18
3.907940E+03	1.282415E-15	5.488973E-18
3.909880E+03	1.285208E-15	5.500930E-18
3.911820E+03	1.287741E-15	5.511769E-18
3.913750E+03	1.290980E-15	5.525632E-18
3.915690E+03	1.294049E-15	5.538769E-18
3.917630E+03	1.296856E-15	5.550785E-18
3.919560E+03	1.299046E-15	5.560155E-18
3.921500E+03	1.301328E-15	5.569924E-18
3.923440E+03	1.303260E-15	5.578192E-18
3.925370E+03	1.303952E-15	5.581153E-18
3.927310E+03	1.304381E-15	5.582993E-18
3.929250E+03	1.304724E-15	5.584460E-18
3.931180E+03	1.304356E-15	5.582884E-18
3.933120E+03	1.304080E-15	5.581705E-18
3.935050E+03	1.305045E-15	5.585836E-18
3.936990E+03	1.308146E-15	5.599108E-18
3.938930E+03	1.311873E-15	5.615058E-18
3.940860E+03	1.314801E-15	5.627591E-18
3.942800E+03	1.316402E-15	5.634443E-18
3.944740E+03	1.317115E-15	5.637494E-18
3.946670E+03	1.317739E-15	5.640165E-18
3.948610E+03	1.317654E-15	5.639802E-18
3.950550E+03	1.317750E-15	5.640211E-18
3.952480E+03	1.317486E-15	5.639082E-18
3.954420E+03	1.317138E-15	5.637592E-18
3.956360E+03	1.316522E-15	5.634959E-18
3.958290E+03	1.315548E-15	5.630789E-18
3.960230E+03	1.313507E-15	5.622050E-18
3.962160E+03	1.310746E-15	5.610236E-18
3.964100E+03	1.307542E-15	5.596522E-18
3.966040E+03	1.304156E-15	5.582030E-18
3.967970E+03	1.299963E-15	5.564082E-18
3.969910E+03	1.295500E-15	5.544980E-18
3.971850E+03	1.290499E-15	5.523574E-18
3.973781E+03	1.284597E-15	5.498311E-18
3.975720E+03	1.278245E-15	5.471124E-18
3.977660E+03	1.271531E-15	5.442387E-18
3.979590E+03	1.265616E-15	5.417068E-18
3.981530E+03	1.259789E-15	5.392130E-18
3.983470E+03	1.253240E-15	5.364098E-18
3.985400E+03	1.245877E-15	5.332583E-18
3.987340E+03	1.236985E-15	5.294523E-18
3.989280E+03	1.227548E-15	5.254131E-18
3.991210E+03	1.217291E-15	5.210229E-18
3.993150E+03	1.207030E-15	5.166311E-18
3.995080E+03	1.196309E-15	5.120421E-18
3.997020E+03	1.185221E-15	5.072965E-18
3.998960E+03	1.173855E-15	5.024316E-18
4.000890E+03	1.162927E-15	4.977544E-18
4.002830E+03	1.153255E-15	4.936144E-18
4.004770E+03	1.146097E-15	4.905506E-18
4.006700E+03	1.140464E-15	4.881398E-18
4.008640E+03	1.134559E-15	4.856123E-18
4.010580E+03	1.128289E-15	4.829284E-18
4.012510E+03	1.122733E-15	4.805505E-18
4.014450E+03	1.118801E-15	4.788674E-18
4.016390E+03	1.116041E-15	4.776860E-18
4.018320E+03	1.114179E-15	4.768893E-18
4.020260E+03	1.112683E-15	4.762487E-18
4.022190E+03	1.112176E-15	4.760318E-18
4.024130E+03	1.112307E-15	4.760880E-18
4.026071E+03	1.112529E-15	4.761831E-18
4.028000E+03	1.112477E-15	4.761605E-18
4.029940E+03	1.112519E-15	4.761787E-18
4.031880E+03	1.113649E-15	4.766622E-18
4.033810E+03	1.115141E-15	4.773011E-18
4.035750E+03	1.116910E-15	4.780580E-18
4.037690E+03	1.119861E-15	4.793213E-18
4.039620E+03	1.124176E-15	4.811679E-18
4.041560E+03	1.128679E-15	4.830954E-18
4.043500E+03	1.132368E-15	4.846743E-18
4.045430E+03	1.135694E-15	4.860982E-18
4.047370E+03	1.138663E-15	4.873690E-18
4.049300E+03	1.140813E-15	4.882891E-18
4.051240E+03	1.141875E-15	4.887437E-18
4.053180E+03	1.142483E-15	4.890037E-18
4.055110E+03	1.142998E-15	4.892243E-18
4.057050E+03	1.142969E-15	4.892120E-18
4.058990E+03	1.142576E-15	4.890437E-18
4.060920E+03	1.142454E-15	4.889914E-18
4.062860E+03	1.141970E-15	4.887844E-18
4.064800E+03	1.141030E-15	4.883817E-18
