#wls	flux	fluxerr
1.588878E+03	1.835072E-17	1.535166E-18
1.628600E+03	1.968814E-17	1.637282E-18
1.668322E+03	2.071655E-17	1.712294E-18
1.708044E+03	2.136293E-17	1.754637E-18
1.747766E+03	2.154929E-17	1.758516E-18
1.787488E+03	2.117436E-17	1.716445E-18
1.827210E+03	2.015494E-17	1.622648E-18
1.866931E+03	1.846384E-17	1.476055E-18
1.906653E+03	1.616551E-17	1.282981E-18
1.946375E+03	1.345913E-17	1.060250E-18
1.986097E+03	1.066727E-17	8.338967E-19
2.025819E+03	8.172122E-18	6.338205E-19
2.065541E+03	6.272760E-18	4.825753E-19
2.105263E+03	5.096121E-18	3.887952E-19
2.144985E+03	4.618717E-18	3.493609E-19
2.184707E+03	4.773298E-18	3.578800E-19
2.224429E+03	5.523950E-18	4.104177E-19
2.264151E+03	6.871432E-18	5.057892E-19
2.303873E+03	8.822924E-18	6.432302E-19
2.343595E+03	1.136641E-17	8.205241E-19
2.383317E+03	1.446349E-17	1.033558E-18
2.423039E+03	1.805281E-17	1.276664E-18
2.462761E+03	2.204776E-17	1.542552E-18
2.502483E+03	2.634309E-17	1.822871E-18
2.542205E+03	3.081134E-17	2.108047E-18
2.581927E+03	3.530565E-17	2.387581E-18
2.621648E+03	3.966244E-17	2.650319E-18
2.661370E+03	4.374852E-17	2.887646E-18
2.701092E+03	4.746979E-17	3.093953E-18
2.740814E+03	5.076420E-17	3.266032E-18
2.780536E+03	5.361284E-17	3.403657E-18
2.820258E+03	5.603345E-17	3.508995E-18
2.859980E+03	5.807882E-17	3.586351E-18
2.899702E+03	5.982231E-17	3.641131E-18
2.939424E+03	6.135992E-17	3.679861E-18
2.979146E+03	6.278953E-17	3.708859E-18
2.989076E+03	6.314281E-17	3.715371E-18
2.999007E+03	6.350162E-17	3.722011E-18
3.008937E+03	6.386152E-17	3.728516E-18
3.018868E+03	6.423191E-17	3.735431E-18
3.028798E+03	6.463059E-17	3.743781E-18
3.038729E+03	6.507910E-17	3.754789E-18
3.048659E+03	6.556864E-17	3.767915E-18
3.058590E+03	6.610382E-17	3.783393E-18
3.068520E+03	6.667936E-17	3.800892E-18
3.078451E+03	6.729378E-17	3.820299E-18
3.088381E+03	6.794592E-17	3.841520E-18
3.098312E+03	6.863837E-17	3.864676E-18
3.108242E+03	6.936791E-17	3.889558E-18
3.118173E+03	7.013497E-17	3.916163E-18
3.128103E+03	7.094359E-17	3.944689E-18
3.138034E+03	7.179210E-17	3.975015E-18
3.147964E+03	7.268245E-17	4.007219E-18
3.157895E+03	7.362037E-17	4.041587E-18
3.167825E+03	7.460900E-17	4.078256E-18
3.177756E+03	7.564859E-17	4.117204E-18
3.187686E+03	7.674647E-17	4.158792E-18
3.197617E+03	7.790369E-17	4.203033E-18
3.207547E+03	7.912800E-17	4.250304E-18
3.217478E+03	8.042387E-17	4.300795E-18
3.227408E+03	8.179554E-17	4.354680E-18
3.237339E+03	8.324313E-17	4.411911E-18
3.247269E+03	8.477612E-17	4.472935E-18
3.257200E+03	8.638917E-17	4.537410E-18
3.267130E+03	8.808553E-17	4.605447E-18
3.277061E+03	8.986333E-17	4.676891E-18
3.286991E+03	9.171853E-17	4.751473E-18
3.296922E+03	9.364855E-17	4.829006E-18
3.306852E+03	9.563747E-17	4.908618E-18
3.316783E+03	9.768189E-17	4.990094E-18
3.326713E+03	9.976173E-17	5.072374E-18
3.336643E+03	1.018708E-16	5.155119E-18
3.346574E+03	1.039955E-16	5.237625E-18
3.356504E+03	1.061158E-16	5.318876E-18
3.366435E+03	1.082301E-16	5.398801E-18
3.376365E+03	1.103345E-16	5.477202E-18
3.386296E+03	1.124276E-16	5.554029E-18
3.396226E+03	1.145249E-16	5.630053E-18
3.406157E+03	1.166439E-16	5.706126E-18
3.416087E+03	1.188206E-16	5.783985E-18
3.426018E+03	1.210921E-16	5.865391E-18
3.435948E+03	1.235101E-16	5.952767E-18
3.445879E+03	1.261199E-16	6.048184E-18
3.455809E+03	1.289484E-16	6.152795E-18
3.465740E+03	1.319900E-16	6.266172E-18
3.475670E+03	1.352099E-16	6.386522E-18
3.485601E+03	1.385512E-16	6.511051E-18
3.495531E+03	1.419597E-16	6.637138E-18
3.505462E+03	1.453595E-16	6.761208E-18
3.515392E+03	1.486681E-16	6.879462E-18
3.525323E+03	1.518138E-16	6.988657E-18
3.535253E+03	1.547143E-16	7.085154E-18
3.545184E+03	1.572812E-16	7.165101E-18
3.555114E+03	1.594491E-16	7.225777E-18
3.565045E+03	1.611674E-16	7.265187E-18
3.574975E+03	1.623962E-16	7.281873E-18
3.584906E+03	1.631314E-16	7.275996E-18
3.594836E+03	1.633833E-16	7.248370E-18
3.604767E+03	1.632123E-16	7.202009E-18
3.614697E+03	1.626937E-16	7.140521E-18
3.624628E+03	1.619383E-16	7.068992E-18
3.634558E+03	1.610685E-16	6.992897E-18
3.644489E+03	1.602260E-16	6.918446E-18
3.654419E+03	1.595660E-16	6.852280E-18
3.664350E+03	1.592378E-16	6.800652E-18
3.674280E+03	1.593943E-16	6.769819E-18
3.684211E+03	1.601884E-16	6.765898E-18
3.694141E+03	1.617578E-16	6.794223E-18
3.704071E+03	1.642365E-16	6.859857E-18
3.714002E+03	1.677540E-16	6.967540E-18
3.723932E+03	1.724199E-16	7.121078E-18
3.733863E+03	1.783391E-16	7.323979E-18
3.743793E+03	1.855887E-16	7.578531E-18
3.753724E+03	1.942252E-16	7.886104E-18
3.763654E+03	2.042711E-16	8.246660E-18
3.773585E+03	2.157102E-16	8.658583E-18
3.783515E+03	2.284619E-16	9.117711E-18
3.793446E+03	2.423876E-16	9.617660E-18
3.803376E+03	2.572876E-16	1.014977E-17
3.813307E+03	2.728784E-16	1.070227E-17
3.823237E+03	2.888445E-16	1.126242E-17
3.833168E+03	3.048119E-16	1.181549E-17
3.843098E+03	3.203951E-16	1.234666E-17
3.853029E+03	3.352164E-16	1.284177E-17
3.862959E+03	3.489300E-16	1.328819E-17
3.872890E+03	3.612442E-16	1.367567E-17
3.882820E+03	3.719369E-16	1.399683E-17
3.892751E+03	3.808638E-16	1.424739E-17
3.902681E+03	3.879576E-16	1.442607E-17
3.912612E+03	3.932221E-16	1.453426E-17
3.922542E+03	3.967136E-16	1.457527E-17
3.932473E+03	3.985548E-16	1.455479E-17
3.942403E+03	3.988882E-16	1.447909E-17
3.952334E+03	3.979001E-16	1.435590E-17
3.962264E+03	3.957861E-16	1.419312E-17
3.972195E+03	3.927436E-16	1.399853E-17
3.982125E+03	3.889805E-16	1.378009E-17
3.992056E+03	3.847058E-16	1.354565E-17
4.001986E+03	3.800904E-16	1.330150E-17
4.011917E+03	3.753146E-16	1.305414E-17
4.021847E+03	3.705127E-16	1.280831E-17
4.031778E+03	3.658059E-16	1.256819E-17
4.041708E+03	3.612954E-16	1.233716E-17
4.051639E+03	3.570581E-16	1.211772E-17
4.061569E+03	3.531754E-16	1.191243E-17
4.071500E+03	3.496822E-16	1.172224E-17
4.081430E+03	3.466338E-16	1.154875E-17
4.091360E+03	3.440611E-16	1.139271E-17
4.101291E+03	3.419777E-16	1.125428E-17
4.111221E+03	3.403949E-16	1.113353E-17
4.121152E+03	3.393154E-16	1.103026E-17
4.131082E+03	3.387367E-16	1.094409E-17
4.141013E+03	3.386536E-16	1.087456E-17
4.150943E+03	3.390627E-16	1.082129E-17
4.160874E+03	3.399620E-16	1.078394E-17
4.170804E+03	3.413690E-16	1.076280E-17
4.180735E+03	3.433276E-16	1.075896E-17
4.190665E+03	3.459026E-16	1.077416E-17
4.200596E+03	3.491801E-16	1.081074E-17
4.210526E+03	3.532975E-16	1.087255E-17
4.220457E+03	3.584209E-16	1.096427E-17
4.230387E+03	3.647452E-16	1.109129E-17
4.240318E+03	3.724845E-16	1.125949E-17
4.250248E+03	3.818470E-16	1.147442E-17
4.260179E+03	3.930533E-16	1.174187E-17
4.270109E+03	4.062795E-16	1.206618E-17
4.280040E+03	4.216295E-16	1.244947E-17
4.289970E+03	4.391356E-16	1.289170E-17
4.299901E+03	4.586984E-16	1.338900E-17
4.309831E+03	4.800532E-16	1.393281E-17
4.319762E+03	5.027761E-16	1.451016E-17
4.329692E+03	5.262883E-16	1.510395E-17
4.339623E+03	5.499880E-16	1.569682E-17
4.349553E+03	5.733766E-16	1.627471E-17
4.359484E+03	5.961182E-16	1.682848E-17
4.369414E+03	6.180405E-16	1.735378E-17
4.379345E+03	6.391403E-16	1.785107E-17
4.389275E+03	6.594822E-16	1.832263E-17
4.399206E+03	6.790917E-16	1.876963E-17
4.409136E+03	6.979542E-16	1.919210E-17
4.419067E+03	7.159297E-16	1.958662E-17
4.428997E+03	7.328333E-16	1.994860E-17
4.438928E+03	7.484294E-16	2.027214E-17
4.448858E+03	7.624671E-16	2.055105E-17
4.458788E+03	7.747348E-16	2.078030E-17
4.468719E+03	7.850882E-16	2.095675E-17
4.478649E+03	7.934290E-16	2.107852E-17
4.488580E+03	7.997750E-16	2.114682E-17
4.498510E+03	8.042129E-16	2.116468E-17
4.508441E+03	8.068833E-16	2.113642E-17
4.518371E+03	8.079906E-16	2.106798E-17
4.528302E+03	8.077250E-16	2.096481E-17
4.538232E+03	8.063107E-16	2.083311E-17
4.548163E+03	8.039160E-16	2.067757E-17
4.558093E+03	8.006775E-16	2.050194E-17
4.568024E+03	7.967198E-16	2.030963E-17
4.577954E+03	7.921332E-16	2.010310E-17
4.587885E+03	7.869760E-16	1.988397E-17
4.597815E+03	7.813475E-16	1.965485E-17
4.607746E+03	7.753315E-16	1.941793E-17
4.617676E+03	7.690425E-16	1.917612E-17
4.627607E+03	7.626175E-16	1.893285E-17
4.637537E+03	7.562018E-16	1.869169E-17
4.647468E+03	7.499655E-16	1.845677E-17
4.657398E+03	7.440527E-16	1.823148E-17
4.667329E+03	7.386005E-16	1.801903E-17
4.677259E+03	7.336923E-16	1.782123E-17
4.687190E+03	7.293771E-16	1.763906E-17
4.697120E+03	7.256572E-16	1.747232E-17
4.707051E+03	7.224882E-16	1.731973E-17
4.716981E+03	7.197789E-16	1.717889E-17
4.726912E+03	7.174352E-16	1.704738E-17
4.736842E+03	7.153182E-16	1.692177E-17
4.746773E+03	7.133194E-16	1.679939E-17
4.756703E+03	7.113375E-16	1.667779E-17
4.766634E+03	7.093266E-16	1.655588E-17
4.776564E+03	7.072765E-16	1.643339E-17
4.786495E+03	7.052484E-16	1.631173E-17
4.796425E+03	7.033368E-16	1.619304E-17
4.806356E+03	7.016887E-16	1.608062E-17
4.816286E+03	7.004562E-16	1.597784E-17
4.826216E+03	6.998018E-16	1.588824E-17
4.836147E+03	6.998825E-16	1.581517E-17
4.846077E+03	7.008132E-16	1.576094E-17
4.856008E+03	7.026815E-16	1.572724E-17
4.865938E+03	7.055435E-16	1.571499E-17
4.875869E+03	7.094012E-16	1.572390E-17
4.885799E+03	7.142373E-16	1.575325E-17
4.895730E+03	7.199916E-16	1.580138E-17
4.905660E+03	7.265925E-16	1.586641E-17
4.915591E+03	7.339673E-16	1.594648E-17
4.925521E+03	7.420374E-16	1.603960E-17
4.935452E+03	7.507309E-16	1.614401E-17
4.945382E+03	7.600190E-16	1.625885E-17
4.955313E+03	7.699056E-16	1.638400E-17
4.965243E+03	7.804330E-16	1.652016E-17
4.975174E+03	7.916979E-16	1.666914E-17
4.985104E+03	8.038090E-16	1.683296E-17
4.995035E+03	8.168669E-16	1.701342E-17
5.004965E+03	8.309777E-16	1.721241E-17
5.014896E+03	8.461806E-16	1.743037E-17
5.024826E+03	8.624705E-16	1.766683E-17
5.034757E+03	8.797938E-16	1.792034E-17
5.044687E+03	8.980642E-16	1.818881E-17
5.054618E+03	9.171897E-16	1.847007E-17
5.064548E+03	9.370600E-16	1.876165E-17
5.074479E+03	9.575886E-16	1.906159E-17
5.084409E+03	9.787226E-16	1.936867E-17
5.094340E+03	1.000426E-15	1.968200E-17
5.104270E+03	1.022681E-15	2.000110E-17
5.114201E+03	1.045470E-15	2.032549E-17
5.124131E+03	1.068793E-15	2.065506E-17
5.134062E+03	1.092637E-15	2.098946E-17
5.143992E+03	1.116929E-15	2.132719E-17
5.153923E+03	1.141608E-15	2.166708E-17
5.163853E+03	1.166552E-15	2.200677E-17
5.173784E+03	1.191624E-15	2.234374E-17
5.183714E+03	1.216682E-15	2.267544E-17
5.193644E+03	1.241555E-15	2.299888E-17
5.203575E+03	1.266098E-15	2.331161E-17
5.213505E+03	1.290159E-15	2.361113E-17
5.223436E+03	1.313571E-15	2.389475E-17
5.233366E+03	1.336196E-15	2.416042E-17
5.243297E+03	1.357828E-15	2.440490E-17
5.253227E+03	1.378290E-15	2.462557E-17
5.263158E+03	1.397332E-15	2.481860E-17
5.273088E+03	1.414683E-15	2.497993E-17
5.283019E+03	1.430063E-15	2.510537E-17
5.292949E+03	1.443139E-15	2.519000E-17
5.302880E+03	1.453600E-15	2.522935E-17
5.312810E+03	1.461128E-15	2.521895E-17
5.322741E+03	1.465440E-15	2.515502E-17
5.332671E+03	1.466395E-15	2.503628E-17
5.342602E+03	1.464032E-15	2.486454E-17
5.352532E+03	1.458665E-15	2.464617E-17
5.362463E+03	1.450934E-15	2.439286E-17
5.372393E+03	1.441818E-15	2.412171E-17
5.382324E+03	1.432587E-15	2.385434E-17
5.392254E+03	1.424503E-15	2.361181E-17
5.402185E+03	1.418297E-15	2.340602E-17
5.412115E+03	1.413769E-15	2.323341E-17
5.422046E+03	1.410223E-15	2.308226E-17
5.431976E+03	1.407146E-15	2.294406E-17
5.441907E+03	1.404382E-15	2.281619E-17
5.451837E+03	1.402092E-15	2.270123E-17
5.461768E+03	1.400418E-15	2.260141E-17
5.471698E+03	1.399273E-15	2.251520E-17
5.481629E+03	1.398458E-15	2.243919E-17
5.491559E+03	1.397657E-15	2.236815E-17
5.501490E+03	1.396560E-15	2.229690E-17
5.511420E+03	1.394890E-15	2.222093E-17
5.521351E+03	1.392367E-15	2.213566E-17
5.531281E+03	1.388868E-15	2.203901E-17
5.541212E+03	1.384358E-15	2.193036E-17
5.551142E+03	1.379039E-15	2.181274E-17
5.561072E+03	1.373283E-15	2.169193E-17
5.571003E+03	1.367666E-15	2.157679E-17
5.580933E+03	1.362801E-15	2.147681E-17
5.590864E+03	1.359383E-15	2.140271E-17
5.600794E+03	1.358086E-15	2.136483E-17
5.610725E+03	1.359542E-15	2.137289E-17
5.620655E+03	1.364318E-15	2.143556E-17
5.630586E+03	1.372881E-15	2.155999E-17
5.640516E+03	1.385622E-15	2.175212E-17
5.650447E+03	1.402797E-15	2.201582E-17
5.660377E+03	1.424511E-15	2.235267E-17
5.670308E+03	1.450751E-15	2.276235E-17
5.680238E+03	1.481319E-15	2.324174E-17
5.690169E+03	1.515829E-15	2.378478E-17
5.700099E+03	1.553751E-15	2.438316E-17
5.710030E+03	1.594350E-15	2.502539E-17
5.719960E+03	1.636772E-15	2.569813E-17
5.729891E+03	1.680018E-15	2.638572E-17
5.739821E+03	1.723052E-15	2.707191E-17
5.749752E+03	1.764782E-15	2.773957E-17
5.759682E+03	1.804168E-15	2.837236E-17
5.769613E+03	1.840286E-15	2.895567E-17
5.779543E+03	1.872304E-15	2.947637E-17
5.789474E+03	1.899598E-15	2.992453E-17
5.799404E+03	1.921705E-15	3.029270E-17
5.809335E+03	1.938362E-15	3.057661E-17
5.819265E+03	1.949574E-15	3.077614E-17
5.829196E+03	1.955484E-15	3.089336E-17
5.839126E+03	1.956310E-15	3.093155E-17
5.849057E+03	1.952377E-15	3.089567E-17
5.858987E+03	1.943982E-15	3.079020E-17
5.868918E+03	1.931283E-15	3.061751E-17
5.878848E+03	1.914402E-15	3.037932E-17
5.888779E+03	1.893372E-15	3.007597E-17
5.898709E+03	1.868159E-15	2.970674E-17
5.908640E+03	1.838879E-15	2.927327E-17
5.918570E+03	1.805798E-15	2.877957E-17
5.928500E+03	1.769367E-15	2.823264E-17
5.938431E+03	1.730197E-15	2.764204E-17
5.948361E+03	1.689075E-15	2.702014E-17
5.958292E+03	1.646843E-15	2.638031E-17
5.968222E+03	1.604355E-15	2.573614E-17
5.978153E+03	1.562424E-15	2.510062E-17
5.988083E+03	1.521772E-15	2.448539E-17
5.998014E+03	1.483052E-15	2.390100E-17
6.007944E+03	1.446846E-15	2.335700E-17
6.017875E+03	1.413580E-15	2.286038E-17
6.027805E+03	1.383624E-15	2.241739E-17
6.037736E+03	1.357238E-15	2.203254E-17
6.047666E+03	1.334651E-15	2.170984E-17
6.057597E+03	1.316051E-15	2.145275E-17
6.067527E+03	1.301616E-15	2.126457E-17
6.077458E+03	1.291561E-15	2.114934E-17
6.087388E+03	1.286098E-15	2.111105E-17
6.097319E+03	1.285474E-15	2.115438E-17
6.107249E+03	1.289892E-15	2.128342E-17
6.117180E+03	1.299461E-15	2.150072E-17
6.127110E+03	1.314080E-15	2.180547E-17
6.137041E+03	1.333349E-15	2.219194E-17
6.146971E+03	1.356357E-15	2.264569E-17
6.156902E+03	1.381517E-15	2.314070E-17
6.166832E+03	1.406551E-15	2.363900E-17
6.176763E+03	1.428436E-15	2.408955E-17
6.186693E+03	1.443839E-15	2.443532E-17
6.196624E+03	1.449977E-15	2.462776E-17
6.206554E+03	1.446101E-15	2.465225E-17
6.216485E+03	1.433830E-15	2.453442E-17
6.226415E+03	1.415998E-15	2.432110E-17
6.236346E+03	1.395358E-15	2.405841E-17
6.246276E+03	1.374102E-15	2.378354E-17
6.256207E+03	1.353769E-15	2.352287E-17
6.266137E+03	1.335301E-15	2.329279E-17
6.276068E+03	1.319233E-15	2.310286E-17
6.285998E+03	1.305788E-15	2.295733E-17
6.295929E+03	1.294997E-15	2.285711E-17
6.305859E+03	1.286823E-15	2.280194E-17
6.315789E+03	1.281173E-15	2.279053E-17
6.325720E+03	1.277943E-15	2.282146E-17
6.335650E+03	1.277040E-15	2.289338E-17
6.345581E+03	1.278375E-15	2.300506E-17
6.355511E+03	1.281858E-15	2.315518E-17
6.365442E+03	1.287396E-15	2.334240E-17
6.375372E+03	1.294855E-15	2.356452E-17
6.385303E+03	1.304091E-15	2.381919E-17
6.395233E+03	1.314959E-15	2.410394E-17
6.405164E+03	1.327279E-15	2.441567E-17
6.415094E+03	1.340840E-15	2.475058E-17
6.425025E+03	1.355443E-15	2.510513E-17
6.434955E+03	1.370862E-15	2.547510E-17
6.444886E+03	1.386856E-15	2.585600E-17
6.454816E+03	1.403154E-15	2.624275E-17
6.464747E+03	1.419531E-15	2.663098E-17
6.474677E+03	1.435697E-15	2.701508E-17
6.484608E+03	1.451416E-15	2.739046E-17
6.494538E+03	1.466473E-15	2.775273E-17
6.504469E+03	1.480636E-15	2.809730E-17
6.514399E+03	1.493701E-15	2.841998E-17
6.524330E+03	1.505539E-15	2.871799E-17
6.534260E+03	1.516008E-15	2.898831E-17
6.544191E+03	1.524948E-15	2.922756E-17
6.554121E+03	1.532288E-15	2.943406E-17
6.564052E+03	1.537925E-15	2.960551E-17
6.573982E+03	1.541818E-15	2.974083E-17
6.583913E+03	1.543919E-15	2.983884E-17
6.593843E+03	1.544258E-15	2.989982E-17
6.603774E+03	1.542866E-15	2.992416E-17
6.613704E+03	1.539853E-15	2.991381E-17
6.623635E+03	1.535332E-15	2.987079E-17
6.633565E+03	1.529484E-15	2.979850E-17
6.643496E+03	1.522499E-15	2.970054E-17
6.653426E+03	1.514564E-15	2.958052E-17
6.663357E+03	1.505913E-15	2.944298E-17
6.673287E+03	1.496764E-15	2.929220E-17
6.683217E+03	1.487333E-15	2.913242E-17
6.693148E+03	1.477832E-15	2.896786E-17
6.703078E+03	1.468447E-15	2.880221E-17
6.713009E+03	1.459407E-15	2.864007E-17
6.722939E+03	1.450861E-15	2.848443E-17
6.732870E+03	1.443013E-15	2.833938E-17
6.742800E+03	1.435996E-15	2.820765E-17
6.752731E+03	1.429941E-15	2.809185E-17
6.762661E+03	1.424952E-15	2.799415E-17
6.772592E+03	1.421109E-15	2.791616E-17
6.782522E+03	1.418461E-15	2.785891E-17
6.792453E+03	1.417047E-15	2.782325E-17
6.802383E+03	1.416827E-15	2.780840E-17
6.812314E+03	1.417804E-15	2.781448E-17
6.822244E+03	1.419922E-15	2.784041E-17
6.832175E+03	1.423085E-15	2.788433E-17
6.842105E+03	1.427191E-15	2.794428E-17
6.852036E+03	1.432142E-15	2.801836E-17
6.861966E+03	1.437788E-15	2.810367E-17
6.871897E+03	1.443986E-15	2.819746E-17
6.881827E+03	1.450611E-15	2.829730E-17
6.891758E+03	1.457517E-15	2.840045E-17
6.901688E+03	1.464549E-15	2.850397E-17
6.911619E+03	1.471603E-15	2.860588E-17
6.921549E+03	1.478550E-15	2.870383E-17
6.931480E+03	1.485318E-15	2.879653E-17
6.941410E+03	1.491835E-15	2.888275E-17
6.951341E+03	1.498027E-15	2.896119E-17
6.961271E+03	1.503894E-15	2.903205E-17
6.971202E+03	1.509350E-15	2.909388E-17
6.981132E+03	1.514439E-15	2.914770E-17
6.991063E+03	1.519109E-15	2.919273E-17
7.000993E+03	1.523365E-15	2.922934E-17
7.010924E+03	1.527192E-15	2.925744E-17
7.020854E+03	1.530563E-15	2.927679E-17
7.030785E+03	1.533439E-15	2.928691E-17
7.040715E+03	1.535748E-15	2.928669E-17
7.050645E+03	1.537465E-15	2.927596E-17
7.060576E+03	1.538467E-15	2.925270E-17
7.070506E+03	1.538684E-15	2.921588E-17
7.080437E+03	1.538033E-15	2.916426E-17
7.090367E+03	1.536362E-15	2.909530E-17
7.100298E+03	1.533576E-15	2.900753E-17
7.110228E+03	1.529556E-15	2.889909E-17
7.120159E+03	1.524190E-15	2.876820E-17
7.130089E+03	1.517371E-15	2.861321E-17
7.140020E+03	1.509030E-15	2.843312E-17
7.149950E+03	1.499050E-15	2.822605E-17
7.159881E+03	1.487397E-15	2.799170E-17
7.169811E+03	1.474043E-15	2.772978E-17
7.179742E+03	1.459004E-15	2.744085E-17
7.189672E+03	1.442265E-15	2.712480E-17
7.199603E+03	1.423920E-15	2.678356E-17
7.209533E+03	1.404009E-15	2.641800E-17
7.219464E+03	1.382680E-15	2.603095E-17
7.229394E+03	1.360044E-15	2.562450E-17
7.239325E+03	1.336249E-15	2.520143E-17
7.249255E+03	1.311464E-15	2.476482E-17
7.259186E+03	1.285866E-15	2.431790E-17
7.269116E+03	1.259663E-15	2.386443E-17
7.279047E+03	1.233010E-15	2.340721E-17
7.288977E+03	1.206144E-15	2.295047E-17
7.298908E+03	1.179227E-15	2.249715E-17
7.308838E+03	1.152498E-15	2.205152E-17
7.318769E+03	1.126137E-15	2.161690E-17
7.328699E+03	1.100346E-15	2.119690E-17
7.338630E+03	1.075334E-15	2.079546E-17
7.348560E+03	1.051259E-15	2.041551E-17
7.358491E+03	1.028331E-15	2.006106E-17
7.368421E+03	1.006680E-15	1.973469E-17
7.378352E+03	9.864751E-16	1.943969E-17
7.388282E+03	9.678065E-16	1.917782E-17
7.398213E+03	9.507434E-16	1.895045E-17
7.408143E+03	9.353146E-16	1.875825E-17
7.418073E+03	9.215144E-16	1.860129E-17
7.428004E+03	9.093231E-16	1.847939E-17
7.437934E+03	8.986628E-16	1.839128E-17
7.447865E+03	8.894918E-16	1.833641E-17
7.457795E+03	8.817593E-16	1.831408E-17
7.467726E+03	8.754386E-16	1.832416E-17
7.477656E+03	8.704766E-16	1.836594E-17
7.487587E+03	8.668733E-16	1.843990E-17
7.497517E+03	8.646237E-16	1.854644E-17
7.507448E+03	8.637382E-16	1.868633E-17
7.517378E+03	8.641817E-16	1.885941E-17
7.527309E+03	8.659460E-16	1.906614E-17
7.537239E+03	8.689746E-16	1.930591E-17
7.547170E+03	8.732300E-16	1.957854E-17
7.557100E+03	8.786145E-16	1.988251E-17
7.567031E+03	8.850084E-16	2.021572E-17
7.576961E+03	8.922919E-16	2.057600E-17
7.586892E+03	9.003100E-16	2.096030E-17
7.596822E+03	9.088874E-16	2.136493E-17
7.606753E+03	9.178110E-16	2.178519E-17
7.616683E+03	9.268746E-16	2.221635E-17
7.626614E+03	9.358407E-16	2.265272E-17
7.636544E+03	9.444625E-16	2.308818E-17
7.646475E+03	9.524766E-16	2.351592E-17
7.656405E+03	9.596540E-16	2.392975E-17
7.666336E+03	9.657445E-16	2.432269E-17
7.676266E+03	9.705435E-16	2.468865E-17
7.686197E+03	9.738493E-16	2.502141E-17
7.696127E+03	9.754662E-16	2.531464E-17
7.706058E+03	9.752554E-16	2.556330E-17
