#wls	flux	fluxerr
1.588878E+03	3.502759E-17	1.643474E-18
1.628600E+03	3.785572E-17	1.764136E-18
1.668322E+03	4.013400E-17	1.857297E-18
1.708044E+03	4.169988E-17	1.915977E-18
1.747766E+03	4.239732E-17	1.933734E-18
1.787488E+03	4.199525E-17	1.900971E-18
1.827210E+03	4.030087E-17	1.810167E-18
1.866931E+03	3.721970E-17	1.658501E-18
1.906653E+03	3.285006E-17	1.451862E-18
1.946375E+03	2.755911E-17	1.207830E-18
1.986097E+03	2.199618E-17	9.557459E-19
2.025819E+03	1.695238E-17	7.300976E-19
2.065541E+03	1.307484E-17	5.580069E-19
2.105263E+03	1.065744E-17	4.506142E-19
2.144985E+03	9.681265E-18	4.054396E-19
2.184707E+03	1.002714E-17	4.158183E-19
2.224429E+03	1.164160E-17	4.779255E-19
2.264151E+03	1.455757E-17	5.914836E-19
2.303873E+03	1.883117E-17	7.570424E-19
2.343595E+03	2.447209E-17	9.731585E-19
2.383317E+03	3.143275E-17	1.236067E-18
2.423039E+03	3.960250E-17	1.539587E-18
2.462761E+03	4.881575E-17	1.875582E-18
2.502483E+03	5.883307E-17	2.233375E-18
2.542205E+03	6.936278E-17	2.600745E-18
2.581927E+03	8.006131E-17	2.964076E-18
2.621648E+03	9.054122E-17	3.308796E-18
2.661370E+03	1.004660E-16	3.622923E-18
2.701092E+03	1.095839E-16	3.898155E-18
2.740814E+03	1.177271E-16	4.129652E-18
2.780536E+03	1.248440E-16	4.316935E-18
2.820258E+03	1.309773E-16	4.462881E-18
2.859980E+03	1.362521E-16	4.573080E-18
2.899702E+03	1.408547E-16	4.654919E-18
2.939424E+03	1.449968E-16	4.716256E-18
2.979146E+03	1.489303E-16	4.765815E-18
2.989076E+03	1.499089E-16	4.777283E-18
2.999007E+03	1.508976E-16	4.788766E-18
3.008937E+03	1.519009E-16	4.800397E-18
3.018868E+03	1.529272E-16	4.812438E-18
3.028798E+03	1.540253E-16	4.826408E-18
3.038729E+03	1.552395E-16	4.843658E-18
3.048659E+03	1.565639E-16	4.863958E-18
3.058590E+03	1.579948E-16	4.887145E-18
3.068520E+03	1.595209E-16	4.912834E-18
3.078451E+03	1.611514E-16	4.941263E-18
3.088381E+03	1.628711E-16	4.971925E-18
3.098312E+03	1.646914E-16	5.005132E-18
3.108242E+03	1.665995E-16	5.040450E-18
3.118173E+03	1.686092E-16	5.078262E-18
3.128103E+03	1.707166E-16	5.118405E-18
3.138034E+03	1.729255E-16	5.160955E-18
3.147964E+03	1.752413E-16	5.206029E-18
3.157895E+03	1.776716E-16	5.253802E-18
3.167825E+03	1.802255E-16	5.304501E-18
3.177756E+03	1.829215E-16	5.358609E-18
3.187686E+03	1.857670E-16	5.416283E-18
3.197617E+03	1.887848E-16	5.478126E-18
3.207547E+03	1.919863E-16	5.544388E-18
3.217478E+03	1.953902E-16	5.615531E-18
3.227408E+03	1.990221E-16	5.692204E-18
3.237339E+03	2.028926E-16	5.774612E-18
3.247269E+03	2.070236E-16	5.863269E-18
3.257200E+03	2.114262E-16	5.958381E-18
3.267130E+03	2.160992E-16	6.059798E-18
3.277061E+03	2.210493E-16	6.167595E-18
3.286991E+03	2.262687E-16	6.281433E-18
3.296922E+03	2.317327E-16	6.400515E-18
3.306852E+03	2.374207E-16	6.524172E-18
3.316783E+03	2.432931E-16	6.651226E-18
3.326713E+03	2.492981E-16	6.780189E-18
3.336643E+03	2.553650E-16	6.909091E-18
3.346574E+03	2.614391E-16	7.036428E-18
3.356504E+03	2.674388E-16	7.160019E-18
3.366435E+03	2.732867E-16	7.277829E-18
3.376365E+03	2.789423E-16	7.388852E-18
3.386296E+03	2.843541E-16	7.491816E-18
3.396226E+03	2.895349E-16	7.587155E-18
3.406157E+03	2.945096E-16	7.675622E-18
3.416087E+03	2.993515E-16	7.759208E-18
3.426018E+03	3.041707E-16	7.840806E-18
3.435948E+03	3.091137E-16	7.924185E-18
3.445879E+03	3.143148E-16	8.012717E-18
3.455809E+03	3.199174E-16	8.109928E-18
3.465740E+03	3.258998E-16	8.215109E-18
3.475670E+03	3.321926E-16	8.326352E-18
3.485601E+03	3.386758E-16	8.440546E-18
3.495531E+03	3.452080E-16	8.554103E-18
3.505462E+03	3.516277E-16	8.663027E-18
3.515392E+03	3.577272E-16	8.762282E-18
3.525323E+03	3.632819E-16	8.846540E-18
3.535253E+03	3.680575E-16	8.910358E-18
3.545184E+03	3.717938E-16	8.947817E-18
3.555114E+03	3.742633E-16	8.953915E-18
3.565045E+03	3.752580E-16	8.924254E-18
3.574975E+03	3.746553E-16	8.856570E-18
3.584906E+03	3.724046E-16	8.750356E-18
3.594836E+03	3.685713E-16	8.607846E-18
3.604767E+03	3.633394E-16	8.433990E-18
3.614697E+03	3.569762E-16	8.235552E-18
3.624628E+03	3.498478E-16	8.021410E-18
3.634558E+03	3.423599E-16	7.801135E-18
3.644489E+03	3.349561E-16	7.584931E-18
3.654419E+03	3.280927E-16	7.383025E-18
3.664350E+03	3.221967E-16	7.204739E-18
3.674280E+03	3.176840E-16	7.058904E-18
3.684211E+03	3.149178E-16	6.952955E-18
3.694141E+03	3.142584E-16	6.894059E-18
3.704071E+03	3.160247E-16	6.888273E-18
3.714002E+03	3.204991E-16	6.940700E-18
3.723932E+03	3.279648E-16	7.056294E-18
3.733863E+03	3.386833E-16	7.239389E-18
3.743793E+03	3.528635E-16	7.493069E-18
3.753724E+03	3.706917E-16	7.819823E-18
3.763654E+03	3.922433E-16	8.219722E-18
3.773585E+03	4.175021E-16	8.690890E-18
3.783515E+03	4.462527E-16	9.227355E-18
3.793446E+03	4.780946E-16	9.819467E-18
3.803376E+03	5.123740E-16	1.045264E-17
3.813307E+03	5.482373E-16	1.110862E-17
3.823237E+03	5.845955E-16	1.176488E-17
3.833168E+03	6.203227E-16	1.239875E-17
3.843098E+03	6.542357E-16	1.298708E-17
3.853029E+03	6.853348E-16	1.351095E-17
3.862959E+03	7.128057E-16	1.395562E-17
3.872890E+03	7.361156E-16	1.431227E-17
3.882820E+03	7.550089E-16	1.457770E-17
3.892751E+03	7.694657E-16	1.475337E-17
3.902681E+03	7.796431E-16	1.484410E-17
3.912612E+03	7.857935E-16	1.485642E-17
3.922542E+03	7.882574E-16	1.479836E-17
3.932473E+03	7.873838E-16	1.467792E-17
3.942403E+03	7.835214E-16	1.450290E-17
3.952334E+03	7.770448E-16	1.428137E-17
3.962264E+03	7.683449E-16	1.402151E-17
3.972195E+03	7.578300E-16	1.373158E-17
3.982125E+03	7.459358E-16	1.342013E-17
3.992056E+03	7.330533E-16	1.309467E-17
4.001986E+03	7.196364E-16	1.276362E-17
4.011917E+03	7.060357E-16	1.243335E-17
4.021847E+03	6.926128E-16	1.211023E-17
4.031778E+03	6.796433E-16	1.179898E-17
4.041708E+03	6.673161E-16	1.150267E-17
4.051639E+03	6.557909E-16	1.122378E-17
4.061569E+03	6.451654E-16	1.096366E-17
4.071500E+03	6.354889E-16	1.072281E-17
4.081430E+03	6.268036E-16	1.050160E-17
4.091360E+03	6.191042E-16	1.029957E-17
4.101291E+03	6.124069E-16	1.011663E-17
4.111221E+03	6.066821E-16	9.951956E-18
4.121152E+03	6.018811E-16	9.804415E-18
4.131082E+03	5.979496E-16	9.672822E-18
4.141013E+03	5.948032E-16	9.555534E-18
4.150943E+03	5.923260E-16	9.450452E-18
4.160874E+03	5.904365E-16	9.356078E-18
4.170804E+03	5.890425E-16	9.270787E-18
4.180735E+03	5.881278E-16	9.194186E-18
4.190665E+03	5.877459E-16	9.126976E-18
4.200596E+03	5.880440E-16	9.071283E-18
4.210526E+03	5.892917E-16	9.031063E-18
4.220457E+03	5.918645E-16	9.011775E-18
4.230387E+03	5.962587E-16	9.020575E-18
4.240318E+03	6.030085E-16	9.065009E-18
4.250248E+03	6.127067E-16	9.153325E-18
4.260179E+03	6.259259E-16	9.293275E-18
4.270109E+03	6.432006E-16	9.491881E-18
4.280040E+03	6.649748E-16	9.754689E-18
4.289970E+03	6.915391E-16	1.008491E-17
4.299901E+03	7.229888E-16	1.048289E-17
4.309831E+03	7.591071E-16	1.094449E-17
4.319762E+03	7.992462E-16	1.145955E-17
4.329692E+03	8.421917E-16	1.201009E-17
4.339623E+03	8.863769E-16	1.257354E-17
4.349553E+03	9.304873E-16	1.313140E-17
4.359484E+03	9.728008E-16	1.365983E-17
4.369414E+03	1.012587E-15	1.414931E-17
4.379345E+03	1.050342E-15	1.460748E-17
4.389275E+03	1.086247E-15	1.503745E-17
4.399206E+03	1.120208E-15	1.543842E-17
4.409136E+03	1.151812E-15	1.580525E-17
4.419067E+03	1.180534E-15	1.613129E-17
4.428997E+03	1.205793E-15	1.640922E-17
4.438928E+03	1.227056E-15	1.663246E-17
4.448858E+03	1.243959E-15	1.679677E-17
4.458788E+03	1.256291E-15	1.690000E-17
4.468719E+03	1.264137E-15	1.694396E-17
4.478649E+03	1.267756E-15	1.693271E-17
4.488580E+03	1.267679E-15	1.687383E-17
4.498510E+03	1.264519E-15	1.677589E-17
4.508441E+03	1.258997E-15	1.664872E-17
4.518371E+03	1.251778E-15	1.650128E-17
4.528302E+03	1.243459E-15	1.634151E-17
4.538232E+03	1.234459E-15	1.617492E-17
4.548163E+03	1.225049E-15	1.600504E-17
4.558093E+03	1.215356E-15	1.583341E-17
4.568024E+03	1.205334E-15	1.565939E-17
4.577954E+03	1.194903E-15	1.548185E-17
4.587885E+03	1.183899E-15	1.529862E-17
4.597815E+03	1.172169E-15	1.510769E-17
4.607746E+03	1.159657E-15	1.490831E-17
4.617676E+03	1.146359E-15	1.470039E-17
4.627607E+03	1.132438E-15	1.448602E-17
4.637537E+03	1.118181E-15	1.426881E-17
4.647468E+03	1.103967E-15	1.405355E-17
4.657398E+03	1.090254E-15	1.384597E-17
4.667329E+03	1.077463E-15	1.365128E-17
4.677259E+03	1.065956E-15	1.347388E-17
4.687190E+03	1.055923E-15	1.331602E-17
4.697120E+03	1.047404E-15	1.317798E-17
4.707051E+03	1.040239E-15	1.305760E-17
4.716981E+03	1.034091E-15	1.295047E-17
4.726912E+03	1.028569E-15	1.285157E-17
4.736842E+03	1.023193E-15	1.275481E-17
4.746773E+03	1.017545E-15	1.265494E-17
4.756703E+03	1.011326E-15	1.254825E-17
4.766634E+03	1.004379E-15	1.243278E-17
4.776564E+03	9.967506E-16	1.230916E-17
4.786495E+03	9.886530E-16	1.218002E-17
4.796425E+03	9.804301E-16	1.204960E-17
4.806356E+03	9.725334E-16	1.192344E-17
4.816286E+03	9.654322E-16	1.180721E-17
4.826216E+03	9.595671E-16	1.170620E-17
4.836147E+03	9.553061E-16	1.162475E-17
4.846077E+03	9.529062E-16	1.156583E-17
4.856008E+03	9.525404E-16	1.153133E-17
4.865938E+03	9.542330E-16	1.152133E-17
4.875869E+03	9.579511E-16	1.153523E-17
4.885799E+03	9.635693E-16	1.157130E-17
4.895730E+03	9.708967E-16	1.162705E-17
4.905660E+03	9.797648E-16	1.170028E-17
4.915591E+03	9.899883E-16	1.178861E-17
4.925521E+03	1.001440E-15	1.189036E-17
4.935452E+03	1.014027E-15	1.200431E-17
4.945382E+03	1.027755E-15	1.213035E-17
4.955313E+03	1.042649E-15	1.226866E-17
4.965243E+03	1.058803E-15	1.242018E-17
4.975174E+03	1.076359E-15	1.258644E-17
4.985104E+03	1.095430E-15	1.276857E-17
4.995035E+03	1.116113E-15	1.296751E-17
5.004965E+03	1.138454E-15	1.318359E-17
5.014896E+03	1.162446E-15	1.341654E-17
5.024826E+03	1.187988E-15	1.366500E-17
5.034757E+03	1.214920E-15	1.392691E-17
5.044687E+03	1.243045E-15	1.419988E-17
5.054618E+03	1.272069E-15	1.448041E-17
5.064548E+03	1.301759E-15	1.476574E-17
5.074479E+03	1.331854E-15	1.505286E-17
5.084409E+03	1.362140E-15	1.533931E-17
5.094340E+03	1.392514E-15	1.562395E-17
5.104270E+03	1.422918E-15	1.590612E-17
5.114201E+03	1.453377E-15	1.618615E-17
5.124131E+03	1.483972E-15	1.646496E-17
5.134062E+03	1.514804E-15	1.674371E-17
5.143992E+03	1.545925E-15	1.702297E-17
5.153923E+03	1.577298E-15	1.730239E-17
5.163853E+03	1.608814E-15	1.758081E-17
5.173784E+03	1.640241E-15	1.785578E-17
5.183714E+03	1.671252E-15	1.812384E-17
5.193644E+03	1.701464E-15	1.838103E-17
5.203575E+03	1.730486E-15	1.862335E-17
5.213505E+03	1.757988E-15	1.884751E-17
5.223436E+03	1.783688E-15	1.905083E-17
5.233366E+03	1.807435E-15	1.923206E-17
5.243297E+03	1.829202E-15	1.939130E-17
5.253227E+03	1.849042E-15	1.952949E-17
5.263158E+03	1.867034E-15	1.964783E-17
5.273088E+03	1.883288E-15	1.974787E-17
5.283019E+03	1.897843E-15	1.983036E-17
5.292949E+03	1.910559E-15	1.989422E-17
5.302880E+03	1.921192E-15	1.993728E-17
5.312810E+03	1.929336E-15	1.995571E-17
5.322741E+03	1.934397E-15	1.994383E-17
5.332671E+03	1.935741E-15	1.989559E-17
5.342602E+03	1.932710E-15	1.980476E-17
5.352532E+03	1.924792E-15	1.966664E-17
5.362463E+03	1.911778E-15	1.947965E-17
5.372393E+03	1.893866E-15	1.924633E-17
5.382324E+03	1.871848E-15	1.897518E-17
5.392254E+03	1.847232E-15	1.868179E-17
5.402185E+03	1.821712E-15	1.838345E-17
5.412115E+03	1.795293E-15	1.808024E-17
5.422046E+03	1.768230E-15	1.777476E-17
5.431976E+03	1.741369E-15	1.747546E-17
5.441907E+03	1.715947E-15	1.719468E-17
5.451837E+03	1.693312E-15	1.694564E-17
5.461768E+03	1.674310E-15	1.673646E-17
5.471698E+03	1.658690E-15	1.656433E-17
5.481629E+03	1.645798E-15	1.642245E-17
5.491559E+03	1.634915E-15	1.630343E-17
5.501490E+03	1.625281E-15	1.619949E-17
5.511420E+03	1.616313E-15	1.610467E-17
5.521351E+03	1.607589E-15	1.601463E-17
5.531281E+03	1.598907E-15	1.592724E-17
5.541212E+03	1.590317E-15	1.584283E-17
5.551142E+03	1.582062E-15	1.576372E-17
5.561072E+03	1.574555E-15	1.569391E-17
5.571003E+03	1.568285E-15	1.563816E-17
5.580933E+03	1.563822E-15	1.560206E-17
5.590864E+03	1.561783E-15	1.559171E-17
5.600794E+03	1.562746E-15	1.561282E-17
5.610725E+03	1.567257E-15	1.567086E-17
5.620655E+03	1.575785E-15	1.577054E-17
5.630586E+03	1.588707E-15	1.591568E-17
5.640516E+03	1.606228E-15	1.610843E-17
5.650447E+03	1.628417E-15	1.634959E-17
5.660377E+03	1.655175E-15	1.663830E-17
5.670308E+03	1.686226E-15	1.697194E-17
5.680238E+03	1.721137E-15	1.734631E-17
5.690169E+03	1.759270E-15	1.775510E-17
5.700099E+03	1.799830E-15	1.819042E-17
5.710030E+03	1.841942E-15	1.864352E-17
5.719960E+03	1.884581E-15	1.910409E-17
5.729891E+03	1.926713E-15	1.956166E-17
5.739821E+03	1.967249E-15	2.000512E-17
5.749752E+03	2.005217E-15	2.042449E-17
5.759682E+03	2.039731E-15	2.081062E-17
5.769613E+03	2.070055E-15	2.115581E-17
5.779543E+03	2.095623E-15	2.145403E-17
5.789474E+03	2.116074E-15	2.170131E-17
5.799404E+03	2.131151E-15	2.189476E-17
5.809335E+03	2.140811E-15	2.203360E-17
5.819265E+03	2.145094E-15	2.211796E-17
5.829196E+03	2.144076E-15	2.214830E-17
5.839126E+03	2.137905E-15	2.212585E-17
5.849057E+03	2.126616E-15	2.205065E-17
5.858987E+03	2.110180E-15	2.192212E-17
5.868918E+03	2.088555E-15	2.173947E-17
5.878848E+03	2.061661E-15	2.150158E-17
5.888779E+03	2.029465E-15	2.120776E-17
5.898709E+03	1.992044E-15	2.085848E-17
5.908640E+03	1.949744E-15	2.045704E-17
5.918570E+03	1.903078E-15	2.000850E-17
5.928500E+03	1.852861E-15	1.952114E-17
5.938431E+03	1.800159E-15	1.900597E-17
5.948361E+03	1.746103E-15	1.847477E-17
5.958292E+03	1.691915E-15	1.794038E-17
5.968222E+03	1.638822E-15	1.741579E-17
5.978153E+03	1.587878E-15	1.691230E-17
5.988083E+03	1.540043E-15	1.644026E-17
5.998014E+03	1.496139E-15	1.600867E-17
6.007944E+03	1.456825E-15	1.562487E-17
6.017875E+03	1.422619E-15	1.529476E-17
6.027805E+03	1.393894E-15	1.502274E-17
6.037736E+03	1.370918E-15	1.481213E-17
6.047666E+03	1.353866E-15	1.466528E-17
6.057597E+03	1.342797E-15	1.458336E-17
6.067527E+03	1.337678E-15	1.456651E-17
6.077458E+03	1.338443E-15	1.461457E-17
6.087388E+03	1.344964E-15	1.472671E-17
6.097319E+03	1.357114E-15	1.490213E-17
6.107249E+03	1.374730E-15	1.513961E-17
6.117180E+03	1.397574E-15	1.543717E-17
6.127110E+03	1.425316E-15	1.579174E-17
6.137041E+03	1.457447E-15	1.619828E-17
6.146971E+03	1.493041E-15	1.664696E-17
6.156902E+03	1.530788E-15	1.712349E-17
6.166832E+03	1.568667E-15	1.760542E-17
6.176763E+03	1.603988E-15	1.806245E-17
6.186693E+03	1.633307E-15	1.845538E-17
6.196624E+03	1.652591E-15	1.873771E-17
6.206554E+03	1.660146E-15	1.888895E-17
6.216485E+03	1.658413E-15	1.893551E-17
6.226415E+03	1.650108E-15	1.890726E-17
6.236346E+03	1.637585E-15	1.883040E-17
6.246276E+03	1.622715E-15	1.872589E-17
6.256207E+03	1.606911E-15	1.860971E-17
6.266137E+03	1.591242E-15	1.849406E-17
6.276068E+03	1.576415E-15	1.838713E-17
6.285998E+03	1.562886E-15	1.829425E-17
6.295929E+03	1.550963E-15	1.821913E-17
6.305859E+03	1.540855E-15	1.816436E-17
6.315789E+03	1.532745E-15	1.813225E-17
6.325720E+03	1.526707E-15	1.812384E-17
6.335650E+03	1.522824E-15	1.814034E-17
6.345581E+03	1.521171E-15	1.818282E-17
6.355511E+03	1.521770E-15	1.825176E-17
6.365442E+03	1.524599E-15	1.834708E-17
6.375372E+03	1.529581E-15	1.846808E-17
6.385303E+03	1.536585E-15	1.861336E-17
6.395233E+03	1.545425E-15	1.878082E-17
6.405164E+03	1.555860E-15	1.896767E-17
6.415094E+03	1.567607E-15	1.917056E-17
6.425025E+03	1.580346E-15	1.938565E-17
6.434955E+03	1.593739E-15	1.960880E-17
6.444886E+03	1.607455E-15	1.983594E-17
6.454816E+03	1.621133E-15	2.006254E-17
6.464747E+03	1.634447E-15	2.028449E-17
6.474677E+03	1.647123E-15	2.049828E-17
6.484608E+03	1.658906E-15	2.070058E-17
6.494538E+03	1.669543E-15	2.088806E-17
6.504469E+03	1.678927E-15	2.105921E-17
6.514399E+03	1.686886E-15	2.121167E-17
6.524330E+03	1.693339E-15	2.134426E-17
6.534260E+03	1.698191E-15	2.145557E-17
6.544191E+03	1.701425E-15	2.154521E-17
6.554121E+03	1.702954E-15	2.161189E-17
6.564052E+03	1.702774E-15	2.165542E-17
6.573982E+03	1.700862E-15	2.167530E-17
6.583913E+03	1.697289E-15	2.167231E-17
6.593843E+03	1.692091E-15	2.164679E-17
6.603774E+03	1.685368E-15	2.159987E-17
6.613704E+03	1.677252E-15	2.153317E-17
6.623635E+03	1.667907E-15	2.144872E-17
6.633565E+03	1.657529E-15	2.134896E-17
6.643496E+03	1.646330E-15	2.123662E-17
6.653426E+03	1.634563E-15	2.111492E-17
6.663357E+03	1.622423E-15	2.098641E-17
6.673287E+03	1.610193E-15	2.085475E-17
6.683217E+03	1.598107E-15	2.072303E-17
6.693148E+03	1.586369E-15	2.059394E-17
6.703078E+03	1.575186E-15	2.047022E-17
6.713009E+03	1.564746E-15	2.035439E-17
6.722939E+03	1.555235E-15	2.024894E-17
6.732870E+03	1.546788E-15	2.015571E-17
6.742800E+03	1.539492E-15	2.007591E-17
6.752731E+03	1.533445E-15	2.001091E-17
6.762661E+03	1.528672E-15	1.996107E-17
6.772592E+03	1.525206E-15	1.992693E-17
6.782522E+03	1.523010E-15	1.990806E-17
6.792453E+03	1.522060E-15	1.990422E-17
6.802383E+03	1.522289E-15	1.991457E-17
6.812314E+03	1.523605E-15	1.993797E-17
6.822244E+03	1.525899E-15	1.997305E-17
6.832175E+03	1.529025E-15	2.001794E-17
6.842105E+03	1.532865E-15	2.007114E-17
6.852036E+03	1.537271E-15	2.013075E-17
6.861966E+03	1.542089E-15	2.019481E-17
6.871897E+03	1.547163E-15	2.026133E-17
6.881827E+03	1.552320E-15	2.032807E-17
6.891758E+03	1.557464E-15	2.039385E-17
6.901688E+03	1.562449E-15	2.045680E-17
6.911619E+03	1.567149E-15	2.051535E-17
6.921549E+03	1.571532E-15	2.056911E-17
6.931480E+03	1.575519E-15	2.061717E-17
6.941410E+03	1.579082E-15	2.065921E-17
6.951341E+03	1.582213E-15	2.069520E-17
6.961271E+03	1.584920E-15	2.072535E-17
6.971202E+03	1.587223E-15	2.075001E-17
6.981132E+03	1.589172E-15	2.076991E-17
6.991063E+03	1.590745E-15	2.078487E-17
7.000993E+03	1.592007E-15	2.079587E-17
7.010924E+03	1.592945E-15	2.080280E-17
7.020854E+03	1.593576E-15	2.080602E-17
7.030785E+03	1.593829E-15	2.080470E-17
7.040715E+03	1.593707E-15	2.079901E-17
7.050645E+03	1.593148E-15	2.078823E-17
7.060576E+03	1.592016E-15	2.077073E-17
7.070506E+03	1.590256E-15	2.074591E-17
7.080437E+03	1.587747E-15	2.071230E-17
7.090367E+03	1.584304E-15	2.066762E-17
7.100298E+03	1.579832E-15	2.061076E-17
7.110228E+03	1.574188E-15	2.053996E-17
7.120159E+03	1.567206E-15	2.045315E-17
7.130089E+03	1.558755E-15	2.034875E-17
7.140020E+03	1.548747E-15	2.022570E-17
7.149950E+03	1.537068E-15	2.008258E-17
7.159881E+03	1.523682E-15	1.991898E-17
7.169811E+03	1.508536E-15	1.973426E-17
7.179742E+03	1.491663E-15	1.952888E-17
7.189672E+03	1.473083E-15	1.930312E-17
7.199603E+03	1.452902E-15	1.905836E-17
7.209533E+03	1.431214E-15	1.879578E-17
7.219464E+03	1.408190E-15	1.851760E-17
7.229394E+03	1.384003E-15	1.822602E-17
7.239325E+03	1.358823E-15	1.792322E-17
7.249255E+03	1.332857E-15	1.761184E-17
7.259186E+03	1.306343E-15	1.729491E-17
7.269116E+03	1.279496E-15	1.697522E-17
7.279047E+03	1.252511E-15	1.665525E-17
7.288977E+03	1.225619E-15	1.633797E-17
7.298908E+03	1.199006E-15	1.602579E-17
7.308838E+03	1.172892E-15	1.572161E-17
7.318769E+03	1.147478E-15	1.542805E-17
7.328699E+03	1.122947E-15	1.514756E-17
7.338630E+03	1.099526E-15	1.488322E-17
7.348560E+03	1.077411E-15	1.463772E-17
7.358491E+03	1.056834E-15	1.441431E-17
7.368421E+03	1.037979E-15	1.421566E-17
7.378352E+03	1.021059E-15	1.404486E-17
7.388282E+03	1.006148E-15	1.390320E-17
7.398213E+03	9.933438E-16	1.379227E-17
7.408143E+03	9.826335E-16	1.371215E-17
7.418073E+03	9.739149E-16	1.366166E-17
7.428004E+03	9.670636E-16	1.363937E-17
7.437934E+03	9.618901E-16	1.364288E-17
7.447865E+03	9.582417E-16	1.367032E-17
7.457795E+03	9.559832E-16	1.372002E-17
7.467726E+03	9.549976E-16	1.379059E-17
7.477656E+03	9.553049E-16	1.388257E-17
7.487587E+03	9.568621E-16	1.399564E-17
7.497517E+03	9.597291E-16	1.413098E-17
7.507448E+03	9.639314E-16	1.428931E-17
7.517378E+03	9.694571E-16	1.447083E-17
7.527309E+03	9.762719E-16	1.467541E-17
7.537239E+03	9.842990E-16	1.490228E-17
7.547170E+03	9.933369E-16	1.514876E-17
7.557100E+03	1.003087E-15	1.541057E-17
7.567031E+03	1.013226E-15	1.568299E-17
7.576961E+03	1.023711E-15	1.596546E-17
7.586892E+03	1.034609E-15	1.625915E-17
7.596822E+03	1.045768E-15	1.656184E-17
7.606753E+03	1.057055E-15	1.687147E-17
7.616683E+03	1.068206E-15	1.718384E-17
7.626614E+03	1.079023E-15	1.749571E-17
7.636544E+03	1.089177E-15	1.780157E-17
7.646475E+03	1.098420E-15	1.809703E-17
7.656405E+03	1.106512E-15	1.837776E-17
7.666336E+03	1.113187E-15	1.863881E-17
7.676266E+03	1.118197E-15	1.887539E-17
7.686197E+03	1.121381E-15	1.908402E-17
7.696127E+03	1.122535E-15	1.926042E-17
7.706058E+03	1.121508E-15	1.940103E-17
