#wls	flux	fluxerr
1.588878E+03	2.742157E-18	1.001119E-19
1.628600E+03	2.879882E-18	1.050039E-19
1.668322E+03	2.968371E-18	1.080865E-19
1.708044E+03	3.000777E-18	1.091174E-19
1.747766E+03	2.972092E-18	1.079229E-19
1.787488E+03	2.873076E-18	1.041773E-19
1.827210E+03	2.697923E-18	9.768184E-20
1.866931E+03	2.447027E-18	8.846350E-20
1.906653E+03	2.130534E-18	7.690200E-20
1.946375E+03	1.773332E-18	6.390650E-20
1.986097E+03	1.413501E-18	5.085561E-20
2.025819E+03	1.095672E-18	3.935430E-20
2.065541E+03	8.558111E-19	3.068594E-20
2.105263E+03	7.102734E-19	2.542244E-20
2.144985E+03	6.581035E-19	2.351236E-20
2.184707E+03	6.929782E-19	2.471219E-20
2.224429E+03	8.108067E-19	2.885877E-20
2.264151E+03	1.008721E-18	3.583266E-20
2.303873E+03	1.280413E-18	4.539242E-20
2.343595E+03	1.614062E-18	5.710270E-20
2.383317E+03	1.994215E-18	7.040260E-20
2.423039E+03	2.405493E-18	8.473787E-20
2.462761E+03	2.833398E-18	9.958957E-20
2.502483E+03	3.266837E-18	1.145624E-19
2.542205E+03	3.696368E-18	1.293223E-19
2.581927E+03	4.114243E-18	1.435973E-19
2.621648E+03	4.515011E-18	1.571981E-19
2.661370E+03	4.893294E-18	1.699399E-19
2.701092E+03	5.246289E-18	1.817292E-19
2.740814E+03	5.571627E-18	1.924887E-19
2.780536E+03	5.868837E-18	2.022078E-19
2.820258E+03	6.139498E-18	2.109466E-19
2.859980E+03	6.386536E-18	2.188112E-19
2.899702E+03	6.614957E-18	2.259778E-19
2.939424E+03	6.831044E-18	2.326644E-19
2.979146E+03	7.042688E-18	2.391412E-19
2.989076E+03	7.095833E-18	2.407591E-19
2.999007E+03	7.149875E-18	2.424037E-19
3.008937E+03	7.204599E-18	2.440675E-19
3.018868E+03	7.260300E-18	2.457605E-19
3.028798E+03	7.319715E-18	2.475751E-19
3.038729E+03	7.384550E-18	2.495687E-19
3.048659E+03	7.454117E-18	2.517177E-19
3.058590E+03	7.528978E-18	2.540404E-19
3.068520E+03	7.608883E-18	2.565281E-19
3.078451E+03	7.692858E-18	2.591474E-19
3.088381E+03	7.781521E-18	2.619189E-19
3.098312E+03	7.874384E-18	2.648256E-19
3.108242E+03	7.971379E-18	2.678649E-19
3.118173E+03	8.072494E-18	2.710360E-19
3.128103E+03	8.178136E-18	2.743521E-19
3.138034E+03	8.287982E-18	2.778020E-19
3.147964E+03	8.402527E-18	2.814019E-19
3.157895E+03	8.521526E-18	2.851432E-19
3.167825E+03	8.645156E-18	2.890312E-19
3.177756E+03	8.774033E-18	2.930861E-19
3.187686E+03	8.908420E-18	2.973162E-19
3.197617E+03	9.048210E-18	3.017174E-19
3.207547E+03	9.194137E-18	3.063137E-19
3.217478E+03	9.346171E-18	3.111033E-19
3.227408E+03	9.505136E-18	3.161131E-19
3.237339E+03	9.671486E-18	3.213575E-19
3.247269E+03	9.845716E-18	3.268522E-19
3.257200E+03	1.002794E-17	3.326002E-19
3.267130E+03	1.021916E-17	3.386339E-19
3.277061E+03	1.042000E-17	3.449731E-19
3.286991E+03	1.063114E-17	3.516390E-19
3.296922E+03	1.085283E-17	3.586396E-19
3.306852E+03	1.108674E-17	3.660281E-19
3.316783E+03	1.133279E-17	3.738010E-19
3.326713E+03	1.159274E-17	3.820152E-19
3.336643E+03	1.186706E-17	3.906845E-19
3.346574E+03	1.215624E-17	3.998240E-19
3.356504E+03	1.246225E-17	4.094966E-19
3.366435E+03	1.278571E-17	4.197207E-19
3.376365E+03	1.312776E-17	4.305318E-19
3.386296E+03	1.349007E-17	4.419837E-19
3.396226E+03	1.387292E-17	4.540822E-19
3.406157E+03	1.427863E-17	4.669018E-19
3.416087E+03	1.470807E-17	4.804683E-19
3.426018E+03	1.516321E-17	4.948438E-19
3.435948E+03	1.564504E-17	5.100572E-19
3.445879E+03	1.615511E-17	5.261568E-19
3.455809E+03	1.669563E-17	5.432111E-19
3.465740E+03	1.726772E-17	5.612535E-19
3.475670E+03	1.787376E-17	5.803577E-19
3.485601E+03	1.851561E-17	6.005806E-19
3.495531E+03	1.919456E-17	6.219599E-19
3.505462E+03	1.991322E-17	6.445764E-19
3.515392E+03	2.067300E-17	6.684708E-19
3.525323E+03	2.147668E-17	6.937291E-19
3.535253E+03	2.232648E-17	7.204177E-19
3.545184E+03	2.322394E-17	7.485812E-19
3.555114E+03	2.417288E-17	7.783370E-19
3.565045E+03	2.517418E-17	8.097085E-19
3.574975E+03	2.623107E-17	8.427927E-19
3.584906E+03	2.734604E-17	8.776638E-19
3.594836E+03	2.852161E-17	9.143962E-19
3.604767E+03	2.976036E-17	9.530651E-19
3.614697E+03	3.106389E-17	9.937148E-19
3.624628E+03	3.243653E-17	1.036476E-18
3.634558E+03	3.387984E-17	1.081391E-18
3.644489E+03	3.539614E-17	1.128526E-18
3.654419E+03	3.698763E-17	1.177941E-18
3.664350E+03	3.865631E-17	1.229692E-18
3.674280E+03	4.040387E-17	1.283824E-18
3.684211E+03	4.223169E-17	1.340371E-18
3.694141E+03	4.414075E-17	1.399354E-18
3.704071E+03	4.613273E-17	1.460817E-18
3.714002E+03	4.820499E-17	1.524667E-18
3.723932E+03	5.035920E-17	1.590947E-18
3.733863E+03	5.259238E-17	1.659552E-18
3.743793E+03	5.490184E-17	1.730388E-18
3.753724E+03	5.728525E-17	1.803372E-18
3.763654E+03	5.973469E-17	1.878247E-18
3.773585E+03	6.224677E-17	1.954897E-18
3.783515E+03	6.481212E-17	2.033019E-18
3.793446E+03	6.742132E-17	2.112313E-18
3.803376E+03	7.006303E-17	2.192416E-18
3.813307E+03	7.272600E-17	2.272973E-18
3.823237E+03	7.539198E-17	2.353411E-18
3.833168E+03	7.804772E-17	2.433314E-18
3.843098E+03	8.067314E-17	2.512058E-18
3.853029E+03	8.324840E-17	2.589028E-18
3.862959E+03	8.575484E-17	2.663649E-18
3.872890E+03	8.816717E-17	2.735144E-18
3.882820E+03	9.046823E-17	2.802991E-18
3.892751E+03	9.263358E-17	2.866446E-18
3.902681E+03	9.464822E-17	2.925060E-18
3.912612E+03	9.649081E-17	2.978192E-18
3.922542E+03	9.815065E-17	3.025532E-18
3.932473E+03	9.961179E-17	3.066610E-18
3.942403E+03	1.008702E-16	3.101323E-18
3.952334E+03	1.019167E-16	3.129419E-18
3.962264E+03	1.027532E-16	3.150976E-18
3.972195E+03	1.033832E-16	3.166128E-18
3.982125E+03	1.038146E-16	3.175140E-18
3.992056E+03	1.040571E-16	3.178334E-18
4.001986E+03	1.041281E-16	3.176264E-18
4.011917E+03	1.040463E-16	3.169521E-18
4.021847E+03	1.038307E-16	3.158698E-18
4.031778E+03	1.035063E-16	3.144577E-18
4.041708E+03	1.030956E-16	3.127850E-18
4.051639E+03	1.026237E-16	3.109290E-18
4.061569E+03	1.021183E-16	3.089741E-18
4.071500E+03	1.016025E-16	3.069908E-18
4.081430E+03	1.011012E-16	3.050542E-18
4.091360E+03	1.006378E-16	3.032350E-18
4.101291E+03	1.002339E-16	3.015972E-18
4.111221E+03	9.990923E-17	3.001998E-18
4.121152E+03	9.968170E-17	2.990954E-18
4.131082E+03	9.956547E-17	2.983252E-18
4.141013E+03	9.957653E-17	2.979356E-18
4.150943E+03	9.972750E-17	2.979628E-18
4.160874E+03	1.000278E-16	2.984332E-18
4.170804E+03	1.004876E-16	2.993749E-18
4.180735E+03	1.011174E-16	3.008173E-18
4.190665E+03	1.019212E-16	3.027699E-18
4.200596E+03	1.029085E-16	3.052587E-18
4.210526E+03	1.040805E-16	3.082853E-18
4.220457E+03	1.054416E-16	3.118597E-18
4.230387E+03	1.069924E-16	3.159813E-18
4.240318E+03	1.087301E-16	3.206393E-18
4.250248E+03	1.106509E-16	3.258204E-18
4.260179E+03	1.127512E-16	3.315111E-18
4.270109E+03	1.150204E-16	3.376782E-18
4.280040E+03	1.174462E-16	3.442833E-18
4.289970E+03	1.200111E-16	3.512730E-18
4.299901E+03	1.226989E-16	3.585978E-18
4.309831E+03	1.254875E-16	3.661920E-18
4.319762E+03	1.283515E-16	3.739798E-18
4.329692E+03	1.312662E-16	3.818887E-18
4.339623E+03	1.342066E-16	3.898449E-18
4.349553E+03	1.371498E-16	3.977817E-18
4.359484E+03	1.400774E-16	4.056457E-18
4.369414E+03	1.429866E-16	4.134293E-18
4.379345E+03	1.458816E-16	4.211442E-18
4.389275E+03	1.487780E-16	4.288362E-18
4.399206E+03	1.516917E-16	4.365504E-18
4.409136E+03	1.546467E-16	4.443559E-18
4.419067E+03	1.576597E-16	4.522996E-18
4.428997E+03	1.607432E-16	4.604168E-18
4.438928E+03	1.639003E-16	4.687149E-18
4.448858E+03	1.671213E-16	4.771656E-18
4.458788E+03	1.703920E-16	4.857271E-18
4.468719E+03	1.736953E-16	4.943505E-18
4.478649E+03	1.769967E-16	5.029368E-18
4.488580E+03	1.802676E-16	5.114050E-18
4.498510E+03	1.834687E-16	5.196438E-18
4.508441E+03	1.865574E-16	5.275343E-18
4.518371E+03	1.894935E-16	5.349640E-18
4.528302E+03	1.922303E-16	5.418034E-18
4.538232E+03	1.947234E-16	5.479305E-18
4.548163E+03	1.969285E-16	5.532241E-18
4.558093E+03	1.988040E-16	5.575715E-18
4.568024E+03	2.003095E-16	5.608639E-18
4.577954E+03	2.014261E-16	5.630538E-18
4.587885E+03	2.021281E-16	5.640751E-18
4.597815E+03	2.024199E-16	5.639456E-18
4.607746E+03	2.023069E-16	5.626858E-18
4.617676E+03	2.018138E-16	5.603708E-18
4.627607E+03	2.009709E-16	5.570894E-18
4.637537E+03	1.998158E-16	5.529503E-18
4.647468E+03	1.983972E-16	5.480933E-18
4.657398E+03	1.967679E-16	5.426673E-18
4.667329E+03	1.949833E-16	5.368276E-18
4.677259E+03	1.931020E-16	5.307381E-18
4.687190E+03	1.911917E-16	5.245858E-18
4.697120E+03	1.893135E-16	5.185383E-18
4.707051E+03	1.875270E-16	5.127582E-18
4.716981E+03	1.858879E-16	5.073965E-18
4.726912E+03	1.844449E-16	5.025837E-18
4.736842E+03	1.832324E-16	4.984109E-18
4.746773E+03	1.822875E-16	4.949753E-18
4.756703E+03	1.816316E-16	4.923312E-18
4.766634E+03	1.812887E-16	4.905396E-18
4.776564E+03	1.812681E-16	4.896209E-18
4.786495E+03	1.815863E-16	4.896154E-18
4.796425E+03	1.822453E-16	4.905235E-18
4.806356E+03	1.832480E-16	4.923483E-18
4.816286E+03	1.845952E-16	4.950868E-18
4.826216E+03	1.862824E-16	4.987222E-18
4.836147E+03	1.882990E-16	5.032213E-18
4.846077E+03	1.906318E-16	5.085443E-18
4.856008E+03	1.932564E-16	5.146217E-18
4.865938E+03	1.961395E-16	5.213604E-18
4.875869E+03	1.992273E-16	5.286147E-18
4.885799E+03	2.024498E-16	5.361957E-18
4.895730E+03	2.057314E-16	5.439019E-18
4.905660E+03	2.089874E-16	5.515092E-18
4.915591E+03	2.121287E-16	5.587828E-18
4.925521E+03	2.150764E-16	5.655174E-18
4.935452E+03	2.177516E-16	5.715084E-18
4.945382E+03	2.200995E-16	5.766167E-18
4.955313E+03	2.220805E-16	5.807430E-18
4.965243E+03	2.236939E-16	5.838909E-18
4.975174E+03	2.249605E-16	5.861204E-18
4.985104E+03	2.259295E-16	5.875639E-18
4.995035E+03	2.266639E-16	5.883898E-18
5.004965E+03	2.272407E-16	5.888010E-18
5.014896E+03	2.277308E-16	5.889827E-18
5.024826E+03	2.281883E-16	5.890764E-18
5.034757E+03	2.286610E-16	5.892059E-18
5.044687E+03	2.291799E-16	5.894503E-18
5.054618E+03	2.297698E-16	5.898731E-18
5.064548E+03	2.304493E-16	5.905209E-18
5.074479E+03	2.312378E-16	5.914422E-18
5.084409E+03	2.321533E-16	5.926813E-18
5.094340E+03	2.332113E-16	5.942763E-18
5.104270E+03	2.344336E-16	5.962806E-18
5.114201E+03	2.358336E-16	5.987260E-18
5.124131E+03	2.374263E-16	6.016482E-18
5.134062E+03	2.392270E-16	6.050829E-18
5.143992E+03	2.412569E-16	6.090815E-18
5.153923E+03	2.435294E-16	6.136743E-18
5.163853E+03	2.460678E-16	6.189164E-18
5.173784E+03	2.488956E-16	6.248638E-18
5.183714E+03	2.520366E-16	6.315718E-18
5.193644E+03	2.555106E-16	6.390861E-18
5.203575E+03	2.593201E-16	6.474082E-18
5.213505E+03	2.634598E-16	6.565207E-18
5.223436E+03	2.679067E-16	6.663622E-18
5.233366E+03	2.726188E-16	6.768238E-18
5.243297E+03	2.775287E-16	6.877359E-18
5.253227E+03	2.825670E-16	6.989237E-18
5.263158E+03	2.876476E-16	7.101739E-18
5.273088E+03	2.926737E-16	7.212475E-18
5.283019E+03	2.975550E-16	7.319231E-18
5.292949E+03	3.022051E-16	7.419915E-18
5.302880E+03	3.065524E-16	7.512805E-18
5.312810E+03	3.105416E-16	7.596593E-18
5.322741E+03	3.141539E-16	7.670871E-18
5.332671E+03	3.174020E-16	7.736005E-18
5.342602E+03	3.203218E-16	7.792918E-18
5.352532E+03	3.229610E-16	7.842818E-18
5.362463E+03	3.253909E-16	7.887475E-18
5.372393E+03	3.276822E-16	7.928628E-18
5.382324E+03	3.299027E-16	7.967937E-18
5.392254E+03	3.321061E-16	8.006711E-18
5.402185E+03	3.343247E-16	8.045730E-18
5.412115E+03	3.365733E-16	8.085354E-18
5.422046E+03	3.388410E-16	8.125318E-18
5.431976E+03	3.410984E-16	8.164924E-18
5.441907E+03	3.433037E-16	8.203172E-18
5.451837E+03	3.454113E-16	8.238993E-18
5.461768E+03	3.473147E-16	8.269859E-18
5.471698E+03	3.487517E-16	8.289573E-18
5.481629E+03	3.494682E-16	8.292160E-18
5.491559E+03	3.492608E-16	8.272893E-18
5.501490E+03	3.480124E-16	8.229120E-18
5.511420E+03	3.456710E-16	8.159736E-18
5.521351E+03	3.422518E-16	8.065236E-18
5.531281E+03	3.378044E-16	7.946909E-18
5.541212E+03	3.324422E-16	7.807542E-18
5.551142E+03	3.263086E-16	7.650601E-18
5.561072E+03	3.196047E-16	7.480880E-18
5.571003E+03	3.125551E-16	7.303691E-18
5.580933E+03	3.053861E-16	7.124349E-18
5.590864E+03	2.983250E-16	6.948154E-18
5.600794E+03	2.915816E-16	6.779968E-18
5.610725E+03	2.853398E-16	6.624017E-18
5.620655E+03	2.797617E-16	6.484000E-18
5.630586E+03	2.749819E-16	6.362949E-18
5.640516E+03	2.711113E-16	6.263334E-18
5.650447E+03	2.682354E-16	6.187024E-18
5.660377E+03	2.664277E-16	6.135601E-18
5.670308E+03	2.657416E-16	6.110174E-18
5.680238E+03	2.662220E-16	6.111651E-18
5.690169E+03	2.678989E-16	6.140593E-18
5.700099E+03	2.708001E-16	6.197515E-18
5.710030E+03	2.749432E-16	6.282688E-18
5.719960E+03	2.803344E-16	6.396130E-18
5.729891E+03	2.869708E-16	6.537651E-18
5.739821E+03	2.948366E-16	6.706764E-18
5.749752E+03	3.038883E-16	6.902369E-18
5.759682E+03	3.140580E-16	7.122810E-18
5.769613E+03	3.252439E-16	7.365683E-18
5.779543E+03	3.372955E-16	7.627492E-18
5.789474E+03	3.500329E-16	7.904101E-18
5.799404E+03	3.632233E-16	8.190209E-18
5.809335E+03	3.765928E-16	8.479615E-18
5.819265E+03	3.898270E-16	8.765250E-18
5.829196E+03	4.025809E-16	9.039393E-18
5.839126E+03	4.144863E-16	9.293845E-18
5.849057E+03	4.251584E-16	9.520087E-18
5.858987E+03	4.342102E-16	9.709586E-18
5.868918E+03	4.412836E-16	9.854508E-18
5.878848E+03	4.460985E-16	9.948788E-18
5.888779E+03	4.484643E-16	9.988393E-18
5.898709E+03	4.483082E-16	9.971924E-18
5.908640E+03	4.456917E-16	9.900966E-18
5.918570E+03	4.408215E-16	9.780315E-18
5.928500E+03	4.340194E-16	9.617290E-18
5.938431E+03	4.256503E-16	9.420124E-18
5.948361E+03	4.161337E-16	9.198211E-18
5.958292E+03	4.058774E-16	8.960638E-18
5.968222E+03	3.952675E-16	8.715969E-18
5.978153E+03	3.846484E-16	8.471807E-18
5.988083E+03	3.743073E-16	8.234458E-18
5.998014E+03	3.644830E-16	8.009140E-18
6.007944E+03	3.553617E-16	7.799893E-18
6.017875E+03	3.470866E-16	7.609792E-18
6.027805E+03	3.397637E-16	7.441086E-18
6.037736E+03	3.334665E-16	7.295312E-18
6.047666E+03	3.282410E-16	7.173394E-18
6.057597E+03	3.241240E-16	7.076056E-18
6.067527E+03	3.211189E-16	7.003292E-18
6.077458E+03	3.192203E-16	6.954913E-18
6.087388E+03	3.183923E-16	6.930057E-18
6.097319E+03	3.185755E-16	6.927370E-18
6.107249E+03	3.196650E-16	6.944509E-18
6.117180E+03	3.215443E-16	6.978892E-18
6.127110E+03	3.240640E-16	7.027240E-18
6.137041E+03	3.270508E-16	7.085763E-18
6.146971E+03	3.303281E-16	7.150619E-18
6.156902E+03	3.337274E-16	7.218154E-18
6.166832E+03	3.371033E-16	7.285223E-18
6.176763E+03	3.403382E-16	7.349290E-18
6.186693E+03	3.433691E-16	7.409011E-18
6.196624E+03	3.461772E-16	7.463988E-18
6.206554E+03	3.487668E-16	7.514328E-18
6.216485E+03	3.511368E-16	7.560020E-18
6.226415E+03	3.533173E-16	7.601724E-18
6.236346E+03	3.553331E-16	7.639981E-18
6.246276E+03	3.572265E-16	7.675709E-18
6.256207E+03	3.590196E-16	7.709390E-18
6.266137E+03	3.607360E-16	7.741530E-18
6.276068E+03	3.623627E-16	7.771860E-18
6.285998E+03	3.638870E-16	7.800108E-18
6.295929E+03	3.652724E-16	7.825496E-18
6.305859E+03	3.664910E-16	7.847432E-18
6.315789E+03	3.675123E-16	7.865269E-18
6.325720E+03	3.683060E-16	7.878368E-18
6.335650E+03	3.688596E-16	7.886463E-18
6.345581E+03	3.691526E-16	7.889125E-18
6.355511E+03	3.691846E-16	7.886351E-18
6.365442E+03	3.689613E-16	7.878271E-18
6.375372E+03	3.684960E-16	7.865173E-18
6.385303E+03	3.678331E-16	7.848005E-18
6.395233E+03	3.670237E-16	7.827865E-18
6.405164E+03	3.661447E-16	7.806393E-18
6.415094E+03	3.652728E-16	7.785218E-18
6.425025E+03	3.644814E-16	7.765907E-18
6.434955E+03	3.638356E-16	7.749839E-18
6.444886E+03	3.633809E-16	7.737983E-18
6.454816E+03	3.631551E-16	7.731134E-18
6.464747E+03	3.631632E-16	7.729398E-18
6.474677E+03	3.634137E-16	7.732946E-18
6.484608E+03	3.638918E-16	7.741462E-18
6.494538E+03	3.645898E-16	7.754779E-18
6.504469E+03	3.654856E-16	7.772423E-18
6.514399E+03	3.665606E-16	7.793997E-18
6.524330E+03	3.677990E-16	7.819163E-18
6.534260E+03	3.691751E-16	7.847374E-18
6.544191E+03	3.706666E-16	7.878154E-18
6.554121E+03	3.722476E-16	7.910956E-18
6.564052E+03	3.738602E-16	7.944549E-18
6.573982E+03	3.754211E-16	7.977161E-18
6.583913E+03	3.768074E-16	8.006184E-18
6.593843E+03	3.778995E-16	8.029081E-18
6.603774E+03	3.785701E-16	8.043144E-18
6.613704E+03	3.786892E-16	8.045618E-18
6.623635E+03	3.781592E-16	8.034423E-18
6.633565E+03	3.768801E-16	8.007436E-18
6.643496E+03	3.747897E-16	7.963336E-18
6.653426E+03	3.718514E-16	7.901335E-18
6.663357E+03	3.680562E-16	7.821241E-18
6.673287E+03	3.634242E-16	7.723472E-18
6.683217E+03	3.580229E-16	7.609451E-18
6.693148E+03	3.519571E-16	7.481401E-18
6.703078E+03	3.453777E-16	7.342513E-18
6.713009E+03	3.384395E-16	7.196074E-18
6.722939E+03	3.313252E-16	7.045955E-18
6.732870E+03	3.242068E-16	6.895807E-18
6.742800E+03	3.172662E-16	6.749491E-18
6.752731E+03	3.106625E-16	6.610392E-18
6.762661E+03	3.045495E-16	6.481781E-18
6.772592E+03	2.990617E-16	6.366520E-18
6.782522E+03	2.943265E-16	6.267328E-18
6.792453E+03	2.904529E-16	6.186535E-18
6.802383E+03	2.875292E-16	6.126032E-18
6.812314E+03	2.856315E-16	6.087458E-18
6.822244E+03	2.848165E-16	6.072039E-18
6.832175E+03	2.851254E-16	6.080678E-18
6.842105E+03	2.865701E-16	6.113653E-18
6.852036E+03	2.891585E-16	6.171160E-18
6.861966E+03	2.928733E-16	6.252860E-18
6.871897E+03	2.976840E-16	6.358136E-18
6.881827E+03	3.035458E-16	6.486065E-18
6.891758E+03	3.103932E-16	6.635281E-18
6.901688E+03	3.181368E-16	6.803910E-18
6.911619E+03	3.266764E-16	6.989841E-18
6.921549E+03	3.358917E-16	7.190538E-18
6.931480E+03	3.456460E-16	7.403103E-18
6.941410E+03	3.558033E-16	7.624652E-18
6.951341E+03	3.662067E-16	7.851849E-18
6.961271E+03	3.766971E-16	8.081301E-18
6.971202E+03	3.871210E-16	8.309730E-18
6.981132E+03	3.973029E-16	8.533380E-18
6.991063E+03	4.070438E-16	8.747978E-18
7.000993E+03	4.161556E-16	8.949476E-18
7.010924E+03	4.244410E-16	9.133617E-18
7.020854E+03	4.317127E-16	9.296340E-18
7.030785E+03	4.378170E-16	9.434306E-18
7.040715E+03	4.426592E-16	9.545429E-18
7.050645E+03	4.462092E-16	9.629007E-18
7.060576E+03	4.485057E-16	9.685824E-18
7.070506E+03	4.496450E-16	9.717908E-18
7.080437E+03	4.497888E-16	9.728700E-18
7.090367E+03	4.491361E-16	9.722459E-18
7.100298E+03	4.478812E-16	9.703356E-18
7.110228E+03	4.462294E-16	9.675811E-18
7.120159E+03	4.443646E-16	9.643789E-18
7.130089E+03	4.424443E-16	9.610706E-18
7.140020E+03	4.406003E-16	9.579417E-18
7.149950E+03	4.389112E-16	9.551643E-18
7.159881E+03	4.374381E-16	9.528722E-18
7.169811E+03	4.361847E-16	9.510747E-18
7.179742E+03	4.351274E-16	9.497220E-18
7.189672E+03	4.341936E-16	9.486569E-18
7.199603E+03	4.333059E-16	9.477109E-18
7.209533E+03	4.323553E-16	9.466458E-18
7.219464E+03	4.312152E-16	9.451841E-18
7.229394E+03	4.297837E-16	9.431003E-18
7.239325E+03	4.279534E-16	9.401570E-18
7.249255E+03	4.256180E-16	9.361172E-18
7.259186E+03	4.226865E-16	9.307762E-18
7.269116E+03	4.190839E-16	9.239640E-18
7.279047E+03	4.147409E-16	9.155221E-18
7.288977E+03	4.095913E-16	9.052972E-18
7.298908E+03	4.036106E-16	8.932279E-18
7.308838E+03	3.967669E-16	8.792356E-18
7.318769E+03	3.890891E-16	8.633760E-18
7.328699E+03	3.806060E-16	8.457044E-18
7.338630E+03	3.714084E-16	8.264145E-18
7.348560E+03	3.615936E-16	8.057150E-18
7.358491E+03	3.513132E-16	7.839363E-18
7.368421E+03	3.407320E-16	7.614409E-18
7.378352E+03	3.300322E-16	7.386314E-18
7.388282E+03	3.194052E-16	7.159336E-18
7.398213E+03	3.090367E-16	6.937625E-18
7.408143E+03	2.990854E-16	6.724755E-18
7.418073E+03	2.896959E-16	6.524006E-18
7.428004E+03	2.809780E-16	6.337896E-18
7.437934E+03	2.730323E-16	6.168752E-18
7.447865E+03	2.659275E-16	6.018201E-18
7.457795E+03	2.597027E-16	5.887208E-18
7.467726E+03	2.543894E-16	5.776576E-18
7.477656E+03	2.499861E-16	5.686363E-18
7.487587E+03	2.464742E-16	5.616245E-18
7.497517E+03	2.438140E-16	5.565415E-18
7.507448E+03	2.419471E-16	5.532630E-18
7.517378E+03	2.407971E-16	5.516234E-18
7.527309E+03	2.402754E-16	5.514278E-18
7.537239E+03	2.402892E-16	5.524703E-18
7.547170E+03	2.407498E-16	5.545532E-18
7.557100E+03	2.415974E-16	5.575438E-18
7.567031E+03	2.427744E-16	5.613140E-18
7.576961E+03	2.442153E-16	5.657161E-18
7.586892E+03	2.458603E-16	5.706151E-18
7.596822E+03	2.476830E-16	5.759519E-18
7.606753E+03	2.496547E-16	5.816622E-18
7.616683E+03	2.517674E-16	5.877291E-18
7.626614E+03	2.540027E-16	5.941119E-18
7.636544E+03	2.563323E-16	6.007457E-18
7.646475E+03	2.587209E-16	6.075489E-18
7.656405E+03	2.611277E-16	6.144265E-18
7.666336E+03	2.634916E-16	6.212346E-18
7.676266E+03	2.657589E-16	6.278459E-18
7.686197E+03	2.678583E-16	6.340901E-18
7.696127E+03	2.697180E-16	6.397946E-18
7.706058E+03	2.712640E-16	6.447796E-18
