#wls	flux	fluxerr
1.588878E+03	1.811625E-18	7.833160E-20
1.628600E+03	1.896139E-18	8.186630E-20
1.668322E+03	1.949306E-18	8.403557E-20
1.708044E+03	1.967736E-18	8.469916E-20
1.747766E+03	1.948122E-18	8.372182E-20
1.787488E+03	1.884998E-18	8.087676E-20
1.827210E+03	1.774039E-18	7.598823E-20
1.866931E+03	1.614736E-18	6.904532E-20
1.906653E+03	1.412723E-18	6.030009E-20
1.946375E+03	1.182723E-18	5.039070E-20
1.986097E+03	9.491187E-19	4.036195E-20
2.025819E+03	7.410630E-19	3.145342E-20
2.065541E+03	5.831585E-19	2.470229E-20
2.105263E+03	4.873770E-19	2.060294E-20
2.144985E+03	4.543970E-19	1.916852E-20
2.184707E+03	4.808321E-19	2.023999E-20
2.224429E+03	5.644574E-19	2.370751E-20
2.264151E+03	7.032087E-19	2.946797E-20
2.303873E+03	8.920349E-19	3.729339E-20
2.343595E+03	1.121573E-18	4.677716E-20
2.383317E+03	1.379931E-18	5.741047E-20
2.423039E+03	1.655255E-18	6.869057E-20
2.462761E+03	1.937446E-18	8.019185E-20
2.502483E+03	2.219205E-18	9.160852E-20
2.542205E+03	2.495318E-18	1.027237E-19
2.581927E+03	2.762585E-18	1.134056E-19
2.621648E+03	3.019207E-18	1.235814E-19
2.661370E+03	3.264421E-18	1.332215E-19
2.701092E+03	3.498269E-18	1.423294E-19
2.740814E+03	3.721511E-18	1.509381E-19
2.780536E+03	3.935575E-18	1.591072E-19
2.820258E+03	4.142845E-18	1.669344E-19
2.859980E+03	4.345974E-18	1.745267E-19
2.899702E+03	4.549144E-18	1.820512E-19
2.939424E+03	4.756454E-18	1.896693E-19
2.979146E+03	4.974222E-18	1.976280E-19
2.989076E+03	5.031062E-18	1.997004E-19
2.999007E+03	5.089084E-18	2.018146E-19
3.008937E+03	5.148401E-18	2.039746E-19
3.018868E+03	5.209242E-18	2.061895E-19
3.028798E+03	5.273548E-18	2.085357E-19
3.038729E+03	5.342588E-18	2.110631E-19
3.048659E+03	5.416181E-18	2.137638E-19
3.058590E+03	5.494474E-18	2.166431E-19
3.068520E+03	5.576798E-18	2.196740E-19
3.078451E+03	5.663549E-18	2.228716E-19
3.088381E+03	5.754373E-18	2.262214E-19
3.098312E+03	5.849222E-18	2.297210E-19
3.108242E+03	5.948061E-18	2.333685E-19
3.118173E+03	6.051155E-18	2.371737E-19
3.128103E+03	6.158261E-18	2.411266E-19
3.138034E+03	6.269711E-18	2.452395E-19
3.147964E+03	6.385310E-18	2.495043E-19
3.157895E+03	6.505154E-18	2.539241E-19
3.167825E+03	6.629658E-18	2.585146E-19
3.177756E+03	6.758694E-18	2.632700E-19
3.187686E+03	6.892729E-18	2.682079E-19
3.197617E+03	7.031672E-18	2.733242E-19
3.207547E+03	7.176048E-18	2.786384E-19
3.217478E+03	7.325815E-18	2.841481E-19
3.227408E+03	7.481849E-18	2.898866E-19
3.237339E+03	7.643552E-18	2.958298E-19
3.247269E+03	7.812170E-18	3.020249E-19
3.257200E+03	7.987436E-18	3.084609E-19
3.267130E+03	8.170046E-18	3.151634E-19
3.277061E+03	8.360409E-18	3.221473E-19
3.286991E+03	8.558970E-18	3.294285E-19
3.296922E+03	8.766186E-18	3.370234E-19
3.306852E+03	8.982223E-18	3.449371E-19
3.316783E+03	9.208265E-18	3.532137E-19
3.326713E+03	9.444186E-18	3.618469E-19
3.336643E+03	9.691262E-18	3.708841E-19
3.346574E+03	9.949400E-18	3.803201E-19
3.356504E+03	1.021996E-17	3.902051E-19
3.366435E+03	1.050326E-17	4.005494E-19
3.376365E+03	1.079962E-17	4.113637E-19
3.386296E+03	1.111094E-17	4.227174E-19
3.396226E+03	1.143684E-17	4.345946E-19
3.406157E+03	1.177891E-17	4.470534E-19
3.416087E+03	1.213722E-17	4.600933E-19
3.426018E+03	1.251385E-17	4.737913E-19
3.435948E+03	1.290849E-17	4.881329E-19
3.445879E+03	1.332295E-17	5.031830E-19
3.455809E+03	1.375822E-17	5.189766E-19
3.465740E+03	1.421491E-17	5.355330E-19
3.475670E+03	1.469407E-17	5.528885E-19
3.485601E+03	1.519725E-17	5.710980E-19
3.495531E+03	1.572561E-17	5.902010E-19
3.505462E+03	1.627983E-17	6.102194E-19
3.515392E+03	1.686159E-17	6.312117E-19
3.525323E+03	1.747214E-17	6.532200E-19
3.535253E+03	1.811219E-17	6.762667E-19
3.545184E+03	1.878353E-17	7.004135E-19
3.555114E+03	1.948745E-17	7.257036E-19
3.565045E+03	2.022526E-17	7.521801E-19
3.574975E+03	2.099764E-17	7.798634E-19
3.584906E+03	2.180710E-17	8.088404E-19
3.594836E+03	2.265369E-17	8.391066E-19
3.604767E+03	2.353993E-17	8.707499E-19
3.614697E+03	2.446574E-17	9.037603E-19
3.624628E+03	2.543367E-17	9.382248E-19
3.634558E+03	2.644342E-17	9.741265E-19
3.644489E+03	2.749751E-17	1.011550E-18
3.654419E+03	2.859542E-17	1.050469E-18
3.664350E+03	2.973952E-17	1.090962E-18
3.674280E+03	3.092982E-17	1.133024E-18
3.684211E+03	3.216692E-17	1.176666E-18
3.694141E+03	3.345128E-17	1.221899E-18
3.704071E+03	3.478317E-17	1.268723E-18
3.714002E+03	3.616268E-17	1.317134E-18
3.723932E+03	3.758966E-17	1.367117E-18
3.733863E+03	3.906377E-17	1.418653E-18
3.743793E+03	4.058440E-17	1.471709E-18
3.753724E+03	4.215169E-17	1.526283E-18
3.763654E+03	4.376251E-17	1.582254E-18
3.773585E+03	4.541751E-17	1.639635E-18
3.783515E+03	4.711285E-17	1.698282E-18
3.793446E+03	4.884876E-17	1.758194E-18
3.803376E+03	5.062072E-17	1.819201E-18
3.813307E+03	5.242851E-17	1.881289E-18
3.823237E+03	5.426695E-17	1.944264E-18
3.833168E+03	5.613534E-17	2.008096E-18
3.843098E+03	5.802774E-17	2.072566E-18
3.853029E+03	5.994138E-17	2.137569E-18
3.862959E+03	6.187153E-17	2.202934E-18
3.872890E+03	6.381238E-17	2.268449E-18
3.882820E+03	6.575664E-17	2.333852E-18
3.892751E+03	6.769392E-17	2.398774E-18
3.902681E+03	6.961489E-17	2.462885E-18
3.912612E+03	7.150606E-17	2.525709E-18
3.922542E+03	7.335739E-17	2.586897E-18
3.932473E+03	7.515071E-17	2.645814E-18
3.942403E+03	7.687554E-17	2.702102E-18
3.952334E+03	7.851879E-17	2.755311E-18
3.962264E+03	8.006653E-17	2.804967E-18
3.972195E+03	8.150803E-17	2.850710E-18
3.982125E+03	8.283419E-17	2.892241E-18
3.992056E+03	8.404018E-17	2.929410E-18
4.001986E+03	8.512067E-17	2.962052E-18
4.011917E+03	8.607397E-17	2.990131E-18
4.021847E+03	8.690666E-17	3.013897E-18
4.031778E+03	8.762417E-17	3.033559E-18
4.041708E+03	8.823500E-17	3.049431E-18
4.051639E+03	8.875379E-17	3.062036E-18
4.061569E+03	8.919397E-17	3.071855E-18
4.071500E+03	8.957516E-17	3.079574E-18
4.081430E+03	8.991011E-17	3.085643E-18
4.091360E+03	9.022015E-17	3.090800E-18
4.101291E+03	9.052222E-17	3.095629E-18
4.111221E+03	9.083499E-17	3.100770E-18
4.121152E+03	9.117739E-17	3.106864E-18
4.131082E+03	9.156997E-17	3.114606E-18
4.141013E+03	9.202705E-17	3.124472E-18
4.150943E+03	9.257168E-17	3.137232E-18
4.160874E+03	9.321919E-17	3.153387E-18
4.170804E+03	9.398841E-17	3.173554E-18
4.180735E+03	9.489437E-17	3.198217E-18
4.190665E+03	9.595247E-17	3.227867E-18
4.200596E+03	9.717650E-17	3.262939E-18
4.210526E+03	9.857825E-17	3.303796E-18
4.220457E+03	1.001671E-16	3.350719E-18
4.230387E+03	1.019479E-16	3.403830E-18
4.240318E+03	1.039261E-16	3.463275E-18
4.250248E+03	1.060947E-16	3.528789E-18
4.260179E+03	1.084493E-16	3.600180E-18
4.270109E+03	1.109718E-16	3.676814E-18
4.280040E+03	1.136429E-16	3.758022E-18
4.289970E+03	1.164289E-16	3.842661E-18
4.299901E+03	1.192856E-16	3.929250E-18
4.309831E+03	1.221585E-16	4.015985E-18
4.319762E+03	1.249834E-16	4.100754E-18
4.329692E+03	1.276825E-16	4.181019E-18
4.339623E+03	1.301755E-16	4.254179E-18
4.349553E+03	1.323907E-16	4.317934E-18
4.359484E+03	1.342866E-16	4.370985E-18
4.369414E+03	1.358704E-16	4.413633E-18
4.379345E+03	1.372055E-16	4.447991E-18
4.389275E+03	1.383821E-16	4.477026E-18
4.399206E+03	1.395080E-16	4.504251E-18
4.409136E+03	1.406813E-16	4.532838E-18
4.419067E+03	1.419884E-16	4.565552E-18
4.428997E+03	1.435044E-16	4.604778E-18
4.438928E+03	1.452842E-16	4.652232E-18
4.448858E+03	1.473682E-16	4.709152E-18
4.458788E+03	1.497828E-16	4.776319E-18
4.468719E+03	1.525329E-16	4.853819E-18
4.478649E+03	1.556137E-16	4.941438E-18
4.488580E+03	1.590017E-16	5.038355E-18
4.498510E+03	1.626624E-16	5.143422E-18
4.508441E+03	1.665436E-16	5.254936E-18
4.518371E+03	1.705824E-16	5.370870E-18
4.528302E+03	1.747051E-16	5.488873E-18
4.538232E+03	1.788292E-16	5.606345E-18
4.548163E+03	1.828649E-16	5.720470E-18
4.558093E+03	1.867251E-16	5.828553E-18
4.568024E+03	1.903187E-16	5.927786E-18
4.577954E+03	1.935711E-16	6.015904E-18
4.587885E+03	1.964119E-16	6.090795E-18
4.597815E+03	1.987878E-16	6.150894E-18
4.607746E+03	2.006605E-16	6.195114E-18
4.617676E+03	2.020140E-16	6.223061E-18
4.627607E+03	2.028450E-16	6.234744E-18
4.637537E+03	2.031684E-16	6.230728E-18
4.647468E+03	2.030152E-16	6.212067E-18
4.657398E+03	2.024209E-16	6.179937E-18
4.667329E+03	2.014367E-16	6.135999E-18
4.677259E+03	2.001182E-16	6.082018E-18
4.687190E+03	1.985257E-16	6.019895E-18
4.697120E+03	1.967174E-16	5.951447E-18
4.707051E+03	1.947633E-16	5.878836E-18
4.716981E+03	1.927188E-16	5.803757E-18
4.726912E+03	1.906476E-16	5.728149E-18
4.736842E+03	1.886034E-16	5.653623E-18
4.746773E+03	1.866376E-16	5.581714E-18
4.756703E+03	1.847950E-16	5.513744E-18
4.766634E+03	1.831223E-16	5.451078E-18
4.776564E+03	1.816538E-16	5.394701E-18
4.786495E+03	1.804263E-16	5.345660E-18
4.796425E+03	1.794708E-16	5.304820E-18
4.806356E+03	1.788130E-16	5.272886E-18
4.816286E+03	1.784791E-16	5.250566E-18
4.826216E+03	1.784879E-16	5.238344E-18
4.836147E+03	1.788579E-16	5.236691E-18
4.846077E+03	1.796009E-16	5.245877E-18
4.856008E+03	1.807201E-16	5.265917E-18
4.865938E+03	1.822139E-16	5.296686E-18
4.875869E+03	1.840664E-16	5.337645E-18
4.885799E+03	1.862501E-16	5.387926E-18
4.895730E+03	1.887274E-16	5.446374E-18
4.905660E+03	1.914373E-16	5.511171E-18
4.915591E+03	1.943096E-16	5.580255E-18
4.925521E+03	1.972655E-16	5.651334E-18
4.935452E+03	2.002189E-16	5.721929E-18
4.945382E+03	2.030812E-16	5.789522E-18
4.955313E+03	2.057763E-16	5.851965E-18
4.965243E+03	2.082320E-16	5.907244E-18
4.975174E+03	2.103990E-16	5.954021E-18
4.985104E+03	2.122453E-16	5.991453E-18
4.995035E+03	2.137675E-16	6.019510E-18
5.004965E+03	2.149789E-16	6.038640E-18
5.014896E+03	2.159151E-16	6.049901E-18
5.024826E+03	2.166283E-16	6.054816E-18
5.034757E+03	2.171813E-16	6.055183E-18
5.044687E+03	2.176428E-16	6.052947E-18
5.054618E+03	2.180822E-16	6.050051E-18
5.064548E+03	2.185591E-16	6.048157E-18
5.074479E+03	2.191278E-16	6.048750E-18
5.084409E+03	2.198285E-16	6.052926E-18
5.094340E+03	2.206866E-16	6.061357E-18
5.104270E+03	2.217198E-16	6.074494E-18
5.114201E+03	2.229330E-16	6.092435E-18
5.124131E+03	2.243215E-16	6.115023E-18
5.134062E+03	2.258744E-16	6.141925E-18
5.143992E+03	2.275753E-16	6.172665E-18
5.153923E+03	2.294043E-16	6.206677E-18
5.163853E+03	2.313417E-16	6.243405E-18
5.173784E+03	2.333634E-16	6.282183E-18
5.183714E+03	2.354417E-16	6.322252E-18
5.193644E+03	2.375500E-16	6.362891E-18
5.203575E+03	2.396645E-16	6.403462E-18
5.213505E+03	2.417501E-16	6.443032E-18
5.223436E+03	2.437789E-16	6.480870E-18
5.233366E+03	2.457130E-16	6.515982E-18
5.243297E+03	2.475124E-16	6.547335E-18
5.253227E+03	2.491450E-16	6.574113E-18
5.263158E+03	2.505664E-16	6.595182E-18
5.273088E+03	2.517376E-16	6.609563E-18
5.283019E+03	2.526258E-16	6.616453E-18
5.292949E+03	2.532012E-16	6.615125E-18
5.302880E+03	2.534421E-16	6.605086E-18
5.312810E+03	2.533354E-16	6.586054E-18
5.322741E+03	2.528885E-16	6.558297E-18
5.332671E+03	2.521192E-16	6.522339E-18
5.342602E+03	2.510571E-16	6.479010E-18
5.352532E+03	2.497599E-16	6.429849E-18
5.362463E+03	2.482982E-16	6.376717E-18
5.372393E+03	2.467589E-16	6.321871E-18
5.382324E+03	2.452514E-16	6.268124E-18
5.392254E+03	2.438983E-16	6.218594E-18
5.402185E+03	2.428358E-16	6.176722E-18
5.412115E+03	2.422104E-16	6.146171E-18
5.422046E+03	2.421721E-16	6.130663E-18
5.431976E+03	2.428684E-16	6.133814E-18
5.441907E+03	2.444159E-16	6.158436E-18
5.451837E+03	2.468821E-16	6.206074E-18
5.461768E+03	2.501933E-16	6.274722E-18
5.471698E+03	2.541264E-16	6.358652E-18
5.481629E+03	2.583295E-16	6.448980E-18
5.491559E+03	2.624105E-16	6.535896E-18
5.501490E+03	2.659781E-16	6.609701E-18
5.511420E+03	2.686786E-16	6.661722E-18
5.521351E+03	2.702386E-16	6.685339E-18
5.531281E+03	2.704682E-16	6.676061E-18
5.541212E+03	2.692792E-16	6.631936E-18
5.551142E+03	2.666892E-16	6.553630E-18
5.561072E+03	2.627957E-16	6.443758E-18
5.571003E+03	2.577563E-16	6.306384E-18
5.580933E+03	2.517823E-16	6.146840E-18
5.590864E+03	2.451012E-16	5.970814E-18
5.600794E+03	2.379407E-16	5.783944E-18
5.610725E+03	2.305336E-16	5.591942E-18
5.620655E+03	2.230859E-16	5.399822E-18
5.630586E+03	2.157895E-16	5.212217E-18
5.640516E+03	2.088204E-16	5.033338E-18
5.650447E+03	2.023256E-16	4.866660E-18
5.660377E+03	1.964392E-16	4.715326E-18
5.670308E+03	1.912733E-16	4.581919E-18
5.680238E+03	1.869288E-16	4.468741E-18
5.690169E+03	1.834838E-16	4.377529E-18
5.700099E+03	1.810005E-16	4.309632E-18
5.710030E+03	1.795292E-16	4.266102E-18
5.719960E+03	1.791042E-16	4.247607E-18
5.729891E+03	1.797374E-16	4.254282E-18
5.739821E+03	1.814313E-16	4.286041E-18
5.749752E+03	1.841643E-16	4.342229E-18
5.759682E+03	1.878961E-16	4.421765E-18
5.769613E+03	1.925650E-16	4.523066E-18
5.779543E+03	1.980854E-16	4.644013E-18
5.789474E+03	2.043497E-16	4.781977E-18
5.799404E+03	2.112206E-16	4.933674E-18
5.809335E+03	2.185394E-16	5.095325E-18
5.819265E+03	2.261278E-16	5.262745E-18
5.829196E+03	2.337857E-16	5.431259E-18
5.839126E+03	2.413040E-16	5.596023E-18
5.849057E+03	2.484725E-16	5.752200E-18
5.858987E+03	2.550821E-16	5.895013E-18
5.868918E+03	2.609446E-16	6.020200E-18
5.878848E+03	2.658929E-16	6.124010E-18
5.888779E+03	2.697993E-16	6.203626E-18
5.898709E+03	2.725730E-16	6.257086E-18
5.908640E+03	2.741733E-16	6.283597E-18
5.918570E+03	2.746006E-16	6.283303E-18
5.928500E+03	2.739052E-16	6.257481E-18
5.938431E+03	2.721700E-16	6.208148E-18
5.948361E+03	2.695163E-16	6.138176E-18
5.958292E+03	2.660864E-16	6.050893E-18
5.968222E+03	2.620347E-16	5.949883E-18
5.978153E+03	2.575290E-16	5.839007E-18
5.988083E+03	2.527316E-16	5.721981E-18
5.998014E+03	2.478038E-16	5.602468E-18
6.007944E+03	2.428937E-16	5.483823E-18
6.017875E+03	2.381321E-16	5.368980E-18
6.027805E+03	2.336391E-16	5.260629E-18
6.037736E+03	2.295155E-16	5.161000E-18
6.047666E+03	2.258429E-16	5.071889E-18
6.057597E+03	2.226933E-16	4.994867E-18
6.067527E+03	2.201202E-16	4.931083E-18
6.077458E+03	2.181711E-16	4.881547E-18
6.087388E+03	2.168795E-16	4.846959E-18
6.097319E+03	2.162765E-16	4.827954E-18
6.107249E+03	2.163848E-16	4.824994E-18
6.117180E+03	2.172202E-16	4.838373E-18
6.127110E+03	2.187957E-16	4.868337E-18
6.137041E+03	2.211230E-16	4.915093E-18
6.146971E+03	2.242053E-16	4.978671E-18
6.156902E+03	2.280448E-16	5.059076E-18
6.166832E+03	2.326444E-16	5.156325E-18
6.176763E+03	2.380017E-16	5.270327E-18
6.186693E+03	2.441248E-16	5.401225E-18
6.196624E+03	2.509880E-16	5.548413E-18
6.206554E+03	2.584740E-16	5.709272E-18
6.216485E+03	2.663185E-16	5.877948E-18
6.226415E+03	2.742206E-16	6.047795E-18
6.236346E+03	2.818767E-16	6.212133E-18
6.246276E+03	2.890266E-16	6.365252E-18
6.256207E+03	2.954614E-16	6.502589E-18
6.266137E+03	3.010275E-16	6.620805E-18
6.276068E+03	3.056308E-16	6.717875E-18
6.285998E+03	3.092185E-16	6.792683E-18
6.295929E+03	3.117916E-16	6.845294E-18
6.305859E+03	3.133832E-16	6.876471E-18
6.315789E+03	3.140534E-16	6.887570E-18
6.325720E+03	3.138786E-16	6.880293E-18
6.335650E+03	3.129517E-16	6.856700E-18
6.345581E+03	3.113755E-16	6.819062E-18
6.355511E+03	3.092461E-16	6.769494E-18
6.365442E+03	3.066703E-16	6.710347E-18
6.375372E+03	3.037444E-16	6.643729E-18
6.385303E+03	3.005508E-16	6.571444E-18
6.395233E+03	2.971732E-16	6.495323E-18
6.405164E+03	2.936831E-16	6.416924E-18
6.415094E+03	2.901410E-16	6.337563E-18
6.425025E+03	2.865944E-16	6.258272E-18
6.434955E+03	2.830900E-16	6.180064E-18
6.444886E+03	2.796517E-16	6.103452E-18
6.454816E+03	2.763034E-16	6.028952E-18
6.464747E+03	2.730544E-16	5.956758E-18
6.474677E+03	2.699142E-16	5.887070E-18
6.484608E+03	2.668724E-16	5.819655E-18
6.494538E+03	2.639211E-16	5.754332E-18
6.504469E+03	2.610421E-16	5.690702E-18
6.514399E+03	2.582153E-16	5.628319E-18
6.524330E+03	2.554075E-16	5.566455E-18
6.534260E+03	2.525942E-16	5.504570E-18
6.544191E+03	2.497386E-16	5.441862E-18
6.554121E+03	2.468162E-16	5.377788E-18
6.564052E+03	2.437991E-16	5.311740E-18
6.573982E+03	2.406607E-16	5.243135E-18
6.583913E+03	2.373849E-16	5.171614E-18
6.593843E+03	2.339593E-16	5.096908E-18
6.603774E+03	2.303739E-16	5.018793E-18
6.613704E+03	2.266309E-16	4.937315E-18
6.623635E+03	2.227376E-16	4.852625E-18
6.633565E+03	2.187014E-16	4.764881E-18
6.643496E+03	2.145366E-16	4.674394E-18
6.653426E+03	2.102623E-16	4.581569E-18
6.663357E+03	2.059035E-16	4.486951E-18
6.673287E+03	2.014865E-16	4.391106E-18
6.683217E+03	1.970386E-16	4.294628E-18
6.693148E+03	1.925951E-16	4.198277E-18
6.703078E+03	1.881935E-16	4.102872E-18
6.713009E+03	1.838671E-16	4.009133E-18
6.722939E+03	1.796593E-16	3.918001E-18
6.732870E+03	1.756073E-16	3.830292E-18
6.742800E+03	1.717505E-16	3.746856E-18
6.752731E+03	1.681286E-16	3.668564E-18
6.762661E+03	1.647772E-16	3.596190E-18
6.772592E+03	1.617285E-16	3.530440E-18
6.782522E+03	1.590112E-16	3.471940E-18
6.792453E+03	1.566498E-16	3.421231E-18
6.802383E+03	1.546642E-16	3.378751E-18
6.812314E+03	1.530700E-16	3.344846E-18
6.822244E+03	1.518799E-16	3.319799E-18
6.832175E+03	1.510985E-16	3.303719E-18
6.842105E+03	1.507298E-16	3.296700E-18
6.852036E+03	1.507718E-16	3.298707E-18
6.861966E+03	1.512182E-16	3.309613E-18
6.871897E+03	1.520588E-16	3.329203E-18
6.881827E+03	1.532792E-16	3.357173E-18
6.891758E+03	1.548608E-16	3.393128E-18
6.901688E+03	1.567808E-16	3.436579E-18
6.911619E+03	1.590142E-16	3.486989E-18
6.921549E+03	1.615296E-16	3.543684E-18
6.931480E+03	1.642898E-16	3.605854E-18
6.941410E+03	1.672551E-16	3.672641E-18
6.951341E+03	1.703866E-16	3.743202E-18
6.961271E+03	1.736362E-16	3.816487E-18
6.971202E+03	1.769530E-16	3.891386E-18
6.981132E+03	1.802915E-16	3.966910E-18
6.991063E+03	1.835997E-16	4.041914E-18
7.000993E+03	1.868292E-16	4.115337E-18
7.010924E+03	1.899370E-16	4.186238E-18
7.020854E+03	1.928807E-16	4.253677E-18
7.030785E+03	1.956290E-16	4.316969E-18
7.040715E+03	1.981542E-16	4.375492E-18
7.050645E+03	2.004449E-16	4.428994E-18
7.060576E+03	2.024892E-16	4.477208E-18
7.070506E+03	2.042897E-16	4.520182E-18
7.080437E+03	2.058628E-16	4.558275E-18
7.090367E+03	2.072243E-16	4.591827E-18
7.100298E+03	2.083978E-16	4.621358E-18
7.110228E+03	2.094104E-16	4.647462E-18
7.120159E+03	2.102901E-16	4.670760E-18
7.130089E+03	2.110670E-16	4.691914E-18
7.140020E+03	2.117600E-16	4.711342E-18
7.149950E+03	2.123974E-16	4.729677E-18
7.159881E+03	2.129856E-16	4.747057E-18
7.169811E+03	2.135414E-16	4.763861E-18
7.179742E+03	2.140582E-16	4.779941E-18
7.189672E+03	2.145401E-16	4.795391E-18
7.199603E+03	2.149709E-16	4.809849E-18
7.209533E+03	2.153348E-16	4.822962E-18
7.219464E+03	2.156175E-16	4.834409E-18
7.229394E+03	2.157904E-16	4.843541E-18
7.239325E+03	2.158312E-16	4.849857E-18
7.249255E+03	2.157148E-16	4.852783E-18
7.259186E+03	2.154139E-16	4.851696E-18
7.269116E+03	2.149124E-16	4.846219E-18
7.279047E+03	2.141859E-16	4.835788E-18
7.288977E+03	2.132235E-16	4.820138E-18
7.298908E+03	2.120170E-16	4.799064E-18
7.308838E+03	2.105646E-16	4.772505E-18
7.318769E+03	2.088715E-16	4.740557E-18
7.328699E+03	2.069507E-16	4.703489E-18
7.338630E+03	2.048224E-16	4.661742E-18
7.348560E+03	2.025120E-16	4.615867E-18
7.358491E+03	2.000601E-16	4.566776E-18
7.368421E+03	1.975030E-16	4.515277E-18
7.378352E+03	1.948907E-16	4.462501E-18
7.388282E+03	1.922724E-16	4.409568E-18
7.398213E+03	1.897086E-16	4.357862E-18
7.408143E+03	1.872486E-16	4.308518E-18
7.418073E+03	1.849581E-16	4.263060E-18
7.428004E+03	1.828870E-16	4.222654E-18
7.437934E+03	1.810960E-16	4.188730E-18
7.447865E+03	1.796379E-16	4.162544E-18
7.457795E+03	1.785564E-16	4.145146E-18
7.467726E+03	1.778988E-16	4.137687E-18
7.477656E+03	1.776942E-16	4.140903E-18
7.487587E+03	1.779682E-16	4.155448E-18
7.497517E+03	1.787294E-16	4.181590E-18
7.507448E+03	1.799692E-16	4.219194E-18
7.517378E+03	1.816558E-16	4.267582E-18
7.527309E+03	1.837399E-16	4.325661E-18
7.537239E+03	1.861446E-16	4.391678E-18
7.547170E+03	1.887763E-16	4.463474E-18
7.557100E+03	1.915341E-16	4.538695E-18
7.567031E+03	1.943377E-16	4.615457E-18
7.576961E+03	1.971543E-16	4.692994E-18
7.586892E+03	1.999855E-16	4.771346E-18
7.596822E+03	2.028421E-16	4.850782E-18
7.606753E+03	2.057276E-16	4.931390E-18
7.616683E+03	2.086535E-16	5.013454E-18
7.626614E+03	2.116065E-16	5.096669E-18
7.636544E+03	2.145771E-16	5.180808E-18
7.646475E+03	2.175478E-16	5.265459E-18
7.656405E+03	2.204849E-16	5.349801E-18
7.666336E+03	2.233564E-16	5.433059E-18
7.676266E+03	2.261217E-16	5.514227E-18
7.686197E+03	2.287315E-16	5.592090E-18
7.696127E+03	2.311363E-16	5.665400E-18
7.706058E+03	2.332840E-16	5.732842E-18
