#wls	flux	fluxerr
1.588878E+03	1.628546E-18	7.422462E-20
1.628600E+03	1.701693E-18	7.742298E-20
1.668322E+03	1.747816E-18	7.937867E-20
1.708044E+03	1.764174E-18	7.997373E-20
1.747766E+03	1.747899E-18	7.908570E-20
1.787488E+03	1.694084E-18	7.650147E-20
1.827210E+03	1.598159E-18	7.202521E-20
1.866931E+03	1.459161E-18	6.562567E-20
1.906653E+03	1.281220E-18	5.750104E-20
1.946375E+03	1.076967E-18	4.822931E-20
1.986097E+03	8.679370E-19	3.878176E-20
2.025819E+03	6.805119E-19	3.033749E-20
2.065541E+03	5.376313E-19	2.391147E-20
2.105263E+03	4.509121E-19	2.000617E-20
2.144985E+03	4.215609E-19	1.865754E-20
2.184707E+03	4.469100E-19	1.972911E-20
2.224429E+03	5.250249E-19	2.311698E-20
2.264151E+03	6.538529E-19	2.871209E-20
2.303873E+03	8.281436E-19	3.626546E-20
2.343595E+03	1.038509E-18	4.534911E-20
2.383317E+03	1.273248E-18	5.543835E-20
2.423039E+03	1.520700E-18	6.601562E-20
2.462761E+03	1.771468E-18	7.666702E-20
2.502483E+03	2.018878E-18	8.710093E-20
2.542205E+03	2.258942E-18	9.714493E-20
2.581927E+03	2.489561E-18	1.067097E-19
2.621648E+03	2.710212E-18	1.157748E-19
2.661370E+03	2.921524E-18	1.243689E-19
2.701092E+03	3.124750E-18	1.325473E-19
2.740814E+03	3.321533E-18	1.403810E-19
2.780536E+03	3.514143E-18	1.479665E-19
2.820258E+03	3.704964E-18	1.554037E-19
2.859980E+03	3.897102E-18	1.628211E-19
2.899702E+03	4.093476E-18	1.703375E-19
2.939424E+03	4.297650E-18	1.780964E-19
2.979146E+03	4.513917E-18	1.862685E-19
2.989076E+03	4.570255E-18	1.883908E-19
2.999007E+03	4.627739E-18	1.905544E-19
3.008937E+03	4.686453E-18	1.927623E-19
3.018868E+03	4.746794E-18	1.950308E-19
3.028798E+03	4.809892E-18	1.974060E-19
3.038729E+03	4.877090E-18	1.999424E-19
3.048659E+03	4.948507E-18	2.026444E-19
3.058590E+03	5.023687E-18	2.054928E-19
3.068520E+03	5.102605E-18	2.084858E-19
3.078451E+03	5.184931E-18	2.116095E-19
3.088381E+03	5.270690E-18	2.148644E-19
3.098312E+03	5.359766E-18	2.182451E-19
3.108242E+03	5.451898E-18	2.217406E-19
3.118173E+03	5.547173E-18	2.253538E-19
3.128103E+03	5.645536E-18	2.290822E-19
3.138034E+03	5.746772E-18	2.329163E-19
3.147964E+03	5.851023E-18	2.368615E-19
3.157895E+03	5.958283E-18	2.409171E-19
3.167825E+03	6.068381E-18	2.450757E-19
3.177756E+03	6.181323E-18	2.493369E-19
3.187686E+03	6.297523E-18	2.537170E-19
3.197617E+03	6.416650E-18	2.582020E-19
3.207547E+03	6.538955E-18	2.628017E-19
3.217478E+03	6.664321E-18	2.675107E-19
3.227408E+03	6.793017E-18	2.723393E-19
3.237339E+03	6.924941E-18	2.772828E-19
3.247269E+03	7.060407E-18	2.823531E-19
3.257200E+03	7.199539E-18	2.875547E-19
3.267130E+03	7.342248E-18	2.928833E-19
3.277061E+03	7.488896E-18	2.983527E-19
3.286991E+03	7.639624E-18	3.039678E-19
3.296922E+03	7.794385E-18	3.097260E-19
3.306852E+03	7.953335E-18	3.156328E-19
3.316783E+03	8.117107E-18	3.217125E-19
3.326713E+03	8.285205E-18	3.279446E-19
3.336643E+03	8.458526E-18	3.343639E-19
3.346574E+03	8.636796E-18	3.409584E-19
3.356504E+03	8.820231E-18	3.477360E-19
3.366435E+03	9.009292E-18	3.547137E-19
3.376365E+03	9.204213E-18	3.618997E-19
3.386296E+03	9.404981E-18	3.692926E-19
3.396226E+03	9.612092E-18	3.769105E-19
3.406157E+03	9.825546E-18	3.847526E-19
3.416087E+03	1.004585E-17	3.928373E-19
3.426018E+03	1.027302E-17	4.011639E-19
3.435948E+03	1.050758E-17	4.097519E-19
3.445879E+03	1.074955E-17	4.186004E-19
3.455809E+03	1.099949E-17	4.277300E-19
3.465740E+03	1.125741E-17	4.371392E-19
3.475670E+03	1.152389E-17	4.468498E-19
3.485601E+03	1.179894E-17	4.568599E-19
3.495531E+03	1.208319E-17	4.671925E-19
3.505462E+03	1.237695E-17	4.778579E-19
3.515392E+03	1.267991E-17	4.888421E-19
3.525323E+03	1.299337E-17	5.001938E-19
3.535253E+03	1.331667E-17	5.118854E-19
3.545184E+03	1.365084E-17	5.239544E-19
3.555114E+03	1.399622E-17	5.364122E-19
3.565045E+03	1.435283E-17	5.492572E-19
3.574975E+03	1.472139E-17	5.625147E-19
3.584906E+03	1.510155E-17	5.761688E-19
3.594836E+03	1.549480E-17	5.902746E-19
3.604767E+03	1.590039E-17	6.048007E-19
3.614697E+03	1.631991E-17	6.198051E-19
3.624628E+03	1.675258E-17	6.352555E-19
3.634558E+03	1.719962E-17	6.511958E-19
3.644489E+03	1.766107E-17	6.676241E-19
3.654419E+03	1.813781E-17	6.845716E-19
3.664350E+03	1.862989E-17	7.020364E-19
3.674280E+03	1.913778E-17	7.200337E-19
3.684211E+03	1.966245E-17	7.385965E-19
3.694141E+03	2.020397E-17	7.577240E-19
3.704071E+03	2.076287E-17	7.774332E-19
3.714002E+03	2.134023E-17	7.977603E-19
3.723932E+03	2.193613E-17	8.187052E-19
3.733863E+03	2.255171E-17	8.403065E-19
3.743793E+03	2.318656E-17	8.625449E-19
3.753724E+03	2.384240E-17	8.854804E-19
3.763654E+03	2.451938E-17	9.091142E-19
3.773585E+03	2.521876E-17	9.334891E-19
3.783515E+03	2.594012E-17	9.585845E-19
3.793446E+03	2.668536E-17	9.844663E-19
3.803376E+03	2.745528E-17	1.011159E-18
3.813307E+03	2.824937E-17	1.038639E-18
3.823237E+03	2.906968E-17	1.066977E-18
3.833168E+03	2.991634E-17	1.096171E-18
3.843098E+03	3.079009E-17	1.126244E-18
3.853029E+03	3.169167E-17	1.157217E-18
3.862959E+03	3.262183E-17	1.189112E-18
3.872890E+03	3.358201E-17	1.221974E-18
3.882820E+03	3.457221E-17	1.255798E-18
3.892751E+03	3.559232E-17	1.290575E-18
3.902681E+03	3.664454E-17	1.326375E-18
3.912612E+03	3.772958E-17	1.363221E-18
3.922542E+03	3.884649E-17	1.401068E-18
3.932473E+03	3.999670E-17	1.439964E-18
3.942403E+03	4.118178E-17	1.479956E-18
3.952334E+03	4.240069E-17	1.521002E-18
3.962264E+03	4.365600E-17	1.563184E-18
3.972195E+03	4.494766E-17	1.606494E-18
3.982125E+03	4.627562E-17	1.650922E-18
3.992056E+03	4.764286E-17	1.696568E-18
4.001986E+03	4.904961E-17	1.743430E-18
4.011917E+03	5.049721E-17	1.791548E-18
4.021847E+03	5.198716E-17	1.840966E-18
4.031778E+03	5.352002E-17	1.891695E-18
4.041708E+03	5.509983E-17	1.943869E-18
4.051639E+03	5.672755E-17	1.997511E-18
4.061569E+03	5.840537E-17	2.052688E-18
4.071500E+03	6.013442E-17	2.109429E-18
4.081430E+03	6.191957E-17	2.167894E-18
4.091360E+03	6.376090E-17	2.228074E-18
4.101291E+03	6.566350E-17	2.290134E-18
4.111221E+03	6.762727E-17	2.354057E-18
4.121152E+03	6.965591E-17	2.419960E-18
4.131082E+03	7.175159E-17	2.487904E-18
4.141013E+03	7.391615E-17	2.557938E-18
4.150943E+03	7.615099E-17	2.630096E-18
4.160874E+03	7.845536E-17	2.704337E-18
4.170804E+03	8.083236E-17	2.780753E-18
4.180735E+03	8.327799E-17	2.859191E-18
4.190665E+03	8.579181E-17	2.939622E-18
4.200596E+03	8.837059E-17	3.021921E-18
4.210526E+03	9.100784E-17	3.105851E-18
4.220457E+03	9.370063E-17	3.191301E-18
4.230387E+03	9.643717E-17	3.277858E-18
4.240318E+03	9.920715E-17	3.365164E-18
4.250248E+03	1.020020E-16	3.452918E-18
4.260179E+03	1.048034E-16	3.540499E-18
4.270109E+03	1.075965E-16	3.627406E-18
4.280040E+03	1.103627E-16	3.713011E-18
4.289970E+03	1.130796E-16	3.796565E-18
4.299901E+03	1.157269E-16	3.877404E-18
4.309831E+03	1.182798E-16	3.954711E-18
4.319762E+03	1.207177E-16	4.027819E-18
4.329692E+03	1.230187E-16	4.096022E-18
4.339623E+03	1.251638E-16	4.158715E-18
4.349553E+03	1.271332E-16	4.215276E-18
4.359484E+03	1.289242E-16	4.265656E-18
4.369414E+03	1.305250E-16	4.309499E-18
4.379345E+03	1.319329E-16	4.346758E-18
4.389275E+03	1.331470E-16	4.377443E-18
4.399206E+03	1.341760E-16	4.401880E-18
4.409136E+03	1.350274E-16	4.420359E-18
4.419067E+03	1.357140E-16	4.433330E-18
4.428997E+03	1.362542E-16	4.441426E-18
4.438928E+03	1.366549E-16	4.444909E-18
4.448858E+03	1.369347E-16	4.444407E-18
4.458788E+03	1.371065E-16	4.440367E-18
4.468719E+03	1.371792E-16	4.433095E-18
4.478649E+03	1.371630E-16	4.422943E-18
4.488580E+03	1.370685E-16	4.410270E-18
4.498510E+03	1.369000E-16	4.395233E-18
4.508441E+03	1.366649E-16	4.378081E-18
4.518371E+03	1.363647E-16	4.358879E-18
4.528302E+03	1.360016E-16	4.337710E-18
4.538232E+03	1.355797E-16	4.314720E-18
4.548163E+03	1.350975E-16	4.289869E-18
4.558093E+03	1.345554E-16	4.263189E-18
4.568024E+03	1.339562E-16	4.234777E-18
4.577954E+03	1.332957E-16	4.204513E-18
4.587885E+03	1.325816E-16	4.172655E-18
4.597815E+03	1.318085E-16	4.139042E-18
4.607746E+03	1.309830E-16	4.103896E-18
4.617676E+03	1.301058E-16	4.067246E-18
4.627607E+03	1.291805E-16	4.029219E-18
4.637537E+03	1.282121E-16	3.989983E-18
4.647468E+03	1.272081E-16	3.949776E-18
4.657398E+03	1.261729E-16	3.908746E-18
4.667329E+03	1.251118E-16	3.867059E-18
4.677259E+03	1.240387E-16	3.825155E-18
4.687190E+03	1.229560E-16	3.783106E-18
4.697120E+03	1.218746E-16	3.741250E-18
4.707051E+03	1.208056E-16	3.699928E-18
4.716981E+03	1.197562E-16	3.659357E-18
4.726912E+03	1.187336E-16	3.619756E-18
4.736842E+03	1.177511E-16	3.581516E-18
4.746773E+03	1.168152E-16	3.544835E-18
4.756703E+03	1.159345E-16	3.509960E-18
4.766634E+03	1.151189E-16	3.477175E-18
4.776564E+03	1.143718E-16	3.446576E-18
4.786495E+03	1.137019E-16	3.418406E-18
4.796425E+03	1.131151E-16	3.392830E-18
4.806356E+03	1.126186E-16	3.370039E-18
4.816286E+03	1.122129E-16	3.350038E-18
4.826216E+03	1.119035E-16	3.332967E-18
4.836147E+03	1.116948E-16	3.318937E-18
4.846077E+03	1.115849E-16	3.307875E-18
4.856008E+03	1.115766E-16	3.299838E-18
4.865938E+03	1.116715E-16	3.294856E-18
4.875869E+03	1.118652E-16	3.292779E-18
4.885799E+03	1.121579E-16	3.293589E-18
4.895730E+03	1.125470E-16	3.297193E-18
4.905660E+03	1.130294E-16	3.303480E-18
4.915591E+03	1.136012E-16	3.312320E-18
4.925521E+03	1.142583E-16	3.323571E-18
4.935452E+03	1.149958E-16	3.337079E-18
4.945382E+03	1.158069E-16	3.352629E-18
4.955313E+03	1.166900E-16	3.370158E-18
4.965243E+03	1.176360E-16	3.389395E-18
4.975174E+03	1.186431E-16	3.410276E-18
4.985104E+03	1.197025E-16	3.432533E-18
4.995035E+03	1.208108E-16	3.456061E-18
5.004965E+03	1.219629E-16	3.480709E-18
5.014896E+03	1.231523E-16	3.506279E-18
5.024826E+03	1.243780E-16	3.532742E-18
5.034757E+03	1.256320E-16	3.559860E-18
5.044687E+03	1.269118E-16	3.587563E-18
5.054618E+03	1.282134E-16	3.615731E-18
5.064548E+03	1.295326E-16	3.644244E-18
5.074479E+03	1.308652E-16	3.672984E-18
5.084409E+03	1.322048E-16	3.701773E-18
5.094340E+03	1.335490E-16	3.730539E-18
5.104270E+03	1.348930E-16	3.759152E-18
5.114201E+03	1.362317E-16	3.787472E-18
5.124131E+03	1.375575E-16	3.815292E-18
5.134062E+03	1.388667E-16	3.842515E-18
5.143992E+03	1.401533E-16	3.868978E-18
5.153923E+03	1.414107E-16	3.894509E-18
5.163853E+03	1.426301E-16	3.918875E-18
5.173784E+03	1.438068E-16	3.941955E-18
5.183714E+03	1.449340E-16	3.963571E-18
5.193644E+03	1.460047E-16	3.983547E-18
5.203575E+03	1.470100E-16	4.001655E-18
5.213505E+03	1.479456E-16	4.017794E-18
5.223436E+03	1.488058E-16	4.031820E-18
5.233366E+03	1.495828E-16	4.043545E-18
5.243297E+03	1.502745E-16	4.052923E-18
5.253227E+03	1.508769E-16	4.059873E-18
5.263158E+03	1.513855E-16	4.064285E-18
5.273088E+03	1.518030E-16	4.066257E-18
5.283019E+03	1.521247E-16	4.065681E-18
5.292949E+03	1.523518E-16	4.062604E-18
5.302880E+03	1.524887E-16	4.057167E-18
5.312810E+03	1.525390E-16	4.049483E-18
5.322741E+03	1.525075E-16	4.039695E-18
5.332671E+03	1.523978E-16	4.027915E-18
5.342602E+03	1.522189E-16	4.014394E-18
5.352532E+03	1.519781E-16	3.999340E-18
5.362463E+03	1.516809E-16	3.982906E-18
5.372393E+03	1.513370E-16	3.965362E-18
5.382324E+03	1.509515E-16	3.946846E-18
5.392254E+03	1.505348E-16	3.927642E-18
5.402185E+03	1.500873E-16	3.907764E-18
5.412115E+03	1.496119E-16	3.887291E-18
5.422046E+03	1.491108E-16	3.866287E-18
5.431976E+03	1.485813E-16	3.844687E-18
5.441907E+03	1.480176E-16	3.822338E-18
5.451837E+03	1.474082E-16	3.798954E-18
5.461768E+03	1.467461E-16	3.774357E-18
5.471698E+03	1.460262E-16	3.748426E-18
5.481629E+03	1.452469E-16	3.721126E-18
5.491559E+03	1.444025E-16	3.692321E-18
5.501490E+03	1.434866E-16	3.661852E-18
5.511420E+03	1.424904E-16	3.629506E-18
5.521351E+03	1.414081E-16	3.595149E-18
5.531281E+03	1.402399E-16	3.558788E-18
5.541212E+03	1.389797E-16	3.520288E-18
5.551142E+03	1.376287E-16	3.479687E-18
5.561072E+03	1.361949E-16	3.437193E-18
5.571003E+03	1.346812E-16	3.392896E-18
5.580933E+03	1.330979E-16	3.347057E-18
5.590864E+03	1.314612E-16	3.300092E-18
5.600794E+03	1.297821E-16	3.252283E-18
5.610725E+03	1.280772E-16	3.204043E-18
5.620655E+03	1.263675E-16	3.155902E-18
5.630586E+03	1.246675E-16	3.108218E-18
5.640516E+03	1.229953E-16	3.061438E-18
5.650447E+03	1.213718E-16	3.016075E-18
5.660377E+03	1.198084E-16	2.972401E-18
5.670308E+03	1.183252E-16	2.930908E-18
5.680238E+03	1.169322E-16	2.891829E-18
5.690169E+03	1.156424E-16	2.855473E-18
5.700099E+03	1.144649E-16	2.822053E-18
5.710030E+03	1.134068E-16	2.791725E-18
5.719960E+03	1.124711E-16	2.764552E-18
5.729891E+03	1.116603E-16	2.740576E-18
5.739821E+03	1.109777E-16	2.719865E-18
5.749752E+03	1.104181E-16	2.702280E-18
5.759682E+03	1.099792E-16	2.687748E-18
5.769613E+03	1.096536E-16	2.676077E-18
5.779543E+03	1.094369E-16	2.667149E-18
5.789474E+03	1.093172E-16	2.660662E-18
5.799404E+03	1.092861E-16	2.656402E-18
5.809335E+03	1.093310E-16	2.654055E-18
5.819265E+03	1.094418E-16	2.653374E-18
5.829196E+03	1.096068E-16	2.654065E-18
5.839126E+03	1.098140E-16	2.655836E-18
5.849057E+03	1.100504E-16	2.658369E-18
5.858987E+03	1.103066E-16	2.661438E-18
5.868918E+03	1.105727E-16	2.664800E-18
5.878848E+03	1.108400E-16	2.668250E-18
5.888779E+03	1.110997E-16	2.671576E-18
5.898709E+03	1.113480E-16	2.674688E-18
5.908640E+03	1.115812E-16	2.677500E-18
5.918570E+03	1.117978E-16	2.679977E-18
5.928500E+03	1.119983E-16	2.682134E-18
5.938431E+03	1.121837E-16	2.683998E-18
5.948361E+03	1.123602E-16	2.685719E-18
5.958292E+03	1.125344E-16	2.687454E-18
5.968222E+03	1.127145E-16	2.689405E-18
5.978153E+03	1.129091E-16	2.691774E-18
5.988083E+03	1.131328E-16	2.694909E-18
5.998014E+03	1.133949E-16	2.699035E-18
6.007944E+03	1.137109E-16	2.704514E-18
6.017875E+03	1.140950E-16	2.711686E-18
6.027805E+03	1.145621E-16	2.720903E-18
6.037736E+03	1.151258E-16	2.732486E-18
6.047666E+03	1.158046E-16	2.746868E-18
6.057597E+03	1.166102E-16	2.764328E-18
6.067527E+03	1.175588E-16	2.785245E-18
6.077458E+03	1.186643E-16	2.809946E-18
6.087388E+03	1.199395E-16	2.838732E-18
6.097319E+03	1.213960E-16	2.871876E-18
6.107249E+03	1.230435E-16	2.909604E-18
6.117180E+03	1.248877E-16	2.952050E-18
6.127110E+03	1.269366E-16	2.999407E-18
6.137041E+03	1.291898E-16	3.051661E-18
6.146971E+03	1.316423E-16	3.108702E-18
6.156902E+03	1.342886E-16	3.170398E-18
6.166832E+03	1.371187E-16	3.236517E-18
6.176763E+03	1.401136E-16	3.306613E-18
6.186693E+03	1.432590E-16	3.380349E-18
6.196624E+03	1.465404E-16	3.457392E-18
6.206554E+03	1.499362E-16	3.537234E-18
6.216485E+03	1.534110E-16	3.619045E-18
6.226415E+03	1.569244E-16	3.701880E-18
6.236346E+03	1.604437E-16	3.784969E-18
6.246276E+03	1.639329E-16	3.867472E-18
6.256207E+03	1.673540E-16	3.948497E-18
6.266137E+03	1.706669E-16	4.027101E-18
6.276068E+03	1.738320E-16	4.102356E-18
6.285998E+03	1.768020E-16	4.173145E-18
6.295929E+03	1.795373E-16	4.238537E-18
6.305859E+03	1.819979E-16	4.297586E-18
6.315789E+03	1.841495E-16	4.349482E-18
6.325720E+03	1.859547E-16	4.393336E-18
6.335650E+03	1.873915E-16	4.428621E-18
6.345581E+03	1.884335E-16	4.454707E-18
6.355511E+03	1.890714E-16	4.471362E-18
6.365442E+03	1.892944E-16	4.478325E-18
6.375372E+03	1.891013E-16	4.475550E-18
6.385303E+03	1.884973E-16	4.463146E-18
6.395233E+03	1.874933E-16	4.441359E-18
6.405164E+03	1.861060E-16	4.410564E-18
6.415094E+03	1.843592E-16	4.371309E-18
6.425025E+03	1.822727E-16	4.324048E-18
6.434955E+03	1.798799E-16	4.269559E-18
6.444886E+03	1.772088E-16	4.208485E-18
6.454816E+03	1.742914E-16	4.141571E-18
6.464747E+03	1.711604E-16	4.069580E-18
6.474677E+03	1.678488E-16	3.993280E-18
6.484608E+03	1.643911E-16	3.913483E-18
6.494538E+03	1.608165E-16	3.830866E-18
6.504469E+03	1.571549E-16	3.746131E-18
6.514399E+03	1.534345E-16	3.659945E-18
6.524330E+03	1.496839E-16	3.572977E-18
6.534260E+03	1.459230E-16	3.485700E-18
6.544191E+03	1.421783E-16	3.398735E-18
6.554121E+03	1.384674E-16	3.312505E-18
6.564052E+03	1.348103E-16	3.227480E-18
6.573982E+03	1.312206E-16	3.143986E-18
6.583913E+03	1.277121E-16	3.062351E-18
6.593843E+03	1.242967E-16	2.982863E-18
6.603774E+03	1.209845E-16	2.905765E-18
6.613704E+03	1.177859E-16	2.831308E-18
6.623635E+03	1.147063E-16	2.759624E-18
6.633565E+03	1.117531E-16	2.690897E-18
6.643496E+03	1.089294E-16	2.625203E-18
6.653426E+03	1.062389E-16	2.562638E-18
6.663357E+03	1.036844E-16	2.503275E-18
6.673287E+03	1.012694E-16	2.447204E-18
6.683217E+03	9.899376E-17	2.394430E-18
6.693148E+03	9.685969E-17	2.345010E-18
6.703078E+03	9.486608E-17	2.298927E-18
6.713009E+03	9.301284E-17	2.256186E-18
6.722939E+03	9.129959E-17	2.216784E-18
6.732870E+03	8.972696E-17	2.180747E-18
6.742800E+03	8.829398E-17	2.148057E-18
6.752731E+03	8.699827E-17	2.118667E-18
6.762661E+03	8.583866E-17	2.092557E-18
6.772592E+03	8.481385E-17	2.069703E-18
6.782522E+03	8.392365E-17	2.050110E-18
6.792453E+03	8.316663E-17	2.033753E-18
6.802383E+03	8.254004E-17	2.020574E-18
6.812314E+03	8.204237E-17	2.010545E-18
6.822244E+03	8.167324E-17	2.003667E-18
6.832175E+03	8.142979E-17	1.999880E-18
6.842105E+03	8.131156E-17	1.999181E-18
6.852036E+03	8.131558E-17	2.001509E-18
6.861966E+03	8.144126E-17	2.006859E-18
6.871897E+03	8.168541E-17	2.015161E-18
6.881827E+03	8.204719E-17	2.026407E-18
6.891758E+03	8.252313E-17	2.040520E-18
6.901688E+03	8.311077E-17	2.057451E-18
6.911619E+03	8.380990E-17	2.077203E-18
6.921549E+03	8.461389E-17	2.099624E-18
6.931480E+03	8.552194E-17	2.124703E-18
6.941410E+03	8.653049E-17	2.152363E-18
6.951341E+03	8.763424E-17	2.182481E-18
6.961271E+03	8.883010E-17	2.214991E-18
6.971202E+03	9.011185E-17	2.249747E-18
6.981132E+03	9.147543E-17	2.286658E-18
6.991063E+03	9.291497E-17	2.325585E-18
7.000993E+03	9.442262E-17	2.366342E-18
7.010924E+03	9.599131E-17	2.408758E-18
7.020854E+03	9.761622E-17	2.452722E-18
7.030785E+03	9.928479E-17	2.497924E-18
7.040715E+03	1.009926E-16	2.544259E-18
7.050645E+03	1.027271E-16	2.591420E-18
7.060576E+03	1.044784E-16	2.639158E-18
7.070506E+03	1.062373E-16	2.687248E-18
7.080437E+03	1.079930E-16	2.735416E-18
7.090367E+03	1.097338E-16	2.783372E-18
7.100298E+03	1.114464E-16	2.830775E-18
7.110228E+03	1.131186E-16	2.877316E-18
7.120159E+03	1.147397E-16	2.922723E-18
7.130089E+03	1.162975E-16	2.966678E-18
7.140020E+03	1.177797E-16	3.008866E-18
7.149950E+03	1.191724E-16	3.048926E-18
7.159881E+03	1.204659E-16	3.086599E-18
7.169811E+03	1.216472E-16	3.121542E-18
7.179742E+03	1.227076E-16	3.153524E-18
7.189672E+03	1.236375E-16	3.182287E-18
7.199603E+03	1.244285E-16	3.207597E-18
7.209533E+03	1.250712E-16	3.229201E-18
7.219464E+03	1.255615E-16	3.246974E-18
7.229394E+03	1.258928E-16	3.260731E-18
7.239325E+03	1.260660E-16	3.270474E-18
7.249255E+03	1.260758E-16	3.276049E-18
7.259186E+03	1.259225E-16	3.277444E-18
7.269116E+03	1.256100E-16	3.274742E-18
7.279047E+03	1.251422E-16	3.268021E-18
7.288977E+03	1.245245E-16	3.257404E-18
7.298908E+03	1.237638E-16	3.243055E-18
7.308838E+03	1.228669E-16	3.225130E-18
7.318769E+03	1.218456E-16	3.203921E-18
7.328699E+03	1.207092E-16	3.179655E-18
7.338630E+03	1.194737E-16	3.152736E-18
7.348560E+03	1.181482E-16	3.123395E-18
7.358491E+03	1.167484E-16	3.092028E-18
7.368421E+03	1.152866E-16	3.058949E-18
7.378352E+03	1.137805E-16	3.024622E-18
7.388282E+03	1.122408E-16	2.989322E-18
7.398213E+03	1.106834E-16	2.953467E-18
7.408143E+03	1.091203E-16	2.917368E-18
7.418073E+03	1.075678E-16	2.881467E-18
7.428004E+03	1.060350E-16	2.846002E-18
7.437934E+03	1.045350E-16	2.811328E-18
7.447865E+03	1.030767E-16	2.777689E-18
7.457795E+03	1.016728E-16	2.745434E-18
7.467726E+03	1.003285E-16	2.714704E-18
7.477656E+03	9.905240E-17	2.685744E-18
7.487587E+03	9.785034E-17	2.658718E-18
7.497517E+03	9.672542E-17	2.633720E-18
7.507448E+03	9.568400E-17	2.610932E-18
7.517378E+03	9.472508E-17	2.590340E-18
7.527309E+03	9.385112E-17	2.572023E-18
7.537239E+03	9.306221E-17	2.555994E-18
7.547170E+03	9.235640E-17	2.542213E-18
7.557100E+03	9.173472E-17	2.530722E-18
7.567031E+03	9.119765E-17	2.521546E-18
7.576961E+03	9.073721E-17	2.514478E-18
7.586892E+03	9.034769E-17	2.509372E-18
7.596822E+03	9.002662E-17	2.506172E-18
7.606753E+03	8.976717E-17	2.504696E-18
7.616683E+03	8.956217E-17	2.504757E-18
7.626614E+03	8.940691E-17	2.506230E-18
7.636544E+03	8.929483E-17	2.508939E-18
7.646475E+03	8.921903E-17	2.512699E-18
7.656405E+03	8.917081E-17	2.517268E-18
7.666336E+03	8.914576E-17	2.522527E-18
7.676266E+03	8.913359E-17	2.528187E-18
7.686197E+03	8.912837E-17	2.534081E-18
7.696127E+03	8.912288E-17	2.540005E-18
7.706058E+03	8.911015E-17	2.545757E-18
