#wls	flux	fluxerr
1.588878E+03	2.207018E-19	1.508419E-20
1.628600E+03	2.289273E-19	1.563806E-20
1.668322E+03	2.336607E-19	1.595270E-20
1.708044E+03	2.346090E-19	1.600847E-20
1.747766E+03	2.314458E-19	1.578355E-20
1.787488E+03	2.235565E-19	1.523654E-20
1.827210E+03	2.103794E-19	1.432976E-20
1.866931E+03	1.917291E-19	1.305129E-20
1.906653E+03	1.681770E-19	1.144075E-20
1.946375E+03	1.412950E-19	9.605727E-21
1.986097E+03	1.138727E-19	7.736255E-21
2.025819E+03	8.932453E-20	6.064319E-21
2.065541E+03	7.061100E-20	4.790448E-21
2.105263E+03	5.927268E-20	4.018303E-21
2.144985E+03	5.546176E-20	3.757146E-21
2.184707E+03	5.885129E-20	3.983716E-21
2.224429E+03	6.919780E-20	4.680412E-21
2.264151E+03	8.623301E-20	5.827954E-21
2.303873E+03	1.092860E-19	7.379871E-21
2.343595E+03	1.371046E-19	9.250584E-21
2.383317E+03	1.681343E-19	1.133436E-20
2.423039E+03	2.008594E-19	1.352842E-20
2.462761E+03	2.340032E-19	1.574640E-20
2.502483E+03	2.666991E-19	1.792982E-20
2.542205E+03	2.984144E-19	2.004282E-20
2.581927E+03	3.289119E-19	2.206954E-20
2.621648E+03	3.580766E-19	2.400235E-20
2.661370E+03	3.859610E-19	2.584490E-20
2.701092E+03	4.127572E-19	2.761016E-20
2.740814E+03	4.386208E-19	2.930863E-20
2.780536E+03	4.637587E-19	3.095417E-20
2.820258E+03	4.883524E-19	3.255891E-20
2.859980E+03	5.126938E-19	3.414227E-20
2.899702E+03	5.369306E-19	3.571401E-20
2.939424E+03	5.613189E-19	3.729103E-20
2.979146E+03	5.860746E-19	3.888748E-20
2.989076E+03	5.923786E-19	3.929343E-20
2.999007E+03	5.986793E-19	3.969883E-20
3.008937E+03	6.050232E-19	4.010675E-20
3.018868E+03	6.114551E-19	4.052018E-20
3.028798E+03	6.181764E-19	4.095243E-20
3.038729E+03	6.252624E-19	4.140849E-20
3.048659E+03	6.327210E-19	4.188883E-20
3.058590E+03	6.405231E-19	4.239152E-20
3.068520E+03	6.486335E-19	4.291419E-20
3.078451E+03	6.570199E-19	4.345469E-20
3.088381E+03	6.657000E-19	4.401417E-20
3.098312E+03	6.745519E-19	4.458454E-20
3.108242E+03	6.835981E-19	4.516729E-20
3.118173E+03	6.928162E-19	4.576090E-20
3.128103E+03	7.021851E-19	4.636398E-20
3.138034E+03	7.116864E-19	4.697530E-20
3.147964E+03	7.213039E-19	4.759377E-20
3.157895E+03	7.310736E-19	4.822176E-20
3.167825E+03	7.408791E-19	4.885159E-20
3.177756E+03	7.507597E-19	4.948582E-20
3.187686E+03	7.607051E-19	5.012378E-20
3.197617E+03	7.707058E-19	5.076484E-20
3.207547E+03	7.807548E-19	5.140852E-20
3.217478E+03	7.908454E-19	5.205437E-20
3.227408E+03	8.009718E-19	5.270202E-20
3.237339E+03	8.111309E-19	5.335124E-20
3.247269E+03	8.213192E-19	5.400179E-20
3.257200E+03	8.315343E-19	5.465354E-20
3.267130E+03	8.417756E-19	5.530641E-20
3.277061E+03	8.520424E-19	5.596036E-20
3.286991E+03	8.623359E-19	5.661547E-20
3.296922E+03	8.726578E-19	5.727183E-20
3.306852E+03	8.830094E-19	5.792954E-20
3.316783E+03	8.933940E-19	5.858879E-20
3.326713E+03	9.038144E-19	5.924977E-20
3.336643E+03	9.142113E-19	5.990859E-20
3.346574E+03	9.247168E-19	6.057389E-20
3.356504E+03	9.352714E-19	6.124176E-20
3.366435E+03	9.458817E-19	6.191264E-20
3.376365E+03	9.565530E-19	6.258686E-20
3.386296E+03	9.672910E-19	6.326478E-20
3.396226E+03	9.781030E-19	6.394687E-20
3.406157E+03	9.889251E-19	6.462895E-20
3.416087E+03	9.999026E-19	6.532050E-20
3.426018E+03	1.010974E-18	6.601749E-20
3.435948E+03	1.022147E-18	6.672040E-20
3.445879E+03	1.033427E-18	6.742963E-20
3.455809E+03	1.044751E-18	6.814095E-20
3.465740E+03	1.056269E-18	6.886425E-20
3.475670E+03	1.067918E-18	6.959528E-20
3.485601E+03	1.079704E-18	7.033457E-20
3.495531E+03	1.091560E-18	7.107757E-20
3.505462E+03	1.103643E-18	7.183465E-20
3.515392E+03	1.115886E-18	7.260126E-20
3.525323E+03	1.128217E-18	7.337286E-20
3.535253E+03	1.140799E-18	7.415995E-20
3.545184E+03	1.153562E-18	7.495798E-20
3.555114E+03	1.166430E-18	7.576200E-20
3.565045E+03	1.179573E-18	7.658301E-20
3.574975E+03	1.192833E-18	7.741068E-20
3.584906E+03	1.206380E-18	7.825614E-20
3.594836E+03	1.220139E-18	7.911446E-20
3.604767E+03	1.234030E-18	7.998034E-20
3.614697E+03	1.248228E-18	8.086522E-20
3.624628E+03	1.262565E-18	8.175818E-20
3.634558E+03	1.277222E-18	8.267083E-20
3.644489E+03	1.292025E-18	8.359195E-20
3.654419E+03	1.307158E-18	8.453337E-20
3.664350E+03	1.322443E-18	8.548360E-20
3.674280E+03	1.338067E-18	8.645466E-20
3.684211E+03	1.353847E-18	8.743476E-20
3.694141E+03	1.369972E-18	8.843607E-20
3.704071E+03	1.386258E-18	8.944658E-20
3.714002E+03	1.402799E-18	9.047243E-20
3.723932E+03	1.419694E-18	9.152000E-20
3.733863E+03	1.436750E-18	9.257673E-20
3.743793E+03	1.454165E-18	9.365541E-20
3.753724E+03	1.471740E-18	9.474310E-20
3.763654E+03	1.489574E-18	9.584628E-20
3.773585E+03	1.507769E-18	9.697147E-20
3.783515E+03	1.526121E-18	9.810539E-20
3.793446E+03	1.544730E-18	9.925452E-20
3.803376E+03	1.563595E-18	1.004188E-19
3.813307E+03	1.582824E-18	1.016051E-19
3.823237E+03	1.602198E-18	1.027993E-19
3.833168E+03	1.621825E-18	1.040084E-19
3.843098E+03	1.641702E-18	1.052320E-19
3.853029E+03	1.661942E-18	1.064776E-19
3.862959E+03	1.682317E-18	1.077302E-19
3.872890E+03	1.702937E-18	1.089971E-19
3.882820E+03	1.723804E-18	1.102783E-19
3.892751E+03	1.744915E-18	1.115735E-19
3.902681E+03	1.766270E-18	1.128829E-19
3.912612E+03	1.787870E-18	1.142063E-19
3.922542E+03	1.809718E-18	1.155438E-19
3.932473E+03	1.831813E-18	1.168957E-19
3.942403E+03	1.854160E-18	1.182619E-19
3.952334E+03	1.876891E-18	1.196509E-19
3.962264E+03	1.899756E-18	1.210468E-19
3.972195E+03	1.922759E-18	1.224498E-19
3.982125E+03	1.946168E-18	1.238769E-19
3.992056E+03	1.969864E-18	1.253205E-19
4.001986E+03	1.993858E-18	1.267813E-19
4.011917E+03	2.018164E-18	1.282600E-19
4.021847E+03	2.042798E-18	1.297578E-19
4.031778E+03	2.067777E-18	1.312756E-19
4.041708E+03	2.093122E-18	1.328148E-19
4.051639E+03	2.118853E-18	1.343765E-19
4.061569E+03	2.144997E-18	1.359624E-19
4.071500E+03	2.171431E-18	1.375647E-19
4.081430E+03	2.198477E-18	1.392038E-19
4.091360E+03	2.226021E-18	1.408723E-19
4.101291E+03	2.254095E-18	1.425721E-19
4.111221E+03	2.282734E-18	1.443056E-19
4.121152E+03	2.311819E-18	1.460651E-19
4.131082E+03	2.341701E-18	1.478726E-19
4.141013E+03	2.372264E-18	1.497208E-19
4.150943E+03	2.403390E-18	1.516022E-19
4.160874E+03	2.435445E-18	1.535397E-19
4.170804E+03	2.468313E-18	1.555260E-19
4.180735E+03	2.501874E-18	1.575534E-19
4.190665E+03	2.536509E-18	1.596458E-19
4.200596E+03	2.571930E-18	1.617849E-19
4.210526E+03	2.608526E-18	1.639953E-19
4.220457E+03	2.646004E-18	1.662581E-19
4.230387E+03	2.684765E-18	1.685987E-19
4.240318E+03	2.724504E-18	1.709976E-19
4.250248E+03	2.765636E-18	1.734808E-19
4.260179E+03	2.807844E-18	1.760283E-19
4.270109E+03	2.851555E-18	1.786668E-19
4.280040E+03	2.896443E-18	1.813755E-19
4.289970E+03	2.942944E-18	1.841817E-19
4.299901E+03	2.990723E-18	1.870642E-19
4.309831E+03	3.040024E-18	1.900382E-19
4.319762E+03	3.091107E-18	1.931197E-19
4.329692E+03	3.143616E-18	1.962862E-19
4.339623E+03	3.197805E-18	1.995535E-19
4.349553E+03	3.253944E-18	2.029382E-19
4.359484E+03	3.311654E-18	2.064165E-19
4.369414E+03	3.371199E-18	2.100046E-19
4.379345E+03	3.432632E-18	2.137056E-19
4.389275E+03	3.496235E-18	2.175369E-19
4.399206E+03	3.561596E-18	2.214725E-19
4.409136E+03	3.628993E-18	2.255296E-19
4.419067E+03	3.698476E-18	2.297110E-19
4.428997E+03	3.770092E-18	2.340194E-19
4.438928E+03	3.843890E-18	2.384576E-19
4.448858E+03	3.919916E-18	2.430282E-19
4.458788E+03	3.998218E-18	2.477338E-19
4.468719E+03	4.078841E-18	2.525771E-19
4.478649E+03	4.161832E-18	2.575606E-19
4.488580E+03	4.247237E-18	2.626871E-19
4.498510E+03	4.335103E-18	2.679589E-19
4.508441E+03	4.425478E-18	2.733789E-19
4.518371E+03	4.518412E-18	2.789498E-19
4.528302E+03	4.613954E-18	2.846744E-19
4.538232E+03	4.712158E-18	2.905558E-19
4.548163E+03	4.813080E-18	2.965969E-19
4.558093E+03	4.916783E-18	3.028014E-19
4.568024E+03	5.023329E-18	3.091728E-19
4.577954E+03	5.132451E-18	3.156943E-19
4.587885E+03	5.244895E-18	3.224116E-19
4.597815E+03	5.360414E-18	3.293090E-19
4.607746E+03	5.479099E-18	3.363917E-19
4.617676E+03	5.600683E-18	3.436432E-19
4.627607E+03	5.726006E-18	3.511144E-19
4.637537E+03	5.854828E-18	3.587903E-19
4.647468E+03	5.986886E-18	3.666543E-19
4.657398E+03	6.123105E-18	3.747628E-19
4.667329E+03	6.262844E-18	3.830759E-19
4.677259E+03	6.407084E-18	3.916534E-19
4.687190E+03	6.555607E-18	4.004813E-19
4.697120E+03	6.708166E-18	4.095441E-19
4.707051E+03	6.865840E-18	4.189072E-19
4.716981E+03	7.027959E-18	4.285291E-19
4.726912E+03	7.195668E-18	4.384791E-19
4.736842E+03	7.368282E-18	4.487149E-19
4.746773E+03	7.546516E-18	4.592794E-19
4.756703E+03	7.731146E-18	4.702191E-19
4.766634E+03	7.921452E-18	4.814897E-19
4.776564E+03	8.118212E-18	4.931377E-19
4.786495E+03	8.322270E-18	5.052137E-19
4.796425E+03	8.532854E-18	5.176699E-19
4.806356E+03	8.750805E-18	5.305567E-19
4.816286E+03	8.977023E-18	5.439278E-19
4.826216E+03	9.210671E-18	5.577315E-19
4.836147E+03	9.452640E-18	5.720210E-19
4.846077E+03	9.703251E-18	5.868148E-19
4.856008E+03	9.962828E-18	6.021315E-19
4.865938E+03	1.023235E-17	6.180294E-19
4.875869E+03	1.051083E-17	6.344472E-19
4.885799E+03	1.079921E-17	6.514418E-19
4.895730E+03	1.109781E-17	6.690305E-19
4.905660E+03	1.140692E-17	6.872299E-19
4.915591E+03	1.172682E-17	7.060561E-19
4.925521E+03	1.205779E-17	7.255242E-19
4.935452E+03	1.240008E-17	7.456484E-19
4.945382E+03	1.275393E-17	7.664420E-19
4.955313E+03	1.311955E-17	7.879169E-19
4.965243E+03	1.349628E-17	8.100310E-19
4.975174E+03	1.388600E-17	8.328969E-19
4.985104E+03	1.428801E-17	8.564705E-19
4.995035E+03	1.470240E-17	8.807568E-19
5.004965E+03	1.512925E-17	9.057585E-19
5.014896E+03	1.556856E-17	9.314750E-19
5.024826E+03	1.601930E-17	9.578431E-19
5.034757E+03	1.648340E-17	9.849774E-19
5.044687E+03	1.695973E-17	1.012809E-18
5.054618E+03	1.744696E-17	1.041256E-18
5.064548E+03	1.794705E-17	1.070436E-18
5.074479E+03	1.845852E-17	1.100260E-18
5.084409E+03	1.897976E-17	1.130629E-18
5.094340E+03	1.951267E-17	1.161657E-18
5.104270E+03	2.005414E-17	1.193157E-18
5.114201E+03	2.060605E-17	1.225240E-18
5.124131E+03	2.116499E-17	1.257703E-18
5.134062E+03	2.173278E-17	1.290653E-18
5.143992E+03	2.230568E-17	1.323868E-18
5.153923E+03	2.288544E-17	1.357452E-18
5.163853E+03	2.346801E-17	1.391164E-18
5.173784E+03	2.405357E-17	1.425014E-18
5.183714E+03	2.464235E-17	1.459016E-18
5.193644E+03	2.522982E-17	1.492903E-18
5.203575E+03	2.581602E-17	1.526676E-18
5.213505E+03	2.640109E-17	1.560346E-18
5.223436E+03	2.698005E-17	1.593617E-18
5.233366E+03	2.755289E-17	1.626491E-18
5.243297E+03	2.811787E-17	1.658867E-18
5.253227E+03	2.867326E-17	1.690642E-18
5.263158E+03	2.921727E-17	1.721714E-18
5.273088E+03	2.975004E-17	1.752092E-18
5.283019E+03	3.026597E-17	1.781448E-18
5.292949E+03	3.076516E-17	1.809790E-18
5.302880E+03	3.124586E-17	1.837017E-18
5.312810E+03	3.170632E-17	1.863029E-18
5.322741E+03	3.214484E-17	1.887729E-18
5.332671E+03	3.255978E-17	1.911023E-18
5.342602E+03	3.294748E-17	1.932698E-18
5.352532E+03	3.331062E-17	1.952915E-18
5.362463E+03	3.364569E-17	1.971472E-18
5.372393E+03	3.395139E-17	1.988295E-18
5.382324E+03	3.422655E-17	2.003320E-18
5.392254E+03	3.447010E-17	2.016485E-18
5.402185E+03	3.467889E-17	2.027612E-18
5.412115E+03	3.485660E-17	2.036918E-18
5.422046E+03	3.500047E-17	2.044246E-18
5.431976E+03	3.511014E-17	2.049577E-18
5.441907E+03	3.518329E-17	2.052781E-18
5.451837E+03	3.522468E-17	2.054138E-18
5.461768E+03	3.523067E-17	2.053439E-18
5.471698E+03	3.520712E-17	2.051029E-18
5.481629E+03	3.515148E-17	2.046762E-18
5.491559E+03	3.507037E-17	2.041027E-18
5.501490E+03	3.496169E-17	2.033702E-18
5.511420E+03	3.483240E-17	2.025197E-18
5.521351E+03	3.468058E-17	2.015399E-18
5.531281E+03	3.451324E-17	2.004719E-18
5.541212E+03	3.432855E-17	1.993051E-18
5.551142E+03	3.413126E-17	1.980672E-18
5.561072E+03	3.392597E-17	1.967850E-18
5.571003E+03	3.371078E-17	1.954476E-18
5.580933E+03	3.349012E-17	1.940806E-18
5.590864E+03	3.326824E-17	1.927088E-18
5.600794E+03	3.304293E-17	1.913193E-18
5.610725E+03	3.281819E-17	1.899352E-18
5.620655E+03	3.259565E-17	1.885660E-18
5.630586E+03	3.237684E-17	1.872206E-18
5.640516E+03	3.216306E-17	1.859063E-18
5.650447E+03	3.195546E-17	1.846298E-18
5.660377E+03	3.175497E-17	1.833964E-18
5.670308E+03	3.156232E-17	1.822103E-18
5.680238E+03	3.137809E-17	1.810746E-18
5.690169E+03	3.120266E-17	1.799916E-18
5.700099E+03	3.103623E-17	1.789623E-18
5.710030E+03	3.087891E-17	1.779873E-18
5.719960E+03	3.073056E-17	1.770656E-18
5.729891E+03	3.059098E-17	1.761963E-18
5.739821E+03	3.045988E-17	1.753773E-18
5.749752E+03	3.033681E-17	1.746062E-18
5.759682E+03	3.021940E-17	1.738691E-18
5.769613E+03	3.011094E-17	1.731851E-18
5.779543E+03	3.000897E-17	1.725399E-18
5.789474E+03	2.991106E-17	1.719195E-18
5.799404E+03	2.982049E-17	1.713427E-18
5.809335E+03	2.973491E-17	1.707960E-18
5.819265E+03	2.965208E-17	1.702664E-18
5.829196E+03	2.957546E-17	1.697739E-18
5.839126E+03	2.950118E-17	1.692962E-18
5.849057E+03	2.943298E-17	1.688547E-18
5.858987E+03	2.936725E-17	1.684287E-18
5.868918E+03	2.930811E-17	1.680419E-18
5.878848E+03	2.925230E-17	1.676754E-18
5.888779E+03	2.920425E-17	1.673547E-18
5.898709E+03	2.916114E-17	1.670635E-18
5.908640E+03	2.912593E-17	1.668189E-18
5.918570E+03	2.910164E-17	1.666380E-18
5.928500E+03	2.908606E-17	1.665083E-18
5.938431E+03	2.908257E-17	1.664489E-18
5.948361E+03	2.909286E-17	1.664695E-18
5.958292E+03	2.912062E-17	1.665913E-18
5.968222E+03	2.916406E-17	1.668038E-18
5.978153E+03	2.922700E-17	1.671290E-18
5.988083E+03	2.931149E-17	1.675785E-18
5.998014E+03	2.941960E-17	1.681639E-18
6.007944E+03	2.955336E-17	1.688970E-18
6.017875E+03	2.971483E-17	1.697894E-18
6.027805E+03	2.990593E-17	1.708521E-18
6.037736E+03	3.012859E-17	1.720959E-18
6.047666E+03	3.038455E-17	1.735309E-18
6.057597E+03	3.067546E-17	1.751663E-18
6.067527E+03	3.100267E-17	1.770098E-18
6.077458E+03	3.136742E-17	1.790686E-18
6.087388E+03	3.177053E-17	1.813472E-18
6.097319E+03	3.221059E-17	1.838375E-18
6.107249E+03	3.269169E-17	1.865630E-18
6.117180E+03	3.321149E-17	1.895103E-18
6.127110E+03	3.376697E-17	1.926621E-18
6.137041E+03	3.436079E-17	1.960336E-18
6.146971E+03	3.498854E-17	1.995998E-18
6.156902E+03	3.564488E-17	2.033302E-18
6.166832E+03	3.633024E-17	2.072272E-18
6.176763E+03	3.703745E-17	2.112501E-18
6.186693E+03	3.775830E-17	2.153520E-18
6.196624E+03	3.849099E-17	2.195228E-18
6.206554E+03	3.922383E-17	2.236958E-18
6.216485E+03	3.995472E-17	2.278593E-18
6.226415E+03	4.067137E-17	2.319430E-18
6.236346E+03	4.136845E-17	2.359168E-18
6.246276E+03	4.204038E-17	2.397489E-18
6.256207E+03	4.267338E-17	2.433607E-18
6.266137E+03	4.326125E-17	2.467170E-18
6.276068E+03	4.379815E-17	2.497845E-18
6.285998E+03	4.427025E-17	2.524843E-18
6.295929E+03	4.467237E-17	2.547870E-18
6.305859E+03	4.499752E-17	2.566526E-18
6.315789E+03	4.523962E-17	2.580463E-18
6.325720E+03	4.539370E-17	2.589398E-18
6.335650E+03	4.545904E-17	2.593290E-18
6.345581E+03	4.542770E-17	2.591683E-18
6.355511E+03	4.530178E-17	2.584697E-18
6.365442E+03	4.508195E-17	2.572367E-18
6.375372E+03	4.477031E-17	2.554813E-18
6.385303E+03	4.437026E-17	2.532225E-18
6.395233E+03	4.388365E-17	2.504709E-18
6.405164E+03	4.332165E-17	2.472899E-18
6.415094E+03	4.268790E-17	2.437000E-18
6.425025E+03	4.198952E-17	2.397418E-18
6.434955E+03	4.123418E-17	2.354587E-18
6.444886E+03	4.042967E-17	2.308951E-18
6.454816E+03	3.958152E-17	2.260824E-18
6.464747E+03	3.870268E-17	2.210943E-18
6.474677E+03	3.779832E-17	2.159601E-18
6.484608E+03	3.687350E-17	2.107087E-18
6.494538E+03	3.593995E-17	2.054069E-18
6.504469E+03	3.500177E-17	2.000781E-18
6.514399E+03	3.406284E-17	1.947442E-18
6.524330E+03	3.313285E-17	1.894607E-18
6.534260E+03	3.221247E-17	1.842312E-18
6.544191E+03	3.131006E-17	1.791035E-18
6.554121E+03	3.042535E-17	1.740761E-18
6.564052E+03	2.956539E-17	1.691892E-18
6.573982E+03	2.872913E-17	1.644369E-18
6.583913E+03	2.792067E-17	1.598427E-18
6.593843E+03	2.714351E-17	1.554265E-18
6.603774E+03	2.639564E-17	1.511769E-18
6.613704E+03	2.567991E-17	1.471103E-18
6.623635E+03	2.499707E-17	1.432311E-18
6.633565E+03	2.434917E-17	1.395510E-18
6.643496E+03	2.373344E-17	1.360542E-18
6.653426E+03	2.315155E-17	1.327504E-18
6.663357E+03	2.260346E-17	1.296395E-18
6.673287E+03	2.208899E-17	1.267205E-18
6.683217E+03	2.160786E-17	1.239920E-18
6.693148E+03	2.115972E-17	1.214519E-18
6.703078E+03	2.074414E-17	1.190979E-18
6.713009E+03	2.036066E-17	1.169276E-18
6.722939E+03	2.000877E-17	1.149381E-18
6.732870E+03	1.968797E-17	1.131265E-18
6.742800E+03	1.939771E-17	1.114900E-18
6.752731E+03	1.913749E-17	1.100258E-18
6.762661E+03	1.890678E-17	1.087308E-18
6.772592E+03	1.870507E-17	1.076024E-18
6.782522E+03	1.853072E-17	1.066312E-18
6.792453E+03	1.838558E-17	1.058280E-18
6.802383E+03	1.826803E-17	1.051835E-18
6.812314E+03	1.817764E-17	1.046955E-18
6.822244E+03	1.811286E-17	1.043552E-18
6.832175E+03	1.807556E-17	1.041734E-18
6.842105E+03	1.806422E-17	1.041416E-18
6.852036E+03	1.807733E-17	1.042511E-18
6.861966E+03	1.811679E-17	1.045131E-18
6.871897E+03	1.817995E-17	1.049126E-18
6.881827E+03	1.826872E-17	1.054604E-18
6.891758E+03	1.838041E-17	1.061414E-18
6.901688E+03	1.851691E-17	1.069666E-18
6.911619E+03	1.867546E-17	1.079201E-18
6.921549E+03	1.885674E-17	1.090062E-18
6.931480E+03	1.906140E-17	1.102286E-18
6.941410E+03	1.928650E-17	1.115704E-18
6.951341E+03	1.953254E-17	1.130349E-18
6.961271E+03	1.980004E-17	1.146251E-18
6.971202E+03	2.008572E-17	1.163221E-18
6.981132E+03	2.038988E-17	1.181280E-18
6.991063E+03	2.071151E-17	1.200368E-18
7.000993E+03	2.104945E-17	1.220420E-18
7.010924E+03	2.140245E-17	1.241366E-18
7.020854E+03	2.177046E-17	1.263203E-18
7.030785E+03	2.214924E-17	1.285687E-18
7.040715E+03	2.253847E-17	1.308800E-18
7.050645E+03	2.293631E-17	1.332436E-18
7.060576E+03	2.334078E-17	1.356481E-18
7.070506E+03	2.374978E-17	1.380814E-18
7.080437E+03	2.416106E-17	1.405304E-18
7.090367E+03	2.457069E-17	1.429723E-18
7.100298E+03	2.497921E-17	1.454103E-18
7.110228E+03	2.538253E-17	1.478204E-18
7.120159E+03	2.577793E-17	1.501871E-18
7.130089E+03	2.616267E-17	1.524941E-18
7.140020E+03	2.653230E-17	1.547155E-18
7.149950E+03	2.688732E-17	1.568541E-18
7.159881E+03	2.722330E-17	1.588841E-18
7.169811E+03	2.753755E-17	1.607895E-18
7.179742E+03	2.782571E-17	1.625447E-18
7.189672E+03	2.808872E-17	1.641551E-18
7.199603E+03	2.832081E-17	1.655866E-18
7.209533E+03	2.852337E-17	1.668474E-18
7.219464E+03	2.869100E-17	1.679054E-18
7.229394E+03	2.882568E-17	1.687720E-18
7.239325E+03	2.892255E-17	1.694186E-18
7.249255E+03	2.898426E-17	1.698603E-18
7.259186E+03	2.900660E-17	1.700721E-18
7.269116E+03	2.899297E-17	1.700737E-18
7.279047E+03	2.893988E-17	1.698444E-18
7.288977E+03	2.884966E-17	1.693973E-18
7.298908E+03	2.872497E-17	1.687479E-18
7.308838E+03	2.856344E-17	1.678819E-18
7.318769E+03	2.836840E-17	1.668186E-18
7.328699E+03	2.814170E-17	1.655685E-18
7.338630E+03	2.788716E-17	1.641539E-18
7.348560E+03	2.760361E-17	1.625675E-18
7.358491E+03	2.729529E-17	1.608341E-18
7.368421E+03	2.696482E-17	1.589689E-18
7.378352E+03	2.661492E-17	1.569877E-18
7.388282E+03	2.624835E-17	1.549066E-18
7.398213E+03	2.586786E-17	1.527417E-18
7.408143E+03	2.547618E-17	1.505088E-18
7.418073E+03	2.507595E-17	1.482236E-18
7.428004E+03	2.466969E-17	1.459007E-18
7.437934E+03	2.425982E-17	1.435544E-18
7.447865E+03	2.384858E-17	1.411979E-18
7.457795E+03	2.343803E-17	1.388433E-18
7.467726E+03	2.303006E-17	1.365018E-18
7.477656E+03	2.262494E-17	1.341751E-18
7.487587E+03	2.222703E-17	1.318888E-18
7.497517E+03	2.183620E-17	1.296424E-18
7.507448E+03	2.145356E-17	1.274425E-18
7.517378E+03	2.107873E-17	1.252867E-18
7.527309E+03	2.071512E-17	1.231956E-18
7.537239E+03	2.036200E-17	1.211648E-18
7.547170E+03	2.001856E-17	1.191895E-18
7.557100E+03	1.968761E-17	1.172867E-18
7.567031E+03	1.936801E-17	1.154496E-18
7.576961E+03	1.905852E-17	1.136708E-18
7.586892E+03	1.876137E-17	1.119638E-18
7.596822E+03	1.847391E-17	1.103129E-18
7.606753E+03	1.819813E-17	1.087301E-18
7.616683E+03	1.793134E-17	1.071993E-18
7.626614E+03	1.767426E-17	1.057250E-18
7.636544E+03	1.742751E-17	1.043108E-18
7.646475E+03	1.718838E-17	1.029408E-18
7.656405E+03	1.695748E-17	1.016186E-18
7.666336E+03	1.673531E-17	1.003474E-18
7.676266E+03	1.651924E-17	9.911128E-19
7.686197E+03	1.630980E-17	9.791363E-19
7.696127E+03	1.610748E-17	9.675738E-19
7.706058E+03	1.590971E-17	9.562726E-19
