#wls	flux	fluxerr
1.596806E+03	2.469826E-03	2.819685E-05
1.636727E+03	2.549483E-03	2.910624E-05
1.676647E+03	2.629272E-03	3.001713E-05
1.716567E+03	2.709078E-03	3.092823E-05
1.756487E+03	2.788813E-03	3.183851E-05
1.796407E+03	2.868530E-03	3.274858E-05
1.836327E+03	2.948256E-03	3.365876E-05
1.876248E+03	3.028309E-03	3.457266E-05
1.916168E+03	3.109016E-03	3.549404E-05
1.956088E+03	3.191020E-03	3.643022E-05
1.996008E+03	3.275145E-03	3.739061E-05
2.035928E+03	3.362508E-03	3.838797E-05
2.075848E+03	3.454447E-03	3.943757E-05
2.115768E+03	3.552484E-03	4.055679E-05
2.155689E+03	3.658243E-03	4.176416E-05
2.195609E+03	3.773166E-03	4.307617E-05
2.235529E+03	3.898251E-03	4.450416E-05
2.275449E+03	4.034239E-03	4.605665E-05
2.315369E+03	4.181765E-03	4.774086E-05
2.355289E+03	4.341207E-03	4.956109E-05
2.395210E+03	4.512829E-03	5.152038E-05
2.435130E+03	4.696935E-03	5.362218E-05
2.475050E+03	4.894200E-03	5.587423E-05
2.514970E+03	5.105122E-03	5.828218E-05
2.554890E+03	5.330289E-03	6.085275E-05
2.594810E+03	5.569776E-03	6.358681E-05
2.634731E+03	5.823190E-03	6.647986E-05
2.674651E+03	6.089572E-03	6.952095E-05
2.714571E+03	6.367425E-03	7.269301E-05
2.754491E+03	6.655629E-03	7.598322E-05
2.794411E+03	6.953083E-03	7.937904E-05
2.834331E+03	7.257627E-03	8.285580E-05
2.874251E+03	7.565116E-03	8.636619E-05
2.914172E+03	7.869253E-03	8.983829E-05
2.954092E+03	8.160945E-03	9.316833E-05
2.994012E+03	8.427743E-03	9.621415E-05
3.003992E+03	8.488759E-03	9.691073E-05
3.013972E+03	8.546879E-03	9.757424E-05
3.023952E+03	8.601861E-03	9.820192E-05
3.033932E+03	8.653308E-03	9.878925E-05
3.043912E+03	8.700890E-03	9.933246E-05
3.053892E+03	8.744293E-03	9.982796E-05
3.063872E+03	8.783077E-03	1.002707E-04
3.073852E+03	8.816800E-03	1.006557E-04
3.083832E+03	8.845098E-03	1.009788E-04
3.093812E+03	8.867485E-03	1.012343E-04
3.103792E+03	8.883456E-03	1.014166E-04
3.113772E+03	8.892592E-03	1.015209E-04
3.123752E+03	8.894374E-03	1.015413E-04
3.133733E+03	8.888310E-03	1.014720E-04
3.143713E+03	8.873850E-03	1.013069E-04
3.153693E+03	8.850443E-03	1.010397E-04
3.163673E+03	8.817688E-03	1.006658E-04
3.173653E+03	8.775018E-03	1.001786E-04
3.183633E+03	8.722016E-03	9.957353E-05
3.193613E+03	8.658477E-03	9.884814E-05
3.203593E+03	8.584254E-03	9.800078E-05
3.213573E+03	8.499428E-03	9.703237E-05
3.223553E+03	8.404505E-03	9.594868E-05
3.233533E+03	8.300584E-03	9.476228E-05
3.243513E+03	8.189154E-03	9.349015E-05
3.253493E+03	8.072313E-03	9.215624E-05
3.263473E+03	7.952803E-03	9.079187E-05
3.273453E+03	7.833652E-03	8.943159E-05
3.273935E+03	6.332898E-03	7.229848E-05
3.275673E+03	6.341995E-03	7.240234E-05
3.277411E+03	6.353235E-03	7.253066E-05
3.279150E+03	6.370359E-03	7.272615E-05
3.280888E+03	6.393085E-03	7.298560E-05
3.282627E+03	6.410742E-03	7.318717E-05
3.284364E+03	6.427695E-03	7.338071E-05
3.286103E+03	6.446993E-03	7.360102E-05
3.287841E+03	6.467111E-03	7.383070E-05
3.289580E+03	6.488810E-03	7.407842E-05
3.291317E+03	6.511883E-03	7.434183E-05
3.293056E+03	6.535844E-03	7.461537E-05
3.294794E+03	6.564707E-03	7.494488E-05
3.296533E+03	6.590994E-03	7.524498E-05
3.298270E+03	6.620520E-03	7.558206E-05
3.300009E+03	6.649756E-03	7.591582E-05
3.301748E+03	6.679598E-03	7.625651E-05
3.303486E+03	6.715929E-03	7.667127E-05
3.305224E+03	6.751067E-03	7.707242E-05
3.306962E+03	6.784666E-03	7.745600E-05
3.308701E+03	6.817142E-03	7.782676E-05
3.310439E+03	6.845316E-03	7.814840E-05
3.312177E+03	6.873614E-03	7.847145E-05
3.313915E+03	6.904108E-03	7.881958E-05
3.315654E+03	6.936244E-03	7.918646E-05
3.317392E+03	6.964840E-03	7.951292E-05
3.319131E+03	6.987204E-03	7.976823E-05
3.320868E+03	7.004719E-03	7.996819E-05
3.322607E+03	7.019461E-03	8.013648E-05
3.324345E+03	7.030048E-03	8.025735E-05
3.326083E+03	7.035793E-03	8.032294E-05
3.327821E+03	7.042910E-03	8.040419E-05
3.329560E+03	7.050709E-03	8.049322E-05
3.331298E+03	7.054358E-03	8.053488E-05
3.333036E+03	7.055930E-03	8.055282E-05
3.334774E+03	7.047149E-03	8.045257E-05
3.336513E+03	7.034915E-03	8.031291E-05
3.338251E+03	7.026128E-03	8.021259E-05
3.339990E+03	7.016646E-03	8.010434E-05
3.341728E+03	6.999581E-03	7.990951E-05
3.343466E+03	6.978378E-03	7.966746E-05
3.345205E+03	6.955798E-03	7.940968E-05
3.346943E+03	6.935288E-03	7.917552E-05
3.348681E+03	6.920287E-03	7.900427E-05
3.350419E+03	6.906663E-03	7.884873E-05
3.352158E+03	6.893036E-03	7.869316E-05
3.353896E+03	6.874865E-03	7.848571E-05
3.355634E+03	6.859790E-03	7.831362E-05
3.357372E+03	6.842994E-03	7.812186E-05
3.359111E+03	6.827161E-03	7.794110E-05
3.360849E+03	6.821989E-03	7.788206E-05
3.362587E+03	6.811241E-03	7.775936E-05
3.364325E+03	6.797741E-03	7.760523E-05
3.366064E+03	6.792969E-03	7.755076E-05
3.367802E+03	6.788881E-03	7.750409E-05
3.369541E+03	6.780664E-03	7.741028E-05
3.371278E+03	6.767014E-03	7.725444E-05
3.373017E+03	6.755424E-03	7.712212E-05
3.374755E+03	6.752692E-03	7.709094E-05
3.376494E+03	6.750779E-03	7.706910E-05
3.378232E+03	6.754353E-03	7.710989E-05
3.379970E+03	6.761419E-03	7.719056E-05
3.381709E+03	6.767995E-03	7.726564E-05
3.383446E+03	6.766670E-03	7.725051E-05
3.385185E+03	6.758067E-03	7.715229E-05
3.386923E+03	6.749047E-03	7.704932E-05
3.388662E+03	6.745443E-03	7.700817E-05
3.390400E+03	6.732302E-03	7.685815E-05
3.392138E+03	6.718680E-03	7.670263E-05
3.393876E+03	6.722602E-03	7.674741E-05
3.395615E+03	6.728297E-03	7.681242E-05
3.397353E+03	6.734668E-03	7.688516E-05
3.399091E+03	6.746098E-03	7.701564E-05
3.400829E+03	6.752722E-03	7.709127E-05
3.402568E+03	6.759543E-03	7.716913E-05
3.404306E+03	6.769844E-03	7.728673E-05
3.406044E+03	6.786703E-03	7.747920E-05
3.407782E+03	6.799786E-03	7.762856E-05
3.409521E+03	6.805535E-03	7.769419E-05
3.411259E+03	6.803545E-03	7.767147E-05
3.412997E+03	6.798882E-03	7.761823E-05
3.414736E+03	6.789017E-03	7.750561E-05
3.416474E+03	6.779081E-03	7.739218E-05
3.418213E+03	6.770508E-03	7.729430E-05
3.419951E+03	6.763708E-03	7.721668E-05
3.421689E+03	6.756767E-03	7.713743E-05
3.423427E+03	6.749207E-03	7.705112E-05
3.425166E+03	6.739799E-03	7.694372E-05
3.426904E+03	6.731822E-03	7.685264E-05
3.428642E+03	6.724181E-03	7.676541E-05
3.430380E+03	6.706438E-03	7.656285E-05
3.432119E+03	6.679894E-03	7.625982E-05
3.433856E+03	6.660380E-03	7.603704E-05
3.435595E+03	6.645164E-03	7.586332E-05
3.437333E+03	6.627969E-03	7.566702E-05
3.439072E+03	6.612343E-03	7.548863E-05
3.440810E+03	6.596989E-03	7.531334E-05
3.442548E+03	6.585516E-03	7.518237E-05
3.444286E+03	6.577993E-03	7.509647E-05
3.446025E+03	6.567197E-03	7.497322E-05
3.447763E+03	6.560755E-03	7.489968E-05
3.449501E+03	6.550020E-03	7.477713E-05
3.451240E+03	6.542550E-03	7.469184E-05
3.452978E+03	6.538748E-03	7.464844E-05
3.454717E+03	6.528480E-03	7.453122E-05
3.456454E+03	6.521540E-03	7.445199E-05
3.458193E+03	6.517859E-03	7.440996E-05
3.459931E+03	6.512678E-03	7.435081E-05
3.461670E+03	6.510548E-03	7.432649E-05
3.463407E+03	6.508343E-03	7.430132E-05
3.465146E+03	6.502737E-03	7.423732E-05
3.466884E+03	6.492032E-03	7.411511E-05
3.468623E+03	6.479425E-03	7.397118E-05
3.470361E+03	6.467427E-03	7.383420E-05
3.472099E+03	6.458208E-03	7.372896E-05
3.473837E+03	6.448986E-03	7.362368E-05
3.475576E+03	6.441593E-03	7.353927E-05
3.477314E+03	6.438127E-03	7.349970E-05
3.479052E+03	6.433908E-03	7.345154E-05
3.480790E+03	6.429956E-03	7.340641E-05
3.482529E+03	6.422745E-03	7.332410E-05
3.484266E+03	6.409300E-03	7.317060E-05
3.486005E+03	6.404181E-03	7.311216E-05
3.487744E+03	6.403119E-03	7.310003E-05
3.489482E+03	6.394402E-03	7.300051E-05
3.491221E+03	6.384193E-03	7.288397E-05
3.492958E+03	6.383247E-03	7.287317E-05
3.494697E+03	6.383511E-03	7.287618E-05
3.496435E+03	6.387688E-03	7.292386E-05
3.498174E+03	6.395639E-03	7.301463E-05
3.499911E+03	6.398915E-03	7.305203E-05
3.501650E+03	6.393670E-03	7.299215E-05
3.503388E+03	6.385921E-03	7.290369E-05
3.505127E+03	6.389173E-03	7.294081E-05
3.506864E+03	6.393156E-03	7.298628E-05
3.508603E+03	6.398344E-03	7.304551E-05
3.510341E+03	6.409792E-03	7.317621E-05
3.512080E+03	6.419002E-03	7.328134E-05
3.513817E+03	6.425905E-03	7.336015E-05
3.515556E+03	6.430100E-03	7.340804E-05
3.517294E+03	6.429703E-03	7.340351E-05
3.519033E+03	6.428622E-03	7.339117E-05
3.520770E+03	6.431104E-03	7.341950E-05
3.522509E+03	6.435393E-03	7.346847E-05
3.524248E+03	6.436170E-03	7.347734E-05
3.525986E+03	6.437544E-03	7.349302E-05
3.527725E+03	6.441062E-03	7.353318E-05
3.529462E+03	6.439861E-03	7.351947E-05
3.531201E+03	6.431930E-03	7.342892E-05
3.532939E+03	6.422717E-03	7.332374E-05
3.534678E+03	6.421966E-03	7.331517E-05
3.536415E+03	6.425908E-03	7.336017E-05
3.538154E+03	6.425609E-03	7.335676E-05
3.539892E+03	6.420132E-03	7.329424E-05
3.541631E+03	6.417871E-03	7.326842E-05
3.543368E+03	6.420901E-03	7.330301E-05
3.545107E+03	6.420701E-03	7.330073E-05
3.546845E+03	6.415465E-03	7.324095E-05
3.548584E+03	6.407475E-03	7.314973E-05
3.550321E+03	6.400552E-03	7.307069E-05
3.552060E+03	6.397844E-03	7.303978E-05
3.553798E+03	6.400016E-03	7.306457E-05
3.555537E+03	6.393409E-03	7.298914E-05
3.557274E+03	6.379904E-03	7.283497E-05
3.559013E+03	6.370746E-03	7.273042E-05
3.560751E+03	6.359780E-03	7.260522E-05
3.562490E+03	6.348676E-03	7.247846E-05
3.564228E+03	6.340712E-03	7.238754E-05
3.565966E+03	6.332543E-03	7.229428E-05
3.567705E+03	6.317491E-03	7.212244E-05
3.569443E+03	6.298366E-03	7.190410E-05
3.571181E+03	6.278576E-03	7.167817E-05
3.572919E+03	6.260524E-03	7.147208E-05
3.574658E+03	6.237672E-03	7.121120E-05
3.576396E+03	6.212958E-03	7.092905E-05
3.578135E+03	6.192384E-03	7.069418E-05
3.579872E+03	6.174747E-03	7.049282E-05
3.581611E+03	6.164306E-03	7.037362E-05
3.583349E+03	6.157525E-03	7.029621E-05
3.585088E+03	6.147345E-03	7.017999E-05
3.586825E+03	6.134366E-03	7.003181E-05
3.588564E+03	6.125711E-03	6.993300E-05
3.590302E+03	6.122239E-03	6.989337E-05
3.592041E+03	6.120556E-03	6.987415E-05
3.593778E+03	6.115740E-03	6.981918E-05
3.595517E+03	6.109988E-03	6.975350E-05
3.597255E+03	6.106156E-03	6.970976E-05
3.598994E+03	6.104641E-03	6.969246E-05
3.600732E+03	6.106303E-03	6.971143E-05
3.602470E+03	6.108152E-03	6.973254E-05
3.604209E+03	6.112047E-03	6.977701E-05
3.605947E+03	6.113477E-03	6.979333E-05
3.607685E+03	6.107339E-03	6.972326E-05
3.609423E+03	6.096625E-03	6.960094E-05
3.611162E+03	6.083591E-03	6.945214E-05
3.612900E+03	6.070291E-03	6.930031E-05
3.614638E+03	6.060366E-03	6.918700E-05
3.616376E+03	6.050108E-03	6.906988E-05
3.618115E+03	6.041698E-03	6.897387E-05
3.619853E+03	6.036194E-03	6.891104E-05
3.621591E+03	6.030420E-03	6.884512E-05
3.623329E+03	6.022856E-03	6.875877E-05
3.625068E+03	6.017798E-03	6.870102E-05
3.626806E+03	6.012272E-03	6.863793E-05
3.628545E+03	6.003969E-03	6.854314E-05
3.630282E+03	5.999291E-03	6.848973E-05
3.632021E+03	5.994606E-03	6.843626E-05
3.633759E+03	5.988268E-03	6.836389E-05
3.635498E+03	5.983375E-03	6.830804E-05
3.637236E+03	5.975710E-03	6.822053E-05
3.638974E+03	5.967317E-03	6.812471E-05
3.640713E+03	5.963792E-03	6.808447E-05
3.642451E+03	5.964405E-03	6.809146E-05
3.644189E+03	5.962641E-03	6.807133E-05
3.645927E+03	5.963893E-03	6.808561E-05
3.647666E+03	5.965792E-03	6.810730E-05
3.649404E+03	5.962491E-03	6.806962E-05
3.651142E+03	5.956360E-03	6.799962E-05
3.652880E+03	5.956855E-03	6.800527E-05
3.654619E+03	5.960687E-03	6.804901E-05
3.656357E+03	5.959194E-03	6.803197E-05
3.658095E+03	5.961496E-03	6.805825E-05
3.659833E+03	5.966474E-03	6.811508E-05
3.661572E+03	5.972422E-03	6.818298E-05
3.663310E+03	5.979994E-03	6.826943E-05
3.665048E+03	5.985326E-03	6.833029E-05
3.666786E+03	5.991757E-03	6.840371E-05
3.668525E+03	5.996342E-03	6.845605E-05
3.670263E+03	5.999020E-03	6.848663E-05
3.672001E+03	6.004171E-03	6.854543E-05
3.673740E+03	6.006303E-03	6.856977E-05
3.675478E+03	6.004835E-03	6.855301E-05
3.677217E+03	6.001009E-03	6.850933E-05
3.678954E+03	5.997831E-03	6.847304E-05
3.680693E+03	6.000516E-03	6.850370E-05
3.682431E+03	6.009122E-03	6.860195E-05
3.684170E+03	6.020581E-03	6.873277E-05
3.685908E+03	6.026681E-03	6.880240E-05
3.687646E+03	6.028470E-03	6.882283E-05
3.689384E+03	6.026605E-03	6.880154E-05
3.691123E+03	6.026946E-03	6.880543E-05
3.692861E+03	6.029424E-03	6.883372E-05
3.694599E+03	6.029292E-03	6.883221E-05
3.696337E+03	6.027658E-03	6.881355E-05
3.698076E+03	6.026536E-03	6.880075E-05
3.699814E+03	6.023720E-03	6.876859E-05
3.701552E+03	6.021936E-03	6.874823E-05
3.703290E+03	6.022547E-03	6.875520E-05
3.705029E+03	6.020879E-03	6.873616E-05
3.706767E+03	6.022835E-03	6.875849E-05
3.708505E+03	6.028279E-03	6.882064E-05
3.710244E+03	6.030861E-03	6.885012E-05
3.711982E+03	6.026508E-03	6.880043E-05
3.713721E+03	6.019694E-03	6.872263E-05
3.715458E+03	6.012684E-03	6.864260E-05
3.717197E+03	6.008968E-03	6.860018E-05
3.718935E+03	6.007058E-03	6.857837E-05
3.720674E+03	5.998942E-03	6.848572E-05
3.722411E+03	5.988502E-03	6.836653E-05
3.724150E+03	5.984065E-03	6.831587E-05
3.725888E+03	5.982204E-03	6.829462E-05
3.727627E+03	5.981368E-03	6.828508E-05
3.729364E+03	5.978852E-03	6.825635E-05
3.731103E+03	5.973174E-03	6.819153E-05
3.732841E+03	5.969296E-03	6.814726E-05
3.734580E+03	5.967410E-03	6.812573E-05
3.736318E+03	5.964876E-03	6.809680E-05
3.738056E+03	5.966195E-03	6.811185E-05
3.739794E+03	5.968790E-03	6.814149E-05
3.741533E+03	5.965018E-03	6.809841E-05
3.743271E+03	5.963552E-03	6.808169E-05
3.745009E+03	5.969206E-03	6.814623E-05
3.746748E+03	5.975361E-03	6.821649E-05
3.748486E+03	5.979900E-03	6.826832E-05
3.750225E+03	5.979622E-03	6.826514E-05
3.751962E+03	5.977095E-03	6.823629E-05
3.753701E+03	5.971619E-03	6.817378E-05
3.755439E+03	5.956220E-03	6.799798E-05
3.757178E+03	5.938590E-03	6.779670E-05
3.758915E+03	5.921609E-03	6.760285E-05
3.760654E+03	5.900930E-03	6.736676E-05
3.762392E+03	5.881542E-03	6.714542E-05
3.764131E+03	5.866124E-03	6.696941E-05
3.765868E+03	5.845991E-03	6.673956E-05
3.767607E+03	5.824148E-03	6.649019E-05
3.769345E+03	5.803914E-03	6.625919E-05
3.771084E+03	5.784457E-03	6.603707E-05
3.772821E+03	5.762719E-03	6.578890E-05
3.774560E+03	5.740358E-03	6.553362E-05
3.776298E+03	5.714893E-03	6.524291E-05
3.778037E+03	5.691165E-03	6.497202E-05
3.779774E+03	5.673303E-03	6.476810E-05
3.781513E+03	5.654499E-03	6.455342E-05
3.783251E+03	5.629990E-03	6.427362E-05
3.784990E+03	5.604227E-03	6.397950E-05
3.786729E+03	5.582673E-03	6.373344E-05
3.788466E+03	5.567351E-03	6.355852E-05
3.790205E+03	5.552165E-03	6.338514E-05
3.791943E+03	5.534516E-03	6.318366E-05
3.793682E+03	5.516499E-03	6.297798E-05
3.795419E+03	5.500773E-03	6.279844E-05
3.797158E+03	5.489424E-03	6.266888E-05
3.798896E+03	5.481118E-03	6.257406E-05
3.800635E+03	5.476735E-03	6.252401E-05
3.802372E+03	5.478735E-03	6.254684E-05
3.804111E+03	5.483002E-03	6.259555E-05
3.805849E+03	5.484291E-03	6.261028E-05
3.807588E+03	5.489741E-03	6.267249E-05
3.809325E+03	5.499281E-03	6.278140E-05
3.811064E+03	5.508366E-03	6.288511E-05
3.812802E+03	5.512143E-03	6.292823E-05
3.814541E+03	5.510369E-03	6.290798E-05
3.816278E+03	5.513000E-03	6.293802E-05
3.818017E+03	5.513421E-03	6.294282E-05
3.819755E+03	5.507610E-03	6.287648E-05
3.821494E+03	5.503561E-03	6.283025E-05
3.823232E+03	5.500516E-03	6.279549E-05
3.824970E+03	5.499041E-03	6.277865E-05
3.826709E+03	5.502835E-03	6.282196E-05
3.828447E+03	5.508692E-03	6.288883E-05
3.830185E+03	5.513034E-03	6.293840E-05
3.831923E+03	5.512165E-03	6.292848E-05
3.833662E+03	5.509977E-03	6.290350E-05
3.835400E+03	5.511982E-03	6.292639E-05
3.837138E+03	5.516986E-03	6.298352E-05
3.838876E+03	5.519041E-03	6.300697E-05
3.840615E+03	5.520402E-03	6.302251E-05
3.842353E+03	5.523195E-03	6.305440E-05
3.844092E+03	5.526606E-03	6.309334E-05
3.845829E+03	5.528387E-03	6.311366E-05
3.847568E+03	5.527915E-03	6.310828E-05
3.849306E+03	5.529187E-03	6.312280E-05
3.851045E+03	5.534818E-03	6.318708E-05
3.852782E+03	5.538445E-03	6.322849E-05
3.854521E+03	5.537394E-03	6.321649E-05
3.856259E+03	5.536901E-03	6.321086E-05
3.857998E+03	5.537400E-03	6.321656E-05
3.859736E+03	5.534537E-03	6.318387E-05
3.861474E+03	5.527632E-03	6.310504E-05
3.863213E+03	5.523403E-03	6.305677E-05
3.864951E+03	5.517498E-03	6.298935E-05
3.866689E+03	5.505265E-03	6.284969E-05
3.868427E+03	5.485533E-03	6.262442E-05
3.870166E+03	5.458191E-03	6.231228E-05
3.871904E+03	5.434963E-03	6.204711E-05
3.873643E+03	5.417889E-03	6.185218E-05
3.875380E+03	5.396308E-03	6.160581E-05
3.877119E+03	5.376170E-03	6.137590E-05
3.878857E+03	5.360131E-03	6.119279E-05
3.880595E+03	5.345465E-03	6.102536E-05
3.882333E+03	5.337237E-03	6.093143E-05
3.884072E+03	5.331300E-03	6.086365E-05
3.885810E+03	5.323021E-03	6.076913E-05
3.887548E+03	5.317708E-03	6.070848E-05
3.889286E+03	5.310795E-03	6.062956E-05
3.891025E+03	5.297785E-03	6.048103E-05
3.892763E+03	5.285092E-03	6.033613E-05
3.894502E+03	5.270933E-03	6.017448E-05
3.896240E+03	5.254446E-03	5.998626E-05
3.897978E+03	5.237974E-03	5.979821E-05
3.899717E+03	5.219487E-03	5.958716E-05
3.901455E+03	5.198619E-03	5.934892E-05
3.903193E+03	5.175498E-03	5.908496E-05
3.904931E+03	5.150310E-03	5.879742E-05
3.906670E+03	5.125514E-03	5.851433E-05
3.908408E+03	5.100005E-03	5.822311E-05
3.910146E+03	5.072068E-03	5.790417E-05
3.911884E+03	5.048935E-03	5.764008E-05
3.913623E+03	5.026314E-03	5.738183E-05
3.915361E+03	4.999735E-03	5.707840E-05
3.917099E+03	4.974956E-03	5.679552E-05
3.918837E+03	4.954847E-03	5.656594E-05
3.920576E+03	4.937507E-03	5.636798E-05
3.922314E+03	4.917311E-03	5.613743E-05
3.924053E+03	4.896524E-03	5.590011E-05
3.925790E+03	4.876855E-03	5.567556E-05
3.927529E+03	4.856777E-03	5.544634E-05
3.929267E+03	4.836718E-03	5.521734E-05
3.931005E+03	4.817043E-03	5.499273E-05
3.932744E+03	4.797204E-03	5.476624E-05
3.934482E+03	4.781645E-03	5.458862E-05
3.936221E+03	4.771819E-03	5.447644E-05
3.937958E+03	4.761577E-03	5.435951E-05
3.939697E+03	4.751161E-03	5.424060E-05
3.941435E+03	4.746404E-03	5.418630E-05
3.943174E+03	4.748209E-03	5.420690E-05
3.944912E+03	4.752135E-03	5.425172E-05
3.946650E+03	4.759089E-03	5.433110E-05
3.948388E+03	4.772158E-03	5.448031E-05
3.950127E+03	4.786244E-03	5.464111E-05
3.951865E+03	4.797346E-03	5.476786E-05
3.953603E+03	4.806440E-03	5.487167E-05
3.955341E+03	4.816794E-03	5.498988E-05
3.957080E+03	4.829738E-03	5.513765E-05
3.958818E+03	4.842365E-03	5.528181E-05
3.960556E+03	4.852322E-03	5.539548E-05
3.962294E+03	4.858102E-03	5.546147E-05
3.964033E+03	4.862487E-03	5.551153E-05
3.965771E+03	4.866024E-03	5.555190E-05
3.967509E+03	4.865095E-03	5.554129E-05
3.969248E+03	4.865071E-03	5.554102E-05
3.970986E+03	4.871190E-03	5.561088E-05
3.972725E+03	4.876941E-03	5.567653E-05
3.974463E+03	4.878776E-03	5.569748E-05
3.976201E+03	4.880970E-03	5.572252E-05
3.977939E+03	4.884724E-03	5.576538E-05
3.979678E+03	4.887514E-03	5.579723E-05
3.981415E+03	4.888859E-03	5.581259E-05
3.983154E+03	4.890203E-03	5.582793E-05
3.984892E+03	4.894066E-03	5.587203E-05
3.986631E+03	4.897626E-03	5.591267E-05
3.988368E+03	4.897886E-03	5.591564E-05
3.990107E+03	4.898325E-03	5.592065E-05
3.991845E+03	4.900322E-03	5.594345E-05
3.993584E+03	4.902077E-03	5.596349E-05
3.995322E+03	4.901858E-03	5.596098E-05
3.997060E+03	4.902715E-03	5.597077E-05
3.998798E+03	4.907098E-03	5.602080E-05
4.000537E+03	4.906281E-03	5.601148E-05
4.002275E+03	4.901288E-03	5.595447E-05
4.004013E+03	4.897194E-03	5.590774E-05
4.005751E+03	4.897042E-03	5.590600E-05
4.007490E+03	4.899930E-03	5.593897E-05
4.009229E+03	4.900612E-03	5.594676E-05
4.010966E+03	4.897484E-03	5.591104E-05
4.012705E+03	4.894896E-03	5.588149E-05
4.014443E+03	4.893084E-03	5.586081E-05
4.016182E+03	4.891751E-03	5.584560E-05
4.017919E+03	4.891550E-03	5.584329E-05
4.019658E+03	4.889687E-03	5.582203E-05
4.021396E+03	4.888540E-03	5.580893E-05
4.023135E+03	4.887929E-03	5.580195E-05
4.024873E+03	4.886846E-03	5.578959E-05
4.026611E+03	4.886417E-03	5.578469E-05
4.028349E+03	4.882909E-03	5.574465E-05
4.030088E+03	4.880295E-03	5.571480E-05
4.031826E+03	4.885380E-03	5.577285E-05
4.033564E+03	4.890817E-03	5.583492E-05
4.035302E+03	4.890811E-03	5.583485E-05
4.037041E+03	4.888736E-03	5.581117E-05
4.038778E+03	4.880226E-03	5.571401E-05
4.040517E+03	4.866174E-03	5.555359E-05
4.042255E+03	4.852846E-03	5.540144E-05
4.043994E+03	4.843132E-03	5.529054E-05
4.045733E+03	4.836556E-03	5.521546E-05
4.047470E+03	4.829162E-03	5.513105E-05
4.049209E+03	4.819421E-03	5.501984E-05
4.050947E+03	4.807101E-03	5.487919E-05
