#wls	flux	fluxerr
1.596806E+03	4.701107E-05	4.075512E-07
1.636727E+03	4.720839E-05	4.092618E-07
1.676647E+03	4.747628E-05	4.115841E-07
1.716567E+03	4.781865E-05	4.145522E-07
1.756487E+03	4.823987E-05	4.182038E-07
1.796407E+03	4.877085E-05	4.228069E-07
1.836327E+03	4.939161E-05	4.281884E-07
1.876248E+03	5.013497E-05	4.346327E-07
1.916168E+03	5.099534E-05	4.420914E-07
1.956088E+03	5.200854E-05	4.508750E-07
1.996008E+03	5.318520E-05	4.610757E-07
2.035928E+03	5.452298E-05	4.726731E-07
2.075848E+03	5.606345E-05	4.860278E-07
2.115768E+03	5.782237E-05	5.012762E-07
2.155689E+03	5.981731E-05	5.185708E-07
2.195609E+03	6.206783E-05	5.380811E-07
2.235529E+03	6.462750E-05	5.602714E-07
2.275449E+03	6.752273E-05	5.853707E-07
2.315369E+03	7.076583E-05	6.134858E-07
2.355289E+03	7.442170E-05	6.451794E-07
2.395210E+03	7.852616E-05	6.807619E-07
2.435130E+03	8.313584E-05	7.207242E-07
2.475050E+03	8.829268E-05	7.654299E-07
2.514970E+03	9.409901E-05	8.157663E-07
2.554890E+03	1.005833E-04	8.719801E-07
2.594810E+03	1.078330E-04	9.348295E-07
2.634731E+03	1.159145E-04	1.004890E-06
2.674651E+03	1.249339E-04	1.083080E-06
2.714571E+03	1.349211E-04	1.169661E-06
2.754491E+03	1.459573E-04	1.265337E-06
2.794411E+03	1.580505E-04	1.370176E-06
2.834331E+03	1.711939E-04	1.484119E-06
2.874251E+03	1.853561E-04	1.606893E-06
2.914172E+03	2.004431E-04	1.737686E-06
2.954092E+03	2.162276E-04	1.874526E-06
2.994012E+03	2.325126E-04	2.015704E-06
3.003992E+03	2.366504E-04	2.051575E-06
3.013972E+03	2.407479E-04	2.087097E-06
3.023952E+03	2.448564E-04	2.122715E-06
3.033932E+03	2.489686E-04	2.158363E-06
3.043912E+03	2.530769E-04	2.193979E-06
3.053892E+03	2.571440E-04	2.229238E-06
3.063872E+03	2.611919E-04	2.264330E-06
3.073852E+03	2.652133E-04	2.299192E-06
3.083832E+03	2.692009E-04	2.333762E-06
3.093812E+03	2.731479E-04	2.367979E-06
3.103792E+03	2.770479E-04	2.401789E-06
3.113772E+03	2.808949E-04	2.435139E-06
3.123752E+03	2.847135E-04	2.468244E-06
3.133733E+03	2.884400E-04	2.500549E-06
3.143713E+03	2.921304E-04	2.532542E-06
3.153693E+03	2.957825E-04	2.564203E-06
3.163673E+03	2.993662E-04	2.595271E-06
3.173653E+03	3.028822E-04	2.625752E-06
3.183633E+03	3.063626E-04	2.655924E-06
3.193613E+03	3.098118E-04	2.685826E-06
3.203593E+03	3.132075E-04	2.715264E-06
3.213573E+03	3.166166E-04	2.744818E-06
3.223553E+03	3.199930E-04	2.774089E-06
3.233533E+03	3.234082E-04	2.803696E-06
3.243513E+03	3.268224E-04	2.833294E-06
3.253493E+03	3.303124E-04	2.863549E-06
3.263473E+03	3.338448E-04	2.894173E-06
3.273453E+03	3.375297E-04	2.926118E-06
3.283433E+03	3.413124E-04	2.958910E-06
3.293413E+03	3.452802E-04	2.993308E-06
3.303393E+03	3.494675E-04	3.029609E-06
3.313373E+03	3.538838E-04	3.067895E-06
3.323353E+03	3.585954E-04	3.108740E-06
3.333333E+03	3.636422E-04	3.152492E-06
3.343313E+03	3.690649E-04	3.199503E-06
3.353293E+03	3.749037E-04	3.250120E-06
3.363273E+03	3.811973E-04	3.304681E-06
3.373253E+03	3.880095E-04	3.363738E-06
3.380751E+03	3.535903E-04	3.065350E-06
3.382489E+03	3.675262E-04	3.186163E-06
3.384228E+03	3.786442E-04	3.282547E-06
3.385965E+03	3.861403E-04	3.347533E-06
3.387704E+03	3.954089E-04	3.427884E-06
3.389441E+03	4.076525E-04	3.534027E-06
3.391180E+03	4.179028E-04	3.622889E-06
3.392917E+03	4.250058E-04	3.684466E-06
3.394656E+03	4.341354E-04	3.763612E-06
3.396393E+03	4.413751E-04	3.826375E-06
3.398132E+03	4.477350E-04	3.881511E-06
3.399870E+03	4.546718E-04	3.941647E-06
3.401608E+03	4.637518E-04	4.020363E-06
3.403346E+03	4.755176E-04	4.122363E-06
3.405084E+03	4.834631E-04	4.191245E-06
3.406822E+03	4.894229E-04	4.242911E-06
3.408560E+03	4.952655E-04	4.293563E-06
3.410298E+03	4.982983E-04	4.319854E-06
3.412036E+03	5.020796E-04	4.352635E-06
3.413774E+03	5.046723E-04	4.375112E-06
3.415512E+03	5.066261E-04	4.392049E-06
3.417250E+03	5.085178E-04	4.408449E-06
3.418988E+03	5.124907E-04	4.442891E-06
3.420727E+03	5.161543E-04	4.474651E-06
3.422464E+03	5.173312E-04	4.484854E-06
3.424203E+03	5.169077E-04	4.481183E-06
3.425941E+03	5.131187E-04	4.448335E-06
3.427679E+03	5.077020E-04	4.401377E-06
3.429417E+03	5.015783E-04	4.348289E-06
3.431155E+03	4.928518E-04	4.272637E-06
3.432893E+03	4.849428E-04	4.204072E-06
3.434631E+03	4.799872E-04	4.161111E-06
3.436369E+03	4.745235E-04	4.113745E-06
3.438107E+03	4.697811E-04	4.072632E-06
3.439845E+03	4.659521E-04	4.039438E-06
3.441583E+03	4.594453E-04	3.983029E-06
3.443321E+03	4.511258E-04	3.910905E-06
3.445059E+03	4.447429E-04	3.855571E-06
3.446797E+03	4.411550E-04	3.824466E-06
3.448535E+03	4.342371E-04	3.764494E-06
3.450273E+03	4.261247E-04	3.694166E-06
3.452011E+03	4.180127E-04	3.623841E-06
3.453750E+03	4.063926E-04	3.523104E-06
3.455487E+03	3.925486E-04	3.403087E-06
3.457226E+03	3.768721E-04	3.267184E-06
3.458963E+03	3.677389E-04	3.188007E-06
3.460702E+03	3.642560E-04	3.157812E-06
3.462440E+03	3.619951E-04	3.138212E-06
3.464178E+03	3.610866E-04	3.130336E-06
3.465916E+03	3.560457E-04	3.086635E-06
3.467654E+03	3.546910E-04	3.074891E-06
3.469392E+03	3.542699E-04	3.071241E-06
3.471130E+03	3.506433E-04	3.039801E-06
3.472868E+03	3.521439E-04	3.052810E-06
3.474606E+03	3.546329E-04	3.074388E-06
3.476344E+03	3.552204E-04	3.079481E-06
3.478082E+03	3.598159E-04	3.119320E-06
3.479820E+03	3.713291E-04	3.219130E-06
3.481558E+03	3.829512E-04	3.319885E-06
3.483296E+03	3.918894E-04	3.397372E-06
3.485034E+03	4.023367E-04	3.487942E-06
3.486772E+03	4.117609E-04	3.569642E-06
3.488511E+03	4.170397E-04	3.615405E-06
3.490249E+03	4.223388E-04	3.661344E-06
3.491986E+03	4.287147E-04	3.716618E-06
3.493725E+03	4.367711E-04	3.786461E-06
3.495463E+03	4.491427E-04	3.893713E-06
3.497201E+03	4.659456E-04	4.039381E-06
3.498939E+03	4.842020E-04	4.197649E-06
3.500677E+03	5.019562E-04	4.351565E-06
3.502415E+03	5.162653E-04	4.475613E-06
3.504153E+03	5.281312E-04	4.578481E-06
3.505891E+03	5.408674E-04	4.688894E-06
3.507629E+03	5.533145E-04	4.796800E-06
3.509367E+03	5.612128E-04	4.865273E-06
3.511105E+03	5.666547E-04	4.912450E-06
3.512843E+03	5.700591E-04	4.941963E-06
3.514581E+03	5.707058E-04	4.947569E-06
3.516319E+03	5.689243E-04	4.932125E-06
3.518057E+03	5.687818E-04	4.930890E-06
3.519795E+03	5.680563E-04	4.924600E-06
3.521534E+03	5.681741E-04	4.925621E-06
3.523271E+03	5.659532E-04	4.906368E-06
3.525010E+03	5.608591E-04	4.862206E-06
3.526748E+03	5.547365E-04	4.809128E-06
3.528486E+03	5.493547E-04	4.762472E-06
3.530224E+03	5.459067E-04	4.732580E-06
3.531962E+03	5.399561E-04	4.680993E-06
3.533700E+03	5.284385E-04	4.581145E-06
3.535438E+03	5.165307E-04	4.477914E-06
3.537176E+03	5.054258E-04	4.381643E-06
3.538914E+03	4.935400E-04	4.278602E-06
3.540652E+03	4.811407E-04	4.171110E-06
3.542390E+03	4.728346E-04	4.099103E-06
3.544128E+03	4.666744E-04	4.045699E-06
3.545866E+03	4.575329E-04	3.966449E-06
3.547604E+03	4.467195E-04	3.872706E-06
3.549342E+03	4.389157E-04	3.805052E-06
3.551080E+03	4.329489E-04	3.753325E-06
3.552818E+03	4.249746E-04	3.684194E-06
3.554557E+03	4.171651E-04	3.616492E-06
3.556294E+03	4.125358E-04	3.576360E-06
3.558033E+03	4.084480E-04	3.540922E-06
3.559770E+03	4.042714E-04	3.504713E-06
3.561509E+03	4.033837E-04	3.497018E-06
3.563247E+03	4.035375E-04	3.498351E-06
3.564985E+03	4.031977E-04	3.495406E-06
3.566723E+03	4.039744E-04	3.502139E-06
3.568461E+03	4.043879E-04	3.505723E-06
3.570199E+03	4.047256E-04	3.508652E-06
3.571937E+03	4.046043E-04	3.507600E-06
3.573675E+03	4.067226E-04	3.525964E-06
3.575413E+03	4.101898E-04	3.556022E-06
3.577151E+03	4.129100E-04	3.579603E-06
3.578889E+03	4.153557E-04	3.600805E-06
3.580628E+03	4.183145E-04	3.626457E-06
3.582365E+03	4.216975E-04	3.655784E-06
3.584103E+03	4.269424E-04	3.701253E-06
3.585841E+03	4.322688E-04	3.747429E-06
3.587580E+03	4.356908E-04	3.777095E-06
3.589317E+03	4.396121E-04	3.811090E-06
3.591056E+03	4.460728E-04	3.867098E-06
3.592793E+03	4.560855E-04	3.953901E-06
3.594532E+03	4.683217E-04	4.059979E-06
3.596269E+03	4.818091E-04	4.176904E-06
3.598008E+03	4.971221E-04	4.309656E-06
3.599746E+03	5.099898E-04	4.421209E-06
3.601484E+03	5.204740E-04	4.512098E-06
3.603222E+03	5.287530E-04	4.583871E-06
3.604960E+03	5.369965E-04	4.655335E-06
3.606698E+03	5.428779E-04	4.706322E-06
3.608436E+03	5.458022E-04	4.731674E-06
3.610174E+03	5.464885E-04	4.737623E-06
3.611912E+03	5.468801E-04	4.741018E-06
3.613651E+03	5.460467E-04	4.733793E-06
3.615388E+03	5.446521E-04	4.721703E-06
3.617126E+03	5.459113E-04	4.732619E-06
3.618864E+03	5.456583E-04	4.730427E-06
3.620603E+03	5.454324E-04	4.728467E-06
3.622340E+03	5.476476E-04	4.747672E-06
3.624079E+03	5.525840E-04	4.790467E-06
3.625816E+03	5.590511E-04	4.846531E-06
3.627555E+03	5.666314E-04	4.912247E-06
3.629292E+03	5.742582E-04	4.978365E-06
3.631031E+03	5.807076E-04	5.034276E-06
3.632768E+03	5.876069E-04	5.094087E-06
3.634507E+03	5.933904E-04	5.144226E-06
3.636245E+03	5.965752E-04	5.171835E-06
3.637983E+03	5.991848E-04	5.194458E-06
3.639721E+03	6.040627E-04	5.236746E-06
3.641459E+03	6.095202E-04	5.284058E-06
3.643197E+03	6.158375E-04	5.338824E-06
3.644935E+03	6.250026E-04	5.418278E-06
3.646673E+03	6.325124E-04	5.483382E-06
3.648411E+03	6.395900E-04	5.544739E-06
3.650150E+03	6.491731E-04	5.627817E-06
3.651887E+03	6.584604E-04	5.708331E-06
3.653626E+03	6.672744E-04	5.784741E-06
3.655363E+03	6.734499E-04	5.838278E-06
3.657102E+03	6.764893E-04	5.864627E-06
3.658839E+03	6.774379E-04	5.872850E-06
3.660578E+03	6.802975E-04	5.897641E-06
3.662315E+03	6.834428E-04	5.924908E-06
3.664054E+03	6.848870E-04	5.937429E-06
3.665791E+03	6.855111E-04	5.942839E-06
3.667530E+03	6.863392E-04	5.950018E-06
3.669267E+03	6.883269E-04	5.967249E-06
3.671006E+03	6.918149E-04	5.997488E-06
3.672744E+03	6.952335E-04	6.027125E-06
3.674482E+03	6.997426E-04	6.066215E-06
3.676221E+03	7.033633E-04	6.097603E-06
3.677958E+03	7.029576E-04	6.094086E-06
3.679697E+03	7.013235E-04	6.079920E-06
3.681434E+03	6.983932E-04	6.054516E-06
3.683173E+03	6.943715E-04	6.019651E-06
3.684910E+03	6.903500E-04	5.984788E-06
3.686649E+03	6.868061E-04	5.954065E-06
3.688386E+03	6.844895E-04	5.933982E-06
3.690125E+03	6.787981E-04	5.884642E-06
3.691862E+03	6.714849E-04	5.821242E-06
3.693601E+03	6.614733E-04	5.734450E-06
3.695338E+03	6.485188E-04	5.622145E-06
3.697077E+03	6.358459E-04	5.512280E-06
3.698814E+03	6.264322E-04	5.430671E-06
3.700553E+03	6.172312E-04	5.350906E-06
3.702290E+03	6.054700E-04	5.248945E-06
3.704029E+03	5.937380E-04	5.147238E-06
3.705766E+03	5.824303E-04	5.049209E-06
3.707505E+03	5.738556E-04	4.974874E-06
3.709244E+03	5.678497E-04	4.922807E-06
3.710981E+03	5.616200E-04	4.868801E-06
3.712720E+03	5.561265E-04	4.821176E-06
3.714457E+03	5.484417E-04	4.754555E-06
3.716196E+03	5.416976E-04	4.696089E-06
3.717933E+03	5.336818E-04	4.626599E-06
3.719672E+03	5.253952E-04	4.554760E-06
3.721409E+03	5.177634E-04	4.488598E-06
3.723148E+03	5.127864E-04	4.445452E-06
3.724885E+03	5.109602E-04	4.429620E-06
3.726624E+03	5.097530E-04	4.419155E-06
3.728361E+03	5.083282E-04	4.406802E-06
3.730100E+03	5.065157E-04	4.391090E-06
3.731837E+03	5.081782E-04	4.405502E-06
3.733576E+03	5.147220E-04	4.462232E-06
3.735313E+03	5.243438E-04	4.545645E-06
3.737052E+03	5.361383E-04	4.647894E-06
3.738789E+03	5.518448E-04	4.784057E-06
3.740528E+03	5.731067E-04	4.968381E-06
3.742266E+03	5.959059E-04	5.166032E-06
3.744004E+03	6.203504E-04	5.377946E-06
3.745743E+03	6.484914E-04	5.621906E-06
3.747480E+03	6.767748E-04	5.867101E-06
3.749219E+03	7.015667E-04	6.082027E-06
3.750956E+03	7.262028E-04	6.295603E-06
3.752695E+03	7.483201E-04	6.487342E-06
3.754432E+03	7.688021E-04	6.664905E-06
3.756171E+03	7.875132E-04	6.827115E-06
3.757908E+03	8.047266E-04	6.976342E-06
3.759647E+03	8.221389E-04	7.127293E-06
3.761384E+03	8.354746E-04	7.242902E-06
3.763123E+03	8.458208E-04	7.332596E-06
3.764860E+03	8.567066E-04	7.426967E-06
3.766599E+03	8.654867E-04	7.503083E-06
3.768337E+03	8.726363E-04	7.565065E-06
3.770075E+03	8.801226E-04	7.629965E-06
3.771812E+03	8.888271E-04	7.705426E-06
3.773551E+03	8.992924E-04	7.796152E-06
3.775289E+03	9.101610E-04	7.890374E-06
3.777027E+03	9.201457E-04	7.976934E-06
3.778765E+03	9.269418E-04	8.035850E-06
3.780503E+03	9.321087E-04	8.080643E-06
3.782242E+03	9.355803E-04	8.110739E-06
3.783979E+03	9.336981E-04	8.094422E-06
3.785718E+03	9.272773E-04	8.038759E-06
3.787455E+03	9.205867E-04	7.980756E-06
3.789194E+03	9.122040E-04	7.908085E-06
3.790931E+03	9.040265E-04	7.837192E-06
3.792670E+03	8.982206E-04	7.786860E-06
3.794407E+03	8.931611E-04	7.742998E-06
3.796146E+03	8.872900E-04	7.692100E-06
3.797883E+03	8.825026E-04	7.650597E-06
3.799622E+03	8.797466E-04	7.626705E-06
3.801360E+03	8.748935E-04	7.584632E-06
3.803098E+03	8.682150E-04	7.526735E-06
3.804836E+03	8.603881E-04	7.458882E-06
3.806574E+03	8.520217E-04	7.386352E-06
3.808312E+03	8.445358E-04	7.321455E-06
3.810050E+03	8.402305E-04	7.284132E-06
3.811788E+03	8.370072E-04	7.256188E-06
3.813526E+03	8.327714E-04	7.219467E-06
3.815264E+03	8.302928E-04	7.197979E-06
3.817002E+03	8.324106E-04	7.216339E-06
3.818741E+03	8.374333E-04	7.259882E-06
3.820478E+03	8.442792E-04	7.319230E-06
3.822217E+03	8.526759E-04	7.392024E-06
3.823954E+03	8.633670E-04	7.484707E-06
3.825693E+03	8.734471E-04	7.572093E-06
3.827430E+03	8.825786E-04	7.651256E-06
3.829169E+03	8.922480E-04	7.735082E-06
3.830906E+03	9.019145E-04	7.818883E-06
3.832645E+03	9.096201E-04	7.885684E-06
3.834383E+03	9.176609E-04	7.955391E-06
3.836121E+03	9.276569E-04	8.042048E-06
3.837859E+03	9.371094E-04	8.123994E-06
3.839597E+03	9.443327E-04	8.186615E-06
3.841335E+03	9.531731E-04	8.263254E-06
3.843073E+03	9.636293E-04	8.353901E-06
3.844811E+03	9.740825E-04	8.444521E-06
3.846549E+03	9.848023E-04	8.537454E-06
3.848287E+03	9.987545E-04	8.658408E-06
3.850025E+03	1.012433E-03	8.776992E-06
3.851763E+03	1.023143E-03	8.869838E-06
3.853501E+03	1.031288E-03	8.940452E-06
3.855240E+03	1.038488E-03	9.002862E-06
3.856977E+03	1.046156E-03	9.069345E-06
3.858716E+03	1.049041E-03	9.094352E-06
3.860454E+03	1.046468E-03	9.072050E-06
3.862192E+03	1.037904E-03	8.997799E-06
3.863929E+03	1.023013E-03	8.868706E-06
3.865668E+03	1.005769E-03	8.719214E-06
3.867406E+03	9.855673E-04	8.544085E-06
3.869144E+03	9.602578E-04	8.324672E-06
3.870882E+03	9.338780E-04	8.095980E-06
3.872620E+03	9.094562E-04	7.884262E-06
3.874358E+03	8.865892E-04	7.686024E-06
3.876096E+03	8.643337E-04	7.493087E-06
3.877834E+03	8.434294E-04	7.311862E-06
3.879572E+03	8.242797E-04	7.145850E-06
3.881310E+03	8.080931E-04	7.005525E-06
3.883048E+03	7.928524E-04	6.873400E-06
3.884786E+03	7.806404E-04	6.767532E-06
3.886524E+03	7.728010E-04	6.699570E-06
3.888262E+03	7.640895E-04	6.624049E-06
3.890000E+03	7.540368E-04	6.536900E-06
3.891739E+03	7.430461E-04	6.441619E-06
3.893477E+03	7.364247E-04	6.384216E-06
3.895215E+03	7.320884E-04	6.346624E-06
3.896953E+03	7.256716E-04	6.290996E-06
3.898691E+03	7.191896E-04	6.234802E-06
3.900429E+03	7.131120E-04	6.182114E-06
3.902167E+03	7.041501E-04	6.104422E-06
3.903905E+03	6.944524E-04	6.020350E-06
3.905643E+03	6.840865E-04	5.930486E-06
3.907381E+03	6.729854E-04	5.834249E-06
3.909119E+03	6.616058E-04	5.735596E-06
3.910857E+03	6.491831E-04	5.627902E-06
3.912595E+03	6.384539E-04	5.534888E-06
3.914333E+03	6.300812E-04	5.462303E-06
3.916071E+03	6.239166E-04	5.408861E-06
3.917809E+03	6.230627E-04	5.401458E-06
3.919547E+03	6.262238E-04	5.428862E-06
3.921285E+03	6.323592E-04	5.482052E-06
3.923023E+03	6.439404E-04	5.582451E-06
3.924761E+03	6.558933E-04	5.686073E-06
3.926499E+03	6.652170E-04	5.766902E-06
3.928238E+03	6.722942E-04	5.828256E-06
3.929976E+03	6.805012E-04	5.899404E-06
3.931714E+03	6.893754E-04	5.976336E-06
3.933452E+03	6.960376E-04	6.034093E-06
3.935190E+03	7.036352E-04	6.099957E-06
3.936928E+03	7.151123E-04	6.199455E-06
3.938666E+03	7.292628E-04	6.322128E-06
3.940404E+03	7.454164E-04	6.462167E-06
3.942142E+03	7.653115E-04	6.634642E-06
3.943880E+03	7.878095E-04	6.829682E-06
3.945618E+03	8.101010E-04	7.022932E-06
3.947356E+03	8.293096E-04	7.189455E-06
3.949094E+03	8.473091E-04	7.345496E-06
3.950832E+03	8.644345E-04	7.493959E-06
3.952570E+03	8.800175E-04	7.629052E-06
3.954308E+03	8.953963E-04	7.762374E-06
3.956047E+03	9.105029E-04	7.893335E-06
3.957784E+03	9.266074E-04	8.032949E-06
3.959522E+03	9.451117E-04	8.193367E-06
3.961260E+03	9.626758E-04	8.345633E-06
3.962999E+03	9.777647E-04	8.476442E-06
3.964737E+03	9.929153E-04	8.607785E-06
3.966475E+03	1.008863E-03	8.746042E-06
3.968213E+03	1.026075E-03	8.895251E-06
3.969951E+03	1.041946E-03	9.032846E-06
3.971689E+03	1.054344E-03	9.140320E-06
3.973427E+03	1.064068E-03	9.224623E-06
3.975165E+03	1.069387E-03	9.270734E-06
3.976903E+03	1.071636E-03	9.290227E-06
3.978641E+03	1.072283E-03	9.295836E-06
3.980379E+03	1.071529E-03	9.289308E-06
3.982117E+03	1.070710E-03	9.282203E-06
3.983855E+03	1.074024E-03	9.310937E-06
3.985593E+03	1.080671E-03	9.368554E-06
3.987331E+03	1.088914E-03	9.440022E-06
3.989070E+03	1.099689E-03	9.533428E-06
3.990807E+03	1.111592E-03	9.636621E-06
3.992546E+03	1.123892E-03	9.743253E-06
3.994283E+03	1.135857E-03	9.846973E-06
3.996022E+03	1.148750E-03	9.958745E-06
3.997759E+03	1.160707E-03	1.006240E-05
3.999498E+03	1.168865E-03	1.013313E-05
4.001236E+03	1.172961E-03	1.016864E-05
4.002974E+03	1.173395E-03	1.017240E-05
4.004712E+03	1.169768E-03	1.014096E-05
4.006450E+03	1.161751E-03	1.007145E-05
4.008188E+03	1.150409E-03	9.973132E-06
4.009926E+03	1.138073E-03	9.866186E-06
4.011664E+03	1.124410E-03	9.747742E-06
4.013402E+03	1.112746E-03	9.646624E-06
4.015140E+03	1.101020E-03	9.544966E-06
4.016878E+03	1.087302E-03	9.426040E-06
4.018616E+03	1.075450E-03	9.323291E-06
4.020354E+03	1.068320E-03	9.261480E-06
4.022093E+03	1.064316E-03	9.226773E-06
4.023830E+03	1.062706E-03	9.212811E-06
4.025569E+03	1.063089E-03	9.216136E-06
4.027306E+03	1.063606E-03	9.220617E-06
4.029045E+03	1.066115E-03	9.242371E-06
4.030782E+03	1.071746E-03	9.291182E-06
4.032521E+03	1.079035E-03	9.354372E-06
4.034258E+03	1.086587E-03	9.419846E-06
4.035997E+03	1.093940E-03	9.483587E-06
4.037735E+03	1.101223E-03	9.546725E-06
4.039473E+03	1.112620E-03	9.645530E-06
4.041211E+03	1.126270E-03	9.763864E-06
4.042949E+03	1.140912E-03	9.890796E-06
4.044687E+03	1.156213E-03	1.002345E-05
4.046425E+03	1.170649E-03	1.014859E-05
4.048164E+03	1.184483E-03	1.026853E-05
4.049901E+03	1.196258E-03	1.037061E-05
4.051639E+03	1.205843E-03	1.045369E-05
4.053377E+03	1.214960E-03	1.053274E-05
4.055116E+03	1.222087E-03	1.059452E-05
4.056853E+03	1.227953E-03	1.064538E-05
4.058592E+03	1.232890E-03	1.068818E-05
4.060329E+03	1.238224E-03	1.073441E-05
4.062068E+03	1.244682E-03	1.079040E-05
4.063805E+03	1.249881E-03	1.083547E-05
4.065544E+03	1.254416E-03	1.087478E-05
4.067281E+03	1.259877E-03	1.092213E-05
4.069020E+03	1.265139E-03	1.096774E-05
4.070757E+03	1.271591E-03	1.102368E-05
4.072496E+03	1.280094E-03	1.109739E-05
4.074234E+03	1.285087E-03	1.114068E-05
4.075972E+03	1.287961E-03	1.116560E-05
4.077710E+03	1.290769E-03	1.118994E-05
4.079448E+03	1.292319E-03	1.120337E-05
4.081187E+03	1.292877E-03	1.120821E-05
4.082924E+03	1.295220E-03	1.122853E-05
4.084663E+03	1.301797E-03	1.128554E-05
4.086400E+03	1.311414E-03	1.136892E-05
4.088139E+03	1.321690E-03	1.145800E-05
4.089876E+03	1.330311E-03	1.153274E-05
4.091615E+03	1.339460E-03	1.161205E-05
4.093352E+03	1.348804E-03	1.169305E-05
4.095091E+03	1.354511E-03	1.174253E-05
4.096828E+03	1.356782E-03	1.176222E-05
4.098567E+03	1.358854E-03	1.178018E-05
4.100304E+03	1.360068E-03	1.179071E-05
4.102043E+03	1.358375E-03	1.177603E-05
4.103780E+03	1.354041E-03	1.173846E-05
4.105519E+03	1.345880E-03	1.166770E-05
4.107256E+03	1.336201E-03	1.158380E-05
4.108995E+03	1.327120E-03	1.150507E-05
4.110733E+03	1.313552E-03	1.138745E-05
4.112471E+03	1.295831E-03	1.123382E-05
4.114210E+03	1.277652E-03	1.107623E-05
4.115947E+03	1.259149E-03	1.091582E-05
4.117686E+03	1.239793E-03	1.074802E-05
4.119423E+03	1.218925E-03	1.056711E-05
4.121162E+03	1.198524E-03	1.039025E-05
4.122899E+03	1.179448E-03	1.022487E-05
4.124638E+03	1.162355E-03	1.007669E-05
4.126375E+03	1.148498E-03	9.956561E-06
4.128114E+03	1.138008E-03	9.865617E-06
4.129851E+03	1.128508E-03	9.783267E-06
4.131590E+03	1.120990E-03	9.718087E-06
4.133327E+03	1.115252E-03	9.668349E-06
4.135066E+03	1.109847E-03	9.621489E-06
4.136803E+03	1.105366E-03	9.582637E-06
4.138542E+03	1.100753E-03	9.542653E-06
4.140279E+03	1.095221E-03	9.494692E-06
