#wls	flux	fluxerr
1.596806E+03	2.928068E-05	1.589395E-06
1.636727E+03	2.957454E-05	1.589669E-06
1.676647E+03	2.991049E-05	1.591541E-06
1.716567E+03	3.030327E-05	1.595703E-06
1.756487E+03	3.072945E-05	1.600825E-06
1.796407E+03	3.121714E-05	1.608279E-06
1.836327E+03	3.176922E-05	1.618089E-06
1.876248E+03	3.237564E-05	1.629612E-06
1.916168E+03	3.305289E-05	1.643547E-06
1.956088E+03	3.381830E-05	1.660591E-06
1.996008E+03	3.464915E-05	1.679450E-06
2.035928E+03	3.557720E-05	1.701486E-06
2.075848E+03	3.660788E-05	1.726736E-06
2.115768E+03	3.774710E-05	1.755235E-06
2.155689E+03	3.898680E-05	1.786356E-06
2.195609E+03	4.036238E-05	1.821450E-06
2.235529E+03	4.185196E-05	1.859216E-06
2.275449E+03	4.350770E-05	1.901646E-06
2.315369E+03	4.530813E-05	1.947408E-06
2.355289E+03	4.726115E-05	1.996465E-06
2.395210E+03	4.939054E-05	2.049408E-06
2.435130E+03	5.170469E-05	2.106123E-06
2.475050E+03	5.421133E-05	2.166437E-06
2.514970E+03	5.691716E-05	2.230103E-06
2.554890E+03	5.984464E-05	2.297456E-06
2.594810E+03	6.299782E-05	2.368062E-06
2.634731E+03	6.639600E-05	2.442030E-06
2.674651E+03	7.003788E-05	2.518666E-06
2.714571E+03	7.393672E-05	2.597793E-06
2.754491E+03	7.808284E-05	2.678409E-06
2.794411E+03	8.250073E-05	2.760698E-06
2.834331E+03	8.717164E-05	2.843366E-06
2.874251E+03	9.209268E-05	2.925709E-06
2.914172E+03	9.725887E-05	3.006996E-06
2.954092E+03	1.026874E-04	3.087222E-06
2.994012E+03	1.083598E-04	3.165321E-06
3.003992E+03	1.098161E-04	3.184469E-06
3.013972E+03	1.112899E-04	3.203517E-06
3.023952E+03	1.128031E-04	3.223084E-06
3.033932E+03	1.143125E-04	3.241924E-06
3.043912E+03	1.158621E-04	3.261282E-06
3.053892E+03	1.174088E-04	3.279937E-06
3.063872E+03	1.189968E-04	3.299120E-06
3.073852E+03	1.206051E-04	3.318235E-06
3.083832E+03	1.222349E-04	3.337304E-06
3.093812E+03	1.239091E-04	3.356944E-06
3.103792E+03	1.256072E-04	3.376582E-06
3.113772E+03	1.273307E-04	3.396251E-06
3.123752E+03	1.291035E-04	3.416576E-06
3.133733E+03	1.309054E-04	3.437004E-06
3.143713E+03	1.327607E-04	3.458160E-06
3.153693E+03	1.346498E-04	3.479515E-06
3.163673E+03	1.365975E-04	3.501694E-06
3.173653E+03	1.385845E-04	3.524181E-06
3.183633E+03	1.406362E-04	3.547603E-06
3.193613E+03	1.427562E-04	3.572026E-06
3.203593E+03	1.449255E-04	3.596948E-06
3.213573E+03	1.471705E-04	3.623007E-06
3.223553E+03	1.495180E-04	3.650823E-06
3.233533E+03	1.519269E-04	3.679358E-06
3.243513E+03	1.544242E-04	3.709242E-06
3.253493E+03	1.570145E-04	3.740549E-06
3.263473E+03	1.597024E-04	3.773357E-06
3.273453E+03	1.624924E-04	3.807732E-06
3.283433E+03	1.654124E-04	3.844285E-06
3.293413E+03	1.684437E-04	3.882537E-06
3.303393E+03	1.715903E-04	3.922544E-06
3.313373E+03	1.748798E-04	3.964888E-06
3.323353E+03	1.782920E-04	4.009070E-06
3.333333E+03	1.818534E-04	4.055643E-06
3.343313E+03	1.855663E-04	4.104609E-06
3.353293E+03	1.894078E-04	4.155419E-06
3.363273E+03	1.934259E-04	4.209088E-06
3.373253E+03	1.975708E-04	4.264488E-06
3.383234E+03	2.018632E-04	4.322040E-06
3.393214E+03	2.063221E-04	4.382119E-06
3.403194E+03	2.109154E-04	4.444010E-06
3.413174E+03	2.156321E-04	4.507470E-06
3.423154E+03	2.204828E-04	4.572714E-06
3.433134E+03	2.254247E-04	4.638856E-06
3.443114E+03	2.304611E-04	4.705976E-06
3.453094E+03	2.355655E-04	4.773562E-06
3.463074E+03	2.406810E-04	4.840504E-06
3.473054E+03	2.458226E-04	4.907170E-06
3.483034E+03	2.509239E-04	4.972302E-06
3.493014E+03	2.559655E-04	5.035613E-06
3.502994E+03	2.608735E-04	5.095760E-06
3.512974E+03	2.656244E-04	5.152421E-06
3.522954E+03	2.701448E-04	5.204321E-06
3.532934E+03	2.744197E-04	5.251348E-06
3.542914E+03	2.784472E-04	5.293632E-06
3.552894E+03	2.821938E-04	5.330708E-06
3.562874E+03	2.856831E-04	5.363193E-06
3.572854E+03	2.890050E-04	5.392930E-06
3.582834E+03	2.922457E-04	5.421640E-06
3.592814E+03	2.955805E-04	5.452653E-06
3.602794E+03	2.988936E-04	5.483889E-06
3.612774E+03	3.021144E-04	5.514137E-06
3.622754E+03	3.051370E-04	5.541571E-06
3.632735E+03	3.079436E-04	5.565991E-06
3.642715E+03	3.104994E-04	5.586893E-06
3.652695E+03	3.128420E-04	5.605072E-06
3.662675E+03	3.150006E-04	5.621137E-06
3.672655E+03	3.170136E-04	5.635822E-06
3.682635E+03	3.189467E-04	5.650318E-06
3.692615E+03	3.208197E-04	5.664989E-06
3.702595E+03	3.226738E-04	5.680565E-06
3.712575E+03	3.245898E-04	5.698462E-06
3.722555E+03	3.265551E-04	5.718443E-06
3.732535E+03	3.286390E-04	5.741705E-06
3.742515E+03	3.308195E-04	5.767840E-06
3.752495E+03	3.331544E-04	5.797833E-06
3.762475E+03	3.356537E-04	5.831835E-06
3.772455E+03	3.383236E-04	5.869933E-06
3.782435E+03	3.411476E-04	5.911818E-06
3.792415E+03	3.441665E-04	5.958179E-06
3.802395E+03	3.473600E-04	6.008647E-06
3.812375E+03	3.507274E-04	6.063195E-06
3.822355E+03	3.542882E-04	6.122147E-06
3.832335E+03	3.580273E-04	6.185232E-06
3.842315E+03	3.619934E-04	6.253277E-06
3.852295E+03	3.661712E-04	6.326016E-06
3.862275E+03	3.706340E-04	6.404705E-06
3.872255E+03	3.754354E-04	6.490270E-06
3.882236E+03	3.806129E-04	6.583360E-06
3.892216E+03	3.863042E-04	6.686368E-06
3.902196E+03	3.925538E-04	6.800077E-06
3.912176E+03	3.994440E-04	6.925938E-06
3.922156E+03	4.070204E-04	7.064777E-06
3.932136E+03	4.153252E-04	7.217365E-06
3.942116E+03	4.243409E-04	7.383451E-06
3.952096E+03	4.340436E-04	7.562668E-06
3.962076E+03	4.444021E-04	7.754532E-06
3.972056E+03	4.553423E-04	7.957803E-06
3.982036E+03	4.667475E-04	8.170495E-06
3.992016E+03	4.785131E-04	8.390818E-06
4.001996E+03	4.904959E-04	8.616296E-06
4.011976E+03	5.025368E-04	8.844149E-06
4.021956E+03	5.144687E-04	9.071439E-06
4.031936E+03	5.261245E-04	9.295198E-06
4.041916E+03	5.373401E-04	9.512489E-06
4.051896E+03	5.479571E-04	9.720441E-06
4.061876E+03	5.578451E-04	9.916660E-06
4.071856E+03	5.668379E-04	1.009809E-05
4.081836E+03	5.748686E-04	1.026341E-05
4.091816E+03	5.818391E-04	1.041073E-05
4.101796E+03	5.877653E-04	1.054020E-05
4.111776E+03	5.926448E-04	1.065161E-05
4.121756E+03	5.965794E-04	1.074665E-05
4.131737E+03	5.996949E-04	1.082744E-05
4.141717E+03	6.021238E-04	1.089625E-05
4.151697E+03	6.040258E-04	1.095588E-05
4.161677E+03	6.055786E-04	1.100945E-05
4.171657E+03	6.069095E-04	1.105921E-05
4.181637E+03	6.082003E-04	1.110844E-05
4.191617E+03	6.095444E-04	1.115882E-05
4.201597E+03	6.110936E-04	1.121311E-05
4.211577E+03	6.129332E-04	1.127289E-05
4.221557E+03	6.151280E-04	1.133938E-05
4.231537E+03	6.177372E-04	1.141369E-05
4.241517E+03	6.207852E-04	1.149631E-05
4.251497E+03	6.243058E-04	1.158791E-05
4.261477E+03	6.282872E-04	1.168832E-05
4.271457E+03	6.327009E-04	1.179704E-05
4.281437E+03	6.375096E-04	1.191343E-05
4.291417E+03	6.426341E-04	1.203603E-05
4.301397E+03	6.479595E-04	1.216272E-05
4.311377E+03	6.533468E-04	1.229089E-05
4.321357E+03	6.586041E-04	1.241693E-05
4.331337E+03	6.635198E-04	1.253681E-05
4.341317E+03	6.678621E-04	1.264610E-05
4.351297E+03	6.714796E-04	1.274184E-05
4.361277E+03	6.743112E-04	1.282278E-05
4.371257E+03	6.764377E-04	1.289036E-05
4.381238E+03	6.780977E-04	1.294905E-05
4.391218E+03	6.792245E-04	1.299752E-05
4.401198E+03	6.795547E-04	1.303066E-05
4.411178E+03	6.789302E-04	1.304533E-05
4.421158E+03	6.773827E-04	1.304203E-05
4.431138E+03	6.750277E-04	1.302290E-05
4.441118E+03	6.720824E-04	1.299204E-05
4.451098E+03	6.688168E-04	1.295463E-05
4.461078E+03	6.655599E-04	1.291701E-05
4.471058E+03	6.626486E-04	1.288575E-05
4.481038E+03	6.604237E-04	1.286754E-05
4.491018E+03	6.592193E-04	1.286897E-05
4.500998E+03	6.593647E-04	1.289658E-05
4.510978E+03	6.611562E-04	1.295631E-05
4.520958E+03	6.648714E-04	1.305378E-05
4.530938E+03	6.706957E-04	1.319281E-05
4.540918E+03	6.787491E-04	1.337600E-05
4.550898E+03	6.890645E-04	1.360419E-05
4.560878E+03	7.015925E-04	1.387664E-05
4.570858E+03	7.161584E-04	1.419009E-05
4.580838E+03	7.325458E-04	1.454043E-05
4.590818E+03	7.504394E-04	1.492153E-05
4.600798E+03	7.695560E-04	1.532788E-05
4.610778E+03	7.895420E-04	1.575250E-05
4.620758E+03	8.100558E-04	1.618861E-05
4.630739E+03	8.307660E-04	1.662958E-05
4.640719E+03	8.513255E-04	1.706843E-05
4.650699E+03	8.714162E-04	1.749870E-05
4.660679E+03	8.907304E-04	1.791412E-05
4.670659E+03	9.089890E-04	1.830895E-05
4.680639E+03	9.259570E-04	1.867830E-05
4.690619E+03	9.414812E-04	1.901894E-05
4.700599E+03	9.554908E-04	1.932925E-05
4.710579E+03	9.680110E-04	1.960958E-05
4.720559E+03	9.791246E-04	1.986146E-05
4.730539E+03	9.888197E-04	2.008450E-05
4.740519E+03	9.971067E-04	2.027877E-05
4.750499E+03	1.004114E-03	2.044675E-05
4.760479E+03	1.009975E-03	2.059107E-05
4.770459E+03	1.014901E-03	2.071592E-05
4.780439E+03	1.019123E-03	2.082594E-05
4.790419E+03	1.022889E-03	2.092615E-05
4.800399E+03	1.026499E-03	2.102264E-05
4.810379E+03	1.030229E-03	2.112106E-05
4.820359E+03	1.034373E-03	2.122742E-05
4.830339E+03	1.039213E-03	2.134755E-05
4.840319E+03	1.044977E-03	2.148612E-05
4.850299E+03	1.051826E-03	2.164651E-05
4.860279E+03	1.059830E-03	2.183020E-05
4.870259E+03	1.068944E-03	2.203630E-05
4.880240E+03	1.079037E-03	2.226213E-05
4.890220E+03	1.089854E-03	2.250248E-05
4.900200E+03	1.101055E-03	2.275032E-05
4.910180E+03	1.112217E-03	2.299690E-05
4.920160E+03	1.122886E-03	2.323280E-05
4.930140E+03	1.132615E-03	2.344873E-05
4.940120E+03	1.140980E-03	2.363587E-05
4.950100E+03	1.147690E-03	2.378810E-05
4.960080E+03	1.152661E-03	2.390363E-05
4.970060E+03	1.155914E-03	2.398284E-05
4.980040E+03	1.157481E-03	2.402636E-05
4.990020E+03	1.157429E-03	2.403550E-05
5.000000E+03	1.155714E-03	2.400936E-05
5.009980E+03	1.152267E-03	2.394647E-05
5.019960E+03	1.146996E-03	2.384488E-05
5.029940E+03	1.139777E-03	2.370203E-05
5.039920E+03	1.130524E-03	2.351611E-05
5.049900E+03	1.119250E-03	2.328739E-05
5.059880E+03	1.106085E-03	2.301858E-05
5.069860E+03	1.091235E-03	2.271402E-05
5.079840E+03	1.074993E-03	2.237979E-05
5.089820E+03	1.057746E-03	2.202398E-05
5.099800E+03	1.039926E-03	2.165567E-05
5.109780E+03	1.021974E-03	2.128405E-05
5.119760E+03	1.004369E-03	2.091918E-05
5.129741E+03	9.875511E-04	2.057025E-05
5.139721E+03	9.719478E-04	2.024621E-05
5.149701E+03	9.579598E-04	1.995547E-05
5.159681E+03	9.458820E-04	1.970422E-05
5.169661E+03	9.359449E-04	1.949729E-05
5.179641E+03	9.282481E-04	1.933681E-05
5.189621E+03	9.228358E-04	1.922372E-05
5.199601E+03	9.196429E-04	1.915670E-05
5.209581E+03	9.185415E-04	1.913312E-05
5.219561E+03	9.193924E-04	1.915011E-05
5.229541E+03	9.220524E-04	1.920471E-05
5.239521E+03	9.263530E-04	1.929344E-05
5.249501E+03	9.321548E-04	1.941344E-05
5.259481E+03	9.393001E-04	1.956144E-05
5.269461E+03	9.475988E-04	1.973354E-05
5.279441E+03	9.568717E-04	1.992602E-05
5.289421E+03	9.669225E-04	2.013485E-05
5.299401E+03	9.775596E-04	2.035609E-05
5.309381E+03	9.885683E-04	2.058532E-05
5.319361E+03	9.997652E-04	2.081875E-05
5.329341E+03	1.010950E-03	2.105230E-05
5.339321E+03	1.021922E-03	2.128181E-05
5.349301E+03	1.032518E-03	2.150397E-05
5.359281E+03	1.042612E-03	2.171621E-05
5.369261E+03	1.052127E-03	2.191698E-05
5.379242E+03	1.061052E-03	2.210612E-05
5.389222E+03	1.069465E-03	2.228531E-05
5.399202E+03	1.077390E-03	2.245510E-05
5.409182E+03	1.084892E-03	2.261694E-05
5.419162E+03	1.091961E-03	2.277067E-05
5.429142E+03	1.098632E-03	2.291707E-05
5.439122E+03	1.104938E-03	2.305693E-05
5.449102E+03	1.110984E-03	2.319244E-05
5.459082E+03	1.117054E-03	2.332966E-05
5.469062E+03	1.123607E-03	2.347824E-05
5.479042E+03	1.131241E-03	2.365075E-05
5.489022E+03	1.140358E-03	2.385574E-05
5.499002E+03	1.150813E-03	2.409030E-05
5.508982E+03	1.162277E-03	2.434762E-05
5.518962E+03	1.174252E-03	2.461732E-05
5.528942E+03	1.186118E-03	2.488644E-05
5.538922E+03	1.197222E-03	2.514122E-05
5.548902E+03	1.206909E-03	2.536792E-05
5.558882E+03	1.214664E-03	2.555559E-05
5.568862E+03	1.220147E-03	2.569692E-05
5.578842E+03	1.223351E-03	2.579165E-05
5.588822E+03	1.224654E-03	2.584754E-05
5.598802E+03	1.224691E-03	2.587785E-05
5.608782E+03	1.224219E-03	2.589851E-05
5.618762E+03	1.223906E-03	2.592355E-05
5.628743E+03	1.224310E-03	2.596482E-05
5.638723E+03	1.225847E-03	2.603115E-05
5.648703E+03	1.228658E-03	2.612564E-05
5.658683E+03	1.232702E-03	2.624747E-05
5.668663E+03	1.237697E-03	2.639073E-05
5.678643E+03	1.243222E-03	2.654651E-05
5.688623E+03	1.248697E-03	2.670240E-05
5.698603E+03	1.253623E-03	2.684773E-05
5.708583E+03	1.257566E-03	2.697311E-05
5.718563E+03	1.260256E-03	2.707261E-05
5.728543E+03	1.261524E-03	2.714246E-05
5.738523E+03	1.261323E-03	2.718149E-05
5.748503E+03	1.259739E-03	2.719137E-05
5.758483E+03	1.256897E-03	2.717463E-05
5.768463E+03	1.253022E-03	2.713599E-05
5.778443E+03	1.248354E-03	2.708050E-05
5.788423E+03	1.243161E-03	2.701389E-05
5.798403E+03	1.237713E-03	2.694194E-05
5.808383E+03	1.232244E-03	2.686970E-05
5.818363E+03	1.226994E-03	2.680238E-05
5.828343E+03	1.222180E-03	2.674473E-05
5.838323E+03	1.217949E-03	2.670003E-05
5.848303E+03	1.214362E-03	2.666963E-05
5.858283E+03	1.211434E-03	2.665395E-05
5.868263E+03	1.209057E-03	2.665064E-05
5.878244E+03	1.207080E-03	2.665643E-05
5.888224E+03	1.205290E-03	2.666666E-05
5.898204E+03	1.203464E-03	2.667640E-05
5.908184E+03	1.201346E-03	2.667993E-05
5.918164E+03	1.198694E-03	2.667183E-05
5.928144E+03	1.195329E-03	2.664802E-05
5.938124E+03	1.191233E-03	2.660801E-05
5.948104E+03	1.186485E-03	2.655344E-05
5.958084E+03	1.181300E-03	2.648909E-05
5.968064E+03	1.175864E-03	2.641902E-05
5.978044E+03	1.170261E-03	2.634510E-05
5.988024E+03	1.164531E-03	2.626821E-05
5.998004E+03	1.158665E-03	2.618812E-05
6.007984E+03	1.152624E-03	2.610390E-05
6.017964E+03	1.146409E-03	2.601558E-05
6.027944E+03	1.140098E-03	2.592489E-05
6.037924E+03	1.133813E-03	2.583458E-05
6.047904E+03	1.127751E-03	2.574913E-05
6.057884E+03	1.122055E-03	2.567191E-05
6.067864E+03	1.116865E-03	2.560610E-05
6.077844E+03	1.112212E-03	2.555255E-05
6.087824E+03	1.108155E-03	2.551265E-05
6.097804E+03	1.104683E-03	2.548625E-05
6.107784E+03	1.101781E-03	2.547310E-05
6.117764E+03	1.099351E-03	2.547099E-05
6.127745E+03	1.097224E-03	2.547608E-05
6.137725E+03	1.095155E-03	2.548273E-05
6.147705E+03	1.092861E-03	2.548436E-05
6.157685E+03	1.090031E-03	2.547360E-05
6.167665E+03	1.086407E-03	2.544430E-05
6.177645E+03	1.081762E-03	2.539099E-05
6.187625E+03	1.076148E-03	2.531466E-05
6.197605E+03	1.069886E-03	2.522271E-05
6.207585E+03	1.063263E-03	2.512178E-05
6.217565E+03	1.056547E-03	2.501812E-05
6.227545E+03	1.049886E-03	2.491520E-05
6.237525E+03	1.043409E-03	2.481603E-05
6.247505E+03	1.037160E-03	2.472168E-05
6.257485E+03	1.031171E-03	2.463288E-05
6.267465E+03	1.025435E-03	2.454953E-05
6.277445E+03	1.019977E-03	2.447222E-05
6.287425E+03	1.014792E-03	2.440079E-05
6.297405E+03	1.009881E-03	2.433536E-05
6.307385E+03	1.005270E-03	2.427651E-05
6.317365E+03	1.000935E-03	2.422371E-05
6.327345E+03	9.968225E-04	2.417569E-05
6.337325E+03	9.928858E-04	2.413129E-05
6.347305E+03	9.890147E-04	2.408786E-05
6.357285E+03	9.851592E-04	2.404415E-05
6.367265E+03	9.813160E-04	2.400007E-05
6.377246E+03	9.775481E-04	2.395714E-05
6.387226E+03	9.739549E-04	2.391780E-05
6.397206E+03	9.706652E-04	2.388522E-05
6.407186E+03	9.678502E-04	2.386365E-05
6.417166E+03	9.656229E-04	2.385593E-05
6.427146E+03	9.640829E-04	2.386459E-05
6.437126E+03	9.632419E-04	2.389000E-05
6.447106E+03	9.631128E-04	2.393257E-05
6.457086E+03	9.636673E-04	2.399166E-05
6.467066E+03	9.648325E-04	2.406553E-05
6.477046E+03	9.665061E-04	2.415169E-05
6.487026E+03	9.685673E-04	2.424716E-05
6.497006E+03	9.708498E-04	2.434781E-05
6.506986E+03	9.731472E-04	2.444844E-05
6.516966E+03	9.752365E-04	2.454344E-05
6.526946E+03	9.768474E-04	2.462594E-05
6.536926E+03	9.777950E-04	2.469118E-05
6.546906E+03	9.778633E-04	2.473361E-05
6.556886E+03	9.768989E-04	2.474920E-05
6.566866E+03	9.747689E-04	2.473446E-05
6.576846E+03	9.714494E-04	2.468862E-05
6.586826E+03	9.669928E-04	2.461287E-05
6.596806E+03	9.615427E-04	2.451074E-05
6.606786E+03	9.553430E-04	2.438833E-05
6.616766E+03	9.487239E-04	2.425402E-05
6.626747E+03	9.419538E-04	2.411462E-05
6.636727E+03	9.352739E-04	2.397633E-05
6.646707E+03	9.288292E-04	2.384286E-05
6.656687E+03	9.227023E-04	2.371639E-05
6.666667E+03	9.169133E-04	2.359746E-05
6.676647E+03	9.114014E-04	2.348456E-05
6.686627E+03	9.060851E-04	2.337561E-05
6.696607E+03	9.008664E-04	2.326811E-05
6.706587E+03	8.956428E-04	2.315943E-05
6.716567E+03	8.903811E-04	2.304871E-05
6.726547E+03	8.850544E-04	2.293527E-05
6.736527E+03	8.797071E-04	2.282027E-05
6.746507E+03	8.743760E-04	2.270468E-05
6.756487E+03	8.691163E-04	2.258993E-05
6.766467E+03	8.639600E-04	2.247689E-05
6.776447E+03	8.589024E-04	2.236545E-05
6.786427E+03	8.539204E-04	2.225504E-05
6.796407E+03	8.489787E-04	2.214475E-05
6.806387E+03	8.440012E-04	2.203261E-05
6.816367E+03	8.389681E-04	2.191813E-05
6.826347E+03	8.338087E-04	2.179946E-05
6.836327E+03	8.285230E-04	2.167662E-05
6.846307E+03	8.231348E-04	2.155024E-05
6.856287E+03	8.177083E-04	2.142202E-05
6.866267E+03	8.122870E-04	2.129312E-05
6.876248E+03	8.069422E-04	2.116542E-05
6.886228E+03	8.017539E-04	2.104106E-05
6.896208E+03	7.967348E-04	2.092039E-05
6.906188E+03	7.918981E-04	2.080379E-05
6.916168E+03	7.872292E-04	2.069090E-05
6.926148E+03	7.827152E-04	2.058142E-05
6.936128E+03	7.783767E-04	2.047590E-05
6.946108E+03	7.742509E-04	2.037536E-05
6.956088E+03	7.703816E-04	2.028098E-05
6.966068E+03	7.667796E-04	2.019306E-05
6.976048E+03	7.634472E-04	2.011171E-05
6.986028E+03	7.603685E-04	2.003652E-05
6.996008E+03	7.575098E-04	1.996664E-05
7.005988E+03	7.548249E-04	1.990087E-05
7.015968E+03	7.522588E-04	1.983780E-05
7.025948E+03	7.497499E-04	1.977581E-05
7.035928E+03	7.472723E-04	1.971424E-05
7.045908E+03	7.448163E-04	1.965287E-05
7.055888E+03	7.424338E-04	1.959308E-05
7.065868E+03	7.401807E-04	1.953638E-05
7.075848E+03	7.381233E-04	1.948453E-05
7.085828E+03	7.362666E-04	1.943771E-05
7.095808E+03	7.346272E-04	1.939636E-05
7.105788E+03	7.331725E-04	1.935966E-05
7.115768E+03	7.318720E-04	1.932682E-05
7.125749E+03	7.306916E-04	1.929697E-05
7.135729E+03	7.295937E-04	1.926913E-05
7.145709E+03	7.285705E-04	1.924315E-05
7.155689E+03	7.276171E-04	1.921889E-05
7.165669E+03	7.267357E-04	1.919646E-05
7.175649E+03	7.259134E-04	1.917553E-05
7.185629E+03	7.251899E-04	1.915719E-05
7.195609E+03	7.245346E-04	1.914065E-05
7.205589E+03	7.239588E-04	1.912624E-05
7.215569E+03	7.234308E-04	1.911315E-05
7.225549E+03	7.229679E-04	1.910186E-05
7.235529E+03	7.225764E-04	1.909257E-05
7.245509E+03	7.222809E-04	1.908597E-05
7.255489E+03	7.220949E-04	1.908244E-05
7.265469E+03	7.220338E-04	1.908241E-05
7.275449E+03	7.220619E-04	1.908498E-05
7.285429E+03	7.220534E-04	1.908686E-05
7.295409E+03	7.218124E-04	1.908289E-05
7.305389E+03	7.210708E-04	1.906602E-05
7.315369E+03	7.195867E-04	1.902987E-05
7.325349E+03	7.171867E-04	1.896989E-05
7.335329E+03	7.137995E-04	1.888421E-05
7.345309E+03	7.094294E-04	1.877294E-05
7.355289E+03	7.042310E-04	1.864019E-05
7.365269E+03	6.984296E-04	1.849193E-05
7.375250E+03	6.922897E-04	1.833516E-05
7.385230E+03	6.860715E-04	1.817681E-05
7.395210E+03	6.800330E-04	1.802371E-05
7.405190E+03	6.743624E-04	1.788089E-05
7.415170E+03	6.691753E-04	1.775144E-05
7.425150E+03	6.645479E-04	1.763741E-05
7.435130E+03	6.604418E-04	1.753784E-05
7.445110E+03	6.567907E-04	1.745099E-05
7.455090E+03	6.535085E-04	1.737463E-05
7.465070E+03	6.506073E-04	1.730910E-05
7.475050E+03	6.482547E-04	1.725892E-05
7.485030E+03	6.467535E-04	1.723219E-05
7.495010E+03	6.465723E-04	1.724145E-05
7.504990E+03	6.477586E-04	1.728806E-05
7.514970E+03	6.497640E-04	1.735748E-05
7.524950E+03	6.521243E-04	1.743736E-05
7.534930E+03	6.544901E-04	1.751841E-05
7.544910E+03	6.565777E-04	1.759304E-05
7.554890E+03	6.582232E-04	1.765683E-05
7.564870E+03	6.593105E-04	1.770665E-05
7.574850E+03	6.597707E-04	1.774060E-05
7.584830E+03	6.596194E-04	1.775905E-05
7.594810E+03	6.588838E-04	1.776267E-05
7.604790E+03	6.576734E-04	1.775436E-05
7.614770E+03	6.561528E-04	1.773853E-05
7.624750E+03	6.545264E-04	1.772066E-05
7.634731E+03	6.530035E-04	1.770642E-05
7.644711E+03	6.517692E-04	1.770086E-05
7.654691E+03	6.509585E-04	1.770768E-05
7.664671E+03	6.505937E-04	1.772755E-05
7.674651E+03	6.506182E-04	1.775899E-05
7.684631E+03	6.508889E-04	1.779815E-05
7.694611E+03	6.512216E-04	1.784004E-05
7.704591E+03	6.514699E-04	1.788064E-05
7.714571E+03	6.515359E-04	1.791727E-05
7.724551E+03	6.514112E-04	1.794967E-05
7.734531E+03	6.511259E-04	1.797866E-05
7.744511E+03	6.507442E-04	1.800598E-05
