#wls	flux	fluxerr
1.596806E+03	2.589935E-05	7.318687E-09
1.636727E+03	2.619222E-05	7.401446E-09
1.676647E+03	2.649282E-05	7.486389E-09
1.716567E+03	2.682134E-05	7.579221E-09
1.756487E+03	2.714640E-05	7.671077E-09
1.796407E+03	2.749832E-05	7.770522E-09
1.836327E+03	2.785589E-05	7.871564E-09
1.876248E+03	2.822867E-05	7.976901E-09
1.916168E+03	2.861581E-05	8.086300E-09
1.956088E+03	2.901636E-05	8.199488E-09
1.996008E+03	2.941906E-05	8.313282E-09
2.035928E+03	2.984312E-05	8.433112E-09
2.075848E+03	3.027698E-05	8.555712E-09
2.115768E+03	3.071914E-05	8.680654E-09
2.155689E+03	3.117804E-05	8.810331E-09
2.195609E+03	3.163167E-05	8.938516E-09
2.235529E+03	3.209820E-05	9.070346E-09
2.275449E+03	3.256544E-05	9.202379E-09
2.315369E+03	3.304108E-05	9.336785E-09
2.355289E+03	3.351277E-05	9.470073E-09
2.395210E+03	3.397812E-05	9.601571E-09
2.435130E+03	3.444449E-05	9.733357E-09
2.475050E+03	3.489972E-05	9.861993E-09
2.514970E+03	3.535128E-05	9.989594E-09
2.554890E+03	3.578760E-05	1.011289E-08
2.594810E+03	3.621675E-05	1.023416E-08
2.634731E+03	3.662840E-05	1.035048E-08
2.674651E+03	3.702263E-05	1.046188E-08
2.714571E+03	3.741884E-05	1.057384E-08
2.754491E+03	3.780080E-05	1.068177E-08
2.794411E+03	3.819025E-05	1.079182E-08
2.834331E+03	3.858346E-05	1.090293E-08
2.874251E+03	3.898777E-05	1.101718E-08
2.914172E+03	3.943847E-05	1.114454E-08
2.954092E+03	3.992947E-05	1.128328E-08
2.994012E+03	4.049145E-05	1.144208E-08
3.003992E+03	4.064324E-05	1.148498E-08
3.013972E+03	4.080594E-05	1.153095E-08
3.023952E+03	4.097143E-05	1.157772E-08
3.033932E+03	4.114835E-05	1.162771E-08
3.043912E+03	4.132865E-05	1.167866E-08
3.053892E+03	4.152093E-05	1.173299E-08
3.063872E+03	4.171719E-05	1.178845E-08
3.073852E+03	4.192602E-05	1.184746E-08
3.083832E+03	4.213947E-05	1.190778E-08
3.093812E+03	4.237431E-05	1.197414E-08
3.103792E+03	4.260618E-05	1.203966E-08
3.113772E+03	4.286005E-05	1.211140E-08
3.123752E+03	4.311981E-05	1.218480E-08
3.133733E+03	4.339400E-05	1.226228E-08
3.143713E+03	4.367472E-05	1.234161E-08
3.153693E+03	4.397869E-05	1.242750E-08
3.163673E+03	4.428984E-05	1.251542E-08
3.173653E+03	4.461665E-05	1.260778E-08
3.183633E+03	4.495944E-05	1.270464E-08
3.193613E+03	4.531848E-05	1.280610E-08
3.203593E+03	4.569409E-05	1.291224E-08
3.213573E+03	4.608652E-05	1.302313E-08
3.223553E+03	4.649604E-05	1.313885E-08
3.233533E+03	4.692288E-05	1.325947E-08
3.243513E+03	4.736727E-05	1.338504E-08
3.253493E+03	4.782942E-05	1.351564E-08
3.263473E+03	4.831772E-05	1.365362E-08
3.273453E+03	4.881587E-05	1.379439E-08
3.283433E+03	4.934045E-05	1.394262E-08
3.293413E+03	4.989160E-05	1.409836E-08
3.303393E+03	5.046111E-05	1.425930E-08
3.313373E+03	5.104898E-05	1.442542E-08
3.323353E+03	5.166350E-05	1.459907E-08
3.333333E+03	5.229631E-05	1.477788E-08
3.343313E+03	5.295563E-05	1.496420E-08
3.353293E+03	5.364137E-05	1.515797E-08
3.363273E+03	5.434495E-05	1.535679E-08
3.373253E+03	5.507457E-05	1.556297E-08
3.383234E+03	5.583001E-05	1.577644E-08
3.393214E+03	5.661102E-05	1.599713E-08
3.403194E+03	5.741736E-05	1.622499E-08
3.413174E+03	5.824877E-05	1.645993E-08
3.423154E+03	5.910500E-05	1.670188E-08
3.433134E+03	5.999447E-05	1.695323E-08
3.443114E+03	6.089985E-05	1.720907E-08
3.453094E+03	6.183837E-05	1.747427E-08
3.463074E+03	6.280150E-05	1.774643E-08
3.473054E+03	6.379829E-05	1.802811E-08
3.483034E+03	6.482935E-05	1.831946E-08
3.493014E+03	6.588675E-05	1.861826E-08
3.502994E+03	6.697169E-05	1.892485E-08
3.512974E+03	6.810348E-05	1.924467E-08
3.522954E+03	6.927537E-05	1.957582E-08
3.532934E+03	7.048114E-05	1.991654E-08
3.542914E+03	7.174192E-05	2.027281E-08
3.552894E+03	7.304376E-05	2.064069E-08
3.562874E+03	7.440924E-05	2.102654E-08
3.572854E+03	7.584395E-05	2.143196E-08
3.582834E+03	7.734492E-05	2.185610E-08
3.592814E+03	7.891733E-05	2.230044E-08
3.602794E+03	8.057090E-05	2.276770E-08
3.612774E+03	8.230374E-05	2.325736E-08
3.622754E+03	8.411363E-05	2.376880E-08
3.632735E+03	8.599850E-05	2.430143E-08
3.642715E+03	8.794709E-05	2.485206E-08
3.652695E+03	8.997674E-05	2.542560E-08
3.662675E+03	9.207662E-05	2.601898E-08
3.672655E+03	9.425542E-05	2.663466E-08
3.682635E+03	9.650272E-05	2.726970E-08
3.692615E+03	9.882783E-05	2.792673E-08
3.702595E+03	1.012203E-04	2.860281E-08
3.712575E+03	1.036995E-04	2.930337E-08
3.722555E+03	1.062453E-04	3.002277E-08
3.732535E+03	1.088776E-04	3.076658E-08
3.742515E+03	1.115758E-04	3.152906E-08
3.752495E+03	1.143704E-04	3.231875E-08
3.762475E+03	1.172304E-04	3.312691E-08
3.772455E+03	1.201757E-04	3.395921E-08
3.782435E+03	1.232058E-04	3.481543E-08
3.792415E+03	1.263195E-04	3.569530E-08
3.802395E+03	1.295153E-04	3.659837E-08
3.812375E+03	1.327912E-04	3.752407E-08
3.822355E+03	1.361551E-04	3.847466E-08
3.832335E+03	1.395933E-04	3.944621E-08
3.842315E+03	1.431011E-04	4.043746E-08
3.847081E+03	1.521610E-04	4.299759E-08
3.848818E+03	1.583265E-04	4.473983E-08
3.850556E+03	1.627093E-04	4.597833E-08
3.852294E+03	1.642192E-04	4.640500E-08
3.854032E+03	1.639311E-04	4.632359E-08
3.855769E+03	1.651961E-04	4.668105E-08
3.857508E+03	1.676743E-04	4.738132E-08
3.859246E+03	1.693421E-04	4.785263E-08
3.860984E+03	1.695834E-04	4.792079E-08
3.862722E+03	1.700248E-04	4.804555E-08
3.864459E+03	1.710250E-04	4.832816E-08
3.866198E+03	1.709016E-04	4.829329E-08
3.867935E+03	1.700179E-04	4.804358E-08
3.869673E+03	1.691200E-04	4.778986E-08
3.871411E+03	1.689546E-04	4.774313E-08
3.873149E+03	1.721606E-04	4.864906E-08
3.874886E+03	1.736771E-04	4.907761E-08
3.876625E+03	1.714935E-04	4.846056E-08
3.878362E+03	1.712567E-04	4.839365E-08
3.880100E+03	1.737092E-04	4.908666E-08
3.881838E+03	1.750531E-04	4.946642E-08
3.883576E+03	1.741489E-04	4.921093E-08
3.885313E+03	1.719771E-04	4.859720E-08
3.887052E+03	1.715614E-04	4.847975E-08
3.888789E+03	1.709049E-04	4.829424E-08
3.890528E+03	1.688922E-04	4.772549E-08
3.892265E+03	1.667948E-04	4.713281E-08
3.894003E+03	1.652335E-04	4.669161E-08
3.895742E+03	1.638691E-04	4.630605E-08
3.897479E+03	1.626029E-04	4.594825E-08
3.899217E+03	1.644797E-04	4.647860E-08
3.900955E+03	1.648152E-04	4.657341E-08
3.902693E+03	1.625297E-04	4.592758E-08
3.904430E+03	1.627808E-04	4.599854E-08
3.906169E+03	1.632961E-04	4.614415E-08
3.907906E+03	1.621159E-04	4.581064E-08
3.909644E+03	1.617473E-04	4.570649E-08
3.911382E+03	1.607218E-04	4.541668E-08
3.913120E+03	1.585544E-04	4.480423E-08
3.914858E+03	1.564941E-04	4.422204E-08
3.916596E+03	1.535629E-04	4.339373E-08
3.918333E+03	1.514046E-04	4.278385E-08
3.920072E+03	1.513011E-04	4.275461E-08
3.921809E+03	1.528812E-04	4.320110E-08
3.923547E+03	1.542978E-04	4.360141E-08
3.925285E+03	1.545546E-04	4.367398E-08
3.927023E+03	1.571483E-04	4.440688E-08
3.928760E+03	1.601960E-04	4.526813E-08
3.930499E+03	1.590375E-04	4.494074E-08
3.932237E+03	1.563896E-04	4.419252E-08
3.933975E+03	1.553946E-04	4.391133E-08
3.935713E+03	1.548740E-04	4.376422E-08
3.937450E+03	1.559683E-04	4.407345E-08
3.939189E+03	1.573966E-04	4.447707E-08
3.940926E+03	1.577397E-04	4.457401E-08
3.942664E+03	1.582666E-04	4.472289E-08
3.944402E+03	1.594347E-04	4.505298E-08
3.946140E+03	1.607145E-04	4.541463E-08
3.947877E+03	1.605745E-04	4.537507E-08
3.949616E+03	1.615882E-04	4.566153E-08
3.951353E+03	1.632384E-04	4.612784E-08
3.953091E+03	1.642848E-04	4.642352E-08
3.954829E+03	1.649603E-04	4.661441E-08
3.956567E+03	1.668700E-04	4.715405E-08
3.958305E+03	1.702725E-04	4.811552E-08
3.960043E+03	1.730519E-04	4.890092E-08
3.961780E+03	1.762901E-04	4.981598E-08
3.963519E+03	1.794552E-04	5.071036E-08
3.965256E+03	1.816570E-04	5.133256E-08
3.966994E+03	1.849566E-04	5.226495E-08
3.968733E+03	1.894959E-04	5.354766E-08
3.970470E+03	1.922668E-04	5.433066E-08
3.972208E+03	1.920827E-04	5.427863E-08
3.973946E+03	1.902168E-04	5.375137E-08
3.975684E+03	1.919978E-04	5.425465E-08
3.977421E+03	1.956387E-04	5.528351E-08
3.979160E+03	1.972441E-04	5.573716E-08
3.980897E+03	1.981592E-04	5.599574E-08
3.982636E+03	2.003680E-04	5.661990E-08
3.984373E+03	2.029141E-04	5.733939E-08
3.986111E+03	2.048763E-04	5.789386E-08
3.987849E+03	2.057226E-04	5.813301E-08
3.989587E+03	2.086432E-04	5.895832E-08
3.991324E+03	2.140469E-04	6.048528E-08
3.993063E+03	2.180693E-04	6.162192E-08
3.994800E+03	2.205500E-04	6.232292E-08
3.996538E+03	2.239893E-04	6.329481E-08
3.998276E+03	2.276250E-04	6.432218E-08
4.000014E+03	2.306232E-04	6.516939E-08
4.001751E+03	2.328061E-04	6.578623E-08
4.003490E+03	2.350251E-04	6.641330E-08
4.005228E+03	2.370498E-04	6.698542E-08
4.006965E+03	2.376902E-04	6.716640E-08
4.008704E+03	2.363068E-04	6.677547E-08
4.010441E+03	2.333601E-04	6.594280E-08
4.012180E+03	2.303771E-04	6.509987E-08
4.013917E+03	2.270558E-04	6.416131E-08
4.015655E+03	2.234136E-04	6.313210E-08
4.017393E+03	2.208187E-04	6.239886E-08
4.019131E+03	2.206404E-04	6.234846E-08
4.020868E+03	2.213331E-04	6.254421E-08
4.022607E+03	2.222217E-04	6.279531E-08
4.024344E+03	2.201944E-04	6.222244E-08
4.026082E+03	2.171884E-04	6.137299E-08
4.027820E+03	2.175255E-04	6.146826E-08
4.029558E+03	2.191081E-04	6.191548E-08
4.031295E+03	2.187519E-04	6.181482E-08
4.033034E+03	2.189295E-04	6.186501E-08
4.034771E+03	2.216347E-04	6.262944E-08
4.036510E+03	2.256404E-04	6.376137E-08
4.038248E+03	2.291133E-04	6.474273E-08
4.039985E+03	2.325874E-04	6.572445E-08
4.041724E+03	2.368999E-04	6.694306E-08
4.043461E+03	2.407506E-04	6.803119E-08
4.045199E+03	2.453687E-04	6.933619E-08
4.046937E+03	2.519843E-04	7.120560E-08
4.048675E+03	2.603308E-04	7.356415E-08
4.050412E+03	2.654359E-04	7.500676E-08
4.052151E+03	2.686530E-04	7.591585E-08
4.053888E+03	2.737792E-04	7.736440E-08
4.055627E+03	2.782830E-04	7.863709E-08
4.057364E+03	2.814148E-04	7.952208E-08
4.059102E+03	2.849760E-04	8.052839E-08
4.060840E+03	2.874678E-04	8.123253E-08
4.062578E+03	2.897821E-04	8.188650E-08
4.064315E+03	2.937928E-04	8.301985E-08
4.066054E+03	2.975194E-04	8.407289E-08
4.067791E+03	3.013901E-04	8.516667E-08
4.069529E+03	3.046729E-04	8.609432E-08
4.071267E+03	3.064744E-04	8.660339E-08
4.073005E+03	3.088124E-04	8.726408E-08
4.074743E+03	3.115266E-04	8.803105E-08
4.076481E+03	3.129373E-04	8.842967E-08
4.078219E+03	3.129365E-04	8.842946E-08
4.079957E+03	3.112734E-04	8.795948E-08
4.081695E+03	3.091628E-04	8.736307E-08
4.083432E+03	3.077668E-04	8.696859E-08
4.085171E+03	3.052436E-04	8.625561E-08
4.086908E+03	3.043118E-04	8.599228E-08
4.088646E+03	3.037553E-04	8.583504E-08
4.090384E+03	3.019462E-04	8.532383E-08
4.092122E+03	2.993669E-04	8.459497E-08
4.093859E+03	2.963572E-04	8.374449E-08
4.095598E+03	2.926125E-04	8.268632E-08
4.097335E+03	2.888129E-04	8.161262E-08
4.099073E+03	2.861224E-04	8.085234E-08
4.100811E+03	2.828400E-04	7.992479E-08
4.102549E+03	2.787323E-04	7.876405E-08
4.104286E+03	2.760926E-04	7.801812E-08
4.106025E+03	2.743123E-04	7.751505E-08
4.107762E+03	2.722626E-04	7.693584E-08
4.109501E+03	2.689752E-04	7.600689E-08
4.111239E+03	2.655073E-04	7.502695E-08
4.112976E+03	2.599938E-04	7.346894E-08
4.114715E+03	2.547117E-04	7.197631E-08
4.116452E+03	2.510603E-04	7.094451E-08
4.118190E+03	2.458825E-04	6.948137E-08
4.119928E+03	2.399132E-04	6.779458E-08
4.121666E+03	2.347318E-04	6.633040E-08
4.123403E+03	2.301949E-04	6.504836E-08
4.125142E+03	2.282780E-04	6.450669E-08
4.126879E+03	2.275099E-04	6.428964E-08
4.128617E+03	2.247657E-04	6.351418E-08
4.130355E+03	2.205114E-04	6.231202E-08
4.132093E+03	2.177830E-04	6.154103E-08
4.133831E+03	2.181629E-04	6.164838E-08
4.135569E+03	2.189923E-04	6.188275E-08
4.137306E+03	2.215660E-04	6.261001E-08
4.139045E+03	2.260646E-04	6.388124E-08
4.140782E+03	2.290182E-04	6.471586E-08
4.142520E+03	2.295265E-04	6.485950E-08
4.144258E+03	2.315643E-04	6.543534E-08
4.145996E+03	2.360320E-04	6.669783E-08
4.147734E+03	2.407354E-04	6.802689E-08
4.149472E+03	2.442524E-04	6.902074E-08
4.151210E+03	2.460783E-04	6.953670E-08
4.152947E+03	2.466985E-04	6.971196E-08
4.154686E+03	2.472829E-04	6.987708E-08
4.156423E+03	2.467326E-04	6.972160E-08
4.158162E+03	2.440563E-04	6.896531E-08
4.159899E+03	2.422620E-04	6.845828E-08
4.161637E+03	2.431705E-04	6.871502E-08
4.163375E+03	2.442056E-04	6.900752E-08
4.165113E+03	2.446822E-04	6.914219E-08
4.166850E+03	2.452672E-04	6.930750E-08
4.168589E+03	2.461591E-04	6.955952E-08
4.170326E+03	2.457164E-04	6.943442E-08
4.172064E+03	2.444255E-04	6.906965E-08
4.173802E+03	2.420515E-04	6.839880E-08
4.175540E+03	2.399654E-04	6.780931E-08
4.177278E+03	2.376620E-04	6.715841E-08
4.179016E+03	2.343466E-04	6.622156E-08
4.180753E+03	2.316441E-04	6.545787E-08
4.182492E+03	2.305843E-04	6.515840E-08
4.184230E+03	2.304455E-04	6.511918E-08
4.185967E+03	2.308126E-04	6.522293E-08
4.187706E+03	2.305835E-04	6.515817E-08
4.189443E+03	2.292517E-04	6.478184E-08
4.191181E+03	2.289861E-04	6.470679E-08
4.192919E+03	2.306552E-04	6.517845E-08
4.194657E+03	2.327952E-04	6.578316E-08
4.196395E+03	2.329644E-04	6.583097E-08
4.198133E+03	2.319576E-04	6.554647E-08
4.199870E+03	2.302629E-04	6.506757E-08
4.201609E+03	2.303774E-04	6.509994E-08
4.203346E+03	2.323203E-04	6.564896E-08
4.205084E+03	2.341734E-04	6.617260E-08
4.206822E+03	2.378018E-04	6.719793E-08
4.208560E+03	2.432972E-04	6.875080E-08
4.210297E+03	2.486678E-04	7.026842E-08
4.212036E+03	2.547470E-04	7.198629E-08
4.213773E+03	2.604117E-04	7.358701E-08
4.215511E+03	2.649727E-04	7.487588E-08
4.217250E+03	2.699163E-04	7.627283E-08
4.218987E+03	2.742815E-04	7.750633E-08
4.220726E+03	2.785939E-04	7.872493E-08
4.222463E+03	2.831256E-04	8.000549E-08
4.224201E+03	2.861713E-04	8.086617E-08
4.225939E+03	2.880932E-04	8.140925E-08
4.227677E+03	2.909596E-04	8.221923E-08
4.229414E+03	2.932280E-04	8.286024E-08
4.231153E+03	2.943536E-04	8.317831E-08
4.232890E+03	2.961878E-04	8.369660E-08
4.234628E+03	2.979318E-04	8.418943E-08
4.236366E+03	2.998400E-04	8.472866E-08
4.238104E+03	3.011857E-04	8.510893E-08
4.239841E+03	3.023139E-04	8.542773E-08
4.241580E+03	3.028791E-04	8.558745E-08
4.243317E+03	3.025174E-04	8.548522E-08
4.245056E+03	3.019010E-04	8.531105E-08
4.246793E+03	3.014118E-04	8.517281E-08
4.248531E+03	3.006858E-04	8.496767E-08
4.250269E+03	2.998506E-04	8.473164E-08
4.252007E+03	2.982144E-04	8.426929E-08
4.253745E+03	2.954129E-04	8.347763E-08
4.255483E+03	2.919550E-04	8.250052E-08
4.257221E+03	2.880225E-04	8.138926E-08
4.258958E+03	2.835240E-04	8.011810E-08
4.260697E+03	2.783319E-04	7.865090E-08
4.262434E+03	2.722815E-04	7.694119E-08
4.264172E+03	2.668303E-04	7.540078E-08
4.265910E+03	2.615774E-04	7.391642E-08
4.267648E+03	2.563955E-04	7.245212E-08
4.269386E+03	2.525060E-04	7.135303E-08
4.271124E+03	2.480498E-04	7.009381E-08
4.272861E+03	2.433185E-04	6.875682E-08
4.274600E+03	2.378557E-04	6.721316E-08
4.276337E+03	2.294901E-04	6.484922E-08
4.278075E+03	2.198805E-04	6.213375E-08
4.279813E+03	2.119464E-04	5.989173E-08
4.281551E+03	2.072586E-04	5.856705E-08
4.283288E+03	2.060746E-04	5.823246E-08
4.285027E+03	2.040683E-04	5.766552E-08
4.286764E+03	2.033398E-04	5.745968E-08
4.288502E+03	2.028485E-04	5.732085E-08
4.290241E+03	2.002559E-04	5.658821E-08
4.291978E+03	1.992887E-04	5.631492E-08
4.293716E+03	2.013554E-04	5.689892E-08
4.295454E+03	2.035144E-04	5.750900E-08
4.297192E+03	2.045404E-04	5.779895E-08
4.298930E+03	2.071032E-04	5.852313E-08
4.300668E+03	2.114413E-04	5.974898E-08
4.302405E+03	2.166958E-04	6.123381E-08
4.304144E+03	2.230137E-04	6.301912E-08
4.305881E+03	2.299015E-04	6.496545E-08
4.307619E+03	2.384760E-04	6.738844E-08
4.309357E+03	2.476581E-04	6.998311E-08
4.311095E+03	2.571001E-04	7.265122E-08
4.312832E+03	2.662526E-04	7.523754E-08
4.314571E+03	2.754636E-04	7.784040E-08
4.316308E+03	2.843850E-04	8.036138E-08
4.318046E+03	2.911105E-04	8.226188E-08
4.319784E+03	2.972154E-04	8.398699E-08
4.321522E+03	3.034693E-04	8.575422E-08
4.323260E+03	3.091205E-04	8.735114E-08
4.324998E+03	3.133800E-04	8.855478E-08
4.326736E+03	3.165587E-04	8.945303E-08
4.328474E+03	3.210965E-04	9.073532E-08
4.330212E+03	3.262600E-04	9.219441E-08
4.331949E+03	3.310217E-04	9.353997E-08
4.333688E+03	3.355834E-04	9.482900E-08
4.335425E+03	3.382370E-04	9.557887E-08
4.337163E+03	3.371451E-04	9.527032E-08
4.338901E+03	3.357406E-04	9.487342E-08
4.340639E+03	3.364299E-04	9.506822E-08
4.342376E+03	3.365499E-04	9.510213E-08
4.344115E+03	3.324978E-04	9.395709E-08
4.345852E+03	3.263483E-04	9.221936E-08
4.347591E+03	3.213548E-04	9.080831E-08
4.349328E+03	3.158630E-04	8.925643E-08
4.351066E+03	3.106449E-04	8.778191E-08
4.352804E+03	3.057192E-04	8.639000E-08
4.354542E+03	3.028525E-04	8.557994E-08
4.356279E+03	3.018622E-04	8.530008E-08
4.358018E+03	3.004481E-04	8.490048E-08
4.359755E+03	2.986836E-04	8.440188E-08
4.361494E+03	2.970473E-04	8.393950E-08
4.363232E+03	2.947105E-04	8.327917E-08
4.364969E+03	2.918385E-04	8.246761E-08
4.366707E+03	2.879152E-04	8.135896E-08
4.368445E+03	2.827371E-04	7.989572E-08
4.370183E+03	2.777044E-04	7.847360E-08
4.371921E+03	2.725961E-04	7.703010E-08
4.373659E+03	2.673937E-04	7.556000E-08
4.375396E+03	2.642181E-04	7.466263E-08
4.377135E+03	2.620374E-04	7.404642E-08
4.378872E+03	2.604649E-04	7.360206E-08
4.380610E+03	2.600544E-04	7.348607E-08
4.382348E+03	2.597915E-04	7.341178E-08
4.384086E+03	2.599717E-04	7.346268E-08
4.385824E+03	2.602073E-04	7.352926E-08
4.387562E+03	2.599627E-04	7.346016E-08
4.389299E+03	2.593487E-04	7.328665E-08
4.391038E+03	2.578845E-04	7.287290E-08
4.392775E+03	2.566600E-04	7.252687E-08
4.394513E+03	2.557678E-04	7.227475E-08
4.396251E+03	2.544130E-04	7.189193E-08
4.397989E+03	2.526879E-04	7.140443E-08
4.399727E+03	2.508141E-04	7.087496E-08
4.401465E+03	2.483108E-04	7.016755E-08
4.403203E+03	2.468055E-04	6.974218E-08
4.404940E+03	2.482977E-04	7.016385E-08
4.406679E+03	2.510492E-04	7.094137E-08
4.408416E+03	2.553013E-04	7.214294E-08
4.410155E+03	2.604626E-04	7.360141E-08
4.411892E+03	2.666260E-04	7.534307E-08
4.413630E+03	2.741998E-04	7.748325E-08
4.415368E+03	2.824807E-04	7.982327E-08
4.417106E+03	2.909501E-04	8.221656E-08
4.418843E+03	2.971432E-04	8.396659E-08
4.420582E+03	3.017999E-04	8.528250E-08
4.422319E+03	3.055499E-04	8.634217E-08
4.424057E+03	3.068904E-04	8.672096E-08
4.425795E+03	3.074338E-04	8.687451E-08
4.427533E+03	3.094617E-04	8.744757E-08
4.429270E+03	3.128638E-04	8.840893E-08
4.431009E+03	3.165642E-04	8.945459E-08
4.432747E+03	3.203590E-04	9.052692E-08
4.434485E+03	3.237283E-04	9.147901E-08
4.436223E+03	3.273032E-04	9.248921E-08
4.437960E+03	3.313997E-04	9.364679E-08
4.439699E+03	3.360739E-04	9.496763E-08
4.441436E+03	3.429057E-04	9.689815E-08
4.443174E+03	3.502793E-04	9.898179E-08
4.444912E+03	3.570796E-04	1.009034E-07
4.446650E+03	3.644777E-04	1.029940E-07
4.448387E+03	3.723809E-04	1.052273E-07
4.450126E+03	3.787993E-04	1.070409E-07
4.451863E+03	3.840480E-04	1.085241E-07
4.453601E+03	3.880706E-04	1.096608E-07
4.455339E+03	3.933235E-04	1.111452E-07
4.457077E+03	3.990067E-04	1.127512E-07
4.458815E+03	4.033515E-04	1.139789E-07
4.460553E+03	4.085549E-04	1.154493E-07
4.462290E+03	4.132388E-04	1.167729E-07
4.464029E+03	4.175707E-04	1.179970E-07
4.465766E+03	4.210657E-04	1.189846E-07
4.467504E+03	4.240216E-04	1.198199E-07
4.469243E+03	4.287500E-04	1.211560E-07
4.470980E+03	4.329768E-04	1.223504E-07
4.472718E+03	4.362915E-04	1.232871E-07
4.474456E+03	4.385443E-04	1.239237E-07
4.476194E+03	4.400890E-04	1.243602E-07
4.477931E+03	4.421383E-04	1.249393E-07
4.479670E+03	4.443005E-04	1.255503E-07
4.481407E+03	4.458662E-04	1.259927E-07
4.483145E+03	4.449489E-04	1.257335E-07
4.484883E+03	4.425558E-04	1.250572E-07
4.486621E+03	4.399562E-04	1.243226E-07
4.488359E+03	4.377294E-04	1.236934E-07
4.490097E+03	4.334084E-04	1.224724E-07
4.491834E+03	4.256275E-04	1.202736E-07
4.493573E+03	4.164413E-04	1.176778E-07
4.495310E+03	4.084106E-04	1.154085E-07
4.497048E+03	4.011624E-04	1.133603E-07
4.498786E+03	3.942481E-04	1.114065E-07
4.500524E+03	3.893519E-04	1.100229E-07
4.502261E+03	3.858574E-04	1.090354E-07
4.504000E+03	3.838217E-04	1.084602E-07
4.505738E+03	3.803810E-04	1.074879E-07
4.507475E+03	3.758152E-04	1.061977E-07
4.509214E+03	3.713975E-04	1.049494E-07
4.510951E+03	3.648795E-04	1.031075E-07
4.512690E+03	3.581528E-04	1.012067E-07
4.514427E+03	3.520981E-04	9.949573E-08
4.516165E+03	3.445224E-04	9.735500E-08
4.517903E+03	3.363435E-04	9.504382E-08
4.519641E+03	3.282926E-04	9.276880E-08
4.521378E+03	3.202384E-04	9.049285E-08
4.523117E+03	3.132129E-04	8.850758E-08
4.524854E+03	3.077233E-04	8.695633E-08
