#wls	flux	fluxerr
1.600000E+03	1.037198E-15	5.829565E-17
1.640000E+03	1.049521E-15	5.791274E-17
1.680000E+03	1.058116E-15	5.731641E-17
1.720000E+03	1.063032E-15	5.652412E-17
1.760000E+03	1.063929E-15	5.553264E-17
1.800000E+03	1.061259E-15	5.438056E-17
1.840000E+03	1.055085E-15	5.308486E-17
1.880000E+03	1.046862E-15	5.173056E-17
1.920000E+03	1.038106E-15	5.040028E-17
1.960000E+03	1.031056E-15	4.920543E-17
2.000000E+03	1.028857E-15	4.829303E-17
2.040000E+03	1.033922E-15	4.776715E-17
2.080000E+03	1.045704E-15	4.759206E-17
2.120000E+03	1.060019E-15	4.757235E-17
2.160000E+03	1.081968E-15	4.793415E-17
2.200000E+03	1.112503E-15	4.870923E-17
2.240000E+03	1.144835E-15	4.959437E-17
2.280000E+03	1.165707E-15	5.002226E-17
2.320000E+03	1.173587E-15	4.994168E-17
2.360000E+03	1.175223E-15	4.964671E-17
2.400000E+03	1.171990E-15	4.919477E-17
2.440000E+03	1.164320E-15	4.860108E-17
2.480000E+03	1.153295E-15	4.790686E-17
2.520000E+03	1.141144E-15	4.719936E-17
2.560000E+03	1.130899E-15	4.659762E-17
2.600000E+03	1.125340E-15	4.620895E-17
2.640000E+03	1.126155E-15	4.609531E-17
2.680000E+03	1.133655E-15	4.626225E-17
2.720000E+03	1.146896E-15	4.666475E-17
2.760000E+03	1.163321E-15	4.719319E-17
2.800000E+03	1.180528E-15	4.774574E-17
2.840000E+03	1.196040E-15	4.821889E-17
2.880000E+03	1.207939E-15	4.853339E-17
2.920000E+03	1.214761E-15	4.862954E-17
2.960000E+03	1.215704E-15	4.847561E-17
3.000000E+03	1.210552E-15	4.806456E-17
3.010000E+03	1.208400E-15	4.792536E-17
3.020000E+03	1.205832E-15	4.776894E-17
3.030000E+03	1.202969E-15	4.760005E-17
3.040000E+03	1.199706E-15	4.741467E-17
3.050000E+03	1.196168E-15	4.721770E-17
3.060000E+03	1.192361E-15	4.700951E-17
3.070000E+03	1.188188E-15	4.678631E-17
3.080000E+03	1.183773E-15	4.655299E-17
3.090000E+03	1.179128E-15	4.631016E-17
3.100000E+03	1.174163E-15	4.605426E-17
3.110000E+03	1.169106E-15	4.579431E-17
3.120000E+03	1.163761E-15	4.552273E-17
3.130000E+03	1.158356E-15	4.524843E-17
3.140000E+03	1.152704E-15	4.496420E-17
3.150000E+03	1.147028E-15	4.467878E-17
3.160000E+03	1.141250E-15	4.438912E-17
3.170000E+03	1.135391E-15	4.409616E-17
3.180000E+03	1.129573E-15	4.380463E-17
3.190000E+03	1.123725E-15	4.351179E-17
3.200000E+03	1.117967E-15	4.322239E-17
3.210000E+03	1.112235E-15	4.293390E-17
3.220000E+03	1.106742E-15	4.265458E-17
3.230000E+03	1.101336E-15	4.237859E-17
3.240000E+03	1.096141E-15	4.211071E-17
3.250000E+03	1.091280E-15	4.185564E-17
3.260000E+03	1.086700E-15	4.161135E-17
3.270000E+03	1.082441E-15	4.137932E-17
3.280000E+03	1.078713E-15	4.116757E-17
3.290000E+03	1.075389E-15	4.097116E-17
3.300000E+03	1.072596E-15	4.079492E-17
3.310000E+03	1.070380E-15	4.064053E-17
3.320000E+03	1.068869E-15	4.051275E-17
3.330000E+03	1.068109E-15	4.041318E-17
3.340000E+03	1.068065E-15	4.034045E-17
3.350000E+03	1.068940E-15	4.030211E-17
3.360000E+03	1.070773E-15	4.029943E-17
3.370000E+03	1.073520E-15	4.033062E-17
3.380000E+03	1.077281E-15	4.039933E-17
3.390000E+03	1.082143E-15	4.050859E-17
3.400000E+03	1.088095E-15	4.065784E-17
3.410000E+03	1.095025E-15	4.084274E-17
3.420000E+03	1.103089E-15	4.106894E-17
3.430000E+03	1.112028E-15	4.132659E-17
3.440000E+03	1.121830E-15	4.161519E-17
3.450000E+03	1.132285E-15	4.192676E-17
3.460000E+03	1.143203E-15	4.225426E-17
3.470000E+03	1.154221E-15	4.258423E-17
3.480000E+03	1.165277E-15	4.291446E-17
3.490000E+03	1.176465E-15	4.324847E-17
3.500000E+03	1.188002E-15	4.359420E-17
3.510000E+03	1.200170E-15	4.396202E-17
3.520000E+03	1.213198E-15	4.436025E-17
3.530000E+03	1.227189E-15	4.479248E-17
3.540000E+03	1.242177E-15	4.525985E-17
3.550000E+03	1.258203E-15	4.576360E-17
3.560000E+03	1.275097E-15	4.629739E-17
3.570000E+03	1.292829E-15	4.686007E-17
3.580000E+03	1.311020E-15	4.743771E-17
3.590000E+03	1.329358E-15	4.801899E-17
3.600000E+03	1.347603E-15	4.859531E-17
3.610000E+03	1.365827E-15	4.916928E-17
3.620000E+03	1.384114E-15	4.974389E-17
3.630000E+03	1.402787E-15	5.033086E-17
3.640000E+03	1.421869E-15	5.093086E-17
3.650000E+03	1.441560E-15	5.155105E-17
3.660000E+03	1.461899E-15	5.219274E-17
3.670000E+03	1.483041E-15	5.286124E-17
3.680000E+03	1.504923E-15	5.355419E-17
3.690000E+03	1.527666E-15	5.427568E-17
3.700000E+03	1.551309E-15	5.502696E-17
3.710000E+03	1.575885E-15	5.580895E-17
3.720000E+03	1.601285E-15	5.661768E-17
3.730000E+03	1.627652E-15	5.745796E-17
3.740000E+03	1.654864E-15	5.832526E-17
3.750000E+03	1.682917E-15	5.921932E-17
3.760000E+03	1.711864E-15	6.014178E-17
3.770000E+03	1.741554E-15	6.108712E-17
3.780000E+03	1.772015E-15	6.205617E-17
3.790000E+03	1.803134E-15	6.304479E-17
3.800000E+03	1.834842E-15	6.405044E-17
3.810000E+03	1.866991E-15	6.506777E-17
3.820000E+03	1.899529E-15	6.609483E-17
3.830000E+03	1.932191E-15	6.712229E-17
3.840000E+03	1.964866E-15	6.814625E-17
3.850000E+03	1.997347E-15	6.915948E-17
3.860000E+03	2.029266E-15	7.014918E-17
3.870000E+03	2.060402E-15	7.110782E-17
3.880000E+03	2.090381E-15	7.202252E-17
3.890000E+03	2.118800E-15	7.287959E-17
3.900000E+03	2.145358E-15	7.366887E-17
3.910000E+03	2.169623E-15	7.437588E-17
3.920000E+03	2.191234E-15	7.498857E-17
3.930000E+03	2.209782E-15	7.549339E-17
3.940000E+03	2.224953E-15	7.588008E-17
3.950000E+03	2.236409E-15	7.613776E-17
3.960000E+03	2.243978E-15	7.626119E-17
3.970000E+03	2.247366E-15	7.624103E-17
3.980000E+03	2.246447E-15	7.607380E-17
3.990000E+03	2.241203E-15	7.575964E-17
4.000000E+03	2.231458E-15	7.529338E-17
4.010000E+03	2.217365E-15	7.468099E-17
4.020000E+03	2.198979E-15	7.392520E-17
4.030000E+03	2.176430E-15	7.303114E-17
4.040000E+03	2.149935E-15	7.200689E-17
4.050000E+03	2.119937E-15	7.086806E-17
4.060000E+03	2.086737E-15	6.962536E-17
4.070000E+03	2.050920E-15	6.829898E-17
4.080000E+03	2.013121E-15	6.691054E-17
4.090000E+03	1.973977E-15	6.548164E-17
4.100000E+03	1.934375E-15	6.404195E-17
4.110000E+03	1.895056E-15	6.261611E-17
4.120000E+03	1.857010E-15	6.123676E-17
4.130000E+03	1.821126E-15	5.993301E-17
4.140000E+03	1.788303E-15	5.873395E-17
4.150000E+03	1.759492E-15	5.767026E-17
4.160000E+03	1.735543E-15	5.676898E-17
4.170000E+03	1.717265E-15	5.605554E-17
4.180000E+03	1.705496E-15	5.555623E-17
4.190000E+03	1.700874E-15	5.529043E-17
4.200000E+03	1.704001E-15	5.527630E-17
4.210000E+03	1.715403E-15	5.552931E-17
4.220000E+03	1.735437E-15	5.605935E-17
4.230000E+03	1.764184E-15	5.686728E-17
4.240000E+03	1.801286E-15	5.793984E-17
4.250000E+03	1.845585E-15	5.923821E-17
4.260000E+03	1.895364E-15	6.070593E-17
4.270000E+03	1.948511E-15	6.227447E-17
4.280000E+03	2.002574E-15	6.386492E-17
4.290000E+03	2.055111E-15	6.539952E-17
4.300000E+03	2.103668E-15	6.680066E-17
4.310000E+03	2.146415E-15	6.801134E-17
4.320000E+03	2.181788E-15	6.898336E-17
4.330000E+03	2.208473E-15	6.967684E-17
4.340000E+03	2.225145E-15	7.005200E-17
4.350000E+03	2.230809E-15	7.007964E-17
4.360000E+03	2.224789E-15	6.974092E-17
4.370000E+03	2.207434E-15	6.904918E-17
4.380000E+03	2.181170E-15	6.808248E-17
4.390000E+03	2.149038E-15	6.693743E-17
4.400000E+03	2.114969E-15	6.573735E-17
4.410000E+03	2.083334E-15	6.461826E-17
4.420000E+03	2.058210E-15	6.370591E-17
4.430000E+03	2.043328E-15	6.311424E-17
4.440000E+03	2.042045E-15	6.294468E-17
4.450000E+03	2.057129E-15	6.327971E-17
4.460000E+03	2.090813E-15	6.418477E-17
4.470000E+03	2.144756E-15	6.570712E-17
4.480000E+03	2.219945E-15	6.787312E-17
4.490000E+03	2.316289E-15	7.067597E-17
4.500000E+03	2.432630E-15	7.407636E-17
4.510000E+03	2.567148E-15	7.801527E-17
4.520000E+03	2.717269E-15	8.241117E-17
4.530000E+03	2.879598E-15	8.715830E-17
4.540000E+03	3.050329E-15	9.213929E-17
4.550000E+03	3.225804E-15	9.724207E-17
4.560000E+03	3.402196E-15	1.023504E-16
4.570000E+03	3.575170E-15	1.073338E-16
4.580000E+03	3.739621E-15	1.120394E-16
4.590000E+03	3.889507E-15	1.162880E-16
4.600000E+03	4.016997E-15	1.198481E-16
4.610000E+03	4.112010E-15	1.224236E-16
4.620000E+03	4.163474E-15	1.236913E-16
4.630000E+03	4.160650E-15	1.233408E-16
4.640000E+03	4.095495E-15	1.211445E-16
4.650000E+03	3.965205E-15	1.170315E-16
4.660000E+03	3.776423E-15	1.112105E-16
4.670000E+03	3.546635E-15	1.042069E-16
4.680000E+03	3.298590E-15	9.669618E-17
4.690000E+03	3.055081E-15	8.934913E-17
4.700000E+03	2.837213E-15	8.278106E-17
4.710000E+03	2.660700E-15	7.744450E-17
4.720000E+03	2.533958E-15	7.357546E-17
4.730000E+03	2.458730E-15	7.121414E-17
4.740000E+03	2.433147E-15	7.029556E-17
4.750000E+03	2.453078E-15	7.068975E-17
4.760000E+03	2.511347E-15	7.218025E-17
4.770000E+03	2.598599E-15	7.448999E-17
4.780000E+03	2.705117E-15	7.733420E-17
4.790000E+03	2.821942E-15	8.045256E-17
4.800000E+03	2.940799E-15	8.360695E-17
4.810000E+03	3.054415E-15	8.659019E-17
4.820000E+03	3.157963E-15	8.926665E-17
4.830000E+03	3.248384E-15	9.155220E-17
4.840000E+03	3.323653E-15	9.339281E-17
4.850000E+03	3.382865E-15	9.476667E-17
4.860000E+03	3.426087E-15	9.567955E-17
4.870000E+03	3.455223E-15	9.618839E-17
4.880000E+03	3.475145E-15	9.643208E-17
4.890000E+03	3.492099E-15	9.658567E-17
4.900000E+03	3.512002E-15	9.681310E-17
4.910000E+03	3.539905E-15	9.725222E-17
4.920000E+03	3.579142E-15	9.799201E-17
4.930000E+03	3.630254E-15	9.904390E-17
4.940000E+03	3.689981E-15	1.003157E-16
4.950000E+03	3.751555E-15	1.016214E-16
4.960000E+03	3.805053E-15	1.026926E-16
4.970000E+03	3.838330E-15	1.032049E-16
4.980000E+03	3.838800E-15	1.028272E-16
4.990000E+03	3.797932E-15	1.013422E-16
5.000000E+03	3.715262E-15	9.875034E-17
5.010000E+03	3.596641E-15	9.522002E-17
5.020000E+03	3.452497E-15	9.103804E-17
5.030000E+03	3.296777E-15	8.657933E-17
5.040000E+03	3.143833E-15	8.222355E-17
5.050000E+03	3.005679E-15	7.828327E-17
5.060000E+03	2.891331E-15	7.498804E-17
5.070000E+03	2.806808E-15	7.248588E-17
5.080000E+03	2.754734E-15	7.083471E-17
5.090000E+03	2.734413E-15	7.000622E-17
5.100000E+03	2.742664E-15	6.990881E-17
5.110000E+03	2.774010E-15	7.039404E-17
5.120000E+03	2.821003E-15	7.126604E-17
5.130000E+03	2.874406E-15	7.228733E-17
5.140000E+03	2.925150E-15	7.322881E-17
5.150000E+03	2.966454E-15	7.392260E-17
5.160000E+03	2.993888E-15	7.426224E-17
5.170000E+03	3.006238E-15	7.422278E-17
5.180000E+03	3.007034E-15	7.389646E-17
5.190000E+03	3.002528E-15	7.344042E-17
5.200000E+03	2.999391E-15	7.301920E-17
5.210000E+03	3.003955E-15	7.278600E-17
5.220000E+03	3.021316E-15	7.286143E-17
5.230000E+03	3.054830E-15	7.332194E-17
5.240000E+03	3.105576E-15	7.418818E-17
5.250000E+03	3.172652E-15	7.543327E-17
5.260000E+03	3.254267E-15	7.700984E-17
5.270000E+03	3.348598E-15	7.887063E-17
5.280000E+03	3.453264E-15	8.095624E-17
5.290000E+03	3.565226E-15	8.319312E-17
5.300000E+03	3.681395E-15	8.550797E-17
5.310000E+03	3.797934E-15	8.781163E-17
5.320000E+03	3.909891E-15	8.999100E-17
5.330000E+03	4.011691E-15	9.192081E-17
5.340000E+03	4.097341E-15	9.346851E-17
5.350000E+03	4.162390E-15	9.453897E-17
5.360000E+03	4.206221E-15	9.512526E-17
5.370000E+03	4.230594E-15	9.527412E-17
5.380000E+03	4.238699E-15	9.506338E-17
5.390000E+03	4.235102E-15	9.460017E-17
5.400000E+03	4.224345E-15	9.398928E-17
5.410000E+03	4.210125E-15	9.331507E-17
5.420000E+03	4.195530E-15	9.264706E-17
5.430000E+03	4.182813E-15	9.203536E-17
5.440000E+03	4.173798E-15	9.152001E-17
5.450000E+03	4.169647E-15	9.112591E-17
5.460000E+03	4.171580E-15	9.087882E-17
5.470000E+03	4.180752E-15	9.080277E-17
5.480000E+03	4.198806E-15	9.093216E-17
5.490000E+03	4.227028E-15	9.129346E-17
5.500000E+03	4.264256E-15	9.186030E-17
5.510000E+03	4.304060E-15	9.249351E-17
5.520000E+03	4.338610E-15	9.302536E-17
5.530000E+03	4.361679E-15	9.332330E-17
5.540000E+03	4.371155E-15	9.334344E-17
5.550000E+03	4.366719E-15	9.308008E-17
5.560000E+03	4.347511E-15	9.251581E-17
5.570000E+03	4.311940E-15	9.161759E-17
5.580000E+03	4.257702E-15	9.033714E-17
5.590000E+03	4.182550E-15	8.862743E-17
5.600000E+03	4.085718E-15	8.647278E-17
5.610000E+03	3.967520E-15	8.388014E-17
5.620000E+03	3.829597E-15	8.088424E-17
5.630000E+03	3.675452E-15	7.755880E-17
5.640000E+03	3.509728E-15	7.400126E-17
5.650000E+03	3.337626E-15	7.032034E-17
5.660000E+03	3.164670E-15	6.663140E-17
5.670000E+03	2.996480E-15	6.305151E-17
5.680000E+03	2.838476E-15	5.969342E-17
5.690000E+03	2.695881E-15	5.666562E-17
5.700000E+03	2.573608E-15	5.407003E-17
5.710000E+03	2.476507E-15	5.200723E-17
5.720000E+03	2.409735E-15	5.058426E-17
5.730000E+03	2.378106E-15	4.990094E-17
5.740000E+03	2.385375E-15	5.003481E-17
5.750000E+03	2.433734E-15	5.103062E-17
5.760000E+03	2.524010E-15	5.290453E-17
5.770000E+03	2.655139E-15	5.563296E-17
5.780000E+03	2.823194E-15	5.913246E-17
5.790000E+03	3.020790E-15	6.324717E-17
5.800000E+03	3.238419E-15	6.777688E-17
5.810000E+03	3.466229E-15	7.251447E-17
5.820000E+03	3.693966E-15	7.724460E-17
5.830000E+03	3.911924E-15	8.176373E-17
5.840000E+03	4.113616E-15	8.593585E-17
5.850000E+03	4.294829E-15	8.967282E-17
5.860000E+03	4.452218E-15	9.290479E-17
5.870000E+03	4.583757E-15	9.558970E-17
5.880000E+03	4.688280E-15	9.770360E-17
5.890000E+03	4.765698E-15	9.924524E-17
5.900000E+03	4.817840E-15	1.002534E-16
5.910000E+03	4.847708E-15	1.007914E-16
5.920000E+03	4.858304E-15	1.009225E-16
5.930000E+03	4.852193E-15	1.007007E-16
5.940000E+03	4.831176E-15	1.001643E-16
5.950000E+03	4.796116E-15	9.933196E-17
5.960000E+03	4.747153E-15	9.820767E-17
5.970000E+03	4.684137E-15	9.678942E-17
5.980000E+03	4.607933E-15	9.509630E-17
5.990000E+03	4.522241E-15	9.320589E-17
6.000000E+03	4.431375E-15	9.120807E-17
6.010000E+03	4.339313E-15	8.918546E-17
6.020000E+03	4.250000E-15	8.721954E-17
6.030000E+03	4.165991E-15	8.536285E-17
6.040000E+03	4.088186E-15	8.363371E-17
6.050000E+03	4.016351E-15	8.202712E-17
6.060000E+03	3.949191E-15	8.051650E-17
6.070000E+03	3.885161E-15	7.907033E-17
6.080000E+03	3.824012E-15	7.768357E-17
6.090000E+03	3.765796E-15	7.635738E-17
6.100000E+03	3.711090E-15	7.510352E-17
6.110000E+03	3.661366E-15	7.395171E-17
6.120000E+03	3.618142E-15	7.293231E-17
6.130000E+03	3.582080E-15	7.205830E-17
6.140000E+03	3.553098E-15	7.132747E-17
6.150000E+03	3.530459E-15	7.072461E-17
6.160000E+03	3.513451E-15	7.023504E-17
6.170000E+03	3.502224E-15	6.986142E-17
6.180000E+03	3.497186E-15	6.961158E-17
6.190000E+03	3.498957E-15	6.949740E-17
6.200000E+03	3.508218E-15	6.953197E-17
6.210000E+03	3.524908E-15	6.971359E-17
6.220000E+03	3.547156E-15	7.000487E-17
6.230000E+03	3.571183E-15	7.033123E-17
6.240000E+03	3.591193E-15	7.057909E-17
6.250000E+03	3.601255E-15	7.063322E-17
6.260000E+03	3.597295E-15	7.041562E-17
6.270000E+03	3.576036E-15	6.986448E-17
6.280000E+03	3.535145E-15	6.893678E-17
6.290000E+03	3.474121E-15	6.762535E-17
6.300000E+03	3.394461E-15	6.596169E-17
6.310000E+03	3.300727E-15	6.403638E-17
6.320000E+03	3.201610E-15	6.201914E-17
6.330000E+03	3.108025E-15	6.012158E-17
6.340000E+03	3.031485E-15	5.856561E-17
6.350000E+03	2.984122E-15	5.758407E-17
6.360000E+03	2.977188E-15	5.739212E-17
6.370000E+03	3.018825E-15	5.814476E-17
6.380000E+03	3.113120E-15	5.991917E-17
6.390000E+03	3.261024E-15	6.273308E-17
6.400000E+03	3.460647E-15	6.655065E-17
6.410000E+03	3.706036E-15	7.125923E-17
6.420000E+03	3.986488E-15	7.665618E-17
6.430000E+03	4.287789E-15	8.247227E-17
6.440000E+03	4.594593E-15	8.841713E-17
6.450000E+03	4.890313E-15	9.417631E-17
6.460000E+03	5.159320E-15	9.945296E-17
6.470000E+03	5.390817E-15	1.040419E-16
6.480000E+03	5.579054E-15	1.078337E-16
6.490000E+03	5.722806E-15	1.108045E-16
6.500000E+03	5.826424E-15	1.130368E-16
6.510000E+03	5.899551E-15	1.147141E-16
6.520000E+03	5.958043E-15	1.161414E-16
6.530000E+03	6.025120E-15	1.177701E-16
6.540000E+03	6.112008E-15	1.198215E-16
6.550000E+03	6.208666E-15	1.221014E-16
6.560000E+03	6.307786E-15	1.244675E-16
6.570000E+03	6.403864E-15	1.268109E-16
6.580000E+03	6.491164E-15	1.290170E-16
6.590000E+03	6.562770E-15	1.309453E-16
6.600000E+03	6.611189E-15	1.324415E-16
6.610000E+03	6.631461E-15	1.333993E-16
6.620000E+03	6.625364E-15	1.338464E-16
6.630000E+03	6.597463E-15	1.338671E-16
6.640000E+03	6.551980E-15	1.335402E-16
6.650000E+03	6.492919E-15	1.329413E-16
6.660000E+03	6.422888E-15	1.321184E-16
6.670000E+03	6.342868E-15	1.310871E-16
6.680000E+03	6.253542E-15	1.298570E-16
6.690000E+03	6.154986E-15	1.284252E-16
6.700000E+03	6.047554E-15	1.267950E-16
6.710000E+03	5.932458E-15	1.249875E-16
6.720000E+03	5.810635E-15	1.230191E-16
6.730000E+03	5.682669E-15	1.208985E-16
6.740000E+03	5.549081E-15	1.186340E-16
6.750000E+03	5.409806E-15	1.162211E-16
6.760000E+03	5.264907E-15	1.136585E-16
6.770000E+03	5.116728E-15	1.109944E-16
6.780000E+03	4.967686E-15	1.082797E-16
6.790000E+03	4.819930E-15	1.055604E-16
6.800000E+03	4.675555E-15	1.028826E-16
6.810000E+03	4.536440E-15	1.002884E-16
6.820000E+03	4.404059E-15	9.781175E-17
6.830000E+03	4.280441E-15	9.549976E-17
6.840000E+03	4.166760E-15	9.338122E-17
6.850000E+03	4.063821E-15	9.147700E-17
6.860000E+03	3.972577E-15	8.981176E-17
6.870000E+03	3.893639E-15	8.840267E-17
6.880000E+03	3.827827E-15	8.727188E-17
6.890000E+03	3.777031E-15	8.646631E-17
6.900000E+03	3.743214E-15	8.603510E-17
6.910000E+03	3.727664E-15	8.601245E-17
6.920000E+03	3.730404E-15	8.640353E-17
6.930000E+03	3.749869E-15	8.717641E-17
6.940000E+03	3.782345E-15	8.824829E-17
6.950000E+03	3.821499E-15	8.947362E-17
6.960000E+03	3.859008E-15	9.065797E-17
6.970000E+03	3.887899E-15	9.163599E-17
6.980000E+03	3.905735E-15	9.234761E-17
6.990000E+03	3.912557E-15	9.279090E-17
7.000000E+03	3.909225E-15	9.298361E-17
7.010000E+03	3.897884E-15	9.297457E-17
7.020000E+03	3.881128E-15	9.282409E-17
7.030000E+03	3.860831E-15	9.257594E-17
7.040000E+03	3.838718E-15	9.227091E-17
7.050000E+03	3.815955E-15	9.193673E-17
7.060000E+03	3.793114E-15	9.158716E-17
7.070000E+03	3.770551E-15	9.123083E-17
7.080000E+03	3.748339E-15	9.086954E-17
7.090000E+03	3.725909E-15	9.048965E-17
7.100000E+03	3.702669E-15	9.007675E-17
7.110000E+03	3.677704E-15	8.960856E-17
7.120000E+03	3.649806E-15	8.905552E-17
7.130000E+03	3.617864E-15	8.839038E-17
7.140000E+03	3.581123E-15	8.759448E-17
7.150000E+03	3.539795E-15	8.667291E-17
7.160000E+03	3.496184E-15	8.568210E-17
7.170000E+03	3.453238E-15	8.469458E-17
7.180000E+03	3.413156E-15	8.376473E-17
7.190000E+03	3.377538E-15	8.293235E-17
7.200000E+03	3.347053E-15	8.221436E-17
7.210000E+03	3.321931E-15	8.161686E-17
7.220000E+03	3.302738E-15	8.115409E-17
7.230000E+03	3.289646E-15	8.083051E-17
7.240000E+03	3.282414E-15	8.064040E-17
7.250000E+03	3.280359E-15	8.056700E-17
7.260000E+03	3.282190E-15	8.057855E-17
7.270000E+03	3.285974E-15	8.062760E-17
7.280000E+03	3.289700E-15	8.066478E-17
7.290000E+03	3.291092E-15	8.063435E-17
7.300000E+03	3.288028E-15	8.048465E-17
7.310000E+03	3.279149E-15	8.018287E-17
7.320000E+03	3.263574E-15	7.970811E-17
7.330000E+03	3.241042E-15	7.905490E-17
7.340000E+03	3.211967E-15	7.823433E-17
7.350000E+03	3.177347E-15	7.727175E-17
7.360000E+03	3.138904E-15	7.621008E-17
7.370000E+03	3.099443E-15	7.511826E-17
7.380000E+03	3.061991E-15	7.407018E-17
7.390000E+03	3.028824E-15	7.312100E-17
7.400000E+03	3.001580E-15	7.231002E-17
7.410000E+03	2.980817E-15	7.165023E-17
7.420000E+03	2.966347E-15	7.113645E-17
7.430000E+03	2.957544E-15	7.075300E-17
7.440000E+03	2.953084E-15	7.046767E-17
7.450000E+03	2.951272E-15	7.023960E-17
7.460000E+03	2.950610E-15	7.003309E-17
7.470000E+03	2.949180E-15	6.980283E-17
7.480000E+03	2.944946E-15	6.950125E-17
7.490000E+03	2.935902E-15	6.908215E-17
7.500000E+03	2.920155E-15	6.850251E-17
7.510000E+03	2.895979E-15	6.772386E-17
7.520000E+03	2.862916E-15	6.673794E-17
7.530000E+03	2.821000E-15	6.554798E-17
7.540000E+03	2.770428E-15	6.416115E-17
7.550000E+03	2.711789E-15	6.259361E-17
7.560000E+03	2.646069E-15	6.087053E-17
7.570000E+03	2.575121E-15	5.903656E-17
7.580000E+03	2.502091E-15	5.716543E-17
7.590000E+03	2.430538E-15	5.533915E-17
7.600000E+03	2.363729E-15	5.363200E-17
7.610000E+03	2.304174E-15	5.210008E-17
7.620000E+03	2.253984E-15	5.078966E-17
7.630000E+03	2.214559E-15	4.973041E-17
7.640000E+03	2.186697E-15	4.893813E-17
7.650000E+03	2.170621E-15	4.841555E-17
7.660000E+03	2.166279E-15	4.815936E-17
7.670000E+03	2.172931E-15	4.815113E-17
7.680000E+03	2.189575E-15	4.836689E-17
7.690000E+03	2.214751E-15	4.877316E-17
7.700000E+03	2.246925E-15	4.933528E-17
7.710000E+03	2.284187E-15	5.001098E-17
7.720000E+03	2.324435E-15	5.075437E-17
7.730000E+03	2.365677E-15	5.152260E-17
7.740000E+03	2.405950E-15	5.227404E-17
7.750000E+03	2.443234E-15	5.296625E-17
7.760000E+03	2.475599E-15	5.355909E-17
