#wls	flux	fluxerr
1.600000E+03	9.452087E-16	1.597031E-17
1.640000E+03	9.583970E-16	1.619314E-17
1.680000E+03	9.688285E-16	1.636940E-17
1.720000E+03	9.761441E-16	1.649300E-17
1.760000E+03	9.806729E-16	1.656952E-17
1.800000E+03	9.826405E-16	1.660276E-17
1.840000E+03	9.824355E-16	1.659930E-17
1.880000E+03	9.815942E-16	1.658508E-17
1.920000E+03	9.815015E-16	1.658352E-17
1.960000E+03	9.844441E-16	1.663324E-17
2.000000E+03	9.929159E-16	1.677638E-17
2.040000E+03	1.008145E-15	1.703369E-17
2.080000E+03	1.027352E-15	1.735821E-17
2.120000E+03	1.044728E-15	1.765180E-17
2.160000E+03	1.066051E-15	1.801206E-17
2.200000E+03	1.093346E-15	1.847325E-17
2.240000E+03	1.119419E-15	1.891378E-17
2.280000E+03	1.128828E-15	1.907276E-17
2.320000E+03	1.121486E-15	1.894870E-17
2.360000E+03	1.106947E-15	1.870305E-17
2.400000E+03	1.088868E-15	1.839759E-17
2.440000E+03	1.068531E-15	1.805398E-17
2.480000E+03	1.047358E-15	1.769623E-17
2.520000E+03	1.026963E-15	1.735164E-17
2.560000E+03	1.009341E-15	1.705390E-17
2.600000E+03	9.966359E-16	1.683923E-17
2.640000E+03	9.894266E-16	1.671742E-17
2.680000E+03	9.879329E-16	1.669218E-17
2.720000E+03	9.912927E-16	1.674895E-17
2.760000E+03	9.978521E-16	1.685978E-17
2.800000E+03	1.005447E-15	1.698809E-17
2.840000E+03	1.012118E-15	1.710081E-17
2.880000E+03	1.016435E-15	1.717375E-17
2.920000E+03	1.017304E-15	1.718844E-17
2.960000E+03	1.014071E-15	1.713381E-17
3.000000E+03	1.006691E-15	1.700911E-17
3.010000E+03	1.004271E-15	1.696823E-17
3.020000E+03	1.001671E-15	1.692430E-17
3.030000E+03	9.986887E-16	1.687391E-17
3.040000E+03	9.956448E-16	1.682248E-17
3.050000E+03	9.923392E-16	1.676663E-17
3.060000E+03	9.887830E-16	1.670654E-17
3.070000E+03	9.850886E-16	1.664412E-17
3.080000E+03	9.812662E-16	1.657954E-17
3.090000E+03	9.773272E-16	1.651298E-17
3.100000E+03	9.732834E-16	1.644466E-17
3.110000E+03	9.690526E-16	1.637318E-17
3.120000E+03	9.648416E-16	1.630203E-17
3.130000E+03	9.604754E-16	1.622826E-17
3.140000E+03	9.561591E-16	1.615533E-17
3.150000E+03	9.517236E-16	1.608039E-17
3.160000E+03	9.473724E-16	1.600687E-17
3.170000E+03	9.430329E-16	1.593355E-17
3.180000E+03	9.388149E-16	1.586228E-17
3.190000E+03	9.346505E-16	1.579192E-17
3.200000E+03	9.305640E-16	1.572287E-17
3.210000E+03	9.267517E-16	1.565846E-17
3.220000E+03	9.230657E-16	1.559618E-17
3.230000E+03	9.196184E-16	1.553793E-17
3.240000E+03	9.164369E-16	1.548418E-17
3.250000E+03	9.135503E-16	1.543541E-17
3.260000E+03	9.110699E-16	1.539350E-17
3.270000E+03	9.089456E-16	1.535760E-17
3.280000E+03	9.072109E-16	1.532830E-17
3.290000E+03	9.060579E-16	1.530881E-17
3.300000E+03	9.054400E-16	1.529837E-17
3.310000E+03	9.053148E-16	1.529626E-17
3.320000E+03	9.058714E-16	1.530566E-17
3.330000E+03	9.071412E-16	1.532712E-17
3.340000E+03	9.090790E-16	1.535986E-17
3.350000E+03	9.118616E-16	1.540687E-17
3.360000E+03	9.154340E-16	1.546723E-17
3.370000E+03	9.198086E-16	1.554115E-17
3.380000E+03	9.250594E-16	1.562986E-17
3.390000E+03	9.312434E-16	1.573435E-17
3.400000E+03	9.381778E-16	1.585151E-17
3.410000E+03	9.460184E-16	1.598399E-17
3.420000E+03	9.545242E-16	1.612770E-17
3.430000E+03	9.637059E-16	1.628284E-17
3.440000E+03	9.733838E-16	1.644636E-17
3.450000E+03	9.832579E-16	1.661319E-17
3.460000E+03	9.932689E-16	1.678234E-17
3.470000E+03	1.002896E-15	1.694500E-17
3.480000E+03	1.012121E-15	1.710085E-17
3.490000E+03	1.021030E-15	1.725140E-17
3.500000E+03	1.029760E-15	1.739890E-17
3.510000E+03	1.038642E-15	1.754897E-17
3.520000E+03	1.047757E-15	1.770297E-17
3.530000E+03	1.057275E-15	1.786378E-17
3.540000E+03	1.067239E-15	1.803214E-17
3.550000E+03	1.077639E-15	1.820785E-17
3.560000E+03	1.088471E-15	1.839088E-17
3.570000E+03	1.099546E-15	1.857800E-17
3.580000E+03	1.110823E-15	1.876854E-17
3.590000E+03	1.121975E-15	1.895697E-17
3.600000E+03	1.132869E-15	1.914103E-17
3.610000E+03	1.143660E-15	1.932336E-17
3.620000E+03	1.154423E-15	1.950521E-17
3.630000E+03	1.165258E-15	1.968827E-17
3.640000E+03	1.176379E-15	1.987617E-17
3.650000E+03	1.187917E-15	2.007112E-17
3.660000E+03	1.199982E-15	2.027498E-17
3.670000E+03	1.212609E-15	2.048831E-17
3.680000E+03	1.225935E-15	2.071347E-17
3.690000E+03	1.240023E-15	2.095150E-17
3.700000E+03	1.254870E-15	2.120236E-17
3.710000E+03	1.270518E-15	2.146675E-17
3.720000E+03	1.287005E-15	2.174532E-17
3.730000E+03	1.304361E-15	2.203857E-17
3.740000E+03	1.322665E-15	2.234783E-17
3.750000E+03	1.341815E-15	2.267140E-17
3.760000E+03	1.361822E-15	2.300944E-17
3.770000E+03	1.382740E-15	2.336287E-17
3.780000E+03	1.404502E-15	2.373056E-17
3.790000E+03	1.427086E-15	2.411214E-17
3.800000E+03	1.450456E-15	2.450700E-17
3.810000E+03	1.474504E-15	2.491331E-17
3.820000E+03	1.499156E-15	2.532984E-17
3.830000E+03	1.524376E-15	2.575595E-17
3.840000E+03	1.549982E-15	2.618860E-17
3.850000E+03	1.575706E-15	2.662323E-17
3.860000E+03	1.601523E-15	2.705943E-17
3.870000E+03	1.627036E-15	2.749051E-17
3.880000E+03	1.652036E-15	2.791291E-17
3.890000E+03	1.676170E-15	2.832067E-17
3.900000E+03	1.699171E-15	2.870931E-17
3.910000E+03	1.720600E-15	2.907137E-17
3.920000E+03	1.740178E-15	2.940216E-17
3.930000E+03	1.757535E-15	2.969543E-17
3.940000E+03	1.772378E-15	2.994622E-17
3.950000E+03	1.784404E-15	3.014940E-17
3.960000E+03	1.793444E-15	3.030215E-17
3.970000E+03	1.799225E-15	3.039983E-17
3.980000E+03	1.801665E-15	3.044105E-17
3.990000E+03	1.800617E-15	3.042335E-17
4.000000E+03	1.795978E-15	3.034495E-17
4.010000E+03	1.787775E-15	3.020636E-17
4.020000E+03	1.776031E-15	3.000793E-17
4.030000E+03	1.760686E-15	2.974867E-17
4.040000E+03	1.742012E-15	2.943314E-17
4.050000E+03	1.720088E-15	2.906271E-17
4.060000E+03	1.695250E-15	2.864306E-17
4.070000E+03	1.667886E-15	2.818071E-17
4.080000E+03	1.638397E-15	2.768245E-17
4.090000E+03	1.607434E-15	2.715931E-17
4.100000E+03	1.575550E-15	2.662060E-17
4.110000E+03	1.543551E-15	2.607993E-17
4.120000E+03	1.512184E-15	2.554996E-17
4.130000E+03	1.482234E-15	2.504391E-17
4.140000E+03	1.454550E-15	2.457618E-17
4.150000E+03	1.429906E-15	2.415979E-17
4.160000E+03	1.409069E-15	2.380771E-17
4.170000E+03	1.392754E-15	2.353206E-17
4.172000E+03	1.614239E-15	2.727428E-17
4.176000E+03	1.585115E-15	2.678221E-17
4.180000E+03	1.557116E-15	2.630913E-17
4.184000E+03	1.525249E-15	2.577071E-17
4.188000E+03	1.489288E-15	2.516310E-17
4.192000E+03	1.453682E-15	2.456151E-17
4.196000E+03	1.420023E-15	2.399280E-17
4.200000E+03	1.388414E-15	2.345874E-17
4.204000E+03	1.361393E-15	2.300218E-17
4.208000E+03	1.340163E-15	2.264348E-17
4.212000E+03	1.323640E-15	2.236430E-17
4.216000E+03	1.315233E-15	2.222226E-17
4.220000E+03	1.315344E-15	2.222413E-17
4.224000E+03	1.321246E-15	2.232386E-17
4.228000E+03	1.331784E-15	2.250191E-17
4.232000E+03	1.351153E-15	2.282917E-17
4.236000E+03	1.376887E-15	2.326396E-17
4.240000E+03	1.405548E-15	2.374823E-17
4.244000E+03	1.436136E-15	2.426504E-17
4.248000E+03	1.466168E-15	2.477246E-17
4.252000E+03	1.494057E-15	2.524368E-17
4.256000E+03	1.519755E-15	2.567787E-17
4.260000E+03	1.549065E-15	2.617310E-17
4.264000E+03	1.583162E-15	2.674920E-17
4.268000E+03	1.606250E-15	2.713931E-17
4.272000E+03	1.624804E-15	2.745279E-17
4.276000E+03	1.639771E-15	2.770568E-17
4.280000E+03	1.653656E-15	2.794027E-17
4.284000E+03	1.667454E-15	2.817340E-17
4.288000E+03	1.680222E-15	2.838914E-17
4.292000E+03	1.689718E-15	2.854959E-17
4.296000E+03	1.697678E-15	2.868407E-17
4.300000E+03	1.705224E-15	2.881157E-17
4.304000E+03	1.707440E-15	2.884902E-17
4.308000E+03	1.712404E-15	2.893289E-17
4.312000E+03	1.721363E-15	2.908425E-17
4.316000E+03	1.731713E-15	2.925914E-17
4.320000E+03	1.744270E-15	2.947130E-17
4.324000E+03	1.755267E-15	2.965710E-17
4.328000E+03	1.763892E-15	2.980283E-17
4.332000E+03	1.777797E-15	3.003777E-17
4.336000E+03	1.788822E-15	3.022405E-17
4.340000E+03	1.795418E-15	3.033549E-17
4.344000E+03	1.800028E-15	3.041338E-17
4.348000E+03	1.803239E-15	3.046763E-17
4.352000E+03	1.804110E-15	3.048236E-17
4.356000E+03	1.803738E-15	3.047607E-17
4.360000E+03	1.802655E-15	3.045777E-17
4.364000E+03	1.800786E-15	3.042620E-17
4.368000E+03	1.794861E-15	3.032609E-17
4.372000E+03	1.790106E-15	3.024574E-17
4.376000E+03	1.786364E-15	3.018253E-17
4.380000E+03	1.781131E-15	3.009411E-17
4.384000E+03	1.776358E-15	3.001345E-17
4.388000E+03	1.769839E-15	2.990330E-17
4.392000E+03	1.760667E-15	2.974834E-17
4.396000E+03	1.747251E-15	2.952166E-17
4.400000E+03	1.732326E-15	2.926950E-17
4.404000E+03	1.716931E-15	2.900938E-17
4.408000E+03	1.699649E-15	2.871738E-17
4.412000E+03	1.683666E-15	2.844732E-17
4.416000E+03	1.671228E-15	2.823718E-17
4.420000E+03	1.656853E-15	2.799430E-17
4.424000E+03	1.641250E-15	2.773067E-17
4.428000E+03	1.624849E-15	2.745356E-17
4.432000E+03	1.614259E-15	2.727462E-17
4.436000E+03	1.607934E-15	2.716775E-17
4.440000E+03	1.604914E-15	2.711673E-17
4.444000E+03	1.603785E-15	2.709765E-17
4.448000E+03	1.603890E-15	2.709943E-17
4.452000E+03	1.605731E-15	2.713052E-17
4.456000E+03	1.611648E-15	2.723050E-17
4.460000E+03	1.623170E-15	2.742518E-17
4.464000E+03	1.640820E-15	2.772340E-17
4.468000E+03	1.660671E-15	2.805880E-17
4.472000E+03	1.687268E-15	2.850819E-17
4.476000E+03	1.717919E-15	2.902607E-17
4.480000E+03	1.750181E-15	2.957117E-17
4.484000E+03	1.791888E-15	3.027584E-17
4.488000E+03	1.841297E-15	3.111068E-17
4.492000E+03	1.890347E-15	3.193942E-17
4.496000E+03	1.939514E-15	3.277015E-17
4.500000E+03	1.991732E-15	3.365243E-17
4.504000E+03	2.043664E-15	3.452988E-17
4.508000E+03	2.095286E-15	3.540209E-17
4.512000E+03	2.147073E-15	3.627708E-17
4.516000E+03	2.197272E-15	3.712524E-17
4.520000E+03	2.243382E-15	3.790432E-17
4.524000E+03	2.295215E-15	3.878010E-17
4.528000E+03	2.351668E-15	3.973393E-17
4.532000E+03	2.406131E-15	4.065414E-17
4.536000E+03	2.460607E-15	4.157457E-17
4.540000E+03	2.514522E-15	4.248552E-17
4.544000E+03	2.568899E-15	4.340429E-17
4.548000E+03	2.623239E-15	4.432241E-17
4.552000E+03	2.677792E-15	4.524414E-17
4.556000E+03	2.729562E-15	4.611885E-17
4.560000E+03	2.780298E-15	4.697610E-17
4.564000E+03	2.830751E-15	4.782855E-17
4.568000E+03	2.877678E-15	4.862143E-17
4.572000E+03	2.921333E-15	4.935903E-17
4.576000E+03	2.959226E-15	4.999927E-17
4.580000E+03	2.994354E-15	5.059279E-17
4.584000E+03	3.033938E-15	5.126161E-17
4.588000E+03	3.074741E-15	5.195101E-17
4.592000E+03	3.115515E-15	5.263994E-17
4.596000E+03	3.154520E-15	5.329897E-17
4.600000E+03	3.192503E-15	5.394073E-17
4.604000E+03	3.233691E-15	5.463665E-17
4.608000E+03	3.278579E-15	5.539508E-17
4.612000E+03	3.321697E-15	5.612359E-17
4.616000E+03	3.367516E-15	5.689777E-17
4.620000E+03	3.412312E-15	5.765463E-17
4.624000E+03	3.452361E-15	5.833131E-17
4.628000E+03	3.485931E-15	5.889852E-17
4.632000E+03	3.515759E-15	5.940249E-17
4.636000E+03	3.543334E-15	5.986840E-17
4.640000E+03	3.561968E-15	6.018323E-17
4.644000E+03	3.567953E-15	6.028436E-17
4.648000E+03	3.562293E-15	6.018872E-17
4.652000E+03	3.543265E-15	5.986723E-17
4.656000E+03	3.507419E-15	5.926157E-17
4.660000E+03	3.455267E-15	5.838041E-17
4.664000E+03	3.386331E-15	5.721566E-17
4.668000E+03	3.301122E-15	5.577596E-17
4.672000E+03	3.198419E-15	5.404070E-17
4.676000E+03	3.086892E-15	5.215632E-17
4.680000E+03	2.964570E-15	5.008956E-17
4.684000E+03	2.831959E-15	4.784895E-17
4.688000E+03	2.693514E-15	4.550978E-17
4.692000E+03	2.551213E-15	4.310546E-17
4.696000E+03	2.412264E-15	4.075777E-17
4.700000E+03	2.280881E-15	3.853791E-17
4.704000E+03	2.156932E-15	3.644366E-17
4.708000E+03	2.044943E-15	3.455148E-17
4.712000E+03	1.949141E-15	3.293280E-17
4.716000E+03	1.870715E-15	3.160772E-17
4.720000E+03	1.808244E-15	3.055221E-17
4.724000E+03	1.765503E-15	2.983005E-17
4.728000E+03	1.743604E-15	2.946004E-17
4.732000E+03	1.741662E-15	2.942724E-17
4.736000E+03	1.755186E-15	2.965573E-17
4.740000E+03	1.789443E-15	3.023453E-17
4.744000E+03	1.837138E-15	3.104040E-17
4.748000E+03	1.896271E-15	3.203951E-17
4.752000E+03	1.964988E-15	3.320056E-17
4.756000E+03	2.042788E-15	3.451507E-17
4.760000E+03	2.124535E-15	3.589628E-17
4.764000E+03	2.205540E-15	3.726495E-17
4.768000E+03	2.286809E-15	3.863807E-17
4.772000E+03	2.363635E-15	3.993613E-17
4.776000E+03	2.432791E-15	4.110458E-17
4.780000E+03	2.496094E-15	4.217417E-17
4.784000E+03	2.553038E-15	4.313628E-17
4.788000E+03	2.599664E-15	4.392408E-17
4.792000E+03	2.635247E-15	4.452529E-17
4.796000E+03	2.665179E-15	4.503103E-17
4.800000E+03	2.688734E-15	4.542902E-17
4.804000E+03	2.704941E-15	4.570286E-17
4.808000E+03	2.715029E-15	4.587330E-17
4.812000E+03	2.722909E-15	4.600645E-17
4.816000E+03	2.728589E-15	4.610241E-17
4.820000E+03	2.732067E-15	4.616117E-17
4.824000E+03	2.735543E-15	4.621990E-17
4.828000E+03	2.746334E-15	4.640223E-17
4.832000E+03	2.760046E-15	4.663391E-17
4.836000E+03	2.777892E-15	4.693544E-17
4.840000E+03	2.799869E-15	4.730677E-17
4.844000E+03	2.823050E-15	4.769843E-17
4.848000E+03	2.845728E-15	4.808161E-17
4.852000E+03	2.869852E-15	4.848920E-17
4.856000E+03	2.892500E-15	4.887186E-17
4.860000E+03	2.912701E-15	4.921318E-17
4.864000E+03	2.929240E-15	4.949262E-17
4.868000E+03	2.942850E-15	4.972258E-17
4.872000E+03	2.951591E-15	4.987026E-17
4.876000E+03	2.955467E-15	4.993575E-17
4.880000E+03	2.956669E-15	4.995606E-17
4.884000E+03	2.953742E-15	4.990661E-17
4.888000E+03	2.945479E-15	4.976699E-17
4.892000E+03	2.941102E-15	4.969305E-17
4.896000E+03	2.936972E-15	4.962326E-17
4.900000E+03	2.934785E-15	4.958632E-17
4.904000E+03	2.932116E-15	4.954121E-17
4.908000E+03	2.931387E-15	4.952889E-17
4.912000E+03	2.931869E-15	4.953705E-17
4.916000E+03	2.937195E-15	4.962704E-17
4.920000E+03	2.945666E-15	4.977015E-17
4.924000E+03	2.958730E-15	4.999089E-17
4.928000E+03	2.978801E-15	5.033000E-17
4.932000E+03	3.004905E-15	5.077107E-17
4.936000E+03	3.033410E-15	5.125269E-17
4.940000E+03	3.065765E-15	5.179936E-17
4.944000E+03	3.102689E-15	5.242322E-17
4.948000E+03	3.142005E-15	5.308751E-17
4.952000E+03	3.181537E-15	5.375545E-17
4.956000E+03	3.219836E-15	5.440255E-17
4.960000E+03	3.254010E-15	5.497996E-17
4.964000E+03	3.287198E-15	5.554070E-17
4.968000E+03	3.316023E-15	5.602773E-17
4.972000E+03	3.339287E-15	5.642081E-17
4.976000E+03	3.358199E-15	5.674034E-17
4.980000E+03	3.373486E-15	5.699864E-17
4.984000E+03	3.386597E-15	5.722015E-17
4.988000E+03	3.393922E-15	5.734392E-17
4.992000E+03	3.391376E-15	5.730089E-17
4.996000E+03	3.378248E-15	5.707908E-17
5.000000E+03	3.355268E-15	5.669081E-17
5.004000E+03	3.324609E-15	5.617281E-17
5.008000E+03	3.285320E-15	5.550898E-17
5.012000E+03	3.236926E-15	5.469131E-17
5.016000E+03	3.179919E-15	5.372811E-17
5.020000E+03	3.114785E-15	5.262759E-17
5.024000E+03	3.043693E-15	5.142642E-17
5.028000E+03	2.969526E-15	5.017330E-17
5.032000E+03	2.893491E-15	4.888861E-17
5.036000E+03	2.816306E-15	4.758448E-17
5.040000E+03	2.737973E-15	4.626096E-17
5.044000E+03	2.663764E-15	4.500713E-17
5.048000E+03	2.593917E-15	4.382699E-17
5.052000E+03	2.527228E-15	4.270020E-17
5.056000E+03	2.465131E-15	4.165101E-17
5.060000E+03	2.411214E-15	4.074003E-17
5.064000E+03	2.365538E-15	3.996828E-17
5.068000E+03	2.330752E-15	3.938053E-17
5.072000E+03	2.304287E-15	3.893337E-17
5.076000E+03	2.288308E-15	3.866340E-17
5.080000E+03	2.282378E-15	3.856321E-17
5.084000E+03	2.284981E-15	3.860719E-17
5.088000E+03	2.294964E-15	3.877586E-17
5.092000E+03	2.309716E-15	3.902510E-17
5.096000E+03	2.329186E-15	3.935407E-17
5.100000E+03	2.351626E-15	3.973322E-17
5.104000E+03	2.376559E-15	4.015449E-17
5.108000E+03	2.402145E-15	4.058678E-17
5.112000E+03	2.427143E-15	4.100915E-17
5.116000E+03	2.453796E-15	4.145949E-17
5.120000E+03	2.478527E-15	4.187734E-17
5.124000E+03	2.501576E-15	4.226679E-17
5.128000E+03	2.525328E-15	4.266811E-17
5.132000E+03	2.548828E-15	4.306516E-17
5.136000E+03	2.575170E-15	4.351024E-17
5.140000E+03	2.599595E-15	4.392292E-17
5.144000E+03	2.619488E-15	4.425903E-17
5.148000E+03	2.636755E-15	4.455078E-17
5.152000E+03	2.651636E-15	4.480221E-17
5.156000E+03	2.663422E-15	4.500134E-17
5.160000E+03	2.670927E-15	4.512815E-17
5.164000E+03	2.675579E-15	4.520675E-17
5.168000E+03	2.678094E-15	4.524925E-17
5.172000E+03	2.677762E-15	4.524363E-17
5.176000E+03	2.675296E-15	4.520197E-17
5.180000E+03	2.670700E-15	4.512431E-17
5.184000E+03	2.664921E-15	4.502667E-17
5.188000E+03	2.658912E-15	4.492514E-17
5.192000E+03	2.652196E-15	4.481168E-17
5.196000E+03	2.645724E-15	4.470232E-17
5.200000E+03	2.639256E-15	4.459303E-17
5.204000E+03	2.632794E-15	4.448385E-17
5.208000E+03	2.627757E-15	4.439875E-17
5.212000E+03	2.625565E-15	4.436171E-17
5.216000E+03	2.626449E-15	4.437665E-17
5.220000E+03	2.631591E-15	4.446353E-17
5.224000E+03	2.639331E-15	4.459430E-17
5.228000E+03	2.651323E-15	4.479691E-17
5.232000E+03	2.668978E-15	4.509522E-17
5.236000E+03	2.688988E-15	4.543330E-17
5.240000E+03	2.710167E-15	4.579116E-17
5.244000E+03	2.732045E-15	4.616080E-17
5.248000E+03	2.757923E-15	4.659804E-17
5.252000E+03	2.788035E-15	4.710681E-17
5.256000E+03	2.820489E-15	4.765515E-17
5.260000E+03	2.853163E-15	4.820722E-17
5.264000E+03	2.886056E-15	4.876299E-17
5.268000E+03	2.918932E-15	4.931846E-17
5.272000E+03	2.951086E-15	4.986173E-17
5.276000E+03	2.984871E-15	5.043257E-17
5.280000E+03	3.021701E-15	5.105485E-17
5.284000E+03	3.059218E-15	5.168874E-17
5.288000E+03	3.098835E-15	5.235810E-17
5.292000E+03	3.139138E-15	5.303907E-17
5.296000E+03	3.180361E-15	5.373557E-17
5.300000E+03	3.223445E-15	5.446352E-17
5.304000E+03	3.268152E-15	5.521891E-17
5.308000E+03	3.313779E-15	5.598981E-17
5.312000E+03	3.359382E-15	5.676032E-17
5.316000E+03	3.405433E-15	5.753841E-17
5.320000E+03	3.451932E-15	5.832406E-17
5.324000E+03	3.497703E-15	5.909742E-17
5.328000E+03	3.539934E-15	5.981095E-17
5.332000E+03	3.581206E-15	6.050828E-17
5.336000E+03	3.621288E-15	6.118550E-17
5.340000E+03	3.656895E-15	6.178713E-17
5.344000E+03	3.688033E-15	6.231324E-17
5.348000E+03	3.715878E-15	6.278371E-17
5.352000E+03	3.740430E-15	6.319855E-17
5.356000E+03	3.758885E-15	6.351036E-17
5.360000E+03	3.771011E-15	6.371524E-17
5.364000E+03	3.780793E-15	6.388051E-17
5.368000E+03	3.787765E-15	6.399831E-17
5.372000E+03	3.793099E-15	6.408844E-17
5.376000E+03	3.796563E-15	6.414696E-17
5.380000E+03	3.799795E-15	6.420157E-17
5.384000E+03	3.801860E-15	6.423647E-17
5.388000E+03	3.802291E-15	6.424375E-17
5.392000E+03	3.804363E-15	6.427875E-17
5.396000E+03	3.807371E-15	6.432958E-17
5.400000E+03	3.811549E-15	6.440017E-17
5.404000E+03	3.815028E-15	6.445895E-17
5.408000E+03	3.818043E-15	6.450989E-17
5.412000E+03	3.820360E-15	6.454905E-17
5.416000E+03	3.822679E-15	6.458823E-17
5.420000E+03	3.824069E-15	6.461172E-17
5.424000E+03	3.823830E-15	6.460767E-17
5.428000E+03	3.824061E-15	6.461157E-17
5.432000E+03	3.823596E-15	6.460372E-17
5.436000E+03	3.822204E-15	6.458020E-17
5.440000E+03	3.820584E-15	6.455283E-17
5.444000E+03	3.819202E-15	6.452948E-17
5.448000E+03	3.817825E-15	6.450621E-17
5.452000E+03	3.816220E-15	6.447909E-17
5.456000E+03	3.814853E-15	6.445599E-17
5.460000E+03	3.814421E-15	6.444869E-17
5.464000E+03	3.815157E-15	6.446112E-17
5.468000E+03	3.817757E-15	6.450507E-17
5.472000E+03	3.821756E-15	6.457263E-17
5.476000E+03	3.827618E-15	6.467168E-17
5.480000E+03	3.835806E-15	6.481001E-17
5.484000E+03	3.847014E-15	6.499938E-17
5.488000E+03	3.860314E-15	6.522410E-17
5.492000E+03	3.874540E-15	6.546446E-17
5.496000E+03	3.890390E-15	6.573227E-17
5.500000E+03	3.906470E-15	6.600396E-17
5.504000E+03	3.923940E-15	6.629913E-17
5.508000E+03	3.937925E-15	6.653542E-17
5.512000E+03	3.950982E-15	6.675603E-17
5.516000E+03	3.964732E-15	6.698836E-17
5.520000E+03	3.974770E-15	6.715797E-17
5.524000E+03	3.984346E-15	6.731977E-17
5.528000E+03	3.992531E-15	6.745806E-17
5.532000E+03	3.997009E-15	6.753372E-17
5.536000E+03	3.998941E-15	6.756636E-17
5.540000E+03	4.001340E-15	6.760688E-17
5.544000E+03	4.003048E-15	6.763575E-17
5.548000E+03	3.994339E-15	6.748860E-17
5.552000E+03	3.987722E-15	6.737681E-17
5.556000E+03	3.986205E-15	6.735117E-17
5.560000E+03	3.984925E-15	6.732954E-17
5.564000E+03	3.979485E-15	6.723762E-17
5.568000E+03	3.969887E-15	6.707546E-17
5.572000E+03	3.956829E-15	6.685483E-17
5.576000E+03	3.942393E-15	6.661092E-17
5.580000E+03	3.929585E-15	6.639452E-17
5.584000E+03	3.918637E-15	6.620954E-17
5.588000E+03	3.907696E-15	6.602468E-17
5.592000E+03	3.896997E-15	6.584390E-17
5.596000E+03	3.886767E-15	6.567106E-17
5.600000E+03	3.874236E-15	6.545933E-17
5.604000E+03	3.857326E-15	6.517363E-17
