#wls	flux	fluxerr
1.600000E+03	2.815173E-16	9.349470E-18
1.640000E+03	2.988391E-16	9.913723E-18
1.680000E+03	3.172978E-16	1.051406E-17
1.720000E+03	3.367852E-16	1.114671E-17
1.760000E+03	3.572559E-16	1.180999E-17
1.800000E+03	3.785579E-16	1.249869E-17
1.840000E+03	4.004760E-16	1.320554E-17
1.880000E+03	4.227270E-16	1.392105E-17
1.920000E+03	4.450329E-16	1.463595E-17
1.960000E+03	4.669101E-16	1.533428E-17
2.000000E+03	4.879705E-16	1.600327E-17
2.040000E+03	5.077216E-16	1.662683E-17
2.080000E+03	5.256623E-16	1.718867E-17
2.120000E+03	5.413159E-16	1.767343E-17
2.160000E+03	5.542625E-16	1.806768E-17
2.200000E+03	5.642611E-16	1.836394E-17
2.240000E+03	5.710085E-16	1.855277E-17
2.280000E+03	5.745998E-16	1.863773E-17
2.320000E+03	5.749962E-16	1.861808E-17
2.360000E+03	5.723771E-16	1.850014E-17
2.400000E+03	5.671180E-16	1.829653E-17
2.440000E+03	5.595895E-16	1.801967E-17
2.480000E+03	5.502175E-16	1.768368E-17
2.520000E+03	5.395311E-16	1.730591E-17
2.560000E+03	5.279721E-16	1.690079E-17
2.600000E+03	5.159578E-16	1.648185E-17
2.640000E+03	5.038649E-16	1.606122E-17
2.680000E+03	4.921519E-16	1.565357E-17
2.720000E+03	4.810071E-16	1.526483E-17
2.760000E+03	4.707566E-16	1.490524E-17
2.800000E+03	4.614148E-16	1.457511E-17
2.840000E+03	4.531906E-16	1.428084E-17
2.880000E+03	4.461735E-16	1.402503E-17
2.920000E+03	4.402971E-16	1.380534E-17
2.960000E+03	4.356201E-16	1.362336E-17
3.000000E+03	4.320554E-16	1.347609E-17
3.010000E+03	4.313144E-16	1.344393E-17
3.020000E+03	4.306494E-16	1.341412E-17
3.030000E+03	4.300578E-16	1.338658E-17
3.040000E+03	4.294889E-16	1.335972E-17
3.050000E+03	4.290372E-16	1.333648E-17
3.060000E+03	4.286034E-16	1.331377E-17
3.070000E+03	4.281858E-16	1.329154E-17
3.080000E+03	4.278770E-16	1.327265E-17
3.090000E+03	4.275794E-16	1.325407E-17
3.100000E+03	4.273842E-16	1.323863E-17
3.110000E+03	4.271950E-16	1.322334E-17
3.120000E+03	4.270098E-16	1.320813E-17
3.130000E+03	4.269179E-16	1.319577E-17
3.140000E+03	4.268698E-16	1.318472E-17
3.150000E+03	4.268176E-16	1.317350E-17
3.160000E+03	4.268040E-16	1.316342E-17
3.170000E+03	4.268704E-16	1.315575E-17
3.180000E+03	4.269245E-16	1.314766E-17
3.190000E+03	4.270081E-16	1.314043E-17
3.200000E+03	4.271184E-16	1.313396E-17
3.210000E+03	4.272524E-16	1.312818E-17
3.220000E+03	4.273643E-16	1.312165E-17
3.230000E+03	4.275377E-16	1.311696E-17
3.240000E+03	4.277265E-16	1.311269E-17
3.250000E+03	4.279281E-16	1.310875E-17
3.260000E+03	4.280984E-16	1.310379E-17
3.270000E+03	4.283189E-16	1.310032E-17
3.280000E+03	4.285454E-16	1.309696E-17
3.290000E+03	4.287346E-16	1.309241E-17
3.300000E+03	4.289670E-16	1.308912E-17
3.310000E+03	4.291997E-16	1.308577E-17
3.320000E+03	4.294310E-16	1.308233E-17
3.330000E+03	4.296597E-16	1.307874E-17
3.340000E+03	4.298846E-16	1.307498E-17
3.350000E+03	4.301048E-16	1.307101E-17
3.360000E+03	4.303197E-16	1.306682E-17
3.370000E+03	4.305287E-16	1.306240E-17
3.380000E+03	4.307705E-16	1.305890E-17
3.390000E+03	4.309676E-16	1.305399E-17
3.400000E+03	4.311972E-16	1.305001E-17
3.410000E+03	4.314215E-16	1.304580E-17
3.420000E+03	4.316416E-16	1.304141E-17
3.430000E+03	4.318585E-16	1.303686E-17
3.440000E+03	4.321109E-16	1.303331E-17
3.450000E+03	4.323263E-16	1.302859E-17
3.460000E+03	4.325806E-16	1.302498E-17
3.470000E+03	4.328392E-16	1.302144E-17
3.480000E+03	4.331050E-16	1.301804E-17
3.490000E+03	4.334167E-16	1.301596E-17
3.500000E+03	4.337413E-16	1.301421E-17
3.510000E+03	4.340826E-16	1.301288E-17
3.520000E+03	4.344446E-16	1.301211E-17
3.530000E+03	4.348313E-16	1.301201E-17
3.540000E+03	4.352816E-16	1.301373E-17
3.550000E+03	4.357653E-16	1.301638E-17
3.560000E+03	4.363211E-16	1.302111E-17
3.570000E+03	4.368865E-16	1.302604E-17
3.580000E+03	4.375339E-16	1.303333E-17
3.590000E+03	4.382685E-16	1.304313E-17
3.600000E+03	4.390292E-16	1.305361E-17
3.610000E+03	4.398879E-16	1.306692E-17
3.620000E+03	4.408500E-16	1.308319E-17
3.630000E+03	4.418562E-16	1.310067E-17
3.640000E+03	4.429773E-16	1.312144E-17
3.650000E+03	4.442187E-16	1.314566E-17
3.660000E+03	4.455543E-16	1.317254E-17
3.670000E+03	4.469900E-16	1.320226E-17
3.680000E+03	4.485318E-16	1.323496E-17
3.690000E+03	4.502165E-16	1.327175E-17
3.700000E+03	4.520182E-16	1.331183E-17
3.710000E+03	4.539735E-16	1.335627E-17
3.720000E+03	4.560560E-16	1.340429E-17
3.730000E+03	4.582707E-16	1.345601E-17
3.740000E+03	4.606526E-16	1.351246E-17
3.750000E+03	4.631751E-16	1.357284E-17
3.760000E+03	4.658417E-16	1.363723E-17
3.770000E+03	4.686861E-16	1.370662E-17
3.780000E+03	4.716805E-16	1.378016E-17
3.790000E+03	4.748570E-16	1.385879E-17
3.800000E+03	4.781568E-16	1.394077E-17
3.810000E+03	4.816712E-16	1.402875E-17
3.820000E+03	4.853100E-16	1.412009E-17
3.830000E+03	4.891327E-16	1.421649E-17
3.840000E+03	4.931081E-16	1.431704E-17
3.850000E+03	4.972643E-16	1.442254E-17
3.860000E+03	5.015685E-16	1.453202E-17
3.870000E+03	5.060172E-16	1.464537E-17
3.880000E+03	5.106065E-16	1.476244E-17
3.890000E+03	5.153614E-16	1.488397E-17
3.900000E+03	5.202466E-16	1.500890E-17
3.910000E+03	5.252560E-16	1.513705E-17
3.920000E+03	5.303832E-16	1.526822E-17
3.930000E+03	5.356512E-16	1.540307E-17
3.940000E+03	5.410228E-16	1.554050E-17
3.950000E+03	5.464905E-16	1.568029E-17
3.960000E+03	5.520466E-16	1.582222E-17
3.970000E+03	5.576835E-16	1.596605E-17
3.980000E+03	5.634243E-16	1.611243E-17
3.990000E+03	5.692008E-16	1.625940E-17
4.000000E+03	5.750673E-16	1.640851E-17
4.010000E+03	5.809869E-16	1.655871E-17
4.020000E+03	5.869236E-16	1.670894E-17
4.030000E+03	5.929334E-16	1.686082E-17
4.040000E+03	5.989815E-16	1.701333E-17
4.050000E+03	6.050342E-16	1.716552E-17
4.060000E+03	6.111504E-16	1.731905E-17
4.070000E+03	6.172669E-16	1.747213E-17
4.080000E+03	6.234139E-16	1.762561E-17
4.090000E+03	6.295914E-16	1.777948E-17
4.100000E+03	6.358001E-16	1.793377E-17
4.110000E+03	6.420106E-16	1.808763E-17
4.120000E+03	6.482861E-16	1.824285E-17
4.130000E+03	6.545668E-16	1.839774E-17
4.140000E+03	6.608542E-16	1.855233E-17
4.150000E+03	6.671810E-16	1.870755E-17
4.160000E+03	6.735482E-16	1.886341E-17
4.170000E+03	6.799245E-16	1.901903E-17
4.180000E+03	6.863403E-16	1.917527E-17
4.190000E+03	6.927619E-16	1.933117E-17
4.200000E+03	6.991850E-16	1.948662E-17
4.210000E+03	7.056349E-16	1.964231E-17
4.220000E+03	7.120720E-16	1.979715E-17
4.230000E+03	7.185171E-16	1.995171E-17
4.240000E+03	7.248937E-16	2.010386E-17
4.250000E+03	7.312485E-16	2.025492E-17
4.260000E+03	7.375310E-16	2.040347E-17
4.270000E+03	7.437191E-16	2.054892E-17
4.280000E+03	7.497876E-16	2.069058E-17
4.290000E+03	7.557084E-16	2.082769E-17
4.300000E+03	7.614506E-16	2.095942E-17
4.310000E+03	7.669809E-16	2.108486E-17
4.320000E+03	7.722632E-16	2.120304E-17
4.330000E+03	7.772286E-16	2.131211E-17
4.340000E+03	7.818697E-16	2.141189E-17
4.350000E+03	7.861471E-16	2.150134E-17
4.360000E+03	7.900220E-16	2.157944E-17
4.370000E+03	7.934264E-16	2.164437E-17
4.380000E+03	7.963282E-16	2.169532E-17
4.390000E+03	7.987655E-16	2.173337E-17
4.400000E+03	8.006341E-16	2.175574E-17
4.410000E+03	8.019984E-16	2.176424E-17
4.420000E+03	8.028687E-16	2.175920E-17
4.430000E+03	8.031999E-16	2.173946E-17
4.440000E+03	8.030720E-16	2.170723E-17
4.450000E+03	8.025049E-16	2.166311E-17
4.460000E+03	8.014600E-16	2.160610E-17
4.470000E+03	7.999891E-16	2.153764E-17
4.480000E+03	7.981426E-16	2.145914E-17
4.490000E+03	7.959114E-16	2.137039E-17
4.500000E+03	7.932870E-16	2.127121E-17
4.510000E+03	7.903465E-16	2.116372E-17
4.520000E+03	7.870517E-16	2.104691E-17
4.530000E+03	7.834779E-16	2.092284E-17
4.540000E+03	7.795877E-16	2.079054E-17
4.550000E+03	7.754277E-16	2.065130E-17
4.560000E+03	7.710173E-16	2.050566E-17
4.570000E+03	7.663495E-16	2.035345E-17
4.580000E+03	7.614987E-16	2.019669E-17
4.590000E+03	7.564335E-16	2.003456E-17
4.600000E+03	7.511782E-16	1.986774E-17
4.610000E+03	7.457829E-16	1.969756E-17
4.620000E+03	7.402732E-16	1.952472E-17
4.630000E+03	7.346509E-16	1.934927E-17
4.640000E+03	7.289691E-16	1.917264E-17
4.650000E+03	7.232317E-16	1.899493E-17
4.660000E+03	7.174927E-16	1.881757E-17
4.670000E+03	7.117576E-16	1.864069E-17
4.680000E+03	7.060796E-16	1.846570E-17
4.690000E+03	7.004647E-16	1.829274E-17
4.700000E+03	6.949643E-16	1.812315E-17
4.710000E+03	6.895610E-16	1.795647E-17
4.720000E+03	6.843265E-16	1.779454E-17
4.730000E+03	6.792849E-16	1.763799E-17
4.740000E+03	6.744376E-16	1.748682E-17
4.750000E+03	6.698062E-16	1.734156E-17
4.760000E+03	6.654101E-16	1.720272E-17
4.770000E+03	6.612879E-16	1.707124E-17
4.780000E+03	6.574335E-16	1.694695E-17
4.790000E+03	6.538603E-16	1.683016E-17
4.800000E+03	6.505796E-16	1.672114E-17
4.810000E+03	6.476207E-16	1.662059E-17
4.820000E+03	6.449704E-16	1.652815E-17
4.830000E+03	6.426346E-16	1.644394E-17
4.840000E+03	6.406168E-16	1.636801E-17
4.850000E+03	6.389393E-16	1.630088E-17
4.860000E+03	6.375829E-16	1.624205E-17
4.870000E+03	6.365477E-16	1.619147E-17
4.880000E+03	6.358324E-16	1.614907E-17
4.890000E+03	6.354539E-16	1.611526E-17
4.900000E+03	6.353706E-16	1.608893E-17
4.910000E+03	6.356174E-16	1.607094E-17
4.920000E+03	6.361710E-16	1.606065E-17
4.930000E+03	6.370460E-16	1.605842E-17
4.940000E+03	6.381998E-16	1.606312E-17
4.950000E+03	6.396656E-16	1.607556E-17
4.960000E+03	6.414201E-16	1.609513E-17
4.970000E+03	6.434774E-16	1.612214E-17
4.980000E+03	6.457954E-16	1.615551E-17
4.990000E+03	6.484083E-16	1.619605E-17
5.000000E+03	6.512933E-16	1.624318E-17
5.010000E+03	6.544660E-16	1.629725E-17
5.020000E+03	6.578853E-16	1.635720E-17
5.030000E+03	6.615865E-16	1.642389E-17
5.040000E+03	6.655669E-16	1.649721E-17
5.050000E+03	6.697853E-16	1.657613E-17
5.060000E+03	6.742778E-16	1.666149E-17
5.070000E+03	6.790219E-16	1.675273E-17
5.080000E+03	6.840338E-16	1.685020E-17
5.090000E+03	6.892903E-16	1.695331E-17
5.100000E+03	6.947865E-16	1.706192E-17
5.110000E+03	7.005367E-16	1.717635E-17
5.120000E+03	7.064947E-16	1.729543E-17
5.130000E+03	7.127127E-16	1.742044E-17
5.140000E+03	7.191213E-16	1.754964E-17
5.150000E+03	7.257711E-16	1.768424E-17
5.160000E+03	7.325887E-16	1.782244E-17
5.170000E+03	7.396018E-16	1.796490E-17
5.180000E+03	7.467743E-16	1.811071E-17
5.190000E+03	7.541106E-16	1.825997E-17
5.200000E+03	7.615713E-16	1.841171E-17
5.210000E+03	7.691576E-16	1.856596E-17
5.220000E+03	7.768268E-16	1.872166E-17
5.230000E+03	7.845556E-16	1.887825E-17
5.240000E+03	7.923417E-16	1.903568E-17
5.250000E+03	8.001596E-16	1.919333E-17
5.260000E+03	8.079603E-16	1.935002E-17
5.270000E+03	8.157381E-16	1.950563E-17
5.280000E+03	8.234412E-16	1.965893E-17
5.290000E+03	8.310389E-16	1.980919E-17
5.300000E+03	8.385230E-16	1.995624E-17
5.310000E+03	8.458611E-16	2.009933E-17
5.320000E+03	8.529961E-16	2.023712E-17
5.330000E+03	8.599167E-16	2.036937E-17
5.340000E+03	8.665629E-16	2.049469E-17
5.350000E+03	8.729206E-16	2.061279E-17
5.360000E+03	8.789503E-16	2.072276E-17
5.370000E+03	8.845862E-16	2.082311E-17
5.380000E+03	8.897844E-16	2.091284E-17
5.390000E+03	8.945475E-16	2.099207E-17
5.400000E+03	8.987776E-16	2.105857E-17
5.410000E+03	9.024228E-16	2.111117E-17
5.420000E+03	9.054783E-16	2.114985E-17
5.430000E+03	9.078378E-16	2.117218E-17
5.440000E+03	9.094423E-16	2.117686E-17
5.450000E+03	9.102819E-16	2.116377E-17
5.460000E+03	9.102480E-16	2.113046E-17
5.470000E+03	9.092855E-16	2.107575E-17
5.480000E+03	9.073969E-16	2.099981E-17
5.490000E+03	9.045033E-16	2.090091E-17
5.500000E+03	9.006315E-16	2.077977E-17
5.510000E+03	8.958219E-16	2.063744E-17
5.520000E+03	8.901424E-16	2.047557E-17
5.530000E+03	8.836517E-16	2.029559E-17
5.540000E+03	8.764647E-16	2.010023E-17
5.550000E+03	8.686749E-16	1.989169E-17
5.560000E+03	8.603780E-16	1.967222E-17
5.570000E+03	8.516693E-16	1.944404E-17
5.580000E+03	8.426211E-16	1.920884E-17
5.590000E+03	8.333734E-16	1.896984E-17
5.600000E+03	8.239730E-16	1.872810E-17
5.610000E+03	8.145329E-16	1.848622E-17
5.620000E+03	8.051411E-16	1.824619E-17
5.630000E+03	7.959037E-16	1.801039E-17
5.640000E+03	7.868582E-16	1.777965E-17
5.650000E+03	7.781030E-16	1.755617E-17
5.660000E+03	7.697094E-16	1.734153E-17
5.670000E+03	7.617434E-16	1.713716E-17
5.680000E+03	7.542640E-16	1.694436E-17
5.690000E+03	7.473238E-16	1.676424E-17
5.700000E+03	7.409672E-16	1.659775E-17
5.710000E+03	7.352304E-16	1.644564E-17
5.720000E+03	7.301613E-16	1.630892E-17
5.730000E+03	7.257385E-16	1.618704E-17
5.740000E+03	7.220116E-16	1.608104E-17
5.750000E+03	7.189412E-16	1.598999E-17
5.760000E+03	7.165579E-16	1.591449E-17
5.770000E+03	7.148239E-16	1.585364E-17
5.780000E+03	7.137128E-16	1.580680E-17
5.790000E+03	7.131894E-16	1.577313E-17
5.800000E+03	7.132310E-16	1.575208E-17
5.810000E+03	7.137689E-16	1.574207E-17
5.820000E+03	7.147479E-16	1.574185E-17
5.830000E+03	7.161083E-16	1.575006E-17
5.840000E+03	7.177869E-16	1.576529E-17
5.850000E+03	7.197381E-16	1.578650E-17
5.860000E+03	7.218766E-16	1.581181E-17
5.870000E+03	7.241373E-16	1.583977E-17
5.880000E+03	7.264778E-16	1.586945E-17
5.890000E+03	7.288192E-16	1.589912E-17
5.900000E+03	7.311081E-16	1.592763E-17
5.910000E+03	7.333174E-16	1.595438E-17
5.920000E+03	7.353872E-16	1.597809E-17
5.930000E+03	7.372856E-16	1.599807E-17
5.940000E+03	7.390096E-16	1.601429E-17
5.950000E+03	7.405247E-16	1.602601E-17
5.960000E+03	7.418455E-16	1.603356E-17
5.970000E+03	7.429543E-16	1.603659E-17
5.980000E+03	7.438615E-16	1.603533E-17
5.990000E+03	7.446054E-16	1.603063E-17
6.000000E+03	7.451892E-16	1.602258E-17
6.010000E+03	7.456625E-16	1.601225E-17
6.020000E+03	7.460377E-16	1.599992E-17
6.030000E+03	7.463714E-16	1.598681E-17
6.040000E+03	7.466807E-16	1.597330E-17
6.050000E+03	7.470248E-16	1.596065E-17
6.060000E+03	7.474214E-16	1.594925E-17
6.070000E+03	7.479288E-16	1.594032E-17
6.080000E+03	7.485617E-16	1.593418E-17
6.090000E+03	7.493745E-16	1.593198E-17
6.100000E+03	7.503767E-16	1.593390E-17
6.110000E+03	7.516166E-16	1.594096E-17
6.120000E+03	7.531187E-16	1.595366E-17
6.130000E+03	7.548826E-16	1.597198E-17
6.140000E+03	7.569256E-16	1.599627E-17
6.150000E+03	7.593044E-16	1.602770E-17
6.160000E+03	7.619664E-16	1.606515E-17
6.170000E+03	7.649842E-16	1.611013E-17
6.180000E+03	7.683214E-16	1.616184E-17
6.190000E+03	7.720034E-16	1.622081E-17
6.200000E+03	7.760113E-16	1.628662E-17
6.210000E+03	7.803684E-16	1.635975E-17
6.220000E+03	7.850755E-16	1.644018E-17
6.230000E+03	7.901108E-16	1.652744E-17
6.240000E+03	7.954965E-16	1.662199E-17
6.250000E+03	8.012333E-16	1.672382E-17
6.260000E+03	8.072987E-16	1.683244E-17
6.270000E+03	8.137163E-16	1.694833E-17
6.280000E+03	8.204873E-16	1.707150E-17
6.290000E+03	8.276123E-16	1.720196E-17
6.300000E+03	8.350681E-16	1.733920E-17
6.310000E+03	8.428776E-16	1.748368E-17
6.320000E+03	8.510387E-16	1.763536E-17
6.330000E+03	8.595222E-16	1.779361E-17
6.340000E+03	8.683698E-16	1.795929E-17
6.350000E+03	8.775201E-16	1.813113E-17
6.360000E+03	8.869809E-16	1.830926E-17
6.370000E+03	8.967297E-16	1.849324E-17
6.380000E+03	9.067366E-16	1.868243E-17
6.390000E+03	9.169376E-16	1.887551E-17
6.400000E+03	9.273118E-16	1.907207E-17
6.410000E+03	9.378303E-16	1.927150E-17
6.420000E+03	9.483723E-16	1.947134E-17
6.430000E+03	9.588872E-16	1.967056E-17
6.440000E+03	9.692863E-16	1.986737E-17
6.450000E+03	9.794699E-16	2.005973E-17
6.460000E+03	9.892981E-16	2.024482E-17
6.470000E+03	9.987081E-16	2.042137E-17
6.480000E+03	1.007542E-15	2.058621E-17
6.490000E+03	1.015634E-15	2.073599E-17
6.500000E+03	1.022907E-15	2.086916E-17
6.510000E+03	1.029193E-15	2.098238E-17
6.520000E+03	1.034335E-15	2.107249E-17
6.530000E+03	1.038289E-15	2.113864E-17
6.540000E+03	1.040961E-15	2.117894E-17
6.550000E+03	1.042298E-15	2.119238E-17
6.560000E+03	1.042371E-15	2.118049E-17
6.570000E+03	1.041179E-15	2.114324E-17
6.580000E+03	1.038762E-15	2.108149E-17
6.590000E+03	1.035166E-15	2.099623E-17
6.600000E+03	1.030444E-15	2.088856E-17
6.610000E+03	1.024681E-15	2.076024E-17
6.620000E+03	1.017875E-15	2.061122E-17
6.630000E+03	1.010115E-15	2.044336E-17
6.640000E+03	1.001494E-15	2.025852E-17
6.650000E+03	9.920438E-16	2.005741E-17
6.660000E+03	9.818318E-16	1.984137E-17
6.670000E+03	9.709274E-16	1.961181E-17
6.680000E+03	9.594314E-16	1.937078E-17
6.690000E+03	9.473618E-16	1.911865E-17
6.700000E+03	9.348546E-16	1.885815E-17
6.710000E+03	9.219630E-16	1.859036E-17
6.720000E+03	9.087990E-16	1.831752E-17
6.730000E+03	8.953938E-16	1.804027E-17
6.740000E+03	8.818898E-16	1.776146E-17
6.750000E+03	8.683476E-16	1.748230E-17
6.760000E+03	8.548549E-16	1.720453E-17
6.770000E+03	8.415235E-16	1.693041E-17
6.780000E+03	8.284103E-16	1.666104E-17
6.790000E+03	8.155953E-16	1.639804E-17
6.800000E+03	8.031537E-16	1.614288E-17
6.810000E+03	7.911796E-16	1.589744E-17
6.820000E+03	7.797117E-16	1.566249E-17
6.830000E+03	7.688309E-16	1.543961E-17
6.840000E+03	7.585395E-16	1.522885E-17
6.850000E+03	7.489262E-16	1.503197E-17
6.860000E+03	7.400017E-16	1.484915E-17
6.870000E+03	7.318146E-16	1.468136E-17
6.880000E+03	7.243600E-16	1.452848E-17
6.890000E+03	7.176481E-16	1.439070E-17
6.900000E+03	7.116813E-16	1.426805E-17
6.910000E+03	7.064757E-16	1.416083E-17
6.920000E+03	7.019968E-16	1.406835E-17
6.930000E+03	6.982465E-16	1.399063E-17
6.940000E+03	6.951559E-16	1.392627E-17
6.950000E+03	6.927361E-16	1.387549E-17
6.960000E+03	6.909494E-16	1.383753E-17
6.970000E+03	6.897114E-16	1.381068E-17
6.980000E+03	6.890188E-16	1.379487E-17
6.990000E+03	6.888005E-16	1.378867E-17
7.000000E+03	6.890264E-16	1.379148E-17
7.010000E+03	6.895996E-16	1.380135E-17
7.020000E+03	6.905081E-16	1.381803E-17
7.030000E+03	6.916758E-16	1.384001E-17
7.040000E+03	6.930694E-16	1.386661E-17
7.050000E+03	6.946143E-16	1.389634E-17
7.060000E+03	6.962365E-16	1.392772E-17
7.070000E+03	6.979524E-16	1.396107E-17
7.080000E+03	6.996495E-16	1.399415E-17
7.090000E+03	7.013060E-16	1.402652E-17
7.100000E+03	7.029028E-16	1.405779E-17
7.110000E+03	7.043804E-16	1.408679E-17
7.120000E+03	7.057040E-16	1.411280E-17
7.130000E+03	7.068418E-16	1.413521E-17
7.140000E+03	7.077866E-16	1.415386E-17
7.150000E+03	7.084670E-16	1.416733E-17
7.160000E+03	7.089024E-16	1.417600E-17
7.170000E+03	7.090250E-16	1.417852E-17
7.180000E+03	7.088575E-16	1.417534E-17
7.190000E+03	7.083571E-16	1.416562E-17
7.200000E+03	7.075044E-16	1.414895E-17
7.210000E+03	7.062814E-16	1.412499E-17
7.220000E+03	7.046717E-16	1.409339E-17
7.230000E+03	7.026602E-16	1.405386E-17
7.240000E+03	7.002341E-16	1.400614E-17
7.250000E+03	6.973832E-16	1.395003E-17
7.260000E+03	6.941002E-16	1.388537E-17
7.270000E+03	6.903814E-16	1.381209E-17
7.280000E+03	6.862052E-16	1.372975E-17
7.290000E+03	6.816208E-16	1.363934E-17
7.300000E+03	6.766161E-16	1.354062E-17
7.310000E+03	6.711849E-16	1.343344E-17
7.320000E+03	6.653917E-16	1.331910E-17
7.330000E+03	6.592198E-16	1.319726E-17
7.340000E+03	6.527229E-16	1.306900E-17
7.350000E+03	6.459383E-16	1.293505E-17
7.360000E+03	6.389077E-16	1.279624E-17
7.370000E+03	6.316774E-16	1.265350E-17
7.380000E+03	6.242768E-16	1.250742E-17
7.390000E+03	6.167788E-16	1.235944E-17
7.400000E+03	6.092379E-16	1.221066E-17
7.410000E+03	6.017094E-16	1.206219E-17
7.420000E+03	5.942296E-16	1.191474E-17
7.430000E+03	5.868733E-16	1.176983E-17
7.440000E+03	5.796948E-16	1.162852E-17
7.450000E+03	5.727270E-16	1.149150E-17
7.460000E+03	5.660571E-16	1.136051E-17
7.470000E+03	5.596766E-16	1.123537E-17
7.480000E+03	5.536841E-16	1.111808E-17
7.490000E+03	5.480831E-16	1.100871E-17
7.500000E+03	5.429282E-16	1.090835E-17
7.510000E+03	5.382341E-16	1.081732E-17
7.520000E+03	5.340472E-16	1.073655E-17
7.530000E+03	5.303751E-16	1.066621E-17
7.540000E+03	5.272566E-16	1.060707E-17
7.550000E+03	5.247091E-16	1.055952E-17
7.560000E+03	5.227298E-16	1.052350E-17
7.570000E+03	5.213466E-16	1.049958E-17
7.580000E+03	5.205503E-16	1.048761E-17
7.590000E+03	5.203626E-16	1.048802E-17
7.600000E+03	5.207682E-16	1.050054E-17
7.610000E+03	5.217664E-16	1.052515E-17
7.620000E+03	5.233879E-16	1.056251E-17
7.630000E+03	5.255746E-16	1.061146E-17
7.640000E+03	5.283530E-16	1.067256E-17
7.650000E+03	5.317124E-16	1.074560E-17
7.660000E+03	5.356219E-16	1.083000E-17
7.670000E+03	5.400845E-16	1.092583E-17
7.680000E+03	5.450467E-16	1.103203E-17
7.690000E+03	5.505440E-16	1.114935E-17
7.700000E+03	5.565191E-16	1.127666E-17
7.710000E+03	5.629492E-16	1.141351E-17
7.720000E+03	5.698098E-16	1.155944E-17
7.730000E+03	5.770942E-16	1.171433E-17
7.740000E+03	5.847560E-16	1.187727E-17
7.750000E+03	5.927863E-16	1.204811E-17
7.760000E+03	6.011354E-16	1.222585E-17
