#wls	flux	fluxerr
1.600000E+03	2.454476E-16	8.268231E-18
1.640000E+03	2.597387E-16	8.739719E-18
1.680000E+03	2.748544E-16	9.237549E-18
1.720000E+03	2.906882E-16	9.757996E-18
1.760000E+03	3.071420E-16	1.029763E-17
1.800000E+03	3.241887E-16	1.085540E-17
1.840000E+03	3.415506E-16	1.142188E-17
1.880000E+03	3.590058E-16	1.198957E-17
1.920000E+03	3.764169E-16	1.255378E-17
1.960000E+03	3.934336E-16	1.310280E-17
2.000000E+03	4.097358E-16	1.362596E-17
2.040000E+03	4.249883E-16	1.411217E-17
2.080000E+03	4.389286E-16	1.455281E-17
2.120000E+03	4.511746E-16	1.493537E-17
2.160000E+03	4.614520E-16	1.525099E-17
2.200000E+03	4.696938E-16	1.549772E-17
2.240000E+03	4.756083E-16	1.566625E-17
2.280000E+03	4.792827E-16	1.575978E-17
2.320000E+03	4.805883E-16	1.577447E-17
2.360000E+03	4.797773E-16	1.571897E-17
2.400000E+03	4.770217E-16	1.559928E-17
2.440000E+03	4.724794E-16	1.542091E-17
2.480000E+03	4.664948E-16	1.519542E-17
2.520000E+03	4.593622E-16	1.493269E-17
2.560000E+03	4.514482E-16	1.464485E-17
2.600000E+03	4.429128E-16	1.433727E-17
2.640000E+03	4.342198E-16	1.402508E-17
2.680000E+03	4.255414E-16	1.371391E-17
2.720000E+03	4.170817E-16	1.341033E-17
2.760000E+03	4.090069E-16	1.311967E-17
2.800000E+03	4.014998E-16	1.284773E-17
2.840000E+03	3.945947E-16	1.259548E-17
2.880000E+03	3.884503E-16	1.236787E-17
2.920000E+03	3.830341E-16	1.216371E-17
2.960000E+03	3.783879E-16	1.198416E-17
3.000000E+03	3.744776E-16	1.182797E-17
3.010000E+03	3.736049E-16	1.179222E-17
3.020000E+03	3.727995E-16	1.175860E-17
3.030000E+03	3.720148E-16	1.172563E-17
3.040000E+03	3.712949E-16	1.169469E-17
3.050000E+03	3.705937E-16	1.166432E-17
3.060000E+03	3.699101E-16	1.163450E-17
3.070000E+03	3.692875E-16	1.160658E-17
3.080000E+03	3.686805E-16	1.157913E-17
3.090000E+03	3.681313E-16	1.155349E-17
3.100000E+03	3.676384E-16	1.152960E-17
3.110000E+03	3.671572E-16	1.150604E-17
3.120000E+03	3.666864E-16	1.148280E-17
3.130000E+03	3.662676E-16	1.146116E-17
3.140000E+03	3.658569E-16	1.143975E-17
3.150000E+03	3.654951E-16	1.141985E-17
3.160000E+03	3.651805E-16	1.140139E-17
3.170000E+03	3.648700E-16	1.138303E-17
3.180000E+03	3.645628E-16	1.136475E-17
3.190000E+03	3.642986E-16	1.134778E-17
3.200000E+03	3.640761E-16	1.133207E-17
3.210000E+03	3.638530E-16	1.131631E-17
3.220000E+03	3.636288E-16	1.130049E-17
3.230000E+03	3.634826E-16	1.128705E-17
3.240000E+03	3.632931E-16	1.127224E-17
3.250000E+03	3.631791E-16	1.125973E-17
3.260000E+03	3.630208E-16	1.124581E-17
3.270000E+03	3.629354E-16	1.123411E-17
3.280000E+03	3.628438E-16	1.122219E-17
3.290000E+03	3.627458E-16	1.121002E-17
3.300000E+03	3.627181E-16	1.119999E-17
3.310000E+03	3.626447E-16	1.118850E-17
3.320000E+03	3.626403E-16	1.117910E-17
3.330000E+03	3.625907E-16	1.116826E-17
3.340000E+03	3.626093E-16	1.115949E-17
3.350000E+03	3.626211E-16	1.115045E-17
3.360000E+03	3.626635E-16	1.114232E-17
3.370000E+03	3.627000E-16	1.113395E-17
3.380000E+03	3.627682E-16	1.112651E-17
3.390000E+03	3.628321E-16	1.111890E-17
3.400000E+03	3.629292E-16	1.111225E-17
3.410000E+03	3.630604E-16	1.110659E-17
3.420000E+03	3.631908E-16	1.110086E-17
3.430000E+03	3.633578E-16	1.109620E-17
3.440000E+03	3.635628E-16	1.109263E-17
3.450000E+03	3.637721E-16	1.108915E-17
3.460000E+03	3.640229E-16	1.108687E-17
3.470000E+03	3.642822E-16	1.108480E-17
3.480000E+03	3.645872E-16	1.108405E-17
3.490000E+03	3.649402E-16	1.108470E-17
3.500000E+03	3.653090E-16	1.108577E-17
3.510000E+03	3.657312E-16	1.108839E-17
3.520000E+03	3.661749E-16	1.109159E-17
3.530000E+03	3.667115E-16	1.109753E-17
3.540000E+03	3.672422E-16	1.110322E-17
3.550000E+03	3.678717E-16	1.111182E-17
3.560000E+03	3.685358E-16	1.112138E-17
3.570000E+03	3.692717E-16	1.113303E-17
3.580000E+03	3.700495E-16	1.114585E-17
3.590000E+03	3.709061E-16	1.116095E-17
3.600000E+03	3.718125E-16	1.117745E-17
3.610000E+03	3.728379E-16	1.119742E-17
3.620000E+03	3.739206E-16	1.121901E-17
3.630000E+03	3.750645E-16	1.124233E-17
3.640000E+03	3.763064E-16	1.126847E-17
3.650000E+03	3.776500E-16	1.129753E-17
3.660000E+03	3.790665E-16	1.132864E-17
3.670000E+03	3.805927E-16	1.136290E-17
3.680000E+03	3.822320E-16	1.140040E-17
3.690000E+03	3.839563E-16	1.144028E-17
3.700000E+03	3.858011E-16	1.148359E-17
3.710000E+03	3.877702E-16	1.153045E-17
3.720000E+03	3.898351E-16	1.157998E-17
3.730000E+03	3.919992E-16	1.163229E-17
3.740000E+03	3.943295E-16	1.168934E-17
3.750000E+03	3.967335E-16	1.174839E-17
3.760000E+03	3.993096E-16	1.181233E-17
3.770000E+03	4.019967E-16	1.187934E-17
3.780000E+03	4.048293E-16	1.195043E-17
3.790000E+03	4.077774E-16	1.202470E-17
3.800000E+03	4.108752E-16	1.210315E-17
3.810000E+03	4.140922E-16	1.218486E-17
3.820000E+03	4.174619E-16	1.227081E-17
3.830000E+03	4.209856E-16	1.236102E-17
3.840000E+03	4.246317E-16	1.245455E-17
3.850000E+03	4.284010E-16	1.255140E-17
3.860000E+03	4.323260E-16	1.265251E-17
3.870000E+03	4.364065E-16	1.275787E-17
3.880000E+03	4.406099E-16	1.286650E-17
3.890000E+03	4.449681E-16	1.297933E-17
3.900000E+03	4.494475E-16	1.309535E-17
3.910000E+03	4.540470E-16	1.321452E-17
3.920000E+03	4.587978E-16	1.333774E-17
3.930000E+03	4.636987E-16	1.346496E-17
3.940000E+03	4.687146E-16	1.359513E-17
3.950000E+03	4.738770E-16	1.372916E-17
3.960000E+03	4.791166E-16	1.386503E-17
3.970000E+03	4.845319E-16	1.400558E-17
3.980000E+03	4.900193E-16	1.414779E-17
3.990000E+03	4.956782E-16	1.429452E-17
4.000000E+03	5.014036E-16	1.444274E-17
4.010000E+03	5.072614E-16	1.459432E-17
4.020000E+03	5.132146E-16	1.474819E-17
4.030000E+03	5.192948E-16	1.490525E-17
4.040000E+03	5.254649E-16	1.506442E-17
4.050000E+03	5.317214E-16	1.522558E-17
4.060000E+03	5.380614E-16	1.538864E-17
4.070000E+03	5.445170E-16	1.555451E-17
4.080000E+03	5.510495E-16	1.572207E-17
4.090000E+03	5.576910E-16	1.589223E-17
4.100000E+03	5.643655E-16	1.606281E-17
4.110000E+03	5.711408E-16	1.623573E-17
4.120000E+03	5.779754E-16	1.640981E-17
4.130000E+03	5.848639E-16	1.658487E-17
4.140000E+03	5.918365E-16	1.676178E-17
4.150000E+03	5.988120E-16	1.693822E-17
4.160000E+03	6.058562E-16	1.711604E-17
4.170000E+03	6.129223E-16	1.729392E-17
4.180000E+03	6.199993E-16	1.747156E-17
4.190000E+03	6.270746E-16	1.764857E-17
4.200000E+03	6.341341E-16	1.782458E-17
4.210000E+03	6.411619E-16	1.799914E-17
4.220000E+03	6.481404E-16	1.817175E-17
4.230000E+03	6.550884E-16	1.834294E-17
4.240000E+03	6.619064E-16	1.850993E-17
4.250000E+03	6.686093E-16	1.867316E-17
4.260000E+03	6.751708E-16	1.883190E-17
4.270000E+03	6.815625E-16	1.898537E-17
4.280000E+03	6.877541E-16	1.913275E-17
4.290000E+03	6.937131E-16	1.927316E-17
4.300000E+03	6.994053E-16	1.940566E-17
4.310000E+03	7.047952E-16	1.952932E-17
4.320000E+03	7.098054E-16	1.964201E-17
4.330000E+03	7.144789E-16	1.974498E-17
4.340000E+03	7.186977E-16	1.983499E-17
4.350000E+03	7.224650E-16	1.991218E-17
4.360000E+03	7.257052E-16	1.997454E-17
4.370000E+03	7.284663E-16	2.002342E-17
4.380000E+03	7.306410E-16	2.005596E-17
4.390000E+03	7.322502E-16	2.007277E-17
4.400000E+03	7.332872E-16	2.007375E-17
4.410000E+03	7.337173E-16	2.005800E-17
4.420000E+03	7.335945E-16	2.002708E-17
4.430000E+03	7.328990E-16	1.998050E-17
4.440000E+03	7.317329E-16	1.992111E-17
4.450000E+03	7.300056E-16	1.984651E-17
4.460000E+03	7.278620E-16	1.976068E-17
4.470000E+03	7.252543E-16	1.966238E-17
4.480000E+03	7.222133E-16	1.955249E-17
4.490000E+03	7.188080E-16	1.943294E-17
4.500000E+03	7.150684E-16	1.930458E-17
4.510000E+03	7.109882E-16	1.916727E-17
4.520000E+03	7.066343E-16	1.902286E-17
4.530000E+03	7.020000E-16	1.887120E-17
4.540000E+03	6.971154E-16	1.871312E-17
4.550000E+03	6.920442E-16	1.855038E-17
4.560000E+03	6.867793E-16	1.838279E-17
4.570000E+03	6.813826E-16	1.821204E-17
4.580000E+03	6.758461E-16	1.803794E-17
4.590000E+03	6.702297E-16	1.786209E-17
4.600000E+03	6.645249E-16	1.768428E-17
4.610000E+03	6.587568E-16	1.750519E-17
4.620000E+03	6.529817E-16	1.732632E-17
4.630000E+03	6.471590E-16	1.714661E-17
4.640000E+03	6.414062E-16	1.696915E-17
4.650000E+03	6.356507E-16	1.679204E-17
4.660000E+03	6.299761E-16	1.661747E-17
4.670000E+03	6.243714E-16	1.644515E-17
4.680000E+03	6.188564E-16	1.627560E-17
4.690000E+03	6.134794E-16	1.611006E-17
4.700000E+03	6.082277E-16	1.594821E-17
4.710000E+03	6.031186E-16	1.579046E-17
4.720000E+03	5.981676E-16	1.563723E-17
4.730000E+03	5.934175E-16	1.548959E-17
4.740000E+03	5.888534E-16	1.534715E-17
4.750000E+03	5.844607E-16	1.520950E-17
4.760000E+03	5.803325E-16	1.507904E-17
4.770000E+03	5.763978E-16	1.495391E-17
4.780000E+03	5.726931E-16	1.483502E-17
4.790000E+03	5.692531E-16	1.472324E-17
4.800000E+03	5.660582E-16	1.461804E-17
4.810000E+03	5.631153E-16	1.451957E-17
4.820000E+03	5.604296E-16	1.442794E-17
4.830000E+03	5.580058E-16	1.434323E-17
4.840000E+03	5.558732E-16	1.426617E-17
4.850000E+03	5.539844E-16	1.419550E-17
4.860000E+03	5.523919E-16	1.413255E-17
4.870000E+03	5.510726E-16	1.407668E-17
4.880000E+03	5.500277E-16	1.402790E-17
4.890000E+03	5.492582E-16	1.398621E-17
4.900000E+03	5.487646E-16	1.395157E-17
4.910000E+03	5.485711E-16	1.392458E-17
4.920000E+03	5.486290E-16	1.390396E-17
4.930000E+03	5.489861E-16	1.389089E-17
4.940000E+03	5.496176E-16	1.388472E-17
4.950000E+03	5.504984E-16	1.388477E-17
4.960000E+03	5.516758E-16	1.389221E-17
4.970000E+03	5.531247E-16	1.390638E-17
4.980000E+03	5.548437E-16	1.392720E-17
4.990000E+03	5.568558E-16	1.395522E-17
5.000000E+03	5.591113E-16	1.398917E-17
5.010000E+03	5.616570E-16	1.403018E-17
5.020000E+03	5.644431E-16	1.407697E-17
5.030000E+03	5.675163E-16	1.413070E-17
5.040000E+03	5.708508E-16	1.419067E-17
5.050000E+03	5.744445E-16	1.425680E-17
5.060000E+03	5.782951E-16	1.432902E-17
5.070000E+03	5.824003E-16	1.440722E-17
5.080000E+03	5.867570E-16	1.449132E-17
5.090000E+03	5.913874E-16	1.458182E-17
5.100000E+03	5.962375E-16	1.467736E-17
5.110000E+03	6.013533E-16	1.477906E-17
5.120000E+03	6.067051E-16	1.488615E-17
5.130000E+03	6.122871E-16	1.499846E-17
5.140000E+03	6.180930E-16	1.511581E-17
5.150000E+03	6.241157E-16	1.523801E-17
5.160000E+03	6.303470E-16	1.536483E-17
5.170000E+03	6.368044E-16	1.549668E-17
5.180000E+03	6.434516E-16	1.563265E-17
5.190000E+03	6.502498E-16	1.577178E-17
5.200000E+03	6.572407E-16	1.591505E-17
5.210000E+03	6.643834E-16	1.606148E-17
5.220000E+03	6.716904E-16	1.621133E-17
5.230000E+03	6.790891E-16	1.636285E-17
5.240000E+03	6.866175E-16	1.651694E-17
5.250000E+03	6.942275E-16	1.667244E-17
5.260000E+03	7.018970E-16	1.682881E-17
5.270000E+03	7.096025E-16	1.698547E-17
5.280000E+03	7.173182E-16	1.714183E-17
5.290000E+03	7.250462E-16	1.729793E-17
5.300000E+03	7.326970E-16	1.745164E-17
5.310000E+03	7.402983E-16	1.760364E-17
5.320000E+03	7.478165E-16	1.775313E-17
5.330000E+03	7.551527E-16	1.789780E-17
5.340000E+03	7.623292E-16	1.803818E-17
5.350000E+03	7.692724E-16	1.817257E-17
5.360000E+03	7.759371E-16	1.829994E-17
5.370000E+03	7.822753E-16	1.841918E-17
5.380000E+03	7.882361E-16	1.852916E-17
5.390000E+03	7.937995E-16	1.862944E-17
5.400000E+03	7.988777E-16	1.871803E-17
5.410000E+03	8.034466E-16	1.879441E-17
5.420000E+03	8.073825E-16	1.885577E-17
5.430000E+03	8.106927E-16	1.890235E-17
5.440000E+03	8.132865E-16	1.893211E-17
5.450000E+03	8.151414E-16	1.894462E-17
5.460000E+03	8.161727E-16	1.893801E-17
5.470000E+03	8.163353E-16	1.891131E-17
5.480000E+03	8.155947E-16	1.886384E-17
5.490000E+03	8.139658E-16	1.879605E-17
5.500000E+03	8.114218E-16	1.870742E-17
5.510000E+03	8.079972E-16	1.859884E-17
5.520000E+03	8.037812E-16	1.847246E-17
5.530000E+03	7.988109E-16	1.832921E-17
5.540000E+03	7.931643E-16	1.817097E-17
5.550000E+03	7.869561E-16	1.800042E-17
5.560000E+03	7.802379E-16	1.781880E-17
5.570000E+03	7.730941E-16	1.762809E-17
5.580000E+03	7.656386E-16	1.743093E-17
5.590000E+03	7.579202E-16	1.722843E-17
5.600000E+03	7.500157E-16	1.702239E-17
5.610000E+03	7.420288E-16	1.681516E-17
5.620000E+03	7.340271E-16	1.660827E-17
5.630000E+03	7.260147E-16	1.640182E-17
5.640000E+03	7.181389E-16	1.619913E-17
5.650000E+03	7.103655E-16	1.599940E-17
5.660000E+03	7.028007E-16	1.580501E-17
5.670000E+03	6.954874E-16	1.561690E-17
5.680000E+03	6.884343E-16	1.543524E-17
5.690000E+03	6.816746E-16	1.526073E-17
5.700000E+03	6.752630E-16	1.509457E-17
5.710000E+03	6.691939E-16	1.493660E-17
5.720000E+03	6.635120E-16	1.478777E-17
5.730000E+03	6.582026E-16	1.464772E-17
5.740000E+03	6.533002E-16	1.451717E-17
5.750000E+03	6.487815E-16	1.439556E-17
5.760000E+03	6.446725E-16	1.428344E-17
5.770000E+03	6.409425E-16	1.418008E-17
5.780000E+03	6.376096E-16	1.408584E-17
5.790000E+03	6.346368E-16	1.399986E-17
5.800000E+03	6.320359E-16	1.392237E-17
5.810000E+03	6.297651E-16	1.385242E-17
5.820000E+03	6.278319E-16	1.379013E-17
5.830000E+03	6.261910E-16	1.373449E-17
5.840000E+03	6.248469E-16	1.368556E-17
5.850000E+03	6.237783E-16	1.364285E-17
5.860000E+03	6.229382E-16	1.360530E-17
5.870000E+03	6.223303E-16	1.357299E-17
5.880000E+03	6.219089E-16	1.354488E-17
5.890000E+03	6.216792E-16	1.352108E-17
5.900000E+03	6.216234E-16	1.350119E-17
5.910000E+03	6.216993E-16	1.348427E-17
5.920000E+03	6.219181E-16	1.347056E-17
5.930000E+03	6.222417E-16	1.345922E-17
5.940000E+03	6.226859E-16	1.345058E-17
5.950000E+03	6.232432E-16	1.344448E-17
5.960000E+03	6.238832E-16	1.344024E-17
5.970000E+03	6.246290E-16	1.343837E-17
5.980000E+03	6.254551E-16	1.343831E-17
5.990000E+03	6.264150E-16	1.344120E-17
6.000000E+03	6.274621E-16	1.344602E-17
6.010000E+03	6.286026E-16	1.345292E-17
6.020000E+03	6.298961E-16	1.346316E-17
6.030000E+03	6.313009E-16	1.347583E-17
6.040000E+03	6.328275E-16	1.349115E-17
6.050000E+03	6.345395E-16	1.351048E-17
6.060000E+03	6.363975E-16	1.353296E-17
6.070000E+03	6.384140E-16	1.355885E-17
6.080000E+03	6.406545E-16	1.358953E-17
6.090000E+03	6.430796E-16	1.362415E-17
6.100000E+03	6.457280E-16	1.366351E-17
6.110000E+03	6.486122E-16	1.370787E-17
6.120000E+03	6.517174E-16	1.375691E-17
6.130000E+03	6.551080E-16	1.381196E-17
6.140000E+03	6.587407E-16	1.387210E-17
6.150000E+03	6.626242E-16	1.393750E-17
6.160000E+03	6.668221E-16	1.400949E-17
6.170000E+03	6.712866E-16	1.408703E-17
6.180000E+03	6.760520E-16	1.417084E-17
6.190000E+03	6.811235E-16	1.426101E-17
6.200000E+03	6.865059E-16	1.435763E-17
6.210000E+03	6.921737E-16	1.446014E-17
6.220000E+03	6.981575E-16	1.456918E-17
6.230000E+03	7.044581E-16	1.468475E-17
6.240000E+03	7.110755E-16	1.480683E-17
6.250000E+03	7.180079E-16	1.493538E-17
6.260000E+03	7.252523E-16	1.507032E-17
6.270000E+03	7.327731E-16	1.521090E-17
6.280000E+03	7.405935E-16	1.535759E-17
6.290000E+03	7.487047E-16	1.551021E-17
6.300000E+03	7.570949E-16	1.566850E-17
6.310000E+03	7.657503E-16	1.583217E-17
6.320000E+03	7.746210E-16	1.600019E-17
6.330000E+03	7.837507E-16	1.617346E-17
6.340000E+03	7.930493E-16	1.635011E-17
6.350000E+03	8.025202E-16	1.653023E-17
6.360000E+03	8.121634E-16	1.671381E-17
6.370000E+03	8.218721E-16	1.689867E-17
6.380000E+03	8.316004E-16	1.708386E-17
6.390000E+03	8.413672E-16	1.726981E-17
6.400000E+03	8.510812E-16	1.745463E-17
6.410000E+03	8.606795E-16	1.763707E-17
6.420000E+03	8.700562E-16	1.781497E-17
6.430000E+03	8.792091E-16	1.798832E-17
6.440000E+03	8.879832E-16	1.815398E-17
6.450000E+03	8.963296E-16	1.831097E-17
6.460000E+03	9.041964E-16	1.845827E-17
6.470000E+03	9.114146E-16	1.859247E-17
6.480000E+03	9.179283E-16	1.871248E-17
6.490000E+03	9.236443E-16	1.881643E-17
6.500000E+03	9.284731E-16	1.890255E-17
6.510000E+03	9.323320E-16	1.896920E-17
6.520000E+03	9.351488E-16	1.901495E-17
6.530000E+03	9.368688E-16	1.903872E-17
6.540000E+03	9.374599E-16	1.903990E-17
6.550000E+03	9.369155E-16	1.901838E-17
6.560000E+03	9.352494E-16	1.897449E-17
6.570000E+03	9.324509E-16	1.890803E-17
6.580000E+03	9.286409E-16	1.882147E-17
6.590000E+03	9.238292E-16	1.871504E-17
6.600000E+03	9.180732E-16	1.858991E-17
6.610000E+03	9.114351E-16	1.844737E-17
6.620000E+03	9.039815E-16	1.828876E-17
6.630000E+03	8.957815E-16	1.811549E-17
6.640000E+03	8.868677E-16	1.792823E-17
6.650000E+03	8.773889E-16	1.772999E-17
6.660000E+03	8.673786E-16	1.752143E-17
6.670000E+03	8.569084E-16	1.730401E-17
6.680000E+03	8.460493E-16	1.707915E-17
6.690000E+03	8.348708E-16	1.684825E-17
6.700000E+03	8.234413E-16	1.661267E-17
6.710000E+03	8.118268E-16	1.637374E-17
6.720000E+03	8.000914E-16	1.613274E-17
6.730000E+03	7.882969E-16	1.589090E-17
6.740000E+03	7.765359E-16	1.565008E-17
6.750000E+03	7.647966E-16	1.541001E-17
6.760000E+03	7.531659E-16	1.517245E-17
6.770000E+03	7.416936E-16	1.493838E-17
6.780000E+03	7.304577E-16	1.470934E-17
6.790000E+03	7.194361E-16	1.448490E-17
6.800000E+03	7.087307E-16	1.426707E-17
6.810000E+03	6.983136E-16	1.405528E-17
6.820000E+03	6.882770E-16	1.385139E-17
6.830000E+03	6.785866E-16	1.365467E-17
6.840000E+03	6.693246E-16	1.346678E-17
6.850000E+03	6.604792E-16	1.328747E-17
6.860000E+03	6.520359E-16	1.311642E-17
6.870000E+03	6.440629E-16	1.295501E-17
6.880000E+03	6.365372E-16	1.280276E-17
6.890000E+03	6.294621E-16	1.265973E-17
6.900000E+03	6.228364E-16	1.252588E-17
6.910000E+03	6.166561E-16	1.240113E-17
6.920000E+03	6.109140E-16	1.228532E-17
6.930000E+03	6.055995E-16	1.217823E-17
6.940000E+03	6.007266E-16	1.208015E-17
6.950000E+03	5.962263E-16	1.198968E-17
6.960000E+03	5.921078E-16	1.190700E-17
6.970000E+03	5.883518E-16	1.183171E-17
6.980000E+03	5.849628E-16	1.176391E-17
6.990000E+03	5.818663E-16	1.170209E-17
7.000000E+03	5.790646E-16	1.164630E-17
7.010000E+03	5.765590E-16	1.159656E-17
7.020000E+03	5.742727E-16	1.155132E-17
7.030000E+03	5.722315E-16	1.151111E-17
7.040000E+03	5.703587E-16	1.147437E-17
7.050000E+03	5.686799E-16	1.144163E-17
7.060000E+03	5.671443E-16	1.141186E-17
7.070000E+03	5.657018E-16	1.138404E-17
7.080000E+03	5.643792E-16	1.135872E-17
7.090000E+03	5.631025E-16	1.133441E-17
7.100000E+03	5.618999E-16	1.131168E-17
7.110000E+03	5.607248E-16	1.128957E-17
7.120000E+03	5.595316E-16	1.126719E-17
7.130000E+03	5.583517E-16	1.124515E-17
7.140000E+03	5.571167E-16	1.122209E-17
7.150000E+03	5.558603E-16	1.119866E-17
7.160000E+03	5.545167E-16	1.117356E-17
7.170000E+03	5.531219E-16	1.114750E-17
7.180000E+03	5.516130E-16	1.111921E-17
7.190000E+03	5.500285E-16	1.108947E-17
7.200000E+03	5.483085E-16	1.105707E-17
7.210000E+03	5.464695E-16	1.102233E-17
7.220000E+03	5.445292E-16	1.098562E-17
7.230000E+03	5.424326E-16	1.094582E-17
7.240000E+03	5.402007E-16	1.090336E-17
7.250000E+03	5.378318E-16	1.085818E-17
7.260000E+03	5.353256E-16	1.081030E-17
7.270000E+03	5.326837E-16	1.075973E-17
7.280000E+03	5.299102E-16	1.070655E-17
7.290000E+03	5.269864E-16	1.065040E-17
7.300000E+03	5.239685E-16	1.059238E-17
7.310000E+03	5.208419E-16	1.053222E-17
7.320000E+03	5.175946E-16	1.046966E-17
7.330000E+03	5.142643E-16	1.040547E-17
7.340000E+03	5.108663E-16	1.033995E-17
7.350000E+03	5.074415E-16	1.027393E-17
7.360000E+03	5.039381E-16	1.020636E-17
7.370000E+03	5.004468E-16	1.013907E-17
7.380000E+03	4.969654E-16	1.007202E-17
7.390000E+03	4.934932E-16	1.000519E-17
7.400000E+03	4.900995E-16	9.939987E-18
7.410000E+03	4.867621E-16	9.875967E-18
7.420000E+03	4.835279E-16	9.814079E-18
7.430000E+03	4.803988E-16	9.754363E-18
7.440000E+03	4.774433E-16	9.698214E-18
7.450000E+03	4.746405E-16	9.645210E-18
7.460000E+03	4.720579E-16	9.596727E-18
7.470000E+03	4.696736E-16	9.552327E-18
7.480000E+03	4.675314E-16	9.512904E-18
7.490000E+03	4.656301E-16	9.478442E-18
7.500000E+03	4.640328E-16	9.450234E-18
7.510000E+03	4.627143E-16	9.427771E-18
7.520000E+03	4.617135E-16	9.411861E-18
7.530000E+03	4.610244E-16	9.402389E-18
7.540000E+03	4.607049E-16	9.400550E-18
7.550000E+03	4.607249E-16	9.405737E-18
7.560000E+03	4.611176E-16	9.418644E-18
7.570000E+03	4.618933E-16	9.439495E-18
7.580000E+03	4.630392E-16	9.468045E-18
7.590000E+03	4.646066E-16	9.505357E-18
7.600000E+03	4.665576E-16	9.550674E-18
7.610000E+03	4.688966E-16	9.604101E-18
7.620000E+03	4.716714E-16	9.666639E-18
7.630000E+03	4.748393E-16	9.737430E-18
7.640000E+03	4.784228E-16	9.816957E-18
7.650000E+03	4.823983E-16	9.904753E-18
7.660000E+03	4.868090E-16	1.000173E-17
7.670000E+03	4.916049E-16	1.010688E-17
7.680000E+03	4.967796E-16	1.022010E-17
7.690000E+03	5.023738E-16	1.034225E-17
7.700000E+03	5.083305E-16	1.047217E-17
7.710000E+03	5.146636E-16	1.061019E-17
7.720000E+03	5.213359E-16	1.075555E-17
7.730000E+03	5.283580E-16	1.090850E-17
7.740000E+03	5.357141E-16	1.106874E-17
7.750000E+03	5.433865E-16	1.123593E-17
7.760000E+03	5.513287E-16	1.140913E-17
