#wls	flux	fluxerr
1.600000E+03	2.160574E-16	7.533756E-18
1.640000E+03	2.280640E-16	7.943558E-18
1.680000E+03	2.406168E-16	8.371179E-18
1.720000E+03	2.537365E-16	8.817229E-18
1.760000E+03	2.672985E-16	9.277268E-18
1.800000E+03	2.812376E-16	9.748926E-18
1.840000E+03	2.953679E-16	1.022566E-17
1.880000E+03	3.095171E-16	1.070145E-17
1.920000E+03	3.235403E-16	1.117122E-17
1.960000E+03	3.372211E-16	1.162746E-17
2.000000E+03	3.502685E-16	1.206016E-17
2.040000E+03	3.624964E-16	1.246295E-17
2.080000E+03	3.737294E-16	1.282987E-17
2.120000E+03	3.836254E-16	1.314930E-17
2.160000E+03	3.920517E-16	1.341687E-17
2.200000E+03	3.989198E-16	1.362975E-17
2.240000E+03	4.040638E-16	1.378249E-17
2.280000E+03	4.074355E-16	1.387372E-17
2.320000E+03	4.091096E-16	1.390627E-17
2.360000E+03	4.090877E-16	1.388047E-17
2.400000E+03	4.075505E-16	1.380275E-17
2.440000E+03	4.046555E-16	1.367871E-17
2.480000E+03	4.005915E-16	1.351499E-17
2.520000E+03	3.955672E-16	1.331885E-17
2.560000E+03	3.898574E-16	1.309973E-17
2.600000E+03	3.835602E-16	1.286109E-17
2.640000E+03	3.770498E-16	1.261559E-17
2.680000E+03	3.703438E-16	1.236388E-17
2.720000E+03	3.637673E-16	1.211686E-17
2.760000E+03	3.574006E-16	1.187720E-17
2.800000E+03	3.513037E-16	1.164686E-17
2.840000E+03	3.456582E-16	1.143181E-17
2.880000E+03	3.405175E-16	1.123371E-17
2.920000E+03	3.358229E-16	1.105054E-17
2.960000E+03	3.317231E-16	1.088708E-17
3.000000E+03	3.281225E-16	1.074007E-17
3.010000E+03	3.273143E-16	1.070633E-17
3.020000E+03	3.265253E-16	1.067321E-17
3.030000E+03	3.257550E-16	1.064070E-17
3.040000E+03	3.250448E-16	1.061015E-17
3.050000E+03	3.243523E-16	1.058017E-17
3.060000E+03	3.237181E-16	1.055209E-17
3.070000E+03	3.230598E-16	1.052321E-17
3.080000E+03	3.224584E-16	1.049618E-17
3.090000E+03	3.219132E-16	1.047096E-17
3.100000E+03	3.213427E-16	1.044490E-17
3.110000E+03	3.208268E-16	1.042062E-17
3.120000E+03	3.203645E-16	1.039805E-17
3.130000E+03	3.198759E-16	1.037462E-17
3.140000E+03	3.194396E-16	1.035287E-17
3.150000E+03	3.190544E-16	1.033275E-17
3.160000E+03	3.186805E-16	1.031298E-17
3.170000E+03	3.183176E-16	1.029354E-17
3.180000E+03	3.179653E-16	1.027443E-17
3.190000E+03	3.176613E-16	1.025686E-17
3.200000E+03	3.173670E-16	1.023957E-17
3.210000E+03	3.170817E-16	1.022255E-17
3.220000E+03	3.168431E-16	1.020701E-17
3.230000E+03	3.166127E-16	1.019171E-17
3.240000E+03	3.164278E-16	1.017784E-17
3.250000E+03	3.162137E-16	1.016301E-17
3.260000E+03	3.160813E-16	1.015077E-17
3.270000E+03	3.159196E-16	1.013756E-17
3.280000E+03	3.158023E-16	1.012574E-17
3.290000E+03	3.156925E-16	1.011413E-17
3.300000E+03	3.156268E-16	1.010390E-17
3.310000E+03	3.155690E-16	1.009389E-17
3.320000E+03	3.155195E-16	1.008411E-17
3.330000E+03	3.155144E-16	1.007570E-17
3.340000E+03	3.155182E-16	1.006755E-17
3.350000E+03	3.155317E-16	1.005966E-17
3.360000E+03	3.155908E-16	1.005319E-17
3.370000E+03	3.156610E-16	1.004702E-17
3.380000E+03	3.157780E-16	1.004230E-17
3.390000E+03	3.159077E-16	1.003795E-17
3.400000E+03	3.160515E-16	1.003399E-17
3.410000E+03	3.162449E-16	1.003155E-17
3.420000E+03	3.164544E-16	1.002958E-17
3.430000E+03	3.166818E-16	1.002813E-17
3.440000E+03	3.169626E-16	1.002831E-17
3.450000E+03	3.172644E-16	1.002910E-17
3.460000E+03	3.175887E-16	1.003054E-17
3.470000E+03	3.179713E-16	1.003377E-17
3.480000E+03	3.184137E-16	1.003882E-17
3.490000E+03	3.188509E-16	1.004365E-17
3.500000E+03	3.193521E-16	1.005042E-17
3.510000E+03	3.198859E-16	1.005815E-17
3.520000E+03	3.204881E-16	1.006796E-17
3.530000E+03	3.211277E-16	1.007887E-17
3.540000E+03	3.218401E-16	1.009198E-17
3.550000E+03	3.225622E-16	1.010532E-17
3.560000E+03	3.233952E-16	1.012204E-17
3.570000E+03	3.242432E-16	1.013915E-17
3.580000E+03	3.251747E-16	1.015877E-17
3.590000E+03	3.261597E-16	1.017998E-17
3.600000E+03	3.272337E-16	1.020385E-17
3.610000E+03	3.283672E-16	1.022948E-17
3.620000E+03	3.295630E-16	1.025693E-17
3.630000E+03	3.308565E-16	1.028732E-17
3.640000E+03	3.322186E-16	1.031971E-17
3.650000E+03	3.336522E-16	1.035420E-17
3.660000E+03	3.351927E-16	1.039188E-17
3.670000E+03	3.368107E-16	1.043183E-17
3.680000E+03	3.385094E-16	1.047412E-17
3.690000E+03	3.403241E-16	1.051986E-17
3.700000E+03	3.422253E-16	1.056812E-17
3.710000E+03	3.442160E-16	1.061899E-17
3.720000E+03	3.463317E-16	1.067353E-17
3.730000E+03	3.485424E-16	1.073083E-17
3.740000E+03	3.508510E-16	1.079096E-17
3.750000E+03	3.532928E-16	1.085500E-17
3.760000E+03	3.558378E-16	1.092200E-17
3.770000E+03	3.584882E-16	1.099204E-17
3.780000E+03	3.612465E-16	1.106517E-17
3.790000E+03	3.641476E-16	1.114245E-17
3.800000E+03	3.671939E-16	1.122393E-17
3.810000E+03	3.703213E-16	1.130766E-17
3.820000E+03	3.735976E-16	1.139568E-17
3.830000E+03	3.769914E-16	1.148703E-17
3.840000E+03	3.805040E-16	1.158173E-17
3.850000E+03	3.841704E-16	1.168083E-17
3.860000E+03	3.879243E-16	1.178231E-17
3.870000E+03	3.918341E-16	1.188822E-17
3.880000E+03	3.959011E-16	1.199859E-17
3.890000E+03	4.000573E-16	1.211136E-17
3.900000E+03	4.043717E-16	1.222858E-17
3.910000E+03	4.088103E-16	1.234922E-17
3.920000E+03	4.133728E-16	1.247326E-17
3.930000E+03	4.180944E-16	1.260174E-17
3.940000E+03	4.229396E-16	1.273358E-17
3.950000E+03	4.279078E-16	1.286874E-17
3.960000E+03	4.329981E-16	1.300719E-17
3.970000E+03	4.382093E-16	1.314887E-17
3.980000E+03	4.435404E-16	1.329374E-17
3.990000E+03	4.490262E-16	1.344283E-17
4.000000E+03	4.546290E-16	1.359499E-17
4.010000E+03	4.603467E-16	1.375015E-17
4.020000E+03	4.661770E-16	1.390823E-17
4.030000E+03	4.721173E-16	1.406912E-17
4.040000E+03	4.782029E-16	1.423388E-17
4.050000E+03	4.843544E-16	1.440013E-17
4.060000E+03	4.906448E-16	1.457002E-17
4.070000E+03	4.970319E-16	1.474228E-17
4.080000E+03	5.035109E-16	1.491677E-17
4.090000E+03	5.100766E-16	1.509331E-17
4.100000E+03	5.167233E-16	1.527174E-17
4.110000E+03	5.234445E-16	1.545183E-17
4.120000E+03	5.302327E-16	1.563337E-17
4.130000E+03	5.371209E-16	1.581732E-17
4.140000E+03	5.440181E-16	1.600099E-17
4.150000E+03	5.509550E-16	1.618527E-17
4.160000E+03	5.579622E-16	1.637107E-17
4.170000E+03	5.649433E-16	1.655554E-17
4.180000E+03	5.719690E-16	1.674075E-17
4.190000E+03	5.789389E-16	1.692377E-17
4.200000E+03	5.858786E-16	1.710535E-17
4.210000E+03	5.928134E-16	1.728623E-17
4.220000E+03	5.996363E-16	1.746328E-17
4.230000E+03	6.064135E-16	1.763845E-17
4.240000E+03	6.130333E-16	1.780850E-17
4.250000E+03	6.195147E-16	1.797399E-17
4.260000E+03	6.258314E-16	1.813417E-17
4.270000E+03	6.319549E-16	1.828824E-17
4.280000E+03	6.378558E-16	1.843537E-17
4.290000E+03	6.435031E-16	1.857469E-17
4.300000E+03	6.488650E-16	1.870530E-17
4.310000E+03	6.539086E-16	1.882630E-17
4.320000E+03	6.585545E-16	1.893543E-17
4.330000E+03	6.628620E-16	1.903444E-17
4.340000E+03	6.667057E-16	1.911977E-17
4.350000E+03	6.701006E-16	1.919191E-17
4.360000E+03	6.730172E-16	1.925006E-17
4.370000E+03	6.754291E-16	1.929352E-17
4.380000E+03	6.773146E-16	1.932173E-17
4.390000E+03	6.786133E-16	1.933303E-17
4.400000E+03	6.793671E-16	1.932868E-17
4.410000E+03	6.795816E-16	1.930891E-17
4.420000E+03	6.792698E-16	1.927413E-17
4.430000E+03	6.784048E-16	1.922366E-17
4.440000E+03	6.770995E-16	1.916074E-17
4.450000E+03	6.752880E-16	1.908358E-17
4.460000E+03	6.729983E-16	1.899301E-17
4.470000E+03	6.703480E-16	1.889241E-17
4.480000E+03	6.672778E-16	1.878014E-17
4.490000E+03	6.638620E-16	1.865836E-17
4.500000E+03	6.601308E-16	1.852795E-17
4.510000E+03	6.560716E-16	1.838858E-17
4.520000E+03	6.517579E-16	1.824236E-17
4.530000E+03	6.472187E-16	1.809014E-17
4.540000E+03	6.424419E-16	1.793159E-17
4.550000E+03	6.374974E-16	1.776869E-17
4.560000E+03	6.324126E-16	1.760224E-17
4.570000E+03	6.271739E-16	1.743186E-17
4.580000E+03	6.218475E-16	1.725943E-17
4.590000E+03	6.164191E-16	1.708454E-17
4.600000E+03	6.109519E-16	1.690897E-17
4.610000E+03	6.054684E-16	1.673334E-17
4.620000E+03	5.999525E-16	1.655721E-17
4.630000E+03	5.944632E-16	1.638221E-17
4.640000E+03	5.890196E-16	1.620887E-17
4.650000E+03	5.836043E-16	1.603671E-17
4.660000E+03	5.782716E-16	1.586721E-17
4.670000E+03	5.730027E-16	1.569984E-17
4.680000E+03	5.678493E-16	1.553602E-17
4.690000E+03	5.627913E-16	1.537519E-17
4.700000E+03	5.578774E-16	1.521866E-17
4.710000E+03	5.531205E-16	1.506677E-17
4.720000E+03	5.484989E-16	1.491891E-17
4.730000E+03	5.440246E-16	1.477540E-17
4.740000E+03	5.397736E-16	1.463827E-17
4.750000E+03	5.356576E-16	1.450511E-17
4.760000E+03	5.317504E-16	1.437790E-17
4.770000E+03	5.280597E-16	1.425683E-17
4.780000E+03	5.245610E-16	1.414121E-17
4.790000E+03	5.212922E-16	1.403203E-17
4.800000E+03	5.182281E-16	1.392860E-17
4.810000E+03	5.154046E-16	1.383185E-17
4.820000E+03	5.127958E-16	1.374106E-17
4.830000E+03	5.104362E-16	1.365713E-17
4.840000E+03	5.082987E-16	1.357931E-17
4.850000E+03	5.064167E-16	1.350846E-17
4.860000E+03	5.047626E-16	1.344381E-17
4.870000E+03	5.033683E-16	1.338619E-17
4.880000E+03	5.022060E-16	1.333483E-17
4.890000E+03	5.012777E-16	1.328975E-17
4.900000E+03	5.006131E-16	1.325171E-17
4.910000E+03	5.002131E-16	1.322071E-17
4.920000E+03	5.000495E-16	1.319597E-17
4.930000E+03	5.001513E-16	1.317823E-17
4.940000E+03	5.004904E-16	1.316670E-17
4.950000E+03	5.010665E-16	1.316137E-17
4.960000E+03	5.019085E-16	1.316295E-17
4.970000E+03	5.029872E-16	1.317066E-17
4.980000E+03	5.043312E-16	1.318521E-17
4.990000E+03	5.059398E-16	1.320655E-17
5.000000E+03	5.077551E-16	1.323314E-17
5.010000E+03	5.098624E-16	1.326718E-17
5.020000E+03	5.121746E-16	1.330637E-17
5.030000E+03	5.147482E-16	1.335215E-17
5.040000E+03	5.175820E-16	1.340446E-17
5.050000E+03	5.206455E-16	1.346247E-17
5.060000E+03	5.239662E-16	1.352688E-17
5.070000E+03	5.275129E-16	1.359685E-17
5.080000E+03	5.312829E-16	1.367229E-17
5.090000E+03	5.353033E-16	1.375385E-17
5.100000E+03	5.395411E-16	1.384067E-17
5.110000E+03	5.440225E-16	1.393340E-17
5.120000E+03	5.487439E-16	1.403191E-17
5.130000E+03	5.536702E-16	1.413528E-17
5.140000E+03	5.587959E-16	1.424335E-17
5.150000E+03	5.641455E-16	1.435671E-17
5.160000E+03	5.696810E-16	1.447438E-17
5.170000E+03	5.753945E-16	1.459614E-17
5.180000E+03	5.813403E-16	1.472334E-17
5.190000E+03	5.874138E-16	1.485332E-17
5.200000E+03	5.936672E-16	1.498737E-17
5.210000E+03	6.000892E-16	1.512519E-17
5.220000E+03	6.066334E-16	1.526560E-17
5.230000E+03	6.133178E-16	1.540904E-17
5.240000E+03	6.200931E-16	1.555426E-17
5.250000E+03	6.269405E-16	1.570078E-17
5.260000E+03	6.338741E-16	1.584894E-17
5.270000E+03	6.408729E-16	1.599822E-17
5.280000E+03	6.478789E-16	1.614717E-17
5.290000E+03	6.548660E-16	1.629514E-17
5.300000E+03	6.618419E-16	1.644233E-17
5.310000E+03	6.687772E-16	1.658801E-17
5.320000E+03	6.756041E-16	1.673052E-17
5.330000E+03	6.822879E-16	1.686901E-17
5.340000E+03	6.888287E-16	1.700351E-17
5.350000E+03	6.951884E-16	1.713310E-17
5.360000E+03	7.012889E-16	1.725589E-17
5.370000E+03	7.071251E-16	1.737178E-17
5.380000E+03	7.126146E-16	1.747879E-17
5.390000E+03	7.177495E-16	1.757678E-17
5.400000E+03	7.224445E-16	1.766370E-17
5.410000E+03	7.266517E-16	1.773844E-17
5.420000E+03	7.304015E-16	1.780180E-17
5.430000E+03	7.335696E-16	1.785082E-17
5.440000E+03	7.361108E-16	1.788447E-17
5.450000E+03	7.380227E-16	1.790276E-17
5.460000E+03	7.392282E-16	1.790391E-17
5.470000E+03	7.397353E-16	1.788819E-17
5.480000E+03	7.395211E-16	1.785514E-17
5.490000E+03	7.385348E-16	1.780361E-17
5.500000E+03	7.368212E-16	1.773478E-17
5.510000E+03	7.343649E-16	1.764835E-17
5.520000E+03	7.312435E-16	1.754627E-17
5.530000E+03	7.274669E-16	1.742884E-17
5.540000E+03	7.231296E-16	1.729841E-17
5.550000E+03	7.182909E-16	1.715644E-17
5.560000E+03	7.129748E-16	1.700356E-17
5.570000E+03	7.072826E-16	1.684223E-17
5.580000E+03	7.012398E-16	1.667309E-17
5.590000E+03	6.949458E-16	1.649854E-17
5.600000E+03	6.884602E-16	1.632002E-17
5.610000E+03	6.818039E-16	1.613803E-17
5.620000E+03	6.750680E-16	1.595474E-17
5.630000E+03	6.682677E-16	1.577052E-17
5.640000E+03	6.614862E-16	1.558734E-17
5.650000E+03	6.547665E-16	1.540619E-17
5.660000E+03	6.481140E-16	1.522719E-17
5.670000E+03	6.415988E-16	1.505199E-17
5.680000E+03	6.352526E-16	1.488129E-17
5.690000E+03	6.290696E-16	1.471496E-17
5.700000E+03	6.231078E-16	1.455431E-17
5.710000E+03	6.173873E-16	1.439981E-17
5.720000E+03	6.118925E-16	1.425105E-17
5.730000E+03	6.066700E-16	1.410909E-17
5.740000E+03	6.016982E-16	1.397340E-17
5.750000E+03	5.970486E-16	1.384562E-17
5.760000E+03	5.926313E-16	1.372362E-17
5.770000E+03	5.885433E-16	1.360963E-17
5.780000E+03	5.847224E-16	1.350218E-17
5.790000E+03	5.811982E-16	1.340191E-17
5.800000E+03	5.779670E-16	1.330872E-17
5.810000E+03	5.749935E-16	1.322176E-17
5.820000E+03	5.723020E-16	1.314156E-17
5.830000E+03	5.698854E-16	1.306795E-17
5.840000E+03	5.677057E-16	1.300000E-17
5.850000E+03	5.657846E-16	1.293821E-17
5.860000E+03	5.641131E-16	1.288234E-17
5.870000E+03	5.626825E-16	1.283216E-17
5.880000E+03	5.614543E-16	1.278679E-17
5.890000E+03	5.604497E-16	1.274667E-17
5.900000E+03	5.596607E-16	1.271162E-17
5.910000E+03	5.590799E-16	1.268144E-17
5.920000E+03	5.586710E-16	1.265530E-17
5.930000E+03	5.584579E-16	1.263371E-17
5.940000E+03	5.584356E-16	1.261655E-17
5.950000E+03	5.585705E-16	1.260304E-17
5.960000E+03	5.588896E-16	1.259378E-17
5.970000E+03	5.593908E-16	1.258872E-17
5.980000E+03	5.600735E-16	1.258781E-17
5.990000E+03	5.609379E-16	1.259105E-17
6.000000E+03	5.619553E-16	1.259779E-17
6.010000E+03	5.631577E-16	1.260872E-17
6.020000E+03	5.645479E-16	1.262390E-17
6.030000E+03	5.661298E-16	1.264340E-17
6.040000E+03	5.678775E-16	1.266663E-17
6.050000E+03	5.698563E-16	1.269503E-17
6.060000E+03	5.720110E-16	1.272736E-17
6.070000E+03	5.743777E-16	1.276441E-17
6.080000E+03	5.769314E-16	1.280561E-17
6.090000E+03	5.797397E-16	1.285245E-17
6.100000E+03	5.827471E-16	1.290368E-17
6.110000E+03	5.859903E-16	1.296010E-17
6.120000E+03	5.894752E-16	1.302182E-17
6.130000E+03	5.932072E-16	1.308896E-17
6.140000E+03	5.971917E-16	1.316162E-17
6.150000E+03	6.014012E-16	1.323917E-17
6.160000E+03	6.059039E-16	1.332310E-17
6.170000E+03	6.106387E-16	1.341207E-17
6.180000E+03	6.156406E-16	1.350681E-17
6.190000E+03	6.209116E-16	1.360737E-17
6.200000E+03	6.264187E-16	1.371300E-17
6.210000E+03	6.322290E-16	1.382517E-17
6.220000E+03	6.382737E-16	1.394236E-17
6.230000E+03	6.446185E-16	1.406599E-17
6.240000E+03	6.511905E-16	1.419445E-17
6.250000E+03	6.580184E-16	1.432838E-17
6.260000E+03	6.650950E-16	1.446760E-17
6.270000E+03	6.723749E-16	1.461112E-17
6.280000E+03	6.799189E-16	1.476025E-17
6.290000E+03	6.876777E-16	1.491391E-17
6.300000E+03	6.955974E-16	1.507095E-17
6.310000E+03	7.036961E-16	1.523174E-17
6.320000E+03	7.119520E-16	1.539582E-17
6.330000E+03	7.203788E-16	1.556348E-17
6.340000E+03	7.288315E-16	1.573160E-17
6.350000E+03	7.373950E-16	1.590201E-17
6.360000E+03	7.459945E-16	1.607312E-17
6.370000E+03	7.545903E-16	1.624407E-17
6.380000E+03	7.631387E-16	1.641394E-17
6.390000E+03	7.715502E-16	1.658082E-17
6.400000E+03	7.798563E-16	1.674541E-17
6.410000E+03	7.879174E-16	1.690473E-17
6.420000E+03	7.957162E-16	1.705844E-17
6.430000E+03	8.031904E-16	1.720522E-17
6.440000E+03	8.103195E-16	1.734468E-17
6.450000E+03	8.169486E-16	1.747351E-17
6.460000E+03	8.230535E-16	1.759126E-17
6.470000E+03	8.285663E-16	1.769648E-17
6.480000E+03	8.334201E-16	1.778781E-17
6.490000E+03	8.375047E-16	1.786293E-17
6.500000E+03	8.408518E-16	1.792255E-17
6.510000E+03	8.433620E-16	1.796460E-17
6.520000E+03	8.449903E-16	1.798815E-17
6.530000E+03	8.456576E-16	1.799155E-17
6.540000E+03	8.454394E-16	1.797643E-17
6.550000E+03	8.442428E-16	1.794085E-17
6.560000E+03	8.421745E-16	1.788710E-17
6.570000E+03	8.391664E-16	1.781377E-17
6.580000E+03	8.353450E-16	1.772355E-17
6.590000E+03	8.306587E-16	1.761537E-17
6.600000E+03	8.252460E-16	1.749219E-17
6.610000E+03	8.190669E-16	1.735317E-17
6.620000E+03	8.122220E-16	1.720044E-17
6.630000E+03	8.048130E-16	1.703618E-17
6.640000E+03	7.968096E-16	1.685974E-17
6.650000E+03	7.883164E-16	1.667333E-17
6.660000E+03	7.793935E-16	1.647823E-17
6.670000E+03	7.701005E-16	1.627570E-17
6.680000E+03	7.605380E-16	1.606785E-17
6.690000E+03	7.506784E-16	1.585410E-17
6.700000E+03	7.406197E-16	1.563651E-17
6.710000E+03	7.304153E-16	1.541619E-17
6.720000E+03	7.201162E-16	1.519422E-17
6.730000E+03	7.097708E-16	1.497160E-17
6.740000E+03	6.994249E-16	1.474929E-17
6.750000E+03	6.891209E-16	1.452817E-17
6.760000E+03	6.788991E-16	1.430907E-17
6.770000E+03	6.687959E-16	1.409276E-17
6.780000E+03	6.588450E-16	1.387993E-17
6.790000E+03	6.490773E-16	1.367121E-17
6.800000E+03	6.395559E-16	1.346792E-17
6.810000E+03	6.302330E-16	1.326905E-17
6.820000E+03	6.211314E-16	1.307506E-17
6.830000E+03	6.123395E-16	1.288779E-17
6.840000E+03	6.038375E-16	1.270683E-17
6.850000E+03	5.956381E-16	1.253242E-17
6.860000E+03	5.877508E-16	1.236476E-17
6.870000E+03	5.801829E-16	1.220399E-17
6.880000E+03	5.729392E-16	1.205020E-17
6.890000E+03	5.660219E-16	1.190343E-17
6.900000E+03	5.594313E-16	1.176368E-17
6.910000E+03	5.531653E-16	1.163088E-17
6.920000E+03	5.472200E-16	1.150497E-17
6.930000E+03	5.415897E-16	1.138579E-17
6.940000E+03	5.362672E-16	1.127321E-17
6.950000E+03	5.312134E-16	1.116639E-17
6.960000E+03	5.264789E-16	1.106639E-17
6.970000E+03	5.220221E-16	1.097234E-17
6.980000E+03	5.178306E-16	1.088395E-17
6.990000E+03	5.138915E-16	1.080097E-17
7.000000E+03	5.101911E-16	1.072310E-17
7.010000E+03	5.066861E-16	1.064942E-17
7.020000E+03	5.034199E-16	1.058085E-17
7.030000E+03	5.003484E-16	1.051645E-17
7.040000E+03	4.974282E-16	1.045532E-17
7.050000E+03	4.947009E-16	1.039831E-17
7.060000E+03	4.921233E-16	1.034453E-17
7.070000E+03	4.896522E-16	1.029307E-17
7.080000E+03	4.873295E-16	1.024479E-17
7.090000E+03	4.850850E-16	1.019824E-17
7.100000E+03	4.829605E-16	1.015428E-17
7.110000E+03	4.808877E-16	1.011147E-17
7.120000E+03	4.789090E-16	1.007071E-17
7.130000E+03	4.769576E-16	1.003059E-17
7.140000E+03	4.750497E-16	9.991448E-18
7.150000E+03	4.732022E-16	9.953645E-18
7.160000E+03	4.713510E-16	9.915826E-18
7.170000E+03	4.695143E-16	9.878377E-18
7.180000E+03	4.676844E-16	9.841132E-18
7.190000E+03	4.658542E-16	9.803943E-18
7.200000E+03	4.640176E-16	9.766681E-18
7.210000E+03	4.621697E-16	9.729239E-18
7.220000E+03	4.603065E-16	9.691534E-18
7.230000E+03	4.584246E-16	9.653495E-18
7.240000E+03	4.565225E-16	9.615088E-18
7.250000E+03	4.545726E-16	9.575731E-18
7.260000E+03	4.526281E-16	9.536544E-18
7.270000E+03	4.506640E-16	9.497000E-18
7.280000E+03	4.486567E-16	9.456600E-18
7.290000E+03	4.466358E-16	9.415967E-18
7.300000E+03	4.446320E-16	9.375752E-18
7.310000E+03	4.425993E-16	9.334978E-18
7.320000E+03	4.405704E-16	9.294338E-18
7.330000E+03	4.385528E-16	9.253992E-18
7.340000E+03	4.365557E-16	9.214129E-18
7.350000E+03	4.345883E-16	9.174949E-18
7.360000E+03	4.326361E-16	9.136141E-18
7.370000E+03	4.307608E-16	9.099014E-18
7.380000E+03	4.289488E-16	9.063277E-18
7.390000E+03	4.271875E-16	9.028667E-18
7.400000E+03	4.255149E-16	8.995991E-18
7.410000E+03	4.239442E-16	8.965526E-18
7.420000E+03	4.224891E-16	8.937567E-18
7.430000E+03	4.211632E-16	8.912402E-18
7.440000E+03	4.199801E-16	8.890323E-18
7.450000E+03	4.189536E-16	8.871629E-18
7.460000E+03	4.180725E-16	8.856083E-18
7.470000E+03	4.173999E-16	8.845028E-18
7.480000E+03	4.168993E-16	8.837697E-18
7.490000E+03	4.166082E-16	8.834888E-18
7.500000E+03	4.165391E-16	8.836875E-18
7.510000E+03	4.167038E-16	8.843916E-18
7.520000E+03	4.170887E-16	8.855730E-18
7.530000E+03	4.177546E-16	8.873613E-18
7.540000E+03	4.186615E-16	8.896727E-18
7.550000E+03	4.198437E-16	8.925812E-18
7.560000E+03	4.213102E-16	8.961067E-18
7.570000E+03	4.230689E-16	9.002673E-18
7.580000E+03	4.251270E-16	9.050796E-18
7.590000E+03	4.274909E-16	9.105584E-18
7.600000E+03	4.301403E-16	9.166619E-18
7.610000E+03	4.331056E-16	9.234560E-18
7.620000E+03	4.363900E-16	9.309495E-18
7.630000E+03	4.399967E-16	9.391503E-18
7.640000E+03	4.439273E-16	9.480638E-18
7.650000E+03	4.481552E-16	9.576348E-18
7.660000E+03	4.527341E-16	9.679797E-18
7.670000E+03	4.576076E-16	9.789800E-18
7.680000E+03	4.628000E-16	9.906895E-18
7.690000E+03	4.682785E-16	1.003040E-17
7.700000E+03	4.740941E-16	1.016142E-17
7.710000E+03	4.801824E-16	1.029861E-17
7.720000E+03	4.865631E-16	1.044240E-17
7.730000E+03	4.932256E-16	1.059259E-17
7.740000E+03	5.001581E-16	1.074895E-17
7.750000E+03	5.073466E-16	1.091120E-17
7.760000E+03	5.147435E-16	1.107834E-17
