#wls	flux	fluxerr
1.600000E+03	2.974038E-17	1.689072E-18
1.640000E+03	3.047481E-17	1.728495E-18
1.680000E+03	3.122261E-17	1.768503E-18
1.720000E+03	3.197037E-17	1.808326E-18
1.760000E+03	3.272697E-17	1.848461E-18
1.800000E+03	3.347824E-17	1.888099E-18
1.840000E+03	3.423340E-17	1.927755E-18
1.880000E+03	3.498392E-17	1.966942E-18
1.920000E+03	3.572716E-17	2.005505E-18
1.960000E+03	3.645403E-17	2.042930E-18
2.000000E+03	3.717511E-17	2.079808E-18
2.040000E+03	3.788179E-17	2.115651E-18
2.080000E+03	3.857221E-17	2.150353E-18
2.120000E+03	3.924479E-17	2.183824E-18
2.160000E+03	3.989839E-17	2.215998E-18
2.200000E+03	4.053232E-17	2.246837E-18
2.240000E+03	4.114638E-17	2.276329E-18
2.280000E+03	4.174837E-17	2.304903E-18
2.320000E+03	4.232436E-17	2.331790E-18
2.360000E+03	4.288320E-17	2.357477E-18
2.400000E+03	4.342696E-17	2.382078E-18
2.440000E+03	4.396614E-17	2.406166E-18
2.480000E+03	4.448839E-17	2.429060E-18
2.520000E+03	4.501327E-17	2.451828E-18
2.560000E+03	4.552919E-17	2.473829E-18
2.600000E+03	4.605719E-17	2.496200E-18
2.640000E+03	4.658627E-17	2.518337E-18
2.680000E+03	4.713885E-17	2.541438E-18
2.720000E+03	4.771306E-17	2.565385E-18
2.760000E+03	4.830707E-17	2.590065E-18
2.800000E+03	4.894525E-17	2.616760E-18
2.840000E+03	4.962682E-17	2.645402E-18
2.880000E+03	5.035998E-17	2.676396E-18
2.920000E+03	5.115341E-17	2.710168E-18
2.960000E+03	5.201637E-17	2.747166E-18
3.000000E+03	5.295869E-17	2.787861E-18
3.010000E+03	5.320080E-17	2.798298E-18
3.020000E+03	5.345811E-17	2.809500E-18
3.030000E+03	5.372140E-17	2.820982E-18
3.040000E+03	5.398126E-17	2.832248E-18
3.050000E+03	5.425698E-17	2.844310E-18
3.060000E+03	5.453923E-17	2.856677E-18
3.070000E+03	5.482817E-17	2.869357E-18
3.080000E+03	5.512401E-17	2.882358E-18
3.090000E+03	5.541710E-17	2.895177E-18
3.100000E+03	5.572724E-17	2.908845E-18
3.110000E+03	5.604486E-17	2.922863E-18
3.120000E+03	5.637016E-17	2.937239E-18
3.130000E+03	5.669331E-17	2.951459E-18
3.140000E+03	5.703453E-17	2.966577E-18
3.150000E+03	5.738407E-17	2.982081E-18
3.160000E+03	5.774214E-17	2.997982E-18
3.170000E+03	5.809868E-17	3.013756E-18
3.180000E+03	5.847441E-17	3.030478E-18
3.190000E+03	5.885934E-17	3.047627E-18
3.200000E+03	5.925372E-17	3.065213E-18
3.210000E+03	5.965778E-17	3.083248E-18
3.220000E+03	6.006114E-17	3.101194E-18
3.230000E+03	6.048522E-17	3.120155E-18
3.240000E+03	6.091971E-17	3.139596E-18
3.250000E+03	6.136488E-17	3.159531E-18
3.260000E+03	6.181006E-17	3.179408E-18
3.270000E+03	6.227730E-17	3.200359E-18
3.280000E+03	6.275599E-17	3.221838E-18
3.290000E+03	6.324644E-17	3.243856E-18
3.300000E+03	6.374891E-17	3.266426E-18
3.310000E+03	6.425235E-17	3.288979E-18
3.320000E+03	6.477963E-17	3.312686E-18
3.330000E+03	6.531982E-17	3.336982E-18
3.340000E+03	6.587319E-17	3.361880E-18
3.350000E+03	6.644005E-17	3.387394E-18
3.360000E+03	6.700887E-17	3.412932E-18
3.370000E+03	6.760355E-17	3.439711E-18
3.380000E+03	6.821264E-17	3.467145E-18
3.390000E+03	6.883648E-17	3.495247E-18
3.400000E+03	6.947541E-17	3.524032E-18
3.410000E+03	7.011737E-17	3.552886E-18
3.420000E+03	7.078731E-17	3.583072E-18
3.430000E+03	7.147334E-17	3.613982E-18
3.440000E+03	7.217579E-17	3.645632E-18
3.450000E+03	7.289500E-17	3.678033E-18
3.460000E+03	7.361835E-17	3.710548E-18
3.470000E+03	7.437202E-17	3.744493E-18
3.480000E+03	7.514352E-17	3.779235E-18
3.490000E+03	7.593319E-17	3.814787E-18
3.500000E+03	7.674140E-17	3.851164E-18
3.510000E+03	7.755486E-17	3.887696E-18
3.520000E+03	7.840111E-17	3.925760E-18
3.530000E+03	7.926699E-17	3.964694E-18
3.540000E+03	8.015288E-17	4.004511E-18
3.550000E+03	8.105914E-17	4.045225E-18
3.560000E+03	8.198614E-17	4.086851E-18
3.570000E+03	8.291964E-17	4.128677E-18
3.580000E+03	8.388904E-17	4.172161E-18
3.590000E+03	8.488026E-17	4.216598E-18
3.600000E+03	8.589369E-17	4.262002E-18
3.610000E+03	8.692967E-17	4.308387E-18
3.620000E+03	8.797306E-17	4.354997E-18
3.630000E+03	8.905499E-17	4.403371E-18
3.640000E+03	9.016050E-17	4.452761E-18
3.650000E+03	9.128994E-17	4.503181E-18
3.660000E+03	9.244362E-17	4.554640E-18
3.670000E+03	9.362185E-17	4.607149E-18
3.680000E+03	9.480830E-17	4.659899E-18
3.690000E+03	9.603636E-17	4.714528E-18
3.700000E+03	9.728987E-17	4.770235E-18
3.710000E+03	9.856908E-17	4.827026E-18
3.720000E+03	9.987426E-17	4.884910E-18
3.730000E+03	1.011879E-16	4.943024E-18
3.740000E+03	1.025454E-16	5.003099E-18
3.750000E+03	1.039296E-16	5.064280E-18
3.760000E+03	1.053404E-16	5.126569E-18
3.770000E+03	1.067783E-16	5.189971E-18
3.780000E+03	1.082243E-16	5.253561E-18
3.790000E+03	1.097161E-16	5.319171E-18
3.800000E+03	1.112350E-16	5.385884E-18
3.810000E+03	1.127814E-16	5.453707E-18
3.820000E+03	1.143548E-16	5.522621E-18
3.830000E+03	1.159556E-16	5.592624E-18
3.840000E+03	1.175628E-16	5.662712E-18
3.850000E+03	1.192174E-16	5.734846E-18
3.860000E+03	1.208988E-16	5.808035E-18
3.870000E+03	1.226070E-16	5.882262E-18
3.880000E+03	1.243416E-16	5.957513E-18
3.890000E+03	1.260803E-16	6.032703E-18
3.900000E+03	1.278664E-16	6.109912E-18
3.910000E+03	1.296779E-16	6.188072E-18
3.920000E+03	1.315145E-16	6.267161E-18
3.930000E+03	1.333753E-16	6.347137E-18
3.940000E+03	1.352363E-16	6.426848E-18
3.950000E+03	1.371439E-16	6.508497E-18
3.960000E+03	1.390739E-16	6.590927E-18
3.970000E+03	1.410257E-16	6.674101E-18
3.980000E+03	1.429982E-16	6.757967E-18
3.990000E+03	1.449652E-16	6.841284E-18
4.000000E+03	1.469763E-16	6.926381E-18
4.010000E+03	1.490051E-16	7.012014E-18
4.020000E+03	1.510506E-16	7.098129E-18
4.030000E+03	1.531115E-16	7.184657E-18
4.040000E+03	1.551594E-16	7.270270E-18
4.050000E+03	1.572468E-16	7.357420E-18
4.060000E+03	1.593453E-16	7.444774E-18
4.070000E+03	1.614536E-16	7.532264E-18
4.080000E+03	1.635411E-16	7.618468E-18
4.090000E+03	1.656630E-16	7.705957E-18
4.100000E+03	1.677893E-16	7.793322E-18
4.110000E+03	1.699179E-16	7.880469E-18
4.120000E+03	1.720469E-16	7.967305E-18
4.130000E+03	1.741437E-16	8.052328E-18
4.140000E+03	1.762665E-16	8.138226E-18
4.150000E+03	1.783829E-16	8.223501E-18
4.160000E+03	1.804907E-16	8.308049E-18
4.170000E+03	1.825553E-16	8.390285E-18
4.180000E+03	1.846375E-16	8.473006E-18
4.190000E+03	1.867032E-16	8.554644E-18
4.200000E+03	1.887495E-16	8.635072E-18
4.210000E+03	1.907403E-16	8.712641E-18
4.220000E+03	1.927389E-16	8.790250E-18
4.230000E+03	1.947095E-16	8.866264E-18
4.240000E+03	1.966485E-16	8.940535E-18
4.250000E+03	1.985184E-16	9.011357E-18
4.260000E+03	2.003849E-16	9.081720E-18
4.270000E+03	2.022102E-16	9.149924E-18
4.280000E+03	2.039908E-16	9.215815E-18
4.290000E+03	2.056877E-16	9.277639E-18
4.300000E+03	2.073685E-16	9.338462E-18
4.310000E+03	2.089942E-16	9.396538E-18
4.320000E+03	2.105614E-16	9.451715E-18
4.330000E+03	2.120295E-16	9.502199E-18
4.340000E+03	2.134688E-16	9.551144E-18
4.350000E+03	2.148392E-16	9.596777E-18
4.360000E+03	2.161376E-16	9.638966E-18
4.370000E+03	2.173232E-16	9.675915E-18
4.380000E+03	2.184690E-16	9.710897E-18
4.390000E+03	2.195358E-16	9.742172E-18
4.400000E+03	2.204837E-16	9.767997E-18
4.410000E+03	2.213893E-16	9.791782E-18
4.420000E+03	2.222144E-16	9.811857E-18
4.430000E+03	2.229597E-16	9.828266E-18
4.440000E+03	2.235876E-16	9.839374E-18
4.450000E+03	2.241772E-16	9.848677E-18
4.460000E+03	2.246911E-16	9.854553E-18
4.470000E+03	2.250921E-16	9.855379E-18
4.480000E+03	2.254602E-16	9.854686E-18
4.490000E+03	2.257584E-16	9.850862E-18
4.500000E+03	2.259494E-16	9.842298E-18
4.510000E+03	2.261140E-16	9.832532E-18
4.520000E+03	2.262150E-16	9.819955E-18
4.530000E+03	2.262153E-16	9.802972E-18
4.540000E+03	2.261959E-16	9.785115E-18
4.550000E+03	2.261196E-16	9.764779E-18
4.560000E+03	2.259494E-16	9.740382E-18
4.570000E+03	2.257663E-16	9.715431E-18
4.580000E+03	2.255331E-16	9.688331E-18
4.590000E+03	2.252131E-16	9.657520E-18
4.600000E+03	2.248869E-16	9.626465E-18
4.610000E+03	2.245173E-16	9.593586E-18
4.620000E+03	2.240678E-16	9.557332E-18
4.630000E+03	2.236186E-16	9.521134E-18
4.640000E+03	2.231328E-16	9.483428E-18
4.650000E+03	2.225740E-16	9.442677E-18
4.660000E+03	2.220215E-16	9.402256E-18
4.670000E+03	2.214005E-16	9.359000E-18
4.680000E+03	2.207898E-16	9.316258E-18
4.690000E+03	2.201530E-16	9.272486E-18
4.700000E+03	2.194540E-16	9.226177E-18
4.710000E+03	2.187709E-16	9.180622E-18
4.720000E+03	2.180675E-16	9.134304E-18
4.730000E+03	2.173079E-16	9.085723E-18
4.740000E+03	2.165693E-16	9.038122E-18
4.750000E+03	2.157782E-16	8.988429E-18
4.760000E+03	2.150115E-16	8.939851E-18
4.770000E+03	2.142328E-16	8.890885E-18
4.780000E+03	2.134070E-16	8.840066E-18
4.790000E+03	2.126096E-16	8.790537E-18
4.800000E+03	2.117682E-16	8.739298E-18
4.810000E+03	2.109577E-16	8.689453E-18
4.820000E+03	2.101062E-16	8.638032E-18
4.830000E+03	2.092879E-16	8.588094E-18
4.840000E+03	2.084674E-16	8.538182E-18
4.850000E+03	2.076100E-16	8.486876E-18
4.860000E+03	2.067887E-16	8.437163E-18
4.870000E+03	2.059328E-16	8.386164E-18
4.880000E+03	2.051147E-16	8.336824E-18
4.890000E+03	2.042642E-16	8.286288E-18
4.900000E+03	2.034530E-16	8.237470E-18
4.910000E+03	2.026112E-16	8.187536E-18
4.920000E+03	2.018099E-16	8.139359E-18
4.930000E+03	2.010146E-16	8.091545E-18
4.940000E+03	2.001912E-16	8.042721E-18
4.950000E+03	1.994097E-16	7.995703E-18
4.960000E+03	1.986016E-16	7.947741E-18
4.970000E+03	1.978362E-16	7.901606E-18
4.980000E+03	1.970452E-16	7.854575E-18
4.990000E+03	1.962975E-16	7.809385E-18
5.000000E+03	1.955255E-16	7.763348E-18
5.010000E+03	1.947969E-16	7.719156E-18
5.020000E+03	1.940447E-16	7.674147E-18
5.030000E+03	1.933364E-16	7.630995E-18
5.040000E+03	1.926052E-16	7.587052E-18
5.050000E+03	1.919178E-16	7.544957E-18
5.060000E+03	1.912082E-16	7.502098E-18
5.070000E+03	1.905424E-16	7.461078E-18
5.080000E+03	1.898548E-16	7.419317E-18
5.090000E+03	1.891782E-16	7.378104E-18
5.100000E+03	1.885455E-16	7.338714E-18
5.110000E+03	1.878912E-16	7.298597E-18
5.120000E+03	1.872805E-16	7.260286E-18
5.130000E+03	1.866483E-16	7.221254E-18
5.140000E+03	1.860596E-16	7.184012E-18
5.150000E+03	1.854495E-16	7.146056E-18
5.160000E+03	1.848824E-16	7.109865E-18
5.170000E+03	1.842942E-16	7.072972E-18
5.180000E+03	1.837168E-16	7.036603E-18
5.190000E+03	1.831818E-16	7.001967E-18
5.200000E+03	1.826257E-16	6.966630E-18
5.210000E+03	1.821116E-16	6.933002E-18
5.220000E+03	1.815763E-16	6.898676E-18
5.230000E+03	1.810828E-16	6.866040E-18
5.240000E+03	1.805682E-16	6.832709E-18
5.250000E+03	1.800637E-16	6.799871E-18
5.260000E+03	1.796004E-16	6.768687E-18
5.270000E+03	1.791160E-16	6.736816E-18
5.280000E+03	1.786724E-16	6.706585E-18
5.290000E+03	1.782078E-16	6.675665E-18
5.300000E+03	1.777530E-16	6.645223E-18
5.310000E+03	1.773387E-16	6.616393E-18
5.320000E+03	1.769034E-16	6.586883E-18
5.330000E+03	1.764779E-16	6.557846E-18
5.340000E+03	1.760925E-16	6.530399E-18
5.350000E+03	1.756864E-16	6.502286E-18
5.360000E+03	1.752899E-16	6.474635E-18
5.370000E+03	1.749334E-16	6.448564E-18
5.380000E+03	1.745565E-16	6.421838E-18
5.390000E+03	1.742194E-16	6.396682E-18
5.400000E+03	1.738620E-16	6.370882E-18
5.410000E+03	1.735145E-16	6.345547E-18
5.420000E+03	1.731770E-16	6.320682E-18
5.430000E+03	1.728794E-16	6.297376E-18
5.440000E+03	1.725621E-16	6.273452E-18
5.450000E+03	1.722551E-16	6.250009E-18
5.460000E+03	1.719884E-16	6.228128E-18
5.470000E+03	1.717029E-16	6.205664E-18
5.480000E+03	1.714285E-16	6.183707E-18
5.490000E+03	1.711951E-16	6.163330E-18
5.500000E+03	1.709437E-16	6.142402E-18
5.510000E+03	1.707036E-16	6.121979E-18
5.520000E+03	1.705040E-16	6.103098E-18
5.530000E+03	1.702855E-16	6.083636E-18
5.540000E+03	1.700776E-16	6.064641E-18
5.550000E+03	1.698798E-16	6.046093E-18
5.560000E+03	1.697214E-16	6.029033E-18
5.570000E+03	1.695434E-16	6.011361E-18
5.580000E+03	1.693754E-16	5.994124E-18
5.590000E+03	1.692170E-16	5.977310E-18
5.600000E+03	1.690975E-16	5.961945E-18
5.610000E+03	1.689583E-16	5.945961E-18
5.620000E+03	1.688287E-16	5.930394E-18
5.630000E+03	1.687086E-16	5.915232E-18
5.640000E+03	1.686271E-16	5.901491E-18
5.650000E+03	1.685259E-16	5.887132E-18
5.660000E+03	1.684341E-16	5.873168E-18
5.670000E+03	1.683518E-16	5.859605E-18
5.680000E+03	1.682789E-16	5.846436E-18
5.690000E+03	1.682444E-16	5.834661E-18
5.700000E+03	1.681903E-16	5.822269E-18
5.710000E+03	1.681458E-16	5.810269E-18
5.720000E+03	1.681107E-16	5.798655E-18
5.730000E+03	1.681140E-16	5.788425E-18
5.740000E+03	1.680978E-16	5.777580E-18
5.750000E+03	1.680914E-16	5.767126E-18
5.760000E+03	1.680944E-16	5.757050E-18
5.770000E+03	1.681071E-16	5.747363E-18
5.780000E+03	1.681294E-16	5.738058E-18
5.790000E+03	1.681905E-16	5.730126E-18
5.800000E+03	1.682323E-16	5.721588E-18
5.810000E+03	1.682839E-16	5.713431E-18
5.820000E+03	1.683453E-16	5.705659E-18
5.830000E+03	1.684165E-16	5.698265E-18
5.840000E+03	1.684975E-16	5.691253E-18
5.850000E+03	1.686174E-16	5.685598E-18
5.860000E+03	1.687181E-16	5.679341E-18
5.870000E+03	1.688285E-16	5.673459E-18
5.880000E+03	1.689489E-16	5.667955E-18
5.890000E+03	1.690788E-16	5.662817E-18
5.900000E+03	1.692184E-16	5.658048E-18
5.910000E+03	1.693678E-16	5.653648E-18
5.920000E+03	1.695266E-16	5.649606E-18
5.930000E+03	1.697239E-16	5.646891E-18
5.940000E+03	1.699015E-16	5.643559E-18
5.950000E+03	1.700881E-16	5.640570E-18
5.960000E+03	1.702837E-16	5.637924E-18
5.970000E+03	1.704882E-16	5.635611E-18
5.980000E+03	1.707012E-16	5.633624E-18
5.990000E+03	1.709225E-16	5.631957E-18
6.000000E+03	1.711519E-16	5.630596E-18
6.010000E+03	1.713893E-16	5.629543E-18
6.020000E+03	1.716341E-16	5.628776E-18
6.030000E+03	1.719157E-16	5.629260E-18
6.040000E+03	1.721746E-16	5.629046E-18
6.050000E+03	1.724401E-16	5.629091E-18
6.060000E+03	1.727116E-16	5.629382E-18
6.070000E+03	1.729888E-16	5.629901E-18
6.080000E+03	1.732712E-16	5.630643E-18
6.090000E+03	1.735584E-16	5.631588E-18
6.100000E+03	1.738499E-16	5.632722E-18
6.110000E+03	1.741451E-16	5.634032E-18
6.120000E+03	1.744435E-16	5.635497E-18
6.130000E+03	1.747447E-16	5.637106E-18
6.140000E+03	1.750477E-16	5.638833E-18
6.150000E+03	1.753523E-16	5.640668E-18
6.160000E+03	1.756578E-16	5.642592E-18
6.170000E+03	1.759634E-16	5.644582E-18
6.180000E+03	1.762686E-16	5.646623E-18
6.190000E+03	1.765726E-16	5.648694E-18
6.200000E+03	1.768747E-16	5.650772E-18
6.210000E+03	1.771743E-16	5.652842E-18
6.220000E+03	1.774707E-16	5.654881E-18
6.230000E+03	1.777629E-16	5.656865E-18
6.240000E+03	1.780505E-16	5.658781E-18
6.250000E+03	1.783325E-16	5.660601E-18
6.260000E+03	1.786083E-16	5.662309E-18
6.270000E+03	1.788771E-16	5.663882E-18
6.280000E+03	1.791380E-16	5.665297E-18
6.290000E+03	1.793904E-16	5.666536E-18
6.300000E+03	1.796336E-16	5.667580E-18
6.310000E+03	1.798667E-16	5.668406E-18
6.320000E+03	1.800889E-16	5.668994E-18
6.330000E+03	1.802997E-16	5.669327E-18
6.340000E+03	1.804981E-16	5.669383E-18
6.350000E+03	1.806836E-16	5.669145E-18
6.360000E+03	1.808553E-16	5.668593E-18
6.370000E+03	1.810127E-16	5.667711E-18
6.380000E+03	1.811549E-16	5.666481E-18
6.390000E+03	1.812814E-16	5.664886E-18
6.400000E+03	1.813916E-16	5.662913E-18
6.410000E+03	1.814848E-16	5.660543E-18
6.420000E+03	1.815606E-16	5.657770E-18
6.430000E+03	1.816182E-16	5.654573E-18
6.440000E+03	1.816260E-16	5.649971E-18
6.450000E+03	1.816459E-16	5.645897E-18
6.460000E+03	1.816466E-16	5.641375E-18
6.470000E+03	1.816274E-16	5.636396E-18
6.480000E+03	1.815882E-16	5.630953E-18
6.490000E+03	1.815289E-16	5.625047E-18
6.500000E+03	1.814493E-16	5.618682E-18
6.510000E+03	1.813497E-16	5.611864E-18
6.520000E+03	1.812304E-16	5.604609E-18
6.530000E+03	1.810916E-16	5.596924E-18
6.540000E+03	1.809335E-16	5.588823E-18
6.550000E+03	1.807251E-16	5.579346E-18
6.560000E+03	1.805283E-16	5.570406E-18
6.570000E+03	1.803122E-16	5.561044E-18
6.580000E+03	1.800768E-16	5.551261E-18
6.590000E+03	1.798228E-16	5.541073E-18
6.600000E+03	1.795504E-16	5.530483E-18
6.610000E+03	1.792602E-16	5.519510E-18
6.620000E+03	1.789528E-16	5.508167E-18
6.630000E+03	1.785982E-16	5.495528E-18
6.640000E+03	1.782586E-16	5.483508E-18
6.650000E+03	1.779041E-16	5.471177E-18
6.660000E+03	1.775352E-16	5.458553E-18
6.670000E+03	1.771529E-16	5.445662E-18
6.680000E+03	1.767582E-16	5.432527E-18
6.690000E+03	1.763516E-16	5.419168E-18
6.700000E+03	1.759039E-16	5.404680E-18
6.710000E+03	1.754768E-16	5.390954E-18
6.720000E+03	1.750406E-16	5.377075E-18
6.730000E+03	1.745962E-16	5.363072E-18
6.740000E+03	1.741448E-16	5.348971E-18
6.750000E+03	1.736871E-16	5.334796E-18
6.760000E+03	1.731943E-16	5.319658E-18
6.770000E+03	1.727272E-16	5.305421E-18
6.780000E+03	1.722567E-16	5.291185E-18
6.790000E+03	1.717838E-16	5.276980E-18
6.800000E+03	1.713095E-16	5.262836E-18
6.810000E+03	1.708053E-16	5.247870E-18
6.820000E+03	1.703312E-16	5.233926E-18
6.830000E+03	1.698584E-16	5.220116E-18
6.840000E+03	1.693881E-16	5.206471E-18
6.850000E+03	1.689211E-16	5.193014E-18
6.860000E+03	1.684293E-16	5.178881E-18
6.870000E+03	1.679719E-16	5.165885E-18
6.880000E+03	1.675205E-16	5.153155E-18
6.890000E+03	1.670760E-16	5.140712E-18
6.900000E+03	1.666394E-16	5.128589E-18
6.910000E+03	1.661829E-16	5.115925E-18
6.920000E+03	1.657646E-16	5.104510E-18
6.930000E+03	1.653566E-16	5.093479E-18
6.940000E+03	1.649599E-16	5.082861E-18
6.950000E+03	1.645468E-16	5.071802E-18
6.960000E+03	1.641748E-16	5.062073E-18
6.970000E+03	1.638162E-16	5.052819E-18
6.980000E+03	1.634719E-16	5.044065E-18
6.990000E+03	1.631424E-16	5.035829E-18
7.000000E+03	1.628007E-16	5.027268E-18
7.010000E+03	1.625031E-16	5.020130E-18
7.020000E+03	1.622225E-16	5.013567E-18
7.030000E+03	1.619595E-16	5.007604E-18
7.040000E+03	1.616866E-16	5.001387E-18
7.050000E+03	1.614605E-16	4.996669E-18
7.060000E+03	1.612536E-16	4.992598E-18
7.070000E+03	1.610386E-16	4.988327E-18
7.080000E+03	1.608719E-16	4.985599E-18
7.090000E+03	1.607260E-16	4.983567E-18
7.100000E+03	1.606014E-16	4.982246E-18
7.110000E+03	1.604708E-16	4.980785E-18
7.120000E+03	1.603901E-16	4.980925E-18
7.130000E+03	1.603320E-16	4.981814E-18
7.140000E+03	1.602692E-16	4.982606E-18
7.150000E+03	1.602574E-16	4.985036E-18
7.160000E+03	1.602693E-16	4.988252E-18
7.170000E+03	1.603052E-16	4.992263E-18
7.180000E+03	1.603378E-16	4.996224E-18
7.190000E+03	1.604226E-16	5.001864E-18
7.200000E+03	1.605324E-16	5.008331E-18
7.210000E+03	1.606394E-16	5.014769E-18
7.220000E+03	1.607996E-16	5.022918E-18
7.230000E+03	1.609853E-16	5.031919E-18
7.240000E+03	1.611689E-16	5.040910E-18
7.250000E+03	1.614061E-16	5.051636E-18
7.260000E+03	1.616693E-16	5.063235E-18
7.270000E+03	1.619308E-16	5.074836E-18
7.280000E+03	1.622463E-16	5.088195E-18
7.290000E+03	1.625880E-16	5.102438E-18
7.300000E+03	1.629280E-16	5.116690E-18
7.310000E+03	1.633224E-16	5.132717E-18
7.320000E+03	1.637431E-16	5.149638E-18
7.330000E+03	1.641616E-16	5.166563E-18
7.340000E+03	1.646347E-16	5.185275E-18
7.350000E+03	1.651339E-16	5.204884E-18
7.360000E+03	1.656304E-16	5.224485E-18
7.370000E+03	1.661813E-16	5.245879E-18
7.380000E+03	1.667579E-16	5.268165E-18
7.390000E+03	1.673308E-16	5.290421E-18
7.400000E+03	1.679578E-16	5.314471E-18
7.410000E+03	1.686096E-16	5.339394E-18
7.420000E+03	1.692567E-16	5.364259E-18
7.430000E+03	1.699572E-16	5.390910E-18
7.440000E+03	1.706813E-16	5.418409E-18
7.450000E+03	1.713991E-16	5.445805E-18
7.460000E+03	1.721692E-16	5.474969E-18
7.470000E+03	1.729317E-16	5.503996E-18
7.480000E+03	1.737456E-16	5.534767E-18
7.490000E+03	1.745805E-16	5.566319E-18
7.500000E+03	1.754054E-16	5.597672E-18
7.510000E+03	1.762802E-16	5.630733E-18
7.520000E+03	1.771431E-16	5.663538E-18
7.530000E+03	1.780546E-16	5.698020E-18
7.540000E+03	1.789831E-16	5.733179E-18
7.550000E+03	1.798967E-16	5.767992E-18
7.560000E+03	1.808562E-16	5.804417E-18
7.570000E+03	1.817985E-16	5.840428E-18
7.580000E+03	1.827849E-16	5.877999E-18
7.590000E+03	1.837830E-16	5.916097E-18
7.600000E+03	1.847597E-16	5.953657E-18
7.610000E+03	1.857772E-16	5.992688E-18
7.620000E+03	1.867703E-16	6.031091E-18
7.630000E+03	1.878017E-16	6.070895E-18
7.640000E+03	1.888380E-16	6.111024E-18
7.650000E+03	1.898446E-16	6.150365E-18
7.660000E+03	1.908856E-16	6.190993E-18
7.670000E+03	1.918930E-16	6.230711E-18
7.680000E+03	1.929317E-16	6.271626E-18
7.690000E+03	1.939331E-16	6.311516E-18
7.700000E+03	1.949622E-16	6.352495E-18
7.710000E+03	1.959498E-16	6.392314E-18
7.720000E+03	1.969615E-16	6.433114E-18
7.730000E+03	1.979616E-16	6.473735E-18
7.740000E+03	1.989134E-16	6.512981E-18
7.750000E+03	1.998834E-16	6.553028E-18
7.760000E+03	2.008005E-16	6.591549E-18
