#wls	flux	fluxerr
1.593070E+03	2.655651E-15	3.437007E-17
1.632897E+03	2.855388E-15	3.682511E-17
1.672724E+03	3.054473E-15	3.925007E-17
1.712550E+03	3.249905E-15	4.160585E-17
1.752377E+03	3.437755E-15	4.384210E-17
1.792204E+03	3.611355E-15	4.587447E-17
1.832031E+03	3.762117E-15	4.759572E-17
1.871857E+03	3.879800E-15	4.887971E-17
1.911684E+03	3.953563E-15	4.959514E-17
1.951511E+03	3.974666E-15	4.963957E-17
1.991338E+03	3.941610E-15	4.900297E-17
2.031164E+03	3.867241E-15	4.785353E-17
2.070991E+03	3.783375E-15	4.659050E-17
2.110818E+03	3.735606E-15	4.577447E-17
2.150645E+03	3.764537E-15	4.589399E-17
2.190471E+03	3.884874E-15	4.711279E-17
2.230298E+03	4.077984E-15	4.918795E-17
2.270125E+03	4.304638E-15	5.163368E-17
2.309952E+03	4.526334E-15	5.398287E-17
2.349778E+03	4.716467E-15	5.591996E-17
2.389605E+03	4.861975E-15	5.729662E-17
2.429432E+03	4.960850E-15	5.809809E-17
2.469259E+03	5.018036E-15	5.839154E-17
2.509085E+03	5.041812E-15	5.828165E-17
2.548912E+03	5.040930E-15	5.787633E-17
2.588739E+03	5.022527E-15	5.726261E-17
2.628566E+03	4.990909E-15	5.649345E-17
2.668392E+03	4.948380E-15	5.559799E-17
2.708219E+03	4.896471E-15	5.459617E-17
2.748046E+03	4.836297E-15	5.350289E-17
2.787873E+03	4.768743E-15	5.233024E-17
2.827700E+03	4.694476E-15	5.108772E-17
2.867526E+03	4.613990E-15	4.978283E-17
2.907353E+03	4.527674E-15	4.842181E-17
2.947180E+03	4.435765E-15	4.700923E-17
2.987007E+03	4.338444E-15	4.554909E-17
2.996963E+03	4.313282E-15	4.517701E-17
3.006920E+03	4.287780E-15	4.480211E-17
3.016877E+03	4.261958E-15	4.442461E-17
3.026833E+03	4.235874E-15	4.404516E-17
3.036790E+03	4.209743E-15	4.366604E-17
3.046747E+03	4.183787E-15	4.328952E-17
3.056703E+03	4.158025E-15	4.291581E-17
3.066660E+03	4.132357E-15	4.254387E-17
3.076617E+03	4.106695E-15	4.217281E-17
3.086573E+03	4.080972E-15	4.180194E-17
3.096530E+03	4.055117E-15	4.143056E-17
3.106487E+03	4.029070E-15	4.105806E-17
3.116443E+03	4.002786E-15	4.068403E-17
3.126400E+03	3.976219E-15	4.030800E-17
3.136357E+03	3.949338E-15	3.992972E-17
3.146314E+03	3.922118E-15	3.954895E-17
3.156270E+03	3.894518E-15	3.916532E-17
3.166227E+03	3.866523E-15	3.877873E-17
3.176184E+03	3.838124E-15	3.838912E-17
3.186140E+03	3.809312E-15	3.799646E-17
3.196097E+03	3.780065E-15	3.760056E-17
3.206054E+03	3.750404E-15	3.720167E-17
3.216010E+03	3.720300E-15	3.679957E-17
3.225967E+03	3.689781E-15	3.639458E-17
3.235924E+03	3.658835E-15	3.598660E-17
3.245880E+03	3.627482E-15	3.557591E-17
3.255837E+03	3.595725E-15	3.516256E-17
3.265794E+03	3.563589E-15	3.474686E-17
3.275750E+03	3.531079E-15	3.432888E-17
3.285707E+03	3.498213E-15	3.390886E-17
3.295664E+03	3.465000E-15	3.348692E-17
3.305621E+03	3.431479E-15	3.306348E-17
3.315577E+03	3.397661E-15	3.263869E-17
3.325534E+03	3.363569E-15	3.221279E-17
3.335491E+03	3.329224E-15	3.178604E-17
3.345447E+03	3.294660E-15	3.135880E-17
3.355404E+03	3.259881E-15	3.093112E-17
3.365361E+03	3.224932E-15	3.050348E-17
3.375317E+03	3.189828E-15	3.007603E-17
3.385274E+03	3.154597E-15	2.964907E-17
3.395231E+03	3.119273E-15	2.922295E-17
3.405187E+03	3.083866E-15	2.879778E-17
3.415144E+03	3.048424E-15	2.837403E-17
3.425101E+03	3.012958E-15	2.795182E-17
3.435057E+03	2.977510E-15	2.753155E-17
3.445014E+03	2.942092E-15	2.711335E-17
3.454971E+03	2.906749E-15	2.669763E-17
3.464928E+03	2.871499E-15	2.628458E-17
3.474884E+03	2.836361E-15	2.587437E-17
3.484841E+03	2.801387E-15	2.546747E-17
3.494798E+03	2.766599E-15	2.506410E-17
3.504754E+03	2.732037E-15	2.466459E-17
3.514711E+03	2.697729E-15	2.426920E-17
3.524668E+03	2.663718E-15	2.387829E-17
3.534624E+03	2.630048E-15	2.349226E-17
3.544581E+03	2.596757E-15	2.311142E-17
3.554538E+03	2.563902E-15	2.273625E-17
3.564494E+03	2.531532E-15	2.236716E-17
3.574451E+03	2.499683E-15	2.200442E-17
3.584408E+03	2.468424E-15	2.164861E-17
3.594365E+03	2.437798E-15	2.130005E-17
3.604321E+03	2.407865E-15	2.095922E-17
3.614278E+03	2.378676E-15	2.062650E-17
3.624235E+03	2.350274E-15	2.030221E-17
3.634191E+03	2.322722E-15	1.998682E-17
3.644148E+03	2.296067E-15	1.968065E-17
3.654105E+03	2.270351E-15	1.938400E-17
3.664061E+03	2.245632E-15	1.909726E-17
3.674018E+03	2.221939E-15	1.882058E-17
3.683975E+03	2.199313E-15	1.855424E-17
3.693931E+03	2.177801E-15	1.829851E-17
3.703888E+03	2.157435E-15	1.805356E-17
3.713845E+03	2.138229E-15	1.781941E-17
3.723801E+03	2.120223E-15	1.759626E-17
3.733758E+03	2.103428E-15	1.738410E-17
3.743715E+03	2.087865E-15	1.718298E-17
3.753672E+03	2.073534E-15	1.699278E-17
3.763628E+03	2.060443E-15	1.681343E-17
3.773585E+03	2.048585E-15	1.664476E-17
3.783542E+03	2.037944E-15	1.648651E-17
3.793498E+03	2.028506E-15	1.633846E-17
3.803455E+03	2.020237E-15	1.620020E-17
3.813412E+03	2.013103E-15	1.607134E-17
3.823368E+03	2.007044E-15	1.595128E-17
3.833325E+03	2.002012E-15	1.583954E-17
3.843282E+03	1.997925E-15	1.573536E-17
3.853238E+03	1.994713E-15	1.563810E-17
3.863195E+03	1.992275E-15	1.554686E-17
3.873152E+03	1.990520E-15	1.546088E-17
3.883108E+03	1.989327E-15	1.537913E-17
3.893065E+03	1.988591E-15	1.530075E-17
3.903022E+03	1.988179E-15	1.522467E-17
3.912979E+03	1.987968E-15	1.514992E-17
3.922935E+03	1.987845E-15	1.507563E-17
3.932892E+03	1.987673E-15	1.500074E-17
3.942849E+03	1.987335E-15	1.492439E-17
3.952805E+03	1.986712E-15	1.484572E-17
3.962762E+03	1.985703E-15	1.476400E-17
3.972719E+03	1.984215E-15	1.467859E-17
3.982675E+03	1.982169E-15	1.458897E-17
3.992632E+03	1.979478E-15	1.449455E-17
4.002589E+03	1.976085E-15	1.439501E-17
4.012545E+03	1.971946E-15	1.429011E-17
4.022502E+03	1.967028E-15	1.417970E-17
4.032459E+03	1.961305E-15	1.406369E-17
4.042415E+03	1.954762E-15	1.394205E-17
4.052372E+03	1.947406E-15	1.381494E-17
4.062329E+03	1.939258E-15	1.368262E-17
4.072286E+03	1.930345E-15	1.354535E-17
4.082242E+03	1.920710E-15	1.340355E-17
4.092199E+03	1.910420E-15	1.325774E-17
4.102156E+03	1.899545E-15	1.310852E-17
4.112112E+03	1.888182E-15	1.295660E-17
4.122069E+03	1.876437E-15	1.280279E-17
4.132026E+03	1.864401E-15	1.264774E-17
4.141982E+03	1.852207E-15	1.249240E-17
4.151939E+03	1.839980E-15	1.233762E-17
4.161896E+03	1.827821E-15	1.218410E-17
4.171852E+03	1.815850E-15	1.203261E-17
4.181809E+03	1.804166E-15	1.188381E-17
4.191766E+03	1.792857E-15	1.173823E-17
4.201723E+03	1.781982E-15	1.159622E-17
4.211679E+03	1.771578E-15	1.145797E-17
4.221636E+03	1.761677E-15	1.132364E-17
4.231593E+03	1.752258E-15	1.119304E-17
4.241549E+03	1.743286E-15	1.106590E-17
4.251506E+03	1.734694E-15	1.094174E-17
4.261463E+03	1.726396E-15	1.081998E-17
4.271419E+03	1.718301E-15	1.070003E-17
4.281376E+03	1.710297E-15	1.058117E-17
4.291333E+03	1.702286E-15	1.046280E-17
4.301289E+03	1.694190E-15	1.034444E-17
4.311246E+03	1.685959E-15	1.022580E-17
4.321203E+03	1.677601E-15	1.010696E-17
4.331159E+03	1.669164E-15	9.988222E-18
4.341116E+03	1.660764E-15	9.870282E-18
4.351073E+03	1.652514E-15	9.753802E-18
4.361030E+03	1.644577E-15	9.639710E-18
4.370986E+03	1.637057E-15	9.528591E-18
4.380943E+03	1.630029E-15	9.420811E-18
4.390900E+03	1.623501E-15	9.316366E-18
4.400856E+03	1.617446E-15	9.215034E-18
4.410813E+03	1.611840E-15	9.116624E-18
4.420770E+03	1.606640E-15	9.020836E-18
4.430726E+03	1.601840E-15	8.927586E-18
4.440683E+03	1.597435E-15	8.836796E-18
4.450640E+03	1.593395E-15	8.748254E-18
4.460596E+03	1.589728E-15	8.661961E-18
4.470553E+03	1.586411E-15	8.577737E-18
4.480510E+03	1.583423E-15	8.495436E-18
4.490466E+03	1.580728E-15	8.414814E-18
4.500423E+03	1.578290E-15	8.335653E-18
4.510380E+03	1.576050E-15	8.257614E-18
4.520337E+03	1.573967E-15	8.180446E-18
4.530293E+03	1.571997E-15	8.103913E-18
4.540250E+03	1.570074E-15	8.027665E-18
4.550207E+03	1.568161E-15	7.951504E-18
4.560163E+03	1.566234E-15	7.875309E-18
4.570120E+03	1.564277E-15	7.799002E-18
4.580077E+03	1.562312E-15	7.722700E-18
4.590033E+03	1.560355E-15	7.646485E-18
4.599990E+03	1.558464E-15	7.570634E-18
4.609947E+03	1.556717E-15	7.495521E-18
4.619903E+03	1.555233E-15	7.421692E-18
4.629860E+03	1.554127E-15	7.349660E-18
4.639817E+03	1.553574E-15	7.280202E-18
4.649773E+03	1.553705E-15	7.213856E-18
4.659730E+03	1.554690E-15	7.151320E-18
4.669687E+03	1.556683E-15	7.093181E-18
4.679644E+03	1.559811E-15	7.039885E-18
4.689600E+03	1.564175E-15	6.991747E-18
4.699557E+03	1.569862E-15	6.948981E-18
4.709514E+03	1.576884E-15	6.911483E-18
4.719470E+03	1.585260E-15	6.879152E-18
4.729427E+03	1.594901E-15	6.851440E-18
4.739384E+03	1.605715E-15	6.827796E-18
4.749340E+03	1.617540E-15	6.807377E-18
4.759297E+03	1.630159E-15	6.789161E-18
4.769254E+03	1.643315E-15	6.771984E-18
4.779210E+03	1.656725E-15	6.754627E-18
4.789167E+03	1.670041E-15	6.735662E-18
4.799124E+03	1.682937E-15	6.713804E-18
4.809080E+03	1.695062E-15	6.687728E-18
4.819037E+03	1.706099E-15	6.656314E-18
4.828994E+03	1.715747E-15	6.618553E-18
4.838951E+03	1.723720E-15	6.573539E-18
4.848907E+03	1.729813E-15	6.520739E-18
4.858864E+03	1.733856E-15	6.459775E-18
4.868821E+03	1.735761E-15	6.390606E-18
4.878777E+03	1.735458E-15	6.313276E-18
4.888734E+03	1.732977E-15	6.228192E-18
4.898691E+03	1.728370E-15	6.135841E-18
4.908647E+03	1.721745E-15	6.036902E-18
4.918604E+03	1.713237E-15	5.932116E-18
4.928561E+03	1.703034E-15	5.822394E-18
4.938517E+03	1.691302E-15	5.708531E-18
4.948474E+03	1.678263E-15	5.591484E-18
4.958431E+03	1.664114E-15	5.472086E-18
4.968388E+03	1.649064E-15	5.351177E-18
4.978344E+03	1.633315E-15	5.229541E-18
4.988301E+03	1.617044E-15	5.107841E-18
4.998258E+03	1.600428E-15	4.986714E-18
5.008214E+03	1.583612E-15	4.866667E-18
5.018171E+03	1.566750E-15	4.748211E-18
5.028128E+03	1.549951E-15	4.631692E-18
5.038084E+03	1.533316E-15	4.517420E-18
5.048041E+03	1.516915E-15	4.405597E-18
5.057998E+03	1.500814E-15	4.296399E-18
5.067954E+03	1.485062E-15	4.189948E-18
5.077911E+03	1.469693E-15	4.086317E-18
5.087868E+03	1.454716E-15	3.985502E-18
5.097824E+03	1.440154E-15	3.887541E-18
5.107781E+03	1.425985E-15	3.792344E-18
5.117738E+03	1.412214E-15	3.699909E-18
5.127695E+03	1.398821E-15	3.610152E-18
5.137651E+03	1.385791E-15	3.523021E-18
5.147608E+03	1.373122E-15	3.438496E-18
5.157565E+03	1.360771E-15	3.356458E-18
5.167521E+03	1.348735E-15	3.276888E-18
5.177478E+03	1.336986E-15	3.199717E-18
5.187435E+03	1.325508E-15	3.124907E-18
5.197391E+03	1.314288E-15	3.052431E-18
5.207348E+03	1.303330E-15	2.982301E-18
5.217305E+03	1.292599E-15	2.914446E-18
5.227261E+03	1.282091E-15	2.848868E-18
5.237218E+03	1.271827E-15	2.785626E-18
5.247175E+03	1.261771E-15	2.724656E-18
5.257131E+03	1.251963E-15	2.666058E-18
5.267088E+03	1.242375E-15	2.609786E-18
5.277045E+03	1.233038E-15	2.555925E-18
5.287002E+03	1.223967E-15	2.504517E-18
5.296958E+03	1.215153E-15	2.455559E-18
5.306915E+03	1.206650E-15	2.409174E-18
5.316872E+03	1.198442E-15	2.365341E-18
5.326828E+03	1.190584E-15	2.324183E-18
5.336785E+03	1.183088E-15	2.285729E-18
5.346742E+03	1.175974E-15	2.250026E-18
5.356698E+03	1.169261E-15	2.217118E-18
5.366655E+03	1.162989E-15	2.187083E-18
5.376612E+03	1.157157E-15	2.159924E-18
5.386568E+03	1.151770E-15	2.135652E-18
5.396525E+03	1.146790E-15	2.114195E-18
5.406482E+03	1.142187E-15	2.095500E-18
5.416438E+03	1.137875E-15	2.079389E-18
5.426395E+03	1.133840E-15	2.065765E-18
5.436352E+03	1.129981E-15	2.054374E-18
5.446309E+03	1.126170E-15	2.044905E-18
5.456265E+03	1.122211E-15	2.036923E-18
5.466222E+03	1.117767E-15	2.029738E-18
5.476179E+03	1.112587E-15	2.022807E-18
5.486135E+03	1.107006E-15	2.016642E-18
5.496092E+03	1.101298E-15	2.011647E-18
5.506049E+03	1.095632E-15	2.008036E-18
5.516005E+03	1.090107E-15	2.005898E-18
5.525962E+03	1.084787E-15	2.005262E-18
5.535919E+03	1.079712E-15	2.006119E-18
5.545875E+03	1.074922E-15	2.008463E-18
5.555832E+03	1.070425E-15	2.012231E-18
5.565789E+03	1.066247E-15	2.017402E-18
5.575746E+03	1.062383E-15	2.023903E-18
5.585702E+03	1.058864E-15	2.031726E-18
5.595659E+03	1.055672E-15	2.040781E-18
5.605616E+03	1.052832E-15	2.051064E-18
5.615572E+03	1.050347E-15	2.062535E-18
5.625529E+03	1.048210E-15	2.075131E-18
5.635486E+03	1.046443E-15	2.088860E-18
5.645442E+03	1.045027E-15	2.103643E-18
5.655399E+03	1.043982E-15	2.119494E-18
5.665356E+03	1.043307E-15	2.136378E-18
5.675312E+03	1.042997E-15	2.154262E-18
5.685269E+03	1.043046E-15	2.173109E-18
5.695226E+03	1.043441E-15	2.192872E-18
5.705182E+03	1.044177E-15	2.213525E-18
5.715139E+03	1.045224E-15	2.234984E-18
5.725096E+03	1.046580E-15	2.257231E-18
5.735053E+03	1.048201E-15	2.280159E-18
5.745009E+03	1.050063E-15	2.303700E-18
5.754966E+03	1.052113E-15	2.327725E-18
5.764923E+03	1.054316E-15	2.352140E-18
5.774879E+03	1.056634E-15	2.376846E-18
5.784836E+03	1.059000E-15	2.401675E-18
5.794793E+03	1.061358E-15	2.426481E-18
5.804749E+03	1.063675E-15	2.451171E-18
5.814706E+03	1.065883E-15	2.475566E-18
5.824663E+03	1.067929E-15	2.499521E-18
5.834619E+03	1.069760E-15	2.522888E-18
5.844576E+03	1.071348E-15	2.545573E-18
5.854533E+03	1.072652E-15	2.567459E-18
5.864489E+03	1.073656E-15	2.588478E-18
5.874446E+03	1.074312E-15	2.608491E-18
5.884403E+03	1.074631E-15	2.627499E-18
5.894360E+03	1.074608E-15	2.645465E-18
5.904316E+03	1.074244E-15	2.662370E-18
5.914273E+03	1.073547E-15	2.678214E-18
5.924230E+03	1.072519E-15	2.692981E-18
5.934186E+03	1.071203E-15	2.706768E-18
5.944143E+03	1.069624E-15	2.719617E-18
5.954100E+03	1.067793E-15	2.731548E-18
5.964056E+03	1.065735E-15	2.742615E-18
5.974013E+03	1.063489E-15	2.752913E-18
5.983970E+03	1.061066E-15	2.762466E-18
5.993926E+03	1.058489E-15	2.771327E-18
6.003883E+03	1.055775E-15	2.779542E-18
6.013840E+03	1.052953E-15	2.787186E-18
6.023796E+03	1.049991E-15	2.794178E-18
6.033753E+03	1.046923E-15	2.800611E-18
6.043710E+03	1.043738E-15	2.806457E-18
6.053667E+03	1.040405E-15	2.811636E-18
6.063623E+03	1.036920E-15	2.816141E-18
6.073580E+03	1.033261E-15	2.819915E-18
6.083537E+03	1.029420E-15	2.822939E-18
6.093493E+03	1.025346E-15	2.825076E-18
6.103450E+03	1.021032E-15	2.826310E-18
6.113407E+03	1.016444E-15	2.826549E-18
6.123363E+03	1.011567E-15	2.825751E-18
6.133320E+03	1.006391E-15	2.823888E-18
6.143277E+03	1.000937E-15	2.821021E-18
6.153233E+03	9.952348E-16	2.817239E-18
6.163190E+03	9.893222E-16	2.812652E-18
6.173147E+03	9.832427E-16	2.807388E-18
6.183103E+03	9.770504E-16	2.801609E-18
6.193060E+03	9.708078E-16	2.795506E-18
6.203017E+03	9.645697E-16	2.789246E-18
6.212974E+03	9.584281E-16	2.783112E-18
6.222930E+03	9.524540E-16	2.777324E-18
6.232887E+03	9.467255E-16	2.772132E-18
6.242844E+03	9.413381E-16	2.767837E-18
6.252800E+03	9.363801E-16	2.764725E-18
6.262757E+03	9.319692E-16	2.763173E-18
6.272714E+03	9.281725E-16	2.763413E-18
6.282670E+03	9.250959E-16	2.765797E-18
6.292627E+03	9.228476E-16	2.770688E-18
6.302584E+03	9.215168E-16	2.778400E-18
6.312540E+03	9.211721E-16	2.789188E-18
6.322497E+03	9.218993E-16	2.803364E-18
6.332454E+03	9.237683E-16	2.821195E-18
6.342411E+03	9.267877E-16	2.842768E-18
6.352367E+03	9.310110E-16	2.868309E-18
6.362324E+03	9.363731E-16	2.897679E-18
6.372281E+03	9.428489E-16	2.930863E-18
6.382237E+03	9.503490E-16	2.967632E-18
6.392194E+03	9.587366E-16	3.007596E-18
6.402151E+03	9.678952E-16	3.050420E-18
6.412107E+03	9.776515E-16	3.095585E-18
6.422064E+03	9.878317E-16	3.142558E-18
6.432021E+03	9.983314E-16	3.191019E-18
6.441977E+03	1.009040E-15	3.240624E-18
6.451934E+03	1.019941E-15	3.291317E-18
6.461891E+03	1.031053E-15	3.343164E-18
6.471847E+03	1.042476E-15	3.396495E-18
6.481804E+03	1.054361E-15	3.451809E-18
6.491761E+03	1.066755E-15	3.509275E-18
6.501718E+03	1.079528E-15	3.568480E-18
6.511674E+03	1.092515E-15	3.628884E-18
6.521631E+03	1.105711E-15	3.690473E-18
6.531588E+03	1.118879E-15	3.752452E-18
6.541544E+03	1.131599E-15	3.813395E-18
6.551501E+03	1.143456E-15	3.871863E-18
6.561458E+03	1.153999E-15	3.926268E-18
6.571414E+03	1.162915E-15	3.975471E-18
6.581371E+03	1.169922E-15	4.018406E-18
6.591328E+03	1.174770E-15	4.054110E-18
6.601284E+03	1.177346E-15	4.082073E-18
6.611241E+03	1.177586E-15	4.101950E-18
6.621198E+03	1.175513E-15	4.113699E-18
6.631154E+03	1.171145E-15	4.117258E-18
6.641111E+03	1.164612E-15	4.112966E-18
6.651068E+03	1.156060E-15	4.101229E-18
6.661025E+03	1.145647E-15	4.082506E-18
6.670981E+03	1.133594E-15	4.057486E-18
6.680938E+03	1.120112E-15	4.026852E-18
6.690895E+03	1.105421E-15	3.991318E-18
6.700851E+03	1.089716E-15	3.951537E-18
6.710808E+03	1.073211E-15	3.908234E-18
6.720765E+03	1.056127E-15	3.862177E-18
6.730721E+03	1.038633E-15	3.813961E-18
6.740678E+03	1.020901E-15	3.764198E-18
6.750635E+03	1.003087E-15	3.713461E-18
6.760591E+03	9.853492E-16	3.662330E-18
6.770548E+03	9.677876E-16	3.611185E-18
6.780505E+03	9.504853E-16	3.560348E-18
6.790461E+03	9.335650E-16	3.510293E-18
6.800418E+03	9.170603E-16	3.461167E-18
6.810375E+03	9.010613E-16	3.413333E-18
6.820332E+03	8.855737E-16	3.366836E-18
6.830288E+03	8.706443E-16	3.321882E-18
6.840245E+03	8.562739E-16	3.278499E-18
6.850202E+03	8.424903E-16	3.236822E-18
6.860158E+03	8.292943E-16	3.196881E-18
6.870115E+03	8.166485E-16	3.158558E-18
6.880072E+03	8.045913E-16	3.122030E-18
6.890028E+03	7.930593E-16	3.087074E-18
6.899985E+03	7.820662E-16	3.053770E-18
6.909942E+03	7.715748E-16	3.021995E-18
6.919898E+03	7.615619E-16	2.991681E-18
6.929855E+03	7.520026E-16	2.962752E-18
6.939812E+03	7.428863E-16	2.935184E-18
6.949769E+03	7.341564E-16	2.908773E-18
6.959725E+03	7.258020E-16	2.883494E-18
6.969682E+03	7.177826E-16	2.859201E-18
6.979639E+03	7.100881E-16	2.835868E-18
6.989595E+03	7.026949E-16	2.813417E-18
6.999552E+03	6.955805E-16	2.791769E-18
7.009509E+03	6.887099E-16	2.770797E-18
7.019465E+03	6.820645E-16	2.750436E-18
7.029422E+03	6.756421E-16	2.730689E-18
7.039379E+03	6.694140E-16	2.711450E-18
7.049335E+03	6.633819E-16	2.692734E-18
7.059292E+03	6.575079E-16	2.674398E-18
7.069249E+03	6.517980E-16	2.656473E-18
7.079205E+03	6.462599E-16	2.639001E-18
7.089162E+03	6.408617E-16	2.621858E-18
7.099119E+03	6.356284E-16	2.605154E-18
7.109076E+03	6.305311E-16	2.588780E-18
7.119032E+03	6.255831E-16	2.572797E-18
7.128989E+03	6.207714E-16	2.557158E-18
7.138946E+03	6.161100E-16	2.541930E-18
7.148902E+03	6.116002E-16	2.527124E-18
7.158859E+03	6.072291E-16	2.512695E-18
7.168816E+03	6.029977E-16	2.498653E-18
7.178772E+03	5.989189E-16	2.485059E-18
7.188729E+03	5.949789E-16	2.471863E-18
7.198686E+03	5.911761E-16	2.459064E-18
7.208642E+03	5.875216E-16	2.446715E-18
7.218599E+03	5.839856E-16	2.434699E-18
7.228556E+03	5.805774E-16	2.423060E-18
7.238512E+03	5.772917E-16	2.411782E-18
7.248469E+03	5.741232E-16	2.400850E-18
7.258426E+03	5.710657E-16	2.390242E-18
7.268383E+03	5.680998E-16	2.379883E-18
7.278339E+03	5.652321E-16	2.369807E-18
7.288296E+03	5.624434E-16	2.359939E-18
7.298253E+03	5.597281E-16	2.350260E-18
7.308209E+03	5.570939E-16	2.340808E-18
7.318166E+03	5.545241E-16	2.331517E-18
7.328123E+03	5.520158E-16	2.322382E-18
7.338079E+03	5.495550E-16	2.313348E-18
7.348036E+03	5.471545E-16	2.304475E-18
7.357993E+03	5.448157E-16	2.295772E-18
7.367949E+03	5.425292E-16	2.287207E-18
7.377906E+03	5.402866E-16	2.278748E-18
7.387863E+03	5.381190E-16	2.270533E-18
7.397819E+03	5.360081E-16	2.262490E-18
7.407776E+03	5.339618E-16	2.254656E-18
7.417733E+03	5.320012E-16	2.247127E-18
7.427690E+03	5.301231E-16	2.239895E-18
7.437646E+03	5.283368E-16	2.233005E-18
7.447603E+03	5.266522E-16	2.226504E-18
7.457560E+03	5.251038E-16	2.220544E-18
7.467516E+03	5.236758E-16	2.215064E-18
7.477473E+03	5.223893E-16	2.210159E-18
7.487430E+03	5.212781E-16	2.205978E-18
7.497386E+03	5.203238E-16	2.202449E-18
7.507343E+03	5.195459E-16	2.199662E-18
7.517300E+03	5.189501E-16	2.197646E-18
7.527256E+03	5.185411E-16	2.196428E-18
7.537213E+03	5.183491E-16	2.196144E-18
7.547170E+03	5.183383E-16	2.196647E-18
7.557126E+03	5.185504E-16	2.198121E-18
7.567083E+03	5.189607E-16	2.200470E-18
7.577040E+03	5.195964E-16	2.203816E-18
7.586997E+03	5.204306E-16	2.208052E-18
7.596953E+03	5.214887E-16	2.213295E-18
7.606910E+03	5.227547E-16	2.219485E-18
7.616867E+03	5.242248E-16	2.226614E-18
7.626823E+03	5.259076E-16	2.234727E-18
7.636780E+03	5.277823E-16	2.243748E-18
7.646737E+03	5.298410E-16	2.253649E-18
7.656693E+03	5.320878E-16	2.264461E-18
7.666650E+03	5.344976E-16	2.276086E-18
7.676607E+03	5.370865E-16	2.288603E-18
7.686563E+03	5.397979E-16	2.301784E-18
7.696520E+03	5.426609E-16	2.315762E-18
7.706477E+03	5.456310E-16	2.330361E-18
7.716434E+03	5.487071E-16	2.345588E-18
7.726390E+03	5.518735E-16	2.361387E-18
