#wls	flux	fluxerr
1.593070E+03	1.053654E-16	1.802873E-18
1.632897E+03	1.063879E-16	1.811749E-18
1.672724E+03	1.069970E-16	1.813247E-18
1.712550E+03	1.071990E-16	1.807567E-18
1.752377E+03	1.069807E-16	1.794587E-18
1.792204E+03	1.062581E-16	1.773016E-18
1.832031E+03	1.049471E-16	1.741589E-18
1.871857E+03	1.029426E-16	1.698739E-18
1.911684E+03	1.001366E-16	1.642899E-18
1.951511E+03	9.651200E-17	1.574030E-18
1.991338E+03	9.220897E-17	1.494667E-18
2.031164E+03	8.765502E-17	1.411922E-18
2.070991E+03	8.363181E-17	1.338411E-18
2.110818E+03	8.112437E-17	1.289651E-18
2.150645E+03	8.100501E-17	1.278946E-18
2.190471E+03	8.365053E-17	1.311422E-18
2.230298E+03	8.886388E-17	1.383070E-18
2.270125E+03	9.607359E-17	1.484147E-18
2.309952E+03	1.046535E-16	1.604307E-18
2.349778E+03	1.140612E-16	1.734744E-18
2.389605E+03	1.239876E-16	1.870425E-18
2.429432E+03	1.342568E-16	2.008450E-18
2.469259E+03	1.448519E-16	2.148356E-18
2.509085E+03	1.557892E-16	2.290174E-18
2.548912E+03	1.671445E-16	2.434788E-18
2.588739E+03	1.789968E-16	2.583076E-18
2.628566E+03	1.914350E-16	2.736013E-18
2.668392E+03	2.045638E-16	2.894737E-18
2.708219E+03	2.184694E-16	3.060055E-18
2.748046E+03	2.332378E-16	3.232713E-18
2.787873E+03	2.489656E-16	3.413539E-18
2.827700E+03	2.657478E-16	3.603266E-18
2.867526E+03	2.836521E-16	3.802188E-18
2.907353E+03	3.027629E-16	4.010765E-18
2.947180E+03	3.231187E-16	4.228782E-18
2.987007E+03	3.447678E-16	4.456115E-18
2.996963E+03	3.503748E-16	4.514217E-18
3.006920E+03	3.560555E-16	4.572747E-18
3.016877E+03	3.618199E-16	4.631824E-18
3.026833E+03	3.676584E-16	4.691312E-18
3.036790E+03	3.736015E-16	4.751585E-18
3.046747E+03	3.796549E-16	4.812700E-18
3.056703E+03	3.858322E-16	4.874814E-18
3.066660E+03	3.921244E-16	4.937794E-18
3.076617E+03	3.985102E-16	5.001357E-18
3.086573E+03	4.049809E-16	5.065377E-18
3.096530E+03	4.115407E-16	5.129896E-18
3.106487E+03	4.181814E-16	5.194795E-18
3.116443E+03	4.248819E-16	5.259800E-18
3.126400E+03	4.316468E-16	5.324960E-18
3.136357E+03	4.384555E-16	5.390007E-18
3.146314E+03	4.452999E-16	5.454835E-18
3.156270E+03	4.521850E-16	5.519498E-18
3.166227E+03	4.590904E-16	5.583739E-18
3.176184E+03	4.660081E-16	5.647457E-18
3.186140E+03	4.729311E-16	5.710562E-18
3.196097E+03	4.798514E-16	5.772954E-18
3.206054E+03	4.867621E-16	5.834549E-18
3.216010E+03	4.936560E-16	5.895260E-18
3.225967E+03	5.005135E-16	5.954852E-18
3.235924E+03	5.073399E-16	6.013392E-18
3.245880E+03	5.141034E-16	6.070506E-18
3.255837E+03	5.208363E-16	6.126578E-18
3.265794E+03	5.274931E-16	6.181081E-18
3.275750E+03	5.340689E-16	6.233961E-18
3.285707E+03	5.405823E-16	6.285446E-18
3.295664E+03	5.470037E-16	6.335200E-18
3.305621E+03	5.533395E-16	6.383308E-18
3.315577E+03	5.595613E-16	6.429451E-18
3.325534E+03	5.656883E-16	6.473864E-18
3.335491E+03	5.716930E-16	6.516245E-18
3.345447E+03	5.775838E-16	6.556705E-18
3.355404E+03	5.833458E-16	6.595091E-18
3.365361E+03	5.889891E-16	6.631532E-18
3.375317E+03	5.944991E-16	6.665880E-18
3.385274E+03	5.998757E-16	6.698152E-18
3.395231E+03	6.051067E-16	6.728229E-18
3.405187E+03	6.102166E-16	6.756403E-18
3.415144E+03	6.151703E-16	6.782304E-18
3.425101E+03	6.200073E-16	6.806385E-18
3.435057E+03	6.246952E-16	6.828309E-18
3.445014E+03	6.292623E-16	6.848405E-18
3.454971E+03	6.336911E-16	6.866501E-18
3.464928E+03	6.380129E-16	6.882953E-18
3.474884E+03	6.422245E-16	6.897744E-18
3.484841E+03	6.463255E-16	6.910884E-18
3.494798E+03	6.503401E-16	6.922646E-18
3.504754E+03	6.542942E-16	6.933319E-18
3.514711E+03	6.581815E-16	6.942845E-18
3.524668E+03	6.620214E-16	6.951438E-18
3.534624E+03	6.658582E-16	6.959568E-18
3.544581E+03	6.696908E-16	6.967226E-18
3.554538E+03	6.735346E-16	6.974573E-18
3.564494E+03	6.774168E-16	6.981886E-18
3.574451E+03	6.813451E-16	6.989243E-18
3.584408E+03	6.853395E-16	6.996840E-18
3.594365E+03	6.894219E-16	7.004891E-18
3.604321E+03	6.935950E-16	7.013410E-18
3.614278E+03	6.979065E-16	7.022867E-18
3.624235E+03	7.023717E-16	7.033395E-18
3.634191E+03	7.069983E-16	7.045049E-18
3.644148E+03	7.118364E-16	7.058303E-18
3.654105E+03	7.169055E-16	7.073319E-18
3.664061E+03	7.222261E-16	7.090268E-18
3.674018E+03	7.278404E-16	7.109524E-18
3.683975E+03	7.337585E-16	7.131144E-18
3.693931E+03	7.400238E-16	7.155504E-18
3.703888E+03	7.466568E-16	7.182752E-18
3.713845E+03	7.536900E-16	7.213146E-18
3.723801E+03	7.611643E-16	7.247019E-18
3.733758E+03	7.690796E-16	7.284306E-18
3.743715E+03	7.774859E-16	7.325414E-18
3.753672E+03	7.864011E-16	7.370442E-18
3.763628E+03	7.958504E-16	7.419550E-18
3.773585E+03	8.058479E-16	7.472794E-18
3.783542E+03	8.164137E-16	7.530281E-18
3.793498E+03	8.275750E-16	7.592178E-18
3.803455E+03	8.393244E-16	7.658332E-18
3.813412E+03	8.516798E-16	7.728824E-18
3.823368E+03	8.646329E-16	7.803492E-18
3.833325E+03	8.781798E-16	7.882217E-18
3.843282E+03	8.923195E-16	7.964908E-18
3.853238E+03	9.070118E-16	8.051123E-18
3.863195E+03	9.222307E-16	8.140558E-18
3.873152E+03	9.379508E-16	8.232919E-18
3.883108E+03	9.541183E-16	8.327668E-18
3.893065E+03	9.706920E-16	8.424389E-18
3.903022E+03	9.875795E-16	8.522234E-18
3.912979E+03	1.004747E-15	8.620870E-18
3.922935E+03	1.022098E-15	8.719449E-18
3.932892E+03	1.039554E-15	8.817288E-18
3.942849E+03	1.057031E-15	8.913675E-18
3.952805E+03	1.074457E-15	9.008002E-18
3.962762E+03	1.091720E-15	9.099368E-18
3.972719E+03	1.108746E-15	9.187191E-18
3.982675E+03	1.125438E-15	9.270721E-18
3.992632E+03	1.141714E-15	9.349350E-18
4.002589E+03	1.157510E-15	9.422632E-18
4.012545E+03	1.172743E-15	9.489981E-18
4.022502E+03	1.187352E-15	9.550993E-18
4.032459E+03	1.201279E-15	9.605331E-18
4.042415E+03	1.214470E-15	9.652663E-18
4.052372E+03	1.226900E-15	9.692926E-18
4.062329E+03	1.238547E-15	9.726061E-18
4.072286E+03	1.249385E-15	9.752006E-18
4.082242E+03	1.259414E-15	9.770882E-18
4.092199E+03	1.268657E-15	9.783000E-18
4.102156E+03	1.277122E-15	9.788566E-18
4.112112E+03	1.284843E-15	9.787946E-18
4.122069E+03	1.291861E-15	9.781586E-18
4.132026E+03	1.298228E-15	9.769983E-18
4.141982E+03	1.304014E-15	9.753774E-18
4.151939E+03	1.309256E-15	9.733334E-18
4.161896E+03	1.314033E-15	9.709333E-18
4.171852E+03	1.318411E-15	9.682347E-18
4.181809E+03	1.322469E-15	9.653021E-18
4.191766E+03	1.326245E-15	9.621689E-18
4.201723E+03	1.329820E-15	9.588996E-18
4.211679E+03	1.333220E-15	9.555176E-18
4.221636E+03	1.336514E-15	9.520753E-18
4.231593E+03	1.339722E-15	9.485918E-18
4.241549E+03	1.342873E-15	9.450889E-18
4.251506E+03	1.345997E-15	9.415916E-18
4.261463E+03	1.349082E-15	9.380940E-18
4.271419E+03	1.352178E-15	9.346324E-18
4.281376E+03	1.355268E-15	9.311982E-18
4.291333E+03	1.358378E-15	9.278104E-18
4.301289E+03	1.361514E-15	9.244760E-18
4.311246E+03	1.364716E-15	9.212237E-18
4.321203E+03	1.368013E-15	9.180745E-18
4.331159E+03	1.371472E-15	9.150748E-18
4.341116E+03	1.375167E-15	9.122730E-18
4.351073E+03	1.379161E-15	9.097121E-18
4.361030E+03	1.383588E-15	9.074778E-18
4.370986E+03	1.388566E-15	9.056457E-18
4.380943E+03	1.394113E-15	9.042244E-18
4.390900E+03	1.400218E-15	9.032033E-18
4.400856E+03	1.406838E-15	9.025518E-18
4.410813E+03	1.413956E-15	9.022561E-18
4.420770E+03	1.421545E-15	9.022947E-18
4.430726E+03	1.429574E-15	9.026449E-18
4.440683E+03	1.437987E-15	9.032702E-18
4.450640E+03	1.446750E-15	9.041461E-18
4.460596E+03	1.455798E-15	9.052313E-18
4.470553E+03	1.465043E-15	9.064703E-18
4.480510E+03	1.474392E-15	9.078061E-18
4.490466E+03	1.483726E-15	9.091676E-18
4.500423E+03	1.492941E-15	9.104929E-18
4.510380E+03	1.501899E-15	9.117010E-18
4.520337E+03	1.510456E-15	9.127096E-18
4.530293E+03	1.518468E-15	9.134380E-18
4.540250E+03	1.525826E-15	9.138261E-18
4.550207E+03	1.532407E-15	9.138073E-18
4.560163E+03	1.538090E-15	9.133186E-18
4.570120E+03	1.542807E-15	9.123278E-18
4.580077E+03	1.546518E-15	9.108189E-18
4.590033E+03	1.549200E-15	9.087875E-18
4.599990E+03	1.550850E-15	9.062400E-18
4.609947E+03	1.551514E-15	9.032100E-18
4.619903E+03	1.551281E-15	8.997570E-18
4.629860E+03	1.550256E-15	8.959478E-18
4.639817E+03	1.548556E-15	8.918547E-18
4.649773E+03	1.546331E-15	8.875679E-18
4.659730E+03	1.543756E-15	8.831906E-18
4.669687E+03	1.540972E-15	8.788049E-18
4.679644E+03	1.538159E-15	8.745145E-18
4.689600E+03	1.535475E-15	8.704083E-18
4.699557E+03	1.533076E-15	8.665739E-18
4.709514E+03	1.531096E-15	8.630858E-18
4.719470E+03	1.529646E-15	8.600042E-18
4.729427E+03	1.528846E-15	8.573934E-18
4.739384E+03	1.528744E-15	8.552782E-18
4.749340E+03	1.529394E-15	8.536860E-18
4.759297E+03	1.530780E-15	8.526055E-18
4.769254E+03	1.532886E-15	8.520259E-18
4.779210E+03	1.535619E-15	8.518925E-18
4.789167E+03	1.538895E-15	8.521556E-18
4.799124E+03	1.542564E-15	8.527280E-18
4.809080E+03	1.546514E-15	8.535444E-18
4.819037E+03	1.550601E-15	8.545235E-18
4.828994E+03	1.554659E-15	8.555714E-18
4.838951E+03	1.558582E-15	8.566274E-18
4.848907E+03	1.562237E-15	8.576172E-18
4.858864E+03	1.565525E-15	8.584842E-18
4.868821E+03	1.568366E-15	8.591841E-18
4.878777E+03	1.570694E-15	8.596779E-18
4.888734E+03	1.572477E-15	8.599471E-18
4.898691E+03	1.573699E-15	8.599805E-18
4.908647E+03	1.574375E-15	8.597856E-18
4.918604E+03	1.574546E-15	8.593817E-18
4.928561E+03	1.574241E-15	8.587830E-18
4.938517E+03	1.573560E-15	8.580418E-18
4.948474E+03	1.572546E-15	8.571786E-18
4.958431E+03	1.571291E-15	8.562415E-18
4.968388E+03	1.569893E-15	8.552810E-18
4.978344E+03	1.568451E-15	8.543483E-18
4.988301E+03	1.567022E-15	8.534729E-18
4.998258E+03	1.565731E-15	8.527190E-18
5.008214E+03	1.564640E-15	8.521188E-18
5.018171E+03	1.563821E-15	8.517086E-18
5.028128E+03	1.563363E-15	8.515352E-18
5.038084E+03	1.563293E-15	8.516101E-18
5.048041E+03	1.563679E-15	8.519696E-18
5.057998E+03	1.564555E-15	8.526293E-18
5.067954E+03	1.565927E-15	8.535908E-18
5.077911E+03	1.567844E-15	8.548798E-18
5.087868E+03	1.570262E-15	8.564702E-18
5.097824E+03	1.573207E-15	8.583752E-18
5.107781E+03	1.576641E-15	8.605717E-18
5.117738E+03	1.580526E-15	8.630384E-18
5.127695E+03	1.584830E-15	8.657566E-18
5.137651E+03	1.589498E-15	8.686949E-18
5.147608E+03	1.594468E-15	8.718185E-18
5.157565E+03	1.599671E-15	8.750880E-18
5.167521E+03	1.605047E-15	8.784702E-18
5.177478E+03	1.610520E-15	8.819214E-18
5.187435E+03	1.616008E-15	8.853962E-18
5.197391E+03	1.621430E-15	8.888492E-18
5.207348E+03	1.626720E-15	8.922428E-18
5.217305E+03	1.631784E-15	8.955240E-18
5.227261E+03	1.636559E-15	8.986573E-18
5.237218E+03	1.640988E-15	9.016102E-18
5.247175E+03	1.644972E-15	9.043264E-18
5.257131E+03	1.648480E-15	9.067880E-18
5.267088E+03	1.651439E-15	9.089535E-18
5.277045E+03	1.653817E-15	9.108041E-18
5.287002E+03	1.655575E-15	9.123164E-18
5.296958E+03	1.656678E-15	9.134706E-18
5.306915E+03	1.657103E-15	9.142521E-18
5.316872E+03	1.656832E-15	9.146503E-18
5.326828E+03	1.655857E-15	9.146585E-18
5.336785E+03	1.654189E-15	9.142830E-18
5.346742E+03	1.651817E-15	9.135153E-18
5.356698E+03	1.648746E-15	9.123585E-18
5.366655E+03	1.645006E-15	9.108272E-18
5.376612E+03	1.640594E-15	9.089192E-18
5.386568E+03	1.635526E-15	9.066424E-18
5.396525E+03	1.629819E-15	9.040053E-18
5.406482E+03	1.623488E-15	9.010160E-18
5.416438E+03	1.616567E-15	8.976923E-18
5.426395E+03	1.609053E-15	8.940322E-18
5.436352E+03	1.600959E-15	8.900424E-18
5.446309E+03	1.592296E-15	8.857282E-18
5.456265E+03	1.583060E-15	8.810849E-18
5.466222E+03	1.573258E-15	8.761158E-18
5.476179E+03	1.562905E-15	8.708267E-18
5.486135E+03	1.552090E-15	8.652665E-18
5.496092E+03	1.540912E-15	8.594893E-18
5.506049E+03	1.529464E-15	8.535459E-18
5.516005E+03	1.517820E-15	8.474767E-18
5.525962E+03	1.506064E-15	8.413274E-18
5.535919E+03	1.494290E-15	8.351501E-18
5.545875E+03	1.482540E-15	8.289680E-18
5.555832E+03	1.470882E-15	8.228194E-18
5.565789E+03	1.459381E-15	8.167390E-18
5.575746E+03	1.448078E-15	8.107509E-18
5.585702E+03	1.437043E-15	8.048933E-18
5.595659E+03	1.426308E-15	7.991846E-18
5.605616E+03	1.415903E-15	7.936417E-18
5.615572E+03	1.405882E-15	7.882953E-18
5.625529E+03	1.396252E-15	7.831492E-18
5.635486E+03	1.387061E-15	7.782299E-18
5.645442E+03	1.378321E-15	7.735454E-18
5.655399E+03	1.370058E-15	7.691099E-18
5.665356E+03	1.362291E-15	7.649351E-18
5.675312E+03	1.355012E-15	7.610162E-18
5.685269E+03	1.348263E-15	7.573775E-18
5.695226E+03	1.342026E-15	7.540093E-18
5.705182E+03	1.336310E-15	7.509167E-18
5.715139E+03	1.331121E-15	7.481032E-18
5.725096E+03	1.326445E-15	7.455620E-18
5.735053E+03	1.322284E-15	7.432942E-18
5.745009E+03	1.318632E-15	7.412973E-18
5.754966E+03	1.315473E-15	7.395615E-18
5.764923E+03	1.312797E-15	7.380831E-18
5.774879E+03	1.310597E-15	7.368573E-18
5.784836E+03	1.308862E-15	7.358792E-18
5.794793E+03	1.307555E-15	7.351274E-18
5.804749E+03	1.306678E-15	7.346042E-18
5.814706E+03	1.306206E-15	7.342962E-18
5.824663E+03	1.306143E-15	7.342055E-18
5.834619E+03	1.306453E-15	7.343119E-18
5.844576E+03	1.307138E-15	7.346183E-18
5.854533E+03	1.308181E-15	7.351146E-18
5.864489E+03	1.309575E-15	7.357977E-18
5.874446E+03	1.311317E-15	7.366664E-18
5.884403E+03	1.313391E-15	7.377124E-18
5.894360E+03	1.315798E-15	7.389361E-18
5.904316E+03	1.318551E-15	7.403467E-18
5.914273E+03	1.321626E-15	7.419307E-18
5.924230E+03	1.325023E-15	7.436891E-18
5.934186E+03	1.328760E-15	7.456321E-18
5.944143E+03	1.332823E-15	7.477531E-18
5.954100E+03	1.337211E-15	7.500522E-18
5.964056E+03	1.341905E-15	7.525198E-18
5.974013E+03	1.346927E-15	7.551687E-18
5.983970E+03	1.352233E-15	7.579756E-18
5.993926E+03	1.357820E-15	7.609394E-18
6.003883E+03	1.363660E-15	7.640455E-18
6.013840E+03	1.369689E-15	7.672593E-18
6.023796E+03	1.375905E-15	7.705813E-18
6.033753E+03	1.382225E-15	7.739653E-18
6.043710E+03	1.388596E-15	7.773837E-18
6.053667E+03	1.394940E-15	7.807945E-18
6.063623E+03	1.401168E-15	7.841485E-18
6.073580E+03	1.407179E-15	7.873908E-18
6.083537E+03	1.412873E-15	7.904679E-18
6.093493E+03	1.418113E-15	7.933038E-18
6.103450E+03	1.422780E-15	7.958342E-18
6.113407E+03	1.426749E-15	7.979909E-18
6.123363E+03	1.429874E-15	7.996941E-18
6.133320E+03	1.432005E-15	8.008617E-18
6.143277E+03	1.433012E-15	8.014218E-18
6.153233E+03	1.432751E-15	8.012963E-18
6.163190E+03	1.431087E-15	8.004108E-18
6.173147E+03	1.427915E-15	7.987083E-18
6.183103E+03	1.423119E-15	7.961247E-18
6.193060E+03	1.416636E-15	7.926258E-18
6.203017E+03	1.408431E-15	7.881926E-18
6.212974E+03	1.398481E-15	7.828122E-18
6.222930E+03	1.386919E-15	7.765568E-18
6.232887E+03	1.374040E-15	7.695903E-18
6.242844E+03	1.360213E-15	7.621180E-18
6.252800E+03	1.345763E-15	7.543205E-18
6.262757E+03	1.331044E-15	7.463942E-18
6.272714E+03	1.316381E-15	7.385205E-18
6.282670E+03	1.302080E-15	7.308707E-18
6.292627E+03	1.288459E-15	7.236216E-18
6.302584E+03	1.275745E-15	7.169009E-18
6.312540E+03	1.264200E-15	7.108559E-18
6.322497E+03	1.254039E-15	7.056081E-18
6.332454E+03	1.245401E-15	7.012364E-18
6.342411E+03	1.238458E-15	6.978385E-18
6.352367E+03	1.233333E-15	6.954860E-18
6.362324E+03	1.230077E-15	6.942090E-18
6.372281E+03	1.228772E-15	6.940565E-18
6.382237E+03	1.229427E-15	6.950363E-18
6.392194E+03	1.232058E-15	6.971601E-18
6.402151E+03	1.236642E-15	7.004172E-18
6.412107E+03	1.243115E-15	7.047765E-18
6.422064E+03	1.251448E-15	7.102226E-18
6.432021E+03	1.261541E-15	7.167027E-18
6.441977E+03	1.273320E-15	7.241757E-18
6.451934E+03	1.286714E-15	7.326038E-18
6.461891E+03	1.301578E-15	7.419070E-18
6.471847E+03	1.317849E-15	7.520509E-18
6.481804E+03	1.335375E-15	7.629509E-18
6.491761E+03	1.354076E-15	7.745625E-18
6.501718E+03	1.373820E-15	7.868124E-18
6.511674E+03	1.394386E-15	7.995750E-18
6.521631E+03	1.415345E-15	8.126048E-18
6.531588E+03	1.436233E-15	8.256350E-18
6.541544E+03	1.456632E-15	8.384234E-18
6.551501E+03	1.476119E-15	8.507247E-18
6.561458E+03	1.494300E-15	8.623075E-18
6.571414E+03	1.510813E-15	8.729594E-18
6.581371E+03	1.525321E-15	8.824800E-18
6.591328E+03	1.537581E-15	8.907229E-18
6.601284E+03	1.547387E-15	8.975623E-18
6.611241E+03	1.554596E-15	9.029074E-18
6.621198E+03	1.559102E-15	9.066903E-18
6.631154E+03	1.560908E-15	9.089047E-18
6.641111E+03	1.560027E-15	9.095516E-18
6.651068E+03	1.556550E-15	9.086759E-18
6.661025E+03	1.550634E-15	9.063632E-18
6.670981E+03	1.542410E-15	9.026834E-18
6.680938E+03	1.532127E-15	8.977766E-18
6.690895E+03	1.519991E-15	8.917574E-18
6.700851E+03	1.506221E-15	8.847502E-18
6.710808E+03	1.491110E-15	8.769235E-18
6.720765E+03	1.474864E-15	8.683940E-18
6.730721E+03	1.457724E-15	8.593022E-18
6.740678E+03	1.439947E-15	8.497968E-18
6.750635E+03	1.421730E-15	8.399931E-18
6.760591E+03	1.403276E-15	8.300097E-18
6.770548E+03	1.384770E-15	8.199557E-18
6.780505E+03	1.366377E-15	8.099284E-18
6.790461E+03	1.348241E-15	8.000138E-18
6.800418E+03	1.330467E-15	7.902751E-18
6.810375E+03	1.313182E-15	7.807879E-18
6.820332E+03	1.296453E-15	7.715942E-18
6.830288E+03	1.280375E-15	7.627502E-18
6.840245E+03	1.264979E-15	7.542777E-18
6.850202E+03	1.250290E-15	7.461914E-18
6.860158E+03	1.236377E-15	7.385347E-18
6.870115E+03	1.223218E-15	7.312957E-18
6.880072E+03	1.210841E-15	7.244930E-18
6.890028E+03	1.199226E-15	7.181156E-18
6.899985E+03	1.188385E-15	7.121726E-18
6.909942E+03	1.178285E-15	7.066455E-18
6.919898E+03	1.168907E-15	7.015243E-18
6.929855E+03	1.160228E-15	6.967961E-18
6.939812E+03	1.152221E-15	6.924458E-18
6.949769E+03	1.144838E-15	6.884466E-18
6.959725E+03	1.138067E-15	6.847910E-18
6.969682E+03	1.131876E-15	6.814619E-18
6.979639E+03	1.126230E-15	6.784392E-18
6.989595E+03	1.121061E-15	6.756817E-18
6.999552E+03	1.116371E-15	6.731932E-18
7.009509E+03	1.112111E-15	6.709428E-18
7.019465E+03	1.108248E-15	6.689131E-18
7.029422E+03	1.104754E-15	6.670868E-18
7.039379E+03	1.101597E-15	6.654460E-18
7.049335E+03	1.098733E-15	6.639647E-18
7.059292E+03	1.096156E-15	6.626390E-18
7.069249E+03	1.093839E-15	6.614545E-18
7.079205E+03	1.091744E-15	6.603876E-18
7.089162E+03	1.089847E-15	6.594256E-18
7.099119E+03	1.088149E-15	6.585689E-18
7.109076E+03	1.086614E-15	6.577960E-18
7.119032E+03	1.085221E-15	6.570961E-18
7.128989E+03	1.083974E-15	6.564710E-18
7.138946E+03	1.082819E-15	6.558891E-18
7.148902E+03	1.081777E-15	6.553637E-18
7.158859E+03	1.080794E-15	6.548629E-18
7.168816E+03	1.079872E-15	6.543883E-18
7.178772E+03	1.079013E-15	6.539414E-18
7.188729E+03	1.078160E-15	6.534897E-18
7.198686E+03	1.077295E-15	6.530219E-18
7.208642E+03	1.076435E-15	6.525498E-18
7.218599E+03	1.075522E-15	6.520380E-18
7.228556E+03	1.074552E-15	6.514856E-18
7.238512E+03	1.073502E-15	6.508797E-18
7.248469E+03	1.072350E-15	6.502070E-18
7.258426E+03	1.071049E-15	6.494410E-18
7.268383E+03	1.069597E-15	6.485800E-18
7.278339E+03	1.067967E-15	6.476097E-18
7.288296E+03	1.066115E-15	6.465042E-18
7.298253E+03	1.064038E-15	6.452619E-18
7.308209E+03	1.061731E-15	6.438816E-18
7.318166E+03	1.059134E-15	6.423273E-18
7.328123E+03	1.056248E-15	6.406005E-18
7.338079E+03	1.053053E-15	6.386911E-18
7.348036E+03	1.049536E-15	6.365911E-18
7.357993E+03	1.045685E-15	6.342946E-18
7.367949E+03	1.041509E-15	6.318079E-18
7.377906E+03	1.036985E-15	6.291189E-18
7.387863E+03	1.032111E-15	6.262264E-18
7.397819E+03	1.026910E-15	6.231453E-18
7.407776E+03	1.021390E-15	6.198821E-18
7.417733E+03	1.015544E-15	6.164325E-18
7.427690E+03	1.009427E-15	6.128317E-18
7.437646E+03	1.003024E-15	6.090705E-18
7.447603E+03	9.963999E-16	6.051901E-18
7.457560E+03	9.895492E-16	6.011871E-18
7.467516E+03	9.825089E-16	5.970851E-18
7.477473E+03	9.753573E-16	5.929322E-18
7.487430E+03	9.681022E-16	5.887340E-18
7.497386E+03	9.607900E-16	5.845188E-18
7.507343E+03	9.534896E-16	5.803282E-18
7.517300E+03	9.462320E-16	5.761806E-18
7.527256E+03	9.390851E-16	5.721172E-18
7.537213E+03	9.320756E-16	5.681539E-18
7.547170E+03	9.252474E-16	5.643174E-18
7.557126E+03	9.186555E-16	5.606409E-18
7.567083E+03	9.122919E-16	5.571198E-18
7.577040E+03	9.062322E-16	5.538000E-18
7.586997E+03	9.004357E-16	5.506569E-18
7.596953E+03	8.949650E-16	5.477289E-18
7.606910E+03	8.898227E-16	5.450178E-18
7.616867E+03	8.850378E-16	5.425418E-18
7.626823E+03	8.806118E-16	5.403021E-18
7.636780E+03	8.765193E-16	5.382836E-18
7.646737E+03	8.727477E-16	5.364791E-18
7.656693E+03	8.692961E-16	5.348884E-18
7.666650E+03	8.661421E-16	5.334985E-18
7.676607E+03	8.632592E-16	5.322934E-18
7.686563E+03	8.606196E-16	5.312568E-18
7.696520E+03	8.581930E-16	5.303702E-18
7.706477E+03	8.559294E-16	5.296035E-18
7.716434E+03	8.538350E-16	5.289608E-18
7.726390E+03	8.518600E-16	5.284119E-18
