#wls	flux	fluxerr
1.593070E+03	8.480083E-18	2.199290E-18
1.632897E+03	8.613875E-18	2.218351E-18
1.672724E+03	8.717555E-18	2.228897E-18
1.712550E+03	8.783431E-18	2.229126E-18
1.752377E+03	8.810898E-18	2.219089E-18
1.792204E+03	8.794060E-18	2.197525E-18
1.832031E+03	8.717304E-18	2.160823E-18
1.871857E+03	8.571984E-18	2.107226E-18
1.911684E+03	8.350579E-18	2.035333E-18
1.951511E+03	8.047080E-18	1.944195E-18
1.991338E+03	7.672758E-18	1.837069E-18
2.031164E+03	7.263737E-18	1.723029E-18
2.070991E+03	6.885113E-18	1.617650E-18
2.110818E+03	6.618175E-18	1.539683E-18
2.150645E+03	6.529642E-18	1.503752E-18
2.190471E+03	6.643735E-18	1.514130E-18
2.230298E+03	6.931770E-18	1.562876E-18
2.270125E+03	7.334397E-18	1.635443E-18
2.309952E+03	7.793064E-18	1.718011E-18
2.349778E+03	8.257597E-18	1.799157E-18
2.389605E+03	8.697708E-18	1.872248E-18
2.429432E+03	9.096576E-18	1.933836E-18
2.469259E+03	9.453397E-18	1.984024E-18
2.509085E+03	9.765452E-18	2.022538E-18
2.548912E+03	1.003869E-17	2.050918E-18
2.588739E+03	1.027620E-17	2.070070E-18
2.628566E+03	1.048733E-17	2.082123E-18
2.668392E+03	1.067116E-17	2.087094E-18
2.708219E+03	1.083658E-17	2.086908E-18
2.748046E+03	1.098611E-17	2.082185E-18
2.787873E+03	1.112406E-17	2.073854E-18
2.827700E+03	1.125460E-17	2.062764E-18
2.867526E+03	1.138184E-17	2.049709E-18
2.907353E+03	1.151184E-17	2.035776E-18
2.947180E+03	1.164500E-17	2.020990E-18
2.987007E+03	1.179160E-17	2.007055E-18
2.996963E+03	1.183048E-17	2.003709E-18
3.006920E+03	1.187023E-17	2.000408E-18
3.016877E+03	1.191283E-17	1.997482E-18
3.026833E+03	1.195662E-17	1.994649E-18
3.036790E+03	1.200235E-17	1.992029E-18
3.046747E+03	1.205076E-17	1.989736E-18
3.056703E+03	1.210390E-17	1.988103E-18
3.066660E+03	1.215974E-17	1.986784E-18
3.076617E+03	1.222007E-17	1.986063E-18
3.086573E+03	1.228291E-17	1.985607E-18
3.096530E+03	1.234818E-17	1.985399E-18
3.106487E+03	1.241963E-17	1.986029E-18
3.116443E+03	1.249157E-17	1.986576E-18
3.126400E+03	1.256777E-17	1.987636E-18
3.136357E+03	1.264826E-17	1.989199E-18
3.146314E+03	1.273307E-17	1.991260E-18
3.156270E+03	1.282035E-17	1.993519E-18
3.166227E+03	1.291207E-17	1.996274E-18
3.176184E+03	1.300833E-17	1.999526E-18
3.186140E+03	1.310924E-17	2.003279E-18
3.196097E+03	1.321298E-17	2.007246E-18
3.206054E+03	1.332354E-17	2.012020E-18
3.216010E+03	1.343722E-17	2.017026E-18
3.225967E+03	1.355807E-17	2.022858E-18
3.235924E+03	1.368433E-17	2.029237E-18
3.245880E+03	1.381426E-17	2.035890E-18
3.255837E+03	1.395199E-17	2.043409E-18
3.265794E+03	1.409776E-17	2.051810E-18
3.275750E+03	1.424792E-17	2.060539E-18
3.285707E+03	1.440667E-17	2.070190E-18
3.295664E+03	1.457236E-17	2.080499E-18
3.305621E+03	1.474729E-17	2.091774E-18
3.315577E+03	1.492983E-17	2.103757E-18
3.325534E+03	1.512234E-17	2.116758E-18
3.335491E+03	1.532525E-17	2.130807E-18
3.345447E+03	1.553696E-17	2.145651E-18
3.355404E+03	1.575997E-17	2.161608E-18
3.365361E+03	1.599476E-17	2.178710E-18
3.375317E+03	1.624186E-17	2.196996E-18
3.385274E+03	1.650187E-17	2.216506E-18
3.395231E+03	1.677325E-17	2.237001E-18
3.405187E+03	1.706086E-17	2.259088E-18
3.415144E+03	1.736544E-17	2.282814E-18
3.425101E+03	1.768343E-17	2.307668E-18
3.435057E+03	1.801991E-17	2.334267E-18
3.445014E+03	1.837356E-17	2.362385E-18
3.454971E+03	1.874749E-17	2.392367E-18
3.464928E+03	1.914268E-17	2.424278E-18
3.474884E+03	1.955791E-17	2.457899E-18
3.484841E+03	1.999653E-17	2.493591E-18
3.494798E+03	2.045975E-17	2.531429E-18
3.504754E+03	2.094647E-17	2.571205E-18
3.514711E+03	2.146274E-17	2.613585E-18
3.524668E+03	2.200765E-17	2.658371E-18
3.534624E+03	2.258273E-17	2.705658E-18
3.544581E+03	2.318960E-17	2.755547E-18
3.554538E+03	2.383251E-17	2.808443E-18
3.564494E+03	2.451083E-17	2.864164E-18
3.574451E+03	2.522913E-17	2.923128E-18
3.584408E+03	2.598958E-17	2.985467E-18
3.594365E+03	2.679181E-17	3.051007E-18
3.604321E+03	2.764090E-17	3.120195E-18
3.614278E+03	2.853946E-17	3.193179E-18
3.624235E+03	2.949025E-17	3.270116E-18
3.634191E+03	3.049622E-17	3.351168E-18
3.644148E+03	3.156344E-17	3.436829E-18
3.654105E+03	3.269233E-17	3.526953E-18
3.664061E+03	3.388635E-17	3.621725E-18
3.674018E+03	3.514914E-17	3.721328E-18
3.683975E+03	3.649109E-17	3.826640E-18
3.693931E+03	3.791003E-17	3.937193E-18
3.703888E+03	3.941367E-17	4.053544E-18
3.713845E+03	4.100677E-17	4.175917E-18
3.723801E+03	4.269432E-17	4.304538E-18
3.733758E+03	4.448158E-17	4.439642E-18
3.743715E+03	4.637402E-17	4.581465E-18
3.753672E+03	4.838128E-17	4.730623E-18
3.763628E+03	5.050571E-17	4.886991E-18
3.773585E+03	5.275761E-17	5.051194E-18
3.783542E+03	5.514391E-17	5.223496E-18
3.793498E+03	5.767164E-17	5.404143E-18
3.803455E+03	6.034823E-17	5.593388E-18
3.813412E+03	6.317674E-17	5.791053E-18
3.823368E+03	6.617870E-17	5.998623E-18
3.833325E+03	6.934848E-17	6.215060E-18
3.843282E+03	7.270388E-17	6.441427E-18
3.853238E+03	7.625382E-17	6.677935E-18
3.863195E+03	8.000188E-17	6.924297E-18
3.873152E+03	8.396780E-17	7.181596E-18
3.883108E+03	8.814995E-17	7.449027E-18
3.893065E+03	9.256868E-17	7.727628E-18
3.903022E+03	9.722777E-17	8.016991E-18
3.912979E+03	1.021426E-16	8.317638E-18
3.922935E+03	1.073166E-16	8.629056E-18
3.932892E+03	1.127715E-16	8.952200E-18
3.942849E+03	1.185038E-16	9.285937E-18
3.952805E+03	1.245288E-16	9.630614E-18
3.962762E+03	1.308551E-16	9.986008E-18
3.972719E+03	1.374983E-16	1.035239E-17
3.982675E+03	1.444668E-16	1.072943E-17
3.992632E+03	1.517606E-16	1.111617E-17
4.002589E+03	1.593943E-16	1.151267E-17
4.012545E+03	1.673744E-16	1.191842E-17
4.022502E+03	1.757066E-16	1.233279E-17
4.032459E+03	1.843960E-16	1.275510E-17
4.042415E+03	1.934555E-16	1.318519E-17
4.052372E+03	2.028892E-16	1.362226E-17
4.062329E+03	2.126900E-16	1.406476E-17
4.072286E+03	2.228688E-16	1.451237E-17
4.082242E+03	2.334262E-16	1.496405E-17
4.092199E+03	2.443614E-16	1.541869E-17
4.102156E+03	2.556831E-16	1.587578E-17
4.112112E+03	2.673667E-16	1.633275E-17
4.122069E+03	2.794402E-16	1.679031E-17
4.132026E+03	2.918758E-16	1.724577E-17
4.141982E+03	3.046653E-16	1.769771E-17
4.151939E+03	3.178228E-16	1.814603E-17
4.161896E+03	3.313137E-16	1.858783E-17
4.171852E+03	3.451368E-16	1.902225E-17
4.181809E+03	3.592897E-16	1.944835E-17
4.191766E+03	3.737300E-16	1.986313E-17
4.201723E+03	3.884641E-16	2.026627E-17
4.211679E+03	4.034571E-16	2.065539E-17
4.221636E+03	4.186849E-16	2.102876E-17
4.231593E+03	4.341210E-16	2.138467E-17
4.241549E+03	4.497504E-16	2.172210E-17
4.251506E+03	4.655284E-16	2.203868E-17
4.261463E+03	4.814218E-16	2.233278E-17
4.271419E+03	4.973960E-16	2.260287E-17
4.281376E+03	5.134300E-16	2.284816E-17
4.291333E+03	5.294577E-16	2.306601E-17
4.301289E+03	5.454729E-16	2.325660E-17
4.311246E+03	5.614099E-16	2.341768E-17
4.321203E+03	5.772498E-16	2.354917E-17
4.331159E+03	5.929459E-16	2.364998E-17
4.341116E+03	6.084855E-16	2.372055E-17
4.351073E+03	6.238280E-16	2.376030E-17
4.361030E+03	6.389511E-16	2.376952E-17
4.370986E+03	6.538203E-16	2.374816E-17
4.380943E+03	6.684355E-16	2.369750E-17
4.390900E+03	6.827828E-16	2.361842E-17
4.400856E+03	6.968021E-16	2.351027E-17
4.410813E+03	7.105358E-16	2.337601E-17
4.420770E+03	7.239474E-16	2.321595E-17
4.430726E+03	7.370210E-16	2.303118E-17
4.440683E+03	7.497768E-16	2.282397E-17
4.450640E+03	7.622052E-16	2.259565E-17
4.460596E+03	7.742989E-16	2.234767E-17
4.470553E+03	7.860681E-16	2.208202E-17
4.480510E+03	7.975224E-16	2.180065E-17
4.490466E+03	8.086728E-16	2.150555E-17
4.500423E+03	8.194956E-16	2.119776E-17
4.510380E+03	8.299971E-16	2.087921E-17
4.520337E+03	8.401676E-16	2.055138E-17
4.530293E+03	8.500253E-16	2.021647E-17
4.540250E+03	8.595388E-16	1.987547E-17
4.550207E+03	8.687219E-16	1.953048E-17
4.560163E+03	8.775250E-16	1.918212E-17
4.570120E+03	8.859597E-16	1.883213E-17
4.580077E+03	8.940242E-16	1.848095E-17
4.590033E+03	9.016859E-16	1.812815E-17
4.599990E+03	9.089301E-16	1.777364E-17
4.609947E+03	9.157736E-16	1.741791E-17
4.619903E+03	9.221914E-16	1.706059E-17
4.629860E+03	9.282085E-16	1.670223E-17
4.639817E+03	9.337945E-16	1.634236E-17
4.649773E+03	9.389850E-16	1.598167E-17
4.659730E+03	9.437929E-16	1.562046E-17
4.669687E+03	9.482392E-16	1.525917E-17
4.679644E+03	9.523663E-16	1.489858E-17
4.689600E+03	9.561968E-16	1.453923E-17
4.699557E+03	9.598055E-16	1.418247E-17
4.709514E+03	9.632450E-16	1.382936E-17
4.719470E+03	9.665790E-16	1.348118E-17
4.729427E+03	9.698754E-16	1.313939E-17
4.739384E+03	9.732209E-16	1.280577E-17
4.749340E+03	9.766866E-16	1.248206E-17
4.759297E+03	9.803462E-16	1.217020E-17
4.769254E+03	9.842360E-16	1.187190E-17
4.779210E+03	9.883803E-16	1.158904E-17
4.789167E+03	9.927773E-16	1.132355E-17
4.799124E+03	9.973900E-16	1.107737E-17
4.809080E+03	1.002201E-15	1.085310E-17
4.819037E+03	1.007191E-15	1.065375E-17
4.828994E+03	1.012344E-15	1.048272E-17
4.838951E+03	1.017630E-15	1.034358E-17
4.848907E+03	1.023034E-15	1.024024E-17
4.858864E+03	1.028530E-15	1.017656E-17
4.868821E+03	1.034118E-15	1.015652E-17
4.878777E+03	1.039785E-15	1.018368E-17
4.888734E+03	1.045496E-15	1.026083E-17
4.898691E+03	1.051263E-15	1.038899E-17
4.908647E+03	1.057046E-15	1.056480E-17
4.918604E+03	1.062844E-15	1.078427E-17
4.928561E+03	1.068642E-15	1.104288E-17
4.938517E+03	1.074427E-15	1.133590E-17
4.948474E+03	1.080189E-15	1.165855E-17
4.958431E+03	1.085917E-15	1.200621E-17
4.968388E+03	1.091600E-15	1.237443E-17
4.978344E+03	1.097232E-15	1.275906E-17
4.988301E+03	1.102819E-15	1.315642E-17
4.998258E+03	1.108353E-15	1.356301E-17
5.008214E+03	1.113821E-15	1.397553E-17
5.018171E+03	1.119245E-15	1.439144E-17
5.028128E+03	1.124608E-15	1.480803E-17
5.038084E+03	1.129926E-15	1.522322E-17
5.048041E+03	1.135212E-15	1.563518E-17
5.057998E+03	1.140452E-15	1.604197E-17
5.067954E+03	1.145663E-15	1.644223E-17
5.077911E+03	1.150847E-15	1.683459E-17
5.087868E+03	1.156030E-15	1.721823E-17
5.097824E+03	1.161200E-15	1.759194E-17
5.107781E+03	1.166358E-15	1.795480E-17
5.117738E+03	1.171542E-15	1.830661E-17
5.127695E+03	1.176723E-15	1.864628E-17
5.137651E+03	1.181910E-15	1.897341E-17
5.147608E+03	1.187122E-15	1.928786E-17
5.157565E+03	1.192338E-15	1.958895E-17
5.167521E+03	1.197559E-15	1.987649E-17
5.177478E+03	1.202785E-15	2.015028E-17
5.187435E+03	1.207998E-15	2.041001E-17
5.197391E+03	1.213206E-15	2.065583E-17
5.207348E+03	1.218374E-15	2.088725E-17
5.217305E+03	1.223490E-15	2.110431E-17
5.227261E+03	1.228528E-15	2.130684E-17
5.237218E+03	1.233498E-15	2.149539E-17
5.247175E+03	1.238345E-15	2.166950E-17
5.257131E+03	1.243063E-15	2.182966E-17
5.267088E+03	1.247620E-15	2.197595E-17
5.277045E+03	1.252009E-15	2.210907E-17
5.287002E+03	1.256185E-15	2.222910E-17
5.296958E+03	1.260131E-15	2.233669E-17
5.306915E+03	1.263816E-15	2.243242E-17
5.316872E+03	1.267251E-15	2.251767E-17
5.326828E+03	1.270383E-15	2.259280E-17
5.336785E+03	1.273216E-15	2.265926E-17
5.346742E+03	1.275729E-15	2.271816E-17
5.356698E+03	1.277918E-15	2.277099E-17
5.366655E+03	1.279784E-15	2.281940E-17
5.376612E+03	1.281300E-15	2.286463E-17
5.386568E+03	1.282488E-15	2.290879E-17
5.396525E+03	1.283328E-15	2.295331E-17
5.406482E+03	1.283844E-15	2.300039E-17
5.416438E+03	1.284034E-15	2.305180E-17
5.426395E+03	1.283910E-15	2.310950E-17
5.436352E+03	1.283457E-15	2.317493E-17
5.446309E+03	1.282685E-15	2.324989E-17
5.456265E+03	1.281603E-15	2.333608E-17
5.466222E+03	1.280195E-15	2.343397E-17
5.476179E+03	1.278489E-15	2.354290E-17
5.486135E+03	1.276477E-15	2.366117E-17
5.496092E+03	1.274167E-15	2.378726E-17
5.506049E+03	1.271591E-15	2.392006E-17
5.516005E+03	1.268726E-15	2.405741E-17
5.525962E+03	1.265588E-15	2.419787E-17
5.535919E+03	1.262181E-15	2.433974E-17
5.545875E+03	1.258507E-15	2.448137E-17
5.555832E+03	1.254584E-15	2.462140E-17
5.565789E+03	1.250394E-15	2.475782E-17
5.575746E+03	1.245960E-15	2.488952E-17
5.585702E+03	1.241305E-15	2.501544E-17
5.595659E+03	1.236425E-15	2.513405E-17
5.605616E+03	1.231338E-15	2.524437E-17
5.615572E+03	1.226084E-15	2.534593E-17
5.625529E+03	1.220680E-15	2.543790E-17
5.635486E+03	1.215158E-15	2.551988E-17
5.645442E+03	1.209546E-15	2.559142E-17
5.655399E+03	1.203884E-15	2.565250E-17
5.665356E+03	1.198203E-15	2.570297E-17
5.675312E+03	1.192563E-15	2.574334E-17
5.685269E+03	1.186998E-15	2.577377E-17
5.695226E+03	1.181537E-15	2.579428E-17
5.705182E+03	1.176250E-15	2.580592E-17
5.715139E+03	1.171155E-15	2.580869E-17
5.725096E+03	1.166322E-15	2.580372E-17
5.735053E+03	1.161765E-15	2.579102E-17
5.745009E+03	1.157539E-15	2.577157E-17
5.754966E+03	1.153675E-15	2.574578E-17
5.764923E+03	1.150189E-15	2.571381E-17
5.774879E+03	1.147135E-15	2.567669E-17
5.784836E+03	1.144508E-15	2.563414E-17
5.794793E+03	1.142331E-15	2.558649E-17
5.804749E+03	1.140609E-15	2.553374E-17
5.814706E+03	1.139353E-15	2.547592E-17
5.824663E+03	1.138555E-15	2.541275E-17
5.834619E+03	1.138203E-15	2.534379E-17
5.844576E+03	1.138277E-15	2.526845E-17
5.854533E+03	1.138752E-15	2.518603E-17
5.864489E+03	1.139606E-15	2.509596E-17
5.874446E+03	1.140794E-15	2.499710E-17
5.884403E+03	1.142286E-15	2.488871E-17
5.894360E+03	1.144038E-15	2.476978E-17
5.904316E+03	1.146003E-15	2.463926E-17
5.914273E+03	1.148120E-15	2.449592E-17
5.924230E+03	1.150360E-15	2.433918E-17
5.934186E+03	1.152661E-15	2.416792E-17
5.944143E+03	1.154982E-15	2.398151E-17
5.954100E+03	1.157254E-15	2.377882E-17
5.964056E+03	1.159448E-15	2.355968E-17
5.974013E+03	1.161509E-15	2.332347E-17
5.983970E+03	1.163403E-15	2.307014E-17
5.993926E+03	1.165081E-15	2.279945E-17
6.003883E+03	1.166517E-15	2.251175E-17
6.013840E+03	1.167678E-15	2.220737E-17
6.023796E+03	1.168528E-15	2.188672E-17
6.033753E+03	1.169062E-15	2.155093E-17
6.043710E+03	1.169253E-15	2.120086E-17
6.053667E+03	1.169086E-15	2.083773E-17
6.063623E+03	1.168562E-15	2.046315E-17
6.073580E+03	1.167676E-15	2.007881E-17
6.083537E+03	1.166440E-15	1.968673E-17
6.093493E+03	1.164852E-15	1.928886E-17
6.103450E+03	1.162939E-15	1.888779E-17
6.113407E+03	1.160714E-15	1.848589E-17
6.123363E+03	1.158208E-15	1.808597E-17
6.133320E+03	1.155472E-15	1.769121E-17
6.143277E+03	1.152544E-15	1.730464E-17
6.153233E+03	1.149468E-15	1.692942E-17
6.163190E+03	1.146317E-15	1.656917E-17
6.173147E+03	1.143156E-15	1.622738E-17
6.183103E+03	1.140061E-15	1.590763E-17
6.193060E+03	1.137107E-15	1.561344E-17
6.203017E+03	1.134374E-15	1.534829E-17
6.212974E+03	1.131912E-15	1.511423E-17
6.222930E+03	1.129742E-15	1.491097E-17
6.232887E+03	1.127887E-15	1.473790E-17
6.242844E+03	1.126325E-15	1.459384E-17
6.252800E+03	1.125067E-15	1.447802E-17
6.262757E+03	1.124088E-15	1.438925E-17
6.272714E+03	1.123393E-15	1.432678E-17
6.282670E+03	1.122984E-15	1.428994E-17
6.292627E+03	1.122877E-15	1.427832E-17
6.302584E+03	1.123066E-15	1.429133E-17
6.312540E+03	1.123586E-15	1.432907E-17
6.322497E+03	1.124446E-15	1.439145E-17
6.332454E+03	1.125685E-15	1.447893E-17
6.342411E+03	1.127304E-15	1.459165E-17
6.352367E+03	1.129345E-15	1.473042E-17
6.362324E+03	1.131824E-15	1.489591E-17
6.372281E+03	1.134751E-15	1.508885E-17
6.382237E+03	1.138158E-15	1.531040E-17
6.392194E+03	1.142055E-15	1.556159E-17
6.402151E+03	1.146436E-15	1.584334E-17
6.412107E+03	1.151303E-15	1.615675E-17
6.422064E+03	1.156669E-15	1.650318E-17
6.432021E+03	1.162504E-15	1.688341E-17
6.441977E+03	1.168805E-15	1.729847E-17
6.451934E+03	1.175551E-15	1.774744E-17
6.461891E+03	1.182737E-15	1.822874E-17
6.471847E+03	1.190341E-15	1.874047E-17
6.481804E+03	1.198310E-15	1.928025E-17
6.491761E+03	1.206599E-15	1.984578E-17
6.501718E+03	1.215160E-15	2.043474E-17
6.511674E+03	1.223893E-15	2.104384E-17
6.521631E+03	1.232712E-15	2.166998E-17
6.531588E+03	1.241479E-15	2.230907E-17
6.541544E+03	1.250065E-15	2.295699E-17
6.551501E+03	1.258359E-15	2.360985E-17
6.561458E+03	1.266220E-15	2.426304E-17
6.571414E+03	1.273538E-15	2.491239E-17
6.581371E+03	1.280188E-15	2.555335E-17
6.591328E+03	1.286093E-15	2.618221E-17
6.601284E+03	1.291145E-15	2.679453E-17
6.611241E+03	1.295311E-15	2.738743E-17
6.621198E+03	1.298505E-15	2.795682E-17
6.631154E+03	1.300716E-15	2.850032E-17
6.641111E+03	1.301931E-15	2.901551E-17
6.651068E+03	1.302140E-15	2.950011E-17
6.661025E+03	1.301374E-15	2.995292E-17
6.670981E+03	1.299655E-15	3.037262E-17
6.680938E+03	1.297057E-15	3.075929E-17
6.690895E+03	1.293602E-15	3.111191E-17
6.700851E+03	1.289395E-15	3.143170E-17
6.710808E+03	1.284490E-15	3.171873E-17
6.720765E+03	1.278979E-15	3.197431E-17
6.730721E+03	1.272950E-15	3.219972E-17
6.740678E+03	1.266475E-15	3.239610E-17
6.750635E+03	1.259639E-15	3.256505E-17
6.760591E+03	1.252542E-15	3.270868E-17
6.770548E+03	1.245249E-15	3.282845E-17
6.780505E+03	1.237839E-15	3.292617E-17
6.790461E+03	1.230383E-15	3.300364E-17
6.800418E+03	1.222961E-15	3.306296E-17
6.810375E+03	1.215605E-15	3.310509E-17
6.820332E+03	1.208384E-15	3.313194E-17
6.830288E+03	1.201344E-15	3.314496E-17
6.840245E+03	1.194514E-15	3.314509E-17
6.850202E+03	1.187943E-15	3.313391E-17
6.860158E+03	1.181659E-15	3.311241E-17
6.870115E+03	1.175661E-15	3.308078E-17
6.880072E+03	1.169992E-15	3.304047E-17
6.890028E+03	1.164656E-15	3.299179E-17
6.899985E+03	1.159660E-15	3.293517E-17
6.909942E+03	1.154998E-15	3.287066E-17
6.919898E+03	1.150685E-15	3.279886E-17
6.929855E+03	1.146721E-15	3.271992E-17
6.939812E+03	1.143088E-15	3.263355E-17
6.949769E+03	1.139793E-15	3.254007E-17
6.959725E+03	1.136817E-15	3.243904E-17
6.969682E+03	1.134149E-15	3.233032E-17
6.979639E+03	1.131777E-15	3.221365E-17
6.989595E+03	1.129677E-15	3.208846E-17
6.999552E+03	1.127860E-15	3.195514E-17
7.009509E+03	1.126286E-15	3.181264E-17
7.019465E+03	1.124939E-15	3.166063E-17
7.029422E+03	1.123815E-15	3.149907E-17
7.039379E+03	1.122886E-15	3.132723E-17
7.049335E+03	1.122132E-15	3.114471E-17
7.059292E+03	1.121536E-15	3.095111E-17
7.069249E+03	1.121079E-15	3.074601E-17
7.079205E+03	1.120740E-15	3.052902E-17
7.089162E+03	1.120487E-15	3.029940E-17
7.099119E+03	1.120311E-15	3.005707E-17
7.109076E+03	1.120175E-15	2.980133E-17
7.119032E+03	1.120059E-15	2.953183E-17
7.128989E+03	1.119950E-15	2.924856E-17
7.138946E+03	1.119798E-15	2.895055E-17
7.148902E+03	1.119591E-15	2.863787E-17
7.158859E+03	1.119304E-15	2.831032E-17
7.168816E+03	1.118908E-15	2.796768E-17
7.178772E+03	1.118366E-15	2.760958E-17
7.188729E+03	1.117650E-15	2.723598E-17
7.198686E+03	1.116748E-15	2.684728E-17
7.208642E+03	1.115606E-15	2.644301E-17
7.218599E+03	1.114227E-15	2.602406E-17
7.228556E+03	1.112560E-15	2.559021E-17
7.238512E+03	1.110596E-15	2.514232E-17
7.248469E+03	1.108301E-15	2.468074E-17
7.258426E+03	1.105671E-15	2.420659E-17
7.268383E+03	1.102675E-15	2.372051E-17
7.278339E+03	1.099302E-15	2.322363E-17
7.288296E+03	1.095540E-15	2.271725E-17
7.298253E+03	1.091383E-15	2.220275E-17
7.308209E+03	1.086827E-15	2.168173E-17
7.318166E+03	1.081870E-15	2.115588E-17
7.328123E+03	1.076503E-15	2.062683E-17
7.338079E+03	1.070730E-15	2.009652E-17
7.348036E+03	1.064573E-15	1.956733E-17
7.357993E+03	1.058032E-15	1.904121E-17
7.367949E+03	1.051119E-15	1.852045E-17
7.377906E+03	1.043839E-15	1.800719E-17
7.387863E+03	1.036236E-15	1.750430E-17
7.397819E+03	1.028320E-15	1.701400E-17
7.407776E+03	1.020112E-15	1.653876E-17
7.417733E+03	1.011636E-15	1.608100E-17
7.427690E+03	1.002909E-15	1.564298E-17
7.437646E+03	9.939705E-16	1.522719E-17
7.447603E+03	9.848513E-16	1.483589E-17
7.457560E+03	9.755824E-16	1.447114E-17
7.467516E+03	9.661987E-16	1.413486E-17
7.477473E+03	9.567371E-16	1.382873E-17
7.487430E+03	9.472356E-16	1.355411E-17
7.497386E+03	9.377371E-16	1.331078E-17
7.507343E+03	9.282851E-16	1.309674E-17
7.517300E+03	9.189407E-16	1.291006E-17
7.527256E+03	9.097439E-16	1.274843E-17
7.537213E+03	9.007633E-16	1.260994E-17
7.547170E+03	8.920580E-16	1.249260E-17
7.557126E+03	8.836763E-16	1.239436E-17
7.567083E+03	8.756975E-16	1.231379E-17
7.577040E+03	8.681575E-16	1.224898E-17
7.586997E+03	8.610811E-16	1.219808E-17
7.596953E+03	8.544700E-16	1.215912E-17
7.606910E+03	8.483279E-16	1.213035E-17
7.616867E+03	8.426046E-16	1.210944E-17
7.626823E+03	8.372677E-16	1.209449E-17
7.636780E+03	8.323105E-16	1.208416E-17
7.646737E+03	8.277064E-16	1.207697E-17
7.656693E+03	8.234096E-16	1.207133E-17
7.666650E+03	8.194198E-16	1.206646E-17
7.676607E+03	8.157056E-16	1.206125E-17
7.686563E+03	8.122597E-16	1.205511E-17
7.696520E+03	8.090622E-16	1.204737E-17
7.706477E+03	8.060949E-16	1.203750E-17
7.716434E+03	8.033275E-16	1.202493E-17
7.726390E+03	8.007613E-16	1.200965E-17
