#wls	flux	fluxerr
1.593070E+03	1.131356E-17	8.249177E-20
1.632897E+03	1.146210E-17	8.357481E-20
1.672724E+03	1.156229E-17	8.430533E-20
1.712550E+03	1.161484E-17	8.468855E-20
1.752377E+03	1.161587E-17	8.469606E-20
1.792204E+03	1.155476E-17	8.425045E-20
1.832031E+03	1.142152E-17	8.327892E-20
1.871857E+03	1.119597E-17	8.163437E-20
1.911684E+03	1.086937E-17	7.925297E-20
1.951511E+03	1.043823E-17	7.610942E-20
1.991338E+03	9.918284E-18	7.231824E-20
2.031164E+03	9.357013E-18	6.822579E-20
2.070991E+03	8.840579E-18	6.446026E-20
2.110818E+03	8.470200E-18	6.175967E-20
2.150645E+03	8.329601E-18	6.073451E-20
2.190471E+03	8.445317E-18	6.157824E-20
2.230298E+03	8.782337E-18	6.403559E-20
2.270125E+03	9.263731E-18	6.754563E-20
2.309952E+03	9.812218E-18	7.154487E-20
2.349778E+03	1.036422E-17	7.556971E-20
2.389605E+03	1.088390E-17	7.935892E-20
2.429432E+03	1.135074E-17	8.276287E-20
2.469259E+03	1.176387E-17	8.577516E-20
2.509085E+03	1.212053E-17	8.837569E-20
2.548912E+03	1.243049E-17	9.063578E-20
2.588739E+03	1.269551E-17	9.256810E-20
2.628566E+03	1.292902E-17	9.427076E-20
2.668392E+03	1.313246E-17	9.575409E-20
2.708219E+03	1.331366E-17	9.707533E-20
2.748046E+03	1.347988E-17	9.828726E-20
2.787873E+03	1.363554E-17	9.942225E-20
2.827700E+03	1.378473E-17	1.005101E-19
2.867526E+03	1.393348E-17	1.015947E-19
2.907353E+03	1.408760E-17	1.027184E-19
2.947180E+03	1.425061E-17	1.039070E-19
2.987007E+03	1.442829E-17	1.052025E-19
2.996963E+03	1.447491E-17	1.055425E-19
3.006920E+03	1.452380E-17	1.058989E-19
3.016877E+03	1.457501E-17	1.062723E-19
3.026833E+03	1.462672E-17	1.066494E-19
3.036790E+03	1.468190E-17	1.070517E-19
3.046747E+03	1.474138E-17	1.074854E-19
3.056703E+03	1.480326E-17	1.079366E-19
3.066660E+03	1.486939E-17	1.084187E-19
3.076617E+03	1.493752E-17	1.089155E-19
3.086573E+03	1.501163E-17	1.094559E-19
3.096530E+03	1.508745E-17	1.100087E-19
3.106487E+03	1.516694E-17	1.105884E-19
3.116443E+03	1.524798E-17	1.111792E-19
3.126400E+03	1.533458E-17	1.118107E-19
3.136357E+03	1.542262E-17	1.124526E-19
3.146314E+03	1.551411E-17	1.131197E-19
3.156270E+03	1.560905E-17	1.138119E-19
3.166227E+03	1.570746E-17	1.145295E-19
3.176184E+03	1.580935E-17	1.152724E-19
3.186140E+03	1.591276E-17	1.160264E-19
3.196097E+03	1.602179E-17	1.168214E-19
3.206054E+03	1.613450E-17	1.176432E-19
3.216010E+03	1.625098E-17	1.184925E-19
3.225967E+03	1.637134E-17	1.193701E-19
3.235924E+03	1.649367E-17	1.202621E-19
3.245880E+03	1.662218E-17	1.211990E-19
3.255837E+03	1.675699E-17	1.221820E-19
3.265794E+03	1.689425E-17	1.231829E-19
3.275750E+03	1.703616E-17	1.242175E-19
3.285707E+03	1.718494E-17	1.253024E-19
3.295664E+03	1.733878E-17	1.264241E-19
3.305621E+03	1.749793E-17	1.275845E-19
3.315577E+03	1.766467E-17	1.288003E-19
3.325534E+03	1.783723E-17	1.300585E-19
3.335491E+03	1.801591E-17	1.313613E-19
3.345447E+03	1.820306E-17	1.327259E-19
3.355404E+03	1.839697E-17	1.341398E-19
3.365361E+03	1.859800E-17	1.356056E-19
3.375317E+03	1.880859E-17	1.371411E-19
3.385274E+03	1.902915E-17	1.387493E-19
3.395231E+03	1.925807E-17	1.404184E-19
3.405187E+03	1.949787E-17	1.421669E-19
3.415144E+03	1.974908E-17	1.439986E-19
3.425101E+03	2.001017E-17	1.459023E-19
3.435057E+03	2.028378E-17	1.478973E-19
3.445014E+03	2.056846E-17	1.499730E-19
3.454479E+03	5.159134E-18	3.761735E-20
3.458531E+03	5.439330E-18	3.966036E-20
3.462584E+03	5.815607E-18	4.240395E-20
3.466636E+03	6.100519E-18	4.448136E-20
3.470690E+03	6.213243E-18	4.530328E-20
3.474742E+03	6.369867E-18	4.644529E-20
3.478794E+03	6.593494E-18	4.807584E-20
3.482848E+03	6.797534E-18	4.956358E-20
3.486900E+03	6.920332E-18	5.045895E-20
3.490952E+03	6.889268E-18	5.023246E-20
3.495006E+03	6.887787E-18	5.022166E-20
3.499058E+03	6.950832E-18	5.068134E-20
3.503110E+03	6.991729E-18	5.097954E-20
3.507164E+03	6.958325E-18	5.073598E-20
3.511216E+03	6.899157E-18	5.030456E-20
3.515269E+03	6.811096E-18	4.966247E-20
3.519322E+03	6.699739E-18	4.885052E-20
3.523374E+03	6.611085E-18	4.820411E-20
3.527427E+03	6.469282E-18	4.717016E-20
3.531479E+03	6.388631E-18	4.658211E-20
3.535532E+03	6.287441E-18	4.584429E-20
3.539585E+03	6.173351E-18	4.501241E-20
3.543637E+03	6.284584E-18	4.582346E-20
3.547691E+03	6.372310E-18	4.646310E-20
3.551743E+03	6.565277E-18	4.787010E-20
3.555795E+03	6.805616E-18	4.962251E-20
3.559849E+03	7.013741E-18	5.114004E-20
3.563901E+03	7.015117E-18	5.115007E-20
3.567953E+03	7.128463E-18	5.197652E-20
3.572007E+03	7.283768E-18	5.310891E-20
3.576059E+03	7.525097E-18	5.486854E-20
3.580112E+03	7.753818E-18	5.653624E-20
3.584165E+03	8.138916E-18	5.934414E-20
3.588217E+03	8.574606E-18	6.252094E-20
3.592270E+03	8.850731E-18	6.453428E-20
3.596322E+03	9.181830E-18	6.694846E-20
3.600375E+03	9.457287E-18	6.895692E-20
3.604428E+03	9.842904E-18	7.176862E-20
3.608480E+03	1.036957E-17	7.560872E-20
3.612533E+03	1.083073E-17	7.897127E-20
3.616586E+03	1.112883E-17	8.114483E-20
3.620638E+03	1.157346E-17	8.438678E-20
3.624692E+03	1.189473E-17	8.672931E-20
3.628744E+03	1.211308E-17	8.832142E-20
3.632796E+03	1.241208E-17	9.050152E-20
3.636850E+03	1.262436E-17	9.204936E-20
3.640902E+03	1.300307E-17	9.481071E-20
3.644954E+03	1.317641E-17	9.607458E-20
3.649008E+03	1.316114E-17	9.596319E-20
3.653060E+03	1.322066E-17	9.639718E-20
3.657113E+03	1.307685E-17	9.534863E-20
3.661165E+03	1.281670E-17	9.345178E-20
3.665218E+03	1.262322E-17	9.204106E-20
3.669271E+03	1.243214E-17	9.064777E-20
3.673323E+03	1.233794E-17	8.996090E-20
3.677376E+03	1.230357E-17	8.971032E-20
3.681429E+03	1.208039E-17	8.808304E-20
3.685481E+03	1.201600E-17	8.761352E-20
3.689535E+03	1.221775E-17	8.908460E-20
3.693587E+03	1.248666E-17	9.104534E-20
3.697639E+03	1.283561E-17	9.358967E-20
3.701693E+03	1.359001E-17	9.909029E-20
3.705745E+03	1.431469E-17	1.043742E-19
3.709797E+03	1.538657E-17	1.121897E-19
3.713851E+03	1.674876E-17	1.221220E-19
3.717903E+03	1.804217E-17	1.315528E-19
3.721955E+03	1.942723E-17	1.416518E-19
3.726008E+03	2.070887E-17	1.509968E-19
3.730061E+03	2.181494E-17	1.590616E-19
3.734114E+03	2.289236E-17	1.669175E-19
3.738166E+03	2.409491E-17	1.756858E-19
3.742219E+03	2.527319E-17	1.842771E-19
3.746272E+03	2.658059E-17	1.938099E-19
3.750324E+03	2.780754E-17	2.027561E-19
3.754377E+03	2.874941E-17	2.096237E-19
3.758430E+03	2.942773E-17	2.145695E-19
3.762482E+03	3.006151E-17	2.191907E-19
3.766536E+03	3.056212E-17	2.228408E-19
3.770588E+03	3.097280E-17	2.258353E-19
3.774640E+03	3.137064E-17	2.287361E-19
3.778694E+03	3.167251E-17	2.309372E-19
3.782746E+03	3.167497E-17	2.309551E-19
3.786798E+03	3.154980E-17	2.300424E-19
3.790851E+03	3.138366E-17	2.288310E-19
3.794904E+03	3.117633E-17	2.273193E-19
3.798957E+03	3.094531E-17	2.256348E-19
3.803009E+03	3.060511E-17	2.231543E-19
3.807062E+03	3.033088E-17	2.211548E-19
3.811115E+03	3.012522E-17	2.196553E-19
3.815167E+03	2.987615E-17	2.178392E-19
3.819220E+03	2.965806E-17	2.162489E-19
3.823273E+03	2.937002E-17	2.141487E-19
3.827325E+03	2.901046E-17	2.115270E-19
3.831379E+03	2.884003E-17	2.102844E-19
3.835431E+03	2.872503E-17	2.094459E-19
3.839483E+03	2.835903E-17	2.067772E-19
3.843537E+03	2.794648E-17	2.037691E-19
3.847589E+03	2.736964E-17	1.995631E-19
3.851641E+03	2.682934E-17	1.956236E-19
3.855694E+03	2.615134E-17	1.906801E-19
3.859747E+03	2.521240E-17	1.838339E-19
3.863799E+03	2.391523E-17	1.743757E-19
3.867852E+03	2.264614E-17	1.651222E-19
3.871905E+03	2.109635E-17	1.538220E-19
3.875958E+03	1.934585E-17	1.410585E-19
3.880010E+03	1.789896E-17	1.305086E-19
3.884063E+03	1.678535E-17	1.223888E-19
3.888116E+03	1.589332E-17	1.158846E-19
3.892168E+03	1.572831E-17	1.146815E-19
3.896220E+03	1.646081E-17	1.200225E-19
3.900274E+03	1.814352E-17	1.322918E-19
3.904326E+03	2.080960E-17	1.517313E-19
3.908380E+03	2.422456E-17	1.766311E-19
3.912432E+03	2.818584E-17	2.055144E-19
3.916484E+03	3.304064E-17	2.409128E-19
3.920537E+03	3.856954E-17	2.812262E-19
3.924590E+03	4.476945E-17	3.264323E-19
3.928642E+03	5.128404E-17	3.739328E-19
3.932695E+03	5.769921E-17	4.207084E-19
3.936748E+03	6.413984E-17	4.676697E-19
3.940801E+03	7.053784E-17	5.143201E-19
3.944853E+03	7.699118E-17	5.613740E-19
3.948906E+03	8.356280E-17	6.092904E-19
3.952959E+03	9.025747E-17	6.581039E-19
3.957011E+03	9.705237E-17	7.076483E-19
3.961063E+03	1.037091E-16	7.561853E-19
3.965117E+03	1.101810E-16	8.033747E-19
3.969169E+03	1.163874E-16	8.486278E-19
3.973222E+03	1.216967E-16	8.873403E-19
3.977275E+03	1.258340E-16	9.175071E-19
3.981327E+03	1.282067E-16	9.348073E-19
3.985380E+03	1.290253E-16	9.407757E-19
3.989433E+03	1.283652E-16	9.359629E-19
3.993485E+03	1.264000E-16	9.216341E-19
3.997538E+03	1.230864E-16	8.974727E-19
4.001591E+03	1.187027E-16	8.655093E-19
4.005643E+03	1.138550E-16	8.301628E-19
4.009696E+03	1.091096E-16	7.955628E-19
4.013749E+03	1.055189E-16	7.693808E-19
4.017802E+03	1.030520E-16	7.513937E-19
4.021854E+03	1.018220E-16	7.424259E-19
4.025906E+03	1.020095E-16	7.437926E-19
4.029960E+03	1.033368E-16	7.534706E-19
4.034012E+03	1.060111E-16	7.729698E-19
4.038064E+03	1.101608E-16	8.032273E-19
4.042118E+03	1.156044E-16	8.429184E-19
4.046170E+03	1.232457E-16	8.986343E-19
4.050223E+03	1.323747E-16	9.651976E-19
4.054276E+03	1.429775E-16	1.042507E-18
4.058328E+03	1.549601E-16	1.129877E-18
4.062381E+03	1.676792E-16	1.222617E-18
4.066434E+03	1.799201E-16	1.311870E-18
4.070486E+03	1.910825E-16	1.393260E-18
4.074539E+03	2.011261E-16	1.466492E-18
4.078592E+03	2.098875E-16	1.530375E-18
4.082644E+03	2.179208E-16	1.588949E-18
4.086697E+03	2.262154E-16	1.649429E-18
4.090749E+03	2.349325E-16	1.712989E-18
4.094803E+03	2.438156E-16	1.777759E-18
4.098855E+03	2.517904E-16	1.835906E-18
4.102907E+03	2.586290E-16	1.885769E-18
4.106961E+03	2.641085E-16	1.925722E-18
4.111013E+03	2.679556E-16	1.953773E-18
4.115065E+03	2.698020E-16	1.967236E-18
4.119119E+03	2.687710E-16	1.959718E-18
4.123171E+03	2.648862E-16	1.931393E-18
4.127224E+03	2.588816E-16	1.887611E-18
4.131277E+03	2.508020E-16	1.828700E-18
4.135329E+03	2.405574E-16	1.754002E-18
4.139382E+03	2.292746E-16	1.671734E-18
4.143434E+03	2.174432E-16	1.585467E-18
4.147487E+03	2.055214E-16	1.498540E-18
4.151540E+03	1.940980E-16	1.415248E-18
4.155592E+03	1.838502E-16	1.340526E-18
4.159646E+03	1.753905E-16	1.278843E-18
4.163698E+03	1.690365E-16	1.232514E-18
4.167750E+03	1.647511E-16	1.201267E-18
4.171804E+03	1.621421E-16	1.182244E-18
4.175856E+03	1.607314E-16	1.171958E-18
4.179908E+03	1.608658E-16	1.172938E-18
4.183962E+03	1.620068E-16	1.181257E-18
4.188014E+03	1.638747E-16	1.194877E-18
4.192067E+03	1.661444E-16	1.211426E-18
4.196120E+03	1.687350E-16	1.230316E-18
4.200172E+03	1.723040E-16	1.256338E-18
4.204225E+03	1.769091E-16	1.289916E-18
4.208277E+03	1.825964E-16	1.331384E-18
4.212330E+03	1.882009E-16	1.372249E-18
4.216383E+03	1.927363E-16	1.405318E-18
4.220435E+03	1.959030E-16	1.428408E-18
4.224488E+03	1.973280E-16	1.438799E-18
4.228541E+03	1.968429E-16	1.435262E-18
4.232593E+03	1.946666E-16	1.419393E-18
4.236647E+03	1.917150E-16	1.397872E-18
4.240699E+03	1.881511E-16	1.371886E-18
4.244751E+03	1.845130E-16	1.345360E-18
4.248805E+03	1.813527E-16	1.322316E-18
4.252857E+03	1.785689E-16	1.302018E-18
4.256909E+03	1.760437E-16	1.283606E-18
4.260963E+03	1.727564E-16	1.259637E-18
4.265015E+03	1.684531E-16	1.228260E-18
4.269068E+03	1.642123E-16	1.197338E-18
4.273120E+03	1.606090E-16	1.171065E-18
4.277173E+03	1.585060E-16	1.155732E-18
4.281226E+03	1.585543E-16	1.156084E-18
4.285278E+03	1.600202E-16	1.166772E-18
4.289331E+03	1.625036E-16	1.184880E-18
4.293384E+03	1.657714E-16	1.208706E-18
4.297436E+03	1.694214E-16	1.235320E-18
4.301490E+03	1.741464E-16	1.269772E-18
4.305542E+03	1.790485E-16	1.305515E-18
4.309594E+03	1.842356E-16	1.343337E-18
4.313648E+03	1.906833E-16	1.390349E-18
4.317700E+03	1.984117E-16	1.446701E-18
4.321752E+03	2.075335E-16	1.513211E-18
4.325806E+03	2.162335E-16	1.576646E-18
4.329858E+03	2.245184E-16	1.637055E-18
4.333910E+03	2.328013E-16	1.697449E-18
4.337963E+03	2.401706E-16	1.751181E-18
4.342016E+03	2.465627E-16	1.797789E-18
4.346069E+03	2.516751E-16	1.835066E-18
4.350121E+03	2.554066E-16	1.862274E-18
4.354174E+03	2.571736E-16	1.875157E-18
4.358227E+03	2.569443E-16	1.873486E-18
4.362279E+03	2.545743E-16	1.856205E-18
4.366332E+03	2.506003E-16	1.827229E-18
4.370385E+03	2.463892E-16	1.796524E-18
4.374437E+03	2.432540E-16	1.773663E-18
4.378491E+03	2.419064E-16	1.763838E-18
4.382543E+03	2.428226E-16	1.770518E-18
4.386595E+03	2.459033E-16	1.792981E-18
4.390649E+03	2.506943E-16	1.827914E-18
4.394701E+03	2.577764E-16	1.879553E-18
4.398753E+03	2.673691E-16	1.949497E-18
4.402806E+03	2.796438E-16	2.038997E-18
4.406859E+03	2.934743E-16	2.139841E-18
4.410912E+03	3.084854E-16	2.249293E-18
4.414964E+03	3.239490E-16	2.362044E-18
4.419017E+03	3.383768E-16	2.467242E-18
4.423070E+03	3.511590E-16	2.560443E-18
4.427122E+03	3.624282E-16	2.642611E-18
4.431175E+03	3.714052E-16	2.708066E-18
4.435228E+03	3.779685E-16	2.755922E-18
4.439280E+03	3.834689E-16	2.796028E-18
4.443333E+03	3.876417E-16	2.826453E-18
4.447386E+03	3.903251E-16	2.846019E-18
4.451438E+03	3.921107E-16	2.859038E-18
4.455492E+03	3.926975E-16	2.863317E-18
4.459544E+03	3.921424E-16	2.859269E-18
4.463596E+03	3.902121E-16	2.845195E-18
4.467649E+03	3.868713E-16	2.820836E-18
4.471702E+03	3.828011E-16	2.791158E-18
4.475754E+03	3.775130E-16	2.752601E-18
4.479807E+03	3.693626E-16	2.693173E-18
4.483860E+03	3.567528E-16	2.601229E-18
4.487913E+03	3.395560E-16	2.475841E-18
4.491965E+03	3.165003E-16	2.307732E-18
4.496018E+03	2.900229E-16	2.114675E-18
4.500071E+03	2.633767E-16	1.920387E-18
4.504123E+03	2.402647E-16	1.751868E-18
4.508176E+03	2.259144E-16	1.647234E-18
4.512229E+03	2.225721E-16	1.622864E-18
4.516281E+03	2.308069E-16	1.682907E-18
4.520335E+03	2.488422E-16	1.814410E-18
4.524387E+03	2.750066E-16	2.005185E-18
4.528439E+03	3.065725E-16	2.235345E-18
4.532492E+03	3.423091E-16	2.495915E-18
4.536545E+03	3.820613E-16	2.785764E-18
4.540597E+03	4.252974E-16	3.101016E-18
4.544650E+03	4.719895E-16	3.441467E-18
4.548703E+03	5.227799E-16	3.811801E-18
4.552756E+03	5.772083E-16	4.208660E-18
4.556808E+03	6.334741E-16	4.618917E-18
4.560861E+03	6.901509E-16	5.032171E-18
4.564914E+03	7.453312E-16	5.434513E-18
4.568966E+03	7.961592E-16	5.805120E-18
4.573019E+03	8.401651E-16	6.125985E-18
4.577072E+03	8.769321E-16	6.394068E-18
4.581124E+03	9.074612E-16	6.616668E-18
4.585177E+03	9.333577E-16	6.805490E-18
4.589230E+03	9.570240E-16	6.978051E-18
4.593282E+03	9.787858E-16	7.136725E-18
4.597335E+03	9.986224E-16	7.281362E-18
4.601388E+03	1.015360E-15	7.403404E-18
4.605440E+03	1.028039E-15	7.495852E-18
4.609493E+03	1.036042E-15	7.554203E-18
4.613546E+03	1.040428E-15	7.586186E-18
4.617598E+03	1.043586E-15	7.609206E-18
4.621651E+03	1.046255E-15	7.628667E-18
4.625704E+03	1.047364E-15	7.636753E-18
4.629757E+03	1.047256E-15	7.635967E-18
4.633809E+03	1.047271E-15	7.636082E-18
4.637862E+03	1.048722E-15	7.646657E-18
4.641915E+03	1.053039E-15	7.678136E-18
4.645967E+03	1.061881E-15	7.742604E-18
4.650020E+03	1.076497E-15	7.849174E-18
4.654073E+03	1.096908E-15	7.998002E-18
4.658125E+03	1.120418E-15	8.169421E-18
4.662178E+03	1.147411E-15	8.366241E-18
4.666231E+03	1.176815E-15	8.580633E-18
4.670283E+03	1.203402E-15	8.774491E-18
4.674336E+03	1.223153E-15	8.918506E-18
4.678389E+03	1.233265E-15	8.992236E-18
4.682441E+03	1.234147E-15	8.998670E-18
4.686494E+03	1.227739E-15	8.951943E-18
4.690547E+03	1.218093E-15	8.881608E-18
4.694599E+03	1.208313E-15	8.810298E-18
4.698652E+03	1.200351E-15	8.752246E-18
4.702705E+03	1.196459E-15	8.723869E-18
4.706758E+03	1.195675E-15	8.718149E-18
4.710810E+03	1.195305E-15	8.715455E-18
4.714863E+03	1.192041E-15	8.691657E-18
4.718916E+03	1.183165E-15	8.626933E-18
4.722968E+03	1.166890E-15	8.508273E-18
4.727020E+03	1.143844E-15	8.340234E-18
4.731074E+03	1.115058E-15	8.130340E-18
4.735126E+03	1.082710E-15	7.894477E-18
4.739179E+03	1.050583E-15	7.660228E-18
4.743232E+03	1.019265E-15	7.431876E-18
4.747284E+03	9.856677E-16	7.186904E-18
4.751337E+03	9.453123E-16	6.892656E-18
4.755390E+03	8.956689E-16	6.530686E-18
4.759442E+03	8.368541E-16	6.101843E-18
4.763495E+03	7.709037E-16	5.620972E-18
4.767548E+03	7.015902E-16	5.115579E-18
4.771601E+03	6.340906E-16	4.623412E-18
4.775653E+03	5.707356E-16	4.161465E-18
4.779705E+03	5.137326E-16	3.745833E-18
4.783759E+03	4.670536E-16	3.405477E-18
4.787811E+03	4.327098E-16	3.155063E-18
4.791863E+03	4.120830E-16	3.004664E-18
4.795917E+03	4.060803E-16	2.960896E-18
4.799969E+03	4.140775E-16	3.019207E-18
4.804022E+03	4.359254E-16	3.178510E-18
4.808075E+03	4.710127E-16	3.434345E-18
4.812127E+03	5.175958E-16	3.774001E-18
4.816180E+03	5.709293E-16	4.162878E-18
4.820233E+03	6.246530E-16	4.554599E-18
4.824285E+03	6.748429E-16	4.920554E-18
4.828338E+03	7.207651E-16	5.255391E-18
4.832391E+03	7.610835E-16	5.549369E-18
4.836443E+03	7.961918E-16	5.805358E-18
4.840496E+03	8.281311E-16	6.038240E-18
4.844548E+03	8.583024E-16	6.258232E-18
4.848602E+03	8.865129E-16	6.463926E-18
4.852654E+03	9.126130E-16	6.654232E-18
4.856706E+03	9.366423E-16	6.829439E-18
4.860760E+03	9.581030E-16	6.985918E-18
4.864812E+03	9.760775E-16	7.116978E-18
4.868864E+03	9.921637E-16	7.234269E-18
4.872918E+03	1.008807E-15	7.355620E-18
4.876970E+03	1.029065E-15	7.503332E-18
4.881023E+03	1.055611E-15	7.696888E-18
4.885075E+03	1.089275E-15	7.942345E-18
4.889128E+03	1.129578E-15	8.236215E-18
4.893181E+03	1.174563E-15	8.564218E-18
4.897234E+03	1.222407E-15	8.913068E-18
4.901286E+03	1.271188E-15	9.268749E-18
4.905339E+03	1.317476E-15	9.606255E-18
4.909391E+03	1.359574E-15	9.913203E-18
4.913445E+03	1.397233E-15	1.018780E-17
4.917497E+03	1.428801E-15	1.041797E-17
4.921549E+03	1.452030E-15	1.058734E-17
4.925603E+03	1.465144E-15	1.068296E-17
4.929655E+03	1.468434E-15	1.070695E-17
4.933707E+03	1.463442E-15	1.067055E-17
4.937761E+03	1.449149E-15	1.056633E-17
4.941813E+03	1.423683E-15	1.038065E-17
4.945865E+03	1.387934E-15	1.011999E-17
4.949918E+03	1.345997E-15	9.814214E-18
4.953971E+03	1.301904E-15	9.492712E-18
4.958024E+03	1.257732E-15	9.170638E-18
4.962077E+03	1.215537E-15	8.862974E-18
4.966129E+03	1.176975E-15	8.581805E-18
4.970182E+03	1.140070E-15	8.312713E-18
4.974234E+03	1.105273E-15	8.058993E-18
4.978287E+03	1.076175E-15	7.846827E-18
4.982340E+03	1.055634E-15	7.697056E-18
4.986392E+03	1.045540E-15	7.623460E-18
4.990446E+03	1.048114E-15	7.642222E-18
4.994498E+03	1.064768E-15	7.763657E-18
4.998550E+03	1.094062E-15	7.977249E-18
5.002604E+03	1.137382E-15	8.293114E-18
5.006656E+03	1.193967E-15	8.705695E-18
5.010708E+03	1.260387E-15	9.189996E-18
5.014761E+03	1.329492E-15	9.693865E-18
5.018814E+03	1.395922E-15	1.017823E-17
5.022867E+03	1.457813E-15	1.062951E-17
5.026919E+03	1.512454E-15	1.102792E-17
5.030972E+03	1.560507E-15	1.137829E-17
5.035025E+03	1.600349E-15	1.166879E-17
5.039077E+03	1.629465E-15	1.188109E-17
5.043130E+03	1.645558E-15	1.199843E-17
5.047183E+03	1.646900E-15	1.200821E-17
5.051235E+03	1.630401E-15	1.188791E-17
5.055288E+03	1.595896E-15	1.163632E-17
5.059341E+03	1.544701E-15	1.126304E-17
5.063393E+03	1.478955E-15	1.078366E-17
5.067447E+03	1.403026E-15	1.023003E-17
5.071499E+03	1.320756E-15	9.630167E-18
5.075551E+03	1.235351E-15	9.007445E-18
5.079604E+03	1.150548E-15	8.389110E-18
5.083657E+03	1.068272E-15	7.789204E-18
5.087709E+03	9.894146E-16	7.214224E-18
5.091762E+03	9.153088E-16	6.673888E-18
5.095815E+03	8.465118E-16	6.172262E-18
5.099868E+03	7.849582E-16	5.723449E-18
5.103920E+03	7.336052E-16	5.349014E-18
5.107973E+03	6.943953E-16	5.063118E-18
5.112026E+03	6.653725E-16	4.851501E-18
5.116078E+03	6.427868E-16	4.686820E-18
5.120131E+03	6.243446E-16	4.552350E-18
5.124184E+03	6.085245E-16	4.436999E-18
5.128236E+03	5.961825E-16	4.347009E-18
5.132289E+03	5.875671E-16	4.284191E-18
5.136342E+03	5.828795E-16	4.250011E-18
5.140394E+03	5.838740E-16	4.257263E-18
5.144447E+03	5.934122E-16	4.326809E-18
5.148500E+03	6.120286E-16	4.462549E-18
5.152552E+03	6.411116E-16	4.674605E-18
5.156605E+03	6.804716E-16	4.961595E-18
5.160658E+03	7.262671E-16	5.295509E-18
5.164711E+03	7.750165E-16	5.650960E-18
5.168763E+03	8.226972E-16	5.998620E-18
5.172816E+03	8.652082E-16	6.308585E-18
5.176869E+03	9.000761E-16	6.562821E-18
5.180921E+03	9.269065E-16	6.758452E-18
5.184974E+03	9.480424E-16	6.912562E-18
5.189027E+03	9.671721E-16	7.052045E-18
5.193079E+03	9.859745E-16	7.189141E-18
