#wls	flux	fluxerr
1.593070E+03	2.534633E-18	2.530819E-19
1.632897E+03	2.606338E-18	2.587363E-19
1.672724E+03	2.670577E-18	2.635353E-19
1.712550E+03	2.727495E-18	2.675035E-19
1.752377E+03	2.774941E-18	2.704412E-19
1.792204E+03	2.810950E-18	2.721734E-19
1.832031E+03	2.831720E-18	2.723537E-19
1.871857E+03	2.832840E-18	2.705890E-19
1.911684E+03	2.809012E-18	2.664149E-19
1.951511E+03	2.758627E-18	2.597309E-19
1.991338E+03	2.683912E-18	2.508019E-19
2.031164E+03	2.595156E-18	2.406361E-19
2.070991E+03	2.516717E-18	2.315082E-19
2.110818E+03	2.477735E-18	2.260571E-19
2.150645E+03	2.507474E-18	2.268423E-19
2.190471E+03	2.620262E-18	2.349883E-19
2.230298E+03	2.812200E-18	2.499467E-19
2.270125E+03	3.065555E-18	2.699554E-19
2.309952E+03	3.361642E-18	2.932203E-19
2.349778E+03	3.681364E-18	3.179689E-19
2.389605E+03	4.015705E-18	3.433526E-19
2.429432E+03	4.356901E-18	3.686579E-19
2.469259E+03	4.705987E-18	3.939344E-19
2.509085E+03	5.061530E-18	4.190223E-19
2.548912E+03	5.428986E-18	4.443301E-19
2.588739E+03	5.810535E-18	4.699796E-19
2.628566E+03	6.210226E-18	4.962315E-19
2.668392E+03	6.632467E-18	5.233575E-19
2.708219E+03	7.082005E-18	5.516350E-19
2.748046E+03	7.563946E-18	5.813469E-19
2.787873E+03	8.085900E-18	6.129413E-19
2.827700E+03	8.649879E-18	6.464112E-19
2.867526E+03	9.266829E-18	6.823940E-19
2.907353E+03	9.944538E-18	7.212447E-19
2.947180E+03	1.068650E-17	7.629701E-19
2.987007E+03	1.150698E-17	8.083107E-19
2.996963E+03	1.172753E-17	8.203945E-19
3.006920E+03	1.195070E-17	8.325184E-19
3.016877E+03	1.217941E-17	8.448815E-19
3.026833E+03	1.241694E-17	8.577046E-19
3.036790E+03	1.265837E-17	8.706404E-19
3.046747E+03	1.291049E-17	8.841504E-19
3.056703E+03	1.317074E-17	8.980485E-19
3.066660E+03	1.343912E-17	9.123276E-19
3.076617E+03	1.371567E-17	9.269816E-19
3.086573E+03	1.400044E-17	9.420055E-19
3.096530E+03	1.429349E-17	9.573949E-19
3.106487E+03	1.459489E-17	9.731463E-19
3.116443E+03	1.490474E-17	9.892568E-19
3.126400E+03	1.522313E-17	1.005724E-18
3.136357E+03	1.555371E-17	1.022779E-18
3.146314E+03	1.588961E-17	1.039959E-18
3.156270E+03	1.623807E-17	1.057731E-18
3.166227E+03	1.659573E-17	1.075863E-18
3.176184E+03	1.695897E-17	1.094111E-18
3.186140E+03	1.733544E-17	1.112961E-18
3.196097E+03	1.772161E-17	1.132174E-18
3.206054E+03	1.811767E-17	1.151750E-18
3.216010E+03	1.852788E-17	1.171949E-18
3.225967E+03	1.894438E-17	1.192260E-18
3.235924E+03	1.937136E-17	1.212940E-18
3.245880E+03	1.981336E-17	1.234259E-18
3.255837E+03	2.026205E-17	1.255684E-18
3.265794E+03	2.072635E-17	1.277759E-18
3.275750E+03	2.119764E-17	1.299936E-18
3.285707E+03	2.168518E-17	1.322774E-18
3.295664E+03	2.218471E-17	1.345996E-18
3.305621E+03	2.269649E-17	1.369603E-18
3.315577E+03	2.322075E-17	1.393597E-18
3.325534E+03	2.375772E-17	1.417976E-18
3.335491E+03	2.431273E-17	1.443044E-18
3.345447E+03	2.487591E-17	1.468196E-18
3.355404E+03	2.545777E-17	1.494042E-18
3.365361E+03	2.604804E-17	1.519959E-18
3.375317E+03	2.665763E-17	1.546572E-18
3.385274E+03	2.728143E-17	1.573563E-18
3.395231E+03	2.791391E-17	1.600599E-18
3.405187E+03	2.856658E-17	1.628326E-18
3.415144E+03	2.923397E-17	1.656411E-18
3.425101E+03	2.992229E-17	1.685187E-18
3.435057E+03	3.061965E-17	1.713964E-18
3.445014E+03	3.133208E-17	1.743066E-18
3.454971E+03	3.205966E-17	1.772480E-18
3.464928E+03	3.280896E-17	1.802550E-18
3.474884E+03	3.357371E-17	1.832908E-18
3.484841E+03	3.434707E-17	1.863164E-18
3.494798E+03	3.514247E-17	1.894031E-18
3.504754E+03	3.595314E-17	1.925122E-18
3.514711E+03	3.677896E-17	1.956411E-18
3.524668E+03	3.761971E-17	1.987868E-18
3.534624E+03	3.847519E-17	2.019465E-18
3.544581E+03	3.934515E-17	2.051171E-18
3.554538E+03	4.023696E-17	2.083350E-18
3.564494E+03	4.113488E-17	2.115165E-18
3.574451E+03	4.205418E-17	2.147389E-18
3.584408E+03	4.297842E-17	2.179162E-18
3.594365E+03	4.392323E-17	2.211264E-18
3.604321E+03	4.488001E-17	2.243239E-18
3.614278E+03	4.584811E-17	2.275041E-18
3.624235E+03	4.682675E-17	2.306616E-18
3.634191E+03	4.781524E-17	2.337916E-18
3.644148E+03	4.881268E-17	2.368885E-18
3.654105E+03	4.982742E-17	2.399913E-18
3.664061E+03	5.084031E-17	2.430064E-18
3.674018E+03	5.186890E-17	2.460169E-18
3.683975E+03	5.289333E-17	2.489274E-18
3.693931E+03	5.393171E-17	2.518228E-18
3.703888E+03	5.497354E-17	2.546526E-18
3.713845E+03	5.600751E-17	2.573643E-18
3.723801E+03	5.705273E-17	2.600456E-18
3.733758E+03	5.809809E-17	2.626450E-18
3.743715E+03	5.914250E-17	2.651573E-18
3.753672E+03	6.019568E-17	2.676256E-18
3.763628E+03	6.123522E-17	2.699500E-18
3.773585E+03	6.227072E-17	2.721740E-18
3.783542E+03	6.331241E-17	2.743420E-18
3.793498E+03	6.433721E-17	2.763541E-18
3.803455E+03	6.536668E-17	2.783039E-18
3.813412E+03	6.638888E-17	2.801404E-18
3.823368E+03	6.740306E-17	2.818611E-18
3.833325E+03	6.840860E-17	2.834644E-18
3.843282E+03	6.940488E-17	2.849485E-18
3.853238E+03	7.039134E-17	2.863122E-18
3.863195E+03	7.136758E-17	2.875549E-18
3.873152E+03	7.233315E-17	2.886761E-18
3.883108E+03	7.330016E-17	2.897246E-18
3.893065E+03	7.424370E-17	2.906029E-18
3.903022E+03	7.518842E-17	2.914092E-18
3.912979E+03	7.610914E-17	2.920468E-18
3.922935E+03	7.703110E-17	2.926143E-18
3.932892E+03	7.794173E-17	2.930644E-18
3.942849E+03	7.882804E-17	2.933500E-18
3.952805E+03	7.971619E-17	2.935705E-18
3.962762E+03	8.059348E-17	2.936795E-18
3.972719E+03	8.146019E-17	2.936793E-18
3.982675E+03	8.233022E-17	2.936208E-18
3.992632E+03	8.317732E-17	2.934112E-18
4.002589E+03	8.401544E-17	2.931020E-18
4.012545E+03	8.485898E-17	2.927442E-18
4.022502E+03	8.568160E-17	2.922473E-18
4.032459E+03	8.651161E-17	2.917096E-18
4.042415E+03	8.732272E-17	2.910427E-18
4.052372E+03	8.814385E-17	2.903444E-18
4.062329E+03	8.896267E-17	2.895737E-18
4.072286E+03	8.976662E-17	2.886906E-18
4.082242E+03	9.058561E-17	2.877924E-18
4.092199E+03	9.140756E-17	2.868397E-18
4.102156E+03	9.223453E-17	2.858388E-18
4.112112E+03	9.306871E-17	2.847962E-18
4.122069E+03	9.392692E-17	2.837624E-18
4.132026E+03	9.478284E-17	2.826564E-18
4.141982E+03	9.565340E-17	2.815288E-18
4.151939E+03	9.655594E-17	2.804288E-18
4.161896E+03	9.746387E-17	2.792769E-18
4.171852E+03	9.839443E-17	2.781218E-18
4.181809E+03	9.936526E-17	2.770107E-18
4.191766E+03	1.003641E-16	2.759057E-18
4.201723E+03	1.013783E-16	2.747700E-18
4.211679E+03	1.024402E-16	2.736890E-18
4.221636E+03	1.035369E-16	2.726236E-18
4.231593E+03	1.046698E-16	2.715750E-18
4.241549E+03	1.058250E-16	2.705036E-18
4.251506E+03	1.070345E-16	2.694885E-18
4.261463E+03	1.082834E-16	2.684877E-18
4.271419E+03	1.095721E-16	2.674986E-18
4.281376E+03	1.109006E-16	2.665176E-18
4.291333E+03	1.122847E-16	2.655793E-18
4.301289E+03	1.136919E-16	2.646023E-18
4.311246E+03	1.151377E-16	2.636213E-18
4.321203E+03	1.166218E-16	2.626329E-18
4.331159E+03	1.181446E-16	2.616345E-18
4.341116E+03	1.197236E-16	2.606624E-18
4.351073E+03	1.213272E-16	2.596440E-18
4.361030E+03	1.229924E-16	2.586564E-18
4.370986E+03	1.246893E-16	2.576332E-18
4.380943E+03	1.264538E-16	2.566456E-18
4.390900E+03	1.282483E-16	2.556139E-18
4.400856E+03	1.301069E-16	2.546042E-18
4.410813E+03	1.319937E-16	2.535431E-18
4.420770E+03	1.339458E-16	2.525001E-18
4.430726E+03	1.359279E-16	2.514066E-18
4.440683E+03	1.379792E-16	2.503332E-18
4.450640E+03	1.400832E-16	2.492473E-18
4.460596E+03	1.422421E-16	2.481508E-18
4.470553E+03	1.444381E-16	2.470113E-18
4.480510E+03	1.467107E-16	2.458961E-18
4.490466E+03	1.490410E-16	2.447702E-18
4.500423E+03	1.514278E-16	2.436300E-18
4.510380E+03	1.538488E-16	2.424374E-18
4.520337E+03	1.563416E-16	2.412504E-18
4.530293E+03	1.588816E-16	2.400286E-18
4.540250E+03	1.614633E-16	2.387631E-18
4.550207E+03	1.640800E-16	2.374445E-18
4.560163E+03	1.667239E-16	2.360628E-18
4.570120E+03	1.693861E-16	2.346084E-18
4.580077E+03	1.720345E-16	2.330415E-18
4.590033E+03	1.747030E-16	2.314140E-18
4.599990E+03	1.773585E-16	2.296876E-18
4.609947E+03	1.799896E-16	2.278562E-18
4.619903E+03	1.825850E-16	2.259156E-18
4.629860E+03	1.851337E-16	2.238636E-18
4.639817E+03	1.876252E-16	2.217008E-18
4.649773E+03	1.900501E-16	2.194307E-18
4.659730E+03	1.923758E-16	2.170327E-18
4.669687E+03	1.946444E-16	2.145722E-18
4.679644E+03	1.968275E-16	2.120354E-18
4.689600E+03	1.989236E-16	2.094404E-18
4.699557E+03	2.009343E-16	2.068096E-18
4.709514E+03	2.028655E-16	2.041701E-18
4.719470E+03	2.047020E-16	2.015289E-18
4.729427E+03	2.065105E-16	1.989737E-18
4.739384E+03	2.082882E-16	1.965223E-18
4.749340E+03	2.100652E-16	1.942240E-18
4.759297E+03	2.118540E-16	1.921109E-18
4.769254E+03	2.137321E-16	1.902736E-18
4.779210E+03	2.156475E-16	1.886852E-18
4.789167E+03	2.175434E-16	1.873192E-18
4.799124E+03	2.194471E-16	1.862242E-18
4.809080E+03	2.212860E-16	1.853638E-18
4.819037E+03	2.230976E-16	1.847954E-18
4.828994E+03	2.248166E-16	1.844897E-18
4.838951E+03	2.264870E-16	1.845069E-18
4.848907E+03	2.280483E-16	1.848190E-18
4.858864E+03	2.295221E-16	1.854627E-18
4.868821E+03	2.309320E-16	1.864724E-18
4.878777E+03	2.322219E-16	1.878066E-18
4.888734E+03	2.334180E-16	1.894763E-18
4.898691E+03	2.345201E-16	1.914670E-18
4.908647E+03	2.355286E-16	1.937614E-18
4.918604E+03	2.364443E-16	1.963399E-18
4.928561E+03	2.372687E-16	1.991814E-18
4.938517E+03	2.380035E-16	2.022636E-18
4.948474E+03	2.386513E-16	2.055636E-18
4.958431E+03	2.392152E-16	2.090588E-18
4.968388E+03	2.396986E-16	2.127268E-18
4.978344E+03	2.400784E-16	2.165215E-18
4.988301E+03	2.404141E-16	2.204718E-18
4.998258E+03	2.406566E-16	2.245094E-18
5.008214E+03	2.408664E-16	2.286678E-18
5.018171E+03	2.409958E-16	2.328809E-18
5.028128E+03	2.410790E-16	2.371611E-18
5.038084E+03	2.411510E-16	2.415250E-18
5.048041E+03	2.411655E-16	2.459100E-18
5.057998E+03	2.411582E-16	2.503360E-18
5.067954E+03	2.411378E-16	2.547986E-18
5.077911E+03	2.411132E-16	2.592947E-18
5.087868E+03	2.410933E-16	2.638236E-18
5.097824E+03	2.410605E-16	2.683559E-18
5.107781E+03	2.410767E-16	2.729523E-18
5.117738E+03	2.411238E-16	2.775868E-18
5.127695E+03	2.411836E-16	2.822323E-18
5.137651E+03	2.413165E-16	2.869550E-18
5.147608E+03	2.414770E-16	2.916980E-18
5.157565E+03	2.416979E-16	2.964975E-18
5.167521E+03	2.419850E-16	3.013594E-18
5.177478E+03	2.423433E-16	3.062891E-18
5.187435E+03	2.427772E-16	3.112922E-18
5.197391E+03	2.432902E-16	3.163736E-18
5.207348E+03	2.438851E-16	3.215379E-18
5.217305E+03	2.445376E-16	3.267541E-18
5.227261E+03	2.453014E-16	3.320949E-18
5.237218E+03	2.461246E-16	3.374926E-18
5.247175E+03	2.470330E-16	3.429837E-18
5.257131E+03	2.480260E-16	3.485695E-18
5.267088E+03	2.491019E-16	3.542499E-18
5.277045E+03	2.502587E-16	3.600243E-18
5.287002E+03	2.514939E-16	3.658914E-18
5.296958E+03	2.528043E-16	3.718488E-18
5.306915E+03	2.541599E-16	3.778539E-18
5.316872E+03	2.556099E-16	3.839814E-18
5.326828E+03	2.570966E-16	3.901473E-18
5.336785E+03	2.586422E-16	3.963858E-18
5.346742E+03	2.602417E-16	4.026910E-18
5.356698E+03	2.618897E-16	4.090562E-18
5.366655E+03	2.635812E-16	4.154745E-18
5.376612E+03	2.653105E-16	4.219383E-18
5.386568E+03	2.670446E-16	4.283957E-18
5.396525E+03	2.688325E-16	4.349258E-18
5.406482E+03	2.706137E-16	4.414316E-18
5.416438E+03	2.724100E-16	4.479487E-18
5.426395E+03	2.742162E-16	4.544688E-18
5.436352E+03	2.760270E-16	4.609835E-18
5.446309E+03	2.778379E-16	4.674857E-18
5.456265E+03	2.796164E-16	4.739204E-18
5.466222E+03	2.814154E-16	4.803771E-18
5.476179E+03	2.831747E-16	4.867533E-18
5.486135E+03	2.849176E-16	4.930889E-18
5.496092E+03	2.866398E-16	4.993760E-18
5.506049E+03	2.883377E-16	5.056084E-18
5.516005E+03	2.900085E-16	5.117798E-18
5.525962E+03	2.916205E-16	5.178306E-18
5.535919E+03	2.932012E-16	5.238047E-18
5.545875E+03	2.947788E-16	5.297497E-18
5.555832E+03	2.962953E-16	5.355576E-18
5.565789E+03	2.977811E-16	5.412789E-18
5.575746E+03	2.992085E-16	5.468598E-18
5.585702E+03	3.006393E-16	5.524093E-18
5.595659E+03	3.020178E-16	5.578221E-18
5.605616E+03	3.034073E-16	5.632118E-18
5.615572E+03	3.047527E-16	5.684734E-18
5.625529E+03	3.060885E-16	5.736680E-18
5.635486E+03	3.074196E-16	5.788021E-18
5.645442E+03	3.087207E-16	5.838258E-18
5.655399E+03	3.100567E-16	5.888592E-18
5.665356E+03	3.113717E-16	5.937946E-18
5.675312E+03	3.126999E-16	5.986946E-18
5.685269E+03	3.140447E-16	6.035641E-18
5.695226E+03	3.154087E-16	6.084069E-18
5.705182E+03	3.167634E-16	6.131660E-18
5.715139E+03	3.181707E-16	6.179596E-18
5.725096E+03	3.195693E-16	6.226677E-18
5.735053E+03	3.209884E-16	6.273456E-18
5.745009E+03	3.224259E-16	6.319878E-18
5.754966E+03	3.238779E-16	6.365856E-18
5.764923E+03	3.253087E-16	6.410673E-18
5.774879E+03	3.267743E-16	6.455419E-18
5.784836E+03	3.282050E-16	6.498710E-18
5.794793E+03	3.296240E-16	6.540988E-18
5.804749E+03	3.310221E-16	6.582058E-18
5.814706E+03	3.323576E-16	6.621084E-18
5.824663E+03	3.336835E-16	6.659107E-18
5.834619E+03	3.349259E-16	6.694643E-18
5.844576E+03	3.361059E-16	6.728106E-18
5.854533E+03	3.372135E-16	6.759290E-18
5.864489E+03	3.382396E-16	6.788005E-18
5.874446E+03	3.391442E-16	6.813446E-18
5.884403E+03	3.399847E-16	6.836766E-18
5.894360E+03	3.406927E-16	6.856594E-18
5.904316E+03	3.412979E-16	6.873532E-18
5.914273E+03	3.418005E-16	6.887589E-18
5.924230E+03	3.421713E-16	6.898192E-18
5.934186E+03	3.424798E-16	6.906758E-18
5.944143E+03	3.426703E-16	6.912180E-18
5.954100E+03	3.427855E-16	6.915341E-18
5.964056E+03	3.428385E-16	6.916529E-18
5.974013E+03	3.428445E-16	6.916079E-18
5.983970E+03	3.427881E-16	6.913709E-18
5.993926E+03	3.427190E-16	6.910456E-18
6.003883E+03	3.426557E-16	6.906721E-18
6.013840E+03	3.426163E-16	6.902908E-18
6.023796E+03	3.426187E-16	6.899412E-18
6.033753E+03	3.426477E-16	6.895964E-18
6.043710E+03	3.427819E-16	6.894185E-18
6.053667E+03	3.429709E-16	6.893098E-18
6.063623E+03	3.432568E-16	6.893594E-18
6.073580E+03	3.436475E-16	6.895871E-18
6.083537E+03	3.441163E-16	6.899434E-18
6.093493E+03	3.446966E-16	6.905003E-18
6.103450E+03	3.454195E-16	6.913242E-18
6.113407E+03	3.462173E-16	6.922849E-18
6.123363E+03	3.470838E-16	6.933749E-18
6.133320E+03	3.480738E-16	6.947095E-18
6.143277E+03	3.491130E-16	6.961461E-18
6.153233E+03	3.502215E-16	6.977310E-18
6.163190E+03	3.513863E-16	6.994449E-18
6.173147E+03	3.525942E-16	7.012685E-18
6.183103E+03	3.538318E-16	7.031825E-18
6.193060E+03	3.550536E-16	7.051045E-18
6.203017E+03	3.562798E-16	7.070825E-18
6.212974E+03	3.574993E-16	7.091031E-18
6.222930E+03	3.587023E-16	7.111557E-18
6.232887E+03	3.598806E-16	7.132334E-18
6.242844E+03	3.609952E-16	7.152679E-18
6.252800E+03	3.620747E-16	7.173261E-18
6.262757E+03	3.631501E-16	7.194791E-18
6.272714E+03	3.641229E-16	7.215417E-18
6.282670E+03	3.650947E-16	7.237255E-18
6.292627E+03	3.660037E-16	7.259185E-18
6.302584E+03	3.669227E-16	7.282757E-18
6.312540E+03	3.677930E-16	7.306907E-18
6.322497E+03	3.686562E-16	7.332575E-18
6.332454E+03	3.694881E-16	7.359385E-18
6.342411E+03	3.703647E-16	7.388961E-18
6.352367E+03	3.712277E-16	7.420253E-18
6.362324E+03	3.721182E-16	7.454195E-18
6.372281E+03	3.730430E-16	7.491039E-18
6.382237E+03	3.740067E-16	7.530995E-18
6.392194E+03	3.749785E-16	7.573561E-18
6.402151E+03	3.759929E-16	7.619548E-18
6.412107E+03	3.770825E-16	7.669743E-18
6.422064E+03	3.781411E-16	7.722105E-18
6.432021E+03	3.792650E-16	7.778709E-18
6.441977E+03	3.804118E-16	7.838812E-18
6.451934E+03	3.815369E-16	7.901601E-18
6.461891E+03	3.826630E-16	7.967651E-18
6.471847E+03	3.837778E-16	8.036787E-18
6.481804E+03	3.848689E-16	8.108749E-18
6.491761E+03	3.858893E-16	8.182511E-18
6.501718E+03	3.868980E-16	8.259269E-18
6.511674E+03	3.878001E-16	8.336949E-18
6.521631E+03	3.885857E-16	8.415250E-18
6.531588E+03	3.892112E-16	8.493120E-18
6.541544E+03	3.896366E-16	8.569549E-18
6.551501E+03	3.897910E-16	8.642806E-18
6.561458E+03	3.896790E-16	8.712786E-18
6.571414E+03	3.892754E-16	8.778698E-18
6.581371E+03	3.885610E-16	8.839865E-18
6.591328E+03	3.875226E-16	8.895715E-18
6.601284E+03	3.861190E-16	8.945002E-18
6.611241E+03	3.844199E-16	8.989034E-18
6.621198E+03	3.823621E-16	9.026027E-18
6.631154E+03	3.799930E-16	9.056767E-18
6.641111E+03	3.773307E-16	9.081373E-18
6.651068E+03	3.743644E-16	9.099267E-18
6.661025E+03	3.711894E-16	9.112463E-18
6.670981E+03	3.677693E-16	9.119795E-18
6.680938E+03	3.641716E-16	9.122657E-18
6.690895E+03	3.604314E-16	9.121697E-18
6.700851E+03	3.565850E-16	9.117622E-18
6.710808E+03	3.526366E-16	9.110354E-18
6.720765E+03	3.486863E-16	9.102317E-18
6.730721E+03	3.447049E-16	9.092641E-18
6.740678E+03	3.407569E-16	9.082925E-18
6.750635E+03	3.368726E-16	9.073919E-18
6.760591E+03	3.330500E-16	9.065530E-18
6.770548E+03	3.293749E-16	9.060089E-18
6.780505E+03	3.258094E-16	9.056591E-18
6.790461E+03	3.224035E-16	9.056455E-18
6.800418E+03	3.191738E-16	9.060226E-18
6.810375E+03	3.161342E-16	9.068394E-18
6.820332E+03	3.132965E-16	9.081401E-18
6.830288E+03	3.106415E-16	9.098814E-18
6.840245E+03	3.082049E-16	9.121799E-18
6.850202E+03	3.059917E-16	9.150657E-18
6.860158E+03	3.040052E-16	9.185644E-18
6.870115E+03	3.022471E-16	9.226982E-18
6.880072E+03	3.007180E-16	9.274858E-18
6.890028E+03	2.993897E-16	9.328576E-18
6.899985E+03	2.983151E-16	9.389952E-18
6.909942E+03	2.974372E-16	9.457387E-18
6.919898E+03	2.967798E-16	9.531800E-18
6.929855E+03	2.963392E-16	9.613254E-18
6.939812E+03	2.960836E-16	9.700893E-18
6.949769E+03	2.960623E-16	9.796501E-18
6.959725E+03	2.962159E-16	9.898302E-18
6.969682E+03	2.965660E-16	1.000717E-17
6.979639E+03	2.971067E-16	1.012308E-17
6.989595E+03	2.978321E-16	1.024599E-17
6.999552E+03	2.987360E-16	1.037586E-17
7.009509E+03	2.997845E-16	1.051166E-17
7.019465E+03	3.010262E-16	1.065523E-17
7.029422E+03	3.023991E-16	1.080453E-17
7.039379E+03	3.039241E-16	1.096044E-17
7.049335E+03	3.055940E-16	1.112283E-17
7.059292E+03	3.074013E-16	1.129156E-17
7.069249E+03	3.093099E-16	1.146541E-17
7.079205E+03	3.113684E-16	1.164629E-17
7.089162E+03	3.135109E-16	1.183185E-17
7.099119E+03	3.157855E-16	1.202399E-17
7.109076E+03	3.181239E-16	1.222022E-17
7.119032E+03	3.205442E-16	1.242128E-17
7.128989E+03	3.230043E-16	1.262559E-17
7.138946E+03	3.255503E-16	1.283501E-17
7.148902E+03	3.281079E-16	1.304666E-17
7.158859E+03	3.307221E-16	1.326234E-17
7.168816E+03	3.333148E-16	1.347893E-17
7.178772E+03	3.358981E-16	1.369690E-17
7.188729E+03	3.384529E-16	1.391543E-17
7.198686E+03	3.409588E-16	1.413365E-17
7.208642E+03	3.433626E-16	1.434926E-17
7.218599E+03	3.457066E-16	1.456394E-17
7.228556E+03	3.479045E-16	1.477395E-17
7.238512E+03	3.499667E-16	1.497957E-17
7.248469E+03	3.519050E-16	1.518116E-17
7.258426E+03	3.536336E-16	1.537485E-17
7.268383E+03	3.551330E-16	1.555958E-17
7.278339E+03	3.564529E-16	1.573728E-17
7.288296E+03	3.575453E-16	1.590564E-17
7.298253E+03	3.583644E-16	1.606236E-17
7.308209E+03	3.589681E-16	1.620978E-17
7.318166E+03	3.592826E-16	1.634429E-17
7.328123E+03	3.593383E-16	1.646702E-17
7.338079E+03	3.591352E-16	1.657767E-17
7.348036E+03	3.586762E-16	1.667613E-17
7.357993E+03	3.579333E-16	1.676082E-17
7.367949E+03	3.569828E-16	1.683504E-17
7.377906E+03	3.557677E-16	1.689589E-17
7.387863E+03	3.543688E-16	1.694694E-17
7.397819E+03	3.527333E-16	1.698549E-17
7.407776E+03	3.509112E-16	1.701370E-17
7.417733E+03	3.489200E-16	1.703225E-17
7.427690E+03	3.467779E-16	1.704185E-17
7.437646E+03	3.445037E-16	1.704330E-17
7.447603E+03	3.420840E-16	1.703580E-17
7.457560E+03	3.396043E-16	1.702348E-17
7.467516E+03	3.370191E-16	1.700398E-17
7.477473E+03	3.343811E-16	1.697990E-17
7.487430E+03	3.317422E-16	1.695381E-17
7.497386E+03	3.290582E-16	1.692347E-17
7.507343E+03	3.263812E-16	1.689150E-17
7.517300E+03	3.237304E-16	1.685893E-17
7.527256E+03	3.210936E-16	1.682515E-17
7.537213E+03	3.185514E-16	1.679441E-17
7.547170E+03	3.160587E-16	1.676443E-17
7.557126E+03	3.136925E-16	1.673935E-17
7.567083E+03	3.114052E-16	1.671675E-17
7.577040E+03	3.092389E-16	1.669899E-17
7.586997E+03	3.072024E-16	1.668664E-17
7.596953E+03	3.053019E-16	1.668019E-17
7.606910E+03	3.035411E-16	1.667996E-17
7.616867E+03	3.019212E-16	1.668615E-17
7.626823E+03	3.004415E-16	1.669886E-17
7.636780E+03	2.990992E-16	1.671808E-17
7.646737E+03	2.978608E-16	1.674204E-17
7.656693E+03	2.967505E-16	1.677221E-17
7.666650E+03	2.957908E-16	1.681000E-17
7.676607E+03	2.949161E-16	1.685178E-17
7.686563E+03	2.941477E-16	1.689888E-17
7.696520E+03	2.934768E-16	1.695087E-17
7.706477E+03	2.928943E-16	1.700732E-17
7.716434E+03	2.923908E-16	1.706777E-17
7.726390E+03	2.919565E-16	1.713171E-17
