#wls	flux	fluxerr
1.593070E+03	2.513852E-18	1.707224E-19
1.632897E+03	2.605984E-18	1.760934E-19
1.672724E+03	2.694266E-18	1.811204E-19
1.712550E+03	2.776655E-18	1.856681E-19
1.752377E+03	2.851800E-18	1.896505E-19
1.792204E+03	2.916472E-18	1.928594E-19
1.832031E+03	2.967664E-18	1.951068E-19
1.871857E+03	2.997733E-18	1.959069E-19
1.911684E+03	3.003990E-18	1.951084E-19
1.951511E+03	2.982802E-18	1.925050E-19
1.991338E+03	2.933111E-18	1.880628E-19
2.031164E+03	2.868801E-18	1.827031E-19
2.070991E+03	2.813337E-18	1.779302E-19
2.110818E+03	2.801832E-18	1.759386E-19
2.150645E+03	2.868298E-18	1.787886E-19
2.190471E+03	3.033192E-18	1.876352E-19
2.230298E+03	3.294160E-18	2.021890E-19
2.270125E+03	3.634507E-18	2.212852E-19
2.309952E+03	4.033757E-18	2.435585E-19
2.349778E+03	4.469615E-18	2.675710E-19
2.389605E+03	4.932532E-18	2.926841E-19
2.429432E+03	5.414197E-18	3.183501E-19
2.469259E+03	5.914840E-18	3.445343E-19
2.509085E+03	6.433462E-18	3.711295E-19
2.548912E+03	6.972739E-18	3.982391E-19
2.588739E+03	7.536298E-18	4.260120E-19
2.628566E+03	8.128242E-18	4.546137E-19
2.668392E+03	8.756182E-18	4.843916E-19
2.708219E+03	9.421729E-18	5.153434E-19
2.748046E+03	1.012939E-17	5.476166E-19
2.787873E+03	1.088762E-17	5.815548E-19
2.827700E+03	1.169740E-17	6.170811E-19
2.867526E+03	1.256308E-17	6.542880E-19
2.907353E+03	1.348884E-17	6.932422E-19
2.947180E+03	1.448366E-17	7.342391E-19
2.987007E+03	1.554656E-17	7.770443E-19
2.996963E+03	1.582051E-17	7.878861E-19
3.006920E+03	1.610449E-17	7.991135E-19
3.016877E+03	1.638735E-17	8.101696E-19
3.026833E+03	1.668072E-17	8.216266E-19
3.036790E+03	1.697405E-17	8.329603E-19
3.046747E+03	1.728003E-17	8.447906E-19
3.056703E+03	1.758698E-17	8.565407E-19
3.066660E+03	1.790675E-17	8.687846E-19
3.076617E+03	1.823313E-17	8.812139E-19
3.086573E+03	1.855951E-17	8.935060E-19
3.096530E+03	1.889837E-17	9.062583E-19
3.106487E+03	1.923662E-17	9.188378E-19
3.116443E+03	1.958715E-17	9.318575E-19
3.126400E+03	1.994329E-17	9.449934E-19
3.136357E+03	2.030485E-17	9.582322E-19
3.146314E+03	2.066463E-17	9.712316E-19
3.156270E+03	2.103640E-17	9.846361E-19
3.166227E+03	2.141306E-17	9.981073E-19
3.176184E+03	2.179445E-17	1.011633E-18
3.186140E+03	2.217291E-17	1.024857E-18
3.196097E+03	2.256312E-17	1.038455E-18
3.206054E+03	2.295754E-17	1.052073E-18
3.216010E+03	2.335601E-17	1.065701E-18
3.225967E+03	2.375835E-17	1.079327E-18
3.235924E+03	2.416439E-17	1.092940E-18
3.245880E+03	2.456577E-17	1.106161E-18
3.255837E+03	2.497856E-17	1.119712E-18
3.265794E+03	2.539454E-17	1.133217E-18
3.275750E+03	2.581350E-17	1.146666E-18
3.285707E+03	2.623526E-17	1.160047E-18
3.295664E+03	2.665965E-17	1.173349E-18
3.305621E+03	2.708646E-17	1.186561E-18
3.315577E+03	2.751549E-17	1.199673E-18
3.325534E+03	2.794655E-17	1.212672E-18
3.335491E+03	2.837943E-17	1.225549E-18
3.345447E+03	2.881392E-17	1.238290E-18
3.355404E+03	2.924980E-17	1.250887E-18
3.365361E+03	2.968686E-17	1.263327E-18
3.375317E+03	3.012486E-17	1.275598E-18
3.385274E+03	3.056358E-17	1.287690E-18
3.395231E+03	3.100278E-17	1.299592E-18
3.405187E+03	3.144223E-17	1.311291E-18
3.415144E+03	3.188167E-17	1.322778E-18
3.425101E+03	3.232086E-17	1.334040E-18
3.435057E+03	3.277008E-17	1.345499E-18
3.445014E+03	3.320814E-17	1.356281E-18
3.454971E+03	3.364517E-17	1.366806E-18
3.464928E+03	3.408092E-17	1.377063E-18
3.474884E+03	3.451514E-17	1.387040E-18
3.484841E+03	3.494754E-17	1.396728E-18
3.494798E+03	3.538912E-17	1.406563E-18
3.504754E+03	3.581723E-17	1.415644E-18
3.514711E+03	3.624274E-17	1.424405E-18
3.524668E+03	3.666538E-17	1.432837E-18
3.534624E+03	3.709659E-17	1.441386E-18
3.544581E+03	3.751284E-17	1.449136E-18
3.554538E+03	3.792545E-17	1.456532E-18
3.564494E+03	3.833419E-17	1.463565E-18
3.574451E+03	3.875093E-17	1.470690E-18
3.584408E+03	3.915131E-17	1.476979E-18
3.594365E+03	3.954713E-17	1.482887E-18
3.604321E+03	3.995060E-17	1.488872E-18
3.614278E+03	4.033677E-17	1.494002E-18
3.624235E+03	4.071778E-17	1.498736E-18
3.634191E+03	4.110617E-17	1.503536E-18
3.644148E+03	4.147650E-17	1.507472E-18
3.654105E+03	4.184125E-17	1.511006E-18
3.664061E+03	4.221320E-17	1.514600E-18
3.674018E+03	4.256650E-17	1.517328E-18
3.683975E+03	4.292704E-17	1.520119E-18
3.693931E+03	4.326862E-17	1.522046E-18
3.703888E+03	4.361757E-17	1.524041E-18
3.713845E+03	4.394737E-17	1.525179E-18
3.723801E+03	4.427134E-17	1.525933E-18
3.733758E+03	4.460295E-17	1.526767E-18
3.743715E+03	4.491544E-17	1.526766E-18
3.753672E+03	4.523603E-17	1.526863E-18
3.763628E+03	4.553762E-17	1.526143E-18
3.773585E+03	4.584780E-17	1.525538E-18
3.783542E+03	4.613931E-17	1.524140E-18
3.793498E+03	4.644007E-17	1.522880E-18
3.803455E+03	4.672268E-17	1.520858E-18
3.813412E+03	4.701533E-17	1.518999E-18
3.823368E+03	4.729045E-17	1.516411E-18
3.833325E+03	4.757662E-17	1.514017E-18
3.843282E+03	4.784612E-17	1.510933E-18
3.853238E+03	4.812778E-17	1.508075E-18
3.863195E+03	4.840807E-17	1.505014E-18
3.873152E+03	4.867332E-17	1.501329E-18
3.883108E+03	4.895279E-17	1.497927E-18
3.893065E+03	4.921852E-17	1.493950E-18
3.903022E+03	4.950016E-17	1.490300E-18
3.912979E+03	4.978404E-17	1.486558E-18
3.922935E+03	5.005652E-17	1.482319E-18
3.932892E+03	5.034769E-17	1.478475E-18
3.942849E+03	5.062922E-17	1.474188E-18
3.952805E+03	5.093151E-17	1.470344E-18
3.962762E+03	5.124101E-17	1.466539E-18
3.972719E+03	5.154393E-17	1.462378E-18
3.982675E+03	5.187118E-17	1.458737E-18
3.992632E+03	5.219407E-17	1.454796E-18
4.002589E+03	5.254386E-17	1.451425E-18
4.012545E+03	5.290687E-17	1.448229E-18
4.022502E+03	5.326922E-17	1.444824E-18
4.032459E+03	5.366270E-17	1.442064E-18
4.042415E+03	5.407357E-17	1.439562E-18
4.052372E+03	5.448770E-17	1.436932E-18
4.062329E+03	5.493758E-17	1.435023E-18
4.072286E+03	5.540927E-17	1.433449E-18
4.082242E+03	5.588850E-17	1.431827E-18
4.092199E+03	5.640846E-17	1.430997E-18
4.102156E+03	5.695495E-17	1.430573E-18
4.112112E+03	5.751349E-17	1.430175E-18
4.122069E+03	5.811800E-17	1.430633E-18
4.132026E+03	5.875411E-17	1.431562E-18
4.141982E+03	5.940691E-17	1.432582E-18
4.151939E+03	6.011122E-17	1.434514E-18
4.161896E+03	6.085231E-17	1.436973E-18
4.171852E+03	6.161479E-17	1.439575E-18
4.181809E+03	6.243445E-17	1.443133E-18
4.191766E+03	6.329609E-17	1.447261E-18
4.201723E+03	6.418359E-17	1.451566E-18
4.211679E+03	6.513395E-17	1.456859E-18
4.221636E+03	6.613113E-17	1.462743E-18
4.231593E+03	6.715810E-17	1.468814E-18
4.241549E+03	6.825306E-17	1.475881E-18
4.251506E+03	6.939891E-17	1.483533E-18
4.261463E+03	7.057757E-17	1.491356E-18
4.271419E+03	7.182825E-17	1.500149E-18
4.281376E+03	7.313279E-17	1.509492E-18
4.291333E+03	7.447150E-17	1.518949E-18
4.301289E+03	7.588507E-17	1.529324E-18
4.311246E+03	7.735376E-17	1.540176E-18
4.321203E+03	7.885634E-17	1.551056E-18
4.331159E+03	8.043512E-17	1.562771E-18
4.341116E+03	8.206906E-17	1.574873E-18
4.351073E+03	8.373549E-17	1.586902E-18
4.361030E+03	8.547901E-17	1.599682E-18
4.370986E+03	8.727757E-17	1.612763E-18
4.380943E+03	8.910729E-17	1.625684E-18
4.390900E+03	9.101581E-17	1.639296E-18
4.400856E+03	9.297996E-17	1.653146E-18
4.410813E+03	9.497481E-17	1.666776E-18
4.420770E+03	9.705095E-17	1.681058E-18
4.430726E+03	9.915770E-17	1.695089E-18
4.440683E+03	1.013474E-16	1.709753E-18
4.450640E+03	1.035944E-16	1.724587E-18
4.460596E+03	1.058706E-16	1.739116E-18
4.470553E+03	1.082308E-16	1.754234E-18
4.480510E+03	1.106176E-16	1.768995E-18
4.490466E+03	1.130875E-16	1.784298E-18
4.500423E+03	1.156099E-16	1.799649E-18
4.510380E+03	1.181515E-16	1.814533E-18
4.520337E+03	1.207706E-16	1.829856E-18
4.530293E+03	1.234009E-16	1.844616E-18
4.540250E+03	1.261018E-16	1.859714E-18
4.550207E+03	1.288030E-16	1.874122E-18
4.560163E+03	1.315654E-16	1.888747E-18
4.570120E+03	1.343151E-16	1.902544E-18
4.580077E+03	1.371146E-16	1.916434E-18
4.590033E+03	1.398868E-16	1.929363E-18
4.599990E+03	1.426960E-16	1.942266E-18
4.609947E+03	1.454619E-16	1.954086E-18
4.619903E+03	1.482516E-16	1.965780E-18
4.629860E+03	1.509822E-16	1.976300E-18
4.639817E+03	1.537236E-16	1.986627E-18
4.649773E+03	1.563911E-16	1.995726E-18
4.659730E+03	1.590178E-16	2.004099E-18
4.669687E+03	1.616397E-16	2.012269E-18
4.679644E+03	1.641709E-16	2.019237E-18
4.689600E+03	1.666916E-16	2.026071E-18
4.699557E+03	1.691158E-16	2.031803E-18
4.709514E+03	1.714852E-16	2.037027E-18
4.719470E+03	1.738450E-16	2.042353E-18
4.729427E+03	1.761102E-16	2.046861E-18
4.739384E+03	1.783280E-16	2.051188E-18
4.749340E+03	1.805479E-16	2.055977E-18
4.759297E+03	1.826819E-16	2.060300E-18
4.769254E+03	1.847756E-16	2.064756E-18
4.779210E+03	1.868257E-16	2.069386E-18
4.789167E+03	1.888736E-16	2.074721E-18
4.799124E+03	1.908178E-16	2.079719E-18
4.809080E+03	1.926973E-16	2.084894E-18
4.819037E+03	1.945047E-16	2.090242E-18
4.828994E+03	1.962329E-16	2.095764E-18
4.838951E+03	1.979250E-16	2.101991E-18
4.848907E+03	1.994774E-16	2.107894E-18
4.858864E+03	2.009345E-16	2.114013E-18
4.868821E+03	2.022924E-16	2.120371E-18
4.878777E+03	2.035481E-16	2.126994E-18
4.888734E+03	2.047000E-16	2.133917E-18
4.898691E+03	2.057474E-16	2.141168E-18
4.908647E+03	2.066909E-16	2.148746E-18
4.918604E+03	2.075315E-16	2.156642E-18
4.928561E+03	2.082715E-16	2.164846E-18
4.938517E+03	2.089131E-16	2.173348E-18
4.948474E+03	2.094598E-16	2.182141E-18
4.958431E+03	2.099152E-16	2.191217E-18
4.968388E+03	2.102838E-16	2.200568E-18
4.978344E+03	2.105704E-16	2.210190E-18
4.988301E+03	2.107803E-16	2.220083E-18
4.998258E+03	2.109194E-16	2.230244E-18
5.008214E+03	2.109428E-16	2.240137E-18
5.018171E+03	2.109592E-16	2.250852E-18
5.028128E+03	2.109242E-16	2.261856E-18
5.038084E+03	2.108451E-16	2.273166E-18
5.048041E+03	2.107289E-16	2.284797E-18
5.057998E+03	2.105324E-16	2.296220E-18
5.067954E+03	2.103643E-16	2.308559E-18
5.077911E+03	2.101814E-16	2.321292E-18
5.087868E+03	2.099403E-16	2.333888E-18
5.097824E+03	2.097488E-16	2.347491E-18
5.107781E+03	2.095630E-16	2.361574E-18
5.117738E+03	2.093394E-16	2.375601E-18
5.127695E+03	2.091836E-16	2.390729E-18
5.137651E+03	2.090010E-16	2.405844E-18
5.147608E+03	2.088956E-16	2.422110E-18
5.157565E+03	2.087718E-16	2.438394E-18
5.167521E+03	2.087319E-16	2.455859E-18
5.177478E+03	2.086790E-16	2.473348E-18
5.187435E+03	2.087135E-16	2.492025E-18
5.197391E+03	2.087373E-16	2.510704E-18
5.207348E+03	2.088490E-16	2.530551E-18
5.217305E+03	2.089494E-16	2.550351E-18
5.227261E+03	2.090863E-16	2.570665E-18
5.237218E+03	2.092578E-16	2.591457E-18
5.247175E+03	2.095106E-16	2.613297E-18
5.257131E+03	2.097437E-16	2.634916E-18
5.267088E+03	2.100032E-16	2.656872E-18
5.277045E+03	2.102856E-16	2.679113E-18
5.287002E+03	2.105876E-16	2.701582E-18
5.296958E+03	2.109549E-16	2.724859E-18
5.306915E+03	2.112855E-16	2.747622E-18
5.316872E+03	2.116254E-16	2.770444E-18
5.326828E+03	2.119713E-16	2.793275E-18
5.336785E+03	2.123202E-16	2.816062E-18
5.346742E+03	2.126695E-16	2.838759E-18
5.356698E+03	2.130168E-16	2.861325E-18
5.366655E+03	2.133603E-16	2.883722E-18
5.376612E+03	2.136986E-16	2.905922E-18
5.386568E+03	2.139813E-16	2.927225E-18
5.396525E+03	2.143069E-16	2.948964E-18
5.406482E+03	2.146264E-16	2.970464E-18
5.416438E+03	2.149403E-16	2.991726E-18
5.426395E+03	2.152501E-16	3.012760E-18
5.436352E+03	2.155081E-16	3.032887E-18
5.446309E+03	2.158147E-16	3.053516E-18
5.456265E+03	2.161225E-16	3.073974E-18
5.466222E+03	2.163829E-16	3.093564E-18
5.476179E+03	2.166950E-16	3.113695E-18
5.486135E+03	2.169581E-16	3.132916E-18
5.496092E+03	2.172682E-16	3.152598E-18
5.506049E+03	2.175229E-16	3.171248E-18
5.516005E+03	2.178180E-16	3.190245E-18
5.525962E+03	2.180511E-16	3.208082E-18
5.535919E+03	2.183188E-16	3.226165E-18
5.545875E+03	2.185200E-16	3.242988E-18
5.555832E+03	2.187029E-16	3.259250E-18
5.565789E+03	2.189165E-16	3.275674E-18
5.575746E+03	2.190619E-16	3.290769E-18
5.585702E+03	2.191894E-16	3.305276E-18
5.595659E+03	2.193004E-16	3.319206E-18
5.605616E+03	2.193968E-16	3.332580E-18
5.615572E+03	2.195306E-16	3.346180E-18
5.625529E+03	2.196053E-16	3.358533E-18
5.635486E+03	2.196735E-16	3.370431E-18
5.645442E+03	2.197385E-16	3.381920E-18
5.655399E+03	2.198034E-16	3.393043E-18
5.665356E+03	2.198716E-16	3.403850E-18
5.675312E+03	2.199465E-16	3.414389E-18
5.685269E+03	2.199816E-16	3.423938E-18
5.695226E+03	2.200786E-16	3.434075E-18
5.705182E+03	2.201908E-16	3.444075E-18
5.715139E+03	2.203208E-16	3.453978E-18
5.725096E+03	2.204703E-16	3.463814E-18
5.735053E+03	2.205921E-16	3.472838E-18
5.745009E+03	2.207857E-16	3.482618E-18
5.754966E+03	2.210028E-16	3.492398E-18
5.764923E+03	2.211947E-16	3.501406E-18
5.774879E+03	2.214596E-16	3.511202E-18
5.784836E+03	2.216989E-16	3.520222E-18
5.794793E+03	2.220098E-16	3.530015E-18
5.804749E+03	2.222928E-16	3.539000E-18
5.814706E+03	2.225953E-16	3.547935E-18
5.824663E+03	2.229647E-16	3.557578E-18
5.834619E+03	2.233003E-16	3.566327E-18
5.844576E+03	2.236486E-16	3.574929E-18
5.854533E+03	2.240569E-16	3.584142E-18
5.864489E+03	2.244237E-16	3.592348E-18
5.874446E+03	2.247958E-16	3.600302E-18
5.884403E+03	2.251713E-16	3.607975E-18
5.894360E+03	2.255480E-16	3.615340E-18
5.904316E+03	2.259243E-16	3.622379E-18
5.914273E+03	2.262994E-16	3.629082E-18
5.924230E+03	2.266727E-16	3.635449E-18
5.934186E+03	2.270442E-16	3.641487E-18
5.944143E+03	2.274145E-16	3.647216E-18
5.954100E+03	2.277852E-16	3.652668E-18
5.964056E+03	2.281580E-16	3.657884E-18
5.974013E+03	2.285355E-16	3.662912E-18
5.983970E+03	2.288707E-16	3.667012E-18
5.993926E+03	2.292671E-16	3.671852E-18
6.003883E+03	2.296785E-16	3.676706E-18
6.013840E+03	2.300584E-16	3.680843E-18
6.023796E+03	2.305117E-16	3.685952E-18
6.033753E+03	2.309922E-16	3.691310E-18
6.043710E+03	2.314535E-16	3.696188E-18
6.053667E+03	2.320005E-16	3.702278E-18
6.063623E+03	2.325358E-16	3.708037E-18
6.073580E+03	2.331131E-16	3.714342E-18
6.083537E+03	2.337863E-16	3.722066E-18
6.093493E+03	2.344564E-16	3.729648E-18
6.103450E+03	2.351761E-16	3.737946E-18
6.113407E+03	2.359470E-16	3.747005E-18
6.123363E+03	2.368218E-16	3.757679E-18
6.133320E+03	2.376982E-16	3.768365E-18
6.143277E+03	2.386276E-16	3.779898E-18
6.153233E+03	2.396094E-16	3.792294E-18
6.163190E+03	2.406430E-16	3.805563E-18
6.173147E+03	2.417268E-16	3.819706E-18
6.183103E+03	2.428590E-16	3.834720E-18
6.193060E+03	2.440375E-16	3.850599E-18
6.203017E+03	2.452596E-16	3.867329E-18
6.212974E+03	2.464691E-16	3.884052E-18
6.222930E+03	2.477693E-16	3.902430E-18
6.232887E+03	2.491039E-16	3.921606E-18
6.242844E+03	2.504692E-16	3.941556E-18
6.252800E+03	2.518070E-16	3.961402E-18
6.262757E+03	2.532225E-16	3.982834E-18
6.272714E+03	2.546579E-16	4.004980E-18
6.282670E+03	2.560539E-16	4.026950E-18
6.292627E+03	2.575178E-16	4.050469E-18
6.302584E+03	2.589350E-16	4.073779E-18
6.312540E+03	2.603576E-16	4.097742E-18
6.322497E+03	2.618391E-16	4.123241E-18
6.332454E+03	2.632637E-16	4.148500E-18
6.342411E+03	2.646847E-16	4.174403E-18
6.352367E+03	2.661566E-16	4.201856E-18
6.362324E+03	2.675618E-16	4.229052E-18
6.372281E+03	2.689547E-16	4.256891E-18
6.382237E+03	2.703317E-16	4.285366E-18
6.392194E+03	2.716894E-16	4.314468E-18
6.402151E+03	2.730239E-16	4.344184E-18
6.412107E+03	2.743309E-16	4.374488E-18
6.422064E+03	2.756057E-16	4.405349E-18
6.432021E+03	2.768429E-16	4.436728E-18
6.441977E+03	2.780365E-16	4.468569E-18
6.451934E+03	2.791800E-16	4.500805E-18
6.461891E+03	2.802658E-16	4.533354E-18
6.471847E+03	2.812245E-16	4.565123E-18
6.481804E+03	2.821667E-16	4.597920E-18
6.491761E+03	2.830196E-16	4.630547E-18
6.501718E+03	2.837064E-16	4.661717E-18
6.511674E+03	2.843305E-16	4.693087E-18
6.521631E+03	2.848085E-16	4.723249E-18
6.531588E+03	2.850552E-16	4.750729E-18
6.541544E+03	2.851075E-16	4.776068E-18
6.551501E+03	2.850035E-16	4.799836E-18
6.561458E+03	2.846004E-16	4.819545E-18
6.571414E+03	2.840034E-16	4.836875E-18
6.581371E+03	2.830781E-16	4.849437E-18
6.591328E+03	2.818782E-16	4.858020E-18
6.601284E+03	2.804016E-16	4.862467E-18
6.611241E+03	2.787112E-16	4.863748E-18
6.621198E+03	2.766951E-16	4.859786E-18
6.631154E+03	2.744268E-16	4.851724E-18
6.641111E+03	2.719234E-16	4.839738E-18
6.651068E+03	2.692064E-16	4.824080E-18
6.661025E+03	2.662997E-16	4.805057E-18
6.670981E+03	2.632301E-16	4.783038E-18
6.680938E+03	2.600254E-16	4.758424E-18
6.690895E+03	2.567147E-16	4.731652E-18
6.700851E+03	2.532729E-16	4.702165E-18
6.710808E+03	2.498382E-16	4.672454E-18
6.720765E+03	2.463836E-16	4.641966E-18
6.730721E+03	2.429358E-16	4.611158E-18
6.740678E+03	2.394686E-16	4.579489E-18
6.750635E+03	2.361090E-16	4.549360E-18
6.760591E+03	2.327763E-16	4.519211E-18
6.770548E+03	2.295906E-16	4.491369E-18
6.780505E+03	2.264700E-16	4.464250E-18
6.790461E+03	2.235280E-16	4.440104E-18
6.800418E+03	2.206810E-16	4.417312E-18
6.810375E+03	2.180362E-16	4.398049E-18
6.820332E+03	2.155092E-16	4.380666E-18
6.830288E+03	2.131553E-16	4.366327E-18
6.840245E+03	2.110267E-16	4.356168E-18
6.850202E+03	2.090372E-16	4.348482E-18
6.860158E+03	2.072369E-16	4.344363E-18
6.870115E+03	2.056281E-16	4.343937E-18
6.880072E+03	2.042129E-16	4.347321E-18
6.890028E+03	2.029919E-16	4.354608E-18
6.899985E+03	2.019650E-16	4.365876E-18
6.909942E+03	2.011311E-16	4.381185E-18
6.919898E+03	2.004889E-16	4.400587E-18
6.929855E+03	2.000357E-16	4.424109E-18
6.939812E+03	1.997686E-16	4.451772E-18
6.949769E+03	1.996842E-16	4.483581E-18
6.959725E+03	1.997785E-16	4.519527E-18
6.969682E+03	2.000468E-16	4.559589E-18
6.979639E+03	2.004410E-16	4.602741E-18
6.989595E+03	2.010419E-16	4.650912E-18
6.999552E+03	2.018007E-16	4.703059E-18
7.009509E+03	2.026674E-16	4.758086E-18
7.019465E+03	2.037229E-16	4.817953E-18
7.029422E+03	2.048723E-16	4.880495E-18
7.039379E+03	2.061969E-16	4.947703E-18
7.049335E+03	2.076002E-16	5.017331E-18
7.059292E+03	2.091641E-16	5.091406E-18
7.069249E+03	2.107903E-16	5.167599E-18
7.079205E+03	2.125154E-16	5.246840E-18
7.089162E+03	2.143771E-16	5.330113E-18
7.099119E+03	2.162741E-16	5.414949E-18
7.109076E+03	2.182433E-16	5.502291E-18
7.119032E+03	2.202752E-16	5.591931E-18
7.128989E+03	2.224084E-16	5.684884E-18
7.138946E+03	2.245367E-16	5.778466E-18
7.148902E+03	2.266977E-16	5.873645E-18
7.158859E+03	2.288808E-16	5.970155E-18
7.168816E+03	2.310752E-16	6.067721E-18
7.178772E+03	2.332699E-16	6.166052E-18
7.188729E+03	2.354535E-16	6.264843E-18
7.198686E+03	2.376148E-16	6.363783E-18
7.208642E+03	2.397424E-16	6.462550E-18
7.218599E+03	2.418249E-16	6.560810E-18
7.228556E+03	2.437980E-16	6.656780E-18
7.238512E+03	2.457562E-16	6.752999E-18
7.248469E+03	2.476364E-16	6.847709E-18
7.258426E+03	2.494281E-16	6.940574E-18
7.268383E+03	2.510670E-16	7.029742E-18
7.278339E+03	2.526533E-16	7.117953E-18
7.288296E+03	2.541241E-16	7.203398E-18
7.298253E+03	2.554164E-16	7.284211E-18
7.308209E+03	2.566351E-16	7.363312E-18
7.318166E+03	2.576630E-16	7.437271E-18
7.328123E+03	2.586082E-16	7.509133E-18
7.338079E+03	2.593546E-16	7.575457E-18
7.348036E+03	2.600137E-16	7.639416E-18
7.357993E+03	2.604706E-16	7.697566E-18
7.367949E+03	2.607822E-16	7.751496E-18
7.377906E+03	2.610071E-16	7.802881E-18
7.387863E+03	2.610327E-16	7.848287E-18
7.397819E+03	2.609193E-16	7.889436E-18
7.407776E+03	2.606705E-16	7.926367E-18
7.417733E+03	2.602907E-16	7.959144E-18
7.427690E+03	2.598420E-16	7.989612E-18
7.437646E+03	2.592156E-16	8.014367E-18
7.447603E+03	2.584746E-16	8.035283E-18
7.457560E+03	2.576252E-16	8.052497E-18
7.467516E+03	2.566738E-16	8.066158E-18
7.477473E+03	2.556273E-16	8.076429E-18
7.487430E+03	2.544924E-16	8.083477E-18
7.497386E+03	2.532760E-16	8.087479E-18
7.507343E+03	2.519849E-16	8.088613E-18
7.517300E+03	2.506258E-16	8.087062E-18
7.527256E+03	2.491503E-16	8.081221E-18
7.537213E+03	2.476757E-16	8.074859E-18
7.547170E+03	2.461528E-16	8.066367E-18
7.557126E+03	2.445880E-16	8.055929E-18
7.567083E+03	2.429330E-16	8.041933E-18
7.577040E+03	2.413021E-16	8.028137E-18
7.586997E+03	2.396464E-16	8.012918E-18
7.596953E+03	2.379180E-16	7.994658E-18
7.606910E+03	2.362284E-16	7.977089E-18
7.616867E+03	2.345287E-16	7.958573E-18
7.626823E+03	2.327714E-16	7.937489E-18
7.636780E+03	2.310649E-16	7.917524E-18
7.646737E+03	2.293093E-16	7.895265E-18
7.656693E+03	2.276111E-16	7.874376E-18
7.666650E+03	2.258714E-16	7.851447E-18
7.676607E+03	2.241442E-16	7.828354E-18
7.686563E+03	2.224824E-16	7.806953E-18
7.696520E+03	2.207881E-16	7.783834E-18
7.706477E+03	2.191138E-16	7.760838E-18
7.716434E+03	2.175106E-16	7.739797E-18
7.726390E+03	2.158818E-16	7.717294E-18
