#wls	flux	fluxerr
1.600000E+03	1.284630E-16	9.437237E-17
1.640000E+03	1.299101E-16	9.413142E-17
1.680000E+03	1.313934E-16	9.385435E-17
1.720000E+03	1.328571E-16	9.349938E-17
1.760000E+03	1.343199E-16	9.307865E-17
1.800000E+03	1.357747E-16	9.258615E-17
1.840000E+03	1.372404E-16	9.203347E-17
1.880000E+03	1.387094E-16	9.141408E-17
1.920000E+03	1.401736E-16	9.072142E-17
1.960000E+03	1.416511E-16	8.996605E-17
2.000000E+03	1.431329E-16	8.914080E-17
2.040000E+03	1.446089E-16	8.823853E-17
2.080000E+03	1.460961E-16	8.726864E-17
2.120000E+03	1.475834E-16	8.622345E-17
2.160000E+03	1.490864E-16	8.511131E-17
2.200000E+03	1.505650E-16	8.390857E-17
2.240000E+03	1.520333E-16	8.262362E-17
2.280000E+03	1.534773E-16	8.124923E-17
2.320000E+03	1.548823E-16	7.977887E-17
2.360000E+03	1.562334E-16	7.820690E-17
2.400000E+03	1.574881E-16	7.651542E-17
2.440000E+03	1.586593E-16	7.471548E-17
2.480000E+03	1.597599E-16	7.281771E-17
2.520000E+03	1.607223E-16	7.079672E-17
2.560000E+03	1.615352E-16	6.865572E-17
2.600000E+03	1.622421E-16	6.642132E-17
2.640000E+03	1.627823E-16	6.407690E-17
2.680000E+03	1.631773E-16	6.164104E-17
2.720000E+03	1.634250E-16	5.912291E-17
2.760000E+03	1.635269E-16	5.653336E-17
2.800000E+03	1.634880E-16	5.388482E-17
2.840000E+03	1.633176E-16	5.119097E-17
2.880000E+03	1.630517E-16	4.847341E-17
2.920000E+03	1.627060E-16	4.574597E-17
2.960000E+03	1.623659E-16	4.304042E-17
3.000000E+03	1.620493E-16	4.036678E-17
3.010000E+03	1.619909E-16	3.970814E-17
3.020000E+03	1.619222E-16	3.904894E-17
3.030000E+03	1.618859E-16	3.839956E-17
3.040000E+03	1.618400E-16	3.774990E-17
3.050000E+03	1.618060E-16	3.710513E-17
3.060000E+03	1.618047E-16	3.646994E-17
3.070000E+03	1.617949E-16	3.583493E-17
3.080000E+03	1.618181E-16	3.520937E-17
3.090000E+03	1.618336E-16	3.458432E-17
3.100000E+03	1.618823E-16	3.396859E-17
3.110000E+03	1.619641E-16	3.336194E-17
3.120000E+03	1.620392E-16	3.275608E-17
3.130000E+03	1.621477E-16	3.215921E-17
3.140000E+03	1.622895E-16	3.157112E-17
3.150000E+03	1.624450E-16	3.098786E-17
3.160000E+03	1.626145E-16	3.040953E-17
3.170000E+03	1.628369E-16	2.984329E-17
3.180000E+03	1.630733E-16	2.928180E-17
3.190000E+03	1.633431E-16	2.872854E-17
3.200000E+03	1.636272E-16	2.818010E-17
3.210000E+03	1.639636E-16	2.764297E-17
3.220000E+03	1.643332E-16	2.711370E-17
3.230000E+03	1.647358E-16	2.659219E-17
3.240000E+03	1.651898E-16	2.608132E-17
3.250000E+03	1.656764E-16	2.557796E-17
3.260000E+03	1.661955E-16	2.508210E-17
3.270000E+03	1.667652E-16	2.459645E-17
3.280000E+03	1.673670E-16	2.411821E-17
3.290000E+03	1.680365E-16	2.365251E-17
3.300000E+03	1.687374E-16	2.319413E-17
3.310000E+03	1.694873E-16	2.274559E-17
3.320000E+03	1.703033E-16	2.230917E-17
3.330000E+03	1.711495E-16	2.188022E-17
3.340000E+03	1.720782E-16	2.146551E-17
3.350000E+03	1.730362E-16	2.105846E-17
3.360000E+03	1.740751E-16	2.066555E-17
3.370000E+03	1.751595E-16	2.028266E-17
3.380000E+03	1.763061E-16	1.991200E-17
3.390000E+03	1.775143E-16	1.955370E-17
3.400000E+03	1.788001E-16	1.920977E-17
3.410000E+03	1.801460E-16	1.887855E-17
3.420000E+03	1.815514E-16	1.856034E-17
3.430000E+03	1.830326E-16	1.825715E-17
3.440000E+03	1.845891E-16	1.796922E-17
3.450000E+03	1.862203E-16	1.769683E-17
3.460000E+03	1.879262E-16	1.744031E-17
3.470000E+03	1.897229E-16	1.720146E-17
3.480000E+03	1.915943E-16	1.697910E-17
3.490000E+03	1.935571E-16	1.677498E-17
3.500000E+03	1.955957E-16	1.658799E-17
3.510000E+03	1.977434E-16	1.642114E-17
3.520000E+03	1.999693E-16	1.627195E-17
3.530000E+03	2.023071E-16	1.614326E-17
3.540000E+03	2.047587E-16	1.603514E-17
3.550000E+03	2.073106E-16	1.594640E-17
3.560000E+03	2.099816E-16	1.587832E-17
3.570000E+03	2.127592E-16	1.582966E-17
3.580000E+03	2.156784E-16	1.580266E-17
3.590000E+03	2.187433E-16	1.579705E-17
3.600000E+03	2.219277E-16	1.581033E-17
3.610000E+03	2.252831E-16	1.584547E-17
3.620000E+03	2.287845E-16	1.589981E-17
3.630000E+03	2.324537E-16	1.597396E-17
3.640000E+03	2.362973E-16	1.606733E-17
3.650000E+03	2.403229E-16	1.617930E-17
3.660000E+03	2.445535E-16	1.631024E-17
3.670000E+03	2.489822E-16	1.645841E-17
3.680000E+03	2.536332E-16	1.662409E-17
3.690000E+03	2.585155E-16	1.680651E-17
3.700000E+03	2.636234E-16	1.700389E-17
3.710000E+03	2.689973E-16	1.721739E-17
3.720000E+03	2.746166E-16	1.744421E-17
3.730000E+03	2.805217E-16	1.768544E-17
3.740000E+03	2.867073E-16	1.793922E-17
3.750000E+03	2.931830E-16	1.820463E-17
3.760000E+03	2.999731E-16	1.848168E-17
3.770000E+03	3.070862E-16	1.876937E-17
3.780000E+03	3.145142E-16	1.906573E-17
3.790000E+03	3.222788E-16	1.937062E-17
3.800000E+03	3.303847E-16	1.968290E-17
3.810000E+03	3.388347E-16	2.000138E-17
3.820000E+03	3.476294E-16	2.032481E-17
3.830000E+03	3.567668E-16	2.065186E-17
3.840000E+03	3.662257E-16	2.098023E-17
3.850000E+03	3.760296E-16	2.131028E-17
3.860000E+03	3.861501E-16	2.163955E-17
3.870000E+03	3.965708E-16	2.196645E-17
3.880000E+03	4.072707E-16	2.228931E-17
3.890000E+03	4.182238E-16	2.260641E-17
3.900000E+03	4.293993E-16	2.291599E-17
3.910000E+03	4.407612E-16	2.321629E-17
3.920000E+03	4.522685E-16	2.350553E-17
3.930000E+03	4.638919E-16	2.378281E-17
3.940000E+03	4.755469E-16	2.404469E-17
3.950000E+03	4.871780E-16	2.428954E-17
3.960000E+03	4.987601E-16	2.451752E-17
3.970000E+03	5.101969E-16	2.472547E-17
3.980000E+03	5.214411E-16	2.491293E-17
3.990000E+03	5.324098E-16	2.507787E-17
4.000000E+03	5.430544E-16	2.522007E-17
4.010000E+03	5.532931E-16	2.533780E-17
4.020000E+03	5.630640E-16	2.543031E-17
4.030000E+03	5.722919E-16	2.549619E-17
4.040000E+03	5.809584E-16	2.553645E-17
4.050000E+03	5.889666E-16	2.554844E-17
4.060000E+03	5.963292E-16	2.553408E-17
4.070000E+03	6.029665E-16	2.549102E-17
4.080000E+03	6.088757E-16	2.541993E-17
4.090000E+03	6.140472E-16	2.532087E-17
4.100000E+03	6.184814E-16	2.519405E-17
4.110000E+03	6.221567E-16	2.503851E-17
4.120000E+03	6.251099E-16	2.485550E-17
4.130000E+03	6.273705E-16	2.464571E-17
4.140000E+03	6.289761E-16	2.441007E-17
4.150000E+03	6.299418E-16	2.414848E-17
4.160000E+03	6.303350E-16	2.386288E-17
4.170000E+03	6.301981E-16	2.355421E-17
4.180000E+03	6.295932E-16	2.322418E-17
4.190000E+03	6.285710E-16	2.287417E-17
4.200000E+03	6.272124E-16	2.250676E-17
4.210000E+03	6.255712E-16	2.212371E-17
4.220000E+03	6.237024E-16	2.172701E-17
4.230000E+03	6.216739E-16	2.131934E-17
4.240000E+03	6.195521E-16	2.090360E-17
4.250000E+03	6.173891E-16	2.048250E-17
4.260000E+03	6.152358E-16	2.005908E-17
4.270000E+03	6.131648E-16	1.963747E-17
4.280000E+03	6.112103E-16	1.922096E-17
4.290000E+03	6.094395E-16	1.881437E-17
4.300000E+03	6.078817E-16	1.842179E-17
4.310000E+03	6.065979E-16	1.804879E-17
4.320000E+03	6.056124E-16	1.770027E-17
4.330000E+03	6.049798E-16	1.738244E-17
4.340000E+03	6.047185E-16	1.710072E-17
4.350000E+03	6.048767E-16	1.686143E-17
4.360000E+03	6.054670E-16	1.666965E-17
4.370000E+03	6.065310E-16	1.653058E-17
4.380000E+03	6.080870E-16	1.644756E-17
4.390000E+03	6.101515E-16	1.642214E-17
4.400000E+03	6.127496E-16	1.645404E-17
4.410000E+03	6.159044E-16	1.654086E-17
4.420000E+03	6.196258E-16	1.667813E-17
4.430000E+03	6.239190E-16	1.686010E-17
4.440000E+03	6.288030E-16	1.708075E-17
4.450000E+03	6.342699E-16	1.733317E-17
4.460000E+03	6.403038E-16	1.761028E-17
4.470000E+03	6.468893E-16	1.790533E-17
4.480000E+03	6.540110E-16	1.821195E-17
4.490000E+03	6.616138E-16	1.852306E-17
4.500000E+03	6.696607E-16	1.883251E-17
4.510000E+03	6.780937E-16	1.913394E-17
4.520000E+03	6.868339E-16	1.942073E-17
4.530000E+03	6.958111E-16	1.968685E-17
4.540000E+03	7.049152E-16	1.992543E-17
4.550000E+03	7.140669E-16	2.013080E-17
4.560000E+03	7.231502E-16	2.029657E-17
4.570000E+03	7.320434E-16	2.041661E-17
4.580000E+03	7.406522E-16	2.048596E-17
4.590000E+03	7.488416E-16	2.049904E-17
4.600000E+03	7.565092E-16	2.045182E-17
4.610000E+03	7.635472E-16	2.034081E-17
4.620000E+03	7.698449E-16	2.016332E-17
4.630000E+03	7.753118E-16	1.991816E-17
4.640000E+03	7.798892E-16	1.960610E-17
4.650000E+03	7.834818E-16	1.922822E-17
4.660000E+03	7.860506E-16	1.878846E-17
4.670000E+03	7.875735E-16	1.829267E-17
4.680000E+03	7.880170E-16	1.774810E-17
4.690000E+03	7.873971E-16	1.716491E-17
4.700000E+03	7.857299E-16	1.655499E-17
4.710000E+03	7.830620E-16	1.593259E-17
4.720000E+03	7.794599E-16	1.531381E-17
4.730000E+03	7.749997E-16	1.471596E-17
4.740000E+03	7.697948E-16	1.415733E-17
4.750000E+03	7.639373E-16	1.365498E-17
4.760000E+03	7.575805E-16	1.322489E-17
4.770000E+03	7.508614E-16	1.287902E-17
4.780000E+03	7.439265E-16	1.262441E-17
4.790000E+03	7.369463E-16	1.246267E-17
4.800000E+03	7.300841E-16	1.238951E-17
4.810000E+03	7.235105E-16	1.239600E-17
4.820000E+03	7.173902E-16	1.246999E-17
4.830000E+03	7.118703E-16	1.259774E-17
4.840000E+03	7.070855E-16	1.276562E-17
4.850000E+03	7.031712E-16	1.296152E-17
4.860000E+03	7.002356E-16	1.317498E-17
4.870000E+03	6.983492E-16	1.339723E-17
4.880000E+03	6.975747E-16	1.362168E-17
4.890000E+03	6.979492E-16	1.384341E-17
4.900000E+03	6.994818E-16	1.405892E-17
4.910000E+03	7.021445E-16	1.426574E-17
4.920000E+03	7.058797E-16	1.446240E-17
4.930000E+03	7.105988E-16	1.464824E-17
4.940000E+03	7.161987E-16	1.482368E-17
4.950000E+03	7.225306E-16	1.498939E-17
4.960000E+03	7.294093E-16	1.514629E-17
4.970000E+03	7.366413E-16	1.529580E-17
4.980000E+03	7.440065E-16	1.543908E-17
4.990000E+03	7.512838E-16	1.557697E-17
5.000000E+03	7.582460E-16	1.570948E-17
5.010000E+03	7.646821E-16	1.583585E-17
5.020000E+03	7.704128E-16	1.595467E-17
5.030000E+03	7.753031E-16	1.606407E-17
5.040000E+03	7.792801E-16	1.616223E-17
5.050000E+03	7.823198E-16	1.624733E-17
5.060000E+03	7.844540E-16	1.631796E-17
5.070000E+03	7.857558E-16	1.637319E-17
5.080000E+03	7.863638E-16	1.641331E-17
5.090000E+03	7.864178E-16	1.643872E-17
5.100000E+03	7.860805E-16	1.645049E-17
5.110000E+03	7.855247E-16	1.645017E-17
5.120000E+03	7.848889E-16	1.643887E-17
5.130000E+03	7.843380E-16	1.641854E-17
5.140000E+03	7.839740E-16	1.639010E-17
5.150000E+03	7.839016E-16	1.635480E-17
5.160000E+03	7.841874E-16	1.631322E-17
5.170000E+03	7.848947E-16	1.626595E-17
5.180000E+03	7.860534E-16	1.621294E-17
5.190000E+03	7.877049E-16	1.615443E-17
5.200000E+03	7.898468E-16	1.608998E-17
5.210000E+03	7.924938E-16	1.601979E-17
5.220000E+03	7.956376E-16	1.594396E-17
5.230000E+03	7.992895E-16	1.586337E-17
5.240000E+03	8.034218E-16	1.577844E-17
5.250000E+03	8.080263E-16	1.569024E-17
5.260000E+03	8.130712E-16	1.559948E-17
5.270000E+03	8.185427E-16	1.550721E-17
5.280000E+03	8.243847E-16	1.541355E-17
5.290000E+03	8.305489E-16	1.531861E-17
5.300000E+03	8.369872E-16	1.522222E-17
5.310000E+03	8.436349E-16	1.512362E-17
5.320000E+03	8.504126E-16	1.502149E-17
5.330000E+03	8.572536E-16	1.491443E-17
5.340000E+03	8.640717E-16	1.480057E-17
5.350000E+03	8.707972E-16	1.467828E-17
5.360000E+03	8.773437E-16	1.454579E-17
5.370000E+03	8.836349E-16	1.440186E-17
5.380000E+03	8.895963E-16	1.424575E-17
5.390000E+03	8.951641E-16	1.407761E-17
5.400000E+03	9.002566E-16	1.389828E-17
5.410000E+03	9.047913E-16	1.370988E-17
5.420000E+03	9.087109E-16	1.351642E-17
5.430000E+03	9.119263E-16	1.332310E-17
5.440000E+03	9.143423E-16	1.313669E-17
5.450000E+03	9.158837E-16	1.296554E-17
5.460000E+03	9.164291E-16	1.281807E-17
5.470000E+03	9.158753E-16	1.270261E-17
5.480000E+03	9.140917E-16	1.262552E-17
5.490000E+03	9.109698E-16	1.259062E-17
5.500000E+03	9.063649E-16	1.259730E-17
5.510000E+03	9.001778E-16	1.264135E-17
5.520000E+03	8.923122E-16	1.271470E-17
5.530000E+03	8.827060E-16	1.280692E-17
5.540000E+03	8.713359E-16	1.290648E-17
5.550000E+03	8.582637E-16	1.300271E-17
5.560000E+03	8.435823E-16	1.308595E-17
5.570000E+03	8.274710E-16	1.314921E-17
5.580000E+03	8.101727E-16	1.318836E-17
5.590000E+03	7.919937E-16	1.320243E-17
5.600000E+03	7.732667E-16	1.319307E-17
5.610000E+03	7.543615E-16	1.316439E-17
5.620000E+03	7.356616E-16	1.312215E-17
5.630000E+03	7.175510E-16	1.307298E-17
5.640000E+03	7.004010E-16	1.302368E-17
5.650000E+03	6.845608E-16	1.298058E-17
5.660000E+03	6.703494E-16	1.294921E-17
5.670000E+03	6.580455E-16	1.293403E-17
5.680000E+03	6.479112E-16	1.293894E-17
5.690000E+03	6.401468E-16	1.296651E-17
5.700000E+03	6.349375E-16	1.301890E-17
5.710000E+03	6.324302E-16	1.309740E-17
5.720000E+03	6.327361E-16	1.320255E-17
5.730000E+03	6.359454E-16	1.333439E-17
5.740000E+03	6.421288E-16	1.349260E-17
5.750000E+03	6.513182E-16	1.367614E-17
5.760000E+03	6.635220E-16	1.388372E-17
5.770000E+03	6.787200E-16	1.411387E-17
5.780000E+03	6.968291E-16	1.436445E-17
5.790000E+03	7.177259E-16	1.463339E-17
5.800000E+03	7.412371E-16	1.491868E-17
5.810000E+03	7.670782E-16	1.521730E-17
5.820000E+03	7.949210E-16	1.552651E-17
5.830000E+03	8.242978E-16	1.584171E-17
5.840000E+03	8.546753E-16	1.615759E-17
5.850000E+03	8.854257E-16	1.646732E-17
5.860000E+03	9.158464E-16	1.676270E-17
5.870000E+03	9.452135E-16	1.703502E-17
5.880000E+03	9.727907E-16	1.727518E-17
5.890000E+03	9.978548E-16	1.747418E-17
5.900000E+03	1.019780E-15	1.762458E-17
5.910000E+03	1.038036E-15	1.772037E-17
5.920000E+03	1.052219E-15	1.775747E-17
5.930000E+03	1.062060E-15	1.773352E-17
5.940000E+03	1.067483E-15	1.764890E-17
5.950000E+03	1.068541E-15	1.750540E-17
5.960000E+03	1.065429E-15	1.730651E-17
5.970000E+03	1.058487E-15	1.705748E-17
5.980000E+03	1.048144E-15	1.676452E-17
5.990000E+03	1.034888E-15	1.643436E-17
6.000000E+03	1.019246E-15	1.607399E-17
6.010000E+03	1.001789E-15	1.569068E-17
6.020000E+03	9.830450E-16	1.529070E-17
6.030000E+03	9.635197E-16	1.487992E-17
6.040000E+03	9.436644E-16	1.446349E-17
6.050000E+03	9.239024E-16	1.404640E-17
6.060000E+03	9.045612E-16	1.363241E-17
6.070000E+03	8.859354E-16	1.322489E-17
6.080000E+03	8.682620E-16	1.282631E-17
6.090000E+03	8.517004E-16	1.243804E-17
6.100000E+03	8.363979E-16	1.206135E-17
6.110000E+03	8.224451E-16	1.169678E-17
6.120000E+03	8.098993E-16	1.134442E-17
6.130000E+03	7.987973E-16	1.100416E-17
6.140000E+03	7.891443E-16	1.067560E-17
6.150000E+03	7.809257E-16	1.035865E-17
6.160000E+03	7.741323E-16	1.005444E-17
6.170000E+03	7.687091E-16	9.765182E-18
6.180000E+03	7.646105E-16	9.495334E-18
6.190000E+03	7.617558E-16	9.251189E-18
6.200000E+03	7.600597E-16	9.041034E-18
6.210000E+03	7.594174E-16	8.874210E-18
6.220000E+03	7.596970E-16	8.759779E-18
6.230000E+03	7.607922E-16	8.705544E-18
6.240000E+03	7.625566E-16	8.715711E-18
6.250000E+03	7.648508E-16	8.790218E-18
6.260000E+03	7.675233E-16	8.923957E-18
6.270000E+03	7.704367E-16	9.107352E-18
6.280000E+03	7.734494E-16	9.327137E-18
6.290000E+03	7.764196E-16	9.567847E-18
6.300000E+03	7.792245E-16	9.813698E-18
6.310000E+03	7.817636E-16	1.005013E-17
6.320000E+03	7.839386E-16	1.026463E-17
6.330000E+03	7.856856E-16	1.044776E-17
6.340000E+03	7.869533E-16	1.059310E-17
6.350000E+03	7.877022E-16	1.069720E-17
6.360000E+03	7.879354E-16	1.075966E-17
6.370000E+03	7.876410E-16	1.078185E-17
6.380000E+03	7.868525E-16	1.076716E-17
6.390000E+03	7.855905E-16	1.071943E-17
6.400000E+03	7.838909E-16	1.064278E-17
6.410000E+03	7.817941E-16	1.054117E-17
6.420000E+03	7.793511E-16	1.041871E-17
6.430000E+03	7.766068E-16	1.027996E-17
6.440000E+03	7.736083E-16	1.013050E-17
6.450000E+03	7.704055E-16	9.977245E-18
6.460000E+03	7.670618E-16	9.828508E-18
6.470000E+03	7.636485E-16	9.693604E-18
6.480000E+03	7.602398E-16	9.582154E-18
6.490000E+03	7.569388E-16	9.503567E-18
6.500000E+03	7.538378E-16	9.465562E-18
6.510000E+03	7.510548E-16	9.473760E-18
6.520000E+03	7.486878E-16	9.530448E-18
6.530000E+03	7.468534E-16	9.634778E-18
6.540000E+03	7.456371E-16	9.782336E-18
6.550000E+03	7.451134E-16	9.966079E-18
6.560000E+03	7.453214E-16	1.017704E-17
6.570000E+03	7.462450E-16	1.040523E-17
6.580000E+03	7.478507E-16	1.064132E-17
6.590000E+03	7.500492E-16	1.087695E-17
6.600000E+03	7.527147E-16	1.110556E-17
6.610000E+03	7.556967E-16	1.132278E-17
6.620000E+03	7.588186E-16	1.152623E-17
6.630000E+03	7.618748E-16	1.171504E-17
6.640000E+03	7.646477E-16	1.188944E-17
6.650000E+03	7.669173E-16	1.205008E-17
6.660000E+03	7.684906E-16	1.219775E-17
6.670000E+03	7.691641E-16	1.233213E-17
6.680000E+03	7.688032E-16	1.245259E-17
6.690000E+03	7.672912E-16	1.255737E-17
6.700000E+03	7.645763E-16	1.264452E-17
6.710000E+03	7.606475E-16	1.271199E-17
6.720000E+03	7.555408E-16	1.275831E-17
6.730000E+03	7.493420E-16	1.278324E-17
6.740000E+03	7.421475E-16	1.278751E-17
6.750000E+03	7.341163E-16	1.277398E-17
6.760000E+03	7.254044E-16	1.274649E-17
6.770000E+03	7.162003E-16	1.271026E-17
6.780000E+03	7.066867E-16	1.267086E-17
6.790000E+03	6.970674E-16	1.263423E-17
6.800000E+03	6.875391E-16	1.260577E-17
6.810000E+03	6.782869E-16	1.258984E-17
6.820000E+03	6.695052E-16	1.258993E-17
6.830000E+03	6.613778E-16	1.260820E-17
6.840000E+03	6.540456E-16	1.264483E-17
6.850000E+03	6.476804E-16	1.269965E-17
6.860000E+03	6.424074E-16	1.277099E-17
6.870000E+03	6.383357E-16	1.285673E-17
6.880000E+03	6.355799E-16	1.295525E-17
6.890000E+03	6.342083E-16	1.306474E-17
6.900000E+03	6.342936E-16	1.318443E-17
6.910000E+03	6.358818E-16	1.331400E-17
6.920000E+03	6.389953E-16	1.345345E-17
6.930000E+03	6.436281E-16	1.360281E-17
6.940000E+03	6.497320E-16	1.376159E-17
6.950000E+03	6.572341E-16	1.392901E-17
6.960000E+03	6.660121E-16	1.410339E-17
6.970000E+03	6.758941E-16	1.428223E-17
6.980000E+03	6.866852E-16	1.446287E-17
6.990000E+03	6.981492E-16	1.464215E-17
7.000000E+03	7.100072E-16	1.481640E-17
7.010000E+03	7.220070E-16	1.498281E-17
7.020000E+03	7.338433E-16	1.513763E-17
7.030000E+03	7.452659E-16	1.527820E-17
7.040000E+03	7.560161E-16	1.540147E-17
7.050000E+03	7.659099E-16	1.550561E-17
7.060000E+03	7.747763E-16	1.558872E-17
7.070000E+03	7.825277E-16	1.565027E-17
7.080000E+03	7.891266E-16	1.569052E-17
7.090000E+03	7.945845E-16	1.571048E-17
7.100000E+03	7.989775E-16	1.571226E-17
7.110000E+03	8.024399E-16	1.569889E-17
7.120000E+03	8.051169E-16	1.567334E-17
7.130000E+03	8.072210E-16	1.563964E-17
7.140000E+03	8.089319E-16	1.560102E-17
7.150000E+03	8.104905E-16	1.556194E-17
7.160000E+03	8.120678E-16	1.552562E-17
7.170000E+03	8.138616E-16	1.549600E-17
7.180000E+03	8.159974E-16	1.547581E-17
7.190000E+03	8.185890E-16	1.546767E-17
7.200000E+03	8.216830E-16	1.547280E-17
7.210000E+03	8.252950E-16	1.549163E-17
7.220000E+03	8.293578E-16	1.552272E-17
7.230000E+03	8.337950E-16	1.556420E-17
7.240000E+03	8.384342E-16	1.561220E-17
7.250000E+03	8.431260E-16	1.566325E-17
7.260000E+03	8.476294E-16	1.571212E-17
7.270000E+03	8.517240E-16	1.575396E-17
7.280000E+03	8.551584E-16	1.578325E-17
7.290000E+03	8.577134E-16	1.579502E-17
7.300000E+03	8.591284E-16	1.578350E-17
7.310000E+03	8.592079E-16	1.574411E-17
7.320000E+03	8.577790E-16	1.567274E-17
7.330000E+03	8.547109E-16	1.556622E-17
7.340000E+03	8.499227E-16	1.542244E-17
7.350000E+03	8.433773E-16	1.524032E-17
7.360000E+03	8.351049E-16	1.502020E-17
7.370000E+03	8.251902E-16	1.476367E-17
7.380000E+03	8.137670E-16	1.447351E-17
7.390000E+03	8.010096E-16	1.415363E-17
7.400000E+03	7.871326E-16	1.380901E-17
7.410000E+03	7.723409E-16	1.344470E-17
7.420000E+03	7.568785E-16	1.306644E-17
7.430000E+03	7.409791E-16	1.267963E-17
7.440000E+03	7.248581E-16	1.228902E-17
7.450000E+03	7.087426E-16	1.189918E-17
7.460000E+03	6.928024E-16	1.151344E-17
7.470000E+03	6.772116E-16	1.113516E-17
7.480000E+03	6.621029E-16	1.076726E-17
7.490000E+03	6.476114E-16	1.041314E-17
7.500000E+03	6.338101E-16	1.007575E-17
7.510000E+03	6.208020E-16	9.759101E-18
7.520000E+03	6.086335E-16	9.466794E-18
7.530000E+03	5.973607E-16	9.203001E-18
7.540000E+03	5.870190E-16	8.971812E-18
7.550000E+03	5.776263E-16	8.776961E-18
7.560000E+03	5.692059E-16	8.621753E-18
7.570000E+03	5.617729E-16	8.508391E-18
7.580000E+03	5.553141E-16	8.437385E-18
7.590000E+03	5.498327E-16	8.408218E-18
7.600000E+03	5.453196E-16	8.419142E-18
7.610000E+03	5.417686E-16	8.467639E-18
7.620000E+03	5.391554E-16	8.550301E-18
7.630000E+03	5.374585E-16	8.663311E-18
7.640000E+03	5.366580E-16	8.802603E-18
7.650000E+03	5.367141E-16	8.963699E-18
7.660000E+03	5.375936E-16	9.142337E-18
7.670000E+03	5.392478E-16	9.334274E-18
7.680000E+03	5.416184E-16	9.535521E-18
7.690000E+03	5.446296E-16	9.742282E-18
7.700000E+03	5.482154E-16	9.951494E-18
7.710000E+03	5.522777E-16	1.016008E-17
7.720000E+03	5.567142E-16	1.036544E-17
7.730000E+03	5.614128E-16	1.056532E-17
7.740000E+03	5.662531E-16	1.075774E-17
7.750000E+03	5.711093E-16	1.094098E-17
7.760000E+03	5.758612E-16	1.111353E-17
