#wls	flux	fluxerr
1.600000E+03	1.208107E-16	8.912519E-17
1.640000E+03	1.222141E-16	8.894607E-17
1.680000E+03	1.236285E-16	8.871608E-17
1.720000E+03	1.250244E-16	8.841270E-17
1.760000E+03	1.264200E-16	8.804790E-17
1.800000E+03	1.278093E-16	8.761624E-17
1.840000E+03	1.292109E-16	8.712923E-17
1.880000E+03	1.305929E-16	8.656419E-17
1.920000E+03	1.319734E-16	8.593240E-17
1.960000E+03	1.333450E-16	8.522806E-17
2.000000E+03	1.347257E-16	8.446177E-17
2.040000E+03	1.361076E-16	8.362734E-17
2.080000E+03	1.374557E-16	8.270285E-17
2.120000E+03	1.388135E-16	8.171438E-17
2.160000E+03	1.401453E-16	8.064032E-17
2.200000E+03	1.414677E-16	7.949049E-17
2.240000E+03	1.427440E-16	7.824472E-17
2.280000E+03	1.440170E-16	7.692755E-17
2.320000E+03	1.452230E-16	7.550585E-17
2.360000E+03	1.464048E-16	7.400417E-17
2.400000E+03	1.475253E-16	7.240572E-17
2.440000E+03	1.485748E-16	7.070902E-17
2.480000E+03	1.495702E-16	6.892585E-17
2.520000E+03	1.505028E-16	6.705577E-17
2.560000E+03	1.513648E-16	6.509965E-17
2.600000E+03	1.521498E-16	6.305971E-17
2.640000E+03	1.528531E-16	6.093959E-17
2.680000E+03	1.534966E-16	5.875384E-17
2.720000E+03	1.540783E-16	5.650733E-17
2.760000E+03	1.545986E-16	5.420619E-17
2.800000E+03	1.551076E-16	5.187369E-17
2.840000E+03	1.556079E-16	4.951524E-17
2.880000E+03	1.561041E-16	4.713730E-17
2.920000E+03	1.566708E-16	4.476663E-17
2.960000E+03	1.573351E-16	4.241318E-17
3.000000E+03	1.581457E-16	4.009161E-17
3.010000E+03	1.583805E-16	3.951860E-17
3.020000E+03	1.586259E-16	3.894800E-17
3.030000E+03	1.588822E-16	3.837984E-17
3.040000E+03	1.591493E-16	3.781417E-17
3.050000E+03	1.594273E-16	3.725104E-17
3.060000E+03	1.597373E-16	3.669530E-17
3.070000E+03	1.600581E-16	3.614201E-17
3.080000E+03	1.603899E-16	3.559124E-17
3.090000E+03	1.607533E-16	3.504755E-17
3.100000E+03	1.611276E-16	3.450636E-17
3.110000E+03	1.615332E-16	3.397204E-17
3.120000E+03	1.619497E-16	3.344023E-17
3.130000E+03	1.623973E-16	3.291514E-17
3.140000E+03	1.628756E-16	3.239663E-17
3.150000E+03	1.633647E-16	3.188065E-17
3.160000E+03	1.639042E-16	3.137499E-17
3.170000E+03	1.644540E-16	3.087185E-17
3.180000E+03	1.650340E-16	3.037505E-17
3.190000E+03	1.656439E-16	2.988454E-17
3.200000E+03	1.662834E-16	2.940029E-17
3.210000E+03	1.669717E-16	2.892564E-17
3.220000E+03	1.676889E-16	2.845709E-17
3.230000E+03	1.684349E-16	2.799470E-17
3.240000E+03	1.692095E-16	2.753854E-17
3.250000E+03	1.700313E-16	2.709172E-17
3.260000E+03	1.708998E-16	2.665416E-17
3.270000E+03	1.717958E-16	2.622291E-17
3.280000E+03	1.727378E-16	2.580098E-17
3.290000E+03	1.737252E-16	2.538835E-17
3.300000E+03	1.747577E-16	2.498508E-17
3.310000E+03	1.758347E-16	2.459127E-17
3.320000E+03	1.769558E-16	2.420703E-17
3.330000E+03	1.781389E-16	2.383498E-17
3.340000E+03	1.793471E-16	2.347038E-17
3.350000E+03	1.806344E-16	2.312059E-17
3.360000E+03	1.819641E-16	2.278103E-17
3.370000E+03	1.833361E-16	2.245204E-17
3.380000E+03	1.847856E-16	2.213822E-17
3.390000E+03	1.862768E-16	2.183549E-17
3.400000E+03	1.878448E-16	2.154829E-17
3.410000E+03	1.894543E-16	2.127284E-17
3.420000E+03	1.911402E-16	2.101342E-17
3.430000E+03	1.929024E-16	2.077023E-17
3.440000E+03	1.947237E-16	2.054167E-17
3.450000E+03	1.966216E-16	2.032988E-17
3.460000E+03	1.985964E-16	2.013510E-17
3.470000E+03	2.006317E-16	1.995589E-17
3.480000E+03	2.027622E-16	1.979591E-17
3.490000E+03	2.049887E-16	1.965530E-17
3.500000E+03	2.072785E-16	1.953099E-17
3.510000E+03	2.096834E-16	1.942794E-17
3.520000E+03	2.121715E-16	1.934307E-17
3.530000E+03	2.147612E-16	1.927802E-17
3.540000E+03	2.174545E-16	1.923278E-17
3.550000E+03	2.202539E-16	1.920731E-17
3.560000E+03	2.231619E-16	1.920154E-17
3.570000E+03	2.261978E-16	1.921673E-17
3.580000E+03	2.293647E-16	1.925264E-17
3.590000E+03	2.326660E-16	1.930897E-17
3.600000E+03	2.361052E-16	1.938540E-17
3.610000E+03	2.396865E-16	1.948157E-17
3.620000E+03	2.434139E-16	1.959704E-17
3.630000E+03	2.473082E-16	1.973265E-17
3.640000E+03	2.513577E-16	1.988658E-17
3.650000E+03	2.555833E-16	2.005957E-17
3.660000E+03	2.600061E-16	2.025224E-17
3.670000E+03	2.645989E-16	2.046147E-17
3.680000E+03	2.693989E-16	2.068907E-17
3.690000E+03	2.743949E-16	2.093311E-17
3.700000E+03	2.796079E-16	2.119407E-17
3.710000E+03	2.850424E-16	2.147120E-17
3.720000E+03	2.907030E-16	2.176368E-17
3.730000E+03	2.965934E-16	2.207068E-17
3.740000E+03	3.027171E-16	2.239134E-17
3.750000E+03	3.090928E-16	2.272593E-17
3.760000E+03	3.157065E-16	2.307229E-17
3.770000E+03	3.225910E-16	2.343177E-17
3.780000E+03	3.297142E-16	2.380095E-17
3.790000E+03	3.370905E-16	2.417987E-17
3.800000E+03	3.447168E-16	2.456733E-17
3.810000E+03	3.526047E-16	2.496321E-17
3.820000E+03	3.607475E-16	2.536613E-17
3.830000E+03	3.691040E-16	2.577239E-17
3.840000E+03	3.777121E-16	2.618388E-17
3.850000E+03	3.865423E-16	2.659785E-17
3.860000E+03	3.955622E-16	2.701148E-17
3.870000E+03	4.047862E-16	2.742522E-17
3.880000E+03	4.141600E-16	2.783499E-17
3.890000E+03	4.236926E-16	2.824105E-17
3.900000E+03	4.333570E-16	2.864138E-17
3.910000E+03	4.430907E-16	2.903170E-17
3.920000E+03	4.528945E-16	2.941207E-17
3.930000E+03	4.627339E-16	2.978030E-17
3.940000E+03	4.725555E-16	3.013313E-17
3.950000E+03	4.823373E-16	3.046942E-17
3.960000E+03	4.920392E-16	3.078696E-17
3.970000E+03	5.016036E-16	3.108254E-17
3.980000E+03	5.109890E-16	3.135408E-17
3.990000E+03	5.201871E-16	3.160157E-17
4.000000E+03	5.291077E-16	3.182002E-17
4.010000E+03	5.377446E-16	3.200962E-17
4.020000E+03	5.460604E-16	3.216865E-17
4.030000E+03	5.540043E-16	3.229460E-17
4.040000E+03	5.615452E-16	3.238610E-17
4.050000E+03	5.686559E-16	3.244199E-17
4.060000E+03	5.753138E-16	3.246132E-17
4.070000E+03	5.815011E-16	3.244335E-17
4.080000E+03	5.871896E-16	3.238672E-17
4.090000E+03	5.923881E-16	3.229204E-17
4.100000E+03	5.970800E-16	3.215850E-17
4.110000E+03	6.012552E-16	3.198559E-17
4.120000E+03	6.049393E-16	3.177470E-17
4.130000E+03	6.081338E-16	3.152590E-17
4.140000E+03	6.108603E-16	3.124031E-17
4.150000E+03	6.131452E-16	3.091933E-17
4.160000E+03	6.149915E-16	3.056320E-17
4.170000E+03	6.164490E-16	3.017460E-17
4.180000E+03	6.175430E-16	2.975506E-17
4.190000E+03	6.183157E-16	2.930705E-17
4.200000E+03	6.187985E-16	2.883268E-17
4.210000E+03	6.190252E-16	2.833437E-17
4.220000E+03	6.190444E-16	2.781543E-17
4.230000E+03	6.189051E-16	2.727943E-17
4.240000E+03	6.186320E-16	2.672914E-17
4.250000E+03	6.182750E-16	2.616883E-17
4.260000E+03	6.178714E-16	2.560257E-17
4.270000E+03	6.174695E-16	2.503537E-17
4.280000E+03	6.170935E-16	2.447172E-17
4.290000E+03	6.168006E-16	2.391799E-17
4.300000E+03	6.166013E-16	2.337930E-17
4.310000E+03	6.165382E-16	2.286268E-17
4.320000E+03	6.166515E-16	2.237566E-17
4.330000E+03	6.169575E-16	2.192550E-17
4.340000E+03	6.174919E-16	2.152070E-17
4.350000E+03	6.182668E-16	2.116933E-17
4.360000E+03	6.193026E-16	2.087995E-17
4.370000E+03	6.206270E-16	2.066129E-17
4.380000E+03	6.222544E-16	2.052112E-17
4.390000E+03	6.241769E-16	2.046532E-17
4.400000E+03	6.264197E-16	2.049317E-17
4.410000E+03	6.289724E-16	2.059539E-17
4.420000E+03	6.318308E-16	2.076165E-17
4.430000E+03	6.349865E-16	2.098097E-17
4.440000E+03	6.384270E-16	2.124205E-17
4.450000E+03	6.421259E-16	2.153330E-17
4.460000E+03	6.460804E-16	2.184430E-17
4.470000E+03	6.502638E-16	2.216435E-17
4.480000E+03	6.546634E-16	2.248385E-17
4.490000E+03	6.592517E-16	2.279337E-17
4.500000E+03	6.639782E-16	2.308327E-17
4.510000E+03	6.688338E-16	2.334602E-17
4.520000E+03	6.737591E-16	2.357289E-17
4.530000E+03	6.787278E-16	2.375686E-17
4.540000E+03	6.836731E-16	2.389004E-17
4.550000E+03	6.885537E-16	2.396593E-17
4.560000E+03	6.933262E-16	2.397849E-17
4.570000E+03	6.979373E-16	2.392186E-17
4.580000E+03	7.023335E-16	2.379070E-17
4.590000E+03	7.064626E-16	2.358033E-17
4.600000E+03	7.102837E-16	2.328706E-17
4.610000E+03	7.137495E-16	2.290769E-17
4.620000E+03	7.168172E-16	2.243994E-17
4.630000E+03	7.194581E-16	2.188278E-17
4.640000E+03	7.216404E-16	2.123606E-17
4.650000E+03	7.233480E-16	2.050111E-17
4.660000E+03	7.245721E-16	1.968068E-17
4.670000E+03	7.252936E-16	1.877861E-17
4.680000E+03	7.255193E-16	1.780118E-17
4.690000E+03	7.252641E-16	1.675693E-17
4.700000E+03	7.245507E-16	1.565731E-17
4.710000E+03	7.233915E-16	1.451720E-17
4.720000E+03	7.218323E-16	1.335734E-17
4.730000E+03	7.198986E-16	1.220542E-17
4.740000E+03	7.176475E-16	1.110018E-17
4.750000E+03	7.151139E-16	1.009442E-17
4.760000E+03	7.123531E-16	9.258807E-18
4.770000E+03	7.094129E-16	8.679026E-18
4.780000E+03	7.063418E-16	8.439842E-18
4.790000E+03	7.032143E-16	8.577581E-18
4.800000E+03	7.001003E-16	9.031791E-18
4.810000E+03	6.971033E-16	9.711025E-18
4.820000E+03	6.943036E-16	1.053032E-17
4.830000E+03	6.917741E-16	1.142438E-17
4.840000E+03	6.895787E-16	1.234790E-17
4.850000E+03	6.877718E-16	1.327116E-17
4.860000E+03	6.864054E-16	1.417561E-17
4.870000E+03	6.855122E-16	1.504996E-17
4.880000E+03	6.851135E-16	1.588782E-17
4.890000E+03	6.852266E-16	1.668617E-17
4.900000E+03	6.858333E-16	1.744345E-17
4.910000E+03	6.869349E-16	1.816015E-17
4.920000E+03	6.885058E-16	1.883712E-17
4.930000E+03	6.905092E-16	1.947560E-17
4.940000E+03	6.929066E-16	2.007717E-17
4.950000E+03	6.956273E-16	2.064271E-17
4.960000E+03	6.986252E-16	2.117389E-17
4.970000E+03	7.018333E-16	2.167173E-17
4.980000E+03	7.051743E-16	2.213680E-17
4.990000E+03	7.085943E-16	2.257020E-17
5.000000E+03	7.120101E-16	2.297187E-17
5.010000E+03	7.153753E-16	2.334263E-17
5.020000E+03	7.186267E-16	2.368248E-17
5.030000E+03	7.217186E-16	2.399163E-17
5.040000E+03	7.246241E-16	2.427063E-17
5.050000E+03	7.273118E-16	2.451958E-17
5.060000E+03	7.297786E-16	2.473924E-17
5.070000E+03	7.320250E-16	2.493026E-17
5.080000E+03	7.340541E-16	2.509314E-17
5.090000E+03	7.358941E-16	2.522906E-17
5.100000E+03	7.375728E-16	2.533903E-17
5.110000E+03	7.391230E-16	2.542409E-17
5.120000E+03	7.405811E-16	2.548528E-17
5.130000E+03	7.419846E-16	2.552361E-17
5.140000E+03	7.433705E-16	2.553995E-17
5.150000E+03	7.447739E-16	2.553506E-17
5.160000E+03	7.462265E-16	2.550951E-17
5.170000E+03	7.477560E-16	2.546367E-17
5.180000E+03	7.493855E-16	2.539769E-17
5.190000E+03	7.511327E-16	2.531151E-17
5.200000E+03	7.530103E-16	2.520481E-17
5.210000E+03	7.550258E-16	2.507707E-17
5.220000E+03	7.571810E-16	2.492754E-17
5.230000E+03	7.594732E-16	2.475525E-17
5.240000E+03	7.619023E-16	2.455926E-17
5.250000E+03	7.644397E-16	2.433764E-17
5.260000E+03	7.670762E-16	2.408905E-17
5.270000E+03	7.697904E-16	2.381166E-17
5.280000E+03	7.725567E-16	2.350351E-17
5.290000E+03	7.753379E-16	2.316220E-17
5.300000E+03	7.781175E-16	2.278597E-17
5.310000E+03	7.808438E-16	2.237208E-17
5.320000E+03	7.834869E-16	2.191851E-17
5.330000E+03	7.859984E-16	2.142292E-17
5.340000E+03	7.883449E-16	2.088375E-17
5.350000E+03	7.904837E-16	2.029961E-17
5.360000E+03	7.923636E-16	1.966959E-17
5.370000E+03	7.939496E-16	1.899413E-17
5.380000E+03	7.951911E-16	1.827451E-17
5.390000E+03	7.960465E-16	1.751390E-17
5.400000E+03	7.964838E-16	1.671785E-17
5.410000E+03	7.964571E-16	1.589438E-17
5.420000E+03	7.959231E-16	1.505525E-17
5.430000E+03	7.948660E-16	1.421735E-17
5.440000E+03	7.932503E-16	1.340294E-17
5.450000E+03	7.910454E-16	1.264115E-17
5.460000E+03	7.882514E-16	1.196889E-17
5.470000E+03	7.848436E-16	1.142878E-17
5.480000E+03	7.808227E-16	1.106614E-17
5.490000E+03	7.762077E-16	1.092123E-17
5.500000E+03	7.710093E-16	1.100936E-17
5.510000E+03	7.652090E-16	1.129811E-17
5.520000E+03	7.588061E-16	1.173947E-17
5.530000E+03	7.518257E-16	1.228476E-17
5.540000E+03	7.442889E-16	1.289064E-17
5.550000E+03	7.362735E-16	1.352272E-17
5.560000E+03	7.278388E-16	1.415457E-17
5.570000E+03	7.190838E-16	1.476774E-17
5.580000E+03	7.101092E-16	1.534977E-17
5.590000E+03	7.010506E-16	1.589372E-17
5.600000E+03	6.920261E-16	1.639593E-17
5.610000E+03	6.831827E-16	1.685625E-17
5.620000E+03	6.746711E-16	1.727683E-17
5.630000E+03	6.666231E-16	1.766095E-17
5.640000E+03	6.591946E-16	1.801371E-17
5.650000E+03	6.525104E-16	1.834024E-17
5.660000E+03	6.467133E-16	1.864672E-17
5.670000E+03	6.419108E-16	1.893870E-17
5.680000E+03	6.382240E-16	1.922229E-17
5.690000E+03	6.357356E-16	1.950256E-17
5.700000E+03	6.345328E-16	1.978461E-17
5.710000E+03	6.346810E-16	2.007281E-17
5.720000E+03	6.362294E-16	2.037086E-17
5.730000E+03	6.392032E-16	2.068152E-17
5.740000E+03	6.436218E-16	2.100717E-17
5.750000E+03	6.494719E-16	2.134900E-17
5.760000E+03	6.567318E-16	2.170774E-17
5.770000E+03	6.653380E-16	2.208263E-17
5.780000E+03	6.752280E-16	2.247285E-17
5.790000E+03	6.862949E-16	2.287604E-17
5.800000E+03	6.984116E-16	2.328914E-17
5.810000E+03	7.114241E-16	2.370816E-17
5.820000E+03	7.251451E-16	2.412804E-17
5.830000E+03	7.393765E-16	2.454334E-17
5.840000E+03	7.538844E-16	2.494747E-17
5.850000E+03	7.684242E-16	2.533350E-17
5.860000E+03	7.827474E-16	2.569435E-17
5.870000E+03	7.965780E-16	2.602205E-17
5.880000E+03	8.096659E-16	2.630943E-17
5.890000E+03	8.217654E-16	2.654943E-17
5.900000E+03	8.326432E-16	2.673531E-17
5.910000E+03	8.421024E-16	2.686144E-17
5.920000E+03	8.499901E-16	2.692351E-17
5.930000E+03	8.561703E-16	2.691761E-17
5.940000E+03	8.605849E-16	2.684219E-17
5.950000E+03	8.631812E-16	2.669574E-17
5.960000E+03	8.640022E-16	2.647959E-17
5.970000E+03	8.630848E-16	2.619472E-17
5.980000E+03	8.605466E-16	2.584444E-17
5.990000E+03	8.565134E-16	2.543213E-17
6.000000E+03	8.511463E-16	2.496206E-17
6.010000E+03	8.446175E-16	2.443867E-17
6.020000E+03	8.371279E-16	2.386704E-17
6.030000E+03	8.288754E-16	2.325196E-17
6.040000E+03	8.200494E-16	2.259778E-17
6.050000E+03	8.108332E-16	2.190847E-17
6.060000E+03	8.014235E-16	2.118816E-17
6.070000E+03	7.919717E-16	2.043956E-17
6.080000E+03	7.826369E-16	1.966539E-17
6.090000E+03	7.735451E-16	1.886739E-17
6.100000E+03	7.648120E-16	1.804697E-17
6.110000E+03	7.565351E-16	1.720515E-17
6.120000E+03	7.487869E-16	1.634254E-17
6.130000E+03	7.416298E-16	1.545999E-17
6.140000E+03	7.351102E-16	1.455877E-17
6.150000E+03	7.292593E-16	1.364112E-17
6.160000E+03	7.240866E-16	1.271086E-17
6.170000E+03	7.196099E-16	1.177507E-17
6.180000E+03	7.158202E-16	1.084498E-17
6.190000E+03	7.126973E-16	9.938702E-18
6.200000E+03	7.101967E-16	9.084263E-18
6.210000E+03	7.082921E-16	8.324115E-18
6.220000E+03	7.069275E-16	7.717277E-18
6.230000E+03	7.060460E-16	7.336618E-18
6.240000E+03	7.055909E-16	7.252466E-18
6.250000E+03	7.054936E-16	7.476695E-18
6.260000E+03	7.057150E-16	7.938563E-18
6.270000E+03	7.061926E-16	8.553476E-18
6.280000E+03	7.068764E-16	9.248829E-18
6.290000E+03	7.077157E-16	9.970054E-18
6.300000E+03	7.086541E-16	1.067846E-17
6.310000E+03	7.096370E-16	1.134719E-17
6.320000E+03	7.106136E-16	1.195766E-17
6.330000E+03	7.115514E-16	1.249721E-17
6.340000E+03	7.123946E-16	1.295669E-17
6.350000E+03	7.131218E-16	1.333031E-17
6.360000E+03	7.137033E-16	1.361424E-17
6.370000E+03	7.141084E-16	1.380621E-17
6.380000E+03	7.143418E-16	1.390596E-17
6.390000E+03	7.143778E-16	1.391380E-17
6.400000E+03	7.142187E-16	1.383170E-17
6.410000E+03	7.138722E-16	1.366289E-17
6.420000E+03	7.133438E-16	1.341178E-17
6.430000E+03	7.126439E-16	1.308442E-17
6.440000E+03	7.117946E-16	1.268889E-17
6.450000E+03	7.108218E-16	1.223573E-17
6.460000E+03	7.097547E-16	1.173862E-17
6.470000E+03	7.086177E-16	1.121516E-17
6.480000E+03	7.074445E-16	1.068833E-17
6.490000E+03	7.062770E-16	1.018754E-17
6.500000E+03	7.051349E-16	9.749008E-18
6.510000E+03	7.040581E-16	9.415739E-18
6.520000E+03	7.030468E-16	9.233236E-18
6.530000E+03	7.021188E-16	9.242807E-18
6.540000E+03	7.012922E-16	9.454410E-18
6.550000E+03	7.005461E-16	9.836476E-18
6.560000E+03	6.998884E-16	1.034903E-17
6.570000E+03	6.992963E-16	1.095274E-17
6.580000E+03	6.987376E-16	1.161357E-17
6.590000E+03	6.981940E-16	1.230451E-17
6.600000E+03	6.976171E-16	1.300444E-17
6.610000E+03	6.969590E-16	1.369754E-17
6.620000E+03	6.961674E-16	1.437209E-17
6.630000E+03	6.951871E-16	1.501946E-17
6.640000E+03	6.939706E-16	1.563352E-17
6.650000E+03	6.924575E-16	1.620958E-17
6.660000E+03	6.906003E-16	1.674448E-17
6.670000E+03	6.883666E-16	1.723636E-17
6.680000E+03	6.857266E-16	1.768410E-17
6.690000E+03	6.826542E-16	1.808716E-17
6.700000E+03	6.791594E-16	1.844637E-17
6.710000E+03	6.752357E-16	1.876240E-17
6.720000E+03	6.709129E-16	1.903718E-17
6.730000E+03	6.662271E-16	1.927304E-17
6.740000E+03	6.612267E-16	1.947286E-17
6.750000E+03	6.559713E-16	1.963997E-17
6.760000E+03	6.505373E-16	1.977834E-17
6.770000E+03	6.449941E-16	1.989174E-17
6.780000E+03	6.394310E-16	1.998460E-17
6.790000E+03	6.339263E-16	2.006093E-17
6.800000E+03	6.285671E-16	2.012494E-17
6.810000E+03	6.234545E-16	2.018113E-17
6.820000E+03	6.186583E-16	2.023287E-17
6.830000E+03	6.142593E-16	2.028368E-17
6.840000E+03	6.103469E-16	2.033718E-17
6.850000E+03	6.069759E-16	2.039572E-17
6.860000E+03	6.042145E-16	2.046193E-17
6.870000E+03	6.021157E-16	2.053783E-17
6.880000E+03	6.007228E-16	2.062505E-17
6.890000E+03	6.000692E-16	2.072482E-17
6.900000E+03	6.001774E-16	2.083801E-17
6.910000E+03	6.010515E-16	2.096489E-17
6.920000E+03	6.027049E-16	2.110604E-17
6.930000E+03	6.051106E-16	2.126075E-17
6.940000E+03	6.082574E-16	2.142888E-17
6.950000E+03	6.120936E-16	2.160896E-17
6.960000E+03	6.165844E-16	2.180018E-17
6.970000E+03	6.216550E-16	2.200039E-17
6.980000E+03	6.272425E-16	2.220795E-17
6.990000E+03	6.332690E-16	2.242073E-17
7.000000E+03	6.396502E-16	2.263646E-17
7.010000E+03	6.462908E-16	2.285254E-17
7.020000E+03	6.531175E-16	2.306717E-17
7.030000E+03	6.600280E-16	2.327759E-17
7.040000E+03	6.669401E-16	2.348172E-17
7.050000E+03	6.737949E-16	2.367833E-17
7.060000E+03	6.805031E-16	2.386508E-17
7.070000E+03	6.870352E-16	2.404172E-17
7.080000E+03	6.933252E-16	2.420663E-17
7.090000E+03	6.993612E-16	2.436005E-17
7.100000E+03	7.051277E-16	2.450198E-17
7.110000E+03	7.106035E-16	2.463217E-17
7.120000E+03	7.158119E-16	2.475182E-17
7.130000E+03	7.207578E-16	2.486138E-17
7.140000E+03	7.254603E-16	2.496172E-17
7.150000E+03	7.299313E-16	2.505336E-17
7.160000E+03	7.342090E-16	2.513763E-17
7.170000E+03	7.382917E-16	2.521439E-17
7.180000E+03	7.422077E-16	2.528446E-17
7.190000E+03	7.459306E-16	2.534668E-17
7.200000E+03	7.494787E-16	2.540130E-17
7.210000E+03	7.528126E-16	2.544654E-17
7.220000E+03	7.558989E-16	2.548071E-17
7.230000E+03	7.587021E-16	2.550195E-17
7.240000E+03	7.611571E-16	2.550732E-17
7.250000E+03	7.631989E-16	2.549380E-17
7.260000E+03	7.647655E-16	2.545839E-17
7.270000E+03	7.657623E-16	2.539698E-17
7.280000E+03	7.661323E-16	2.530664E-17
7.290000E+03	7.657926E-16	2.518359E-17
7.300000E+03	7.646665E-16	2.502428E-17
7.310000E+03	7.627160E-16	2.482645E-17
7.320000E+03	7.598774E-16	2.458708E-17
7.330000E+03	7.561312E-16	2.430468E-17
7.340000E+03	7.514660E-16	2.397811E-17
7.350000E+03	7.458884E-16	2.360696E-17
7.360000E+03	7.394244E-16	2.319154E-17
7.370000E+03	7.321090E-16	2.273260E-17
7.380000E+03	7.240134E-16	2.223214E-17
7.390000E+03	7.152148E-16	2.169247E-17
7.400000E+03	7.058033E-16	2.111636E-17
7.410000E+03	6.958794E-16	2.050699E-17
7.420000E+03	6.855416E-16	1.986753E-17
7.430000E+03	6.749192E-16	1.920207E-17
7.440000E+03	6.641248E-16	1.851424E-17
7.450000E+03	6.532608E-16	1.780741E-17
7.460000E+03	6.424429E-16	1.708539E-17
7.470000E+03	6.317564E-16	1.635123E-17
7.480000E+03	6.213041E-16	1.560867E-17
7.490000E+03	6.111724E-16	1.486126E-17
7.500000E+03	6.014307E-16	1.411259E-17
7.510000E+03	5.921548E-16	1.336700E-17
7.520000E+03	5.833953E-16	1.262919E-17
7.530000E+03	5.752087E-16	1.190524E-17
7.540000E+03	5.676268E-16	1.120250E-17
7.550000E+03	5.606799E-16	1.053067E-17
7.560000E+03	5.543892E-16	9.902377E-18
7.570000E+03	5.487673E-16	9.333881E-18
7.580000E+03	5.438253E-16	8.845642E-18
7.590000E+03	5.395443E-16	8.461543E-18
7.600000E+03	5.359257E-16	8.207973E-18
7.610000E+03	5.329412E-16	8.109384E-18
7.620000E+03	5.305677E-16	8.178890E-18
7.630000E+03	5.288048E-16	8.397298E-18
7.640000E+03	5.276597E-16	8.733442E-18
7.650000E+03	5.271102E-16	9.156087E-18
7.660000E+03	5.271471E-16	9.638037E-18
7.670000E+03	5.277538E-16	1.015707E-17
7.680000E+03	5.288931E-16	1.069553E-17
7.690000E+03	5.305212E-16	1.123973E-17
7.700000E+03	5.326094E-16	1.177957E-17
7.710000E+03	5.351101E-16	1.230695E-17
7.720000E+03	5.379567E-16	1.281508E-17
7.730000E+03	5.411075E-16	1.329892E-17
7.740000E+03	5.444893E-16	1.375348E-17
7.750000E+03	5.480559E-16	1.417500E-17
7.760000E+03	5.517461E-16	1.455962E-17
