#wls	flux	fluxerr
1.600000E+03	1.105313E-16	8.256283E-17
1.640000E+03	1.119934E-16	8.257408E-17
1.680000E+03	1.134482E-16	8.252373E-17
1.720000E+03	1.149129E-16	8.242304E-17
1.760000E+03	1.163609E-16	8.225140E-17
1.800000E+03	1.178321E-16	8.203574E-17
1.840000E+03	1.192992E-16	8.175530E-17
1.880000E+03	1.207802E-16	8.142087E-17
1.920000E+03	1.222466E-16	8.101184E-17
1.960000E+03	1.237397E-16	8.055420E-17
2.000000E+03	1.252069E-16	8.001210E-17
2.040000E+03	1.266896E-16	7.941116E-17
2.080000E+03	1.281578E-16	7.873128E-17
2.120000E+03	1.296294E-16	7.798252E-17
2.160000E+03	1.311224E-16	7.717427E-17
2.200000E+03	1.325818E-16	7.627301E-17
2.240000E+03	1.340496E-16	7.530275E-17
2.280000E+03	1.355192E-16	7.425869E-17
2.320000E+03	1.369838E-16	7.313642E-17
2.360000E+03	1.384367E-16	7.193203E-17
2.400000E+03	1.399201E-16	7.066687E-17
2.440000E+03	1.413783E-16	6.931193E-17
2.480000E+03	1.428535E-16	6.788822E-17
2.520000E+03	1.443630E-16	6.640304E-17
2.560000E+03	1.458758E-16	6.484121E-17
2.600000E+03	1.474091E-16	6.321052E-17
2.640000E+03	1.489802E-16	6.151783E-17
2.680000E+03	1.506052E-16	5.976894E-17
2.720000E+03	1.522765E-16	5.795979E-17
2.760000E+03	1.540326E-16	5.610408E-17
2.800000E+03	1.558641E-16	5.419685E-17
2.840000E+03	1.578291E-16	5.225671E-17
2.880000E+03	1.599149E-16	5.027686E-17
2.920000E+03	1.621522E-16	4.826513E-17
2.960000E+03	1.645898E-16	4.623354E-17
3.000000E+03	1.672070E-16	4.417393E-17
3.010000E+03	1.678948E-16	4.365602E-17
3.020000E+03	1.686080E-16	4.313993E-17
3.030000E+03	1.693248E-16	4.262007E-17
3.040000E+03	1.700659E-16	4.210169E-17
3.050000E+03	1.708309E-16	4.158454E-17
3.060000E+03	1.715982E-16	4.106340E-17
3.070000E+03	1.723883E-16	4.054324E-17
3.080000E+03	1.731799E-16	4.001910E-17
3.090000E+03	1.740138E-16	3.950046E-17
3.100000E+03	1.748481E-16	3.897771E-17
3.110000E+03	1.757233E-16	3.845995E-17
3.120000E+03	1.765978E-16	3.793805E-17
3.130000E+03	1.775117E-16	3.742075E-17
3.140000E+03	1.784238E-16	3.689938E-17
3.150000E+03	1.793738E-16	3.638231E-17
3.160000E+03	1.803409E-16	3.586530E-17
3.170000E+03	1.813242E-16	3.534838E-17
3.180000E+03	1.823232E-16	3.483161E-17
3.190000E+03	1.833568E-16	3.431875E-17
3.200000E+03	1.844239E-16	3.380965E-17
3.210000E+03	1.855043E-16	3.330071E-17
3.220000E+03	1.866165E-16	3.279555E-17
3.230000E+03	1.877404E-16	3.229082E-17
3.240000E+03	1.888944E-16	3.179002E-17
3.250000E+03	1.900775E-16	3.129323E-17
3.260000E+03	1.912888E-16	3.080055E-17
3.270000E+03	1.925272E-16	3.031215E-17
3.280000E+03	1.937920E-16	2.982823E-17
3.290000E+03	1.950822E-16	2.934906E-17
3.300000E+03	1.964153E-16	2.887768E-17
3.310000E+03	1.977534E-16	2.840894E-17
3.320000E+03	1.991510E-16	2.795117E-17
3.330000E+03	2.005519E-16	2.749695E-17
3.340000E+03	2.020101E-16	2.705426E-17
3.350000E+03	2.034882E-16	2.661857E-17
3.360000E+03	2.050035E-16	2.619278E-17
3.370000E+03	2.065550E-16	2.577738E-17
3.380000E+03	2.081421E-16	2.537289E-17
3.390000E+03	2.097639E-16	2.497988E-17
3.400000E+03	2.114373E-16	2.460101E-17
3.410000E+03	2.131441E-16	2.423476E-17
3.420000E+03	2.148839E-16	2.388185E-17
3.430000E+03	2.166735E-16	2.354483E-17
3.440000E+03	2.184954E-16	2.322246E-17
3.450000E+03	2.203835E-16	2.291899E-17
3.460000E+03	2.223038E-16	2.263142E-17
3.470000E+03	2.242899E-16	2.236380E-17
3.480000E+03	2.263252E-16	2.211492E-17
3.490000E+03	2.284101E-16	2.188531E-17
3.500000E+03	2.305618E-16	2.167698E-17
3.510000E+03	2.327644E-16	2.148873E-17
3.520000E+03	2.350353E-16	2.132240E-17
3.530000E+03	2.373755E-16	2.117815E-17
3.540000E+03	2.397864E-16	2.105609E-17
3.550000E+03	2.422695E-16	2.095625E-17
3.560000E+03	2.448423E-16	2.087991E-17
3.570000E+03	2.474911E-16	2.082550E-17
3.580000E+03	2.502181E-16	2.079277E-17
3.590000E+03	2.530569E-16	2.078393E-17
3.600000E+03	2.559788E-16	2.079591E-17
3.610000E+03	2.590175E-16	2.083066E-17
3.620000E+03	2.621603E-16	2.088626E-17
3.630000E+03	2.654103E-16	2.096197E-17
3.640000E+03	2.687857E-16	2.105821E-17
3.650000E+03	2.722744E-16	2.117290E-17
3.660000E+03	2.759095E-16	2.130747E-17
3.670000E+03	2.796641E-16	2.145861E-17
3.680000E+03	2.835707E-16	2.162761E-17
3.690000E+03	2.876173E-16	2.181229E-17
3.700000E+03	2.918062E-16	2.201156E-17
3.710000E+03	2.961688E-16	2.222654E-17
3.720000E+03	3.006773E-16	2.245388E-17
3.730000E+03	3.053475E-16	2.269353E-17
3.740000E+03	3.101797E-16	2.294433E-17
3.750000E+03	3.151881E-16	2.320613E-17
3.760000E+03	3.203570E-16	2.347664E-17
3.770000E+03	3.256985E-16	2.375568E-17
3.780000E+03	3.312094E-16	2.404196E-17
3.790000E+03	3.368707E-16	2.433313E-17
3.800000E+03	3.427053E-16	2.462994E-17
3.810000E+03	3.486916E-16	2.492997E-17
3.820000E+03	3.548206E-16	2.523182E-17
3.830000E+03	3.610964E-16	2.553505E-17
3.840000E+03	3.675065E-16	2.583817E-17
3.850000E+03	3.740229E-16	2.613867E-17
3.860000E+03	3.806443E-16	2.643599E-17
3.870000E+03	3.873530E-16	2.672854E-17
3.880000E+03	3.941300E-16	2.701471E-17
3.890000E+03	4.009545E-16	2.729287E-17
3.900000E+03	4.078181E-16	2.756234E-17
3.910000E+03	4.146691E-16	2.781955E-17
3.920000E+03	4.215104E-16	2.806476E-17
3.930000E+03	4.283162E-16	2.829632E-17
3.940000E+03	4.350458E-16	2.851168E-17
3.950000E+03	4.416723E-16	2.870930E-17
3.960000E+03	4.481823E-16	2.888856E-17
3.970000E+03	4.545489E-16	2.904799E-17
3.980000E+03	4.607186E-16	2.918449E-17
3.990000E+03	4.667072E-16	2.929937E-17
4.000000E+03	4.724502E-16	2.938891E-17
4.010000E+03	4.779529E-16	2.945376E-17
4.020000E+03	4.831952E-16	2.949299E-17
4.030000E+03	4.881333E-16	2.950422E-17
4.040000E+03	4.927662E-16	2.948768E-17
4.050000E+03	4.970951E-16	2.944371E-17
4.060000E+03	5.010859E-16	2.937052E-17
4.070000E+03	5.047341E-16	2.926808E-17
4.080000E+03	5.080508E-16	2.913724E-17
4.090000E+03	5.110256E-16	2.897762E-17
4.100000E+03	5.136640E-16	2.878972E-17
4.110000E+03	5.159633E-16	2.857359E-17
4.120000E+03	5.179476E-16	2.833081E-17
4.130000E+03	5.196090E-16	2.806118E-17
4.140000E+03	5.209892E-16	2.776726E-17
4.150000E+03	5.220752E-16	2.744868E-17
4.160000E+03	5.229021E-16	2.710770E-17
4.170000E+03	5.234959E-16	2.674615E-17
4.180000E+03	5.238628E-16	2.636491E-17
4.190000E+03	5.240431E-16	2.596671E-17
4.200000E+03	5.240572E-16	2.555337E-17
4.210000E+03	5.239269E-16	2.512689E-17
4.220000E+03	5.236851E-16	2.469001E-17
4.230000E+03	5.233653E-16	2.424557E-17
4.240000E+03	5.229814E-16	2.379576E-17
4.250000E+03	5.225679E-16	2.334390E-17
4.260000E+03	5.221491E-16	2.289309E-17
4.270000E+03	5.217588E-16	2.244712E-17
4.280000E+03	5.214122E-16	2.200924E-17
4.290000E+03	5.211512E-16	2.158417E-17
4.300000E+03	5.209812E-16	2.117538E-17
4.310000E+03	5.209511E-16	2.078847E-17
4.320000E+03	5.210569E-16	2.042716E-17
4.330000E+03	5.213366E-16	2.009710E-17
4.340000E+03	5.218015E-16	1.980303E-17
4.350000E+03	5.224783E-16	1.955022E-17
4.360000E+03	5.233672E-16	1.934269E-17
4.370000E+03	5.244909E-16	1.918465E-17
4.380000E+03	5.258528E-16	1.907849E-17
4.390000E+03	5.274603E-16	1.902513E-17
4.400000E+03	5.293012E-16	1.902279E-17
4.410000E+03	5.313739E-16	1.906812E-17
4.420000E+03	5.336575E-16	1.915543E-17
4.430000E+03	5.361270E-16	1.927776E-17
4.440000E+03	5.387621E-16	1.942763E-17
4.450000E+03	5.415314E-16	1.959688E-17
4.460000E+03	5.444156E-16	1.977775E-17
4.470000E+03	5.474145E-16	1.996332E-17
4.480000E+03	5.505174E-16	2.014656E-17
4.490000E+03	5.537027E-16	2.032040E-17
4.500000E+03	5.569759E-16	2.047912E-17
4.510000E+03	5.602956E-16	2.061564E-17
4.520000E+03	5.636476E-16	2.072432E-17
4.530000E+03	5.670084E-16	2.079951E-17
4.540000E+03	5.703532E-16	2.083593E-17
4.550000E+03	5.736488E-16	2.082836E-17
4.560000E+03	5.768690E-16	2.077222E-17
4.570000E+03	5.799802E-16	2.066307E-17
4.580000E+03	5.829568E-16	2.049719E-17
4.590000E+03	5.857675E-16	2.027111E-17
4.600000E+03	5.883897E-16	1.998216E-17
4.610000E+03	5.908038E-16	1.962832E-17
4.620000E+03	5.929782E-16	1.920778E-17
4.630000E+03	5.949143E-16	1.872050E-17
4.640000E+03	5.965808E-16	1.816616E-17
4.650000E+03	5.979801E-16	1.754644E-17
4.660000E+03	5.991115E-16	1.686397E-17
4.670000E+03	5.999720E-16	1.612262E-17
4.680000E+03	6.005632E-16	1.532805E-17
4.690000E+03	6.009131E-16	1.448867E-17
4.700000E+03	6.010250E-16	1.361497E-17
4.710000E+03	6.009208E-16	1.272152E-17
4.720000E+03	6.006335E-16	1.182798E-17
4.730000E+03	6.001915E-16	1.096031E-17
4.740000E+03	5.996192E-16	1.015253E-17
4.750000E+03	5.989569E-16	9.448086E-18
4.760000E+03	5.982393E-16	8.897952E-18
4.770000E+03	5.975021E-16	8.554006E-18
4.780000E+03	5.967952E-16	8.456094E-18
4.790000E+03	5.961411E-16	8.617027E-18
4.800000E+03	5.955688E-16	9.017818E-18
4.810000E+03	5.951069E-16	9.616150E-18
4.820000E+03	5.947753E-16	1.036139E-17
4.830000E+03	5.945988E-16	1.120658E-17
4.840000E+03	5.945927E-16	1.211340E-17
4.850000E+03	5.947761E-16	1.305301E-17
4.860000E+03	5.951583E-16	1.400429E-17
4.870000E+03	5.957516E-16	1.495235E-17
4.880000E+03	5.965650E-16	1.588679E-17
4.890000E+03	5.975969E-16	1.680020E-17
4.900000E+03	5.988487E-16	1.768765E-17
4.910000E+03	6.003249E-16	1.854601E-17
4.920000E+03	6.020061E-16	1.937268E-17
4.930000E+03	6.038965E-16	2.016670E-17
4.940000E+03	6.059700E-16	2.092676E-17
4.950000E+03	6.082180E-16	2.165259E-17
4.960000E+03	6.106227E-16	2.234393E-17
4.970000E+03	6.131572E-16	2.300039E-17
4.980000E+03	6.158071E-16	2.362217E-17
4.990000E+03	6.185497E-16	2.420928E-17
5.000000E+03	6.213623E-16	2.476170E-17
5.010000E+03	6.242153E-16	2.527918E-17
5.020000E+03	6.270934E-16	2.576196E-17
5.030000E+03	6.299756E-16	2.621003E-17
5.040000E+03	6.328424E-16	2.662337E-17
5.050000E+03	6.356761E-16	2.700194E-17
5.060000E+03	6.384610E-16	2.734573E-17
5.070000E+03	6.411839E-16	2.765469E-17
5.080000E+03	6.438334E-16	2.792879E-17
5.090000E+03	6.464076E-16	2.816831E-17
5.100000E+03	6.488923E-16	2.837289E-17
5.110000E+03	6.512825E-16	2.854245E-17
5.120000E+03	6.535742E-16	2.867689E-17
5.130000E+03	6.557720E-16	2.877635E-17
5.140000E+03	6.578740E-16	2.884061E-17
5.150000E+03	6.598720E-16	2.886904E-17
5.160000E+03	6.617649E-16	2.886125E-17
5.170000E+03	6.635655E-16	2.881733E-17
5.180000E+03	6.652581E-16	2.873601E-17
5.190000E+03	6.668475E-16	2.861683E-17
5.200000E+03	6.683304E-16	2.845886E-17
5.210000E+03	6.697028E-16	2.826105E-17
5.220000E+03	6.709595E-16	2.802219E-17
5.230000E+03	6.720944E-16	2.774096E-17
5.240000E+03	6.731000E-16	2.741592E-17
5.250000E+03	6.739680E-16	2.704551E-17
5.260000E+03	6.746890E-16	2.662811E-17
5.270000E+03	6.752600E-16	2.616234E-17
5.280000E+03	6.756629E-16	2.564623E-17
5.290000E+03	6.758863E-16	2.507817E-17
5.300000E+03	6.759255E-16	2.445685E-17
5.310000E+03	6.757544E-16	2.378039E-17
5.320000E+03	6.753822E-16	2.304838E-17
5.330000E+03	6.747765E-16	2.225926E-17
5.340000E+03	6.739399E-16	2.141310E-17
5.350000E+03	6.728622E-16	2.051001E-17
5.360000E+03	6.715202E-16	1.955046E-17
5.370000E+03	6.699195E-16	1.853663E-17
5.380000E+03	6.680532E-16	1.747144E-17
5.390000E+03	6.659023E-16	1.635902E-17
5.400000E+03	6.634768E-16	1.520624E-17
5.410000E+03	6.607684E-16	1.402217E-17
5.420000E+03	6.577838E-16	1.282004E-17
5.430000E+03	6.545125E-16	1.161814E-17
5.440000E+03	6.509726E-16	1.044318E-17
5.450000E+03	6.471586E-16	9.332775E-18
5.460000E+03	6.430941E-16	8.340475E-18
5.470000E+03	6.387795E-16	7.537248E-18
5.480000E+03	6.342443E-16	7.005584E-18
5.490000E+03	6.294954E-16	6.814131E-18
5.500000E+03	6.245682E-16	6.981846E-18
5.510000E+03	6.194882E-16	7.463182E-18
5.520000E+03	6.142716E-16	8.173891E-18
5.530000E+03	6.089686E-16	9.028489E-18
5.540000E+03	6.035953E-16	9.958721E-18
5.550000E+03	5.982013E-16	1.091696E-17
5.560000E+03	5.928200E-16	1.187138E-17
5.570000E+03	5.874933E-16	1.280164E-17
5.580000E+03	5.822641E-16	1.369515E-17
5.590000E+03	5.771766E-16	1.454461E-17
5.600000E+03	5.722755E-16	1.534636E-17
5.610000E+03	5.676052E-16	1.609924E-17
5.620000E+03	5.632153E-16	1.680406E-17
5.630000E+03	5.591431E-16	1.746254E-17
5.640000E+03	5.554294E-16	1.807743E-17
5.650000E+03	5.521133E-16	1.865201E-17
5.660000E+03	5.492357E-16	1.919010E-17
5.670000E+03	5.468183E-16	1.969510E-17
5.680000E+03	5.449002E-16	2.017116E-17
5.690000E+03	5.434997E-16	2.062176E-17
5.700000E+03	5.426411E-16	2.105053E-17
5.710000E+03	5.423270E-16	2.146021E-17
5.720000E+03	5.425702E-16	2.185375E-17
5.730000E+03	5.433772E-16	2.223372E-17
5.740000E+03	5.447319E-16	2.260158E-17
5.750000E+03	5.466274E-16	2.295892E-17
5.760000E+03	5.490443E-16	2.330664E-17
5.770000E+03	5.519559E-16	2.364510E-17
5.780000E+03	5.553283E-16	2.397414E-17
5.790000E+03	5.591150E-16	2.429284E-17
5.800000E+03	5.632676E-16	2.460004E-17
5.810000E+03	5.677368E-16	2.489434E-17
5.820000E+03	5.724559E-16	2.517343E-17
5.830000E+03	5.773640E-16	2.543511E-17
5.840000E+03	5.823787E-16	2.567611E-17
5.850000E+03	5.874368E-16	2.589389E-17
5.860000E+03	5.924503E-16	2.608473E-17
5.870000E+03	5.973533E-16	2.624579E-17
5.880000E+03	6.020577E-16	2.637321E-17
5.890000E+03	6.064956E-16	2.646395E-17
5.900000E+03	6.105916E-16	2.651459E-17
5.910000E+03	6.142882E-16	2.652246E-17
5.920000E+03	6.175237E-16	2.648468E-17
5.930000E+03	6.202516E-16	2.639899E-17
5.940000E+03	6.224354E-16	2.626355E-17
5.950000E+03	6.240564E-16	2.607725E-17
5.960000E+03	6.250892E-16	2.583867E-17
5.970000E+03	6.255391E-16	2.554767E-17
5.980000E+03	6.254170E-16	2.520432E-17
5.990000E+03	6.247396E-16	2.480891E-17
6.000000E+03	6.235404E-16	2.436237E-17
6.010000E+03	6.218623E-16	2.386603E-17
6.020000E+03	6.197630E-16	2.332171E-17
6.030000E+03	6.172888E-16	2.273081E-17
6.040000E+03	6.145031E-16	2.209537E-17
6.050000E+03	6.114794E-16	2.141774E-17
6.060000E+03	6.082748E-16	2.069970E-17
6.070000E+03	6.049710E-16	1.994388E-17
6.080000E+03	6.016188E-16	1.915191E-17
6.090000E+03	5.982963E-16	1.832638E-17
6.100000E+03	5.950547E-16	1.746920E-17
6.110000E+03	5.919582E-16	1.658290E-17
6.120000E+03	5.890542E-16	1.566992E-17
6.130000E+03	5.863841E-16	1.473321E-17
6.140000E+03	5.840002E-16	1.377690E-17
6.150000E+03	5.819304E-16	1.280595E-17
6.160000E+03	5.802017E-16	1.182745E-17
6.170000E+03	5.788390E-16	1.085161E-17
6.180000E+03	5.778543E-16	9.893076E-18
6.190000E+03	5.772579E-16	8.973304E-18
6.200000E+03	5.770353E-16	8.122881E-18
6.210000E+03	5.771764E-16	7.384437E-18
6.220000E+03	5.776695E-16	6.811998E-18
6.230000E+03	5.784852E-16	6.462307E-18
6.240000E+03	5.795998E-16	6.375493E-18
6.250000E+03	5.809850E-16	6.553400E-18
6.260000E+03	5.825970E-16	6.955813E-18
6.270000E+03	5.844059E-16	7.519243E-18
6.280000E+03	5.863619E-16	8.178879E-18
6.290000E+03	5.884303E-16	8.880986E-18
6.300000E+03	5.905639E-16	9.584691E-18
6.310000E+03	5.927152E-16	1.026001E-17
6.320000E+03	5.948437E-16	1.088510E-17
6.330000E+03	5.969050E-16	1.144375E-17
6.340000E+03	5.988637E-16	1.192394E-17
6.350000E+03	6.006760E-16	1.231645E-17
6.360000E+03	6.023083E-16	1.261449E-17
6.370000E+03	6.037443E-16	1.281350E-17
6.380000E+03	6.049602E-16	1.291038E-17
6.390000E+03	6.059252E-16	1.290336E-17
6.400000E+03	6.066317E-16	1.279265E-17
6.410000E+03	6.070771E-16	1.258013E-17
6.420000E+03	6.072441E-16	1.226909E-17
6.430000E+03	6.071383E-16	1.186529E-17
6.440000E+03	6.067560E-16	1.137671E-17
6.450000E+03	6.060961E-16	1.081448E-17
6.460000E+03	6.051724E-16	1.019395E-17
6.470000E+03	6.039751E-16	9.535383E-18
6.480000E+03	6.025080E-16	8.866380E-18
6.490000E+03	6.007882E-16	8.223783E-18
6.500000E+03	5.988141E-16	7.654567E-18
6.510000E+03	5.965964E-16	7.214747E-18
6.520000E+03	5.941578E-16	6.961333E-18
6.530000E+03	5.915198E-16	6.936360E-18
6.540000E+03	5.886898E-16	7.150330E-18
6.550000E+03	5.856800E-16	7.578758E-18
6.560000E+03	5.825136E-16	8.174813E-18
6.570000E+03	5.791820E-16	8.886084E-18
6.580000E+03	5.757007E-16	9.666604E-18
6.590000E+03	5.720787E-16	1.048023E-17
6.600000E+03	5.683130E-16	1.130001E-17
6.610000E+03	5.644131E-16	1.210680E-17
6.620000E+03	5.603893E-16	1.288721E-17
6.630000E+03	5.562347E-16	1.363164E-17
6.640000E+03	5.519742E-16	1.433431E-17
6.650000E+03	5.476041E-16	1.499103E-17
6.660000E+03	5.431410E-16	1.559981E-17
6.670000E+03	5.385976E-16	1.615986E-17
6.680000E+03	5.339832E-16	1.667126E-17
6.690000E+03	5.293272E-16	1.713545E-17
6.700000E+03	5.246441E-16	1.755400E-17
6.710000E+03	5.199508E-16	1.792896E-17
6.720000E+03	5.152840E-16	1.826339E-17
6.730000E+03	5.106593E-16	1.855987E-17
6.740000E+03	5.061115E-16	1.882180E-17
6.750000E+03	5.016711E-16	1.905255E-17
6.760000E+03	4.973753E-16	1.925581E-17
6.770000E+03	4.932447E-16	1.943465E-17
6.780000E+03	4.893176E-16	1.959278E-17
6.790000E+03	4.856203E-16	1.973342E-17
6.800000E+03	4.821955E-16	1.986039E-17
6.810000E+03	4.790678E-16	1.997667E-17
6.820000E+03	4.762603E-16	2.008513E-17
6.830000E+03	4.738111E-16	2.018911E-17
6.840000E+03	4.717336E-16	2.029083E-17
6.850000E+03	4.700555E-16	2.039301E-17
6.860000E+03	4.687960E-16	2.049788E-17
6.870000E+03	4.679658E-16	2.060719E-17
6.880000E+03	4.675892E-16	2.072316E-17
6.890000E+03	4.676647E-16	2.084681E-17
6.900000E+03	4.682097E-16	2.097985E-17
6.910000E+03	4.692160E-16	2.112276E-17
6.920000E+03	4.706884E-16	2.127653E-17
6.930000E+03	4.726226E-16	2.144166E-17
6.940000E+03	4.750055E-16	2.161816E-17
6.950000E+03	4.778374E-16	2.180659E-17
6.960000E+03	4.810988E-16	2.200658E-17
6.970000E+03	4.847669E-16	2.221754E-17
6.980000E+03	4.888279E-16	2.243926E-17
6.990000E+03	4.932660E-16	2.267142E-17
7.000000E+03	4.980454E-16	2.291277E-17
7.010000E+03	5.031467E-16	2.316278E-17
7.020000E+03	5.085431E-16	2.342059E-17
7.030000E+03	5.142134E-16	2.368556E-17
7.040000E+03	5.201169E-16	2.395617E-17
7.050000E+03	5.262312E-16	2.423172E-17
7.060000E+03	5.325279E-16	2.451121E-17
7.070000E+03	5.389785E-16	2.479363E-17
7.080000E+03	5.455545E-16	2.507791E-17
7.090000E+03	5.522344E-16	2.536329E-17
7.100000E+03	5.589758E-16	2.564798E-17
7.110000E+03	5.657636E-16	2.593140E-17
7.120000E+03	5.725609E-16	2.621190E-17
7.130000E+03	5.793365E-16	2.648800E-17
7.140000E+03	5.860572E-16	2.675808E-17
7.150000E+03	5.926878E-16	2.702031E-17
7.160000E+03	5.991976E-16	2.727300E-17
7.170000E+03	6.055380E-16	2.751354E-17
7.180000E+03	6.116642E-16	2.773940E-17
7.190000E+03	6.175278E-16	2.794782E-17
7.200000E+03	6.230848E-16	2.813612E-17
7.210000E+03	6.282722E-16	2.830072E-17
7.220000E+03	6.330405E-16	2.843855E-17
7.230000E+03	6.373217E-16	2.854567E-17
7.240000E+03	6.410637E-16	2.861879E-17
7.250000E+03	6.441982E-16	2.865389E-17
7.260000E+03	6.466756E-16	2.864774E-17
7.270000E+03	6.484333E-16	2.859657E-17
7.280000E+03	6.494312E-16	2.849761E-17
7.290000E+03	6.496279E-16	2.834810E-17
7.300000E+03	6.489911E-16	2.814573E-17
7.310000E+03	6.474905E-16	2.788838E-17
7.320000E+03	6.451248E-16	2.757531E-17
7.330000E+03	6.418970E-16	2.720609E-17
7.340000E+03	6.378232E-16	2.678101E-17
7.350000E+03	6.329332E-16	2.630107E-17
7.360000E+03	6.272781E-16	2.576836E-17
7.370000E+03	6.209045E-16	2.518494E-17
7.380000E+03	6.138783E-16	2.455384E-17
7.390000E+03	6.062831E-16	2.387897E-17
7.400000E+03	5.982017E-16	2.316435E-17
7.410000E+03	5.897305E-16	2.241463E-17
7.420000E+03	5.809452E-16	2.163384E-17
7.430000E+03	5.719548E-16	2.082734E-17
7.440000E+03	5.628518E-16	1.999999E-17
7.450000E+03	5.537188E-16	1.915639E-17
7.460000E+03	5.446424E-16	1.830143E-17
7.470000E+03	5.357043E-16	1.743997E-17
7.480000E+03	5.269730E-16	1.657670E-17
7.490000E+03	5.185180E-16	1.571665E-17
7.500000E+03	5.104015E-16	1.486509E-17
7.510000E+03	5.026721E-16	1.402750E-17
7.520000E+03	4.953851E-16	1.321045E-17
7.530000E+03	4.885820E-16	1.242123E-17
7.540000E+03	4.822851E-16	1.166819E-17
7.550000E+03	4.765373E-16	1.096203E-17
7.560000E+03	4.713499E-16	1.031486E-17
7.570000E+03	4.667488E-16	9.741326E-18
7.580000E+03	4.627488E-16	9.257655E-18
7.590000E+03	4.593535E-16	8.880401E-18
7.600000E+03	4.565743E-16	8.624557E-18
7.610000E+03	4.544103E-16	8.500050E-18
7.620000E+03	4.528486E-16	8.508878E-18
7.630000E+03	4.518758E-16	8.644177E-18
7.640000E+03	4.514795E-16	8.891576E-18
7.650000E+03	4.516300E-16	9.231911E-18
7.660000E+03	4.523007E-16	9.644809E-18
7.670000E+03	4.534687E-16	1.011105E-17
7.680000E+03	4.550908E-16	1.061320E-17
7.690000E+03	4.571469E-16	1.113694E-17
7.700000E+03	4.595972E-16	1.166990E-17
7.710000E+03	4.624128E-16	1.220204E-17
7.720000E+03	4.655444E-16	1.272440E-17
7.730000E+03	4.689669E-16	1.322995E-17
7.740000E+03	4.726343E-16	1.371201E-17
7.750000E+03	4.765123E-16	1.416495E-17
7.760000E+03	4.805447E-16	1.458298E-17
