#wls	flux	fluxerr
1.588878E+03	5.761630E-19	3.017535E-20
1.628600E+03	5.791536E-19	3.027108E-20
1.668322E+03	5.715003E-19	2.980977E-20
1.708044E+03	5.533014E-19	2.880004E-20
1.747766E+03	5.249316E-19	2.726488E-20
1.787488E+03	4.861447E-19	2.519512E-20
1.827210E+03	4.376353E-19	2.263046E-20
1.866931E+03	3.806061E-19	1.963664E-20
1.906653E+03	3.179735E-19	1.636712E-20
1.946375E+03	2.540091E-19	1.304369E-20
1.986097E+03	1.943410E-19	9.955543E-21
2.025819E+03	1.444853E-19	7.383343E-21
2.065541E+03	1.079424E-19	5.502111E-21
2.105263E+03	8.524940E-20	4.334270E-21
2.144985E+03	7.463429E-20	3.784683E-21
2.184707E+03	7.371981E-20	3.728385E-21
2.224429E+03	8.051942E-20	4.061269E-21
2.264151E+03	9.339013E-20	4.697488E-21
2.303873E+03	1.108510E-19	5.560155E-21
2.343595E+03	1.316012E-19	6.582170E-21
2.383317E+03	1.547764E-19	7.718896E-21
2.423039E+03	1.802071E-19	8.960715E-21
2.462761E+03	2.083224E-19	1.032777E-20
2.502483E+03	2.399849E-19	1.186135E-20
2.542205E+03	2.762350E-19	1.361096E-20
2.581927E+03	3.183426E-19	1.563668E-20
2.621648E+03	3.678816E-19	1.801268E-20
2.661370E+03	4.271020E-19	2.084506E-20
2.701092E+03	4.995202E-19	2.430004E-20
2.740814E+03	5.895946E-19	2.858721E-20
2.780536E+03	7.028471E-19	3.396455E-20
2.820258E+03	8.457906E-19	4.073402E-20
2.859980E+03	1.025668E-18	4.922824E-20
2.899702E+03	1.250821E-18	5.982734E-20
2.939424E+03	1.530321E-18	7.294057E-20
2.979146E+03	1.874042E-18	8.900901E-20
2.989076E+03	1.971280E-18	9.354438E-20
2.999007E+03	2.073431E-18	9.830444E-20
3.008937E+03	2.180678E-18	1.032971E-19
3.018868E+03	2.293352E-18	1.085375E-19
3.028798E+03	2.412221E-18	1.140612E-19
3.038729E+03	2.538183E-18	1.199098E-19
3.048659E+03	2.671432E-18	1.260916E-19
3.058590E+03	2.812185E-18	1.326158E-19
3.068520E+03	2.960985E-18	1.395071E-19
3.078451E+03	3.117270E-18	1.467379E-19
3.088381E+03	3.282374E-18	1.543702E-19
3.098312E+03	3.455272E-18	1.623545E-19
3.108242E+03	3.636944E-18	1.707359E-19
3.118173E+03	3.827571E-18	1.795217E-19
3.128103E+03	4.026832E-18	1.886957E-19
3.138034E+03	4.234811E-18	1.982607E-19
3.147964E+03	4.452624E-18	2.082679E-19
3.157895E+03	4.679318E-18	2.186714E-19
3.167825E+03	4.915453E-18	2.294963E-19
3.177756E+03	5.161029E-18	2.407412E-19
3.187686E+03	5.416619E-18	2.524317E-19
3.197617E+03	5.680872E-18	2.645038E-19
3.207547E+03	5.954190E-18	2.769747E-19
3.217478E+03	6.236974E-18	2.898622E-19
3.227408E+03	6.528169E-18	3.031160E-19
3.237339E+03	6.827994E-18	3.167452E-19
3.247269E+03	7.135065E-18	3.306846E-19
3.257200E+03	7.450162E-18	3.449693E-19
3.267130E+03	7.769914E-18	3.594425E-19
3.277061E+03	8.095587E-18	3.741620E-19
3.286991E+03	8.425012E-18	3.890269E-19
3.296922E+03	8.756601E-18	4.039636E-19
3.306852E+03	9.088509E-18	4.188868E-19
3.316783E+03	9.419618E-18	4.337450E-19
3.326713E+03	9.746700E-18	4.483898E-19
3.336643E+03	1.006721E-17	4.627049E-19
3.346574E+03	1.038046E-17	4.766592E-19
3.356504E+03	1.068154E-17	4.900290E-19
3.366435E+03	1.096952E-17	5.027730E-19
3.376365E+03	1.124030E-17	5.147056E-19
3.386296E+03	1.149082E-17	5.256880E-19
3.396226E+03	1.171804E-17	5.355852E-19
3.406157E+03	1.192023E-17	5.443204E-19
3.416087E+03	1.209485E-17	5.517812E-19
3.426018E+03	1.223971E-17	5.578714E-19
3.435948E+03	1.235313E-17	5.625179E-19
3.445879E+03	1.243401E-17	5.656752E-19
3.455809E+03	1.248208E-17	5.673353E-19
3.465740E+03	1.249907E-17	5.675807E-19
3.475670E+03	1.248643E-17	5.664808E-19
3.485601E+03	1.244510E-17	5.640827E-19
3.495531E+03	1.237948E-17	5.605890E-19
3.505462E+03	1.229020E-17	5.560308E-19
3.515392E+03	1.218287E-17	5.506654E-19
3.525323E+03	1.205743E-17	5.444917E-19
3.535253E+03	1.191856E-17	5.377231E-19
3.545184E+03	1.176900E-17	5.304853E-19
3.555114E+03	1.161231E-17	5.229389E-19
3.565045E+03	1.144945E-17	5.151290E-19
3.574975E+03	1.128398E-17	5.072153E-19
3.584906E+03	1.111935E-17	4.993536E-19
3.594836E+03	1.095820E-17	4.916622E-19
3.604767E+03	1.080251E-17	4.842295E-19
3.614697E+03	1.065653E-17	4.772444E-19
3.624628E+03	1.052166E-17	4.707688E-19
3.634558E+03	1.040219E-17	4.649933E-19
3.644489E+03	1.030045E-17	4.600195E-19
3.654419E+03	1.021957E-17	4.559850E-19
3.664350E+03	1.016398E-17	4.530847E-19
3.674280E+03	1.013583E-17	4.514107E-19
3.684211E+03	1.013923E-17	4.511435E-19
3.694141E+03	1.017792E-17	4.524444E-19
3.704071E+03	1.025583E-17	4.554841E-19
3.714002E+03	1.037720E-17	4.604455E-19
3.723932E+03	1.054706E-17	4.675465E-19
3.733863E+03	1.077025E-17	4.769952E-19
3.743793E+03	1.105140E-17	4.889898E-19
3.753724E+03	1.139602E-17	5.037665E-19
3.763654E+03	1.181107E-17	5.216254E-19
3.773585E+03	1.230157E-17	5.427782E-19
3.783515E+03	1.287493E-17	5.675426E-19
3.793446E+03	1.353625E-17	5.961328E-19
3.803376E+03	1.429276E-17	6.288563E-19
3.813307E+03	1.514938E-17	6.659164E-19
3.823237E+03	1.611064E-17	7.075002E-19
3.833168E+03	1.717975E-17	7.537352E-19
3.843098E+03	1.835879E-17	8.046983E-19
3.853029E+03	1.964604E-17	8.603013E-19
3.862959E+03	2.103767E-17	9.203619E-19
3.872890E+03	2.252741E-17	9.845933E-19
3.882820E+03	2.410377E-17	1.052481E-18
3.892751E+03	2.575320E-17	1.123423E-18
3.902681E+03	2.745556E-17	1.196531E-18
3.912612E+03	2.919191E-17	1.270974E-18
3.922542E+03	3.093415E-17	1.345526E-18
3.932473E+03	3.265563E-17	1.419026E-18
3.942403E+03	3.432821E-17	1.490256E-18
3.952334E+03	3.592108E-17	1.557884E-18
3.962264E+03	3.740416E-17	1.620618E-18
3.972195E+03	3.875335E-17	1.677428E-18
3.982125E+03	3.994357E-17	1.727246E-18
3.992056E+03	4.095849E-17	1.769386E-18
4.001986E+03	4.178528E-17	1.803317E-18
4.011917E+03	4.242006E-17	1.828896E-18
4.021847E+03	4.286314E-17	1.846159E-18
4.031778E+03	4.312241E-17	1.855472E-18
4.041708E+03	4.321007E-17	1.857381E-18
4.051639E+03	4.314518E-17	1.852729E-18
4.061569E+03	4.294864E-17	1.842430E-18
4.071500E+03	4.264085E-17	1.827377E-18
4.081430E+03	4.224716E-17	1.808668E-18
4.091360E+03	4.178667E-17	1.787133E-18
4.101291E+03	4.128228E-17	1.763758E-18
4.111221E+03	4.075257E-17	1.739342E-18
4.121152E+03	4.021083E-17	1.714455E-18
4.131082E+03	3.967284E-17	1.689771E-18
4.141013E+03	3.914908E-17	1.665736E-18
4.150943E+03	3.864802E-17	1.642709E-18
4.160874E+03	3.817789E-17	1.621034E-18
4.170804E+03	3.774252E-17	1.600870E-18
4.180735E+03	3.734665E-17	1.582416E-18
4.190665E+03	3.699107E-17	1.565697E-18
4.200596E+03	3.667771E-17	1.550791E-18
4.210526E+03	3.640582E-17	1.537661E-18
4.220457E+03	3.617459E-17	1.526267E-18
4.230387E+03	3.598161E-17	1.516500E-18
4.240318E+03	3.582709E-17	1.508367E-18
4.250248E+03	3.571073E-17	1.501848E-18
4.260179E+03	3.563340E-17	1.496975E-18
4.270109E+03	3.559795E-17	1.493862E-18
4.280040E+03	3.560775E-17	1.492645E-18
4.289970E+03	3.566769E-17	1.493522E-18
4.299901E+03	3.578241E-17	1.496680E-18
4.309831E+03	3.595651E-17	1.502305E-18
4.319762E+03	3.619577E-17	1.510629E-18
4.329692E+03	3.650324E-17	1.521769E-18
4.339623E+03	3.688506E-17	1.535973E-18
4.349553E+03	3.734519E-17	1.553394E-18
4.359484E+03	3.788905E-17	1.574246E-18
4.369414E+03	3.852471E-17	1.598852E-18
4.379345E+03	3.925978E-17	1.627516E-18
4.389275E+03	4.010686E-17	1.660743E-18
4.399206E+03	4.107740E-17	1.698992E-18
4.409136E+03	4.218477E-17	1.742797E-18
4.419067E+03	4.344091E-17	1.792631E-18
4.428997E+03	4.485835E-17	1.848989E-18
4.438928E+03	4.644658E-17	1.912238E-18
4.448858E+03	4.821077E-17	1.982565E-18
4.458788E+03	5.015191E-17	2.059986E-18
4.468719E+03	5.226623E-17	2.144318E-18
4.478649E+03	5.454231E-17	2.235070E-18
4.488580E+03	5.696301E-17	2.331514E-18
4.498510E+03	5.950482E-17	2.432667E-18
4.508441E+03	6.213824E-17	2.537307E-18
4.518371E+03	6.482827E-17	2.643992E-18
4.528302E+03	6.753531E-17	2.751099E-18
4.538232E+03	7.021594E-17	2.856857E-18
4.548163E+03	7.282370E-17	2.959382E-18
4.558093E+03	7.531068E-17	3.056739E-18
4.568024E+03	7.762898E-17	3.147002E-18
4.577954E+03	7.973192E-17	3.228306E-18
4.587885E+03	8.157624E-17	3.298933E-18
4.597815E+03	8.312502E-17	3.357428E-18
4.607746E+03	8.434465E-17	3.402481E-18
4.617676E+03	8.521412E-17	3.433292E-18
4.627607E+03	8.571700E-17	3.449254E-18
4.637537E+03	8.585006E-17	3.450291E-18
4.647468E+03	8.561482E-17	3.436520E-18
4.657398E+03	8.502229E-17	3.408438E-18
4.667329E+03	8.409005E-17	3.366804E-18
4.677259E+03	8.284080E-17	3.312577E-18
4.687190E+03	8.130680E-17	3.247095E-18
4.697120E+03	7.952717E-17	3.171962E-18
4.707051E+03	7.755051E-17	3.089153E-18
4.716981E+03	7.543389E-17	3.000968E-18
4.726912E+03	7.323960E-17	2.909906E-18
4.736842E+03	7.103652E-17	2.818712E-18
4.746773E+03	6.889593E-17	2.730213E-18
4.756703E+03	6.688843E-17	2.647195E-18
4.766634E+03	6.508546E-17	2.572461E-18
4.776564E+03	6.355087E-17	2.508500E-18
4.786495E+03	6.234467E-17	2.457637E-18
4.796425E+03	6.152265E-17	2.422018E-18
4.806356E+03	6.113088E-17	2.403392E-18
4.816286E+03	6.121188E-17	2.403364E-18
4.826216E+03	6.180144E-17	2.423262E-18
4.836147E+03	6.292830E-17	2.464130E-18
4.846077E+03	6.461026E-17	2.526580E-18
4.856008E+03	6.685598E-17	2.610862E-18
4.865938E+03	6.965429E-17	2.716450E-18
4.875869E+03	7.297377E-17	2.842032E-18
4.885799E+03	7.675546E-17	2.985232E-18
4.895730E+03	8.090348E-17	3.142249E-18
4.905660E+03	8.528481E-17	3.307867E-18
4.915591E+03	8.972689E-17	3.475362E-18
4.925521E+03	9.403169E-17	3.637066E-18
4.935452E+03	9.798117E-17	3.784576E-18
4.945382E+03	1.013726E-16	3.910128E-18
4.955313E+03	1.040362E-16	4.007277E-18
4.965243E+03	1.058667E-16	4.072087E-18
4.975174E+03	1.068371E-16	4.103656E-18
4.985104E+03	1.069971E-16	4.104031E-18
4.995035E+03	1.064687E-16	4.078016E-18
5.004965E+03	1.054166E-16	4.032020E-18
5.014896E+03	1.040303E-16	3.973368E-18
5.024826E+03	1.024909E-16	3.909025E-18
5.034757E+03	1.009643E-16	3.845328E-18
5.044687E+03	9.958333E-17	3.787334E-18
5.054618E+03	9.844464E-17	3.738688E-18
5.064548E+03	9.761326E-17	3.701817E-18
5.074479E+03	9.712320E-17	3.677959E-18
5.084409E+03	9.698177E-17	3.667337E-18
5.094340E+03	9.717949E-17	3.669535E-18
5.104270E+03	9.769385E-17	3.683651E-18
5.114201E+03	9.849619E-17	3.708554E-18
5.124131E+03	9.955555E-17	3.743033E-18
5.134062E+03	1.008475E-16	3.786130E-18
5.143992E+03	1.023501E-16	3.836985E-18
5.153923E+03	1.040535E-16	3.895200E-18
5.163853E+03	1.059526E-16	3.960543E-18
5.173784E+03	1.080483E-16	4.033025E-18
5.183714E+03	1.103482E-16	4.112895E-18
5.193644E+03	1.128610E-16	4.200442E-18
5.203575E+03	1.155897E-16	4.295749E-18
5.213505E+03	1.185371E-16	4.398884E-18
5.223436E+03	1.216933E-16	4.509444E-18
5.233366E+03	1.250420E-16	4.626795E-18
5.243297E+03	1.285540E-16	4.749832E-18
5.253227E+03	1.321863E-16	4.876940E-18
5.263158E+03	1.358882E-16	5.006231E-18
5.273088E+03	1.395937E-16	5.135276E-18
5.283019E+03	1.432358E-16	5.261609E-18
5.292949E+03	1.467528E-16	5.382977E-18
5.302880E+03	1.500856E-16	5.497247E-18
5.312810E+03	1.531961E-16	5.603049E-18
5.322741E+03	1.560741E-16	5.700051E-18
5.332671E+03	1.587356E-16	5.788876E-18
5.342602E+03	1.612228E-16	5.871100E-18
5.352532E+03	1.636143E-16	5.949605E-18
5.362463E+03	1.660002E-16	6.027686E-18
5.372393E+03	1.684742E-16	6.108742E-18
5.382324E+03	1.711204E-16	6.195803E-18
5.392254E+03	1.740003E-16	6.291075E-18
5.402185E+03	1.771421E-16	6.395539E-18
5.412115E+03	1.805331E-16	6.508705E-18
5.422046E+03	1.841214E-16	6.628663E-18
5.431976E+03	1.878174E-16	6.752169E-18
5.441907E+03	1.915069E-16	6.875110E-18
5.451837E+03	1.950605E-16	6.992856E-18
5.461768E+03	1.983306E-16	7.100142E-18
5.471698E+03	2.011752E-16	7.191945E-18
5.481629E+03	2.034638E-16	7.263668E-18
5.491559E+03	2.050953E-16	7.311794E-18
5.501490E+03	2.059939E-16	7.333733E-18
5.511420E+03	2.061036E-16	7.327593E-18
5.521351E+03	2.053675E-16	7.291474E-18
5.531281E+03	2.037223E-16	7.223255E-18
5.541212E+03	2.010959E-16	7.120513E-18
5.551142E+03	1.974068E-16	6.980501E-18
5.561072E+03	1.925924E-16	6.801162E-18
5.571003E+03	1.866365E-16	6.582078E-18
5.580933E+03	1.796017E-16	6.325606E-18
5.590864E+03	1.716660E-16	6.038157E-18
5.600794E+03	1.631014E-16	5.729400E-18
5.610725E+03	1.542711E-16	5.412159E-18
5.620655E+03	1.455924E-16	5.101085E-18
5.630586E+03	1.374834E-16	4.810773E-18
5.640516E+03	1.303183E-16	4.554220E-18
5.650447E+03	1.244079E-16	4.342139E-18
5.660377E+03	1.199960E-16	4.182855E-18
5.670308E+03	1.172577E-16	4.082267E-18
5.680238E+03	1.163141E-16	4.044356E-18
5.690169E+03	1.172542E-16	4.071983E-18
5.700099E+03	1.201437E-16	4.167185E-18
5.710030E+03	1.250169E-16	4.330896E-18
5.719960E+03	1.318760E-16	4.562953E-18
5.729891E+03	1.406789E-16	4.861651E-18
5.739821E+03	1.513208E-16	5.223140E-18
5.749752E+03	1.635983E-16	5.640193E-18
5.759682E+03	1.772079E-16	6.102166E-18
5.769613E+03	1.917427E-16	6.594915E-18
5.779543E+03	2.067023E-16	7.101156E-18
5.789474E+03	2.215265E-16	7.601630E-18
5.799404E+03	2.356487E-16	8.076954E-18
5.809335E+03	2.485521E-16	8.509524E-18
5.819265E+03	2.598055E-16	8.884762E-18
5.829196E+03	2.691209E-16	9.193030E-18
5.839126E+03	2.763517E-16	9.429559E-18
5.849057E+03	2.814757E-16	9.593839E-18
5.858987E+03	2.845936E-16	9.689544E-18
5.868918E+03	2.858801E-16	9.722847E-18
5.878848E+03	2.855608E-16	9.701610E-18
5.888779E+03	2.838620E-16	9.633693E-18
5.898709E+03	2.810192E-16	9.527230E-18
5.908640E+03	2.772398E-16	9.389363E-18
5.918570E+03	2.727216E-16	9.226881E-18
5.928500E+03	2.676316E-16	9.045499E-18
5.938431E+03	2.621317E-16	8.850736E-18
5.948361E+03	2.563824E-16	8.648046E-18
5.958292E+03	2.505351E-16	8.442548E-18
5.968222E+03	2.447274E-16	8.238877E-18
5.978153E+03	2.390978E-16	8.041679E-18
5.988083E+03	2.337587E-16	7.854710E-18
5.998014E+03	2.288085E-16	7.681245E-18
6.007944E+03	2.243133E-16	7.523450E-18
6.017875E+03	2.203209E-16	7.382884E-18
6.027805E+03	2.168545E-16	7.260275E-18
6.037736E+03	2.139238E-16	7.155896E-18
6.047666E+03	2.115164E-16	7.069280E-18
6.057597E+03	2.096141E-16	6.999779E-18
6.067527E+03	2.081913E-16	6.946484E-18
6.077458E+03	2.072133E-16	6.908207E-18
6.087388E+03	2.066301E-16	6.883242E-18
6.097319E+03	2.063794E-16	6.869484E-18
6.107249E+03	2.063860E-16	6.864410E-18
6.117180E+03	2.065545E-16	6.864825E-18
6.127110E+03	2.067809E-16	6.867268E-18
6.137041E+03	2.069521E-16	6.867985E-18
6.146971E+03	2.069608E-16	6.863422E-18
6.156902E+03	2.067056E-16	6.850232E-18
6.166832E+03	2.061185E-16	6.826179E-18
6.176763E+03	2.051616E-16	6.790037E-18
6.186693E+03	2.038421E-16	6.742058E-18
6.196624E+03	2.022067E-16	6.683813E-18
6.206554E+03	2.003333E-16	6.617884E-18
6.216485E+03	1.983226E-16	6.547608E-18
6.226415E+03	1.962820E-16	6.476528E-18
6.236346E+03	1.943161E-16	6.408099E-18
6.246276E+03	1.925210E-16	6.345470E-18
6.256207E+03	1.909641E-16	6.290854E-18
6.266137E+03	1.896932E-16	6.245806E-18
6.276068E+03	1.887258E-16	6.210884E-18
6.285998E+03	1.880488E-16	6.185642E-18
6.295929E+03	1.876197E-16	6.168663E-18
6.305859E+03	1.873614E-16	6.157400E-18
6.315789E+03	1.871722E-16	6.148507E-18
6.325720E+03	1.869274E-16	6.137881E-18
6.335650E+03	1.864821E-16	6.120768E-18
6.345581E+03	1.856982E-16	6.092645E-18
6.355511E+03	1.844501E-16	6.049401E-18
6.365442E+03	1.826524E-16	5.988251E-18
6.375372E+03	1.802785E-16	5.908340E-18
6.385303E+03	1.773636E-16	5.810838E-18
6.395233E+03	1.740318E-16	5.699819E-18
6.405164E+03	1.704635E-16	5.581201E-18
6.415094E+03	1.668919E-16	5.462619E-18
6.425025E+03	1.635754E-16	5.352520E-18
6.434955E+03	1.607797E-16	5.259589E-18
6.444886E+03	1.587473E-16	5.191731E-18
6.454816E+03	1.576891E-16	5.155826E-18
6.464747E+03	1.577748E-16	5.157390E-18
6.474677E+03	1.591350E-16	5.200666E-18
6.484608E+03	1.618447E-16	5.288078E-18
6.494538E+03	1.659373E-16	5.420689E-18
6.504469E+03	1.713893E-16	5.597706E-18
6.514399E+03	1.781213E-16	5.816519E-18
6.524330E+03	1.859901E-16	6.072434E-18
6.534260E+03	1.947955E-16	6.358908E-18
6.544191E+03	2.042750E-16	6.667362E-18
6.554121E+03	2.141127E-16	6.987494E-18
6.564052E+03	2.239675E-16	7.308172E-18
6.573982E+03	2.334865E-16	7.617893E-18
6.583913E+03	2.423347E-16	7.905746E-18
6.593843E+03	2.502252E-16	8.162383E-18
6.603774E+03	2.569391E-16	8.380681E-18
6.613704E+03	2.623344E-16	8.556029E-18
6.623635E+03	2.663580E-16	8.686705E-18
6.633565E+03	2.690230E-16	8.773151E-18
6.643496E+03	2.704053E-16	8.817850E-18
6.653426E+03	2.706088E-16	8.824200E-18
6.663357E+03	2.697584E-16	8.796272E-18
6.673287E+03	2.679756E-16	8.738032E-18
6.683217E+03	2.653710E-16	8.653087E-18
6.693148E+03	2.620376E-16	8.544468E-18
6.703078E+03	2.580542E-16	8.414734E-18
6.713009E+03	2.534923E-16	8.266216E-18
6.722939E+03	2.484254E-16	8.101308E-18
6.732870E+03	2.429285E-16	7.922444E-18
6.742800E+03	2.370959E-16	7.732691E-18
6.752731E+03	2.310456E-16	7.535895E-18
6.762661E+03	2.249110E-16	7.336396E-18
6.772592E+03	2.188488E-16	7.139301E-18
6.782522E+03	2.130265E-16	6.950073E-18
6.792453E+03	2.076260E-16	6.774637E-18
6.802383E+03	2.028265E-16	6.618845E-18
6.812314E+03	1.988096E-16	6.488627E-18
6.822244E+03	1.957433E-16	6.389473E-18
6.832175E+03	1.937707E-16	6.326061E-18
6.842105E+03	1.930185E-16	6.302551E-18
6.852036E+03	1.935707E-16	6.321698E-18
6.861966E+03	1.954756E-16	6.385109E-18
6.871897E+03	1.987354E-16	6.492883E-18
6.881827E+03	2.032986E-16	6.643365E-18
6.891758E+03	2.090524E-16	6.832901E-18
6.901688E+03	2.158328E-16	7.056168E-18
6.911619E+03	2.233975E-16	7.305269E-18
6.921549E+03	2.314598E-16	7.570859E-18
6.931480E+03	2.396811E-16	7.841880E-18
6.941410E+03	2.477006E-16	8.106538E-18
6.951341E+03	2.551641E-16	8.353248E-18
6.961271E+03	2.617601E-16	8.571803E-18
6.971202E+03	2.672438E-16	8.754161E-18
6.981132E+03	2.714560E-16	8.895089E-18
6.991063E+03	2.743316E-16	8.992411E-18
7.000993E+03	2.759102E-16	9.047388E-18
7.010924E+03	2.762933E-16	9.063307E-18
7.020854E+03	2.756618E-16	9.046067E-18
7.030785E+03	2.742274E-16	9.002576E-18
7.040715E+03	2.722100E-16	8.940027E-18
7.050645E+03	2.698352E-16	8.865806E-18
7.060576E+03	2.672983E-16	8.786319E-18
7.070506E+03	2.647772E-16	8.707404E-18
7.080437E+03	2.624114E-16	8.633656E-18
7.090367E+03	2.603168E-16	8.568891E-18
7.100298E+03	2.585787E-16	8.515931E-18
7.110228E+03	2.572510E-16	8.476566E-18
7.120159E+03	2.563747E-16	8.452176E-18
7.130089E+03	2.559675E-16	8.443362E-18
7.140020E+03	2.560233E-16	8.449956E-18
7.149950E+03	2.565248E-16	8.471409E-18
7.159881E+03	2.574318E-16	8.506427E-18
7.169811E+03	2.586883E-16	8.553182E-18
7.179742E+03	2.602344E-16	8.609719E-18
7.189672E+03	2.619870E-16	8.673312E-18
7.199603E+03	2.638649E-16	8.741290E-18
7.209533E+03	2.657762E-16	8.810617E-18
7.219464E+03	2.676324E-16	8.878367E-18
7.229394E+03	2.693464E-16	8.941653E-18
7.239325E+03	2.708502E-16	8.998210E-18
7.249255E+03	2.720750E-16	9.045742E-18
7.259186E+03	2.729783E-16	9.082817E-18
7.269116E+03	2.735302E-16	9.108423E-18
7.279047E+03	2.737266E-16	9.122391E-18
7.288977E+03	2.735858E-16	9.125317E-18
7.298908E+03	2.731470E-16	9.118477E-18
7.308838E+03	2.724660E-16	9.103710E-18
7.318769E+03	2.716110E-16	9.083282E-18
7.328699E+03	2.706566E-16	9.059676E-18
7.338630E+03	2.696760E-16	9.035333E-18
7.348560E+03	2.687310E-16	9.012325E-18
7.358491E+03	2.678780E-16	8.992547E-18
7.368421E+03	2.671487E-16	8.977079E-18
7.378352E+03	2.665591E-16	8.966471E-18
7.388282E+03	2.660996E-16	8.960417E-18
7.398213E+03	2.657388E-16	8.957869E-18
7.408143E+03	2.654158E-16	8.956792E-18
7.418073E+03	2.650688E-16	8.955100E-18
7.428004E+03	2.646060E-16	8.949688E-18
7.437934E+03	2.639340E-16	8.937380E-18
7.447865E+03	2.629580E-16	8.914944E-18
7.457795E+03	2.615941E-16	8.879490E-18
7.467726E+03	2.597701E-16	8.828517E-18
7.477656E+03	2.574306E-16	8.760083E-18
7.487587E+03	2.545664E-16	8.673799E-18
7.497517E+03	2.511998E-16	8.570355E-18
7.507448E+03	2.473862E-16	8.451569E-18
7.517378E+03	2.432368E-16	8.321167E-18
7.527309E+03	2.388977E-16	8.184090E-18
7.537239E+03	2.345354E-16	8.046015E-18
7.547170E+03	2.303345E-16	7.913261E-18
7.557100E+03	2.264958E-16	7.792748E-18
7.567031E+03	2.232205E-16	7.691448E-18
7.576961E+03	2.207005E-16	7.616063E-18
7.586892E+03	2.191094E-16	7.572693E-18
7.596822E+03	2.185674E-16	7.565646E-18
7.606753E+03	2.191448E-16	7.597518E-18
7.616683E+03	2.208405E-16	7.668455E-18
7.626614E+03	2.236126E-16	7.777184E-18
7.636544E+03	2.273634E-16	7.920481E-18
7.646475E+03	2.319685E-16	8.094182E-18
7.656405E+03	2.372647E-16	8.292729E-18
7.666336E+03	2.430734E-16	8.510007E-18
7.676266E+03	2.492109E-16	8.739663E-18
7.686197E+03	2.554984E-16	8.975487E-18
7.696127E+03	2.617643E-16	9.211478E-18
7.706058E+03	2.678711E-16	9.442793E-18
