#wls	flux	fluxerr
1.588878E+03	5.003874E-20	2.968969E-21
1.628600E+03	4.948201E-20	2.920693E-21
1.668322E+03	4.812042E-20	2.825174E-21
1.708044E+03	4.602703E-20	2.687461E-21
1.747766E+03	4.325746E-20	2.511531E-21
1.787488E+03	3.981625E-20	2.298367E-21
1.827210E+03	3.574204E-20	2.050933E-21
1.866931E+03	3.112427E-20	1.775065E-21
1.906653E+03	2.614342E-20	1.481660E-21
1.946375E+03	2.109613E-20	1.187919E-21
1.986097E+03	1.638537E-20	9.165640E-22
2.025819E+03	1.242627E-20	6.903877E-22
2.065541E+03	9.519263E-21	5.251972E-22
2.105263E+03	7.746828E-21	4.243550E-22
2.144985E+03	7.021346E-21	3.817947E-22
2.184707E+03	7.207166E-21	3.889502E-22
2.224429E+03	8.203893E-21	4.393226E-22
2.264151E+03	9.930309E-21	5.275609E-22
2.303873E+03	1.229461E-20	6.478605E-22
2.343595E+03	1.518530E-20	7.935150E-22
2.383317E+03	1.848897E-20	9.578921E-22
2.423039E+03	2.212979E-20	1.136471E-21
2.462761E+03	2.606862E-20	1.326720E-21
2.502483E+03	3.032254E-20	1.529004E-21
2.542205E+03	3.494735E-20	1.745575E-21
2.581927E+03	4.002247E-20	1.979739E-21
2.621648E+03	4.566492E-20	2.236468E-21
2.661370E+03	5.203339E-20	2.522512E-21
2.701092E+03	5.928233E-20	2.844076E-21
2.740814E+03	6.762991E-20	3.210049E-21
2.780536E+03	7.730529E-20	3.629361E-21
2.820258E+03	8.860121E-20	4.113379E-21
2.859980E+03	1.017968E-19	4.672189E-21
2.899702E+03	1.172864E-19	5.320465E-21
2.939424E+03	1.354321E-19	6.070543E-21
2.979146E+03	1.566639E-19	6.936914E-21
2.989076E+03	1.625201E-19	7.173971E-21
2.999007E+03	1.685974E-19	7.419111E-21
3.008937E+03	1.749022E-19	7.672510E-21
3.018868E+03	1.814715E-19	7.935692E-21
3.028798E+03	1.883581E-19	8.210850E-21
3.038729E+03	1.956028E-19	8.499611E-21
3.048659E+03	2.032286E-19	8.802826E-21
3.058590E+03	2.112415E-19	9.120589E-21
3.068520E+03	2.196226E-19	9.451922E-21
3.078451E+03	2.283958E-19	9.797689E-21
3.088381E+03	2.375642E-19	1.015786E-20
3.098312E+03	2.471067E-19	1.053136E-20
3.108242E+03	2.570740E-19	1.092018E-20
3.118173E+03	2.674201E-19	1.132219E-20
3.128103E+03	2.781724E-19	1.173839E-20
3.138034E+03	2.893607E-19	1.216984E-20
3.147964E+03	3.009351E-19	1.261429E-20
3.157895E+03	3.129253E-19	1.307279E-20
3.167825E+03	3.253648E-19	1.354655E-20
3.177756E+03	3.381993E-19	1.403315E-20
3.187686E+03	3.514934E-19	1.453507E-20
3.197617E+03	3.652229E-19	1.505111E-20
3.207547E+03	3.793944E-19	1.558138E-20
3.217478E+03	3.940495E-19	1.612736E-20
3.227408E+03	4.091643E-19	1.668789E-20
3.237339E+03	4.247501E-19	1.726321E-20
3.247269E+03	4.408555E-19	1.785511E-20
3.257200E+03	4.574988E-19	1.846409E-20
3.267130E+03	4.746612E-19	1.908917E-20
3.277061E+03	4.923642E-19	1.973099E-20
3.286991E+03	5.106729E-19	2.039192E-20
3.296922E+03	5.296190E-19	2.107296E-20
3.306852E+03	5.492393E-19	2.177530E-20
3.316783E+03	5.695765E-19	2.250033E-20
3.326713E+03	5.906341E-19	2.324790E-20
3.336643E+03	6.125573E-19	2.402340E-20
3.346574E+03	6.353188E-19	2.482538E-20
3.356504E+03	6.590857E-19	2.566002E-20
3.366435E+03	6.838458E-19	2.652640E-20
3.376365E+03	7.097924E-19	2.743158E-20
3.386296E+03	7.369854E-19	2.837737E-20
3.396226E+03	7.656008E-19	2.937000E-20
3.406157E+03	7.957264E-19	3.041222E-20
3.416087E+03	8.275184E-19	3.150936E-20
3.426018E+03	8.612113E-19	3.266961E-20
3.435948E+03	8.969472E-19	3.389754E-20
3.445879E+03	9.350080E-19	3.520293E-20
3.455809E+03	9.756248E-19	3.659346E-20
3.465740E+03	1.018949E-18	3.807370E-20
3.475670E+03	1.065039E-18	3.964476E-20
3.485601E+03	1.114092E-18	4.131275E-20
3.495531E+03	1.166316E-18	4.308417E-20
3.505462E+03	1.221713E-18	4.495777E-20
3.515392E+03	1.280580E-18	4.694311E-20
3.525323E+03	1.343001E-18	4.904183E-20
3.535253E+03	1.409138E-18	5.125844E-20
3.545184E+03	1.479250E-18	5.360072E-20
3.555114E+03	1.553434E-18	5.607063E-20
3.565045E+03	1.631878E-18	5.867323E-20
3.574975E+03	1.714870E-18	6.141720E-20
3.584906E+03	1.802626E-18	6.430832E-20
3.594836E+03	1.895365E-18	6.735254E-20
3.604767E+03	1.993211E-18	7.055224E-20
3.614697E+03	2.096611E-18	7.392116E-20
3.624628E+03	2.205592E-18	7.745806E-20
3.634558E+03	2.320630E-18	8.117739E-20
3.644489E+03	2.441744E-18	8.507743E-20
3.654419E+03	2.569434E-18	8.917310E-20
3.664350E+03	2.703973E-18	9.347125E-20
3.674280E+03	2.845499E-18	9.797385E-20
3.684211E+03	2.994271E-18	1.026870E-19
3.694141E+03	3.150690E-18	1.076216E-19
3.704071E+03	3.314867E-18	1.127784E-19
3.714002E+03	3.487200E-18	1.181677E-19
3.723932E+03	3.667930E-18	1.237945E-19
3.733863E+03	3.857282E-18	1.296630E-19
3.743793E+03	4.055459E-18	1.357767E-19
3.753724E+03	4.262645E-18	1.421381E-19
3.763654E+03	4.478984E-18	1.487485E-19
3.773585E+03	4.704588E-18	1.556080E-19
3.783515E+03	4.939538E-18	1.627156E-19
3.793446E+03	5.184065E-18	1.700752E-19
3.803376E+03	5.437951E-18	1.776760E-19
3.813307E+03	5.701346E-18	1.855191E-19
3.823237E+03	5.973663E-18	1.935817E-19
3.833168E+03	6.255394E-18	2.018763E-19
3.843098E+03	6.545811E-18	2.103757E-19
3.853029E+03	6.844830E-18	2.190738E-19
3.862959E+03	7.151782E-18	2.279461E-19
3.872890E+03	7.466439E-18	2.369819E-19
3.882820E+03	7.788252E-18	2.461611E-19
3.892751E+03	8.116598E-18	2.554612E-19
3.902681E+03	8.450493E-18	2.648488E-19
3.912612E+03	8.789451E-18	2.743065E-19
3.922542E+03	9.132664E-18	2.838072E-19
3.932473E+03	9.479275E-18	2.933228E-19
3.942403E+03	9.828388E-18	3.028242E-19
3.952334E+03	1.017877E-17	3.122726E-19
3.962264E+03	1.052980E-17	3.216488E-19
3.972195E+03	1.088058E-17	3.309251E-19
3.982125E+03	1.123023E-17	3.400747E-19
3.992056E+03	1.157793E-17	3.490732E-19
4.001986E+03	1.192252E-17	3.578873E-19
4.011917E+03	1.226369E-17	3.665079E-19
4.021847E+03	1.260046E-17	3.749080E-19
4.031778E+03	1.293235E-17	3.830746E-19
4.041708E+03	1.325934E-17	3.910092E-19
4.051639E+03	1.358120E-17	3.987070E-19
4.061569E+03	1.389710E-17	4.061454E-19
4.071500E+03	1.420742E-17	4.133383E-19
4.081430E+03	1.451237E-17	4.202935E-19
4.091360E+03	1.481227E-17	4.270225E-19
4.101291E+03	1.510720E-17	4.335295E-19
4.111221E+03	1.539815E-17	4.398447E-19
4.121152E+03	1.568546E-17	4.459794E-19
4.131082E+03	1.596960E-17	4.519482E-19
4.141013E+03	1.625229E-17	4.578008E-19
4.150943E+03	1.653382E-17	4.635457E-19
4.160874E+03	1.681533E-17	4.692156E-19
4.170804E+03	1.709766E-17	4.748332E-19
4.180735E+03	1.738288E-17	4.804559E-19
4.190665E+03	1.767158E-17	4.860986E-19
4.200596E+03	1.796517E-17	4.917983E-19
4.210526E+03	1.826513E-17	4.975936E-19
4.220457E+03	1.857257E-17	5.035121E-19
4.230387E+03	1.888909E-17	5.095939E-19
4.240318E+03	1.921593E-17	5.158686E-19
4.250248E+03	1.955522E-17	5.223894E-19
4.260179E+03	1.990841E-17	5.291895E-19
4.270109E+03	2.027746E-17	5.363154E-19
4.280040E+03	2.066370E-17	5.437959E-19
4.289970E+03	2.107032E-17	5.517081E-19
4.299901E+03	2.149878E-17	5.600814E-19
4.309831E+03	2.195293E-17	5.690074E-19
4.319762E+03	2.243541E-17	5.785443E-19
4.329692E+03	2.295024E-17	5.887835E-19
4.339623E+03	2.350199E-17	5.998295E-19
4.349553E+03	2.409549E-17	6.117900E-19
4.359484E+03	2.473645E-17	6.247933E-19
4.369414E+03	2.542694E-17	6.388726E-19
4.379345E+03	2.616602E-17	6.539847E-19
4.389275E+03	2.695250E-17	6.700815E-19
4.399206E+03	2.778468E-17	6.871024E-19
4.409136E+03	2.866172E-17	7.050089E-19
4.419067E+03	2.958062E-17	7.237102E-19
4.428997E+03	3.054066E-17	7.431728E-19
4.438928E+03	3.153929E-17	7.633193E-19
4.448858E+03	3.257412E-17	7.840771E-19
4.458788E+03	3.364112E-17	8.053364E-19
4.468719E+03	3.473792E-17	8.270286E-19
4.478649E+03	3.585986E-17	8.490325E-19
4.488580E+03	3.700161E-17	8.712135E-19
4.498510E+03	3.815773E-17	8.934370E-19
4.508441E+03	3.932275E-17	9.155709E-19
4.518371E+03	4.048874E-17	9.374281E-19
4.528302E+03	4.164912E-17	9.588561E-19
4.538232E+03	4.279623E-17	9.796817E-19
4.548163E+03	4.392148E-17	9.997140E-19
4.558093E+03	4.501683E-17	1.018779E-18
4.568024E+03	4.607426E-17	1.036707E-18
4.577954E+03	4.708677E-17	1.053356E-18
4.587885E+03	4.804644E-17	1.068566E-18
4.597815E+03	4.894598E-17	1.082197E-18
4.607746E+03	4.978117E-17	1.094178E-18
4.617676E+03	5.054590E-17	1.104399E-18
4.627607E+03	5.123744E-17	1.112829E-18
4.637537E+03	5.185362E-17	1.119448E-18
4.647468E+03	5.239360E-17	1.124267E-18
4.657398E+03	5.285714E-17	1.127310E-18
4.667329E+03	5.324765E-17	1.128677E-18
4.677259E+03	5.356673E-17	1.128432E-18
4.687190E+03	5.382025E-17	1.126724E-18
4.697120E+03	5.401207E-17	1.123658E-18
4.707051E+03	5.414997E-17	1.119419E-18
4.716981E+03	5.424020E-17	1.114155E-18
4.726912E+03	5.429028E-17	1.108040E-18
4.736842E+03	5.430812E-17	1.101247E-18
4.746773E+03	5.430324E-17	1.093983E-18
4.756703E+03	5.428218E-17	1.086386E-18
4.766634E+03	5.425351E-17	1.078632E-18
4.776564E+03	5.422475E-17	1.070874E-18
4.786495E+03	5.420291E-17	1.063248E-18
4.796425E+03	5.419511E-17	1.055891E-18
4.806356E+03	5.420634E-17	1.048893E-18
4.816286E+03	5.424223E-17	1.042354E-18
4.826216E+03	5.430754E-17	1.036357E-18
4.836147E+03	5.440398E-17	1.030921E-18
4.846077E+03	5.453518E-17	1.026102E-18
4.856008E+03	5.470240E-17	1.021911E-18
4.865938E+03	5.490599E-17	1.018338E-18
4.875869E+03	5.514534E-17	1.015360E-18
4.885799E+03	5.541976E-17	1.012948E-18
4.895730E+03	5.572632E-17	1.011036E-18
4.905660E+03	5.606284E-17	1.009572E-18
4.915591E+03	5.642659E-17	1.008495E-18
4.925521E+03	5.681218E-17	1.007700E-18
4.935452E+03	5.721757E-17	1.007142E-18
4.945382E+03	5.763690E-17	1.006712E-18
4.955313E+03	5.806643E-17	1.006340E-18
4.965243E+03	5.850182E-17	1.005947E-18
4.975174E+03	5.893971E-17	1.005476E-18
4.985104E+03	5.937556E-17	1.004850E-18
4.995035E+03	5.980749E-17	1.004039E-18
5.004965E+03	6.023106E-17	1.002973E-18
5.014896E+03	6.064458E-17	1.001627E-18
5.024826E+03	6.104607E-17	9.999768E-19
5.034757E+03	6.143480E-17	9.980159E-19
5.044687E+03	6.180963E-17	9.957334E-19
5.054618E+03	6.216895E-17	9.931113E-19
5.064548E+03	6.251218E-17	9.901490E-19
5.074479E+03	6.284042E-17	9.868728E-19
5.084409E+03	6.315170E-17	9.832607E-19
5.094340E+03	6.344718E-17	9.793401E-19
5.104270E+03	6.372475E-17	9.750878E-19
5.114201E+03	6.398451E-17	9.705155E-19
5.124131E+03	6.422636E-17	9.656323E-19
5.134062E+03	6.444759E-17	9.604082E-19
5.143992E+03	6.464843E-17	9.548581E-19
5.153923E+03	6.482654E-17	9.489593E-19
5.163853E+03	6.497931E-17	9.426869E-19
5.173784E+03	6.510645E-17	9.360503E-19
5.183714E+03	6.520429E-17	9.290112E-19
5.193644E+03	6.527237E-17	9.215785E-19
5.203575E+03	6.530706E-17	9.137169E-19
5.213505E+03	6.530640E-17	9.054163E-19
5.223436E+03	6.527028E-17	8.966926E-19
5.233366E+03	6.519485E-17	8.875113E-19
5.243297E+03	6.508063E-17	8.778978E-19
5.253227E+03	6.492621E-17	8.678521E-19
5.263158E+03	6.473231E-17	8.574025E-19
5.273088E+03	6.449789E-17	8.465537E-19
5.283019E+03	6.422420E-17	8.353402E-19
5.292949E+03	6.391476E-17	8.238252E-19
5.302880E+03	6.356997E-17	8.120296E-19
5.312810E+03	6.319488E-17	8.000333E-19
5.322741E+03	6.279302E-17	7.878936E-19
5.332671E+03	6.236938E-17	7.756849E-19
5.342602E+03	6.192896E-17	7.634786E-19
5.352532E+03	6.147962E-17	7.513785E-19
5.362463E+03	6.102600E-17	7.394464E-19
5.372393E+03	6.057694E-17	7.277916E-19
5.382324E+03	6.013937E-17	7.164975E-19
5.392254E+03	5.972123E-17	7.056563E-19
5.402185E+03	5.933066E-17	6.953596E-19
5.412115E+03	5.897602E-17	6.856983E-19
5.422046E+03	5.866600E-17	6.767646E-19
5.431976E+03	5.840920E-17	6.686470E-19
5.441907E+03	5.821739E-17	6.614666E-19
5.451837E+03	5.810109E-17	6.553216E-19
5.461768E+03	5.806710E-17	6.502625E-19
5.471698E+03	5.810101E-17	6.461026E-19
5.481629E+03	5.818671E-17	6.426419E-19
5.491559E+03	5.831020E-17	6.397093E-19
5.501490E+03	5.845985E-17	6.371639E-19
5.511420E+03	5.862420E-17	6.348702E-19
5.521351E+03	5.879388E-17	6.327186E-19
5.531281E+03	5.896170E-17	6.306255E-19
5.541212E+03	5.912134E-17	6.285181E-19
5.551142E+03	5.926893E-17	6.263513E-19
5.561072E+03	5.940016E-17	6.240762E-19
5.571003E+03	5.951616E-17	6.217016E-19
5.580933E+03	5.961634E-17	6.192180E-19
5.590864E+03	5.970392E-17	6.166558E-19
5.600794E+03	5.978303E-17	6.140534E-19
5.610725E+03	5.985993E-17	6.114706E-19
5.620655E+03	5.994060E-17	6.089627E-19
5.630586E+03	6.003343E-17	6.066085E-19
5.640516E+03	6.014739E-17	6.044908E-19
5.650447E+03	6.029033E-17	6.026795E-19
5.660377E+03	6.047092E-17	6.012513E-19
5.670308E+03	6.069821E-17	6.002852E-19
5.680238E+03	6.098004E-17	5.998464E-19
5.690169E+03	6.132347E-17	5.999913E-19
5.700099E+03	6.173447E-17	6.007644E-19
5.710030E+03	6.221855E-17	6.022048E-19
5.719960E+03	6.277827E-17	6.043224E-19
5.729891E+03	6.341542E-17	6.071190E-19
5.739821E+03	6.413078E-17	6.105870E-19
5.749752E+03	6.492341E-17	6.147026E-19
5.759682E+03	6.578734E-17	6.193950E-19
5.769613E+03	6.671958E-17	6.246224E-19
5.779543E+03	6.771202E-17	6.302970E-19
5.789474E+03	6.875575E-17	6.363249E-19
5.799404E+03	6.984016E-17	6.425992E-19
5.809335E+03	7.095328E-17	6.490031E-19
5.819265E+03	7.208200E-17	6.554127E-19
5.829196E+03	7.321229E-17	6.616990E-19
5.839126E+03	7.432964E-17	6.677323E-19
5.849057E+03	7.542032E-17	6.733938E-19
5.858987E+03	7.646808E-17	6.785462E-19
5.868918E+03	7.746010E-17	6.830866E-19
5.878848E+03	7.838372E-17	6.869173E-19
5.888779E+03	7.922770E-17	6.899567E-19
5.898709E+03	7.998165E-17	6.921337E-19
5.908640E+03	8.063914E-17	6.934145E-19
5.918570E+03	8.119507E-17	6.937789E-19
5.928500E+03	8.164572E-17	6.932202E-19
5.938431E+03	8.199074E-17	6.917618E-19
5.948361E+03	8.223327E-17	6.894568E-19
5.958292E+03	8.237666E-17	6.863601E-19
5.968222E+03	8.242734E-17	6.825516E-19
5.978153E+03	8.239361E-17	6.781258E-19
5.988083E+03	8.228425E-17	6.731798E-19
5.998014E+03	8.211245E-17	6.678444E-19
6.007944E+03	8.188711E-17	6.622141E-19
6.017875E+03	8.162392E-17	6.564356E-19
6.027805E+03	8.133272E-17	6.506067E-19
6.037736E+03	8.102848E-17	6.448643E-19
6.047666E+03	8.072291E-17	6.393168E-19
6.057597E+03	8.042837E-17	6.340764E-19
6.067527E+03	8.015658E-17	6.292492E-19
6.077458E+03	7.991869E-17	6.249350E-19
6.087388E+03	7.972404E-17	6.212193E-19
6.097319E+03	7.958331E-17	6.181976E-19
6.107249E+03	7.950447E-17	6.159445E-19
6.117180E+03	7.949685E-17	6.145454E-19
6.127110E+03	7.956732E-17	6.140679E-19
6.137041E+03	7.972455E-17	6.145945E-19
6.146971E+03	7.997520E-17	6.161939E-19
6.156902E+03	8.032744E-17	6.189487E-19
6.166832E+03	8.079061E-17	6.229527E-19
6.176763E+03	8.137601E-17	6.283180E-19
6.186693E+03	8.209907E-17	6.351923E-19
6.196624E+03	8.297607E-17	6.437345E-19
6.206554E+03	8.401142E-17	6.540157E-19
6.216485E+03	8.517603E-17	6.658358E-19
6.226415E+03	8.644069E-17	6.789811E-19
6.236346E+03	8.778199E-17	6.932815E-19
6.246276E+03	8.917518E-17	7.085521E-19
6.256207E+03	9.059800E-17	7.246236E-19
6.266137E+03	9.202954E-17	7.413317E-19
6.276068E+03	9.345133E-17	7.585262E-19
6.285998E+03	9.484250E-17	7.760308E-19
6.295929E+03	9.618849E-17	7.937138E-19
6.305859E+03	9.747267E-17	8.114200E-19
6.315789E+03	9.868257E-17	8.290219E-19
6.325720E+03	9.980501E-17	8.463799E-19
6.335650E+03	1.008301E-16	8.633757E-19
6.345581E+03	1.017510E-16	8.799135E-19
6.355511E+03	1.025607E-16	8.958882E-19
6.365442E+03	1.032576E-16	9.112432E-19
6.375372E+03	1.038372E-16	9.258877E-19
6.385303E+03	1.043002E-16	9.397814E-19
6.395233E+03	1.046480E-16	9.528848E-19
6.405164E+03	1.048819E-16	9.651586E-19
6.415094E+03	1.050098E-16	9.766266E-19
6.425025E+03	1.050325E-16	9.872460E-19
6.434955E+03	1.049583E-16	9.970479E-19
6.444886E+03	1.047920E-16	1.006031E-18
6.454816E+03	1.045413E-16	1.014227E-18
6.464747E+03	1.042128E-16	1.021658E-18
6.474677E+03	1.038114E-16	1.028336E-18
6.484608E+03	1.033461E-16	1.034313E-18
6.494538E+03	1.028200E-16	1.039586E-18
6.504469E+03	1.022427E-16	1.044224E-18
6.514399E+03	1.016149E-16	1.048206E-18
6.524330E+03	1.009437E-16	1.051580E-18
6.534260E+03	1.002332E-16	1.054367E-18
6.544191E+03	9.948704E-17	1.056584E-18
6.554121E+03	9.870839E-17	1.058245E-18
6.564052E+03	9.790167E-17	1.059383E-18
6.573982E+03	9.706703E-17	1.059983E-18
6.583913E+03	9.621141E-17	1.060109E-18
6.593843E+03	9.533498E-17	1.059751E-18
6.603774E+03	9.444217E-17	1.058949E-18
6.613704E+03	9.353624E-17	1.057731E-18
6.623635E+03	9.262074E-17	1.056131E-18
6.633565E+03	9.170083E-17	1.054204E-18
6.643496E+03	9.077946E-17	1.051981E-18
6.653426E+03	8.986244E-17	1.049529E-18
6.663357E+03	8.895464E-17	1.046905E-18
6.673287E+03	8.806128E-17	1.044173E-18
6.683217E+03	8.718780E-17	1.041404E-18
6.693148E+03	8.633985E-17	1.038669E-18
6.703078E+03	8.552450E-17	1.036064E-18
6.713009E+03	8.474644E-17	1.033653E-18
6.722939E+03	8.401281E-17	1.031536E-18
6.732870E+03	8.332832E-17	1.029782E-18
6.742800E+03	8.269998E-17	1.028492E-18
6.752731E+03	8.213462E-17	1.027767E-18
6.762661E+03	8.163524E-17	1.027660E-18
6.772592E+03	8.120812E-17	1.028267E-18
6.782522E+03	8.085924E-17	1.029681E-18
6.792453E+03	8.059175E-17	1.031961E-18
6.802383E+03	8.040955E-17	1.035175E-18
6.812314E+03	8.031723E-17	1.039402E-18
6.822244E+03	8.031649E-17	1.044681E-18
6.832175E+03	8.041076E-17	1.051077E-18
6.842105E+03	8.060057E-17	1.058615E-18
6.852036E+03	8.088811E-17	1.067342E-18
6.861966E+03	8.127376E-17	1.077280E-18
6.871897E+03	8.175594E-17	1.088425E-18
6.881827E+03	8.233362E-17	1.100780E-18
6.891758E+03	8.300752E-17	1.114369E-18
6.901688E+03	8.377270E-17	1.129141E-18
6.911619E+03	8.462724E-17	1.145084E-18
6.921549E+03	8.556605E-17	1.162140E-18
6.931480E+03	8.658591E-17	1.180277E-18
6.941410E+03	8.768174E-17	1.199437E-18
6.951341E+03	8.884654E-17	1.219533E-18
6.961271E+03	9.007543E-17	1.240505E-18
6.971202E+03	9.136039E-17	1.262252E-18
6.981132E+03	9.269567E-17	1.284700E-18
6.991063E+03	9.407101E-17	1.307712E-18
7.000993E+03	9.548283E-17	1.331243E-18
7.010924E+03	9.691877E-17	1.355125E-18
7.020854E+03	9.837347E-17	1.379286E-18
7.030785E+03	9.983693E-17	1.403589E-18
7.040715E+03	1.012990E-16	1.427892E-18
7.050645E+03	1.027538E-16	1.452117E-18
7.060576E+03	1.041893E-16	1.476093E-18
7.070506E+03	1.055979E-16	1.499715E-18
7.080437E+03	1.069689E-16	1.522831E-18
7.090367E+03	1.082945E-16	1.545332E-18
7.100298E+03	1.095636E-16	1.567059E-18
7.110228E+03	1.107685E-16	1.587902E-18
7.120159E+03	1.118962E-16	1.607677E-18
7.130089E+03	1.129389E-16	1.626272E-18
7.140020E+03	1.138872E-16	1.643550E-18
7.149950E+03	1.147301E-16	1.659353E-18
7.159881E+03	1.154605E-16	1.673578E-18
7.169811E+03	1.160664E-16	1.686049E-18
7.179742E+03	1.165432E-16	1.696700E-18
7.189672E+03	1.168820E-16	1.705399E-18
7.199603E+03	1.170746E-16	1.712025E-18
7.209533E+03	1.171175E-16	1.716522E-18
7.219464E+03	1.170064E-16	1.718826E-18
7.229394E+03	1.167349E-16	1.718839E-18
7.239325E+03	1.163052E-16	1.716588E-18
7.249255E+03	1.157139E-16	1.712017E-18
7.259186E+03	1.149646E-16	1.705172E-18
7.269116E+03	1.140607E-16	1.696099E-18
7.279047E+03	1.130057E-16	1.684839E-18
7.288977E+03	1.118062E-16	1.671484E-18
7.298908E+03	1.104706E-16	1.656149E-18
7.308838E+03	1.090086E-16	1.638971E-18
7.318769E+03	1.074312E-16	1.620105E-18
7.328699E+03	1.057508E-16	1.599723E-18
7.338630E+03	1.039785E-16	1.577988E-18
7.348560E+03	1.021301E-16	1.555124E-18
7.358491E+03	1.002180E-16	1.531314E-18
7.368421E+03	9.825864E-17	1.506796E-18
7.378352E+03	9.626509E-17	1.481763E-18
7.388282E+03	9.425210E-17	1.456433E-18
7.398213E+03	9.223554E-17	1.431045E-18
7.408143E+03	9.022663E-17	1.405768E-18
7.418073E+03	8.824181E-17	1.380853E-18
7.428004E+03	8.629267E-17	1.356482E-18
7.437934E+03	8.439303E-17	1.332871E-18
7.447865E+03	8.255201E-17	1.310169E-18
7.457795E+03	8.078346E-17	1.288601E-18
7.467726E+03	7.909674E-17	1.268325E-18
7.477656E+03	7.750204E-17	1.249518E-18
7.487587E+03	7.601037E-17	1.232372E-18
7.497517E+03	7.463012E-17	1.217042E-18
7.507448E+03	7.337208E-17	1.203719E-18
7.517378E+03	7.224497E-17	1.192564E-18
7.527309E+03	7.126051E-17	1.183798E-18
7.537239E+03	7.043042E-17	1.177645E-18
7.547170E+03	6.976713E-17	1.174353E-18
7.557100E+03	6.928777E-17	1.174257E-18
7.567031E+03	6.900508E-17	1.177628E-18
7.576961E+03	6.890483E-17	1.184284E-18
7.586892E+03	6.896750E-17	1.193949E-18
7.596822E+03	6.917689E-17	1.206396E-18
7.606753E+03	6.951900E-17	1.221432E-18
7.616683E+03	6.998154E-17	1.238889E-18
7.626614E+03	7.055318E-17	1.258614E-18
7.636544E+03	7.122427E-17	1.280475E-18
7.646475E+03	7.198204E-17	1.304285E-18
7.656405E+03	7.281834E-17	1.329931E-18
7.666336E+03	7.372143E-17	1.357232E-18
7.676266E+03	7.468181E-17	1.386044E-18
7.686197E+03	7.568613E-17	1.416142E-18
7.696127E+03	7.672563E-17	1.447385E-18
7.706058E+03	7.778777E-17	1.479550E-18
