#wls	flux	fluxerr
1.588878E+03	2.148434E-20	7.448366E-22
1.628600E+03	2.204113E-20	7.628330E-22
1.668322E+03	2.228278E-20	7.698429E-22
1.708044E+03	2.220050E-20	7.656191E-22
1.747766E+03	2.177377E-20	7.495150E-22
1.787488E+03	2.095106E-20	7.198280E-22
1.827210E+03	1.968747E-20	6.750986E-22
1.866931E+03	1.796645E-20	6.148549E-22
1.906653E+03	1.582847E-20	5.405797E-22
1.946375E+03	1.340541E-20	4.568660E-22
1.986097E+03	1.092494E-20	3.715289E-22
2.025819E+03	8.691756E-21	2.949320E-22
2.065541E+03	6.976689E-21	2.362003E-22
2.105263E+03	5.940872E-21	2.006657E-22
2.144985E+03	5.621341E-21	1.894216E-22
2.184707E+03	6.007880E-21	2.019536E-22
2.224429E+03	7.095459E-21	2.379169E-22
2.264151E+03	8.876536E-21	2.968766E-22
2.303873E+03	1.130750E-20	3.771893E-22
2.343595E+03	1.430019E-20	4.757367E-22
2.383317E+03	1.773302E-20	5.883168E-22
2.423039E+03	2.149928E-20	7.112582E-22
2.462761E+03	2.550613E-20	8.413818E-22
2.502483E+03	2.971056E-20	9.771796E-22
2.542205E+03	3.409055E-20	1.117846E-21
2.581927E+03	3.865545E-20	1.263606E-21
2.621648E+03	4.343658E-20	1.415396E-21
2.661370E+03	4.848275E-20	1.574703E-21
2.701092E+03	5.385772E-20	1.743474E-21
2.740814E+03	5.964958E-20	1.924410E-21
2.780536E+03	6.593039E-20	2.119653E-21
2.820258E+03	7.282994E-20	2.333154E-21
2.859980E+03	8.044997E-20	2.567904E-21
2.899702E+03	8.896500E-20	2.829150E-21
2.939424E+03	9.853637E-20	3.121629E-21
2.979146E+03	1.093696E-19	3.451382E-21
2.989076E+03	1.122929E-19	3.540142E-21
2.999007E+03	1.153339E-19	3.632413E-21
3.008937E+03	1.184572E-19	3.727068E-21
3.018868E+03	1.217163E-19	3.825779E-21
3.028798E+03	1.251039E-19	3.928300E-21
3.038729E+03	1.287017E-19	4.037185E-21
3.048659E+03	1.324664E-19	4.151055E-21
3.058590E+03	1.364461E-19	4.271394E-21
3.068520E+03	1.405950E-19	4.396749E-21
3.078451E+03	1.449628E-19	4.528659E-21
3.088381E+03	1.495021E-19	4.665614E-21
3.098312E+03	1.542664E-19	4.809272E-21
3.108242E+03	1.592060E-19	4.958056E-21
3.118173E+03	1.643791E-19	5.113756E-21
3.128103E+03	1.697625E-19	5.275633E-21
3.138034E+03	1.753305E-19	5.442858E-21
3.147964E+03	1.811479E-19	5.617422E-21
3.157895E+03	1.871580E-19	5.797546E-21
3.167825E+03	1.934308E-19	5.985369E-21
3.177756E+03	1.999064E-19	6.179015E-21
3.187686E+03	2.066601E-19	6.380780E-21
3.197617E+03	2.136656E-19	6.589827E-21
3.207547E+03	2.208926E-19	6.805191E-21
3.217478E+03	2.284249E-19	7.029430E-21
3.227408E+03	2.361936E-19	7.260386E-21
3.237339E+03	2.442888E-19	7.500801E-21
3.247269E+03	2.526373E-19	7.748392E-21
3.257200E+03	2.613359E-19	8.006096E-21
3.267130E+03	2.703538E-19	8.272929E-21
3.277061E+03	2.796545E-19	8.547739E-21
3.286991E+03	2.893459E-19	8.833788E-21
3.296922E+03	2.993426E-19	9.128425E-21
3.306852E+03	3.097604E-19	9.435143E-21
3.316783E+03	3.205639E-19	9.752814E-21
3.326713E+03	3.317110E-19	1.008011E-20
3.336643E+03	3.433304E-19	1.042091E-20
3.346574E+03	3.553834E-19	1.077397E-20
3.356504E+03	3.678239E-19	1.113785E-20
3.366435E+03	3.807948E-19	1.151683E-20
3.376365E+03	3.941855E-19	1.190749E-20
3.386296E+03	4.081493E-19	1.231442E-20
3.396226E+03	4.226408E-19	1.273618E-20
3.406157E+03	4.376053E-19	1.317106E-20
3.416087E+03	4.532130E-19	1.362412E-20
3.426018E+03	4.694135E-19	1.409376E-20
3.435948E+03	4.861460E-19	1.457810E-20
3.445879E+03	5.035991E-19	1.508271E-20
3.455809E+03	5.217164E-19	1.560583E-20
3.465740E+03	5.404301E-19	1.614534E-20
3.475670E+03	5.599488E-19	1.670740E-20
3.485601E+03	5.802093E-19	1.729002E-20
3.495531E+03	6.011352E-19	1.789085E-20
3.505462E+03	6.229575E-19	1.851665E-20
3.515392E+03	6.456045E-19	1.916520E-20
3.525323E+03	6.689901E-19	1.983385E-20
3.535253E+03	6.933689E-19	2.053002E-20
3.545184E+03	7.186603E-19	2.125123E-20
3.555114E+03	7.447661E-19	2.199446E-20
3.565045E+03	7.719674E-19	2.276788E-20
3.574975E+03	8.001721E-19	2.356867E-20
3.584906E+03	8.292674E-19	2.439336E-20
3.594836E+03	8.595648E-19	2.525101E-20
3.604767E+03	8.909567E-19	2.613829E-20
3.614697E+03	9.233154E-19	2.705133E-20
3.624628E+03	9.569835E-19	2.800004E-20
3.634558E+03	9.918376E-19	2.898063E-20
3.644489E+03	1.027731E-18	2.998867E-20
3.654419E+03	1.065039E-18	3.103501E-20
3.664350E+03	1.103622E-18	3.211532E-20
3.674280E+03	1.143310E-18	3.322458E-20
3.684211E+03	1.184516E-18	3.437457E-20
3.694141E+03	1.227077E-18	3.556040E-20
3.704071E+03	1.270800E-18	3.677631E-20
3.714002E+03	1.316137E-18	3.803519E-20
3.723932E+03	1.362899E-18	3.933141E-20
3.733863E+03	1.410867E-18	4.065847E-20
3.743793E+03	1.460534E-18	4.203036E-20
3.753724E+03	1.511685E-18	4.344072E-20
3.763654E+03	1.564068E-18	4.488209E-20
3.773585E+03	1.618222E-18	4.636978E-20
3.783515E+03	1.673899E-18	4.789648E-20
3.793446E+03	1.730816E-18	4.945384E-20
3.803376E+03	1.789558E-18	5.105842E-20
3.813307E+03	1.849845E-18	5.270203E-20
3.823237E+03	1.911353E-18	5.437520E-20
3.833168E+03	1.974722E-18	5.609597E-20
3.843098E+03	2.039635E-18	5.785509E-20
3.853029E+03	2.105725E-18	5.964197E-20
3.862959E+03	2.173690E-18	6.147618E-20
3.872890E+03	2.243170E-18	6.334733E-20
3.882820E+03	2.313757E-18	6.524370E-20
3.892751E+03	2.386210E-18	6.718648E-20
3.902681E+03	2.460125E-18	6.916409E-20
3.912612E+03	2.535049E-18	7.116363E-20
3.922542E+03	2.611805E-18	7.320798E-20
3.932473E+03	2.689945E-18	7.528441E-20
3.942403E+03	2.768967E-18	7.737869E-20
3.952334E+03	2.849766E-18	7.951563E-20
3.962264E+03	2.931846E-18	8.168121E-20
3.972195E+03	3.014656E-18	8.385995E-20
3.982125E+03	3.099166E-18	8.607864E-20
3.992056E+03	3.184833E-18	8.832201E-20
4.001986E+03	3.271056E-18	9.057329E-20
4.011917E+03	3.358883E-18	9.286133E-20
4.021847E+03	3.447139E-18	9.515354E-20
4.031778E+03	3.536929E-18	9.748022E-20
4.041708E+03	3.627628E-18	9.982406E-20
4.051639E+03	3.718553E-18	1.021661E-19
4.061569E+03	3.810896E-18	1.045391E-19
4.071500E+03	3.903324E-18	1.069063E-19
4.081430E+03	3.997086E-18	1.093018E-19
4.091360E+03	4.091483E-18	1.117063E-19
4.101291E+03	4.185747E-18	1.140990E-19
4.111221E+03	4.281223E-18	1.165164E-19
4.121152E+03	4.376424E-18	1.189178E-19
4.131082E+03	4.472755E-18	1.213416E-19
4.141013E+03	4.569438E-18	1.237664E-19
4.150943E+03	4.665630E-18	1.261694E-19
4.160874E+03	4.762841E-18	1.285915E-19
4.170804E+03	4.859423E-18	1.309881E-19
4.180735E+03	4.956955E-18	1.334018E-19
4.190665E+03	5.053729E-18	1.357866E-19
4.200596E+03	5.151392E-18	1.381867E-19
4.210526E+03	5.249064E-18	1.405786E-19
4.220457E+03	5.345804E-18	1.429370E-19
4.230387E+03	5.443363E-18	1.453088E-19
4.240318E+03	5.539889E-18	1.476446E-19
4.250248E+03	5.637204E-18	1.499930E-19
4.260179E+03	5.733401E-18	1.523033E-19
4.270109E+03	5.830373E-18	1.546258E-19
4.280040E+03	5.926156E-18	1.569085E-19
4.289970E+03	6.022718E-18	1.592035E-19
4.299901E+03	6.118039E-18	1.614575E-19
4.309831E+03	6.214156E-18	1.637243E-19
4.319762E+03	6.308994E-18	1.659492E-19
4.329692E+03	6.404657E-18	1.681877E-19
4.339623E+03	6.499008E-18	1.703838E-19
4.349553E+03	6.594211E-18	1.725941E-19
4.359484E+03	6.688053E-18	1.747609E-19
4.369414E+03	6.782734E-18	1.769417E-19
4.379345E+03	6.875949E-18	1.790764E-19
4.389275E+03	6.969934E-18	1.812234E-19
4.399206E+03	7.062299E-18	1.833206E-19
4.409136E+03	7.155333E-18	1.854275E-19
4.419067E+03	7.246579E-18	1.874806E-19
4.428997E+03	7.337154E-18	1.895089E-19
4.438928E+03	7.428231E-18	1.915428E-19
4.448858E+03	7.517268E-18	1.935169E-19
4.458788E+03	7.606706E-18	1.954941E-19
4.468719E+03	7.693946E-18	1.974078E-19
4.478649E+03	7.781491E-18	1.993223E-19
4.488580E+03	7.866697E-18	2.011700E-19
4.498510E+03	7.950799E-18	2.029827E-19
4.508441E+03	8.035097E-18	2.047937E-19
4.518371E+03	8.116873E-18	2.065338E-19
4.528302E+03	8.197419E-18	2.082362E-19
4.538232E+03	8.278090E-18	2.099353E-19
4.548163E+03	8.356101E-18	2.115607E-19
4.558093E+03	8.432803E-18	2.131469E-19
4.568024E+03	8.509599E-18	2.147293E-19
4.577954E+03	8.583646E-18	2.162365E-19
4.587885E+03	8.656349E-18	2.177040E-19
4.597815E+03	8.729163E-18	2.191686E-19
4.607746E+03	8.799186E-18	2.205575E-19
4.617676E+03	8.867877E-18	2.219076E-19
4.627607E+03	8.936736E-18	2.232566E-19
4.637537E+03	9.002810E-18	2.245307E-19
4.647468E+03	9.067604E-18	2.257678E-19
4.657398E+03	9.132665E-18	2.270065E-19
4.667329E+03	9.194988E-18	2.281722E-19
4.677259E+03	9.256120E-18	2.293035E-19
4.687190E+03	9.316099E-18	2.304017E-19
4.697120E+03	9.376527E-18	2.315063E-19
4.707051E+03	9.434331E-18	2.325416E-19
4.716981E+03	9.491113E-18	2.335473E-19
4.726912E+03	9.546918E-18	2.345247E-19
4.736842E+03	9.601796E-18	2.354752E-19
4.746773E+03	9.657407E-18	2.364394E-19
4.756703E+03	9.710594E-18	2.373401E-19
4.766634E+03	9.763011E-18	2.382180E-19
4.776564E+03	9.814711E-18	2.390746E-19
4.786495E+03	9.865745E-18	2.399110E-19
4.796425E+03	9.917817E-18	2.407689E-19
4.806356E+03	9.967686E-18	2.415695E-19
4.816286E+03	1.001705E-17	2.423542E-19
4.826216E+03	1.006595E-17	2.431241E-19
4.836147E+03	1.011444E-17	2.438805E-19
4.846077E+03	1.016257E-17	2.446247E-19
4.856008E+03	1.021037E-17	2.453576E-19
4.865938E+03	1.025790E-17	2.460805E-19
4.875869E+03	1.030519E-17	2.467942E-19
4.885799E+03	1.035400E-17	2.475409E-19
4.895730E+03	1.040093E-17	2.482392E-19
4.905660E+03	1.044772E-17	2.489310E-19
4.915591E+03	1.049441E-17	2.496170E-19
4.925521E+03	1.054101E-17	2.502978E-19
4.935452E+03	1.058755E-17	2.509740E-19
4.945382E+03	1.063406E-17	2.516460E-19
4.955313E+03	1.068053E-17	2.523143E-19
4.965243E+03	1.072700E-17	2.529792E-19
4.975174E+03	1.077346E-17	2.536409E-19
4.985104E+03	1.081993E-17	2.542997E-19
4.995035E+03	1.086640E-17	2.549556E-19
5.004965E+03	1.091288E-17	2.556087E-19
5.014896E+03	1.095936E-17	2.562590E-19
5.024826E+03	1.100584E-17	2.569063E-19
5.034757E+03	1.105232E-17	2.575506E-19
5.044687E+03	1.109878E-17	2.581915E-19
5.054618E+03	1.114520E-17	2.588291E-19
5.064548E+03	1.119159E-17	2.594628E-19
5.074479E+03	1.123791E-17	2.600923E-19
5.084409E+03	1.128228E-17	2.606743E-19
5.094340E+03	1.132841E-17	2.612943E-19
5.104270E+03	1.137442E-17	2.619090E-19
5.114201E+03	1.142029E-17	2.625180E-19
5.124131E+03	1.146599E-17	2.631206E-19
5.134062E+03	1.151150E-17	2.637166E-19
5.143992E+03	1.155678E-17	2.643052E-19
5.153923E+03	1.160183E-17	2.648862E-19
5.163853E+03	1.164469E-17	2.654151E-19
5.173784E+03	1.168917E-17	2.659791E-19
5.183714E+03	1.173334E-17	2.665340E-19
5.193644E+03	1.177716E-17	2.670793E-19
5.203575E+03	1.182063E-17	2.676146E-19
5.213505E+03	1.186175E-17	2.680953E-19
5.223436E+03	1.190442E-17	2.686096E-19
5.233366E+03	1.194667E-17	2.691130E-19
5.243297E+03	1.198848E-17	2.696053E-19
5.253227E+03	1.202787E-17	2.700416E-19
5.263158E+03	1.206877E-17	2.705111E-19
5.273088E+03	1.210921E-17	2.709693E-19
5.283019E+03	1.214919E-17	2.714162E-19
5.292949E+03	1.218669E-17	2.718072E-19
5.302880E+03	1.222575E-17	2.722322E-19
5.312810E+03	1.226436E-17	2.726469E-19
5.322741E+03	1.230052E-17	2.730067E-19
5.332671E+03	1.233831E-17	2.734024E-19
5.342602E+03	1.237572E-17	2.737897E-19
5.352532E+03	1.241280E-17	2.741697E-19
5.362463E+03	1.244753E-17	2.744981E-19
5.372393E+03	1.248408E-17	2.748667E-19
5.382324E+03	1.251838E-17	2.751864E-19
5.392254E+03	1.255463E-17	2.755494E-19
5.402185E+03	1.259084E-17	2.759121E-19
5.412115E+03	1.262501E-17	2.762308E-19
5.422046E+03	1.266136E-17	2.765984E-19
5.431976E+03	1.269583E-17	2.769257E-19
5.441907E+03	1.273267E-17	2.773058E-19
5.451837E+03	1.276986E-17	2.776946E-19
5.461768E+03	1.280533E-17	2.780475E-19
5.471698E+03	1.284331E-17	2.784560E-19
5.481629E+03	1.287955E-17	2.788283E-19
5.491559E+03	1.291827E-17	2.792557E-19
5.501490E+03	1.295517E-17	2.796455E-19
5.511420E+03	1.299451E-17	2.800893E-19
5.521351E+03	1.303196E-17	2.804943E-19
5.531281E+03	1.307180E-17	2.809525E-19
5.541212E+03	1.310971E-17	2.813711E-19
5.551142E+03	1.314999E-17	2.818425E-19
5.561072E+03	1.318831E-17	2.822740E-19
5.571003E+03	1.322901E-17	2.827585E-19
5.580933E+03	1.326774E-17	2.832033E-19
5.590864E+03	1.330887E-17	2.837017E-19
5.600794E+03	1.334806E-17	2.841611E-19
5.610725E+03	1.338969E-17	2.846752E-19
5.620655E+03	1.342941E-17	2.851512E-19
5.630586E+03	1.346943E-17	2.856366E-19
5.640516E+03	1.351200E-17	2.861791E-19
5.650447E+03	1.355273E-17	2.866854E-19
5.660377E+03	1.359609E-17	2.872508E-19
5.670308E+03	1.363766E-17	2.877815E-19
5.680238E+03	1.367971E-17	2.883258E-19
5.690169E+03	1.372453E-17	2.889320E-19
5.700099E+03	1.376766E-17	2.895062E-19
5.710030E+03	1.381137E-17	2.900966E-19
5.719960E+03	1.385800E-17	2.907520E-19
5.729891E+03	1.390302E-17	2.913777E-19
5.739821E+03	1.394874E-17	2.920223E-19
5.749752E+03	1.399749E-17	2.927349E-19
5.759682E+03	1.404473E-17	2.934200E-19
5.769613E+03	1.409277E-17	2.941265E-19
5.779543E+03	1.414396E-17	2.949036E-19
5.789474E+03	1.419369E-17	2.956552E-19
5.799404E+03	1.424431E-17	2.964302E-19
5.809335E+03	1.429584E-17	2.972295E-19
5.819265E+03	1.435066E-17	2.981025E-19
5.829196E+03	1.440408E-17	2.989519E-19
5.839126E+03	1.445847E-17	2.998272E-19
5.849057E+03	1.451384E-17	3.007288E-19
5.858987E+03	1.457260E-17	3.017067E-19
5.868918E+03	1.462999E-17	3.026624E-19
5.878848E+03	1.468840E-17	3.036456E-19
5.888779E+03	1.474783E-17	3.046568E-19
5.898709E+03	1.480829E-17	3.056960E-19
5.908640E+03	1.487223E-17	3.068141E-19
5.918570E+03	1.493477E-17	3.079105E-19
5.928500E+03	1.499834E-17	3.090358E-19
5.938431E+03	1.506293E-17	3.101899E-19
5.948361E+03	1.512854E-17	3.113730E-19
5.958292E+03	1.519516E-17	3.125850E-19
5.968222E+03	1.526529E-17	3.138777E-19
5.978153E+03	1.533389E-17	3.151478E-19
5.988083E+03	1.540346E-17	3.164467E-19
5.998014E+03	1.547396E-17	3.177741E-19
6.007944E+03	1.554538E-17	3.191299E-19
6.017875E+03	1.561768E-17	3.205137E-19
6.027805E+03	1.569084E-17	3.219251E-19
6.037736E+03	1.576482E-17	3.233639E-19
6.047666E+03	1.583958E-17	3.248294E-19
6.057597E+03	1.591509E-17	3.263212E-19
6.067527E+03	1.599392E-17	3.278927E-19
6.077458E+03	1.607079E-17	3.294356E-19
6.087388E+03	1.614828E-17	3.310031E-19
6.097319E+03	1.622632E-17	3.325944E-19
6.107249E+03	1.630488E-17	3.342088E-19
6.117180E+03	1.638388E-17	3.358455E-19
6.127110E+03	1.646329E-17	3.375038E-19
6.137041E+03	1.654303E-17	3.391827E-19
6.146971E+03	1.662305E-17	3.408813E-19
6.156902E+03	1.670327E-17	3.425984E-19
6.166832E+03	1.678360E-17	3.443327E-19
6.176763E+03	1.686397E-17	3.460829E-19
6.186693E+03	1.694425E-17	3.478467E-19
6.196624E+03	1.702431E-17	3.496219E-19
6.206554E+03	1.710398E-17	3.514050E-19
6.216485E+03	1.718305E-17	3.531919E-19
6.226415E+03	1.725845E-17	3.549193E-19
6.236346E+03	1.733559E-17	3.566985E-19
6.246276E+03	1.741137E-17	3.584659E-19
6.256207E+03	1.748554E-17	3.602160E-19
6.266137E+03	1.755783E-17	3.619432E-19
6.276068E+03	1.762798E-17	3.636421E-19
6.285998E+03	1.769573E-17	3.653072E-19
6.295929E+03	1.776085E-17	3.669336E-19
6.305859E+03	1.782311E-17	3.685163E-19
6.315789E+03	1.788230E-17	3.700509E-19
6.325720E+03	1.793823E-17	3.715332E-19
6.335650E+03	1.798778E-17	3.728981E-19
6.345581E+03	1.803670E-17	3.742646E-19
6.355511E+03	1.808191E-17	3.755686E-19
6.365442E+03	1.812332E-17	3.768078E-19
6.375372E+03	1.816084E-17	3.779800E-19
6.385303E+03	1.819443E-17	3.790838E-19
6.395233E+03	1.822403E-17	3.801180E-19
6.405164E+03	1.824665E-17	3.810193E-19
6.415094E+03	1.826829E-17	3.819128E-19
6.425025E+03	1.828600E-17	3.827364E-19
6.434955E+03	1.829984E-17	3.834907E-19
6.444886E+03	1.830989E-17	3.841771E-19
6.454816E+03	1.831324E-17	3.847340E-19
6.464747E+03	1.831603E-17	3.852899E-19
6.474677E+03	1.831540E-17	3.857840E-19
6.484608E+03	1.831151E-17	3.862194E-19
6.494538E+03	1.830452E-17	3.865992E-19
6.504469E+03	1.829162E-17	3.868633E-19
6.514399E+03	1.827904E-17	3.871427E-19
6.524330E+03	1.826397E-17	3.873780E-19
6.534260E+03	1.824664E-17	3.875735E-19
6.544191E+03	1.822429E-17	3.876700E-19
6.554121E+03	1.820316E-17	3.877997E-19
6.564052E+03	1.818049E-17	3.879039E-19
6.573982E+03	1.815355E-17	3.879236E-19
6.583913E+03	1.812857E-17	3.879915E-19
6.593843E+03	1.810280E-17	3.880489E-19
6.603774E+03	1.807651E-17	3.881012E-19
6.613704E+03	1.804699E-17	3.880895E-19
6.623635E+03	1.802041E-17	3.881467E-19
6.633565E+03	1.799405E-17	3.882141E-19
6.643496E+03	1.796520E-17	3.882328E-19
6.653426E+03	1.794001E-17	3.883354E-19
6.663357E+03	1.791574E-17	3.884630E-19
6.673287E+03	1.788968E-17	3.885562E-19
6.683217E+03	1.786791E-17	3.887473E-19
6.693148E+03	1.784769E-17	3.889770E-19
6.703078E+03	1.782628E-17	3.891850E-19
6.713009E+03	1.780974E-17	3.895037E-19
6.722939E+03	1.779527E-17	3.898725E-19
6.732870E+03	1.778013E-17	3.902308E-19
6.742800E+03	1.777030E-17	3.907101E-19
6.752731E+03	1.776006E-17	3.911850E-19
6.762661E+03	1.775537E-17	3.917868E-19
6.772592E+03	1.775342E-17	3.924537E-19
6.782522E+03	1.775137E-17	3.931231E-19
6.792453E+03	1.775513E-17	3.939262E-19
6.802383E+03	1.775893E-17	3.947349E-19
6.812314E+03	1.776866E-17	3.956805E-19
6.822244E+03	1.777849E-17	3.966336E-19
6.832175E+03	1.779430E-17	3.977255E-19
6.842105E+03	1.781317E-17	3.988912E-19
6.852036E+03	1.783214E-17	4.000649E-19
6.861966E+03	1.785707E-17	4.013780E-19
6.871897E+03	1.788203E-17	4.026977E-19
6.881827E+03	1.791285E-17	4.041556E-19
6.891758E+03	1.794357E-17	4.056174E-19
6.901688E+03	1.798001E-17	4.072150E-19
6.911619E+03	1.801616E-17	4.088124E-19
6.921549E+03	1.805783E-17	4.105419E-19
6.931480E+03	1.809896E-17	4.122660E-19
6.941410E+03	1.814537E-17	4.141173E-19
6.951341E+03	1.819095E-17	4.159565E-19
6.961271E+03	1.824150E-17	4.179170E-19
6.971202E+03	1.829087E-17	4.198574E-19
6.981132E+03	1.834489E-17	4.219120E-19
6.991063E+03	1.839732E-17	4.239376E-19
7.000993E+03	1.845403E-17	4.260692E-19
7.010924E+03	1.850872E-17	4.281618E-19
7.020854E+03	1.856728E-17	4.303514E-19
7.030785E+03	1.862335E-17	4.324910E-19
7.040715E+03	1.868286E-17	4.347179E-19
7.050645E+03	1.873940E-17	4.368833E-19
7.060576E+03	1.879891E-17	4.391254E-19
7.070506E+03	1.885496E-17	4.412941E-19
7.080437E+03	1.891040E-17	4.434556E-19
7.090367E+03	1.896811E-17	4.456776E-19
7.100298E+03	1.902160E-17	4.478076E-19
7.110228E+03	1.907691E-17	4.499872E-19
7.120159E+03	1.912751E-17	4.520625E-19
7.130089E+03	1.917949E-17	4.541767E-19
7.140020E+03	1.922629E-17	4.561747E-19
7.149950E+03	1.927087E-17	4.581258E-19
7.159881E+03	1.931620E-17	4.601008E-19
7.169811E+03	1.935574E-17	4.619430E-19
7.179742E+03	1.939247E-17	4.637235E-19
7.189672E+03	1.942946E-17	4.655148E-19
7.199603E+03	1.946012E-17	4.671593E-19
7.209533E+03	1.949075E-17	4.688073E-19
7.219464E+03	1.951481E-17	4.703009E-19
7.229394E+03	1.953539E-17	4.717143E-19
7.239325E+03	1.955566E-17	4.731232E-19
7.249255E+03	1.956908E-17	4.743692E-19
7.259186E+03	1.957884E-17	4.755286E-19
7.269116E+03	1.958816E-17	4.766794E-19
7.279047E+03	1.959054E-17	4.776630E-19
7.288977E+03	1.958924E-17	4.785580E-19
7.298908E+03	1.958754E-17	4.794438E-19
7.308838E+03	1.957900E-17	4.801629E-19
7.318769E+03	1.956692E-17	4.807953E-19
7.328699E+03	1.955141E-17	4.813428E-19
7.338630E+03	1.953579E-17	4.818871E-19
7.348560E+03	1.951372E-17	4.822712E-19
7.358491E+03	1.948856E-17	4.825778E-19
7.368421E+03	1.946370E-17	4.828900E-19
7.378352E+03	1.943284E-17	4.830516E-19
7.388282E+03	1.939938E-17	4.831464E-19
7.398213E+03	1.936352E-17	4.831787E-19
7.408143E+03	1.932865E-17	4.832331E-19
7.418073E+03	1.928856E-17	4.831542E-19
7.428004E+03	1.924669E-17	4.830272E-19
7.437934E+03	1.920324E-17	4.828572E-19
7.447865E+03	1.916160E-17	4.827296E-19
7.457795E+03	1.911567E-17	4.824901E-19
7.467726E+03	1.906884E-17	4.822241E-19
7.477656E+03	1.902135E-17	4.819375E-19
7.487587E+03	1.897657E-17	4.817159E-19
7.497517E+03	1.892844E-17	4.814052E-19
7.507448E+03	1.888033E-17	4.810911E-19
7.517378E+03	1.883248E-17	4.807794E-19
7.527309E+03	1.878509E-17	4.804756E-19
7.537239E+03	1.873837E-17	4.801849E-19
7.547170E+03	1.869562E-17	4.799917E-19
7.557100E+03	1.865078E-17	4.797411E-19
7.567031E+03	1.860709E-17	4.795161E-19
7.576961E+03	1.856462E-17	4.793185E-19
7.586892E+03	1.852339E-17	4.791491E-19
7.596822E+03	1.848648E-17	4.790875E-19
7.606753E+03	1.844774E-17	4.789748E-19
7.616683E+03	1.841020E-17	4.788897E-19
7.626614E+03	1.837386E-17	4.788318E-19
7.636544E+03	1.833867E-17	4.788005E-19
7.646475E+03	1.830462E-17	4.787952E-19
7.656405E+03	1.827166E-17	4.788150E-19
7.666336E+03	1.823978E-17	4.788594E-19
7.676266E+03	1.821197E-17	4.790074E-19
7.686197E+03	1.818215E-17	4.790993E-19
7.696127E+03	1.815332E-17	4.792142E-19
7.706058E+03	1.812549E-17	4.793518E-19
