#wls	flux	fluxerr
1.600000E+03	2.228254E-15	3.360175E-19
1.640000E+03	2.337125E-15	3.524350E-19
1.680000E+03	2.448750E-15	3.692678E-19
1.720000E+03	2.562505E-15	3.864219E-19
1.760000E+03	2.677683E-15	4.037904E-19
1.800000E+03	2.793245E-15	4.212168E-19
1.840000E+03	2.907919E-15	4.385093E-19
1.880000E+03	3.020604E-15	4.555018E-19
1.920000E+03	3.129748E-15	4.719603E-19
1.960000E+03	3.234271E-15	4.877219E-19
2.000000E+03	3.334387E-15	5.028188E-19
2.040000E+03	3.434258E-15	5.178788E-19
2.080000E+03	3.554060E-15	5.359443E-19
2.120000E+03	3.728967E-15	5.623195E-19
2.160000E+03	3.924767E-15	5.918454E-19
2.200000E+03	4.113757E-15	6.203443E-19
2.240000E+03	4.281787E-15	6.456825E-19
2.280000E+03	4.428685E-15	6.678343E-19
2.320000E+03	4.551403E-15	6.863397E-19
2.360000E+03	4.648940E-15	7.010481E-19
2.400000E+03	4.726907E-15	7.128053E-19
2.440000E+03	4.789949E-15	7.223118E-19
2.480000E+03	4.841371E-15	7.300662E-19
2.520000E+03	4.881065E-15	7.360519E-19
2.560000E+03	4.903711E-15	7.394670E-19
2.600000E+03	4.895277E-15	7.381953E-19
2.640000E+03	4.842218E-15	7.301942E-19
2.680000E+03	4.752896E-15	7.167248E-19
2.720000E+03	4.653038E-15	7.016668E-19
2.760000E+03	4.561776E-15	6.879051E-19
2.800000E+03	4.490195E-15	6.771111E-19
2.840000E+03	4.445459E-15	6.703653E-19
2.880000E+03	4.431989E-15	6.683343E-19
2.920000E+03	4.453413E-15	6.715651E-19
2.960000E+03	4.513409E-15	6.806124E-19
3.000000E+03	4.615997E-15	6.960824E-19
3.010000E+03	4.648756E-15	7.010224E-19
3.020000E+03	4.684607E-15	7.064286E-19
3.030000E+03	4.723436E-15	7.122839E-19
3.040000E+03	4.765346E-15	7.186038E-19
3.050000E+03	4.810424E-15	7.254013E-19
3.060000E+03	4.858655E-15	7.326745E-19
3.070000E+03	4.909996E-15	7.404165E-19
3.080000E+03	4.964351E-15	7.486131E-19
3.090000E+03	5.021634E-15	7.572511E-19
3.100000E+03	5.081517E-15	7.662812E-19
3.110000E+03	5.143704E-15	7.756588E-19
3.120000E+03	5.207755E-15	7.853174E-19
3.130000E+03	5.272920E-15	7.951441E-19
3.140000E+03	5.338344E-15	8.050098E-19
3.150000E+03	5.403139E-15	8.147806E-19
3.160000E+03	5.465961E-15	8.242539E-19
3.170000E+03	5.525538E-15	8.332377E-19
3.180000E+03	5.580396E-15	8.415101E-19
3.180822E+03	6.255028E-15	9.432429E-19
3.181683E+03	6.250498E-15	9.425597E-19
3.182545E+03	6.246847E-15	9.420093E-19
3.183407E+03	6.242492E-15	9.413524E-19
3.184269E+03	6.237783E-15	9.406423E-19
3.185130E+03	6.232370E-15	9.398260E-19
3.185992E+03	6.227132E-15	9.390361E-19
3.186854E+03	6.222598E-15	9.383524E-19
3.187716E+03	6.217534E-15	9.375888E-19
3.188577E+03	6.211941E-15	9.367454E-19
3.189439E+03	6.206701E-15	9.359551E-19
3.190301E+03	6.201635E-15	9.351913E-19
3.191163E+03	6.196042E-15	9.343477E-19
3.192024E+03	6.189918E-15	9.334243E-19
3.192886E+03	6.183442E-15	9.324477E-19
3.193748E+03	6.176790E-15	9.314446E-19
3.194610E+03	6.170664E-15	9.305208E-19
3.195472E+03	6.164187E-15	9.295440E-19
3.196333E+03	6.157005E-15	9.284609E-19
3.197195E+03	6.148589E-15	9.271919E-19
3.198057E+03	6.139821E-15	9.258697E-19
3.198919E+03	6.130523E-15	9.244676E-19
3.199780E+03	6.120699E-15	9.229860E-19
3.200642E+03	6.112457E-15	9.217432E-19
3.201504E+03	6.105271E-15	9.206595E-19
3.202366E+03	6.096501E-15	9.193370E-19
3.203227E+03	6.087025E-15	9.179081E-19
3.204089E+03	6.077902E-15	9.165323E-19
3.204951E+03	6.068778E-15	9.151564E-19
3.205813E+03	6.059125E-15	9.137007E-19
3.206675E+03	6.050000E-15	9.123248E-19
3.207536E+03	6.042107E-15	9.111344E-19
3.208398E+03	6.035094E-15	9.100769E-19
3.209260E+03	6.028432E-15	9.090722E-19
3.210122E+03	6.022825E-15	9.082267E-19
3.210983E+03	6.017747E-15	9.074609E-19
3.211845E+03	6.013195E-15	9.067745E-19
3.212707E+03	6.008642E-15	9.060880E-19
3.213569E+03	6.005146E-15	9.055607E-19
3.214430E+03	6.002704E-15	9.051924E-19
3.215292E+03	5.999030E-15	9.046384E-19
3.216154E+03	5.995178E-15	9.040576E-19
3.217016E+03	5.991855E-15	9.035564E-19
3.217878E+03	5.988355E-15	9.030286E-19
3.218739E+03	5.985029E-15	9.025271E-19
3.219601E+03	5.981528E-15	9.019990E-19
3.220463E+03	5.977673E-15	9.014177E-19
3.221325E+03	5.973643E-15	9.008099E-19
3.222186E+03	5.969963E-15	9.002550E-19
3.223048E+03	5.967162E-15	8.998326E-19
3.223910E+03	5.964361E-15	8.994102E-19
3.224772E+03	5.961030E-15	8.989080E-19
3.225633E+03	5.956820E-15	8.982730E-19
3.226495E+03	5.952257E-15	8.975849E-19
3.227357E+03	5.948924E-15	8.970824E-19
3.228219E+03	5.946823E-15	8.967655E-19
3.229081E+03	5.944369E-15	8.963954E-19
3.229942E+03	5.941563E-15	8.959722E-19
3.230804E+03	5.939283E-15	8.956284E-19
3.231666E+03	5.937178E-15	8.953110E-19
3.232528E+03	5.935073E-15	8.949935E-19
3.233389E+03	5.932440E-15	8.945964E-19
3.234251E+03	5.930156E-15	8.942521E-19
3.235113E+03	5.927873E-15	8.939077E-19
3.235975E+03	5.924710E-15	8.934307E-19
3.236836E+03	5.920491E-15	8.927944E-19
3.237698E+03	5.917150E-15	8.922906E-19
3.238560E+03	5.915391E-15	8.920253E-19
3.239422E+03	5.914685E-15	8.919190E-19
3.240284E+03	5.914508E-15	8.918922E-19
3.241145E+03	5.914857E-15	8.919448E-19
3.242007E+03	5.915380E-15	8.920237E-19
3.242869E+03	5.916606E-15	8.922085E-19
3.243731E+03	5.918183E-15	8.924463E-19
3.244592E+03	5.919407E-15	8.926308E-19
3.245454E+03	5.921157E-15	8.928948E-19
3.246316E+03	5.922906E-15	8.931585E-19
3.247178E+03	5.923600E-15	8.932632E-19
3.248039E+03	5.923765E-15	8.932880E-19
3.248901E+03	5.924456E-15	8.933922E-19
3.249763E+03	5.926202E-15	8.936555E-19
3.250625E+03	5.928474E-15	8.939981E-19
3.251487E+03	5.929690E-15	8.941814E-19
3.252348E+03	5.929674E-15	8.941790E-19
3.253210E+03	5.930537E-15	8.943091E-19
3.254072E+03	5.932629E-15	8.946245E-19
3.254934E+03	5.934895E-15	8.949662E-19
3.255795E+03	5.936105E-15	8.951487E-19
3.256657E+03	5.935734E-15	8.950927E-19
3.257519E+03	5.936591E-15	8.952219E-19
3.258381E+03	5.938502E-15	8.955101E-19
3.259242E+03	5.939006E-15	8.955860E-19
3.260104E+03	5.937752E-15	8.953969E-19
3.260966E+03	5.935266E-15	8.950221E-19
3.261828E+03	5.931199E-15	8.944087E-19
3.262690E+03	5.926077E-15	8.936364E-19
3.263551E+03	5.920252E-15	8.927579E-19
3.264413E+03	5.913547E-15	8.917468E-19
3.265275E+03	5.907546E-15	8.908418E-19
3.266137E+03	5.901543E-15	8.899366E-19
3.266998E+03	5.893607E-15	8.887399E-19
3.267860E+03	5.884441E-15	8.873576E-19
3.268722E+03	5.875276E-15	8.859755E-19
3.269584E+03	5.867163E-15	8.847521E-19
3.270445E+03	5.860807E-15	8.837935E-19
3.271307E+03	5.853923E-15	8.827555E-19
3.272169E+03	5.846336E-15	8.816115E-19
3.273031E+03	5.838925E-15	8.804937E-19
3.273893E+03	5.831337E-15	8.793496E-19
3.274754E+03	5.823750E-15	8.782054E-19
3.275616E+03	5.816162E-15	8.770611E-19
3.276478E+03	5.808923E-15	8.759695E-19
3.277340E+03	5.801335E-15	8.748252E-19
3.278201E+03	5.794447E-15	8.737866E-19
3.279063E+03	5.788086E-15	8.728273E-19
3.279925E+03	5.778564E-15	8.713914E-19
3.280787E+03	5.767814E-15	8.697702E-19
3.281648E+03	5.760398E-15	8.686519E-19
3.282510E+03	5.753860E-15	8.676661E-19
3.283372E+03	5.743284E-15	8.660712E-19
3.284234E+03	5.730250E-15	8.641057E-19
3.285096E+03	5.717391E-15	8.621666E-19
3.285957E+03	5.704534E-15	8.602277E-19
3.286819E+03	5.690446E-15	8.581033E-19
3.287681E+03	5.675658E-15	8.558733E-19
3.288543E+03	5.660167E-15	8.535373E-19
3.289404E+03	5.643800E-15	8.510691E-19
3.290266E+03	5.627257E-15	8.485744E-19
3.291128E+03	5.611065E-15	8.461328E-19
3.291990E+03	5.595049E-15	8.437176E-19
3.292852E+03	5.579385E-15	8.413554E-19
3.293713E+03	5.563369E-15	8.389403E-19
3.294575E+03	5.545775E-15	8.362872E-19
3.295437E+03	5.528533E-15	8.336871E-19
3.296299E+03	5.514273E-15	8.315367E-19
3.297160E+03	5.502119E-15	8.297039E-19
3.298022E+03	5.490842E-15	8.280033E-19
3.298884E+03	5.479915E-15	8.263556E-19
3.299746E+03	5.469164E-15	8.247343E-19
3.300607E+03	5.458062E-15	8.230602E-19
3.301469E+03	5.447136E-15	8.214125E-19
3.302331E+03	5.437964E-15	8.200293E-19
3.303193E+03	5.431948E-15	8.191221E-19
3.304055E+03	5.427510E-15	8.184529E-19
3.304916E+03	5.423948E-15	8.179157E-19
3.305778E+03	5.423718E-15	8.178810E-19
3.306640E+03	5.426117E-15	8.182427E-19
3.307502E+03	5.428163E-15	8.185513E-19
3.308363E+03	5.430911E-15	8.189656E-19
3.309225E+03	5.435409E-15	8.196440E-19
3.310087E+03	5.440258E-15	8.203752E-19
3.310949E+03	5.442651E-15	8.207360E-19
3.311810E+03	5.443114E-15	8.208059E-19
3.312672E+03	5.444628E-15	8.210341E-19
3.313534E+03	5.446843E-15	8.213680E-19
3.314396E+03	5.447477E-15	8.214637E-19
3.315258E+03	5.447236E-15	8.214273E-19
3.316119E+03	5.448570E-15	8.216285E-19
3.316981E+03	5.450604E-15	8.219352E-19
3.317843E+03	5.451937E-15	8.221361E-19
3.318705E+03	5.451866E-15	8.221254E-19
3.319566E+03	5.451969E-15	8.221410E-19
3.320428E+03	5.453123E-15	8.223149E-19
3.321290E+03	5.451997E-15	8.221452E-19
3.322152E+03	5.450696E-15	8.219490E-19
3.323013E+03	5.451146E-15	8.220167E-19
3.323875E+03	5.451945E-15	8.221372E-19
3.324737E+03	5.452743E-15	8.222576E-19
3.325599E+03	5.455642E-15	8.226947E-19
3.326461E+03	5.459416E-15	8.232638E-19
3.327322E+03	5.464239E-15	8.239911E-19
3.328184E+03	5.470113E-15	8.248768E-19
3.329046E+03	5.475809E-15	8.257357E-19
3.329908E+03	5.482028E-15	8.266736E-19
3.330769E+03	5.489122E-15	8.277433E-19
3.331631E+03	5.497265E-15	8.289712E-19
3.332493E+03	5.505407E-15	8.301989E-19
3.333355E+03	5.511445E-15	8.311095E-19
3.334216E+03	5.516781E-15	8.319142E-19
3.335078E+03	5.522816E-15	8.328242E-19
3.335940E+03	5.529375E-15	8.338132E-19
3.336802E+03	5.535057E-15	8.346700E-19
3.337664E+03	5.540561E-15	8.355000E-19
3.338525E+03	5.546239E-15	8.363563E-19
3.339387E+03	5.552267E-15	8.372652E-19
3.340249E+03	5.557416E-15	8.380416E-19
3.341111E+03	5.561515E-15	8.386597E-19
3.341972E+03	5.564212E-15	8.390664E-19
3.342834E+03	5.565857E-15	8.393144E-19
3.343696E+03	5.567851E-15	8.396151E-19
3.344558E+03	5.570194E-15	8.399684E-19
3.345419E+03	5.571135E-15	8.401103E-19
3.346281E+03	5.570326E-15	8.399882E-19
3.347143E+03	5.570040E-15	8.399452E-19
3.348005E+03	5.571854E-15	8.402186E-19
3.348867E+03	5.573490E-15	8.404653E-19
3.349728E+03	5.574951E-15	8.406857E-19
3.350590E+03	5.576235E-15	8.408793E-19
3.351452E+03	5.575769E-15	8.408090E-19
3.352314E+03	5.574077E-15	8.405539E-19
3.353175E+03	5.573785E-15	8.405097E-19
3.354037E+03	5.575239E-15	8.407290E-19
3.354899E+03	5.576692E-15	8.409481E-19
3.355761E+03	5.578145E-15	8.411671E-19
3.356622E+03	5.580121E-15	8.414651E-19
3.357484E+03	5.582445E-15	8.418156E-19
3.358346E+03	5.584418E-15	8.421130E-19
3.359208E+03	5.586214E-15	8.423839E-19
3.360070E+03	5.587136E-15	8.425229E-19
3.360931E+03	5.586832E-15	8.424771E-19
3.361793E+03	5.586877E-15	8.424838E-19
3.362655E+03	5.586397E-15	8.424113E-19
3.363517E+03	5.584691E-15	8.421542E-19
3.364378E+03	5.582287E-15	8.417915E-19
3.365240E+03	5.579007E-15	8.412969E-19
3.366102E+03	5.576950E-15	8.409867E-19
3.366964E+03	5.575066E-15	8.407026E-19
3.367825E+03	5.572832E-15	8.403658E-19
3.368687E+03	5.570772E-15	8.400551E-19
3.369549E+03	5.568536E-15	8.397179E-19
3.370411E+03	5.566475E-15	8.394071E-19
3.371273E+03	5.564587E-15	8.391224E-19
3.372134E+03	5.563222E-15	8.389165E-19
3.372996E+03	5.561332E-15	8.386315E-19
3.373858E+03	5.558743E-15	8.382410E-19
3.374720E+03	5.555803E-15	8.377977E-19
3.375581E+03	5.552863E-15	8.373543E-19
3.376443E+03	5.550620E-15	8.370160E-19
3.377305E+03	5.549424E-15	8.368357E-19
3.378167E+03	5.547879E-15	8.366026E-19
3.379028E+03	5.544760E-15	8.361323E-19
3.379890E+03	5.541466E-15	8.356356E-19
3.380752E+03	5.538172E-15	8.351388E-19
3.381614E+03	5.534353E-15	8.345629E-19
3.382476E+03	5.530183E-15	8.339342E-19
3.383337E+03	5.525665E-15	8.332528E-19
3.384199E+03	5.520797E-15	8.325187E-19
3.385061E+03	5.516800E-15	8.319159E-19
3.385923E+03	5.514200E-15	8.315238E-19
3.386784E+03	5.512470E-15	8.312630E-19
3.387646E+03	5.512834E-15	8.313179E-19
3.388508E+03	5.514244E-15	8.315305E-19
3.389370E+03	5.514257E-15	8.315325E-19
3.390231E+03	5.513047E-15	8.313499E-19
3.391093E+03	5.512360E-15	8.312463E-19
3.391955E+03	5.512369E-15	8.312476E-19
3.392817E+03	5.512203E-15	8.312225E-19
3.393678E+03	5.511686E-15	8.311447E-19
3.394540E+03	5.510820E-15	8.310140E-19
3.395402E+03	5.510650E-15	8.309884E-19
3.396264E+03	5.509781E-15	8.308573E-19
3.397126E+03	5.508738E-15	8.307000E-19
3.397987E+03	5.508390E-15	8.306475E-19
3.398849E+03	5.508042E-15	8.305950E-19
3.399711E+03	5.506994E-15	8.304370E-19
3.400573E+03	5.505597E-15	8.302264E-19
3.401434E+03	5.503676E-15	8.299366E-19
3.402296E+03	5.502277E-15	8.297257E-19
3.403158E+03	5.501574E-15	8.296196E-19
3.404020E+03	5.499302E-15	8.292769E-19
3.404881E+03	5.495285E-15	8.286713E-19
3.405743E+03	5.490746E-15	8.279867E-19
3.406605E+03	5.486554E-15	8.273545E-19
3.407467E+03	5.484103E-15	8.269851E-19
3.408329E+03	5.482175E-15	8.266943E-19
3.409190E+03	5.480594E-15	8.264558E-19
3.410052E+03	5.480232E-15	8.264012E-19
3.410914E+03	5.479868E-15	8.263463E-19
3.411776E+03	5.480026E-15	8.263701E-19
3.412637E+03	5.480183E-15	8.263938E-19
3.413499E+03	5.480339E-15	8.264173E-19
3.414361E+03	5.481886E-15	8.266506E-19
3.415223E+03	5.485000E-15	8.271201E-19
3.416084E+03	5.488808E-15	8.276943E-19
3.416946E+03	5.492266E-15	8.282158E-19
3.417808E+03	5.494852E-15	8.286057E-19
3.418670E+03	5.496914E-15	8.289167E-19
3.419532E+03	5.498453E-15	8.291487E-19
3.420393E+03	5.499468E-15	8.293018E-19
3.421255E+03	5.500655E-15	8.294808E-19
3.422117E+03	5.502015E-15	8.296858E-19
3.422979E+03	5.502677E-15	8.297857E-19
3.423840E+03	5.503513E-15	8.299116E-19
3.424702E+03	5.505216E-15	8.301684E-19
3.425564E+03	5.507962E-15	8.305826E-19
3.426426E+03	5.510359E-15	8.309441E-19
3.427287E+03	5.510144E-15	8.309116E-19
3.428149E+03	5.510450E-15	8.309577E-19
3.429011E+03	5.512494E-15	8.312660E-19
3.429873E+03	5.514537E-15	8.315739E-19
3.430735E+03	5.517100E-15	8.319605E-19
3.431596E+03	5.520183E-15	8.324254E-19
3.432458E+03	5.522569E-15	8.327852E-19
3.433320E+03	5.524257E-15	8.330397E-19
3.434182E+03	5.526465E-15	8.333727E-19
3.435043E+03	5.528672E-15	8.337055E-19
3.435905E+03	5.529486E-15	8.338282E-19
3.436767E+03	5.529257E-15	8.337937E-19
3.437629E+03	5.528330E-15	8.336539E-19
3.438490E+03	5.527055E-15	8.334615E-19
3.439352E+03	5.525604E-15	8.332427E-19
3.440214E+03	5.524674E-15	8.331025E-19
3.441076E+03	5.524438E-15	8.330669E-19
3.441938E+03	5.523679E-15	8.329525E-19
3.442799E+03	5.522571E-15	8.327854E-19
3.443661E+03	5.520768E-15	8.325135E-19
3.444523E+03	5.517921E-15	8.320841E-19
3.445385E+03	5.515420E-15	8.317070E-19
3.446246E+03	5.513266E-15	8.313821E-19
3.447108E+03	5.510416E-15	8.309524E-19
3.447970E+03	5.506350E-15	8.303392E-19
3.448832E+03	5.502804E-15	8.298044E-19
3.449693E+03	5.500473E-15	8.294530E-19
3.450555E+03	5.498140E-15	8.291011E-19
3.451417E+03	5.495112E-15	8.286446E-19
3.452279E+03	5.492084E-15	8.281879E-19
3.453140E+03	5.489574E-15	8.278094E-19
3.454002E+03	5.486891E-15	8.274048E-19
3.454864E+03	5.484380E-15	8.270262E-19
3.455726E+03	5.482042E-15	8.266736E-19
3.456588E+03	5.478488E-15	8.261376E-19
3.457449E+03	5.474587E-15	8.255494E-19
3.458311E+03	5.472419E-15	8.252225E-19
3.459173E+03	5.470251E-15	8.248955E-19
3.460035E+03	5.467734E-15	8.245160E-19
3.460896E+03	5.464349E-15	8.240055E-19
3.461758E+03	5.460617E-15	8.234428E-19
3.462620E+03	5.458098E-15	8.230628E-19
3.463482E+03	5.455751E-15	8.227090E-19
3.464343E+03	5.453057E-15	8.223027E-19
3.465205E+03	5.450188E-15	8.218700E-19
3.466067E+03	5.448186E-15	8.215681E-19
3.466929E+03	5.446702E-15	8.213443E-19
3.467791E+03	5.443310E-15	8.208328E-19
3.468652E+03	5.439918E-15	8.203213E-19
3.469514E+03	5.437564E-15	8.199664E-19
3.470376E+03	5.433997E-15	8.194284E-19
3.471238E+03	5.428696E-15	8.186291E-19
3.472099E+03	5.424780E-15	8.180385E-19
3.472961E+03	5.420864E-15	8.174481E-19
3.473823E+03	5.416080E-15	8.167267E-19
3.474685E+03	5.412163E-15	8.161360E-19
3.475546E+03	5.409285E-15	8.157019E-19
3.476408E+03	5.406924E-15	8.153459E-19
3.477270E+03	5.404737E-15	8.150161E-19
3.478132E+03	5.402374E-15	8.146598E-19
3.478994E+03	5.400877E-15	8.144341E-19
3.479855E+03	5.400592E-15	8.143910E-19
3.480717E+03	5.400824E-15	8.144260E-19
3.481579E+03	5.398804E-15	8.141214E-19
3.482441E+03	5.395051E-15	8.135555E-19
3.483302E+03	5.392338E-15	8.131463E-19
3.484164E+03	5.391180E-15	8.129717E-19
3.485026E+03	5.389676E-15	8.127449E-19
3.485888E+03	5.386612E-15	8.122829E-19
3.486749E+03	5.383029E-15	8.117426E-19
3.487611E+03	5.380310E-15	8.113326E-19
3.488473E+03	5.377937E-15	8.109747E-19
3.489335E+03	5.375735E-15	8.106426E-19
3.490197E+03	5.373186E-15	8.102583E-19
3.491058E+03	5.369945E-15	8.097696E-19
3.491920E+03	5.366530E-15	8.092546E-19
3.492782E+03	5.363114E-15	8.087395E-19
3.493644E+03	5.360217E-15	8.083026E-19
3.494506E+03	5.356454E-15	8.077351E-19
3.495367E+03	5.351999E-15	8.070633E-19
3.496229E+03	5.348061E-15	8.064695E-19
3.497091E+03	5.345506E-15	8.060843E-19
3.497952E+03	5.342258E-15	8.055945E-19
3.498814E+03	5.337455E-15	8.048702E-19
3.499676E+03	5.332305E-15	8.040936E-19
3.500538E+03	5.327156E-15	8.033170E-19
3.501400E+03	5.321833E-15	8.025144E-19
3.502261E+03	5.317200E-15	8.018158E-19
3.503123E+03	5.312567E-15	8.011171E-19
3.503985E+03	5.307070E-15	8.002882E-19
3.504847E+03	5.300535E-15	7.993028E-19
3.505709E+03	5.294175E-15	7.983436E-19
3.506570E+03	5.287985E-15	7.974103E-19
3.507432E+03	5.281796E-15	7.964771E-19
3.508294E+03	5.275435E-15	7.955177E-19
3.509155E+03	5.268727E-15	7.945063E-19
3.510017E+03	5.262365E-15	7.935469E-19
3.510879E+03	5.257729E-15	7.928477E-19
3.511741E+03	5.253610E-15	7.922266E-19
3.512603E+03	5.247937E-15	7.913712E-19
3.513464E+03	5.243645E-15	7.907240E-19
3.514326E+03	5.241077E-15	7.903368E-19
3.515188E+03	5.237646E-15	7.898193E-19
3.516050E+03	5.233870E-15	7.892499E-19
3.516911E+03	5.230782E-15	7.887842E-19
3.517773E+03	5.228556E-15	7.884486E-19
3.518635E+03	5.226501E-15	7.881387E-19
3.519497E+03	5.223757E-15	7.877249E-19
3.520358E+03	5.220149E-15	7.871809E-19
3.521220E+03	5.216713E-15	7.866627E-19
3.522082E+03	5.213965E-15	7.862484E-19
3.522944E+03	5.211046E-15	7.858081E-19
3.523806E+03	5.207607E-15	7.852896E-19
3.524667E+03	5.203308E-15	7.846412E-19
3.525529E+03	5.198662E-15	7.839407E-19
3.526391E+03	5.194534E-15	7.833181E-19
3.527253E+03	5.191093E-15	7.827994E-19
3.528114E+03	5.187481E-15	7.822546E-19
3.528976E+03	5.183007E-15	7.815799E-19
3.529838E+03	5.178187E-15	7.808531E-19
3.530700E+03	5.174400E-15	7.802821E-19
3.531561E+03	5.171819E-15	7.798930E-19
3.532423E+03	5.170270E-15	7.796594E-19
3.533285E+03	5.169925E-15	7.796074E-19
3.534147E+03	5.170269E-15	7.796591E-19
3.535009E+03	5.171643E-15	7.798663E-19
3.535870E+03	5.172155E-15	7.799436E-19
3.536732E+03	5.172322E-15	7.799688E-19
3.537594E+03	5.173005E-15	7.800717E-19
3.538456E+03	5.173684E-15	7.801742E-19
3.539317E+03	5.173160E-15	7.800952E-19
3.540179E+03	5.173322E-15	7.801196E-19
3.541041E+03	5.173828E-15	7.801958E-19
3.541903E+03	5.174159E-15	7.802458E-19
3.542765E+03	5.174661E-15	7.803216E-19
3.543626E+03	5.175163E-15	7.803972E-19
3.544488E+03	5.175319E-15	7.804207E-19
3.545350E+03	5.174787E-15	7.803405E-19
3.546212E+03	5.174081E-15	7.802341E-19
3.547073E+03	5.173547E-15	7.801536E-19
3.547935E+03	5.172496E-15	7.799951E-19
3.548797E+03	5.171272E-15	7.798105E-19
3.549659E+03	5.170219E-15	7.796517E-19
3.550520E+03	5.168650E-15	7.794152E-19
3.551382E+03	5.166737E-15	7.791266E-19
3.552244E+03	5.164651E-15	7.788122E-19
3.553106E+03	5.162908E-15	7.785492E-19
3.553968E+03	5.160821E-15	7.782346E-19
3.554829E+03	5.159592E-15	7.780492E-19
3.555691E+03	5.158362E-15	7.778637E-19
3.556553E+03	5.156960E-15	7.776523E-19
3.557415E+03	5.155040E-15	7.773629E-19
3.558276E+03	5.152779E-15	7.770219E-19
3.559138E+03	5.149829E-15	7.765771E-19
3.560000E+03	5.146536E-15	7.760805E-19
3.560862E+03	5.143071E-15	7.755579E-19
3.561723E+03	5.140121E-15	7.751131E-19
3.562585E+03	5.137856E-15	7.747715E-19
3.563447E+03	5.136276E-15	7.745334E-19
3.564309E+03	5.134868E-15	7.743210E-19
3.565171E+03	5.134316E-15	7.742378E-19
3.566032E+03	5.133592E-15	7.741287E-19
3.566894E+03	5.132696E-15	7.739935E-19
3.567756E+03	5.131799E-15	7.738582E-19
3.568618E+03	5.130558E-15	7.736711E-19
3.569479E+03	5.130003E-15	7.735873E-19
3.570341E+03	5.130302E-15	7.736325E-19
3.571203E+03	5.130944E-15	7.737294E-19
3.572065E+03	5.130898E-15	7.737225E-19
3.572926E+03	5.129311E-15	7.734831E-19
3.573788E+03	5.127893E-15	7.732693E-19
3.574650E+03	5.126304E-15	7.730297E-19
