#wls	flux	fluxerr
1.600000E+03	9.926341E-17	4.603830E-18
1.640000E+03	1.039682E-16	4.788492E-18
1.680000E+03	1.090089E-16	4.984748E-18
1.720000E+03	1.143856E-16	5.192162E-18
1.760000E+03	1.202076E-16	5.415202E-18
1.800000E+03	1.265404E-16	5.656207E-18
1.840000E+03	1.334721E-16	5.918405E-18
1.880000E+03	1.411557E-16	6.207732E-18
1.920000E+03	1.496972E-16	6.527816E-18
1.960000E+03	1.593396E-16	6.888021E-18
2.000000E+03	1.702027E-16	7.292007E-18
2.040000E+03	1.824916E-16	7.746835E-18
2.080000E+03	1.962510E-16	8.252427E-18
2.120000E+03	2.114332E-16	8.804726E-18
2.160000E+03	2.279495E-16	9.397992E-18
2.200000E+03	2.456042E-16	1.002222E-17
2.240000E+03	2.640397E-16	1.066114E-17
2.280000E+03	2.829705E-16	1.130194E-17
2.320000E+03	3.019473E-16	1.192580E-17
2.360000E+03	3.204164E-16	1.251064E-17
2.400000E+03	3.381406E-16	1.304759E-17
2.440000E+03	3.547260E-16	1.352231E-17
2.480000E+03	3.700672E-16	1.393206E-17
2.520000E+03	3.842704E-16	1.428228E-17
2.560000E+03	3.977339E-16	1.458893E-17
2.600000E+03	4.112576E-16	1.488181E-17
2.640000E+03	4.263686E-16	1.521510E-17
2.680000E+03	4.433290E-16	1.559539E-17
2.720000E+03	4.616707E-16	1.600337E-17
2.760000E+03	4.812613E-16	1.643213E-17
2.800000E+03	5.024278E-16	1.689047E-17
2.840000E+03	5.256070E-16	1.739007E-17
2.880000E+03	5.514398E-16	1.794833E-17
2.920000E+03	5.802844E-16	1.857217E-17
2.960000E+03	6.122935E-16	1.926124E-17
3.000000E+03	6.472763E-16	2.000420E-17
3.010000E+03	6.564775E-16	2.019748E-17
3.020000E+03	6.657402E-16	2.038992E-17
3.030000E+03	6.751792E-16	2.058499E-17
3.040000E+03	6.846946E-16	2.077958E-17
3.050000E+03	6.942542E-16	2.097270E-17
3.060000E+03	7.038937E-16	2.116538E-17
3.070000E+03	7.135750E-16	2.135646E-17
3.080000E+03	7.232575E-16	2.154471E-17
3.090000E+03	7.328976E-16	2.172883E-17
3.100000E+03	7.424496E-16	2.190750E-17
3.110000E+03	7.519359E-16	2.208141E-17
3.120000E+03	7.613060E-16	2.224911E-17
3.130000E+03	7.704381E-16	2.240711E-17
3.140000E+03	7.794190E-16	2.255802E-17
3.150000E+03	7.881247E-16	2.269835E-17
3.160000E+03	7.965699E-16	2.282863E-17
3.170000E+03	8.046995E-16	2.294740E-17
3.180000E+03	8.125273E-16	2.305520E-17
3.190000E+03	8.198642E-16	2.314682E-17
3.200000E+03	8.268621E-16	2.322674E-17
3.210000E+03	8.334043E-16	2.329185E-17
3.220000E+03	8.395119E-16	2.334294E-17
3.230000E+03	8.451436E-16	2.337906E-17
3.240000E+03	8.502645E-16	2.339946E-17
3.250000E+03	8.549099E-16	2.340534E-17
3.260000E+03	8.590580E-16	2.339630E-17
3.270000E+03	8.627566E-16	2.337388E-17
3.280000E+03	8.659379E-16	2.333643E-17
3.290000E+03	8.687841E-16	2.328909E-17
3.300000E+03	8.711811E-16	2.322896E-17
3.310000E+03	8.732598E-16	2.315971E-17
3.320000E+03	8.750358E-16	2.308190E-17
3.330000E+03	8.765852E-16	2.299768E-17
3.340000E+03	8.779845E-16	2.290914E-17
3.350000E+03	8.792040E-16	2.281559E-17
3.360000E+03	8.803274E-16	2.271928E-17
3.370000E+03	8.814889E-16	2.262371E-17
3.380000E+03	8.827198E-16	2.252967E-17
3.390000E+03	8.841058E-16	2.243932E-17
3.400000E+03	8.856858E-16	2.235359E-17
3.410000E+03	8.875497E-16	2.227466E-17
3.420000E+03	8.898324E-16	2.220580E-17
3.430000E+03	8.925288E-16	2.214671E-17
3.440000E+03	8.957672E-16	2.210040E-17
3.450000E+03	8.995763E-16	2.206736E-17
3.460000E+03	9.040544E-16	2.204976E-17
3.470000E+03	9.091844E-16	2.204692E-17
3.480000E+03	9.149461E-16	2.205810E-17
3.490000E+03	9.213009E-16	2.208212E-17
3.500000E+03	9.280352E-16	2.211367E-17
3.510000E+03	9.350426E-16	2.215008E-17
3.520000E+03	9.420219E-16	2.218418E-17
3.530000E+03	9.487538E-16	2.221085E-17
3.540000E+03	9.549723E-16	2.222403E-17
3.550000E+03	9.603829E-16	2.221715E-17
3.560000E+03	9.649210E-16	2.218907E-17
3.570000E+03	9.685808E-16	2.214004E-17
3.580000E+03	9.715753E-16	2.207527E-17
3.590000E+03	9.740301E-16	2.199788E-17
3.600000E+03	9.761248E-16	2.191212E-17
3.610000E+03	9.779815E-16	2.182087E-17
3.620000E+03	9.796601E-16	2.172556E-17
3.630000E+03	9.812513E-16	2.162827E-17
3.640000E+03	9.827658E-16	2.152927E-17
3.650000E+03	9.841780E-16	2.142803E-17
3.660000E+03	9.854920E-16	2.132470E-17
3.670000E+03	9.867196E-16	2.121958E-17
3.680000E+03	9.878666E-16	2.111282E-17
3.690000E+03	9.889903E-16	2.100568E-17
3.700000E+03	9.901295E-16	2.089900E-17
3.710000E+03	9.913947E-16	2.079509E-17
3.720000E+03	9.929087E-16	2.069648E-17
3.730000E+03	9.948060E-16	2.060586E-17
3.740000E+03	9.971245E-16	2.052386E-17
3.750000E+03	9.999291E-16	2.045166E-17
3.760000E+03	1.003117E-15	2.038700E-17
3.770000E+03	1.006548E-15	2.032691E-17
3.780000E+03	1.009984E-15	2.026652E-17
3.790000E+03	1.013067E-15	2.019870E-17
3.800000E+03	1.015429E-15	2.011634E-17
3.810000E+03	1.016684E-15	2.001211E-17
3.820000E+03	1.016496E-15	1.987986E-17
3.830000E+03	1.014659E-15	1.971618E-17
3.840000E+03	1.011031E-15	1.951894E-17
3.850000E+03	1.005704E-15	1.929057E-17
3.860000E+03	9.988584E-16	1.903519E-17
3.870000E+03	9.908161E-16	1.875943E-17
3.880000E+03	9.819745E-16	1.847121E-17
3.890000E+03	9.728277E-16	1.818007E-17
3.900000E+03	9.638940E-16	1.789574E-17
3.910000E+03	9.557024E-16	1.762789E-17
3.920000E+03	9.488341E-16	1.738691E-17
3.930000E+03	9.438306E-16	1.718218E-17
3.940000E+03	9.411899E-16	1.702204E-17
3.950000E+03	9.414113E-16	1.691463E-17
3.960000E+03	9.448628E-16	1.686553E-17
3.970000E+03	9.518413E-16	1.687888E-17
3.980000E+03	9.625221E-16	1.695657E-17
3.990000E+03	9.769523E-16	1.709820E-17
4.000000E+03	9.949953E-16	1.730014E-17
4.010000E+03	1.016371E-15	1.755639E-17
4.020000E+03	1.040608E-15	1.785778E-17
4.030000E+03	1.067108E-15	1.819326E-17
4.040000E+03	1.095082E-15	1.854880E-17
4.050000E+03	1.123647E-15	1.890917E-17
4.060000E+03	1.151769E-15	1.925698E-17
4.070000E+03	1.178331E-15	1.957394E-17
4.080000E+03	1.202191E-15	1.984182E-17
4.090000E+03	1.222256E-15	2.004369E-17
4.100000E+03	1.237620E-15	2.016609E-17
4.110000E+03	1.247645E-15	2.020023E-17
4.120000E+03	1.252191E-15	2.014562E-17
4.130000E+03	1.251629E-15	2.000992E-17
4.140000E+03	1.246836E-15	1.980866E-17
4.150000E+03	1.239094E-15	1.956337E-17
4.160000E+03	1.229831E-15	1.929733E-17
4.170000E+03	1.220492E-15	1.903353E-17
4.180000E+03	1.212285E-15	1.879074E-17
4.190000E+03	1.206032E-15	1.858129E-17
4.200000E+03	1.202116E-15	1.841053E-17
4.210000E+03	1.200570E-15	1.827835E-17
4.220000E+03	1.201076E-15	1.817932E-17
4.230000E+03	1.203161E-15	1.810583E-17
4.240000E+03	1.206341E-15	1.805027E-17
4.250000E+03	1.210155E-15	1.800557E-17
4.260000E+03	1.214339E-15	1.796774E-17
4.270000E+03	1.218747E-15	1.793458E-17
4.280000E+03	1.223387E-15	1.790624E-17
4.290000E+03	1.228314E-15	1.788354E-17
4.300000E+03	1.233638E-15	1.786807E-17
4.310000E+03	1.239382E-15	1.786015E-17
4.320000E+03	1.245498E-15	1.785909E-17
4.330000E+03	1.251833E-15	1.786270E-17
4.340000E+03	1.258127E-15	1.786731E-17
4.350000E+03	1.263964E-15	1.786717E-17
4.360000E+03	1.268712E-15	1.785351E-17
4.370000E+03	1.271541E-15	1.781501E-17
4.380000E+03	1.271422E-15	1.773773E-17
4.390000E+03	1.267528E-15	1.761071E-17
4.400000E+03	1.259582E-15	1.743077E-17
4.410000E+03	1.247931E-15	1.720319E-17
4.420000E+03	1.233177E-15	1.693671E-17
4.430000E+03	1.215923E-15	1.663990E-17
4.440000E+03	1.196722E-15	1.632048E-17
4.450000E+03	1.175998E-15	1.598431E-17
4.460000E+03	1.154221E-15	1.563780E-17
4.470000E+03	1.131919E-15	1.528801E-17
4.480000E+03	1.109743E-15	1.494360E-17
4.490000E+03	1.088469E-15	1.461479E-17
4.500000E+03	1.068901E-15	1.431209E-17
4.510000E+03	1.051813E-15	1.404546E-17
4.520000E+03	1.037836E-15	1.382291E-17
4.530000E+03	1.027463E-15	1.365056E-17
4.540000E+03	1.020991E-15	1.353186E-17
4.550000E+03	1.018593E-15	1.346863E-17
4.560000E+03	1.020277E-15	1.346055E-17
4.570000E+03	1.025950E-15	1.350596E-17
4.580000E+03	1.035450E-15	1.360235E-17
4.590000E+03	1.048525E-15	1.374604E-17
4.600000E+03	1.064831E-15	1.393224E-17
4.610000E+03	1.083936E-15	1.415504E-17
4.620000E+03	1.105302E-15	1.440717E-17
4.630000E+03	1.128322E-15	1.468057E-17
4.640000E+03	1.152338E-15	1.496658E-17
4.650000E+03	1.176635E-15	1.525581E-17
4.660000E+03	1.200496E-15	1.553896E-17
4.670000E+03	1.223210E-15	1.580684E-17
4.680000E+03	1.244097E-15	1.605072E-17
4.690000E+03	1.262475E-15	1.626188E-17
4.700000E+03	1.277731E-15	1.643258E-17
4.710000E+03	1.289360E-15	1.655646E-17
4.720000E+03	1.297000E-15	1.662905E-17
4.730000E+03	1.300484E-15	1.664840E-17
4.740000E+03	1.299869E-15	1.661544E-17
4.750000E+03	1.295368E-15	1.653304E-17
4.760000E+03	1.287329E-15	1.640584E-17
4.770000E+03	1.276137E-15	1.623888E-17
4.780000E+03	1.262116E-15	1.603641E-17
4.790000E+03	1.245547E-15	1.580210E-17
4.800000E+03	1.226698E-15	1.553948E-17
4.810000E+03	1.205860E-15	1.525232E-17
4.820000E+03	1.183475E-15	1.494627E-17
4.830000E+03	1.160098E-15	1.462841E-17
4.840000E+03	1.136407E-15	1.430732E-17
4.850000E+03	1.113178E-15	1.399275E-17
4.860000E+03	1.091113E-15	1.369346E-17
4.870000E+03	1.070807E-15	1.341686E-17
4.880000E+03	1.052681E-15	1.316808E-17
4.890000E+03	1.036981E-15	1.295006E-17
4.900000E+03	1.023776E-15	1.276351E-17
4.910000E+03	1.013078E-15	1.260841E-17
4.920000E+03	1.004815E-15	1.248370E-17
4.930000E+03	9.988923E-16	1.238806E-17
4.940000E+03	9.951845E-16	1.231977E-17
4.950000E+03	9.934917E-16	1.227622E-17
4.960000E+03	9.935209E-16	1.225364E-17
4.970000E+03	9.948512E-16	1.224673E-17
4.980000E+03	9.970195E-16	1.224972E-17
4.990000E+03	9.995537E-16	1.225675E-17
5.000000E+03	1.002090E-15	1.226335E-17
5.010000E+03	1.004521E-15	1.226819E-17
5.020000E+03	1.006979E-15	1.227291E-17
5.030000E+03	1.009869E-15	1.228245E-17
5.040000E+03	1.013730E-15	1.230332E-17
5.050000E+03	1.019054E-15	1.234139E-17
5.060000E+03	1.026063E-15	1.239926E-17
5.070000E+03	1.034607E-15	1.247501E-17
5.080000E+03	1.043999E-15	1.256023E-17
5.090000E+03	1.053146E-15	1.264177E-17
5.100000E+03	1.060585E-15	1.270214E-17
5.110000E+03	1.064836E-15	1.272382E-17
5.120000E+03	1.064691E-15	1.269267E-17
5.130000E+03	1.059461E-15	1.260091E-17
5.140000E+03	1.049141E-15	1.244894E-17
5.150000E+03	1.034470E-15	1.224596E-17
5.160000E+03	1.016742E-15	1.200766E-17
5.170000E+03	9.976068E-16	1.175376E-17
5.180000E+03	9.787376E-16	1.150408E-17
5.190000E+03	9.616480E-16	1.127638E-17
5.200000E+03	9.474672E-16	1.108377E-17
5.210000E+03	9.368671E-16	1.093386E-17
5.220000E+03	9.300297E-16	1.082852E-17
5.230000E+03	9.266840E-16	1.076432E-17
5.240000E+03	9.261807E-16	1.073350E-17
5.250000E+03	9.276750E-16	1.072610E-17
5.260000E+03	9.302578E-16	1.073152E-17
5.270000E+03	9.331171E-16	1.074037E-17
5.280000E+03	9.356752E-16	1.074606E-17
5.290000E+03	9.376666E-16	1.074560E-17
5.300000E+03	9.391304E-16	1.073955E-17
5.310000E+03	9.403476E-16	1.073121E-17
5.320000E+03	9.417250E-16	1.072527E-17
5.330000E+03	9.436843E-16	1.072657E-17
5.340000E+03	9.465636E-16	1.073898E-17
5.350000E+03	9.505167E-16	1.076423E-17
5.360000E+03	9.554843E-16	1.080165E-17
5.370000E+03	9.611751E-16	1.084797E-17
5.380000E+03	9.670877E-16	1.089756E-17
5.390000E+03	9.726343E-16	1.094388E-17
5.400000E+03	9.772070E-16	1.098020E-17
5.410000E+03	9.803551E-16	1.100156E-17
5.420000E+03	9.818381E-16	1.100541E-17
5.430000E+03	9.816572E-16	1.099188E-17
5.440000E+03	9.799372E-16	1.096249E-17
5.450000E+03	9.768780E-16	1.091956E-17
5.460000E+03	9.727039E-16	1.086566E-17
5.470000E+03	9.676439E-16	1.080334E-17
5.480000E+03	9.619824E-16	1.073574E-17
5.490000E+03	9.559869E-16	1.066578E-17
5.500000E+03	9.499009E-16	1.059610E-17
5.510000E+03	9.439022E-16	1.052863E-17
5.520000E+03	9.382174E-16	1.046583E-17
5.530000E+03	9.331211E-16	1.041069E-17
5.540000E+03	9.289292E-16	1.036668E-17
5.550000E+03	9.259196E-16	1.033686E-17
5.560000E+03	9.242567E-16	1.032303E-17
5.570000E+03	9.238966E-16	1.032466E-17
5.580000E+03	9.245361E-16	1.033834E-17
5.590000E+03	9.255923E-16	1.035754E-17
5.600000E+03	9.263210E-16	1.037389E-17
5.610000E+03	9.258732E-16	1.037782E-17
5.620000E+03	9.234770E-16	1.036061E-17
5.630000E+03	9.186494E-16	1.031672E-17
5.640000E+03	9.112433E-16	1.024437E-17
5.650000E+03	9.015564E-16	1.014676E-17
5.660000E+03	8.902214E-16	1.003088E-17
5.670000E+03	8.781123E-16	9.906485E-18
5.680000E+03	8.661487E-16	9.783864E-18
5.690000E+03	8.550933E-16	9.671605E-18
5.700000E+03	8.454311E-16	9.575194E-18
5.710000E+03	8.373374E-16	9.496644E-18
5.720000E+03	8.306438E-16	9.434077E-18
5.730000E+03	8.249002E-16	9.382409E-18
5.740000E+03	8.194863E-16	9.334593E-18
5.750000E+03	8.137396E-16	9.283058E-18
5.760000E+03	8.070518E-16	9.220813E-18
5.770000E+03	7.989842E-16	9.142763E-18
5.780000E+03	7.892797E-16	9.045863E-18
5.790000E+03	7.779177E-16	8.929767E-18
5.800000E+03	7.650809E-16	8.796462E-18
5.810000E+03	7.511190E-16	8.649874E-18
5.820000E+03	7.365273E-16	8.495632E-18
5.830000E+03	7.219336E-16	8.340938E-18
5.840000E+03	7.080405E-16	8.193906E-18
5.850000E+03	6.956006E-16	8.063286E-18
5.860000E+03	6.854118E-16	7.958415E-18
5.870000E+03	6.782138E-16	7.888018E-18
5.880000E+03	6.746713E-16	7.860005E-18
5.890000E+03	6.753266E-16	7.880916E-18
5.900000E+03	6.805170E-16	7.954938E-18
5.910000E+03	6.903689E-16	8.083823E-18
5.920000E+03	7.047185E-16	8.265928E-18
5.930000E+03	7.230815E-16	8.495840E-18
5.940000E+03	7.446286E-16	8.764049E-18
5.950000E+03	7.681679E-16	9.056704E-18
5.960000E+03	7.922180E-16	9.356445E-18
5.970000E+03	8.151001E-16	9.643454E-18
5.980000E+03	8.351375E-16	9.897805E-18
5.990000E+03	8.509324E-16	1.010274E-17
6.000000E+03	8.615144E-16	1.024647E-17
6.010000E+03	8.665283E-16	1.032445E-17
6.020000E+03	8.662226E-16	1.033931E-17
6.030000E+03	8.613238E-16	1.029940E-17
6.040000E+03	8.528182E-16	1.021626E-17
6.050000E+03	8.417599E-16	1.010231E-17
6.060000E+03	8.290963E-16	9.968772E-18
6.070000E+03	8.156270E-16	9.825184E-18
6.080000E+03	8.019344E-16	9.678523E-18
6.090000E+03	7.884743E-16	9.534289E-18
6.100000E+03	7.756158E-16	9.396975E-18
6.110000E+03	7.636918E-16	9.270669E-18
6.120000E+03	7.530354E-16	9.159493E-18
6.130000E+03	7.439594E-16	9.067356E-18
6.140000E+03	7.367602E-16	8.998000E-18
6.150000E+03	7.316748E-16	8.954476E-18
6.160000E+03	7.288467E-16	8.938715E-18
6.170000E+03	7.282734E-16	8.950875E-18
6.180000E+03	7.297895E-16	8.989115E-18
6.190000E+03	7.330623E-16	9.049515E-18
6.200000E+03	7.376115E-16	9.126302E-18
6.210000E+03	7.428744E-16	9.212612E-18
6.220000E+03	7.482275E-16	9.300740E-18
6.230000E+03	7.531387E-16	9.384043E-18
6.240000E+03	7.571657E-16	9.456933E-18
6.250000E+03	7.600395E-16	9.515941E-18
6.260000E+03	7.616766E-16	9.559888E-18
6.270000E+03	7.620538E-16	9.588339E-18
6.280000E+03	7.611983E-16	9.601492E-18
6.290000E+03	7.590679E-16	9.598669E-18
6.300000E+03	7.555176E-16	9.577877E-18
6.310000E+03	7.502927E-16	9.535717E-18
6.320000E+03	7.431338E-16	9.468692E-18
6.330000E+03	7.338920E-16	9.374683E-18
6.340000E+03	7.225946E-16	9.253809E-18
6.350000E+03	7.096057E-16	9.110518E-18
6.360000E+03	6.955958E-16	8.953249E-18
6.370000E+03	6.814753E-16	8.793630E-18
6.380000E+03	6.682900E-16	8.645154E-18
6.390000E+03	6.570263E-16	8.520689E-18
6.400000E+03	6.485178E-16	8.431241E-18
6.410000E+03	6.433094E-16	8.384159E-18
6.420000E+03	6.416473E-16	8.382964E-18
6.430000E+03	6.434459E-16	8.426855E-18
6.440000E+03	6.483685E-16	8.511719E-18
6.450000E+03	6.558793E-16	8.630778E-18
6.460000E+03	6.653171E-16	8.775520E-18
6.470000E+03	6.759809E-16	8.936823E-18
6.480000E+03	6.872021E-16	9.105908E-18
6.490000E+03	6.983701E-16	9.274679E-18
6.500000E+03	7.089601E-16	9.436109E-18
6.510000E+03	7.185331E-16	9.584257E-18
6.520000E+03	7.267165E-16	9.714015E-18
6.530000E+03	7.331684E-16	9.820654E-18
6.540000E+03	7.375475E-16	9.899416E-18
6.550000E+03	7.395371E-16	9.945846E-18
6.560000E+03	7.388829E-16	9.956300E-18
6.570000E+03	7.354902E-16	9.929277E-18
6.580000E+03	7.294529E-16	9.865826E-18
6.590000E+03	7.210539E-16	9.769579E-18
6.600000E+03	7.107345E-16	9.646357E-18
6.610000E+03	6.990529E-16	9.503620E-18
6.620000E+03	6.865906E-16	9.349204E-18
6.630000E+03	6.739663E-16	9.191514E-18
6.640000E+03	6.617259E-16	9.038011E-18
6.650000E+03	6.503823E-16	8.895751E-18
6.660000E+03	6.403698E-16	8.770753E-18
6.670000E+03	6.320527E-16	8.668102E-18
6.680000E+03	6.257204E-16	8.591875E-18
6.690000E+03	6.216144E-16	8.545501E-18
6.700000E+03	6.198976E-16	8.531332E-18
6.710000E+03	6.206368E-16	8.550395E-18
6.720000E+03	6.237907E-16	8.602220E-18
6.730000E+03	6.291755E-16	8.684352E-18
6.740000E+03	6.364088E-16	8.791571E-18
6.750000E+03	6.449215E-16	8.916053E-18
6.760000E+03	6.539636E-16	9.047433E-18
6.770000E+03	6.626527E-16	9.173484E-18
6.780000E+03	6.700625E-16	9.281339E-18
6.790000E+03	6.753349E-16	9.359056E-18
6.800000E+03	6.778404E-16	9.397846E-18
6.810000E+03	6.772626E-16	9.393263E-18
6.820000E+03	6.736542E-16	9.345998E-18
6.830000E+03	6.674444E-16	9.261979E-18
6.840000E+03	6.592894E-16	9.150309E-18
6.850000E+03	6.499959E-16	9.022197E-18
6.860000E+03	6.403130E-16	8.888069E-18
6.870000E+03	6.308684E-16	8.756669E-18
6.880000E+03	6.220943E-16	8.634024E-18
6.890000E+03	6.142418E-16	8.523648E-18
6.900000E+03	6.073726E-16	8.426419E-18
6.910000E+03	6.013946E-16	8.341075E-18
6.920000E+03	5.961325E-16	8.265200E-18
6.930000E+03	5.913347E-16	8.195320E-18
6.940000E+03	5.867397E-16	8.127826E-18
6.950000E+03	5.821012E-16	8.059326E-18
6.960000E+03	5.772049E-16	7.986880E-18
6.970000E+03	5.719230E-16	7.908749E-18
6.980000E+03	5.661649E-16	7.823718E-18
6.990000E+03	5.599414E-16	7.731975E-18
7.000000E+03	5.533218E-16	7.634518E-18
7.010000E+03	5.464624E-16	7.533545E-18
7.020000E+03	5.395659E-16	7.431883E-18
7.030000E+03	5.328884E-16	7.333088E-18
7.040000E+03	5.267499E-16	7.241582E-18
7.050000E+03	5.214700E-16	7.161759E-18
7.060000E+03	5.173732E-16	7.098060E-18
7.070000E+03	5.147836E-16	7.054905E-18
7.080000E+03	5.139785E-16	7.036044E-18
7.090000E+03	5.151556E-16	7.044121E-18
7.100000E+03	5.184629E-16	7.081086E-18
7.110000E+03	5.238828E-16	7.146617E-18
7.120000E+03	5.312833E-16	7.238832E-18
7.130000E+03	5.403536E-16	7.353426E-18
7.140000E+03	5.505961E-16	7.483574E-18
7.150000E+03	5.613305E-16	7.620006E-18
7.160000E+03	5.717170E-16	7.751338E-18
7.170000E+03	5.808538E-16	7.865408E-18
7.180000E+03	5.878490E-16	7.950252E-18
7.190000E+03	5.919866E-16	7.996342E-18
7.200000E+03	5.928056E-16	7.997639E-18
7.210000E+03	5.902412E-16	7.953472E-18
7.220000E+03	5.846110E-16	7.868315E-18
7.230000E+03	5.765216E-16	7.750502E-18
7.240000E+03	5.668042E-16	7.611336E-18
7.250000E+03	5.563317E-16	7.462628E-18
7.260000E+03	5.459391E-16	7.315621E-18
7.270000E+03	5.363103E-16	7.179487E-18
7.280000E+03	5.279718E-16	7.061258E-18
7.290000E+03	5.212945E-16	6.965862E-18
7.300000E+03	5.164844E-16	6.896015E-18
7.310000E+03	5.136717E-16	6.853421E-18
7.320000E+03	5.128687E-16	6.838220E-18
7.330000E+03	5.140333E-16	6.849838E-18
7.340000E+03	5.170661E-16	6.886950E-18
7.350000E+03	5.217445E-16	6.946615E-18
7.360000E+03	5.277506E-16	7.024639E-18
7.370000E+03	5.346386E-16	7.115145E-18
7.380000E+03	5.418463E-16	7.210725E-18
7.390000E+03	5.486892E-16	7.302350E-18
7.400000E+03	5.544876E-16	7.381055E-18
7.410000E+03	5.585849E-16	7.438169E-18
7.420000E+03	5.605133E-16	7.467507E-18
7.430000E+03	5.600377E-16	7.465954E-18
7.440000E+03	5.572022E-16	7.434086E-18
7.450000E+03	5.523043E-16	7.375831E-18
7.460000E+03	5.458505E-16	7.297897E-18
7.470000E+03	5.384640E-16	7.208562E-18
7.480000E+03	5.307691E-16	7.116139E-18
7.490000E+03	5.233102E-16	7.027912E-18
7.500000E+03	5.165261E-16	6.949788E-18
7.510000E+03	5.106996E-16	6.885619E-18
7.520000E+03	5.059713E-16	6.837380E-18
7.530000E+03	5.023630E-16	6.805471E-18
7.540000E+03	4.998210E-16	6.789282E-18
7.550000E+03	4.982215E-16	6.787261E-18
7.560000E+03	4.974323E-16	6.797734E-18
7.570000E+03	4.972919E-16	6.818622E-18
7.580000E+03	4.976511E-16	6.847960E-18
7.590000E+03	4.983526E-16	6.883634E-18
7.600000E+03	4.991937E-16	6.922876E-18
7.610000E+03	4.999725E-16	6.962884E-18
7.620000E+03	5.004162E-16	6.999816E-18
7.630000E+03	5.001907E-16	7.028895E-18
7.640000E+03	4.989639E-16	7.045280E-18
7.650000E+03	4.964284E-16	7.044370E-18
7.660000E+03	4.924003E-16	7.023220E-18
7.670000E+03	4.868005E-16	6.980310E-18
7.680000E+03	4.797023E-16	6.916264E-18
7.690000E+03	4.713172E-16	6.833716E-18
7.700000E+03	4.619367E-16	6.736508E-18
7.710000E+03	4.519245E-16	6.629626E-18
7.720000E+03	4.416484E-16	6.518233E-18
7.730000E+03	4.314498E-16	6.407228E-18
7.740000E+03	4.216600E-16	6.301483E-18
7.750000E+03	4.125395E-16	6.204938E-18
7.760000E+03	4.043481E-16	6.121635E-18
