#wls	flux	fluxerr
1.600000E+03	8.595643E-15	5.438836E-15
1.640000E+03	9.060878E-15	5.341988E-15
1.680000E+03	9.545702E-15	5.198356E-15
1.720000E+03	1.004995E-14	5.003933E-15
1.760000E+03	1.057326E-14	4.755438E-15
1.800000E+03	1.111475E-14	4.450749E-15
1.840000E+03	1.167295E-14	4.089773E-15
1.880000E+03	1.224543E-14	3.675722E-15
1.920000E+03	1.282830E-14	3.217391E-15
1.960000E+03	1.341517E-14	2.733282E-15
2.000000E+03	1.399557E-14	2.259315E-15
2.040000E+03	1.455166E-14	1.860322E-15
2.080000E+03	1.505570E-14	1.624538E-15
2.120000E+03	1.548429E-14	1.569011E-15
2.160000E+03	1.584077E-14	1.572016E-15
2.200000E+03	1.612970E-14	1.538446E-15
2.240000E+03	1.633504E-14	1.503749E-15
2.280000E+03	1.643225E-14	1.589316E-15
2.320000E+03	1.644125E-14	1.809482E-15
2.360000E+03	1.641125E-14	2.054467E-15
2.400000E+03	1.637472E-14	2.231597E-15
2.440000E+03	1.634693E-14	2.291751E-15
2.480000E+03	1.633259E-14	2.216562E-15
2.520000E+03	1.632741E-14	2.015453E-15
2.560000E+03	1.631339E-14	1.743409E-15
2.600000E+03	1.624956E-14	1.550722E-15
2.640000E+03	1.608706E-14	1.658802E-15
2.680000E+03	1.583129E-14	2.065627E-15
2.720000E+03	1.552540E-14	2.588810E-15
2.760000E+03	1.519877E-14	3.111448E-15
2.800000E+03	1.486588E-14	3.581804E-15
2.840000E+03	1.453376E-14	3.976879E-15
2.880000E+03	1.420585E-14	4.286311E-15
2.920000E+03	1.388378E-14	4.506009E-15
2.960000E+03	1.356830E-14	4.635417E-15
3.000000E+03	1.325974E-14	4.676173E-15
3.010000E+03	1.318373E-14	4.672854E-15
3.020000E+03	1.310819E-14	4.664254E-15
3.030000E+03	1.303312E-14	4.650431E-15
3.040000E+03	1.295855E-14	4.631466E-15
3.050000E+03	1.288449E-14	4.607426E-15
3.060000E+03	1.281096E-14	4.578391E-15
3.070000E+03	1.273795E-14	4.544434E-15
3.080000E+03	1.266555E-14	4.505658E-15
3.090000E+03	1.259373E-14	4.462136E-15
3.100000E+03	1.252258E-14	4.413976E-15
3.110000E+03	1.245209E-14	4.361256E-15
3.120000E+03	1.238234E-14	4.304081E-15
3.130000E+03	1.231339E-14	4.242562E-15
3.140000E+03	1.224526E-14	4.176782E-15
3.150000E+03	1.217805E-14	4.106863E-15
3.160000E+03	1.211181E-14	4.032901E-15
3.170000E+03	1.204664E-14	3.955015E-15
3.180000E+03	1.198262E-14	3.873310E-15
3.190000E+03	1.191985E-14	3.787897E-15
3.200000E+03	1.185842E-14	3.698885E-15
3.210000E+03	1.179842E-14	3.606383E-15
3.220000E+03	1.174001E-14	3.510507E-15
3.230000E+03	1.168331E-14	3.411374E-15
3.240000E+03	1.162843E-14	3.309081E-15
3.250000E+03	1.157549E-14	3.203733E-15
3.260000E+03	1.152465E-14	3.095440E-15
3.270000E+03	1.147606E-14	2.984308E-15
3.280000E+03	1.142983E-14	2.870429E-15
3.290000E+03	1.138610E-14	2.753908E-15
3.300000E+03	1.134502E-14	2.634848E-15
3.310000E+03	1.130664E-14	2.513337E-15
3.320000E+03	1.127113E-14	2.389499E-15
3.330000E+03	1.123849E-14	2.263441E-15
3.340000E+03	1.120878E-14	2.135307E-15
3.350000E+03	1.118198E-14	2.005270E-15
3.360000E+03	1.115805E-14	1.873558E-15
3.370000E+03	1.113682E-14	1.740471E-15
3.380000E+03	1.111809E-14	1.606445E-15
3.390000E+03	1.110151E-14	1.472097E-15
3.400000E+03	1.108668E-14	1.338352E-15
3.410000E+03	1.107299E-14	1.206589E-15
3.420000E+03	1.105975E-14	1.078917E-15
3.430000E+03	1.104610E-14	9.585557E-16
3.440000E+03	1.103106E-14	8.503758E-16
3.450000E+03	1.101358E-14	7.613907E-16
3.460000E+03	1.099273E-14	7.005156E-16
3.470000E+03	1.096775E-14	6.762683E-16
3.480000E+03	1.093833E-14	6.923909E-16
3.490000E+03	1.090465E-14	7.451524E-16
3.500000E+03	1.086728E-14	8.257631E-16
3.510000E+03	1.082705E-14	9.248745E-16
3.520000E+03	1.078484E-14	1.035071E-15
3.530000E+03	1.074150E-14	1.151200E-15
3.540000E+03	1.069770E-14	1.269855E-15
3.550000E+03	1.065397E-14	1.388816E-15
3.560000E+03	1.061071E-14	1.506626E-15
3.570000E+03	1.056818E-14	1.622312E-15
3.580000E+03	1.052650E-14	1.735212E-15
3.590000E+03	1.048573E-14	1.844866E-15
3.600000E+03	1.044577E-14	1.950935E-15
3.610000E+03	1.040657E-14	2.053180E-15
3.620000E+03	1.036794E-14	2.151401E-15
3.630000E+03	1.032967E-14	2.245437E-15
3.640000E+03	1.029155E-14	2.335162E-15
3.650000E+03	1.025337E-14	2.420463E-15
3.660000E+03	1.021484E-14	2.501227E-15
3.670000E+03	1.017572E-14	2.577362E-15
3.680000E+03	1.013579E-14	2.648786E-15
3.690000E+03	1.009476E-14	2.715406E-15
3.700000E+03	1.005244E-14	2.777162E-15
3.710000E+03	1.000865E-14	2.833994E-15
3.720000E+03	9.963111E-15	2.885831E-15
3.730000E+03	9.915670E-15	2.932631E-15
3.740000E+03	9.866168E-15	2.974360E-15
3.750000E+03	9.814473E-15	3.010996E-15
3.760000E+03	9.760468E-15	3.042530E-15
3.770000E+03	9.704026E-15	3.068954E-15
3.780000E+03	9.645073E-15	3.090283E-15
3.790000E+03	9.583554E-15	3.106546E-15
3.800000E+03	9.519433E-15	3.117784E-15
3.810000E+03	9.452696E-15	3.124054E-15
3.820000E+03	9.383346E-15	3.125425E-15
3.830000E+03	9.311408E-15	3.121982E-15
3.840000E+03	9.236889E-15	3.113810E-15
3.850000E+03	9.159914E-15	3.101040E-15
3.860000E+03	9.080493E-15	3.083773E-15
3.870000E+03	8.998750E-15	3.062153E-15
3.880000E+03	8.914822E-15	3.036338E-15
3.890000E+03	8.828799E-15	3.006471E-15
3.900000E+03	8.740813E-15	2.972716E-15
3.910000E+03	8.651040E-15	2.935258E-15
3.920000E+03	8.559605E-15	2.894266E-15
3.930000E+03	8.466704E-15	2.849938E-15
3.940000E+03	8.372510E-15	2.802465E-15
3.950000E+03	8.277205E-15	2.752043E-15
3.960000E+03	8.181004E-15	2.698882E-15
3.970000E+03	8.084069E-15	2.643170E-15
3.980000E+03	7.986625E-15	2.585120E-15
3.990000E+03	7.888837E-15	2.524923E-15
4.000000E+03	7.790936E-15	2.462786E-15
4.010000E+03	7.693148E-15	2.398918E-15
4.020000E+03	7.595611E-15	2.333491E-15
4.030000E+03	7.498579E-15	2.266714E-15
4.040000E+03	7.402213E-15	2.198762E-15
4.050000E+03	7.306731E-15	2.129822E-15
4.060000E+03	7.212284E-15	2.060058E-15
4.070000E+03	7.119049E-15	1.989635E-15
4.080000E+03	7.027225E-15	1.918720E-15
4.090000E+03	6.936973E-15	1.847464E-15
4.100000E+03	6.848387E-15	1.775996E-15
4.110000E+03	6.761671E-15	1.704468E-15
4.120000E+03	6.676931E-15	1.633000E-15
4.130000E+03	6.594294E-15	1.561717E-15
4.140000E+03	6.513844E-15	1.490728E-15
4.150000E+03	6.435689E-15	1.420143E-15
4.160000E+03	6.359922E-15	1.350069E-15
4.170000E+03	6.286597E-15	1.280603E-15
4.180000E+03	6.215760E-15	1.211840E-15
4.190000E+03	6.147499E-15	1.143886E-15
4.200000E+03	6.081836E-15	1.076836E-15
4.210000E+03	6.018781E-15	1.010791E-15
4.220000E+03	5.958304E-15	9.458541E-16
4.230000E+03	5.900449E-15	8.821550E-16
4.240000E+03	5.845191E-15	8.198293E-16
4.250000E+03	5.792523E-15	7.590398E-16
4.260000E+03	5.742371E-15	6.999732E-16
4.270000E+03	5.694705E-15	6.428665E-16
4.280000E+03	5.649486E-15	5.880126E-16
4.290000E+03	5.606693E-15	5.357816E-16
4.300000E+03	5.566238E-15	4.866328E-16
4.310000E+03	5.528109E-15	4.411484E-16
4.320000E+03	5.492222E-15	4.000287E-16
4.330000E+03	5.458529E-15	3.640768E-16
4.340000E+03	5.426801E-15	3.340881E-16
4.350000E+03	5.396850E-15	3.106633E-16
4.360000E+03	5.368375E-15	2.939067E-16
4.370000E+03	5.340897E-15	2.831841E-16
4.380000E+03	5.313783E-15	2.771377E-16
4.390000E+03	5.286401E-15	2.740007E-16
4.400000E+03	5.257950E-15	2.720011E-16
4.410000E+03	5.227683E-15	2.696762E-16
4.420000E+03	5.194840E-15	2.660009E-16
4.430000E+03	5.158703E-15	2.604037E-16
4.440000E+03	5.118548E-15	2.527261E-16
4.450000E+03	5.073596E-15	2.431683E-16
4.460000E+03	5.023064E-15	2.322336E-16
4.470000E+03	4.966083E-15	2.206459E-16
4.480000E+03	4.902037E-15	2.092396E-16
4.490000E+03	4.830446E-15	1.987675E-16
4.500000E+03	4.751559E-15	1.897160E-16
4.510000E+03	4.666341E-15	1.821835E-16
4.520000E+03	4.576679E-15	1.759585E-16
4.530000E+03	4.484966E-15	1.707092E-16
4.540000E+03	4.393727E-15	1.661469E-16
4.550000E+03	4.305300E-15	1.620878E-16
4.560000E+03	4.221569E-15	1.584439E-16
4.570000E+03	4.144049E-15	1.551942E-16
4.580000E+03	4.073724E-15	1.523428E-16
4.590000E+03	4.011189E-15	1.498998E-16
4.600000E+03	3.956524E-15	1.478539E-16
4.610000E+03	3.909409E-15	1.461647E-16
4.620000E+03	3.868836E-15	1.447660E-16
4.630000E+03	3.833295E-15	1.435938E-16
4.640000E+03	3.800759E-15	1.425948E-16
4.650000E+03	3.768922E-15	1.417374E-16
4.660000E+03	3.735578E-15	1.410123E-16
4.670000E+03	3.699267E-15	1.404327E-16
4.680000E+03	3.659643E-15	1.400178E-16
4.690000E+03	3.617973E-15	1.397679E-16
4.700000E+03	3.577141E-15	1.396352E-16
4.710000E+03	3.541443E-15	1.395506E-16
4.720000E+03	3.516004E-15	1.394859E-16
4.730000E+03	3.506106E-15	1.395037E-16
4.740000E+03	3.516820E-15	1.397742E-16
4.750000E+03	3.552502E-15	1.405438E-16
4.760000E+03	3.616179E-15	1.420713E-16
4.770000E+03	3.708886E-15	1.445516E-16
4.780000E+03	3.828889E-15	1.480390E-16
4.790000E+03	3.970894E-15	1.523991E-16
4.800000E+03	4.126138E-15	1.573270E-16
4.810000E+03	4.282940E-15	1.623912E-16
4.820000E+03	4.428246E-15	1.671113E-16
4.830000E+03	4.549697E-15	1.710435E-16
4.840000E+03	4.638067E-15	1.738551E-16
4.850000E+03	4.688776E-15	1.753631E-16
4.860000E+03	4.702378E-15	1.755656E-16
4.870000E+03	4.683357E-15	1.746117E-16
4.880000E+03	4.638828E-15	1.727541E-16
4.890000E+03	4.576681E-15	1.702838E-16
4.900000E+03	4.504687E-15	1.674947E-16
4.910000E+03	4.429450E-15	1.646391E-16
4.920000E+03	4.355849E-15	1.619080E-16
4.930000E+03	4.287024E-15	1.594236E-16
4.940000E+03	4.224104E-15	1.572229E-16
4.950000E+03	4.166884E-15	1.552912E-16
4.960000E+03	4.114002E-15	1.535707E-16
4.970000E+03	4.063712E-15	1.519815E-16
4.980000E+03	4.014376E-15	1.504447E-16
4.990000E+03	3.964911E-15	1.489005E-16
5.000000E+03	3.915111E-15	1.473161E-16
5.010000E+03	3.865558E-15	1.456893E-16
5.020000E+03	3.817365E-15	1.440446E-16
5.030000E+03	3.771740E-15	1.424169E-16
5.040000E+03	3.729781E-15	1.408457E-16
5.050000E+03	3.692035E-15	1.393523E-16
5.060000E+03	3.658307E-15	1.379272E-16
5.070000E+03	3.627864E-15	1.365472E-16
5.080000E+03	3.599459E-15	1.351783E-16
5.090000E+03	3.571723E-15	1.337848E-16
5.100000E+03	3.543273E-15	1.323345E-16
5.110000E+03	3.513300E-15	1.308158E-16
5.120000E+03	3.481339E-15	1.292202E-16
5.130000E+03	3.447574E-15	1.275590E-16
5.140000E+03	3.412503E-15	1.258576E-16
5.150000E+03	3.376849E-15	1.241524E-16
5.160000E+03	3.341325E-15	1.224822E-16
5.170000E+03	3.306446E-15	1.208748E-16
5.180000E+03	3.272550E-15	1.193413E-16
5.190000E+03	3.239686E-15	1.178780E-16
5.200000E+03	3.207893E-15	1.164767E-16
5.210000E+03	3.177114E-15	1.151177E-16
5.220000E+03	3.147458E-15	1.137883E-16
5.230000E+03	3.118980E-15	1.124818E-16
5.240000E+03	3.091862E-15	1.112032E-16
5.250000E+03	3.066188E-15	1.099622E-16
5.260000E+03	3.042105E-15	1.087729E-16
5.270000E+03	3.019559E-15	1.076357E-16
5.280000E+03	2.998607E-15	1.065494E-16
5.290000E+03	2.979369E-15	1.055037E-16
5.300000E+03	2.961972E-15	1.044682E-16
5.310000E+03	2.946793E-15	1.034102E-16
5.320000E+03	2.934157E-15	1.023022E-16
5.330000E+03	2.924450E-15	1.011345E-16
5.340000E+03	2.917868E-15	9.990815E-17
5.350000E+03	2.914511E-15	9.863012E-17
5.360000E+03	2.914211E-15	9.729909E-17
5.370000E+03	2.916596E-15	9.590055E-17
5.380000E+03	2.921281E-15	9.439887E-17
5.390000E+03	2.927798E-15	9.272614E-17
5.400000E+03	2.935710E-15	9.079785E-17
5.410000E+03	2.944757E-15	8.852968E-17
5.420000E+03	2.954673E-15	8.583649E-17
5.430000E+03	2.965268E-15	8.264700E-17
5.440000E+03	2.976040E-15	7.891074E-17
5.450000E+03	2.986249E-15	7.463854E-17
5.460000E+03	2.994922E-15	6.999412E-17
5.470000E+03	3.000559E-15	6.542982E-17
5.480000E+03	3.000962E-15	6.183259E-17
5.490000E+03	2.993742E-15	6.048491E-17
5.500000E+03	2.977669E-15	6.208654E-17
5.510000E+03	2.954787E-15	6.559162E-17
5.520000E+03	2.927723E-15	6.976590E-17
5.530000E+03	2.898640E-15	7.383401E-17
5.540000E+03	2.868872E-15	7.742624E-17
5.550000E+03	2.839298E-15	8.042714E-17
5.560000E+03	2.810208E-15	8.284372E-17
5.570000E+03	2.781789E-15	8.473972E-17
5.580000E+03	2.753964E-15	8.619359E-17
5.590000E+03	2.726910E-15	8.729179E-17
5.600000E+03	2.700690E-15	8.810633E-17
5.610000E+03	2.675579E-15	8.870684E-17
5.620000E+03	2.651647E-15	8.914247E-17
5.630000E+03	2.628816E-15	8.943765E-17
5.640000E+03	2.606662E-15	8.959518E-17
5.650000E+03	2.584541E-15	8.960887E-17
5.660000E+03	2.561523E-15	8.946092E-17
5.670000E+03	2.536612E-15	8.913263E-17
5.680000E+03	2.509155E-15	8.861975E-17
5.690000E+03	2.478831E-15	8.792993E-17
5.700000E+03	2.446236E-15	8.710444E-17
5.710000E+03	2.412728E-15	8.620956E-17
5.720000E+03	2.380554E-15	8.533706E-17
5.730000E+03	2.352485E-15	8.459536E-17
5.740000E+03	2.331565E-15	8.409968E-17
5.750000E+03	2.320492E-15	8.394523E-17
5.760000E+03	2.321294E-15	8.419927E-17
5.770000E+03	2.334827E-15	8.488625E-17
5.780000E+03	2.360554E-15	8.597820E-17
5.790000E+03	2.396569E-15	8.739913E-17
5.800000E+03	2.439720E-15	8.903351E-17
5.810000E+03	2.486118E-15	9.074598E-17
5.820000E+03	2.531486E-15	9.239533E-17
5.830000E+03	2.571893E-15	9.385834E-17
5.840000E+03	2.604301E-15	9.504677E-17
5.850000E+03	2.626804E-15	9.591828E-17
5.860000E+03	2.638746E-15	9.647563E-17
5.870000E+03	2.640461E-15	9.674912E-17
5.880000E+03	2.633233E-15	9.679406E-17
5.890000E+03	2.618779E-15	9.665735E-17
5.900000E+03	2.598991E-15	9.634771E-17
5.910000E+03	2.575676E-15	9.583676E-17
5.920000E+03	2.550359E-15	9.509200E-17
5.930000E+03	2.524201E-15	9.410990E-17
5.940000E+03	2.497914E-15	9.292732E-17
5.950000E+03	2.471807E-15	9.161619E-17
5.960000E+03	2.446021E-15	9.026870E-17
5.970000E+03	2.420477E-15	8.896183E-17
5.980000E+03	2.395148E-15	8.773589E-17
5.990000E+03	2.370110E-15	8.659151E-17
6.000000E+03	2.345613E-15	8.551592E-17
6.010000E+03	2.321860E-15	8.449626E-17
6.020000E+03	2.299044E-15	8.352753E-17
6.030000E+03	2.277429E-15	8.261670E-17
6.040000E+03	2.257040E-15	8.176423E-17
6.050000E+03	2.237912E-15	8.096618E-17
6.060000E+03	2.219987E-15	8.021449E-17
6.070000E+03	2.203193E-15	7.950278E-17
6.080000E+03	2.187433E-15	7.882316E-17
6.090000E+03	2.172514E-15	7.816536E-17
6.100000E+03	2.158263E-15	7.751939E-17
6.110000E+03	2.144458E-15	7.686987E-17
6.120000E+03	2.130809E-15	7.620128E-17
6.130000E+03	2.117086E-15	7.550927E-17
6.140000E+03	2.103028E-15	7.479804E-17
6.150000E+03	2.088516E-15	7.408272E-17
6.160000E+03	2.073598E-15	7.337806E-17
6.170000E+03	2.058640E-15	7.269545E-17
6.180000E+03	2.044219E-15	7.204787E-17
6.190000E+03	2.031008E-15	7.145748E-17
6.200000E+03	2.019637E-15	7.095398E-17
6.210000E+03	2.010534E-15	7.056882E-17
6.220000E+03	2.003834E-15	7.032525E-17
6.230000E+03	1.999295E-15	7.022725E-17
6.240000E+03	1.996460E-15	7.026282E-17
6.250000E+03	1.994734E-15	7.039956E-17
6.260000E+03	1.993668E-15	7.058775E-17
6.270000E+03	1.992885E-15	7.076942E-17
6.280000E+03	1.992045E-15	7.090002E-17
6.290000E+03	1.990823E-15	7.096089E-17
6.300000E+03	1.988885E-15	7.095651E-17
6.310000E+03	1.985879E-15	7.090080E-17
6.320000E+03	1.981389E-15	7.080421E-17
6.330000E+03	1.975145E-15	7.067668E-17
6.340000E+03	1.967231E-15	7.053088E-17
6.350000E+03	1.958244E-15	7.038773E-17
6.360000E+03	1.949247E-15	7.028657E-17
6.370000E+03	1.941929E-15	7.030175E-17
6.380000E+03	1.938323E-15	7.053542E-17
6.390000E+03	1.940544E-15	7.110553E-17
6.400000E+03	1.950449E-15	7.211902E-17
6.410000E+03	1.969381E-15	7.364609E-17
6.420000E+03	1.997958E-15	7.571456E-17
6.430000E+03	2.035934E-15	7.831606E-17
6.440000E+03	2.082386E-15	8.141237E-17
6.450000E+03	2.135697E-15	8.491541E-17
6.460000E+03	2.193830E-15	8.866894E-17
6.470000E+03	2.254535E-15	9.243747E-17
6.480000E+03	2.315487E-15	9.592849E-17
6.490000E+03	2.374251E-15	9.884310E-17
6.500000E+03	2.428370E-15	1.009431E-16
6.510000E+03	2.475493E-15	1.021048E-16
6.520000E+03	2.513649E-15	1.023480E-16
6.530000E+03	2.541232E-15	1.018111E-16
6.540000E+03	2.557527E-15	1.007118E-16
6.550000E+03	2.562672E-15	9.927339E-17
6.560000E+03	2.557683E-15	9.767857E-17
6.570000E+03	2.544038E-15	9.604601E-17
6.580000E+03	2.523463E-15	9.443857E-17
6.590000E+03	2.497431E-15	9.287237E-17
6.600000E+03	2.467212E-15	9.134583E-17
6.610000E+03	2.433748E-15	8.984508E-17
6.620000E+03	2.397778E-15	8.835120E-17
6.630000E+03	2.359876E-15	8.684979E-17
6.640000E+03	2.320691E-15	8.534183E-17
6.650000E+03	2.280640E-15	8.382879E-17
6.660000E+03	2.240182E-15	8.232199E-17
6.670000E+03	2.199637E-15	8.083089E-17
6.680000E+03	2.159057E-15	7.935286E-17
6.690000E+03	2.118543E-15	7.788766E-17
6.700000E+03	2.078172E-15	7.643468E-17
6.710000E+03	2.038099E-15	7.499405E-17
6.720000E+03	1.998575E-15	7.357103E-17
6.730000E+03	1.959864E-15	7.217631E-17
6.740000E+03	1.922353E-15	7.082906E-17
6.750000E+03	1.886258E-15	6.954785E-17
6.760000E+03	1.851682E-15	6.835153E-17
6.770000E+03	1.818641E-15	6.725845E-17
6.780000E+03	1.786913E-15	6.628590E-17
6.790000E+03	1.756050E-15	6.545051E-17
6.800000E+03	1.725563E-15	6.476796E-17
6.810000E+03	1.694986E-15	6.424578E-17
6.820000E+03	1.664067E-15	6.387107E-17
6.830000E+03	1.632982E-15	6.359583E-17
6.840000E+03	1.602232E-15	6.333364E-17
6.850000E+03	1.572510E-15	6.298378E-17
6.860000E+03	1.544809E-15	6.247217E-17
6.870000E+03	1.519921E-15	6.176012E-17
6.880000E+03	1.498670E-15	6.086746E-17
6.890000E+03	1.481542E-15	5.985478E-17
6.900000E+03	1.468758E-15	5.880972E-17
6.910000E+03	1.460064E-15	5.781564E-17
6.920000E+03	1.454975E-15	5.694100E-17
6.930000E+03	1.452641E-15	5.621989E-17
6.940000E+03	1.452263E-15	5.566065E-17
6.950000E+03	1.453023E-15	5.524437E-17
6.960000E+03	1.454255E-15	5.494084E-17
6.970000E+03	1.455538E-15	5.471998E-17
6.980000E+03	1.456592E-15	5.455381E-17
6.990000E+03	1.457273E-15	5.442227E-17
7.000000E+03	1.457538E-15	5.431293E-17
7.010000E+03	1.457351E-15	5.421660E-17
7.020000E+03	1.456718E-15	5.412895E-17
7.030000E+03	1.455510E-15	5.404123E-17
7.040000E+03	1.453582E-15	5.394232E-17
7.050000E+03	1.450676E-15	5.381874E-17
7.060000E+03	1.446589E-15	5.366375E-17
7.070000E+03	1.441211E-15	5.347973E-17
7.080000E+03	1.434434E-15	5.327709E-17
7.090000E+03	1.426251E-15	5.307792E-17
7.100000E+03	1.416561E-15	5.290718E-17
7.110000E+03	1.405399E-15	5.279925E-17
7.120000E+03	1.392684E-15	5.277762E-17
7.130000E+03	1.378524E-15	5.284954E-17
7.140000E+03	1.363052E-15	5.299620E-17
7.150000E+03	1.346562E-15	5.318716E-17
7.160000E+03	1.329608E-15	5.339241E-17
7.170000E+03	1.312707E-15	5.357519E-17
7.180000E+03	1.296464E-15	5.369857E-17
7.190000E+03	1.281365E-15	5.371904E-17
7.200000E+03	1.267767E-15	5.359203E-17
7.210000E+03	1.255873E-15	5.327936E-17
7.220000E+03	1.245836E-15	5.276312E-17
7.230000E+03	1.237665E-15	5.204934E-17
7.240000E+03	1.231363E-15	5.117796E-17
7.250000E+03	1.226856E-15	5.021672E-17
7.260000E+03	1.223990E-15	4.925087E-17
7.270000E+03	1.222589E-15	4.836938E-17
7.280000E+03	1.222486E-15	4.764844E-17
7.290000E+03	1.223323E-15	4.712700E-17
7.300000E+03	1.224873E-15	4.680742E-17
7.310000E+03	1.226812E-15	4.664923E-17
7.320000E+03	1.228887E-15	4.659364E-17
7.330000E+03	1.230801E-15	4.657866E-17
7.340000E+03	1.232354E-15	4.655559E-17
7.350000E+03	1.233337E-15	4.649119E-17
7.360000E+03	1.233680E-15	4.637493E-17
7.370000E+03	1.233330E-15	4.621171E-17
7.380000E+03	1.232362E-15	4.602021E-17
7.390000E+03	1.230823E-15	4.581904E-17
7.400000E+03	1.228830E-15	4.562552E-17
7.410000E+03	1.226459E-15	4.545160E-17
7.420000E+03	1.223798E-15	4.530561E-17
7.430000E+03	1.220805E-15	4.518689E-17
7.440000E+03	1.217519E-15	4.509696E-17
7.450000E+03	1.213776E-15	4.503191E-17
7.460000E+03	1.209481E-15	4.499402E-17
7.470000E+03	1.204244E-15	4.498454E-17
7.480000E+03	1.197738E-15	4.502330E-17
7.490000E+03	1.189521E-15	4.514133E-17
7.500000E+03	1.179148E-15	4.537415E-17
7.510000E+03	1.166336E-15	4.574500E-17
7.520000E+03	1.151012E-15	4.624282E-17
7.530000E+03	1.133346E-15	4.681688E-17
7.540000E+03	1.113778E-15	4.738945E-17
7.550000E+03	1.092841E-15	4.786697E-17
7.560000E+03	1.071424E-15	4.817070E-17
7.570000E+03	1.050393E-15	4.823716E-17
7.580000E+03	1.030773E-15	4.803767E-17
7.590000E+03	1.013544E-15	4.757521E-17
7.600000E+03	9.996709E-16	4.688745E-17
7.610000E+03	9.900506E-16	4.604253E-17
7.620000E+03	9.854173E-16	4.512994E-17
7.630000E+03	9.862627E-16	4.424988E-17
7.640000E+03	9.929247E-16	4.350690E-17
7.650000E+03	1.005286E-15	4.298219E-17
7.660000E+03	1.022774E-15	4.271986E-17
7.670000E+03	1.044303E-15	4.271747E-17
7.680000E+03	1.068399E-15	4.293433E-17
7.690000E+03	1.093330E-15	4.330437E-17
7.700000E+03	1.117457E-15	4.375740E-17
7.710000E+03	1.139388E-15	4.423037E-17
7.720000E+03	1.158269E-15	4.467915E-17
7.730000E+03	1.173650E-15	4.507235E-17
7.740000E+03	1.185567E-15	4.539566E-17
7.750000E+03	1.194387E-15	4.564705E-17
7.760000E+03	1.200658E-15	4.583200E-17
