#wls	flux	fluxerr
1.600000E+03	2.542852E-18	2.814800E-18
1.640000E+03	2.453049E-18	2.698996E-18
1.680000E+03	2.366889E-18	2.588265E-18
1.720000E+03	2.285302E-18	2.483562E-18
1.760000E+03	2.208443E-18	2.384974E-18
1.800000E+03	2.136451E-18	2.292552E-18
1.840000E+03	2.069994E-18	2.206904E-18
1.880000E+03	2.008038E-18	2.126803E-18
1.920000E+03	1.951245E-18	2.052827E-18
1.960000E+03	1.899674E-18	1.984900E-18
2.000000E+03	1.853371E-18	1.922920E-18
2.040000E+03	1.812368E-18	1.866760E-18
2.080000E+03	1.777111E-18	1.816707E-18
2.120000E+03	1.747158E-18	1.772123E-18
2.160000E+03	1.722522E-18	1.732827E-18
2.200000E+03	1.703214E-18	1.698624E-18
2.240000E+03	1.689615E-18	1.669671E-18
2.280000E+03	1.681350E-18	1.645347E-18
2.320000E+03	1.678799E-18	1.625758E-18
2.360000E+03	1.681629E-18	1.610284E-18
2.400000E+03	1.690234E-18	1.598978E-18
2.440000E+03	1.704330E-18	1.591205E-18
2.480000E+03	1.724681E-18	1.587270E-18
2.520000E+03	1.750721E-18	1.586183E-18
2.560000E+03	1.783271E-18	1.588167E-18
2.600000E+03	1.821850E-18	1.592198E-18
2.640000E+03	1.867704E-18	1.598692E-18
2.680000E+03	1.920475E-18	1.606553E-18
2.720000E+03	1.980889E-18	1.615509E-18
2.760000E+03	2.049787E-18	1.625223E-18
2.800000E+03	2.127813E-18	1.635017E-18
2.840000E+03	2.215786E-18	1.644155E-18
2.880000E+03	2.315110E-18	1.652103E-18
2.920000E+03	2.427522E-18	1.658235E-18
2.960000E+03	2.554810E-18	1.661585E-18
3.000000E+03	2.699695E-18	1.661337E-18
3.010000E+03	2.738909E-18	1.660518E-18
3.020000E+03	2.779667E-18	1.659501E-18
3.030000E+03	2.822035E-18	1.658264E-18
3.040000E+03	2.865676E-18	1.656547E-18
3.050000E+03	2.911066E-18	1.654567E-18
3.060000E+03	2.958288E-18	1.652298E-18
3.070000E+03	3.007010E-18	1.649483E-18
3.080000E+03	3.057736E-18	1.646331E-18
3.090000E+03	3.110141E-18	1.642586E-18
3.100000E+03	3.165185E-18	1.638676E-18
3.110000E+03	3.222125E-18	1.634120E-18
3.120000E+03	3.281515E-18	1.629113E-18
3.130000E+03	3.343044E-18	1.623406E-18
3.140000E+03	3.407751E-18	1.617401E-18
3.150000E+03	3.474893E-18	1.610631E-18
3.160000E+03	3.545091E-18	1.603278E-18
3.170000E+03	3.618531E-18	1.595302E-18
3.180000E+03	3.695416E-18	1.586664E-18
3.190000E+03	3.775965E-18	1.577322E-18
3.200000E+03	3.859924E-18	1.567032E-18
3.210000E+03	3.948529E-18	1.556151E-18
3.220000E+03	4.041576E-18	1.544429E-18
3.230000E+03	4.139371E-18	1.531818E-18
3.240000E+03	4.242246E-18	1.518266E-18
3.250000E+03	4.350030E-18	1.503538E-18
3.260000E+03	4.464175E-18	1.487954E-18
3.270000E+03	4.585138E-18	1.471453E-18
3.280000E+03	4.712289E-18	1.453627E-18
3.290000E+03	4.846681E-18	1.434611E-18
3.300000E+03	4.989454E-18	1.414532E-18
3.310000E+03	5.140647E-18	1.393186E-18
3.320000E+03	5.300913E-18	1.370558E-18
3.330000E+03	5.471592E-18	1.346808E-18
3.340000E+03	5.652851E-18	1.321811E-18
3.350000E+03	5.845523E-18	1.295646E-18
3.360000E+03	6.051180E-18	1.268595E-18
3.370000E+03	6.270136E-18	1.240730E-18
3.380000E+03	6.503416E-18	1.212382E-18
3.390000E+03	6.752838E-18	1.184162E-18
3.400000E+03	7.019606E-18	1.156737E-18
3.410000E+03	7.304192E-18	1.130899E-18
3.420000E+03	7.608626E-18	1.108005E-18
3.430000E+03	7.934220E-18	1.089647E-18
3.440000E+03	8.281427E-18	1.077696E-18
3.450000E+03	8.652348E-18	1.074619E-18
3.460000E+03	9.047330E-18	1.082905E-18
3.470000E+03	9.469501E-18	1.105380E-18
3.480000E+03	9.918495E-18	1.144068E-18
3.490000E+03	1.039716E-17	1.200623E-18
3.500000E+03	1.090777E-17	1.275803E-18
3.510000E+03	1.145279E-17	1.369703E-18
3.520000E+03	1.203477E-17	1.481960E-18
3.530000E+03	1.265633E-17	1.611941E-18
3.540000E+03	1.332138E-17	1.759075E-18
3.550000E+03	1.403011E-17	1.922295E-18
3.560000E+03	1.478643E-17	2.101049E-18
3.570000E+03	1.559446E-17	2.294894E-18
3.580000E+03	1.645561E-17	2.503038E-18
3.590000E+03	1.737255E-17	2.724887E-18
3.600000E+03	1.834797E-17	2.959835E-18
3.610000E+03	1.938619E-17	3.207515E-18
3.620000E+03	2.048822E-17	3.466964E-18
3.630000E+03	2.165841E-17	3.737688E-18
3.640000E+03	2.289745E-17	4.018471E-18
3.650000E+03	2.420961E-17	4.308596E-18
3.660000E+03	2.559725E-17	4.606888E-18
3.670000E+03	2.706031E-17	4.911592E-18
3.680000E+03	2.860044E-17	5.221112E-18
3.690000E+03	3.022385E-17	5.534542E-18
3.700000E+03	3.192716E-17	5.849090E-18
3.710000E+03	3.371370E-17	6.163057E-18
3.720000E+03	3.558410E-17	6.474135E-18
3.730000E+03	3.753855E-17	6.779841E-18
3.740000E+03	3.957677E-17	7.077541E-18
3.750000E+03	4.169484E-17	7.363926E-18
3.760000E+03	4.389748E-17	7.637234E-18
3.770000E+03	4.617972E-17	7.894044E-18
3.780000E+03	4.853895E-17	8.131484E-18
3.790000E+03	5.097189E-17	8.346763E-18
3.800000E+03	5.347829E-17	8.537846E-18
3.810000E+03	5.604994E-17	8.701756E-18
3.820000E+03	5.868141E-17	8.836443E-18
3.830000E+03	6.136648E-17	8.940308E-18
3.840000E+03	6.410245E-17	9.012922E-18
3.850000E+03	6.687759E-17	9.053331E-18
3.860000E+03	6.968794E-17	9.062580E-18
3.870000E+03	7.251994E-17	9.041429E-18
3.880000E+03	7.536830E-17	8.992786E-18
3.890000E+03	7.822244E-17	8.919925E-18
3.900000E+03	8.106580E-17	8.826446E-18
3.910000E+03	8.389042E-17	8.717739E-18
3.920000E+03	8.667712E-17	8.598568E-18
3.930000E+03	8.942087E-17	8.475520E-18
3.940000E+03	9.209448E-17	8.353161E-18
3.950000E+03	9.468525E-17	8.237329E-18
3.960000E+03	9.717410E-17	8.132673E-18
3.970000E+03	9.953549E-17	8.042238E-18
3.980000E+03	1.017601E-16	7.968856E-18
3.990000E+03	1.038218E-16	7.912193E-18
4.000000E+03	1.056952E-16	7.870172E-18
4.010000E+03	1.073730E-16	7.840465E-18
4.020000E+03	1.088330E-16	7.818425E-18
4.030000E+03	1.100608E-16	7.799416E-18
4.040000E+03	1.110398E-16	7.778568E-18
4.050000E+03	1.117744E-16	7.752823E-18
4.060000E+03	1.122627E-16	7.719212E-18
4.070000E+03	1.124976E-16	7.675046E-18
4.080000E+03	1.124956E-16	7.619836E-18
4.090000E+03	1.122798E-16	7.554008E-18
4.100000E+03	1.118692E-16	7.478040E-18
4.110000E+03	1.112939E-16	7.393438E-18
4.120000E+03	1.105888E-16	7.302194E-18
4.130000E+03	1.097921E-16	7.206606E-18
4.140000E+03	1.089491E-16	7.109418E-18
4.150000E+03	1.080962E-16	7.012669E-18
4.160000E+03	1.072747E-16	6.918512E-18
4.170000E+03	1.065245E-16	6.828781E-18
4.180000E+03	1.058817E-16	6.744931E-18
4.190000E+03	1.053825E-16	6.668302E-18
4.200000E+03	1.050443E-16	6.599078E-18
4.210000E+03	1.048961E-16	6.538301E-18
4.220000E+03	1.049476E-16	6.485990E-18
4.230000E+03	1.052070E-16	6.442254E-18
4.240000E+03	1.056768E-16	6.406987E-18
4.250000E+03	1.063544E-16	6.379833E-18
4.260000E+03	1.072322E-16	6.360187E-18
4.270000E+03	1.082975E-16	6.347212E-18
4.280000E+03	1.095336E-16	6.339882E-18
4.290000E+03	1.109164E-16	6.336843E-18
4.300000E+03	1.124318E-16	6.337465E-18
4.310000E+03	1.140497E-16	6.340403E-18
4.320000E+03	1.157537E-16	6.345444E-18
4.330000E+03	1.175269E-16	6.352866E-18
4.340000E+03	1.193541E-16	6.363671E-18
4.350000E+03	1.212339E-16	6.380390E-18
4.360000E+03	1.231640E-16	6.406244E-18
4.370000E+03	1.251527E-16	6.445654E-18
4.380000E+03	1.272207E-16	6.503903E-18
4.390000E+03	1.293908E-16	6.585894E-18
4.400000E+03	1.317044E-16	6.695993E-18
4.410000E+03	1.342215E-16	6.837670E-18
4.420000E+03	1.369991E-16	7.012790E-18
4.430000E+03	1.401120E-16	7.223092E-18
4.440000E+03	1.436335E-16	7.469629E-18
4.450000E+03	1.476334E-16	7.752994E-18
4.460000E+03	1.521891E-16	8.074187E-18
4.470000E+03	1.573719E-16	8.434128E-18
4.480000E+03	1.632466E-16	8.833735E-18
4.490000E+03	1.698782E-16	9.274332E-18
4.500000E+03	1.773245E-16	9.757242E-18
4.510000E+03	1.856363E-16	1.028371E-17
4.520000E+03	1.948308E-16	1.085332E-17
4.530000E+03	2.049155E-16	1.146508E-17
4.540000E+03	2.158622E-16	1.211582E-17
4.550000E+03	2.276017E-16	1.279966E-17
4.560000E+03	2.400409E-16	1.350885E-17
4.570000E+03	2.530435E-16	1.423271E-17
4.580000E+03	2.664547E-16	1.495911E-17
4.590000E+03	2.801101E-16	1.567544E-17
4.600000E+03	2.938176E-16	1.636803E-17
4.610000E+03	3.074072E-16	1.702550E-17
4.620000E+03	3.207094E-16	1.763799E-17
4.630000E+03	3.335575E-16	1.819750E-17
4.640000E+03	3.458125E-16	1.869929E-17
4.650000E+03	3.573321E-16	1.914001E-17
4.660000E+03	3.679943E-16	1.951878E-17
4.670000E+03	3.776909E-16	1.983675E-17
4.680000E+03	3.863302E-16	2.009757E-17
4.690000E+03	3.938424E-16	2.030814E-17
4.700000E+03	4.001745E-16	2.047848E-17
4.710000E+03	4.053188E-16	2.062286E-17
4.720000E+03	4.092874E-16	2.075738E-17
4.730000E+03	4.121015E-16	2.089788E-17
4.740000E+03	4.138425E-16	2.106074E-17
4.750000E+03	4.145856E-16	2.125763E-17
4.760000E+03	4.144302E-16	2.149559E-17
4.770000E+03	4.134748E-16	2.177526E-17
4.780000E+03	4.118350E-16	2.209207E-17
4.790000E+03	4.096121E-16	2.243546E-17
4.800000E+03	4.068913E-16	2.279040E-17
4.810000E+03	4.037664E-16	2.314062E-17
4.820000E+03	4.003070E-16	2.346846E-17
4.830000E+03	3.965816E-16	2.375782E-17
4.840000E+03	3.926478E-16	2.399486E-17
4.850000E+03	3.885497E-16	2.416869E-17
4.860000E+03	3.843166E-16	2.427182E-17
4.870000E+03	3.799623E-16	2.430032E-17
4.880000E+03	3.754773E-16	2.425315E-17
4.890000E+03	3.708514E-16	2.413326E-17
4.900000E+03	3.660539E-16	2.394557E-17
4.910000E+03	3.610383E-16	2.369634E-17
4.920000E+03	3.557680E-16	2.339368E-17
4.930000E+03	3.501964E-16	2.304504E-17
4.940000E+03	3.442933E-16	2.265776E-17
4.950000E+03	3.380495E-16	2.223865E-17
4.960000E+03	3.314614E-16	2.179259E-17
4.970000E+03	3.245500E-16	2.132374E-17
4.980000E+03	3.173522E-16	2.083546E-17
4.990000E+03	3.099216E-16	2.033095E-17
5.000000E+03	3.023031E-16	1.981217E-17
5.010000E+03	2.945694E-16	1.928250E-17
5.020000E+03	2.867774E-16	1.874405E-17
5.030000E+03	2.790088E-16	1.820047E-17
5.040000E+03	2.713294E-16	1.765442E-17
5.050000E+03	2.638257E-16	1.711030E-17
5.060000E+03	2.565713E-16	1.657215E-17
5.070000E+03	2.496384E-16	1.604477E-17
5.080000E+03	2.431091E-16	1.553457E-17
5.090000E+03	2.370441E-16	1.504772E-17
5.100000E+03	2.315149E-16	1.459228E-17
5.110000E+03	2.265755E-16	1.417631E-17
5.120000E+03	2.222741E-16	1.380848E-17
5.130000E+03	2.186629E-16	1.349844E-17
5.140000E+03	2.157752E-16	1.325482E-17
5.150000E+03	2.136380E-16	1.308545E-17
5.160000E+03	2.122663E-16	1.299604E-17
5.170000E+03	2.116631E-16	1.298937E-17
5.180000E+03	2.118055E-16	1.306369E-17
5.190000E+03	2.126704E-16	1.321417E-17
5.200000E+03	2.142147E-16	1.343192E-17
5.210000E+03	2.163926E-16	1.370551E-17
5.220000E+03	2.191573E-16	1.402197E-17
5.230000E+03	2.224535E-16	1.436725E-17
5.240000E+03	2.262329E-16	1.472803E-17
5.250000E+03	2.304440E-16	1.509162E-17
5.260000E+03	2.350458E-16	1.544723E-17
5.270000E+03	2.400155E-16	1.578682E-17
5.280000E+03	2.453259E-16	1.610386E-17
5.290000E+03	2.509855E-16	1.639631E-17
5.300000E+03	2.570000E-16	1.666429E-17
5.310000E+03	2.634006E-16	1.691199E-17
5.320000E+03	2.702294E-16	1.714661E-17
5.330000E+03	2.775384E-16	1.737777E-17
5.340000E+03	2.854059E-16	1.761766E-17
5.350000E+03	2.939082E-16	1.787797E-17
5.360000E+03	3.031495E-16	1.817058E-17
5.370000E+03	3.132220E-16	1.850427E-17
5.380000E+03	3.242310E-16	1.888582E-17
5.390000E+03	3.362481E-16	1.931718E-17
5.400000E+03	3.493393E-16	1.979752E-17
5.410000E+03	3.635232E-16	2.032160E-17
5.420000E+03	3.787829E-16	2.088142E-17
5.430000E+03	3.950551E-16	2.146683E-17
5.440000E+03	4.122271E-16	2.206657E-17
5.450000E+03	4.301374E-16	2.266941E-17
5.460000E+03	4.485548E-16	2.326385E-17
5.470000E+03	4.671915E-16	2.383918E-17
5.480000E+03	4.857050E-16	2.438528E-17
5.490000E+03	5.036874E-16	2.489110E-17
5.500000E+03	5.207022E-16	2.534510E-17
5.510000E+03	5.363071E-16	2.573493E-17
5.520000E+03	5.500984E-16	2.604921E-17
5.530000E+03	5.617318E-16	2.627851E-17
5.540000E+03	5.709843E-16	2.641873E-17
5.550000E+03	5.777287E-16	2.647085E-17
5.560000E+03	5.819804E-16	2.644328E-17
5.570000E+03	5.838301E-16	2.634778E-17
5.580000E+03	5.834607E-16	2.619808E-17
5.590000E+03	5.810878E-16	2.600438E-17
5.600000E+03	5.769921E-16	2.577304E-17
5.610000E+03	5.714487E-16	2.550424E-17
5.620000E+03	5.647412E-16	2.519525E-17
5.630000E+03	5.571400E-16	2.484295E-17
5.640000E+03	5.488890E-16	2.444728E-17
5.650000E+03	5.401943E-16	2.401415E-17
5.660000E+03	5.312193E-16	2.355646E-17
5.670000E+03	5.220868E-16	2.309327E-17
5.680000E+03	5.128814E-16	2.264716E-17
5.690000E+03	5.036857E-16	2.224214E-17
5.700000E+03	4.945837E-16	2.190010E-17
5.710000E+03	4.856875E-16	2.163853E-17
5.720000E+03	4.771749E-16	2.146994E-17
5.730000E+03	4.692730E-16	2.140085E-17
5.740000E+03	4.622752E-16	2.143383E-17
5.750000E+03	4.565304E-16	2.156875E-17
5.760000E+03	4.523982E-16	2.180308E-17
5.770000E+03	4.502631E-16	2.213470E-17
5.780000E+03	4.504726E-16	2.256027E-17
5.790000E+03	4.533360E-16	2.307607E-17
5.800000E+03	4.591164E-16	2.367794E-17
5.810000E+03	4.679938E-16	2.435887E-17
5.820000E+03	4.800456E-16	2.510709E-17
5.830000E+03	4.952024E-16	2.590289E-17
5.840000E+03	5.132491E-16	2.671871E-17
5.850000E+03	5.337655E-16	2.751746E-17
5.860000E+03	5.561094E-16	2.825469E-17
5.870000E+03	5.794546E-16	2.888414E-17
5.880000E+03	6.027594E-16	2.935991E-17
5.890000E+03	6.248683E-16	2.964430E-17
5.900000E+03	6.445740E-16	2.971158E-17
5.910000E+03	6.607377E-16	2.955214E-17
5.920000E+03	6.724511E-16	2.917517E-17
5.930000E+03	6.791237E-16	2.860589E-17
5.940000E+03	6.805766E-16	2.788288E-17
5.950000E+03	6.770111E-16	2.705104E-17
5.960000E+03	6.689701E-16	2.615760E-17
5.970000E+03	6.572611E-16	2.525016E-17
5.980000E+03	6.427873E-16	2.437290E-17
5.990000E+03	6.264652E-16	2.356582E-17
6.000000E+03	6.091663E-16	2.286376E-17
6.010000E+03	5.916070E-16	2.229102E-17
6.020000E+03	5.744049E-16	2.186075E-17
6.030000E+03	5.579990E-16	2.156980E-17
6.040000E+03	5.427109E-16	2.139948E-17
6.050000E+03	5.287520E-16	2.131665E-17
6.060000E+03	5.162207E-16	2.127839E-17
6.070000E+03	5.051354E-16	2.123966E-17
6.080000E+03	4.954444E-16	2.115858E-17
6.090000E+03	4.870116E-16	2.099903E-17
6.100000E+03	4.796646E-16	2.073460E-17
6.110000E+03	4.731635E-16	2.034788E-17
6.120000E+03	4.672347E-16	1.983166E-17
6.130000E+03	4.616104E-16	1.918955E-17
6.140000E+03	4.560285E-16	1.843399E-17
6.150000E+03	4.502993E-16	1.758592E-17
6.160000E+03	4.443452E-16	1.667241E-17
6.170000E+03	4.382262E-16	1.572447E-17
6.180000E+03	4.321289E-16	1.477551E-17
6.190000E+03	4.263584E-16	1.386187E-17
6.200000E+03	4.212696E-16	1.302355E-17
6.210000E+03	4.172418E-16	1.230853E-17
6.220000E+03	4.146249E-16	1.177478E-17
6.230000E+03	4.137215E-16	1.148549E-17
6.240000E+03	4.147048E-16	1.148694E-17
6.250000E+03	4.175575E-16	1.177491E-17
6.260000E+03	4.220328E-16	1.228737E-17
6.270000E+03	4.277866E-16	1.293961E-17
6.280000E+03	4.344263E-16	1.365417E-17
6.290000E+03	4.415700E-16	1.437403E-17
6.300000E+03	4.488419E-16	1.506453E-17
6.310000E+03	4.559009E-16	1.571254E-17
6.320000E+03	4.624697E-16	1.632343E-17
6.330000E+03	4.683381E-16	1.691549E-17
6.340000E+03	4.734379E-16	1.751511E-17
6.350000E+03	4.778345E-16	1.814985E-17
6.360000E+03	4.817375E-16	1.884503E-17
6.370000E+03	4.854253E-16	1.961933E-17
6.380000E+03	4.892234E-16	2.048378E-17
6.390000E+03	4.934628E-16	2.144196E-17
6.400000E+03	4.984604E-16	2.249169E-17
6.410000E+03	5.044913E-16	2.362598E-17
6.420000E+03	5.117815E-16	2.483457E-17
6.430000E+03	5.205179E-16	2.610574E-17
6.440000E+03	5.308506E-16	2.742729E-17
6.450000E+03	5.428524E-16	2.878492E-17
6.460000E+03	5.565300E-16	3.016269E-17
6.470000E+03	5.718031E-16	3.154137E-17
6.480000E+03	5.885028E-16	3.289711E-17
6.490000E+03	6.063450E-16	3.419859E-17
6.500000E+03	6.249521E-16	3.540728E-17
6.510000E+03	6.438701E-16	3.647877E-17
6.520000E+03	6.625405E-16	3.736284E-17
6.530000E+03	6.803742E-16	3.801053E-17
6.540000E+03	6.967538E-16	3.837840E-17
6.550000E+03	7.110346E-16	3.843339E-17
6.560000E+03	7.226466E-16	3.816229E-17
6.570000E+03	7.310419E-16	3.757098E-17
6.580000E+03	7.358371E-16	3.669115E-17
6.590000E+03	7.367990E-16	3.557528E-17
6.600000E+03	7.339003E-16	3.429197E-17
6.610000E+03	7.273408E-16	3.291701E-17
6.620000E+03	7.175283E-16	3.152267E-17
6.630000E+03	7.050637E-16	3.016990E-17
6.640000E+03	6.906148E-16	2.889933E-17
6.650000E+03	6.748881E-16	2.773206E-17
6.660000E+03	6.585342E-16	2.667265E-17
6.670000E+03	6.421378E-16	2.571713E-17
6.680000E+03	6.261640E-16	2.485749E-17
6.690000E+03	6.109982E-16	2.408758E-17
6.700000E+03	5.969012E-16	2.340267E-17
6.710000E+03	5.840729E-16	2.280128E-17
6.720000E+03	5.726245E-16	2.228255E-17
6.730000E+03	5.625856E-16	2.184454E-17
6.740000E+03	5.539159E-16	2.148317E-17
6.750000E+03	5.464964E-16	2.119190E-17
6.760000E+03	5.401704E-16	2.096333E-17
6.770000E+03	5.347650E-16	2.078943E-17
6.780000E+03	5.300963E-16	2.066060E-17
6.790000E+03	5.260222E-16	2.056618E-17
6.800000E+03	5.224336E-16	2.049321E-17
6.810000E+03	5.192935E-16	2.042912E-17
6.820000E+03	5.165874E-16	2.036174E-17
6.830000E+03	5.143614E-16	2.028295E-17
6.840000E+03	5.126735E-16	2.018883E-17
6.850000E+03	5.116097E-16	2.008166E-17
6.860000E+03	5.112275E-16	1.996783E-17
6.870000E+03	5.115685E-16	1.985742E-17
6.880000E+03	5.126404E-16	1.976186E-17
6.890000E+03	5.144107E-16	1.969223E-17
6.900000E+03	5.168059E-16	1.965886E-17
6.910000E+03	5.197171E-16	1.967115E-17
6.920000E+03	5.230150E-16	1.973747E-17
6.930000E+03	5.265437E-16	1.986382E-17
6.940000E+03	5.301572E-16	2.005311E-17
6.950000E+03	5.337252E-16	2.030308E-17
6.960000E+03	5.371469E-16	2.060577E-17
6.970000E+03	5.403302E-16	2.094621E-17
6.980000E+03	5.432181E-16	2.130387E-17
6.990000E+03	5.457544E-16	2.165405E-17
7.000000E+03	5.478992E-16	2.197215E-17
7.010000E+03	5.496228E-16	2.223644E-17
7.020000E+03	5.508799E-16	2.242919E-17
7.030000E+03	5.516383E-16	2.253886E-17
7.040000E+03	5.518522E-16	2.255911E-17
7.050000E+03	5.514926E-16	2.248955E-17
7.060000E+03	5.505601E-16	2.233529E-17
7.070000E+03	5.490807E-16	2.210538E-17
7.080000E+03	5.471151E-16	2.181222E-17
7.090000E+03	5.447784E-16	2.147145E-17
7.100000E+03	5.422369E-16	2.110179E-17
7.110000E+03	5.396709E-16	2.072491E-17
7.120000E+03	5.372859E-16	2.036704E-17
7.130000E+03	5.352725E-16	2.005760E-17
7.140000E+03	5.337939E-16	1.982725E-17
7.150000E+03	5.329927E-16	1.970457E-17
7.160000E+03	5.329780E-16	1.971117E-17
7.170000E+03	5.338387E-16	1.985817E-17
7.180000E+03	5.355898E-16	2.014018E-17
7.190000E+03	5.382488E-16	2.053698E-17
7.200000E+03	5.417860E-16	2.101659E-17
7.210000E+03	5.461340E-16	2.154390E-17
7.220000E+03	5.512001E-16	2.208752E-17
7.230000E+03	5.568572E-16	2.262222E-17
7.240000E+03	5.629060E-16	2.312706E-17
7.250000E+03	5.690886E-16	2.358412E-17
7.260000E+03	5.750892E-16	2.397717E-17
7.270000E+03	5.805216E-16	2.429003E-17
7.280000E+03	5.849881E-16	2.450844E-17
7.290000E+03	5.880809E-16	2.462010E-17
7.300000E+03	5.895035E-16	2.461990E-17
7.310000E+03	5.890236E-16	2.450799E-17
7.320000E+03	5.865956E-16	2.429492E-17
7.330000E+03	5.823005E-16	2.399834E-17
7.340000E+03	5.763766E-16	2.364223E-17
7.350000E+03	5.691408E-16	2.325080E-17
7.360000E+03	5.609997E-16	2.284580E-17
7.370000E+03	5.523471E-16	2.244077E-17
7.380000E+03	5.435171E-16	2.204053E-17
7.390000E+03	5.347944E-16	2.164428E-17
7.400000E+03	5.263358E-16	2.124559E-17
7.410000E+03	5.182037E-16	2.083706E-17
7.420000E+03	5.103726E-16	2.041314E-17
7.430000E+03	5.027566E-16	1.997210E-17
7.440000E+03	4.952108E-16	1.951549E-17
7.450000E+03	4.875788E-16	1.904824E-17
7.460000E+03	4.797050E-16	1.857708E-17
7.470000E+03	4.714567E-16	1.811005E-17
7.480000E+03	4.627158E-16	1.765409E-17
7.490000E+03	4.534144E-16	1.721341E-17
7.500000E+03	4.435434E-16	1.678631E-17
7.510000E+03	4.331661E-16	1.636261E-17
7.520000E+03	4.224182E-16	1.592386E-17
7.530000E+03	4.114983E-16	1.544811E-17
7.540000E+03	4.006252E-16	1.491581E-17
7.550000E+03	3.900373E-16	1.431667E-17
7.560000E+03	3.799727E-16	1.365439E-17
7.570000E+03	3.706631E-16	1.295027E-17
7.580000E+03	3.623364E-16	1.224533E-17
7.590000E+03	3.551977E-16	1.159962E-17
7.600000E+03	3.494411E-16	1.108854E-17
7.610000E+03	3.452332E-16	1.078882E-17
7.620000E+03	3.427042E-16	1.075118E-17
7.630000E+03	3.419237E-16	1.097738E-17
7.640000E+03	3.428592E-16	1.142895E-17
7.650000E+03	3.453453E-16	1.205109E-17
7.660000E+03	3.491273E-16	1.279029E-17
7.670000E+03	3.538921E-16	1.360175E-17
7.680000E+03	3.593046E-16	1.445170E-17
7.690000E+03	3.650118E-16	1.531619E-17
7.700000E+03	3.707077E-16	1.618138E-17
7.710000E+03	3.761142E-16	1.704020E-17
7.720000E+03	3.810232E-16	1.789147E-17
7.730000E+03	3.853062E-16	1.873880E-17
7.740000E+03	3.888817E-16	1.958930E-17
7.750000E+03	3.917426E-16	2.045608E-17
7.760000E+03	3.938926E-16	2.135592E-17
