#wls	flux	fluxerr
1.600000E+03	1.422603E-18	1.715319E-18
1.640000E+03	1.395391E-18	1.678183E-18
1.680000E+03	1.369197E-18	1.642246E-18
1.720000E+03	1.344621E-18	1.608212E-18
1.760000E+03	1.321227E-18	1.575538E-18
1.800000E+03	1.299584E-18	1.544879E-18
1.840000E+03	1.279278E-18	1.515717E-18
1.880000E+03	1.260852E-18	1.488666E-18
1.920000E+03	1.244360E-18	1.463753E-18
1.960000E+03	1.229427E-18	1.440498E-18
2.000000E+03	1.216142E-18	1.418965E-18
2.040000E+03	1.205429E-18	1.400186E-18
2.080000E+03	1.196519E-18	1.383206E-18
2.120000E+03	1.189512E-18	1.368087E-18
2.160000E+03	1.184916E-18	1.355347E-18
2.200000E+03	1.182831E-18	1.345022E-18
2.240000E+03	1.183378E-18	1.337159E-18
2.280000E+03	1.186307E-18	1.331383E-18
2.320000E+03	1.192169E-18	1.328205E-18
2.360000E+03	1.200768E-18	1.327284E-18
2.400000E+03	1.213086E-18	1.329566E-18
2.440000E+03	1.228613E-18	1.334328E-18
2.480000E+03	1.248031E-18	1.342134E-18
2.520000E+03	1.271305E-18	1.352743E-18
2.560000E+03	1.299620E-18	1.367180E-18
2.600000E+03	1.332688E-18	1.384867E-18
2.640000E+03	1.371474E-18	1.406500E-18
2.680000E+03	1.416660E-18	1.432421E-18
2.720000E+03	1.468637E-18	1.462616E-18
2.760000E+03	1.529193E-18	1.498393E-18
2.800000E+03	1.599055E-18	1.539902E-18
2.840000E+03	1.679110E-18	1.587363E-18
2.880000E+03	1.771380E-18	1.641971E-18
2.920000E+03	1.877751E-18	1.704622E-18
2.960000E+03	2.000454E-18	1.776362E-18
3.000000E+03	2.142121E-18	1.858401E-18
3.010000E+03	2.180764E-18	1.880602E-18
3.020000E+03	2.221378E-18	1.904020E-18
3.030000E+03	2.262865E-18	1.927690E-18
3.040000E+03	2.305854E-18	1.952129E-18
3.050000E+03	2.351008E-18	1.977873E-18
3.060000E+03	2.397184E-18	2.003930E-18
3.070000E+03	2.445670E-18	2.031355E-18
3.080000E+03	2.495286E-18	2.059137E-18
3.090000E+03	2.547365E-18	2.088352E-18
3.100000E+03	2.600690E-18	2.117971E-18
3.110000E+03	2.656645E-18	2.149094E-18
3.120000E+03	2.714656E-18	2.181218E-18
3.130000E+03	2.774802E-18	2.214376E-18
3.140000E+03	2.837164E-18	2.248600E-18
3.150000E+03	2.901826E-18	2.283921E-18
3.160000E+03	2.968875E-18	2.320374E-18
3.170000E+03	3.038401E-18	2.357991E-18
3.180000E+03	3.110495E-18	2.396808E-18
3.190000E+03	3.185253E-18	2.436858E-18
3.200000E+03	3.263576E-18	2.478787E-18
3.210000E+03	3.343976E-18	2.521418E-18
3.220000E+03	3.427342E-18	2.565389E-18
3.230000E+03	3.514638E-18	2.611370E-18
3.240000E+03	3.604277E-18	2.658134E-18
3.250000E+03	3.698106E-18	2.706997E-18
3.260000E+03	3.795382E-18	2.757360E-18
3.270000E+03	3.895289E-18	2.808580E-18
3.280000E+03	3.999797E-18	2.862032E-18
3.290000E+03	4.108116E-18	2.917084E-18
3.300000E+03	4.220368E-18	2.973766E-18
3.310000E+03	4.336682E-18	3.032108E-18
3.320000E+03	4.457185E-18	3.092138E-18
3.330000E+03	4.582007E-18	3.153882E-18
3.340000E+03	4.711279E-18	3.217362E-18
3.350000E+03	4.845132E-18	3.282598E-18
3.360000E+03	4.984860E-18	3.350388E-18
3.370000E+03	5.128298E-18	3.419196E-18
3.380000E+03	5.276713E-18	3.489797E-18
3.390000E+03	5.431488E-18	3.563020E-18
3.400000E+03	5.590276E-18	3.637229E-18
3.410000E+03	5.755746E-18	3.714080E-18
3.420000E+03	5.926771E-18	3.792736E-18
3.430000E+03	6.102082E-18	3.872294E-18
3.440000E+03	6.284544E-18	3.954477E-18
3.450000E+03	6.472915E-18	4.038382E-18
3.460000E+03	6.667305E-18	4.123964E-18
3.470000E+03	6.867813E-18	4.211170E-18
3.480000E+03	7.074535E-18	4.299936E-18
3.490000E+03	7.287555E-18	4.390188E-18
3.500000E+03	7.506949E-18	4.481841E-18
3.510000E+03	7.732781E-18	4.574798E-18
3.520000E+03	7.965103E-18	4.668950E-18
3.530000E+03	8.205764E-18	4.765226E-18
3.540000E+03	8.451219E-18	4.861411E-18
3.550000E+03	8.703240E-18	4.958389E-18
3.560000E+03	8.963774E-18	5.057104E-18
3.570000E+03	9.230944E-18	5.156316E-18
3.580000E+03	9.502649E-18	5.254700E-18
3.590000E+03	9.782893E-18	5.354317E-18
3.600000E+03	1.006959E-17	5.453835E-18
3.610000E+03	1.036040E-17	5.551839E-18
3.620000E+03	1.065959E-17	5.650460E-18
3.630000E+03	1.096485E-17	5.748280E-18
3.640000E+03	1.127598E-17	5.845046E-18
3.650000E+03	1.159280E-17	5.940495E-18
3.660000E+03	1.191506E-17	6.034359E-18
3.670000E+03	1.224253E-17	6.126368E-18
3.680000E+03	1.257754E-17	6.217548E-18
3.690000E+03	1.291459E-17	6.305034E-18
3.700000E+03	1.325593E-17	6.389842E-18
3.710000E+03	1.360121E-17	6.471704E-18
3.720000E+03	1.395293E-17	6.551714E-18
3.730000E+03	1.430502E-17	6.626926E-18
3.740000E+03	1.466290E-17	6.699822E-18
3.750000E+03	1.502327E-17	6.768827E-18
3.760000E+03	1.538258E-17	6.832348E-18
3.770000E+03	1.574661E-17	6.892985E-18
3.780000E+03	1.611188E-17	6.949204E-18
3.790000E+03	1.647466E-17	6.999471E-18
3.800000E+03	1.684113E-17	7.046518E-18
3.810000E+03	1.720768E-17	7.088884E-18
3.820000E+03	1.757396E-17	7.126554E-18
3.830000E+03	1.793969E-17	7.159552E-18
3.840000E+03	1.830464E-17	7.187943E-18
3.850000E+03	1.866862E-17	7.211833E-18
3.860000E+03	1.903530E-17	7.232796E-18
3.870000E+03	1.939720E-17	7.248173E-18
3.880000E+03	1.975812E-17	7.259620E-18
3.890000E+03	2.012216E-17	7.268828E-18
3.900000E+03	2.048187E-17	7.273268E-18
3.910000E+03	2.084155E-17	7.274705E-18
3.920000E+03	2.120592E-17	7.274919E-18
3.930000E+03	2.156760E-17	7.271499E-18
3.940000E+03	2.193577E-17	7.267676E-18
3.950000E+03	2.230748E-17	7.262488E-18
3.960000E+03	2.267971E-17	7.255012E-18
3.970000E+03	2.306258E-17	7.248484E-18
3.980000E+03	2.345358E-17	7.241983E-18
3.990000E+03	2.385468E-17	7.235978E-18
4.000000E+03	2.426352E-17	7.229566E-18
4.010000E+03	2.469162E-17	7.225915E-18
4.020000E+03	2.513718E-17	7.224083E-18
4.030000E+03	2.560317E-17	7.224469E-18
4.040000E+03	2.609282E-17	7.227439E-18
4.050000E+03	2.660962E-17	7.233321E-18
4.060000E+03	2.716237E-17	7.243729E-18
4.070000E+03	2.774521E-17	7.256222E-18
4.080000E+03	2.836741E-17	7.272300E-18
4.090000E+03	2.903360E-17	7.292056E-18
4.100000E+03	2.974871E-17	7.315495E-18
4.110000E+03	3.052348E-17	7.343856E-18
4.120000E+03	3.135248E-17	7.374273E-18
4.130000E+03	3.224687E-17	7.407740E-18
4.140000E+03	3.321862E-17	7.445102E-18
4.150000E+03	3.426221E-17	7.483033E-18
4.160000E+03	3.539618E-17	7.523349E-18
4.170000E+03	3.661465E-17	7.562297E-18
4.180000E+03	3.793711E-17	7.601238E-18
4.190000E+03	3.936393E-17	7.637242E-18
4.200000E+03	4.089449E-17	7.667080E-18
4.210000E+03	4.254927E-17	7.691260E-18
4.220000E+03	4.431958E-17	7.704593E-18
4.230000E+03	4.622607E-17	7.706971E-18
4.240000E+03	4.826606E-17	7.693974E-18
4.250000E+03	5.044341E-17	7.662313E-18
4.260000E+03	5.276086E-17	7.608591E-18
4.270000E+03	5.521035E-17	7.528169E-18
4.280000E+03	5.781030E-17	7.420608E-18
4.290000E+03	6.054979E-17	7.282207E-18
4.300000E+03	6.342515E-17	7.111748E-18
4.310000E+03	6.643082E-17	6.909933E-18
4.320000E+03	6.955935E-17	6.680425E-18
4.330000E+03	7.280161E-17	6.431300E-18
4.340000E+03	7.614704E-17	6.176954E-18
4.350000E+03	7.958406E-17	5.940333E-18
4.360000E+03	8.310056E-17	5.754806E-18
4.370000E+03	8.668438E-17	5.663891E-18
4.380000E+03	9.032353E-17	5.715987E-18
4.390000E+03	9.400581E-17	5.952503E-18
4.400000E+03	9.771804E-17	6.394272E-18
4.410000E+03	1.014461E-16	7.037227E-18
4.420000E+03	1.051762E-16	7.859911E-18
4.430000E+03	1.088958E-16	8.834086E-18
4.440000E+03	1.126126E-16	9.933570E-18
4.450000E+03	1.162818E-16	1.113104E-17
4.460000E+03	1.199145E-16	1.240777E-17
4.470000E+03	1.235054E-16	1.374722E-17
4.480000E+03	1.270504E-16	1.513584E-17
4.490000E+03	1.305463E-16	1.656230E-17
4.500000E+03	1.340114E-16	1.801993E-17
4.510000E+03	1.374001E-16	1.949490E-17
4.520000E+03	1.407293E-16	2.098251E-17
4.530000E+03	1.439945E-16	2.247610E-17
4.540000E+03	1.471896E-16	2.396941E-17
4.550000E+03	1.503310E-16	2.546048E-17
4.560000E+03	1.533631E-16	2.693568E-17
4.570000E+03	1.562991E-16	2.839298E-17
4.580000E+03	1.591273E-16	2.982656E-17
4.590000E+03	1.618352E-16	3.123052E-17
4.600000E+03	1.644344E-16	3.260395E-17
4.610000E+03	1.668601E-16	3.393093E-17
4.620000E+03	1.691226E-16	3.521034E-17
4.630000E+03	1.712073E-16	3.643625E-17
4.640000E+03	1.730997E-16	3.760290E-17
4.650000E+03	1.747862E-16	3.870478E-17
4.660000E+03	1.762543E-16	3.973668E-17
4.670000E+03	1.775197E-16	4.070003E-17
4.680000E+03	1.785192E-16	4.157830E-17
4.690000E+03	1.792719E-16	4.237388E-17
4.700000E+03	1.797726E-16	4.308371E-17
4.710000E+03	1.800179E-16	4.370544E-17
4.720000E+03	1.800069E-16	4.423744E-17
4.730000E+03	1.797412E-16	4.467880E-17
4.740000E+03	1.792244E-16	4.502935E-17
4.750000E+03	1.784623E-16	4.528966E-17
4.760000E+03	1.774629E-16	4.546094E-17
4.770000E+03	1.762361E-16	4.554509E-17
4.780000E+03	1.747932E-16	4.554457E-17
4.790000E+03	1.731471E-16	4.546242E-17
4.800000E+03	1.712869E-16	4.529548E-17
4.810000E+03	1.692783E-16	4.506099E-17
4.820000E+03	1.671116E-16	4.475653E-17
4.830000E+03	1.648033E-16	4.438665E-17
4.840000E+03	1.623699E-16	4.395613E-17
4.850000E+03	1.598054E-16	4.346361E-17
4.860000E+03	1.571729E-16	4.292681E-17
4.870000E+03	1.544657E-16	4.234448E-17
4.880000E+03	1.516782E-16	4.171576E-17
4.890000E+03	1.488702E-16	4.105784E-17
4.900000E+03	1.460139E-16	4.036392E-17
4.910000E+03	1.431664E-16	3.965058E-17
4.920000E+03	1.403004E-16	3.891126E-17
4.930000E+03	1.374697E-16	3.816178E-17
4.940000E+03	1.346477E-16	3.739574E-17
4.950000E+03	1.318662E-16	3.662296E-17
4.960000E+03	1.291549E-16	3.585256E-17
4.970000E+03	1.264875E-16	3.507823E-17
4.980000E+03	1.238925E-16	3.430874E-17
4.990000E+03	1.213792E-16	3.354746E-17
5.000000E+03	1.189560E-16	3.279750E-17
5.010000E+03	1.166308E-16	3.206170E-17
5.020000E+03	1.144108E-16	3.134264E-17
5.030000E+03	1.123026E-16	3.064260E-17
5.040000E+03	1.103123E-16	2.996359E-17
5.050000E+03	1.084451E-16	2.930735E-17
5.060000E+03	1.067061E-16	2.867531E-17
5.070000E+03	1.050851E-16	2.806481E-17
5.080000E+03	1.036150E-16	2.748449E-17
5.090000E+03	1.022846E-16	2.693102E-17
5.100000E+03	1.010831E-16	2.640115E-17
5.110000E+03	1.000407E-16	2.590217E-17
5.120000E+03	9.913233E-17	2.542676E-17
5.130000E+03	9.837345E-17	2.497800E-17
5.140000E+03	9.777868E-17	2.455841E-17
5.150000E+03	9.732287E-17	2.416031E-17
5.160000E+03	9.702024E-17	2.378575E-17
5.170000E+03	9.687151E-17	2.343317E-17
5.180000E+03	9.687722E-17	2.310075E-17
5.190000E+03	9.703774E-17	2.278641E-17
5.200000E+03	9.735330E-17	2.248780E-17
5.210000E+03	9.782400E-17	2.220232E-17
5.220000E+03	9.843683E-17	2.192421E-17
5.230000E+03	9.921758E-17	2.165617E-17
5.240000E+03	1.001531E-16	2.139187E-17
5.250000E+03	1.012299E-16	2.112488E-17
5.260000E+03	1.024739E-16	2.085683E-17
5.270000E+03	1.038579E-16	2.057802E-17
5.280000E+03	1.053946E-16	2.028674E-17
5.290000E+03	1.070831E-16	1.997822E-17
5.300000E+03	1.089224E-16	1.964745E-17
5.310000E+03	1.109112E-16	1.928913E-17
5.320000E+03	1.130481E-16	1.889770E-17
5.330000E+03	1.153311E-16	1.846739E-17
5.340000E+03	1.177577E-16	1.799222E-17
5.350000E+03	1.203251E-16	1.746607E-17
5.360000E+03	1.230137E-16	1.688057E-17
5.370000E+03	1.258502E-16	1.623400E-17
5.380000E+03	1.287972E-16	1.551620E-17
5.390000E+03	1.318636E-16	1.472390E-17
5.400000E+03	1.350586E-16	1.385429E-17
5.410000E+03	1.383385E-16	1.290065E-17
5.420000E+03	1.417086E-16	1.186432E-17
5.430000E+03	1.451557E-16	1.074906E-17
5.440000E+03	1.486456E-16	9.565098E-18
5.450000E+03	1.521981E-16	8.340569E-18
5.460000E+03	1.557753E-16	7.127134E-18
5.470000E+03	1.593361E-16	6.030974E-18
5.480000E+03	1.628977E-16	5.253562E-18
5.490000E+03	1.663973E-16	5.071591E-18
5.500000E+03	1.698351E-16	5.638798E-18
5.510000E+03	1.732164E-16	6.821465E-18
5.520000E+03	1.764858E-16	8.382709E-18
5.530000E+03	1.796537E-16	1.015451E-17
5.540000E+03	1.826885E-16	1.203832E-17
5.550000E+03	1.856277E-16	1.398105E-17
5.560000E+03	1.884433E-16	1.594693E-17
5.570000E+03	1.911078E-16	1.791071E-17
5.580000E+03	1.936660E-16	1.986003E-17
5.590000E+03	1.960708E-16	2.177788E-17
5.600000E+03	1.983480E-16	2.365694E-17
5.610000E+03	2.005019E-16	2.548984E-17
5.620000E+03	2.025390E-16	2.727096E-17
5.630000E+03	2.044676E-16	2.899614E-17
5.640000E+03	2.062976E-16	3.066245E-17
5.650000E+03	2.080399E-16	3.226810E-17
5.660000E+03	2.096813E-16	3.380810E-17
5.670000E+03	2.112852E-16	3.529036E-17
5.680000E+03	2.128131E-16	3.670702E-17
5.690000E+03	2.143030E-16	3.806316E-17
5.700000E+03	2.157668E-16	3.936001E-17
5.710000E+03	2.172151E-16	4.059896E-17
5.720000E+03	2.186574E-16	4.178135E-17
5.730000E+03	2.201013E-16	4.290836E-17
5.740000E+03	2.215261E-16	4.397559E-17
5.750000E+03	2.229885E-16	4.499398E-17
5.760000E+03	2.244367E-16	4.595290E-17
5.770000E+03	2.258966E-16	4.685712E-17
5.780000E+03	2.273922E-16	4.771129E-17
5.790000E+03	2.288641E-16	4.850244E-17
5.800000E+03	2.303045E-16	4.922814E-17
5.810000E+03	2.317591E-16	4.989734E-17
5.820000E+03	2.331898E-16	5.050116E-17
5.830000E+03	2.345570E-16	5.103008E-17
5.840000E+03	2.359035E-16	5.149251E-17
5.850000E+03	2.371607E-16	5.187256E-17
5.860000E+03	2.383437E-16	5.217265E-17
5.870000E+03	2.394405E-16	5.238933E-17
5.880000E+03	2.404403E-16	5.251947E-17
5.890000E+03	2.413342E-16	5.256045E-17
5.900000E+03	2.420865E-16	5.250398E-17
5.910000E+03	2.427499E-16	5.236102E-17
5.920000E+03	2.432653E-16	5.211847E-17
5.930000E+03	2.436909E-16	5.178856E-17
5.940000E+03	2.439734E-16	5.135969E-17
5.950000E+03	2.441479E-16	5.083919E-17
5.960000E+03	2.442234E-16	5.022879E-17
5.970000E+03	2.441827E-16	4.952480E-17
5.980000E+03	2.440959E-16	4.874125E-17
5.990000E+03	2.439487E-16	4.787471E-17
6.000000E+03	2.437280E-16	4.692212E-17
6.010000E+03	2.434779E-16	4.589139E-17
6.020000E+03	2.432135E-16	4.478442E-17
6.030000E+03	2.429496E-16	4.360267E-17
6.040000E+03	2.426999E-16	4.234707E-17
6.050000E+03	2.424763E-16	4.101798E-17
6.060000E+03	2.422613E-16	3.961052E-17
6.070000E+03	2.421195E-16	3.813316E-17
6.080000E+03	2.420011E-16	3.657546E-17
6.090000E+03	2.419383E-16	3.494003E-17
6.100000E+03	2.419329E-16	3.322448E-17
6.110000E+03	2.419846E-16	3.142611E-17
6.120000E+03	2.420910E-16	2.954205E-17
6.130000E+03	2.422479E-16	2.756942E-17
6.140000E+03	2.424211E-16	2.550265E-17
6.150000E+03	2.426310E-16	2.334301E-17
6.160000E+03	2.428965E-16	2.109168E-17
6.170000E+03	2.431517E-16	1.874373E-17
6.180000E+03	2.434138E-16	1.630455E-17
6.190000E+03	2.436713E-16	1.378143E-17
6.200000E+03	2.438847E-16	1.118987E-17
6.210000E+03	2.440985E-16	8.572505E-18
6.220000E+03	2.442457E-16	6.036337E-18
6.230000E+03	2.443719E-16	3.961285E-18
6.240000E+03	2.444124E-16	3.522369E-18
6.250000E+03	2.443878E-16	5.184770E-18
6.260000E+03	2.442929E-16	7.642857E-18
6.270000E+03	2.440962E-16	1.027858E-17
6.280000E+03	2.438510E-16	1.292405E-17
6.290000E+03	2.435285E-16	1.551989E-17
6.300000E+03	2.431004E-16	1.803880E-17
6.310000E+03	2.425951E-16	2.046963E-17
6.320000E+03	2.420133E-16	2.280545E-17
6.330000E+03	2.413561E-16	2.504227E-17
6.340000E+03	2.406250E-16	2.717784E-17
6.350000E+03	2.398210E-16	2.921099E-17
6.360000E+03	2.389180E-16	3.113774E-17
6.370000E+03	2.379712E-16	3.296503E-17
6.380000E+03	2.369264E-16	3.468598E-17
6.390000E+03	2.358105E-16	3.630478E-17
6.400000E+03	2.346224E-16	3.782223E-17
6.410000E+03	2.333602E-16	3.923916E-17
6.420000E+03	2.320217E-16	4.055643E-17
6.430000E+03	2.305776E-16	4.177014E-17
6.440000E+03	2.290768E-16	4.289043E-17
6.450000E+03	2.274633E-16	4.390851E-17
6.460000E+03	2.257593E-16	4.482995E-17
6.470000E+03	2.239608E-16	4.565558E-17
6.480000E+03	2.220640E-16	4.638636E-17
6.490000E+03	2.200658E-16	4.702337E-17
6.500000E+03	2.179637E-16	4.756794E-17
6.510000E+03	2.157322E-16	4.801623E-17
6.520000E+03	2.134203E-16	4.838102E-17
6.530000E+03	2.109810E-16	4.865379E-17
6.540000E+03	2.084418E-16	4.884284E-17
6.550000E+03	2.058078E-16	4.895152E-17
6.560000E+03	2.030857E-16	4.898371E-17
6.570000E+03	2.002840E-16	4.894379E-17
6.580000E+03	1.974131E-16	4.883664E-17
6.590000E+03	1.944629E-16	4.866209E-17
6.600000E+03	1.914691E-16	4.843143E-17
6.610000E+03	1.884676E-16	4.815619E-17
6.620000E+03	1.854305E-16	4.783177E-17
6.630000E+03	1.823953E-16	4.747012E-17
6.640000E+03	1.793780E-16	4.707777E-17
6.650000E+03	1.763746E-16	4.665594E-17
6.660000E+03	1.734409E-16	4.622160E-17
6.670000E+03	1.705523E-16	4.577041E-17
6.680000E+03	1.677618E-16	4.531864E-17
6.690000E+03	1.650442E-16	4.486153E-17
6.700000E+03	1.624307E-16	4.440936E-17
6.710000E+03	1.599319E-16	4.396686E-17
6.720000E+03	1.575571E-16	4.353826E-17
6.730000E+03	1.552967E-16	4.312248E-17
6.740000E+03	1.531928E-16	4.273266E-17
6.750000E+03	1.512330E-16	4.236678E-17
6.760000E+03	1.494045E-16	4.202254E-17
6.770000E+03	1.477280E-16	4.170685E-17
6.780000E+03	1.462055E-16	4.142143E-17
6.790000E+03	1.448383E-16	4.116765E-17
6.800000E+03	1.436272E-16	4.094658E-17
6.810000E+03	1.425720E-16	4.075904E-17
6.820000E+03	1.416561E-16	4.060099E-17
6.830000E+03	1.409107E-16	4.048204E-17
6.840000E+03	1.403023E-16	4.039316E-17
6.850000E+03	1.398452E-16	4.033897E-17
6.860000E+03	1.395374E-16	4.031934E-17
6.870000E+03	1.393768E-16	4.033402E-17
6.880000E+03	1.393611E-16	4.038263E-17
6.890000E+03	1.394877E-16	4.046471E-17
6.900000E+03	1.397542E-16	4.057968E-17
6.910000E+03	1.401418E-16	4.072225E-17
6.920000E+03	1.406799E-16	4.090093E-17
6.930000E+03	1.413335E-16	4.110560E-17
6.940000E+03	1.421160E-16	4.134000E-17
6.950000E+03	1.430243E-16	4.160319E-17
6.960000E+03	1.440557E-16	4.189415E-17
6.970000E+03	1.452075E-16	4.221182E-17
6.980000E+03	1.464769E-16	4.255510E-17
6.990000E+03	1.478442E-16	4.291797E-17
7.000000E+03	1.493405E-16	4.330901E-17
7.010000E+03	1.509293E-16	4.371718E-17
7.020000E+03	1.526249E-16	4.414617E-17
7.030000E+03	1.544249E-16	4.459472E-17
7.040000E+03	1.563270E-16	4.506156E-17
7.050000E+03	1.583288E-16	4.554538E-17
7.060000E+03	1.604279E-16	4.604483E-17
7.070000E+03	1.626221E-16	4.655848E-17
7.080000E+03	1.648898E-16	4.707942E-17
7.090000E+03	1.672660E-16	4.761675E-17
7.100000E+03	1.697094E-16	4.815786E-17
7.110000E+03	1.722554E-16	4.871181E-17
7.120000E+03	1.748609E-16	4.926533E-17
7.130000E+03	1.775407E-16	4.982156E-17
7.140000E+03	1.802897E-16	5.037787E-17
7.150000E+03	1.831018E-16	5.093128E-17
7.160000E+03	1.859485E-16	5.147258E-17
7.170000E+03	1.888644E-16	5.200992E-17
7.180000E+03	1.917970E-16	5.252735E-17
7.190000E+03	1.947801E-16	5.303253E-17
7.200000E+03	1.977575E-16	5.350849E-17
7.210000E+03	2.007390E-16	5.395614E-17
7.220000E+03	2.037107E-16	5.436998E-17
7.230000E+03	2.066583E-16	5.474420E-17
7.240000E+03	2.095661E-16	5.507270E-17
7.250000E+03	2.124180E-16	5.534918E-17
7.260000E+03	2.151974E-16	5.556715E-17
7.270000E+03	2.178875E-16	5.572006E-17
7.280000E+03	2.204456E-16	5.579482E-17
7.290000E+03	2.228801E-16	5.579140E-17
7.300000E+03	2.252012E-16	5.570996E-17
7.310000E+03	2.273414E-16	5.553140E-17
7.320000E+03	2.293124E-16	5.525642E-17
7.330000E+03	2.311013E-16	5.487964E-17
7.340000E+03	2.326966E-16	5.439615E-17
7.350000E+03	2.340885E-16	5.380159E-17
7.360000E+03	2.352691E-16	5.309217E-17
7.370000E+03	2.362047E-16	5.225866E-17
7.380000E+03	2.369465E-16	5.131101E-17
7.390000E+03	2.374370E-16	5.023539E-17
7.400000E+03	2.377319E-16	4.904282E-17
7.410000E+03	2.377770E-16	4.772142E-17
7.420000E+03	2.376041E-16	4.627772E-17
7.430000E+03	2.372186E-16	4.471304E-17
7.440000E+03	2.366272E-16	4.302940E-17
7.450000E+03	2.358383E-16	4.122951E-17
7.460000E+03	2.348613E-16	3.931670E-17
7.470000E+03	2.337065E-16	3.729490E-17
7.480000E+03	2.323851E-16	3.516858E-17
7.490000E+03	2.308811E-16	3.293879E-17
7.500000E+03	2.292616E-16	3.061909E-17
7.510000E+03	2.274840E-16	2.820788E-17
7.520000E+03	2.255875E-16	2.571558E-17
7.530000E+03	2.236106E-16	2.315212E-17
7.540000E+03	2.215106E-16	2.051981E-17
7.550000E+03	2.193247E-16	1.783145E-17
7.560000E+03	2.170622E-16	1.509980E-17
7.570000E+03	2.147312E-16	1.234387E-17
7.580000E+03	2.123388E-16	9.597535E-18
7.590000E+03	2.098910E-16	6.936820E-18
7.600000E+03	2.073680E-16	4.588534E-18
7.610000E+03	2.048255E-16	3.352488E-18
7.620000E+03	2.022199E-16	4.286521E-18
7.630000E+03	1.996077E-16	6.439575E-18
7.640000E+03	1.969482E-16	8.889320E-18
7.650000E+03	1.942739E-16	1.137420E-17
7.660000E+03	1.916150E-16	1.381698E-17
7.670000E+03	1.889306E-16	1.618520E-17
7.680000E+03	1.862488E-16	1.846779E-17
7.690000E+03	1.835732E-16	2.065930E-17
7.700000E+03	1.809063E-16	2.275754E-17
7.710000E+03	1.782499E-16	2.476197E-17
7.720000E+03	1.755837E-16	2.666967E-17
7.730000E+03	1.729517E-16	2.848779E-17
7.740000E+03	1.703324E-16	3.021446E-17
7.750000E+03	1.677054E-16	3.184706E-17
7.760000E+03	1.651122E-16	3.339467E-17
