#wls	flux	fluxerr
1.587349E+03	2.965205E-18	2.745156E-20
1.627033E+03	2.984754E-18	2.757821E-20
1.666716E+03	3.006938E-18	2.772694E-20
1.706400E+03	3.032533E-18	2.790467E-20
1.746084E+03	3.062711E-18	2.812192E-20
1.785767E+03	3.098051E-18	2.838360E-20
1.825451E+03	3.139526E-18	2.869823E-20
1.865135E+03	3.187796E-18	2.907132E-20
1.904819E+03	3.243301E-18	2.950632E-20
1.944502E+03	3.306770E-18	3.000923E-20
1.984186E+03	3.379859E-18	3.059435E-20
2.023870E+03	3.466657E-18	3.129775E-20
2.063553E+03	3.574119E-18	3.218088E-20
2.103237E+03	3.715082E-18	3.335724E-20
2.142921E+03	3.905036E-18	3.496267E-20
2.182605E+03	4.155607E-18	3.709677E-20
2.222288E+03	4.470694E-18	3.978891E-20
2.261972E+03	4.844298E-18	4.297991E-20
2.301656E+03	5.266533E-18	4.657667E-20
2.341340E+03	5.727796E-18	5.048941E-20
2.381023E+03	6.221409E-18	5.465499E-20
2.420707E+03	6.744651E-18	5.904552E-20
2.460391E+03	7.296606E-18	6.364902E-20
2.500074E+03	7.879566E-18	6.848134E-20
2.539758E+03	8.496442E-18	7.356326E-20
2.579442E+03	9.147999E-18	7.889641E-20
2.619126E+03	9.834272E-18	8.447593E-20
2.658809E+03	1.055699E-17	9.031117E-20
2.698493E+03	1.132053E-17	9.643359E-20
2.738177E+03	1.212720E-17	1.028563E-19
2.777860E+03	1.297727E-17	1.095746E-19
2.817544E+03	1.387067E-17	1.165804E-19
2.857228E+03	1.481067E-17	1.238935E-19
2.896912E+03	1.580289E-17	1.315526E-19
2.936595E+03	1.685612E-17	1.396211E-19
2.976279E+03	1.798451E-17	1.482050E-19
2.986200E+03	1.828046E-17	1.504473E-19
2.996121E+03	1.858237E-17	1.527311E-19
3.006042E+03	1.889051E-17	1.550585E-19
3.015963E+03	1.920562E-17	1.574352E-19
3.025884E+03	1.952801E-17	1.598634E-19
3.035805E+03	1.985818E-17	1.623469E-19
3.045726E+03	2.019639E-17	1.648876E-19
3.055646E+03	2.054388E-17	1.674952E-19
3.065567E+03	2.090098E-17	1.701720E-19
3.075488E+03	2.126852E-17	1.729244E-19
3.085409E+03	2.164692E-17	1.757554E-19
3.095330E+03	2.203622E-17	1.786648E-19
3.105251E+03	2.243779E-17	1.816633E-19
3.115172E+03	2.285134E-17	1.847481E-19
3.125093E+03	2.327794E-17	1.879273E-19
3.135014E+03	2.371873E-17	1.912095E-19
3.144935E+03	2.417400E-17	1.945966E-19
3.154856E+03	2.464508E-17	1.980985E-19
3.164777E+03	2.513241E-17	2.017182E-19
3.174698E+03	2.563748E-17	2.054670E-19
3.184619E+03	2.616138E-17	2.093528E-19
3.194540E+03	2.670488E-17	2.133811E-19
3.204460E+03	2.726978E-17	2.175653E-19
3.214381E+03	2.785751E-17	2.219160E-19
3.224302E+03	2.846968E-17	2.264450E-19
3.234223E+03	2.910802E-17	2.311652E-19
3.244144E+03	2.977440E-17	2.360901E-19
3.254065E+03	3.047083E-17	2.412346E-19
3.263986E+03	3.119899E-17	2.466107E-19
3.273907E+03	3.196216E-17	2.522429E-19
3.283828E+03	3.276175E-17	2.581410E-19
3.293749E+03	3.360080E-17	2.643271E-19
3.303670E+03	3.448134E-17	2.708158E-19
3.313591E+03	3.540643E-17	2.776292E-19
3.323512E+03	3.637853E-17	2.847846E-19
3.333433E+03	3.739878E-17	2.922891E-19
3.343353E+03	3.847009E-17	3.001631E-19
3.353274E+03	3.959260E-17	3.084058E-19
3.363195E+03	4.076730E-17	3.170224E-19
3.373116E+03	4.199348E-17	3.260053E-19
3.383037E+03	4.326783E-17	3.353265E-19
3.392958E+03	4.458754E-17	3.449621E-19
3.402879E+03	4.594537E-17	3.548541E-19
3.412800E+03	4.733284E-17	3.649354E-19
3.422721E+03	4.873897E-17	3.751200E-19
3.432642E+03	5.014973E-17	3.852991E-19
3.442563E+03	5.155027E-17	3.953584E-19
3.452484E+03	5.292232E-17	4.051580E-19
3.462405E+03	5.424833E-17	4.145649E-19
3.472326E+03	5.551063E-17	4.234459E-19
3.482246E+03	5.669467E-17	4.316925E-19
3.492167E+03	5.778673E-17	4.392035E-19
3.502088E+03	5.877751E-17	4.459120E-19
3.512009E+03	5.966340E-17	4.517948E-19
3.521930E+03	6.044225E-17	4.568398E-19
3.531851E+03	6.111785E-17	4.610799E-19
3.541772E+03	6.169699E-17	4.645707E-19
3.551693E+03	6.218691E-17	4.673705E-19
3.561614E+03	6.259689E-17	4.695527E-19
3.571535E+03	6.293431E-17	4.711759E-19
3.581456E+03	6.320586E-17	4.722931E-19
3.591377E+03	6.341691E-17	4.729473E-19
3.601298E+03	6.356862E-17	4.731496E-19
3.611219E+03	6.366296E-17	4.729173E-19
3.621140E+03	6.369856E-17	4.722428E-19
3.631060E+03	6.367434E-17	4.711207E-19
3.640981E+03	6.358925E-17	4.695458E-19
3.650902E+03	6.344541E-17	4.675366E-19
3.660823E+03	6.324717E-17	4.651276E-19
3.670744E+03	6.300197E-17	4.623760E-19
3.680665E+03	6.272269E-17	4.593784E-19
3.690586E+03	6.242590E-17	4.562574E-19
3.700507E+03	6.213146E-17	4.531587E-19
3.710428E+03	6.186490E-17	4.502681E-19
3.720349E+03	6.165086E-17	4.477634E-19
3.730270E+03	6.151683E-17	4.458414E-19
3.740191E+03	6.149062E-17	4.446995E-19
3.750112E+03	6.159616E-17	4.445056E-19
3.760033E+03	6.185775E-17	4.454284E-19
3.769953E+03	6.229369E-17	4.475920E-19
3.779874E+03	6.291950E-17	4.510995E-19
3.789795E+03	6.374481E-17	4.560107E-19
3.799716E+03	6.477264E-17	4.623377E-19
3.809637E+03	6.600000E-17	4.700493E-19
3.819558E+03	6.741740E-17	4.790684E-19
3.829479E+03	6.900686E-17	4.892582E-19
3.839400E+03	7.074425E-17	5.004395E-19
3.849321E+03	7.259728E-17	5.123771E-19
3.859242E+03	7.452880E-17	5.248034E-19
3.869163E+03	7.649617E-17	5.374147E-19
3.879084E+03	7.845361E-17	5.498881E-19
3.889005E+03	8.035491E-17	5.619008E-19
3.898926E+03	8.215359E-17	5.731309E-19
3.908846E+03	8.380783E-17	5.832921E-19
3.918767E+03	8.528109E-17	5.921377E-19
3.928688E+03	8.654138E-17	5.994547E-19
3.938609E+03	8.756818E-17	6.051120E-19
3.948530E+03	8.834613E-17	6.090151E-19
3.958451E+03	8.886852E-17	6.111301E-19
3.968372E+03	8.913655E-17	6.114782E-19
3.978293E+03	8.915593E-17	6.101114E-19
3.988214E+03	8.893948E-17	6.071295E-19
3.998135E+03	8.850193E-17	6.026450E-19
4.008056E+03	8.786042E-17	5.967857E-19
4.017977E+03	8.703286E-17	5.896834E-19
4.027898E+03	8.604033E-17	5.814904E-19
4.037819E+03	8.490299E-17	5.723510E-19
4.047740E+03	8.364147E-17	5.624118E-19
4.057660E+03	8.227684E-17	5.518206E-19
4.067581E+03	8.083069E-17	5.407274E-19
4.077502E+03	7.932579E-17	5.292888E-19
4.087423E+03	7.778402E-17	5.176534E-19
4.097344E+03	7.622892E-17	5.059799E-19
4.107265E+03	7.468340E-17	4.944209E-19
4.117186E+03	7.317001E-17	4.831249E-19
4.127107E+03	7.171037E-17	4.722328E-19
4.137028E+03	7.032448E-17	4.618736E-19
4.146949E+03	6.903060E-17	4.521631E-19
4.156870E+03	6.784217E-17	4.431845E-19
4.166791E+03	6.677058E-17	4.350067E-19
4.176712E+03	6.582292E-17	4.276696E-19
4.186633E+03	6.499989E-17	4.211715E-19
4.196553E+03	6.429916E-17	4.154908E-19
4.206474E+03	6.371276E-17	4.105697E-19
4.216395E+03	6.322974E-17	4.063320E-19
4.226316E+03	6.283483E-17	4.026744E-19
4.236237E+03	6.251050E-17	3.994803E-19
4.246158E+03	6.223972E-17	3.966375E-19
4.256079E+03	6.200291E-17	3.940187E-19
4.266000E+03	6.178452E-17	3.915237E-19
4.275921E+03	6.156981E-17	3.890585E-19
4.285842E+03	6.134798E-17	3.865550E-19
4.295763E+03	6.111171E-17	3.839676E-19
4.305684E+03	6.085912E-17	3.812854E-19
4.315605E+03	6.059225E-17	3.785221E-19
4.325526E+03	6.031675E-17	3.757139E-19
4.335446E+03	6.004385E-17	3.729310E-19
4.345367E+03	5.978537E-17	3.702467E-19
4.355288E+03	5.955628E-17	3.677527E-19
4.365209E+03	5.937096E-17	3.655359E-19
4.375130E+03	5.924407E-17	3.636844E-19
4.385051E+03	5.918694E-17	3.622641E-19
4.394972E+03	5.921015E-17	3.613361E-19
4.404893E+03	5.931927E-17	3.609300E-19
4.414814E+03	5.951582E-17	3.610505E-19
4.424735E+03	5.979862E-17	3.616858E-19
4.434656E+03	6.016054E-17	3.627884E-19
4.444577E+03	6.059076E-17	3.642891E-19
4.454498E+03	6.107455E-17	3.660960E-19
4.464419E+03	6.159372E-17	3.680977E-19
4.474340E+03	6.212672E-17	3.701639E-19
4.484260E+03	6.265106E-17	3.721606E-19
4.494181E+03	6.314256E-17	3.739452E-19
4.504102E+03	6.357639E-17	3.753730E-19
4.514023E+03	6.392869E-17	3.763069E-19
4.523944E+03	6.417900E-17	3.766313E-19
4.533865E+03	6.430965E-17	3.762486E-19
4.543786E+03	6.430619E-17	3.750810E-19
4.553707E+03	6.416176E-17	3.730960E-19
4.563628E+03	6.387233E-17	3.702780E-19
4.573549E+03	6.344225E-17	3.666599E-19
4.583470E+03	6.288114E-17	3.623047E-19
4.593391E+03	6.220340E-17	3.573024E-19
4.603312E+03	6.142867E-17	3.517715E-19
4.613233E+03	6.057919E-17	3.458443E-19
4.623153E+03	5.968214E-17	3.396794E-19
4.633074E+03	5.876339E-17	3.334261E-19
4.642995E+03	5.785151E-17	3.272471E-19
4.652916E+03	5.697321E-17	3.212929E-19
4.662837E+03	5.615403E-17	3.157053E-19
4.672758E+03	5.541578E-17	3.106034E-19
4.682679E+03	5.477788E-17	3.060916E-19
4.692600E+03	5.425461E-17	3.022444E-19
4.702521E+03	5.385736E-17	2.991193E-19
4.712442E+03	5.359067E-17	2.967350E-19
4.722363E+03	5.345593E-17	2.950929E-19
4.732284E+03	5.344943E-17	2.941660E-19
4.742205E+03	5.356274E-17	2.939017E-19
4.752126E+03	5.378476E-17	2.942338E-19
4.762046E+03	5.410035E-17	2.950745E-19
4.771967E+03	5.449275E-17	2.963284E-19
4.781888E+03	5.494400E-17	2.978947E-19
4.791809E+03	5.543595E-17	2.996728E-19
4.801730E+03	5.595087E-17	3.015657E-19
4.811651E+03	5.647451E-17	3.034960E-19
4.821572E+03	5.699247E-17	3.053866E-19
4.831493E+03	5.749612E-17	3.071922E-19
4.841414E+03	5.797819E-17	3.088752E-19
4.851335E+03	5.843523E-17	3.104186E-19
4.861256E+03	5.886400E-17	3.118069E-19
4.871177E+03	5.926413E-17	3.130399E-19
4.881098E+03	5.963485E-17	3.141153E-19
4.891019E+03	5.997426E-17	3.150249E-19
4.900940E+03	6.028067E-17	3.157617E-19
4.910860E+03	6.055009E-17	3.163066E-19
4.920781E+03	6.077898E-17	3.166433E-19
4.930702E+03	6.096178E-17	3.167450E-19
4.940623E+03	6.109604E-17	3.166015E-19
4.950544E+03	6.117847E-17	3.161980E-19
4.960465E+03	6.120989E-17	3.155412E-19
4.970386E+03	6.119270E-17	3.146460E-19
4.980307E+03	6.113342E-17	3.135479E-19
4.990228E+03	6.104050E-17	3.122921E-19
5.000149E+03	6.092306E-17	3.109268E-19
5.010070E+03	6.079317E-17	3.095145E-19
5.019991E+03	6.066238E-17	3.081147E-19
5.029912E+03	6.054163E-17	3.067830E-19
5.039833E+03	6.043935E-17	3.055620E-19
5.049753E+03	6.036483E-17	3.044982E-19
5.059674E+03	6.032443E-17	3.036227E-19
5.069595E+03	6.032106E-17	3.029496E-19
5.079516E+03	6.035999E-17	3.025044E-19
5.089437E+03	6.044239E-17	3.022919E-19
5.099358E+03	6.056996E-17	3.023196E-19
5.109279E+03	6.074392E-17	3.025927E-19
5.119200E+03	6.096449E-17	3.031115E-19
5.129121E+03	6.123276E-17	3.038806E-19
5.139042E+03	6.154804E-17	3.048958E-19
5.148963E+03	6.190951E-17	3.061524E-19
5.158884E+03	6.231539E-17	3.076413E-19
5.168805E+03	6.276154E-17	3.093415E-19
5.178726E+03	6.324528E-17	3.112398E-19
5.188646E+03	6.376114E-17	3.133092E-19
5.198567E+03	6.430301E-17	3.155200E-19
5.208488E+03	6.486525E-17	3.178447E-19
5.218409E+03	6.544240E-17	3.202574E-19
5.228330E+03	6.602886E-17	3.227312E-19
5.238251E+03	6.662087E-17	3.252487E-19
5.248172E+03	6.721327E-17	3.277855E-19
5.258093E+03	6.780318E-17	3.303288E-19
5.268014E+03	6.838570E-17	3.328557E-19
5.277935E+03	6.895774E-17	3.353522E-19
5.287856E+03	6.951440E-17	3.377958E-19
5.297777E+03	7.005108E-17	3.401653E-19
5.307698E+03	7.056303E-17	3.424388E-19
5.317619E+03	7.104432E-17	3.445889E-19
5.327540E+03	7.149186E-17	3.466017E-19
5.337460E+03	7.190222E-17	3.484616E-19
5.347381E+03	7.227349E-17	3.501605E-19
5.357302E+03	7.260167E-17	3.516801E-19
5.367223E+03	7.288121E-17	3.529942E-19
5.377144E+03	7.309148E-17	3.540037E-19
5.387065E+03	7.319876E-17	3.545457E-19
5.396986E+03	7.317721E-17	3.544950E-19
5.406907E+03	7.303527E-17	3.538916E-19
5.416828E+03	7.279217E-17	3.528280E-19
5.426749E+03	7.245634E-17	3.513437E-19
5.436670E+03	7.203823E-17	3.494882E-19
5.446591E+03	7.154989E-17	3.473185E-19
5.456512E+03	7.099723E-17	3.448618E-19
5.466433E+03	7.037453E-17	3.420886E-19
5.476353E+03	6.967756E-17	3.389765E-19
5.486274E+03	6.891020E-17	3.355423E-19
5.496195E+03	6.808630E-17	3.318514E-19
5.506116E+03	6.722032E-17	3.279722E-19
5.516037E+03	6.632786E-17	3.239790E-19
5.525958E+03	6.542446E-17	3.199459E-19
5.535879E+03	6.452143E-17	3.159268E-19
5.545800E+03	6.362886E-17	3.119699E-19
5.555721E+03	6.275425E-17	3.081109E-19
5.565642E+03	6.190213E-17	3.043713E-19
5.575563E+03	6.107575E-17	3.007662E-19
5.585484E+03	6.027616E-17	2.973003E-19
5.595405E+03	5.950345E-17	2.939735E-19
5.605326E+03	5.875794E-17	2.907871E-19
5.615246E+03	5.803882E-17	2.877365E-19
5.625167E+03	5.734835E-17	2.848328E-19
5.635088E+03	5.668670E-17	2.820767E-19
5.645009E+03	5.605756E-17	2.794864E-19
5.654930E+03	5.546445E-17	2.770796E-19
5.664851E+03	5.491108E-17	2.748751E-19
5.674772E+03	5.440321E-17	2.729022E-19
5.684693E+03	5.394451E-17	2.711802E-19
5.694614E+03	5.353885E-17	2.697293E-19
5.704535E+03	5.318790E-17	2.685593E-19
5.714456E+03	5.289178E-17	2.676719E-19
5.724377E+03	5.264701E-17	2.670509E-19
5.734298E+03	5.244935E-17	2.666760E-19
5.744219E+03	5.228991E-17	2.665033E-19
5.754140E+03	5.215968E-17	2.664876E-19
5.764060E+03	5.204841E-17	2.665772E-19
5.773981E+03	5.194480E-17	2.667146E-19
5.783902E+03	5.183737E-17	2.668403E-19
5.793823E+03	5.171675E-17	2.669057E-19
5.803744E+03	5.157529E-17	2.668704E-19
5.813665E+03	5.140568E-17	2.666951E-19
5.823586E+03	5.120461E-17	2.663612E-19
5.833507E+03	5.097101E-17	2.658613E-19
5.843428E+03	5.070416E-17	2.651899E-19
5.853349E+03	5.040729E-17	2.643623E-19
5.863270E+03	5.008372E-17	2.633941E-19
5.873191E+03	4.973634E-17	2.622991E-19
5.883112E+03	4.936994E-17	2.611010E-19
5.893033E+03	4.898905E-17	2.598227E-19
5.902953E+03	4.859592E-17	2.584751E-19
5.912874E+03	4.819363E-17	2.570737E-19
5.922795E+03	4.778376E-17	2.556260E-19
5.932716E+03	4.736636E-17	2.541317E-19
5.942637E+03	4.694111E-17	2.525883E-19
5.952558E+03	4.650695E-17	2.509892E-19
5.962479E+03	4.606157E-17	2.493213E-19
5.972400E+03	4.560320E-17	2.475740E-19
5.982321E+03	4.512852E-17	2.457284E-19
5.992242E+03	4.463440E-17	2.437660E-19
6.002163E+03	4.411630E-17	2.416608E-19
6.012084E+03	4.357152E-17	2.393965E-19
6.022005E+03	4.299467E-17	2.369416E-19
6.031926E+03	4.238285E-17	2.342782E-19
6.041846E+03	4.173085E-17	2.313754E-19
6.051767E+03	4.103637E-17	2.282180E-19
6.061688E+03	4.029533E-17	2.247807E-19
6.071609E+03	3.950665E-17	2.210549E-19
6.081530E+03	3.867019E-17	2.170369E-19
6.091451E+03	3.778704E-17	2.127302E-19
6.101372E+03	3.686047E-17	2.081504E-19
6.111293E+03	3.589702E-17	2.033321E-19
6.121214E+03	3.490522E-17	1.983215E-19
6.131135E+03	3.389609E-17	1.931796E-19
6.141056E+03	3.288278E-17	1.879805E-19
6.150977E+03	3.188106E-17	1.828140E-19
6.160898E+03	3.090747E-17	1.777757E-19
6.170819E+03	2.997794E-17	1.729587E-19
6.180740E+03	2.910993E-17	1.684662E-19
6.190660E+03	2.831914E-17	1.643923E-19
6.200581E+03	2.762064E-17	1.608289E-19
6.210502E+03	2.702883E-17	1.578646E-19
6.220423E+03	2.655596E-17	1.555770E-19
6.230344E+03	2.621315E-17	1.540375E-19
6.240265E+03	2.600990E-17	1.533092E-19
6.250186E+03	2.595461E-17	1.534490E-19
6.260107E+03	2.605587E-17	1.545158E-19
6.270028E+03	2.631986E-17	1.565546E-19
6.279949E+03	2.675355E-17	1.596160E-19
6.289870E+03	2.736225E-17	1.637407E-19
6.299791E+03	2.815146E-17	1.689712E-19
6.309712E+03	2.912425E-17	1.753356E-19
6.319633E+03	3.028248E-17	1.828552E-19
6.329553E+03	3.162522E-17	1.915344E-19
6.339474E+03	3.314646E-17	2.013465E-19
6.349395E+03	3.483733E-17	2.122472E-19
6.359316E+03	3.668268E-17	2.241530E-19
6.369237E+03	3.866157E-17	2.369440E-19
6.379158E+03	4.074794E-17	2.504670E-19
6.389079E+03	4.291083E-17	2.645370E-19
6.399000E+03	4.511569E-17	2.789443E-19
6.408921E+03	4.732544E-17	2.934613E-19
6.418842E+03	4.950309E-17	3.078579E-19
6.428763E+03	5.161464E-17	3.219203E-19
6.438684E+03	5.362791E-17	3.354434E-19
6.448605E+03	5.551928E-17	3.482736E-19
6.458526E+03	5.726983E-17	3.602851E-19
6.468446E+03	5.886683E-17	3.713897E-19
6.478367E+03	6.030319E-17	3.815344E-19
6.488288E+03	6.157640E-17	3.906941E-19
6.498209E+03	6.268834E-17	3.988720E-19
6.508130E+03	6.364104E-17	4.060723E-19
6.518051E+03	6.443960E-17	4.123187E-19
6.527972E+03	6.508848E-17	4.176316E-19
6.537893E+03	6.559101E-17	4.220242E-19
6.547814E+03	6.595251E-17	4.255230E-19
6.557735E+03	6.617740E-17	4.281487E-19
6.567656E+03	6.627055E-17	4.299259E-19
6.577577E+03	6.623773E-17	4.308847E-19
6.587498E+03	6.608593E-17	4.310641E-19
6.597419E+03	6.582348E-17	4.305122E-19
6.607340E+03	6.545886E-17	4.292787E-19
6.617260E+03	6.500379E-17	4.274353E-19
6.627181E+03	6.446819E-17	4.250426E-19
6.637102E+03	6.386410E-17	4.221758E-19
6.647023E+03	6.320172E-17	4.188992E-19
6.656944E+03	6.248899E-17	4.152624E-19
6.666865E+03	6.173358E-17	4.113139E-19
6.676786E+03	6.094291E-17	4.071010E-19
6.686707E+03	6.012013E-17	4.026431E-19
6.696628E+03	5.927211E-17	3.979849E-19
6.706549E+03	5.840254E-17	3.931496E-19
6.716470E+03	5.751563E-17	3.881649E-19
6.726391E+03	5.661844E-17	3.830777E-19
6.736312E+03	5.571788E-17	3.779343E-19
6.746233E+03	5.482043E-17	3.727788E-19
6.756153E+03	5.393488E-17	3.676712E-19
6.766074E+03	5.306769E-17	3.626566E-19
6.775995E+03	5.222653E-17	3.577883E-19
6.785916E+03	5.141491E-17	3.530920E-19
6.795837E+03	5.063876E-17	3.486101E-19
6.805758E+03	4.989869E-17	3.443486E-19
6.815679E+03	4.919765E-17	3.403298E-19
6.825600E+03	4.853369E-17	3.365422E-19
6.835521E+03	4.790683E-17	3.329880E-19
6.845442E+03	4.731471E-17	3.296525E-19
6.855363E+03	4.675650E-17	3.265318E-19
6.865284E+03	4.622952E-17	3.236088E-19
6.875205E+03	4.573299E-17	3.208797E-19
6.885126E+03	4.526364E-17	3.183230E-19
6.895046E+03	4.482193E-17	3.159435E-19
6.904967E+03	4.440591E-17	3.137285E-19
6.914888E+03	4.401387E-17	3.116674E-19
6.924809E+03	4.364685E-17	3.097688E-19
6.934730E+03	4.330269E-17	3.080185E-19
6.944651E+03	4.298191E-17	3.064215E-19
6.954572E+03	4.268350E-17	3.049715E-19
6.964493E+03	4.240820E-17	3.036751E-19
6.974414E+03	4.215507E-17	3.025266E-19
6.984335E+03	4.192480E-17	3.015320E-19
6.994256E+03	4.171542E-17	3.006783E-19
7.004177E+03	4.152809E-17	2.999749E-19
7.014098E+03	4.136045E-17	2.994057E-19
7.024019E+03	4.121318E-17	2.989766E-19
7.033940E+03	4.108359E-17	2.986689E-19
7.043860E+03	4.097139E-17	2.984814E-19
7.053781E+03	4.087478E-17	2.984019E-19
7.063702E+03	4.079386E-17	2.984317E-19
7.073623E+03	4.072823E-17	2.985686E-19
7.083544E+03	4.067618E-17	2.988007E-19
7.093465E+03	4.063958E-17	2.991425E-19
7.103386E+03	4.061888E-17	2.995980E-19
7.113307E+03	4.061291E-17	3.001591E-19
7.123228E+03	4.062286E-17	3.008355E-19
7.133149E+03	4.064894E-17	3.016293E-19
7.143070E+03	4.069029E-17	3.025348E-19
7.152991E+03	4.074835E-17	3.035635E-19
7.162912E+03	4.082115E-17	3.047014E-19
7.172833E+03	4.090847E-17	3.059474E-19
7.182753E+03	4.101115E-17	3.073084E-19
7.192674E+03	4.112796E-17	3.087759E-19
7.202595E+03	4.126154E-17	3.103703E-19
7.212516E+03	4.141258E-17	3.120975E-19
7.222437E+03	4.158314E-17	3.139737E-19
7.232358E+03	4.177475E-17	3.160115E-19
7.242279E+03	4.199001E-17	3.182311E-19
7.252200E+03	4.223229E-17	3.206593E-19
7.262121E+03	4.250292E-17	3.233072E-19
7.272042E+03	4.280265E-17	3.261818E-19
7.281963E+03	4.313244E-17	3.292914E-19
7.291884E+03	4.349253E-17	3.326391E-19
7.301805E+03	4.388235E-17	3.362217E-19
7.311726E+03	4.429963E-17	3.400229E-19
7.321646E+03	4.474125E-17	3.440199E-19
7.331567E+03	4.520428E-17	3.481908E-19
7.341488E+03	4.568295E-17	3.524920E-19
7.351409E+03	4.617446E-17	3.569024E-19
7.361330E+03	4.667022E-17	3.613559E-19
7.371251E+03	4.716358E-17	3.658010E-19
7.381172E+03	4.764808E-17	3.701873E-19
7.391093E+03	4.811667E-17	3.744594E-19
7.401014E+03	4.855985E-17	3.785428E-19
7.410935E+03	4.897121E-17	3.823861E-19
7.420856E+03	4.934270E-17	3.859251E-19
7.430777E+03	4.966920E-17	3.891182E-19
7.440698E+03	4.994359E-17	3.919076E-19
7.450619E+03	5.016357E-17	3.942732E-19
7.460540E+03	5.032646E-17	3.961917E-19
7.470460E+03	5.043140E-17	3.976543E-19
7.480381E+03	5.048045E-17	3.986750E-19
7.490302E+03	5.047510E-17	3.992634E-19
7.500223E+03	5.042154E-17	3.994665E-19
7.510144E+03	5.032356E-17	3.993128E-19
7.520065E+03	5.018680E-17	3.988452E-19
7.529986E+03	5.001826E-17	3.981182E-19
7.539907E+03	4.982378E-17	3.971772E-19
7.549828E+03	4.960896E-17	3.960659E-19
7.559749E+03	4.937768E-17	3.948148E-19
7.569670E+03	4.913665E-17	3.934769E-19
7.579591E+03	4.888733E-17	3.920637E-19
7.589512E+03	4.863504E-17	3.906178E-19
7.599433E+03	4.837999E-17	3.891407E-19
7.609353E+03	4.812639E-17	3.876662E-19
7.619274E+03	4.787357E-17	3.861892E-19
7.629195E+03	4.762504E-17	3.847380E-19
7.639116E+03	4.738078E-17	3.833126E-19
7.649037E+03	4.714174E-17	3.819210E-19
7.658958E+03	4.690757E-17	3.805606E-19
7.668879E+03	4.668113E-17	3.792548E-19
7.678800E+03	4.646170E-17	3.779981E-19
7.688721E+03	4.624944E-17	3.767919E-19
7.698642E+03	4.604306E-17	3.756263E-19
