#wls	flux	fluxerr
1.587349E+03	-8.666224E-19	-3.366414E-20
1.627033E+03	-8.855467E-19	-3.409306E-20
1.666716E+03	-9.010226E-19	-3.437040E-20
1.706400E+03	-9.132789E-19	-3.450802E-20
1.746084E+03	-9.225476E-19	-3.451771E-20
1.785767E+03	-9.283976E-19	-3.438651E-20
1.825451E+03	-9.311446E-19	-3.412962E-20
1.865135E+03	-9.299996E-19	-3.372189E-20
1.904819E+03	-9.251463E-19	-3.317443E-20
1.944502E+03	-9.161250E-19	-3.247548E-20
1.984186E+03	-9.030657E-19	-3.163486E-20
2.023870E+03	-8.862241E-19	-3.066677E-20
2.063553E+03	-8.676618E-19	-2.964686E-20
2.103237E+03	-8.497929E-19	-2.865922E-20
2.142921E+03	-8.353215E-19	-2.779333E-20
2.182605E+03	-8.258541E-19	-2.709764E-20
2.222288E+03	-8.201407E-19	-2.652502E-20
2.261972E+03	-8.156810E-19	-2.599066E-20
2.301656E+03	-8.097941E-19	-2.540875E-20
2.341340E+03	-8.000696E-19	-2.470711E-20
2.381023E+03	-7.853201E-19	-2.385565E-20
2.420707E+03	-7.650138E-19	-2.284651E-20
2.460391E+03	-7.392867E-19	-2.169280E-20
2.500074E+03	-7.086124E-19	-2.041736E-20
2.539758E+03	-6.735772E-19	-1.904548E-20
2.579442E+03	-6.350319E-19	-1.760875E-20
2.619126E+03	-5.939987E-19	-1.614174E-20
2.658809E+03	-5.512616E-19	-1.467054E-20
2.698493E+03	-5.078622E-19	-1.322627E-20
2.738177E+03	-4.647431E-19	-1.183519E-20
2.777860E+03	-4.225969E-19	-1.051511E-20
2.817544E+03	-3.821074E-19	-9.281968E-21
2.857228E+03	-3.437804E-19	-8.145762E-21
2.896912E+03	-3.079073E-19	-7.110213E-21
2.936595E+03	-2.746698E-19	-6.175741E-21
2.976279E+03	-2.441313E-19	-5.339595E-21
2.986200E+03	-2.369320E-19	-5.145705E-21
2.996121E+03	-2.298467E-19	-4.956437E-21
3.006042E+03	-2.229515E-19	-4.773370E-21
3.015963E+03	-2.162147E-19	-4.595753E-21
3.025884E+03	-2.096084E-19	-4.422929E-21
3.035805E+03	-2.031535E-19	-4.255284E-21
3.045726E+03	-1.968437E-19	-4.092619E-21
3.055646E+03	-1.906809E-19	-3.934915E-21
3.065567E+03	-1.846769E-19	-3.782350E-21
3.075488E+03	-1.787846E-19	-3.633898E-21
3.085409E+03	-1.730168E-19	-3.489770E-21
3.095330E+03	-1.673829E-19	-3.350101E-21
3.105251E+03	-1.618573E-19	-3.214322E-21
3.115172E+03	-1.564323E-19	-3.082239E-21
3.125093E+03	-1.511155E-19	-2.953953E-21
3.135014E+03	-1.458828E-19	-2.828953E-21
3.144935E+03	-1.407267E-19	-2.707055E-21
3.154856E+03	-1.356521E-19	-2.588322E-21
3.164777E+03	-1.306489E-19	-2.472527E-21
3.174698E+03	-1.256952E-19	-2.359226E-21
3.184619E+03	-1.207933E-19	-2.248440E-21
3.194540E+03	-1.159321E-19	-2.139943E-21
3.204460E+03	-1.110901E-19	-2.033325E-21
3.214381E+03	-1.062761E-19	-1.928734E-21
3.224302E+03	-1.014578E-19	-1.825578E-21
3.234223E+03	-9.664028E-20	-1.723948E-21
3.244144E+03	-9.179975E-20	-1.623424E-21
3.254065E+03	-8.692089E-20	-1.523747E-21
3.263986E+03	-8.198713E-20	-1.424643E-21
3.273907E+03	-7.698693E-20	-1.325939E-21
3.283828E+03	-7.189331E-20	-1.227202E-21
3.293749E+03	-6.669008E-20	-1.128196E-21
3.303670E+03	-6.134720E-20	-1.028465E-21
3.313591E+03	-5.584268E-20	-9.277019E-22
3.323512E+03	-5.014576E-20	-8.254688E-22
3.333433E+03	-4.421870E-20	-7.212304E-22
3.343353E+03	-3.803039E-20	-6.145801E-22
3.353274E+03	-3.153373E-20	-5.048724E-22
3.363195E+03	-2.467996E-20	-3.914616E-22
3.373116E+03	-1.741378E-20	-2.736256E-22
3.383037E+03	-9.672970E-21	-1.505650E-22
3.392958E+03	-1.383774E-21	-2.133600E-23
3.402879E+03	7.536774E-21	1.151067E-22
3.412800E+03	1.718428E-20	2.599554E-22
3.422721E+03	2.767010E-20	4.145883E-22
3.432642E+03	3.912318E-20	5.805873E-22
3.442563E+03	5.169313E-20	7.597709E-22
3.452484E+03	6.555843E-20	9.543025E-22
3.462405E+03	8.091496E-20	1.166506E-21
3.472326E+03	9.801058E-20	1.399350E-21
3.482246E+03	1.171214E-19	1.656083E-21
3.492167E+03	1.385861E-19	1.940693E-21
3.502088E+03	1.627991E-19	2.257780E-21
3.512009E+03	1.902161E-19	2.612601E-21
3.521930E+03	2.214126E-19	3.011831E-21
3.531851E+03	2.570234E-19	3.462679E-21
3.541772E+03	2.978606E-19	3.974437E-21
3.551693E+03	3.448429E-19	4.557448E-21
3.561614E+03	3.990933E-19	5.224330E-21
3.571535E+03	4.618847E-19	5.989171E-21
3.581456E+03	5.347427E-19	6.868779E-21
3.591377E+03	6.194169E-19	7.882204E-21
3.601298E+03	7.179427E-19	9.051415E-21
3.611219E+03	8.326892E-19	1.040178E-20
3.621140E+03	9.664122E-19	1.196259E-20
3.631060E+03	1.122368E-18	1.376831E-20
3.640981E+03	1.304229E-18	1.585736E-20
3.650902E+03	1.516367E-18	1.827537E-20
3.660823E+03	1.763777E-18	2.107408E-20
3.670744E+03	2.052212E-18	2.431271E-20
3.680665E+03	2.388282E-18	2.805891E-20
3.690586E+03	2.779548E-18	3.238966E-20
3.700507E+03	3.234767E-18	3.739388E-20
3.710428E+03	3.763618E-18	4.316897E-20
3.720349E+03	4.377330E-18	4.982795E-20
3.730270E+03	5.088178E-18	5.749336E-20
3.740191E+03	5.910483E-18	6.630856E-20
3.750112E+03	6.859246E-18	7.642214E-20
3.760033E+03	7.951979E-18	8.800849E-20
3.769953E+03	9.206980E-18	1.012485E-19
3.779874E+03	1.064414E-17	1.163389E-19
3.789795E+03	1.228500E-17	1.334931E-19
3.799716E+03	1.415137E-17	1.529264E-19
3.809637E+03	1.626723E-17	1.748773E-19
3.819558E+03	1.865475E-17	1.995650E-19
3.829479E+03	2.133666E-17	2.272141E-19
3.839400E+03	2.433617E-17	2.580555E-19
3.849321E+03	2.767251E-17	2.922793E-19
3.859242E+03	3.136250E-17	3.300536E-19
3.869163E+03	3.541980E-17	3.715161E-19
3.879084E+03	3.984916E-17	4.167161E-19
3.889005E+03	4.465261E-17	4.656792E-19
3.898926E+03	4.982003E-17	5.183102E-19
3.908846E+03	5.533401E-17	5.744442E-19
3.918767E+03	6.116342E-17	6.337799E-19
3.928688E+03	6.726827E-17	6.959306E-19
3.938609E+03	7.360153E-17	7.604422E-19
3.948530E+03	8.010536E-17	8.267531E-19
3.958451E+03	8.672017E-17	8.942869E-19
3.968372E+03	9.337670E-17	9.623690E-19
3.978293E+03	1.000021E-16	1.030288E-18
3.988214E+03	1.065172E-16	1.097266E-18
3.998135E+03	1.128362E-16	1.162454E-18
4.008056E+03	1.188720E-16	1.224982E-18
4.017977E+03	1.245286E-16	1.283888E-18
4.027898E+03	1.297266E-16	1.338367E-18
4.037819E+03	1.343953E-16	1.387697E-18
4.047740E+03	1.384903E-16	1.431420E-18
4.057660E+03	1.419835E-16	1.469235E-18
4.067581E+03	1.448716E-16	1.501091E-18
4.077502E+03	1.471698E-16	1.527124E-18
4.087423E+03	1.489076E-16	1.547610E-18
4.097344E+03	1.501181E-16	1.562862E-18
4.107265E+03	1.508546E-16	1.573401E-18
4.117186E+03	1.511634E-16	1.579675E-18
4.127107E+03	1.511036E-16	1.582268E-18
4.137028E+03	1.507424E-16	1.581849E-18
4.146949E+03	1.501565E-16	1.579196E-18
4.156870E+03	1.494304E-16	1.575170E-18
4.166791E+03	1.486604E-16	1.570768E-18
4.176712E+03	1.479454E-16	1.567024E-18
4.186633E+03	1.473864E-16	1.565005E-18
4.196553E+03	1.470748E-16	1.565686E-18
4.206474E+03	1.470869E-16	1.569894E-18
4.216395E+03	1.474847E-16	1.578311E-18
4.226316E+03	1.482994E-16	1.591301E-18
4.236237E+03	1.495450E-16	1.609041E-18
4.246158E+03	1.512136E-16	1.631484E-18
4.256079E+03	1.532735E-16	1.658317E-18
4.266000E+03	1.556812E-16	1.689101E-18
4.275921E+03	1.583759E-16	1.723204E-18
4.285842E+03	1.612816E-16	1.759819E-18
4.295763E+03	1.643099E-16	1.797998E-18
4.305684E+03	1.673532E-16	1.836569E-18
4.315605E+03	1.702994E-16	1.874296E-18
4.325526E+03	1.730313E-16	1.909874E-18
4.335446E+03	1.754410E-16	1.942088E-18
4.345367E+03	1.774488E-16	1.970018E-18
4.355288E+03	1.790323E-16	1.993376E-18
4.365209E+03	1.802570E-16	2.012846E-18
4.375130E+03	1.812576E-16	2.029904E-18
4.385051E+03	1.822155E-16	2.046564E-18
4.394972E+03	1.833064E-16	2.064797E-18
4.404893E+03	1.846849E-16	2.086363E-18
4.414814E+03	1.864790E-16	2.112739E-18
4.424735E+03	1.887917E-16	2.145136E-18
4.434656E+03	1.917020E-16	2.184505E-18
4.444577E+03	1.952666E-16	2.231556E-18
4.454498E+03	1.995284E-16	2.286843E-18
4.464419E+03	2.045221E-16	2.350837E-18
4.474340E+03	2.102759E-16	2.423938E-18
4.484260E+03	2.168006E-16	2.506346E-18
4.494181E+03	2.240892E-16	2.598062E-18
4.504102E+03	2.320994E-16	2.698670E-18
4.514023E+03	2.407500E-16	2.807292E-18
4.523944E+03	2.498883E-16	2.922207E-18
4.533865E+03	2.593006E-16	3.040958E-18
4.543786E+03	2.687003E-16	3.160201E-18
4.553707E+03	2.777412E-16	3.275849E-18
4.563628E+03	2.860403E-16	3.383336E-18
4.573549E+03	2.932291E-16	3.478217E-18
4.583470E+03	2.989953E-16	3.556663E-18
4.593391E+03	3.031322E-16	3.616066E-18
4.603312E+03	3.055801E-16	3.655547E-18
4.613233E+03	3.064188E-16	3.675893E-18
4.623153E+03	3.058294E-16	3.679120E-18
4.633074E+03	3.040787E-16	3.668305E-18
4.642995E+03	3.014545E-16	3.646812E-18
4.652916E+03	2.982529E-16	3.618146E-18
4.662837E+03	2.947405E-16	3.585493E-18
4.672758E+03	2.911387E-16	3.551523E-18
4.682679E+03	2.876462E-16	3.518661E-18
4.692600E+03	2.844307E-16	3.488975E-18
4.702521E+03	2.816410E-16	3.464326E-18
4.712442E+03	2.793714E-16	3.445924E-18
4.722363E+03	2.776656E-16	3.434363E-18
4.732284E+03	2.764844E-16	3.429219E-18
4.742205E+03	2.757452E-16	3.429519E-18
4.752126E+03	2.753030E-16	3.433504E-18
4.762046E+03	2.750005E-16	3.439244E-18
4.771967E+03	2.746872E-16	3.444864E-18
4.781888E+03	2.742361E-16	3.448775E-18
4.791809E+03	2.735857E-16	3.450186E-18
4.801730E+03	2.727135E-16	3.448798E-18
4.811651E+03	2.716616E-16	3.445124E-18
4.821572E+03	2.705210E-16	3.440307E-18
4.831493E+03	2.694169E-16	3.435934E-18
4.841414E+03	2.684892E-16	3.433807E-18
4.851335E+03	2.679009E-16	3.436034E-18
4.861256E+03	2.678069E-16	3.444645E-18
4.871177E+03	2.683680E-16	3.461761E-18
4.881098E+03	2.697325E-16	3.489366E-18
4.891019E+03	2.720319E-16	3.529251E-18
4.900940E+03	2.753605E-16	3.582742E-18
4.910860E+03	2.797758E-16	3.650698E-18
4.920781E+03	2.852644E-16	3.733062E-18
4.930702E+03	2.917471E-16	3.828909E-18
4.940623E+03	2.990513E-16	3.936075E-18
4.950544E+03	3.069389E-16	4.051506E-18
4.960465E+03	3.150834E-16	4.170938E-18
4.970386E+03	3.231159E-16	4.289497E-18
4.980307E+03	3.306347E-16	4.401815E-18
4.990228E+03	3.372511E-16	4.502636E-18
5.000149E+03	3.426410E-16	4.587509E-18
5.010070E+03	3.465794E-16	4.653269E-18
5.019991E+03	3.489896E-16	4.698709E-18
5.029912E+03	3.499255E-16	4.724377E-18
5.039833E+03	3.495661E-16	4.732527E-18
5.049753E+03	3.481855E-16	4.726726E-18
5.059674E+03	3.460906E-16	4.711035E-18
5.069595E+03	3.436113E-16	4.689874E-18
5.079516E+03	3.410464E-16	4.667281E-18
5.089437E+03	3.386418E-16	4.646621E-18
5.099358E+03	3.365862E-16	4.630503E-18
5.109279E+03	3.349928E-16	4.620524E-18
5.119200E+03	3.339062E-16	4.617343E-18
5.129121E+03	3.333115E-16	4.620807E-18
5.139042E+03	3.331534E-16	4.630193E-18
5.148963E+03	3.333445E-16	4.644325E-18
5.158884E+03	3.337948E-16	4.661979E-18
5.168805E+03	3.344259E-16	4.682081E-18
5.178726E+03	3.351727E-16	4.703728E-18
5.188646E+03	3.359836E-16	4.726204E-18
5.198567E+03	3.368312E-16	4.749123E-18
5.208488E+03	3.376954E-16	4.772203E-18
5.218409E+03	3.385764E-16	4.795442E-18
5.228330E+03	3.394807E-16	4.818931E-18
5.238251E+03	3.404195E-16	4.842830E-18
5.248172E+03	3.414033E-16	4.867287E-18
5.258093E+03	3.424310E-16	4.892285E-18
5.268014E+03	3.434964E-16	4.917739E-18
5.277935E+03	3.445600E-16	4.943082E-18
5.287856E+03	3.455735E-16	4.967614E-18
5.297777E+03	3.464576E-16	4.990190E-18
5.307698E+03	3.471229E-16	5.009504E-18
5.317619E+03	3.474790E-16	5.024228E-18
5.327540E+03	3.474405E-16	5.033100E-18
5.337460E+03	3.469433E-16	5.035157E-18
5.347381E+03	3.459555E-16	5.029894E-18
5.357302E+03	3.444876E-16	5.017424E-18
5.367223E+03	3.425927E-16	4.998483E-18
5.377144E+03	3.403614E-16	4.974366E-18
5.387065E+03	3.379388E-16	4.947169E-18
5.396986E+03	3.355058E-16	4.919533E-18
5.406907E+03	3.332860E-16	4.894743E-18
5.416828E+03	3.315292E-16	4.876489E-18
5.426749E+03	3.305183E-16	4.868970E-18
5.436670E+03	3.305139E-16	4.876080E-18
5.446591E+03	3.317287E-16	4.901027E-18
5.456512E+03	3.342239E-16	4.944792E-18
5.466433E+03	3.378589E-16	5.005362E-18
5.476353E+03	3.423478E-16	5.078560E-18
5.486274E+03	3.472975E-16	5.158589E-18
5.496195E+03	3.522628E-16	5.238846E-18
5.506116E+03	3.567716E-16	5.312291E-18
5.516037E+03	3.603643E-16	5.372045E-18
5.525958E+03	3.626392E-16	5.412056E-18
5.535879E+03	3.632708E-16	5.427391E-18
5.545800E+03	3.620599E-16	5.414991E-18
5.555721E+03	3.589293E-16	5.373617E-18
5.565642E+03	3.539275E-16	5.303914E-18
5.575563E+03	3.472158E-16	5.208226E-18
5.585484E+03	3.390230E-16	5.089931E-18
5.595405E+03	3.296217E-16	4.953079E-18
5.605326E+03	3.192908E-16	4.801833E-18
5.615246E+03	3.083039E-16	4.640295E-18
5.625167E+03	2.969095E-16	4.472203E-18
5.635088E+03	2.853445E-16	4.301132E-18
5.645009E+03	2.738268E-16	4.130385E-18
5.654930E+03	2.625698E-16	3.963203E-18
5.664851E+03	2.517816E-16	3.802756E-18
5.674772E+03	2.416687E-16	3.652196E-18
5.684693E+03	2.324265E-16	3.514512E-18
5.694614E+03	2.242436E-16	3.392596E-18
5.704535E+03	2.172957E-16	3.289146E-18
5.714456E+03	2.117421E-16	3.206614E-18
5.724377E+03	2.077223E-16	3.147155E-18
5.734298E+03	2.053556E-16	3.112615E-18
5.744219E+03	2.047405E-16	3.104528E-18
5.754140E+03	2.059573E-16	3.124143E-18
5.764060E+03	2.090574E-16	3.172275E-18
5.773981E+03	2.140715E-16	3.249421E-18
5.783902E+03	2.209961E-16	3.355553E-18
5.793823E+03	2.297728E-16	3.489810E-18
5.803744E+03	2.402876E-16	3.650477E-18
5.813665E+03	2.523341E-16	3.834437E-18
5.823586E+03	2.656160E-16	4.037197E-18
5.833507E+03	2.797358E-16	4.252724E-18
5.843428E+03	2.942106E-16	4.473677E-18
5.853349E+03	3.085012E-16	4.691857E-18
5.863270E+03	3.220529E-16	4.898823E-18
5.873191E+03	3.343380E-16	5.086542E-18
5.883112E+03	3.449052E-16	5.248137E-18
5.893033E+03	3.533902E-16	5.378058E-18
5.902953E+03	3.595369E-16	5.472398E-18
5.912874E+03	3.631841E-16	5.528693E-18
5.922795E+03	3.642779E-16	5.546115E-18
5.932716E+03	3.628604E-16	5.525299E-18
5.942637E+03	3.590839E-16	5.468555E-18
5.952558E+03	3.532090E-16	5.379849E-18
5.962479E+03	3.455981E-16	5.264694E-18
5.972400E+03	3.366947E-16	5.129845E-18
5.982321E+03	3.269838E-16	4.982688E-18
5.992242E+03	3.169590E-16	4.830745E-18
6.002163E+03	3.070692E-16	4.680862E-18
6.012084E+03	2.977006E-16	4.538931E-18
6.022005E+03	2.891442E-16	4.409397E-18
6.031926E+03	2.816093E-16	4.295461E-18
6.041846E+03	2.752304E-16	4.199190E-18
6.051767E+03	2.700755E-16	4.121635E-18
6.061688E+03	2.661696E-16	4.063195E-18
6.071609E+03	2.635013E-16	4.023718E-18
6.081530E+03	2.620240E-16	4.002513E-18
6.091451E+03	2.616612E-16	3.998435E-18
6.101372E+03	2.622915E-16	4.009657E-18
6.111293E+03	2.637395E-16	4.033519E-18
6.121214E+03	2.657735E-16	4.066505E-18
6.131135E+03	2.681099E-16	4.104295E-18
6.141056E+03	2.704806E-16	4.142803E-18
6.150977E+03	2.727167E-16	4.179452E-18
6.160898E+03	2.747690E-16	4.213497E-18
6.170819E+03	2.766175E-16	4.244635E-18
6.180740E+03	2.781941E-16	4.271821E-18
6.190660E+03	2.793411E-16	4.292614E-18
6.200581E+03	2.798199E-16	4.303327E-18
6.210502E+03	2.793283E-16	4.299281E-18
6.220423E+03	2.775668E-16	4.275816E-18
6.230344E+03	2.742927E-16	4.229132E-18
6.240265E+03	2.693809E-16	4.157221E-18
6.250186E+03	2.628905E-16	4.060916E-18
6.260107E+03	2.550721E-16	3.944004E-18
6.270028E+03	2.463676E-16	3.813250E-18
6.279949E+03	2.373405E-16	3.677325E-18
6.289870E+03	2.285986E-16	3.545622E-18
6.299791E+03	2.207200E-16	3.427118E-18
6.309712E+03	2.142020E-16	3.329573E-18
6.319633E+03	2.094250E-16	3.258964E-18
6.329553E+03	2.066665E-16	3.219696E-18
6.339474E+03	2.060997E-16	3.214569E-18
6.349395E+03	2.078208E-16	3.245201E-18
6.359316E+03	2.118480E-16	3.311995E-18
6.369237E+03	2.181303E-16	3.414280E-18
6.379158E+03	2.265251E-16	3.549946E-18
6.389079E+03	2.367666E-16	3.714943E-18
6.399000E+03	2.484690E-16	3.903314E-18
6.408921E+03	2.610930E-16	4.106660E-18
6.418842E+03	2.739748E-16	4.314581E-18
6.428763E+03	2.863628E-16	4.515237E-18
6.438684E+03	2.974866E-16	4.696437E-18
6.448605E+03	3.066443E-16	4.847007E-18
6.458526E+03	3.132896E-16	4.958185E-18
6.468446E+03	3.171034E-16	5.024757E-18
6.478367E+03	3.180549E-16	5.046067E-18
6.488288E+03	3.163993E-16	5.025992E-18
6.498209E+03	3.126536E-16	4.972601E-18
6.508130E+03	3.075445E-16	4.897335E-18
6.518051E+03	3.018770E-16	4.812949E-18
6.527972E+03	2.964578E-16	4.732282E-18
6.537893E+03	2.919834E-16	4.666479E-18
6.547814E+03	2.889821E-16	4.624046E-18
6.557735E+03	2.877796E-16	4.610281E-18
6.567656E+03	2.884768E-16	4.626904E-18
6.577577E+03	2.909799E-16	4.672514E-18
6.587498E+03	2.949911E-16	4.742420E-18
6.597419E+03	3.000777E-16	4.829737E-18
6.607340E+03	3.056824E-16	4.925541E-18
6.617260E+03	3.112007E-16	5.020105E-18
6.627181E+03	3.160369E-16	5.103797E-18
6.637102E+03	3.196935E-16	5.168534E-18
6.647023E+03	3.218074E-16	5.208373E-18
6.656944E+03	3.222099E-16	5.220496E-18
6.666865E+03	3.208718E-16	5.204339E-18
6.676786E+03	3.179005E-16	5.161556E-18
6.686707E+03	3.134496E-16	5.094559E-18
6.696628E+03	3.076910E-16	5.006076E-18
6.706549E+03	3.008056E-16	4.898990E-18
6.716470E+03	2.929402E-16	4.775641E-18
6.726391E+03	2.842532E-16	4.638572E-18
6.736312E+03	2.748876E-16	4.490087E-18
6.746233E+03	2.650066E-16	4.332827E-18
6.756153E+03	2.547843E-16	4.169622E-18
6.766074E+03	2.444117E-16	4.003595E-18
6.775995E+03	2.340810E-16	3.837895E-18
6.785916E+03	2.239988E-16	3.675924E-18
6.795837E+03	2.143620E-16	3.520929E-18
6.805758E+03	2.053534E-16	3.375947E-18
6.815679E+03	1.971426E-16	3.243797E-18
6.825600E+03	1.898833E-16	3.127054E-18
6.835521E+03	1.837006E-16	3.027824E-18
6.845442E+03	1.787074E-16	2.948019E-18
6.855363E+03	1.750079E-16	2.889412E-18
6.865284E+03	1.726927E-16	2.853559E-18
6.875205E+03	1.718493E-16	2.841968E-18
6.885126E+03	1.725711E-16	2.856244E-18
6.895046E+03	1.749404E-16	2.897820E-18
6.904967E+03	1.790368E-16	2.968083E-18
6.914888E+03	1.849176E-16	3.068054E-18
6.924809E+03	1.925903E-16	3.197934E-18
6.934730E+03	2.020027E-16	3.356930E-18
6.944651E+03	2.129938E-16	3.542439E-18
6.954572E+03	2.252808E-16	3.749820E-18
6.964493E+03	2.384363E-16	3.972012E-18
6.974414E+03	2.518875E-16	4.199509E-18
6.984335E+03	2.649813E-16	4.421433E-18
6.994256E+03	2.770629E-16	4.626844E-18
7.004177E+03	2.875884E-16	4.806621E-18
7.014098E+03	2.962296E-16	4.955221E-18
7.024019E+03	3.028980E-16	5.071093E-18
7.033940E+03	3.077194E-16	5.156273E-18
7.043860E+03	3.109619E-16	5.215188E-18
7.053781E+03	3.129710E-16	5.253577E-18
7.063702E+03	3.140812E-16	5.277017E-18
7.073623E+03	3.145971E-16	5.290596E-18
7.083544E+03	3.147195E-16	5.297677E-18
7.093465E+03	3.145776E-16	5.300429E-18
7.103386E+03	3.142304E-16	5.299841E-18
7.113307E+03	3.136937E-16	5.296178E-18
7.123228E+03	3.130119E-16	5.290193E-18
7.133149E+03	3.122793E-16	5.283480E-18
7.143070E+03	3.116527E-16	5.278700E-18
7.152991E+03	3.113502E-16	5.279568E-18
7.162912E+03	3.116248E-16	5.290410E-18
7.172833E+03	3.127186E-16	5.315382E-18
7.182753E+03	3.148390E-16	5.358078E-18
7.192674E+03	3.181318E-16	5.421065E-18
7.202595E+03	3.226703E-16	5.505688E-18
7.212516E+03	3.284558E-16	5.612074E-18
7.222437E+03	3.354164E-16	5.739107E-18
7.232358E+03	3.434225E-16	5.884679E-18
7.242279E+03	3.522735E-16	6.045461E-18
7.252200E+03	3.616919E-16	6.216783E-18
7.262121E+03	3.713526E-16	6.393135E-18
7.272042E+03	3.808325E-16	6.567285E-18
7.281963E+03	3.896724E-16	6.731326E-18
7.291884E+03	3.973390E-16	6.876014E-18
7.301805E+03	4.032869E-16	6.991825E-18
7.311726E+03	4.070051E-16	7.069755E-18
7.321646E+03	4.080476E-16	7.101846E-18
7.331567E+03	4.061370E-16	7.083007E-18
7.341488E+03	4.012133E-16	7.011881E-18
7.351409E+03	3.934308E-16	6.890837E-18
7.361330E+03	3.832062E-16	6.726846E-18
7.371251E+03	3.711100E-16	6.529633E-18
7.381172E+03	3.577990E-16	6.310513E-18
7.391093E+03	3.439343E-16	6.080982E-18
7.401014E+03	3.300976E-16	5.851228E-18
7.410935E+03	3.167959E-16	5.630215E-18
7.420856E+03	3.044646E-16	5.425729E-18
7.430777E+03	2.934840E-16	5.244660E-18
7.440698E+03	2.841788E-16	5.092984E-18
7.450619E+03	2.767292E-16	4.974165E-18
7.460540E+03	2.710413E-16	4.886775E-18
7.470460E+03	2.667542E-16	4.824561E-18
7.480381E+03	2.634251E-16	4.779707E-18
7.490302E+03	2.606544E-16	4.745102E-18
7.500223E+03	2.581361E-16	4.715238E-18
7.510144E+03	2.556708E-16	4.686490E-18
7.520065E+03	2.531434E-16	4.656728E-18
7.529986E+03	2.505191E-16	4.625278E-18
7.539907E+03	2.478148E-16	4.592411E-18
7.549828E+03	2.450847E-16	4.559100E-18
7.559749E+03	2.424037E-16	4.526716E-18
7.569670E+03	2.398707E-16	4.497104E-18
7.579591E+03	2.375796E-16	4.472045E-18
7.589512E+03	2.356420E-16	4.453685E-18
7.599433E+03	2.341622E-16	4.444069E-18
7.609353E+03	2.332463E-16	4.445311E-18
7.619274E+03	2.329967E-16	4.459496E-18
7.629195E+03	2.334945E-16	4.488336E-18
7.639116E+03	2.348031E-16	4.533237E-18
7.649037E+03	2.369453E-16	4.594844E-18
7.658958E+03	2.399069E-16	4.673093E-18
