#wls	flux	fluxerr
1.588988E+03	1.972104E-04	1.107578E-05
1.628713E+03	2.054107E-04	1.148554E-05
1.668438E+03	2.140448E-04	1.191417E-05
1.708162E+03	2.232027E-04	1.236616E-05
1.747887E+03	2.327567E-04	1.283390E-05
1.787612E+03	2.427935E-04	1.332160E-05
1.827337E+03	2.534076E-04	1.383386E-05
1.867061E+03	2.644552E-04	1.436215E-05
1.906786E+03	2.760259E-04	1.491071E-05
1.946511E+03	2.882170E-04	1.548408E-05
1.986235E+03	3.008648E-04	1.607268E-05
2.025960E+03	3.141520E-04	1.668554E-05
2.065685E+03	3.279936E-04	1.731729E-05
2.105410E+03	3.423878E-04	1.796698E-05
2.145134E+03	3.574284E-04	1.863865E-05
2.184859E+03	3.729030E-04	1.932032E-05
2.224584E+03	3.891053E-04	2.002630E-05
2.264308E+03	4.056994E-04	2.073829E-05
2.304033E+03	4.228724E-04	2.146498E-05
2.343758E+03	4.405975E-04	2.220399E-05
2.383482E+03	4.587234E-04	2.294669E-05
2.423207E+03	4.773242E-04	2.369589E-05
2.462932E+03	4.962314E-04	2.444226E-05
2.502657E+03	5.155147E-04	2.518839E-05
2.542381E+03	5.351206E-04	2.593075E-05
2.582106E+03	5.549923E-04	2.666571E-05
2.621831E+03	5.750708E-04	2.738963E-05
2.661555E+03	5.951593E-04	2.809244E-05
2.701280E+03	6.154726E-04	2.878365E-05
2.741005E+03	6.358183E-04	2.945353E-05
2.780730E+03	6.561406E-04	3.009894E-05
2.820454E+03	6.763860E-04	3.071695E-05
2.860179E+03	6.965036E-04	3.130486E-05
2.899904E+03	7.165956E-04	3.186685E-05
2.939628E+03	7.364715E-04	3.239407E-05
2.979353E+03	7.562441E-04	3.289123E-05
2.989284E+03	7.612103E-04	3.301248E-05
2.999215E+03	7.661391E-04	3.313047E-05
3.009147E+03	7.708767E-04	3.323859E-05
3.019078E+03	7.758824E-04	3.335663E-05
3.029009E+03	7.806956E-04	3.346476E-05
3.038940E+03	7.854694E-04	3.356957E-05
3.048871E+03	7.903574E-04	3.367763E-05
3.058802E+03	7.952055E-04	3.378233E-05
3.068734E+03	8.000132E-04	3.388365E-05
3.078665E+03	8.047802E-04	3.398160E-05
3.088596E+03	8.095060E-04	3.407617E-05
3.098527E+03	8.141906E-04	3.416735E-05
3.108458E+03	8.189889E-04	3.426165E-05
3.118390E+03	8.237457E-04	3.435254E-05
3.128321E+03	8.284607E-04	3.444001E-05
3.138252E+03	8.331338E-04	3.452407E-05
3.148183E+03	8.377649E-04	3.460473E-05
3.158114E+03	8.425099E-04	3.468841E-05
3.168045E+03	8.472130E-04	3.476868E-05
3.177977E+03	8.518741E-04	3.484553E-05
3.187908E+03	8.564928E-04	3.491896E-05
3.197839E+03	8.610705E-04	3.498904E-05
3.207770E+03	8.657622E-04	3.506205E-05
3.217701E+03	8.702561E-04	3.512537E-05
3.227633E+03	8.748649E-04	3.519163E-05
3.237564E+03	8.794320E-04	3.525453E-05
3.247495E+03	8.839584E-04	3.531409E-05
3.257426E+03	8.886013E-04	3.537660E-05
3.267357E+03	8.930461E-04	3.542952E-05
3.277288E+03	8.976090E-04	3.548542E-05
3.287220E+03	9.021309E-04	3.553799E-05
3.297151E+03	9.066137E-04	3.558731E-05
3.307082E+03	9.112153E-04	3.563958E-05
3.317013E+03	9.156211E-04	3.568247E-05
3.326944E+03	9.201458E-04	3.572828E-05
3.336875E+03	9.246336E-04	3.577093E-05
3.346807E+03	9.290837E-04	3.581040E-05
3.356738E+03	9.336543E-04	3.585278E-05
3.366669E+03	9.380321E-04	3.588602E-05
3.376600E+03	9.425322E-04	3.592222E-05
3.386531E+03	9.469960E-04	3.595530E-05
3.396463E+03	9.514261E-04	3.598537E-05
3.406394E+03	9.559792E-04	3.601834E-05
3.416325E+03	9.603417E-04	3.604239E-05
3.426256E+03	9.648281E-04	3.606935E-05
3.436187E+03	9.692814E-04	3.609332E-05
3.446118E+03	9.738585E-04	3.612014E-05
3.456050E+03	9.782457E-04	3.613815E-05
3.465981E+03	9.827565E-04	3.615898E-05
3.475912E+03	9.872341E-04	3.617682E-05
3.485843E+03	9.916777E-04	3.619165E-05
3.495774E+03	9.960862E-04	3.620345E-05
3.505705E+03	1.000616E-03	3.621788E-05
3.515637E+03	1.004953E-03	3.622360E-05
3.525568E+03	1.009410E-03	3.623187E-05
3.535499E+03	1.013984E-03	3.624257E-05
3.545430E+03	1.018364E-03	3.624456E-05
3.555361E+03	1.022860E-03	3.624890E-05
3.565293E+03	1.027159E-03	3.624452E-05
3.575224E+03	1.031571E-03	3.624239E-05
3.585155E+03	1.036096E-03	3.624244E-05
3.595086E+03	1.040422E-03	3.623376E-05
3.605017E+03	1.044857E-03	3.622717E-05
3.614948E+03	1.049246E-03	3.621720E-05
3.624880E+03	1.053589E-03	3.620387E-05
3.634811E+03	1.057883E-03	3.618717E-05
3.644742E+03	1.062281E-03	3.617229E-05
3.654673E+03	1.066629E-03	3.615396E-05
3.664604E+03	1.070926E-03	3.613216E-05
3.674535E+03	1.075170E-03	3.610689E-05
3.684467E+03	1.079360E-03	3.607812E-05
3.694398E+03	1.083648E-03	3.605096E-05
3.704329E+03	1.087881E-03	3.602025E-05
3.714260E+03	1.092057E-03	3.598599E-05
3.724191E+03	1.096174E-03	3.594818E-05
3.734123E+03	1.100386E-03	3.591181E-05
3.744054E+03	1.104538E-03	3.587181E-05
3.753985E+03	1.108629E-03	3.582823E-05
3.763916E+03	1.112658E-03	3.578107E-05
3.773847E+03	1.116775E-03	3.573514E-05
3.783778E+03	1.120678E-03	3.568078E-05
3.793710E+03	1.124667E-03	3.562764E-05
3.803641E+03	1.128592E-03	3.557091E-05
3.813572E+03	1.132449E-03	3.551057E-05
3.823503E+03	1.136389E-03	3.545134E-05
3.833434E+03	1.140262E-03	3.538853E-05
3.843365E+03	1.144066E-03	3.532210E-05
3.853297E+03	1.147799E-03	3.525208E-05
3.863228E+03	1.151464E-03	3.517856E-05
3.873159E+03	1.155205E-03	3.510601E-05
3.883090E+03	1.158875E-03	3.502994E-05
3.893021E+03	1.162473E-03	3.495034E-05
3.902953E+03	1.165997E-03	3.486724E-05
3.912884E+03	1.169594E-03	3.478507E-05
3.922815E+03	1.172971E-03	3.469510E-05
3.932746E+03	1.176420E-03	3.460605E-05
3.942677E+03	1.179793E-03	3.451362E-05
3.952608E+03	1.183237E-03	3.442208E-05
3.962540E+03	1.186458E-03	3.432295E-05
3.972471E+03	1.189748E-03	3.422472E-05
3.982402E+03	1.192960E-03	3.412323E-05
3.992333E+03	1.196095E-03	3.401850E-05
4.002264E+03	1.199152E-03	3.391060E-05
4.012195E+03	1.202275E-03	3.380365E-05
4.022127E+03	1.205319E-03	3.369354E-05
4.032058E+03	1.208284E-03	3.358036E-05
4.041989E+03	1.211171E-03	3.346420E-05
4.051920E+03	1.213977E-03	3.334507E-05
4.061851E+03	1.216847E-03	3.322693E-05
4.071783E+03	1.219496E-03	3.310209E-05
4.081714E+03	1.222207E-03	3.297830E-05
4.091645E+03	1.224838E-03	3.285177E-05
4.101576E+03	1.227531E-03	3.272634E-05
4.111507E+03	1.230004E-03	3.259451E-05
4.121438E+03	1.232538E-03	3.246387E-05
4.131370E+03	1.234993E-03	3.233073E-05
4.141301E+03	1.237370E-03	3.219518E-05
4.151232E+03	1.239667E-03	3.205727E-05
4.161163E+03	1.242025E-03	3.192066E-05
4.171094E+03	1.244168E-03	3.177834E-05
4.181025E+03	1.246371E-03	3.163741E-05
4.190957E+03	1.248497E-03	3.149445E-05
4.200888E+03	1.250548E-03	3.134954E-05
4.210819E+03	1.252524E-03	3.120279E-05
4.220750E+03	1.254560E-03	3.105762E-05
4.230681E+03	1.256388E-03	3.090741E-05
4.240613E+03	1.258277E-03	3.075894E-05
4.250544E+03	1.260094E-03	3.060895E-05
4.260475E+03	1.261840E-03	3.045756E-05
4.270406E+03	1.263517E-03	3.030488E-05
4.280337E+03	1.265124E-03	3.015099E-05
4.290268E+03	1.266795E-03	2.999915E-05
4.300200E+03	1.268269E-03	2.984319E-05
4.310131E+03	1.269808E-03	2.968943E-05
4.320062E+03	1.271283E-03	2.953486E-05
4.329993E+03	1.272696E-03	2.937962E-05
4.339924E+03	1.274047E-03	2.922380E-05
4.349856E+03	1.275466E-03	2.907043E-05
4.359787E+03	1.276699E-03	2.891379E-05
4.369718E+03	1.278002E-03	2.875979E-05
4.379649E+03	1.279123E-03	2.860279E-05
4.389580E+03	1.280315E-03	2.844859E-05
4.399511E+03	1.281455E-03	2.829447E-05
4.409443E+03	1.282542E-03	2.814051E-05
4.419374E+03	1.283580E-03	2.798684E-05
4.429305E+03	1.284693E-03	2.783628E-05
4.439236E+03	1.285634E-03	2.768349E-05
4.449167E+03	1.286531E-03	2.753135E-05
4.459098E+03	1.287507E-03	2.738258E-05
4.469030E+03	1.288440E-03	2.723463E-05
4.478961E+03	1.289211E-03	2.708505E-05
4.488892E+03	1.290065E-03	2.693911E-05
4.498823E+03	1.290883E-03	2.679435E-05
4.508754E+03	1.291667E-03	2.665091E-05
4.518686E+03	1.292419E-03	2.650889E-05
4.528617E+03	1.293140E-03	2.636843E-05
4.538548E+03	1.293834E-03	2.622964E-05
4.548479E+03	1.294621E-03	2.609504E-05
4.558410E+03	1.295266E-03	2.595996E-05
4.568341E+03	1.295891E-03	2.582693E-05
4.578273E+03	1.296616E-03	2.569842E-05
4.588204E+03	1.297209E-03	2.556987E-05
4.598135E+03	1.297905E-03	2.544604E-05
4.608066E+03	1.298476E-03	2.532249E-05
4.617997E+03	1.299156E-03	2.520385E-05
4.627928E+03	1.299718E-03	2.508582E-05
4.637860E+03	1.300393E-03	2.497290E-05
4.647791E+03	1.301071E-03	2.486305E-05
4.657722E+03	1.301642E-03	2.475422E-05
4.667653E+03	1.302336E-03	2.465088E-05
4.677584E+03	1.303044E-03	2.455099E-05
4.687516E+03	1.303768E-03	2.445467E-05
4.697447E+03	1.304401E-03	2.435998E-05
4.707378E+03	1.305172E-03	2.427124E-05
4.717309E+03	1.305973E-03	2.418650E-05
4.727240E+03	1.306807E-03	2.410581E-05
4.737171E+03	1.307573E-03	2.402721E-05
4.747103E+03	1.308493E-03	2.395474E-05
4.757034E+03	1.309465E-03	2.388644E-05
4.766965E+03	1.310386E-03	2.382035E-05
4.776896E+03	1.311477E-03	2.376044E-05
4.786827E+03	1.312636E-03	2.370476E-05
4.796758E+03	1.313762E-03	2.365140E-05
4.806690E+03	1.315075E-03	2.360426E-05
4.816621E+03	1.316368E-03	2.355951E-05
4.826552E+03	1.317754E-03	2.351912E-05
4.836483E+03	1.319344E-03	2.348498E-05
4.846414E+03	1.320933E-03	2.345335E-05
4.856346E+03	1.322633E-03	2.342613E-05
4.866277E+03	1.324555E-03	2.340521E-05
4.876208E+03	1.326495E-03	2.338690E-05
4.886139E+03	1.328565E-03	2.337308E-05
4.896070E+03	1.330771E-03	2.336377E-05
4.906001E+03	1.333120E-03	2.335903E-05
4.915933E+03	1.335513E-03	2.335704E-05
4.925864E+03	1.338166E-03	2.336146E-05
4.935795E+03	1.340981E-03	2.337054E-05
4.945726E+03	1.343861E-03	2.338248E-05
4.955657E+03	1.346916E-03	2.339914E-05
4.965588E+03	1.350256E-03	2.342233E-05
4.975520E+03	1.353682E-03	2.344852E-05
4.985451E+03	1.357303E-03	2.347953E-05
4.995382E+03	1.361126E-03	2.351541E-05
5.005313E+03	1.365159E-03	2.355620E-05
5.015244E+03	1.369305E-03	2.360018E-05
5.025176E+03	1.373776E-03	2.365093E-05
5.035107E+03	1.378375E-03	2.370497E-05
5.045038E+03	1.383211E-03	2.376412E-05
5.054969E+03	1.388291E-03	2.382843E-05
5.064900E+03	1.393623E-03	2.389798E-05
5.074831E+03	1.399214E-03	2.397281E-05
5.084763E+03	1.405071E-03	2.405298E-05
5.094694E+03	1.411100E-03	2.413683E-05
5.104625E+03	1.417513E-03	2.422792E-05
5.114556E+03	1.424112E-03	2.432281E-05
5.124487E+03	1.431009E-03	2.442333E-05
5.134418E+03	1.438107E-03	2.452782E-05
5.144350E+03	1.445623E-03	2.463988E-05
5.154281E+03	1.453356E-03	2.475605E-05
5.164212E+03	1.461418E-03	2.487821E-05
5.174143E+03	1.469819E-03	2.500644E-05
5.184074E+03	1.478565E-03	2.514083E-05
5.194006E+03	1.487668E-03	2.528151E-05
5.203937E+03	1.497030E-03	2.542678E-05
5.213868E+03	1.506765E-03	2.557853E-05
5.223799E+03	1.516882E-03	2.573688E-05
5.233730E+03	1.527391E-03	2.590196E-05
5.243661E+03	1.538301E-03	2.607387E-05
5.253593E+03	1.549516E-03	2.625094E-05
5.263524E+03	1.561151E-03	2.643512E-05
5.273455E+03	1.573217E-03	2.662651E-05
5.283386E+03	1.585615E-03	2.682343E-05
5.293317E+03	1.598571E-03	2.702970E-05
5.303248E+03	1.611882E-03	2.724179E-05
5.313180E+03	1.625554E-03	2.745983E-05
5.323111E+03	1.639819E-03	2.768769E-05
5.333042E+03	1.654467E-03	2.792179E-05
5.342973E+03	1.669620E-03	2.816419E-05
5.352904E+03	1.685289E-03	2.841504E-05
5.362836E+03	1.701487E-03	2.867454E-05
5.372767E+03	1.718112E-03	2.894094E-05
5.382698E+03	1.735287E-03	2.921631E-05
5.392629E+03	1.753026E-03	2.950087E-05
5.402560E+03	1.771225E-03	2.979286E-05
5.412491E+03	1.790009E-03	3.009438E-05
5.422423E+03	1.809394E-03	3.040566E-05
5.432354E+03	1.829391E-03	3.072689E-05
5.442285E+03	1.849891E-03	3.105627E-05
5.452216E+03	1.871026E-03	3.139598E-05
5.462147E+03	1.892685E-03	3.174417E-05
5.472078E+03	1.915124E-03	3.210514E-05
5.482010E+03	1.938108E-03	3.247494E-05
5.491941E+03	1.961769E-03	3.285582E-05
5.501872E+03	1.985991E-03	3.324585E-05
5.511803E+03	2.010909E-03	3.364729E-05
5.521734E+03	2.036534E-03	3.406036E-05
5.531666E+03	2.062744E-03	3.448303E-05
5.541597E+03	2.089809E-03	3.491987E-05
5.551528E+03	2.117342E-03	3.536442E-05
5.561459E+03	2.145750E-03	3.582351E-05
5.571390E+03	2.174771E-03	3.629284E-05
5.581321E+03	2.204548E-03	3.677481E-05
5.591253E+03	2.234950E-03	3.726732E-05
5.601184E+03	2.266122E-03	3.777281E-05
5.611115E+03	2.298069E-03	3.829145E-05
5.621046E+03	2.330792E-03	3.882323E-05
5.630977E+03	2.364149E-03	3.936576E-05
5.640909E+03	2.398282E-03	3.992141E-05
5.650840E+03	2.433041E-03	4.048767E-05
5.660771E+03	2.468574E-03	4.106699E-05
5.670702E+03	2.504879E-03	4.165932E-05
5.680633E+03	2.541796E-03	4.226199E-05
5.690564E+03	2.579477E-03	4.287753E-05
5.700496E+03	2.617915E-03	4.350582E-05
5.710427E+03	2.656944E-03	4.414410E-05
5.720358E+03	2.696715E-03	4.479487E-05
5.730289E+03	2.737054E-03	4.545525E-05
5.740220E+03	2.778284E-03	4.613063E-05
5.750151E+03	2.819887E-03	4.681239E-05
5.760083E+03	2.862361E-03	4.750882E-05
5.770014E+03	2.905346E-03	4.821397E-05
5.779945E+03	2.948821E-03	4.892751E-05
5.789876E+03	2.993127E-03	4.965512E-05
5.799807E+03	3.037887E-03	5.039056E-05
5.809739E+03	3.083073E-03	5.113344E-05
5.819670E+03	3.128849E-03	5.188649E-05
5.829601E+03	3.175191E-03	5.264936E-05
5.839532E+03	3.221883E-03	5.341852E-05
5.849463E+03	3.269089E-03	5.419675E-05
5.859394E+03	3.316781E-03	5.498366E-05
5.869326E+03	3.364732E-03	5.577552E-05
5.879257E+03	3.413106E-03	5.657514E-05
5.889188E+03	3.461665E-03	5.737866E-05
5.899119E+03	3.510577E-03	5.818897E-05
5.909050E+03	3.559807E-03	5.900555E-05
5.918981E+03	3.609104E-03	5.982436E-05
5.928913E+03	3.658638E-03	6.064832E-05
5.938844E+03	3.708149E-03	6.147325E-05
5.948775E+03	3.757810E-03	6.230212E-05
5.958706E+03	3.807576E-03	6.313435E-05
5.968637E+03	3.857176E-03	6.396557E-05
5.978569E+03	3.906786E-03	6.479883E-05
5.988500E+03	3.956122E-03	6.562960E-05
5.998431E+03	4.005364E-03	6.646102E-05
6.008362E+03	4.054462E-03	6.729242E-05
6.018293E+03	4.103120E-03	6.811909E-05
6.028224E+03	4.151523E-03	6.894426E-05
6.038156E+03	4.199615E-03	6.976720E-05
6.048087E+03	4.247091E-03	7.058305E-05
6.058018E+03	4.293888E-03	7.139095E-05
6.067949E+03	4.340194E-03	7.219425E-05
6.077880E+03	4.385950E-03	7.299218E-05
6.087811E+03	4.431098E-03	7.378401E-05
6.097743E+03	4.475319E-03	7.456462E-05
6.107674E+03	4.518547E-03	7.533314E-05
6.117605E+03	4.560981E-03	7.609312E-05
6.127536E+03	4.602562E-03	7.684382E-05
6.137467E+03	4.642963E-03	7.758000E-05
6.147399E+03	4.682396E-03	7.830543E-05
6.157330E+03	4.720805E-03	7.901940E-05
6.167261E+03	4.757865E-03	7.971670E-05
6.177192E+03	4.793797E-03	8.040127E-05
6.187123E+03	4.828277E-03	8.106787E-05
6.197054E+03	4.861534E-03	8.172058E-05
6.206986E+03	4.893526E-03	8.235887E-05
6.216917E+03	4.923926E-03	8.297750E-05
6.226848E+03	4.952698E-03	8.357591E-05
6.236779E+03	4.980379E-03	8.416310E-05
6.246710E+03	5.006374E-03	8.472884E-05
6.256641E+03	5.030657E-03	8.527246E-05
6.266573E+03	5.053494E-03	8.579826E-05
6.276504E+03	5.074866E-03	8.630568E-05
6.286435E+03	5.094464E-03	8.678924E-05
6.296366E+03	5.112563E-03	8.725338E-05
6.306297E+03	5.129152E-03	8.769764E-05
6.316229E+03	5.143925E-03	8.811651E-05
6.326160E+03	5.157168E-03	8.851461E-05
6.336091E+03	5.168579E-03	8.888644E-05
6.346022E+03	5.178450E-03	8.923673E-05
6.355953E+03	5.186778E-03	8.956512E-05
6.365884E+03	5.193266E-03	8.986619E-05
6.375816E+03	5.197918E-03	9.013964E-05
6.385747E+03	5.201332E-03	9.039554E-05
6.395678E+03	5.202919E-03	9.062335E-05
6.405609E+03	5.202691E-03	9.082292E-05
6.415540E+03	5.201251E-03	9.100446E-05
6.425471E+03	5.198018E-03	9.115749E-05
6.435403E+03	5.193007E-03	9.128193E-05
6.445334E+03	5.186532E-03	9.138297E-05
6.455265E+03	5.178612E-03	9.146061E-05
6.465196E+03	5.168971E-03	9.150966E-05
6.475127E+03	5.157926E-03	9.153544E-05
6.485059E+03	5.145502E-03	9.153805E-05
6.494990E+03	5.131429E-03	9.151239E-05
6.504921E+03	5.116028E-03	9.146389E-05
6.514852E+03	5.099034E-03	9.138751E-05
6.524783E+03	5.080770E-03	9.128872E-05
6.534714E+03	5.061265E-03	9.116780E-05
6.544646E+03	5.040261E-03	9.101982E-05
6.554577E+03	5.018081E-03	9.085033E-05
6.564508E+03	4.994757E-03	9.065966E-05
6.574439E+03	4.970039E-03	9.044304E-05
6.584370E+03	4.944246E-03	9.020602E-05
6.594301E+03	4.917135E-03	8.994391E-05
6.604233E+03	4.889022E-03	8.966230E-05
6.614164E+03	4.859943E-03	8.936164E-05
6.624095E+03	4.829937E-03	8.904243E-05
6.634026E+03	4.798763E-03	8.870007E-05
6.643957E+03	4.766737E-03	8.834020E-05
6.653889E+03	4.733626E-03	8.795831E-05
6.663820E+03	4.699739E-03	8.756000E-05
6.673751E+03	4.665116E-03	8.714582E-05
6.683682E+03	4.629527E-03	8.671139E-05
6.693613E+03	4.593278E-03	8.626227E-05
6.703544E+03	4.556408E-03	8.579907E-05
6.713476E+03	4.518693E-03	8.531746E-05
6.723407E+03	4.480432E-03	8.482298E-05
6.733338E+03	4.441663E-03	8.431625E-05
6.743269E+03	4.402167E-03	8.379303E-05
6.753200E+03	4.362236E-03	8.325880E-05
6.763131E+03	4.321909E-03	8.271419E-05
6.773063E+03	4.280969E-03	8.215503E-05
6.782994E+03	4.239948E-03	8.159146E-05
6.792925E+03	4.198144E-03	8.100994E-05
6.802856E+03	4.156325E-03	8.042519E-05
6.812787E+03	4.114039E-03	7.982849E-05
6.822719E+03	4.071562E-03	7.922511E-05
6.832650E+03	4.028688E-03	7.861105E-05
6.842581E+03	3.985687E-03	7.799153E-05
6.852512E+03	3.942587E-03	7.736709E-05
6.862443E+03	3.899416E-03	7.673830E-05
6.872374E+03	3.855979E-03	7.610129E-05
6.882306E+03	3.812529E-03	7.546109E-05
6.892237E+03	3.769093E-03	7.481819E-05
6.902168E+03	3.725480E-03	7.416885E-05
6.912099E+03	3.681933E-03	7.351790E-05
6.922030E+03	3.638478E-03	7.286587E-05
6.931962E+03	3.594927E-03	7.220901E-05
6.941893E+03	3.551515E-03	7.155207E-05
6.951824E+03	3.508263E-03	7.089549E-05
6.961755E+03	3.465191E-03	7.023972E-05
6.971686E+03	3.422118E-03	6.958112E-05
6.981617E+03	3.379266E-03	6.892423E-05
6.991549E+03	3.336653E-03	6.826944E-05
7.001480E+03	3.294294E-03	6.761712E-05
7.011411E+03	3.252016E-03	6.696375E-05
7.021342E+03	3.210028E-03	6.631362E-05
7.031273E+03	3.168343E-03	6.566710E-05
7.041204E+03	3.126791E-03	6.502068E-05
7.051136E+03	3.085573E-03	6.437855E-05
7.061067E+03	3.044700E-03	6.374101E-05
7.070998E+03	3.004182E-03	6.310833E-05
7.080929E+03	2.963856E-03	6.247709E-05
7.090860E+03	2.923909E-03	6.185126E-05
7.100792E+03	2.884350E-03	6.123111E-05
7.110723E+03	2.845186E-03	6.061682E-05
7.120654E+03	2.806259E-03	6.000506E-05
7.130585E+03	2.767745E-03	5.939963E-05
7.140516E+03	2.729651E-03	5.880071E-05
7.150447E+03	2.691981E-03	5.820846E-05
7.160379E+03	2.654582E-03	5.761958E-05
7.170310E+03	2.617620E-03	5.703770E-05
7.180241E+03	2.581099E-03	5.646295E-05
7.190172E+03	2.545021E-03	5.589545E-05
7.200103E+03	2.509238E-03	5.533195E-05
7.210034E+03	2.473906E-03	5.477593E-05
7.219966E+03	2.439027E-03	5.422744E-05
7.229897E+03	2.404601E-03	5.368658E-05
7.239828E+03	2.370629E-03	5.315337E-05
7.249759E+03	2.336969E-03	5.262467E-05
7.259690E+03	2.303767E-03	5.210376E-05
7.269622E+03	2.271020E-03	5.159066E-05
7.279553E+03	2.238728E-03	5.108533E-05
7.289484E+03	2.206755E-03	5.058467E-05
7.299415E+03	2.175234E-03	5.009157E-05
7.309346E+03	2.144164E-03	4.960591E-05
7.319277E+03	2.113539E-03	4.912749E-05
7.329209E+03	2.083356E-03	4.865615E-05
7.339140E+03	2.053484E-03	4.818875E-05
7.349071E+03	2.024049E-03	4.772817E-05
7.359002E+03	1.995045E-03	4.727421E-05
7.368933E+03	1.966469E-03	4.682670E-05
7.378864E+03	1.938196E-03	4.638267E-05
7.388796E+03	1.910462E-03	4.594765E-05
7.398727E+03	1.883025E-03	4.551586E-05
7.408658E+03	1.855999E-03	4.508997E-05
7.418589E+03	1.829380E-03	4.466987E-05
7.428520E+03	1.803052E-03	4.425267E-05
7.438452E+03	1.777234E-03	4.384375E-05
7.448383E+03	1.751700E-03	4.343754E-05
7.458314E+03	1.726557E-03	4.303666E-05
7.468245E+03	1.701802E-03	4.264103E-05
7.478176E+03	1.677431E-03	4.225054E-05
7.488107E+03	1.653335E-03	4.186248E-05
7.498039E+03	1.629618E-03	4.147947E-05
7.507970E+03	1.606376E-03	4.110398E-05
7.517901E+03	1.583403E-03	4.073077E-05
7.527832E+03	1.560699E-03	4.035982E-05
7.537763E+03	1.538458E-03	3.999619E-05
7.547694E+03	1.516480E-03	3.963477E-05
7.557626E+03	1.494956E-03	3.928050E-05
7.567557E+03	1.473690E-03	3.892834E-05
7.577488E+03	1.452774E-03	3.858074E-05
7.587419E+03	1.432204E-03	3.823765E-05
7.597350E+03	1.411886E-03	3.789659E-05
7.607282E+03	1.391998E-03	3.756238E-05
7.617213E+03	1.372356E-03	3.723013E-05
7.627144E+03	1.353045E-03	3.690219E-05
7.637075E+03	1.334061E-03	3.657853E-05
7.647006E+03	1.315400E-03	3.625911E-05
7.656937E+03	1.297057E-03	3.594383E-05
7.666869E+03	1.278945E-03	3.563037E-05
7.676800E+03	1.261227E-03	3.532331E-05
7.686731E+03	1.243732E-03	3.501798E-05
7.696662E+03	1.226540E-03	3.471664E-05
7.706593E+03	1.209644E-03	3.441922E-05
