#wls	flux	fluxerr
1.597540E+03	8.871346E-03	6.801860E-05
1.637478E+03	9.590548E-03	7.338709E-05
1.677417E+03	1.038556E-02	7.930920E-05
1.717355E+03	1.126706E-02	8.586206E-05
1.757294E+03	1.224762E-02	9.313607E-05
1.797232E+03	1.334188E-02	1.012366E-04
1.837171E+03	1.456691E-02	1.102860E-04
1.877109E+03	1.594242E-02	1.204252E-04
1.917048E+03	1.749058E-02	1.318122E-04
1.956986E+03	1.923504E-02	1.446138E-04
1.996925E+03	2.119660E-02	1.589737E-04
2.036863E+03	2.337566E-02	1.748809E-04
2.076802E+03	2.568069E-02	1.916376E-04
2.116740E+03	2.793497E-02	2.079190E-04
2.156679E+03	3.023658E-02	2.244536E-04
2.196617E+03	3.263458E-02	2.415994E-04
2.236556E+03	3.495642E-02	2.580741E-04
2.276494E+03	3.671965E-02	2.703279E-04
2.316433E+03	3.786345E-02	2.779475E-04
2.356371E+03	3.859116E-02	2.824593E-04
2.396310E+03	3.886054E-02	2.835813E-04
2.436248E+03	3.852894E-02	2.803054E-04
2.476187E+03	3.743285E-02	2.714863E-04
2.516125E+03	3.542819E-02	2.561356E-04
2.556064E+03	3.242097E-02	2.336403E-04
2.596002E+03	2.840483E-02	2.040281E-04
2.635941E+03	2.365061E-02	1.693135E-04
2.675879E+03	1.898900E-02	1.354810E-04
2.715818E+03	1.513843E-02	1.076366E-04
2.755756E+03	1.227931E-02	8.700259E-05
2.795695E+03	1.029761E-02	7.270256E-05
2.835633E+03	8.996952E-03	6.329089E-05
2.875572E+03	8.191070E-03	5.741116E-05
2.915510E+03	7.727730E-03	5.396293E-05
2.955449E+03	7.486442E-03	5.208178E-05
2.995387E+03	7.372644E-03	5.109516E-05
3.005372E+03	7.355866E-03	5.093002E-05
3.015356E+03	7.342311E-03	5.078729E-05
3.025341E+03	7.331587E-03	5.066422E-05
3.035326E+03	7.323462E-03	5.055913E-05
3.045310E+03	7.317800E-03	5.047106E-05
3.055295E+03	7.314661E-03	5.040037E-05
3.065279E+03	7.314234E-03	5.034830E-05
3.075264E+03	7.316699E-03	5.031604E-05
3.085249E+03	7.322407E-03	5.030595E-05
3.095233E+03	7.331723E-03	5.032047E-05
3.105218E+03	7.345011E-03	5.036202E-05
3.115203E+03	7.362699E-03	5.043347E-05
3.125187E+03	7.385184E-03	5.053743E-05
3.135172E+03	7.412879E-03	5.067664E-05
3.145156E+03	7.446154E-03	5.085351E-05
3.155141E+03	7.485360E-03	5.107034E-05
3.165126E+03	7.530777E-03	5.132890E-05
3.175110E+03	7.582624E-03	5.163058E-05
3.185095E+03	7.641075E-03	5.197640E-05
3.195080E+03	7.706222E-03	5.236689E-05
3.205064E+03	7.778112E-03	5.280221E-05
3.215049E+03	7.856793E-03	5.328256E-05
3.225033E+03	7.942253E-03	5.380771E-05
3.235018E+03	8.034550E-03	5.437792E-05
3.245003E+03	8.133755E-03	5.499354E-05
3.254987E+03	8.240044E-03	5.565560E-05
3.264972E+03	8.353624E-03	5.636537E-05
3.274957E+03	8.474709E-03	5.712414E-05
3.284941E+03	8.603624E-03	5.793394E-05
3.294926E+03	8.740520E-03	5.879564E-05
3.304910E+03	8.885546E-03	5.971008E-05
3.314895E+03	9.038557E-03	6.067610E-05
3.324880E+03	9.199114E-03	6.169062E-05
3.334864E+03	9.366426E-03	6.274817E-05
3.344849E+03	9.539144E-03	6.383960E-05
3.354834E+03	9.715315E-03	6.495175E-05
3.364818E+03	9.892250E-03	6.606658E-05
3.374803E+03	1.006646E-02	6.716079E-05
3.384787E+03	1.023358E-02	6.820545E-05
3.394772E+03	1.038823E-02	6.916477E-05
3.404757E+03	1.052423E-02	6.999790E-05
3.414741E+03	1.063512E-02	7.066243E-05
3.424726E+03	1.071633E-02	7.112846E-05
3.434711E+03	1.076730E-02	7.139293E-05
3.444695E+03	1.078987E-02	7.146867E-05
3.454680E+03	1.078684E-02	7.137476E-05
3.464664E+03	1.076144E-02	7.113306E-05
3.474649E+03	1.071721E-02	7.076750E-05
3.484634E+03	1.065750E-02	7.030054E-05
3.494618E+03	1.058525E-02	6.975178E-05
3.504603E+03	1.050328E-02	6.914013E-05
3.514588E+03	1.041425E-02	6.848331E-05
3.524572E+03	1.032035E-02	6.779584E-05
3.534557E+03	1.022355E-02	6.709066E-05
3.544541E+03	1.012576E-02	6.638051E-05
3.554526E+03	1.002828E-02	6.567377E-05
3.564511E+03	9.932624E-03	6.498041E-05
3.574495E+03	9.841225E-03	6.431632E-05
3.584480E+03	9.757061E-03	6.370083E-05
3.594465E+03	9.681314E-03	6.314152E-05
3.604449E+03	9.612477E-03	6.262839E-05
3.614434E+03	9.547761E-03	6.214317E-05
3.624418E+03	9.484431E-03	6.166799E-05
3.634403E+03	9.420483E-03	6.118981E-05
3.644388E+03	9.354960E-03	6.070244E-05
3.654372E+03	9.287781E-03	6.020539E-05
3.664357E+03	9.219338E-03	5.970122E-05
3.674342E+03	9.149902E-03	5.919173E-05
3.684326E+03	9.080070E-03	5.868079E-05
3.694311E+03	9.010442E-03	5.817228E-05
3.704295E+03	8.940954E-03	5.766580E-05
3.714280E+03	8.871090E-03	5.715801E-05
3.724265E+03	8.800491E-03	5.664662E-05
3.734249E+03	8.728435E-03	5.612700E-05
3.744234E+03	8.654011E-03	5.559333E-05
3.754219E+03	8.576592E-03	5.504162E-05
3.764203E+03	8.496516E-03	5.447410E-05
3.774188E+03	8.414404E-03	5.389481E-05
3.784172E+03	8.331752E-03	5.331336E-05
3.794157E+03	8.251321E-03	5.274739E-05
3.804142E+03	8.175983E-03	5.221522E-05
3.814126E+03	8.107459E-03	5.172773E-05
3.824111E+03	8.046312E-03	5.128838E-05
3.834095E+03	7.991387E-03	5.088969E-05
3.844080E+03	7.939847E-03	5.051348E-05
3.854065E+03	7.888031E-03	5.013644E-05
3.864049E+03	7.831823E-03	4.973244E-05
3.874034E+03	7.767704E-03	4.927922E-05
3.884019E+03	7.693571E-03	4.876360E-05
3.894003E+03	7.609379E-03	4.818547E-05
3.903988E+03	7.516385E-03	4.755296E-05
3.913972E+03	7.416592E-03	4.687888E-05
3.923957E+03	7.313002E-03	4.618229E-05
3.933942E+03	7.209526E-03	4.548793E-05
3.943926E+03	7.109971E-03	4.481979E-05
3.953911E+03	7.017765E-03	4.419939E-05
3.963896E+03	6.935858E-03	4.364517E-05
3.973880E+03	6.866768E-03	4.317277E-05
3.983865E+03	6.811884E-03	4.279071E-05
3.993849E+03	6.771841E-03	4.250275E-05
4.003834E+03	6.747409E-03	4.231346E-05
4.013819E+03	6.738885E-03	4.222448E-05
4.023803E+03	6.744699E-03	4.222572E-05
4.033788E+03	6.760846E-03	4.229192E-05
4.043773E+03	6.782087E-03	4.239017E-05
4.053757E+03	6.802650E-03	4.248437E-05
4.063742E+03	6.815767E-03	4.253230E-05
4.073726E+03	6.814689E-03	4.249200E-05
4.083711E+03	6.794421E-03	4.233257E-05
4.093696E+03	6.753011E-03	4.204214E-05
4.103680E+03	6.690021E-03	4.161828E-05
4.113665E+03	6.606485E-03	4.106773E-05
4.123650E+03	6.505564E-03	4.041041E-05
4.133634E+03	6.390906E-03	3.966918E-05
4.143619E+03	6.266205E-03	3.886712E-05
4.153603E+03	6.135520E-03	3.802952E-05
4.163588E+03	6.002327E-03	3.717796E-05
4.173573E+03	5.869937E-03	3.633295E-05
4.183557E+03	5.742474E-03	3.551995E-05
4.193542E+03	5.623440E-03	3.476055E-05
4.203527E+03	5.515805E-03	3.407295E-05
4.213511E+03	5.423183E-03	3.347932E-05
4.223496E+03	5.348863E-03	3.299975E-05
4.233480E+03	5.294663E-03	3.264523E-05
4.243465E+03	5.260960E-03	3.241784E-05
4.253450E+03	5.248069E-03	3.231930E-05
4.263434E+03	5.254133E-03	3.233794E-05
4.273419E+03	5.272225E-03	3.243097E-05
4.283404E+03	5.294575E-03	3.255050E-05
4.293388E+03	5.314522E-03	3.265557E-05
4.303373E+03	5.325278E-03	3.270452E-05
4.313357E+03	5.321249E-03	3.266310E-05
4.323342E+03	5.300241E-03	3.251800E-05
4.333327E+03	5.263971E-03	3.227988E-05
4.343311E+03	5.215910E-03	3.197013E-05
4.353296E+03	5.161200E-03	3.162035E-05
4.363281E+03	5.107986E-03	3.128045E-05
4.373265E+03	5.065289E-03	3.100562E-05
4.383250E+03	5.041504E-03	3.084714E-05
4.393234E+03	5.036419E-03	3.080354E-05
4.403219E+03	5.041790E-03	3.082429E-05
4.413204E+03	5.049707E-03	3.086096E-05
4.423188E+03	5.053462E-03	3.087255E-05
4.433173E+03	5.047360E-03	3.082431E-05
4.443158E+03	5.027592E-03	3.069304E-05
4.453142E+03	4.993571E-03	3.047524E-05
4.463127E+03	4.947116E-03	3.018207E-05
4.473111E+03	4.890765E-03	2.982908E-05
4.483096E+03	4.826706E-03	2.942965E-05
4.493081E+03	4.757853E-03	2.900157E-05
4.503065E+03	4.687637E-03	2.856574E-05
4.513050E+03	4.618885E-03	2.813939E-05
4.523035E+03	4.554709E-03	2.774143E-05
4.533019E+03	4.498315E-03	2.739136E-05
4.543004E+03	4.451780E-03	2.710178E-05
4.552988E+03	4.416332E-03	2.688008E-05
4.562973E+03	4.392269E-03	2.672805E-05
4.572958E+03	4.377928E-03	2.663550E-05
4.582942E+03	4.370232E-03	2.658369E-05
4.592927E+03	4.365300E-03	2.654897E-05
4.602912E+03	4.358372E-03	2.650240E-05
4.612896E+03	4.344208E-03	2.641211E-05
4.622881E+03	4.318566E-03	2.625234E-05
4.632865E+03	4.279550E-03	2.601158E-05
4.642850E+03	4.226629E-03	2.568662E-05
4.652835E+03	4.160856E-03	2.528389E-05
4.662819E+03	4.085622E-03	2.482401E-05
4.672804E+03	4.004704E-03	2.432992E-05
4.682789E+03	3.921914E-03	2.382478E-05
4.692773E+03	3.842032E-03	2.333761E-05
4.702758E+03	3.769297E-03	2.289412E-05
4.712742E+03	3.707572E-03	2.251777E-05
4.722727E+03	3.661326E-03	2.223567E-05
4.732712E+03	3.634808E-03	2.207359E-05
4.742696E+03	3.630121E-03	2.204429E-05
4.752681E+03	3.646434E-03	2.214270E-05
4.762665E+03	3.681796E-03	2.235695E-05
4.772650E+03	3.732866E-03	2.266677E-05
4.782635E+03	3.793377E-03	2.303409E-05
4.792619E+03	3.856650E-03	2.341838E-05
4.802604E+03	3.916799E-03	2.378388E-05
4.812589E+03	3.967502E-03	2.409222E-05
4.822573E+03	4.003489E-03	2.431140E-05
4.832558E+03	4.021467E-03	2.442141E-05
4.842542E+03	4.019799E-03	2.441231E-05
4.852527E+03	3.998537E-03	2.428439E-05
4.862512E+03	3.960033E-03	2.405192E-05
4.872496E+03	3.908818E-03	2.374238E-05
4.882481E+03	3.850240E-03	2.338825E-05
4.892466E+03	3.789190E-03	2.301922E-05
4.902450E+03	3.729675E-03	2.265962E-05
4.912435E+03	3.674483E-03	2.232638E-05
4.922419E+03	3.624992E-03	2.202787E-05
4.932404E+03	3.580870E-03	2.176208E-05
4.942389E+03	3.541127E-03	2.152300E-05
4.952373E+03	3.504554E-03	2.130328E-05
4.962358E+03	3.469710E-03	2.109416E-05
4.972343E+03	3.435416E-03	2.088847E-05
4.982327E+03	3.401157E-03	2.068307E-05
4.992312E+03	3.367177E-03	2.047944E-05
5.002296E+03	3.334001E-03	2.028077E-05
5.012281E+03	3.302362E-03	2.009153E-05
5.022266E+03	3.273254E-03	1.991775E-05
5.032250E+03	3.247495E-03	1.976441E-05
5.042235E+03	3.225251E-03	1.963255E-05
5.052220E+03	3.205860E-03	1.951813E-05
5.062204E+03	3.188406E-03	1.941558E-05
5.072189E+03	3.171596E-03	1.931703E-05
5.082173E+03	3.153973E-03	1.921360E-05
5.092158E+03	3.134255E-03	1.909748E-05
5.102143E+03	3.111624E-03	1.896368E-05
5.112127E+03	3.085667E-03	1.880965E-05
5.122112E+03	3.056369E-03	1.863529E-05
5.132097E+03	3.024094E-03	1.844281E-05
5.142081E+03	2.989266E-03	1.823477E-05
5.152066E+03	2.952444E-03	1.801456E-05
5.162050E+03	2.914283E-03	1.778619E-05
5.172035E+03	2.875254E-03	1.755249E-05
5.182020E+03	2.835942E-03	1.731705E-05
5.192004E+03	2.796764E-03	1.708240E-05
5.201989E+03	2.757929E-03	1.684982E-05
5.211974E+03	2.719553E-03	1.662000E-05
5.221958E+03	2.681759E-03	1.639371E-05
5.231943E+03	2.644549E-03	1.617095E-05
5.241927E+03	2.607925E-03	1.595173E-05
5.251912E+03	2.571926E-03	1.573630E-05
5.261897E+03	2.536673E-03	1.552538E-05
5.271881E+03	2.502274E-03	1.531965E-05
5.281866E+03	2.469048E-03	1.512107E-05
5.291851E+03	2.437467E-03	1.493250E-05
5.301835E+03	2.407908E-03	1.475630E-05
5.311820E+03	2.380649E-03	1.459416E-05
5.321804E+03	2.355705E-03	1.444618E-05
5.331789E+03	2.332966E-03	1.431170E-05
5.341774E+03	2.312152E-03	1.418903E-05
5.351758E+03	2.292903E-03	1.407595E-05
5.361743E+03	2.274871E-03	1.397034E-05
5.371728E+03	2.257589E-03	1.386935E-05
5.381712E+03	2.240458E-03	1.376928E-05
5.391697E+03	2.222926E-03	1.366675E-05
5.401681E+03	2.204618E-03	1.355943E-05
5.411666E+03	2.185363E-03	1.344628E-05
5.421651E+03	2.165155E-03	1.332725E-05
5.431635E+03	2.144251E-03	1.320391E-05
5.441620E+03	2.123018E-03	1.307850E-05
5.451605E+03	2.101484E-03	1.295121E-05
5.461589E+03	2.079115E-03	1.281873E-05
5.471574E+03	2.054916E-03	1.267491E-05
5.481558E+03	2.028626E-03	1.251813E-05
5.491543E+03	2.000926E-03	1.235257E-05
5.501528E+03	1.971700E-03	1.217749E-05
5.511512E+03	1.942044E-03	1.199966E-05
5.521497E+03	1.913747E-03	1.183013E-05
5.531482E+03	1.888201E-03	1.167752E-05
5.541466E+03	1.866455E-03	1.154832E-05
5.551451E+03	1.849278E-03	1.144734E-05
5.561435E+03	1.836934E-03	1.137624E-05
5.571420E+03	1.829464E-03	1.133533E-05
5.581405E+03	1.826623E-03	1.132313E-05
5.591389E+03	1.827515E-03	1.133410E-05
5.601374E+03	1.830918E-03	1.136072E-05
5.611359E+03	1.835572E-03	1.139518E-05
5.621343E+03	1.839966E-03	1.142809E-05
5.631328E+03	1.842555E-03	1.144988E-05
5.641312E+03	1.841998E-03	1.145216E-05
5.651297E+03	1.837284E-03	1.142863E-05
5.661282E+03	1.827654E-03	1.137453E-05
5.671266E+03	1.812855E-03	1.128823E-05
5.681251E+03	1.793353E-03	1.117258E-05
5.691235E+03	1.770123E-03	1.103362E-05
5.701220E+03	1.744708E-03	1.088093E-05
5.711205E+03	1.719482E-03	1.072929E-05
5.721189E+03	1.697147E-03	1.059558E-05
5.731174E+03	1.680109E-03	1.049485E-05
5.741159E+03	1.670437E-03	1.044008E-05
5.751143E+03	1.669887E-03	1.044233E-05
5.761128E+03	1.679212E-03	1.050641E-05
5.771112E+03	1.697481E-03	1.062658E-05
5.781097E+03	1.722965E-03	1.079212E-05
5.791082E+03	1.753491E-03	1.098948E-05
5.801066E+03	1.786196E-03	1.120075E-05
5.811051E+03	1.817889E-03	1.140596E-05
5.821036E+03	1.845766E-03	1.158748E-05
5.831020E+03	1.867469E-03	1.173047E-05
5.841005E+03	1.881335E-03	1.182440E-05
5.850989E+03	1.886592E-03	1.186434E-05
5.860974E+03	1.883700E-03	1.185309E-05
5.870959E+03	1.873886E-03	1.179828E-05
5.880943E+03	1.858606E-03	1.170901E-05
5.890928E+03	1.839305E-03	1.159432E-05
5.900913E+03	1.817310E-03	1.146255E-05
5.910897E+03	1.793543E-03	1.131946E-05
5.920882E+03	1.768605E-03	1.116885E-05
5.930866E+03	1.742869E-03	1.101304E-05
5.940851E+03	1.716595E-03	1.085368E-05
5.950836E+03	1.690209E-03	1.069345E-05
5.960820E+03	1.664037E-03	1.053440E-05
5.970805E+03	1.638427E-03	1.037875E-05
5.980790E+03	1.613632E-03	1.022811E-05
5.990774E+03	1.589933E-03	1.008426E-05
6.000759E+03	1.567509E-03	9.948353E-06
6.010743E+03	1.546548E-03	9.821599E-06
6.020728E+03	1.527168E-03	9.704757E-06
6.030713E+03	1.509490E-03	9.598621E-06
6.040697E+03	1.493350E-03	9.502160E-06
6.050682E+03	1.478585E-03	9.414367E-06
6.060667E+03	1.465004E-03	9.334026E-06
6.070651E+03	1.452335E-03	9.259429E-06
6.080636E+03	1.440329E-03	9.188993E-06
6.090620E+03	1.428796E-03	9.121510E-06
6.100605E+03	1.417510E-03	9.055546E-06
6.110590E+03	1.406294E-03	8.989973E-06
6.120574E+03	1.395057E-03	8.924205E-06
6.130559E+03	1.383686E-03	8.857524E-06
6.140544E+03	1.372194E-03	8.790005E-06
6.150528E+03	1.360701E-03	8.722411E-06
6.160513E+03	1.349428E-03	8.656174E-06
6.170497E+03	1.338612E-03	8.592804E-06
6.180482E+03	1.328551E-03	8.534225E-06
6.190467E+03	1.319521E-03	8.482220E-06
6.200451E+03	1.311644E-03	8.437588E-06
6.210436E+03	1.304823E-03	8.399720E-06
6.220421E+03	1.298888E-03	8.367539E-06
6.230405E+03	1.293486E-03	8.338779E-06
6.240390E+03	1.288126E-03	8.310276E-06
6.250374E+03	1.282467E-03	8.279832E-06
6.260359E+03	1.276267E-03	8.245878E-06
6.270344E+03	1.269231E-03	8.206506E-06
6.280328E+03	1.260771E-03	8.157883E-06
6.290313E+03	1.250500E-03	8.097499E-06
6.300298E+03	1.238127E-03	8.023430E-06
6.310282E+03	1.223307E-03	7.933411E-06
6.320267E+03	1.205802E-03	7.825861E-06
6.330251E+03	1.185747E-03	7.701614E-06
6.340236E+03	1.163683E-03	7.564150E-06
6.350221E+03	1.140309E-03	7.417979E-06
6.360205E+03	1.116751E-03	7.270411E-06
6.370190E+03	1.094762E-03	7.132870E-06
6.380175E+03	1.076384E-03	7.018681E-06
6.390159E+03	1.063552E-03	6.940532E-06
6.400144E+03	1.058115E-03	6.910575E-06
6.410128E+03	1.061575E-03	6.938757E-06
6.420113E+03	1.074415E-03	7.028364E-06
6.430098E+03	1.095246E-03	7.170460E-06
6.440082E+03	1.121485E-03	7.348244E-06
6.450067E+03	1.149446E-03	7.537637E-06
6.460052E+03	1.173946E-03	7.704644E-06
6.470036E+03	1.190144E-03	7.817422E-06
6.480021E+03	1.195591E-03	7.859736E-06
6.490005E+03	1.191066E-03	7.836530E-06
6.499990E+03	1.181081E-03	7.777347E-06
6.509975E+03	1.174020E-03	7.737361E-06
6.519959E+03	1.180162E-03	7.784407E-06
6.529944E+03	1.202902E-03	7.941130E-06
6.539929E+03	1.236422E-03	8.169360E-06
6.549913E+03	1.274062E-03	8.425237E-06
6.559898E+03	1.310233E-03	8.671847E-06
6.569882E+03	1.340683E-03	8.881003E-06
6.579867E+03	1.363345E-03	9.038894E-06
6.589852E+03	1.377605E-03	9.141323E-06
6.599836E+03	1.383866E-03	9.190811E-06
6.609821E+03	1.383634E-03	9.197245E-06
6.619805E+03	1.378715E-03	9.172519E-06
6.629790E+03	1.370669E-03	9.126936E-06
6.639775E+03	1.360600E-03	9.067798E-06
6.649759E+03	1.349170E-03	8.999491E-06
6.659744E+03	1.336701E-03	8.924136E-06
6.669729E+03	1.323420E-03	8.843226E-06
6.679713E+03	1.309371E-03	8.757045E-06
6.689698E+03	1.294586E-03	8.665794E-06
6.699682E+03	1.279270E-03	8.570825E-06
6.709667E+03	1.263640E-03	8.473587E-06
6.719652E+03	1.247896E-03	8.375411E-06
6.729636E+03	1.232201E-03	8.277399E-06
6.739621E+03	1.216705E-03	8.180547E-06
6.749606E+03	1.201502E-03	8.085497E-06
6.759590E+03	1.186598E-03	7.992291E-06
6.769575E+03	1.171977E-03	7.900832E-06
6.779559E+03	1.157508E-03	7.810229E-06
6.789544E+03	1.143040E-03	7.719469E-06
6.799529E+03	1.128348E-03	7.627032E-06
6.809513E+03	1.113344E-03	7.532317E-06
6.819498E+03	1.097976E-03	7.434964E-06
6.829483E+03	1.082370E-03	7.335817E-06
6.839467E+03	1.066727E-03	7.236243E-06
6.849452E+03	1.051440E-03	7.138899E-06
6.859436E+03	1.036939E-03	7.046719E-06
6.869421E+03	1.023654E-03	6.962634E-06
6.879406E+03	1.011846E-03	6.888453E-06
6.889390E+03	1.001749E-03	6.825790E-06
6.899375E+03	9.934701E-04	6.775410E-06
6.909360E+03	9.870951E-04	6.737927E-06
6.919344E+03	9.825979E-04	6.713198E-06
6.929329E+03	9.799199E-04	6.700856E-06
6.939313E+03	9.789145E-04	6.699930E-06
6.949298E+03	9.793177E-04	6.708644E-06
6.959283E+03	9.808641E-04	6.725201E-06
6.969267E+03	9.831365E-04	6.746760E-06
6.979252E+03	9.856513E-04	6.770012E-06
6.989237E+03	9.880058E-04	6.792191E-06
6.999221E+03	9.897343E-04	6.810091E-06
7.009206E+03	9.904932E-04	6.821334E-06
7.019190E+03	9.900947E-04	6.824606E-06
7.029175E+03	9.884729E-04	6.819432E-06
7.039160E+03	9.856889E-04	6.806211E-06
7.049144E+03	9.819633E-04	6.786446E-06
7.059129E+03	9.775329E-04	6.761758E-06
7.069114E+03	9.726904E-04	6.734159E-06
7.079098E+03	9.676972E-04	6.705454E-06
7.089083E+03	9.627072E-04	6.676706E-06
7.099067E+03	9.578112E-04	6.648546E-06
7.109052E+03	9.529850E-04	6.620807E-06
7.119037E+03	9.481276E-04	6.592788E-06
7.129021E+03	9.431765E-04	6.564053E-06
7.139006E+03	9.380149E-04	6.533786E-06
7.148991E+03	9.326443E-04	6.501994E-06
7.158975E+03	9.270930E-04	6.468871E-06
7.168960E+03	9.214087E-04	6.434745E-06
7.178944E+03	9.156130E-04	6.399767E-06
7.188929E+03	9.097515E-04	6.364251E-06
7.198914E+03	9.038368E-04	6.328286E-06
7.208898E+03	8.978594E-04	6.291803E-06
7.218883E+03	8.918405E-04	6.254951E-06
7.228868E+03	8.857650E-04	6.217621E-06
7.238852E+03	8.797911E-04	6.180925E-06
7.248837E+03	8.739885E-04	6.145355E-06
7.258821E+03	8.684596E-04	6.111633E-06
7.268806E+03	8.633135E-04	6.080534E-06
7.278791E+03	8.586255E-04	6.052594E-06
7.288775E+03	8.544537E-04	6.028232E-06
7.298760E+03	8.508162E-04	6.007585E-06
7.308745E+03	8.476940E-04	5.990527E-06
7.318729E+03	8.450808E-04	5.977022E-06
7.328714E+03	8.428816E-04	5.966409E-06
7.338698E+03	8.409979E-04	5.957995E-06
7.348683E+03	8.393186E-04	5.950998E-06
7.358668E+03	8.377356E-04	5.944656E-06
7.368652E+03	8.361410E-04	5.938202E-06
7.378637E+03	8.345169E-04	5.931510E-06
7.388622E+03	8.328137E-04	5.924226E-06
7.398606E+03	8.310128E-04	5.916217E-06
7.408591E+03	8.291645E-04	5.907837E-06
7.418575E+03	8.272343E-04	5.898841E-06
7.428560E+03	8.251676E-04	5.888839E-06
7.438545E+03	8.229080E-04	5.877423E-06
7.448529E+03	8.202459E-04	5.863094E-06
7.458514E+03	8.169004E-04	5.843834E-06
7.468499E+03	8.127290E-04	5.818611E-06
7.478483E+03	8.074910E-04	5.785687E-06
7.488468E+03	8.011254E-04	5.744606E-06
7.498452E+03	7.935996E-04	5.695116E-06
7.508437E+03	7.850789E-04	5.638385E-06
7.518422E+03	7.756714E-04	5.575172E-06
7.528406E+03	7.656706E-04	5.507573E-06
7.538391E+03	7.554065E-04	5.437956E-06
7.548376E+03	7.452453E-04	5.368955E-06
7.558360E+03	7.355875E-04	5.303458E-06
7.568345E+03	7.269641E-04	5.245306E-06
7.578329E+03	7.198315E-04	5.197813E-06
7.588314E+03	7.145101E-04	5.163317E-06
7.598299E+03	7.111880E-04	5.143210E-06
7.608283E+03	7.098749E-04	5.137595E-06
7.618268E+03	7.104569E-04	5.145680E-06
7.628252E+03	7.126829E-04	5.165676E-06
7.638237E+03	7.162188E-04	5.195186E-06
7.648222E+03	7.206345E-04	5.231108E-06
7.658206E+03	7.255344E-04	5.270583E-06
7.668191E+03	7.304725E-04	5.310376E-06
7.678176E+03	7.351078E-04	5.348006E-06
7.688160E+03	7.391075E-04	5.381046E-06
7.698145E+03	7.422082E-04	5.407566E-06
7.708129E+03	7.443536E-04	5.427141E-06
7.718114E+03	7.455421E-04	5.439743E-06
7.728099E+03	7.458428E-04	5.445862E-06
7.738083E+03	7.454810E-04	5.447131E-06
7.748068E+03	7.446091E-04	5.444653E-06
