#wls	flux	fluxerr
1.597540E+03	1.872672E-07	3.345118E-08
1.637478E+03	1.821218E-07	3.249048E-08
1.677417E+03	1.776716E-07	3.165471E-08
1.717355E+03	1.740436E-07	3.096607E-08
1.757294E+03	1.711318E-07	3.040514E-08
1.797232E+03	1.690650E-07	2.999429E-08
1.837171E+03	1.677554E-07	2.971732E-08
1.877109E+03	1.672878E-07	2.958863E-08
1.917048E+03	1.677527E-07	2.962347E-08
1.956986E+03	1.690945E-07	2.981121E-08
1.996925E+03	1.714784E-07	3.018009E-08
2.036863E+03	1.748764E-07	3.072415E-08
2.076802E+03	1.794844E-07	3.147667E-08
2.116740E+03	1.853622E-07	3.244679E-08
2.156679E+03	1.926982E-07	3.366596E-08
2.196617E+03	2.015423E-07	3.514118E-08
2.236556E+03	2.121947E-07	3.692277E-08
2.276494E+03	2.248217E-07	3.903728E-08
2.316433E+03	2.397465E-07	4.153813E-08
2.356371E+03	2.572127E-07	4.446421E-08
2.396310E+03	2.776419E-07	4.788468E-08
2.436248E+03	3.013724E-07	5.185341E-08
2.476187E+03	3.288636E-07	5.644426E-08
2.516125E+03	3.608152E-07	6.177118E-08
2.556064E+03	3.976596E-07	6.790092E-08
2.596002E+03	4.401556E-07	7.495467E-08
2.635941E+03	4.889314E-07	8.302958E-08
2.675879E+03	5.450197E-07	9.228957E-08
2.715818E+03	6.091828E-07	1.028503E-07
2.755756E+03	6.821803E-07	1.148247E-07
2.795695E+03	7.652486E-07	1.284035E-07
2.835633E+03	8.590057E-07	1.436704E-07
2.875572E+03	9.647320E-07	1.608171E-07
2.915510E+03	1.083119E-06	1.799336E-07
2.955449E+03	1.215185E-06	2.011612E-07
2.995387E+03	1.361080E-06	2.244940E-07
3.005372E+03	1.399932E-06	2.306883E-07
3.015356E+03	1.439668E-06	2.370147E-07
3.025341E+03	1.480286E-06	2.434726E-07
3.035326E+03	1.522096E-06	2.501122E-07
3.045310E+03	1.564491E-06	2.568333E-07
3.055295E+03	1.608091E-06	2.637370E-07
3.065279E+03	1.652586E-06	2.707719E-07
3.075264E+03	1.697974E-06	2.779372E-07
3.085249E+03	1.744250E-06	2.852313E-07
3.095233E+03	1.791409E-06	2.926531E-07
3.105218E+03	1.839445E-06	3.002006E-07
3.115203E+03	1.888715E-06	3.079319E-07
3.125187E+03	1.938861E-06	3.157875E-07
3.135172E+03	1.989874E-06	3.237655E-07
3.145156E+03	2.041740E-06	3.318632E-07
3.155141E+03	2.094450E-06	3.400782E-07
3.165126E+03	2.147988E-06	3.484076E-07
3.175110E+03	2.202757E-06	3.569158E-07
3.185095E+03	2.258340E-06	3.655349E-07
3.195080E+03	2.314723E-06	3.742616E-07
3.205064E+03	2.371887E-06	3.830924E-07
3.215049E+03	2.429812E-06	3.920235E-07
3.225033E+03	2.488937E-06	4.011251E-07
3.235018E+03	2.548331E-06	4.102463E-07
3.245003E+03	2.608898E-06	4.195323E-07
3.254987E+03	2.670156E-06	4.289048E-07
3.264972E+03	2.732080E-06	4.383590E-07
3.274957E+03	2.795146E-06	4.479709E-07
3.284941E+03	2.858332E-06	4.575757E-07
3.294926E+03	2.922623E-06	4.673311E-07
3.304910E+03	2.987488E-06	4.771509E-07
3.314895E+03	3.052896E-06	4.870299E-07
3.324880E+03	3.118816E-06	4.969626E-07
3.334864E+03	3.185772E-06	5.070319E-07
3.344849E+03	3.252627E-06	5.170561E-07
3.354834E+03	3.320468E-06	5.272077E-07
3.364818E+03	3.388705E-06	5.373921E-07
3.374803E+03	3.457891E-06	5.476969E-07
3.384787E+03	3.526815E-06	5.579291E-07
3.394772E+03	3.596631E-06	5.682713E-07
3.404757E+03	3.666088E-06	5.785253E-07
3.414741E+03	3.736375E-06	5.888783E-07
3.424726E+03	3.806840E-06	5.992269E-07
3.434711E+03	3.878086E-06	6.096656E-07
3.444695E+03	3.948786E-06	6.199854E-07
3.454680E+03	4.020196E-06	6.303830E-07
3.464664E+03	4.091623E-06	6.407494E-07
3.474649E+03	4.163021E-06	6.510770E-07
3.484634E+03	4.235027E-06	6.614653E-07
3.494618E+03	4.306227E-06	6.716927E-07
3.504603E+03	4.377953E-06	6.819670E-07
3.514588E+03	4.449463E-06	6.921724E-07
3.524572E+03	4.520706E-06	7.023005E-07
3.534557E+03	4.591626E-06	7.123427E-07
3.544541E+03	4.662902E-06	7.224040E-07
3.554526E+03	4.733757E-06	7.323637E-07
3.564511E+03	4.804132E-06	7.422127E-07
3.574495E+03	4.873965E-06	7.519415E-07
3.584480E+03	4.943197E-06	7.615408E-07
3.594465E+03	5.012532E-06	7.711195E-07
3.604449E+03	5.080373E-06	7.804315E-07
3.614434E+03	5.148201E-06	7.897047E-07
3.624418E+03	5.215178E-06	7.988105E-07
3.634403E+03	5.282029E-06	8.078604E-07
3.644388E+03	5.347100E-06	8.166011E-07
3.654372E+03	5.411913E-06	8.252661E-07
3.664357E+03	5.475603E-06	8.337230E-07
3.674342E+03	5.538090E-06	8.419608E-07
3.684326E+03	5.600126E-06	8.500937E-07
3.694311E+03	5.659991E-06	8.578613E-07
3.704295E+03	5.719259E-06	8.655030E-07
3.714280E+03	5.777029E-06	8.728827E-07
3.724265E+03	5.833223E-06	8.799897E-07
3.734249E+03	5.888608E-06	8.869401E-07
3.744234E+03	5.941424E-06	8.934696E-07
3.754219E+03	5.993285E-06	8.998224E-07
3.764203E+03	6.043275E-06	9.058613E-07
3.774188E+03	6.091323E-06	9.115770E-07
3.784172E+03	6.138217E-06	9.170885E-07
3.794157E+03	6.182184E-06	9.221317E-07
3.804142E+03	6.224879E-06	9.269554E-07
3.814126E+03	6.265392E-06	9.314247E-07
3.824111E+03	6.303677E-06	9.355342E-07
3.834095E+03	6.340554E-06	9.394073E-07
3.844080E+03	6.374265E-06	9.427844E-07
3.854065E+03	6.406510E-06	9.459188E-07
3.864049E+03	6.436405E-06	9.486814E-07
3.874034E+03	6.463941E-06	9.510725E-07
3.884019E+03	6.489966E-06	9.532183E-07
3.894003E+03	6.512768E-06	9.548687E-07
3.903988E+03	6.534068E-06	9.562781E-07
3.913972E+03	6.553031E-06	9.573255E-07
3.923957E+03	6.569661E-06	9.580133E-07
3.933942E+03	6.584856E-06	9.584740E-07
3.943926E+03	6.596930E-06	9.584635E-07
3.953911E+03	6.607630E-06	9.582377E-07
3.963896E+03	6.616158E-06	9.576823E-07
3.973880E+03	6.622564E-06	9.568059E-07
3.983865E+03	6.627763E-06	9.557424E-07
3.993849E+03	6.630144E-06	9.542607E-07
4.003834E+03	6.631460E-06	9.526150E-07
4.013819E+03	6.630976E-06	9.507008E-07
4.023803E+03	6.628794E-06	9.485342E-07
4.033788E+03	6.625011E-06	9.461303E-07
4.043773E+03	6.620558E-06	9.436233E-07
4.053757E+03	6.613930E-06	9.407996E-07
4.063742E+03	6.606862E-06	9.379075E-07
4.073726E+03	6.598667E-06	9.348498E-07
4.083711E+03	6.590263E-06	9.317574E-07
4.093696E+03	6.580190E-06	9.284246E-07
4.103680E+03	6.569371E-06	9.249828E-07
4.113665E+03	6.558719E-06	9.215609E-07
4.123650E+03	6.547580E-06	9.180671E-07
4.133634E+03	6.536092E-06	9.145213E-07
4.143619E+03	6.524401E-06	9.109439E-07
4.153603E+03	6.513407E-06	9.074609E-07
4.163588E+03	6.501758E-06	9.038834E-07
4.173573E+03	6.491117E-06	9.004431E-07
4.183557E+03	6.480891E-06	8.970567E-07
4.193542E+03	6.471255E-06	8.937481E-07
4.203527E+03	6.462382E-06	8.905408E-07
4.213511E+03	6.455180E-06	8.875588E-07
4.223496E+03	6.448359E-06	8.846236E-07
4.233480E+03	6.443536E-06	8.819562E-07
4.243465E+03	6.440159E-06	8.794796E-07
4.253450E+03	6.438379E-06	8.772127E-07
4.263434E+03	6.438350E-06	8.751750E-07
4.273419E+03	6.440195E-06	8.733816E-07
4.283404E+03	6.444043E-06	8.718482E-07
4.293388E+03	6.450690E-06	8.706801E-07
4.303373E+03	6.459525E-06	8.697924E-07
4.313357E+03	6.469934E-06	8.691005E-07
4.323342E+03	6.483347E-06	8.687944E-07
4.333327E+03	6.499124E-06	8.687855E-07
4.343311E+03	6.517975E-06	8.691661E-07
4.353296E+03	6.538550E-06	8.697536E-07
4.363281E+03	6.561547E-06	8.706388E-07
4.373265E+03	6.587654E-06	8.719101E-07
4.383250E+03	6.616198E-06	8.734755E-07
4.393234E+03	6.646536E-06	8.752478E-07
4.403219E+03	6.680111E-06	8.774145E-07
4.413204E+03	6.716307E-06	8.798915E-07
4.423188E+03	6.755206E-06	8.826867E-07
4.433173E+03	6.796868E-06	8.858050E-07
4.443158E+03	6.842055E-06	8.893422E-07
4.453142E+03	6.889444E-06	8.931232E-07
4.463127E+03	6.940451E-06	8.973286E-07
4.473111E+03	6.993742E-06	9.017821E-07
4.483096E+03	7.050713E-06	9.066609E-07
4.493081E+03	7.110684E-06	9.118736E-07
4.503065E+03	7.172951E-06	9.173265E-07
4.513050E+03	7.238890E-06	9.231927E-07
4.523035E+03	7.307783E-06	9.293765E-07
4.533019E+03	7.379587E-06	9.358690E-07
4.543004E+03	7.454263E-06	9.426617E-07
4.552988E+03	7.531744E-06	9.497429E-07
4.562973E+03	7.612697E-06	9.571929E-07
4.572958E+03	7.695616E-06	9.648188E-07
4.582942E+03	7.781140E-06	9.726982E-07
4.592927E+03	7.869945E-06	9.809117E-07
4.602912E+03	7.960489E-06	9.892638E-07
4.612896E+03	8.053420E-06	9.978325E-07
4.622881E+03	8.149436E-06	1.006701E-06
4.632865E+03	8.246973E-06	1.015673E-06
4.642850E+03	8.347502E-06	1.024926E-06
4.652835E+03	8.450237E-06	1.034361E-06
4.662819E+03	8.554411E-06	1.043882E-06
4.672804E+03	8.661594E-06	1.053676E-06
4.682789E+03	8.770293E-06	1.063559E-06
4.692773E+03	8.882196E-06	1.073734E-06
4.702758E+03	8.996678E-06	1.084119E-06
4.712742E+03	9.113166E-06	1.094644E-06
4.722727E+03	9.233540E-06	1.105531E-06
4.732712E+03	9.357348E-06	1.116719E-06
4.742696E+03	9.484176E-06	1.128157E-06
4.752681E+03	9.616152E-06	1.140091E-06
4.762665E+03	9.752983E-06	1.152481E-06
4.772650E+03	9.894384E-06	1.165287E-06
4.782635E+03	1.004268E-05	1.178775E-06
4.792619E+03	1.019679E-05	1.192811E-06
4.802604E+03	1.035910E-05	1.207665E-06
4.812589E+03	1.052848E-05	1.223195E-06
4.822573E+03	1.070733E-05	1.239670E-06
4.832558E+03	1.089439E-05	1.256932E-06
4.842542E+03	1.109199E-05	1.275238E-06
4.852527E+03	1.129866E-05	1.294408E-06
4.862512E+03	1.151562E-05	1.314567E-06
4.872496E+03	1.174403E-05	1.335835E-06
4.882481E+03	1.198200E-05	1.357981E-06
4.892466E+03	1.223040E-05	1.381092E-06
4.902450E+03	1.248901E-05	1.405130E-06
4.912435E+03	1.275749E-05	1.430041E-06
4.922419E+03	1.303535E-05	1.455760E-06
4.932404E+03	1.332094E-05	1.482087E-06
4.942389E+03	1.361569E-05	1.509173E-06
4.952373E+03	1.391778E-05	1.536802E-06
4.962358E+03	1.422524E-05	1.564748E-06
4.972343E+03	1.453944E-05	1.593154E-06
4.982327E+03	1.485720E-05	1.621662E-06
4.992312E+03	1.517877E-05	1.650293E-06
5.002296E+03	1.550327E-05	1.678947E-06
5.012281E+03	1.582991E-05	1.707533E-06
5.022266E+03	1.615793E-05	1.735966E-06
5.032250E+03	1.648668E-05	1.764173E-06
5.042235E+03	1.681561E-05	1.792095E-06
5.052220E+03	1.714297E-05	1.819542E-06
5.062204E+03	1.747110E-05	1.846765E-06
5.072189E+03	1.779717E-05	1.873463E-06
5.082173E+03	1.812249E-05	1.899775E-06
5.092158E+03	1.844718E-05	1.925713E-06
5.102143E+03	1.877148E-05	1.951303E-06
5.112127E+03	1.909428E-05	1.976429E-06
5.122112E+03	1.941890E-05	2.001435E-06
5.132097E+03	1.974291E-05	2.026067E-06
5.142081E+03	2.006827E-05	2.050527E-06
5.152066E+03	2.039551E-05	2.074865E-06
5.162050E+03	2.072513E-05	2.099128E-06
5.172035E+03	2.105757E-05	2.123358E-06
5.182020E+03	2.139320E-05	2.147586E-06
5.192004E+03	2.173070E-05	2.171676E-06
5.201989E+03	2.207183E-05	2.195799E-06
5.211974E+03	2.241669E-05	2.219962E-06
5.221958E+03	2.276532E-05	2.244159E-06
5.231943E+03	2.311602E-05	2.268221E-06
5.241927E+03	2.347210E-05	2.292466E-06
5.251912E+03	2.383017E-05	2.316557E-06
5.261897E+03	2.419197E-05	2.340659E-06
5.271881E+03	2.455586E-05	2.364609E-06
5.281866E+03	2.492566E-05	2.388769E-06
5.291851E+03	2.529825E-05	2.412833E-06
5.301835E+03	2.567603E-05	2.437024E-06
5.311820E+03	2.605979E-05	2.461411E-06
5.321804E+03	2.645051E-05	2.486074E-06
5.331789E+03	2.684737E-05	2.510931E-06
5.341774E+03	2.725344E-05	2.536255E-06
5.351758E+03	2.766994E-05	2.562147E-06
5.361743E+03	2.809808E-05	2.588704E-06
5.371728E+03	2.853894E-05	2.616009E-06
5.381712E+03	2.899143E-05	2.643944E-06
5.391697E+03	2.945815E-05	2.672728E-06
5.401681E+03	2.993733E-05	2.702182E-06
5.411666E+03	3.043301E-05	2.732651E-06
5.421651E+03	3.094041E-05	2.763685E-06
5.431635E+03	3.146056E-05	2.795358E-06
5.441620E+03	3.199184E-05	2.827510E-06
5.451605E+03	3.252991E-05	2.859743E-06
5.461589E+03	3.307431E-05	2.892009E-06
5.471574E+03	3.362200E-05	2.924032E-06
5.481558E+03	3.416957E-05	2.955516E-06
5.491543E+03	3.471130E-05	2.985968E-06
5.501528E+03	3.524678E-05	3.015361E-06
5.511512E+03	3.577112E-05	3.043290E-06
5.521497E+03	3.628694E-05	3.069992E-06
5.531482E+03	3.678766E-05	3.094927E-06
5.541466E+03	3.727453E-05	3.118222E-06
5.551451E+03	3.774455E-05	3.139646E-06
5.561435E+03	3.820297E-05	3.159661E-06
5.571420E+03	3.864580E-05	3.177955E-06
5.581405E+03	3.907474E-05	3.194691E-06
5.591389E+03	3.949747E-05	3.210514E-06
5.601374E+03	3.991190E-05	3.225264E-06
5.611359E+03	4.032154E-05	3.239238E-06
5.621343E+03	4.073558E-05	3.253178E-06
5.631328E+03	4.115278E-05	3.266977E-06
5.641312E+03	4.157714E-05	3.280944E-06
5.651297E+03	4.201797E-05	3.295798E-06
5.661282E+03	4.247342E-05	3.311369E-06
5.671266E+03	4.294935E-05	3.328087E-06
5.681251E+03	4.344562E-05	3.345911E-06
5.691235E+03	4.396693E-05	3.365167E-06
5.701220E+03	4.451456E-05	3.385917E-06
5.711205E+03	4.508921E-05	3.408170E-06
5.721189E+03	4.568770E-05	3.431648E-06
5.731174E+03	4.630907E-05	3.456242E-06
5.741159E+03	4.695771E-05	3.482242E-06
5.751143E+03	4.762531E-05	3.508992E-06
5.761128E+03	4.831197E-05	3.536470E-06
5.771112E+03	4.901094E-05	3.564154E-06
5.781097E+03	4.972104E-05	3.591937E-06
5.791082E+03	5.043746E-05	3.619454E-06
5.801066E+03	5.115143E-05	3.646069E-06
5.811051E+03	5.185999E-05	3.671570E-06
5.821036E+03	5.255640E-05	3.695487E-06
5.831020E+03	5.322988E-05	3.717082E-06
5.841005E+03	5.387574E-05	3.736059E-06
5.850989E+03	5.448545E-05	3.751867E-06
5.860974E+03	5.504670E-05	3.763713E-06
5.870959E+03	5.555378E-05	3.771276E-06
5.880943E+03	5.599392E-05	3.773773E-06
5.890928E+03	5.636174E-05	3.770937E-06
5.900913E+03	5.664878E-05	3.762312E-06
5.910897E+03	5.684747E-05	3.747514E-06
5.920882E+03	5.694784E-05	3.726019E-06
5.930866E+03	5.694500E-05	3.697654E-06
5.940851E+03	5.684283E-05	3.662822E-06
5.950836E+03	5.663306E-05	3.621140E-06
5.960820E+03	5.631671E-05	3.572834E-06
5.970805E+03	5.590029E-05	3.518474E-06
5.980790E+03	5.538896E-05	3.458532E-06
5.990774E+03	5.478984E-05	3.393595E-06
6.000759E+03	5.410836E-05	3.324130E-06
6.010743E+03	5.335500E-05	3.250902E-06
6.020728E+03	5.254762E-05	3.175103E-06
6.030713E+03	5.169181E-05	3.097154E-06
6.040697E+03	5.080011E-05	3.017876E-06
6.050682E+03	4.989114E-05	2.938425E-06
6.060667E+03	4.896780E-05	2.859002E-06
6.070651E+03	4.805065E-05	2.780823E-06
6.080636E+03	4.714439E-05	2.704152E-06
6.090620E+03	4.626167E-05	2.629695E-06
6.100605E+03	4.540835E-05	2.557753E-06
6.110590E+03	4.459483E-05	2.488864E-06
6.120574E+03	4.382497E-05	2.423184E-06
6.130559E+03	4.310957E-05	2.361241E-06
6.140544E+03	4.244527E-05	2.302774E-06
6.150528E+03	4.184357E-05	2.248324E-06
6.160513E+03	4.130220E-05	2.197678E-06
6.170497E+03	4.082589E-05	2.150994E-06
6.180482E+03	4.041380E-05	2.108130E-06
6.190467E+03	4.006931E-05	2.069166E-06
6.200451E+03	3.979057E-05	2.033904E-06
6.210436E+03	3.957999E-05	2.002368E-06
6.220421E+03	3.943712E-05	1.974431E-06
6.230405E+03	3.936110E-05	1.949951E-06
6.240390E+03	3.934828E-05	1.928647E-06
6.250374E+03	3.939705E-05	1.910347E-06
6.260359E+03	3.951004E-05	1.895087E-06
6.270344E+03	3.967779E-05	1.882323E-06
6.280328E+03	3.990465E-05	1.872180E-06
6.290313E+03	4.018301E-05	1.864219E-06
6.300298E+03	4.051208E-05	1.858333E-06
6.310282E+03	4.088622E-05	1.854195E-06
6.320267E+03	4.130469E-05	1.851713E-06
6.330251E+03	4.176448E-05	1.850695E-06
6.340236E+03	4.226031E-05	1.850859E-06
6.350221E+03	4.279232E-05	1.852170E-06
6.360205E+03	4.335866E-05	1.854508E-06
6.370190E+03	4.395563E-05	1.857682E-06
6.380175E+03	4.458541E-05	1.861756E-06
6.390159E+03	4.524590E-05	1.866613E-06
6.400144E+03	4.594126E-05	1.872401E-06
6.410128E+03	4.667414E-05	1.879201E-06
6.420113E+03	4.744553E-05	1.887023E-06
6.430098E+03	4.826334E-05	1.896154E-06
6.440082E+03	4.913411E-05	1.906814E-06
6.450067E+03	5.006289E-05	1.919158E-06
6.460052E+03	5.106252E-05	1.933632E-06
6.470036E+03	5.214194E-05	1.950518E-06
6.480021E+03	5.332199E-05	1.970528E-06
6.490005E+03	5.461114E-05	1.993892E-06
6.499990E+03	5.604111E-05	2.021675E-06
6.509975E+03	5.763282E-05	2.054511E-06
6.519959E+03	5.942338E-05	2.093585E-06
6.529944E+03	6.141764E-05	2.138913E-06
6.539929E+03	6.358303E-05	2.189235E-06
6.549913E+03	6.587943E-05	2.243104E-06
6.559898E+03	6.826234E-05	2.299008E-06
6.569882E+03	7.069531E-05	2.355783E-06
6.579867E+03	7.313919E-05	2.412244E-06
6.589852E+03	7.555255E-05	2.467196E-06
6.599836E+03	7.790621E-05	2.519900E-06
6.609821E+03	8.017128E-05	2.569670E-06
6.619805E+03	8.231952E-05	2.615871E-06
6.629790E+03	8.433852E-05	2.658398E-06
6.639775E+03	8.621744E-05	2.697198E-06
6.649759E+03	8.794644E-05	2.732252E-06
6.659744E+03	8.953152E-05	2.764024E-06
6.669729E+03	9.097306E-05	2.792786E-06
6.679713E+03	9.229130E-05	2.819399E-06
6.689698E+03	9.348745E-05	2.844119E-06
6.699682E+03	9.457497E-05	2.867553E-06
6.709667E+03	9.557926E-05	2.890647E-06
6.719652E+03	9.650291E-05	2.913635E-06
6.729636E+03	9.735872E-05	2.937040E-06
6.739621E+03	9.816976E-05	2.961681E-06
6.749606E+03	9.893411E-05	2.987605E-06
6.759590E+03	9.965949E-05	3.015107E-06
6.769575E+03	1.003638E-04	3.044736E-06
6.779559E+03	1.010390E-04	3.076252E-06
6.789544E+03	1.016937E-04	3.109894E-06
6.799529E+03	1.023225E-04	3.145481E-06
6.809513E+03	1.029312E-04	3.183151E-06
6.819498E+03	1.035183E-04	3.222820E-06
6.829483E+03	1.040818E-04	3.264364E-06
6.839467E+03	1.046123E-04	3.307435E-06
6.849452E+03	1.051129E-04	3.352048E-06
6.859436E+03	1.055799E-04	3.398003E-06
6.869421E+03	1.060029E-04	3.444874E-06
6.879406E+03	1.063841E-04	3.492623E-06
6.889390E+03	1.067192E-04	3.541001E-06
6.899375E+03	1.069976E-04	3.589523E-06
6.909360E+03	1.072278E-04	3.638345E-06
6.919344E+03	1.073928E-04	3.686749E-06
6.929329E+03	1.074888E-04	3.734444E-06
6.939313E+03	1.075254E-04	3.781605E-06
6.949298E+03	1.074869E-04	3.827514E-06
6.959283E+03	1.073716E-04	3.871927E-06
6.969267E+03	1.071917E-04	3.915109E-06
6.979252E+03	1.069348E-04	3.956428E-06
6.989237E+03	1.066095E-04	3.996017E-06
6.999221E+03	1.062192E-04	4.033833E-06
7.009206E+03	1.057628E-04	4.069653E-06
7.019190E+03	1.052599E-04	4.104068E-06
7.029175E+03	1.047056E-04	4.136748E-06
7.039160E+03	1.041095E-04	4.167927E-06
7.049144E+03	1.034950E-04	4.198417E-06
7.059129E+03	1.028607E-04	4.228072E-06
7.069114E+03	1.022248E-04	4.257559E-06
7.079098E+03	1.015932E-04	4.287070E-06
7.089083E+03	1.009907E-04	4.317615E-06
7.099067E+03	1.004167E-04	4.349171E-06
7.109052E+03	9.988886E-05	4.382518E-06
7.119037E+03	9.941194E-05	4.417897E-06
7.129021E+03	9.900825E-05	4.456362E-06
7.139006E+03	9.867477E-05	4.497865E-06
7.148991E+03	9.842591E-05	4.543158E-06
7.158975E+03	9.826291E-05	4.592414E-06
7.168960E+03	9.820432E-05	4.646633E-06
7.178944E+03	9.824346E-05	4.705649E-06
7.188929E+03	9.839101E-05	4.770126E-06
7.198914E+03	9.865068E-05	4.840415E-06
7.208898E+03	9.901933E-05	4.916534E-06
7.218883E+03	9.950531E-05	4.999076E-06
7.228868E+03	1.001102E-04	5.088311E-06
7.238852E+03	1.008351E-04	5.184483E-06
7.248837E+03	1.016804E-04	5.287810E-06
7.258821E+03	1.026396E-04	5.398147E-06
7.268806E+03	1.037184E-04	5.515984E-06
7.278791E+03	1.049157E-04	5.641454E-06
7.288775E+03	1.062298E-04	5.774659E-06
7.298760E+03	1.076583E-04	5.915664E-06
7.308745E+03	1.091913E-04	6.064101E-06
7.318729E+03	1.108317E-04	6.220298E-06
7.328714E+03	1.125746E-04	6.384156E-06
7.338698E+03	1.144141E-04	6.555501E-06
7.348683E+03	1.163357E-04	6.733647E-06
7.358668E+03	1.183456E-04	6.919087E-06
7.368652E+03	1.204192E-04	7.110495E-06
7.378637E+03	1.225445E-04	7.307263E-06
7.388622E+03	1.247241E-04	7.509615E-06
7.398606E+03	1.269359E-04	7.716282E-06
7.408591E+03	1.291556E-04	7.925809E-06
7.418575E+03	1.313735E-04	8.137604E-06
7.428560E+03	1.335712E-04	8.350477E-06
7.438545E+03	1.357288E-04	8.563133E-06
7.448529E+03	1.378172E-04	8.773633E-06
7.458514E+03	1.398337E-04	8.981657E-06
7.468499E+03	1.417403E-04	9.184616E-06
7.478483E+03	1.435271E-04	9.381648E-06
7.488468E+03	1.451769E-04	9.571405E-06
7.498452E+03	1.466751E-04	9.752669E-06
7.508437E+03	1.480004E-04	9.923746E-06
7.518422E+03	1.491544E-04	1.008443E-05
7.528406E+03	1.501331E-04	1.023417E-05
7.538391E+03	1.509365E-04	1.037264E-05
7.548376E+03	1.515687E-04	1.049984E-05
7.558360E+03	1.520370E-04	1.061599E-05
7.568345E+03	1.523414E-04	1.072080E-05
7.578329E+03	1.525136E-04	1.081626E-05
7.588314E+03	1.525459E-04	1.090158E-05
7.598299E+03	1.524597E-04	1.097809E-05
7.608283E+03	1.522650E-04	1.104630E-05
7.618268E+03	1.519584E-04	1.110581E-05
7.628252E+03	1.515636E-04	1.115816E-05
7.638237E+03	1.510598E-04	1.120169E-05
7.648222E+03	1.504523E-04	1.123661E-05
7.658206E+03	1.497328E-04	1.126214E-05
7.668191E+03	1.488900E-04	1.127724E-05
7.678176E+03	1.479108E-04	1.128074E-05
7.688160E+03	1.467815E-04	1.127136E-05
7.698145E+03	1.454797E-04	1.124714E-05
7.708129E+03	1.440147E-04	1.120856E-05
7.718114E+03	1.423603E-04	1.115332E-05
7.728099E+03	1.405243E-04	1.108174E-05
7.738083E+03	1.385096E-04	1.099379E-05
7.748068E+03	1.363246E-04	1.088988E-05
