#wls	flux	fluxerr
1.587144E+03	2.320365E-03	1.385705E-07
1.626823E+03	2.373192E-03	1.417254E-07
1.666501E+03	2.429509E-03	1.450885E-07
1.706180E+03	2.489429E-03	1.486669E-07
1.745859E+03	2.553303E-03	1.524814E-07
1.785537E+03	2.621208E-03	1.565367E-07
1.825216E+03	2.693450E-03	1.608509E-07
1.864894E+03	2.770309E-03	1.654409E-07
1.904573E+03	2.851792E-03	1.703070E-07
1.944252E+03	2.938128E-03	1.754629E-07
1.983930E+03	3.029506E-03	1.809199E-07
2.023609E+03	3.126090E-03	1.866878E-07
2.063287E+03	3.227762E-03	1.927596E-07
2.102966E+03	3.334614E-03	1.991407E-07
2.142645E+03	3.446226E-03	2.058061E-07
2.182323E+03	3.562156E-03	2.127294E-07
2.222002E+03	3.681017E-03	2.198277E-07
2.261680E+03	3.801442E-03	2.270194E-07
2.301359E+03	3.924559E-03	2.343718E-07
2.341038E+03	4.052309E-03	2.420009E-07
2.380716E+03	4.186059E-03	2.499884E-07
2.420395E+03	4.326627E-03	2.583830E-07
2.460073E+03	4.474518E-03	2.672149E-07
2.499752E+03	4.630361E-03	2.765217E-07
2.539431E+03	4.794269E-03	2.863102E-07
2.579109E+03	4.966701E-03	2.966077E-07
2.618788E+03	5.147618E-03	3.074119E-07
2.658466E+03	5.336535E-03	3.186939E-07
2.698145E+03	5.533337E-03	3.304467E-07
2.737824E+03	5.737311E-03	3.426279E-07
2.777502E+03	5.947590E-03	3.551856E-07
2.817181E+03	6.163005E-03	3.680500E-07
2.856859E+03	6.382506E-03	3.811584E-07
2.896538E+03	6.606246E-03	3.945200E-07
2.936217E+03	6.836359E-03	4.082621E-07
2.975895E+03	7.075584E-03	4.225484E-07
2.985815E+03	7.137076E-03	4.262207E-07
2.995735E+03	7.199604E-03	4.299548E-07
3.005654E+03	7.262819E-03	4.337299E-07
3.015574E+03	7.326874E-03	4.375552E-07
3.025494E+03	7.392087E-03	4.414497E-07
3.035413E+03	7.458114E-03	4.453927E-07
3.045333E+03	7.525269E-03	4.494032E-07
3.055252E+03	7.593534E-03	4.534799E-07
3.065172E+03	7.662897E-03	4.576222E-07
3.075092E+03	7.733340E-03	4.618290E-07
3.085011E+03	7.805168E-03	4.661185E-07
3.094931E+03	7.878205E-03	4.704802E-07
3.104851E+03	7.952589E-03	4.749223E-07
3.114770E+03	8.028303E-03	4.794439E-07
3.124690E+03	8.105327E-03	4.840437E-07
3.134610E+03	8.183796E-03	4.887298E-07
3.144529E+03	8.263843E-03	4.935101E-07
3.154449E+03	8.345135E-03	4.983648E-07
3.164369E+03	8.428107E-03	5.033198E-07
3.174288E+03	8.512578E-03	5.083643E-07
3.184208E+03	8.598667E-03	5.135055E-07
3.194128E+03	8.686341E-03	5.187413E-07
3.204047E+03	8.775413E-03	5.240606E-07
3.213967E+03	8.866290E-03	5.294877E-07
3.223887E+03	8.958477E-03	5.349930E-07
3.233806E+03	9.052371E-03	5.406003E-07
3.243726E+03	9.147909E-03	5.463057E-07
3.253645E+03	9.244737E-03	5.520881E-07
3.263565E+03	9.343216E-03	5.579692E-07
3.273485E+03	9.442974E-03	5.639267E-07
3.283404E+03	9.544065E-03	5.699638E-07
3.293324E+03	9.646385E-03	5.760742E-07
3.303244E+03	9.749957E-03	5.822594E-07
3.313163E+03	9.854510E-03	5.885032E-07
3.323083E+03	9.959897E-03	5.947968E-07
3.333003E+03	1.006596E-02	6.011305E-07
3.342922E+03	1.017264E-02	6.075017E-07
3.352842E+03	1.027962E-02	6.138902E-07
3.362762E+03	1.038666E-02	6.202828E-07
3.372681E+03	1.049353E-02	6.266651E-07
3.382601E+03	1.059984E-02	6.330134E-07
3.392521E+03	1.070530E-02	6.393112E-07
3.402440E+03	1.080961E-02	6.455410E-07
3.412360E+03	1.091236E-02	6.516767E-07
3.422280E+03	1.101321E-02	6.576997E-07
3.432199E+03	1.111175E-02	6.635842E-07
3.442119E+03	1.120755E-02	6.693052E-07
3.452038E+03	1.130023E-02	6.748403E-07
3.461958E+03	1.138935E-02	6.801625E-07
3.471878E+03	1.147480E-02	6.852654E-07
3.481797E+03	1.155633E-02	6.901343E-07
3.491717E+03	1.163373E-02	6.947562E-07
3.501637E+03	1.170685E-02	6.991228E-07
3.511556E+03	1.177616E-02	7.032621E-07
3.521476E+03	1.184203E-02	7.071960E-07
3.531396E+03	1.190490E-02	7.109503E-07
3.541315E+03	1.196585E-02	7.145903E-07
3.551235E+03	1.202614E-02	7.181908E-07
3.561155E+03	1.208713E-02	7.218327E-07
3.571074E+03	1.214934E-02	7.255478E-07
3.580994E+03	1.221212E-02	7.292970E-07
3.582055E+03	1.152575E-02	6.883079E-07
3.583514E+03	1.186576E-02	7.086124E-07
3.584972E+03	1.208680E-02	7.218130E-07
3.586430E+03	1.212980E-02	7.243809E-07
3.587888E+03	1.219235E-02	7.281166E-07
3.589346E+03	1.217799E-02	7.272586E-07
3.590804E+03	1.234850E-02	7.374417E-07
3.592263E+03	1.239534E-02	7.402387E-07
3.593721E+03	1.235846E-02	7.380363E-07
3.595179E+03	1.250902E-02	7.470278E-07
3.596637E+03	1.275354E-02	7.616301E-07
3.598095E+03	1.286332E-02	7.681862E-07
3.599554E+03	1.293400E-02	7.724070E-07
3.601012E+03	1.305358E-02	7.795481E-07
3.602470E+03	1.313405E-02	7.843539E-07
3.603928E+03	1.328596E-02	7.934257E-07
3.605386E+03	1.329757E-02	7.941193E-07
3.606845E+03	1.329089E-02	7.937202E-07
3.608303E+03	1.319066E-02	7.877345E-07
3.609761E+03	1.309254E-02	7.818750E-07
3.611219E+03	1.298634E-02	7.755329E-07
3.612677E+03	1.299070E-02	7.757932E-07
3.614136E+03	1.305802E-02	7.798130E-07
3.615594E+03	1.310789E-02	7.827913E-07
3.617052E+03	1.307993E-02	7.811216E-07
3.618510E+03	1.311025E-02	7.829323E-07
3.619968E+03	1.308271E-02	7.812877E-07
3.621426E+03	1.309515E-02	7.820306E-07
3.622885E+03	1.310420E-02	7.825711E-07
3.624343E+03	1.300858E-02	7.768609E-07
3.625801E+03	1.285765E-02	7.678474E-07
3.627259E+03	1.274288E-02	7.609933E-07
3.628717E+03	1.252725E-02	7.481165E-07
3.630176E+03	1.242394E-02	7.419468E-07
3.631634E+03	1.245423E-02	7.437554E-07
3.633092E+03	1.227686E-02	7.331632E-07
3.634550E+03	1.212076E-02	7.238409E-07
3.636008E+03	1.196634E-02	7.146194E-07
3.637467E+03	1.178936E-02	7.040499E-07
3.638925E+03	1.170599E-02	6.990711E-07
3.640383E+03	1.159069E-02	6.921856E-07
3.641841E+03	1.156689E-02	6.907644E-07
3.643299E+03	1.152479E-02	6.882500E-07
3.644757E+03	1.133881E-02	6.771433E-07
3.646216E+03	1.124433E-02	6.715012E-07
3.647674E+03	1.121710E-02	6.698753E-07
3.649132E+03	1.116391E-02	6.666984E-07
3.650590E+03	1.104812E-02	6.597839E-07
3.652048E+03	1.111369E-02	6.636998E-07
3.653507E+03	1.112775E-02	6.645395E-07
3.654965E+03	1.096043E-02	6.545471E-07
3.656423E+03	1.098343E-02	6.559203E-07
3.657881E+03	1.117760E-02	6.675161E-07
3.659339E+03	1.119890E-02	6.687880E-07
3.660798E+03	1.129429E-02	6.744850E-07
3.662256E+03	1.136542E-02	6.787328E-07
3.663714E+03	1.142974E-02	6.825738E-07
3.665172E+03	1.150130E-02	6.868474E-07
3.666630E+03	1.160694E-02	6.931561E-07
3.668088E+03	1.158311E-02	6.917327E-07
3.669547E+03	1.155501E-02	6.900546E-07
3.671005E+03	1.154224E-02	6.892922E-07
3.672463E+03	1.148474E-02	6.858585E-07
3.673921E+03	1.158401E-02	6.917864E-07
3.675379E+03	1.173823E-02	7.009964E-07
3.676838E+03	1.184901E-02	7.076120E-07
3.678296E+03	1.198749E-02	7.158818E-07
3.679754E+03	1.200923E-02	7.171805E-07
3.681212E+03	1.199562E-02	7.163674E-07
3.682670E+03	1.215882E-02	7.261140E-07
3.684129E+03	1.235869E-02	7.380496E-07
3.685587E+03	1.242562E-02	7.420467E-07
3.687045E+03	1.265789E-02	7.559175E-07
3.688503E+03	1.277000E-02	7.626127E-07
3.689961E+03	1.285782E-02	7.678572E-07
3.691420E+03	1.298954E-02	7.757236E-07
3.692878E+03	1.322229E-02	7.896231E-07
3.694336E+03	1.339410E-02	7.998837E-07
3.695794E+03	1.343379E-02	8.022537E-07
3.697252E+03	1.358771E-02	8.114455E-07
3.698710E+03	1.365512E-02	8.154712E-07
3.700169E+03	1.380266E-02	8.242821E-07
3.701627E+03	1.410708E-02	8.424620E-07
3.703085E+03	1.420093E-02	8.480666E-07
3.704543E+03	1.429990E-02	8.539772E-07
3.706001E+03	1.440143E-02	8.600405E-07
3.707460E+03	1.450980E-02	8.665119E-07
3.708918E+03	1.450561E-02	8.662618E-07
3.710376E+03	1.463444E-02	8.739551E-07
3.711834E+03	1.468483E-02	8.769644E-07
3.713292E+03	1.462349E-02	8.733015E-07
3.714751E+03	1.471097E-02	8.785256E-07
3.716209E+03	1.484323E-02	8.864241E-07
3.717667E+03	1.484884E-02	8.867592E-07
3.719125E+03	1.477257E-02	8.822041E-07
3.720583E+03	1.482466E-02	8.853150E-07
3.722041E+03	1.484007E-02	8.862356E-07
3.723500E+03	1.483416E-02	8.858821E-07
3.724958E+03	1.489307E-02	8.894007E-07
3.726416E+03	1.494345E-02	8.924093E-07
3.727874E+03	1.494650E-02	8.925911E-07
3.729332E+03	1.492436E-02	8.912689E-07
3.730791E+03	1.500076E-02	8.958316E-07
3.732249E+03	1.513518E-02	9.038589E-07
3.733707E+03	1.509257E-02	9.013146E-07
3.735165E+03	1.512760E-02	9.034060E-07
3.736623E+03	1.515111E-02	9.048101E-07
3.738082E+03	1.506283E-02	8.995384E-07
3.739540E+03	1.496303E-02	8.935784E-07
3.740998E+03	1.479879E-02	8.837703E-07
3.742456E+03	1.470024E-02	8.778850E-07
3.743914E+03	1.459701E-02	8.717201E-07
3.745372E+03	1.449632E-02	8.657068E-07
3.746831E+03	1.438665E-02	8.591575E-07
3.748289E+03	1.429277E-02	8.535512E-07
3.749747E+03	1.425094E-02	8.510529E-07
3.751205E+03	1.417539E-02	8.465412E-07
3.752663E+03	1.413057E-02	8.438647E-07
3.754122E+03	1.399142E-02	8.355547E-07
3.755580E+03	1.388213E-02	8.290279E-07
3.757038E+03	1.372333E-02	8.195443E-07
3.758496E+03	1.359866E-02	8.120995E-07
3.759954E+03	1.346586E-02	8.041689E-07
3.761413E+03	1.330447E-02	7.945304E-07
3.762871E+03	1.315970E-02	7.858853E-07
3.764329E+03	1.302646E-02	7.779283E-07
3.765787E+03	1.284881E-02	7.673187E-07
3.767245E+03	1.266901E-02	7.565816E-07
3.768704E+03	1.251567E-02	7.474242E-07
3.770162E+03	1.234993E-02	7.375261E-07
3.771620E+03	1.215686E-02	7.259965E-07
3.773078E+03	1.190358E-02	7.108709E-07
3.774536E+03	1.165328E-02	6.959230E-07
3.775994E+03	1.141876E-02	6.819174E-07
3.777453E+03	1.124485E-02	6.715317E-07
3.778911E+03	1.109569E-02	6.626242E-07
3.780369E+03	1.089144E-02	6.504267E-07
3.781827E+03	1.067181E-02	6.373105E-07
3.783285E+03	1.046327E-02	6.248566E-07
3.784744E+03	1.031578E-02	6.160485E-07
3.786202E+03	1.012557E-02	6.046897E-07
3.787660E+03	1.005450E-02	6.004453E-07
3.789118E+03	1.001246E-02	5.979347E-07
3.790576E+03	1.003106E-02	5.990454E-07
3.792035E+03	1.002061E-02	5.984217E-07
3.793493E+03	9.993939E-03	5.968286E-07
3.794951E+03	9.883125E-03	5.902109E-07
3.796409E+03	9.771875E-03	5.835672E-07
3.797867E+03	9.788750E-03	5.845749E-07
3.799325E+03	9.796654E-03	5.850470E-07
3.800784E+03	9.923724E-03	5.926354E-07
3.802242E+03	1.001235E-02	5.979283E-07
3.803700E+03	1.007493E-02	6.016653E-07
3.805158E+03	1.019560E-02	6.088715E-07
3.806616E+03	1.028680E-02	6.143177E-07
3.808075E+03	1.031905E-02	6.162437E-07
3.809533E+03	1.040939E-02	6.216389E-07
3.810991E+03	1.052409E-02	6.284884E-07
3.812449E+03	1.060204E-02	6.331440E-07
3.813907E+03	1.060909E-02	6.335646E-07
3.815366E+03	1.066611E-02	6.369702E-07
3.816824E+03	1.076671E-02	6.429779E-07
3.818282E+03	1.087201E-02	6.492664E-07
3.819740E+03	1.093630E-02	6.531057E-07
3.821198E+03	1.105528E-02	6.602107E-07
3.822656E+03	1.115161E-02	6.659636E-07
3.824115E+03	1.125051E-02	6.718697E-07
3.825573E+03	1.135453E-02	6.780819E-07
3.827031E+03	1.145471E-02	6.840646E-07
3.828489E+03	1.155148E-02	6.898431E-07
3.829947E+03	1.172942E-02	7.004700E-07
3.831406E+03	1.203599E-02	7.187777E-07
3.832864E+03	1.225155E-02	7.316506E-07
3.834322E+03	1.248805E-02	7.457744E-07
3.835780E+03	1.272284E-02	7.597958E-07
3.837238E+03	1.284953E-02	7.673617E-07
3.838697E+03	1.304929E-02	7.792911E-07
3.840155E+03	1.331699E-02	7.952780E-07
3.841613E+03	1.358513E-02	8.112913E-07
3.843071E+03	1.375414E-02	8.213843E-07
3.844529E+03	1.393981E-02	8.324719E-07
3.845988E+03	1.421351E-02	8.488175E-07
3.847446E+03	1.439663E-02	8.597527E-07
3.848904E+03	1.462632E-02	8.734697E-07
3.850362E+03	1.483935E-02	8.861918E-07
3.851820E+03	1.509041E-02	9.011850E-07
3.853278E+03	1.539277E-02	9.192417E-07
3.854737E+03	1.559683E-02	9.314277E-07
3.856195E+03	1.580730E-02	9.439967E-07
3.857653E+03	1.602419E-02	9.569493E-07
3.859111E+03	1.621499E-02	9.683439E-07
3.860569E+03	1.634127E-02	9.758847E-07
3.862028E+03	1.654746E-02	9.881986E-07
3.863486E+03	1.683829E-02	1.005567E-06
3.864944E+03	1.707271E-02	1.019566E-06
3.866402E+03	1.726822E-02	1.031242E-06
3.867860E+03	1.750989E-02	1.045674E-06
3.869319E+03	1.782039E-02	1.064216E-06
3.870777E+03	1.803385E-02	1.076964E-06
3.872235E+03	1.829563E-02	1.092597E-06
3.873693E+03	1.865826E-02	1.114253E-06
3.875151E+03	1.893841E-02	1.130983E-06
3.876609E+03	1.911298E-02	1.141409E-06
3.878068E+03	1.931873E-02	1.153696E-06
3.879526E+03	1.954930E-02	1.167465E-06
3.880984E+03	1.972855E-02	1.178170E-06
3.882442E+03	1.988686E-02	1.187624E-06
3.883900E+03	2.006483E-02	1.198252E-06
3.885359E+03	2.021458E-02	1.207195E-06
3.886817E+03	2.042590E-02	1.219815E-06
3.888275E+03	2.068421E-02	1.235241E-06
3.889733E+03	2.092330E-02	1.249519E-06
3.891191E+03	2.112947E-02	1.261831E-06
3.892650E+03	2.135359E-02	1.275216E-06
3.894108E+03	2.155804E-02	1.287425E-06
3.895566E+03	2.176247E-02	1.299634E-06
3.897024E+03	2.191177E-02	1.308550E-06
3.898482E+03	2.202172E-02	1.315116E-06
3.899940E+03	2.213852E-02	1.322091E-06
3.901399E+03	2.232114E-02	1.332997E-06
3.902857E+03	2.255505E-02	1.346966E-06
3.904315E+03	2.282829E-02	1.363283E-06
3.905773E+03	2.312804E-02	1.381184E-06
3.907231E+03	2.345299E-02	1.400590E-06
3.908690E+03	2.380403E-02	1.421553E-06
3.910148E+03	2.416488E-02	1.443103E-06
3.911606E+03	2.455609E-02	1.466466E-06
3.913064E+03	2.492677E-02	1.488602E-06
3.914522E+03	2.526366E-02	1.508721E-06
3.915981E+03	2.562108E-02	1.530066E-06
3.917439E+03	2.596907E-02	1.550848E-06
3.918897E+03	2.627516E-02	1.569127E-06
3.920355E+03	2.644487E-02	1.579262E-06
3.921813E+03	2.655601E-02	1.585899E-06
3.923272E+03	2.668680E-02	1.593710E-06
3.924730E+03	2.679322E-02	1.600065E-06
3.926188E+03	2.690432E-02	1.606700E-06
3.927646E+03	2.695855E-02	1.609938E-06
3.929104E+03	2.688026E-02	1.605263E-06
3.930562E+03	2.688875E-02	1.605769E-06
3.932021E+03	2.685446E-02	1.603722E-06
3.933479E+03	2.681505E-02	1.601368E-06
3.934937E+03	2.675253E-02	1.597635E-06
3.936395E+03	2.674088E-02	1.596939E-06
3.937853E+03	2.668050E-02	1.593333E-06
3.939312E+03	2.665858E-02	1.592024E-06
3.940770E+03	2.658663E-02	1.587727E-06
3.942228E+03	2.647663E-02	1.581158E-06
3.943686E+03	2.632729E-02	1.572240E-06
3.945144E+03	2.629977E-02	1.570596E-06
3.946603E+03	2.629662E-02	1.570408E-06
3.948061E+03	2.622548E-02	1.566160E-06
3.949519E+03	2.610946E-02	1.559231E-06
3.950977E+03	2.600711E-02	1.553119E-06
3.952435E+03	2.588123E-02	1.545601E-06
3.953893E+03	2.580836E-02	1.541250E-06
3.955352E+03	2.568120E-02	1.533656E-06
3.956810E+03	2.558479E-02	1.527899E-06
3.958268E+03	2.555764E-02	1.526277E-06
3.959726E+03	2.545952E-02	1.520418E-06
3.961184E+03	2.532079E-02	1.512133E-06
3.962643E+03	2.521753E-02	1.505966E-06
3.964101E+03	2.521086E-02	1.505567E-06
3.965559E+03	2.519093E-02	1.504377E-06
3.967017E+03	2.512954E-02	1.500711E-06
3.968475E+03	2.508950E-02	1.498320E-06
3.969934E+03	2.509092E-02	1.498405E-06
3.971392E+03	2.505644E-02	1.496345E-06
3.972850E+03	2.503989E-02	1.495357E-06
3.974308E+03	2.500025E-02	1.492990E-06
3.975766E+03	2.500207E-02	1.493099E-06
3.977224E+03	2.509832E-02	1.498846E-06
3.978683E+03	2.524116E-02	1.507377E-06
3.980141E+03	2.533782E-02	1.513149E-06
3.981599E+03	2.539003E-02	1.516267E-06
3.983057E+03	2.545547E-02	1.520175E-06
3.984515E+03	2.553928E-02	1.525180E-06
3.985974E+03	2.566239E-02	1.532532E-06
3.987432E+03	2.581669E-02	1.541747E-06
3.988890E+03	2.596841E-02	1.550807E-06
3.990348E+03	2.607695E-02	1.557289E-06
3.991806E+03	2.615087E-02	1.561704E-06
3.993265E+03	2.630298E-02	1.570787E-06
3.994723E+03	2.647856E-02	1.581273E-06
3.996181E+03	2.660714E-02	1.588952E-06
3.997639E+03	2.677117E-02	1.598747E-06
3.999097E+03	2.699884E-02	1.612344E-06
4.000556E+03	2.718634E-02	1.623541E-06
4.002014E+03	2.730245E-02	1.630475E-06
4.003472E+03	2.748650E-02	1.641466E-06
4.004930E+03	2.768974E-02	1.653603E-06
4.006388E+03	2.788357E-02	1.665179E-06
4.007846E+03	2.804450E-02	1.674789E-06
4.009305E+03	2.818317E-02	1.683070E-06
4.010763E+03	2.832783E-02	1.691709E-06
4.012221E+03	2.849125E-02	1.701469E-06
4.013679E+03	2.870721E-02	1.714366E-06
4.015137E+03	2.884796E-02	1.722771E-06
4.016596E+03	2.889300E-02	1.725461E-06
4.018054E+03	2.893974E-02	1.728252E-06
4.019512E+03	2.901680E-02	1.732854E-06
4.020970E+03	2.908145E-02	1.736715E-06
4.022428E+03	2.914054E-02	1.740243E-06
4.023887E+03	2.905950E-02	1.735404E-06
4.025345E+03	2.892038E-02	1.727095E-06
4.026803E+03	2.886582E-02	1.723837E-06
4.028261E+03	2.880143E-02	1.719992E-06
4.029719E+03	2.867253E-02	1.712294E-06
4.031177E+03	2.853468E-02	1.704062E-06
4.032636E+03	2.835751E-02	1.693482E-06
4.034094E+03	2.812014E-02	1.679306E-06
4.035552E+03	2.781573E-02	1.661127E-06
4.037010E+03	2.746690E-02	1.640295E-06
4.038468E+03	2.710913E-02	1.618929E-06
4.039927E+03	2.675093E-02	1.597538E-06
4.041385E+03	2.640129E-02	1.576658E-06
4.042843E+03	2.598590E-02	1.551851E-06
4.044301E+03	2.552483E-02	1.524317E-06
4.045759E+03	2.506038E-02	1.496580E-06
4.047218E+03	2.465272E-02	1.472235E-06
4.048676E+03	2.432748E-02	1.452812E-06
4.050134E+03	2.407140E-02	1.437519E-06
4.051592E+03	2.380595E-02	1.421667E-06
4.053050E+03	2.357080E-02	1.407624E-06
4.054508E+03	2.332799E-02	1.393124E-06
4.055967E+03	2.311036E-02	1.380127E-06
4.057425E+03	2.285816E-02	1.365066E-06
4.058883E+03	2.262218E-02	1.350974E-06
4.060341E+03	2.245964E-02	1.341266E-06
4.061799E+03	2.231885E-02	1.332859E-06
4.063258E+03	2.218575E-02	1.324910E-06
4.064716E+03	2.199461E-02	1.313495E-06
4.066174E+03	2.179964E-02	1.301852E-06
4.067632E+03	2.163837E-02	1.292221E-06
4.069090E+03	2.140628E-02	1.278361E-06
4.070549E+03	2.121559E-02	1.266973E-06
4.072007E+03	2.109402E-02	1.259713E-06
4.073465E+03	2.093491E-02	1.250211E-06
4.074923E+03	2.074252E-02	1.238722E-06
4.076381E+03	2.048871E-02	1.223565E-06
4.077840E+03	2.023832E-02	1.208611E-06
4.079298E+03	2.016881E-02	1.204461E-06
4.080756E+03	2.004726E-02	1.197202E-06
4.082214E+03	1.992571E-02	1.189943E-06
4.083672E+03	1.981058E-02	1.183067E-06
4.085130E+03	1.967410E-02	1.174917E-06
4.086589E+03	1.955725E-02	1.167939E-06
4.088047E+03	1.945618E-02	1.161903E-06
4.089505E+03	1.929285E-02	1.152149E-06
4.090963E+03	1.911800E-02	1.141707E-06
4.092421E+03	1.899221E-02	1.134195E-06
4.093880E+03	1.888859E-02	1.128007E-06
4.095338E+03	1.873253E-02	1.118687E-06
4.096796E+03	1.852189E-02	1.106108E-06
4.098254E+03	1.835219E-02	1.095973E-06
4.099712E+03	1.825284E-02	1.090041E-06
4.101171E+03	1.811557E-02	1.081843E-06
4.102629E+03	1.799278E-02	1.074510E-06
4.104087E+03	1.782823E-02	1.064683E-06
4.105545E+03	1.776684E-02	1.061017E-06
4.107003E+03	1.772505E-02	1.058521E-06
4.108461E+03	1.765299E-02	1.054218E-06
4.109920E+03	1.758861E-02	1.050373E-06
4.111378E+03	1.752762E-02	1.046731E-06
4.112836E+03	1.744449E-02	1.041767E-06
4.114294E+03	1.733877E-02	1.035453E-06
4.115752E+03	1.722325E-02	1.028554E-06
4.117211E+03	1.713712E-02	1.023411E-06
4.118669E+03	1.700500E-02	1.015521E-06
4.120127E+03	1.692528E-02	1.010760E-06
4.121585E+03	1.684513E-02	1.005973E-06
4.123043E+03	1.678159E-02	1.002179E-06
4.124502E+03	1.675853E-02	1.000802E-06
4.125960E+03	1.673034E-02	9.991181E-07
4.127418E+03	1.665444E-02	9.945858E-07
4.128876E+03	1.651169E-02	9.860608E-07
4.130334E+03	1.643324E-02	9.813758E-07
4.131792E+03	1.637737E-02	9.780393E-07
4.133251E+03	1.627934E-02	9.721850E-07
4.134709E+03	1.617407E-02	9.658984E-07
4.136167E+03	1.609903E-02	9.614174E-07
4.137625E+03	1.602188E-02	9.568097E-07
4.139083E+03	1.594344E-02	9.521253E-07
4.140542E+03	1.590502E-02	9.498308E-07
4.142000E+03	1.587043E-02	9.477654E-07
4.143458E+03	1.588010E-02	9.483429E-07
4.144916E+03	1.590764E-02	9.499874E-07
4.146374E+03	1.589899E-02	9.494709E-07
4.147833E+03	1.585245E-02	9.466917E-07
4.149291E+03	1.578805E-02	9.428454E-07
4.150749E+03	1.575981E-02	9.411594E-07
4.152207E+03	1.576603E-02	9.415303E-07
4.153665E+03	1.573948E-02	9.399449E-07
4.155123E+03	1.570060E-02	9.376230E-07
4.156582E+03	1.566723E-02	9.356302E-07
4.158040E+03	1.564365E-02	9.342223E-07
4.159498E+03	1.565621E-02	9.349724E-07
4.160956E+03	1.567345E-02	9.360018E-07
4.162414E+03	1.566728E-02	9.356332E-07
4.163873E+03	1.562411E-02	9.330549E-07
4.165331E+03	1.560815E-02	9.321018E-07
4.166789E+03	1.564193E-02	9.341192E-07
4.168247E+03	1.568462E-02	9.366690E-07
4.169705E+03	1.566184E-02	9.353086E-07
4.171164E+03	1.563394E-02	9.336423E-07
4.172622E+03	1.561752E-02	9.326618E-07
4.174080E+03	1.563510E-02	9.337112E-07
4.175538E+03	1.568623E-02	9.367650E-07
4.176996E+03	1.573566E-02	9.397167E-07
4.178455E+03	1.574214E-02	9.401039E-07
4.179913E+03	1.575755E-02	9.410242E-07
4.181371E+03	1.577379E-02	9.419938E-07
4.182829E+03	1.578067E-02	9.424046E-07
4.184287E+03	1.584234E-02	9.460878E-07
4.185745E+03	1.594139E-02	9.520024E-07
