#wls	flux	fluxerr
1.587144E+03	9.421618E-04	3.466427E-05
1.626823E+03	9.400420E-04	3.443630E-05
1.666501E+03	9.383726E-04	3.422186E-05
1.706180E+03	9.366195E-04	3.400129E-05
1.745859E+03	9.353083E-04	3.379360E-05
1.785537E+03	9.344345E-04	3.359832E-05
1.825216E+03	9.338178E-04	3.340874E-05
1.864894E+03	9.336295E-04	3.323076E-05
1.904573E+03	9.340399E-04	3.307012E-05
1.944252E+03	9.350440E-04	3.292621E-05
1.983930E+03	9.368105E-04	3.280456E-05
2.023609E+03	9.393338E-04	3.270441E-05
2.063287E+03	9.426083E-04	3.262503E-05
2.102966E+03	9.469750E-04	3.257758E-05
2.142645E+03	9.522545E-04	3.255513E-05
2.182323E+03	9.586144E-04	3.256264E-05
2.222002E+03	9.658784E-04	3.259331E-05
2.261680E+03	9.743866E-04	3.265776E-05
2.301359E+03	9.837950E-04	3.274352E-05
2.341038E+03	9.942758E-04	3.285546E-05
2.380716E+03	1.005832E-03	3.299271E-05
2.420395E+03	1.018302E-03	3.314897E-05
2.460073E+03	1.031865E-03	3.332915E-05
2.499752E+03	1.046369E-03	3.352724E-05
2.539431E+03	1.061833E-03	3.374290E-05
2.579109E+03	1.078283E-03	3.397592E-05
2.618788E+03	1.095752E-03	3.422619E-05
2.658466E+03	1.114279E-03	3.449377E-05
2.698145E+03	1.133906E-03	3.477879E-05
2.737824E+03	1.154685E-03	3.508153E-05
2.777502E+03	1.176510E-03	3.539746E-05
2.817181E+03	1.199610E-03	3.573207E-05
2.856859E+03	1.223724E-03	3.607620E-05
2.896538E+03	1.249256E-03	3.644027E-05
2.936217E+03	1.276441E-03	3.682937E-05
2.975895E+03	1.305516E-03	3.724830E-05
2.985815E+03	1.313007E-03	3.735533E-05
2.995735E+03	1.320866E-03	3.747118E-05
3.005654E+03	1.328768E-03	3.758650E-05
3.015574E+03	1.336877E-03	3.770593E-05
3.025494E+03	1.345194E-03	3.782945E-05
3.035413E+03	1.353556E-03	3.795239E-05
3.045333E+03	1.362292E-03	3.808399E-05
3.055252E+03	1.371076E-03	3.821500E-05
3.065172E+03	1.380234E-03	3.835451E-05
3.075092E+03	1.389606E-03	3.849792E-05
3.085011E+03	1.399025E-03	3.864065E-05
3.094931E+03	1.408824E-03	3.879175E-05
3.104851E+03	1.418837E-03	3.894663E-05
3.114770E+03	1.429230E-03	3.910974E-05
3.124690E+03	1.439839E-03	3.927653E-05
3.134610E+03	1.450665E-03	3.944691E-05
3.144529E+03	1.461873E-03	3.962532E-05
3.154449E+03	1.473300E-03	3.980726E-05
3.164369E+03	1.485278E-03	4.000157E-05
3.174288E+03	1.497476E-03	4.019924E-05
3.184208E+03	1.510062E-03	4.040469E-05
3.194128E+03	1.523038E-03	4.061785E-05
3.204047E+03	1.536404E-03	4.083864E-05
3.213967E+03	1.550166E-03	4.106707E-05
3.223887E+03	1.564324E-03	4.130305E-05
3.233806E+03	1.579048E-03	4.155091E-05
3.243726E+03	1.594345E-03	4.181068E-05
3.253645E+03	1.610051E-03	4.207794E-05
3.263565E+03	1.626341E-03	4.235708E-05
3.273485E+03	1.643222E-03	4.264814E-05
3.283404E+03	1.660701E-03	4.295114E-05
3.293324E+03	1.678791E-03	4.326620E-05
3.303244E+03	1.697670E-03	4.359775E-05
3.313163E+03	1.717187E-03	4.394167E-05
3.323083E+03	1.737527E-03	4.430249E-05
3.333003E+03	1.758708E-03	4.468045E-05
3.342922E+03	1.780587E-03	4.507168E-05
3.352842E+03	1.803526E-03	4.548508E-05
3.362762E+03	1.827389E-03	4.591695E-05
3.372681E+03	1.852378E-03	4.637205E-05
3.382601E+03	1.878535E-03	4.685112E-05
3.392521E+03	1.905736E-03	4.735070E-05
3.402440E+03	1.934369E-03	4.788013E-05
3.412360E+03	1.964152E-03	4.843199E-05
3.422280E+03	1.995488E-03	4.901587E-05
3.432199E+03	2.028446E-03	4.963296E-05
3.442119E+03	2.063100E-03	5.028463E-05
3.452038E+03	2.099530E-03	5.097229E-05
3.461958E+03	2.137822E-03	5.169750E-05
3.471878E+03	2.178238E-03	5.246600E-05
3.481797E+03	2.220695E-03	5.327519E-05
3.491717E+03	2.265462E-03	5.413087E-05
3.501637E+03	2.312628E-03	5.503448E-05
3.511556E+03	2.362282E-03	5.598737E-05
3.521476E+03	2.414501E-03	5.699067E-05
3.531396E+03	2.469531E-03	5.804935E-05
3.541315E+03	2.527421E-03	5.916373E-05
3.551235E+03	2.588201E-03	6.033362E-05
3.561155E+03	2.651686E-03	6.155386E-05
3.571074E+03	2.718261E-03	6.283256E-05
3.580994E+03	2.787860E-03	6.416722E-05
3.590914E+03	2.860777E-03	6.556366E-05
3.600833E+03	2.936918E-03	6.701875E-05
3.610753E+03	3.016544E-03	6.853743E-05
3.620673E+03	3.099720E-03	7.012010E-05
3.630592E+03	3.186316E-03	7.176272E-05
3.640512E+03	3.276770E-03	7.347411E-05
3.650432E+03	3.370958E-03	7.525029E-05
3.660351E+03	3.468955E-03	7.709179E-05
3.670271E+03	3.570858E-03	7.899960E-05
3.680190E+03	3.676995E-03	8.097970E-05
3.690110E+03	3.787328E-03	8.302998E-05
3.700030E+03	3.902065E-03	8.515370E-05
3.709949E+03	4.021877E-03	8.736406E-05
3.719869E+03	4.146464E-03	8.965299E-05
3.729789E+03	4.276830E-03	9.204068E-05
3.739708E+03	4.412787E-03	9.452128E-05
3.749628E+03	4.555481E-03	9.711753E-05
3.759548E+03	4.705050E-03	9.983027E-05
3.769467E+03	4.862107E-03	1.026703E-04
3.779387E+03	5.027752E-03	1.056586E-04
3.789307E+03	5.201995E-03	1.087925E-04
3.799226E+03	5.386197E-03	1.120979E-04
3.809146E+03	5.580330E-03	1.155711E-04
3.819066E+03	5.785702E-03	1.192360E-04
3.828985E+03	6.002120E-03	1.230852E-04
3.838905E+03	6.230458E-03	1.271332E-04
3.848825E+03	6.470696E-03	1.313759E-04
3.858744E+03	6.722843E-03	1.358098E-04
3.868664E+03	6.986378E-03	1.404210E-04
3.878583E+03	7.261253E-03	1.452049E-04
3.888503E+03	7.546290E-03	1.501347E-04
3.898423E+03	7.839895E-03	1.551757E-04
3.908342E+03	8.140307E-03	1.602907E-04
3.918262E+03	8.445603E-03	1.654400E-04
3.928182E+03	8.752858E-03	1.705652E-04
3.938101E+03	9.058988E-03	1.756060E-04
3.948021E+03	9.360236E-03	1.804904E-04
3.957941E+03	9.653424E-03	1.851589E-04
3.967860E+03	9.933676E-03	1.895213E-04
3.977780E+03	1.019753E-02	1.935160E-04
3.987700E+03	1.044072E-02	1.970672E-04
3.997619E+03	1.065919E-02	2.001058E-04
4.007539E+03	1.084999E-02	2.025840E-04
4.017459E+03	1.101015E-02	2.044556E-04
4.027378E+03	1.113820E-02	2.057026E-04
4.037298E+03	1.123271E-02	2.063091E-04
4.047218E+03	1.129403E-02	2.062914E-04
4.057137E+03	1.132397E-02	2.056929E-04
4.067057E+03	1.132491E-02	2.045661E-04
4.076976E+03	1.130057E-02	2.029870E-04
4.086896E+03	1.125528E-02	2.010405E-04
4.096816E+03	1.119453E-02	1.988305E-04
4.106735E+03	1.112333E-02	1.964504E-04
4.116655E+03	1.104760E-02	1.940075E-04
4.126575E+03	1.097257E-02	1.915944E-04
4.136494E+03	1.090364E-02	1.893048E-04
4.146414E+03	1.084498E-02	1.872090E-04
4.156334E+03	1.080094E-02	1.853786E-04
4.166253E+03	1.077475E-02	1.838645E-04
4.176173E+03	1.076923E-02	1.827094E-04
4.186093E+03	1.078648E-02	1.819430E-04
4.196012E+03	1.082772E-02	1.815790E-04
4.205932E+03	1.089368E-02	1.816227E-04
4.215852E+03	1.098438E-02	1.820677E-04
4.225771E+03	1.109915E-02	1.828958E-04
4.235691E+03	1.123637E-02	1.840738E-04
4.245611E+03	1.139370E-02	1.855575E-04
4.255530E+03	1.156872E-02	1.873024E-04
4.265450E+03	1.175742E-02	1.892391E-04
4.275370E+03	1.195530E-02	1.912924E-04
4.285289E+03	1.215789E-02	1.933891E-04
4.295209E+03	1.235939E-02	1.954363E-04
4.305128E+03	1.255427E-02	1.973483E-04
4.315048E+03	1.273634E-02	1.990307E-04
4.324968E+03	1.290039E-02	2.004064E-04
4.334887E+03	1.304162E-02	2.014071E-04
4.344807E+03	1.315610E-02	2.019791E-04
4.354727E+03	1.324161E-02	2.020960E-04
4.364646E+03	1.329994E-02	2.017938E-04
4.374566E+03	1.333663E-02	2.011632E-04
4.384486E+03	1.335901E-02	2.003206E-04
4.394405E+03	1.337514E-02	1.993901E-04
4.404325E+03	1.339321E-02	1.984952E-04
4.414245E+03	1.342164E-02	1.977596E-04
4.424164E+03	1.346847E-02	1.972987E-04
4.434084E+03	1.354022E-02	1.972034E-04
4.444004E+03	1.364271E-02	1.975518E-04
4.453923E+03	1.378053E-02	1.984025E-04
4.463843E+03	1.395638E-02	1.997859E-04
4.473763E+03	1.417138E-02	2.017088E-04
4.483682E+03	1.442519E-02	2.041574E-04
4.493602E+03	1.471582E-02	2.070947E-04
4.503521E+03	1.503957E-02	2.104612E-04
4.513441E+03	1.539078E-02	2.141707E-04
4.523361E+03	1.576260E-02	2.181228E-04
4.533280E+03	1.614611E-02	2.221911E-04
4.543200E+03	1.653108E-02	2.262336E-04
4.553120E+03	1.690669E-02	2.301038E-04
4.563039E+03	1.726138E-02	2.336483E-04
4.572959E+03	1.758358E-02	2.367168E-04
4.582879E+03	1.786279E-02	2.391767E-04
4.592798E+03	1.809009E-02	2.409191E-04
4.602718E+03	1.825952E-02	2.418772E-04
4.612638E+03	1.836812E-02	2.420244E-04
4.622557E+03	1.841622E-02	2.413787E-04
4.632477E+03	1.840802E-02	2.400072E-04
4.642397E+03	1.835108E-02	2.380197E-04
4.652316E+03	1.825552E-02	2.355567E-04
4.662236E+03	1.813325E-02	2.327787E-04
4.672156E+03	1.799657E-02	2.298478E-04
4.682075E+03	1.785787E-02	2.269241E-04
4.691995E+03	1.772667E-02	2.241281E-04
4.701914E+03	1.760878E-02	2.215311E-04
4.711834E+03	1.750729E-02	2.191691E-04
4.721754E+03	1.742347E-02	2.170549E-04
4.731673E+03	1.735692E-02	2.151799E-04
4.741593E+03	1.730568E-02	2.135170E-04
4.751513E+03	1.726761E-02	2.120370E-04
4.761432E+03	1.724046E-02	2.107102E-04
4.771352E+03	1.722207E-02	2.095084E-04
4.781272E+03	1.721182E-02	2.084227E-04
4.791191E+03	1.720950E-02	2.074495E-04
4.801111E+03	1.721700E-02	2.066100E-04
4.811031E+03	1.723696E-02	2.059346E-04
4.820950E+03	1.727277E-02	2.054616E-04
4.830870E+03	1.732868E-02	2.052392E-04
4.840790E+03	1.740888E-02	2.053139E-04
4.850709E+03	1.751730E-02	2.057280E-04
4.860629E+03	1.765729E-02	2.065168E-04
4.870549E+03	1.783155E-02	2.077071E-04
4.880468E+03	1.804139E-02	2.093096E-04
4.890388E+03	1.828670E-02	2.113182E-04
4.900308E+03	1.856557E-02	2.137066E-04
4.910227E+03	1.887417E-02	2.164269E-04
4.920147E+03	1.920597E-02	2.194009E-04
4.930066E+03	1.955168E-02	2.225207E-04
4.939986E+03	1.989955E-02	2.256516E-04
4.949906E+03	2.023486E-02	2.286281E-04
4.959825E+03	2.054167E-02	2.312725E-04
4.969745E+03	2.080351E-02	2.334041E-04
4.979665E+03	2.100421E-02	2.348479E-04
4.989584E+03	2.113166E-02	2.354761E-04
4.999504E+03	2.117717E-02	2.352009E-04
5.009424E+03	2.113878E-02	2.340093E-04
5.019343E+03	2.102095E-02	2.319595E-04
5.029263E+03	2.083381E-02	2.291711E-04
5.039183E+03	2.059249E-02	2.258165E-04
5.049102E+03	2.031516E-02	2.220994E-04
5.059022E+03	2.002067E-02	2.182281E-04
5.068942E+03	1.972682E-02	2.143970E-04
5.078861E+03	1.944904E-02	2.107724E-04
5.088781E+03	1.919971E-02	2.074863E-04
5.098701E+03	1.898719E-02	2.046254E-04
5.108620E+03	1.881754E-02	2.022509E-04
5.118540E+03	1.869286E-02	2.003815E-04
5.128459E+03	1.861417E-02	1.990240E-04
5.138379E+03	1.858078E-02	1.981668E-04
5.148299E+03	1.859125E-02	1.977910E-04
5.158218E+03	1.864380E-02	1.978743E-04
5.168138E+03	1.873728E-02	1.984014E-04
5.178058E+03	1.887081E-02	1.993603E-04
5.187977E+03	1.904384E-02	2.007425E-04
5.197897E+03	1.925688E-02	2.025511E-04
5.207817E+03	1.951000E-02	2.047847E-04
5.217736E+03	1.980307E-02	2.074396E-04
5.227656E+03	2.013592E-02	2.105125E-04
5.237576E+03	2.050630E-02	2.139784E-04
5.247495E+03	2.091085E-02	2.178006E-04
5.257415E+03	2.134400E-02	2.219205E-04
5.267335E+03	2.179695E-02	2.262463E-04
5.277254E+03	2.225884E-02	2.306654E-04
5.287174E+03	2.271599E-02	2.350371E-04
5.297094E+03	2.315281E-02	2.392018E-04
5.307013E+03	2.355162E-02	2.429792E-04
5.316933E+03	2.389524E-02	2.461950E-04
5.326852E+03	2.416739E-02	2.486850E-04
5.336772E+03	2.435451E-02	2.503135E-04
5.346692E+03	2.444726E-02	2.509883E-04
5.356611E+03	2.444168E-02	2.506724E-04
5.366531E+03	2.433988E-02	2.493899E-04
5.376451E+03	2.415140E-02	2.472405E-04
5.386370E+03	2.389144E-02	2.443807E-04
5.396290E+03	2.358226E-02	2.410385E-04
5.406210E+03	2.325009E-02	2.374815E-04
5.416129E+03	2.292556E-02	2.340215E-04
5.426049E+03	2.264006E-02	2.309773E-04
5.435969E+03	2.242577E-02	2.286752E-04
5.445888E+03	2.231362E-02	2.274282E-04
5.455808E+03	2.232006E-02	2.274017E-04
5.465728E+03	2.242141E-02	2.283523E-04
5.475647E+03	2.258581E-02	2.299542E-04
5.485567E+03	2.277919E-02	2.318596E-04
5.495487E+03	2.296557E-02	2.337015E-04
5.505406E+03	2.311053E-02	2.351296E-04
5.515326E+03	2.318349E-02	2.358324E-04
5.525246E+03	2.316027E-02	2.355640E-04
5.535165E+03	2.302525E-02	2.341652E-04
5.545085E+03	2.277383E-02	2.315890E-04
5.555004E+03	2.241068E-02	2.278825E-04
5.564924E+03	2.194826E-02	2.231717E-04
5.574844E+03	2.140463E-02	2.176397E-04
5.584763E+03	2.080053E-02	2.114965E-04
5.594683E+03	2.015630E-02	2.049485E-04
5.604603E+03	1.949071E-02	1.981856E-04
5.614522E+03	1.882007E-02	1.913732E-04
5.624442E+03	1.815751E-02	1.846441E-04
5.634362E+03	1.751409E-02	1.781104E-04
5.644281E+03	1.689949E-02	1.718702E-04
5.654201E+03	1.632232E-02	1.660107E-04
5.664121E+03	1.579103E-02	1.606176E-04
5.674040E+03	1.531478E-02	1.557840E-04
5.683960E+03	1.490250E-02	1.516006E-04
5.693880E+03	1.456345E-02	1.481614E-04
5.703799E+03	1.430680E-02	1.455600E-04
5.713719E+03	1.414133E-02	1.438856E-04
5.723639E+03	1.407576E-02	1.432269E-04
5.733558E+03	1.411743E-02	1.436589E-04
5.743478E+03	1.427369E-02	1.452563E-04
5.753397E+03	1.454993E-02	1.480742E-04
5.763317E+03	1.495081E-02	1.521599E-04
5.773237E+03	1.547855E-02	1.575361E-04
5.783156E+03	1.613298E-02	1.642010E-04
5.793076E+03	1.691064E-02	1.721193E-04
5.802996E+03	1.780410E-02	1.812153E-04
5.812915E+03	1.880126E-02	1.913657E-04
5.822835E+03	1.988539E-02	2.024000E-04
5.832755E+03	2.103442E-02	2.140934E-04
5.842674E+03	2.222178E-02	2.261752E-04
5.852594E+03	2.341729E-02	2.383380E-04
5.862514E+03	2.458773E-02	2.502438E-04
5.872433E+03	2.569987E-02	2.615540E-04
5.882353E+03	2.672241E-02	2.719504E-04
5.892273E+03	2.762781E-02	2.811527E-04
5.902192E+03	2.839375E-02	2.889340E-04
5.912112E+03	2.900573E-02	2.951473E-04
5.922032E+03	2.945659E-02	2.997200E-04
5.931951E+03	2.974607E-02	3.026500E-04
5.941871E+03	2.988062E-02	3.040037E-04
5.951790E+03	2.987190E-02	3.038999E-04
5.961710E+03	2.973530E-02	3.024961E-04
5.971630E+03	2.948841E-02	2.999715E-04
5.981549E+03	2.915053E-02	2.965232E-04
5.991469E+03	2.874055E-02	2.923437E-04
6.001389E+03	2.827661E-02	2.876179E-04
6.011308E+03	2.777598E-02	2.825218E-04
6.021228E+03	2.725374E-02	2.772091E-04
6.031148E+03	2.672227E-02	2.718060E-04
6.041067E+03	2.619131E-02	2.664120E-04
6.050987E+03	2.566838E-02	2.611035E-04
6.060907E+03	2.515715E-02	2.559183E-04
6.070826E+03	2.465826E-02	2.508629E-04
6.080746E+03	2.416998E-02	2.459201E-04
6.090666E+03	2.368822E-02	2.410484E-04
6.100585E+03	2.320682E-02	2.361852E-04
6.110505E+03	2.271948E-02	2.312665E-04
6.120425E+03	2.222069E-02	2.262362E-04
6.130344E+03	2.170565E-02	2.210453E-04
6.140264E+03	2.117201E-02	2.156698E-04
6.150184E+03	2.061992E-02	2.101109E-04
6.160103E+03	2.005377E-02	2.044129E-04
6.170023E+03	1.947851E-02	1.986261E-04
6.179942E+03	1.889976E-02	1.928073E-04
6.189862E+03	1.832277E-02	1.870097E-04
6.199782E+03	1.775239E-02	1.812825E-04
6.209701E+03	1.719336E-02	1.756737E-04
6.219621E+03	1.665065E-02	1.702338E-04
6.229541E+03	1.613056E-02	1.650266E-04
6.239460E+03	1.564049E-02	1.601270E-04
6.249380E+03	1.518890E-02	1.556213E-04
6.259300E+03	1.478516E-02	1.516053E-04
6.269219E+03	1.443901E-02	1.481792E-04
6.279139E+03	1.416016E-02	1.454436E-04
6.289059E+03	1.395762E-02	1.434922E-04
6.298978E+03	1.383907E-02	1.424053E-04
6.308898E+03	1.381119E-02	1.422538E-04
6.318818E+03	1.387867E-02	1.430883E-04
6.328737E+03	1.404484E-02	1.449455E-04
6.338657E+03	1.431071E-02	1.478390E-04
6.348577E+03	1.467480E-02	1.517559E-04
6.358496E+03	1.513322E-02	1.566591E-04
6.368416E+03	1.567859E-02	1.624749E-04
6.378335E+03	1.630008E-02	1.690934E-04
6.388255E+03	1.698262E-02	1.763605E-04
6.398175E+03	1.770854E-02	1.840940E-04
6.408094E+03	1.845736E-02	1.920820E-04
6.418014E+03	1.920684E-02	2.000930E-04
6.427934E+03	1.993617E-02	2.079094E-04
6.437853E+03	2.062580E-02	2.153260E-04
6.447773E+03	2.126047E-02	2.221815E-04
6.457693E+03	2.183013E-02	2.283681E-04
6.467612E+03	2.232995E-02	2.338326E-04
6.477532E+03	2.276139E-02	2.385876E-04
6.487452E+03	2.313073E-02	2.426960E-04
6.497371E+03	2.344893E-02	2.462703E-04
6.507291E+03	2.372868E-02	2.494421E-04
6.517211E+03	2.398483E-02	2.523655E-04
6.527130E+03	2.423102E-02	2.551832E-04
6.537050E+03	2.448001E-02	2.580287E-04
6.546970E+03	2.474101E-02	2.609986E-04
6.556889E+03	2.502122E-02	2.641689E-04
6.566809E+03	2.532385E-02	2.675734E-04
6.576728E+03	2.564963E-02	2.712195E-04
6.586648E+03	2.599588E-02	2.750791E-04
6.596568E+03	2.635813E-02	2.791044E-04
6.606487E+03	2.672991E-02	2.832269E-04
6.616407E+03	2.710269E-02	2.873555E-04
6.626327E+03	2.746720E-02	2.913914E-04
6.636246E+03	2.781394E-02	2.952328E-04
6.646166E+03	2.813307E-02	2.987745E-04
6.656086E+03	2.841516E-02	3.019153E-04
6.666005E+03	2.865171E-02	3.045638E-04
6.675925E+03	2.883548E-02	3.066420E-04
6.685845E+03	2.896122E-02	3.080930E-04
6.695764E+03	2.902477E-02	3.088717E-04
6.705684E+03	2.902454E-02	3.089603E-04
6.715604E+03	2.896043E-02	3.083574E-04
6.725523E+03	2.883403E-02	3.070793E-04
6.735443E+03	2.864807E-02	3.051549E-04
6.745363E+03	2.840756E-02	3.026375E-04
6.755282E+03	2.811752E-02	2.995807E-04
6.765202E+03	2.778417E-02	2.960511E-04
6.775122E+03	2.741472E-02	2.921260E-04
6.785041E+03	2.701630E-02	2.878820E-04
6.794961E+03	2.659680E-02	2.834037E-04
6.804880E+03	2.616472E-02	2.787824E-04
6.814800E+03	2.572812E-02	2.741048E-04
6.824720E+03	2.529579E-02	2.694652E-04
6.834639E+03	2.487582E-02	2.649505E-04
6.844559E+03	2.447671E-02	2.606517E-04
6.854479E+03	2.410624E-02	2.566526E-04
6.864398E+03	2.377133E-02	2.530270E-04
6.874318E+03	2.347865E-02	2.498464E-04
6.884238E+03	2.323324E-02	2.471649E-04
6.894157E+03	2.303947E-02	2.450288E-04
6.904077E+03	2.289995E-02	2.434662E-04
6.913997E+03	2.281545E-02	2.424852E-04
6.923916E+03	2.278531E-02	2.420788E-04
6.933836E+03	2.280749E-02	2.422251E-04
6.943756E+03	2.287773E-02	2.428789E-04
6.953675E+03	2.299083E-02	2.439851E-04
6.963595E+03	2.313974E-02	2.454689E-04
6.973515E+03	2.331640E-02	2.472449E-04
6.983434E+03	2.351288E-02	2.492296E-04
6.993354E+03	2.372005E-02	2.513266E-04
7.003273E+03	2.392881E-02	2.534400E-04
7.013193E+03	2.413124E-02	2.554870E-04
7.023113E+03	2.431867E-02	2.573767E-04
7.033032E+03	2.448486E-02	2.590442E-04
7.042952E+03	2.462417E-02	2.604311E-04
7.052872E+03	2.473174E-02	2.614871E-04
7.062791E+03	2.480510E-02	2.621876E-04
7.072711E+03	2.484298E-02	2.625206E-04
7.082631E+03	2.484558E-02	2.624894E-04
7.092550E+03	2.481408E-02	2.621078E-04
7.102470E+03	2.475072E-02	2.614008E-04
7.112390E+03	2.465945E-02	2.604110E-04
7.122309E+03	2.454348E-02	2.591735E-04
7.132229E+03	2.440701E-02	2.577337E-04
7.142149E+03	2.425323E-02	2.561261E-04
7.152068E+03	2.408586E-02	2.543907E-04
7.161988E+03	2.390768E-02	2.525578E-04
7.171908E+03	2.372027E-02	2.506448E-04
7.181827E+03	2.352560E-02	2.486731E-04
7.191747E+03	2.332376E-02	2.466444E-04
7.201667E+03	2.311472E-02	2.445589E-04
7.211586E+03	2.289758E-02	2.424076E-04
7.221506E+03	2.267150E-02	2.401820E-04
7.231425E+03	2.243474E-02	2.378639E-04
7.241345E+03	2.218565E-02	2.354360E-04
7.251265E+03	2.192203E-02	2.328748E-04
7.261184E+03	2.164300E-02	2.301709E-04
7.271104E+03	2.134696E-02	2.273067E-04
7.281024E+03	2.103318E-02	2.242739E-04
7.290943E+03	2.070238E-02	2.210792E-04
7.300863E+03	2.035502E-02	2.177263E-04
7.310783E+03	1.999262E-02	2.142304E-04
7.320702E+03	1.961795E-02	2.106197E-04
7.330622E+03	1.923390E-02	2.069237E-04
7.340542E+03	1.884426E-02	2.031819E-04
7.350461E+03	1.845239E-02	1.994293E-04
7.360381E+03	1.806236E-02	1.957086E-04
7.370301E+03	1.767785E-02	1.920590E-04
7.380220E+03	1.730221E-02	1.885161E-04
7.390140E+03	1.693813E-02	1.851088E-04
7.400060E+03	1.658838E-02	1.818673E-04
7.409979E+03	1.625418E-02	1.788055E-04
7.419899E+03	1.593670E-02	1.759364E-04
7.429818E+03	1.563602E-02	1.732619E-04
7.439738E+03	1.535159E-02	1.707766E-04
7.449658E+03	1.508163E-02	1.684613E-04
7.459577E+03	1.482545E-02	1.663083E-04
7.469497E+03	1.458322E-02	1.643192E-04
7.479417E+03	1.435509E-02	1.624960E-04
7.489336E+03	1.414041E-02	1.608311E-04
7.499256E+03	1.393807E-02	1.593127E-04
7.509176E+03	1.374736E-02	1.579325E-04
7.519095E+03	1.356769E-02	1.566843E-04
7.529015E+03	1.339837E-02	1.555605E-04
7.538935E+03	1.323960E-02	1.545637E-04
7.548854E+03	1.309118E-02	1.536922E-04
7.558774E+03	1.295374E-02	1.529542E-04
7.568694E+03	1.282817E-02	1.523612E-04
7.578613E+03	1.271534E-02	1.519248E-04
7.588533E+03	1.261606E-02	1.516564E-04
7.598453E+03	1.253160E-02	1.515734E-04
7.608372E+03	1.246254E-02	1.516851E-04
7.618292E+03	1.240995E-02	1.520072E-04
7.628211E+03	1.237419E-02	1.525474E-04
7.638131E+03	1.235556E-02	1.533126E-04
7.648051E+03	1.235419E-02	1.543079E-04
7.657970E+03	1.236959E-02	1.555312E-04
7.667890E+03	1.240126E-02	1.569795E-04
7.677810E+03	1.244809E-02	1.586427E-04
7.687729E+03	1.250895E-02	1.605098E-04
7.697649E+03	1.258215E-02	1.625623E-04
