#wls	flux	fluxerr
1.587144E+03	6.405378E-04	1.653085E-05
1.626823E+03	6.404439E-04	1.650915E-05
1.666501E+03	6.405800E-04	1.649289E-05
1.706180E+03	6.408236E-04	1.647888E-05
1.745859E+03	6.414210E-04	1.647343E-05
1.785537E+03	6.422502E-04	1.647336E-05
1.825216E+03	6.433120E-04	1.647867E-05
1.864894E+03	6.446077E-04	1.648933E-05
1.904573E+03	6.463839E-04	1.651163E-05
1.944252E+03	6.483971E-04	1.653927E-05
1.983930E+03	6.508944E-04	1.657851E-05
2.023609E+03	6.536335E-04	1.662311E-05
2.063287E+03	6.569845E-04	1.668244E-05
2.102966E+03	6.607059E-04	1.675026E-05
2.142645E+03	6.649243E-04	1.682973E-05
2.182323E+03	6.697663E-04	1.692395E-05
2.222002E+03	6.751155E-04	1.702989E-05
2.261680E+03	6.812218E-04	1.715375E-05
2.301359E+03	6.878489E-04	1.728945E-05
2.341038E+03	6.952489E-04	1.744322E-05
2.380716E+03	7.035530E-04	1.761820E-05
2.420395E+03	7.125288E-04	1.780842E-05
2.460073E+03	7.225541E-04	1.802317E-05
2.499752E+03	7.335215E-04	1.825957E-05
2.539431E+03	7.455691E-04	1.852087E-05
2.579109E+03	7.588379E-04	1.881033E-05
2.618788E+03	7.733492E-04	1.912824E-05
2.658466E+03	7.892500E-04	1.947797E-05
2.698145E+03	8.068132E-04	1.986594E-05
2.737824E+03	8.260730E-04	2.029264E-05
2.777502E+03	8.471915E-04	2.076166E-05
2.817181E+03	8.704608E-04	2.127975E-05
2.856859E+03	8.961838E-04	2.185380E-05
2.896538E+03	9.244306E-04	2.248497E-05
2.936217E+03	9.557792E-04	2.318670E-05
2.975895E+03	9.903373E-04	2.396087E-05
2.985815E+03	9.995202E-04	2.416666E-05
2.995735E+03	1.009000E-03	2.437924E-05
3.005654E+03	1.018778E-03	2.459864E-05
3.015574E+03	1.028734E-03	2.482193E-05
3.025494E+03	1.038995E-03	2.505215E-05
3.035413E+03	1.049564E-03	2.528937E-05
3.045333E+03	1.060319E-03	2.553065E-05
3.055252E+03	1.071514E-03	2.578205E-05
3.065172E+03	1.082903E-03	2.603764E-05
3.075092E+03	1.094614E-03	2.630051E-05
3.085011E+03	1.106651E-03	2.657073E-05
3.094931E+03	1.119019E-03	2.684839E-05
3.104851E+03	1.131848E-03	2.713658E-05
3.114770E+03	1.144893E-03	2.742940E-05
3.124690E+03	1.158409E-03	2.773296E-05
3.134610E+03	1.172277E-03	2.804437E-05
3.144529E+03	1.186502E-03	2.836374E-05
3.154449E+03	1.201216E-03	2.869422E-05
3.164369E+03	1.216428E-03	2.903595E-05
3.174288E+03	1.231891E-03	2.938302E-05
3.184208E+03	1.247992E-03	2.974465E-05
3.194128E+03	1.264486E-03	3.011496E-05
3.204047E+03	1.281508E-03	3.049714E-05
3.213967E+03	1.299067E-03	3.089138E-05
3.223887E+03	1.317043E-03	3.129480E-05
3.233806E+03	1.335705E-03	3.171373E-05
3.243726E+03	1.354934E-03	3.214533E-05
3.253645E+03	1.374612E-03	3.258674E-05
3.263565E+03	1.395137E-03	3.304738E-05
3.273485E+03	1.416134E-03	3.351833E-05
3.283404E+03	1.437873E-03	3.400594E-05
3.293324E+03	1.460238E-03	3.450740E-05
3.303244E+03	1.483374E-03	3.502612E-05
3.313163E+03	1.507296E-03	3.556237E-05
3.323083E+03	1.531885E-03	3.611336E-05
3.333003E+03	1.557291E-03	3.668250E-05
3.342922E+03	1.583661E-03	3.727324E-05
3.352842E+03	1.610746E-03	3.787967E-05
3.362762E+03	1.638696E-03	3.850525E-05
3.372681E+03	1.667663E-03	3.915351E-05
3.382601E+03	1.697667E-03	3.982482E-05
3.392521E+03	1.728458E-03	4.051329E-05
3.402440E+03	1.760457E-03	4.122870E-05
3.412360E+03	1.793416E-03	4.196520E-05
3.422280E+03	1.827493E-03	4.272638E-05
3.432199E+03	1.862707E-03	4.351262E-05
3.442119E+03	1.899079E-03	4.432435E-05
3.452038E+03	1.936769E-03	4.516525E-05
3.461958E+03	1.975666E-03	4.603257E-05
3.471878E+03	2.015788E-03	4.692670E-05
3.481797E+03	2.057299E-03	4.785138E-05
3.491717E+03	2.100082E-03	4.880379E-05
3.501637E+03	2.144445E-03	4.979096E-05
3.511556E+03	2.190270E-03	5.081008E-05
3.521476E+03	2.237584E-03	5.186166E-05
3.531396E+03	2.286409E-03	5.294615E-05
3.541315E+03	2.336918E-03	5.406738E-05
3.551235E+03	2.388987E-03	5.522242E-05
3.561155E+03	2.442791E-03	5.641519E-05
3.571074E+03	2.498352E-03	5.764609E-05
3.580994E+03	2.555698E-03	5.891561E-05
3.590914E+03	2.614851E-03	6.022417E-05
3.600833E+03	2.675988E-03	6.157567E-05
3.610753E+03	2.738981E-03	6.296708E-05
3.620673E+03	2.804001E-03	6.440218E-05
3.630592E+03	2.870920E-03	6.587789E-05
3.640512E+03	2.940062E-03	6.740148E-05
3.650432E+03	3.011290E-03	6.896970E-05
3.660351E+03	3.084621E-03	7.058276E-05
3.670271E+03	3.160067E-03	7.224080E-05
3.680190E+03	3.237790E-03	7.394735E-05
3.690110E+03	3.317798E-03	7.570243E-05
3.700030E+03	3.400090E-03	7.750590E-05
3.709949E+03	3.484663E-03	7.935746E-05
3.719869E+03	3.571504E-03	8.125669E-05
3.729789E+03	3.660595E-03	8.320303E-05
3.739708E+03	3.752075E-03	8.519942E-05
3.749628E+03	3.845748E-03	8.724128E-05
3.759548E+03	3.941733E-03	8.933113E-05
3.769467E+03	4.039982E-03	9.146773E-05
3.779387E+03	4.140432E-03	9.364946E-05
3.789307E+03	4.243012E-03	9.587456E-05
3.799226E+03	4.347637E-03	9.814097E-05
3.809146E+03	4.454378E-03	1.004501E-04
3.819066E+03	4.562961E-03	1.027957E-04
3.828985E+03	4.673433E-03	1.051786E-04
3.838905E+03	4.785490E-03	1.075918E-04
3.848825E+03	4.899157E-03	1.100359E-04
3.858744E+03	5.014103E-03	1.125031E-04
3.868664E+03	5.130331E-03	1.149936E-04
3.878583E+03	5.247833E-03	1.175069E-04
3.888503E+03	5.366071E-03	1.200311E-04
3.898423E+03	5.485021E-03	1.225654E-04
3.908342E+03	5.604474E-03	1.251051E-04
3.918262E+03	5.724044E-03	1.276416E-04
3.928182E+03	5.843870E-03	1.301780E-04
3.938101E+03	5.963381E-03	1.327015E-04
3.948021E+03	6.082543E-03	1.352114E-04
3.957941E+03	6.201147E-03	1.377030E-04
3.967860E+03	6.318811E-03	1.401680E-04
3.977780E+03	6.435522E-03	1.426059E-04
3.987700E+03	6.550922E-03	1.450091E-04
3.997619E+03	6.665024E-03	1.473778E-04
4.007539E+03	6.777323E-03	1.497010E-04
4.017459E+03	6.887870E-03	1.519800E-04
4.027378E+03	6.996556E-03	1.542124E-04
4.037298E+03	7.103120E-03	1.563926E-04
4.047218E+03	7.207504E-03	1.585195E-04
4.057137E+03	7.309669E-03	1.605924E-04
4.067057E+03	7.409432E-03	1.626074E-04
4.076976E+03	7.506807E-03	1.645650E-04
4.086896E+03	7.601833E-03	1.664662E-04
4.096816E+03	7.694401E-03	1.683088E-04
4.106735E+03	7.784595E-03	1.700948E-04
4.116655E+03	7.872352E-03	1.718231E-04
4.126575E+03	7.957798E-03	1.734965E-04
4.136494E+03	8.041075E-03	1.751182E-04
4.146414E+03	8.122008E-03	1.766847E-04
4.156334E+03	8.200772E-03	1.781999E-04
4.166253E+03	8.277546E-03	1.796679E-04
4.176173E+03	8.352361E-03	1.810894E-04
4.186093E+03	8.425414E-03	1.824689E-04
4.196012E+03	8.496431E-03	1.838006E-04
4.205932E+03	8.565939E-03	1.850961E-04
4.215852E+03	8.633829E-03	1.863531E-04
4.225771E+03	8.700158E-03	1.875729E-04
4.235691E+03	8.764978E-03	1.887568E-04
4.245611E+03	8.828497E-03	1.899094E-04
4.255530E+03	8.890916E-03	1.910351E-04
4.265450E+03	8.951971E-03	1.921284E-04
4.275370E+03	9.011859E-03	1.931935E-04
4.285289E+03	9.070770E-03	1.942346E-04
4.295209E+03	9.128741E-03	1.952527E-04
4.305128E+03	9.185832E-03	1.962490E-04
4.315048E+03	9.242127E-03	1.972254E-04
4.324968E+03	9.297772E-03	1.981852E-04
4.334887E+03	9.353120E-03	1.991359E-04
4.344807E+03	9.408709E-03	2.000889E-04
4.354727E+03	9.464581E-03	2.010452E-04
4.364646E+03	9.521012E-03	2.020106E-04
4.374566E+03	9.577945E-03	2.029839E-04
4.384486E+03	9.635388E-03	2.039652E-04
4.394405E+03	9.693517E-03	2.049583E-04
4.404325E+03	9.752282E-03	2.059619E-04
4.414245E+03	9.812228E-03	2.069877E-04
4.424164E+03	9.872947E-03	2.080269E-04
4.434084E+03	9.934180E-03	2.090740E-04
4.444004E+03	9.995802E-03	2.101264E-04
4.453923E+03	1.005740E-02	2.111755E-04
4.463843E+03	1.011883E-02	2.122180E-04
4.473763E+03	1.017978E-02	2.132477E-04
4.483682E+03	1.024020E-02	2.142636E-04
4.493602E+03	1.029977E-02	2.152588E-04
4.503521E+03	1.035855E-02	2.162346E-04
4.513441E+03	1.041630E-02	2.171865E-04
4.523361E+03	1.047294E-02	2.181125E-04
4.533280E+03	1.052821E-02	2.190075E-04
4.543200E+03	1.058226E-02	2.198748E-04
4.553120E+03	1.063484E-02	2.207089E-04
4.563039E+03	1.068566E-02	2.215045E-04
4.572959E+03	1.073486E-02	2.222642E-04
4.582879E+03	1.078228E-02	2.229850E-04
4.592798E+03	1.082775E-02	2.236635E-04
4.602718E+03	1.087109E-02	2.242961E-04
4.612638E+03	1.091211E-02	2.248791E-04
4.622557E+03	1.095084E-02	2.254134E-04
4.632477E+03	1.098693E-02	2.258917E-04
4.642397E+03	1.102034E-02	2.263139E-04
4.652316E+03	1.105068E-02	2.266715E-04
4.662236E+03	1.107775E-02	2.269613E-04
4.672156E+03	1.110155E-02	2.271833E-04
4.682075E+03	1.112179E-02	2.273318E-04
4.691995E+03	1.113880E-02	2.274136E-04
4.701914E+03	1.115300E-02	2.274380E-04
4.711834E+03	1.116488E-02	2.274147E-04
4.721754E+03	1.117521E-02	2.273601E-04
4.731673E+03	1.118454E-02	2.272850E-04
4.741593E+03	1.119361E-02	2.272046E-04
4.751513E+03	1.120272E-02	2.271253E-04
4.761432E+03	1.121251E-02	2.270599E-04
4.771352E+03	1.122307E-02	2.270101E-04
4.781272E+03	1.123480E-02	2.269840E-04
4.791191E+03	1.124780E-02	2.269836E-04
4.801111E+03	1.126226E-02	2.270127E-04
4.811031E+03	1.127832E-02	2.270740E-04
4.820950E+03	1.129608E-02	2.271695E-04
4.830870E+03	1.131549E-02	2.272979E-04
4.840790E+03	1.133669E-02	2.274620E-04
4.850709E+03	1.135956E-02	2.276591E-04
4.860629E+03	1.138418E-02	2.278910E-04
4.870549E+03	1.141036E-02	2.281537E-04
4.880468E+03	1.143814E-02	2.284477E-04
4.890388E+03	1.146740E-02	2.287708E-04
4.900308E+03	1.149801E-02	2.291204E-04
4.910227E+03	1.152996E-02	2.294957E-04
4.920147E+03	1.156283E-02	2.298887E-04
4.930066E+03	1.159670E-02	2.303011E-04
4.939986E+03	1.163142E-02	2.307293E-04
4.949906E+03	1.166680E-02	2.311699E-04
4.959825E+03	1.170255E-02	2.316172E-04
4.969745E+03	1.173876E-02	2.320728E-04
4.979665E+03	1.177516E-02	2.325312E-04
4.989584E+03	1.181159E-02	2.329897E-04
4.999504E+03	1.184807E-02	2.334482E-04
5.009424E+03	1.188434E-02	2.339020E-04
5.019343E+03	1.192043E-02	2.343516E-04
5.029263E+03	1.195625E-02	2.347954E-04
5.039183E+03	1.199175E-02	2.352320E-04
5.049102E+03	1.202685E-02	2.356604E-04
5.059022E+03	1.206152E-02	2.360798E-04
5.068942E+03	1.209571E-02	2.364893E-04
5.078861E+03	1.212940E-02	2.368886E-04
5.088781E+03	1.216267E-02	2.372794E-04
5.098701E+03	1.219538E-02	2.376589E-04
5.108620E+03	1.222762E-02	2.380290E-04
5.118540E+03	1.225935E-02	2.383888E-04
5.128459E+03	1.229039E-02	2.387351E-04
5.138379E+03	1.232081E-02	2.390692E-04
5.148299E+03	1.235052E-02	2.393894E-04
5.158218E+03	1.237930E-02	2.396918E-04
5.168138E+03	1.240729E-02	2.399788E-04
5.178058E+03	1.243423E-02	2.402456E-04
5.187977E+03	1.245995E-02	2.404891E-04
5.197897E+03	1.248429E-02	2.407061E-04
5.207817E+03	1.250701E-02	2.408923E-04
5.217736E+03	1.252792E-02	2.410443E-04
5.227656E+03	1.254690E-02	2.411596E-04
5.237576E+03	1.256369E-02	2.412334E-04
5.247495E+03	1.257776E-02	2.412560E-04
5.257415E+03	1.258920E-02	2.412289E-04
5.267335E+03	1.259747E-02	2.411423E-04
5.277254E+03	1.260225E-02	2.409900E-04
5.287174E+03	1.260334E-02	2.407688E-04
5.297094E+03	1.260046E-02	2.404732E-04
5.307013E+03	1.259327E-02	2.400972E-04
5.316933E+03	1.258131E-02	2.396320E-04
5.326852E+03	1.256441E-02	2.390751E-04
5.336772E+03	1.254224E-02	2.384203E-04
5.346692E+03	1.251449E-02	2.376620E-04
5.356611E+03	1.248076E-02	2.367926E-04
5.366531E+03	1.244100E-02	2.358120E-04
5.376451E+03	1.239469E-02	2.347103E-04
5.386370E+03	1.234174E-02	2.334861E-04
5.396290E+03	1.228194E-02	2.321359E-04
5.406210E+03	1.221502E-02	2.306549E-04
5.416129E+03	1.214115E-02	2.290466E-04
5.426049E+03	1.206012E-02	2.273076E-04
5.435969E+03	1.197209E-02	2.254409E-04
5.445888E+03	1.187746E-02	2.234544E-04
5.455808E+03	1.177664E-02	2.213563E-04
5.465728E+03	1.167007E-02	2.191549E-04
5.475647E+03	1.155839E-02	2.168627E-04
5.485567E+03	1.144238E-02	2.144944E-04
5.495487E+03	1.132301E-02	2.120682E-04
5.505406E+03	1.120104E-02	2.095988E-04
5.515326E+03	1.107750E-02	2.071052E-04
5.525246E+03	1.095329E-02	2.046044E-04
5.535165E+03	1.082920E-02	2.021110E-04
5.545085E+03	1.070617E-02	1.996428E-04
5.555004E+03	1.058494E-02	1.972130E-04
5.564924E+03	1.046648E-02	1.948399E-04
5.574844E+03	1.035123E-02	1.925313E-04
5.584763E+03	1.024008E-02	1.903036E-04
5.594683E+03	1.013367E-02	1.881686E-04
5.604603E+03	1.003249E-02	1.861351E-04
5.614522E+03	9.937204E-03	1.842148E-04
5.624442E+03	9.848106E-03	1.824132E-04
5.634362E+03	9.765846E-03	1.807419E-04
5.644281E+03	9.690725E-03	1.792062E-04
5.654201E+03	9.623096E-03	1.778121E-04
5.664121E+03	9.563255E-03	1.765649E-04
5.674040E+03	9.511354E-03	1.754669E-04
5.683960E+03	9.467772E-03	1.745248E-04
5.693880E+03	9.432458E-03	1.737372E-04
5.703799E+03	9.405490E-03	1.731053E-04
5.713719E+03	9.386985E-03	1.726308E-04
5.723639E+03	9.376816E-03	1.723109E-04
5.733558E+03	9.374977E-03	1.721453E-04
5.743478E+03	9.381133E-03	1.721275E-04
5.753397E+03	9.395163E-03	1.722548E-04
5.763317E+03	9.416795E-03	1.725220E-04
5.773237E+03	9.445701E-03	1.729229E-04
5.783156E+03	9.481408E-03	1.734483E-04
5.793076E+03	9.523567E-03	1.740918E-04
5.802996E+03	9.571602E-03	1.748425E-04
5.812915E+03	9.624980E-03	1.756905E-04
5.822835E+03	9.683222E-03	1.766269E-04
5.832755E+03	9.745532E-03	1.776370E-04
5.842674E+03	9.811370E-03	1.787108E-04
5.852594E+03	9.880081E-03	1.798364E-04
5.862514E+03	9.950902E-03	1.809997E-04
5.872433E+03	1.002336E-02	1.821920E-04
5.882353E+03	1.009649E-02	1.833960E-04
5.892273E+03	1.016984E-02	1.846034E-04
5.902192E+03	1.024270E-02	1.858012E-04
5.912112E+03	1.031447E-02	1.869786E-04
5.922032E+03	1.038470E-02	1.881277E-04
5.931951E+03	1.045268E-02	1.892357E-04
5.941871E+03	1.051818E-02	1.902984E-04
5.951790E+03	1.058060E-02	1.913053E-04
5.961710E+03	1.063973E-02	1.922525E-04
5.971630E+03	1.069541E-02	1.931375E-04
5.981549E+03	1.074725E-02	1.939532E-04
5.991469E+03	1.079522E-02	1.946995E-04
6.001389E+03	1.083928E-02	1.953755E-04
6.011308E+03	1.087942E-02	1.959814E-04
6.021228E+03	1.091570E-02	1.965183E-04
6.031148E+03	1.094810E-02	1.969863E-04
6.041067E+03	1.097699E-02	1.973918E-04
6.050987E+03	1.100231E-02	1.977341E-04
6.060907E+03	1.102435E-02	1.980186E-04
6.070826E+03	1.104331E-02	1.982489E-04
6.080746E+03	1.105925E-02	1.984263E-04
6.090666E+03	1.107259E-02	1.985582E-04
6.100585E+03	1.108315E-02	1.986418E-04
6.110505E+03	1.109143E-02	1.986860E-04
6.120425E+03	1.109752E-02	1.986924E-04
6.130344E+03	1.110165E-02	1.986656E-04
6.140264E+03	1.110420E-02	1.986119E-04
6.150184E+03	1.110565E-02	1.985404E-04
6.160103E+03	1.110664E-02	1.984625E-04
6.170023E+03	1.110793E-02	1.983916E-04
6.179942E+03	1.111030E-02	1.983419E-04
6.189862E+03	1.111468E-02	1.983297E-04
6.199782E+03	1.112160E-02	1.983649E-04
6.209701E+03	1.113201E-02	1.984639E-04
6.219621E+03	1.114654E-02	1.986383E-04
6.229541E+03	1.116566E-02	1.988961E-04
6.239460E+03	1.118986E-02	1.992463E-04
6.249380E+03	1.121970E-02	1.996983E-04
6.259300E+03	1.125541E-02	2.002566E-04
6.269219E+03	1.129753E-02	2.009304E-04
6.279139E+03	1.134608E-02	2.017198E-04
6.289059E+03	1.140133E-02	2.026299E-04
6.298978E+03	1.146341E-02	2.036627E-04
6.308898E+03	1.153238E-02	2.048191E-04
6.318818E+03	1.160825E-02	2.060990E-04
6.328737E+03	1.169095E-02	2.075015E-04
6.338657E+03	1.178051E-02	2.090266E-04
6.348577E+03	1.187664E-02	2.106694E-04
6.358496E+03	1.197924E-02	2.124279E-04
6.368416E+03	1.208793E-02	2.142952E-04
6.378335E+03	1.220263E-02	2.162701E-04
6.388255E+03	1.232274E-02	2.183416E-04
6.398175E+03	1.244796E-02	2.205047E-04
6.408094E+03	1.257800E-02	2.227539E-04
6.418014E+03	1.271237E-02	2.250808E-04
6.427934E+03	1.285043E-02	2.274739E-04
6.437853E+03	1.299205E-02	2.299310E-04
6.447773E+03	1.313641E-02	2.324376E-04
6.457693E+03	1.328321E-02	2.349882E-04
6.467612E+03	1.343173E-02	2.375704E-04
6.477532E+03	1.358123E-02	2.401709E-04
6.487452E+03	1.373109E-02	2.427790E-04
6.497371E+03	1.388101E-02	2.453893E-04
6.507291E+03	1.402994E-02	2.479834E-04
6.517211E+03	1.417772E-02	2.505584E-04
6.527130E+03	1.432345E-02	2.530986E-04
6.537050E+03	1.446668E-02	2.555961E-04
6.546970E+03	1.460699E-02	2.580436E-04
6.556889E+03	1.474352E-02	2.604258E-04
6.566809E+03	1.487601E-02	2.627383E-04
6.576728E+03	1.500393E-02	2.649720E-04
6.586648E+03	1.512662E-02	2.671150E-04
6.596568E+03	1.524357E-02	2.691585E-04
6.606487E+03	1.535465E-02	2.711003E-04
6.616407E+03	1.545925E-02	2.729297E-04
6.626327E+03	1.555696E-02	2.746396E-04
6.636246E+03	1.564742E-02	2.762235E-04
6.646166E+03	1.573029E-02	2.776757E-04
6.656086E+03	1.580544E-02	2.789938E-04
6.666005E+03	1.587246E-02	2.801705E-04
6.675925E+03	1.593131E-02	2.812055E-04
6.685845E+03	1.598166E-02	2.820928E-04
6.695764E+03	1.602359E-02	2.828338E-04
6.705684E+03	1.605705E-02	2.834277E-04
6.715604E+03	1.608204E-02	2.838745E-04
6.725523E+03	1.609860E-02	2.841750E-04
6.735443E+03	1.610666E-02	2.843279E-04
6.745363E+03	1.610675E-02	2.843425E-04
6.755282E+03	1.609886E-02	2.842186E-04
6.765202E+03	1.608323E-02	2.839606E-04
6.775122E+03	1.606013E-02	2.835731E-04
6.785041E+03	1.602986E-02	2.830614E-04
6.794961E+03	1.599293E-02	2.824345E-04
6.804880E+03	1.594948E-02	2.816949E-04
6.814800E+03	1.589988E-02	2.808490E-04
6.824720E+03	1.584468E-02	2.799065E-04
6.834639E+03	1.578403E-02	2.788699E-04
6.844559E+03	1.571847E-02	2.777489E-04
6.854479E+03	1.564832E-02	2.765492E-04
6.864398E+03	1.557372E-02	2.752729E-04
6.874318E+03	1.549497E-02	2.739253E-04
6.884238E+03	1.541269E-02	2.725176E-04
6.894157E+03	1.532674E-02	2.710471E-04
6.904077E+03	1.523753E-02	2.695208E-04
6.913997E+03	1.514502E-02	2.679383E-04
6.923916E+03	1.504953E-02	2.663051E-04
6.933836E+03	1.495136E-02	2.646262E-04
6.943756E+03	1.485020E-02	2.628965E-04
6.953675E+03	1.474629E-02	2.611198E-04
6.963595E+03	1.463946E-02	2.592931E-04
6.973515E+03	1.453007E-02	2.574229E-04
6.983434E+03	1.441793E-02	2.555055E-04
6.993354E+03	1.430298E-02	2.535400E-04
7.003273E+03	1.418517E-02	2.515254E-04
7.013193E+03	1.406448E-02	2.494612E-04
7.023113E+03	1.394084E-02	2.473460E-04
7.033032E+03	1.381421E-02	2.451791E-04
7.042952E+03	1.368455E-02	2.429598E-04
7.052872E+03	1.355202E-02	2.406907E-04
7.062791E+03	1.341642E-02	2.383680E-04
7.072711E+03	1.327777E-02	2.359922E-04
7.082631E+03	1.313609E-02	2.335635E-04
7.092550E+03	1.299162E-02	2.310862E-04
7.102470E+03	1.284426E-02	2.285580E-04
7.112390E+03	1.269427E-02	2.259838E-04
7.122309E+03	1.254164E-02	2.233630E-04
7.132229E+03	1.238666E-02	2.207007E-04
7.142149E+03	1.222952E-02	2.180004E-04
7.152068E+03	1.207025E-02	2.152622E-04
7.161988E+03	1.190909E-02	2.124905E-04
7.171908E+03	1.174658E-02	2.096946E-04
7.181827E+03	1.158267E-02	2.068738E-04
7.191747E+03	1.141780E-02	2.040355E-04
7.201667E+03	1.125223E-02	2.011845E-04
7.211586E+03	1.108629E-02	1.983264E-04
7.221506E+03	1.092026E-02	1.954661E-04
7.231425E+03	1.075431E-02	1.926068E-04
7.241345E+03	1.058904E-02	1.897590E-04
7.251265E+03	1.042463E-02	1.869256E-04
7.261184E+03	1.026136E-02	1.841121E-04
7.271104E+03	1.009941E-02	1.813214E-04
7.281024E+03	9.939347E-03	1.785634E-04
7.290943E+03	9.781304E-03	1.758408E-04
7.300863E+03	9.625548E-03	1.731583E-04
7.310783E+03	9.472448E-03	1.705225E-04
7.320702E+03	9.321973E-03	1.679328E-04
7.330622E+03	9.174573E-03	1.653973E-04
7.340542E+03	9.030291E-03	1.629169E-04
7.350461E+03	8.889503E-03	1.604983E-04
7.360381E+03	8.752071E-03	1.581392E-04
7.370301E+03	8.618177E-03	1.558428E-04
7.380220E+03	8.487960E-03	1.536118E-04
7.390140E+03	8.361177E-03	1.514418E-04
7.400060E+03	8.237786E-03	1.493321E-04
7.409979E+03	8.117717E-03	1.472814E-04
7.419899E+03	8.001002E-03	1.452906E-04
7.429818E+03	7.887353E-03	1.433543E-04
7.439738E+03	7.776851E-03	1.414742E-04
7.449658E+03	7.669417E-03	1.396488E-04
7.459577E+03	7.565155E-03	1.378802E-04
7.469497E+03	7.464331E-03	1.361731E-04
7.479417E+03	7.366957E-03	1.345280E-04
7.489336E+03	7.273472E-03	1.329528E-04
7.499256E+03	7.184003E-03	1.314499E-04
7.509176E+03	7.098661E-03	1.300215E-04
7.519095E+03	7.017708E-03	1.286726E-04
7.529015E+03	6.941264E-03	1.274054E-04
7.538935E+03	6.869311E-03	1.262198E-04
7.548854E+03	6.801982E-03	1.251184E-04
7.558774E+03	6.739182E-03	1.240997E-04
7.568694E+03	6.680879E-03	1.231631E-04
7.578613E+03	6.627106E-03	1.223097E-04
7.588533E+03	6.577781E-03	1.215379E-04
7.598453E+03	6.532621E-03	1.208429E-04
7.608372E+03	6.491690E-03	1.202259E-04
7.618292E+03	6.454767E-03	1.196831E-04
7.628211E+03	6.421707E-03	1.192120E-04
7.638131E+03	6.392360E-03	1.188101E-04
7.648051E+03	6.366564E-03	1.184745E-04
7.657970E+03	6.344152E-03	1.182022E-04
7.667890E+03	6.325036E-03	1.179919E-04
7.677810E+03	6.308951E-03	1.178387E-04
7.687729E+03	6.295709E-03	1.177393E-04
7.697649E+03	6.285126E-03	1.176905E-04
